# Generic Text File Format
# Version: 1
# StartDateTime: 2012-04-30 14:13:29
# SamplingFrequency: 1000
# SamplingResolution: 12
# EndOfHeader
2469
2491
2504
2468
2400
2330
2288
2271
2269
2300
2353
2388
2398
2384
2375
2373
2380
2387
2382
2370
2363
2372
2392
2392
2372
2354
2340
2318
2280
2256
2256
2274
2296
2306
2300
2285
2256
2232
2228
2220
2216
2235
2280
2344
2415
2469
2514
2520
2503
2474
2425
2371
2312
2254
2230
2228
2241
2269
2298
2310
2281
2275
2329
2401
2469
2513
2540
2568
2595
2636
2681
2718
2726
2733
2772
2839
2914
2942
2934
2944
2958
2963
2959
2979
3020
3051
3056
3037
3005
2950
2844
2694
2551
2449
2370
2296
2232
2190
2153
2133
2126
2105
2086
2088
2066
2024
1978
1961
1991
2036
2071
2119
2176
2218
2226
2228
2228
2232
2254
2248
2213
2185
2168
2159
2182
2230
2252
2241
2211
2172
2138
2116
2083
2041
2026
2043
2085
2116
2132
2146
2152
2140
2106
2079
2077
2086
2102
2128
2151
2170
2168
2165
2172
2169
2128
2124
2162
2191
2184
2149
2120
2106
2071
2027
2006
2011
2038
2089
2129
2133
2116
2101
2098
2112
2128
2139
2158
2182
2188
2189
2201
2207
2183
2139
2114
2105
2091
2069
2059
2073
2089
2127
2182
2232
2241
2231
2227
2233
2269
2324
2381
2398
2375
2339
2322
2338
2351
2299
2223
2169
2129
2104
2115
2148
2175
2185
2184
2173
2133
2103
2095
2109
2144
2181
2186
2182
2174
2130
2101
2092
2092
2108
2136
2169
2187
2193
2207
2227
2249
2252
2259
2260
2245
2222
2206
2184
2152
2114
2073
2038
2022
2018
2040
2079
2117
2157
2181
2151
2120
2101
2100
2113
2143
2165
2168
2183
2208
2199
2148
2102
2093
2100
2110
2137
2153
2160
2166
2175
2176
2154
2144
2157
2142
2115
2127
2158
2187
2209
2198
2167
2149
2150
2171
2187
2198
2182
2149
2112
2084
2073
2090
2139
2175
2189
2194
2200
2178
2110
2003
1908
1866
1874
1920
2012
2105
2176
2231
2237
2225
2204
2183
2155
2130
2115
2106
2106
2114
2131
2153
2197
2251
2244
2163
2089
2050
2040
2068
2135
2164
2137
2099
2070
2036
2020
2042
2087
2119
2126
2113
2083
2035
1996
1992
2039
2094
2110
2118
2105
2075
2038
2022
2011
2029
2061
2055
2016
1982
1987
2006
2027
2041
2060
2086
2090
2083
2081
2062
2022
1990
1998
2030
2076
2081
2057
2001
1948
1923
1942
1997
2042
2052
2039
2003
1973
1966
1974
1976
1958
1927
1908
1914
1925
1936
1986
2028
2023
2004
1986
1990
2003
2003
2000
2013
2008
1964
1928
1916
1893
1871
1905
1949
1970
1968
1954
1948
1965
1982
2008
2011
1977
1920
1878
1884
1929
1980
2015
2015
1997
1988
1974
1989
2014
1994
1944
1926
1938
1938
1948
1951
1924
1900
1910
1943
2004
2052
2061
2056
2022
1971
1947
1947
1946
1918
1898
1892
1897
1918
1924
1924
1945
1966
1976
1967
1943
1926
1917
1913
1900
1895
1895
1904
1920
1916
1905
1896
1908
1934
1960
1988
2016
2024
2009
1974
1950
1934
1940
1950
1952
1951
1952
1925
1894
1894
1937
1982
1965
1913
1880
1861
1864
1866
1856
1846
1841
1830
1839
1878
1897
1881
1841
1841
1888
1970
2063
2107
2088
2061
2035
2001
1958
1914
1880
1873
1901
1935
1972
1988
1979
1950
1930
1961
1992
1987
1977
1956
1921
1891
1900
1935
1977
2014
2028
2011
1956
1891
1849
1852
1896
1973
2025
2021
1982
1930
1888
1852
1834
1861
1936
2010
2050
2071
2067
2052
2030
1996
1964
1948
1932
1917
1928
1953
1963
1965
1988
2021
2020
1998
1982
2000
2038
2059
2057
2038
2023
2023
2048
2074
2094
2100
2062
1989
1933
1925
1953
1982
1982
1975
1981
1979
1970
1954
1933
1907
1891
1903
1959
2016
2042
2015
1942
1862
1828
1809
1809
1842
1876
1913
1966
1996
1972
1943
1932
1933
1935
1978
2025
2054
2061
2041
2039
2034
2002
1996
1994
1971
1941
1951
1980
2006
2007
2006
2019
2019
1999
1971
1937
1950
1988
2009
2019
2012
1997
2006
2024
2046
2075
2090
2074
2056
2033
2003
1985
2012
2073
2139
2183
2186
2163
2119
2078
2046
2013
1988
1951
1933
1931
1955
1988
2011
2011
2006
2020
2034
2028
2025
2049
2114
2205
2289
2352
2383
2417
2461
2537
2635
2714
2750
2736
2675
2632
2646
2716
2771
2759
2693
2626
2581
2533
2463
2407
2386
2344
2290
2246
2171
2054
1946
1872
1833
1804
1806
1834
1874
1876
1836
1816
1842
1873
1898
1922
1928
1957
1997
1974
1902
1849
1820
1798
1799
1826
1867
1909
1940
1954
1926
1908
1906
1896
1895
1913
1907
1893
1888
1887
1876
1856
1853
1859
1877
1896
1891
1893
1887
1878
1880
1867
1847
1860
1870
1847
1811
1801
1836
1893
1925
1905
1894
1909
1929
1958
1960
1926
1903
1907
1906
1905
1894
1876
1858
1850
1845
1849
1846
1820
1765
1714
1724
1765
1810
1862
1900
1923
1956
1995
1993
1975
1964
1945
1922
1895
1880
1878
1880
1873
1836
1767
1708
1676
1680
1709
1760
1821
1865
1908
1954
1981
1982
1957
1929
1910
1903
1917
1915
1893
1881
1897
1918
1946
1963
1956
1942
1932
1929
1914
1878
1826
1772
1732
1704
1689
1700
1729
1766
1790
1784
1790
1815
1837
1853
1857
1836
1802
1785
1772
1768
1761
1724
1683
1677
1710
1803
1929
1988
1998
2028
2070
2057
1997
1955
1952
1962
1949
1935
1931
1943
1983
2010
1998
1961
1922
1897
1898
1896
1883
1873
1865
1870
1889
1915
1952
1989
2014
2005
1984
1984
2004
2002
1969
1923
1871
1830
1813
1836
1879
1926
1930
1920
1932
1957
1968
1970
1986
1999
2012
2027
2042
2050
2027
2006
1993
1989
1987
1977
1990
2015
2032
2015
1983
1953
1936
1955
1999
2053
2088
2104
2090
2042
1987
1957
1944
1969
2008
2040
2049
2083
2139
2173
2162
2148
2155
2147
2133
2150
2161
2151
2124
2072
2011
1956
1937
1944
1939
1950
1989
2021
2033
2058
2084
2110
2121
2085
2043
2042
2027
2004
1993
1969
1929
1899
1885
1881
1900
1925
1944
1951
1959
1964
1966
1968
1962
1961
1975
1988
1999
2011
2030
2038
2032
2017
1989
1987
2009
2001
2014
2065
2127
2158
2134
2057
2004
1979
1965
1952
1958
1986
2023
2051
2046
2052
2089
2123
2122
2101
2047
1966
1905
1920
1978
2031
2058
2063
2066
2076
2094
2124
2139
2118
2081
2053
2038
2065
2089
2059
2029
2033
2041
2045
2059
2061
2051
2039
2028
2008
2004
2012
2028
2049
2049
2046
2066
2071
2075
2088
2100
2115
2142
2151
2154
2165
2130
2083
2075
2099
2102
2092
2072
2049
2038
2049
2078
2099
2098
2122
2152
2151
2138
2135
2117
2100
2096
2090
2076
2064
2065
2063
2039
2035
2062
2095
2096
2076
2072
2084
2078
2058
2035
2030
2037
2043
2039
2033
2054
2095
2123
2120
2098
2068
2056
2080
2105
2119
2124
2124
2110
2082
2062
2067
2074
2063
2061
2087
2138
2195
2245
2284
2237
2136
2064
2055
2078
2097
2105
2090
2065
2040
2041
2056
2054
2090
2155
2227
2297
2355
2400
2392
2303
2162
2039
1975
1969
2006
2034
2019
1988
1984
2004
2000
1985
1999
2021
2038
2069
2106
2133
2129
2120
2105
2087
2080
2078
2070
2060
2054
2068
2076
2089
2086
2081
2100
2153
2211
2263
2297
2288
2248
2214
2202
2179
2142
2106
2088
2074
2064
2030
2008
2007
2022
2033
2065
2124
2186
2235
2235
2215
2172
2089
1993
1941
1933
1938
1931
1920
1910
1921
1966
2016
2051
2070
2071
2058
2038
2026
2030
2053
2078
2096
2102
2116
2131
2150
2153
2124
2092
2076
2059
2046
2049
2074
2095
2104
2099
2082
2062
2075
2089
2101
2113
2107
2100
2093
2091
2077
2074
2087
2082
2073
2073
2069
2049
2033
2019
1998
1978
1984
2014
2056
2087
2102
2118
2129
2135
2184
2235
2258
2234
2208
2218
2221
2176
2116
2099
2144
2213
2288
2354
2404
2448
2475
2487
2503
2537
2595
2649
2679
2702
2732
2748
2746
2726
2719
2740
2730
2672
2624
2584
2525
2462
2399
2314
2235
2174
2073
1945
1838
1761
1715
1735
1771
1788
1786
1741
1681
1650
1678
1793
1959
2089
2136
2155
2156
2137
2117
2112
2122
2127
2115
2084
2064
2064
2079
2072
2055
2030
2014
2026
2038
2026
1990
1936
1885
1846
1820
1806
1800
1797
1815
1845
1884
1924
1963
1995
2006
1985
1974
1982
1991
2008
2011
1996
1986
1984
1971
1960
1967
1978
1974
1969
1959
1968
1990
2000
2013
2025
2020
2000
1987
1983
1981
1978
1959
1937
1939
1972
2026
2099
2164
2167
2118
2050
1989
1975
1992
2003
2002
1988
1969
1966
1979
1986
1990
1996
2015
2044
2050
2034
2044
2056
2043
2035
2032
2046
2071
2060
2035
2010
1997
2008
2041
2072
2118
2142
2098
2035
1951
1865
1823
1836
1877
1924
1953
1973
1997
2015
2025
2021
2023
2036
2044
2049
2050
2052
2049
2043
2043
2042
2050
2060
2062
2039
2000
1987
2005
2036
2070
2079
2071
2069
2060
2060
2067
2068
2042
2024
2051
2086
2112
2119
2116
2108
2120
2137
2129
2114
2079
2024
1989
1984
1984
1997
1989
1988
2015
2060
2103
2164
2221
2263
2282
2277
2276
2263
2220
2169
2129
2098
2073
2052
2038
2026
2018
2014
2013
2030
2048
2069
2091
2096
2081
2061
2045
2039
2049
2064
2062
2056
2046
2026
2018
2031
2064
2086
2101
2093
2081
2102
2135
2160
2194
2213
2185
2133
2097
2070
2029
1992
1970
1957
1944
1940
1963
2014
2102
2192
2236
2234
2232
2219
2185
2153
2121
2088
2082
2125
2178
2194
2158
2117
2113
2118
2094
2074
2068
2065
2075
2089
2108
2126
2126
2099
2092
2130
2169
2164
2131
2119
2123
2116
2086
2050
2034
2062
2095
2140
2225
2271
2256
2203
2123
2052
2012
1991
1975
1959
1922
1881
1853
1829
1814
1818
1850
1878
1915
1963
2002
2028
2054
2079
2099
2101
2077
2043
2016
2014
2049
2119
2155
2138
2095
2042
1992
1972
1968
1974
1987
2010
2030
2071
2109
2124
2136
2159
2188
2236
2266
2259
2203
2112
2081
2087
2097
2110
2100
2063
2018
1981
1965
1977
2010
2035
2053
2067
2085
2116
2142
2135
2107
2067
2049
2065
2081
2094
2101
2105
2104
2083
2060
2044
2041
2030
2018
2023
2044
2067
2086
2082
2048
2006
1981
2006
2061
2114
2200
2261
2248
2204
2168
2124
2067
2019
1989
1986
2023
2079
2127
2144
2137
2131
2105
2046
1975
1936
1907
1878
1875
1878
1869
1876
1912
1945
1966
1992
2016
2030
2031
2065
2143
2215
2273
2300
2288
2253
2206
2165
2130
2121
2126
2129
2111
2075
2046
2041
2039
2045
2040
2034
2051
2079
2066
2037
2045
2097
2137
2135
2147
2174
2207
2243
2223
2144
2095
2071
2041
2011
2002
1999
2008
2028
2050
2083
2117
2145
2135
2063
1964
1878
1826
1800
1815
1864
1933
1999
2059
2100
2123
2131
2128
2101
2062
2031
2027
2040
2043
2042
2057
2077
2101
2123
2125
2105
2084
2081
2080
2101
2118
2121
2111
2109
2131
2145
2133
2142
2139
2155
2185
2185
2166
2172
2175
2168
2156
2142
2119
2087
2040
1966
1904
1894
1936
1998
2066
2139
2167
2151
2123
2083
2032
1987
1955
1948
1952
1969
2026
2085
2102
2096
2113
2127
2136
2130
2107
2069
2054
2066
2071
2085
2104
2127
2149
2160
2134
2101
2064
2018
1978
1969
1997
2050
2092
2108
2093
2059
2018
2012
2026
2058
2084
2081
2080
2061
2033
2019
2006
1984
1962
1972
1993
2015
2040
2051
2065
2068
2043
2012
2006
2012
1993
1954
1936
1954
1991
2019
2025
2027
2030
2046
2051
2030
2008
2010
2029
2063
2096
2121
2142
2149
2136
2099
2072
2085
2090
2078
2075
2086
2110
2116
2091
2054
2083
2152
2201
2194
2139
2072
2044
2074
2119
2163
2206
2245
2304
2373
2433
2485
2534
2581
2622
2652
2673
2702
2746
2791
2830
2858
2866
2847
2815
2772
2714
2638
2554
2450
2352
2280
2214
2136
2050
1985
1950
1920
1893
1886
1895
1894
1890
1889
1905
1925
1919
1915
1945
1970
1969
1956
1953
1960
2000
2012
2007
2012
1986
1941
1921
1921
1929
1943
1935
1924
1921
1930
1954
1981
2002
1996
1995
1992
1985
1972
1971
2010
2031
2008
2000
2030
2084
2129
2118
2066
1999
1931
1909
1939
1983
2019
2010
1982
1946
1920
1910
1922
1943
1961
1976
1978
1959
1933
1914
1898
1913
1921
1876
1818
1795
1825
1909
2011
2086
2096
2042
1964
1871
1782
1725
1723
1755
1831
1953
2065
2132
2156
2166
2192
2219
2222
2231
2257
2284
2292
2270
2215
2160
2134
2111
2061
1986
1945
1935
1946
1978
2008
2004
1975
1944
1928
1920
1906
1887
1878
1872
1882
1907
1943
1985
2001
1993
1989
1990
1997
2002
2002
1999
1993
1985
2002
2039
2071
2071
2073
2064
2055
2051
2066
2080
2078
2094
2098
2082
2103
2146
2180
2182
2160
2127
2092
2085
2073
2054
2009
1959
1944
1932
1900
1884
1917
1954
1966
1967
1984
1999
1986
1979
1990
2008
2013
2006
1976
1933
1940
1966
1994
1995
2001
2020
2037
2063
2062
2037
2023
2025
2019
2017
2050
2104
2162
2215
2246
2275
2272
2271
2303
2335
2345
2334
2282
2223
2191
2167
2125
2086
2060
2054
2075
2108
2132
2153
2175
2171
2137
2073
1994
1929
1915
1926
1928
1947
1960
1980
2004
2008
2008
2020
2046
2070
2079
2095
2115
2111
2073
2038
2034
2029
2020
2020
2034
2053
2076
2068
2053
2039
2036
2050
2074
2091
2082
2055
2043
2032
2009
2021
2051
2081
2098
2082
2092
2131
2158
2157
2184
2202
2187
2188
2179
2137
2068
1986
1895
1824
1801
1803
1784
1764
1764
1808
1855
1884
1929
1987
2050
2108
2131
2106
2055
2014
1997
2003
1997
1964
1919
1895
1913
1980
2059
2121
2149
2132
2102
2089
2067
2054
2058
2054
2051
2055
2046
2033
2048
2056
2043
2034
2050
2071
2068
2021
1990
1975
1978
2025
2097
2171
2231
2275
2248
2137
2005
1903
1851
1833
1846
1876
1915
1961
1993
1987
1965
1958
1988
2044
2097
2116
2093
2076
2068
2064
2052
2062
2085
2093
2106
2130
2145
2151
2162
2140
2084
2037
2013
2024
2051
2074
2082
2087
2102
2121
2132
2125
2120
2134
2144
2129
2104
2073
2052
2065
2104
2147
2190
2233
2267
2268
2226
2184
2168
2180
2188
2153
2094
2048
2014
1989
1984
1990
2006
2008
2014
2017
1995
1974
1963
1964
1990
2022
2027
2024
2050
2058
2047
2044
2050
2058
2088
2121
2129
2126
2134
2135
2140
2154
2171
2168
2151
2127
2080
2039
2026
2025
2027
2035
2047
2037
2008
1990
1997
2014
2034
2062
2090
2110
2127
2124
2103
2109
2110
2091
2068
2051
2039
2029
2020
2027
2051
2072
2092
2100
2099
2102
2078
2036
1980
1932
1927
1981
2063
2087
2067
2061
2078
2095
2088
2071
2047
2031
2042
2062
2068
2061
2052
2050
2048
2035
2013
2017
2049
2053
2055
2078
2117
2132
2103
2069
2050
2039
2025
2028
2053
2070
2083
2109
2135
2123
2099
2075
2038
1999
1979
1977
1981
1986
1978
1957
1971
2017
2063
2085
2072
2048
2051
2067
2078
2088
2094
2091
2074
2051
2035
2039
2043
2028
2010
1999
1978
1961
1984
2007
2004
1988
1967
1938
1925
1952
2013
2063
2092
2101
2082
2062
2037
2011
1988
1986
2000
2025
2060
2082
2095
2086
2065
2049
2023
2009
2016
2017
2009
1999
2001
2008
2004
1997
2004
2034
2077
2099
2093
2079
2058
2072
2111
2137
2127
2065
2000
1976
1992
2028
2041
2030
2013
1984
1960
1966
2008
2050
2081
2080
2055
2035
2051
2089
2123
2160
2213
2272
2330
2375
2409
2442
2476
2515
2563
2627
2672
2703
2731
2748
2760
2783
2824
2876
2918
2904
2851
2784
2709
2629
2556
2464
2362
2277
2206
2142
2069
1991
1923
1871
1852
1864
1882
1902
1919
1918
1898
1886
1888
1903
1932
1958
1993
2025
2021
2012
2003
1997
1986
1972
1970
1978
1985
1975
1973
1980
1982
1959
1916
1885
1875
1869
1884
1910
1952
1990
2015
2033
2022
1968
1896
1861
1858
1864
1880
1914
1963
2011
2038
2048
2055
2054
2054
2048
2040
2005
1964
1950
1949
1954
1961
1987
1998
1978
1954
1938
1934
1959
2009
2034
2025
2002
1980
1972
1977
1983
1970
1955
1946
1944
1938
1958
1984
1990
2002
2010
2010
2014
2020
2031
2021
1993
1974
1961
1945
1939
1960
1979
1970
1948
1942
1940
1943
1950
1952
1947
1939
1961
2001
2040
2069
2060
2023
1986
1979
1987
1989
1997
1993
2008
2030
2045
2063
2088
2088
2073
2048
2015
2004
2008
2006
2006
2014
2031
2044
2065
2057
2047
2045
2035
2019
2000
1991
1999
2029
2079
2104
2093
2078
2074
2069
2068
2052
2034
2028
2003
2002
2031
2071
2087
2096
2098
2082
2066
2074
2076
2059
2043
2020
1986
1972
1979
2008
2020
2014
2022
2024
2008
1992
1993
2030
2073
2090
2081
2070
2096
2131
2139
2138
2134
2120
2122
2154
2185
2162
2101
2030
1996
1994
1993
1984
1995
2022
2055
2102
2147
2163
2146
2109
2082
2085
2114
2136
2143
2147
2155
2167
2173
2158
2121
2094
2075
2073
2091
2138
2194
2219
2188
2142
2103
2065
2025
1985
1973
2003
2044
2080
2110
2123
2116
2106
2087
2056
2016
1979
1963
1956
1981
2001
1998
2024
2053
2050
2042
2068
2096
2102
2100
2080
2009
1943
1920
1942
1974
2011
2038
2061
2079
2094
2114
2118
2105
2098
2075
2027
1994
1983
1990
1989
1968
1953
1971
2011
2030
2017
1990
1973
1988
2009
2022
2022
2005
1991
1993
2009
2032
2049
2044
2002
1960
1974
2004
2001
2001
2020
2052
2078
2076
2063
2059
2059
2060
2065
2056
2035
2014
2015
2024
2063
2114
2086
2004
1959
1979
1999
2018
2046
2069
2088
2098
2079
2049
2027
2033
2069
2102
2089
2053
2024
1997
1994
2003
1991
1939
1881
1835
1814
1836
1871
1890
1948
2044
2134
2184
2186
2181
2172
2144
2116
2094
2091
2090
2106
2127
2118
2088
2048
2014
1979
1958
1973
2007
2030
2034
2039
2052
2063
2074
2095
2121
2118
2071
1997
1909
1858
1867
1922
2012
2090
2136
2137
2127
2127
2122
2117
2121
2127
2142
2148
2105
2047
2018
2004
1987
1962
1952
1959
1994
2055
2103
2109
2094
2065
2027
1990
1994
2029
2058
2069
2084
2102
2113
2095
2080
2067
2033
1995
1983
1979
1970
1995
2043
2052
2027
2029
2030
1986
1925
1882
1880
1885
1912
1953
2001
2048
2084
2088
2072
2070
2071
2080
2094
2118
2143
2145
2127
2101
2083
2068
2056
2049
2033
2027
2045
2069
2090
2109
2105
2081
2065
2073
2084
2069
2052
2044
2053
2086
2134
2135
2096
2055
2042
2043
2031
2027
2020
2020
2038
2052
2047
2041
2028
2033
2031
1991
1945
1922
1930
1974
2038
2116
2180
2224
2237
2215
2183
2144
2118
2103
2086
2066
2065
2068
2085
2101
2104
2105
2122
2147
2148
2129
2106
2089
2076
2053
2035
2035
2027
2002
1985
1982
1971
1965
1972
1998
2013
2036
2064
2066
2048
2031
2017
2009
2023
2058
2084
2107
2133
2144
2117
2074
2045
2019
2009
2023
2058
2083
2074
2062
2065
2071
2053
2043
2050
2034
2013
2024
2061
2096
2107
2081
2032
1986
1995
2077
2163
2192
2166
2119
2051
1981
1943
1920
1907
1918
1918
1910
1914
1936
1960
1988
2013
2026
2022
2022
2022
2030
2046
2054
2044
2022
2013
2027
2040
2049
2053
2073
2093
2108
2120
2120
2112
2107
2096
2086
2075
2055
2033
2023
2021
2019
2033
2054
2069
2092
2123
2178
2215
2218
2242
2299
2347
2360
2360
2355
2346
2361
2398
2436
2459
2486
2531
2585
2651
2722
2786
2838
2860
2837
2790
2730
2669
2606
2551
2504
2469
2425
2381
2339
2294
2233
2165
2091
2001
1932
1898
1888
1885
1906
1955
2011
2045
2060
2077
2106
2123
2106
2059
2025
2010
2004
2021
2046
2049
2052
2040
2003
1961
1941
1936
1941
1939
1932
1925
1940
1959
1974
1977
1974
1972
1967
1969
1984
2018
2034
2008
1972
1932
1894
1879
1904
1970
2058
2124
2152
2159
2178
2195
2195
2185
2166
2155
2132
2094
2059
2019
2004
2007
2018
2041
2026
2006
1998
2012
2010
1970
1927
1908
1910
1922
1943
1985
2036
2075
2082
2036
2001
2003
2009
2007
1996
1969
1968
1997
2023
2032
2050
2055
2040
2022
2010
1973
1924
1905
1931
1979
2044
2105
2153
2209
2256
2269
2223
2127
2051
1999
1971
1961
1972
1993
1999
2014
2035
2051
2066
2067
2057
2038
2028
2018
2019
2022
2021
2015
2003
2008
2035
2049
2032
2004
1982
1977
2000
2017
2005
1998
2017
2062
2133
2167
2132
2068
1988
1935
1928
1933
1946
1967
2005
2046
2078
2099
2093
2090
2098
2107
2119
2127
2129
2122
2113
2102
2090
2073
2060
2049
2039
2034
2024
2025
2017
1997
1995
2040
2091
2111
2122
2137
2129
2109
2112
2137
2161
2158
2118
2103
2100
2081
2074
2069
2050
2037
2013
1997
1979
1956
1948
1971
2007
2024
2031
2042
2061
2093
2113
2109
2103
2095
2076
2066
2081
2107
2107
2097
2073
2048
2057
2089
2104
2103
2108
2107
2102
2077
2058
2055
2085
2121
2153
2155
2126
2076
2053
2063
2074
2086
2101
2117
2155
2179
2159
2130
2096
2051
2011
1960
1925
1916
1945
1973
1968
1964
1968
1967
1962
1961
1979
1996
1993
1981
1955
1926
1923
1947
1962
1965
1969
1965
1953
1960
1989
2010
2013
2004
1995
2001
2015
2017
2023
2048
2067
2064
2055
2035
2017
2011
2008
1993
1982
1989
1992
1992
2019
2037
2036
2023
1992
1969
1971
1993
2013
2017
2002
2005
2012
1996
1969
1944
1951
1975
1978
1966
1979
2002
2005
2008
2023
2045
2083
2100
2069
2010
1966
1959
1974
1975
1971
1943
1912
1936
1975
1974
1967
1963
1978
2011
2028
2032
2055
2081
2110
2126
2124
2095
2063
2037
2018
2010
2019
2020
2016
2018
2015
2024
2059
2076
2060
2043
2036
2033
2038
2049
2044
2046
2038
2012
1994
1979
1965
1970
1977
1983
2003
2010
1989
1989
2015
2039
2075
2086
2079
2056
2028
2006
2007
2035
2072
2104
2121
2117
2095
2079
2085
2123
2163
2179
2159
2116
2061
2009
1989
2011
2055
2067
2052
2046
2032
2009
1996
1981
1973
1994
2025
2029
2024
2045
2075
2076
2053
2034
2020
2016
2028
2047
2058
2052
2032
2029
2048
2053
2041
2019
1999
1968
1961
1968
1952
1935
1925
1929
1940
1947
1969
1998
1993
1984
1989
1993
2010
2030
2030
2028
2035
2043
2059
2074
2087
2074
2046
2023
1999
1974
1971
1969
1968
1994
2019
2034
2050
2055
2058
2050
2049
2060
2045
2027
2039
2060
2063
2054
2065
2068
2039
2006
1980
1967
1980
2021
2047
2035
2021
2027
2036
2027
2009
2002
2016
2040
2062
2064
2050
2019
1993
1974
1947
1931
1931
1945
1971
2023
2062
2096
2146
2176
2165
2132
2087
2051
2029
2016
2026
2061
2099
2119
2103
2067
2034
2019
2022
2018
1999
1971
1968
2000
2035
2053
2053
2058
2075
2087
2070
2056
2050
2042
2049
2065
2071
2069
2091
2107
2104
2129
2157
2158
2133
2105
2090
2061
2049
2078
2106
2096
2087
2089
2067
2025
1992
1982
1987
1993
1987
1953
1936
1934
1948
1988
2034
2038
2004
1997
2011
2024
2037
2047
2043
2037
2014
1985
1980
1999
2030
2063
2078
2066
2037
2006
2004
2020
2013
2008
2033
2076
2120
2131
2107
2051
1985
1939
1923
1921
1937
1970
2004
2028
2019
2010
2000
1998
1986
1968
1969
1997
2035
2039
2027
2024
2008
1990
2002
2022
2025
2012
2029
2078
2108
2088
2062
2043
2012
1968
1928
1924
1955
1999
2044
2054
2041
2060
2084
2100
2115
2129
2150
2177
2238
2301
2349
2384
2392
2408
2460
2534
2612
2673
2695
2691
2685
2686
2704
2722
2723
2725
2733
2731
2725
2730
2724
2689
2621
2527
2411
2285
2165
2060
1976
1912
1871
1880
1872
1862
1895
1930
1932
1910
1928
1974
2020
2037
2016
1993
1976
1959
1939
1924
1929
1966
2016
2043
2054
2017
1958
1913
1881
1863
1841
1836
1862
1897
1949
1979
2004
2015
1999
1975
1952
1926
1901
1912
1939
1956
1940
1920
1927
1934
1945
1976
2010
2028
2020
2016
2003
1979
1946
1936
1957
1989
2015
1985
1971
1975
1992
2022
2050
2063
2065
2047
2021
1996
1972
1949
1921
1911
1911
1918
1946
1980
2008
2021
2020
2021
2038
2038
2017
1990
1974
1993
2011
1991
1996
2010
2027
2070
2094
2066
2010
1963
1947
1950
1941
1913
1888
1907
1953
1993
2008
2026
2047
2040
2016
2027
2046
2056
2075
2093
2081
2055
2018
1979
1945
1917
1930
1961
1982
1999
2009
2016
2032
2029
2012
1992
1981
1981
1984
1982
1986
2001
2013
2033
2069
2102
2105
2071
2059
2060
2022
1975
1942
1926
1947
1988
2028
2046
2055
2067
2070
2062
2050
2026
2004
1996
1998
2003
2016
2041
2080
2105
2115
2107
2080
2045
2033
2044
2060
2072
2082
2098
2093
2083
2068
2048
2025
2023
2038
2083
2144
2168
2165
2119
2097
2118
2146
2173
2195
2193
2161
2093
2031
2036
2083
2084
2059
2042
2043
2033
2014
2016
2041
2064
2081
2064
2028
2005
2016
2033
2054
2064
2055
2056
2057
2055
2056
2041
2008
2025
2045
2039
2024
2047
2104
2126
2098
2091
2123
2159
2186
2175
2154
2154
2172
2146
2091
2059
2051
2052
2072
2105
2138
2172
2194
2186
2143
2079
2029
1991
1959
1937
1912
1896
1887
1904
1947
1994
2022
2045
2052
2046
2049
2064
2089
2108
2097
2055
2013
1993
1976
1963
1980
2010
2036
2077
2125
2140
2137
2147
2136
2118
2098
2067
2039
2001
1945
1936
1965
1984
2004
2007
2013
2039
2069
2066
2033
2022
2026
2017
2002
1986
1968
1980
2019
2046
2032
2001
1980
1972
1959
1951
1959
1969
1966
1924
1929
1978
2023
2076
2131
2172
2193
2184
2136
2087
2039
2002
1993
2010
2031
2058
2078
2091
2090
2091
2109
2127
2129
2109
2068
2039
2048
2055
2042
2030
2019
2011
2026
2044
2021
1974
1949
1962
1993
2035
2073
2066
2023
1971
1955
1972
1994
2029
2055
2058
2064
2065
2049
2019
2010
2007
1991
1984
1996
2028
2034
1987
1944
1965
2029
2117
2167
2144
2125
2142
2170
2176
2151
2115
2095
2076
2058
2041
2031
2044
2070
2096
2114
2094
2052
2014
1991
1986
1986
1998
2007
2018
2022
2009
1990
1985
1984
1987
1996
2012
2024
2014
2000
1993
1989
1987
2007
2013
1967
1920
1912
1956
2027
2086
2152
2241
2266
2217
2156
2108
2089
2109
2124
2105
2106
2131
2149
2137
2131
2128
2087
2045
2007
1982
1967
1940
1933
1957
2002
2040
2070
2069
2040
2011
2017
2037
2032
2013
2007
2010
1994
1977
1988
2014
2027
2017
2008
1989
1973
1966
1977
1998
2027
2063
2088
2089
2088
2106
2146
2181
2196
2175
2149
2140
2120
2100
2091
2082
2052
2012
1976
1974
1981
1990
2006
2014
2012
2021
2024
2025
2031
2033
2024
2012
2029
2072
2114
2120
2099
2078
2063
2065
2065
2075
2098
2120
2111
2094
2081
2099
2125
2116
2076
2050
2060
2036
1985
1934
1908
1905
1935
1949
1974
2046
2139
2228
2280
2305
2289
2255
2166
2046
1946
1911
1918
1935
1950
1972
1997
2021
2036
2042
2034
2011
1992
1991
1996
2011
2013
2002
1994
1988
1963
1946
1964
1981
1995
2032
2080
2115
2119
2085
2065
2037
2020
2020
2005
1999
1978
1945
1915
1881
1862
1869
1911
1973
2003
2048
2112
2173
2217
2211
2154
2065
1975
1913
1880
1883
1907
1939
2005
2090
2135
2126
2107
2087
2083
2059
2034
2044
2068
2073
2074
2088
2111
2104
2059
1998
1948
1927
1928
1955
1993
2005
1986
1941
1901
1895
1923
1952
1981
1991
1979
1961
1962
1982
2003
2022
2041
2057
2048
2043
2066
2074
2060
2061
2085
2141
2230
2328
2423
2508
2564
2596
2624
2653
2672
2678
2706
2758
2805
2834
2826
2796
2771
2755
2739
2721
2680
2612
2535
2451
2362
2280
2192
2107
2013
1913
1849
1824
1834
1839
1829
1814
1800
1789
1809
1854
1911
1948
1945
1923
1902
1895
1919
1942
1976
2027
2051
2038
2006
1969
1944
1950
1937
1916
1915
1944
1997
2039
2057
2059
2050
2039
2018
2007
1996
1967
1925
1914
1937
1944
1962
1999
2028
2036
2029
2046
2069
2054
2025
2010
1996
1971
1987
2033
2060
2073
2068
2037
1989
1961
1961
1974
1968
1935
1904
1886
1863
1852
1881
1946
2003
2012
1990
1961
1945
1943
1937
1936
1962
1997
2024
2037
2040
2041
2030
2012
1988
1976
1988
2017
2054
2068
2060
2044
2020
2010
2003
1988
1990
2005
2010
2032
2061
2083
2095
2085
2062
1997
1936
1923
1958
2006
2050
2055
2017
1979
1955
1972
2018
2036
2053
2066
2063
2049
2019
1988
1987
2014
2064
2102
2122
2133
2121
2096
2064
2046
2058
2073
2066
2049
2035
2028
2005
1980
1981
1997
1990
1970
1974
2006
2027
2022
2007
2006
2024
2054
2056
2061
2059
2065
2094
2112
2127
2144
2128
2087
2070
2096
2151
2184
2195
2168
2121
2104
2087
2013
1914
1852
1859
1904
1980
2061
2124
2155
2170
2162
2148
2129
2115
2112
2146
2187
2200
2186
2143
2103
2096
2121
2140
2137
2134
2146
2156
2132
2115
2119
2128
2111
2096
2103
2098
2099
2107
2097
2069
2035
2041
2072
2097
2084
2059
2034
2012
2010
2039
2101
2176
2221
2215
2199
2175
2154
2132
2110
2105
2118
2132
2159
2200
2229
2221
2183
2143
2115
2106
2100
2090
2071
2068
2101
2149
2164
2154
2154
2132
2087
2058
2067
2101
2135
2130
2134
2152
2135
2085
2025
2024
2065
2111
2161
2172
2144
2089
1994
1931
1946
2003
2062
2111
2165
2200
2191
2151
2108
2068
2057
2095
2151
2188
2198
2178
2141
2108
2084
2071
2050
2005
1975
1968
1967
1977
1999
2022
2034
2055
2049
2032
2024
2036
2059
2083
2071
2038
2004
1989
1992
2005
1994
1974
1950
1925
1907
1899
1898
1927
1968
1986
1994
1991
1953
1908
1924
1980
2043
2094
2124
2115
2078
2041
2049
2075
2096
2093
2053
2001
1957
1937
1936
1954
1992
2023
2033
2045
2073
2098
2111
2114
2091
2069
2047
2025
2023
2016
1991
1969
1948
1942
1930
1916
1921
1941
1983
2018
2014
1997
2024
2068
2110
2144
2130
2082
2039
1994
1955
1957
1979
2017
2042
2043
2034
2010
1982
1957
1968
2015
2085
2111
2061
2041
2069
2095
2094
2088
2104
2150
2180
2190
2194
2176
2132
2089
2072
2094
2130
2161
2187
2195
2197
2225
2277
2311
2318
2299
2226
2116
2018
1939
1908
1943
2007
2044
2052
2030
1989
1980
1976
1964
1939
1930
1954
2001
2066
2119
2127
2088
2043
1998
1988
2001
2019
2066
2107
2125
2175
2173
2151
2161
2179
2185
2142
2063
1961
1872
1858
1904
1972
2009
2031
2055
2092
2128
2158
2203
2273
2291
2259
2193
2132
2092
2083
2098
2119
2139
2149
2150
2139
2113
2085
2052
2036
2041
2034
2026
2028
2046
2065
2081
2066
2063
2095
2127
2144
2143
2132
2141
2156
2138
2084
2012
1964
1953
1972
1954
1926
1904
1892
1896
1914
1949
1985
1998
1978
1965
1961
1954
1966
1996
2022
2023
1999
1961
1917
1891
1896
1915
1905
1897
1922
1967
2024
2078
2096
2078
2028
1975
1931
1894
1879
1882
1864
1852
1857
1893
1945
1936
1909
1886
1861
1838
1858
1910
1957
2005
2079
2130
2158
2159
2173
2185
2164
2128
2105
2060
1977
1871
1764
1703
1708
1734
1760
1788
1836
1902
1965
1984
1968
1945
1915
1906
1936
1989
2066
2108
2061
1993
1963
1945
1937
1938
1954
1982
2020
2038
2077
2139
2131
2073
1995
1933
1911
1941
2002
2076
2154
2200
2214
2186
2121
2074
2048
2022
2004
1957
1907
1928
1984
2052
2096
2121
2158
2170
2139
2135
2178
2205
2185
2183
2206
2239
2293
2338
2356
2374
2425
2489
2521
2548
2579
2609
2633
2623
2625
2667
2716
2743
2727
2686
2650
2628
2593
2556
2567
2539
2442
2312
2169
2040
1950
1924
1929
1931
1971
2001
1943
1852
1813
1837
1866
1868
1860
1857
1851
1846
1844
1877
1917
1966
1984
1996
1999
1992
2002
2019
2036
2044
2023
1987
1962
1941
1936
1959
1956
1951
1956
1952
1952
1958
1972
1988
1967
1932
1906
1885
1884
1902
1933
1955
1937
1915
1926
1955
1999
2044
2091
2118
2119
2088
2080
2121
2171
2167
2135
2093
2039
1984
1947
1930
1937
1945
1975
2052
2145
2183
2135
2052
1991
2002
2053
2061
2050
2057
2052
2027
1973
1930
1907
1886
1874
1838
1784
1729
1743
1860
2003
2112
2172
2161
2100
2012
1966
1946
1931
1915
1901
1883
1869
1881
1931
1996
2007
1965
1903
1824
1752
1709
1686
1681
1680
1715
1785
1848
1857
1879
1924
1926
1907
1899
1906
1932
1956
1943
1945
1957
1976
1994
1984
1981
1998
2021
2017
1978
1930
1888
1856
1841
1827
1811
1798
1807
1841
1860
1855
1833
1800
1794
1803
1811
1837
1883
1943
1989
1996
1990
1982
1965
1961
1976
1988
1969
1940
1914
1928
1964
1976
1963
1998
2048
2066
2074
2090
2070
1996
1930
1925
1950
2004
2049
2025
1905
1782
1743
1801
1899
1997
2049
2020
1928
1876
1918
2003
2048
2058
2075
2096
2101
2090
2095
2092
2030
1973
1976
2002
1982
1913
1812
1717
1716
1815
1961
2088
2152
2170
2177
2196
2213
2208
2172
2128
2112
2108
2118
2107
2058
2006
1989
2022
2051
2053
2072
2103
2124
2103
2051
1992
1979
1983
1970
1984
2008
2027
2045
2075
2106
2123
2123
2112
2102
2095
2077
2073
2051
2006
2000
2051
2096
2087
2049
2012
1968
1926
1967
2029
2067
2069
2041
1997
1964
1944
1946
1972
2034
2132
2183
2180
2128
2073
2071
2070
2046
2039
2059
2077
2065
2027
2003
2000
2015
2033
2032
2033
2046
2082
2118
2127
2110
2089
2095
2099
2102
2095
2083
2052
1991
1950
1943
1923
1910
1931
1973
2006
2018
2045
2050
2061
2083
2086
2098
2095
2048
1994
1957
1953
1966
1993
2036
2074
2100
2136
2150
2145
2150
2150
2117
2074
2048
2050
2068
2057
2035
2009
1975
1982
2010
2030
2039
2022
1968
1908
1872
1852
1872
1902
1953
2016
2052
2077
2092
2081
2053
2030
2014
2002
2002
2003
2015
2055
2089
2091
2085
2091
2099
2133
2155
2150
2124
2080
2052
2028
2031
2030
2031
2030
2022
2023
2042
2083
2121
2152
2157
2108
2043
1986
1951
1944
1956
1974
2003
2048
2097
2139
2134
2116
2094
2063
2027
1988
1965
1966
1967
1977
1994
1990
1960
1926
1906
1919
1946
1996
2048
2065
2059
2070
2075
2036
1993
1954
1926
1909
1884
1852
1844
1876
1921
1967
1993
2003
2009
2000
1979
1967
1953
1950
1966
1977
1958
1931
1917
1914
1910
1904
1886
1905
1959
1993
2016
2033
2047
2055
2048
2057
2083
2102
2084
2051
2020
1995
1996
2025
2045
2026
1993
2004
2024
2010
1971
1952
1979
2018
2036
2058
2091
2103
2097
2087
2080
2082
2060
1999
1939
1943
1984
2003
2005
1986
1976
1973
1979
1967
1968
2003
2030
2028
2024
2024
2008
1976
1959
1928
1901
1896
1902
1889
1893
1913
1934
1955
1970
1960
1932
1878
1842
1843
1887
1936
1958
1964
1977
1979
1963
1930
1892
1866
1861
1886
1912
1939
1984
2058
2134
2175
2155
2128
2145
2176
2212
2200
2167
2113
2048
2013
2001
1992
2015
2047
2057
2043
2008
1980
1960
1967
1977
2001
2045
2071
2071
2088
2087
2055
2024
2023
2058
2073
2072
2075
2073
2080
2077
2087
2075
2074
2082
2094
2089
2053
2022
2012
2012
2021
2039
2022
1998
1985
1996
2016
2043
2074
2098
2130
2157
2171
2181
2204
2261
2354
2438
2512
2573
2617
2644
2644
2632
2640
2647
2652
2669
2691
2726
2739
2755
2771
2745
2684
2621
2565
2517
2451
2375
2288
2196
2133
2097
2073
2073
2052
1995
1904
1815
1764
1752
1769
1814
1857
1903
1949
2005
2056
2093
2108
2092
2064
2037
1994
1958
1929
1916
1908
1902
1889
1889
1904
1932
1952
1961
1967
1964
1960
1967
1969
1968
1989
2037
2095
2114
2101
2065
2012
1948
1891
1874
1903
1933
1965
1988
1978
1991
2048
2074
2067
2091
2119
2130
2102
2077
2068
2040
1999
1984
1978
1976
1979
1996
2022
2063
2086
2076
2072
2088
2097
2093
2080
2045
2016
1998
1982
1999
2035
2067
2074
2063
2063
2071
2056
2048
2050
2048
2064
2086
2093
2073
2047
2034
2031
2018
1984
1961
1955
1951
1984
2033
2050
2031
1999
1989
1984
1993
1995
1981
1972
1993
1992
1972
1942
1912
1904
1922
1923
1915
1914
1930
1952
1954
1948
1953
1964
1985
2031
2093
2131
2124
2095
2085
2091
2100
2103
2073
2038
2004
1998
2017
2013
1997
1987
1980
1985
2007
2019
2016
1979
1931
1907
1896
1910
1955
1988
2009
2022
2047
2056
2048
2054
2060
2033
1996
1979
1975
1954
1915
1905
1936
1976
2016
2054
2084
2096
2095
2112
2110
2089
2071
2058
2033
2009
2011
2029
2024
2032
2026
2008
1979
1992
2021
2027
2049
2104
2154
2154
2142
2143
2127
2114
2131
2145
2144
2155
2161
2143
2109
2082
2055
2044
2071
2109
2147
2166
2179
2203
2208
2184
2142
2093
2056
2038
2033
2048
2049
2032
2002
1981
1987
1993
1994
1972
1943
1941
1992
2060
2103
2127
2139
2158
2147
2122
2092
2057
2066
2112
2152
2152
2114
2061
2013
2008
2011
2009
2020
2033
2037
2059
2081
2076
2072
2075
2053
2008
1973
1978
1998
2026
2050
2064
2098
2128
2113
2072
2044
2008
1963
1914
1871
1859
1887
1936
1988
2015
2020
2030
2025
2035
2049
2056
2048
2041
2050
2063
2073
2076
2087
2124
2180
2219
2217
2197
2149
2091
2040
2009
2011
2028
2047
2075
2091
2094
2078
2068
2077
2100
2137
2167
2160
2121
2082
2046
2016
2000
2000
2001
1987
1981
1984
1983
1988
1998
2016
2022
2031
2045
2037
2018
2035
2064
2078
2089
2099
2133
2201
2249
2225
2175
2121
2075
2034
2009
2000
2001
2025
2065
2118
2174
2197
2194
2170
2147
2140
2140
2149
2159
2164
2172
2190
2210
2206
2184
2162
2161
2153
2151
2135
2104
2078
2058
2037
2033
2053
2061
2069
2066
2031
1989
1986
2001
1989
1969
1977
1997
2020
2059
2095
2109
2119
2133
2136
2120
2101
2087
2076
2096
2134
2158
2144
2135
2139
2143
2135
2090
2031
2002
1996
2008
2027
2053
2057
2056
2087
2140
2172
2168
2148
2128
2142
2161
2174
2160
2106
2062
2049
2033
2030
2069
2134
2195
2245
2255
2242
2221
2211
2232
2243
2235
2225
2199
2164
2129
2117
2126
2122
2100
2093
2110
2118
2107
2099
2098
2104
2122
2143
2154
2119
2055
2012
2004
2016
2053
2090
2118
2137
2155
2164
2178
2182
2176
2193
2216
2192
2145
2129
2136
2143
2149
2140
2125
2116
2091
2075
2072
2070
2076
2088
2097
2107
2100
2091
2094
2094
2094
2112
2108
2082
2053
2037
2051
2078
2105
2122
2112
2100
2101
2089
2072
2056
2058
2074
2082
2062
2030
2011
2001
1995
2004
2040
2078
2103
2114
2118
2128
2115
2078
2037
2016
2018
2019
2026
2045
2095
2148
2161
2148
2142
2142
2116
2045
1983
1981
2025
2068
2088
2101
2095
2087
2086
2091
2113
2145
2156
2136
2109
2100
2128
2179
2247
2329
2412
2462
2489
2500
2518
2548
2582
2610
2630
2651
2680
2722
2771
2804
2820
2836
2851
2878
2896
2889
2850
2806
2767
2714
2660
2602
2524
2422
2303
2197
2102
2003
1899
1824
1795
1814
1828
1833
1850
1876
1916
1973
2032
2088
2146
2190
2159
2086
2027
1973
1906
1838
1813
1860
1924
1967
2001
1999
1981
1959
1931
1914
1931
1952
1952
1942
1944
1964
1988
2004
2023
2012
1991
1979
1964
1935
1917
1911
1910
1912
1933
1941
1933
1937
1966
1990
2005
2008
2026
2037
2030
2006
1987
1974
1987
2008
2011
1998
1989
1996
2003
1988
1963
1940
1935
1935
1952
1986
2019
2038
2047
2036
2046
2078
2095
2096
2091
2088
2103
2136
2157
2144
2090
2018
1954
1899
1859
1838
1848
1857
1855
1879
1922
1948
1963
1987
2021
2043
2044
2027
2016
2023
2013
1988
1964
1985
2028
2069
2094
2102
2119
2132
2109
2091
2105
2129
2127
2139
2137
2124
2077
2017
1987
1987
2008
2045
2079
2091
2086
2084
2092
2085
2089
2085
2082
2088
2076
2087
2122
2144
2134
2119
2124
2150
2163
2172
2163
2143
2135
2126
2126
2136
2138
2130
2096
2052
2047
2078
2110
2114
2103
2076
2051
2036
2022
2029
2054
2085
2103
2095
2088
2058
2011
1969
1930
1900
1892
1926
1970
2024
2089
2149
2176
2179
2169
2190
2230
2249
2247
2228
2191
2160
2154
2162
2179
2225
2261
2265
2243
2189
2119
2073
2062
2062
2066
2075
2091
2119
2146
2140
2136
2150
2161
2142
2105
2077
2050
2040
2038
2042
2073
2104
2117
2116
2137
2188
2247
2279
2275
2221
2144
2071
2032
2028
2045
2066
2089
2107
2125
2129
2104
2063
2027
2001
1975
1969
2000
2039
2066
2056
2027
1992
1956
1937
1960
2000
2037
2044
2027
2003
1989
1976
1988
2003
2015
2030
2032
2036
2058
2078
2097
2103
2088
2074
2065
2043
2040
2035
2030
2044
2048
2032
2003
2020
2037
2051
2077
2088
2087
2090
2102
2105
2093
2077
2062
2049
2037
2032
2046
2069
2060
2025
1996
2004
2018
2021
2029
2039
2041
2049
2048
2039
2010
1978
1959
1963
1983
1984
1998
2026
2046
2030
1988
1957
1956
1974
2000
2012
2028
2031
2020
2027
2036
2030
2013
2000
2007
2026
2053
2078
2106
2131
2141
2136
2129
2115
2089
2059
2023
2001
2021
2069
2129
2191
2226
2199
2145
2082
2046
2044
2065
2097
2126
2121
2151
2194
2211
2204
2187
2171
2164
2168
2160
2134
2103
2081
2066
2080
2108
2134
2130
2103
2085
2103
2144
2198
2246
2271
2265
2228
2179
2132
2112
2124
2156
2185
2203
2205
2192
2176
2158
2137
2123
2115
2109
2119
2114
2082
2060
2060
2081
2092
2088
2076
2063
2071
2094
2125
2154
2155
2133
2110
2076
2034
1997
1992
2014
2042
2070
2086
2113
2151
2190
2229
2246
2244
2194
2090
2018
2012
2009
2011
2031
2052
2067
2087
2108
2129
2133
2147
2172
2191
2198
2186
2175
2192
2214
2218
2229
2206
2159
2105
2076
2067
2066
2083
2105
2119
2133
2142
2160
2184
2183
2158
2137
2137
2125
2086
2072
2054
2036
2017
2010
2037
2060
2074
2076
2061
2054
2069
2089
2094
2111
2144
2168
2172
2175
2184
2186
2167
2145
2113
2099
2099
2091
2083
2065
2023
1968
1929
1922
1940
1967
1970
1984
2009
2043
2071
2095
2098
2076
2047
2026
2038
2110
2209
2280
2288
2243
2181
2137
2107
2140
2205
2280
2370
2442
2454
2427
2376
2302
2202
2070
1956
1932
1976
2017
2010
1984
1974
2000
2026
2028
2038
2033
1998
1973
1972
1950
1875
1794
1753
1780
1834
1881
1970
2071
2114
2098
2029
1950
1888
1883
1923
2013
2147
2272
2364
2416
2428
2431
2470
2526
2587
2633
2663
2706
2762
2799
2811
2835
2869
2894
2924
2944
2920
2860
2778
2678
2572
2460
2345
2227
2099
2004
1967
1951
1927
1883
1839
1818
1835
1890
1982
2067
2095
2059
2009
2005
2041
2088
2127
2164
2183
2195
2214
2232
2211
2139
2037
1944
1868
1838
1858
1873
1881
1907
1962
2020
2051
2061
2086
2132
2188
2229
2240
2209
2158
2076
1971
1892
1848
1833
1831
1859
1925
1974
2020
2075
2119
2132
2122
2112
2108
2086
2056
2036
2050
2068
2061
2055
2049
2028
2009
1985
1922
1866
1858
1931
2049
2159
2227
2221
2155
2061
1975
1935
1992
2117
2229
2308
2336
2304
2256
2204
2131
2023
1917
1809
1725
1722
1800
1925
2063
2172
2255
2337
2386
2413
2417
2389
2339
2268
2182
2080
1971
1875
1793
1757
1760
1769
1792
1812
1816
1835
1897
1983
2026
1990
1951
1967
2005
2023
2000
1961
1911
1893
1914
1933
1965
2003
2019
2001
1929
1824
1735
1697
1720
1751
1760
1782
1806
1873
1935
1967
1966
1970
1988
2013
2030
2008
1928
1850
1807
1777
1752
1742
1761
1814
1899
1994
2079
2122
2109
2090
2070
2033
1965
1903
1852
1850
1902
1953
1983
1995
2009
2026
2042
2048
2064
2082
2111
2146
2158
2132
2080
2008
1918
1870
1867
1909
1992
2091
2153
2173
2167
2172
2144
2085
2016
1958
1913
1881
1893
1935
2015
2104
2160
2157
2138
2114
2069
1997
1946
1930
1938
1958
2000
2048
2082
2096
2127
2138
2127
2135
2152
2156
2162
2184
2191
2187
2170
2161
2138
2091
2050
2037
2033
2029
2050
2085
2085
2036
2000
2026
2081
2099
2102
2117
2110
2087
2068
2096
2140
2148
2115
2091
2075
2074
2098
2122
2118
2092
2023
1948
1939
1982
2008
1998
1994
1982
1974
1980
2011
2069
2096
2077
2043
2009
1989
1981
1955
1935
1968
2054
2093
2064
2026
2020
1999
1922
1889
1906
1930
1938
1952
1962
1996
2047
2078
2111
2129
2130
2163
2165
2152
2189
2206
2224
2248
2260
2252
2204
2108
2041
1976
1940
1928
1920
1913
1905
1896
1918
1949
1983
2009
2008
2001
2016
2037
2032
2021
2009
2003
2028
2011
1971
1970
2015
2041
2038
2030
2020
2031
2009
1963
1926
1854
1854
1885
1870
1816
1772
1753
1782
1851
1910
1885
1864
1904
1960
1981
1963
1919
1874
1851
1848
1876
1906
1927
1942
1969
2004
2024
1989
1926
1883
1885
1898
1898
1887
1860
1836
1815
1816
1849
1879
1873
1852
1841
1877
1929
1958
1951
1917
1877
1850
1858
1872
1882
1873
1827
1792
1783
1807
1845
1884
1899
1915
1929
1929
1929
1927
1932
1927
1918
1919
1906
1889
1882
1905
1955
1975
1951
1923
1904
1921
1931
1918
1938
1988
2046
2085
2060
2011
1993
1995
2037
2098
2148
2169
2142
2111
2080
2039
2038
2060
2056
2010
1955
1907
1904
1930
1936
1920
1867
1814
1819
1847
1872
1913
1955
1975
2001
2008
2008
2023
1997
1933
1862
1827
1858
1918
1969
2008
1999
1936
1865
1819
1783
1774
1799
1848
1892
1923
1926
1916
1907
1927
1951
1944
1939
1925
1926
1923
1900
1894
1922
1937
1938
1953
1948
1935
1916
1906
1893
1888
1890
1887
1893
1891
1912
1979
2043
2070
2058
2032
2000
1963
1920
1845
1770
1730
1720
1737
1779
1830
1869
1866
1852
1838
1841
1858
1858
1868
1904
1914
1895
1859
1836
1831
1833
1856
1893
1908
1884
1857
1831
1806
1801
1791
1783
1774
1749
1767
1835
1907
1979
2041
2087
2116
2129
2155
2216
2299
2369
2428
2463
2471
2456
2464
2492
2527
2571
2626
2689
2756
2803
2820
2803
2780
2749
2695
2605
2499
2381
2275
2193
2136
2099
2058
2005
1932
1852
1803
1770
1740
1726
1716
1731
1768
1820
1863
1867
1860
1843
1786
1745
1767
1822
1829
1808
1800
1804
1787
1758
1715
1662
1645
1673
1704
1734
1752
1764
1809
1856
1886
1900
1920
1902
1850
1812
1811
1842
1889
1926
1932
1940
1948
1922
1864
1833
1840
1841
1849
1877
1908
1922
1937
1964
1991
2008
1996
1967
1932
1895
1869
1837
1788
1747
1736
1749
1770
1797
1822
1860
1899
1894
1865
1865
1898
1934
1975
2020
2037
2012
1956
1902
1897
1931
1962
1954
1950
1964
1955
1924
1893
1865
1855
1894
1940
1977
1999
2009
2029
2026
2010
2007
2029
2053
2028
1995
1987
1993
2005
1996
1977
1959
1944
1927
1916
1909
1889
1888
1899
1940
2028
2094
2128
2114
2065
2038
2032
2008
1988
2011
2051
2084
2101
2131
2165
2177
2163
2139
2120
2104
2107
2114
2144
2205
2246
2234
2195
2164
2154
2149
2142
2123
2087
2038
1991
1992
2041
2101
2147
2178
2203
2229
2199
2166
2139
2102
2079
2099
2138
2160
2182
2190
2168
2160
2191
2217
2228
2232
2229
2207
2199
2190
2191
2182
2139
2118
2113
2124
2150
2165
2159
2138
2115
2112
2136
2175
2197
2198
2198
2225
2271
2293
2291
2268
2223
2185
2195
2258
2335
2364
2330
2280
2249
2235
2236
2237
2230
2211
2191
2208
2222
2229
2259
2289
2328
2332
2315
2285
2265
2231
2184
2154
2174
2223
2274
2296
2275
2248
2235
2234
2248
2249
2231
2200
2190
2201
2217
2228
2220
2235
2235
2227
2258
2291
2305
2307
2317
2311
2281
2243
2206
2178
2151
2127
2117
2131
2166
2193
2206
2240
2289
2309
2299
2262
2229
2221
2220
2215
2214
2228
2223
2196
2168
2138
2123
2160
2200
2170
2126
2097
2054
2034
2057
2075
2118
2200
2266
2292
2281
2261
2250
2244
2224
2190
2140
2153
2211
2259
2284
2280
2271
2260
2256
2250
2222
2182
2184
2224
2271
2281
2247
2215
2193
2199
2217
2227
2212
2216
2239
2253
2244
2234
2216
2184
2144
2104
2081
2076
2100
2154
2201
2233
2257
2255
2207
2161
2170
2214
2265
2289
2273
2232
2196
2188
2172
2140
2106
2100
2109
2136
2166
2190
2209
2216
2210
2189
2172
2185
2220
2259
2272
2265
2271
2299
2310
2258
2195
2161
2118
2064
2067
2114
2147
2159
2146
2137
2148
2130
2124
2125
2125
2121
2116
2143
2192
2225
2240
2258
2273
2284
2268
2237
2204
2190
2197
2197
2158
2134
2159
2190
2222
2215
2211
2208
2186
2145
2144
2156
2152
2135
2111
2077
2059
2097
2139
2162
2200
2243
2257
2238
2238
2260
2252
2236
2222
2189
2165
2191
2226
2227
2236
2242
2224
2164
2113
2080
2067
2092
2118
2140
2137
2120
2104
2122
2167
2206
2231
2260
2286
2268
2175
2094
2083
2128
2200
2210
2187
2163
2133
2108
2078
2045
2022
2032
2043
2065
2100
2145
2152
2109
2079
2075
2089
2103
2117
2108
2101
2105
2086
2052
2046
2077
2071
2062
2056
2048
2047
2024
2019
2050
2103
2139
2135
2103
2082
2057
2030
2038
2054
2069
2087
2102
2119
2135
2115
2084
2053
2041
2073
2103
2130
2146
2134
2079
2022
2006
2017
2033
2046
2059
2064
2062
2059
2039
2014
1981
1979
2027
2103
2170
2202
2207
2155
2070
2005
1980
1976
1960
1955
1976
2003
2018
2015
1996
1996
1996
1996
2018
2069
2154
2216
2255
2283
2291
2304
2331
2358
2385
2441
2524
2605
2647
2681
2724
2754
2776
2826
2877
2913
2930
2893
2839
2799
2767
2727
2691
2684
2684
2648
2557
2446
2332
2236
2159
2063
1938
1850
1816
1817
1814
1809
1801
1821
1878
1940
1964
1952
1947
1962
1980
1970
1964
1992
2017
2032
2016
1993
1992
2012
2027
2048
2066
2045
1975
1911
1892
1897
1929
1959
1949
1929
1921
1913
1919
1924
1933
1953
1981
1973
1950
1921
1903
1893
1873
1840
1858
1926
1977
1944
1894
1896
1914
1930
1946
1981
2012
2025
2021
2006
1987
1987
1991
2001
2010
2013
2010
2001
1996
2013
2010
1985
1979
2016
2057
2084
2110
2109
2066
1976
1868
1826
1855
1922
1982
2032
2063
2050
2019
1984
1954
1947
1964
1969
1964
1937
1904
1916
1942
1943
1951
1997
2058
2078
2054
2021
1990
1981
1990
2031
2063
2029
1972
1961
1994
2031
2045
2061
2085
2096
2076
2032
1999
1982
1989
2030
2031
1987
1957
1959
1959
1976
1985
2005
2047
2095
2111
2090
2060
2054
2060
2056
2088
2157
2203
2192
2151
2118
2082
1998
1900
1854
1844
1851
1874
1921
1958
1973
1996
2005
2022
2048
2058
2052
2014
1963
1928
1895
1883
1888
1910
1956
2010
2043
2085
2117
2144
2172
2192
2211
2216
2183
2138
2086
2033
1994
2031
2091
2132
2138
2137
2136
2104
2059
2030
2023
2051
2105
2162
2204
2224
2215
2179
2130
2084
2067
2072
2057
2036
2046
2101
2153
2155
2133
2091
2048
2032
2027
2020
2022
2038
2056
2048
2047
2045
2039
2034
2035
2026
2010
1997
1998
2006
2020
2048
2086
2081
2060
2053
2061
2073
2089
2121
2146
2148
2144
2099
2049
2001
1978
1976
1971
1976
2001
2040
2067
2073
2084
2096
2089
2071
2036
2002
1962
1945
1950
1967
1988
2011
2065
2113
2118
2086
2037
1984
1927
1885
1887
1899
1890
1893
1911
1936
1949
1924
1896
1895
1924
1948
1957
1957
1964
1953
1918
1891
1880
1886
1921
1956
1967
1988
2002
2016
2043
2062
2037
1993
1973
1989
2013
2024
2028
2043
2055
2041
2007
1978
1954
1918
1892
1928
1974
1981
1985
2002
2035
2063
2070
2069
2064
2059
2088
2109
2064
1987
1963
1993
2004
1988
1967
1965
1989
1993
1976
1974
1996
2035
2057
2053
2026
2012
2015
2001
1993
2004
2040
2060
2060
2071
2060
2025
2008
2025
2053
2072
2072
2058
2048
2056
2059
2040
2017
1985
1964
1966
1974
1993
1993
1989
2005
2027
2058
2093
2136
2184
2201
2186
2151
2091
2042
2006
1957
1913
1907
1951
1996
2007
1996
2009
2029
2020
1997
2000
2019
2050
2103
2165
2180
2154
2117
2082
2065
2084
2109
2098
2069
2044
2026
2022
2022
2000
1967
1949
1952
1975
2010
2045
2069
2090
2109
2121
2125
2134
2154
2209
2251
2211
2142
2083
2028
1991
2000
2029
2073
2134
2173
2183
2157
2114
2087
2101
2116
2109
2107
2123
2153
2185
2184
2163
2132
2110
2103
2092
2097
2097
2094
2108
2122
2106
2080
2050
2038
2044
2057
2046
2024
2013
2004
1995
1979
1977
1988
1996
1988
1976
1979
2013
2038
2046
2044
2032
2021
2030
2049
2054
2031
1998
1982
1996
2013
2032
2009
1964
1969
2005
2036
2064
2111
2159
2160
2153
2154
2151
2159
2163
2157
2162
2178
2156
2096
2017
1947
1909
1893
1881
1870
1874
1891
1915
1942
1962
1959
1974
2002
2006
1991
1982
1983
2003
2018
2002
1975
1953
1934
1942
1970
2008
2053
2069
2042
2022
2043
2080
2126
2129
2124
2143
2152
2136
2096
2067
2077
2096
2115
2127
2125
2124
2106
2076
2078
2128
2201
2245
2265
2293
2343
2405
2459
2508
2564
2613
2658
2710
2785
2844
2873
2890
2931
2960
2962
2941
2898
2845
2795
2747
2697
2641
2569
2482
2392
2288
2174
2059
1958
1886
1865
1880
1913
1955
2019
2068
2054
1992
1923
1864
1831
1818
1803
1814
1846
1866
1851
1829
1806
1791
1792
1819
1860
1892
1909
1906
1893
1858
1832
1852
1884
1911
1929
1948
1965
1962
1947
1920
1885
1881
1888
1879
1874
1909
1955
1982
1978
1939
1915
1923
1902
1898
1906
1927
1951
1997
2052
2089
2097
2112
2118
2077
2009
1955
1927
1896
1845
1823
1856
1894
1913
1909
1904
1897
1885
1865
1861
1879
1887
1878
1892
1915
1923
1913
1888
1864
1885
1911
1921
1930
1940
1940
1971
2011
2020
2003
1975
1960
1969
1991
2030
2056
2031
1990
1956
1942
1943
1945
1932
1925
1946
2003
2068
2097
2083
2052
1997
1927
1874
1838
1830
1848
1878
1908
1934
1953
1984
2032
2063
2074
2057
2034
1997
1925
1857
1802
1780
1824
1899
1963
2013
2062
2058
2022
2001
1995
1977
1943
1941
1946
1961
1969
1981
2008
2022
2013
2006
1984
1956
1965
2018
2067
2067
2050
2011
1951
1917
1913
1920
1936
1957
1994
2034
2075
2094
2073
2045
2023
2029
2032
2002
1956
1935
1961
1998
2026
2065
2111
2113
2088
2099
2115
2094
2072
2049
2014
2003
1999
1990
1985
1979
1973
1971
1966
1954
1970
2024
2079
2095
2121
2132
2111
2101
2083
2049
2031
2016
1990
1969
2002
2045
2074
2076
2081
2077
2077
2098
2104
2082
2064
2051
2039
2039
2065
2099
2124
2147
2173
2129
2043
1993
1992
2012
2032
2039
2040
2032
1984
1939
1940
1983
2047
2102
2116
2108
2094
2077
2049
2016
2017
2009
1994
1997
1994
1986
1989
1988
1978
2004
2016
1998
1999
2005
2016
2024
2013
1967
1906
1860
1857
1891
1947
2011
2037
2033
2055
2085
2113
2123
2095
2035
1984
1962
1935
1915
1913
1929
1957
1976
1998
2003
1997
1996
2016
2030
2011
1985
1986
2017
2033
2018
2004
1999
1963
1934
1928
1965
2007
2031
2048
2063
2063
2074
2072
2038
2010
1996
1989
1982
1960
1963
1999
2036
2035
2005
1972
1948
1941
1956
1978
1982
1989
1994
1972
1955
1974
1986
1972
1951
1954
1991
2039
2077
2097
2095
2056
1997
1943
1911
1930
1971
1982
1960
1953
1962
1962
1972
1994
2017
2009
1982
1960
1951
1966
1998
2035
2062
2070
2056
2044
2030
2007
1980
1945
1930
1933
1929
1916
1909
1916
1940
1959
1984
2047
2087
2112
2126
2111
2082
2056
2035
2031
2033
2053
2108
2181
2210
2160
2097
2083
2097
2098
2079
2039
2009
2019
2035
2044
2037
2003
1948
1914
1911
1942
1972
1986
2005
2028
2046
2036
2017
2002
2007
2020
2035
2060
2092
2115
2128
2123
2104
2088
2085
2076
2055
2030
2003
1997
2013
2045
2081
2094
2067
2055
2087
2119
2134
2140
2135
2130
2133
2107
2095
2087
2060
2031
2020
2022
2015
2011
2001
1993
2001
2027
2054
2059
2066
2073
2062
2041
1999
1960
1927
1906
1910
1921
1927
1929
1953
1980
2003
2027
2060
2086
2086
2079
2037
1986
1964
1981
2010
2039
2043
2036
2032
2022
2012
2017
2017
2017
2028
2030
2049
2064
2025
1978
1943
1924
1909
1912
1926
1937
1968
2017
2042
2072
2100
2105
2089
2047
1987
1939
1941
1975
1994
2015
2021
1998
1971
1979
2003
2024
2038
2046
2042
2053
2069
2079
2076
2074
2073
2053
2009
1971
1982
2009
2036
2019
1993
1997
2024
2063
2084
2067
2050
2046
2076
2117
2153
2182
2215
2259
2306
2376
2460
2538
2608
2659
2692
2728
2774
2805
2799
2824
2877
2921
2927
2912
2885
2839
2779
2739
2708
2653
2563
2479
2429
2396
2331
2254
2163
2080
2015
1965
1920
1878
1848
1835
1827
1835
1844
1857
1887
1909
1905
1902
1908
1930
1976
2014
2021
2016
2006
2003
1990
1965
1924
1909
1934
1956
1972
1991
1995
1995
2001
1990
1984
1986
1984
1967
1945
1960
1995
2022
2024
2004
1980
1974
1972
1965
1965
1980
1990
2002
2034
2073
2079
2086
2089
2078
2055
2023
1987
1973
1961
1958
1964
1963
1957
1941
1932
1959
1998
2028
2018
1990
1973
1972
1956
1946
1940
1927
1920
1946
1996
2059
2114
2146
2144
2114
2075
2041
2026
2008
2021
2032
2032
2029
2014
1996
1971
1950
1936
1929
1932
1952
1988
2019
2015
2006
2029
2061
2065
2053
2055
2076
2087
2089
2077
2066
2054
2069
2054
2033
2045
2064
2098
2123
2124
2106
2073
2046
2055
2073
2044
2000
1972
1950
1955
1988
2010
1995
1989
2006
2027
2069
2129
2159
2162
2164
2158
2130
2095
2066
2051
2038
2033
2037
2060
2090
2117
2118
2115
2150
2202
2225
2182
2102
2044
2030
2017
1997
2013
2036
2037
2036
2054
2089
2122
2132
2135
2133
2135
2121
2093
2068
2069
2077
2088
2102
2118
2140
2164
2178
2171
2161
2163
2165
2168
2172
2163
2131
2095
2098
2093
2102
2139
2187
2220
2205
2182
2145
2108
2102
2099
2113
2134
2158
2200
2237
2239
2213
2184
2163
2150
2140
2125
2099
2063
2057
2102
2162
2188
2209
2231
2242
2233
2203
2163
2127
2125
2157
2195
2200
2161
2124
2090
2072
2067
2073
2090
2117
2127
2122
2113
2101
2081
2065
2058
2056
2084
2118
2134
2134
2120
2088
2067
2077
2092
2099
2097
2108
2112
2114
2135
2165
2184
2178
2189
2194
2160
2102
2069
2071
2060
2057
2070
2080
2096
2111
2118
2112
2086
2050
2034
2035
2042
2062
2080
2073
2053
2055
2079
2096
2090
2092
2081
2076
2100
2116
2115
2136
2164
2162
2148
2144
2154
2146
2119
2098
2110
2120
2128
2134
2118
2092
2083
2064
2027
1984
1953
1965
1988
2016
2034
2053
2092
2131
2130
2113
2115
2131
2121
2093
2083
2109
2144
2165
2174
2156
2148
2143
2102
2061
2074
2104
2115
2115
2111
2094
2095
2104
2118
2131
2124
2136
2162
2194
2225
2235
2231
2215
2194
2151
2094
2036
1995
1979
1995
2019
2024
2014
2007
2022
2040
2047
2048
2042
2034
2061
2106
2153
2169
2183
2177
2173
2190
2172
2122
2077
2064
2071
2062
2034
2037
2072
2100
2115
2117
2090
2058
2058
2089
2136
2165
2171
2149
2109
2063
2029
2008
2028
2068
2086
2068
2059
2022
1987
1995
2040
2065
2060
2045
2028
2046
2104
2151
2168
2176
2185
2186
2199
2228
2227
2191
2144
2104
2076
2085
2090
2089
2098
2103
2101
2093
2086
2086
2077
2075
2074
2065
2085
2110
2130
2143
2145
2153
2160
2169
2148
2076
2012
1971
1952
1967
2037
2107
2107
2093
2106
2115
2111
2083
2057
2068
2090
2092
2092
2108
2152
2201
2219
2210
2196
2184
2161
2129
2100
2087
2104
2132
2170
2233
2283
2284
2250
2202
2143
2100
2088
2075
2062
2046
2033
2038
2035
2035
2051
2044
2023
2019
2012
2008
2027
2052
2062
2075
2089
2104
2128
2145
2148
2124
2093
2075
2085
2109
2131
2125
2098
2065
2058
2079
2093
2080
2051
2048
2072
2101
2111
2116
2092
2053
2054
2061
2049
2061
2083
2072
2057
2052
2047
2052
2067
2079
2088
2089
2103
2113
2101
2086
2114
2125
2118
2160
2214
2244
2246
2221
2195
2162
2106
2041
1974
1918
1890
1911
1955
1986
2000
2021
2047
2072
2068
2060
2067
2069
2065
2077
2087
2102
2129
2150
2163
2158
2140
2140
2150
2133
2090
2080
2088
2085
2099
2159
2253
2326
2368
2393
2415
2449
2505
2550
2576
2609
2653
2695
2729
2772
2824
2872
2889
2858
2816
2790
2781
2777
2761
2716
2655
2599
2538
2469
2394
2300
2201
2097
2015
1942
1918
1940
1972
1955
1913
1919
1940
1924
1896
1880
1884
1893
1917
1966
2021
2090
2118
2069
1996
1946
1915
1897
1879
1895
1934
1971
1999
1984
1964
1977
2003
2028
2048
2055
2041
2041
2040
2020
1999
1973
1934
1922
1925
1919
1931
1957
1969
1972
1960
1959
1980
2001
2019
2030
2032
2038
2037
2035
2039
2031
2046
2052
2035
2012
1982
1954
1966
1970
1988
2025
2046
2042
2025
1994
1996
2006
2011
2012
1999
2007
2018
1992
1947
1923
1928
1935
1929
1908
1892
1918
1959
1994
1994
1972
1958
1953
1965
1989
2013
2013
1987
1945
1933
1949
1988
2054
2104
2122
2115
2112
2124
2125
2090
2054
2022
2000
2003
2004
2002
1997
2011
2026
2043
2075
2081
2069
2065
2077
2093
2078
2060
2038
2003
2001
2020
2007
1985
1983
1976
1982
1992
1997
2007
2021
2016
2034
2050
2041
2013
1999
2016
2030
2051
2090
2133
2168
2175
2139
2090
2058
2045
2047
2014
1960
1940
1983
2040
2062
2055
2037
2000
1976
1974
1969
1959
1971
2014
2095
2164
2188
2169
2143
2163
2172
2161
2142
2115
2092
2107
2154
2202
2200
2181
2151
2119
2079
2053
2038
2046
2068
2103
2154
2182
2204
2205
2188
2170
2134
2075
2002
1941
1916
1933
1961
1987
2005
2006
2007
2051
2101
2133
2148
2141
2143
2157
2167
2159
2141
2125
2134
2136
2135
2124
2097
2105
2164
2231
2238
2188
2112
2040
1998
1987
2015
2055
2065
2049
2058
2088
2112
2111
2088
2089
2075
2054
2047
2045
2058
2057
2034
1991
1961
1973
2014
2037
2034
2033
2056
2083
2086
2084
2095
2113
2124
2134
2119
2074
2031
2022
2013
2016
2032
2055
2069
2046
2032
2032
2009
1992
1983
1976
1961
1941
1941
1960
1976
1994
2009
2015
2030
2040
2043
2049
2051
2050
2049
2064
2071
2068
2053
2038
2032
2024
2013
2007
1987
1960
1934
1936
1974
2038
2079
2121
2161
2150
2112
2124
2127
2083
2010
1943
1915
1927
1948
1964
1984
2015
2028
2040
2059
2071
2065
2066
2069
2062
2037
2009
1990
1979
2004
2043
2085
2109
2115
2130
2126
2100
2059
2021
1998
1991
1995
1995
1983
1977
1985
2005
2016
2021
2009
1994
1986
1979
1990
2002
1979
1980
2000
1996
2008
2034
2058
2081
2110
2145
2178
2195
2165
2129
2103
2075
2063
2069
2072
2076
2073
2062
2043
2036
2038
2026
2020
2027
2045
2069
2072
2069
2065
2061
2044
2031
2030
2041
2046
2049
2052
2062
2086
2111
2133
2140
2124
2080
2010
1938
1907
1943
1975
1998
2025
2037
2017
1996
2005
2045
2083
2108
2109
2088
2066
2065
2087
2111
2121
2114
2091
2069
2071
2088
2090
2071
2047
2026
2023
2032
2025
2003
1979
1976
2003
2072
2130
2164
2185
2164
2136
2106
2088
2062
2022
1999
2000
1974
1949
1958
1980
2010
2019
2021
2031
1998
1946
1938
1981
2020
2029
2035
2051
2098
2139
2138
2109
2077
2044
2015
2038
2096
2137
2124
2087
2027
1986
1965
1973
2013
2064
2098
2105
2114
2156
2215
2231
2180
2133
2112
2085
2058
2035
2011
2016
2060
2099
2079
2056
2052
2068
2059
2028
2007
2005
2022
2030
2039
2070
2087
2059
2053
2051
2034
2032
2028
2039
2057
2074
2084
2101
2116
2113
2118
2123
2107
2093
2085
2101
2108
2091
2064
2035
2006
2001
2054
2106
2130
2113
2059
2037
2040
2046
2036
2034
2048
2032
2006
1977
1958
1986
2011
2002
1983
1977
1992
1997
1985
1981
1988
1998
2003
2022
2049
2090
2124
2131
2132
2122
2104
2092
2105
2137
2164
2165
2157
2139
2112
2131
2141
2116
2088
2054
2003
1940
1881
1827
1795
1808
1851
1937
2014
2034
2013
1969
1950
1964
1971
1992
2017
2037
2074
2096
2093
2064
2006
1966
1963
1976
1986
2002
2033
2083
2123
2103
2058
2012
1959
1929
1947
1974
1996
2021
2058
2094
2108
2105
2098
2080
2071
2080
2105
2156
2220
2279
2341
2428
2511
2566
2596
2615
2625
2631
2648
2669
2709
2754
2767
2764
2754
2728
2707
2693
2679
2664
2636
2568
2481
2410
2355
2311
2269
2223
2154
2063
1985
1918
1866
1868
1899
1912
1920
1929
1955
1984
1975
1989
2001
2007
2024
2024
1995
1951
1945
1944
1953
1953
1920
1885
1868
1858
1890
1929
1944
1923
1903
1883
1868
1871
1877
1874
1889
1919
1946
1947
1936
1927
1939
1970
1962
1920
1883
1856
1852
1886
1936
1977
2006
2022
2051
2076
2096
2114
2095
2065
2011
1953
1910
1888
1888
1884
1862
1850
1868
1899
1923
1931
1933
1924
1929
1932
1928
1925
1927
1939
1938
1931
1923
1914
1904
1911
1955
2012
2036
2024
1999
1956
1909
1894
1918
1985
2062
2094
2103
2121
2111
2059
1994
1967
2005
2042
2027
1997
1959
1953
1971
1972
1961
1953
1937
1913
1911
1934
1963
1978
1967
1954
1935
1920
1927
1950
1949
1937
1923
1928
1958
1987
2007
2039
2074
2083
2076
2060
2044
2018
1998
1988
2000
1989
1982
1986
1992
2003
2010
2031
2063
2075
2101
2183
2250
2269
2236
2157
2075
2037
2011
1983
1972
1984
2006
2019
2021
2026
2009
1975
1959
1961
1958
1986
2006
2027
2054
2044
1996
1965
1981
2015
2010
2015
2034
2063
2087
2102
2127
2128
2107
2056
2009
1994
2012
2045
2071
2094
2128
2148
2148
2148
2168
2196
2218
2238
2262
2248
2179
2100
2042
2012
2006
2022
2058
2089
2094
2086
2075
2092
2118
2134
2134
2132
2136
2134
2118
2085
2056
2051
2048
2024
1997
2014
2047
2089
2103
2098
2093
2091
2086
2063
2054
2061
2056
2039
2021
1995
1971
1974
2011
2055
2083
2096
2094
2099
2119
2149
2192
2243
2251
2205
2130
2057
2005
1980
1992
2008
2020
2021
2020
2024
2034
2048
2070
2072
2031
1991
1998
2015
2038
2031
2019
2022
2016
1987
1955
1918
1920
1943
1979
2011
2001
1998
2010
2003
1978
1980
2009
2016
2008
2011
2019
2042
2075
2100
2099
2085
2091
2089
2088
2092
2090
2089
2058
2016
2010
2022
2019
2015
2019
2039
2057
2037
2001
1991
1988
1974
1954
1929
1926
1961
2002
2008
2009
2004
1993
1994
2019
2042
2031
2034
2034
2003
1967
1969
2013
2075
2096
2059
2028
2031
2055
2067
2040
2002
2012
2059
2103
2122
2118
2086
2058
2032
2004
1994
2003
2002
2016
2030
2046
2081
2082
2062
2044
2019
2000
2000
2027
2057
2071
2060
2034
1995
1984
1994
2002
2004
2008
2046
2100
2144
2133
2085
2039
2003
1969
1958
1984
2027
2081
2128
2169
2186
2140
2073
2019
1977
1962
1959
1972
1992
2012
2045
2052
2017
1970
1918
1878
1912
1981
1983
1981
2027
2075
2104
2114
2092
2046
2032
2046
2043
2037
2056
2075
2069
2053
2051
2064
2069
2073
2068
2055
2050
2044
2033
2014
2018
2031
1999
1962
1961
1987
2015
2013
2024
2049
2069
2072
2071
2073
2055
2027
2009
2021
2056
2070
2080
2077
2049
2034
2026
2028
2024
2014
1997
1991
1997
2005
2013
2030
2034
2044
2067
2085
2111
2127
2124
2097
2066
2045
2011
2012
2041
2050
2024
1996
1997
2017
2057
2070
2044
2019
2012
2010
2047
2107
2155
2161
2140
2108
2075
2046
2037
2016
1998
2032
2103
2146
2136
2132
2116
2071
2035
2010
1984
1965
1967
1978
2005
2034
2056
2071
2077
2088
2100
2103
2085
2042
1985
1930
1897
1917
1977
2055
2111
2141
2130
2106
2118
2124
2126
2139
2159
2204
2218
2169
2094
2039
2030
2034
2036
2038
2042
2056
2046
2017
2000
1995
1985
1995
2020
2037
2066
2094
2093
2077
2056
2039
2036
2036
2026
2016
1995
1973
1987
2034
2079
2118
2129
2110
2084
2062
2031
2029
2061
2097
2097
2071
2037
2030
2052
2057
2073
2112
2136
2129
2109
2095
2083
2067
2062
2050
2023
2006
2006
2023
2036
2046
2072
2115
2139
2133
2115
2113
2106
2090
2064
2043
2036
2053
2071
2063
2063
2090
2132
2187
2243
2254
2203
2142
2087
2042
2017
1998
1985
2000
2035
2090
2125
2112
2074
2045
2002
1986
2020
2078
2107
2119
2147
2168
2191
2191
2171
2153
2137
2114
2084
2061
2050
2042
2040
2057
2065
2040
2001
2002
2041
2073
2078
2087
2109
2106
2078
2062
2084
2128
2166
2195
2191
2165
2132
2099
2068
2052
2061
2077
2095
2098
2078
2059
2094
2173
2234
2210
2135
2057
2011
1986
1976
1977
1971
1996
2038
2035
1982
1931
1926
1975
2037
2067
2075
2076
2095
2097
2082
2059
2040
2020
2038
2072
2081
2091
2107
2084
2022
1991
1998
2021
2061
2098
2114
2136
2130
2092
2056
2026
2006
2009
2028
2056
2083
2123
2151
2149
2122
2089
2058
2031
2007
1985
1961
1982
2024
2048
2089
2151
2207
2244
2246
2238
2218
2199
2189
2202
2233
2273
2320
2410
2505
2563
2593
2628
2659
2686
2700
2708
2725
2742
2761
2791
2825
2835
2805
2730
2644
2584
2540
2492
2433
2365
2288
2226
2178
2133
2079
2008
1935
1867
1823
1828
1878
1924
1897
1861
1872
1916
1970
1992
1975
1966
1967
1981
1987
1984
1967
1925
1913
1955
2013
2036
2023
2029
2029
1997
1963
1949
1943
1959
1983
2018
2048
2042
2015
2008
2016
2004
1995
1973
1967
1971
1961
1956
1986
2009
1996
1987
2006
2003
1986
1997
2021
2046
2074
2075
2048
2009
1960
1929
1919
1927
1944
1956
1960
1968
1987
2023
2041
2044
2046
2037
2004
1957
1927
1939
1957
1948
1923
1898
1913
1955
1999
2036
2052
2034
2025
2045
2078
2095
2085
2058
2038
2046
2056
2060
2042
1998
1953
1923
1925
1934
1935
1949
1982
2013
2043
2070
2079
2079
2082
2060
2030
2038
2081
2118
2109
2063
2023
2015
2052
2102
2120
2121
2122
2128
2125
2093
2056
2025
1991
1988
2015
2033
2035
2014
1983
1982
2024
2055
2064
2080
2100
2128
2126
2101
2083
2060
2039
2063
2099
2133
2133
2083
2029
2009
2016
2044
2068
2064
2028
1991
1990
2013
2041
2089
2118
2131
2124
2102
2070
2046
2039
2036
2030
2030
2040
2040
2019
2016
2042
2066
2081
2088
2088
2092
2106
2123
2116
2093
2106
2129
2145
2156
2164
2178
2214
2234
2218
2196
2188
2189
2180
2169
2150
2127
2092
2064
2059
2094
2125
2111
2101
2102
2115
2124
2123
2112
2099
2101
2108
2134
2143
2110
2062
2033
2044
2081
2131
2140
2118
2086
2061
2048
2062
2128
2216
2266
2241
2184
2133
2087
2051
2036
2040
2064
2088
2092
2095
2101
2094
2080
2069
2069
2068
2061
2055
2078
2104
2106
2103
2112
2126
2134
2123
2100
2074
2046
2031
2029
2019
2007
2008
2022
2045
2071
2086
2091
2078
2056
2043
2029
2033
2042
2035
2026
2001
1974
1977
1984
1988
1997
2004
2016
2021
2020
2015
2013
2032
2064
2084
2086
2080
2060
2021
1993
2001
2010
1987
1952
1948
1971
2007
2048
2081
2068
2043
2033
2041
2039
2031
2027
2037
2054
2064
2056
2051
2052
2053
2043
2013
1998
2005
2024
2042
2060
2119
2192
2215
2180
2130
2109
2097
2066
2036
1995
1959
1960
1977
1992
2035
2092
2131
2127
2102
2072
2045
2017
1995
1987
1993
2013
2057
2094
2079
2049
2040
2054
2088
2115
2092
2045
2002
1992
2022
2051
2073
2060
2034
2010
2023
2045
2031
2000
1951
1898
1879
1896
1942
1996
2045
2093
2108
2105
2117
2132
2148
2148
2134
2111
2079
2049
2024
2035
2072
2103
2127
2108
2073
2038
2018
2009
1991
1988
1997
2023
2061
2086
2084
2085
2093
2070
2030
2018
2033
2033
2014
2006
2008
2009
2046
2097
2147
2192
2197
2176
2153
2127
2072
2011
1981
1969
1952
1945
1967
1982
1960
1956
1986
2012
2025
2022
2023
2038
2064
2074
2062
2048
2035
2011
2011
2037
2075
2106
2129
2139
2134
2112
2089
2077
2084
2072
2059
2074
2081
2071
2066
2074
2093
2115
2112
2090
2071
2077
2095
2101
2080
2063
2054
2047
2046
2066
2094
2114
2115
2091
2074
2060
2054
2074
2088
2069
2050
2042
2061
2083
2090
2081
2077
2075
2088
2101
2106
2121
2097
2046
1999
1981
1978
1980
1987
1999
2009
2011
2030
2060
2081
2089
2076
2061
2058
2059
2048
2056
2092
2162
2219
2239
2204
2145
2066
1984
1939
1966
2027
2075
2099
2086
2057
2030
2002
1992
1987
1969
1960
1977
2015
2059
2076
2052
2047
2059
2063
2077
2072
2075
2088
2107
2132
2164
2186
2176
2145
2096
2053
2024
2003
1983
1998
2034
2078
2097
2080
2054
2048
2036
2012
1995
1972
1945
1961
2010
2046
2073
2100
2115
2137
2144
2155
2171
2152
2104
2063
2040
2032
2007
1990
2000
2021
2045
2056
2054
2038
2026
2027
2017
1999
1995
2008
2024
2064
2097
2110
2101
2088
2062
2017
1991
1983
2000
2042
2075
2066
2036
2004
1970
1951
1970
2008
2047
2061
2063
2061
2060
2057
2052
2058
2084
2123
2145
2145
2125
2086
2085
2069
2026
1984
1957
1962
1991
2017
2033
2044
2044
2045
2064
2055
2011
1979
1982
2001
2004
1983
1951
1942
1951
1969
1994
2020
2037
2024
1999
1971
1956
1955
1953
1943
1932
1931
1949
1981
2014
2026
2011
2010
2030
2036
2025
1996
1975
1958
1936
1927
1939
1969
2007
2033
2035
2035
2026
2011
1984
1974
1967
1962
1947
1965
1988
1987
1989
1994
2012
2034
2030
2012
2013
2015
2018
2021
2016
2027
2059
2082
2096
2095
2082
2045
1985
1928
1897
1888
1883
1902
1955
2011
2042
2062
2087
2102
2127
2170
2207
2247
2317
2384
2436
2467
2492
2538
2594
2643
2680
2701
2721
2754
2789
2824
2855
2869
2864
2840
2801
2748
2693
2630
2562
2485
2422
2342
2259
2181
2098
2016
1965
1945
1935
1918
1894
1870
1848
1855
1886
1927
1975
2001
1989
1968
1953
1959
1980
1974
1962
1944
1942
1960
1975
1986
2005
2011
1990
1962
1957
1960
1982
2006
2010
1974
1921
1896
1887
1883
1877
1868
1861
1876
1899
1906
1905
1904
1911
1924
1937
1927
1908
1902
1922
1941
1957
1974
1982
1957
1917
1909
1930
1961
1989
2001
1995
1956
1924
1924
1947
1974
1999
2006
2011
2026
2023
1999
1932
1844
1791
1757
1753
1795
1843
1869
1877
1877
1873
1861
1858
1862
1881
1912
1922
1910
1886
1860
1858
1871
1876
1889
1898
1898
1890
1883
1861
1834
1826
1846
1885
1935
1980
2008
2017
2016
2020
2025
2028
1989
1927
1872
1844
1844
1862
1889
1922
1946
1954
1957
1946
1939
1943
1946
1933
1898
1871
1869
1890
1921
1932
1935
1941
1959
1995
2025
2018
2004
1975
1950
1931
1909
1885
1869
1868
1886
1905
1919
1931
1950
1959
1946
1935
1944
1950
1967
1989
1991
1969
1942
1932
1947
1957
1949
1925
1904
1912
1927
1916
1910
1928
1961
1984
1979
1972
1967
1952
1944
1926
1913
1933
1965
1993
2000
1998
2004
2006
2006
2000
1992
1999
2010
2027
2043
2035
2031
2026
2022
2016
2013
2013
1998
1976
1965
1989
2027
2072
2106
2125
2133
2130
2111
2080
2034
2002
1997
2012
2024
2010
1965
1928
1922
1951
1984
2003
2003
2006
2023
2038
2037
2023
1992
1960
1944
1941
1958
1975
1995
2020
2043
2067
2086
2077
2052
2021
1995
2007
2029
2029
2019
1998
1990
2014
2043
2050
2020
1983
1941
1905
1892
1886
1879
1865
1859
1872
1902
1932
1936
1921
1909
1909
1927
1957
1963
1947
1901
1843
1816
1811
1808
1819
1870
1959
2027
2048
2045
2056
2054
2025
1981
1944
1936
1967
2010
2027
2010
1979
1925
1859
1820
1824
1851
1895
1940
1946
1930
1926
1939
1951
1966
2002
2044
2077
2108
2122
2113
2127
2164
2172
2149
2107
2071
2025
1980
1945
1925
1934
1959
1985
1995
1992
1991
1989
2005
2012
2010
1999
2001
1998
2012
2036
2058
2075
2100
2104
2095
2069
2036
2015
2002
1999
2019
2038
2023
1994
1988
1997
2011
2040
2045
2029
1996
1950
1924
1967
2020
2051
2075
2065
2053
2081
2115
2104
2070
2018
1963
1962
2022
2093
2134
2135
2126
2119
2110
2092
2062
2031
1991
1953
1941
1940
1953
1972
1982
1980
1988
2014
2039
2051
2078
2124
2160
2174
2158
2131
2082
2014
1977
1957
1936
1927
1929
1944
1956
1966
1991
2053
2125
2176
2226
2252
2234
2215
2222
2236
2222
2188
2169
2181
2182
2174
2187
2221
2242
2197
2103
2024
2003
2034
2097
2134
2107
2062
2029
2050
2105
2107
2076
2063
2077
2104
2109
2086
2075
2089
2116
2162
2199
2206
2200
2224
2240
2224
2189
2144
2105
2054
1987
1957
1961
1987
2005
2015
2038
2092
2159
2199
2208
2206
2198
2183
2153
2154
2167
2157
2128
2114
2144
2179
2195
2219
2245
2257
2265
2258
2243
2210
2167
2117
2096
2093
2094
2123
2136
2127
2102
2071
2043
2035
2068
2128
2182
2224
2262
2291
2280
2249
2212
2163
2092
2025
2018
2063
2114
2147
2146
2133
2102
2056
2017
1992
1995
1996
2017
2047
2065
2063
2075
2084
2094
2084
2067
2074
2056
2025
1995
1974
1946
1936
1978
2039
2079
2091
2085
2062
2049
2069
2098
2126
2140
2109
2062
2043
2041
2035
2022
1998
1959
1932
1943
1964
1960
1946
1948
1952
1954
1958
1961
1974
1992
2003
2023
2067
2115
2132
2121
2110
2085
2056
2043
2046
2075
2088
2079
2066
2075
2090
2086
2068
2044
2021
1998
1973
1997
2042
2084
2119
2136
2144
2149
2125
2087
2061
2034
2014
1997
1969
1945
1925
1905
1894
1895
1918
1965
2027
2094
2146
2175
2211
2267
2344
2446
2551
2629
2695
2745
2782
2825
2889
2935
2971
3003
3019
3042
3084
3124
3124
3085
3036
2977
2919
2879
2813
2721
2631
2554
2478
2392
2314
2236
2140
2048
1970
1915
1875
1849
1838
1837
1832
1827
1831
1864
1923
1963
1981
2008
2024
2035
2022
1965
1884
1826
1803
1816
1837
1851
1887
1929
1940
1926
1886
1855
1852
1870
1900
1932
1966
2007
2017
2017
2034
2054
2070
2074
2067
2032
1994
1963
1928
1917
1921
1934
1937
1952
1955
1940
1911
1900
1904
1911
1940
1981
2018
2070
2110
2124
2139
2153
2149
2115
2054
2002
1976
1990
2011
2032
2054
2088
2110
2086
2056
2022
1985
1967
1968
1980
1998
2003
1995
1975
1952
1941
1938
1947
1975
2031
2106
2163
2195
2210
2210
2203
2188
2145
2097
2051
2014
2002
2025
2061
2090
2118
2139
2128
2095
2073
2083
2094
2092
2061
2011
1982
1977
1991
2013
2040
2083
2117
2115
2095
2068
2053
2046
2045
2057
2089
2128
2137
2115
2108
2110
2118
2136
2188
2258
2299
2266
2184
2092
2029
1986
1978
2004
2016
2033
2020
1991
1972
1973
1988
2006
2071
2160
2217
2249
2264
2250
2189
2102
2006
1903
1842
1851
1902
1964
2014
2061
2108
2142
2133
2087
2054
2052
2036
2000
1968
1962
1949
1942
1928
1895
1879
1889
1896
1904
1898
1908
1932
1938
1941
1938
1948
1978
2004
2005
1988
1983
2000
2044
2105
2169
2207
2223
2247
2243
2223
2174
2089
2016
1981
1960
1927
1876
1839
1861
1914
1982
2032
2002
1953
1918
1886
1870
1856
1854
1868
1886
1919
1942
1963
1993
2001
1989
1995
2021
2057
2091
2061
2016
1977
1969
1961
1957
1967
1969
1992
2024
2006
1954
1910
1910
1941
1967
1961
1904
1836
1798
1796
1832
1839
1792
1751
1735
1735
1740
1762
1792
1816
1850
1882
1895
1874
1843
1822
1828
1834
1820
1789
1746
1692
1665
1646
1631
1592
1566
1558
1577
1611
1641
1666
1681
1680
1661
1635
1623
1627
1634
1668
1728
1783
1793
1793
1772
1730
1692
1662
1630
1613
1627
1672
1732
1784
1813
1818
1803
1782
1780
1790
1807
1814
1837
1864
1873
1874
1875
1873
1872
1864
1862
1845
1798
1744
1728
1761
1821
1854
1881
1901
1886
1861
1858
1856
1834
1809
1794
1789
1796
1798
1803
1832
1882
1913
1926
1940
1949
1967
1985
1986
1968
1915
1866
1828
1794
1774
1788
1795
1810
1836
1861
1863
1869
1917
2017
2124
2165
2144
2099
2055
2027
2031
2053
2074
2076
2077
2064
2025
1979
1977
2013
2054
2043
2000
1965
1953
1943
1940
1956
2008
2077
2119
2150
2176
2198
2207
2195
2182
2174
2175
2149
2154
2177
2200
2233
2252
2254
2241
2218
2211
2233
2254
2238
2212
2183
2136
2093
2049
2052
2109
2165
2172
2147
2138
2147
2162
2198
2224
2215
2216
2233
2242
2235
2236
2249
2230
2185
2135
2136
2168
2207
2281
2350
2386
2357
2263
2140
2025
1986
2004
2036
2063
2076
2093
2141
2191
2185
2152
2141
2152
2182
2213
2233
2257
2280
2281
2252
2207
2182
2200
2254
2323
2339
2300
2230
2172
2133
2099
2092
2095
2084
2061
2024
2003
2011
2021
2045
2084
2114
2109
2098
2096
2091
2101
2132
2142
2102
2030
1988
1982
1990
1983
1960
1913
1893
1936
1999
2053
2083
2076
2052
2026
2006
1988
1980
1992
2009
2017
2040
2069
2077
2059
2030
2003
2023
2085
2121
2110
2084
2040
1992
1963
1978
2015
2046
2037
2011
1996
1978
1930
1896
1909
1951
2014
2059
2074
2072
2053
1999
1968
1956
1977
2001
2006
1990
1965
1905
1845
1814
1815
1836
1875
1920
1967
2011
2043
2058
2057
2025
1992
1970
1950
1932
1931
1925
1922
1933
1957
1986
2016
2052
2082
2107
2134
2167
2202
2216
2232
2273
2335
2401
2476
2532
2595
2652
2702
2759
2803
2846
2876
2912
2953
2996
3029
3045
3044
3007
2930
2833
2749
2673
2580
2469
2374
2286
2186
2079
1992
1927
1862
1802
1748
1730
1760
1791
1814
1837
1864
1891
1914
1942
1967
1971
1972
1957
1945
1951
1975
2029
2082
2093
2079
2068
2056
2048
2049
2034
1987
1937
1905
1925
1953
1960
1951
1935
1914
1918
1914
1894
1895
1923
1948
1955
1951
1938
1912
1896
1906
1908
1903
1917
1951
1976
1994
1993
1999
2001
1993
1976
1966
1975
1984
1980
1971
1990
1999
1988
1962
1927
1910
1923
1926
1938
1939
1939
1943
1944
1951
1979
2012
2041
2056
2066
2101
2137
2112
2059
2006
2006
2048
2099
2114
2070
2006
1957
1937
1947
1974
1994
1984
1940
1902
1891
1899
1926
1966
1999
2036
2071
2088
2107
2114
2091
2051
2010
1979
1977
2000
2016
2019
2011
1982
1982
2017
2046
2064
2052
2027
2018
2041
2091
2125
2117
2108
2109
2111
2100
2092
2090
2067
2034
2002
1977
1963
1935
1917
1913
1910
1918
1961
1991
1965
1910
1860
1853
1912
1997
2063
2103
2129
2135
2160
2206
2245
2246
2213
2131
2044
1998
1992
2003
1997
1985
1981
2008
2057
2131
2242
2319
2327
2278
2215
2193
2190
2202
2195
2163
2146
2165
2169
2148
2136
2150
2177
2188
2168
2148
2144
2158
2176
2201
2212
2226
2252
2279
2292
2283
2258
2229
2222
2248
2260
2277
2308
2291
2227
2171
2189
2253
2337
2388
2397
2368
2336
2296
2242
2190
2177
2174
2166
2163
2187
2220
2241
2228
2217
2218
2210
2200
2201
2220
2238
2267
2306
2327
2307
2252
2192
2138
2119
2170
2276
2352
2366
2333
2282
2220
2161
2132
2141
2158
2172
2174
2181
2190
2188
2198
2211
2211
2204
2213
2219
2195
2177
2174
2198
2229
2260
2279
2271
2247
2211
2172
2151
2116
2044
2018
2055
2106
2142
2151
2135
2135
2142
2166
2172
2163
2154
2134
2111
2105
2125
2152
2188
2201
2173
2156
2151
2143
2136
2121
2076
2014
2002
2032
2041
2064
2093
2095
2082
2069
2044
2044
2076
2107
2102
2080
2058
2032
2020
2035
2055
2038
1993
1979
2002
1998
1951
1909
1906
1946
1999
2025
2036
2068
2139
2209
2234
2213
2174
2135
2082
2014
1973
2008
2086
2125
2103
2053
2030
2055
2085
2147
2171
2101
2004
1930
1867
1815
1811
1829
1834
1820
1821
1828
1816
1811
1836
1861
1890
1899
1872
1865
1910
1977
2009
2023
2024
1982
1886
1819
1802
1837
1904
2002
2090
2126
2109
2045
1944
1871
1877
1897
1903
1913
1911
1915
1953
1985
2014
2048
2063
2052
2046
2016
1948
1916
1915
1912
1924
1945
1969
1994
2025
2066
2108
2117
2083
2052
2043
2061
2081
2083
2086
2102
2110
2084
2031
1982
1955
1939
1937
1950
1978
2004
2017
1999
1968
1932
1921
1940
1981
2028
2018
1970
1929
1907
1907
1941
2006
2045
2038
2032
2022
1994
1955
1935
1959
1985
1971
1962
1962
1952
1934
1925
1911
1909
1908
1913
1939
1977
2011
2041
2068
2093
2118
2121
2091
2036
1976
1924
1923
1963
1994
1981
1975
1970
1956
1956
1991
2019
2026
2051
2080
2113
2120
2102
2076
2068
2074
2045
1975
1923
1900
1886
1885
1918
1963
1988
2013
2037
2067
2071
2041
2003
1984
1999
2002
1987
1979
1981
1988
2013
2047
2069
2071
2081
2099
2097
2078
2059
2039
2016
1992
1983
1981
2001
2030
2052
2062
2048
2042
2059
2083
2083
2100
2115
2099
2059
1987
1942
1991
2060
2096
2140
2194
2248
2279
2311
2357
2399
2426
2434
2424
2411
2416
2451
2530
2614
2678
2730
2762
2779
2800
2833
2859
2871
2852
2822
2770
2707
2634
2575
2535
2477
2426
2391
2344
2248
2119
2009
1927
1864
1810
1788
1787
1799
1829
1870
1895
1893
1901
1925
1951
1976
1987
1967
1935
1925
1944
1979
2009
2033
2046
2042
2038
2038
2038
2034
2029
2042
2051
2042
2005
1957
1920
1883
1842
1835
1881
1965
2066
2130
2152
2128
2084
2074
2082
2054
2015
1986
1949
1908
1894
1956
2044
2095
2124
2116
2117
2160
2211
2255
2281
2256
2196
2151
2143
2143
2143
2121
2092
2084
2078
2061
2060
2061
2060
2050
2044
2033
2017
2001
1999
2017
2035
2044
2042
2049
2058
2058
2061
2067
2064
2057
2069
2087
2085
2062
2034
2018
2014
2017
2027
2039
2057
2062
2071
2068
2054
2055
2059
2048
2046
2070
2120
2148
2147
2155
2163
2154
2148
2165
2175
2145
2069
2001
1991
2047
2110
2140
2126
2093
2072
2081
2108
2141
2113
2062
2056
2067
2044
2027
2045
2075
2096
2116
2103
2069
2042
2036
2066
2114
2166
2190
2189
2184
2169
2158
2140
2137
2139
2135
2141
2151
2159
2159
2156
2152
2159
2163
2147
2117
2092
2086
2081
2092
2115
2123
2096
2047
2029
2069
2133
2180
2189
2183
2175
2181
2187
2195
2204
2197
2160
2128
2102
2080
2065
2067
2098
2131
2151
2196
2240
2247
2224
2197
2182
2171
2140
2107
2105
2122
2155
2181
2187
2194
2212
2208
2203
2224
2243
2256
2268
2280
2251
2225
2235
2234
2206
2163
2122
2104
2122
2157
2188
2208
2215
2215
2224
2244
2254
2257
2269
2280
2243
2201
2188
2202
2215
2207
2196
2193
2197
2201
2192
2180
2172
2170
2168
2151
2130
2110
2099
2114
2136
2147
2151
2167
2175
2155
2111
2074
2076
2113
2152
2165
2169
2161
2136
2100
2047
2004
1997
2042
2084
2101
2097
2084
2066
2042
2021
2021
2018
2013
2019
2016
2018
2044
2087
2131
2165
2172
2140
2109
2099
2112
2129
2112
2092
2104
2126
2129
2110
2080
2044
2017
1998
2006
2032
2063
2087
2106
2132
2166
2207
2241
2286
2310
2289
2232
2168
2127
2101
2097
2081
2061
2044
2032
2040
2072
2105
2108
2083
2065
2054
2052
2050
2055
2071
2084
2076
2073
2098
2136
2156
2147
2130
2128
2153
2175
2153
2097
2065
2084
2094
2097
2094
2083
2087
2129
2173
2198
2202
2195
2156
2104
2078
2067
2040
1992
1976
2011
2077
2124
2121
2092
2085
2094
2097
2090
2083
2107
2125
2122
2110
2107
2112
2136
2159
2157
2136
2106
2091
2103
2107
2092
2073
2059
2030
1980
1953
1968
2020
2102
2186
2215
2204
2209
2212
2185
2150
2149
2143
2136
2141
2154
2151
2132
2104
2099
2115
2142
2153
2141
2127
2135
2137
2127
2117
2116
2098
2088
2079
2042
2010
2004
2017
2032
2052
2054
2051
2056
2026
1980
1956
1978
2048
2115
2172
2221
2249
2239
2216
2201
2198
2192
2192
2185
2160
2118
2084
2076
2087
2073
2081
2089
2077
2037
1986
1964
1988
2023
2031
2048
2084
2116
2124
2117
2106
2101
2114
2138
2155
2178
2164
2117
2025
1934
1868
1852
1885
1967
2070
2149
2172
2171
2175
2159
2138
2124
2127
2112
2101
2112
2094
2052
2012
1977
1961
1978
1974
1971
1963
1968
1976
1996
2015
2031
2053
2061
2074
2093
2106
2101
2095
2088
2103
2131
2164
2186
2201
2201
2188
2153
2113
2079
2052
2036
2024
2025
2056
2112
2152
2152
2148
2136
2106
2060
2004
1965
1935
1949
1979
2011
2060
2104
2138
2149
2167
2210
2253
2306
2344
2357
2349
2380
2466
2561
2650
2717
2724
2684
2642
2646
2687
2718
2744
2757
2732
2705
2686
2657
2605
2536
2466
2410
2346
2273
2179
2073
1981
1922
1886
1860
1882
1931
1979
2035
2079
2094
2069
2043
2029
2050
2059
2035
2022
2015
2004
1978
1949
1924
1903
1920
1974
2045
2102
2130
2124
2122
2119
2103
2099
2109
2109
2072
1993
1905
1873
1895
1921
1931
1902
1851
1822
1819
1839
1888
1965
2032
2077
2099
2104
2072
2052
2070
2078
2047
1986
1945
1915
1885
1870
1881
1911
1961
2012
2055
2091
2112
2070
2019
1996
2011
1995
1959
1914
1884
1890
1911
1940
1974
1997
1992
1982
1990
1993
1970
1942
1932
1917
1918
1947
1994
2045
2075
2070
2059
2066
2086
2074
2041
2005
1967
1933
1922
1947
1985
2022
2029
2007
1992
1965
1921
1874
1866
1896
1955
2033
2105
2166
2206
2223
2216
2201
2167
2113
2075
2053
2060
2055
2011
1960
1932
1905
1875
1876
1915
1977
2070
2161
2172
2101
2011
1967
1986
2016
2053
2071
2070
2064
2037
2006
2005
2006
1980
1965
1996
2040
2043
2020
1999
1992
2014
2046
2078
2059
2039
2039
2026
2014
2001
2004
2016
2040
2037
2021
2002
1974
1946
1948
1980
2022
2054
2088
2110
2089
2057
2026
2034
2054
2054
2044
2053
2065
2054
2056
2078
2065
2027
2018
2033
2041
2058
2093
2090
2068
2055
2046
2031
1993
2002
2044
2098
2134
2131
2108
2078
2044
2028
1988
1949
1958
1973
1995
2025
2084
2119
2092
2029
1954
1880
1841
1843
1871
1957
2053
2086
2077
2052
2026
1990
1946
1932
1945
1956
1961
1955
1962
1962
1936
1910
1884
1869
1857
1859
1873
1893
1934
1962
1948
1925
1908
1904
1874
1813
1754
1724
1712
1727
1755
1781
1758
1709
1669
1655
1667
1697
1740
1792
1835
1849
1839
1807
1770
1740
1724
1724
1734
1731
1729
1741
1722
1687
1664
1666
1695
1716
1731
1742
1739
1752
1781
1814
1800
1755
1689
1655
1675
1683
1669
1665
1670
1696
1716
1718
1736
1755
1752
1742
1749
1753
1757
1761
1776
1815
1859
1893
1916
1892
1868
1846
1801
1757
1739
1731
1747
1755
1736
1725
1746
1763
1761
1751
1763
1784
1778
1753
1740
1749
1769
1778
1768
1751
1767
1793
1838
1895
1935
1939
1916
1900
1890
1893
1877
1825
1777
1765
1770
1779
1790
1811
1825
1820
1825
1854
1878
1879
1879
1878
1880
1891
1912
1936
1935
1907
1874
1848
1850
1855
1868
1893
1923
1950
1972
1971
1940
1895
1878
1884
1905
1926
1942
1973
1976
1954
1944
1978
2015
2036
2038
2033
2018
2002
1981
1968
1969
1990
2033
2082
2096
2063
2023
2010
2017
2024
2024
2011
1993
1982
1983
1974
1953
1943
1951
1963
1967
1966
1962
1976
1986
2001
2039
2087
2122
2115
2100
2097
2084
2062
2019
1980
1966
1982
2009
2016
2009
1994
1992
2011
2051
2067
2063
2060
2053
2020
1974
1961
2001
2051
2093
2087
2064
2050
2032
2007
1998
2006
1988
1991
2027
2070
2075
2073
2088
2079
2055
2020
1998
2016
2038
2051
2052
2066
2088
2089
2058
2032
2023
2016
2016
2033
2046
2042
2039
2043
2038
2037
2056
2076
2077
2081
2080
2078
2067
2047
2038
2026
2014
1996
1986
2005
2034
2063
2075
2086
2096
2102
2101
2100
2103
2090
2078
2063
2039
2012
2016
2031
2033
2026
2027
2035
2040
2058
2093
2124
2140
2160
2174
2148
2129
2151
2167
2176
2223
2286
2305
2283
2270
2283
2303
2327
2373
2429
2468
2489
2498
2506
2542
2607
2675
2736
2772
2779
2788
2815
2851
2858
2811
2754
2699
2640
2574
2501
2433
2378
2354
2347
2324
2269
2193
2118
2055
2021
2014
1990
1951
1926
1947
1978
1996
2006
2016
2033
2045
2059
2071
2078
2079
2076
2095
2122
2123
2095
2074
2069
2070
2104
2151
2170
2160
2159
2177
2197
2202
2188
2166
2144
2119
2100
2106
2134
2142
2133
2144
2157
2161
2152
2145
2124
2116
2144
2159
2126
2082
2108
2166
2200
2206
2199
2163
2108
2076
2075
2074
2048
2018
2006
2013
2020
2024
2014
2013
2035
2071
2116
2147
2167
2181
2173
2157
2152
2153
2142
2109
2072
2046
2050
2079
2113
2148
2181
2198
2207
2206
2187
2154
2141
2140
2129
2117
2121
2144
2171
2193
2207
2210
2213
2207
2206
2216
2244
2274
2279
2255
2225
2210
2206
2195
2169
2139
2134
2160
2185
2174
2154
2145
2157
2161
2142
2130
2118
2124
2150
2156
2165
2199
2233
2252
2259
2281
2284
2265
2243
2219
2180
2124
2083
2087
2135
2188
2231
2251
2247
2234
2237
2254
2247
2185
2116
2115
2151
2168
2156
2160
2174
2191
2209
2217
2209
2157
2097
2084
2099
2114
2131
2160
2193
2217
2232
2241
2236
2239
2224
2203
2191
2165
2130
2117
2100
2081
2065
2054
2055
2084
2113
2122
2134
2144
2157
2158
2151
2134
2107
2075
2073
2115
2176
2216
2235
2251
2250
2258
2275
2284
2276
2288
2295
2281
2254
2220
2172
2132
2107
2120
2149
2178
2197
2188
2151
2103
2065
2053
2077
2105
2135
2153
2171
2196
2202
2174
2145
2121
2127
2138
2143
2151
2161
2143
2104
2054
2000
1941
1921
1949
1985
1997
2012
2050
2087
2116
2124
2122
2123
2112
2083
2050
2008
1977
1984
2006
2021
2012
1999
2013
2033
2035
2025
2023
2016
2011
2026
2048
2057
2048
2027
1996
1976
1976
1994
2036
2062
2058
2027
1977
1938
1947
1961
1954
1940
1935
1922
1918
1949
1979
2005
2048
2074
2083
2082
2070
2053
2044
2057
2072
2051
2028
2026
2014
2000
1991
1965
1932
1915
1943
1997
2038
2068
2080
2075
2050
2018
1997
1989
2011
2037
2060
2075
2088
2095
2074
2040
2005
2004
2019
2056
2114
2150
2138
2094
2051
2031
2043
2050
2019
1989
1972
1963
1969
1967
1959
1954
1966
1961
1948
1924
1902
1895
1907
1929
1959
1965
1957
1939
1932
1959
2016
2065
2113
2148
2140
2085
2012
1939
1907
1925
1983
2038
2058
2067
2076
2067
2055
2038
2029
2026
2021
2027
2056
2097
2121
2102
2054
2006
1987
2008
2044
2060
2039
2020
2005
1975
1939
1941
1962
1960
1953
1977
2003
2017
2044
2051
2038
2034
2037
2043
2036
2037
2055
2063
2053
2044
2046
2058
2072
2082
2096
2084
2049
2025
2022
2007
1994
1999
1999
1996
2012
2033
2046
2062
2077
2078
2070
2060
2046
2029
2025
2030
2009
1972
1965
1966
1947
1937
1958
1989
2019
2038
2040
2055
2065
2067
2057
2046
2044
2046
2035
2030
2052
2069
2051
2000
1955
1941
1936
1945
1967
1995
2007
2006
2003
2032
2082
2125
2138
2125
2111
2091
2071
2052
2012
1972
1949
1929
1939
1971
1993
2013
2031
2032
2028
2020
1996
1976
1974
1988
2004
2021
2031
2023
2000
1973
1954
1941
1922
1907
1928
1951
1971
1987
2002
2017
2043
2052
2053
2034
2009
1995
1989
1991
1996
1987
1987
2013
2046
2031
2022
2039
2070
2063
2038
2025
2032
2056
2054
2027
1991
1960
1960
1978
1996
2021
2045
2031
1967
1890
1841
1845
1885
1934
1979
2005
2011
2003
1999
2012
2026
2050
2086
2133
2191
2245
2291
2333
2365
2381
2394
2422
2471
2514
2550
2589
2621
2639
2640
2644
2660
2688
2719
2746
2743
2724
2700
2667
2622
2578
2537
2475
2405
2337
2246
2146
2077
2040
1999
1978
1967
1940
1900
1869
1836
1776
1731
1732
1774
1818
1849
1868
1888
1892
1906
1947
1974
1954
1929
1926
1935
1950
1970
1981
1974
1979
1987
1973
1958
1945
1941
1963
1984
1964
1935
1923
1913
1907
1904
1892
1882
1864
1838
1833
1868
1917
1963
1989
1999
2013
2022
2015
2003
1989
1974
1962
1937
1897
1859
1848
1860
1863
1870
1900
1935
1969
2001
2020
2029
2018
1982
1942
1909
1907
1936
1968
2011
2009
1988
2003
2039
2066
2071
2063
2058
2043
2001
1962
1927
1922
1941
1947
1935
1932
1935
1951
1978
2015
2047
2046
2042
2052
2031
1982
1920
1863
1843
1866
1885
1904
1930
1978
2043
2075
2041
1984
1968
1988
2001
1991
1944
1905
1898
1911
1936
1974
2028
2088
2121
2110
2086
2081
2108
2125
2119
2078
1997
1911
1862
1857
1878
1911
1931
1935
1934
1912
1862
1826
1808
1840
1913
1962
1981
2010
2002
1982
1972
1976
1993
1973
1942
1930
1953
1972
1973
1949
1941
1975
1990
2012
2033
2033
2068
2139
2209
2230
2208
2158
2081
1994
1918
1876
1847
1836
1868
1912
1926
1920
1947
1988
2033
2101
2156
2132
2065
2010
2011
2028
2044
2076
2109
2119
2086
2027
1999
2013
2053
2123
2203
2237
2236
2167
2050
1930
1865
1859
1903
1978
2024
2036
2008
1945
1887
1872
1868
1906
2017
2180
2282
2324
2304
2248
2202
2110
2007
1939
1946
1975
2020
2028
1979
1918
1853
1809
1830
1908
1949
1929
1886
1830
1800
1810
1837
1862
1894
1936
1974
1969
1911
1813
1729
1694
1706
1728
1734
1758
1805
1847
1849
1842
1831
1844
1888
1929
1949
1993
2039
2062
2036
2003
2004
2020
2006
1991
1972
1934
1882
1829
1790
1781
1806
1815
1810
1794
1780
1771
1768
1768
1743
1722
1743
1790
1824
1830
1834
1853
1870
1876
1864
1843
1826
1832
1833
1851
1875
1888
1893
1893
1911
1938
1964
2002
2014
1974
1934
1944
1910
1868
1854
1870
1897
1899
1915
1921
1919
1898
1856
1828
1845
1893
1934
1928
1881
1821
1760
1741
1768
1817
1878
1890
1875
1882
1916
1924
1944
1986
2061
2144
2188
2146
2048
1978
1950
1941
1944
1938
1889
1795
1717
1691
1723
1775
1816
1837
1848
1830
1836
1839
1836
1826
1804
1811
1865
1920
1972
2014
2039
2072
2100
2116
2129
2156
2164
2115
2035
1996
1962
1915
1880
1875
1897
1934
1987
2018
2008
1995
1994
2027
2048
2062
2069
2073
2091
2103
2066
2024
1995
1950
1861
1776
1748
1784
1857
1932
1987
2013
2021
2017
2052
2098
2114
2059
2005
1977
1955
1951
1966
2038
2104
2130
2122
2114
2148
2187
2204
2189
2178
2162
2094
2029
1985
1945
1916
1882
1899
1918
1883
1857
1861
1879
1913
1965
2022
2017
1971
1940
1935
1918
1916
1934
1937
1929
1959
1997
2022
2045
2040
2007
1967
1947
1944
1940
1959
2006
2057
2048
1982
1927
1940
2012
2086
2103
2089
2046
1995
1961
1935
1927
1915
1911
1934
1972
2010
2037
2062
2068
2051
2000
1957
1960
1975
1983
1969
1949
1941
1961
2037
2116
2118
2047
1981
1970
2011
2084
2123
2105
2051
1998
1997
2019
1995
1956
1972
2010
2012
2016
2049
2061
2043
2039
2098
2178
2174
2160
2149
2120
2096
2105
2095
2069
2039
2011
1996
2013
2068
2113
2119
2107
2082
2043
2053
2129
2190
2203
2206
2199
2192
2204
2195
2150
2091
2043
2007
1983
1957
1938
1964
1990
1981
1937
1899
1891
1881
1872
1881
1878
1897
1930
1973
2029
2067
2063
2044
2040
2035
2023
2015
1997
1993
2008
2008
1980
1952
1955
1990
2046
2087
2098
2086
2088
2119
2124
2116
2141
2172
2181
2149
2089
2033
2025
2040
2067
2088
2122
2184
2230
2217
2148
2058
1969
1900
1846
1816
1838
1899
1961
2000
2023
2022
2025
2047
2063
2088
2108
2135
2179
2223
2276
2320
2315
2307
2319
2304
2278
2281
2357
2468
2569
2658
2724
2758
2781
2795
2782
2759
2748
2763
2754
2712
2664
2608
2535
2468
2397
2343
2263
2166
2084
2007
1909
1807
1729
1716
1767
1829
1872
1901
1924
1946
1974
2020
2058
2038
1974
1887
1838
1838
1867
1924
2010
2090
2125
2120
2133
2129
2097
2058
2025
2016
2035
2067
2119
2141
2133
2128
2141
2157
2121
2054
2019
2012
2016
2023
2036
2027
1999
1933
1849
1808
1819
1894
2001
2057
2062
2069
2095
2147
2206
2235
2212
2155
2084
2026
1990
1966
1950
1940
1945
1967
1998
2040
2103
2159
2192
2180
2145
2155
2203
2231
2202
2162
2141
2102
2055
2032
2030
2042
2062
2054
2034
2037
2020
1988
1990
2072
2153
2170
2164
2193
2273
2366
2415
2404
2371
2337
2309
2256
2195
2127
2077
2051
2076
2122
2140
2123
2108
2078
2041
2052
2090
2132
2155
2136
2083
2047
2085
2209
2364
2485
2533
2504
2446
2404
2370
2351
2349
2354
2353
2387
2431
2468
2458
2429
2387
2359
2333
2341
2386
2420
2413
2381
2339
2302
2279
2261
2227
2165
2109
2090
2109
2135
2156
2184
2210
2211
2204
2214
2232
2248
2244
2241
2256
2269
2231
2145
2059
1998
1991
2020
2058
2067
2041
2011
2004
2000
1968
1957
1990
2031
2044
2028
2010
2004
2019
2048
2052
2029
1985
1947
1966
1995
1985
1964
1958
1939
1905
1889
1881
1870
1864
1872
1886
1895
1916
1952
1985
2005
2015
2019
1980
1944
1938
1930
1923
1920
1900
1875
1875
1900
1906
1890
1855
1841
1807
1790
1823
1876
1931
1960
1946
1899
1870
1892
1952
2023
2048
2044
2034
2001
1967
1922
1849
1821
1882
1969
2040
2091
2097
2048
1956
1869
1834
1856
1862
1862
1894
1910
1913
1960
2043
2088
2068
2024
2007
1975
1930
1898
1899
1931
1962
1988
1993
2006
2044
2068
2059
2064
2075
2070
2073
2081
2086
2074
2054
2043
2041
2030
2029
2039
2052
2070
2092
2126
2162
2174
2136
2089
2060
2033
1996
1978
1965
1959
1979
2006
2026
2035
2025
2001
1969
1931
1910
1949
1998
2054
2110
2126
2126
2133
2120
2078
2038
2038
2092
2138
2117
2072
2052
2059
2068
2082
2097
2125
2150
2142
2131
2154
2174
2184
2201
2225
2239
2236
2222
2219
2233
2263
2273
2250
2225
2201
2157
2105
2081
2097
2130
2158
2180
2205
2209
2213
2220
2213
2179
2146
2100
2029
1995
1994
1999
2014
2053
2108
2154
2197
2243
2264
2243
2244
2276
2311
2309
2296
2301
2319
2330
2340
2362
2379
2390
2388
2402
2415
2389
2355
2297
2279
2273
2268
2293
2303
2300
2321
2335
2304
2247
2215
2210
2233
2282
2316
2278
2225
2212
2233
2254
2263
2282
2299
2303
2276
2232
2191
2175
2168
2165
2201
2256
2269
2226
2183
2145
2150
2196
2234
2233
2217
2189
2160
2152
2173
2203
2247
2297
2317
2313
2329
2358
2376
2385
2358
2319
2310
2327
2355
2362
2347
2318
2313
2331
2336
2327
2318
2289
2249
2242
2265
2283
2292
2306
2323
2333
2302
2289
2296
2308
2315
2311
2333
2377
2375
2348
2321
2291
2253
2215
2195
2202
2213
2230
2251
2259
2244
2207
2190
2181
2169
2185
2241
2302
2330
2326
2334
2333
2287
2229
2202
2193
2177
2160
2133
2101
2076
2093
2130
2168
2211
2237
2205
2163
2136
2121
2111
2123
2142
2154
2160
2186
2223
2254
2277
2282
2261
2230
2208
2183
2189
2237
2246
2187
2187
2206
2194
2159
2145
2179
2222
2234
2213
2181
2161
2164
2159
2158
2155
2131
2113
2105
2107
2113
2124
2131
2155
2165
2191
2205
2205
2216
2252
2293
2327
2347
2381
2426
2447
2469
2499
2518
2536
2520
2470
2405
2349
2288
2250
2233
2242
2273
2289
2266
2247
2242
2266
2305
2324
2333
2371
2386
2359
2349
2360
2375
2390
2393
2400
2413
2401
2347
2264
2224
2242
2268
2278
2271
2278
2305
2315
2311
2294
2249
2218
2234
2276
2302
2293
2224
2142
2115
2144
2207
2277
2359
2441
2470
2479
2449
2432
2466
2519
2557
2572
2603
2650
2715
2794
2839
2846
2860
2895
2928
2926
2894
2878
2903
2909
2853
2756
2635
2519
2407
2313
2224
2143
2069
2030
2055
2086
2061
2007
1975
1957
1938
1902
1850
1818
1827
1873
1949
2029
2058
2031
1979
1945
1952
1965
1985
2000
1986
1951
1933
1917
1912
1923
1937
1938
1915
1886
1882
1894
1903
1922
1931
1922
1925
1934
1936
1942
1968
1988
1970
1938
1913
1906
1925
1942
1934
1918
1913
1892
1881
1894
1912
1916
1906
1912
1944
1985
2017
2038
2030
2008
1973
1928
1888
1843
1807
1794
1784
1791
1806
1827
1819
1799
1812
1851
1905
1966
2010
2020
2000
1963
1925
1892
1881
1883
1882
1893
1910
1921
1905
1889
1869
1834
1826
1821
1828
1845
1872
1873
1847
1833
1850
1864
1875
1887
1878
1846
1805
1802
1804
1839
1899
1885
1858
1845
1868
1900
1913
1920
1935
1941
1942
1942
1955
1976
1993
1993
1977
1964
1965
1963
1970
1974
1945
1920
1918
1914
1919
1932
1905
1886
1891
1888
1885
1881
1903
1971
2056
2100
2070
1998
1920
1860
1821
1799
1806
1832
1864
1894
1914
1918
1905
1891
1870
1861
1855
1844
1853
1891
1927
1889
1815
1771
1776
1817
1890
1983
2059
2067
2029
1981
1972
1985
1985
1996
2015
2009
1967
1923
1916
1937
1953
1971
1962
1920
1880
1877
1877
1899
1932
1949
1948
1943
1925
1893
1864
1857
1846
1840
1841
1833
1817
1810
1820
1850
1904
1941
1953
1965
1984
1999
2001
1994
1991
1995
1998
1994
1990
1984
1985
1980
1949
1918
1960
2004
2000
1955
1905
1880
1851
1820
1807
1806
1824
1849
1884
1904
1906
1915
1935
1950
1932
1912
1887
1866
1872
1872
1863
1858
1862
1869
1843
1792
1735
1709
1718
1744
1779
1819
1877
1943
2034
2110
2145
2150
2126
2060
1984
1941
1919
1918
1918
1907
1895
1884
1884
1900
1902
1895
1882
1868
1862
1878
1882
1884
1893
1886
1876
1882
1880
1862
1843
1836
1818
1776
1736
1748
1775
1788
1813
1858
1904
1939
1976
2000
2005
1983
1947
1914
1907
1910
1895
1878
1878
1894
1880
1864
1900
1952
1952
1942
1955
1986
1996
1985
1949
1933
1943
1960
1977
1995
2005
2009
1998
1958
1928
1941
1963
1981
2008
2044
2073
2100
2105
2091
2055
2007
1972
1934
1890
1883
1923
1954
1991
2019
2003
1978
1946
1914
1910
1905
1926
1966
1999
2010
2010
2000
1994
1967
1942
1947
1939
1922
1905
1902
1924
1963
2017
2066
2096
2093
2073
2053
2041
2054
2070
2079
2059
2037
2038
2020
2001
1985
1967
1950
1940
1953
1998
2052
2096
2119
2119
2095
2057
2054
2077
2103
2124
2135
2129
2149
2151
2126
2113
2121
2099
2051
1982
1918
1869
1842
1859
1920
1976
2023
2054
2058
2046
2033
2045
2067
2069
2059
2045
2026
2016
2024
2028
2041
2037
2021
2030
2075
2115
2112
2112
2086
2036
2031
2080
2149
2167
2125
2072
2036
2024
2018
2007
1984
1993
1985
1941
1889
1865
1892
1951
2032
2088
2091
2069
2078
2108
2106
2087
2088
2101
2128
2181
2210
2198
2150
2085
2039
2010
1973
1948
1954
1990
2033
2046
2031
2012
2017
2009
1965
1937
1934
1935
1936
1956
1992
2037
2051
2049
2051
2054
2030
2006
2032
2050
2054
2055
2035
2030
2046
2065
2057
2048
2080
2112
2124
2126
2098
2058
2052
2085
2132
2166
2146
2066
1990
1956
1938
1935
1933
1934
1947
1932
1929
1960
2004
2031
2033
2044
2053
2038
2020
2031
2034
1992
1933
1904
1919
1922
1931
1944
1961
1990
2022
2031
2001
1988
2029
2078
2104
2102
2074
2042
2023
2004
1974
1920
1902
1928
1954
1990
2038
2058
2048
2036
2042
2066
2085
2099
2112
2123
2116
2107
2094
2081
2054
2009
1988
1974
1950
1943
1957
1974
1982
2001
2032
2053
2033
1996
2003
2062
2126
2177
2210
2229
2196
2160
2143
2131
2109
2074
2039
2004
1979
1967
1955
1946
1953
1997
2036
2034
1998
1972
1967
1968
1963
1934
1905
1927
1988
2052
2085
2100
2113
2106
2092
2072
2043
2007
1989
1974
1969
2000
2030
2028
2040
2083
2139
2146
2113
2091
2105
2111
2104
2061
2021
2001
1988
1993
2000
2010
2023
2042
2064
2060
2035
2003
1993
1994
1994
1988
1988
1986
1986
1985
1995
2022
2050
2074
2100
2124
2155
2174
2145
2105
2081
2051
2027
2038
2076
2112
2112
2096
2089
2067
2036
2030
2048
2064
2052
2015
1985
1992
2014
2007
2019
2019
2017
2011
2021
2032
2044
2073
2086
2074
2075
2091
2122
2153
2164
2176
2157
2117
2082
2068
2081
2084
2067
2053
2083
2139
2164
2166
2169
2179
2197
2213
2209
2218
2244
2288
2332
2365
2404
2435
2454
2490
2535
2604
2682
2733
2746
2731
2741
2764
2792
2788
2776
2794
2813
2789
2725
2658
2590
2504
2385
2268
2176
2122
2085
2061
2033
1992
1975
1983
1970
1943
1943
1922
1879
1891
1955
2018
2064
2084
2054
1976
1901
1888
1921
1954
1971
1990
2003
1999
1999
2001
2002
1994
1997
2009
2022
2034
2042
2034
2011
2007
2037
2045
2032
2045
2069
2079
2094
2110
2133
2152
2128
2098
2075
2047
1986
1904
1848
1848
1873
1907
1938
1969
1985
1975
1938
1882
1857
1889
1947
1994
2017
2026
2005
1992
2011
2031
2063
2095
2106
2088
2079
2085
2091
2095
2110
2096
2027
1969
1940
1903
1854
1844
1863
1891
1937
1972
1989
1983
1992
1991
1985
1961
1922
1901
1895
1908
1946
1959
1938
1928
1934
1955
1969
1994
2015
1992
1948
1913
1896
1897
1915
1932
1937
1939
1941
1931
1925
1917
1911
1911
1910
1924
1953
1971
1969
1953
1934
1954
1982
1976
1948
1932
1943
1966
1990
2009
2037
2069
2112
2100
2032
1963
1913
1873
1842
1840
1845
1822
1794
1788
1789
1780
1751
1729
1744
1781
1813
1850
1920
2000
2064
2096
2067
1996
1917
1888
1904
1903
1889
1873
1904
1943
1933
1848
1751
1684
1661
1695
1746
1799
1810
1801
1801
1826
1862
1900
1933
1954
1962
1950
1912
1888
1907
1940
1916
1846
1813
1840
1871
1875
1883
1903
1904
1904
1909
1905
1891
1867
1883
1907
1892
1870
1880
1906
1896
1910
1935
1929
1945
1945
1943
1957
1972
1980
1976
1966
1964
1977
1998
2000
1969
1931
1913
1911
1903
1880
1884
1879
1867
1892
1928
1975
2018
2011
1959
1938
1952
1942
1908
1877
1869
1866
1897
1986
2078
2048
1957
1902
1871
1839
1817
1803
1784
1781
1799
1819
1821
1844
1879
1913
1911
1895
1934
1979
2000
2015
2019
2037
2044
2058
2093
2124
2147
2114
2050
2013
1999
1989
1978
1965
1948
1930
1926
1924
1910
1880
1863
1880
1916
1956
1998
2025
2049
2077
2098
2090
2075
2065
2059
2044
2023
2014
2031
2047
2039
1994
1960
1955
1942
1947
1966
1963
1953
1953
1973
2011
2041
2061
2060
2049
2041
2060
2090
2117
2137
2148
2141
2139
2169
2206
2233
2205
2168
2121
2062
1994
1930
1918
1944
1974
2003
2063
2148
2194
2164
2115
2073
2043
2009
1976
1952
1978
2046
2082
2075
2060
2055
2062
2074
2092
2105
2099
2100
2104
2110
2111
2114
2107
2093
2094
2102
2120
2143
2178
2201
2195
2179
2170
2143
2142
2157
2171
2190
2197
2215
2220
2171
2100
2071
2060
2097
2145
2183
2222
2246
2276
2274
2226
2164
2121
2091
2084
2112
2170
2218
2212
2184
2183
2169
2140
2126
2117
2104
2089
2090
2122
2163
2191
2204
2197
2182
2167
2137
2114
2113
2147
2179
2169
2162
2165
2187
2217
2215
2195
2151
2102
2049
2013
2021
2052
2100
2131
2141
2171
2186
2175
2148
2113
2077
2027
2005
2027
2061
2121
2200
2242
2259
2278
2299
2304
2290
2264
2228
2187
2144
2124
2116
2101
2076
2070
2071
2075
2075
2106
2195
2292
2353
2374
2338
2302
2250
2193
2164
2172
2178
2191
2195
2157
2102
2088
2123
2174
2198
2186
2169
2145
2151
2185
2208
2192
2160
2136
2152
2163
2135
2106
2106
2133
2164
2188
2211
2235
2223
2192
2163
2133
2134
2154
2160
2154
2164
2183
2191
2179
2154
2122
2119
2140
2155
2173
2192
2180
2159
2168
2185
2193
2185
2163
2117
2095
2108
2128
2150
2161
2168
2179
2162
2112
2071
2056
2065
2110
2182
2250
2308
2350
2367
2356
2313
2266
2250
2260
2294
2317
2295
2255
2201
2149
2099
2081
2100
2108
2073
2019
1979
1955
1955
2001
2092
2169
2217
2238
2217
2188
2152
2138
2149
2161
2195
2223
2234
2224
2211
2201
2192
2214
2249
2268
2262
2246
2210
2171
2135
2103
2098
2121
2168
2221
2246
2212
2172
2181
2192
2193
2190
2193
2199
2197
2172
2149
2134
2122
2106
2095
2084
2081
2098
2128
2173
2201
2198
2183
2175
2171
2169
2188
2217
2241
2260
2254
2212
2167
2145
2136
2151
2171
2155
2126
2115
2103
2081
2094
2127
2151
2144
2145
2165
2192
2214
2239
2268
2293
2297
2268
2234
2210
2191
2166
2151
2141
2157
2187
2161
2105
2072
2062
2055
2054
2057
2067
2086
2122
2178
2223
2273
2317
2301
2259
2211
2187
2203
2221
2238
2238
2208
2166
2132
2133
2172
2215
2236
2235
2228
2214
2191
2155
2124
2135
2187
2232
2254
2270
2307
2339
2318
2275
2227
2191
2163
2145
2174
2206
2223
2236
2237
2249
2251
2253
2264
2258
2235
2207
2172
2160
2188
2248
2282
2251
2212
2183
2177
2194
2208
2216
2198
2156
2124
2099
2088
2102
2130
2168
2206
2221
2204
2159
2118
2117
2143
2183
2212
2223
2209
2179
2146
2154
2205
2264
2306
2321
2317
2296
2277
2283
2300
2310
2312
2307
2316
2316
2329
2352
2358
2343
2299
2237
2190
2174
2179
2159
2126
2108
2099
2097
2122
2199
2283
2342
2385
2418
2436
2424
2398
2373
2358
2361
2364
2345
2304
2253
2192
2158
2165
2178
2186
2197
2217
2237
2278
2316
2325
2330
2318
2334
2357
2362
2363
2402
2480
2611
2772
2915
3006
3052
3062
3066
3078
3093
3089
3067
3051
3038
3001
2959
2919
2868
2793
2717
2648
2567
2442
2292
2164
2084
2053
2058
2084
2126
2148
2132
2101
2051
2000
1968
1998
2067
2133
2172
2190
2178
2127
2064
2041
2071
2113
2145
2163
2159
2143
2135
2120
2098
2076
2046
2016
2027
2054
2071
2083
2105
2135
2161
2182
2188
2178
2153
2107
2080
2099
2126
2131
2111
2103
2121
2143
2169
2208
2241
2242
2209
2155
2105
2072
2062
2091
2135
2157
2124
2072
2013
1956
1927
1944
1984
2053
2116
2148
2160
2171
2156
2114
2077
2060
2041
1994
1953
1967
1975
1974
1991
2009
2036
2073
2098
2127
2157
2191
2231
2268
2259
2229
2209
2182
2151
2131
2126
2139
2144
2136
2111
2081
2076
2071
2032
1981
1941
1905
1891
1901
1932
1994
2084
2136
2166
2167
2136
2118
2140
2193
2246
2282
2310
2308
2287
2254
2206
2149
2124
2154
2194
2196
2172
2129
2087
2052
2039
2060
2092
2114
2118
2110
2118
2143
2172
2193
2195
2180
2148
2122
2095
2072
2058
2061
2095
2139
2163
2160
2147
2125
2086
2070
2055
2063
2090
2134
2207
2286
2320
2326
2316
2284
2275
2300
2333
2369
2352
2299
2235
2181
2125
2061
2023
2008
1992
1950
1924
1946
1967
1983
2010
2083
2186
2269
2322
2334
2313
2260
2174
2079
2044
2061
2109
2171
2204
2215
2204
2183
2185
2199
2226
2258
2276
2278
2269
2265
2232
2180
2196
2265
2340
2380
2351
2269
2184
2129
2092
2031
1981
1972
2004
2040
2059
2054
2049
2050
2070
2094
2104
2095
2088
2089
2093
2102
2093
2100
2119
2126
2108
2076
2063
2061
2044
2024
2028
2027
2034
2044
2039
2043
2037
2022
2001
1989
2001
1998
1981
1988
1999
1987
1970
1948
1938
1959
1960
1968
1998
2013
1970
1926
1894
1884
1899
1934
1993
2046
2074
2073
2033
2005
1987
1981
1994
1997
1994
2008
2042
2081
2101
2083
2066
2031
1982
1951
1941
1949
1989
2044
2062
2035
2015
2005
1998
1979
1965
1978
2005
2019
2041
2067
2055
2050
2066
2062
2053
2031
1978
1917
1886
1879
1908
1970
2033
2065
2061
2069
2046
2021
2012
1999
1988
1982
1970
1945
1944
1968
1986
1998
2027
2054
2083
2105
2089
2050
2006
1993
2000
2017
2022
2022
2024
2006
1973
1939
1922
1913
1913
1937
1961
1952
1970
2056
2119
2122
2126
2113
2071
2047
2043
2024
1993
1962
1929
1921
1932
1920
1933
1975
2013
1995
1961
1944
1955
1967
1989
2032
2085
2114
2124
2120
2087
2038
2004
1995
2001
2022
2052
2073
2074
2053
2015
1984
1996
2048
2122
2172
2177
2146
2096
2054
2028
2016
1977
1977
2002
2013
1984
1946
1925
1894
1863
1871
1913
1943
1956
1971
1970
1970
1995
2017
2005
1995
1994
1977
1956
1959
1973
1983
1968
1946
1945
1939
1936
1950
1992
2030
2032
2024
2022
2025
2026
2043
2038
2012
2029
2053
2060
2065
2074
2048
2011
1986
1959
1954
1968
1971
1944
1909
1910
1947
1991
2009
2012
2000
1974
1963
1964
1951
1951
1978
2002
2017
2021
2012
2002
2010
2024
2014
1982
1943
1917
1916
1936
1950
1970
2013
2047
2045
2033
2041
2032
1998
1971
1965
1965
1977
1996
1999
1961
1900
1881
1910
1936
1903
1877
1917
1982
1995
1980
1959
1912
1862
1840
1846
1857
1880
1934
2009
2062
2059
2041
2046
2071
2100
2104
2115
2122
2096
2070
2073
2079
2101
2108
2076
2039
2021
1988
1933
1905
1903
1906
1932
1974
2023
2051
2067
2058
2032
1992
1950
1912
1885
1894
1948
2003
2018
2002
1965
1937
1955
1959
1962
1982
2004
2034
2070
2088
2078
2041
1986
1931
1894
1880
1895
1936
1994
2029
2008
1980
1968
1969
1985
2002
1999
1982
1970
1941
1905
1879
1869
1884
1889
1902
1952
2003
2015
1999
1997
2025
2049
2073
2097
2108
2118
2124
2126
2152
2184
2183
2146
2089
2028
1967
1909
1876
1877
1903
1912
1893
1884
1889
1887
1892
1901
1903
1921
1949
1963
1993
2018
2030
2037
2036
2019
1980
1961
2010
2094
2142
2172
2198
2186
2130
2055
1983
1936
1935
1953
1976
1983
1968
1950
1927
1925
1959
1989
