# Generic Text File Format
# Version: 1
# StartDateTime: 2012-04-16 15:02:04
# SamplingFrequency: 1000
# SamplingResolution: 12
# EndOfHeader
1545
1559
1550
1520
1474
1465
1507
1566
1604
1605
1608
1618
1646
1647
1612
1579
1555
1553
1559
1575
1598
1625
1669
1700
1694
1676
1637
1578
1540
1542
1531
1530
1540
1558
1609
1660
1666
1657
1631
1592
1584
1602
1621
1623
1613
1625
1643
1661
1672
1674
1656
1641
1644
1669
1710
1732
1738
1685
1610
1599
1605
1632
1695
1744
1758
1753
1738
1730
1735
1758
1790
1815
1837
1852
1880
1888
1864
1861
1864
1847
1839
1835
1851
1869
1865
1856
1863
1856
1838
1831
1852
1886
1916
1933
1912
1867
1817
1765
1718
1695
1705
1745
1774
1812
1875
1901
1956
2006
2030
2036
2071
2121
2178
2251
2317
2372
2427
2456
2451
2477
2508
2494
2460
2458
2479
2501
2507
2481
2429
2352
2256
2178
2126
2084
2028
1948
1850
1742
1658
1610
1574
1556
1557
1551
1557
1588
1634
1664
1706
1740
1733
1701
1675
1666
1653
1621
1609
1629
1664
1684
1724
1771
1788
1732
1707
1742
1770
1788
1782
1751
1727
1735
1755
1743
1695
1672
1702
1766
1829
1864
1849
1834
1824
1830
1842
1855
1859
1853
1843
1833
1835
1832
1856
1891
1915
1962
2012
2025
2023
2006
1990
1996
2011
2043
2077
2107
2104
2082
2047
2028
2056
2097
2067
2022
2037
2061
2060
2056
2036
1987
1909
1833
1825
1828
1862
1919
1971
2024
2054
2050
2018
1963
1937
1932
1911
1897
1856
1824
1827
1846
1859
1838
1785
1738
1749
1782
1801
1813
1809
1792
1788
1801
1836
1888
1912
1901
1878
1862
1850
1835
1820
1794
1768
1746
1715
1672
1649
1649
1659
1665
1676
1694
1710
1707
1706
1711
1711
1694
1668
1648
1613
1587
1584
1586
1582
1575
1583
1578
1536
1491
1447
1405
1404
1440
1476
1475
1498
1532
1563
1556
1479
1370
1321
1358
1442
1540
1587
1567
1517
1461
1394
1343
1326
1348
1342
1295
1279
1296
1328
1347
1365
1395
1393
1370
1347
1344
1366
1389
1397
1393
1389
1376
1368
1374
1377
1369
1371
1375
1367
1352
1325
1270
1244
1277
1290
1265
1266
1279
1271
1248
1219
1193
1176
1206
1276
1308
1324
1352
1360
1352
1312
1248
1204
1183
1176
1199
1223
1241
1265
1277
1269
1256
1263
1296
1317
1331
1367
1392
1385
1343
1286
1232
1215
1247
1283
1288
1279
1290
1302
1305
1303
1289
1252
1233
1235
1223
1209
1213
1225
1252
1266
1281
1278
1261
1239
1220
1222
1255
1263
1260
1229
1187
1181
1201
1228
1254
1267
1244
1193
1156
1156
1180
1193
1215
1260
1307
1306
1281
1268
1253
1251
1267
1292
1304
1295
1283
1283
1280
1268
1269
1293
1300
1294
1312
1350
1382
1371
1316
1287
1314
1334
1340
1346
1327
1292
1275
1293
1332
1358
1358
1349
1343
1357
1398
1422
1408
1362
1320
1316
1312
1275
1265
1286
1298
1301
1300
1310
1312
1306
1314
1319
1303
1309
1324
1376
1426
1430
1401
1342
1310
1337
1387
1376
1367
1402
1434
1445
1435
1410
1368
1354
1389
1428
1453
1449
1423
1403
1389
1387
1391
1393
1392
1383
1410
1455
1468
1449
1440
1456
1485
1502
1505
1498
1490
1509
1529
1525
1500
1479
1509
1556
1549
1556
1558
1544
1521
1499
1482
1483
1476
1497
1540
1571
1582
1593
1605
1586
1557
1564
1576
1566
1584
1632
1668
1695
1706
1691
1670
1651
1668
1686
1689
1709
1724
1730
1713
1676
1639
1608
1602
1614
1639
1656
1638
1620
1648
1682
1723
1773
1811
1830
1834
1845
1878
1868
1832
1809
1813
1841
1859
1859
1854
1866
1874
1852
1836
1827
1852
1867
1864
1846
1803
1770
1802
1876
1935
1954
1980
1975
1935
1888
1844
1837
1863
1889
1916
1942
1965
1940
1919
1917
1922
1926
1922
1936
1949
1952
1956
1984
1996
1988
1962
1939
1923
1918
1911
1912
1931
1968
2016
2057
2071
2041
1988
1955
1957
1972
1974
1973
1992
2017
2045
2064
2093
2148
2234
2327
2383
2404
2407
2428
2453
2480
2525
2585
2627
2643
2643
2651
2649
2608
2540
2471
2417
2366
2311
2240
2166
2153
2129
2061
1982
1941
1917
1889
1845
1802
1768
1756
1792
1857
1885
1896
1890
1870
1859
1889
1913
1948
1984
2006
1994
2002
2050
2107
2127
2093
2056
2026
2010
1999
1980
1971
1968
1972
1976
1976
2011
2052
2052
2047
2061
2084
2115
2129
2121
2096
2069
2034
2031
2045
2052
2042
2055
2086
2095
2059
2010
1993
2009
2000
1989
2003
2027
2061
2080
2090
2093
2120
2129
2103
2057
2032
2016
2044
2117
2168
2166
2170
2184
2175
2134
2100
2081
2074
2077
2078
2057
2031
2024
2039
2058
2064
2083
2101
2094
2110
2160
2201
2181
2113
2068
2043
2041
2083
2130
2183
2203
2177
2139
2125
2117
2106
2123
2172
2205
2197
2175
2185
2161
2127
2106
2103
2128
2141
2156
2150
2151
2157
2147
2132
2110
2089
2080
2069
2085
2110
2119
2119
2123
2132
2166
2197
2207
2234
2287
2310
2287
2250
2218
2188
2160
2156
2156
2151
2151
2170
2171
2171
2179
2192
2207
2226
2262
2299
2321
2322
2307
2262
2220
2202
2204
2223
2257
2233
2202
2206
2216
2240
2248
2252
2262
2279
2270
2240
2247
2253
2232
2226
2212
2199
2200
2221
2256
2319
2372
2386
2355
2308
2232
2161
2141
2190
2230
2234
2237
2215
2170
2142
2159
2180
2175
2173
2170
2161
2151
2139
2113
2083
2080
2079
2084
2086
2088
2089
2110
2105
2071
2048
2067
2078
2073
2089
2111
2114
2073
2016
1998
2020
2050
2066
2076
2085
2084
2063
2026
2002
2009
2034
2025
2021
2035
2056
2042
2034
2033
2030
2019
2018
2035
2064
2067
2042
2067
2109
2133
2133
2110
2099
2093
2049
2014
2010
2014
2014
2011
2014
2009
1984
1933
1906
1947
2002
2063
2083
2078
2070
2054
2037
2039
2052
2039
2032
2038
2062
2095
2110
2116
2109
2082
2065
2069
2069
2070
2086
2119
2135
2109
2078
2054
2040
2063
2106
2134
2125
2093
2051
2035
2048
2060
2060
2063
2058
2080
2087
2074
2085
2105
2103
2098
2105
2120
2123
2107
2106
2099
2066
2026
2015
2042
2049
2055
2073
2088
2104
2102
2080
2062
2075
2085
2101
2119
2119
2118
2084
2030
1998
1990
1983
1973
2001
2070
2134
2184
2161
2089
2049
2064
2129
2178
2172
2126
2103
2100
2057
2020
2003
1985
2015
2082
2130
2120
2087
2066
2054
2056
2043
2041
2080
2127
2135
2126
2102
2093
2088
2069
2049
2028
2023
2031
2062
2089
2082
2079
2114
2119
2103
2105
2097
2076
2063
2082
2122
2149
2142
2117
2071
2044
2052
2089
2110
2083
2046
2038
2062
2087
2099
2100
2102
2106
2111
2123
2136
2131
2107
2065
2028
2034
2069
2122
2123
2068
2013
2016
2038
2040
2016
2011
2034
2067
2086
2090
2094
2085
2055
2025
2021
2007
1975
1971
2008
2038
2052
2042
2028
2044
2084
2117
2108
2084
2055
2029
2007
1999
2000
2021
2052
2067
2069
2063
2045
2028
2013
1994
1992
2016
2046
2032
2013
2026
2049
2066
2061
2046
2028
2027
2050
2080
2067
2029
1997
1962
1915
1901
1884
1859
1902
1964
2009
2016
2035
2061
2074
2061
2032
2035
2062
2096
2136
2184
2230
2284
2340
2374
2386
2428
2503
2569
2612
2622
2626
2635
2635
2638
2646
2623
2573
2514
2484
2463
2427
2386
2319
2233
2129
2036
1992
1987
1967
1932
1896
1838
1789
1752
1750
1751
1743
1754
1792
1849
1885
1877
1855
1849
1864
1883
1876
1856
1875
1876
1871
1889
1935
1992
2026
2044
2065
2094
2099
2082
2060
2060
2069
2075
2075
2094
2116
2089
2046
2051
2070
2078
2074
2063
2053
2054
2064
2082
2078
2053
2021
2027
2071
2055
1993
1995
2034
2063
2081
2095
2088
2063
2048
2070
2088
2103
2113
2143
2162
2155
2136
2141
2145
2142
2149
2138
2132
2095
2052
2033
2019
2031
2070
2123
2165
2157
2139
2130
2094
2054
2035
2012
2018
2055
2118
2162
2179
2167
2148
2139
2153
2151
2125
2087
2050
2025
2045
2090
2114
2122
2092
2048
2019
2014
2027
2056
2079
2069
2062
2083
2103
2117
2121
2102
2092
2119
2106
2057
2012
2003
2049
2129
2214
2256
2267
2249
2225
2179
2158
2156
2171
2161
2159
2181
2194
2185
2182
2178
2162
2138
2154
2167
2176
2198
2203
2196
2184
2187
2196
2207
2217
2233
2242
2228
2208
2173
2152
2158
2168
2156
2168
2203
2216
2200
2159
2160
2198
2215
2229
2239
2264
2283
2257
2215
2166
2160
2181
2188
2205
2202
2196
2200
2176
2116
2113
2165
2190
2195
2208
2194
2180
2166
2148
2164
2171
2129
2066
2043
2059
2062
2071
2080
2060
2049
2060
2067
2066
2045
2043
2060
2058
2022
1984
1961
1967
1981
1987
1988
1977
1984
2004
2014
2011
1982
1970
1962
1926
1897
1921
1994
2038
2029
2011
1991
1972
1956
1939
1934
1930
1940
1963
1968
1970
1971
1975
1985
1987
1981
1950
1928
1898
1887
1878
1898
1927
1932
1906
1858
1815
1821
1876
1969
2052
2094
2088
2052
2001
1965
1956
1944
1943
1936
1913
1895
1900
1923
1932
1934
1958
2003
2064
2097
2090
2065
2029
1980
1943
1927
1925
1941
1974
2015
2011
2005
2016
2035
2027
2006
1982
1961
1966
1984
1993
1999
1993
2001
2004
2007
1995
1968
1963
1964
1934
1901
1900
1924
1950
1950
1962
1979
1975
1928
1905
1919
1967
2036
2078
2080
2060
2052
2045
2021
2013
2017
2002
1976
1987
2033
2055
2040
2008
2010
2054
2088
2084
2084
2069
2073
2089
2073
2041
2033
2043
2027
1977
1938
1955
2017
2069
2071
2043
1987
1949
1938
1958
1978
2002
2025
2029
2006
1965
1949
1974
2019
2043
2010
2000
2013
2024
2016
2011
2010
2020
2026
2011
1998
1987
1992
2003
2001
2039
2092
2088
2068
2052
2034
2035
2039
2036
2032
2056
2074
2049
2019
1992
2001
2022
2068
2157
2212
2183
2094
2037
2044
2059
2068
2068
2067
2037
1999
1996
2045
2095
2096
2085
2088
2114
2113
2091
2072
2054
2034
2045
2059
2089
2117
2107
2095
2063
2025
2010
2006
2038
2093
2102
2091
2085
2081
2068
2034
2009
2018
2040
2077
2114
2117
2096
2054
1997
1951
1931
1926
1927
1951
1982
1987
1991
2009
2035
2040
2045
2071
2097
2117
2101
2069
2057
2067
2065
2048
2015
2010
2021
2018
1993
1952
1912
1868
1850
1870
1889
1910
1930
1920
1892
1872
1888
1891
1865
1872
1917
1930
1913
1891
1857
1828
1838
1865
1866
1878
1876
1873
1870
1889
1924
1963
1991
2010
2061
2139
2224
2288
2338
2366
2390
2416
2447
2493
2524
2539
2558
2547
2537
2555
2569
2547
2495
2435
2363
2279
2202
2150
2124
2085
2025
1954
1880
1829
1800
1772
1755
1728
1695
1674
1653
1635
1642
1673
1702
1693
1654
1618
1622
1668
1717
1765
1807
1831
1844
1875
1887
1878
1860
1845
1864
1907
1948
1969
1978
1977
1988
2000
1989
1982
1986
1983
1962
1965
1974
1974
1977
1987
1973
1946
1947
1936
1923
1961
2001
1987
1938
1899
1906
1949
2005
2017
2012
2006
1983
1969
1993
2015
2032
2025
2016
2019
2039
2080
2116
2111
2097
2118
2130
2107
2067
2038
2062
2097
2100
2073
2039
2029
2038
2033
2001
1984
1980
1997
2033
2051
2063
2054
2048
2073
2099
2107
2107
2080
2051
2023
2006
2022
2063
2082
2094
2110
2112
2130
2151
2146
2120
2104
2115
2134
2128
2136
2126
2110
2097
2120
2160
2182
2171
2157
2142
2133
2144
2140
2130
2130
2128
2129
2130
2139
2176
2199
2190
2204
2201
2199
2198
2197
2214
2247
2265
2247
2232
2233
2231
2233
2229
2232
2241
2265
2302
2330
2319
2290
2294
2305
2304
2303
2320
2323
2295
2259
2229
2215
2232
2272
2291
2274
2276
2300
2306
2290
2260
2261
2299
2353
2348
2328
2321
2299
2271
2238
2230
2242
2232
2247
2249
2253
2264
2279
2306
2319
2306
2290
2278
2276
2285
2269
2209
2162
2172
2200
2223
2221
2201
2199
2220
2235
2206
2128
2067
2064
2085
2099
2088
2080
2101
2113
2096
2074
2079
2102
2134
2131
2108
2065
2033
2005
1997
2010
2023
2036
2016
1962
1956
1978
1993
1994
2006
2001
2000
2019
2036
2061
2088
2067
2002
1957
1970
1995
2008
2020
2017
2004
2018
2031
2043
2081
2120
2119
2087
2072
2057
2028
2001
2013
2057
2085
2087
2065
2057
2058
2060
2046
2031
2015
1994
1979
1979
1992
2001
2003
2009
2025
2047
2043
2031
2022
2017
2018
2008
2028
2051
2058
2016
1969
1983
2028
2054
2048
2023
1990
1968
1962
1969
1989
2001
2002
2015
2029
2035
2021
1998
2028
2062
2080
2066
2029
1999
2009
2053
2090
2080
2050
2032
2034
2021
2017
2021
2017
2053
2134
2147
2117
2084
2054
2047
2048
2045
2066
2096
2113
2114
2126
2127
2113
2091
2062
2046
2034
2027
2039
2044
2068
2109
2119
2100
2079
2073
2075
2077
2089
2118
2108
2064
2056
2078
2094
2067
2029
2016
2010
2006
2034
2056
2061
2048
2039
2052
2071
2083
2107
2125
2106
2076
2062
2069
2076
2061
2032
2001
1987
1975
1974
2017
2103
2121
2109
2147
2196
2231
2234
2215
2191
2177
2172
2179
2159
2146
2190
2236
2238
2218
2185
2151
2129
2148
2160
2182
2196
2176
2130
2107
2105
2141
2194
2225
2246
2256
2244
2254
2263
2250
2219
2175
2160
2181
2181
2153
2130
2188
2295
2366
2358
2265
2175
2145
2160
2182
2188
2186
2162
2157
2185
2199
2217
2249
2261
2238
2215
2196
2179
2145
2107
2080
2085
2105
2130
2152
2155
2155
2163
2190
2224
2223
2204
2191
2170
2140
2104
2078
2073
2071
2069
2071
2094
2148
2169
2174
2187
2201
2212
2190
2150
2133
2137
2154
2164
2159
2133
2138
2181
2206
2212
2209
2191
2173
2169
2175
2164
2137
2121
2122
2140
2171
2150
2109
2116
2136
2143
2134
2122
2105
2107
2127
2137
2129
2125
2103
2100
2133
2158
2200
2238
2251
2203
2159
2186
2274
2392
2478
2548
2597
2634
2672
2718
2760
2799
2822
2840
2835
2816
2784
2758
2707
2628
2566
2527
2492
2436
2386
2376
2361
2310
2234
2155
2073
1993
1923
1863
1844
1860
1864
1860
1885
1919
1949
1981
2026
2034
1995
1946
1911
1873
1877
1946
2038
2104
2126
2115
2106
2107
2117
2114
2112
2117
2134
2168
2185
2185
2157
2134
2110
2081
2058
2041
2060
2098
2115
2127
2140
2147
2127
2090
2068
2074
2087
2092
2071
2069
2090
2109
2112
2128
2148
2166
2179
2173
2155
2133
2120
2116
2133
2137
2122
2139
2139
2158
2166
2153
2149
2157
2174
2157
2108
2096
2111
2127
2123
2099
2081
2104
2120
2138
2140
2132
2131
2122
2094
2079
2084
2081
2085
2143
2193
2181
2161
2134
2099
2084
2111
2145
2147
2139
2150
2171
2191
2207
2198
2161
2162
2204
2236
2258
2279
2287
2258
2223
2211
2199
2206
2234
2270
2281
2278
2285
2282
2290
2284
2274
2261
2262
2281
2279
2238
2170
2167
2208
2239
2275
2314
2334
2325
2301
2267
2252
2249
2235
2228
2250
2300
2348
2340
2323
2313
2272
2274
2295
2317
2332
2328
2323
2327
2337
2347
2353
2360
2358
2376
2392
2395
2380
2364
2367
2390
2403
2401
2384
2363
2347
2332
2348
2360
2353
2369
2374
2366
2366
2365
2348
2335
2306
2281
2285
2312
2352
2386
2400
2383
2356
2340
2320
2302
2286
2286
2266
2230
2209
2204
2214
2227
2224
2197
2164
2153
2149
2145
2133
2128
2147
2159
2178
2207
2225
2189
2133
2071
2040
2059
2088
2108
2122
2120
2110
2114
2133
2170
2209
2208
2185
2168
2149
2127
2125
2125
2141
2156
2131
2085
2070
2068
2052
2051
2061
2053
2044
2060
2089
2089
2083
2083
2079
2085
2099
2093
2078
2057
2071
2097
2090
2093
2102
2104
2081
2045
2000
1971
1964
1979
2002
2050
2099
2102
2087
2067
2051
2023
1992
1983
1982
1973
1964
1987
2010
2027
2049
2059
2048
2041
2059
2067
2055
2050
2050
2063
2080
2055
2015
1990
1976
1982
1993
2016
2038
2043
2010
1990
1993
1987
1964
1949
1951
1971
2001
2025
2042
2046
2011
1991
2001
2032
2069
2063
2043
2024
2017
2015
2020
2028
2024
2027
2032
2006
1964
1971
1978
1969
2005
2057
2043
2011
1988
1971
1971
1995
2013
1985
1939
1927
1960
1969
1976
2011
2033
2049
2065
2055
2031
2022
2016
2014
2033
2076
2102
2086
2046
2037
2035
2003
1987
1998
2019
2044
2041
2030
2031
2042
2068
2098
2118
2123
2100
2068
2060
2080
2084
2076
2070
2067
2052
2024
1999
1976
1988
2016
2036
2037
2029
2023
2032
2045
2064
2048
2034
2032
2029
2000
1953
1934
1960
1998
2058
2127
2145
2135
2133
2118
2091
2050
2020
1997
1988
2008
2058
2101
2121
2113
2108
2106
2100
2073
2042
2042
2047
2031
2015
2003
1997
2005
2017
2014
1994
1978
1989
2014
2029
2023
2026
2041
2040
2004
1976
2007
2047
2056
2033
2019
2016
2020
2013
1998
2009
2039
2066
2042
1998
1969
1960
1957
1972
1966
1940
1911
1912
1947
1962
1961
1981
2009
2027
2037
2049
2041
2024
2014
2001
1982
1974
1998
2031
2060
2060
2020
1996
2012
2034
2045
2030
2031
2025
2008
2006
2013
2015
2012
2003
2013
2009
1980
1989
2023
2080
2136
2204
2294
2366
2403
2417
2419
2424
2448
2502
2553
2575
2588
2631
2688
2727
2759
2735
2682
2648
2614
2581
2523
2447
2375
2317
2273
2202
2125
2057
2004
1951
1894
1848
1826
1835
1849
1839
1807
1812
1828
1851
1881
1902
1907
1920
1922
1923
1924
1931
1944
1962
1977
1986
1976
1953
1948
1973
2002
2004
2016
2013
2019
2026
2015
2009
2013
2024
2049
2057
2057
2060
2077
2082
2041
1973
1941
1939
1954
1949
1931
1955
2018
2065
2089
2099
2100
2092
2058
2011
2015
2046
2069
2074
2052
2055
2068
2067
2053
2053
2069
2069
2044
2004
1975
1957
1971
2008
2040
2057
2065
2062
2061
2054
2040
2050
2080
2058
2029
2026
2042
2048
2058
2055
2038
2048
2066
2089
2090
2077
2074
2090
2101
2122
2110
2056
2049
2088
2099
2051
1991
1992
2043
2085
2111
2129
2115
2103
2117
2106
2081
2062
2056
2056
2057
2044
2024
2022
2037
2053
2054
2049
2048
2073
2070
2055
2032
2011
2030
2082
2121
2142
2150
2159
2175
2171
2149
2130
2123
2130
2142
2126
2107
2097
2089
2092
2091
2103
2130
2136
2110
2092
2113
2136
2145
2127
2109
2122
2137
2148
2159
2168
2183
2187
2163
2139
2130
2133
2149
2171
2179
2178
2157
2125
2105
2107
2125
2159
2188
2213
2237
2235
2200
2160
2137
2112
2101
2099
2106
2098
2111
2135
2155
2176
2165
2161
2168
2141
2092
2057
2038
2026
2007
1995
1987
1969
1958
1959
1979
1993
2021
2050
2043
1993
1958
1967
1990
1990
1966
1952
1939
1934
1927
1892
1860
1883
1919
1947
1959
1945
1925
1919
1937
1952
1962
1970
1969
1968
1954
1938
1921
1905
1923
1949
1951
1947
1945
1940
1928
1938
1937
1912
1918
1949
1973
1982
1975
1977
1976
1958
1923
1904
1894
1900
1926
1943
1929
1919
1931
1986
2041
2068
2074
2094
2113
2120
2125
2139
2146
2123
2111
2120
2137
2138
2116
2123
2160
2194
2212
2199
2155
2125
2124
2119
2118
2120
2139
2178
2214
2191
2143
2122
2113
2114
2108
2108
2125
2123
2093
2095
2116
2142
2200
2214
2172
2151
2163
2163
2179
2185
2184
2157
2130
2146
2155
2105
2056
2078
2136
2160
2128
2103
2068
2055
2092
2119
2121
2137
2150
2145
2151
2158
2153
2130
2124
2118
2108
2124
2107
2078
2080
2079
2061
2074
2088
2093
2073
2033
2021
2042
2073
2084
2066
2063
2064
2063
2086
2112
2132
2142
2151
2116
2082
2056
2027
2004
2012
2028
2051
2049
2017
1957
1925
1966
2014
1997
1965
1925
1868
1829
1834
1834
1840
1841
1828
1799
1762
1721
1700
1693
1690
1696
1697
1698
1734
1777
1760
1734
1734
1733
1719
1705
1686
1706
1744
1789
1830
1812
1764
1734
1704
1686
1681
1672
1654
1644
1656
1679
1703
1735
1762
1766
1764
1750
1724
1696
1700
1684
1680
1696
1696
1678
1666
1665
1648
1625
1591
1591
1626
1652
1683
1695
1719
1744
1751
1743
1714
1692
1667
1653
1651
1640
1644
1653
1650
1620
1578
1586
1638
1699
1714
1698
1668
1640
1620
1598
1571
1556
1562
1572
1590
1600
1636
1638
1618
1613
1608
1602
1590
1575
1523
1461
1431
1417
1399
1413
1472
1520
1538
1564
1600
1611
1606
1602
1612
1607
1579
1579
1588
1574
1571
1566
1577
1600
1596
1577
1547
1509
1476
1478
1511
1556
1581
1602
1602
1615
1634
1638
1630
1618
1597
1592
1601
1578
1578
1595
1581
1547
1511
1484
1489
1498
1500
1516
1543
1561
1595
1649
1706
1750
1762
1776
1792
1816
1853
1891
1939
2000
2076
2146
2216
2296
2359
2387
2391
2412
2410
2397
2367
2330
2273
2184
2113
2058
1966
1884
1828
1787
1760
1716
1638
1564
1495
1422
1369
1321
1305
1300
1297
1339
1412
1458
1449
1463
1482
1494
1486
1471
1487
1523
1558
1578
1610
1679
1755
1803
1816
1798
1750
1710
1675
1681
1713
1739
1753
1773
1790
1796
1798
1784
1782
1783
1775
1797
1841
1845
1840
1827
1809
1800
1802
1829
1833
1848
1872
1886
1892
1886
1879
1876
1853
1825
1834
1865
1907
1922
1912
1892
1863
1851
1854
1880
1922
1958
1972
1960
1967
1987
1990
1974
1993
2005
2007
2021
2031
2057
2041
2012
2002
2016
2029
2008
2009
2019
2043
2057
2027
1987
1972
1983
2003
2024
2039
2064
2099
2107
2071
2027
2032
2067
2085
2087
2111
2147
2158
2129
2076
2027
1988
1991
2023
2061
2110
2126
2081
2019
2021
2054
2090
2104
2101
2102
2123
2151
2137
2124
2141
2168
2193
2209
2209
2188
2144
2142
2174
2187
2183
2207
2240
2273
2292
2289
2274
2246
2222
2223
2211
2200
2223
2255
2287
2309
2333
2350
2350
2362
2378
2378
2353
2314
2318
2336
2363
2360
2354
2362
2380
2409
2432
2438
2426
2403
2417
2449
2474
2484
2477
2459
2450
2424
2385
2328
2287
2294
2318
2353
2362
2340
2346
2351
2328
2310
2315
2321
2337
2351
2343
2331
2315
2305
2300
2311
2317
2295
2252
2230
2227
2258
2255
2217
2187
2170
2129
2087
2098
2125
2157
2194
2233
2269
2248
2207
2191
2183
2160
2128
2116
2133
2164
2190
2182
2163
2137
2116
2104
2080
2081
2084
2095
2099
2110
2145
2160
2125
2070
2037
2057
2064
2079
2096
2090
2080
2078
2080
2069
2049
2069
2111
2111
2095
2073
2038
2011
2012
2029
2072
2091
2076
2086
2087
2084
2065
2081
2143
2204
2215
2179
2129
2091
2087
2107
2131
2153
2173
2183
2158
2101
2070
2074
2096
2113
2107
2107
2120
2147
2173
2173
2173
2197
2205
2180
2190
2206
2222
2209
2183
2146
2142
2167
2186
2171
2139
2115
2110
2112
2108
2123
2159
2206
2230
2216
2196
2199
2213
2199
2163
2168
2197
2207
2220
2245
2258
2238
2217
2197
2181
2187
2210
2195
2162
2198
2270
2336
2343
2314
2284
2242
2216
2231
2256
2271
2307
2292
2227
2206
2252
2313
2329
2334
2340
2338
2331
2313
2308
2323
2313
2287
2268
2255
2237
2198
2164
2181
2206
2233
2261
2272
2269
2254
2225
2218
2248
2265
2265
2282
2305
2293
2277
2278
2264
2225
2201
2206
2221
2251
2295
2334
2319
2291
2284
2306
2348
2369
2353
2325
2343
2361
2357
2323
2272
2236
2218
2221
2219
2228
2242
2291
2327
2337
2357
2390
2415
2389
2340
2327
2356
2395
2414
2416
2393
2362
2372
2383
2361
2326
2313
2277
2240
2231
2233
2237
2248
2266
2269
2260
2269
2284
2303
2318
2305
2289
2275
2255
2230
2231
2253
2277
2286
2275
2266
2252
2241
2242
2235
2206
2144
2106
2144
2220
2281
2311
2287
2239
2221
2216
2199
2182
2184
2182
2188
2215
2242
2257
2245
2250
2251
2228
2191
2168
2180
2202
2214
2207
2197
2177
2182
2180
2167
2187
2233
2257
2263
2236
2207
2181
2143
2109
2130
2173
2196
2205
2201
2207
2219
2211
2182
2157
2191
2250
2246
2213
2180
2162
2162
2177
2179
2178
2184
2196
2210
2241
2265
2282
2305
2341
2396
2476
2532
2572
2617
2668
2712
2737
2748
2759
2778
2784
2759
2742
2739
2726
2682
2628
2588
2549
2524
2515
2479
2423
2355
2253
2144
2053
1987
1949
1902
1850
1820
1812
1835
1859
1888
1922
1933
1944
1969
1966
1976
1989
1974
1943
1939
1965
2025
2115
2162
2182
2207
2191
2156
2127
2139
2164
2171
2176
2136
2082
2078
2121
2163
2181
2155
2121
2126
2171
2233
2256
2236
2211
2192
2183
2174
2165
2152
2153
2191
2234
2253
2252
2232
2242
2278
2299
2299
2267
2247
2261
2280
2295
2314
2322
2318
2310
2297
2269
2231
2191
2168
2180
2219
2257
2263
2252
2252
2258
2268
2283
2270
2250
2268
2277
2280
2297
2313
2326
2322
2284
2246
2235
2270
2288
2266
2208
2153
2125
2159
2211
2234
2247
2231
2214
2184
2163
2176
2198
2233
2276
2315
2320
2311
2285
2243
2200
2176
2190
2173
2152
2185
2239
2264
2232
2201
2196
2208
2255
2293
2290
2255
2233
2248
2262
2267
2250
2244
2265
2295
2331
2334
2307
2291
2276
2267
2276
2258
2266
2310
2331
2330
2326
2330
2313
2306
2315
2310
2303
2296
2301
2339
2374
2349
2314
2329
2380
2405
2381
2335
2278
2272
2303
2346
2371
2383
2401
2369
2325
2293
2287
2294
2299
2327
2333
2311
2315
2327
2328
2304
2283
2298
2340
2367
2366
2348
2296
2273
2294
2300
2285
2280
2270
2251
2254
2266
2267
2259
2237
2188
2180
2193
2216
2225
2225
2209
2191
2169
2143
2110
2089
2064
2047
2028
2011
2019
2031
2044
2080
2124
2136
2136
2142
2118
2072
2027
2019
2014
2010
1998
1999
2003
2000
2003
2015
2010
1995
1995
2016
2028
2022
2006
1986
1952
1949
1978
2021
2059
2057
2018
1981
1958
1958
1967
1962
1964
1974
1994
2012
2028
2055
2077
2080
2071
2078
2086
2058
2007
1974
1988
2039
2068
2032
1987
1965
1975
1995
1964
1944
1958
1972
1955
1938
1973
1980
2007
2040
2050
2058
2085
2115
2116
2071
2014
1968
1930
1900
1910
1954
1979
1987
2015
2078
2130
2104
2030
1968
1942
1965
2019
2079
2089
2065
2032
2000
1997
1992
1946
1926
1973
2044
2087
2072
2064
2090
2090
2095
2110
2124
2133
2117
2099
2076
2042
2012
1996
1994
2003
1996
1992
2020
2069
2098
2071
2038
2028
2010
1989
1996
2004
2030
2053
2049
2035
2035
2026
2005
1987
1977
1965
1953
1971
2002
2025
2051
2076
2101
2086
2031
1970
1960
1988
2019
2028
2017
1996
1983
2027
2092
2075
2020
1983
1972
2001
2025
2051
2063
2064
2073
2070
2059
2048
2037
2025
2008
2002
2016
2036
2024
2007
2021
2060
2101
2126
2106
2044
2001
2011
2043
2052
2035
2039
2056
2090
2133
2139
2123
2101
2086
2101
2097
2084
2083
2091
2083
2045
2003
2010
2057
2099
2114
2124
2133
2133
2122
2085
2060
2043
2019
1993
1965
1959
1972
1985
2013
2039
2027
1987
1969
1986
1984
1968
1962
1974
1976
1952
1937
1958
1982
1989
1964
1935
1921
1921
1952
1966
1963
1964
1950
1944
1942
1925
1922
1923
1919
1917
1903
1871
1866
1893
1906
1907
1914
1966
2038
2049
1992
1933
1903
1917
1951
1952
1933
1925
1914
1902
1915
1934
1970
1982
1964
1943
1943
1937
1931
1909
1892
1916
1938
1936
1895
1845
1810
1806
1812
1829
1883
1974
2054
2127
2230
2309
2358
2398
2445
2476
2501
2528
2542
2539
2526
2511
2520
2531
2566
2604
2586
2524
2423
2305
2234
2223
2220
2210
2188
2134
2037
1896
1788
1736
1709
1677
1646
1618
1633
1679
1703
1710
1728
1764
1794
1818
1837
1832
1823
1830
1806
1779
1795
1832
1848
1830
1814
1830
1856
1869
1869
1889
1922
1955
1952
1939
1937
1925
1924
1948
1986
1986
1955
1933
1920
1907
1892
1891
1901
1900
1895
1907
1916
1933
1928
1930
1941
1949
1944
1943
1943
1970
1984
1968
1942
1924
1923
1940
1945
1937
1953
2004
2041
2014
1966
1930
1916
1930
1959
1994
2015
2036
2048
2019
1975
1947
1967
1942
1937
1953
1971
1988
2006
2016
2036
2057
2065
2063
2027
1940
1893
1931
1971
1995
2009
1994
1976
1978
1979
1988
2008
2020
2030
2033
2038
2027
2009
2029
2047
2040
2030
2024
2030
2040
2037
2030
2013
1999
2012
2015
1991
1983
1996
2018
2057
2072
2061
2085
2116
2136
2132
2114
2076
2059
2068
2073
2079
2078
2093
2131
2164
2123
2100
2106
2127
2123
2108
2106
2122
2138
2140
2146
2138
2132
2132
2146
2160
2164
2156
2175
2217
2234
2220
2212
2198
2179
2157
2143
2141
2152
2179
2199
2195
2190
2185
2192
2171
2152
2149
2172
2210
2245
2245
2245
2252
2239
2222
2196
2157
2120
2118
2103
2085
2100
2144
2172
2170
2187
2197
2177
2149
2114
2081
2047
2039
2064
2092
2110
2110
2128
2135
2103
2086
2111
2141
2127
2078
2003
1955
1938
1940
1968
1992
1998
1985
1972
1970
1983
2016
2048
2055
2027
1968
1941
1927
1939
1970
1999
2024
2001
1966
1950
1930
1919
1926
1928
1918
1912
1928
1949
1975
1969
1947
1917
1882
1868
1889
1919
1923
1914
1909
1937
1962
1963
1972
1991
1985
1977
1943
1934
1952
1941
1945
1937
1944
1969
1982
1956
1921
1936
1912
1886
1911
1962
1958
1924
1886
1864
1882
1922
1958
1987
2000
1982
1948
1927
1934
1956
1954
1950
1944
1929
1925
1935
1953
1944
1929
1930
1956
1990
2001
1983
1958
1951
1980
2007
2016
2012
1991
1972
1985
1996
2007
1996
1977
1951
1917
1902
1939
1973
1964
1945
1960
1984
1993
1987
1990
1996
2010
1992
1968
1966
1961
1945
1947
1967
1980
1988
1984
1985
2008
2012
1978
1934
1899
1894
1920
1951
1979
1994
1964
1913
1907
1947
1985
1981
1947
1947
1979
1986
1983
1988
2011
2039
2036
2011
2028
2051
2046
2016
1996
1963
1938
1945
1952
1959
1975
1995
2036
2071
2039
1989
1937
1912
1930
1948
1950
1972
1980
1968
1969
1960
1987
2016
2036
2048
2052
2049
2032
2016
2004
1973
1948
1938
1951
1953
1960
1970
1958
1955
1964
1980
2032
2108
2181
2217
2196
2124
2039
1996
1986
2005
2052
2095
2137
2168
2168
2133
2081
2056
2062
2067
2055
2049
2039
2045
2039
2027
2020
2058
2113
2121
2109
2089
2063
2042
2029
2022
2031
2039
2044
2038
2020
1996
1985
1984
1984
2001
2020
2035
2037
2045
2065
2078
2068
2038
2003
1986
1972
1963
1977
2014
2051
2083
2107
2119
2118
2114
2100
2086
2058
2031
2031
2067
2077
2044
2011
1954
1902
1915
1952
1989
2030
2062
2057
2047
2044
2038
2013
1981
1965
1961
1966
1972
2000
2041
2078
2105
2142
2192
2226
2240
2269
2349
2432
2487
2496
2505
2537
2582
2594
2595
2613
2631
2612
2590
2566
2516
2467
2426
2387
2338
2303
2272
2220
2131
2032
1910
1798
1735
1687
1632
1612
1646
1669
1692
1698
1689
1680
1678
1697
1725
1740
1741
1769
1785
1795
1824
1870
1904
1904
1907
1902
1890
1881
1864
1833
1813
1836
1864
1869
1872
1880
1905
1951
1982
1952
1906
1849
1805
1835
1889
1908
1894
1881
1881
1873
1865
1864
1906
1967
1979
1954
1916
1886
1908
1952
1936
1900
1910
1949
1972
1961
1945
1933
1923
1939
1964
1961
1933
1913
1917
1925
1924
1922
1922
1929
1955
2008
2045
2044
2016
1984
1951
1935
1948
1975
1969
1941
1934
1958
1996
2022
2034
2033
2021
2014
2012
2006
2008
1996
1960
1948
1984
2021
2007
1996
2029
2066
2105
2112
2107
2115
2089
2060
2026
2011
2024
2056
2088
2091
2089
2100
2105
2091
2056
2013
1998
2036
2078
2103
2105
2096
2078
2091
2131
2160
2175
2158
2137
2104
2057
2055
2090
2115
2108
2115
2129
2125
2116
2102
2096
2104
2131
2155
2182
2211
2228
2233
2221
2193
2170
2189
2223
2261
2302
2332
2311
2251
2194
2173
2182
2197
2237
2265
2298
2312
2282
2252
2229
2209
2192
2193
2194
2222
2270
2313
2313
2287
2259
2262
2273
2273
2241
2180
2115
2080
2089
2115
2136
2155
2162
2153
2124
2099
2084
2072
2090
2108
2096
2074
2051
2028
2045
2089
2107
2101
2103
2097
2079
2043
2006
1984
1983
1999
2008
1992
2003
2046
2044
2034
2013
1982
1952
1941
1936
1927
1915
1917
1922
1922
1895
1873
1876
1902
1955
2022
2059
2028
1999
1978
1949
1933
1932
1943
1951
1947
1948
1958
1949
1953
1956
1939
1911
1901
1924
1946
1955
1942
1923
1900
1922
1956
1952
1917
1892
1912
1942
1941
1919
1908
1899
1884
1902
1929
1927
1921
1936
1960
1990
2008
1998
1969
1945
1955
1981
1973
1964
1979
1998
2005
1992
1966
1942
1931
1900
1838
1832
1851
1887
1932
1959
1949
1942
1948
1954
1955
1957
1945
1931
1924
1916
1902
1887
1895
1911
1917
1913
1901
1902
1917
1929
1932
1918
1907
1911
1932
1944
1933
1901
1896
1884
1859
1853
1849
1827
1802
1806
1819
1830
1849
1880
1910
1918
1916
1912
1934
1959
1973
1959
1922
1892
1888
1899
1891
1887
1888
1899
1924
1953
1978
1966
1933
1875
1831
1828
1861
1890
1898
1880
1874
1907
1920
1896
1878
1877
1872
1881
1899
1926
1960
1985
1989
1964
1943
1922
1924
1925
1938
1944
1937
1936
1931
1912
1910
1921
1940
1963
2006
2046
2026
2000
1995
1970
1964
1944
1949
1980
2002
2017
2036
2054
2054
2008
1938
1902
1896
1906
1921
1941
1937
1948
1948
1901
1854
1856
1891
1925
1943
1932
1889
1869
1875
1894
1912
1917
1907
1863
1844
1867
1921
1959
1958
1944
1956
1994
2017
2020
1999
1991
2027
2076
2072
2045
2038
2043
2056
2064
2068
2071
2084
2128
2099
2054
2070
2106
2133
2096
2045
2032
2032
2028
2037
2043
2085
2148
2188
2178
2152
2097
2056
2040
2002
1983
1986
2011
2050
2103
2146
2159
2144
2118
2110
2137
2211
2284
2323
2339
2368
2421
2473
2522
2561
2600
2643
2694
2744
2767
2767
2742
2710
2681
2642
2614
2589
2543
2471
2383
2292
2209
2150
2107
2093
2083
2047
2006
1991
1986
1963
1914
1859
1842
1858
1870
1884
1900
1916
1911
1883
1886
1903
1909
1934
1968
2004
2048
2073
2072
2062
2054
2051
2041
2041
2063
2087
2096
2061
1999
1979
2005
2024
2039
2049
2081
2127
2173
2187
2151
2120
2091
2046
2014
1989
1972
1986
2015
2046
2071
2086
2100
2109
2091
2053
1985
1936
1974
2019
2046
2064
2094
2125
2123
2116
2113
2098
2058
2010
1990
1999
2028
2057
2053
2059
2102
2129
2142
2146
2143
2153
2153
2158
2151
2126
2115
2141
2151
2148
2176
2211
2243
2298
2325
2323
2307
2285
2258
2231
2212
2209
2186
2175
2182
2209
2264
2305
2273
2215
2182
2180
2200
2228
2250
2270
2268
2300
2333
2334
2302
2283
2277
2276
2279
2290
2300
2296
2250
2200
2193
2229
2300
2350
2375
2391
2398
2401
2366
2332
2325
2296
2280
2297
2340
2377
2373
2348
2339
2361
2387
2409
2426
2422
2407
2387
2359
2345
2346
2311
2287
2324
2365
2360
2342
2328
2329
2352
2383
2410
2427
2404
2366
2335
2348
2359
2368
2384
2392
2380
2379
2379
2379
2382
2372
2366
2352
2307
2268
2283
2336
2407
2422
2404
2356
2274
2216
2207
2235
2261
2268
2273
2289
2283
2276
2261
2234
2217
2224
2212
2206
2223
2227
2179
2127
2113
2130
2149
2166
2176
2168
2131
2096
2064
2046
2027
2008
1985
1955
1934
1930
1969
2016
2071
2107
2135
2136
2115
2066
2027
2021
2046
2072
2088
2103
2092
2079
2079
2083
2107
2121
2129
2120
2079
2077
2113
2137
2128
2095
2060
2039
2038
2032
2013
1998
1998
1986
1961
1953
1975
1973
1943
1934
1950
1953
1939
1922
1916
1928
1914
1914
1945
1983
1974
1966
1979
1963
1932
1889
1862
1869
1876
1891
1890
1887
1900
1912
1915
1892
1862
1882
1913
1908
1882
1869
1859
1858
1879
1909
1930
1939
1929
1899
1868
1865
1879
1898
1903
1896
1883
1898
1909
1905
1892
1883
1872
1878
1898
1912
1895
1870
1860
1858
1832
1807
1828
1839
1831
1830
1831
1826
1845
1869
1857
1845
1855
1853
1851
1858
1873
1897
1877
1828
1814
1833
1875
1880
1866
1854
1862
1888
1915
1929
1903
1890
1883
1898
1932
1931
1922
1920
1904
1870
1875
1925
1981
2001
1982
1938
1905
1931
1952
1935
1905
1882
1889
1912
1943
1988
2016
1986
1966
1968
1964
1955
1965
1983
1971
1950
1925
1918
1945
1985
1987
1971
2002
2014
1991
1950
1894
1867
1901
1954
1988
1998
1985
1968
1969
1975
1984
1975
1968
1996
2029
2050
2064
2053
2028
1986
1945
1955
1993
2023
2016
1965
1922
1929
1939
1955
1984
1995
1996
1976
1958
1943
1922
1900
1878
1860
1877
1879
1871
1845
1810
1828
1883
1944
1962
1954
1945
1936
1930
1937
1948
1933
1904
1867
1841
1812
1785
1756
1741
1775
1831
1857
1861
1871
1891
1926
1920
1872
1834
1814
1812
1840
1916
1983
1994
1997
1989
2013
2083
2151
2173
2160
2196
2246
2296
2329
2343
2335
2305
2269
2252
2252
2233
2185
2132
2079
2062
2083
2098
2067
2010
1939
1852
1783
1736
1708
1696
1711
1745
1758
1747
1743
1718
1672
1654
1656
1684
1744
1805
1844
1888
1912
1900
1915
1933
1951
1953
1970
1969
1960
1951
1944
1937
1928
1938
2007
2102
2142
2109
2050
2004
1992
1987
1981
1969
1976
2002
2002
2010
2028
2053
2064
2064
2047
2049
2068
2089
2125
2145
2123
2093
2078
2076
2062
2069
2087
2076
2067
2066
2062
2047
2058
2082
2101
2116
2111
2113
2116
2136
2159
2145
2120
2117
2127
2139
2152
2131
2140
2197
2243
2240
2190
2118
2081
2091
2108
2115
2111
2121
2135
2141
2165
2206
2243
2239
2224
2222
2200
2196
2220
2241
2269
2289
2260
2245
2260
2295
2309
2322
2318
2298
2294
2328
2383
2398
2386
2379
2383
2391
2387
2374
2364
2371
2369
2368
2371
2378
2401
2408
2412
2406
2356
2333
2358
2402
2431
2440
2446
2474
2487
2482
2472
2446
2448
2457
2469
2521
2564
2574
2541
2521
2539
2572
2585
2589
2588
2561
2538
2569
2585
2576
2562
2535
2525
2551
2582
2567
2529
2481
2446
2439
2472
2523
2569
2578
2545
2533
2532
2557
2597
2610
2607
2583
2544
2509
2485
2478
2505
2524
2530
2557
2578
2571
2568
2585
2600
2608
2610
2591
2580
2577
2567
2533
2498
2503
2510
2479
2442
2417
2406
2411
2427
2428
2432
2411
2374
2370
2389
2419
2455
2477
2489
2511
2514
2527
2540
2525
2486
2448
2435
2454
2466
2440
2401
2378
2381
2399
2445
2502
2519
2489
2433
2387
2392
2412
2420
2426
2433
2429
2416
2408
2436
2480
2493
2456
2409
2385
2386
2404
2433
2440
2425
2406
2386
2390
2399
2406
2416
2437
2450
2449
2420
2401
2406
2406
2400
2389
2372
2358
2362
2383
2396
2394
2394
2380
2352
2315
2309
2321
2322
2330
2334
2326
2323
2343
2365
2341
2333
2344
2350
2335
2306
2280
2268
2253
2227
2207
2227
2283
2345
2386
2388
2361
2332
2308
2273
2247
2244
2254
2285
2305
2292
2279
2283
2268
2257
2248
2252
2284
2291
2249
2220
2210
2201
2213
2243
2262
2266
2255
2244
2201
2163
2128
2114
2109
2096
2078
2074
2089
2105
2091
2069
2071
2056
2043
2047
2066
2074
2093
2153
2193
2181
2131
2071
2056
2073
2084
2070
2049
2028
2043
2099
2152
2183
2197
2225
2245
2223
2181
2143
2127
2131
2131
2109
2092
2083
2063
2022
1995
2018
2058
2105
2137
2108
2065
2032
2021
2042
2037
2021
2024
2045
2088
2119
2130
2100
2024
1957
1936
1946
1973
1995
1980
1967
1965
1978
1985
1970
1973
2009
2042
2031
2007
1971
1963
2003
2049
2090
2099
2082
2067
2066
2067
2073
2061
2038
2009
1996
2007
2023
2016
1998
2007
2034
2019
2017
2027
2013
2004
2018
2047
2050
2048
2035
2009
1967
1939
1960
1990
2019
2035
2021
1991
1980
1997
2030
2071
2097
2117
2163
2205
2231
2259
2313
2369
2407
2447
2480
2500
2515
2536
2567
2600
2606
2565
2478
2387
2314
2265
2234
2214
2189
2147
2115
2071
2007
1919
1854
1817
1803
1812
1817
1811
1801
1807
1833
1844
1846
1878
1907
1919
1915
1909
1903
1883
1899
1954
2010
2033
2034
2021
2004
1978
1950
1930
1925
1949
1978
1992
1983
1965
1953
1942
1924
1907
1906
1962
2023
2028
2011
1990
1976
1967
1934
1890
1887
1904
1944
1987
2005
1995
1995
1995
2001
1995
1993
1952
1928
1947
1979
2018
2017
1995
2014
1992
1938
1899
1908
1947
2011
2062
2086
2095
2078
2054
2052
2043
2037
2036
2031
2031
2019
2000
1985
1998
2035
2056
2071
2062
2043
2040
2068
2117
2180
2230
2238
2233
2250
2251
2232
2224
2233
2263
2281
2296
2294
2302
2334
2362
2369
2383
2392
2396
2408
2396
2386
2400
2426
2454
2471
2462
2455
2439
2452
2439
2405
2397
2436
2500
2547
2543
2498
2437
2405
2411
2394
2372
2362
2368
2394
2391
2387
2411
2461
2489
2475
2453
2432
2428
2446
2459
2459
2440
2416
2398
2410
2420
2421
2415
2396
2382
2370
2369
2399
2432
2456
2477
2447
2410
2386
2368
2343
2348
2380
2402
2421
2435
2417
2391
2375
2374
2359
2350
2347
2350
2347
2321
2296
2280
2292
2313
2323
2323
2314
2312
2316
2342
2372
2343
2262
2218
2209
2179
2149
2137
2121
2108
2124
2144
2158
2161
2163
2167
2162
2139
2096
2090
2127
2154
2130
2092
2065
2048
2033
2033
2042
2055
2079
2083
2078
2065
2026
1972
1961
2002
2017
1994
1974
1973
1985
1998
1998
1976
1952
1930
1916
1915
1920
1921
1928
1932
1903
1859
1823
1833
1842
1826
1836
1877
1929
1951
1944
1923
1889
1894
1906
1903
1891
1870
1860
1850
1838
1836
1854
1875
1900
1918
1896
1884
1892
1891
1884
1870
1851
1824
1837
1880
1936
1933
1923
1903
1908
1929
1942
1946
1946
1963
1957
1919
1872
1884
1906
1928
1961
1990
1996
1972
1898
1809
1789
1839
1898
1924
1936
1931
1919
1933
1958
1962
1951
1929
1890
1875
1905
1927
1929
1942
1951
1952
1941
1917
1893
1894
1923
1934
1927
1932
1925
1899
1907
1901
1881
1869
1856
1842
1823
1833
1881
1911
1915
1949
1963
1956
1915
1934
1987
1975
1938
1913
1927
1960
1969
1957
1954
1971
1987
1993
2012
2049
2055
2034
2007
1969
1937
1927
1920
1914
1914
1905
1885
1892
1913
1933
1945
1937
1912
1882
1876
1892
1937
1976
1956
1906
1870
1885
1927
1955
1967
1976
1949
1893
1851
1833
1813
1794
1795
1809
1804
1806
1834
1858
1914
1955
1948
1934
1907
1872
1855
1856
1870
1891
1883
1851
1812
1801
1841
1908
1942
1965
1961
1934
1912
1903
1867
1837
1832
1841
1853
1861
1866
1882
1876
1859
1829
1814
1839
1881
1893
1888
1888
1882
1882
1860
1828
1809
1806
1831
1880
1930
1961
1976
2008
2056
2083
2082
2095
2122
2144
2160
2203
2269
2342
2399
2436
2458
2463
2465
2454
2407
2334
2262
2208
2169
2120
2070
2027
1990
1933
1840
1739
1646
1595
1574
1548
1532
1520
1503
1495
1485
1483
1494
1499
1499
1527
1573
1597
1608
1628
1629
1611
1594
1585
1577
1575
1579
1608
1628
1645
1666
1680
1668
1657
1659
1671
1694
1681
1641
1622
1614
1617
1637
1667
1673
1659
1650
1679
1716
1731
1711
1686
1653
1640
1630
1633
1631
1625
1625
1625
1649
1673
1665
1609
1553
1539
1545
1566
1587
1594
1615
1630
1625
1624
1642
1662
1670
1669
1669
1674
1666
1642
1616
1632
1682
1710
1700
1676
1661
1623
1580
1560
1564
1574
1595
1619
1650
1703
1741
1758
1756
1745
1716
1708
1725
1741
1739
1718
1710
1725
1743
1742
1720
1708
1703
1689
1678
1696
1740
1772
1737
1679
1624
1584
1555
1542
1562
1583
1591
1617
1627
1630
1628
1625
1621
1642
1684
1687
1658
1641
1640
1650
1642
1625
1644
1681
1687
1693
1724
1758
1733
1707
1713
1744
1744
1712
1681
1646
1607
1588
1582
1580
1602
1633
1669
1685
1685
1687
1689
1688
1668
1646
1632
1610
1610
1620
1662
1704
1710
1712
1708
1701
1695
1698
1701
1712
1716
1697
1696
1727
1748
1756
1739
1709
1691
1668
1669
1668
1654
1639
1637
1659
1652
1636
1638
1613
1603
1581
1573
1568
1570
1569
1573
1573
1566
1563
1572
1591
1591
1567
1547
1527
1511
1507
1505
1484
1450
1426
1424
1434
1451
1476
1508
1533
1551
1538
1505
1480
1481
1492
1498
1509
1506
1480
1481
1523
1541
1523
1501
1499
1554
1618
1652
1629
1565
1490
1467
1453
1451
1454
1464
1491
1525
1526
1486
1432
1391
1405
1470
1525
1553
1575
1610
1628
1623
1594
1581
1590
1606
1615
1614
1604
1610
1657
1692
1703
1713
1715
1710
1695
1701
1710
1716
1725
1735
1745
1760
1780
1768
1728
1704
1686
1667
1647
1636
1647
1651
1688
1750
1797
1784
1731
1672
1674
1708
1752
1767
1747
1710
1689
1686
1701
1742
1776
1789
1807
1814
1815
1803
1820
1845
1871
1862
1839
1804
1758
1721
1718
1750
1796
1801
1789
1777
1785
1807
1805
1793
1794
1809
1829
1835
1837
1831
1826
1817
1795
1786
1788
1787
1810
1820
1815
1822
1846
1890
1917
1885
1839
1819
1846
1888
1881
1862
1870
1870
1842
1828
1829
1826
1846
1872
1880
1872
1862
1842
1836
1849
1856
1876
1874
1860
1841
1820
1801
1779
1774
1786
1824
1864
1868
1850
1835
1838
1848
1830
1819
1816
1810
1824
1870
1910
1942
1966
1942
1887
1836
1808
1793
1825
1863
1885
1886
1878
1880
1901
1886
1870
1881
1911
1929
1948
1958
1930
1893
1881
1906
1924
1929
1944
1948
1952
1949
1946
1940
1932
1943
1967
1970
1951
1942
1957
1970
1968
1965
1962
1951
1926
1903
1870
1847
1850
1854
1854
1854
1884
1937
1989
2013
2041
2087
2144
2194
2240
2273
2311
2361
2436
2514
2564
2590
2592
2547
2532
2578
2614
2603
2597
2588
2562
2534
2508
2443
2354
2258
2167
2110
2072
2023
1955
1893
1838
1783
1733
1702
1685
1696
1707
1734
1767
1804
1848
1867
1844
1825
1817
1822
1852
1871
1881
1910
1951
1986
1992
1994
2014
2035
2037
2035
2026
2013
2014
2027
2046
2062
2072
2080
2097
2086
2034
1986
1994
2003
2031
2063
2056
2072
2103
2115
2115
2099
2080
2084
2076
2061
2064
2091
2139
2175
2163
2102
2048
2029
2038
2058
2069
2081
2088
2093
2094
2094
2098
2091
2089
2109
2145
2178
2183
2156
2135
2134
2136
2131
2110
2094
2067
2050
2053
2066
2082
2108
2147
2171
2191
2203
2198
2184
2177
2154
2143
2144
2139
2155
2195
2234
2233
2229
2253
2242
2202
2189
2192
2171
2141
2124
2099
2090
2114
2134
2128
2145
2183
2212
2223
2229
2219
2197
2205
2231
2257
2273
2250
2227
2242
2269
2246
2205
2180
2173
2205
2234
2266
2294
2305
2288
2251
2231
2225
2224
2232
2242
2249
2248
2248
2235
2245
2262
2288
2334
2380
2385
2369
2361
2348
2335
2307
2293
2310
2347
2390
2415
2409
2394
2407
2402
2373
2338
2302
2283
2282
2308
2336
2325
2302
2300
2310
2302
2304
2309
2272
2223
2226
2283
2350
2403
2393
2361
2326
2281
2282
2310
2312
2282
2280
2273
2266
2278
2262
2233
2204
2198
2215
2231
2242
2256
2267
2248
2204
2175
2164
2154
2108
2088
2117
2110
2093
2089
2103
2137
2193
2204
2176
2145
2131
2128
2143
2151
2129
2075
2018
1990
2022
2049
2034
2026
2020
2026
2054
2099
2105
2098
2102
2102
2077
2035
2005
1973
1947
1935
1941
1967
1980
1986
2023
2052
2046
2039
2045
2038
2020
1996
1986
2007
2045
2046
2024
2019
2006
1961
1937
1937
1961
1981
1993
2011
2016
1994
1979
1937
1907
1929
1981
2029
2027
2011
1994
1964
1936
1924
1957
1999
2006
2004
1982
1946
1929
1934
1949
1964
1988
2017
2016
1972
1937
1946
1989
2001
1992
1996
1994
1985
1967
1971
1987
1982
1986
2000
2009
2005
2006
2016
2024
2039
2026
1997
1981
1983
1963
1924
1922
1947
1947
1946
1948
1953
1954
1965
1991
2027
2050
2037
2039
2072
2107
2109
2096
2078
2053
2038
2020
2039
2066
2041
2000
1964
1952
1969
1992
2011
2034
2031
2057
2114
2172
2190
2186
2194
2179
2148
2109
2104
2132
2181
2210
2209
2218
2224
2216
2186
2161
2156
2155
2153
2150
2144
2115
2072
2028
1991
1983
2021
2081
2138
2173
2165
2139
2149
2191
2201
2172
2152
2156
2156
2165
2165
2144
2111
2065
2024
2018
2048
2068
2068
2083
2117
2151
2156
2131
2100
2115
2148
2171
2163
2156
2153
2122
2101
2096
2094
2118
2127
2106
2083
2091
2120
2147
2154
2142
2123
2115
2129
2133
2120
2119
2134
2147
2149
2141
2129
2115
2093
2078
2071
2091
2142
2196
2220
2242
2259
2272
2308
2364
2390
2406
2446
2498
2538
2581
2633
2673
2699
2731
2748
2755
2756
2767
2784
2766
2709
2624
2542
2461
2411
2383
2346
2289
2191
2094
2010
1950
1939
1935
1895
1866
1838
1810
1807
1837
1877
1912
1912
1941
2012
2085
2105
2068
2016
2003
2029
2076
2110
2110
2127
2176
2234
2273
2281
2243
2198
2197
2233
2275
2286
2231
2175
2196
2230
2235
2222
2198
2188
2213
2230
2240
2231
2190
2154
2144
2161
2182
2187
2188
2199
2227
2239
2241
2233
2235
2273
2290
2252
2219
2194
2193
2233
2285
2319
2322
2300
2261
2238
2231
2243
2238
2224
2252
2284
2304
2300
2297
2319
2328
2358
2373
2365
2362
2366
2379
2372
2343
2293
2246
2232
2266
2306
2334
2341
2338
2362
2377
2366
2355
2355
2374
2384
2363
2331
2303
2295
2306
2311
2296
2261
2224
2211
2262
2303
2332
2351
2342
2331
2326
2323
2326
2344
2372
2408
2416
2391
2366
2348
2353
2346
2320
2296
2276
2269
2264
2265
2272
2294
2316
2285
2250
2259
2305
2333
2315
2279
2240
2244
2278
2327
2335
2317
2332
2363
2375
2385
2373
2370
2391
2411
2446
2488
2504
2492
2479
2483
2493
2498
2492
2477
2469
2480
2490
2504
2510
2506
2525
2543
2535
2494
2467
2476
2510
2527
2505
2482
2496
2524
2538
2517
2515
2525
2558
2587
2584
2581
2607
2604
2600
2585
2552
2501
2472
2483
2495
2464
2415
2422
2442
2438
2432
2434
2424
2416
2411
2418
2422
2402
2393
2409
2427
2387
2351
2367
2392
2377
2355
2324
2290
2291
2297
2297
2308
2330
2374
2430
2451
2432
2400
2361
2330
2303
2264
2248
2244
2220
2205
2225
2259
2285
2291
2284
2271
2277
2274
2247
2237
2230
2198
2164
2154
2171
2189
2187
2176
2154
2125
2121
2145
2169
2204
2223
2211
2177
2168
2188
2190
2158
2132
2112
2107
2103
2104
2110
2099
2077
2083
2091
2089
2094
2128
2169
2187
2183
2168
2151
2136
2123
2111
2106
2125
2140
2124
2097
2066
2048
2040
2051
2070
2064
2060
2077
2064
2030
2011
2023
2037
2030
2023
2012
2008
2028
2062
2097
2094
2071
2044
2016
1998
2035
2088
2113
2102
2063
2037
2044
2042
2023
1998
1987
2001
2000
2002
1980
1950
1971
2023
2049
2023
1990
1969
1985
2039
2077
2104
2120
2092
2055
2011
1976
1976
2001
2030
2024
2013
2020
2038
2024
1983
1946
1937
1958
1983
2011
2017
2011
2019
1999
1961
1942
1942
1939
1924
1913
1914
1915
1923
1950
1953
1935
1917
1892
1883
1871
1858
1870
1903
1943
1918
1868
1834
1816
1811
1836
1859
1871
1866
1860
1862
1869
1862
1838
1829
1827
1822
1847
1878
1884
1833
1749
1712
1738
1783
1808
1783
1743
1714
1712
1716
1701
1697
1725
1764
1812
1813
1763
1727
1708
1679
1642
1647
1679
1712
1737
1771
1799
1795
1796
1789
1786
1766
1733
1694
1660
1631
1611
1631
1671
1702
1707
1706
1717
1733
1743
1770
1828
1898
1950
1970
1953
1954
1972
2000
2085
2196
2273
2307
2333
2337
2323
2327
2347
2361
2355
2326
2264
2196
2147
2083
2017
1969
1938
1887
1827
1784
1722
1636
1578
1549
1510
1479
1477
1509
1559
1611
1618
1610
1615
1616
1651
1685
1708
1688
1645
1640
1650
1637
1617
1642
1694
1749
1779
1779
1759
1760
1787
1800
1807
1803
1793
1779
1772
1750
1726
1713
1720
1742
1777
1817
1807
1767
1740
1754
1780
1805
1815
1818
1839
1849
1864
1857
1850
1868
1872
1852
1827
1814
1799
1777
1781
1766
1745
1765
1800
1808
1827
1839
1844
1846
1845
1853
1856
1870
1886
1897
1920
1919
1914
1892
1879
1891
1881
1859
1892
1935
1929
1895
1866
1846
1847
1868
1878
1868
1849
1836
1818
1799
1805
1849
1908
1961
1998
2023
1992
1942
1920
1918
1923
1905
1877
1867
1895
1927
1952
1952
1967
1981
1972
1952
1945
1939
1941
1937
1934
1984
2038
2062
2049
2016
1997
2010
2030
2030
2020
2008
2016
2019
2017
2030
2053
2064
2055
2064
2064
2044
2069
2119
2143
2136
2119
2099
2080
2038
2026
2057
2098
2104
2120
2153
2149
2135
2124
2106
2099
2091
2091
2105
2149
2177
2174
2184
2206
2201
2185
2169
2142
2110
2076
2079
2092
2078
2068
2073
2084
2087
2085
2084
2091
2103
2108
2126
2145
2153
2147
2144
2113
2040
1951
1897
1923
1991
2046
2054
2053
2072
2083
2078
2061
2028
1998
1991
2012
2045
2066
2071
2058
2020
1994
1997
1982
1947
1916
1917
1942
1967
1978
1978
1966
1946
1940
1944
1971
2006
2024
2013
1995
1992
2000
1996
1990
1970
1901
1846
1850
1867
1896
1945
1976
1993
2008
2020
2002
1971
1948
1929
1913
1913
1932
1955
1957
1958
1955
1939
1941
1975
2000
2004
2003
2003
2012
2015
2011
2002
2006
1999
1986
1995
2013
2019
2018
2019
2036
2045
2045
2047
2031
2006
1976
1951
1933
1944
1973
2015
2064
2095
2084
2066
2058
2035
2001
1986
1983
1989
2018
2040
2050
2054
2066
2049
2014
1997
2013
2017
2004
1996
1994
1994
1980
1972
1996
2015
2015
2009
2046
2104
2138
2139
2126
2117
2108
2108
2114
2097
2076
2061
2039
2030
2029
2050
2099
2137
2136
2098
2064
2063
2066
2060
2056
2079
2110
2134
2144
2139
2137
2134
2131
2137
2143
2149
2157
2160
2142
2103
2074
2062
2081
2114
2113
2081
2073
2073
2078
2087
2075
2065
2060
2053
2066
2073
2064
2049
2032
2066
2098
2115
2149
2193
2192
2186
2165
2146
2148
2132
2105
2092
2082
2097
2106
2109
2129
2147
2155
2159
2155
2168
2172
2176
2191
2197
2179
2121
2044
2029
2057
2089
2099
2101
2105
2096
2086
2086
2081
2074
2061
2054
2059
2075
2091
2104
2108
2084
2036
2003
2007
1991
1987
1996
2011
2032
2051
2071
2083
2079
2073
2079
2088
2087
2091
2090
2090
2073
2031
1992
1995
2033
2086
2123
2126
2113
2100
2113
2141
2152
2146
2140
2135
2131
2114
2101
2072
2056
2060
2070
2077
2061
2035
2050
2076
2077
2063
2027
1995
1998
2059
2149
2236
2297
2303
2290
2298
2338
2374
2429
2484
2535
2604
2662
2693
2711
2720
2736
2746
2746
2754
2712
2618
2542
2496
2432
2353
2272
2180
2104
2049
2026
1996
1953
1912
1855
1776
1731
1729
1742
1771
1822
1870
1902
1929
1950
1923
1864
1828
1837
1869
1905
1932
1959
1987
2012
2021
2016
2022
2032
2033
2024
2003
2003
2007
1992
1950
1924
1933
1957
2005
2020
2017
2029
2023
2008
1994
1993
2014
2041
2058
2073
2086
2068
2068
2066
2057
2066
2075
2061
2035
2027
2033
2043
2030
2020
1979
1966
2006
2051
2068
2058
2042
2036
2035
2043
2071
2117
2151
2172
2170
2139
2100
2081
2066
2051
2041
2025
2017
2027
2051
2058
2052
2053
2057
2049
2032
2044
2060
2079
2088
2092
2095
2094
2091
2107
2131
2134
2114
2071
2039
2044
2079
2112
2117
2095
2078
2082
2094
2116
2145
2153
2144
2127
2121
2133
2152
2168
2171
2180
2193
2202
2206
2202
2195
2191
2197
2191
2193
2187
2164
2153
2162
2177
2189
2185
2176
2162
2170
2195
2190
2189
2217
2258
2275
2256
2235
2213
2229
2261
2264
2249
2245
2267
2300
2321
2341
2330
2300
2272
2247
2237
2246
2266
2293
2322
2323
2302
2282
2261
2249
2224
2238
2277
2292
2318
2341
2335
2311
2275
2238
2232
2256
2258
2237
2221
2234
2246
2237
2218
2206
2193
2194
2197
2211
2232
2239
2237
2252
2270
2246
2181
2152
2150
2132
2106
2096
2100
2098
2080
2078
2075
2077
2099
2115
2113
2110
2094
2066
2039
2027
2041
2067
2064
2040
2021
2023
2032
2018
2000
1991
1998
2025
2067
2093
2082
2035
2021
2040
2048
2055
2048
2035
2014
1988
1986
2019
2060
2079
2072
2046
2027
2023
2027
2025
2021
2041
2064
2077
2058
2026
2001
2022
2063
2115
2162
2171
2128
2057
2004
2004
2032
2053
2049
2031
2015
2012
2009
2000
2001
2000
2011
2032
2052
2062
2053
2038
2026
2029
2042
2039
2029
2041
2061
2072
2065
2051
2066
2083
2082
2080
2071
2057
2023
2024
2057
2095
2105
2087
2053
2030
2021
2031
2061
2104
2132
2144
2138
2137
2130
2115
2105
2110
2132
2150
2135
2103
2080
2052
2059
2081
2082
2078
2068
2065
2080
2071
2059
2042
2010
1992
2029
2076
2104
2118
2113
2102
2077
2064
2049
2042
2026
2006
2007
1996
1956
1957
2011
2079
2125
2144
2140
2131
2132
2128
2098
2071
2068
2070
2072
2072
2077
2061
2046
2041
2050
2063
2083
2090
2070
2075
2117
2138
2102
2048
2010
2009
2049
2081
2077
2072
2077
2093
2108
2108
2106
2071
2061
2092
2105
2088
2074
2072
2059
2051
2044
2023
2050
2113
2169
2150
2066
2006
2011
2049
2090
2091
2104
2117
2103
2105
2115
2119
2120
2116
2115
2109
2112
2114
2109
2107
2115
2106
2091
2081
2094
2128
2172
2204
2194
2176
2147
2096
2045
2023
2018
2023
2050
2075
2075
2058
2022
2005
2026
2054
2086
2110
2126
2118
2100
2072
2055
2081
2106
2071
2037
2033
2022
1996
1976
1975
1991
2009
2003
1999
2000
1999
1995
1987
1990
2016
2042
2037
2055
2086
2111
2091
2071
2054
2027
2015
2003
1983
1973
1992
2028
2048
2063
2098
2086
2053
2062
2092
2111
2095
2068
2048
2049
2038
2010
1988
1993
1990
1979
1991
2017
2028
2022
2016
2031
2056
2064
2091
2147
2176
2218
2269
2319
2371
2421
2451
2454
2453
2481
2539
2608
2658
2681
2691
2717
2699
2668
2642
2615
2581
2537
2504
2437
2359
2306
2256
2191
2112
1991
1872
1826
1827
1826
1807
1785
1786
1802
1818
1848
1852
1840
1847
1858
1855
1841
1828
1842
1883
1937
1966
1951
1944
1940
1947
1975
2000
2020
2015
1987
1958
1959
1993
2029
2053
2038
2009
1978
1966
1981
2010
2039
2038
2021
2018
2017
2007
1997
1984
1983
1998
2014
2051
2084
2087
2081
2057
2022
1994
1978
1990
2014
2033
2067
2084
2078
2093
2105
2094
2072
2059
2047
2053
2059
2046
2030
2010
1987
1969
1963
1973
2014
2052
2066
2039
1994
1970
1983
2006
2025
2024
2010
1992
1984
1989
2013
2041
2044
2069
2099
2117
2140
2133
2100
2057
2023
2026
2042
2059
2055
2047
2064
2078
2067
2088
2109
2101
2093
2094
2104
2105
2103
2092
2083
2073
2090
2116
2126
2137
2146
2127
2121
2131
2159
2173
2160
2132
2109
2091
2074
2059
2052
2051
2056
2085
2147
2202
2208
2182
2150
2140
2156
2188
2219
2228
2244
2244
2215
2200
2196
2206
2214
2194
2186
2186
2177
2179
2207
2246
2269
2262
2248
2236
2233
2220
2219
2234
2227
2209
2216
2206
2186
2197
2247
2295
2321
2304
2286
2269
2268
2261
2240
2215
2223
2243
2243
2233
2232
2227
2200
2179
2194
2223
2216
2196
2163
2153
2167
2175
2185
2184
2145
2097
2062
2035
2045
2075
2068
2035
1995
1997
2026
2045
2038
2038
2043
2027
2008
2005
2012
2012
1996
1999
1983
1954
1919
1914
1934
1958
1970
1966
1971
1996
2017
2031
2036
2024
1991
1949
1916
1899
1911
1943
1957
1952
1948
1951
1982
2010
2001
1966
1945
1942
1961
1966
1961
1962
1962
1952
1967
2007
2025
2016
1978
1945
1936
1962
1992
1959
1927
1910
1899
1897
1899
1907
1942
1973
1987
2024
2055
2056
2043
2036
2028
2030
2022
2035
2058
2057
2049
2008
1941
1905
1901
1946
1992
1993
1991
1991
2009
2015
2013
2017
2027
2012
1974
1946
1948
1958
1960
1963
1971
1985
2007
2019
2014
2005
2006
2010
2008
2024
2016
2008
2039
2062
2058
2079
2110
2150
2143
2095
2040
2023
2036
2041
2021
1989
1965
1992
2032
2051
2043
2029
2031
2054
2025
1983
1972
2008
2034
2029
2036
2052
2050
2038
2005
1967
1970
1977
1969
1945
1930
1929
1969
2005
2015
2018
2037
2049
2027
2006
1995
2017
2040
2050
2038
2006
1987
1998
2013
2016
2023
2029
2030
2034
2019
1999
1975
1956
1979
1993
1982
1990
2002
2004
1996
2001
2018
2039
2062
2069
2068
2053
2032
2005
1972
1945
1959
1992
2022
2043
2049
2039
2003
1976
1964
1956
1977
2024
2071
2107
2111
2088
2049
2022
2008
2021
2036
2026
2001
1981
1981
2011
2056
2055
2031
2021
2016
2031
2062
2063
2059
2071
2095
2110
2118
2117
2091
2059
2069
2075
2069
2057
2047
2060
2073
2048
2027
2018
2019
2049
2076
2087
2084
2072
2062
2064
2066
2061
2049
2043
2042
2028
2004
2006
2008
1988
1972
1980
1994
2014
2027
2029
2022
2018
2004
1988
1971
1948
1922
1937
1971
1994
1988
1989
2011
2036
2068
2083
2064
2031
1980
1935
1920
1942
1974
1999
1993
1993
1994
2004
2002
1985
1966
1955
1971
2031
2069
2094
2094
2082
2070
2036
1998
1971
1984
2015
2033
2043
2051
2044
2011
1958
1932
1944
1980
2025
2053
2072
2085
2108
2169
2239
2295
2353
2411
2447
2468
2492
2523
2575
2615
2620
2600
2612
2630
2617
2594
2576
2547
2495
2444
2412
2388
2360
2333
2266
2173
2083
2001
1938
1882
1831
1780
1732
1691
1695
1731
1770
1811
1830
1825
1821
1827
1831
1844
1873
1898
1931
1982
2017
2013
2003
1979
1966
1969
1994
2015
2012
2010
1996
1987
2003
2016
2020
2021
2043
2023
2013
2018
2006
1999
1980
1970
1992
2013
2019
2018
2016
2020
2023
2022
2014
2006
1991
1962
1936
1916
1922
1952
1994
2006
2003
2008
2019
2023
2024
2016
2010
2001
2020
2031
2028
2027
2036
2059
2082
2083
2064
2042
2023
2009
2016
2042
2071
2097
2110
2088
2062
2085
2097
2082
2057
2030
2001
1994
2025
2044
2066
2096
2105
2087
2069
2063
2068
2083
2058
2035
2049
2072
2102
2127
2138
2136
2126
2120
2112
2103
2093
2085
2063
2055
2072
2081
2111
2134
2135
2154
2147
2115
2082
2067
2071
2079
2079
2066
2068
2088
2114
2133
2129
2123
2113
2114
2124
2157
2196
2215
2209
2206
2205
2192
2181
2187
2219
2236
2223
2192
2191
2228
2252
2221
2171
2143
2130
2141
2170
2208
2256
2277
2288
2278
2247
2212
2202
2191
2214
2279
2307
2293
2265
2231
2233
2259
2283
2297
2300
2302
2305
2297
2279
2230
2170
2154
2192
2208
2220
2236
2251
2257
2259
2241
2220
2213
2209
2200
2176
2158
2160
2157
2151
2136
2124
2115
2120
2112
2087
2053
2053
2068
2060
2050
2055
2063
2052
2021
2007
2024
2044
2033
2020
2007
1988
1961
1941
1947
1962
1953
1963
1980
1976
1958
1943
1965
2001
2000
1966
1929
1898
1890
1914
1962
1996
1994
1963
1935
1944
1967
1977
1975
1958
1950
1954
1951
1948
1974
2004
1987
1970
1981
1974
1957
1965
1977
2013
2058
2082
2075
2054
2034
2014
1994
1974
1950
1942
1975
2011
2034
2043
2034
2027
2025
2013
2009
1997
1953
1913
1921
1954
1971
1955
1938
1938
1955
1950
1978
2016
2024
2008
2010
2031
2030
2006
1977
1974
1967
1980
2010
2023
2033
2028
2003
1983
1980
1991
1997
1994
1974
1959
1959
1977
2007
2034
2029
2020
2015
2001
1987
1997
2024
2064
2082
2063
2037
2050
2073
2076
2054
2039
2029
2000
1986
1999
2008
2018
2022
2000
1985
1990
2009
2027
2041
2027
2001
1978
1980
1992
2001
1998
1991
2029
2073
2034
1970
1938
1946
1983
2023
2042
2039
2023
2021
2016
2016
2027
2034
2037
2047
2057
2051
2052
2069
2067
2040
2029
2022
2026
2051
2051
2025
2004
1986
1983
2004
2002
2012
2035
2050
2060
2061
2041
2011
1990
1992
2019
2051
2085
2088
2055
2031
2055
2089
2107
2087
2076
2069
2074
2091
2077
2061
2072
2095
2116
2127
2122
2112
2101
2065
2026
2014
2029
2058
2112
2134
2122
2073
2000
1972
2001
2029
2042
2031
2029
2033
2038
2044
2059
2063
2043
2021
2001
1994
2009
2028
2050
2073
2065
2070
2090
2075
2031
2003
1999
2007
2024
2046
2064
2085
2062
2015
2006
2017
2000
1991
2009
2028
2051
2075
2094
2099
2091
2091
2084
2067
2046
2017
2003
1998
2013
2028
2045
2056
2054
2069
2053
2026
2012
2043
2086
2087
2078
2056
2020
1982
1940
1920
1929
1951
1984
2028
2067
2102
2096
2066
2035
2039
2077
2126
2185
2257
2318
2360
2415
2486
2556
2616
2632
2625
2639
2655
2664
2686
2654
2580
2529
2496
2504
2494
2439
2383
2321
2260
2209
2145
2076
1999
1911
1830
1791
1784
1779
1790
1810
1819
1820
1822
1825
1830
1841
1858
1866
1872
1900
1929
1934
1927
1935
1952
1970
1965
1928
1925
1959
1985
1999
2016
2040
2068
2077
2063
2063
2074
2038
1967
1909
1904
1934
1961
1982
1995
1983
1971
1997
1985
1985
1993
1989
2003
2015
2022
2042
2042
2031
2020
2007
1995
1990
1974
1971
1987
2011
2047
2063
2080
2106
2113
2121
2121
2119
2106
2090
2081
2072
2058
2032
2008
2004
2011
2027
2024
2016
2007
1990
1975
1988
2009
2026
2021
2033
2055
2040
2025
2031
2021
2041
2056
2033
2020
2037
2056
2081
2090
2083
2054
1996
1968
2004
2035
2053
2085
2131
2159
2155
2132
2104
2087
2100
2104
2118
2133
2145
2145
2137
2133
2120
2092
2096
2112
2124
2116
2098
2111
2154
2181
2191
2174
2135
2130
2161
2181
2171
2142
2093
2053
2068
2100
2144
2168
2192
2219
2233
2236
2222
2209
2198
2179
2167
2180
2209
2237
2245
2239
2211
2193
2225
2256
2235
2162
2084
2075
2107
2146
2175
2207
2234
2259
2281
2291
2269
2249
2219
2203
2213
2199
2203
2199
2180
2168
2183
2205
2238
2221
2190
2196
2200
2178
2136
2104
2108
2115
2141
2192
2222
2186
2148
2133
2103
2068
2077
2099
2107
2087
2063
2032
2008
2016
2044
2040
1998
1983
1996
2009
2018
2031
2040
2042
2052
2034
1990
1957
1938
1930
1945
1961
1964
1959
1959
1958
1961
1963
1942
1902
1892
1911
1941
1960
1962
1960
1956
1963
1975
1963
1932
1925
1955
1978
2011
2010
2013
2031
2010
1981
1980
1987
1992
1976
1952
1940
1942
1944
1947
1937
1926
1959
1997
2027
2038
2036
2020
2003
1969
1954
1962
1983
1987
1958
1937
1911
1916
1928
1956
1996
2009
2007
2029
2017
1979
1956
1979
2029
2060
2072
2104
2124
2070
1972
1964
2000
2021
2033
2043
2037
2010
1997
1993
2004
2031
2044
2018
1972
1952
1976
2024
2056
2057
2070
2086
2073
2084
2116
2127
2110
2081
2053
2052
2079
2089
2082
2078
2090
2119
2131
2102
2058
2024
2013
2001
1995
1993
1990
2034
2078
2103
2111
2102
2102
2102
2091
2092
2120
2160
2146
2118
2098
2080
2040
2015
2030
2060
2099
2103
2068
2057
2073
2061
2059
2063
2058
2071
2082
2114
2142
2127
2124
2141
2152
2140
2105
2067
2078
2115
2122
2094
2062
2060
2069
2073
2087
2083
2066
2060
2032
2003
2020
2059
2119
2145
2137
2127
2094
2070
2076
2077
2073
2065
2086
2127
2141
2117
2090
2082
2086
2075
2065
2055
2045
2042
2064
2077
2073
2082
2115
2141
2171
2186
2160
2129
2110
2113
2124
2143
2155
2166
2149
2120
2104
2114
2104
2088
2099
2131
2163
2170
2157
2146
2138
2131
2110
2087
2067
2047
2029
2032
2060
2103
2127
2107
2081
2046
2023
2032
2064
2077
2057
2022
1990
1998
2009
2012
2055
2114
2110
2046
1977
1965
2003
2048
2080
2092
2080
2076
2086
2076
2058
2052
2048
2054
2070
2078
2063
2028
2020
2030
2039
2029
1973
1947
1976
2012
2021
2030
2048
2072
2099
2132
2161
2162
2129
2068
2032
2036
2044
2054
2087
2113
2104
2061
2025
2000
1981
1966
1980
1984
1960
1943
1967
2004
2040
2056
2055
2059
2074
2116
2172
2238
2316
2370
2402
2452
2515
2564
2597
2617
2599
2588
2602
2619
2634
2646
2608
2498
2384
2332
2317
2300
2277
2250
2199
2129
2063
1985
1917
1865
1837
1818
1794
1757
1691
1659
1670
1707
1754
1791
1831
1853
1826
1801
1803
1843
1888
1921
1949
1967
1956
1952
1947
1947
1959
1981
1989
2003
2014
2019
2028
2043
2028
1998
1982
1969
1962
1964
1966
1938
1888
1870
1899
1915
1916
1934
1945
1939
1965
2005
2005
1979
1934
1902
1898
1918
1936
1932
1935
1967
2006
2007
2002
2004
1980
1950
1943
1944
1964
2012
2048
2022
1966
1930
1923
1918
1906
1934
1978
2001
2011
2007
1998
2001
2010
2010
2007
1993
1994
2012
2035
2037
2016
1988
1982
2008
2053
2097
2089
2039
1992
1964
1966
1972
1994
2021
2032
2039
2057
2052
2056
2077
2109
2143
2158
2138
2108
2077
2050
2060
2076
2059
2060
2076
2069
2058
2083
2114
2125
2113
2105
2125
2153
2174
2194
2220
2210
2168
2135
2112
2110
2141
2183
2211
2214
2194
2178
2183
2172
2183
2217
2241
2247
2237
2235
2252
2268
2266
2265
2250
2250
2255
2251
2255
2276
2285
2290
2293
2310
2342
2373
2387
2386
2364
2323
2297
2292
2298
2310
2319
2311
2317
2329
2306
2272
2268
2287
2317
2341
2369
2403
2434
2433
2399
2363
2328
2299
2296
2329
2391
2452
2466
2433
2395
2375
2349
2332
2340
2368
2403
2425
2427
2411
2399
2385
2368
2373
2385
2393
2376
2351
2337
2311
2277
2257
2247
2238
2223
2209
2217
2233
2245
2225
2216
2222
2219
2216
2233
2241
2250
2259
2253
2251
2249
2259
2260
2249
2233
2209
2213
2228
2248
2274
2280
2251
2230
2226
2229
2234
2218
2186
2169
2172
2189
2214
2252
2248
2203
2163
2150
2151
2157
2162
2173
2164
2183
2215
2234
2244
2238
2226
2203
2172
2146
2121
2106
2138
2178
2178
2130
2088
2105
2144
2154
2141
2151
2153
2171
2182
2170
2157
2132
2095
2100
2148
2180
2178
2166
2171
2180
2191
2183
2202
2225
2226
2219
2223
2224
2216
2210
2209
2209
2244
2270
2255
2227
2193
2185
2207
2241
2262
2258
2247
2230
2201
2211
2248
2254
2245
2228
2199
2208
2234
2268
2279
2274
2260
2237
2229
2243
2253
2259
2242
2222
2219
2243
2293
2316
2326
2321
2311
2305
2307
2310
2311
2346
2374
2384
2380
2391
2407
2419
2403
2392
2400
2394
2377
2348
2350
2385
2411
2406
2392
2365
2340
2322
2328
2346
2357
2371
2384
2391
2388
2373
2360
2376
2392
2403
2419
2411
2393
2360
2327
2310
2293
2265
2246
2234
2232
2246
2262
2285
2303
2325
2309
2310
2322
2309
2291
2307
2317
2273
2252
2292
2328
2320
2320
2341
2384
2417
2413
2388
2382
2393
2395
2393
2390
2354
2310
2274
2247
2261
2283
2312
2335
2342
2327
2308
2298
2284
2274
2289
2296
2290
2284
2269
2247
2230
2219
2211
2230
2261
2285
2303
2291
2267
2248
2250
2247
2222
2180
2158
2166
2183
2184
2162
2149
2130
2123
2139
2122
2102
2114
2126
2135
2141
2147
2154
2131
2108
2123
2147
2180
2192
2189
2155
2104
2092
2114
2137
2122
2080
2054
2031
2028
2050
2076
2097
2106
2110
2106
2101
2113
2091
2072
2092
2120
2143
2135
2105
2076
2060
2058
2072
2082
2082
2059
2046
2046
2038
2039
2059
2073
2068
2087
2126
2163
2185
2180
2151
2118
2115
2132
2156
2154
2118
2089
2086
2100
2085
2055
2037
2043
2053
2053
2057
2061
2050
2058
2094
2148
2176
2206
2263
2316
2361
2395
2399
2406
2437
2485
2532
2569
2594
2622
2653
2667
2675
2683
2668
2630
2599
2557
2507
2480
2458
2411
2366
2329
2295
2231
2140
2028
1928
1879
1874
1884
1881
1867
1845
1818
1797
1785
1807
1856
1884
1901
1885
1875
1900
1940
1988
2016
2022
2012
2001
1977
1944
1936
1962
1992
2009
2027
2016
2011
2027
2074
2105
2103
2072
2030
2009
2024
2038
2021
1994
1952
1904
1882
1901
1932
1974
2026
2081
2097
2092
2079
2057
2028
2007
1996
2009
2024
2034
2021
2027
2044
2042
2032
2020
2006
1983
1948
1916
1914
1934
1970
2007
2037
2057
2057
2039
2013
1996
1987
2009
2030
2028
2004
1975
1971
1986
1993
2000
2030
2041
2014
2019
2050
2080
2091
2068
2039
2044
2066
2067
2067
2067
2077
2095
2092
2080
2069
2073
2077
2084
2079
2051
2024
2027
2051
2073
2077
2035
2022
2062
2073
2065
2077
2092
2112
2136
2134
2112
2090
2087
2114
2115
2104
2114
2101
2067
2041
2059
2080
2089
2094
2087
2078
2082
2087
2074
2078
2084
2073
2076
2091
2113
2130
2169
2207
2183
2125
2088
2056
2046
2056
2067
2097
2138
2171
2186
2188
2178
2172
2191
2192
2152
2142
2154
2152
2142
2125
2105
2091
2104
2131
2172
2192
2196
2201
2202
2213
2215
2187
2149
2105
2069
2082
2117
2128
2104
2072
2056
2076
2101
2108
2103
2101
2110
2120
2102
2073
2045
2002
1958
1939
1956
1999
2042
2055
2044
2038
2035
2009
1963
1906
1870
1885
1923
1940
1928
1930
1915
1902
1915
1926
1916
1913
1909
1884
1847
1824
1806
1801
1798
1793
1816
1854
1881
1871
1862
1883
1912
1925
1916
1886
1869
1832
1798
1792
1804
1816
1836
1842
1809
1799
1827
1862
1891
1873
1856
1857
1867
1862
1840
1822
1821
1807
1791
1796
1801
1792
1809
1837
1866
1879
1883
1913
1955
1955
1909
1870
1855
1859
1849
1848
1860
1861
1854
1856
1871
1876
1876
1886
1899
1915
1918
1887
1849
1824
1811
1814
1849
1888
1889
1876
1893
1896
1896
1874
1860
1878
1868
1850
1877
1915
1934
1914
1880
1834
1792
1767
1760
1781
1805
1845
1875
1863
1870
1876
1859
1861
1875
1877
1879
1894
1909
1928
1936
1931
1916
1892
1874
1883
1879
1882
1902
1890
1868
1851
1850
1863
1883
1899
1911
1922
1902
1870
1841
1815
1815
1836
1840
1818
1801
1814
1843
1874
1907
1923
1912
1891
1873
1861
1852
1849
1870
1896
1900
1898
1893
1901
1895
1877
1862
1857
1847
1836
1838
1850
1851
1861
1875
1872
1860
1855
1878
1912
1934
1934
1896
1832
1805
1802
1823
1859
1867
1848
1828
1820
1845
1863
1848
1831
1819
1804
1800
1811
1799
1807
1846
1873
1888
1861
1839
1821
1822
1838
1867
1891
1927
1963
1954
1926
1915
1916
1908
1891
1896
1921
1948
1976
1970
1948
1924
1912
1903
1887
1864
1852
1859
1901
1939
1934
1922
1908
1892
1894
1888
1864
1837
1814
1809
1829
1842
1859
1893
1907
1880
1877
1899
1875
1842
1845
1854
1856
1866
1878
1868
1860
1877
1919
1987
2009
1976
1932
1894
1878
1882
1923
1936
1895
1855
1868
1894
1923
1939
1922
1878
1828
1807
1826
1837
1831
1864
1899
1919
1913
1907
1906
1913
1922
1936
1936
1935
1931
1945
1963
1963
1939
1918
1926
1954
1975
1954
1938
1933
1918
1897
1885
1905
1936
1953
1960
1956
1968
1980
1967
1956
1956
1949
1958
1952
1906
1871
1859
1845
1865
1918
1968
2004
1998
1963
1926
1902
1900
1924
1964
1973
1947
1899
1875
1915
1969
2022
2064
2083
2059
2031
1993
1971
1975
2004
2030
2029
2023
2017
1980
1947
1944
1950
1981
2016
2004
1979
1947
1913
1891
1890
1904
1921
1930
1911
1873
1850
1889
1947
1980
1964
1923
1897
1893
1892
1910
1948
1986
1999
1974
1941
1908
1896
1896
1918
1968
2014
2007
1999
1992
1966
1920
1898
1910
1938
1965
1968
1946
1931
1912
1897
1904
1920
1952
1935
1898
1895
1918
1946
1977
1990
1974
1950
1937
1924
1910
1897
1876
1855
1842
1860
1887
1892
1870
1850
1842
1845
1860
1894
1943
1998
2039
2088
2138
2165
2195
2244
2277
2273
2288
2337
2421
2507
2561
2593
2620
2618
2602
2589
2599
2615
2609
2566
2516
2452
2354
2253
2189
2189
2201
2167
2106
2015
1921
1840
1790
1766
1739
1721
1725
1750
1758
1755
1740
1727
1723
1717
1711
1724
1756
1759
1766
1799
1831
1846
1844
1856
1870
1877
1893
1907
1904
1911
1913
1911
1895
1891
1888
1872
1863
1892
1914
1906
1882
1855
1843
1887
1953
1963
1963
1979
1956
1927
1923
1938
1954
1930
1911
1913
1913
1883
1846
1856
1897
1946
1971
1971
1985
2003
1992
1943
1882
1871
1921
1977
1964
1926
1900
1912
1935
1969
2006
2018
2000
1965
1917
1885
1876
1876
1870
1885
1923
1964
1992
2002
2011
2022
2030
2028
2009
1984
1962
1948
1960
1972
1963
1957
1971
2007
2038
2042
2021
2012
2009
2007
2009
2020
2028
2039
2024
1988
1979
2001
2039
2035
1954
1910
1944
1987
2018
2042
2036
2023
2018
2036
2067
2084
2072
2048
2025
2033
2056
2059
2051
2033
2007
2012
2040
2055
2072
2074
2060
2062
2087
2113
2099
2069
2075
2105
2113
2098
2081
2087
2106
2133
2162
2183
2156
2118
2077
2053
2063
2076
2098
2135
2181
2207
2191
2183
2192
2205
2210
2192
2166
2148
2133
2115
2098
2098
2119
2152
2181
2173
2134
2102
2124
2159
2170
2168
2167
2172
2163
2138
2094
2096
2125
2143
2122
2098
2089
2097
2111
2103
2082
2063
2040
2013
2007
2031
2039
2032
2012
1991
1986
1980
1961
1941
1947
1966
1963
1930
1880
1855
1866
1895
1944
1996
2019
2007
1957
1909
1871
1836
1822
1842
1848
1855
1876
1906
1928
1923
1908
1907
1896
1878
1876
1885
1888
1884
1872
1853
1826
1814
1855
1916
1947
1926
1901
1906
1920
1910
1895
1863
1831
1811
1824
1854
1893
1922
1929
1902
1847
1821
1819
1827
1849
1858
1873
1900
1917
1930
1915
1889
1863
1847
1826
1838
1868
1896
1905
1891
1887
1896
1917
1946
1936
1895
1884
1894
1906
1928
1939
1951
1967
1951
1920
1900
1912
1952
1984
2009
2009
1977
1926
1889
1902
1924
1931
1903
1893
1898
1915
1940
1961
1974
1957
1930
1907
1879
1884
1887
1877
1915
1981
2010
1979
1963
1957
1943
1938
1937
1938
1956
1967
1983
1973
1961
1972
1988
1990
1988
1984
1983
2004
2039
2047
2002
1967
1973
1995
2015
1995
1952
1943
1970
1987
1981
1934
1896
1913
1953
1985
1999
1982
1973
1997
2016
2033
2036
2024
2014
2002
1982
1972
1980
1983
1984
1969
1964
1971
1979
1988
1998
2029
2052
2019
1993
1978
1952
1912
1894
1926
1980
2017
2039
2066
2056
2021
1999
2002
1984
1968
1969
1974
1980
1992
1988
1970
1958
1976
2016
2036
2023
2012
2018
2016
1989
1985
2015
2049
2060
2044
2014
2006
2019
2013
1994
1979
1980
1998
2018
2041
2062
2039
1999
1998
2009
2015
2021
2016
2010
2008
2029
2045
2060
2077
2068
2046
2017
1992
1953
1938
1937
1934
1937
1930
1927
1987
2075
2115
2119
2104
2077
2055
2048
2035
2019
2023
2045
2035
2023
2020
2045
2059
2034
1985
1963
1990
2036
2067
2058
2039
2030
2062
2104
2113
2087
2039
1978
1961
1982
2013
2037
2052
2038
2015
2013
2023
2039
2026
2006
2016
2040
2046
2046
2050
2021
1991
1968
1971
1991
2003
2011
2003
2008
2041
2062
2050
2050
2049
2068
2080
2083
2096
2110
2086
2062
2045
2047
2065
2089
2099
2094
2058
2011
2009
2035
2064
2083
2085
2068
2044
2035
2032
2014
2006
2020
2044
2060
2086
2104
2104
2077
2039
2027
2021
1995
1978
1997
2026
2055
2051
2039
2031
2034
2041
2061
2085
2103
2088
2050
2022
2022
2042
2062
2069
2037
1980
1962
1977
2026
2081
2113
2113
2098
2078
2060
2047
2023
2003
2015
2009
2013
2037
2057
2068
2078
2097
2122
2148
2173
2173
2150
2115
2084
2072
2074
2084
2099
2091
2071
2074
2071
2048
2034
2040
2038
2038
2024
2025
2043
2057
2082
2100
2109
2083
2050
2041
2082
2134
2150
2135
2118
2099
2104
2127
2138
2130
2119
2114
2110
2099
2059
2028
2008
2025
2047
2056
2059
2069
2049
2027
2029
2047
2051
2053
2050
2054
2080
2072
2044
2043
2060
2078
2081
2051
2046
2048
2042
2023
2019
2051
2113
2145
2129
2100
2085
2080
2087
2087
2073
2073
2069
2050
2022
2000
1994
1996
2000
2008
2013
2000
1982
1975
2003
2054
2104
2103
2073
2037
2024
2024
2024
2015
2005
2016
2056
2069
2044
2018
2000
1993
1982
1979
2005
2050
2089
2101
2074
2024
1973
1931
1920
1945
1976
2006
2044
2089
2168
2254
2313
2340
2357
2386
2427
2476
2499
2499
2543
2608
2687
2754
2769
2743
2682
2617
2575
2567
2543
2511
2467
2394
2310
2257
2221
2168
2074
1982
1925
1866
1795
1741
1721
1730
1748
1750
1744
1742
1753
1766
1776
1785
1803
1807
1799
1820
1854
1901
1946
1970
1977
1966
1929
1885
1884
1928
1989
2036
2034
2016
2024
2041
2029
1989
1963
1975
1991
2003
1994
1981
1968
1986
2017
2029
2029
2034
2048
2049
2032
2053
2057
2036
2009
1982
1974
1989
2003
2024
2058
2074
2076
2062
2055
2052
2014
1972
1958
1967
1990
2005
1982
1957
1980
2014
2017
2018
2039
2058
2050
2025
1989
1953
1961
1999
2036
2080
2116
2110
2059
1989
1924
1893
1909
1970
2021
2054
2070
2086
2079
2057
2029
2009
2018
2040
2063
2053
2021
1997
2015
2045
2051
2030
2003
2004
2033
2067
2079
2075
2060
2064
2100
2128
2114
2074
2025
2006
2021
2044
2045
2018
2009
2016
2036
2059
2078
2098
2104
2089
2078
2061
2037
2020
2003
2008
2055
2131
2169
2145
2115
2096
2093
2105
2129
2149
2155
2163
2175
2159
2140
2133
2119
2102
2107
2144
2167
2157
2150
2142
2158
2187
2201
2224
2243
2240
2225
2198
2164
2129
2106
2138
2201
2252
2244
2212
2184
2184
2207
2220
2217
2216
2198
2173
2156
2153
2165
2177
2191
2211
2213
2200
2185
2164
2159
2174
2178
2172
2177
2169
2142
2126
2129
2132
2104
2065
2075
2091
2092
2072
2052
2026
2004
1989
2000
2009
2002
1999
2015
2016
1996
1961
1937
1951
1981
2019
2042
2017
1983
1948
1910
1859
1823
1827
1872
1931
1976
1998
2034
2065
2034
1965
1908
1920
1947
1935
1928
1917
1894
1886
1870
1870
1881
1914
1964
1971
1943
1940
1966
1968
1935
1895
1880
1899
1914
1921
1905
1876
1878
1908
1930
1948
1958
1951
1943
1940
1956
1974
1980
1987
1977
1967
1947
1942
1953
1949
1929
1913
1914
1924
1932
1913
1904
1921
1934
1938
1973
2007
2012
1995
1972
1962
1966
1970
1967
1965
1977
1994
2001
2008
2002
1998
2014
2005
1984
1959
1961
1972
1989
2034
2060
2026
1974
1932
1909
1927
1977
2028
2029
2004
1987
1996
2026
2068
2088
2073
2047
2036
2034
2036
2049
2074
2069
2031
2009
2015
2047
2079
2055
2005
1956
1918
1909
1956
2024
2073
2071
2008
1953
1959
1974
2005
2031
2022
2026
2039
2037
2037
2033
1994
1977
1994
2017
2035
2054
2048
2032
2024
2022
2022
2045
2073
2065
2027
2003
1999
1990
1954
1954
1974
1992
1998
1995
1971
1968
2007
2033
2049
2044
2007
1960
1949
1972
2003
2016
2001
1989
1995
2022
2054
2068
2060
2055
2053
2052
2028
2005
1998
2007
2029
2031
2033
2040
2037
2022
1998
1966
1967
1974
1988
2015
2038
2061
2076
2080
2073
2059
2033
1993
1954
1958
1997
2055
2096
2101
2098
2092
2061
2031
2021
2033
2060
2082
2064
2023
2013
2028
1998
1966
1951
1952
1959
1956
1948
1941
1929
1935
1932
1919
1919
1944
1970
1972
1974
1957
1961
1998
2033
2032
2003
1950
1913
1902
1913
1937
1970
1997
2007
1990
1967
1962
1966
1980
1995
2008
2014
1989
1970
1967
1955
1948
1974
2006
2024
2027
2006
1979
1963
1976
2006
2050
2055
2029
2023
2026
2038
2061
2061
2056
2058
2072
2064
2050
2038
2030
2030
2031
2035
2048
2052
2071
2095
2106
2093
2051
2030
2024
2016
2012
2005
2026
2038
2056
2084
2096
2064
2028
2013
2026
2049
2054
2069
2111
2153
2166
2164
2166
2160
2128
2111
2097
2084
2086
2083
2092
2111
2102
2077
2067
2055
2043
2034
2039
2049
2074
2086
2086
2065
2019
1985
2021
2071
2085
2087
2082
2067
2055
2058
2065
2061
2061
2076
2087
2084
2054
2028
2014
1988
2000
2034
2079
2117
2138
2110
2079
2092
2121
2147
2143
2134
2104
2061
2028
2033
2074
2127
2155
2131
2050
1977
1969
1997
2044
2078
2069
2053
2038
2032
2045
2074
2110
2106
2078
2052
2033
2028
2048
2034
2028
2045
2040
2029
2019
2008
2012
2038
2064
2078
2084
2101
2113
2106
2123
2149
2179
2195
2176
2189
2237
2293
2335
2393
2456
2508
2512
2513
2551
2610
2635
2625
2625
2624
2597
2557
2524
2482
2426
2373
2335
2299
2254
2173
2081
1999
1927
1902
1899
1897
1884
1831
1794
1813
1846
1851
1844
1839
1867
1900
1918
1932
1949
1955
1973
1975
1976
1990
2008
2028
2058
2065
2044
2030
2041
2047
2026
2009
2020
2016
2020
2056
2096
2109
2110
2098
2077
2062
2061
2071
2064
2046
2021
2012
2027
2047
2052
2054
2077
2093
2084
2050
2030
2049
2075
2098
2110
2113
2115
2103
2079
2048
2030
2006
1987
1984
2010
2045
2074
2122
2158
2169
2156
2128
2099
2100
2121
2122
2117
2101
2091
2097
2110
2138
2152
2135
2102
2075
2071
2073
2085
2106
2134
2154
2165
2151
2119
2118
2138
2127
2083
2041
2014
2004
2034
2075
2112
2136
2158
2172
2142
2128
2134
2150
2157
2143
2138
2129
2112
2110
2110
2097
2082
2068
2061
2072
2103
2137
2169
2187
2198
2188
2172
2160
2168
2193
2185
2141
2097
2103
2139
2183
2206
2191
2177
2155
2163
2158
2163
2186
2212
2224
2226
2243
2256
2253
2244
2245
2257
2269
2265
2247
2221
2214
2227
2258
2294
2283
2268
2277
2289
2301
2294
2287
2295
2316
2332
2335
2324
2309
2304
2288
2283
2278
2281
2287
2291
2290
2308
2317
2305
2292
2294
2289
2262
2221
2191
2177
2188
2209
2202
2192
2182
2189
2192
2175
2190
2204
2215
2223
2222
2216
2180
2135
2121
2154
2173
2166
2157
2133
2107
2096
2102
2103
2109
2104
2082
2061
2051
2047
2038
2034
2031
2030
2027
2046
2059
2074
2086
2046
2006
2006
1993
1969
1959
1993
2038
2068
2067
2044
2016
2005
1990
1975
1997
2028
2047
2075
2092
2064
2033
2042
2080
2072
2031
2015
2016
2051
2065
2058
2078
2094
2098
2099
2099
2097
2086
2089
2090
2090
2087
2096
2108
2114
2088
2048
2025
2039
2035
2034
2052
2094
2097
2077
2081
2075
2040
2016
2039
2080
2098
2083
2072
2078
2098
2094
2087
2071
2048
2053
2079
2115
2123
2069
2010
2007
2015
2024
2044
2083
2116
2101
2093
2096
2087
2044
2016
2026
2061
2083
2085
2077
2078
2079
2063
2064
2071
2083
2090
2093
2114
2127
2128
2130
2123
2104
2065
2036
2065
2081
2090
2104
2098
2082
2086
2101
2114
2122
2121
2096
2065
2051
2073
2109
2113
2101
2080
2049
2023
2026
2049
2077
2097
2110
2104
2112
2106
2080
2077
2101
2095
2058
2030
2004
2000
2032
2074
2120
2153
2154
2137
2121
2098
2076
2051
2033
2042
2049
2040
2026
2042
2057
2083
2109
2111
2115
2097
2052
2014
2003
2001
2002
2027
2064
2102
2091
2055
2023
2039
2084
2109
2112
2100
2090
2066
2069
2097
2119
2096
2055
2026
2036
2054
2038
2022
2033
2050
2045
2038
2038
2035
2039
2058
2072
2089
2107
2094
2083
2072
2047
2031
2048
2070
2069
2048
2034
2034
2016
1973
1976
2041
2118
2150
2138
2127
2125
2147
2171
2165
2123
2075
2045
2019
2015
2034
2041
2006
1981
1999
2030
2042
2027
2003
1995
2013
2063
2143
2156
2107
2064
2072
2108
2135
2129
2115
2107
2116
2113
2106
2108
2100
2097
2103
2111
2121
2112
2094
2068
2050
2067
2090
2085
2081
2065
2046
2064
2058
2029
2004
2002
2022
2044
2056
2046
2042
2064
2082
2069
2046
2034
2037
2032
2019
2006
1998
2001
1999
2014
2030
2036
2043
2060
2069
2063
2050
2017
1949
1911
1924
1928
1967
2015
2038
2009
1977
1961
1953
1959
1989
2033
2081
2077
2028
1996
2005
2028
2047
2041
2030
2017
2009
2009
2006
2012
2030
2055
2056
2005
1956
1938
1965
2043
2101
2083
2047
2020
1994
1990
2009
2041
2071
2105
2152
2220
2290
2346
2374
2400
2419
2458
2520
2573
2610
2661
2697
2704
2694
2672
2633
2578
2523
2479
2470
2445
2388
2302
2222
2168
2109
2055
1991
1951
1919
1874
1827
1795
1794
1784
1769
1769
1785
1820
1854
1848
1832
1810
1835
1886
1887
1838
1841
1888
1937
1979
1996
1986
1990
2008
2028
2031
2016
2012
2024
2028
2019
2011
1988
1974
1994
2015
1999
1993
2003
1988
1956
1956
1985
2030
2038
2016
2010
2024
2030
2015
2019
2042
2045
2056
2077
2074
2069
2057
2051
2048
2038
2031
2037
2027
1997
1986
2013
2038
2062
2080
2090
2074
2047
2023
1998
1983
1990
2002
2027
2057
2070
2070
2066
2057
2036
2010
1976
1985
2026
2060
2081
2087
2089
2090
2100
2122
2138
2115
2090
2079
2076
2065
2050
2062
2076
2060
2041
2057
2090
2096
2080
2070
2062
2065
2068
2070
2055
2037
2049
2082
2104
2102
2099
2101
2097
2090
2091
2113
2117
2100
2081
2062
2074
2107
2131
2141
2148
2133
2125
2134
2135
2133
2115
2109
2105
2107
2117
2138
2150
2159
2176
2174
2169
2164
2174
2198
2222
2226
2203
2193
2188
2201
2221
2229
2234
2236
2213
2183
2185
2206
2221
2262
2300
2278
2266
2266
2275
2268
2240
2232
2249
2275
2297
2323
2317
2320
2338
2344
2311
2225
2154
2155
2189
2226
2215
2178
2135
2111
2111
2151
2203
2228
2215
2188
2150
2105
2071
2080
2110
2128
2112
2081
2063
2046
2040
2035
2012
1999
2033
2067
2085
2068
2029
2008
1994
1991
2009
2023
2026
2016
1989
1958
1960
1971
1974
1966
1949
1929
1924
1914
1912
1929
1952
1978
1983
1970
1950
1897
1857
1857
1885
1918
1977
2033
2062
2060
2019
1998
2000
2001
1975
1939
1885
1857
1864
1885
1909
1916
1922
1930
1924
1934
1956
1960
1951
1942
1946
1966
1977
1975
1962
1943
1955
1981
1988
1973
1957
1973
2016
2023
2011
2001
1986
1970
1985
2013
2030
2023
2013
1989
1951
1931
1929
1928
1916
1935
1971
2009
2052
2065
2015
1964
1951
1952
1981
2016
2024
2015
1992
1972
1967
1976
1995
2023
2062
2060
2039
2030
2042
2049
2026
2012
2003
1963
1949
1973
2010
2048
2065
2070
2067
2056
2038
2048
2074
2075
2058
2044
2045
2049
2035
2024
2024
2039
2037
2002
1967
1955
1993
2054
2082
2049
2007
1983
1984
1976
1988
2024
2056
2043
2016
2010
2035
2052
2051
2059
2060
2052
2045
2037
2035
2053
2052
2032
2025
2045
2063
2062
2059
2059
2070
2052
2026
2042
2044
2011
1973
1946
1950
1983
2016
2031
2054
2082
2099
2110
2095
2073
2049
2036
2044
2054
2055
2054
2080
2082
2083
2073
2035
2018
2043
2069
2066
2050
2038
2026
1995
1954
1964
2005
2036
2052
2050
2029
2023
2011
1986
1986
1990
2010
2060
2109
2137
2133
2110
2101
2108
2095
2071
2068
2075
2081
2081
2059
2011
1979
1983
2000
2000
2011
2035
2073
2067
2022
2011
2016
2003
1995
2014
2055
2082
2107
2108
2100
2094
2087
2076
2055
2067
2059
2049
2054
2052
2046
2041
2049
2059
2087
2101
2095
2088
2073
2066
2066
2082
2107
2107
2088
2044
2027
2057
2089
2099
2092
2091
2089
2082
2067
2051
2049
2066
2081
2098
2087
2077
2088
2097
2087
2066
2053
2065
2088
2100
2096
2088
2067
2054
2055
2055
2075
2090
2069
2032
2021
2037
2061
2069
2094
2112
2099
2076
2051
2018
1977
1963
1979
2007
2002
1967
1958
2006
2058
2047
2036
2029
2019
2002
1997
2019
2035
2033
2032
2023
2005
1981
1970
1980
1995
2023
2032
2032
2041
2032
2004
1983
1977
2012
2083
2123
2128
2084
2010
1965
1952
1979
2025
2030
2018
2013
2009
1995
1992
1994
1988
1981
1963
1945
1932
1913
1897
1897
1913
1935
1945
1954
1993
2037
2082
2109
2131
2175
2224
2286
2357
2419
2479
2532
2552
2552
2566
2567
2566
2596
2632
2647
2645
2643
2617
2557
2484
2416
2348
2268
2195
2143
2089
2008
1917
1845
1770
1696
1653
1664
1678
1711
1761
1780
1763
1759
1785
1794
1786
1791
1799
1802
1794
1796
1824
1865
1897
1939
1965
1973
1982
1979
1988
2003
1986
1961
1976
1999
2004
1994
1989
1986
1979
1994
2032
2038
2018
2000
1993
1997
1997
2015
2031
2028
2030
2045
2065
2058
2050
2031
2026
2033
2019
2009
2014
2043
2073
2086
2076
2061
2056
2058
2061
2063
2081
2091
2065
2032
2016
2024
2031
2028
2028
2042
2065
2085
2082
2067
2050
2053
2070
2066
2050
2042
2038
2039
2042
2042
2051
2064
2065
2065
2067
2068
2068
2065
2058
2054
2064
2085
2098
2102
2082
2043
2006
1997
2032
2055
2053
2048
2058
2085
2111
2123
2128
2123
2121
2134
2154
2156
2115
2070
2044
2033
2054
2093
2146
2179
2196
2190
2174
2171
2161
2146
2132
2111
2080
2057
2069
2088
2097
2104
2148
2210
2257
2284
2282
2266
2249
2237
2223
2211
2228
2239
2224
2216
2210
2196
2194
2195
2205
2231
2258
2265
2258
2257
2265
2263
2255
2245
2238
2260
2284
2294
2298
2292
2300
2317
2332
2325
2285
2258
2256
2280
2329
2354
2356
2330
2285
2249
2239
2264
2274
2272
2289
2302
2289
2281
2259
2233
2199
2166
2168
2176
2164
2148
2136
2134
2116
2101
2089
2091
2099
2099
2098
2087
2088
2099
2097
2083
2085
2102
2112
2079
2015
1943
1930
1962
1992
2018
2028
2008
1985
1990
1993
1985
1980
1980
1975
1960
1933
1921
1925
1948
1987
2019
2031
2016
1997
2005
2017
2028
2013
1990
1970
1949
1937
1909
1910
1943
1982
2009
2011
1990
1938
1917
1938
1944
1939
1954
1982
1971
1959
1957
1961
1985
1977
1920
1899
1932
1985
2049
2067
2032
2003
1988
1975
1952
1929
1920
1917
1906
1923
1972
1997
2001
2014
2038
2032
2021
2008
1982
1950
1932
1933
1918
1922
1959
1988
1992
1991
1976
1955
1942
1945
1974
2005
2008
1983
1948
1921
1906
1908
1913
1955
2005
2021
2017
2017
2017
2011
2015
2023
2044
2068
2057
2041
2017
1975
1941
1900
1885
1922
1972
1999
2006
2002
1978
1964
1988
2030
2045
2026
1998
1984
1975
1963
1952
1949
1958
1961
1976
2006
2029
2032
2009
1973
1935
1948
1999
2008
1969
1949
1931
1946
1987
1990
1975
1965
1979
2002
2029
2031
2004
1988
1984
1995
1998
1979
1963
1983
2016
2029
2018
1978
1945
1940
1953
1952
1917
1898
1927
1990
2020
2003
2004
2022
2030
2026
2023
1996
1965
1960
1949
1929
1926
1935
1936
1935
1961
2014
2052
2064
2055
2022
1975
1947
1962
1975
1973
1966
1954
1956
1978
1996
2002
1991
1978
1973
1963
1946
1960
1993
2044
2066
2060
2033
2006
2003
2000
2013
2027
2022
2016
2022
2038
2028
2002
1976
1942
1922
1939
1953
1953
1959
1972
1970
1966
1962
1977
2018
2042
2035
2010
1998
2027
2076
2084
2060
2028
2002
1998
2015
2033
2066
2086
2064
2037
1993
1972
1986
1996
2006
2021
2034
2058
2062
2060
2046
2033
2062
2098
2107
2114
2114
2086
2051
2030
2025
2028
2026
2019
2037
2064
2081
2064
2020
1990
1993
1998
2011
2004
2005
2005
2013
2041
2072
2072
2068
2050
2015
2007
2038
2061
2052
2034
2012
2002
1993
1992
1988
1992
1989
1983
1977
1963
1928
1915
1952
1994
1988
1975
1974
1970
1976
2002
2003
2017
2031
2023
1996
1960
1937
1959
1998
2016
2008
2005
2012
2027
2038
2033
2034
2040
2032
2013
2006
1994
1989
2021
2065
2072
2059
2046
2052
2033
1956
1875
1853
1892
1950
1982
1975
1956
1953
1977
2020
2058
2059
2075
2105
2137
2175
2229
2286
2342
2376
2390
2424
2459
2502
2552
2597
2624
2620
2610
2616
2631
2638
2600
2531
2460
2388
2318
2268
2223
2194
2172
2122
2046
1949
1864
1824
1808
1794
1776
1755
1732
1753
1794
1847
1871
1848
1828
1836
1855
1852
1839
1830
1857
1909
1954
1984
2005
2019
2011
1988
1973
1983
2001
2011
2028
2040
2022
2002
2015
2047
2064
2064
2058
2027
1980
1959
1954
1943
1960
2007
2029
2035
2052
2065
2055
2029
2007
1987
1996
2018
2043
2067
2073
2058
2025
1987
1966
1966
1971
1973
2005
2031
2043
2026
1999
1981
1997
2035
2071
2062
2045
2034
2029
2046
2062
2067
2077
2086
2083
2082
2040
1960
1906
1907
1932
1957
1977
2006
2029
2059
2087
2080
2091
2117
2145
2135
2091
2049
2033
2051
2065
2050
2035
2035
2056
2087
2088
2080
2088
2106
2098
2075
2061
2075
2093
2104
2101
2087
2040
2001
2002
2018
2023
2037
2060
2091
2129
2129
2127
2112
2111
2115
2114
2088
2084
2088
2081
2120
2205
2252
2246
2219
2176
2126
2087
2087
2110
2136
2156
2181
2174
2162
2164
2165
2158
2178
2204
2222
2213
2194
2157
2141
2168
2202
2218
2208
2237
2268
2262
2242
2220
2225
2233
2237
2240
2226
2201
2181
2202
2261
2310
2312
2304
2296
2282
2272
2263
2234
2192
2155
2162
2194
2219
2233
2256
2283
2288
2287
2259
2193
2148
2098
2071
2075
2084
2108
2132
2148
2160
2166
2138
2103
2068
2035
2027
2046
2058
2042
2016
2019
2040
2064
2050
2001
1964
1960
1984
1995
1987
2004
2026
2022
2011
2023
2045
2040
1995
1955
1948
1982
2011
2008
1996
1973
1953
1925
1911
1912
1918
1935
1960
1987
2000
1997
1968
1946
1944
1935
1938
1958
1960
1945
1924
1923
1931
1935
1935
1934
1935
1949
1978
1994
1991
2001
1992
1981
1965
1956
1980
2015
2028
2036
2037
2030
2012
1982
1940
1927
1959
1974
1975
1973
1959
1939
1956
1997
2043
2071
2069
2050
2019
1979
1948
1961
1971
1977
2009
2046
2058
2043
2011
1982
1998
2012
1991
1953
1948
1954
1975
2012
2053
2075
2065
2044
2039
2027
1998
1980
1982
1993
2000
2003
2008
2010
2008
2015
2037
2066
2055
2017
1979
1978
1995
2006
2004
2002
2024
2068
2103
2127
2142
2128
2112
2080
2058
2035
2023
2030
2025
1990
1950
1928
1911
1912
1949
2034
2114
2082
2027
2019
2040
2055
2052
2051
2029
1984
1968
1998
2037
2053
2006
1930
1904
1944
1991
2015
2042
2058
2062
2078
2091
2072
2054
2053
2061
2061
2051
2040
2005
1973
1992
2018
2018
2009
1999
1963
1920
1919
1958
2000
2040
2066
2078
2077
2060
2041
2033
2039
2055
2064
2064
2070
2072
2064
2051
2037
2027
2043
2057
2048
2025
2002
1997
1988
1992
2014
2019
1990
1972
1966
1972
2005
2061
2099
2118
2108
2092
2092
2079
2060
2048
2048
2063
2077
2087
2077
2032
1999
2016
2046
2087
2121
2120
2093
2082
2072
2059
2069
2067
2056
2046
2048
2054
2040
1996
1977
2011
2046
2077
2081
2052
2019
1993
1989
1991
2023
2069
2110
2131
2126
2088
2053
2038
2029
2010
2002
1994
2003
2031
2055
2065
2058
2060
2052
2026
1996
1998
2018
2025
2004
1977
1981
2004
2021
2038
2056
2042
2024
2003
1999
2013
2021
2028
2046
2068
2078
2063
2039
1998
1977
1991
2001
2017
2052
2063
2050
2037
2046
2051
2054
2035
2025
2027
2002
1974
1965
1969
1986
2006
2023
2039
2079
2136
2162
2172
2178
2199
2236
2285
2332
2390
2446
2495
2529
2566
2592
2603
2611
2597
2577
2550
2506
2488
2469
2448
2389
2267
2127
2059
2045
2064
2058
2014
1966
1930
1903
1878
1842
1813
1797
1797
1822
1866
1906
1923
1911
1903
1912
1946
1976
1954
1895
1883
1939
2013
2050
2063
2073
2082
2095
2110
2094
2055
2015
1991
2010
2063
2090
2092
2082
2041
2012
2008
2019
2046
2070
2068
2052
2037
2040
2056
2055
2041
2022
2014
2003
2002
2014
2033
2030
2013
2017
2039
2063
2076
2070
2057
2037
2009
2003
2031
2064
2094
2121
2142
2141
2162
2180
2149
2077
2021
2046
2080
2082
2064
2072
2090
2116
2112
2073
2032
2049
2103
2138
2147
2133
2102
2078
2054
2048
2072
2102
2105
2109
2124
2152
2177
2187
2179
2144
2089
2034
2029
2050
2077
2110
2135
2151
2157
2152
2139
2148
2157
2158
2161
2159
2144
2137
2128
2114
2123
2140
2154
2144
2140
2161
2186
2176
2155
2141
2149
2165
2185
2177
2191
2220
2255
2240
2195
2180
2177
2192
2229
2253
2255
2229
2212
2202
2201
2211
2222
2239
2259
2242
2238
2233
2227
2262
2288
2275
2270
2265
2276
2306
2307
2283
2266
2248
2244
2243
2241
2243
2254
2265
2279
2270
2259
2268
2266
2263
2276
2304
2312
2304
2296
2300
2322
2338
2329
2323
2320
2313
2291
2236
2222
2238
2229
2186
2154
2161
2169
2161
2158
2152
2137
2137
2153
2175
2192
2181
2153
2124
2111
2128
2154
2158
2134
2113
2092
2054
2040
2052
2059
2051
2031
2003
1975
1966
1988
2019
2030
2049
2074
2069
2067
2057
2012
1962
1957
1964
1975
1978
1993
2017
2027
2016
2003
2009
2024
2023
2025
2022
2005
1992
1998
2028
2052
2044
2022
2025
2032
1998
1957
1950
1952
1953
1964
1984
1998
2013
2013
1999
1989
1989
2001
2010
2014
2002
2006
2020
2019
2010
2003
2001
1990
1976
1998
2020
1988
1971
2003
2053
2082
2066
2052
2046
2048
2062
2094
2108
2082
2032
1986
1959
1975
2012
2045
2061
2065
2078
2084
2071
2069
2066
2045
2021
2013
1996
1976
1981
2000
2008
2023
2050
2073
2077
2080
2089
2088
2084
2083
2073
2062
2073
2091
2104
2107
2099
2085
2099
2088
2069
2072
2039
2003
2005
2021
2038
2061
2065
2055
2051
2047
2066
2077
2079
2079
2080
2070
2048
2017
2002
2019
2035
2018
1995
2013
2043
2055
2050
2048
2067
2104
2118
2096
2078
2089
2105
2108
2100
2092
2079
2063
2052
2023
2031
2052
2072
2094
2095
2109
2106
2085
2068
2056
2070
2075
2051
2020
2020
2038
2043
2050
2077
2102
2108
2118
2123
2125
2114
2067
2012
2015
2049
2075
2077
2066
2043
2024
2031
2031
2035
2055
2077
2091
2084
2066
2056
2052
2030
2023
2038
2051
2093
2153
2181
2193
2207
2191
2155
2128
2110
2097
2106
2129
2125
2121
2110
2108
2114
2113
2118
2124
2116
2087
2069
2070
2079
2072
2039
1997
1981
2010
2051
2088
2102
2090
2075
2074
2100
2115
2115
2092
2060
2035
2018
1994
1982
1998
2019
2034
2036
2034
2054
2083
2101
2108
2083
2026
1983
1957
1962
2020
2078
2106
2097
2057
2055
2055
2044
2029
2050
2072
2073
2077
2076
2056
2031
2032
2045
2058
2050
2033
2026
2045
2067
2070
2076
2096
2116
2114
2081
2062
2053
2044
2043
2042
2048
2057
2043
2004
1960
1942
1964
1982
1987
2000
2037
2062
2065
2075
2118
2188
2267
2347
2428
2474
2503
2528
2551
2591
2629
2655
2691
2730
2736
2702
2661
2616
2584
2565
2544
2527
2493
2442
2345
2227
2160
2132
2099
2053
2011
1965
1916
1885
1862
1845
1842
1838
1822
1800
1785
1811
1882
1929
1920
1904
1920
1941
1979
2019
2006
1989
1987
2000
2020
2003
2001
2022
2039
2041
2052
2074
2099
2111
2096
2074
2051
2050
2070
2064
2038
2030
2028
2017
2037
2073
2109
2127
2103
2057
2036
2049
2063
2067
2060
2057
2052
2050
2028
2013
2039
2064
2047
2020
1990
1981
2019
2074
2100
2099
2095
2093
2089
2097
2074
2038
2029
2048
2065
2066
2051
2036
2036
2041
2046
2041
2028
2042
2067
2088
2099
2114
2108
2087
2067
2059
2084
2127
2149
2116
2076
2063
2064
2075
2091
2104
2109
2110
2093
2076
2073
2065
2055
2022
1979
1981
2017
2062
2113
2152
2168
2142
2114
2109
2116
2129
2133
2139
2134
2103
2082
2075
2081
2096
2095
2071
2039
2040
2062
2076
2102
2137
2175
2199
2191
2169
2134
2092
2067
2049
2070
2104
2138
2152
2162
2176
2184
2168
2147
2156
2187
2223
2249
2260
2247
2239
2201
2162
2165
2200
2216
2218
2239
2283
2330
2314
2242
2190
2221
2256
2253
2255
2270
2284
2281
2267
2251
2265
2297
2318
2341
2323
2261
2197
2179
2201
2220
2232
2246
2262
2245
2216
2192
2172
2158
2150
2151
2146
2139
2112
2079
2053
2035
2053
2071
2083
2087
2074
2061
2046
2045
2061
2061
2043
2033
2018
2012
2024
2027
2034
2029
2027
2014
1990
1969
1962
1966
1961
1958
1966
1990
1998
1980
1980
1975
1949
1936
1934
1950
1969
1991
1994
1972
1929
1896
1864
1876
1929
1988
2002
1976
1952
1934
1927
1942
1956
1958
1965
1995
2033
2037
2011
1966
1934
1923
1911
1898
1901
1924
1961
1973
1968
1960
1962
1962
1933
1895
1882
1897
1924
1952
1947
1923
1910
1925
1949
1954
1930
1908
1896
1905
1929
1953
1981
1979
1988
2003
2011
1993
1963
1929
1912
1938
1989
2038
2066
2096
2098
2080
2056
2040
2054
2041
2022
2019
2007
2000
1996
1991
1983
1975
1992
2036
2070
2059
2044
2042
2038
2049
2077
2083
2057
2028
2024
2065
2111
2108
2112
2105
2085
2070
2052
2042
2044
2054
2045
2031
2038
2054
2063
2065
2071
2062
2049
2048
2049
2049
2073
2114
2124
2130
2147
2187
2207
2185
2177
2150
2086
2056
2079
2112
2134
2128
2108
2097
2089
2108
2133
2137
2148
2144
2110
2077
2060
2045
2035
2043
2062
2084
2112
2097
2062
2024
2042
2095
2118
2083
2041
2014
1998
1981
1964
1971
1982
1978
1988
2014
2042
2052
2066
2076
2056
2031
2027
2040
2048
2042
2031
2031
2045
2065
2076
2061
2039
2024
2013
1996
1984
1999
2021
2017
2018
2043
2054
2063
2073
2070
2055
2044
2047
2054
2075
2107
2121
2111
2110
2094
2083
2066
2046
2044
2084
2115
2094
2058
2025
2021
2022
2025
2034
2042
2044
2040
2046
2058
2073
2110
2140
2126
2109
2113
2128
2123
2102
2067
2044
2045
2040
2029
2036
2062
2081
2070
2049
2015
1990
1987
1992
1991
1996
1991
1958
1930
1930
1950
1973
1994
1991
1999
2023
2060
2070
2046
2018
1995
1970
1948
1943
1962
1989
2016
2021
1998
1971
1975
1983
1971
1962
1980
2000
2015
2031
2032
2011
1969
1953
1973
2006
2016
2006
2004
2038
2065
2070
2051
2025
2005
1989
1991
1992
1985
1977
1975
1981
1985
1988
2000
2014
2030
2032
2003
1975
1968
2003
2090
2156
2171
2165
2184
2225
2261
2278
2288
2321
2380
2463
2543
2602
2637
2662
2678
2680
2685
2699
2700
2696
2692
2673
2634
2585
2536
2491
2436
2380
2322
2242
2156
2077
2005
1933
1859
1801
1760
1726
1742
1796
1842
1846
1838
1848
1871
1895
1924
1951
1958
1917
1865
1874
1931
2014
2076
2094
2101
2102
2084
2061
2040
2039
2035
2017
2010
2016
2039
2056
2055
2056
2060
2051
2035
2046
2075
2111
2107
2060
2010
1990
2001
2035
2066
2088
2093
2077
2058
2055
2060
2056
2028
2001
2003
2035
2054
2031
2013
2025
2043
2061
2084
2093
2087
2096
2113
2117
2078
2032
2013
1978
1970
1988
1984
2019
2076
2142
2163
2145
2126
2108
2086
2070
2081
2111
2133
2141
2091
2014
2003
2051
2119
2138
2102
2071
2081
2113
2115
2105
2095
2088
2087
2096
2104
2093
2057
2002
1961
1989
2063
2118
2125
2118
2118
2107
2093
2071
2048
2054
2084
2101
2112
2131
2123
2099
2101
2116
2143
2155
2129
2081
2056
2065
2095
2135
2146
2137
2114
2092
2079
2094
2144
2183
2196
2183
2165
2154
2149
2158
2169
2156
2145
2173
2202
2218
2217
2190
2168
2171
2196
2212
2205
2203
2207
2208
2231
2275
2308
2310
2273
2235
2215
2221
2256
2292
2307
2303
2267
2220
2200
2212
2252
2293
2309
2294
2292
2276
2243
2215
2203
2209
2183
2160
2178
2194
2182
2178
2183
2191
2188
2172
2133
2097
2086
2100
2099
2087
2081
2101
2149
2139
2085
2047
2046
2066
2074
2068
2074
2071
2059
2044
2025
2010
2002
1987
1984
1993
1996
1999
1999
1985
1960
1932
1923
1946
1958
1955
1958
1975
1968
1931
1904
1911
1953
1990
1999
1988
1959
1939
1936
1953
1958
1956
1932
1877
1848
1880
1922
1958
1983
2001
1997
1984
1978
1956
1919
1892
1860
1855
1891
1937
1980
1981
1971
1973
1970
1945
1908
1866
1851
1860
1875
1907
1957
1995
1993
1977
1953
1935
1949
1982
2006
2003
1976
1956
1978
2007
2016
2031
2025
2005
1994
2000
2011
2012
2003
1990
1974
1988
2008
2025
2013
1984
1961
1955
1961
1967
1975
1987
1988
1990
1974
1951
1964
2000
2012
2024
2046
2048
2051
2052
2040
2021
1970
1927
1941
1974
1996
2006
2002
2015
2028
2014
1990
1955
1950
1973
1983
1988
1971
1943
1917
1932
1970
2012
2037
2036
2014
1974
1941
1924
1924
1940
1957
1960
1950
1967
1989
1972
1965
1967
1984
1982
1972
1968
2006
2019
1997
1990
1974
1933
1892
1886
1911
1942
1968
1995
1997
1985
1978
1986
1984
1989
2008
2006
1980
1951
1943
1948
1959
1969
1979
1971
1942
1931
1919
1931
1944
1931
1894
1878
1885
1902
1945
1975
1979
1967
1931
1891
1914
1963
1996
2022
2037
2028
2005
1976
1960
1957
1940
1927
1929
1964
2005
2029
2024
1986
1956
1944
1958
1962
1954
1935
1911
1927
1956
1966
1959
1936
1898
1875
1892
1922
1938
1924
1906
1910
1928
1958
2004
2026
2036
2025
2000
1997
2006
1996
1973
1932
1895
1908
1930
1920
1915
1921
1932
1934
1927
1927
1944
1958
1961
1991
2029
2028
2011
1999
1998
1994
2001
2018
2031
2042
2044
2027
1999
1991
2002
1980
1953
1965
1977
1975
1980
1999
1994
2012
2045
2040
2013
1991
1986
2010
2046
2084
2104
2100
2074
2039
2028
2041
2042
2057
2071
2063
2023
1991
1991
2005
2017
2016
2018
2031
2057
2048
2012
2001
2038
2079
2065
2022
1994
2008
2032
2050
2057
2069
2077
2074
2059
2026
2026
2061
2102
2107
2077
2054
2053
2082
2095
2077
2049
2020
1990
1988
1993
1994
2019
2062
2104
2119
2124
2111
2077
2034
1994
1964
1959
1982
2007
2011
2000
1995
1994
2018
2059
2076
2072
2063
2051
2010
1972
1951
1934
1934
1963
2003
2014
2023
2038
2056
2047
2007
1980
1985
1984
1965
1941
1938
1979
2040
2073
2055
2027
2005
1988
1964
1958
1992
2038
2061
2043
2022
2024
2043
2051
2042
2014
1980
1964
1957
1942
1932
1921
1938
1982
2005
2020
2040
2042
2061
2067
2087
2127
2177
2241
2306
2356
2368
2380
2419
2481
2561
2597
2615
2624
2628
2633
2640
2651
2670
2672
2657
2649
2612
2549
2481
2412
2362
2314
2264
2206
2117
2029
1952
1877
1819
1772
1741
1728
1729
1733
1713
1689
1700
1756
1814
1832
1829
1823
1833
1862
1903
1942
1974
1993
2000
1995
1980
1955
1932
1941
1970
1976
1972
1966
1953
1954
1962
1960
1957
1953
1955
1959
1960
1988
2017
2005
1973
1933
1915
1945
1977
2004
2034
2040
2036
2047
2033
2027
2005
1970
1980
2002
2021
2013
1996
1997
2007
2022
2017
2024
2061
2067
2041
2003
1963
1960
1964
1968
1985
2003
2038
2081
2103
2092
2051
2004
1988
1981
1976
1977
1999
2020
2034
2035
2032
2041
2031
2004
2000
2037
2082
2107
2095
2053
2019
2025
2030
2033
2043
2042
2038
2034
2035
2051
2065
2066
2067
2063
2063
2073
2085
2091
2088
2076
2084
2107
2103
2079
2056
2053
2066
2065
2061
2087
2094
2099
2104
2106
2123
2146
2161
2165
2163
2154
2134
2128
2131
2113
2086
2081
2115
2158
2181
2200
2228
2201
2130
2084
2097
2139
2178
2191
2193
2177
2144
2128
2147
2193
2210
2201
2189
2202
2231
2264
2293
2295
2267
2240
2226
2224
2236
2257
2262
2255
2251
2260
2276
2279
2279
2287
2286
2270
2241
2254
2293
2318
2327
2319
2302
2265
2225
2215
2235
2228
2190
2156
2157
2180
2208
2232
2232
2224
2201
2155
2126
2114
2109
2112
2131
2147
2145
2148
2155
2143
2108
2039
1970
1935
1918
1920
1955
2006
2055
2058
2029
2011
1996
1977
1951
1936
1949
1937
1935
1946
1963
1969
1970
1957
1946
1934
1937
1962
1989
2002
1985
1972
1987
1991
1986
1963
1947
1935
1912
1897
1902
1929
1965
1987
1979
1958
1936
1953
1953
1957
1967
1957
1943
1935
1918
1906
1917
1938
1965
1971
1968
1960
1958
1949
1941
1961
2003
2007
1983
1945
1921
1914
1918
1917
1920
1918
1913
1918
1926
1955
1976
1951
1913
1894
1904
1939
1972
1984
1999
2021
2033
2019
1990
1964
1950
1981
2004
2012
2003
1963
1927
1925
1959
1999
1998
1976
1977
2005
2030
2036
2037
2037
2015
1993
1979
1971
1962
1970
1973
1990
1995
1987
1993
2015
2022
2015
2014
2013
1999
1968
1942
1976
1999
2002
2013
2034
2019
1992
1964
1934
1939
1954
1962
1992
2023
2046
2042
2010
2006
2012
1996
1977
1970
1959
1954
1969
1979
1963
1962
2004
2057
2077
2074
2063
2048
2010
1978
1965
1967
1994
2032
2066
2069
2032
1989
1969
1976
2006
2019
1977
1940
1940
1962
1990
2003
2029
2067
2068
2048
2012
1970
1960
1997
2020
2012
1999
1998
2018
2018
2009
2003
2011
2030
2030
2016
1997
1977
1988
2010
2000
1988
1996
2010
2024
2034
2012
1989
1983
1969
1968
1960
1959
1960
1971
1989
2003
2001
1985
1967
1970
2000
2030
2048
2042
2013
1989
1978
1960
1958
1961
1984
2007
2031
2071
2085
2065
2035
2027
2026
2024
1990
1962
1984
2012
2013
1993
1988
1983
1980
1997
1996
1992
2002
2016
2017
2007
1971
1943
1957
1998
1981
1949
1971
2005
2026
2033
2033
2033
2023
1995
1979
1961
1945
1960
2007
2046
2068
2039
2011
2010
2018
2000
1972
1943
1925
1933
1965
2008
2046
2070
2074
2024
1962
1978
2012
2010
2022
2022
2007
1989
1959
1923
1917
1947
1991
2019
2049
2080
2078
2048
2029
2035
2048
2048
2047
2042
2024
2008
1984
1976
2005
2031
2011
1991
1993
1984
1995
2005
2003
1998
1987
1982
1986
2000
1990
1989
2005
2012
2012
2004
1988
1974
1973
1993
2008
2001
1995
2000
2014
2037
2052
2057
2045
2019
1997
2009
2035
2055
2060
2041
2018
1986
1953
1951
1982
2010
2019
2023
2048
2075
2100
2135
2132
2092
2052
2034
2043
2070
2078
2058
2038
2049
2036
2014
2008
2029
2054
2082
2103
2085
2071
2093
2102
2094
2090
2086
2083
2042
1976
1947
1952
1957
1942
1942
1977
2000
2006
2019
2038
2047
2041
2030
2020
2000
2013
2051
2074
2060
2029
1999
1981
1981
1969
1956
1966
1995
2018
2002
1981
1978
1994
2024
2060
2091
2098
2089
2065
2045
2043
2044
2051
2040
2022
2048
2083
2078
2053
2034
2020
2034
2080
2131
2139
2133
2146
2155
2151
2133
2072
2009
1992
1974
1958
1970
2016
2021
1988
1969
1963
1953
1970
2015
2079
2125
2134
2115
2124
2186
2276
2337
2368
2398
2432
2485
2545
2609
2661
2668
2645
2595
2530
2560
2636
2652
2614
2547
2473
2427
2383
2340
2296
2243
2176
2097
2019
1938
1865
1807
1773
1771
1785
1794
1794
1805
1830
1851
1843
1813
1771
1750
1767
1821
1906
1976
2008
2004
2002
2015
2037
2072
2105
2106
2076
2046
2023
1999
1988
2013
2040
2050
2049
2047
2061
2059
2042
2046
2061
2042
2005
1969
1974
1996
1997
1993
1984
1969
1986
2030
2059
2050
2027
2024
2043
2053
2054
2031
1991
1958
1958
1988
2029
2063
2098
2124
2131
2125
2102
2076
2074
2068
2054
2058
2076
2092
2072
2022
2017
2058
2089
2060
2048
2077
2119
2147
2120
2092
2084
2077
2076
2063
2047
2049
2038
2041
2044
2051
2072
2075
2055
2048
2036
2046
2073
2097
2111
2128
2124
2105
2077
2056
2041
2043
2057
2071
2079
2075
2069
2060
2055
2073
2086
2087
2092
2104
2105
2123
2140
2144
2146
2151
2154
2137
2077
2014
1992
2018
2058
2096
2127
2155
2140
2105
2085
2098
2112
2106
2110
2141
2184
2208
2201
2165
2145
2166
2191
2203
2189
2161
2140
2155
2194
2214
2185
2167
2153
2152
2201
2251
2256
2249
2265
2283
2286
2279
2274
2277
2287
2291
2292
2274
2248
2245
2262
2280
2293
2303
2314
2331
2342
2328
2303
2272
2257
2254
2263
2272
2256
2219
2191
2181
2194
2216
2233
2233
2225
2225
2245
2241
2218
2182
2147
2130
2141
2159
2158
2145
2112
2092
2078
2064
2074
2092
2074
2043
2028
2024
2038
2060
2088
2104
2096
2068
2024
2005
2014
2003
2003
2008
1987
1944
1930
1952
1970
1980
1967
1983
2011
2009
1974
1940
1944
1975
2013
2038
2036
2013
1978
1964
1977
1982
1977
1971
1977
1981
1969
1960
1966
1985
1986
1974
1963
1982
2004
2001
1980
1977
1993
1992
1986
2003
2024
2029
2030
2030
2016
1991
1972
1967
1992
2019
2023
2006
1986
1966
1955
1972
1985
1995
1990
1983
2003
2026
2027
1993
1950
1919
1923
1955
2008
2042
2037
2018
2002
2010
2036
2051
2023
1979
1957
1979
2009
2030
2047
2052
2052
2045
2043
2038
2023
2007
2002
2004
1992
1970
1945
1931
1951
1998
2041
2073
2072
2052
2048
2060
2046
2005
1970
1989
2041
2070
2052
2039
2043
2050
2040
2008
1992
2000
2021
2023
1990
1977
1995
2014
2039
2076
2101
2094
2086
2081
2061
1995
1967
1999
2020
2024
2018
2012
2016
2029
2047
2055
2053
2040
2030
2019
2011
2011
2033
2042
2030
2018
1994
1965
1969
1994
2026
2051
2067
2076
2082
2098
2079
2031
2001
2006
2019
2036
2031
2000
1979
1987
1978
1979
2001
2018
2026
2039
2074
2067
2047
2026
2001
1991
2010
2032
2039
2034
2041
2059
2061
2058
2022
1986
1990
2024
2062
2077
2062
2045
2047
2066
2065
2025
1964
1928
1950
1997
2035
2054
2043
2021
2001
2016
2069
2113
2108
2061
2020
2014
2013
2022
2044
2063
2050
2026
2029
2029
2020
2026
2041
2055
2067
2062
2038
2033
2041
2050
2066
2063
2049
2059
2084
2089
2080
2106
2140
2120
2074
2000
1958
1965
1996
2031
2083
2100
2087
2054
2026
2022
2022
2021
2000
1968
1980
2026
2107
2173
2192
2164
2121
2087
2069
2053
2040
2061
2076
2134
2200
2197
2159
2126
2117
2119
2147
2152
2135
2132
2144
2146
2140
2136
2120
2091
2069
2057
2055
2070
2077
2071
2071
2066
2053
2053
2057
2064
2078
2093
2108
2106
2084
2056
2022
1997
1994
2010
2023
2040
2068
2093
2090
2080
2047
2040
2077
2092
2084
2080
2058
2032
2013
2012
2041
2056
2032
2015
2029
2032
2029
2077
2139
2160
2149
2127
2119
2096
