# bioPlux Text File Format
# Version: 1
# StartDateTime: 2011-07-18 10:49:31
# SamplingFrequency: 1000
# SampledChannels: 1 2 3 4
# SamplingResolution: 12
# AcquiringDevice: 00:07:80:42:0F:95
# EndOfHeader
0	0	0	3551	4	1363	812
1	0	0	2921	4	1366	812
2	0	0	2576	3	1363	812
3	0	0	2167	3	1361	812
4	0	0	1744	4	1346	812
5	0	0	1253	3	1335	812
6	0	0	855	3	1318	811
7	0	0	616	3	1304	811
8	0	0	445	4	1279	811
9	0	0	236	4	1259	812
10	0	0	170	5	1249	811
11	0	0	820	5	1244	811
12	0	0	1312	5	1251	811
13	0	0	2147	5	1265	811
14	0	0	2803	5	1277	812
15	0	0	3143	5	1291	812
16	0	0	3358	5	1308	812
17	0	0	3463	5	1322	812
18	0	0	3503	5	1336	812
19	0	0	3708	5	1357	812
20	0	0	3560	4	1363	812
21	0	0	2920	4	1366	811
22	0	0	2542	3	1363	812
23	0	0	2120	4	1357	812
24	0	0	1718	4	1347	812
25	0	0	1254	4	1334	812
26	0	0	838	4	1316	812
27	0	0	615	3	1301	812
28	0	0	457	4	1282	812
29	0	0	242	4	1263	812
30	0	0	162	5	1251	811
31	0	0	818	5	1246	812
32	0	0	1314	5	1249	812
33	0	0	2118	5	1262	811
34	0	0	2802	5	1276	812
35	0	0	3154	5	1291	811
36	0	0	3333	5	1304	811
37	0	0	3438	4	1322	812
38	0	0	3498	5	1340	812
39	0	0	3707	5	1353	812
40	0	0	3570	4	1363	812
41	0	0	2947	4	1363	812
42	0	0	2576	4	1364	812
43	0	0	2143	4	1358	812
44	0	0	1724	4	1346	811
45	0	0	1235	4	1333	812
46	0	0	825	4	1317	812
47	0	0	624	3	1303	812
48	0	0	469	3	1283	812
49	0	0	246	4	1262	812
50	0	0	161	5	1250	811
51	0	0	805	5	1247	811
52	0	0	1305	5	1251	811
53	0	0	2133	5	1264	811
54	0	0	2824	5	1276	811
55	0	0	3154	5	1294	811
56	0	0	3352	5	1305	812
57	0	0	3457	4	1322	812
58	0	0	3481	5	1336	812
59	0	0	3696	5	1351	812
60	0	0	3552	4	1362	812
61	0	0	2921	4	1366	812
62	0	0	2536	4	1364	812
63	0	0	2123	4	1357	812
64	0	0	1699	3	1346	812
65	0	0	1199	3	1333	812
66	0	0	814	4	1319	812
67	0	0	603	4	1301	812
68	0	0	464	4	1280	811
69	0	0	245	4	1260	812
70	0	0	163	5	1256	811
71	0	0	796	5	1250	811
72	0	0	1266	4	1251	812
73	0	0	2115	5	1263	811
74	0	0	2802	5	1277	812
75	0	0	3146	5	1290	811
76	0	0	3337	5	1309	812
77	0	0	3446	5	1323	812
78	0	0	3493	5	1340	812
79	0	0	3704	5	1354	812
80	0	0	3583	4	1365	812
81	0	0	2956	4	1365	812
82	0	0	2582	4	1363	812
83	0	0	2180	2	1359	812
84	0	0	1735	4	1348	811
85	0	0	1246	4	1333	811
86	0	0	856	4	1320	812
87	0	0	653	3	1302	812
88	0	0	515	4	1279	812
89	0	0	274	4	1263	812
90	0	0	183	5	1253	811
91	0	0	826	5	1251	812
92	0	0	1345	5	1251	812
93	0	0	2200	5	1265	811
94	0	0	2884	5	1278	812
95	0	0	3235	5	1292	812
96	0	0	3450	5	1308	812
97	0	0	3553	5	1324	812
98	0	0	3584	5	1340	812
99	0	0	3758	5	1357	812
100	0	0	3627	4	1359	812
101	0	0	2990	4	1362	812
102	0	0	2620	3	1364	812
103	0	0	2195	4	1357	812
104	0	0	1762	3	1346	812
105	0	0	1272	4	1335	812
106	0	0	875	3	1318	812
107	0	0	672	4	1301	812
108	0	0	496	4	1279	812
109	0	0	262	4	1263	812
110	0	0	162	5	1256	811
111	0	0	807	5	1250	811
112	0	0	1333	5	1251	812
113	0	0	2184	5	1262	811
114	0	0	2866	6	1277	812
115	0	0	3185	5	1292	811
116	0	0	3384	5	1307	812
117	0	0	3505	4	1323	812
118	0	0	3549	5	1340	812
119	0	0	3738	5	1355	811
120	0	0	3604	4	1364	812
121	0	0	2975	4	1364	812
122	0	0	2601	3	1362	812
123	0	0	2159	4	1356	812
124	0	0	1761	4	1347	812
125	0	0	1268	4	1336	812
126	0	0	866	4	1319	812
127	0	0	635	4	1304	812
0	0	0	465	4	1279	812
1	0	0	244	3	1262	812
2	0	0	145	5	1252	811
3	0	0	801	5	1252	811
4	0	0	1323	4	1252	811
5	0	0	2180	5	1263	812
6	0	0	2873	6	1276	812
7	0	0	3214	5	1294	812
8	0	0	3416	5	1306	812
9	0	0	3518	5	1324	812
10	0	0	3556	5	1336	811
11	0	0	3739	5	1353	812
12	0	0	3607	4	1362	812
13	0	0	2984	4	1365	812
14	0	0	2580	4	1363	812
15	0	0	2145	4	1357	812
16	0	0	1716	5	1345	811
17	0	0	1236	5	1334	811
18	0	0	840	3	1321	812
19	0	0	617	3	1303	812
20	0	0	473	4	1283	811
21	0	0	247	5	1261	811
22	0	0	154	5	1256	812
23	0	0	806	5	1253	812
24	0	0	1327	5	1251	811
25	0	0	2182	5	1261	811
26	0	0	2869	6	1276	811
27	0	0	3169	5	1292	812
28	0	0	3373	5	1306	812
29	0	0	3510	5	1325	812
30	0	0	3548	5	1335	812
31	0	0	3732	4	1354	812
32	0	0	3624	4	1362	811
33	0	0	2963	4	1366	812
34	0	0	2581	4	1363	812
35	0	0	2153	4	1359	812
36	0	0	1706	4	1347	812
37	0	0	1206	4	1334	812
38	0	0	785	4	1320	812
39	0	0	569	4	1302	812
40	0	0	426	4	1280	812
41	0	0	221	4	1264	812
42	0	0	122	5	1251	812
43	0	0	769	5	1246	811
44	0	0	1281	5	1251	811
45	0	0	2129	5	1266	811
46	0	0	2827	5	1275	812
47	0	0	3173	5	1291	811
48	0	0	3392	5	1308	812
49	0	0	3510	4	1323	812
50	0	0	3552	5	1339	812
51	0	0	3734	5	1353	812
52	0	0	3608	4	1365	813
53	0	0	2952	4	1367	812
54	0	0	2571	4	1364	812
55	0	0	2154	4	1357	812
56	0	0	1728	4	1346	812
57	0	0	1220	4	1334	812
58	0	0	815	4	1318	811
59	0	0	588	4	1304	812
60	0	0	439	4	1280	811
61	0	0	233	4	1261	812
62	0	0	143	5	1255	811
63	0	0	807	5	1252	812
64	0	0	1333	5	1253	812
65	0	0	2190	5	1264	812
66	0	0	2867	4	1278	812
67	0	0	3199	5	1292	811
68	0	0	3423	5	1308	812
69	0	0	3544	5	1323	812
70	0	0	3574	5	1339	812
71	0	0	3747	5	1353	812
72	0	0	3651	4	1361	812
73	0	0	3002	4	1365	812
74	0	0	2616	4	1362	812
75	0	0	2185	4	1358	812
76	0	0	1737	3	1346	812
77	0	0	1220	4	1333	811
78	0	0	804	4	1320	812
79	0	0	565	4	1305	812
80	0	0	435	4	1284	811
81	0	0	228	4	1260	812
82	0	0	113	6	1253	812
83	0	0	752	5	1246	812
84	0	0	1281	5	1250	811
85	0	0	2127	5	1263	811
86	0	0	2852	5	1275	811
87	0	0	3233	5	1290	812
88	0	0	3432	5	1308	812
89	0	0	3541	5	1323	812
90	0	0	3553	5	1338	812
91	0	0	3737	5	1354	812
92	0	0	3621	3	1360	812
93	0	0	2974	4	1362	812
94	0	0	2583	4	1364	812
95	0	0	2157	4	1358	812
96	0	0	1726	4	1348	812
97	0	0	1212	4	1332	811
98	0	0	773	3	1320	811
99	0	0	543	4	1305	812
100	0	0	392	4	1280	811
101	0	0	202	4	1263	812
102	0	0	99	5	1251	811
103	0	0	759	5	1250	811
104	0	0	1303	5	1250	812
105	0	0	2146	5	1262	812
106	0	0	2838	5	1277	812
107	0	0	3194	5	1289	811
108	0	0	3416	5	1304	811
109	0	0	3544	5	1322	812
110	0	0	3570	5	1336	812
111	0	0	3746	5	1355	812
112	0	0	3669	5	1363	812
113	0	0	3012	4	1364	812
114	0	0	2609	3	1364	812
115	0	0	2169	4	1357	812
116	0	0	1728	4	1346	811
117	0	0	1197	4	1332	812
118	0	0	773	4	1318	812
119	0	0	549	4	1301	811
120	0	0	412	4	1284	812
121	0	0	213	4	1263	811
122	0	0	106	6	1249	811
123	0	0	775	5	1247	811
124	0	0	1298	6	1250	811
125	0	0	2151	5	1262	812
126	0	0	2864	5	1274	812
127	0	0	3236	5	1289	811
0	0	0	3452	5	1303	811
1	0	0	3560	5	1319	812
2	0	0	3564	5	1337	812
3	0	0	3742	4	1350	812
4	0	0	3662	4	1357	811
5	0	0	3022	4	1364	812
6	0	0	2603	4	1362	812
7	0	0	2159	4	1356	812
8	0	0	1703	4	1345	812
9	0	0	1178	4	1331	812
10	0	0	772	4	1316	811
11	0	0	548	4	1303	811
12	0	0	421	4	1279	812
13	0	0	218	4	1264	812
14	0	0	112	6	1248	811
15	0	0	755	5	1249	811
16	0	0	1293	5	1251	811
17	0	0	2139	5	1259	811
18	0	0	2823	5	1273	812
19	0	0	3209	5	1288	811
20	0	0	3459	5	1306	812
21	0	0	3568	5	1320	812
22	0	0	3580	5	1336	812
23	0	0	3750	5	1351	812
24	0	0	3667	4	1362	811
25	0	0	3011	4	1360	812
26	0	0	2593	3	1362	812
27	0	0	2154	4	1356	812
28	0	0	1683	4	1345	812
29	0	0	1174	3	1331	812
30	0	0	768	4	1317	811
31	0	0	552	2	1301	812
32	0	0	417	4	1283	811
33	0	0	215	4	1259	811
34	0	0	106	5	1249	811
35	0	0	754	5	1246	811
36	0	0	1275	5	1249	811
37	0	0	2111	5	1258	811
38	0	0	2819	5	1274	812
39	0	0	3212	5	1289	811
40	0	0	3448	5	1304	811
41	0	0	3556	5	1319	812
42	0	0	3599	5	1336	812
43	0	0	3763	5	1353	812
44	0	0	3662	3	1356	812
45	0	0	3010	4	1359	812
46	0	0	2603	4	1359	812
47	0	0	2145	4	1354	812
48	0	0	1696	4	1345	811
49	0	0	1179	4	1330	812
50	0	0	787	4	1318	811
51	0	0	577	4	1301	811
52	0	0	445	4	1281	811
53	0	0	231	4	1261	812
54	0	0	114	6	1247	812
55	0	0	757	5	1245	811
56	0	0	1305	5	1249	812
57	0	0	2125	5	1261	811
58	0	0	2848	5	1273	812
59	0	0	3231	5	1286	811
60	0	0	3473	5	1304	811
61	0	0	3599	5	1317	812
62	0	0	3616	5	1333	812
63	0	0	3771	5	1351	812
64	0	0	3680	3	1359	812
65	0	0	3032	4	1360	812
66	0	0	2602	4	1359	812
67	0	0	2140	4	1353	812
68	0	0	1699	4	1344	811
69	0	0	1180	3	1329	812
70	0	0	777	4	1315	811
71	0	0	559	4	1298	812
72	0	0	428	4	1280	811
73	0	0	222	3	1262	811
74	0	0	107	5	1252	811
75	0	0	735	5	1246	811
76	0	0	1259	5	1248	811
77	0	0	2112	5	1259	812
78	0	0	2862	5	1272	812
79	0	0	3232	5	1286	811
80	0	0	3436	5	1304	812
81	0	0	3552	5	1318	812
82	0	0	3557	5	1335	812
83	0	0	3734	5	1349	812
84	0	0	3631	3	1355	812
85	0	0	2974	4	1360	811
86	0	0	2564	4	1362	812
87	0	0	2125	4	1355	812
88	0	0	1712	4	1345	811
89	0	0	1200	3	1333	812
90	0	0	769	4	1316	811
91	0	0	554	4	1300	812
92	0	0	397	4	1282	811
93	0	0	206	4	1260	812
94	0	0	100	6	1253	813
95	0	0	718	5	1246	811
96	0	0	1262	5	1249	811
97	0	0	2101	5	1260	811
98	0	0	2835	5	1271	812
99	0	0	3207	5	1287	811
100	0	0	3427	5	1304	811
101	0	0	3558	5	1319	812
102	0	0	3593	5	1331	812
103	0	0	3752	5	1351	812
104	0	0	3660	4	1356	812
105	0	0	2971	4	1364	812
106	0	0	2563	4	1358	812
107	0	0	2140	4	1354	812
108	0	0	1706	4	1342	812
109	0	0	1178	4	1330	812
110	0	0	750	4	1315	811
111	0	0	536	4	1300	812
112	0	0	411	4	1280	811
113	0	0	214	4	1257	812
114	0	0	106	4	1252	811
115	0	0	694	5	1244	811
116	0	0	1253	5	1248	811
117	0	0	2112	5	1258	811
118	0	0	2848	5	1269	811
119	0	0	3218	5	1285	811
120	0	0	3430	5	1303	812
121	0	0	3544	5	1318	812
122	0	0	3568	5	1335	812
123	0	0	3741	5	1351	811
124	0	0	3653	4	1359	812
125	0	0	2964	4	1359	811
126	0	0	2552	4	1360	812
127	0	0	2138	3	1353	812
0	0	0	1712	3	1342	812
1	0	0	1195	4	1333	813
2	0	0	772	4	1316	811
3	0	0	533	4	1298	812
4	0	0	404	4	1281	811
5	0	0	208	3	1259	812
6	0	0	104	5	1250	811
7	0	0	714	5	1245	812
8	0	0	1236	5	1246	811
9	0	0	2093	5	1257	812
10	0	0	2846	5	1272	811
11	0	0	3254	5	1287	811
12	0	0	3473	5	1301	811
13	0	0	3576	5	1317	812
14	0	0	3608	5	1333	812
15	0	0	3767	4	1349	812
16	0	0	3677	4	1355	812
17	0	0	2981	3	1363	811
18	0	0	2561	4	1361	812
19	0	0	2156	4	1353	812
20	0	0	1713	3	1342	812
21	0	0	1202	4	1329	812
22	0	0	764	4	1317	811
23	0	0	528	4	1301	811
24	0	0	415	4	1280	811
25	0	0	214	3	1257	812
26	0	0	107	5	1250	811
27	0	0	714	5	1247	811
28	0	0	1264	5	1244	811
29	0	0	2107	5	1256	812
30	0	0	2840	6	1271	812
31	0	0	3219	5	1287	811
32	0	0	3431	5	1302	811
33	0	0	3530	5	1316	812
34	0	0	3560	5	1333	812
35	0	0	3732	5	1350	812
36	0	0	3646	4	1357	812
37	0	0	2967	4	1361	812
38	0	0	2542	3	1359	812
39	0	0	2121	4	1353	812
40	0	0	1694	3	1344	812
41	0	0	1177	3	1330	812
42	0	0	733	4	1313	811
43	0	0	508	4	1299	812
44	0	0	395	4	1277	812
45	0	0	204	3	1256	812
46	0	0	101	4	1246	812
47	0	0	671	5	1246	811
48	0	0	1180	5	1245	812
49	0	0	2049	5	1257	811
50	0	0	2821	5	1271	811
51	0	0	3238	5	1284	811
52	0	0	3439	5	1301	810
53	0	0	3535	5	1318	812
54	0	0	3518	6	1333	812
55	0	0	3705	4	1347	812
56	0	0	3635	4	1352	812
57	0	0	2990	4	1360	812
58	0	0	2550	4	1357	812
59	0	0	2122	4	1352	812
60	0	0	1718	4	1342	812
61	0	0	1185	3	1330	812
62	0	0	756	3	1314	811
63	0	0	519	3	1300	812
64	0	0	375	4	1280	811
65	0	0	194	4	1256	812
66	0	0	96	5	1248	811
67	0	0	714	5	1247	811
68	0	0	1243	5	1247	811
69	0	0	2097	5	1257	812
70	0	0	2838	6	1268	811
71	0	0	3210	5	1285	811
72	0	0	3430	5	1301	812
73	0	0	3516	5	1315	812
74	0	0	3524	5	1333	812
75	0	0	3711	5	1349	813
76	0	0	3664	4	1356	812
77	0	0	3011	4	1358	812
78	0	0	2565	4	1359	812
79	0	0	2131	4	1354	812
80	0	0	1684	3	1342	812
81	0	0	1164	4	1326	812
82	0	0	751	4	1312	811
83	0	0	519	4	1299	812
84	0	0	407	4	1280	811
85	0	0	212	3	1258	811
86	0	0	106	4	1248	811
87	0	0	667	5	1243	812
88	0	0	1205	5	1246	812
89	0	0	2053	5	1257	811
90	0	0	2815	5	1270	811
91	0	0	3208	5	1285	811
92	0	0	3435	5	1300	811
93	0	0	3527	5	1318	812
94	0	0	3537	5	1329	812
95	0	0	3720	5	1346	812
96	0	0	3683	3	1351	812
97	0	0	3005	4	1359	812
98	0	0	2566	4	1358	812
99	0	0	2115	4	1351	811
100	0	0	1676	3	1341	812
101	0	0	1185	3	1327	812
102	0	0	760	4	1313	811
103	0	0	528	4	1299	811
104	0	0	396	4	1282	811
105	0	0	207	4	1259	811
106	0	0	105	4	1250	811
107	0	0	695	5	1245	812
108	0	0	1246	5	1245	811
109	0	0	2073	5	1255	811
110	0	0	2819	5	1267	811
111	0	0	3207	5	1285	811
112	0	0	3423	5	1301	812
113	0	0	3538	5	1313	811
114	0	0	3552	5	1332	812
115	0	0	3729	5	1345	812
116	0	0	3684	4	1356	812
117	0	0	3016	4	1360	812
118	0	0	2598	4	1357	812
119	0	0	2138	3	1351	812
120	0	0	1704	4	1341	812
121	0	0	1195	4	1328	812
122	0	0	767	4	1315	812
123	0	0	538	4	1298	811
124	0	0	414	4	1279	812
125	0	0	219	4	1258	811
126	0	0	112	4	1249	811
127	0	0	685	5	1245	812
0	0	0	1241	6	1247	811
1	0	0	2084	5	1255	811
2	0	0	2839	5	1267	811
3	0	0	3225	5	1283	811
4	0	0	3441	5	1298	811
5	0	0	3564	5	1314	812
6	0	0	3587	5	1331	812
7	0	0	3749	4	1346	812
8	0	0	3707	4	1357	812
9	0	0	3035	4	1359	813
10	0	0	2605	3	1356	812
11	0	0	2172	4	1351	812
12	0	0	1731	4	1341	812
13	0	0	1217	4	1327	812
14	0	0	786	4	1311	812
15	0	0	556	5	1298	811
16	0	0	428	4	1280	811
17	0	0	227	3	1253	811
18	0	0	116	4	1248	811
19	0	0	709	5	1242	811
20	0	0	1254	6	1241	811
21	0	0	2086	6	1253	811
22	0	0	2817	5	1268	812
23	0	0	3197	5	1283	811
24	0	0	3417	5	1298	812
25	0	0	3545	5	1313	812
26	0	0	3550	5	1331	812
27	0	0	3721	5	1345	811
28	0	0	3688	4	1355	812
29	0	0	3014	4	1355	812
30	0	0	2590	3	1357	812
31	0	0	2161	4	1353	813
32	0	0	1726	3	1339	812
33	0	0	1204	4	1328	812
34	0	0	775	4	1312	812
35	0	0	544	3	1298	811
36	0	0	412	4	1276	812
37	0	0	218	3	1258	811
38	0	0	111	4	1248	811
39	0	0	674	5	1241	811
40	0	0	1246	5	1244	812
41	0	0	2081	5	1256	811
42	0	0	2823	5	1270	811
43	0	0	3215	5	1284	811
44	0	0	3450	5	1297	812
45	0	0	3575	5	1313	811
46	0	0	3599	5	1327	812
47	0	0	3758	5	1346	811
48	0	0	3720	3	1355	812
49	0	0	3052	4	1360	812
50	0	0	2621	4	1355	812
51	0	0	2212	4	1352	812
52	0	0	1754	3	1342	812
53	0	0	1220	4	1326	812
54	0	0	789	4	1311	812
55	0	0	558	4	1297	812
56	0	0	444	4	1278	812
57	0	0	234	4	1257	811
58	0	0	121	3	1246	811
59	0	0	702	5	1244	812
60	0	0	1262	5	1242	811
61	0	0	2088	5	1255	811
62	0	0	2828	5	1266	812
63	0	0	3201	4	1282	811
64	0	0	3439	5	1298	812
65	0	0	3556	5	1312	811
66	0	0	3594	5	1326	812
67	0	0	3752	4	1345	812
68	0	0	3720	4	1355	812
69	0	0	3054	4	1354	812
70	0	0	2615	4	1354	812
71	0	0	2193	4	1350	812
72	0	0	1740	4	1340	812
73	0	0	1200	4	1327	813
74	0	0	770	4	1310	812
75	0	0	540	4	1296	811
76	0	0	430	4	1277	812
77	0	0	225	4	1256	811
78	0	0	115	4	1247	811
79	0	0	649	5	1244	812
80	0	0	1214	5	1241	811
81	0	0	2061	5	1254	811
82	0	0	2799	5	1269	812
83	0	0	3199	5	1282	811
84	0	0	3433	5	1295	812
85	0	0	3558	5	1311	812
86	0	0	3598	5	1326	812
87	0	0	3753	5	1345	811
88	0	0	3718	4	1354	812
89	0	0	3053	4	1357	813
90	0	0	2617	3	1358	812
91	0	0	2184	4	1348	812
92	0	0	1747	4	1338	812
93	0	0	1210	3	1324	812
94	0	0	772	4	1311	812
95	0	0	541	4	1295	812
96	0	0	430	4	1275	811
97	0	0	225	3	1255	811
98	0	0	115	4	1246	811
99	0	0	672	5	1244	812
100	0	0	1245	5	1242	811
101	0	0	2073	5	1252	811
102	0	0	2831	5	1266	812
103	0	0	3246	5	1280	811
104	0	0	3476	5	1297	811
105	0	0	3603	5	1311	812
106	0	0	3630	5	1329	812
107	0	0	3776	5	1344	812
108	0	0	3757	4	1354	812
109	0	0	3096	4	1350	813
110	0	0	2658	4	1353	812
111	0	0	2218	4	1347	812
112	0	0	1782	3	1337	812
113	0	0	1252	4	1328	812
114	0	0	808	4	1309	812
115	0	0	581	4	1294	812
116	0	0	460	4	1277	812
117	0	0	243	4	1258	812
118	0	0	123	4	1245	812
119	0	0	653	5	1241	811
120	0	0	1228	5	1242	811
121	0	0	2063	5	1253	812
122	0	0	2831	5	1265	811
123	0	0	3241	5	1281	812
124	0	0	3474	5	1295	811
125	0	0	3587	5	1314	811
126	0	0	3613	5	1325	812
127	0	0	3763	6	1345	811
0	0	0	3740	3	1351	811
1	0	0	3075	4	1352	812
2	0	0	2614	4	1356	812
3	0	0	2178	3	1350	812
4	0	0	1742	5	1339	812
5	0	0	1210	4	1327	812
6	0	0	768	4	1311	812
7	0	0	522	3	1296	811
8	0	0	410	3	1278	811
9	0	0	213	4	1256	812
10	0	0	108	4	1246	811
11	0	0	623	5	1241	811
12	0	0	1177	5	1239	811
13	0	0	2010	5	1253	811
14	0	0	2798	4	1267	812
15	0	0	3235	5	1280	811
16	0	0	3451	5	1296	811
17	0	0	3563	5	1312	812
18	0	0	3570	5	1324	812
19	0	0	3735	5	1347	812
20	0	0	3741	3	1354	812
21	0	0	3069	4	1351	812
22	0	0	2616	4	1355	812
23	0	0	2174	4	1349	812
24	0	0	1756	4	1338	812
25	0	0	1241	4	1325	812
26	0	0	790	4	1309	812
27	0	0	541	4	1296	811
28	0	0	419	3	1275	813
29	0	0	219	4	1252	811
30	0	0	111	4	1245	812
31	0	0	644	5	1237	813
32	0	0	1214	5	1243	811
33	0	0	2051	5	1252	811
34	0	0	2828	5	1263	812
35	0	0	3256	5	1280	811
36	0	0	3481	5	1296	812
37	0	0	3612	5	1312	811
38	0	0	3647	4	1324	811
39	0	0	3784	5	1343	812
40	0	0	3789	4	1353	812
41	0	0	3109	4	1356	812
42	0	0	2647	4	1355	812
43	0	0	2215	4	1349	812
44	0	0	1773	4	1340	812
45	0	0	1249	4	1325	811
46	0	0	803	3	1309	812
47	0	0	549	4	1295	812
48	0	0	411	4	1278	812
49	0	0	216	4	1254	811
50	0	0	109	4	1244	812
51	0	0	626	5	1242	812
52	0	0	1190	5	1241	811
53	0	0	2022	5	1252	811
54	0	0	2802	5	1267	812
55	0	0	3218	5	1279	812
56	0	0	3443	5	1293	812
57	0	0	3557	5	1310	812
58	0	0	3596	5	1324	812
59	0	0	3748	5	1342	812
60	0	0	3752	4	1353	811
61	0	0	3082	4	1354	812
62	0	0	2609	4	1354	811
63	0	0	2162	4	1349	811
64	0	0	1712	3	1339	813
65	0	0	1189	3	1324	812
66	0	0	747	4	1312	812
67	0	0	483	4	1296	812
68	0	0	357	4	1278	811
69	0	0	186	4	1251	812
70	0	0	92	3	1247	811
71	0	0	610	5	1242	812
72	0	0	1179	5	1241	811
73	0	0	1987	5	1251	812
74	0	0	2776	6	1263	811
75	0	0	3201	5	1280	811
76	0	0	3427	5	1296	812
77	0	0	3539	5	1308	812
78	0	0	3581	5	1325	812
79	0	0	3743	5	1344	812
80	0	0	3741	4	1352	812
81	0	0	3077	4	1354	812
82	0	0	2607	4	1354	812
83	0	0	2179	4	1346	812
84	0	0	1732	4	1338	812
85	0	0	1208	3	1324	812
86	0	0	776	4	1307	811
87	0	0	510	4	1295	811
88	0	0	383	4	1273	811
89	0	0	200	4	1255	811
90	0	0	102	4	1247	812
91	0	0	620	5	1238	812
92	0	0	1189	5	1240	811
93	0	0	1992	5	1252	811
94	0	0	2778	5	1265	811
95	0	0	3200	5	1278	812
96	0	0	3425	5	1294	812
97	0	0	3554	5	1310	812
98	0	0	3594	5	1328	811
99	0	0	3749	5	1341	812
100	0	0	3756	4	1352	812
101	0	0	3096	4	1350	812
102	0	0	2619	4	1352	812
103	0	0	2173	4	1346	812
104	0	0	1733	4	1339	812
105	0	0	1199	2	1323	812
106	0	0	742	4	1307	812
107	0	0	483	4	1291	811
108	0	0	331	4	1275	811
109	0	0	172	4	1252	811
110	0	0	86	3	1244	811
111	0	0	600	5	1239	812
112	0	0	1176	5	1237	812
113	0	0	1990	5	1250	811
114	0	0	2774	5	1263	812
115	0	0	3180	4	1278	812
116	0	0	3425	5	1293	812
117	0	0	3546	5	1309	812
118	0	0	3592	5	1324	812
119	0	0	3747	5	1339	812
120	0	0	3757	4	1347	812
121	0	0	3078	4	1349	812
122	0	0	2622	4	1353	812
123	0	0	2185	4	1344	812
124	0	0	1723	4	1337	812
125	0	0	1215	4	1324	812
126	0	0	787	4	1308	812
127	0	0	535	4	1293	812
0	0	0	384	4	1274	811
1	0	0	202	4	1250	811
2	0	0	104	4	1241	813
3	0	0	593	5	1238	812
4	0	0	1188	5	1238	812
5	0	0	2022	5	1249	811
6	0	0	2817	5	1263	811
7	0	0	3247	5	1276	812
8	0	0	3503	5	1290	812
9	0	0	3628	5	1307	812
10	0	0	3634	5	1321	812
11	0	0	3778	5	1339	812
12	0	0	3830	4	1348	811
13	0	0	3179	4	1348	812
14	0	0	2718	3	1349	812
15	0	0	2303	3	1344	812
16	0	0	1837	4	1333	812
17	0	0	1297	3	1321	812
18	0	0	865	3	1306	812
19	0	0	596	4	1292	812
20	0	0	435	4	1274	812
21	0	0	231	4	1253	812
22	0	0	118	4	1239	811
23	0	0	636	5	1239	812
24	0	0	1232	5	1235	812
25	0	0	2082	5	1248	811
26	0	0	2862	6	1262	812
27	0	0	3315	5	1275	812
28	0	0	3540	5	1289	811
29	0	0	3675	5	1306	812
30	0	0	3655	5	1321	811
31	0	0	3787	5	1336	812
32	0	0	3836	4	1346	812
33	0	0	3175	4	1352	812
34	0	0	2695	4	1348	812
35	0	0	2243	4	1345	812
36	0	0	1783	3	1334	812
37	0	0	1218	3	1320	812
38	0	0	767	3	1305	812
39	0	0	515	4	1292	812
40	0	0	389	4	1272	812
41	0	0	204	4	1250	811
42	0	0	102	4	1243	813
43	0	0	568	5	1237	812
44	0	0	1133	5	1235	811
45	0	0	1960	5	1247	811
46	0	0	2768	5	1261	811
47	0	0	3207	5	1275	812
48	0	0	3441	5	1289	811
49	0	0	3587	5	1306	812
50	0	0	3622	5	1320	812
51	0	0	3765	5	1340	812
52	0	0	3808	4	1346	812
53	0	0	3148	4	1352	812
54	0	0	2667	4	1347	812
55	0	0	2224	4	1346	812
56	0	0	1782	4	1336	812
57	0	0	1220	4	1320	812
58	0	0	761	3	1307	812
59	0	0	496	4	1290	812
60	0	0	382	4	1274	812
61	0	0	198	4	1248	811
62	0	0	100	4	1239	811
63	0	0	605	5	1234	811
64	0	0	1156	5	1235	812
65	0	0	1982	5	1247	812
66	0	0	2799	5	1261	812
67	0	0	3254	6	1274	812
68	0	0	3495	5	1290	812
69	0	0	3629	5	1306	811
70	0	0	3683	5	1319	811
71	0	0	3801	5	1339	812
72	0	0	3841	4	1345	812
73	0	0	3187	4	1347	812
74	0	0	2697	4	1347	812
75	0	0	2261	3	1346	811
76	0	0	1812	4	1335	812
77	0	0	1248	3	1322	812
78	0	0	764	4	1308	812
79	0	0	514	4	1291	812
80	0	0	406	4	1270	812
81	0	0	210	4	1250	811
82	0	0	106	3	1239	813
83	0	0	574	5	1237	812
84	0	0	1118	5	1235	812
85	0	0	1937	5	1250	811
86	0	0	2758	5	1260	811
87	0	0	3220	4	1273	812
88	0	0	3453	5	1288	813
89	0	0	3571	5	1303	811
90	0	0	3619	5	1322	812
91	0	0	3762	5	1338	811
92	0	0	3812	4	1344	812
93	0	0	3155	4	1350	812
94	0	0	2666	4	1352	813
95	0	0	2222	4	1344	812
96	0	0	1770	4	1335	811
97	0	0	1213	4	1323	812
98	0	0	724	3	1308	812
99	0	0	435	4	1290	812
100	0	0	324	4	1273	812
101	0	0	167	4	1252	811
102	0	0	82	4	1242	812
103	0	0	525	5	1237	811
104	0	0	1076	5	1236	811
105	0	0	1893	5	1249	811
106	0	0	2739	5	1263	811
107	0	0	3228	5	1278	811
108	0	0	3450	5	1292	812
109	0	0	3573	5	1305	812
110	0	0	3610	5	1320	811
111	0	0	3763	5	1338	812
112	0	0	3772	4	1348	812
113	0	0	3136	4	1348	812
114	0	0	2687	4	1350	811
115	0	0	2246	3	1345	812
116	0	0	1780	3	1335	812
117	0	0	1236	4	1324	812
118	0	0	779	3	1310	812
119	0	0	490	4	1294	812
120	0	0	372	4	1274	811
121	0	0	192	4	1252	812
122	0	0	97	4	1240	812
123	0	0	551	5	1235	812
124	0	0	1110	5	1236	811
125	0	0	1926	5	1246	812
126	0	0	2754	5	1260	811
127	0	0	3248	5	1278	812
0	0	0	3487	4	1288	813
1	0	0	3614	5	1308	812
2	0	0	3645	5	1321	811
3	0	0	3785	5	1337	811
4	0	0	3794	4	1344	812
5	0	0	3145	3	1348	812
6	0	0	2696	4	1351	812
7	0	0	2238	4	1345	812
8	0	0	1786	4	1334	811
9	0	0	1243	3	1322	812
10	0	0	777	3	1308	812
11	0	0	456	4	1292	812
12	0	0	338	3	1276	811
13	0	0	174	4	1249	811
14	0	0	87	4	1242	811
15	0	0	543	5	1235	811
16	0	0	1096	5	1238	812
17	0	0	1929	4	1246	812
18	0	0	2715	5	1259	811
19	0	0	3190	5	1275	812
20	0	0	3437	5	1289	812
21	0	0	3584	5	1306	812
22	0	0	3637	5	1318	812
23	0	0	3778	5	1338	812
24	0	0	3792	4	1345	812
25	0	0	3138	4	1352	812
26	0	0	2689	4	1352	812
27	0	0	2212	4	1346	812
28	0	0	1768	4	1335	812
29	0	0	1242	4	1324	812
30	0	0	783	3	1307	812
31	0	0	501	4	1293	812
32	0	0	370	4	1273	812
33	0	0	192	3	1252	811
34	0	0	97	4	1239	812
35	0	0	538	5	1237	811
36	0	0	1085	5	1239	812
37	0	0	1904	5	1247	811
38	0	0	2725	5	1259	812
39	0	0	3215	6	1273	811
40	0	0	3453	5	1289	812
41	0	0	3606	5	1304	812
42	0	0	3679	5	1324	812
43	0	0	3805	5	1340	812
44	0	0	3828	4	1350	812
45	0	0	3183	4	1352	812
46	0	0	2715	3	1350	812
47	0	0	2256	3	1345	811
48	0	0	1814	4	1335	812
49	0	0	1266	4	1321	812
50	0	0	763	4	1308	812
51	0	0	488	4	1291	812
52	0	0	373	4	1277	812
53	0	0	194	4	1253	812
54	0	0	99	4	1238	812
55	0	0	553	5	1238	811
56	0	0	1090	5	1237	811
57	0	0	1916	5	1248	811
58	0	0	2755	5	1261	811
59	0	0	3224	5	1275	812
60	0	0	3467	4	1289	812
61	0	0	3621	5	1307	812
62	0	0	3681	5	1320	812
63	0	0	3805	5	1336	812
64	0	0	3837	4	1349	812
65	0	0	3180	4	1349	812
66	0	0	2710	4	1348	812
67	0	0	2252	4	1343	812
68	0	0	1790	3	1335	812
69	0	0	1237	3	1321	812
70	0	0	784	4	1305	812
71	0	0	512	4	1291	812
72	0	0	375	4	1273	811
73	0	0	196	4	1252	811
74	0	0	99	4	1239	811
75	0	0	546	5	1239	811
76	0	0	1085	6	1236	811
77	0	0	1929	5	1247	811
78	0	0	2764	5	1261	811
79	0	0	3256	5	1276	812
80	0	0	3504	5	1289	812
81	0	0	3648	5	1305	812
82	0	0	3662	4	1318	812
83	0	0	3790	5	1337	812
84	0	0	3839	5	1349	812
85	0	0	3186	4	1352	812
86	0	0	2729	4	1348	811
87	0	0	2291	4	1344	811
88	0	0	1831	4	1336	812
89	0	0	1268	5	1324	812
90	0	0	795	3	1306	812
91	0	0	507	4	1291	812
92	0	0	377	4	1275	812
93	0	0	197	4	1253	812
94	0	0	98	5	1241	812
95	0	0	536	5	1236	812
96	0	0	1111	5	1235	811
97	0	0	1947	5	1248	811
98	0	0	2773	5	1261	811
99	0	0	3266	5	1274	812
100	0	0	3508	5	1289	812
101	0	0	3639	5	1305	811
102	0	0	3664	5	1319	812
103	0	0	3792	4	1337	812
104	0	0	3824	5	1343	812
105	0	0	3173	4	1349	812
106	0	0	2718	4	1351	812
107	0	0	2260	4	1347	812
108	0	0	1811	4	1337	812
109	0	0	1293	3	1324	812
110	0	0	829	4	1307	812
111	0	0	533	4	1292	812
112	0	0	377	4	1274	812
113	0	0	198	4	1250	811
114	0	0	99	5	1238	811
115	0	0	535	5	1237	812
116	0	0	1092	5	1233	811
117	0	0	1909	5	1244	811
118	0	0	2748	5	1258	812
119	0	0	3239	7	1273	812
120	0	0	3465	5	1290	812
121	0	0	3597	5	1305	811
122	0	0	3647	6	1321	812
123	0	0	3782	5	1335	812
124	0	0	3822	4	1347	811
125	0	0	3172	3	1347	812
126	0	0	2708	4	1347	812
127	0	0	2234	3	1344	812
0	0	0	1792	4	1334	812
1	0	0	1223	4	1320	812
2	0	0	756	4	1307	812
3	0	0	490	4	1290	812
4	0	0	382	4	1270	812
5	0	0	199	4	1248	811
6	0	0	100	4	1237	812
7	0	0	546	5	1232	812
8	0	0	1092	5	1234	811
9	0	0	1898	5	1246	811
10	0	0	2740	5	1258	811
11	0	0	3208	5	1274	811
12	0	0	3431	5	1290	811
13	0	0	3587	5	1305	812
14	0	0	3659	5	1322	812
15	0	0	3789	5	1339	812
16	0	0	3835	5	1346	812
17	0	0	3172	4	1345	812
18	0	0	2695	4	1350	812
19	0	0	2264	4	1346	812
20	0	0	1817	4	1336	812
21	0	0	1268	4	1320	812
22	0	0	804	4	1306	812
23	0	0	524	4	1291	812
24	0	0	373	4	1272	812
25	0	0	195	4	1251	812
26	0	0	98	4	1241	812
27	0	0	528	5	1233	811
28	0	0	1092	5	1237	811
29	0	0	1919	5	1245	811
30	0	0	2757	5	1259	811
31	0	0	3210	6	1273	812
32	0	0	3445	4	1288	812
33	0	0	3606	5	1306	812
34	0	0	3654	5	1320	812
35	0	0	3783	5	1338	812
36	0	0	3836	4	1343	812
37	0	0	3172	4	1351	812
38	0	0	2706	4	1349	812
39	0	0	2281	3	1347	812
40	0	0	1803	4	1334	812
41	0	0	1230	4	1323	811
42	0	0	782	4	1305	812
43	0	0	516	4	1291	811
44	0	0	376	4	1271	812
45	0	0	195	4	1251	811
46	0	0	98	4	1241	812
47	0	0	516	5	1238	812
48	0	0	1083	6	1237	812
49	0	0	1906	5	1245	811
50	0	0	2731	5	1260	811
51	0	0	3196	6	1275	811
52	0	0	3446	5	1291	812
53	0	0	3592	5	1303	811
54	0	0	3662	5	1319	811
55	0	0	3791	5	1335	811
56	0	0	3838	4	1344	812
57	0	0	3179	4	1349	812
58	0	0	2731	4	1348	811
59	0	0	2291	4	1345	812
60	0	0	1823	4	1334	812
61	0	0	1284	4	1322	812
62	0	0	824	3	1307	812
63	0	0	523	4	1291	812
64	0	0	389	4	1275	811
65	0	0	203	4	1252	811
66	0	0	103	4	1239	812
67	0	0	534	5	1234	812
68	0	0	1098	5	1234	811
69	0	0	1900	5	1245	811
70	0	0	2734	6	1257	811
71	0	0	3260	5	1274	812
72	0	0	3499	4	1288	812
73	0	0	3626	5	1307	811
74	0	0	3670	5	1324	812
75	0	0	3796	5	1336	812
76	0	0	3854	4	1347	812
77	0	0	3229	4	1351	812
78	0	0	2755	4	1350	811
79	0	0	2298	4	1346	812
80	0	0	1832	4	1333	812
81	0	0	1285	4	1322	812
82	0	0	832	4	1307	812
83	0	0	559	4	1293	811
84	0	0	437	4	1275	812
85	0	0	229	4	1253	811
86	0	0	116	4	1240	812
87	0	0	566	6	1237	811
88	0	0	1133	5	1236	812
89	0	0	1943	5	1243	812
90	0	0	2768	5	1259	811
91	0	0	3272	5	1275	812
92	0	0	3486	5	1291	812
93	0	0	3628	5	1305	811
94	0	0	3701	4	1320	811
95	0	0	3809	5	1338	812
96	0	0	3882	4	1348	812
97	0	0	3258	4	1349	812
98	0	0	2760	4	1348	812
99	0	0	2300	4	1343	812
100	0	0	1847	4	1334	812
101	0	0	1294	4	1322	812
102	0	0	822	4	1306	812
103	0	0	549	4	1290	811
104	0	0	410	3	1276	812
105	0	0	212	4	1248	813
106	0	0	105	4	1240	812
107	0	0	545	5	1232	812
108	0	0	1085	5	1233	810
109	0	0	1890	5	1244	811
110	0	0	2734	5	1257	812
111	0	0	3192	6	1273	812
112	0	0	3437	6	1288	812
113	0	0	3598	5	1306	812
114	0	0	3659	5	1321	812
115	0	0	3785	5	1339	811
116	0	0	3853	5	1346	812
117	0	0	3192	4	1350	812
118	0	0	2701	4	1349	812
119	0	0	2246	3	1344	812
120	0	0	1773	3	1335	812
121	0	0	1230	4	1323	812
122	0	0	805	4	1309	812
123	0	0	533	4	1289	811
124	0	0	388	3	1274	812
125	0	0	199	3	1254	812
126	0	0	98	4	1242	811
127	0	0	543	5	1235	811
0	0	0	1094	5	1232	811
1	0	0	1909	5	1243	812
2	0	0	2742	5	1258	812
3	0	0	3206	5	1271	812
4	0	0	3470	5	1288	812
5	0	0	3622	5	1304	812
6	0	0	3690	5	1322	812
7	0	0	3808	5	1338	812
8	0	0	3875	4	1345	812
9	0	0	3222	4	1349	812
10	0	0	2752	4	1351	812
11	0	0	2307	4	1342	812
12	0	0	1852	4	1335	813
13	0	0	1327	5	1322	811
14	0	0	884	4	1308	812
15	0	0	588	4	1293	811
16	0	0	451	4	1276	812
17	0	0	236	4	1250	811
18	0	0	118	4	1237	811
19	0	0	567	6	1232	812
20	0	0	1146	5	1234	812
21	0	0	1933	5	1245	811
22	0	0	2756	5	1258	812
23	0	0	3253	5	1272	812
24	0	0	3488	5	1289	812
25	0	0	3637	5	1305	812
26	0	0	3714	5	1321	812
27	0	0	3818	4	1337	812
28	0	0	3875	4	1347	812
29	0	0	3230	4	1351	813
30	0	0	2759	4	1347	812
31	0	0	2285	4	1343	812
32	0	0	1809	4	1334	811
33	0	0	1286	4	1320	812
34	0	0	835	4	1306	812
35	0	0	553	4	1292	812
36	0	0	414	4	1274	811
37	0	0	215	4	1250	811
38	0	0	105	6	1239	811
39	0	0	522	5	1236	811
40	0	0	1082	5	1235	811
41	0	0	1859	5	1245	811
42	0	0	2704	5	1258	813
43	0	0	3209	6	1273	812
44	0	0	3435	5	1287	812
45	0	0	3590	5	1304	811
46	0	0	3636	4	1317	812
47	0	0	3760	5	1339	812
48	0	0	3819	4	1343	812
49	0	0	3185	3	1346	812
50	0	0	2710	4	1350	812
51	0	0	2244	4	1343	812
52	0	0	1807	4	1334	812
53	0	0	1265	4	1323	812
54	0	0	796	4	1309	812
55	0	0	504	4	1293	812
56	0	0	366	4	1275	812
57	0	0	188	4	1249	811
58	0	0	90	4	1241	812
59	0	0	502	4	1237	812
60	0	0	1051	5	1235	811
61	0	0	1829	5	1245	813
62	0	0	2684	5	1259	812
63	0	0	3175	6	1273	811
64	0	0	3405	6	1290	812
65	0	0	3568	5	1305	812
66	0	0	3610	4	1319	812
67	0	0	3744	5	1337	812
68	0	0	3815	4	1347	812
69	0	0	3182	3	1353	812
70	0	0	2693	4	1351	812
71	0	0	2239	3	1344	811
72	0	0	1784	4	1335	812
73	0	0	1248	3	1323	812
74	0	0	798	4	1306	811
75	0	0	508	4	1295	812
76	0	0	370	4	1274	812
77	0	0	188	4	1255	811
78	0	0	93	4	1243	812
79	0	0	484	6	1238	812
80	0	0	1030	6	1235	811
81	0	0	1805	5	1247	811
82	0	0	2656	6	1262	811
83	0	0	3135	5	1275	812
84	0	0	3391	5	1291	812
85	0	0	3541	5	1305	811
86	0	0	3607	4	1325	812
87	0	0	3742	5	1340	812
88	0	0	3813	4	1350	812
89	0	0	3174	5	1354	812
90	0	0	2694	4	1353	812
91	0	0	2264	4	1348	812
92	0	0	1805	2	1341	812
93	0	0	1244	4	1324	813
94	0	0	780	3	1312	812
95	0	0	492	4	1295	812
96	0	0	358	4	1280	811
97	0	0	182	4	1253	812
98	0	0	90	4	1245	812
99	0	0	462	5	1242	811
100	0	0	1007	5	1237	811
101	0	0	1812	5	1252	812
102	0	0	2658	5	1264	811
103	0	0	3140	5	1275	812
104	0	0	3388	6	1292	812
105	0	0	3545	5	1311	812
106	0	0	3611	5	1324	812
107	0	0	3747	5	1342	812
108	0	0	3811	5	1351	811
109	0	0	3163	4	1352	812
110	0	0	2666	4	1355	812
111	0	0	2227	4	1349	812
112	0	0	1784	5	1340	812
113	0	0	1250	4	1327	811
114	0	0	809	4	1311	812
115	0	0	520	4	1298	812
116	0	0	390	4	1278	812
117	0	0	204	4	1255	812
118	0	0	102	4	1248	812
119	0	0	473	6	1239	811
120	0	0	1037	5	1239	812
121	0	0	1812	5	1248	811
122	0	0	2664	6	1265	812
123	0	0	3159	5	1274	812
124	0	0	3414	5	1295	812
125	0	0	3555	5	1309	812
126	0	0	3626	5	1324	812
127	0	0	3766	6	1338	812
0	0	0	3828	4	1352	813
1	0	0	3201	3	1355	812
2	0	0	2728	4	1355	812
3	0	0	2298	4	1349	812
4	0	0	1852	3	1342	812
5	0	0	1312	3	1329	812
6	0	0	847	4	1312	812
7	0	0	550	4	1297	811
8	0	0	406	3	1280	811
9	0	0	212	4	1260	812
10	0	0	108	4	1245	812
11	0	0	490	5	1240	812
12	0	0	1060	5	1238	811
13	0	0	1845	5	1252	811
14	0	0	2712	6	1266	811
15	0	0	3225	5	1280	811
16	0	0	3450	6	1296	812
17	0	0	3585	5	1309	811
18	0	0	3641	4	1326	812
19	0	0	3760	5	1343	812
20	0	0	3848	4	1352	811
21	0	0	3223	4	1352	812
22	0	0	2724	4	1356	812
23	0	0	2282	2	1350	812
24	0	0	1862	4	1344	812
25	0	0	1342	4	1329	812
26	0	0	875	3	1313	812
27	0	0	581	4	1298	811
28	0	0	441	4	1284	811
29	0	0	231	4	1261	812
30	0	0	117	4	1248	811
31	0	0	516	5	1243	811
32	0	0	1073	5	1240	812
33	0	0	1852	6	1253	811
34	0	0	2709	5	1266	811
35	0	0	3201	5	1278	811
36	0	0	3415	5	1295	812
37	0	0	3568	5	1309	812
38	0	0	3631	5	1324	812
39	0	0	3755	5	1343	812
40	0	0	3848	4	1351	812
41	0	0	3212	4	1360	812
42	0	0	2721	4	1354	812
43	0	0	2287	4	1352	812
44	0	0	1848	4	1339	812
45	0	0	1307	4	1330	811
46	0	0	845	3	1314	812
47	0	0	557	4	1300	812
48	0	0	431	4	1283	812
49	0	0	226	4	1258	811
50	0	0	115	4	1245	812
51	0	0	496	5	1239	812
52	0	0	1053	5	1240	811
53	0	0	1826	6	1253	811
54	0	0	2695	5	1266	811
55	0	0	3179	5	1280	811
56	0	0	3423	5	1295	812
57	0	0	3582	5	1312	811
58	0	0	3662	5	1324	812
59	0	0	3788	5	1343	812
60	0	0	3872	4	1351	812
61	0	0	3233	3	1354	812
62	0	0	2725	4	1357	812
63	0	0	2299	4	1354	812
64	0	0	1893	4	1342	812
65	0	0	1391	4	1330	811
66	0	0	924	3	1314	812
67	0	0	631	4	1299	812
68	0	0	470	4	1283	811
69	0	0	250	4	1257	811
70	0	0	127	4	1251	812
71	0	0	550	5	1247	811
72	0	0	1109	5	1243	811
73	0	0	1886	6	1255	811
74	0	0	2740	5	1265	811
75	0	0	3237	5	1281	811
76	0	0	3471	4	1297	812
77	0	0	3622	5	1311	812
78	0	0	3709	5	1328	812
79	0	0	3811	5	1341	812
80	0	0	3885	4	1356	811
81	0	0	3267	3	1358	812
82	0	0	2781	4	1356	812
83	0	0	2361	4	1353	812
84	0	0	1915	3	1347	812
85	0	0	1372	3	1334	812
86	0	0	917	4	1318	812
87	0	0	605	4	1300	812
88	0	0	461	4	1284	812
89	0	0	243	4	1262	811
90	0	0	122	4	1253	812
91	0	0	528	5	1244	812
92	0	0	1098	5	1244	811
93	0	0	1868	5	1254	811
94	0	0	2709	6	1267	811
95	0	0	3197	5	1282	812
96	0	0	3424	5	1297	812
97	0	0	3570	5	1313	812
98	0	0	3650	5	1328	812
99	0	0	3773	5	1343	812
100	0	0	3856	4	1357	812
101	0	0	3188	3	1361	812
102	0	0	2696	4	1361	812
103	0	0	2287	4	1357	812
104	0	0	1862	4	1347	812
105	0	0	1343	4	1337	812
106	0	0	888	3	1321	812
107	0	0	574	4	1304	812
108	0	0	441	4	1285	811
109	0	0	230	4	1269	812
110	0	0	115	4	1256	811
111	0	0	518	5	1248	812
112	0	0	1091	5	1252	811
113	0	0	1841	5	1261	811
114	0	0	2702	5	1273	812
115	0	0	3204	5	1288	811
116	0	0	3447	4	1306	812
117	0	0	3602	5	1321	811
118	0	0	3674	5	1339	812
119	0	0	3784	5	1359	812
120	0	0	3868	4	1364	812
121	0	0	3248	4	1371	813
122	0	0	2756	4	1368	812
123	0	0	2330	4	1363	812
124	0	0	1877	4	1357	811
125	0	0	1336	4	1345	812
126	0	0	873	3	1329	811
127	0	0	574	4	1312	812
0	0	0	444	4	1296	812
1	0	0	233	4	1276	812
2	0	0	116	4	1267	812
3	0	0	516	5	1261	812
4	0	0	1075	5	1258	811
5	0	0	1817	5	1272	812
6	0	0	2674	6	1283	811
7	0	0	3187	5	1299	812
8	0	0	3424	5	1314	812
9	0	0	3556	5	1327	812
10	0	0	3621	4	1345	812
11	0	0	3742	4	1361	812
12	0	0	3819	4	1370	812
13	0	0	3164	3	1372	812
14	0	0	2680	4	1378	812
15	0	0	2270	4	1372	812
16	0	0	1843	4	1362	812
17	0	0	1304	4	1353	812
18	0	0	835	4	1338	812
19	0	0	536	4	1321	812
20	0	0	390	4	1303	812
21	0	0	200	4	1283	811
22	0	0	98	4	1269	811
23	0	0	466	5	1264	811
24	0	0	1026	5	1265	811
25	0	0	1782	5	1275	812
26	0	0	2626	6	1289	811
27	0	0	3117	5	1300	811
28	0	0	3342	5	1317	812
29	0	0	3506	5	1331	812
30	0	0	3595	5	1350	811
31	0	0	3729	5	1367	812
32	0	0	3823	4	1373	812
33	0	0	3195	2	1381	812
34	0	0	2713	4	1381	812
35	0	0	2282	4	1375	812
36	0	0	1840	4	1366	812
37	0	0	1307	4	1354	812
38	0	0	854	4	1340	812
39	0	0	565	4	1326	812
40	0	0	426	3	1308	811
41	0	0	223	4	1286	811
42	0	0	110	4	1273	811
43	0	0	489	4	1267	812
44	0	0	1063	5	1267	812
45	0	0	1807	5	1276	812
46	0	0	2656	6	1287	811
47	0	0	3152	5	1305	812
48	0	0	3391	5	1318	812
49	0	0	3552	5	1335	812
50	0	0	3628	5	1348	812
51	0	0	3756	5	1365	812
52	0	0	3824	3	1379	812
53	0	0	3193	4	1380	812
54	0	0	2723	4	1384	812
55	0	0	2316	4	1376	812
56	0	0	1877	4	1368	812
57	0	0	1330	4	1354	812
58	0	0	879	3	1341	812
59	0	0	587	4	1324	812
60	0	0	450	4	1306	812
61	0	0	235	4	1281	811
62	0	0	118	4	1273	812
63	0	0	490	4	1271	812
64	0	0	1067	5	1268	812
65	0	0	1806	5	1278	812
66	0	0	2661	5	1291	811
67	0	0	3148	5	1305	812
68	0	0	3387	4	1320	812
69	0	0	3539	5	1336	812
70	0	0	3626	5	1349	812
71	0	0	3756	5	1369	812
72	0	0	3851	4	1381	812
73	0	0	3202	3	1384	812
74	0	0	2715	4	1383	812
75	0	0	2279	4	1377	812
76	0	0	1826	3	1367	812
77	0	0	1294	3	1354	812
78	0	0	842	4	1338	812
79	0	0	552	4	1322	812
80	0	0	431	3	1307	812
81	0	0	226	4	1283	811
82	0	0	113	4	1272	811
83	0	0	502	4	1266	811
84	0	0	1068	5	1262	812
85	0	0	1814	5	1273	812
86	0	0	2664	5	1285	812
87	0	0	3164	5	1297	811
88	0	0	3395	4	1312	811
89	0	0	3553	5	1332	812
90	0	0	3645	5	1347	811
91	0	0	3764	5	1361	811
92	0	0	3845	4	1371	812
93	0	0	3210	4	1377	812
94	0	0	2741	4	1377	812
95	0	0	2346	4	1372	812
96	0	0	1912	4	1362	812
97	0	0	1373	4	1350	812
98	0	0	911	4	1332	812
99	0	0	609	4	1319	812
100	0	0	483	3	1300	812
101	0	0	258	4	1277	812
102	0	0	130	4	1265	812
103	0	0	528	4	1258	811
104	0	0	1095	5	1258	811
105	0	0	1839	5	1266	812
106	0	0	2696	5	1281	811
107	0	0	3203	5	1298	812
108	0	0	3435	5	1310	812
109	0	0	3596	5	1328	812
110	0	0	3678	6	1340	812
111	0	0	3787	4	1361	812
112	0	0	3871	3	1368	812
113	0	0	3247	4	1372	812
114	0	0	2747	4	1373	812
115	0	0	2316	4	1367	812
116	0	0	1884	4	1359	811
117	0	0	1342	3	1344	812
118	0	0	879	4	1332	812
119	0	0	581	4	1315	811
120	0	0	446	3	1300	812
121	0	0	234	4	1274	811
122	0	0	116	4	1260	812
123	0	0	489	5	1261	811
124	0	0	1065	5	1258	811
125	0	0	1790	5	1266	811
126	0	0	2657	5	1282	811
127	0	0	3156	5	1292	812
0	0	0	3388	4	1310	812
1	0	0	3540	5	1325	812
2	0	0	3609	5	1340	811
3	0	0	3722	5	1361	812
4	0	0	3815	4	1365	812
5	0	0	3184	4	1374	812
6	0	0	2707	4	1375	812
7	0	0	2296	4	1368	812
8	0	0	1846	3	1359	812
9	0	0	1308	4	1343	812
10	0	0	859	4	1331	812
11	0	0	565	4	1317	812
12	0	0	446	3	1296	812
13	0	0	236	3	1273	812
14	0	0	118	4	1265	811
15	0	0	501	5	1260	812
16	0	0	1078	5	1257	812
17	0	0	1808	5	1265	812
18	0	0	2673	5	1279	812
19	0	0	3191	5	1296	812
20	0	0	3441	5	1312	812
21	0	0	3597	5	1323	812
22	0	0	3668	5	1339	812
23	0	0	3777	5	1361	811
24	0	0	3863	4	1365	812
25	0	0	3249	4	1370	812
26	0	0	2754	4	1370	812
27	0	0	2342	4	1366	812
28	0	0	1894	4	1359	811
29	0	0	1356	4	1346	812
30	0	0	914	4	1330	812
31	0	0	615	4	1317	812
32	0	0	499	3	1301	811
33	0	0	266	3	1277	811
34	0	0	135	4	1262	811
35	0	0	532	5	1260	812
36	0	0	1119	5	1256	812
37	0	0	1842	6	1268	812
38	0	0	2709	5	1282	811
39	0	0	3239	5	1296	812
40	0	0	3466	4	1312	812
41	0	0	3609	5	1328	812
42	0	0	3660	4	1342	812
43	0	0	3757	5	1358	811
44	0	0	3850	4	1371	812
45	0	0	3205	3	1373	812
46	0	0	2722	4	1371	812
47	0	0	2304	4	1369	812
48	0	0	1853	3	1358	812
49	0	0	1334	4	1347	812
50	0	0	887	4	1333	812
51	0	0	609	3	1318	812
52	0	0	478	4	1300	812
53	0	0	255	4	1275	812
54	0	0	128	4	1265	812
55	0	0	535	5	1262	811
56	0	0	1127	5	1258	812
57	0	0	1837	5	1269	811
58	0	0	2690	5	1280	811
59	0	0	3211	5	1295	811
60	0	0	3433	5	1312	812
61	0	0	3557	5	1326	812
62	0	0	3606	5	1342	812
63	0	0	3723	4	1358	812
64	0	0	3827	4	1371	812
65	0	0	3199	4	1373	812
66	0	0	2693	4	1374	812
67	0	0	2265	4	1372	812
68	0	0	1819	4	1360	812
69	0	0	1298	4	1349	811
70	0	0	858	3	1334	812
71	0	0	584	4	1320	812
72	0	0	471	4	1302	812
73	0	0	246	5	1275	812
74	0	0	122	4	1264	811
75	0	0	553	5	1261	812
76	0	0	1139	5	1258	812
77	0	0	1875	5	1268	811
78	0	0	2712	6	1280	811
79	0	0	3221	5	1294	812
80	0	0	3439	5	1315	812
81	0	0	3573	5	1326	812
82	0	0	3609	4	1339	812
83	0	0	3710	5	1359	812
84	0	0	3821	4	1373	812
85	0	0	3203	4	1374	812
86	0	0	2710	4	1375	812
87	0	0	2276	4	1369	812
88	0	0	1818	4	1362	812
89	0	0	1290	3	1350	811
90	0	0	859	3	1335	812
91	0	0	574	3	1320	811
92	0	0	473	4	1299	812
93	0	0	253	3	1278	812
94	0	0	125	4	1263	811
95	0	0	542	4	1263	812
96	0	0	1132	4	1261	811
97	0	0	1858	5	1269	812
98	0	0	2690	5	1283	811
99	0	0	3181	5	1297	811
100	0	0	3395	5	1315	812
101	0	0	3515	5	1328	812
102	0	0	3560	5	1344	812
103	0	0	3672	5	1362	812
104	0	0	3755	4	1370	812
105	0	0	3141	4	1374	813
106	0	0	2630	4	1374	812
107	0	0	2222	4	1372	812
108	0	0	1781	5	1362	812
109	0	0	1275	4	1351	812
110	0	0	849	4	1335	812
111	0	0	569	4	1319	812
112	0	0	462	4	1302	812
113	0	0	244	4	1279	812
114	0	0	122	4	1267	811
115	0	0	552	5	1264	812
116	0	0	1129	5	1259	811
117	0	0	1841	6	1270	811
118	0	0	2688	5	1281	811
119	0	0	3163	5	1297	812
120	0	0	3396	5	1313	811
121	0	0	3525	5	1331	812
122	0	0	3563	5	1341	812
123	0	0	3689	5	1363	812
124	0	0	3761	4	1373	812
125	0	0	3138	4	1373	812
126	0	0	2660	4	1376	812
127	0	0	2251	4	1373	813
0	0	0	1836	4	1365	812
1	0	0	1325	4	1351	811
2	0	0	906	4	1337	812
3	0	0	625	3	1321	812
4	0	0	522	4	1305	812
5	0	0	287	4	1280	811
6	0	0	145	3	1269	812
7	0	0	578	5	1261	812
8	0	0	1172	6	1259	811
9	0	0	1874	5	1273	811
10	0	0	2727	5	1284	812
11	0	0	3205	5	1298	811
12	0	0	3417	5	1315	812
13	0	0	3545	5	1328	812
14	0	0	3603	5	1343	812
15	0	0	3719	4	1361	812
16	0	0	3799	4	1374	812
17	0	0	3171	4	1376	812
18	0	0	2669	4	1376	812
19	0	0	2274	4	1374	812
20	0	0	1843	3	1363	812
21	0	0	1304	4	1352	812
22	0	0	871	4	1337	812
23	0	0	597	3	1322	812
24	0	0	498	3	1305	812
25	0	0	268	4	1280	812
26	0	0	135	4	1270	811
27	0	0	533	5	1265	811
28	0	0	1125	5	1261	811
29	0	0	1824	4	1271	812
30	0	0	2693	5	1286	811
31	0	0	3158	5	1297	812
32	0	0	3352	5	1312	812
33	0	0	3494	5	1331	812
34	0	0	3529	4	1347	812
35	0	0	3667	5	1364	812
36	0	0	3780	4	1371	812
37	0	0	3167	4	1371	812
38	0	0	2668	4	1377	812
39	0	0	2273	3	1370	812
40	0	0	1853	3	1364	812
41	0	0	1319	4	1350	811
42	0	0	876	4	1336	812
43	0	0	612	4	1320	812
44	0	0	513	4	1304	812
45	0	0	281	4	1280	811
46	0	0	143	4	1270	812
47	0	0	553	5	1259	812
48	0	0	1134	5	1260	812
49	0	0	1824	6	1270	811
50	0	0	2697	5	1285	811
51	0	0	3172	5	1298	811
52	0	0	3355	5	1313	812
53	0	0	3492	5	1330	812
54	0	0	3560	5	1344	811
55	0	0	3690	5	1359	812
56	0	0	3782	4	1369	812
57	0	0	3140	4	1375	813
58	0	0	2643	4	1373	812
59	0	0	2246	3	1372	812
60	0	0	1823	3	1361	812
61	0	0	1306	4	1352	811
62	0	0	857	4	1334	812
63	0	0	594	4	1319	812
64	0	0	491	3	1304	812
65	0	0	268	4	1282	813
66	0	0	135	4	1266	811
67	0	0	524	5	1262	812
68	0	0	1099	5	1261	811
69	0	0	1782	5	1269	812
70	0	0	2627	5	1283	813
71	0	0	3105	5	1297	812
72	0	0	3289	5	1311	812
73	0	0	3400	5	1329	812
74	0	0	3441	5	1346	812
75	0	0	3591	5	1364	812
76	0	0	3681	4	1372	812
77	0	0	3065	4	1374	813
78	0	0	2566	4	1376	812
79	0	0	2171	4	1373	812
80	0	0	1762	4	1364	812
81	0	0	1264	4	1353	812
82	0	0	820	4	1336	812
83	0	0	536	4	1323	812
84	0	0	419	4	1303	811
85	0	0	223	4	1281	811
86	0	0	112	4	1269	812
87	0	0	449	5	1265	811
88	0	0	1006	5	1263	812
89	0	0	1722	5	1274	812
90	0	0	2573	5	1287	811
91	0	0	3078	5	1301	812
92	0	0	3265	5	1317	812
93	0	0	3393	5	1334	812
94	0	0	3465	4	1342	812
95	0	0	3595	5	1363	812
96	0	0	3601	4	1372	812
97	0	0	3008	4	1376	812
98	0	0	2577	4	1378	812
99	0	0	2232	3	1375	812
100	0	0	1803	4	1367	812
101	0	0	1283	3	1353	812
102	0	0	837	3	1339	812
103	0	0	572	4	1323	812
104	0	0	469	4	1305	812
105	0	0	259	4	1284	811
106	0	0	135	4	1276	812
107	0	0	539	5	1266	811
108	0	0	1107	5	1264	811
109	0	0	1759	5	1275	812
110	0	0	2556	5	1289	813
111	0	0	3035	5	1302	812
112	0	0	3277	5	1317	812
113	0	0	3357	5	1333	812
114	0	0	3406	5	1346	812
115	0	0	3561	5	1360	812
116	0	0	3643	3	1374	812
117	0	0	3109	4	1375	812
118	0	0	2625	4	1378	812
119	0	0	2225	4	1374	812
120	0	0	1821	4	1366	812
121	0	0	1344	4	1355	812
122	0	0	894	4	1340	812
123	0	0	594	4	1325	812
124	0	0	523	5	1309	811
125	0	0	308	4	1287	811
126	0	0	163	4	1275	812
127	0	0	515	5	1269	811
0	0	0	1046	5	1265	811
1	0	0	1741	5	1272	811
2	0	0	2585	5	1285	811
3	0	0	3055	5	1300	812
4	0	0	3302	5	1315	812
5	0	0	3462	5	1330	812
6	0	0	3546	5	1345	812
7	0	0	3638	5	1364	811
8	0	0	3626	4	1371	813
9	0	0	3116	4	1375	813
10	0	0	2651	4	1377	812
11	0	0	2254	4	1375	812
12	0	0	1846	4	1364	812
13	0	0	1377	4	1353	812
14	0	0	994	4	1338	812
15	0	0	704	4	1323	812
16	0	0	583	3	1308	812
17	0	0	339	4	1282	812
18	0	0	183	4	1270	811
19	0	0	563	5	1267	812
20	0	0	1082	5	1263	812
21	0	0	1753	5	1271	812
22	0	0	2639	5	1285	811
23	0	0	3147	5	1297	812
24	0	0	3345	5	1312	812
25	0	0	3446	5	1327	812
26	0	0	3507	5	1344	812
27	0	0	3628	5	1359	812
28	0	0	3637	4	1367	812
29	0	0	3118	4	1372	812
30	0	0	2705	4	1376	812
31	0	0	2371	4	1372	812
32	0	0	1951	4	1364	812
33	0	0	1420	4	1350	812
34	0	0	988	4	1335	812
35	0	0	705	4	1320	811
36	0	0	569	3	1306	812
37	0	0	328	4	1283	812
38	0	0	177	4	1271	812
39	0	0	602	5	1262	812
40	0	0	1170	5	1261	812
41	0	0	1802	5	1272	811
42	0	0	2644	5	1283	811
43	0	0	3124	5	1296	811
44	0	0	3342	5	1311	812
45	0	0	3452	5	1327	811
46	0	0	3493	5	1340	812
47	0	0	3608	5	1355	812
48	0	0	3687	4	1369	812
49	0	0	3169	4	1370	812
50	0	0	2709	3	1371	812
51	0	0	2334	3	1368	812
52	0	0	1929	4	1360	812
53	0	0	1414	4	1350	811
54	0	0	967	4	1333	811
55	0	0	692	4	1319	812
56	0	0	602	3	1301	811
57	0	0	361	4	1281	812
58	0	0	193	4	1267	812
59	0	0	582	5	1263	811
60	0	0	1156	5	1259	811
61	0	0	1802	5	1269	812
62	0	0	2634	5	1283	811
63	0	0	3122	5	1296	812
64	0	0	3316	6	1312	812
65	0	0	3481	5	1325	811
66	0	0	3548	4	1340	812
67	0	0	3633	5	1357	812
68	0	0	3639	4	1367	812
69	0	0	3133	4	1371	812
70	0	0	2695	4	1371	812
71	0	0	2299	4	1366	812
72	0	0	1894	4	1360	812
73	0	0	1442	4	1348	812
74	0	0	1012	4	1331	812
75	0	0	720	4	1318	812
76	0	0	581	4	1305	811
77	0	0	331	4	1280	811
78	0	0	176	4	1269	812
79	0	0	533	5	1259	811
80	0	0	1090	5	1263	812
81	0	0	1738	5	1270	811
82	0	0	2594	5	1283	812
83	0	0	3089	5	1297	811
84	0	0	3286	5	1311	812
85	0	0	3426	5	1326	812
86	0	0	3483	4	1341	812
87	0	0	3579	5	1355	812
88	0	0	3550	4	1363	812
89	0	0	3032	4	1368	812
90	0	0	2629	4	1371	812
91	0	0	2286	3	1369	812
92	0	0	1869	3	1362	813
93	0	0	1363	4	1348	812
94	0	0	931	4	1333	812
95	0	0	655	4	1320	812
96	0	0	537	4	1305	811
97	0	0	310	4	1282	811
98	0	0	166	4	1271	811
99	0	0	563	5	1265	811
100	0	0	1125	5	1260	812
101	0	0	1765	6	1270	812
102	0	0	2594	5	1284	811
103	0	0	3068	5	1297	811
104	0	0	3248	5	1312	811
105	0	0	3382	5	1329	811
106	0	0	3472	5	1338	812
107	0	0	3582	5	1358	812
108	0	0	3605	4	1368	812
109	0	0	3102	4	1371	812
110	0	0	2660	4	1374	812
111	0	0	2316	4	1370	812
112	0	0	1887	4	1360	812
113	0	0	1384	4	1350	813
114	0	0	936	3	1334	812
115	0	0	666	4	1320	811
116	0	0	581	4	1305	811
117	0	0	343	4	1284	811
118	0	0	186	4	1271	812
119	0	0	559	6	1266	811
120	0	0	1128	5	1262	811
121	0	0	1763	4	1272	812
122	0	0	2580	5	1281	811
123	0	0	3067	5	1297	812
124	0	0	3303	5	1313	812
125	0	0	3451	5	1326	812
126	0	0	3539	5	1342	812
127	0	0	3626	5	1359	812
0	0	0	3592	4	1366	811
1	0	0	3083	4	1372	812
2	0	0	2635	4	1373	812
3	0	0	2272	4	1370	812
4	0	0	1871	4	1365	812
5	0	0	1399	4	1348	813
6	0	0	983	3	1337	812
7	0	0	695	4	1319	812
8	0	0	606	4	1305	812
9	0	0	363	3	1281	811
10	0	0	197	4	1273	812
11	0	0	554	5	1266	811
12	0	0	1101	5	1263	811
13	0	0	1759	5	1270	811
14	0	0	2618	5	1283	811
15	0	0	3093	5	1297	811
16	0	0	3285	5	1312	812
17	0	0	3432	5	1327	812
18	0	0	3517	5	1339	812
19	0	0	3614	5	1361	812
20	0	0	3584	4	1370	812
21	0	0	3107	4	1369	812
22	0	0	2668	4	1375	812
23	0	0	2320	5	1372	812
24	0	0	1929	3	1361	812
25	0	0	1417	4	1350	813
26	0	0	967	4	1336	812
27	0	0	672	4	1321	812
28	0	0	563	4	1308	812
29	0	0	337	4	1285	812
30	0	0	183	4	1270	812
31	0	0	581	5	1267	811
32	0	0	1134	5	1263	812
33	0	0	1780	5	1271	812
34	0	0	2637	5	1285	811
35	0	0	3102	5	1299	813
36	0	0	3303	5	1313	812
37	0	0	3432	5	1329	812
38	0	0	3500	5	1341	812
39	0	0	3605	4	1360	812
40	0	0	3602	4	1370	812
41	0	0	3117	4	1371	812
42	0	0	2667	4	1376	812
43	0	0	2330	4	1369	812
44	0	0	1925	3	1364	812
45	0	0	1406	5	1353	812
46	0	0	965	4	1335	812
47	0	0	694	4	1323	812
48	0	0	591	4	1308	812
49	0	0	355	4	1287	811
50	0	0	193	4	1273	811
51	0	0	576	5	1269	812
52	0	0	1121	5	1265	812
53	0	0	1749	5	1275	811
54	0	0	2604	5	1286	811
55	0	0	3083	5	1301	812
56	0	0	3314	5	1314	812
57	0	0	3471	5	1329	812
58	0	0	3532	5	1347	812
59	0	0	3609	5	1363	812
60	0	0	3596	4	1370	813
61	0	0	3076	4	1372	812
62	0	0	2639	4	1376	812
63	0	0	2284	4	1373	812
64	0	0	1904	4	1366	812
65	0	0	1422	4	1355	813
66	0	0	993	4	1337	812
67	0	0	691	4	1323	811
68	0	0	562	4	1309	812
69	0	0	333	4	1286	812
70	0	0	181	4	1275	813
71	0	0	531	5	1268	812
72	0	0	1110	5	1268	811
73	0	0	1763	5	1275	811
74	0	0	2625	4	1289	811
75	0	0	3123	5	1301	812
76	0	0	3325	5	1315	812
77	0	0	3446	5	1333	812
78	0	0	3496	5	1345	812
79	0	0	3584	5	1363	812
80	0	0	3567	4	1373	812
81	0	0	3080	4	1374	812
82	0	0	2665	4	1380	812
83	0	0	2305	4	1377	812
84	0	0	1908	3	1367	812
85	0	0	1430	4	1356	813
86	0	0	986	4	1341	812
87	0	0	685	3	1326	812
88	0	0	577	4	1310	812
89	0	0	348	3	1289	812
90	0	0	191	4	1274	812
91	0	0	589	6	1273	812
92	0	0	1165	5	1268	812
93	0	0	1779	6	1279	812
94	0	0	2613	5	1289	812
95	0	0	3109	5	1304	812
96	0	0	3316	6	1319	812
97	0	0	3464	5	1333	812
98	0	0	3559	5	1350	812
99	0	0	3650	5	1367	812
100	0	0	3663	4	1373	812
101	0	0	3166	4	1381	812
102	0	0	2731	4	1380	812
103	0	0	2365	4	1377	812
104	0	0	1941	4	1371	811
105	0	0	1461	3	1358	812
106	0	0	1008	4	1342	812
107	0	0	723	4	1328	812
108	0	0	619	4	1315	812
109	0	0	374	3	1290	812
110	0	0	205	4	1278	812
111	0	0	588	6	1273	811
112	0	0	1134	5	1272	811
113	0	0	1740	5	1280	811
114	0	0	2601	5	1293	811
115	0	0	3129	5	1304	812
116	0	0	3343	5	1320	811
117	0	0	3483	5	1337	812
118	0	0	3545	5	1350	812
119	0	0	3606	5	1364	812
120	0	0	3609	4	1378	812
121	0	0	3103	4	1379	812
122	0	0	2650	4	1384	812
123	0	0	2306	4	1379	812
124	0	0	1907	4	1371	812
125	0	0	1413	4	1359	811
126	0	0	991	4	1345	812
127	0	0	710	4	1331	812
0	0	0	590	4	1315	812
1	0	0	351	4	1293	812
2	0	0	193	4	1278	812
3	0	0	560	5	1274	812
4	0	0	1112	5	1274	812
5	0	0	1750	5	1282	811
6	0	0	2584	5	1292	811
7	0	0	3086	5	1305	812
8	0	0	3316	5	1321	812
9	0	0	3467	5	1337	812
10	0	0	3518	6	1350	812
11	0	0	3592	4	1366	812
12	0	0	3603	4	1375	813
13	0	0	3132	4	1379	812
14	0	0	2691	4	1383	812
15	0	0	2366	4	1381	812
16	0	0	1955	4	1374	812
17	0	0	1444	3	1359	812
18	0	0	1004	4	1346	812
19	0	0	701	4	1332	812
20	0	0	591	4	1317	811
21	0	0	357	3	1297	811
22	0	0	195	4	1282	811
23	0	0	585	5	1277	811
24	0	0	1165	5	1275	812
25	0	0	1787	7	1282	811
26	0	0	2643	4	1293	812
27	0	0	3134	5	1306	812
28	0	0	3350	5	1323	812
29	0	0	3471	6	1339	812
30	0	0	3531	5	1352	812
31	0	0	3586	4	1371	812
32	0	0	3597	4	1377	812
33	0	0	3129	4	1381	812
34	0	0	2675	4	1382	812
35	0	0	2310	4	1380	813
36	0	0	1894	4	1374	812
37	0	0	1405	4	1361	812
38	0	0	977	3	1346	812
39	0	0	681	4	1332	812
40	0	0	563	4	1317	811
41	0	0	336	4	1294	812
42	0	0	182	4	1280	812
43	0	0	544	5	1275	812
44	0	0	1102	5	1272	812
45	0	0	1719	5	1281	811
46	0	0	2555	6	1293	811
47	0	0	3052	5	1307	812
48	0	0	3284	5	1322	811
49	0	0	3440	5	1338	812
50	0	0	3519	5	1352	811
51	0	0	3560	6	1366	812
52	0	0	3519	4	1380	812
53	0	0	3038	4	1383	812
54	0	0	2650	4	1386	812
55	0	0	2327	5	1380	812
56	0	0	1914	4	1373	812
57	0	0	1402	4	1362	812
58	0	0	981	4	1346	812
59	0	0	699	4	1332	812
60	0	0	571	4	1317	812
61	0	0	346	4	1292	811
62	0	0	190	4	1281	812
63	0	0	523	5	1278	812
64	0	0	1096	5	1276	812
65	0	0	1702	5	1283	812
66	0	0	2542	6	1294	811
67	0	0	3096	5	1305	812
68	0	0	3329	5	1323	812
69	0	0	3452	5	1337	812
70	0	0	3501	5	1353	811
71	0	0	3576	5	1370	812
72	0	0	3604	4	1381	811
73	0	0	3143	4	1382	812
74	0	0	2705	5	1382	812
75	0	0	2373	4	1379	812
76	0	0	1993	4	1373	812
77	0	0	1479	4	1364	812
78	0	0	1002	4	1348	812
79	0	0	678	4	1333	812
80	0	0	599	4	1319	811
81	0	0	370	4	1296	811
82	0	0	202	4	1284	811
83	0	0	518	5	1274	812
84	0	0	1091	6	1273	812
85	0	0	1697	5	1281	811
86	0	0	2537	5	1295	812
87	0	0	3027	5	1309	812
88	0	0	3256	5	1323	812
89	0	0	3453	6	1339	812
90	0	0	3529	5	1352	811
91	0	0	3561	4	1369	812
92	0	0	3569	4	1379	811
93	0	0	3147	4	1380	812
94	0	0	2717	4	1386	812
95	0	0	2337	4	1379	813
96	0	0	1899	4	1374	812
97	0	0	1416	4	1361	812
98	0	0	1000	3	1345	812
99	0	0	708	4	1332	812
100	0	0	556	4	1317	812
101	0	0	342	3	1296	812
102	0	0	188	4	1283	812
103	0	0	536	5	1277	812
104	0	0	1068	5	1271	811
105	0	0	1654	5	1282	811
106	0	0	2543	5	1294	812
107	0	0	3075	5	1304	812
108	0	0	3295	5	1322	812
109	0	0	3435	5	1335	812
110	0	0	3520	6	1352	811
111	0	0	3625	5	1371	812
112	0	0	3677	4	1380	812
113	0	0	3153	4	1382	812
114	0	0	2726	3	1385	812
115	0	0	2395	4	1381	812
116	0	0	1982	3	1374	812
117	0	0	1471	3	1362	812
118	0	0	1045	4	1345	811
119	0	0	766	4	1331	812
120	0	0	638	4	1318	812
121	0	0	394	4	1295	812
122	0	0	218	4	1280	811
123	0	0	565	5	1276	812
124	0	0	1123	5	1271	812
125	0	0	1700	5	1281	812
126	0	0	2540	5	1295	812
127	0	0	3091	5	1306	811
0	0	0	3341	5	1321	812
1	0	0	3477	5	1336	812
2	0	0	3539	5	1351	811
3	0	0	3632	5	1366	812
4	0	0	3680	4	1378	812
5	0	0	3192	4	1383	812
6	0	0	2742	4	1386	812
7	0	0	2394	4	1381	812
8	0	0	2000	4	1374	812
9	0	0	1522	4	1363	812
10	0	0	1088	4	1345	812
11	0	0	773	4	1331	812
12	0	0	662	4	1320	811
13	0	0	414	4	1295	812
14	0	0	226	4	1282	813
15	0	0	550	5	1277	811
16	0	0	1142	5	1273	812
17	0	0	1733	5	1283	811
18	0	0	2594	5	1295	812
19	0	0	3126	5	1307	812
20	0	0	3339	5	1320	812
21	0	0	3498	5	1339	812
22	0	0	3571	5	1352	811
23	0	0	3618	5	1369	812
24	0	0	3647	4	1376	812
25	0	0	3196	4	1381	812
26	0	0	2756	4	1383	812
27	0	0	2406	4	1380	812
28	0	0	1997	4	1374	812
29	0	0	1527	3	1361	811
30	0	0	1094	4	1347	812
31	0	0	771	4	1333	812
32	0	0	626	4	1319	812
33	0	0	384	4	1292	812
34	0	0	210	4	1284	811
35	0	0	544	5	1273	811
36	0	0	1082	5	1273	811
37	0	0	1681	5	1281	811
38	0	0	2580	5	1295	812
39	0	0	3122	5	1306	811
40	0	0	3320	5	1322	812
41	0	0	3465	5	1337	812
42	0	0	3558	5	1351	812
43	0	0	3612	5	1370	811
44	0	0	3624	4	1379	812
45	0	0	3148	4	1384	812
46	0	0	2721	4	1384	812
47	0	0	2392	4	1380	812
48	0	0	1973	4	1374	812
49	0	0	1469	4	1362	812
50	0	0	1040	4	1348	812
51	0	0	738	4	1331	812
52	0	0	598	4	1318	812
53	0	0	367	3	1293	812
54	0	0	201	4	1282	812
55	0	0	552	5	1278	812
56	0	0	1113	4	1271	812
57	0	0	1689	5	1283	811
58	0	0	2552	5	1293	812
59	0	0	3092	5	1307	812
60	0	0	3308	5	1322	812
61	0	0	3452	5	1336	812
62	0	0	3529	5	1351	811
63	0	0	3609	5	1366	812
64	0	0	3638	3	1377	812
65	0	0	3153	4	1381	813
66	0	0	2710	4	1385	812
67	0	0	2399	4	1381	811
68	0	0	1996	4	1375	813
69	0	0	1492	3	1362	812
70	0	0	1040	3	1347	812
71	0	0	737	4	1332	812
72	0	0	625	4	1318	812
73	0	0	392	4	1296	811
74	0	0	213	3	1279	812
75	0	0	510	5	1274	812
76	0	0	1072	5	1271	811
77	0	0	1674	5	1281	811
78	0	0	2543	5	1295	812
79	0	0	3080	4	1307	812
80	0	0	3321	5	1322	813
81	0	0	3484	5	1339	812
82	0	0	3546	5	1351	812
83	0	0	3592	5	1366	812
84	0	0	3633	4	1377	812
85	0	0	3166	4	1385	812
86	0	0	2723	4	1385	812
87	0	0	2378	4	1382	811
88	0	0	1971	4	1376	812
89	0	0	1489	4	1363	812
90	0	0	1040	4	1348	812
91	0	0	722	4	1333	811
92	0	0	588	4	1318	812
93	0	0	363	4	1294	812
94	0	0	196	4	1283	812
95	0	0	501	5	1275	812
96	0	0	1054	5	1273	812
97	0	0	1671	5	1281	811
98	0	0	2532	6	1293	812
99	0	0	3049	5	1307	812
100	0	0	3258	5	1323	812
101	0	0	3415	5	1338	812
102	0	0	3502	5	1352	811
103	0	0	3556	5	1368	813
104	0	0	3579	3	1378	812
105	0	0	3126	4	1384	812
106	0	0	2708	4	1384	812
107	0	0	2350	4	1382	812
108	0	0	1941	5	1376	812
109	0	0	1462	3	1361	812
110	0	0	1033	4	1347	812
111	0	0	718	4	1333	812
112	0	0	571	4	1319	812
113	0	0	349	5	1295	812
114	0	0	188	4	1285	812
115	0	0	473	5	1277	811
116	0	0	1041	5	1273	811
117	0	0	1628	5	1283	811
118	0	0	2514	5	1293	812
119	0	0	3105	5	1309	812
120	0	0	3335	5	1321	812
121	0	0	3471	5	1337	811
122	0	0	3544	5	1353	812
123	0	0	3620	4	1367	812
124	0	0	3671	4	1377	812
125	0	0	3185	4	1381	812
126	0	0	2752	4	1384	812
127	0	0	2420	4	1383	812
0	0	0	2019	4	1374	812
1	0	0	1534	4	1364	812
2	0	0	1080	4	1348	811
3	0	0	777	4	1336	812
4	0	0	659	4	1318	812
5	0	0	404	5	1297	811
6	0	0	219	4	1283	811
7	0	0	539	5	1277	812
8	0	0	1117	6	1275	811
9	0	0	1714	5	1283	812
10	0	0	2582	5	1295	812
11	0	0	3133	5	1306	812
12	0	0	3354	5	1321	811
13	0	0	3488	5	1339	812
14	0	0	3544	4	1353	812
15	0	0	3562	5	1369	812
16	0	0	3624	4	1377	812
17	0	0	3179	4	1383	813
18	0	0	2724	4	1385	812
19	0	0	2358	4	1383	812
20	0	0	1945	5	1374	812
21	0	0	1465	4	1365	812
22	0	0	1014	4	1348	811
23	0	0	698	3	1334	812
24	0	0	571	4	1319	812
25	0	0	357	4	1295	811
26	0	0	192	4	1286	812
27	0	0	442	5	1276	811
28	0	0	1013	5	1276	812
29	0	0	1619	5	1280	811
30	0	0	2513	4	1295	811
31	0	0	3047	5	1307	812
32	0	0	3267	6	1322	812
33	0	0	3424	5	1338	812
34	0	0	3506	5	1352	812
35	0	0	3568	5	1370	811
36	0	0	3617	4	1379	812
37	0	0	3140	4	1382	812
38	0	0	2691	4	1385	812
39	0	0	2348	4	1380	812
40	0	0	1936	5	1376	812
41	0	0	1456	4	1363	812
42	0	0	1034	3	1348	812
43	0	0	727	4	1335	812
44	0	0	599	4	1318	812
45	0	0	378	4	1296	811
46	0	0	203	4	1285	812
47	0	0	520	5	1280	811
48	0	0	1089	5	1278	811
49	0	0	1677	5	1282	811
50	0	0	2569	5	1293	811
51	0	0	3115	5	1307	812
52	0	0	3336	5	1323	811
53	0	0	3488	5	1336	812
54	0	0	3575	4	1351	812
55	0	0	3651	5	1368	812
56	0	0	3704	4	1380	812
57	0	0	3204	4	1383	811
58	0	0	2762	4	1384	812
59	0	0	2430	4	1380	812
60	0	0	2011	4	1375	812
61	0	0	1512	3	1362	812
62	0	0	1076	4	1349	812
63	0	0	764	4	1333	812
64	0	0	613	4	1317	812
65	0	0	377	4	1299	811
66	0	0	202	4	1286	811
67	0	0	496	5	1276	811
68	0	0	1085	5	1275	811
69	0	0	1681	5	1283	811
70	0	0	2555	5	1295	811
71	0	0	3082	5	1307	812
72	0	0	3301	5	1322	812
73	0	0	3441	6	1339	812
74	0	0	3516	5	1350	812
75	0	0	3567	5	1367	812
76	0	0	3611	4	1381	812
77	0	0	3128	4	1386	812
78	0	0	2669	4	1385	811
79	0	0	2340	3	1381	812
80	0	0	1932	4	1376	812
81	0	0	1451	4	1365	812
82	0	0	1009	4	1347	811
83	0	0	684	4	1333	811
84	0	0	537	4	1319	812
85	0	0	330	4	1295	811
86	0	0	180	4	1282	812
87	0	0	466	5	1274	811
88	0	0	1058	5	1272	812
89	0	0	1640	5	1283	811
90	0	0	2509	6	1294	812
91	0	0	3059	5	1308	812
92	0	0	3293	5	1321	811
93	0	0	3462	5	1338	812
94	0	0	3541	5	1351	812
95	0	0	3574	5	1371	812
96	0	0	3633	4	1379	812
97	0	0	3162	4	1385	812
98	0	0	2719	4	1385	812
99	0	0	2391	4	1383	812
100	0	0	2000	4	1376	812
101	0	0	1529	3	1363	812
102	0	0	1076	3	1347	812
103	0	0	736	4	1332	812
104	0	0	598	4	1319	812
105	0	0	370	4	1296	812
106	0	0	202	4	1283	811
107	0	0	499	5	1278	811
108	0	0	1106	5	1274	812
109	0	0	1707	5	1283	811
110	0	0	2601	5	1293	812
111	0	0	3153	5	1306	812
112	0	0	3364	5	1322	812
113	0	0	3510	5	1337	812
114	0	0	3592	5	1350	811
115	0	0	3598	5	1367	812
116	0	0	3632	4	1377	812
117	0	0	3185	4	1380	812
118	0	0	2741	4	1386	812
119	0	0	2421	4	1381	812
120	0	0	1995	4	1373	812
121	0	0	1489	3	1363	812
122	0	0	1038	4	1349	811
123	0	0	726	3	1334	812
124	0	0	583	4	1320	812
125	0	0	368	4	1295	811
126	0	0	199	4	1284	812
127	0	0	457	5	1275	811
0	0	0	1058	4	1275	812
1	0	0	1618	5	1280	812
2	0	0	2511	5	1293	812
3	0	0	3091	5	1306	812
4	0	0	3320	5	1321	811
5	0	0	3427	5	1335	812
6	0	0	3496	5	1349	813
7	0	0	3572	5	1366	812
8	0	0	3583	4	1376	812
9	0	0	3129	4	1380	812
10	0	0	2711	3	1382	812
11	0	0	2411	3	1381	812
12	0	0	1962	4	1374	812
13	0	0	1457	4	1362	812
14	0	0	995	3	1350	811
15	0	0	682	3	1332	812
16	0	0	581	4	1318	812
17	0	0	381	4	1294	812
18	0	0	206	4	1285	811
19	0	0	469	5	1273	811
20	0	0	1069	5	1268	811
21	0	0	1676	5	1278	812
22	0	0	2530	5	1290	812
23	0	0	3112	5	1306	812
24	0	0	3370	5	1320	811
25	0	0	3517	5	1335	812
26	0	0	3560	5	1350	812
27	0	0	3622	5	1367	812
28	0	0	3698	4	1378	812
29	0	0	3221	4	1382	812
30	0	0	2798	4	1384	812
31	0	0	2415	4	1381	812
32	0	0	2011	3	1374	812
33	0	0	1485	4	1364	812
34	0	0	1059	4	1347	811
35	0	0	735	4	1332	812
36	0	0	620	4	1318	813
37	0	0	394	4	1294	812
38	0	0	213	4	1284	812
39	0	0	470	5	1277	812
40	0	0	1088	5	1271	811
41	0	0	1678	5	1281	811
42	0	0	2558	5	1293	812
43	0	0	3073	6	1306	811
44	0	0	3337	5	1320	811
45	0	0	3475	5	1336	811
46	0	0	3544	5	1351	812
47	0	0	3599	5	1365	812
48	0	0	3660	4	1376	812
49	0	0	3161	4	1381	812
50	0	0	2721	3	1382	812
51	0	0	2375	3	1381	813
52	0	0	1938	4	1373	813
53	0	0	1448	3	1363	812
54	0	0	1018	4	1349	812
55	0	0	697	4	1332	812
56	0	0	541	4	1317	811
57	0	0	348	4	1296	812
58	0	0	187	4	1285	811
59	0	0	451	5	1277	811
60	0	0	1051	5	1272	811
61	0	0	1625	6	1279	812
62	0	0	2529	5	1291	812
63	0	0	3067	5	1303	812
64	0	0	3351	5	1317	811
65	0	0	3489	5	1334	811
66	0	0	3577	5	1348	811
67	0	0	3627	6	1366	811
68	0	0	3693	4	1374	812
69	0	0	3191	4	1378	812
70	0	0	2747	4	1384	812
71	0	0	2418	3	1380	812
72	0	0	2011	3	1373	812
73	0	0	1512	3	1363	812
74	0	0	1061	4	1348	812
75	0	0	741	4	1331	812
76	0	0	609	4	1315	811
77	0	0	380	4	1296	811
78	0	0	204	3	1282	812
79	0	0	487	5	1274	811
80	0	0	1101	5	1272	811
81	0	0	1686	5	1279	812
82	0	0	2594	6	1290	811
83	0	0	3169	5	1306	812
84	0	0	3373	5	1318	812
85	0	0	3492	5	1335	812
86	0	0	3578	5	1348	812
87	0	0	3579	6	1365	811
88	0	0	3656	3	1376	812
89	0	0	3233	4	1379	812
90	0	0	2744	4	1383	812
91	0	0	2363	4	1380	812
92	0	0	1984	4	1372	812
93	0	0	1501	4	1360	812
94	0	0	1049	4	1346	812
95	0	0	731	4	1332	812
96	0	0	580	4	1317	811
97	0	0	339	5	1295	811
98	0	0	181	4	1280	812
99	0	0	468	5	1275	812
100	0	0	1090	5	1273	812
101	0	0	1670	5	1280	811
102	0	0	2574	5	1290	812
103	0	0	3068	4	1302	812
104	0	0	3280	5	1320	812
105	0	0	3464	4	1333	812
106	0	0	3555	5	1348	811
107	0	0	3611	5	1364	812
108	0	0	3666	5	1377	812
109	0	0	3165	4	1380	812
110	0	0	2690	4	1383	812
111	0	0	2356	4	1378	812
112	0	0	1972	4	1371	812
113	0	0	1491	3	1360	812
114	0	0	1030	4	1344	812
115	0	0	708	4	1331	812
116	0	0	537	4	1317	811
117	0	0	341	5	1291	812
118	0	0	183	5	1282	811
119	0	0	501	5	1272	811
120	0	0	1060	5	1272	811
121	0	0	1649	5	1278	812
122	0	0	2526	5	1291	812
123	0	0	3088	5	1306	812
124	0	0	3305	5	1318	811
125	0	0	3490	4	1335	812
126	0	0	3568	6	1348	812
127	0	0	3627	7	1363	811
0	0	0	3668	5	1376	812
1	0	0	3193	4	1379	812
2	0	0	2729	3	1383	812
3	0	0	2381	4	1377	812
4	0	0	1975	4	1372	813
5	0	0	1482	4	1362	812
6	0	0	1037	3	1346	812
7	0	0	721	4	1330	811
8	0	0	555	4	1314	812
9	0	0	351	4	1291	812
10	0	0	187	4	1280	811
11	0	0	491	5	1273	811
12	0	0	1099	5	1268	811
13	0	0	1678	6	1279	811
14	0	0	2555	5	1290	812
15	0	0	3093	6	1304	812
16	0	0	3320	6	1319	812
17	0	0	3448	5	1332	812
18	0	0	3551	6	1347	812
19	0	0	3604	5	1362	812
20	0	0	3654	4	1377	812
21	0	0	3164	4	1378	812
22	0	0	2710	3	1381	812
23	0	0	2355	4	1381	812
24	0	0	1944	4	1370	813
25	0	0	1470	4	1360	812
26	0	0	1013	3	1346	811
27	0	0	693	4	1330	812
28	0	0	555	4	1315	812
29	0	0	356	4	1294	813
30	0	0	189	5	1277	812
31	0	0	443	5	1274	812
32	0	0	1059	5	1271	812
33	0	0	1635	6	1277	812
34	0	0	2508	5	1288	812
35	0	0	3073	5	1302	812
36	0	0	3318	5	1317	812
37	0	0	3446	5	1331	812
38	0	0	3544	5	1346	812
39	0	0	3602	4	1362	812
40	0	0	3651	4	1374	813
41	0	0	3182	4	1377	812
42	0	0	2723	3	1383	812
43	0	0	2363	5	1378	812
44	0	0	1942	4	1370	812
45	0	0	1487	3	1358	812
46	0	0	1038	4	1346	812
47	0	0	717	3	1330	811
48	0	0	534	5	1317	812
49	0	0	345	4	1292	811
50	0	0	184	4	1278	812
51	0	0	471	5	1271	811
52	0	0	1084	4	1271	812
53	0	0	1664	5	1277	811
54	0	0	2567	5	1288	812
55	0	0	3149	5	1302	812
56	0	0	3386	5	1318	811
57	0	0	3517	5	1333	812
58	0	0	3574	5	1346	812
59	0	0	3596	5	1362	812
60	0	0	3671	4	1372	812
61	0	0	3227	4	1377	812
62	0	0	2769	4	1381	812
63	0	0	2403	4	1380	812
64	0	0	1949	4	1369	812
65	0	0	1474	3	1361	812
66	0	0	1043	3	1347	812
67	0	0	723	4	1330	811
68	0	0	566	4	1317	811
69	0	0	354	4	1294	812
70	0	0	189	3	1279	812
71	0	0	440	5	1270	812
72	0	0	1057	6	1267	811
73	0	0	1605	5	1275	812
74	0	0	2473	5	1285	812
75	0	0	3075	5	1301	812
76	0	0	3319	5	1316	812
77	0	0	3469	5	1331	811
78	0	0	3545	5	1346	812
79	0	0	3522	5	1363	812
80	0	0	3599	5	1373	812
81	0	0	3169	4	1377	812
82	0	0	2712	4	1380	812
83	0	0	2373	4	1379	812
84	0	0	1914	4	1373	812
85	0	0	1403	3	1360	812
86	0	0	975	4	1344	812
87	0	0	655	4	1330	812
88	0	0	538	4	1315	812
89	0	0	346	5	1292	811
90	0	0	185	3	1283	812
91	0	0	473	5	1274	812
92	0	0	1080	5	1270	811
93	0	0	1667	5	1276	812
94	0	0	2560	5	1286	812
95	0	0	3113	5	1303	812
96	0	0	3346	5	1315	812
97	0	0	3516	5	1331	812
98	0	0	3619	5	1346	812
99	0	0	3652	5	1362	812
100	0	0	3707	3	1372	812
101	0	0	3254	4	1380	812
102	0	0	2776	4	1381	812
103	0	0	2427	4	1377	811
104	0	0	2007	4	1372	812
105	0	0	1523	3	1359	812
106	0	0	1083	3	1345	812
107	0	0	773	4	1330	812
108	0	0	640	4	1315	811
109	0	0	417	4	1293	811
110	0	0	226	4	1278	812
111	0	0	490	5	1272	812
112	0	0	1089	5	1271	812
113	0	0	1665	5	1278	811
114	0	0	2563	5	1288	811
115	0	0	3119	5	1301	812
116	0	0	3348	5	1314	811
117	0	0	3498	5	1331	812
118	0	0	3585	5	1346	812
119	0	0	3619	5	1364	812
120	0	0	3696	3	1373	812
121	0	0	3211	4	1376	812
122	0	0	2703	4	1381	812
123	0	0	2376	3	1378	812
124	0	0	1943	4	1370	812
125	0	0	1427	4	1359	812
126	0	0	994	3	1342	812
127	0	0	645	4	1330	812
0	0	0	479	4	1316	811
1	0	0	309	4	1292	812
2	0	0	165	4	1280	812
3	0	0	421	5	1269	812
4	0	0	1047	5	1271	811
5	0	0	1616	5	1275	811
6	0	0	2511	5	1286	811
7	0	0	3060	4	1298	812
8	0	0	3306	5	1314	812
9	0	0	3466	4	1332	812
10	0	0	3542	5	1344	811
11	0	0	3601	5	1363	812
12	0	0	3663	4	1368	812
13	0	0	3190	4	1377	812
14	0	0	2730	4	1379	812
15	0	0	2399	3	1377	811
16	0	0	1972	4	1370	812
17	0	0	1479	4	1357	812
18	0	0	1041	4	1343	811
19	0	0	731	4	1329	812
20	0	0	582	4	1314	811
21	0	0	383	4	1294	811
22	0	0	206	3	1277	811
23	0	0	483	5	1268	811
24	0	0	1144	5	1270	811
25	0	0	1726	5	1274	812
26	0	0	2609	5	1285	811
27	0	0	3173	4	1300	812
28	0	0	3404	5	1315	812
29	0	0	3567	5	1329	811
30	0	0	3673	5	1345	812
31	0	0	3699	5	1359	812
32	0	0	3737	3	1372	812
33	0	0	3258	4	1373	812
34	0	0	2789	4	1379	812
35	0	0	2456	4	1377	812
36	0	0	2033	4	1367	812
37	0	0	1542	4	1358	812
38	0	0	1039	4	1345	812
39	0	0	684	4	1329	812
40	0	0	574	4	1315	812
41	0	0	376	4	1291	812
42	0	0	199	4	1279	812
43	0	0	424	5	1270	811
44	0	0	1050	6	1270	811
45	0	0	1625	5	1274	811
46	0	0	2524	5	1286	812
47	0	0	3101	5	1297	812
48	0	0	3298	5	1313	811
49	0	0	3449	5	1330	812
50	0	0	3549	5	1342	812
51	0	0	3543	5	1360	812
52	0	0	3606	4	1368	812
53	0	0	3127	4	1375	812
54	0	0	2642	4	1379	812
55	0	0	2331	3	1374	811
56	0	0	1938	4	1369	812
57	0	0	1448	3	1358	812
58	0	0	961	4	1343	812
59	0	0	621	4	1330	812
60	0	0	478	4	1312	812
61	0	0	300	4	1289	812
62	0	0	157	3	1277	812
63	0	0	392	5	1270	812
64	0	0	995	5	1266	811
65	0	0	1600	5	1274	811
66	0	0	2535	5	1282	812
67	0	0	3103	5	1298	812
68	0	0	3326	5	1313	812
69	0	0	3475	5	1327	812
70	0	0	3572	4	1343	812
71	0	0	3615	5	1357	812
72	0	0	3692	3	1366	812
73	0	0	3216	4	1375	812
74	0	0	2732	4	1379	812
75	0	0	2416	4	1372	812
76	0	0	2009	4	1366	812
77	0	0	1523	3	1355	812
78	0	0	1026	4	1342	812
79	0	0	656	4	1326	812
80	0	0	534	5	1312	811
81	0	0	374	4	1290	812
82	0	0	200	3	1274	812
83	0	0	466	5	1269	812
84	0	0	1066	5	1264	811
85	0	0	1626	5	1273	812
86	0	0	2544	5	1284	812
87	0	0	3134	4	1294	812
88	0	0	3375	5	1310	811
89	0	0	3500	6	1328	811
90	0	0	3578	5	1339	812
91	0	0	3614	5	1358	812
92	0	0	3697	3	1367	812
93	0	0	3216	4	1375	812
94	0	0	2707	4	1376	812
95	0	0	2356	4	1374	812
96	0	0	1941	4	1367	812
97	0	0	1433	3	1354	813
98	0	0	964	3	1341	812
99	0	0	618	5	1325	812
100	0	0	480	4	1313	812
101	0	0	319	4	1291	812
102	0	0	168	4	1279	812
103	0	0	401	5	1267	812
104	0	0	968	5	1268	812
105	0	0	1548	6	1273	811
106	0	0	2475	5	1285	811
107	0	0	3073	5	1297	812
108	0	0	3320	5	1311	812
109	0	0	3432	5	1327	812
110	0	0	3500	6	1342	811
111	0	0	3521	5	1354	812
112	0	0	3618	3	1367	812
113	0	0	3187	4	1371	812
114	0	0	2670	4	1376	812
115	0	0	2340	4	1371	812
116	0	0	1908	4	1367	812
117	0	0	1414	3	1354	812
118	0	0	973	4	1340	813
119	0	0	631	5	1325	812
120	0	0	530	4	1311	812
121	0	0	361	4	1289	812
122	0	0	195	3	1277	812
123	0	0	460	4	1272	811
124	0	0	1047	6	1263	812
125	0	0	1621	5	1273	811
126	0	0	2527	5	1284	811
127	0	0	3138	4	1295	812
0	0	0	3423	5	1310	812
1	0	0	3551	5	1327	812
2	0	0	3622	5	1341	811
3	0	0	3654	5	1356	812
4	0	0	3771	4	1366	812
5	0	0	3303	4	1373	812
6	0	0	2794	4	1373	812
7	0	0	2452	4	1371	812
8	0	0	1996	4	1367	812
9	0	0	1507	4	1355	812
10	0	0	1074	4	1339	812
11	0	0	736	5	1326	812
12	0	0	569	4	1312	811
13	0	0	385	4	1287	812
14	0	0	208	4	1275	812
15	0	0	450	5	1268	811
16	0	0	1067	5	1263	812
17	0	0	1597	5	1271	811
18	0	0	2505	5	1284	812
19	0	0	3122	4	1297	812
20	0	0	3382	5	1310	812
21	0	0	3504	5	1324	812
22	0	0	3528	5	1339	812
23	0	0	3527	5	1357	812
24	0	0	3633	4	1366	812
25	0	0	3204	4	1372	812
26	0	0	2732	5	1372	812
27	0	0	2327	4	1372	812
28	0	0	1899	4	1365	812
29	0	0	1395	4	1352	812
30	0	0	945	4	1339	812
31	0	0	660	4	1325	812
32	0	0	473	4	1311	812
33	0	0	320	4	1289	812
34	0	0	170	4	1277	812
35	0	0	403	5	1269	812
36	0	0	1046	5	1263	812
37	0	0	1566	5	1271	811
38	0	0	2491	5	1282	812
39	0	0	3089	4	1295	812
40	0	0	3333	5	1309	812
41	0	0	3507	5	1325	812
42	0	0	3549	5	1339	812
43	0	0	3591	5	1355	812
44	0	0	3673	4	1366	812
45	0	0	3237	4	1373	812
46	0	0	2764	4	1374	812
47	0	0	2397	4	1372	812
48	0	0	2004	4	1363	812
49	0	0	1502	4	1353	812
50	0	0	1055	4	1337	812
51	0	0	753	4	1325	812
52	0	0	589	4	1309	811
53	0	0	385	3	1290	811
54	0	0	207	4	1277	812
55	0	0	460	5	1269	812
56	0	0	1107	6	1260	812
57	0	0	1671	5	1270	811
58	0	0	2553	5	1282	811
59	0	0	3141	5	1293	812
60	0	0	3391	5	1309	812
61	0	0	3572	5	1323	812
62	0	0	3660	5	1339	812
63	0	0	3632	5	1353	813
64	0	0	3733	4	1365	812
65	0	0	3265	4	1370	812
66	0	0	2763	4	1371	812
67	0	0	2439	4	1371	812
68	0	0	1963	4	1363	812
69	0	0	1456	3	1353	812
70	0	0	1004	3	1338	812
71	0	0	691	3	1325	812
72	0	0	559	4	1310	813
73	0	0	354	4	1286	812
74	0	0	188	4	1271	812
75	0	0	413	5	1265	811
76	0	0	1035	5	1264	811
77	0	0	1619	6	1268	812
78	0	0	2505	5	1277	812
79	0	0	3079	5	1294	812
80	0	0	3308	5	1306	812
81	0	0	3466	5	1323	811
82	0	0	3545	5	1337	812
83	0	0	3520	5	1352	812
84	0	0	3588	4	1361	812
85	0	0	3149	4	1367	812
86	0	0	2678	4	1372	812
87	0	0	2370	4	1369	813
88	0	0	1926	4	1363	812
89	0	0	1443	4	1351	812
90	0	0	989	4	1336	812
91	0	0	655	3	1323	812
92	0	0	522	4	1310	811
93	0	0	353	4	1285	811
94	0	0	190	4	1272	812
95	0	0	392	5	1266	812
96	0	0	1036	5	1259	811
97	0	0	1603	6	1268	812
98	0	0	2516	5	1276	811
99	0	0	3123	5	1291	812
100	0	0	3345	5	1304	812
101	0	0	3507	4	1322	812
102	0	0	3593	5	1334	813
103	0	0	3608	4	1352	812
104	0	0	3690	4	1359	812
105	0	0	3223	4	1369	812
106	0	0	2757	4	1370	812
107	0	0	2420	4	1367	813
108	0	0	1975	4	1362	811
109	0	0	1472	4	1350	812
110	0	0	1035	4	1336	812
111	0	0	722	4	1321	812
112	0	0	539	5	1306	812
113	0	0	352	4	1283	812
114	0	0	188	4	1270	811
115	0	0	487	5	1263	812
116	0	0	1080	6	1261	812
117	0	0	1586	6	1267	811
118	0	0	2499	5	1275	811
119	0	0	3107	5	1289	812
120	0	0	3367	5	1304	812
121	0	0	3453	5	1320	812
122	0	0	3507	6	1335	812
123	0	0	3552	5	1348	812
124	0	0	3661	4	1359	812
125	0	0	3211	3	1368	812
126	0	0	2647	4	1370	812
127	0	0	2325	4	1367	813
0	0	0	1944	4	1358	812
1	0	0	1433	4	1349	812
2	0	0	938	4	1333	812
3	0	0	569	4	1319	812
4	0	0	479	5	1307	812
5	0	0	334	4	1286	811
6	0	0	178	4	1269	812
7	0	0	354	5	1263	812
8	0	0	967	5	1261	811
9	0	0	1558	5	1267	813
10	0	0	2433	5	1277	812
11	0	0	2996	5	1289	812
12	0	0	3258	5	1306	812
13	0	0	3450	5	1320	812
14	0	0	3520	5	1334	812
15	0	0	3520	5	1353	812
16	0	0	3637	4	1363	812
17	0	0	3204	4	1368	812
18	0	0	2729	4	1368	812
19	0	0	2346	3	1367	813
20	0	0	1878	4	1360	812
21	0	0	1451	4	1348	812
22	0	0	1022	4	1335	812
23	0	0	707	4	1321	812
24	0	0	540	4	1306	812
25	0	0	384	4	1282	811
26	0	0	207	4	1270	812
27	0	0	415	5	1262	811
28	0	0	1064	6	1259	811
29	0	0	1632	5	1268	812
30	0	0	2574	5	1277	811
31	0	0	3165	5	1291	812
32	0	0	3383	5	1304	812
33	0	0	3552	5	1321	812
34	0	0	3623	5	1333	812
35	0	0	3603	5	1349	812
36	0	0	3664	4	1359	812
37	0	0	3194	4	1363	812
38	0	0	2767	4	1368	812
39	0	0	2414	3	1366	812
40	0	0	1961	4	1358	812
41	0	0	1490	4	1349	812
42	0	0	1022	4	1333	812
43	0	0	708	5	1321	812
44	0	0	517	4	1306	812
45	0	0	328	4	1284	811
46	0	0	176	4	1271	812
47	0	0	378	5	1263	811
48	0	0	983	5	1256	811
49	0	0	1496	5	1263	812
50	0	0	2422	5	1277	811
51	0	0	3062	5	1288	811
52	0	0	3308	5	1303	812
53	0	0	3417	5	1319	812
54	0	0	3498	5	1332	811
55	0	0	3506	5	1347	811
56	0	0	3614	4	1359	812
57	0	0	3147	4	1365	812
58	0	0	2643	4	1366	812
59	0	0	2320	4	1365	812
60	0	0	1882	3	1361	812
61	0	0	1400	4	1348	812
62	0	0	948	4	1337	812
63	0	0	623	3	1319	812
64	0	0	520	4	1306	812
65	0	0	350	4	1283	811
66	0	0	190	4	1271	812
67	0	0	389	5	1262	812
68	0	0	1020	5	1258	811
69	0	0	1592	5	1265	811
70	0	0	2481	5	1277	812
71	0	0	3076	5	1289	811
72	0	0	3342	5	1303	811
73	0	0	3522	5	1321	812
74	0	0	3570	5	1335	812
75	0	0	3556	5	1353	811
76	0	0	3701	4	1360	812
77	0	0	3294	4	1368	812
78	0	0	2778	3	1371	812
79	0	0	2424	4	1367	812
80	0	0	2005	4	1362	812
81	0	0	1543	4	1350	812
82	0	0	1082	4	1335	812
83	0	0	735	4	1320	812
84	0	0	603	4	1306	812
85	0	0	433	4	1284	811
86	0	0	236	4	1269	812
87	0	0	420	5	1265	811
88	0	0	1039	5	1259	812
89	0	0	1634	4	1265	812
90	0	0	2572	5	1278	811
91	0	0	3149	5	1291	811
92	0	0	3372	5	1305	811
93	0	0	3543	5	1321	812
94	0	0	3623	5	1334	812
95	0	0	3581	5	1352	812
96	0	0	3686	4	1360	811
97	0	0	3243	4	1365	812
98	0	0	2752	3	1366	812
99	0	0	2388	4	1368	812
100	0	0	1933	3	1360	812
101	0	0	1463	3	1348	812
102	0	0	1032	4	1337	812
103	0	0	694	2	1320	812
104	0	0	512	4	1307	811
105	0	0	353	4	1285	811
106	0	0	193	4	1269	812
107	0	0	389	5	1260	812
108	0	0	990	5	1257	811
109	0	0	1542	5	1267	811
110	0	0	2485	5	1276	811
111	0	0	3103	5	1289	812
112	0	0	3320	5	1302	812
113	0	0	3445	5	1321	812
114	0	0	3532	4	1332	812
115	0	0	3548	5	1351	811
116	0	0	3641	4	1361	812
117	0	0	3188	4	1365	812
118	0	0	2711	3	1368	812
119	0	0	2404	4	1366	813
120	0	0	1973	3	1360	811
121	0	0	1490	3	1349	812
122	0	0	1035	4	1335	812
123	0	0	712	3	1321	812
124	0	0	559	4	1307	811
125	0	0	371	4	1284	812
126	0	0	203	4	1271	812
127	0	0	428	5	1263	811
0	0	0	1069	5	1258	811
1	0	0	1597	5	1263	811
2	0	0	2510	5	1276	812
3	0	0	3128	5	1286	811
4	0	0	3401	5	1304	811
5	0	0	3539	5	1317	811
6	0	0	3597	5	1333	812
7	0	0	3593	5	1349	811
8	0	0	3712	4	1361	812
9	0	0	3282	4	1363	812
10	0	0	2747	4	1368	812
11	0	0	2388	3	1365	812
12	0	0	2001	4	1358	812
13	0	0	1558	3	1348	812
14	0	0	1097	4	1332	812
15	0	0	749	4	1317	812
16	0	0	601	4	1305	812
17	0	0	409	4	1285	812
18	0	0	222	4	1269	812
19	0	0	407	5	1261	811
20	0	0	1063	5	1258	811
21	0	0	1611	5	1265	811
22	0	0	2504	5	1277	812
23	0	0	3084	5	1288	811
24	0	0	3338	5	1300	812
25	0	0	3514	5	1314	811
26	0	0	3589	5	1332	812
27	0	0	3576	5	1349	812
28	0	0	3674	4	1358	812
29	0	0	3256	3	1362	812
30	0	0	2743	4	1367	812
31	0	0	2372	4	1364	812
32	0	0	1946	3	1358	812
33	0	0	1483	4	1347	812
34	0	0	1031	3	1333	812
35	0	0	675	3	1318	812
36	0	0	501	4	1301	812
37	0	0	352	4	1283	812
38	0	0	189	4	1266	812
39	0	0	398	5	1261	812
40	0	0	1020	5	1259	811
41	0	0	1562	5	1262	812
42	0	0	2471	5	1273	811
43	0	0	3075	5	1286	811
44	0	0	3308	5	1300	811
45	0	0	3494	5	1317	811
46	0	0	3600	5	1330	812
47	0	0	3614	5	1344	812
48	0	0	3689	4	1356	812
49	0	0	3236	4	1364	812
50	0	0	2719	4	1364	812
51	0	0	2404	4	1365	812
52	0	0	2010	4	1358	812
53	0	0	1533	4	1347	811
54	0	0	1078	4	1333	812
55	0	0	741	3	1317	812
56	0	0	570	4	1304	811
57	0	0	390	4	1283	812
58	0	0	211	4	1271	812
59	0	0	450	5	1260	812
60	0	0	1077	5	1256	812
61	0	0	1596	5	1263	811
62	0	0	2502	4	1272	812
63	0	0	3121	5	1285	812
64	0	0	3392	5	1302	812
65	0	0	3553	4	1315	812
66	0	0	3619	5	1330	813
67	0	0	3641	5	1345	812
68	0	0	3740	4	1357	812
69	0	0	3271	4	1362	812
70	0	0	2755	4	1363	812
71	0	0	2439	3	1364	812
72	0	0	2015	4	1358	812
73	0	0	1516	4	1346	811
74	0	0	1033	3	1331	812
75	0	0	687	4	1318	811
76	0	0	540	4	1303	812
77	0	0	380	4	1279	812
78	0	0	205	4	1267	811
79	0	0	401	5	1260	811
80	0	0	1040	5	1254	812
81	0	0	1560	5	1265	813
82	0	0	2446	5	1273	812
83	0	0	3063	5	1286	811
84	0	0	3343	5	1300	812
85	0	0	3494	5	1317	812
86	0	0	3547	5	1330	811
87	0	0	3514	5	1347	812
88	0	0	3625	5	1358	812
89	0	0	3183	3	1360	811
90	0	0	2691	3	1366	812
91	0	0	2361	4	1362	812
92	0	0	1947	4	1356	812
93	0	0	1497	4	1345	812
94	0	0	1021	4	1330	812
95	0	0	665	4	1316	812
96	0	0	541	4	1305	812
97	0	0	393	4	1281	811
98	0	0	213	4	1268	811
99	0	0	399	5	1261	812
100	0	0	1025	6	1254	811
101	0	0	1569	6	1260	812
102	0	0	2503	5	1273	812
103	0	0	3117	5	1285	811
104	0	0	3388	5	1299	812
105	0	0	3549	5	1313	811
106	0	0	3628	5	1330	811
107	0	0	3571	5	1345	812
108	0	0	3664	4	1357	812
109	0	0	3259	4	1363	812
110	0	0	2807	4	1363	812
111	0	0	2461	4	1360	812
112	0	0	2031	4	1358	812
113	0	0	1569	4	1345	811
114	0	0	1079	4	1333	811
115	0	0	767	3	1316	812
116	0	0	625	4	1303	812
117	0	0	424	4	1281	811
118	0	0	229	4	1268	812
119	0	0	410	5	1258	812
120	0	0	1043	5	1258	811
121	0	0	1591	5	1261	812
122	0	0	2535	5	1271	811
123	0	0	3144	5	1284	811
124	0	0	3385	5	1298	812
125	0	0	3530	5	1316	812
126	0	0	3592	5	1328	812
127	0	0	3576	5	1345	812
0	0	0	3694	4	1354	812
1	0	0	3215	4	1361	812
2	0	0	2699	4	1364	812
3	0	0	2409	4	1362	812
4	0	0	1982	4	1357	812
5	0	0	1481	3	1344	812
6	0	0	1009	4	1331	812
7	0	0	686	2	1316	811
8	0	0	540	4	1300	812
9	0	0	369	4	1278	812
10	0	0	199	4	1266	811
11	0	0	361	5	1260	811
12	0	0	988	5	1253	811
13	0	0	1543	5	1261	812
14	0	0	2467	5	1271	812
15	0	0	3074	5	1283	811
16	0	0	3328	6	1297	811
17	0	0	3456	5	1315	812
18	0	0	3511	5	1330	813
19	0	0	3527	5	1345	811
20	0	0	3660	4	1352	812
21	0	0	3238	4	1362	812
22	0	0	2709	3	1365	812
23	0	0	2371	3	1360	812
24	0	0	1951	4	1356	813
25	0	0	1477	4	1343	812
26	0	0	1027	3	1329	812
27	0	0	691	3	1315	811
28	0	0	530	4	1301	812
29	0	0	380	4	1279	812
30	0	0	206	4	1264	812
31	0	0	383	5	1255	811
32	0	0	1055	5	1250	811
33	0	0	1586	5	1259	811
34	0	0	2508	5	1271	812
35	0	0	3127	5	1282	811
36	0	0	3375	5	1296	811
37	0	0	3537	5	1314	812
38	0	0	3593	5	1327	812
39	0	0	3608	5	1342	812
40	0	0	3714	4	1356	812
41	0	0	3253	4	1360	811
42	0	0	2759	4	1361	811
43	0	0	2422	3	1358	812
44	0	0	2008	4	1354	812
45	0	0	1567	4	1341	812
46	0	0	1123	4	1329	812
47	0	0	782	4	1315	812
48	0	0	610	3	1301	811
49	0	0	422	4	1276	812
50	0	0	229	4	1266	811
51	0	0	423	5	1256	811
52	0	0	1084	5	1254	811
53	0	0	1616	5	1258	811
54	0	0	2525	5	1269	812
55	0	0	3136	5	1282	811
56	0	0	3357	5	1298	811
57	0	0	3515	5	1311	812
58	0	0	3608	4	1325	812
59	0	0	3590	5	1343	812
60	0	0	3686	4	1355	812
61	0	0	3257	4	1358	812
62	0	0	2747	4	1364	812
63	0	0	2400	4	1360	812
64	0	0	1960	4	1354	811
65	0	0	1520	4	1342	812
66	0	0	1062	4	1328	812
67	0	0	723	4	1314	812
68	0	0	542	3	1300	811
69	0	0	349	4	1280	812
70	0	0	186	4	1265	812
71	0	0	395	5	1257	811
72	0	0	1028	5	1254	811
73	0	0	1558	5	1256	812
74	0	0	2456	5	1268	811
75	0	0	3085	5	1282	811
76	0	0	3328	5	1296	812
77	0	0	3486	5	1308	812
78	0	0	3577	5	1326	812
79	0	0	3527	5	1343	811
80	0	0	3620	4	1351	812
81	0	0	3184	4	1357	812
82	0	0	2694	4	1363	812
83	0	0	2408	3	1359	812
84	0	0	2009	4	1354	812
85	0	0	1540	4	1341	812
86	0	0	1077	4	1330	812
87	0	0	707	5	1314	811
88	0	0	553	3	1300	811
89	0	0	375	4	1279	813
90	0	0	200	4	1262	811
91	0	0	396	5	1252	812
92	0	0	1055	5	1253	811
93	0	0	1604	5	1258	812
94	0	0	2493	6	1270	812
95	0	0	3103	5	1281	811
96	0	0	3383	5	1297	811
97	0	0	3552	5	1310	812
98	0	0	3619	5	1324	812
99	0	0	3582	5	1340	811
100	0	0	3660	4	1351	812
101	0	0	3240	4	1359	812
102	0	0	2742	3	1357	812
103	0	0	2412	3	1358	812
104	0	0	1994	4	1351	812
105	0	0	1520	3	1339	812
106	0	0	1054	4	1328	812
107	0	0	691	4	1316	812
108	0	0	551	4	1301	812
109	0	0	408	4	1280	811
110	0	0	219	4	1265	812
111	0	0	387	5	1255	811
112	0	0	1041	5	1251	812
113	0	0	1569	5	1256	811
114	0	0	2500	5	1268	811
115	0	0	3114	5	1281	812
116	0	0	3358	5	1295	812
117	0	0	3520	5	1310	812
118	0	0	3596	5	1324	812
119	0	0	3566	5	1341	812
120	0	0	3618	4	1349	812
121	0	0	3184	4	1359	812
122	0	0	2713	4	1359	812
123	0	0	2385	3	1360	812
124	0	0	1970	4	1353	812
125	0	0	1514	4	1342	812
126	0	0	1027	4	1327	812
127	0	0	693	5	1314	812
0	0	0	541	4	1301	812
1	0	0	398	4	1280	811
2	0	0	212	4	1264	811
3	0	0	401	5	1257	811
4	0	0	1025	5	1251	811
5	0	0	1537	5	1257	811
6	0	0	2482	5	1268	811
7	0	0	3106	5	1280	811
8	0	0	3409	5	1296	811
9	0	0	3553	5	1309	812
10	0	0	3610	5	1324	812
11	0	0	3540	5	1342	812
12	0	0	3678	4	1354	812
13	0	0	3249	4	1358	812
14	0	0	2750	4	1361	812
15	0	0	2434	4	1359	813
16	0	0	2018	4	1352	812
17	0	0	1519	3	1342	812
18	0	0	1045	4	1327	812
19	0	0	712	4	1312	812
20	0	0	572	4	1300	812
21	0	0	420	3	1275	812
22	0	0	225	4	1262	812
23	0	0	402	5	1254	812
24	0	0	1008	5	1252	811
25	0	0	1564	5	1257	811
26	0	0	2506	5	1267	812
27	0	0	3120	5	1279	812
28	0	0	3408	5	1296	811
29	0	0	3543	6	1310	811
30	0	0	3573	5	1325	812
31	0	0	3539	5	1342	812
32	0	0	3653	4	1352	812
33	0	0	3249	4	1357	813
34	0	0	2736	4	1361	812
35	0	0	2416	3	1358	812
36	0	0	1974	3	1354	812
37	0	0	1488	4	1343	812
38	0	0	1045	4	1326	812
39	0	0	714	4	1317	811
40	0	0	557	4	1299	811
41	0	0	399	4	1279	812
42	0	0	213	4	1260	812
43	0	0	357	5	1253	811
44	0	0	1001	5	1253	811
45	0	0	1544	5	1257	812
46	0	0	2473	5	1268	812
47	0	0	3104	5	1280	811
48	0	0	3373	5	1294	811
49	0	0	3508	5	1308	811
50	0	0	3544	4	1327	812
51	0	0	3518	5	1339	812
52	0	0	3657	4	1352	811
53	0	0	3246	4	1356	812
54	0	0	2741	5	1361	812
55	0	0	2393	2	1359	812
56	0	0	1933	3	1352	812
57	0	0	1485	4	1341	812
58	0	0	1048	4	1328	812
59	0	0	711	4	1315	812
60	0	0	554	3	1300	811
61	0	0	395	4	1278	812
62	0	0	212	4	1261	811
63	0	0	372	5	1254	812
64	0	0	1036	6	1253	811
65	0	0	1570	4	1256	811
66	0	0	2496	5	1266	812
67	0	0	3117	5	1281	811
68	0	0	3404	6	1294	812
69	0	0	3527	5	1311	812
70	0	0	3593	5	1327	812
71	0	0	3528	5	1341	812
72	0	0	3644	4	1351	812
73	0	0	3248	4	1359	812
74	0	0	2776	3	1363	812
75	0	0	2441	5	1360	812
76	0	0	2006	3	1354	812
77	0	0	1550	4	1341	812
78	0	0	1092	4	1327	812
79	0	0	758	4	1313	811
80	0	0	618	4	1301	812
81	0	0	434	4	1279	812
82	0	0	234	4	1262	812
83	0	0	404	5	1256	811
84	0	0	1063	5	1251	811
85	0	0	1598	6	1258	812
86	0	0	2520	5	1268	811
87	0	0	3132	5	1279	812
88	0	0	3395	5	1296	811
89	0	0	3538	5	1310	811
90	0	0	3613	6	1327	812
91	0	0	3587	5	1339	812
92	0	0	3704	4	1351	812
93	0	0	3297	4	1358	812
94	0	0	2759	4	1360	812
95	0	0	2419	2	1360	812
96	0	0	1995	4	1353	813
97	0	0	1519	4	1342	812
98	0	0	1060	3	1329	812
99	0	0	729	4	1314	812
100	0	0	574	5	1299	811
101	0	0	400	4	1279	812
102	0	0	213	4	1265	811
103	0	0	390	6	1255	811
104	0	0	1060	5	1252	811
105	0	0	1598	6	1257	812
106	0	0	2502	5	1269	812
107	0	0	3117	5	1281	812
108	0	0	3382	6	1295	812
109	0	0	3520	5	1308	811
110	0	0	3565	5	1324	812
111	0	0	3497	5	1339	812
112	0	0	3663	4	1353	812
113	0	0	3262	4	1357	812
114	0	0	2764	6	1362	812
115	0	0	2413	3	1358	812
116	0	0	1970	4	1351	812
117	0	0	1516	4	1341	812
118	0	0	1058	5	1327	812
119	0	0	731	4	1315	811
120	0	0	551	4	1300	812
121	0	0	400	4	1279	812
122	0	0	212	4	1260	812
123	0	0	380	5	1255	811
124	0	0	1055	5	1253	811
125	0	0	1598	5	1256	811
126	0	0	2493	5	1265	812
127	0	0	3113	5	1279	812
0	0	0	3409	6	1294	812
1	0	0	3556	5	1309	811
2	0	0	3605	4	1322	812
3	0	0	3569	5	1337	812
4	0	0	3710	4	1351	812
5	0	0	3271	4	1355	812
6	0	0	2761	4	1362	812
7	0	0	2403	4	1359	812
8	0	0	1956	4	1352	812
9	0	0	1512	4	1339	812
10	0	0	1062	3	1329	812
11	0	0	705	5	1311	812
12	0	0	529	4	1299	811
13	0	0	383	4	1279	812
14	0	0	201	4	1264	812
15	0	0	394	5	1253	811
16	0	0	1044	5	1250	812
17	0	0	1568	6	1256	812
18	0	0	2482	5	1266	812
19	0	0	3103	5	1280	811
20	0	0	3377	5	1294	812
21	0	0	3503	5	1309	812
22	0	0	3530	6	1325	812
23	0	0	3497	4	1340	813
24	0	0	3634	4	1353	812
25	0	0	3235	4	1358	812
26	0	0	2724	4	1357	812
27	0	0	2390	4	1357	812
28	0	0	1965	4	1351	812
29	0	0	1519	4	1341	813
30	0	0	1051	4	1329	812
31	0	0	686	5	1312	812
32	0	0	527	3	1300	811
33	0	0	386	3	1279	812
34	0	0	203	4	1262	812
35	0	0	365	5	1256	812
36	0	0	1006	5	1248	811
37	0	0	1553	5	1256	812
38	0	0	2484	5	1265	812
39	0	0	3109	5	1279	812
40	0	0	3392	5	1292	812
41	0	0	3531	5	1309	811
42	0	0	3582	5	1325	812
43	0	0	3525	4	1341	813
44	0	0	3697	4	1352	811
45	0	0	3269	4	1358	812
46	0	0	2730	4	1359	812
47	0	0	2379	4	1356	812
48	0	0	1965	4	1355	812
49	0	0	1505	3	1341	812
50	0	0	1026	4	1328	812
51	0	0	707	4	1313	812
52	0	0	557	4	1302	812
53	0	0	413	3	1279	812
54	0	0	218	4	1265	812
55	0	0	381	5	1257	811
56	0	0	999	5	1252	811
57	0	0	1559	5	1254	811
58	0	0	2502	5	1267	812
59	0	0	3121	6	1280	811
60	0	0	3409	5	1295	812
61	0	0	3546	5	1309	812
62	0	0	3571	5	1324	812
63	0	0	3489	4	1341	812
64	0	0	3637	4	1350	812
65	0	0	3241	4	1358	812
66	0	0	2719	5	1360	811
67	0	0	2384	4	1360	812
68	0	0	1971	4	1353	812
69	0	0	1464	3	1342	812
70	0	0	979	4	1328	811
71	0	0	664	4	1313	811
72	0	0	536	3	1301	812
73	0	0	397	3	1278	812
74	0	0	212	4	1264	812
75	0	0	335	5	1252	811
76	0	0	982	5	1248	811
77	0	0	1516	6	1257	812
78	0	0	2462	5	1266	813
79	0	0	3097	5	1280	811
80	0	0	3364	5	1294	812
81	0	0	3512	5	1309	812
82	0	0	3582	5	1326	812
83	0	0	3473	5	1338	813
84	0	0	3564	4	1350	812
85	0	0	3201	4	1356	812
86	0	0	2716	4	1361	812
87	0	0	2392	4	1357	813
88	0	0	1929	3	1351	812
89	0	0	1442	4	1342	813
90	0	0	980	4	1328	812
91	0	0	668	4	1315	812
92	0	0	538	4	1300	812
93	0	0	395	3	1277	812
94	0	0	210	4	1263	812
95	0	0	378	5	1253	811
96	0	0	1055	5	1252	812
97	0	0	1562	5	1256	811
98	0	0	2466	5	1266	811
99	0	0	3100	5	1279	812
100	0	0	3426	5	1294	812
101	0	0	3532	5	1308	812
102	0	0	3559	5	1326	812
103	0	0	3523	5	1340	813
104	0	0	3680	4	1352	812
105	0	0	3316	4	1359	812
106	0	0	2784	5	1358	812
107	0	0	2404	4	1358	812
108	0	0	1962	4	1353	812
109	0	0	1527	4	1343	812
110	0	0	1047	4	1328	812
111	0	0	683	4	1316	812
112	0	0	536	4	1300	812
113	0	0	419	4	1280	812
114	0	0	222	4	1264	812
115	0	0	382	5	1257	811
116	0	0	1028	5	1253	811
117	0	0	1553	6	1257	811
118	0	0	2478	5	1266	812
119	0	0	3106	5	1281	811
120	0	0	3427	5	1295	812
121	0	0	3529	6	1311	811
122	0	0	3601	6	1325	812
123	0	0	3577	5	1342	812
124	0	0	3662	4	1351	813
125	0	0	3226	4	1359	812
126	0	0	2726	4	1363	812
127	0	0	2409	4	1358	813
0	0	0	1973	4	1354	812
1	0	0	1486	3	1344	812
2	0	0	1002	3	1330	812
3	0	0	658	4	1316	812
4	0	0	536	5	1301	812
5	0	0	405	4	1281	812
6	0	0	214	4	1267	812
7	0	0	346	5	1255	812
8	0	0	1039	5	1251	812
9	0	0	1584	6	1257	812
10	0	0	2473	5	1270	812
11	0	0	3095	5	1281	811
12	0	0	3400	5	1292	811
13	0	0	3531	5	1309	811
14	0	0	3578	4	1327	812
15	0	0	3554	5	1342	812
16	0	0	3681	4	1352	812
17	0	0	3269	4	1362	812
18	0	0	2755	4	1359	812
19	0	0	2406	5	1358	812
20	0	0	1964	4	1353	812
21	0	0	1530	4	1342	812
22	0	0	1076	3	1329	812
23	0	0	693	4	1317	812
24	0	0	521	5	1301	812
25	0	0	393	4	1281	812
26	0	0	208	4	1262	811
27	0	0	365	5	1256	811
28	0	0	1027	5	1254	812
29	0	0	1575	5	1258	812
30	0	0	2493	5	1267	811
31	0	0	3111	5	1283	811
32	0	0	3427	5	1296	811
33	0	0	3561	5	1309	812
34	0	0	3632	6	1326	812
35	0	0	3583	5	1341	812
36	0	0	3683	4	1352	812
37	0	0	3231	4	1359	812
38	0	0	2707	4	1360	812
39	0	0	2383	3	1357	812
40	0	0	1947	4	1354	812
41	0	0	1509	4	1343	811
42	0	0	1036	3	1331	812
43	0	0	690	4	1317	812
44	0	0	506	5	1301	811
45	0	0	364	3	1282	812
46	0	0	192	4	1264	811
47	0	0	341	5	1255	811
48	0	0	1025	5	1252	812
49	0	0	1554	7	1256	812
50	0	0	2471	5	1267	812
51	0	0	3100	5	1281	811
52	0	0	3385	5	1296	811
53	0	0	3501	5	1311	812
54	0	0	3564	6	1326	812
55	0	0	3497	5	1339	812
56	0	0	3643	4	1352	811
57	0	0	3231	4	1357	812
58	0	0	2713	4	1360	812
59	0	0	2382	5	1361	812
60	0	0	1953	4	1355	812
61	0	0	1500	4	1343	812
62	0	0	1015	4	1331	812
63	0	0	642	4	1316	812
64	0	0	481	5	1301	812
65	0	0	381	3	1280	812
66	0	0	201	4	1265	811
67	0	0	340	5	1259	811
68	0	0	1018	5	1252	812
69	0	0	1556	6	1259	811
70	0	0	2464	5	1268	811
71	0	0	3097	5	1281	811
72	0	0	3377	5	1293	811
73	0	0	3540	5	1309	812
74	0	0	3619	5	1325	812
75	0	0	3559	5	1341	812
76	0	0	3645	4	1352	811
77	0	0	3243	3	1360	812
78	0	0	2753	4	1362	812
79	0	0	2406	4	1361	811
80	0	0	1962	3	1357	812
81	0	0	1505	4	1345	811
82	0	0	1052	4	1330	812
83	0	0	687	4	1315	812
84	0	0	530	4	1301	812
85	0	0	399	3	1281	812
86	0	0	213	4	1262	811
87	0	0	371	5	1258	812
88	0	0	1032	6	1253	811
89	0	0	1539	6	1256	812
90	0	0	2459	5	1267	812
91	0	0	3098	5	1281	812
92	0	0	3377	5	1295	812
93	0	0	3510	5	1311	812
94	0	0	3588	5	1326	812
95	0	0	3568	5	1341	812
96	0	0	3672	4	1353	812
97	0	0	3260	4	1361	812
98	0	0	2732	4	1363	812
99	0	0	2420	4	1362	812
100	0	0	1996	4	1357	812
101	0	0	1505	4	1344	812
102	0	0	1001	3	1332	811
103	0	0	672	3	1316	812
104	0	0	534	4	1302	811
105	0	0	399	3	1280	811
106	0	0	214	4	1265	812
107	0	0	345	5	1259	811
108	0	0	1021	5	1254	812
109	0	0	1561	6	1258	812
110	0	0	2462	6	1269	811
111	0	0	3097	5	1280	811
112	0	0	3386	5	1297	812
113	0	0	3544	5	1311	812
114	0	0	3595	5	1326	812
115	0	0	3523	5	1341	812
116	0	0	3658	4	1353	811
117	0	0	3266	4	1360	811
118	0	0	2739	3	1361	812
119	0	0	2401	4	1361	812
120	0	0	1960	3	1357	812
121	0	0	1491	4	1346	812
122	0	0	1019	4	1332	812
123	0	0	678	3	1317	812
124	0	0	522	4	1302	812
125	0	0	403	4	1279	812
126	0	0	215	4	1267	812
127	0	0	336	4	1258	812
0	0	0	994	5	1254	811
1	0	0	1555	5	1259	811
2	0	0	2472	5	1270	812
3	0	0	3104	5	1283	811
4	0	0	3390	5	1297	811
5	0	0	3524	6	1315	811
6	0	0	3583	5	1326	812
7	0	0	3535	4	1342	812
8	0	0	3666	4	1354	812
9	0	0	3274	3	1362	812
10	0	0	2746	3	1361	812
11	0	0	2387	4	1362	811
12	0	0	1946	3	1355	812
13	0	0	1497	3	1347	812
14	0	0	1032	4	1331	812
15	0	0	683	4	1318	812
16	0	0	536	4	1303	812
17	0	0	400	4	1284	812
18	0	0	212	4	1265	812
19	0	0	321	5	1259	811
20	0	0	998	5	1256	811
21	0	0	1551	6	1259	811
22	0	0	2461	5	1270	812
23	0	0	3096	5	1284	811
24	0	0	3405	5	1299	812
25	0	0	3524	5	1312	812
26	0	0	3566	6	1327	812
27	0	0	3470	4	1343	812
28	0	0	3603	4	1354	811
29	0	0	3226	4	1361	812
30	0	0	2703	4	1365	813
31	0	0	2356	4	1364	812
32	0	0	1912	4	1358	812
33	0	0	1458	4	1346	812
34	0	0	994	4	1333	812
35	0	0	651	3	1318	811
36	0	0	497	4	1304	812
37	0	0	372	3	1284	812
38	0	0	197	4	1263	811
39	0	0	312	4	1257	812
40	0	0	997	5	1252	812
41	0	0	1538	5	1259	812
42	0	0	2460	5	1269	811
43	0	0	3072	5	1283	811
44	0	0	3315	5	1298	811
45	0	0	3473	5	1312	812
46	0	0	3561	5	1328	812
47	0	0	3533	5	1342	812
48	0	0	3653	5	1356	812
49	0	0	3253	4	1363	812
50	0	0	2714	4	1362	811
51	0	0	2359	5	1363	812
52	0	0	1923	4	1360	812
53	0	0	1487	3	1346	811
54	0	0	1025	4	1334	812
55	0	0	680	4	1318	812
56	0	0	514	4	1304	812
57	0	0	384	4	1285	811
58	0	0	205	4	1268	811
59	0	0	333	6	1256	812
60	0	0	1010	5	1256	811
61	0	0	1555	5	1260	811
62	0	0	2470	5	1270	812
63	0	0	3098	6	1282	812
64	0	0	3381	5	1298	811
65	0	0	3535	5	1314	811
66	0	0	3596	5	1329	812
67	0	0	3556	5	1344	812
68	0	0	3682	4	1358	811
69	0	0	3281	4	1361	812
70	0	0	2753	4	1366	812
71	0	0	2390	4	1365	812
72	0	0	1940	4	1360	812
73	0	0	1489	4	1346	812
74	0	0	1034	3	1336	812
75	0	0	681	4	1318	812
76	0	0	534	5	1307	812
77	0	0	420	4	1282	812
78	0	0	225	3	1268	812
79	0	0	343	5	1259	811
80	0	0	1026	5	1254	811
81	0	0	1561	5	1261	812
82	0	0	2469	5	1271	812
83	0	0	3101	5	1284	811
84	0	0	3363	5	1298	812
85	0	0	3532	5	1313	811
86	0	0	3622	5	1329	812
87	0	0	3580	5	1343	812
88	0	0	3687	4	1355	812
89	0	0	3284	4	1360	812
90	0	0	2744	4	1367	812
91	0	0	2383	4	1366	812
92	0	0	1945	4	1359	812
93	0	0	1492	4	1349	811
94	0	0	1028	3	1336	812
95	0	0	664	4	1321	813
96	0	0	513	4	1305	812
97	0	0	395	3	1286	812
98	0	0	211	4	1270	812
99	0	0	321	5	1261	812
100	0	0	1004	5	1260	811
101	0	0	1515	5	1262	812
102	0	0	2432	5	1272	812
103	0	0	3080	5	1287	811
104	0	0	3403	4	1299	812
105	0	0	3539	5	1314	812
106	0	0	3603	5	1330	812
107	0	0	3517	5	1346	812
108	0	0	3651	4	1357	812
109	0	0	3256	4	1365	812
110	0	0	2715	4	1363	812
111	0	0	2379	5	1364	812
112	0	0	1960	3	1363	812
113	0	0	1524	4	1348	811
114	0	0	1054	4	1337	812
115	0	0	710	4	1323	812
116	0	0	557	4	1307	812
117	0	0	407	4	1286	811
118	0	0	219	4	1270	812
119	0	0	365	5	1261	811
120	0	0	1034	5	1255	811
121	0	0	1564	5	1261	812
122	0	0	2474	5	1274	812
123	0	0	3106	6	1285	811
124	0	0	3443	5	1301	811
125	0	0	3605	5	1316	812
126	0	0	3665	5	1330	812
127	0	0	3550	5	1343	812
0	0	0	3717	4	1357	812
1	0	0	3326	4	1366	812
2	0	0	2774	4	1370	812
3	0	0	2437	4	1367	812
4	0	0	2002	3	1363	812
5	0	0	1525	4	1350	812
6	0	0	1062	3	1336	812
7	0	0	727	4	1323	812
8	0	0	550	4	1308	811
9	0	0	424	3	1290	812
10	0	0	228	4	1269	812
11	0	0	343	5	1262	812
12	0	0	1020	5	1258	812
13	0	0	1580	6	1260	812
14	0	0	2480	6	1273	812
15	0	0	3109	5	1285	811
16	0	0	3415	5	1302	812
17	0	0	3555	6	1316	811
18	0	0	3590	6	1333	811
19	0	0	3551	5	1345	812
20	0	0	3690	4	1359	812
21	0	0	3276	4	1368	812
22	0	0	2720	4	1366	812
23	0	0	2383	3	1366	812
24	0	0	1941	4	1362	812
25	0	0	1490	4	1351	812
26	0	0	1029	4	1338	812
27	0	0	658	5	1322	812
28	0	0	480	4	1309	812
29	0	0	361	4	1286	812
30	0	0	191	4	1269	812
31	0	0	274	4	1261	812
32	0	0	970	6	1262	812
33	0	0	1505	6	1263	812
34	0	0	2383	6	1275	812
35	0	0	3045	5	1288	811
36	0	0	3362	4	1303	812
37	0	0	3512	5	1319	811
38	0	0	3590	5	1332	812
39	0	0	3549	5	1350	812
40	0	0	3687	4	1362	812
41	0	0	3286	3	1365	813
42	0	0	2733	4	1368	812
43	0	0	2386	5	1369	811
44	0	0	1955	4	1364	812
45	0	0	1508	4	1351	812
46	0	0	1046	4	1337	812
47	0	0	695	4	1324	812
48	0	0	531	4	1312	811
49	0	0	417	4	1290	812
50	0	0	223	4	1270	812
51	0	0	345	5	1264	811
52	0	0	1031	6	1257	811
53	0	0	1554	7	1263	811
54	0	0	2457	5	1274	812
55	0	0	3090	5	1289	811
56	0	0	3418	5	1303	811
57	0	0	3559	5	1319	812
58	0	0	3642	5	1331	812
59	0	0	3599	5	1350	812
60	0	0	3746	4	1361	812
61	0	0	3327	4	1369	812
62	0	0	2756	4	1373	812
63	0	0	2395	3	1368	812
64	0	0	1971	4	1364	812
65	0	0	1519	4	1356	812
66	0	0	1047	4	1341	812
67	0	0	693	3	1326	812
68	0	0	523	4	1312	812
69	0	0	404	3	1292	812
70	0	0	215	4	1275	812
71	0	0	315	5	1265	812
72	0	0	989	5	1259	811
73	0	0	1500	5	1266	812
74	0	0	2393	6	1275	812
75	0	0	3047	5	1289	811
76	0	0	3332	5	1303	812
77	0	0	3501	5	1318	812
78	0	0	3573	5	1334	811
79	0	0	3519	4	1348	812
80	0	0	3653	4	1362	812
81	0	0	3254	4	1370	812
82	0	0	2687	3	1370	812
83	0	0	2345	4	1371	812
84	0	0	1931	3	1364	812
85	0	0	1496	4	1353	812
86	0	0	1026	3	1341	812
87	0	0	676	4	1328	812
88	0	0	471	4	1311	813
89	0	0	338	4	1292	812
90	0	0	180	4	1270	811
91	0	0	270	4	1267	811
92	0	0	965	6	1262	812
93	0	0	1521	5	1264	812
94	0	0	2418	5	1279	812
95	0	0	3069	5	1291	811
96	0	0	3387	5	1303	811
97	0	0	3537	5	1321	812
98	0	0	3606	5	1337	812
99	0	0	3540	5	1353	812
100	0	0	3664	4	1363	812
101	0	0	3278	3	1367	812
102	0	0	2728	4	1372	812
103	0	0	2398	4	1370	812
104	0	0	1985	3	1366	812
105	0	0	1556	4	1355	812
106	0	0	1078	4	1341	812
107	0	0	722	4	1328	812
108	0	0	533	4	1313	811
109	0	0	403	4	1290	812
110	0	0	216	4	1272	811
111	0	0	324	5	1270	811
112	0	0	1012	5	1261	812
113	0	0	1534	5	1265	811
114	0	0	2417	5	1279	812
115	0	0	3072	5	1294	812
116	0	0	3452	6	1307	811
117	0	0	3582	5	1322	812
118	0	0	3637	5	1336	812
119	0	0	3547	5	1348	812
120	0	0	3673	4	1363	812
121	0	0	3289	4	1367	812
122	0	0	2763	4	1374	812
123	0	0	2391	3	1370	813
124	0	0	1965	3	1367	812
125	0	0	1519	4	1356	812
126	0	0	1047	4	1343	812
127	0	0	661	5	1328	812
0	0	0	503	4	1314	811
1	0	0	402	3	1294	812
2	0	0	215	4	1277	812
3	0	0	291	5	1268	812
4	0	0	994	5	1267	811
5	0	0	1505	6	1265	812
6	0	0	2399	5	1279	812
7	0	0	3050	5	1290	812
8	0	0	3346	5	1307	813
9	0	0	3495	5	1320	811
10	0	0	3591	5	1335	811
11	0	0	3548	5	1351	812
12	0	0	3653	4	1365	812
13	0	0	3287	4	1373	812
14	0	0	2754	4	1377	812
15	0	0	2394	4	1373	812
16	0	0	1983	3	1368	812
17	0	0	1550	3	1358	812
18	0	0	1047	4	1344	811
19	0	0	686	4	1328	812
20	0	0	527	4	1316	812
21	0	0	403	3	1291	812
22	0	0	216	4	1275	812
23	0	0	348	5	1266	811
24	0	0	982	5	1262	811
25	0	0	1476	5	1268	811
26	0	0	2399	5	1280	812
27	0	0	3055	5	1293	812
28	0	0	3406	6	1307	812
29	0	0	3577	5	1320	812
30	0	0	3628	5	1339	812
31	0	0	3564	4	1352	812
32	0	0	3706	4	1362	812
33	0	0	3324	4	1374	812
34	0	0	2761	3	1374	812
35	0	0	2425	4	1376	812
36	0	0	1997	4	1370	812
37	0	0	1533	3	1358	812
38	0	0	1045	3	1346	812
39	0	0	712	4	1331	812
40	0	0	531	4	1313	812
41	0	0	415	3	1297	811
42	0	0	222	4	1277	812
43	0	0	316	5	1272	811
44	0	0	960	5	1268	811
45	0	0	1502	5	1268	811
46	0	0	2422	5	1281	811
47	0	0	3076	5	1292	811
48	0	0	3379	5	1309	811
49	0	0	3547	5	1324	812
50	0	0	3585	5	1339	811
51	0	0	3536	4	1355	812
52	0	0	3704	4	1366	812
53	0	0	3282	4	1372	812
54	0	0	2735	3	1374	812
55	0	0	2419	4	1376	812
56	0	0	1989	3	1370	812
57	0	0	1529	4	1357	812
58	0	0	1081	4	1345	812
59	0	0	701	4	1331	812
60	0	0	515	4	1317	812
61	0	0	415	3	1298	812
62	0	0	222	4	1279	812
63	0	0	295	5	1269	812
64	0	0	955	5	1267	811
65	0	0	1468	5	1270	811
66	0	0	2369	4	1282	812
67	0	0	3042	5	1295	812
68	0	0	3416	5	1308	812
69	0	0	3561	5	1323	813
70	0	0	3607	5	1341	812
71	0	0	3565	5	1355	812
72	0	0	3669	4	1366	812
73	0	0	3296	4	1377	813
74	0	0	2780	4	1378	812
75	0	0	2425	4	1376	812
76	0	0	1973	4	1372	812
77	0	0	1534	4	1361	812
78	0	0	1065	4	1346	812
79	0	0	683	3	1333	812
80	0	0	524	4	1317	811
81	0	0	411	3	1298	812
82	0	0	220	4	1283	811
83	0	0	280	5	1272	812
84	0	0	978	5	1268	812
85	0	0	1481	5	1273	812
86	0	0	2383	5	1283	812
87	0	0	3050	5	1295	812
88	0	0	3389	5	1310	812
89	0	0	3510	5	1327	812
90	0	0	3573	5	1342	812
91	0	0	3478	5	1356	812
92	0	0	3605	5	1368	812
93	0	0	3267	4	1375	812
94	0	0	2737	4	1379	812
95	0	0	2366	4	1377	812
96	0	0	1934	3	1374	812
97	0	0	1511	4	1360	811
98	0	0	1030	4	1348	811
99	0	0	677	4	1333	811
100	0	0	522	4	1320	812
101	0	0	393	4	1297	812
102	0	0	214	4	1280	811
103	0	0	287	5	1274	812
104	0	0	937	5	1269	811
105	0	0	1448	5	1272	811
106	0	0	2378	5	1282	811
107	0	0	3048	5	1295	812
108	0	0	3356	5	1311	812
109	0	0	3512	5	1327	812
110	0	0	3585	5	1340	812
111	0	0	3520	4	1355	812
112	0	0	3660	4	1372	813
113	0	0	3301	4	1379	812
114	0	0	2749	4	1378	812
115	0	0	2391	3	1378	812
116	0	0	1972	3	1372	812
117	0	0	1519	3	1360	812
118	0	0	1046	4	1349	812
119	0	0	708	4	1335	811
120	0	0	540	4	1319	812
121	0	0	420	3	1300	812
122	0	0	229	4	1280	811
123	0	0	292	5	1275	811
124	0	0	962	5	1271	812
125	0	0	1511	5	1272	811
126	0	0	2413	4	1285	811
127	0	0	3070	5	1296	811
0	0	0	3403	5	1311	812
1	0	0	3559	5	1326	812
2	0	0	3603	5	1342	812
3	0	0	3540	5	1359	812
4	0	0	3707	5	1369	812
5	0	0	3327	4	1379	812
6	0	0	2757	4	1379	812
7	0	0	2404	4	1377	812
8	0	0	1984	2	1374	812
9	0	0	1540	4	1364	812
10	0	0	1080	4	1349	812
11	0	0	724	4	1335	812
12	0	0	527	3	1321	812
13	0	0	419	3	1301	811
14	0	0	226	4	1283	812
15	0	0	255	5	1272	812
16	0	0	937	5	1268	811
17	0	0	1490	5	1274	812
18	0	0	2390	4	1283	811
19	0	0	3055	5	1296	812
20	0	0	3371	6	1312	812
21	0	0	3521	5	1326	811
22	0	0	3577	5	1341	812
23	0	0	3551	4	1355	812
24	0	0	3693	5	1370	812
25	0	0	3297	4	1375	812
26	0	0	2733	4	1379	812
27	0	0	2392	4	1379	812
28	0	0	1963	4	1375	812
29	0	0	1530	4	1365	812
30	0	0	1056	4	1351	812
31	0	0	677	4	1337	811
32	0	0	504	4	1322	812
33	0	0	402	2	1304	812
34	0	0	216	4	1285	811
35	0	0	268	5	1276	812
36	0	0	949	5	1269	811
37	0	0	1467	5	1274	812
38	0	0	2369	4	1286	812
39	0	0	3036	5	1298	811
40	0	0	3332	5	1312	812
41	0	0	3468	5	1329	812
42	0	0	3543	5	1341	812
43	0	0	3505	4	1360	812
44	0	0	3643	5	1372	812
45	0	0	3275	4	1379	812
46	0	0	2736	3	1381	812
47	0	0	2379	4	1379	812
48	0	0	1951	2	1374	812
49	0	0	1551	4	1363	812
50	0	0	1077	5	1350	812
51	0	0	715	4	1338	812
52	0	0	531	4	1321	812
53	0	0	407	4	1303	812
54	0	0	220	4	1284	812
55	0	0	242	5	1275	812
56	0	0	926	5	1272	811
57	0	0	1467	5	1273	812
58	0	0	2374	4	1285	812
59	0	0	3044	5	1299	812
60	0	0	3376	5	1314	811
61	0	0	3516	5	1329	811
62	0	0	3581	5	1344	812
63	0	0	3480	4	1361	812
64	0	0	3633	5	1371	812
65	0	0	3277	4	1379	812
66	0	0	2751	4	1382	812
67	0	0	2396	4	1381	812
68	0	0	1979	4	1376	812
69	0	0	1558	4	1366	812
70	0	0	1080	3	1352	812
71	0	0	700	4	1337	813
72	0	0	520	4	1320	812
73	0	0	398	4	1304	812
74	0	0	217	4	1284	811
75	0	0	280	5	1277	812
76	0	0	961	5	1273	811
77	0	0	1468	5	1275	812
78	0	0	2363	5	1286	811
79	0	0	3037	5	1299	812
80	0	0	3371	5	1315	812
81	0	0	3522	5	1330	811
82	0	0	3588	5	1343	812
83	0	0	3519	5	1360	812
84	0	0	3663	5	1375	812
85	0	0	3303	5	1380	812
86	0	0	2761	4	1382	813
87	0	0	2416	3	1379	812
88	0	0	1988	3	1378	812
89	0	0	1561	4	1364	812
90	0	0	1078	4	1352	812
91	0	0	708	4	1339	811
92	0	0	533	4	1324	812
93	0	0	420	4	1304	812
94	0	0	228	4	1284	811
95	0	0	275	5	1276	812
96	0	0	954	5	1275	811
97	0	0	1489	5	1276	812
98	0	0	2399	5	1288	812
99	0	0	3066	5	1303	812
100	0	0	3372	7	1316	811
101	0	0	3542	5	1331	811
102	0	0	3599	5	1346	812
103	0	0	3541	5	1361	812
104	0	0	3675	4	1376	812
105	0	0	3293	3	1384	812
106	0	0	2755	4	1385	812
107	0	0	2410	4	1384	812
108	0	0	1986	4	1376	812
109	0	0	1557	4	1368	812
110	0	0	1076	3	1357	812
111	0	0	708	4	1339	811
112	0	0	529	4	1325	812
113	0	0	412	4	1307	812
114	0	0	224	4	1291	811
115	0	0	293	5	1282	811
116	0	0	948	5	1277	812
117	0	0	1470	5	1280	811
118	0	0	2354	5	1287	811
119	0	0	3016	5	1302	812
120	0	0	3339	4	1318	812
121	0	0	3515	5	1333	813
122	0	0	3564	5	1348	811
123	0	0	3527	5	1362	812
124	0	0	3655	5	1372	812
125	0	0	3271	4	1386	812
126	0	0	2739	4	1389	811
127	0	0	2397	4	1384	812
0	0	0	1973	4	1380	812
1	0	0	1537	4	1368	812
2	0	0	1058	3	1354	812
3	0	0	684	4	1343	812
4	0	0	521	4	1329	812
5	0	0	426	4	1308	812
6	0	0	233	4	1290	811
7	0	0	269	5	1283	811
8	0	0	948	5	1276	812
9	0	0	1485	5	1277	812
10	0	0	2369	5	1288	812
11	0	0	3046	5	1305	812
12	0	0	3369	5	1317	812
13	0	0	3519	6	1332	812
14	0	0	3564	5	1347	812
15	0	0	3548	5	1365	812
16	0	0	3675	4	1380	812
17	0	0	3299	4	1383	812
18	0	0	2758	4	1385	812
19	0	0	2392	3	1386	812
20	0	0	1957	4	1382	812
21	0	0	1545	5	1369	812
22	0	0	1065	4	1356	812
23	0	0	700	4	1343	813
24	0	0	546	4	1328	812
25	0	0	437	4	1309	812
26	0	0	240	4	1288	812
27	0	0	279	4	1283	811
28	0	0	954	5	1279	812
29	0	0	1467	5	1281	811
30	0	0	2365	5	1290	812
31	0	0	3044	5	1303	812
32	0	0	3389	5	1318	811
33	0	0	3541	5	1334	812
34	0	0	3601	5	1350	812
35	0	0	3507	5	1366	812
36	0	0	3643	5	1377	812
37	0	0	3309	4	1385	812
38	0	0	2791	4	1390	813
39	0	0	2434	4	1388	812
40	0	0	1994	4	1384	812
41	0	0	1566	4	1372	812
42	0	0	1075	4	1358	812
43	0	0	708	3	1345	811
44	0	0	551	4	1328	812
45	0	0	436	4	1308	812
46	0	0	240	4	1290	811
47	0	0	266	5	1283	812
48	0	0	941	5	1276	812
49	0	0	1468	5	1281	812
50	0	0	2354	5	1291	812
51	0	0	3037	5	1304	812
52	0	0	3370	5	1321	811
53	0	0	3529	5	1335	812
54	0	0	3571	5	1351	812
55	0	0	3495	5	1369	812
56	0	0	3658	5	1380	812
57	0	0	3307	4	1386	812
58	0	0	2757	5	1388	812
59	0	0	2397	4	1387	812
60	0	0	1968	4	1384	812
61	0	0	1555	4	1373	812
62	0	0	1088	4	1362	812
63	0	0	721	4	1346	812
64	0	0	543	4	1329	812
65	0	0	425	3	1310	812
66	0	0	233	4	1292	811
67	0	0	254	5	1285	811
68	0	0	937	5	1278	811
69	0	0	1478	5	1282	812
70	0	0	2374	6	1291	812
71	0	0	3052	5	1307	812
72	0	0	3350	5	1321	811
73	0	0	3513	5	1335	812
74	0	0	3571	5	1351	812
75	0	0	3513	6	1366	812
76	0	0	3661	5	1380	812
77	0	0	3310	4	1387	812
78	0	0	2784	3	1392	812
79	0	0	2451	4	1390	812
80	0	0	2012	4	1385	812
81	0	0	1559	4	1375	812
82	0	0	1100	4	1360	812
83	0	0	736	3	1346	812
84	0	0	568	3	1332	812
85	0	0	442	4	1314	812
86	0	0	242	3	1295	812
87	0	0	271	5	1283	811
88	0	0	982	5	1281	811
89	0	0	1500	5	1283	812
90	0	0	2386	5	1293	812
91	0	0	3052	7	1309	812
92	0	0	3413	5	1324	812
93	0	0	3541	5	1337	812
94	0	0	3576	5	1352	812
95	0	0	3531	5	1371	812
96	0	0	3711	5	1379	812
97	0	0	3356	4	1388	812
98	0	0	2777	4	1390	812
99	0	0	2417	4	1391	812
100	0	0	1999	3	1387	812
101	0	0	1598	4	1376	812
102	0	0	1129	3	1365	812
103	0	0	736	3	1349	812
104	0	0	558	4	1332	812
105	0	0	467	4	1314	812
106	0	0	256	4	1294	811
107	0	0	271	5	1284	812
108	0	0	947	5	1282	811
109	0	0	1483	5	1285	811
110	0	0	2371	5	1293	812
111	0	0	3041	5	1307	811
112	0	0	3372	5	1323	812
113	0	0	3531	5	1337	813
114	0	0	3617	5	1355	812
115	0	0	3534	5	1371	812
116	0	0	3676	5	1384	812
117	0	0	3312	4	1386	813
118	0	0	2775	4	1391	812
119	0	0	2422	4	1390	813
120	0	0	1983	4	1389	812
121	0	0	1563	4	1376	812
122	0	0	1099	4	1362	811
123	0	0	726	3	1349	812
124	0	0	541	4	1334	812
125	0	0	408	4	1314	811
126	0	0	222	4	1298	812
127	0	0	280	5	1289	811
0	0	0	963	5	1283	811
1	0	0	1472	5	1284	812
2	0	0	2361	5	1294	812
3	0	0	3041	5	1309	812
4	0	0	3350	5	1323	812
5	0	0	3507	5	1342	812
6	0	0	3581	5	1356	812
7	0	0	3542	5	1368	812
8	0	0	3683	5	1384	812
9	0	0	3332	4	1392	812
10	0	0	2759	3	1392	812
11	0	0	2407	4	1393	812
12	0	0	1999	4	1388	813
13	0	0	1578	4	1376	812
14	0	0	1100	4	1365	812
15	0	0	742	4	1349	812
16	0	0	552	4	1335	812
17	0	0	440	4	1317	812
18	0	0	240	4	1297	812
19	0	0	282	5	1288	812
20	0	0	985	5	1286	811
21	0	0	1500	5	1287	812
22	0	0	2361	5	1297	811
23	0	0	3035	5	1311	812
24	0	0	3385	6	1325	812
25	0	0	3555	5	1340	812
26	0	0	3611	5	1356	812
27	0	0	3495	5	1372	812
28	0	0	3654	5	1384	813
29	0	0	3330	4	1392	812
30	0	0	2793	4	1392	812
31	0	0	2447	4	1395	812
32	0	0	2037	3	1387	812
33	0	0	1619	4	1379	812
34	0	0	1126	4	1366	812
35	0	0	748	4	1350	812
36	0	0	539	4	1335	811
37	0	0	424	4	1316	812
38	0	0	233	4	1299	812
39	0	0	248	4	1290	812
40	0	0	950	4	1287	811
41	0	0	1496	5	1289	811
42	0	0	2373	5	1300	812
43	0	0	3046	5	1310	812
44	0	0	3367	5	1325	812
45	0	0	3530	4	1340	812
46	0	0	3598	5	1356	812
47	0	0	3503	5	1370	812
48	0	0	3639	5	1383	812
49	0	0	3326	4	1391	812
50	0	0	2777	4	1395	812
51	0	0	2407	4	1395	812
52	0	0	1982	4	1390	812
53	0	0	1588	5	1380	811
54	0	0	1122	4	1366	812
55	0	0	739	4	1352	812
56	0	0	518	4	1337	812
57	0	0	397	4	1317	812
58	0	0	216	4	1299	812
59	0	0	239	4	1291	812
60	0	0	927	5	1290	813
61	0	0	1440	5	1288	811
62	0	0	2301	5	1299	812
63	0	0	2997	5	1313	812
64	0	0	3329	6	1327	812
65	0	0	3497	5	1342	812
66	0	0	3568	5	1355	812
67	0	0	3509	5	1372	812
68	0	0	3635	4	1385	812
69	0	0	3296	4	1394	812
70	0	0	2760	4	1394	812
71	0	0	2417	4	1396	812
72	0	0	1999	4	1391	812
73	0	0	1546	3	1380	812
74	0	0	1060	4	1366	812
75	0	0	697	4	1354	812
76	0	0	490	4	1338	812
77	0	0	404	4	1319	812
78	0	0	220	4	1301	812
79	0	0	223	4	1290	812
80	0	0	929	5	1288	812
81	0	0	1455	5	1289	812
82	0	0	2327	6	1300	812
83	0	0	3015	5	1314	812
84	0	0	3364	5	1325	812
85	0	0	3491	5	1343	812
86	0	0	3557	5	1358	812
87	0	0	3534	5	1376	812
88	0	0	3675	5	1388	812
89	0	0	3339	4	1395	813
90	0	0	2788	4	1399	813
91	0	0	2411	4	1394	813
92	0	0	1999	3	1393	812
93	0	0	1585	3	1383	812
94	0	0	1096	3	1369	812
95	0	0	727	4	1353	812
96	0	0	551	4	1339	812
97	0	0	449	4	1319	812
98	0	0	246	4	1297	812
99	0	0	260	5	1292	812
100	0	0	965	5	1289	812
101	0	0	1483	6	1292	812
102	0	0	2338	5	1303	812
103	0	0	3015	5	1317	812
104	0	0	3356	5	1332	811
105	0	0	3520	5	1347	812
106	0	0	3598	5	1362	812
107	0	0	3524	4	1376	812
108	0	0	3650	5	1389	812
109	0	0	3339	4	1397	812
110	0	0	2803	4	1403	813
111	0	0	2433	4	1403	813
112	0	0	2020	3	1398	812
113	0	0	1599	4	1387	812
114	0	0	1090	4	1375	812
115	0	0	704	4	1358	812
116	0	0	510	4	1347	812
117	0	0	446	4	1327	812
118	0	0	244	4	1308	812
119	0	0	266	5	1297	811
120	0	0	925	5	1296	812
121	0	0	1461	5	1298	812
122	0	0	2351	5	1306	812
123	0	0	3036	5	1322	812
124	0	0	3402	5	1335	812
125	0	0	3537	5	1350	813
126	0	0	3594	5	1368	812
127	0	0	3511	5	1382	813
0	0	0	3651	5	1394	812
1	0	0	3346	4	1403	813
2	0	0	2803	4	1404	812
3	0	0	2412	4	1404	812
4	0	0	1994	3	1399	812
5	0	0	1573	3	1390	812
6	0	0	1106	3	1378	812
7	0	0	749	4	1364	812
8	0	0	560	4	1349	812
9	0	0	431	4	1329	812
10	0	0	237	4	1311	812
11	0	0	242	5	1303	812
12	0	0	940	5	1297	811
13	0	0	1468	5	1298	811
14	0	0	2337	5	1309	812
15	0	0	3024	5	1323	811
16	0	0	3367	5	1336	812
17	0	0	3504	5	1351	812
18	0	0	3582	5	1366	812
19	0	0	3519	5	1385	812
20	0	0	3645	5	1396	812
21	0	0	3300	4	1402	812
22	0	0	2755	4	1405	813
23	0	0	2438	4	1406	812
24	0	0	2032	4	1399	812
25	0	0	1575	4	1392	812
26	0	0	1082	2	1376	812
27	0	0	716	4	1363	812
28	0	0	553	4	1351	812
29	0	0	450	4	1329	812
30	0	0	249	4	1312	812
31	0	0	224	6	1299	811
32	0	0	942	5	1298	812
33	0	0	1479	5	1300	812
34	0	0	2324	5	1310	811
35	0	0	3016	5	1324	812
36	0	0	3432	5	1339	812
37	0	0	3558	5	1352	812
38	0	0	3575	5	1370	812
39	0	0	3495	6	1384	812
40	0	0	3659	4	1397	812
41	0	0	3374	4	1401	812
42	0	0	2799	3	1409	812
43	0	0	2361	4	1406	813
44	0	0	1972	4	1403	812
45	0	0	1601	4	1391	812
46	0	0	1121	3	1378	813
47	0	0	737	4	1365	812
48	0	0	528	4	1351	812
49	0	0	530	4	1333	811
50	0	0	288	4	1314	811
51	0	0	189	4	1303	812
52	0	0	910	5	1297	812
53	0	0	1522	5	1301	811
54	0	0	2350	5	1310	812
55	0	0	3025	5	1324	812
56	0	0	3318	5	1338	812
57	0	0	3478	5	1352	812
58	0	0	3556	5	1369	812
59	0	0	3459	5	1383	812
60	0	0	3577	4	1396	812
61	0	0	3335	5	1404	812
62	0	0	2819	4	1407	812
63	0	0	2419	4	1407	813
64	0	0	1997	4	1401	812
65	0	0	1541	3	1393	812
66	0	0	1042	4	1378	812
67	0	0	644	4	1365	813
68	0	0	479	4	1351	812
69	0	0	494	4	1331	811
70	0	0	264	4	1312	812
71	0	0	214	6	1305	812
72	0	0	921	5	1299	811
73	0	0	1479	6	1301	811
74	0	0	2300	5	1310	811
75	0	0	3004	5	1325	812
76	0	0	3322	3	1338	812
77	0	0	3480	5	1354	812
78	0	0	3567	5	1368	813
79	0	0	3530	5	1383	812
80	0	0	3679	5	1398	812
81	0	0	3391	4	1405	813
82	0	0	2809	3	1409	812
83	0	0	2405	4	1408	811
84	0	0	2008	4	1404	812
85	0	0	1564	4	1392	812
86	0	0	1080	3	1380	812
87	0	0	736	4	1364	812
88	0	0	584	4	1351	811
89	0	0	547	4	1332	812
90	0	0	299	4	1311	812
91	0	0	224	4	1303	811
92	0	0	928	5	1296	812
93	0	0	1483	5	1301	812
94	0	0	2310	5	1312	812
95	0	0	2998	6	1324	811
96	0	0	3375	5	1339	812
97	0	0	3573	5	1354	813
98	0	0	3629	5	1370	812
99	0	0	3532	5	1386	812
100	0	0	3667	5	1399	812
101	0	0	3374	4	1408	812
102	0	0	2785	3	1408	812
103	0	0	2398	3	1408	812
104	0	0	2021	4	1401	812
105	0	0	1618	4	1394	812
106	0	0	1120	5	1378	812
107	0	0	717	4	1365	812
108	0	0	543	4	1352	811
109	0	0	529	4	1329	812
110	0	0	287	4	1312	812
111	0	0	195	5	1305	812
112	0	0	904	5	1301	811
113	0	0	1494	5	1302	811
114	0	0	2332	5	1310	812
115	0	0	3017	6	1324	812
116	0	0	3388	5	1338	812
117	0	0	3547	5	1354	812
118	0	0	3586	5	1369	812
119	0	0	3461	5	1385	812
120	0	0	3643	5	1398	812
121	0	0	3384	4	1405	812
122	0	0	2844	4	1407	812
123	0	0	2444	4	1409	811
124	0	0	2025	4	1404	812
125	0	0	1610	4	1394	812
126	0	0	1147	4	1381	812
127	0	0	730	4	1367	812
0	0	0	528	4	1352	813
1	0	0	497	4	1331	812
2	0	0	270	4	1312	812
3	0	0	202	5	1303	812
4	0	0	914	5	1302	812
5	0	0	1494	5	1303	813
6	0	0	2323	5	1313	812
7	0	0	3007	5	1326	812
8	0	0	3327	5	1340	812
9	0	0	3505	4	1354	812
10	0	0	3586	5	1369	812
11	0	0	3518	5	1383	812
12	0	0	3655	6	1399	813
13	0	0	3401	4	1407	812
14	0	0	2839	4	1409	812
15	0	0	2425	4	1408	812
16	0	0	1999	3	1403	812
17	0	0	1556	4	1394	812
18	0	0	1067	4	1380	812
19	0	0	694	4	1367	813
20	0	0	544	4	1353	813
21	0	0	566	4	1332	812
22	0	0	303	4	1316	812
23	0	0	211	7	1306	812
24	0	0	904	5	1301	812
25	0	0	1451	6	1303	812
26	0	0	2280	5	1312	812
27	0	0	2993	5	1328	811
28	0	0	3360	5	1339	812
29	0	0	3520	5	1355	812
30	0	0	3594	5	1370	813
31	0	0	3509	5	1386	812
32	0	0	3649	5	1397	812
33	0	0	3364	4	1405	812
34	0	0	2798	4	1408	812
35	0	0	2399	4	1409	813
36	0	0	2019	4	1407	813
37	0	0	1593	4	1395	812
38	0	0	1111	4	1382	813
39	0	0	721	4	1369	812
40	0	0	541	4	1355	813
41	0	0	514	3	1333	812
42	0	0	279	4	1313	812
43	0	0	185	5	1308	812
44	0	0	890	5	1302	811
45	0	0	1451	5	1303	812
46	0	0	2286	6	1313	811
47	0	0	2995	5	1327	812
48	0	0	3350	5	1341	812
49	0	0	3521	5	1356	812
50	0	0	3572	5	1373	812
51	0	0	3459	5	1387	812
52	0	0	3624	5	1401	812
53	0	0	3401	4	1409	812
54	0	0	2841	4	1410	812
55	0	0	2431	4	1411	812
56	0	0	2023	4	1404	812
57	0	0	1563	4	1396	812
58	0	0	1072	4	1382	812
59	0	0	691	3	1368	812
60	0	0	514	4	1355	812
61	0	0	497	4	1335	812
62	0	0	272	4	1314	811
63	0	0	194	5	1303	812
64	0	0	889	5	1302	811
65	0	0	1456	5	1304	812
66	0	0	2291	6	1315	811
67	0	0	2990	5	1329	812
68	0	0	3310	5	1343	812
69	0	0	3498	4	1357	812
70	0	0	3573	5	1373	812
71	0	0	3507	6	1386	812
72	0	0	3668	5	1403	812
73	0	0	3395	4	1408	811
74	0	0	2814	4	1410	811
75	0	0	2414	4	1410	813
76	0	0	2003	4	1407	812
77	0	0	1543	3	1395	812
78	0	0	1071	4	1382	812
79	0	0	720	4	1369	812
80	0	0	544	4	1355	812
81	0	0	527	4	1337	812
82	0	0	288	4	1319	812
83	0	0	180	6	1309	811
84	0	0	865	5	1300	812
85	0	0	1437	5	1306	812
86	0	0	2251	5	1313	811
87	0	0	2969	5	1328	811
88	0	0	3377	5	1344	812
89	0	0	3543	5	1358	812
90	0	0	3570	5	1372	813
91	0	0	3469	5	1389	812
92	0	0	3624	5	1401	812
93	0	0	3374	4	1410	812
94	0	0	2806	4	1410	811
95	0	0	2408	4	1414	812
96	0	0	2016	4	1408	812
97	0	0	1630	4	1398	812
98	0	0	1151	5	1385	812
99	0	0	744	2	1371	812
100	0	0	554	3	1356	812
101	0	0	488	4	1337	812
102	0	0	268	4	1318	812
103	0	0	179	5	1310	812
104	0	0	900	5	1304	812
105	0	0	1506	6	1305	812
106	0	0	2328	5	1315	812
107	0	0	3023	5	1329	812
108	0	0	3409	5	1346	812
109	0	0	3545	5	1361	812
110	0	0	3592	5	1374	812
111	0	0	3469	5	1388	812
112	0	0	3608	5	1403	812
113	0	0	3390	4	1410	812
114	0	0	2848	4	1413	812
115	0	0	2437	4	1411	812
116	0	0	2031	4	1408	812
117	0	0	1618	4	1397	812
118	0	0	1114	4	1386	812
119	0	0	726	4	1372	812
120	0	0	543	4	1355	812
121	0	0	517	4	1335	812
122	0	0	281	4	1319	812
123	0	0	195	5	1311	812
124	0	0	905	5	1307	811
125	0	0	1467	5	1306	812
126	0	0	2276	5	1316	812
127	0	0	2986	5	1328	812
0	0	0	3341	5	1343	812
1	0	0	3506	4	1358	812
2	0	0	3581	5	1372	812
3	0	0	3517	4	1388	812
4	0	0	3654	5	1402	812
5	0	0	3394	4	1407	812
6	0	0	2825	3	1412	812
7	0	0	2410	4	1412	812
8	0	0	1999	4	1407	813
9	0	0	1563	4	1397	812
10	0	0	1074	4	1387	812
11	0	0	728	2	1371	812
12	0	0	579	4	1356	812
13	0	0	547	4	1338	812
14	0	0	298	4	1321	812
15	0	0	198	6	1306	811
16	0	0	878	4	1306	812
17	0	0	1458	5	1305	812
18	0	0	2290	5	1317	812
19	0	0	2994	5	1332	812
20	0	0	3379	5	1345	812
21	0	0	3547	5	1359	812
22	0	0	3591	5	1375	812
23	0	0	3497	4	1389	812
24	0	0	3627	5	1401	812
25	0	0	3383	4	1408	813
26	0	0	2813	4	1413	812
27	0	0	2425	4	1413	812
28	0	0	2043	4	1409	812
29	0	0	1633	4	1400	812
30	0	0	1120	4	1387	812
31	0	0	743	3	1373	812
32	0	0	553	4	1357	812
33	0	0	523	4	1341	812
34	0	0	284	4	1319	812
35	0	0	187	5	1312	812
36	0	0	888	5	1306	812
37	0	0	1473	5	1306	812
38	0	0	2283	5	1318	811
39	0	0	2981	5	1329	812
40	0	0	3378	5	1345	811
41	0	0	3535	5	1358	812
42	0	0	3568	5	1374	813
43	0	0	3483	4	1389	812
44	0	0	3657	4	1403	812
45	0	0	3408	4	1409	812
46	0	0	2853	4	1415	812
47	0	0	2451	4	1414	812
48	0	0	2014	4	1408	812
49	0	0	1587	3	1400	812
50	0	0	1083	4	1387	812
51	0	0	715	4	1373	812
52	0	0	532	4	1359	812
53	0	0	536	4	1336	812
54	0	0	288	4	1321	812
55	0	0	189	5	1312	811
56	0	0	885	5	1304	812
57	0	0	1469	5	1307	812
58	0	0	2274	5	1318	812
59	0	0	2980	5	1329	812
60	0	0	3350	5	1345	811
61	0	0	3503	5	1362	812
62	0	0	3567	5	1376	812
63	0	0	3522	4	1392	812
64	0	0	3652	5	1404	812
65	0	0	3402	4	1412	813
66	0	0	2834	4	1412	812
67	0	0	2422	4	1414	813
68	0	0	2019	4	1410	812
69	0	0	1613	4	1398	812
70	0	0	1114	4	1387	812
71	0	0	732	4	1372	812
72	0	0	555	4	1360	812
73	0	0	530	4	1338	812
74	0	0	289	4	1319	812
75	0	0	176	5	1313	812
76	0	0	869	5	1306	812
77	0	0	1426	5	1307	812
78	0	0	2241	6	1316	811
79	0	0	2969	5	1330	812
80	0	0	3405	5	1346	812
81	0	0	3559	5	1360	812
82	0	0	3602	4	1375	813
83	0	0	3491	4	1391	813
84	0	0	3640	5	1405	812
85	0	0	3391	5	1409	812
86	0	0	2819	4	1415	812
87	0	0	2420	4	1415	812
88	0	0	2017	4	1410	811
89	0	0	1647	4	1400	812
90	0	0	1149	4	1388	812
91	0	0	760	4	1373	812
92	0	0	563	3	1360	812
93	0	0	514	4	1341	812
94	0	0	283	4	1319	812
95	0	0	180	5	1309	812
96	0	0	875	5	1303	811
97	0	0	1444	5	1307	813
98	0	0	2280	5	1319	811
99	0	0	2994	5	1330	812
100	0	0	3366	5	1344	811
101	0	0	3501	5	1361	812
102	0	0	3552	5	1375	812
103	0	0	3499	4	1391	813
104	0	0	3653	5	1405	812
105	0	0	3403	4	1409	812
106	0	0	2814	4	1416	812
107	0	0	2428	3	1417	813
108	0	0	2032	4	1411	812
109	0	0	1609	4	1402	812
110	0	0	1073	3	1387	812
111	0	0	708	4	1374	812
112	0	0	554	3	1357	813
113	0	0	542	4	1341	811
114	0	0	296	4	1322	812
115	0	0	175	5	1314	811
116	0	0	893	5	1308	812
117	0	0	1470	5	1308	812
118	0	0	2268	5	1319	812
119	0	0	2972	5	1331	812
120	0	0	3351	5	1346	812
121	0	0	3537	5	1359	812
122	0	0	3610	5	1375	813
123	0	0	3510	4	1388	813
124	0	0	3679	5	1403	812
125	0	0	3437	4	1411	811
126	0	0	2847	4	1413	812
127	0	0	2422	3	1417	813
0	0	0	2009	4	1410	813
1	0	0	1630	3	1401	812
2	0	0	1142	4	1387	812
3	0	0	771	4	1374	812
4	0	0	558	3	1360	812
5	0	0	534	4	1343	812
6	0	0	292	4	1322	812
7	0	0	193	5	1314	811
8	0	0	884	5	1309	812
9	0	0	1454	5	1307	812
10	0	0	2273	5	1319	812
11	0	0	2989	5	1332	812
12	0	0	3378	5	1344	811
13	0	0	3538	5	1360	812
14	0	0	3615	5	1375	812
15	0	0	3548	4	1391	813
16	0	0	3688	5	1404	812
17	0	0	3416	4	1408	812
18	0	0	2825	4	1416	813
19	0	0	2440	4	1414	813
20	0	0	2031	4	1411	812
21	0	0	1610	4	1401	812
22	0	0	1111	3	1388	812
23	0	0	740	3	1373	812
24	0	0	529	4	1360	812
25	0	0	499	3	1343	812
26	0	0	272	4	1319	812
27	0	0	160	5	1311	812
28	0	0	866	5	1309	812
29	0	0	1405	5	1308	812
30	0	0	2201	5	1317	812
31	0	0	2929	5	1330	812
32	0	0	3351	5	1343	812
33	0	0	3515	4	1360	812
34	0	0	3575	5	1377	812
35	0	0	3510	4	1390	813
36	0	0	3678	5	1408	812
37	0	0	3406	4	1411	812
38	0	0	2804	3	1416	812
39	0	0	2411	4	1415	812
40	0	0	2041	4	1412	812
41	0	0	1645	3	1400	812
42	0	0	1133	4	1388	811
43	0	0	743	4	1374	812
44	0	0	552	4	1361	812
45	0	0	557	4	1342	812
46	0	0	302	4	1324	812
47	0	0	192	5	1315	811
48	0	0	907	5	1311	812
49	0	0	1466	5	1309	812
50	0	0	2273	5	1319	812
51	0	0	2982	5	1331	812
52	0	0	3417	5	1346	812
53	0	0	3606	5	1361	812
54	0	0	3651	5	1377	812
55	0	0	3537	4	1389	812
56	0	0	3676	5	1405	812
57	0	0	3453	4	1413	812
58	0	0	2894	3	1417	812
59	0	0	2485	3	1417	812
60	0	0	2084	4	1412	812
61	0	0	1703	4	1401	812
62	0	0	1189	3	1389	812
63	0	0	775	3	1373	812
64	0	0	564	4	1360	812
65	0	0	556	4	1342	812
66	0	0	301	3	1323	812
67	0	0	187	5	1315	812
68	0	0	867	7	1310	812
69	0	0	1419	5	1309	812
70	0	0	2224	5	1319	811
71	0	0	2959	5	1333	812
72	0	0	3389	5	1345	812
73	0	0	3556	3	1360	812
74	0	0	3628	5	1376	812
75	0	0	3513	5	1390	812
76	0	0	3655	5	1403	812
77	0	0	3416	4	1413	812
78	0	0	2823	5	1417	812
79	0	0	2429	3	1417	813
80	0	0	2030	4	1414	813
81	0	0	1635	4	1402	812
82	0	0	1138	4	1391	811
83	0	0	737	3	1374	812
84	0	0	530	3	1361	812
85	0	0	498	4	1341	812
86	0	0	270	4	1321	812
87	0	0	164	5	1313	812
88	0	0	853	4	1309	812
89	0	0	1396	5	1309	812
90	0	0	2203	5	1319	811
91	0	0	2948	5	1334	812
92	0	0	3395	5	1346	812
93	0	0	3544	5	1361	812
94	0	0	3594	5	1375	812
95	0	0	3503	4	1392	813
96	0	0	3654	5	1405	812
97	0	0	3427	4	1412	812
98	0	0	2843	5	1414	812
99	0	0	2470	3	1417	813
100	0	0	2083	3	1413	811
101	0	0	1646	3	1401	812
102	0	0	1120	4	1389	812
103	0	0	746	5	1376	812
104	0	0	566	4	1361	812
105	0	0	544	4	1342	812
106	0	0	294	5	1321	812
107	0	0	172	5	1314	812
108	0	0	867	5	1309	812
109	0	0	1417	5	1309	812
110	0	0	2225	6	1320	812
111	0	0	2951	5	1332	812
112	0	0	3386	5	1345	812
113	0	0	3550	4	1361	812
114	0	0	3596	4	1377	812
115	0	0	3508	4	1388	811
116	0	0	3686	4	1407	813
117	0	0	3432	4	1413	812
118	0	0	2811	4	1418	812
119	0	0	2422	4	1418	812
120	0	0	2026	4	1410	812
121	0	0	1606	4	1404	812
122	0	0	1088	4	1391	812
123	0	0	697	5	1377	812
124	0	0	505	4	1362	812
125	0	0	520	4	1345	811
126	0	0	279	4	1322	812
127	0	0	154	6	1314	811
0	0	0	828	5	1308	812
1	0	0	1403	5	1310	812
2	0	0	2215	5	1321	811
3	0	0	2941	5	1332	812
4	0	0	3362	5	1345	811
5	0	0	3506	5	1360	812
6	0	0	3566	5	1375	813
7	0	0	3509	4	1392	811
8	0	0	3659	5	1405	813
9	0	0	3433	4	1412	812
10	0	0	2858	4	1415	812
11	0	0	2447	3	1418	812
12	0	0	2028	4	1412	811
13	0	0	1625	4	1402	812
14	0	0	1135	3	1391	812
15	0	0	739	4	1376	812
16	0	0	523	4	1363	812
17	0	0	522	4	1344	812
18	0	0	281	4	1323	811
19	0	0	158	5	1311	812
20	0	0	859	5	1309	812
21	0	0	1424	5	1309	812
22	0	0	2246	5	1318	812
23	0	0	2974	5	1333	811
24	0	0	3408	5	1346	811
25	0	0	3571	5	1362	811
26	0	0	3629	5	1377	812
27	0	0	3558	4	1390	812
28	0	0	3690	5	1408	812
29	0	0	3448	3	1414	812
