# bioPlux Text File Format
# Version: 1
# StartDateTime: 2011-07-19 13:44:14
# SamplingFrequency: 1000
# SampledChannels: 1 2 3 4
# SamplingResolution: 12
# AcquiringDevice: 00:07:80:42:0F:8B
# EndOfHeader
0	0	0	1908	1028	3759	77
1	0	0	1918	1032	3759	76
2	0	0	1939	1031	3758	77
3	0	0	1980	1031	3758	77
4	0	0	2039	1031	3760	80
5	0	0	2127	1030	3759	75
6	0	0	2231	1032	3759	76
7	0	0	2295	1032	3758	77
8	0	0	2346	1032	3758	76
9	0	0	2419	1030	3757	76
10	0	0	2443	1031	3757	74
11	0	0	2369	1028	3758	80
12	0	0	2277	1028	3758	78
13	0	0	2194	1028	3759	76
14	0	0	2134	1027	3759	77
15	0	0	2085	1027	3759	75
16	0	0	2045	1029	3760	78
17	0	0	2006	1029	3759	77
18	0	0	2002	1032	3759	77
19	0	0	1997	1030	3758	76
20	0	0	2000	1032	3758	74
21	0	0	1990	1030	3758	80
22	0	0	1969	1030	3758	76
23	0	0	2013	1031	3758	76
24	0	0	2131	1030	3758	77
25	0	0	2240	1032	3758	75
26	0	0	2303	1032	3758	79
27	0	0	2318	1032	3759	78
28	0	0	2317	1032	3758	77
29	0	0	2349	1031	3758	76
30	0	0	2371	1033	3758	76
31	0	0	2353	1030	3759	77
32	0	0	2309	1029	3759	76
33	0	0	2244	1028	3759	77
34	0	0	2172	1029	3760	76
35	0	0	2120	1029	3760	77
36	0	0	2090	1030	3759	75
37	0	0	2085	1032	3759	75
38	0	0	2072	1033	3758	76
39	0	0	2033	1028	3759	75
40	0	0	2007	1031	3759	79
41	0	0	2025	1032	3758	76
42	0	0	2067	1032	3758	76
43	0	0	2114	1032	3758	76
44	0	0	2126	1032	3758	76
45	0	0	2108	1031	3756	77
46	0	0	2134	1034	3759	78
47	0	0	2181	1033	3758	79
48	0	0	2251	1033	3759	77
49	0	0	2349	1031	3758	77
50	0	0	2391	1032	3759	77
51	0	0	2357	1030	3760	76
52	0	0	2292	1029	3759	78
53	0	0	2216	1030	3760	75
54	0	0	2144	1029	3758	75
55	0	0	2091	1028	3756	77
56	0	0	2050	1029	3759	77
57	0	0	2022	1031	3758	78
58	0	0	2027	1033	3757	75
59	0	0	2035	1033	3758	74
60	0	0	2080	1034	3758	80
61	0	0	2143	1034	3758	76
62	0	0	2161	1032	3757	78
63	0	0	2136	1031	3756	76
64	0	0	2127	1033	3759	77
65	0	0	2138	1034	3760	80
66	0	0	2165	1033	3760	51
67	0	0	2173	1034	3760	76
68	0	0	2164	1033	3759	77
69	0	0	2176	1034	3757	77
70	0	0	2196	1034	3759	76
71	0	0	2202	1033	3758	76
72	0	0	2187	1032	3758	77
73	0	0	2143	1030	3758	76
74	0	0	2077	1029	3758	76
75	0	0	2000	1028	3759	75
76	0	0	1928	1029	3759	76
77	0	0	1867	1029	3759	78
78	0	0	1826	1030	3758	76
79	0	0	1807	1032	3758	77
80	0	0	1825	1034	3760	78
81	0	0	1890	1034	3759	76
82	0	0	1957	1034	3758	75
83	0	0	2015	1033	3760	76
84	0	0	2083	1034	3758	77
85	0	0	2145	1032	3759	77
86	0	0	2201	1033	3760	75
87	0	0	2249	1034	3760	75
88	0	0	2277	1034	3758	77
89	0	0	2323	1034	3758	75
90	0	0	2345	1035	3759	74
91	0	0	2300	1030	3758	76
92	0	0	2236	1031	3759	75
93	0	0	2159	1030	3758	76
94	0	0	2078	1030	3758	77
95	0	0	2006	1029	3757	77
96	0	0	1946	1028	3759	77
97	0	0	1896	1031	3759	75
98	0	0	1851	1030	3759	76
99	0	0	1794	1030	3758	77
100	0	0	1774	1034	3758	76
101	0	0	1832	1034	3759	75
102	0	0	1890	1034	3757	79
103	0	0	1917	1033	3758	80
104	0	0	1953	1034	3759	76
105	0	0	2028	1032	3759	77
106	0	0	2097	1035	3759	75
107	0	0	2127	1034	3757	76
108	0	0	2149	1031	3758	77
109	0	0	2195	1034	3759	73
110	0	0	2222	1035	3759	76
111	0	0	2188	1029	3758	76
112	0	0	2136	1030	3758	77
113	0	0	2076	1032	3759	77
114	0	0	2027	1032	3759	77
115	0	0	1984	1032	3760	75
116	0	0	1928	1030	3760	76
117	0	0	1885	1031	3760	75
118	0	0	1883	1034	3759	77
119	0	0	1863	1032	3758	77
120	0	0	1833	1031	3759	79
121	0	0	1830	1034	3759	76
122	0	0	1839	1034	3758	77
123	0	0	1865	1034	3759	76
124	0	0	1899	1035	3758	75
125	0	0	1930	1038	3759	76
126	0	0	1983	1036	3760	76
127	0	0	2053	1035	3757	79
0	0	0	2127	1035	3758	77
1	0	0	2215	1034	3758	76
2	0	0	2279	1033	3759	79
3	0	0	2288	1035	3759	75
4	0	0	2282	1035	3760	75
5	0	0	2255	1032	3759	76
6	0	0	2190	1031	3759	77
7	0	0	2112	1030	3759	79
8	0	0	2014	1028	3760	75
9	0	0	1930	1031	3759	75
10	0	0	1859	1031	3757	76
11	0	0	1784	1031	3758	75
12	0	0	1737	1032	3759	75
13	0	0	1751	1034	3758	76
14	0	0	1782	1036	3759	77
15	0	0	1821	1035	3758	76
16	0	0	1893	1035	3759	74
17	0	0	1995	1037	3759	75
18	0	0	2081	1035	3760	76
19	0	0	2139	1035	3759	76
20	0	0	2213	1036	3759	77
21	0	0	2326	1037	3758	77
22	0	0	2407	1039	3759	74
23	0	0	2387	1031	3759	78
24	0	0	2299	1032	3759	76
25	0	0	2182	1031	3759	75
26	0	0	2069	1030	3758	76
27	0	0	1971	1033	3759	76
28	0	0	1874	1031	3759	75
29	0	0	1787	1031	3758	76
30	0	0	1716	1030	3759	76
31	0	0	1668	1029	3759	76
32	0	0	1674	1036	3758	75
33	0	0	1743	1035	3758	76
34	0	0	1836	1035	3756	77
35	0	0	1922	1035	3759	77
36	0	0	1997	1035	3759	75
37	0	0	2076	1034	3759	77
38	0	0	2161	1035	3760	76
39	0	0	2239	1036	3757	78
40	0	0	2290	1036	3759	77
41	0	0	2332	1036	3758	77
42	0	0	2344	1034	3759	79
43	0	0	2304	1032	3758	76
44	0	0	2251	1032	3758	76
45	0	0	2173	1035	3757	76
46	0	0	2100	1032	3758	75
47	0	0	2035	1032	3759	75
48	0	0	1973	1033	3759	76
49	0	0	1941	1034	3758	76
50	0	0	1915	1032	3758	77
51	0	0	1885	1032	3757	77
52	0	0	1883	1037	3759	74
53	0	0	1903	1035	3758	78
54	0	0	1932	1034	3759	76
55	0	0	1966	1036	3759	77
56	0	0	2009	1034	3759	77
57	0	0	2046	1035	3759	76
58	0	0	2095	1034	3759	78
59	0	0	2157	1036	3758	76
60	0	0	2191	1036	3759	76
61	0	0	2219	1035	3758	78
62	0	0	2244	1039	3758	76
63	0	0	2251	1036	3759	74
64	0	0	2212	1033	3758	76
65	0	0	2137	1032	3758	77
66	0	0	2048	1032	3758	74
67	0	0	1987	1033	3759	76
68	0	0	1961	1033	3760	76
69	0	0	1944	1034	3759	76
70	0	0	1950	1036	3758	77
71	0	0	1952	1036	3759	76
72	0	0	1965	1036	3760	75
73	0	0	2002	1035	3759	76
74	0	0	2029	1036	3758	77
75	0	0	2046	1036	3758	76
76	0	0	2075	1037	3759	76
77	0	0	2127	1036	3759	78
78	0	0	2175	1036	3759	77
79	0	0	2196	1037	3758	76
80	0	0	2215	1037	3758	76
81	0	0	2276	1034	3757	77
82	0	0	2324	1037	3757	76
83	0	0	2323	1037	3758	76
84	0	0	2284	1034	3757	77
85	0	0	2227	1032	3758	77
86	0	0	2135	1032	3758	77
87	0	0	2041	1031	3759	78
88	0	0	1957	1032	3760	75
89	0	0	1889	1034	3759	76
90	0	0	1844	1033	3759	77
91	0	0	1820	1033	3758	76
92	0	0	1829	1035	3758	76
93	0	0	1884	1037	3757	75
94	0	0	1955	1037	3757	78
95	0	0	2052	1036	3759	76
96	0	0	2146	1034	3758	77
97	0	0	2216	1036	3758	78
98	0	0	2259	1037	3759	76
99	0	0	2283	1037	3758	78
100	0	0	2312	1038	3758	76
101	0	0	2353	1037	3759	76
102	0	0	2330	1033	3758	77
103	0	0	2259	1035	3759	75
104	0	0	2198	1033	3758	75
105	0	0	2146	1035	3760	75
106	0	0	2086	1034	3761	79
107	0	0	2018	1034	3759	76
108	0	0	1944	1034	3760	75
109	0	0	1910	1034	3759	77
110	0	0	1921	1038	3759	75
111	0	0	1908	1034	3758	74
112	0	0	1883	1036	3758	76
113	0	0	1906	1037	3759	75
114	0	0	1955	1037	3757	75
115	0	0	2006	1039	3759	74
116	0	0	2034	1038	3760	76
117	0	0	2058	1036	3760	75
118	0	0	2105	1038	3759	76
119	0	0	2168	1038	3759	78
120	0	0	2204	1038	3759	77
121	0	0	2245	1038	3759	76
122	0	0	2255	1037	3760	75
123	0	0	2220	1034	3759	76
124	0	0	2197	1038	3758	75
125	0	0	2199	1036	3758	76
126	0	0	2196	1037	3759	76
127	0	0	2155	1034	3759	77
0	0	0	2078	1034	3760	75
1	0	0	1973	1033	3758	75
2	0	0	1867	1034	3758	76
3	0	0	1795	1034	3758	80
4	0	0	1811	1036	3759	76
5	0	0	1893	1039	3758	75
6	0	0	1976	1038	3758	77
7	0	0	2046	1038	3759	77
8	0	0	2106	1038	3760	75
9	0	0	2152	1038	3760	75
10	0	0	2188	1037	3760	75
11	0	0	2220	1038	3760	71
12	0	0	2273	1037	3758	77
13	0	0	2349	1039	3759	76
14	0	0	2390	1039	3758	76
15	0	0	2356	1034	3758	75
16	0	0	2291	1034	3758	77
17	0	0	2212	1037	3757	76
18	0	0	2134	1034	3760	78
19	0	0	2086	1034	3760	75
20	0	0	2063	1034	3759	75
21	0	0	2036	1035	3758	75
22	0	0	1998	1034	3759	76
23	0	0	1958	1034	3760	80
24	0	0	1927	1036	3759	75
25	0	0	1936	1037	3759	76
26	0	0	1968	1037	3759	75
27	0	0	2005	1038	3760	77
28	0	0	2050	1037	3761	75
29	0	0	2104	1038	3760	76
30	0	0	2154	1038	3759	76
31	0	0	2224	1038	3759	75
32	0	0	2301	1036	3758	77
33	0	0	2371	1038	3758	76
34	0	0	2404	1039	3757	75
35	0	0	2349	1035	3758	75
36	0	0	2259	1035	3758	73
37	0	0	2176	1035	3758	76
38	0	0	2088	1034	3755	76
39	0	0	2005	1035	3759	75
40	0	0	1920	1035	3760	75
41	0	0	1860	1035	3759	72
42	0	0	1823	1035	3760	76
43	0	0	1789	1035	3759	76
44	0	0	1784	1039	3759	76
45	0	0	1818	1038	3760	75
46	0	0	1883	1038	3758	73
47	0	0	1960	1039	3759	75
48	0	0	2023	1040	3759	77
49	0	0	2083	1039	3758	75
50	0	0	2147	1037	3759	76
51	0	0	2202	1038	3759	75
52	0	0	2243	1040	3758	77
53	0	0	2285	1039	3755	76
54	0	0	2295	1039	3758	77
55	0	0	2243	1034	3758	76
56	0	0	2182	1035	3758	73
57	0	0	2121	1035	3760	76
58	0	0	2078	1035	3756	78
59	0	0	2058	1037	3759	76
60	0	0	2037	1035	3761	75
61	0	0	2017	1036	3759	75
62	0	0	2020	1039	3759	76
63	0	0	2024	1037	3759	75
64	0	0	2033	1036	3759	75
65	0	0	2069	1038	3758	75
66	0	0	2115	1039	3759	76
67	0	0	2152	1038	3758	77
68	0	0	2168	1038	3758	77
69	0	0	2163	1038	3757	75
70	0	0	2174	1037	3759	76
71	0	0	2201	1039	3758	73
72	0	0	2205	1038	3760	75
73	0	0	2234	1040	3757	77
74	0	0	2287	1039	3758	75
75	0	0	2303	1038	3758	76
76	0	0	2279	1036	3759	76
77	0	0	2218	1034	3760	74
78	0	0	2130	1035	3761	75
79	0	0	2054	1035	3760	75
80	0	0	2013	1035	3759	76
81	0	0	2011	1038	3758	72
82	0	0	2017	1040	3758	77
83	0	0	2009	1036	3756	79
84	0	0	2004	1039	3757	75
85	0	0	2027	1038	3758	76
86	0	0	2050	1039	3758	76
87	0	0	2060	1040	3758	77
88	0	0	2090	1038	3755	77
89	0	0	2136	1039	3758	76
90	0	0	2173	1038	3760	75
91	0	0	2197	1038	3759	74
92	0	0	2189	1037	3760	75
93	0	0	2195	1039	3759	75
94	0	0	2190	1037	3757	76
95	0	0	2136	1037	3760	73
96	0	0	2080	1035	3758	76
97	0	0	2002	1035	3758	76
98	0	0	1903	1034	3759	79
99	0	0	1823	1035	3758	76
100	0	0	1747	1034	3759	76
101	0	0	1675	1035	3758	76
102	0	0	1647	1037	3758	76
103	0	0	1639	1036	3758	76
104	0	0	1643	1038	3759	76
105	0	0	1668	1038	3758	76
106	0	0	1735	1039	3758	77
107	0	0	1828	1040	3758	77
108	0	0	1922	1038	3759	75
109	0	0	1989	1039	3758	74
110	0	0	2049	1039	3760	76
111	0	0	2094	1038	3760	74
112	0	0	2136	1039	3759	77
113	0	0	2212	1040	3758	77
114	0	0	2267	1039	3757	76
115	0	0	2261	1037	3759	76
116	0	0	2216	1036	3758	77
117	0	0	2129	1035	3759	76
118	0	0	2002	1035	3756	76
119	0	0	1888	1035	3757	74
120	0	0	1820	1037	3759	76
121	0	0	1787	1036	3758	78
122	0	0	1788	1039	3758	75
123	0	0	1807	1038	3758	76
124	0	0	1844	1039	3758	76
125	0	0	1895	1039	3760	75
126	0	0	1949	1039	3759	76
127	0	0	1999	1039	3758	77
0	0	0	2069	1040	3760	76
1	0	0	2154	1039	3759	75
2	0	0	2217	1042	3759	77
3	0	0	2252	1040	3760	76
4	0	0	2269	1040	3758	77
5	0	0	2313	1040	3758	77
6	0	0	2342	1037	3758	76
7	0	0	2320	1036	3758	76
8	0	0	2262	1035	3758	76
9	0	0	2152	1034	3758	77
10	0	0	2042	1036	3758	76
11	0	0	2004	1037	3760	76
12	0	0	1986	1039	3760	75
13	0	0	1960	1036	3759	76
14	0	0	1921	1035	3759	76
15	0	0	1887	1036	3759	77
16	0	0	1901	1040	3759	76
17	0	0	1946	1039	3759	75
18	0	0	1996	1039	3759	75
19	0	0	2035	1038	3758	77
20	0	0	2076	1040	3758	74
21	0	0	2149	1039	3758	76
22	0	0	2221	1039	3759	76
23	0	0	2239	1039	3758	79
24	0	0	2217	1035	3759	76
25	0	0	2215	1040	3757	76
26	0	0	2235	1040	3758	77
27	0	0	2245	1042	3759	78
28	0	0	2247	1039	3758	76
29	0	0	2223	1036	3759	78
30	0	0	2163	1038	3758	76
31	0	0	2100	1035	3759	76
32	0	0	2055	1035	3760	75
33	0	0	2025	1036	3760	76
34	0	0	2000	1037	3759	76
35	0	0	1995	1040	3758	76
36	0	0	2017	1040	3758	77
37	0	0	2057	1041	3756	76
38	0	0	2080	1037	3758	76
39	0	0	2107	1039	3758	76
40	0	0	2161	1039	3757	76
41	0	0	2209	1040	3758	77
42	0	0	2216	1041	3759	77
43	0	0	2191	1037	3760	76
44	0	0	2172	1039	3758	77
45	0	0	2195	1042	3757	76
46	0	0	2212	1040	3758	77
47	0	0	2194	1042	3759	76
48	0	0	2189	1040	3758	75
49	0	0	2179	1035	3759	76
50	0	0	2142	1036	3759	78
51	0	0	2095	1036	3760	75
52	0	0	2044	1037	3760	75
53	0	0	2016	1037	3760	75
54	0	0	2002	1039	3759	77
55	0	0	1975	1033	3757	77
56	0	0	1945	1037	3758	75
57	0	0	1963	1039	3758	76
58	0	0	2022	1039	3757	76
59	0	0	2090	1037	3758	76
60	0	0	2156	1041	3758	76
61	0	0	2218	1040	3761	79
62	0	0	2264	1041	3759	77
63	0	0	2286	1039	3758	76
64	0	0	2300	1039	3759	77
65	0	0	2333	1043	3758	76
66	0	0	2367	1041	3759	77
67	0	0	2348	1036	3759	76
68	0	0	2291	1035	3759	76
69	0	0	2225	1035	3759	75
70	0	0	2125	1035	3759	77
71	0	0	2000	1035	3760	79
72	0	0	1919	1037	3759	76
73	0	0	1900	1039	3758	76
74	0	0	1920	1039	3758	76
75	0	0	1916	1037	3757	77
76	0	0	1902	1040	3758	77
77	0	0	1920	1038	3758	76
78	0	0	1983	1039	3758	76
79	0	0	2073	1039	3758	76
80	0	0	2133	1039	3758	76
81	0	0	2143	1040	3760	75
82	0	0	2164	1040	3759	76
83	0	0	2238	1039	3759	76
84	0	0	2328	1039	3759	77
85	0	0	2412	1042	3757	76
86	0	0	2440	1040	3758	77
87	0	0	2390	1034	3758	76
88	0	0	2320	1036	3759	76
89	0	0	2254	1036	3760	79
90	0	0	2188	1036	3758	78
91	0	0	2129	1036	3760	74
92	0	0	2073	1035	3759	76
93	0	0	2037	1037	3760	75
94	0	0	2045	1040	3758	76
95	0	0	2061	1038	3758	77
96	0	0	2042	1037	3760	79
97	0	0	2031	1040	3759	76
98	0	0	2037	1039	3758	76
99	0	0	2055	1039	3759	76
100	0	0	2080	1039	3759	76
101	0	0	2118	1039	3760	77
102	0	0	2156	1040	3759	75
103	0	0	2197	1039	3762	76
104	0	0	2242	1039	3758	76
105	0	0	2304	1039	3757	76
106	0	0	2338	1040	3760	75
107	0	0	2314	1037	3759	75
108	0	0	2272	1036	3758	77
109	0	0	2229	1036	3759	76
110	0	0	2197	1038	3758	73
111	0	0	2170	1037	3760	76
112	0	0	2127	1036	3759	76
113	0	0	2079	1035	3759	76
114	0	0	2036	1036	3760	78
115	0	0	2001	1036	3758	76
116	0	0	2013	1039	3760	74
117	0	0	2075	1038	3759	75
118	0	0	2147	1038	3759	77
119	0	0	2197	1039	3758	76
120	0	0	2223	1040	3759	75
121	0	0	2233	1039	3759	76
122	0	0	2241	1040	3758	76
123	0	0	2254	1039	3758	76
124	0	0	2285	1039	3758	77
125	0	0	2342	1039	3759	76
126	0	0	2401	1040	3758	76
127	0	0	2396	1039	3760	75
0	0	0	2346	1036	3758	77
1	0	0	2267	1037	3758	76
2	0	0	2176	1036	3759	77
3	0	0	2110	1037	3760	75
4	0	0	2072	1037	3760	75
5	0	0	2038	1037	3759	77
6	0	0	2028	1039	3759	75
7	0	0	2022	1038	3758	75
8	0	0	2024	1040	3759	76
9	0	0	2055	1039	3758	76
10	0	0	2107	1039	3758	77
11	0	0	2169	1040	3758	77
12	0	0	2233	1039	3759	77
13	0	0	2294	1039	3759	77
14	0	0	2356	1039	3759	76
15	0	0	2405	1037	3758	77
16	0	0	2429	1040	3760	75
17	0	0	2452	1040	3760	77
18	0	0	2475	1040	3758	76
19	0	0	2460	1036	3758	77
20	0	0	2402	1036	3758	77
21	0	0	2325	1035	3761	77
22	0	0	2237	1036	3760	74
23	0	0	2167	1037	3761	75
24	0	0	2105	1036	3759	76
25	0	0	2059	1036	3759	76
26	0	0	2043	1038	3758	76
27	0	0	2024	1036	3758	77
28	0	0	2006	1039	3758	77
29	0	0	2026	1039	3758	76
30	0	0	2072	1040	3758	77
31	0	0	2125	1039	3759	75
32	0	0	2178	1040	3761	77
33	0	0	2233	1041	3759	77
34	0	0	2281	1039	3759	76
35	0	0	2301	1040	3759	77
36	0	0	2291	1040	3759	77
37	0	0	2314	1038	3759	76
38	0	0	2347	1040	3758	74
39	0	0	2328	1036	3759	76
40	0	0	2279	1037	3760	75
41	0	0	2216	1035	3758	76
42	0	0	2136	1034	3758	76
43	0	0	2058	1036	3759	77
44	0	0	2010	1035	3759	76
45	0	0	1998	1039	3757	77
46	0	0	2003	1039	3759	75
47	0	0	1983	1037	3757	75
48	0	0	1961	1040	3759	77
49	0	0	1992	1039	3758	76
50	0	0	2029	1039	3758	76
51	0	0	2051	1040	3760	78
52	0	0	2074	1038	3759	76
53	0	0	2130	1042	3758	74
54	0	0	2225	1039	3760	76
55	0	0	2323	1040	3759	76
56	0	0	2367	1040	3759	77
57	0	0	2382	1040	3758	76
58	0	0	2356	1037	3759	75
59	0	0	2282	1035	3759	75
60	0	0	2210	1036	3758	77
61	0	0	2155	1037	3759	76
62	0	0	2106	1037	3760	79
63	0	0	2035	1036	3759	77
64	0	0	1968	1036	3759	76
65	0	0	1919	1036	3759	78
66	0	0	1892	1038	3758	76
67	0	0	1882	1036	3758	75
68	0	0	1886	1040	3758	76
69	0	0	1932	1039	3759	76
70	0	0	2011	1040	3759	76
71	0	0	2085	1039	3759	79
72	0	0	2136	1041	3760	76
73	0	0	2183	1040	3758	76
74	0	0	2230	1039	3759	76
75	0	0	2284	1040	3760	75
76	0	0	2311	1040	3758	77
77	0	0	2332	1040	3758	76
78	0	0	2349	1039	3758	76
79	0	0	2329	1035	3759	76
80	0	0	2277	1037	3758	76
81	0	0	2210	1036	3758	77
82	0	0	2133	1037	3758	75
83	0	0	2053	1036	3760	75
84	0	0	1960	1035	3759	76
85	0	0	1876	1036	3759	77
86	0	0	1846	1039	3759	77
87	0	0	1848	1039	3758	77
88	0	0	1847	1040	3758	76
89	0	0	1864	1037	3759	76
90	0	0	1915	1040	3760	76
91	0	0	1998	1038	3758	76
92	0	0	2097	1039	3758	76
93	0	0	2181	1039	3759	77
94	0	0	2234	1040	3759	75
95	0	0	2267	1040	3758	79
96	0	0	2300	1039	3760	77
97	0	0	2348	1042	3756	76
98	0	0	2378	1041	3757	76
99	0	0	2324	1035	3758	76
100	0	0	2233	1037	3759	76
101	0	0	2148	1036	3759	76
102	0	0	2079	1038	3758	76
103	0	0	2025	1037	3759	76
104	0	0	1975	1035	3760	75
105	0	0	1942	1037	3759	76
106	0	0	1923	1038	3759	76
107	0	0	1897	1037	3757	75
108	0	0	1880	1040	3757	76
109	0	0	1907	1036	3758	79
110	0	0	1964	1040	3757	77
111	0	0	2043	1039	3758	73
112	0	0	2107	1041	3758	77
113	0	0	2143	1040	3759	77
114	0	0	2179	1040	3759	76
115	0	0	2204	1040	3759	76
116	0	0	2220	1040	3758	77
117	0	0	2258	1041	3757	76
118	0	0	2284	1041	3758	76
119	0	0	2259	1034	3760	76
120	0	0	2231	1038	3760	75
121	0	0	2189	1039	3759	76
122	0	0	2152	1038	3759	77
123	0	0	2125	1038	3760	75
124	0	0	2088	1034	3759	76
125	0	0	2042	1037	3760	75
126	0	0	1989	1033	3759	76
127	0	0	1928	1038	3758	75
0	0	0	1882	1038	3758	76
1	0	0	1888	1040	3758	76
2	0	0	1929	1040	3757	76
3	0	0	1977	1043	3757	76
4	0	0	2021	1040	3759	73
5	0	0	2059	1040	3756	77
6	0	0	2088	1040	3760	75
7	0	0	2106	1039	3759	76
8	0	0	2135	1043	3758	77
9	0	0	2203	1040	3759	80
10	0	0	2267	1039	3760	75
11	0	0	2262	1038	3759	76
12	0	0	2206	1037	3758	76
13	0	0	2142	1037	3759	75
14	0	0	2083	1037	3757	76
15	0	0	2040	1036	3756	76
16	0	0	1975	1036	3759	76
17	0	0	1907	1036	3758	76
18	0	0	1872	1035	3759	76
19	0	0	1846	1036	3757	77
20	0	0	1830	1040	3760	75
21	0	0	1855	1040	3758	76
22	0	0	1913	1037	3756	77
23	0	0	1986	1041	3760	75
24	0	0	2058	1041	3760	78
25	0	0	2105	1040	3758	77
26	0	0	2148	1040	3760	76
27	0	0	2195	1040	3759	77
28	0	0	2246	1039	3760	74
29	0	0	2308	1040	3759	75
30	0	0	2363	1039	3760	74
31	0	0	2331	1036	3758	76
32	0	0	2244	1036	3757	76
33	0	0	2146	1035	3757	76
34	0	0	2054	1036	3758	80
35	0	0	2005	1038	3762	76
36	0	0	2001	1040	3759	76
37	0	0	2005	1040	3759	75
38	0	0	2012	1041	3758	77
39	0	0	2014	1038	3758	73
40	0	0	1989	1038	3759	76
41	0	0	1975	1038	3760	75
42	0	0	1957	1038	3758	77
43	0	0	1960	1041	3759	77
44	0	0	2001	1040	3760	80
45	0	0	2050	1040	3757	77
46	0	0	2108	1040	3759	76
47	0	0	2161	1041	3758	76
48	0	0	2203	1040	3760	75
49	0	0	2255	1040	3757	77
50	0	0	2302	1040	3756	77
51	0	0	2297	1037	3759	77
52	0	0	2242	1036	3757	76
53	0	0	2155	1035	3759	75
54	0	0	2067	1036	3758	73
55	0	0	2001	1036	3760	75
56	0	0	1925	1036	3759	76
57	0	0	1866	1037	3759	77
58	0	0	1860	1041	3758	76
59	0	0	1870	1041	3759	79
60	0	0	1887	1041	3758	77
61	0	0	1933	1042	3759	78
62	0	0	1971	1040	3758	77
63	0	0	2014	1038	3759	77
64	0	0	2079	1040	3759	80
65	0	0	2128	1041	3760	76
66	0	0	2160	1039	3758	76
67	0	0	2203	1041	3758	77
68	0	0	2253	1040	3760	75
69	0	0	2320	1041	3757	75
70	0	0	2375	1041	3758	76
71	0	0	2377	1040	3758	74
72	0	0	2328	1037	3758	77
73	0	0	2251	1036	3759	76
74	0	0	2157	1037	3758	74
75	0	0	2069	1036	3762	76
76	0	0	1990	1036	3759	75
77	0	0	1947	1036	3759	79
78	0	0	1915	1039	3759	78
79	0	0	1871	1036	3758	75
80	0	0	1837	1039	3759	76
81	0	0	1861	1039	3758	76
82	0	0	1948	1041	3758	76
83	0	0	2034	1042	3758	75
84	0	0	2094	1040	3758	76
85	0	0	2130	1041	3759	76
86	0	0	2170	1040	3759	76
87	0	0	2220	1040	3759	76
88	0	0	2265	1039	3758	76
89	0	0	2320	1041	3758	76
90	0	0	2354	1041	3759	76
91	0	0	2329	1038	3759	75
92	0	0	2295	1038	3759	77
93	0	0	2244	1036	3760	76
94	0	0	2181	1037	3760	79
95	0	0	2123	1037	3759	76
96	0	0	2073	1037	3759	76
97	0	0	2028	1037	3758	76
98	0	0	1973	1038	3758	75
99	0	0	1901	1036	3758	77
100	0	0	1839	1037	3757	75
101	0	0	1839	1040	3758	76
102	0	0	1864	1039	3758	77
103	0	0	1912	1039	3759	75
104	0	0	1963	1040	3759	77
105	0	0	2001	1040	3759	76
106	0	0	2077	1040	3759	77
107	0	0	2177	1040	3759	77
108	0	0	2274	1040	3759	77
109	0	0	2356	1042	3758	74
110	0	0	2403	1040	3759	76
111	0	0	2369	1039	3758	76
112	0	0	2326	1037	3760	75
113	0	0	2263	1036	3760	76
114	0	0	2157	1037	3758	76
115	0	0	2057	1036	3758	75
116	0	0	1991	1036	3758	76
117	0	0	1951	1040	3758	75
118	0	0	1932	1039	3757	75
119	0	0	1927	1039	3758	74
120	0	0	1921	1040	3757	75
121	0	0	1934	1040	3757	77
122	0	0	1951	1040	3758	77
123	0	0	1984	1040	3758	77
124	0	0	2051	1039	3758	76
125	0	0	2122	1040	3759	76
126	0	0	2172	1040	3759	78
127	0	0	2214	1040	3759	79
0	0	0	2234	1041	3759	77
1	0	0	2263	1039	3760	77
2	0	0	2295	1042	3759	76
3	0	0	2289	1039	3758	76
4	0	0	2259	1038	3759	76
5	0	0	2201	1037	3758	76
6	0	0	2098	1036	3758	76
7	0	0	1992	1037	3759	76
8	0	0	1934	1037	3758	76
9	0	0	1921	1038	3758	76
10	0	0	1900	1038	3758	75
11	0	0	1875	1035	3760	75
12	0	0	1856	1038	3759	76
13	0	0	1867	1039	3758	76
14	0	0	1889	1040	3758	77
15	0	0	1909	1041	3758	76
16	0	0	1948	1040	3760	73
17	0	0	2000	1040	3760	74
18	0	0	2057	1040	3759	76
19	0	0	2099	1041	3758	76
20	0	0	2146	1042	3759	76
21	0	0	2218	1042	3757	76
22	0	0	2299	1040	3759	76
23	0	0	2316	1040	3758	75
24	0	0	2284	1037	3757	77
25	0	0	2211	1036	3758	76
26	0	0	2113	1036	3759	76
27	0	0	2053	1037	3759	76
28	0	0	2026	1037	3759	76
29	0	0	2002	1037	3760	75
30	0	0	1962	1037	3757	75
31	0	0	1886	1037	3759	76
32	0	0	1824	1036	3758	75
33	0	0	1841	1040	3759	76
34	0	0	1899	1039	3758	75
35	0	0	1967	1041	3758	76
36	0	0	2023	1039	3760	76
37	0	0	2073	1039	3758	74
38	0	0	2127	1040	3759	77
39	0	0	2168	1040	3757	77
40	0	0	2196	1040	3758	77
41	0	0	2245	1039	3758	76
42	0	0	2303	1041	3759	76
43	0	0	2301	1040	3759	76
44	0	0	2272	1038	3758	76
45	0	0	2223	1036	3758	76
46	0	0	2149	1035	3760	75
47	0	0	2089	1036	3759	76
48	0	0	2038	1038	3760	75
49	0	0	2016	1038	3759	76
50	0	0	2005	1038	3759	77
51	0	0	1979	1035	3759	76
52	0	0	1954	1037	3759	76
53	0	0	1963	1041	3758	76
54	0	0	1995	1040	3755	77
55	0	0	2027	1039	3757	76
56	0	0	2079	1039	3758	76
57	0	0	2120	1040	3757	77
58	0	0	2145	1039	3759	76
59	0	0	2163	1040	3758	76
60	0	0	2200	1040	3758	77
61	0	0	2287	1039	3759	76
62	0	0	2368	1040	3759	73
63	0	0	2347	1037	3759	76
64	0	0	2291	1036	3758	76
65	0	0	2242	1036	3759	76
66	0	0	2194	1037	3760	75
67	0	0	2139	1036	3760	74
68	0	0	2061	1036	3759	75
69	0	0	1981	1035	3758	76
70	0	0	1937	1038	3759	75
71	0	0	1917	1037	3759	76
72	0	0	1900	1039	3758	74
73	0	0	1902	1039	3758	75
74	0	0	1913	1039	3757	76
75	0	0	1946	1039	3758	77
76	0	0	1974	1040	3758	77
77	0	0	1992	1040	3759	76
78	0	0	2004	1039	3759	75
79	0	0	2044	1039	3759	77
80	0	0	2100	1039	3759	77
81	0	0	2148	1039	3759	76
82	0	0	2158	1039	3760	75
83	0	0	2111	1038	3759	76
84	0	0	2064	1036	3758	76
85	0	0	2017	1036	3759	76
86	0	0	1943	1036	3759	76
87	0	0	1851	1035	3758	76
88	0	0	1769	1036	3760	75
89	0	0	1739	1038	3758	76
90	0	0	1755	1039	3758	76
91	0	0	1764	1038	3758	77
92	0	0	1765	1039	3756	77
93	0	0	1789	1038	3759	76
94	0	0	1810	1039	3758	76
95	0	0	1848	1039	3758	76
96	0	0	1920	1040	3758	78
97	0	0	1987	1040	3759	77
98	0	0	2040	1040	3760	76
99	0	0	2093	1040	3760	75
100	0	0	2145	1037	3759	76
101	0	0	2204	1039	3758	76
102	0	0	2281	1040	3759	77
103	0	0	2304	1039	3760	77
104	0	0	2283	1037	3757	77
105	0	0	2246	1037	3757	76
106	0	0	2176	1034	3759	76
107	0	0	2101	1036	3759	75
108	0	0	2023	1036	3757	76
109	0	0	1949	1035	3758	77
110	0	0	1885	1036	3758	76
111	0	0	1854	1036	3757	76
112	0	0	1850	1040	3756	77
113	0	0	1873	1040	3760	76
114	0	0	1900	1039	3759	76
115	0	0	1909	1039	3760	75
116	0	0	1941	1039	3760	74
117	0	0	1995	1039	3759	75
118	0	0	2063	1040	3760	75
119	0	0	2093	1039	3758	75
120	0	0	2098	1040	3759	75
121	0	0	2125	1040	3757	76
122	0	0	2196	1040	3756	78
123	0	0	2225	1039	3757	76
124	0	0	2204	1037	3757	75
125	0	0	2156	1035	3758	76
126	0	0	2065	1035	3758	76
127	0	0	1973	1036	3756	77
0	0	0	1899	1035	3757	76
1	0	0	1856	1036	3759	77
2	0	0	1859	1039	3759	76
3	0	0	1881	1039	3759	76
4	0	0	1891	1039	3760	75
5	0	0	1920	1039	3758	77
6	0	0	1973	1039	3759	76
7	0	0	2037	1040	3758	77
8	0	0	2093	1040	3758	77
9	0	0	2128	1039	3758	75
10	0	0	2172	1041	3758	77
11	0	0	2215	1039	3758	77
12	0	0	2228	1040	3759	77
13	0	0	2238	1040	3757	76
14	0	0	2258	1039	3759	74
15	0	0	2219	1036	3756	75
16	0	0	2157	1036	3758	76
17	0	0	2101	1036	3758	76
18	0	0	2011	1035	3757	77
19	0	0	1929	1035	3760	73
20	0	0	1881	1036	3760	75
21	0	0	1861	1037	3759	76
22	0	0	1871	1039	3760	74
23	0	0	1900	1039	3756	77
24	0	0	1917	1038	3758	74
25	0	0	1940	1038	3756	77
26	0	0	1975	1041	3758	78
27	0	0	2015	1038	3760	76
28	0	0	2057	1038	3755	77
29	0	0	2099	1039	3758	75
30	0	0	2153	1039	3757	76
31	0	0	2197	1038	3758	76
32	0	0	2252	1040	3758	76
33	0	0	2309	1039	3757	76
34	0	0	2335	1039	3758	73
35	0	0	2298	1036	3759	75
36	0	0	2250	1036	3759	77
37	0	0	2202	1036	3760	75
38	0	0	2123	1035	3760	75
39	0	0	2042	1035	3760	73
40	0	0	1995	1036	3757	76
41	0	0	1970	1036	3758	76
42	0	0	1917	1034	3758	77
43	0	0	1834	1035	3757	76
44	0	0	1798	1040	3758	77
45	0	0	1847	1039	3758	76
46	0	0	1917	1038	3757	76
47	0	0	1971	1039	3758	76
48	0	0	2010	1038	3756	78
49	0	0	2060	1040	3759	76
50	0	0	2094	1039	3757	76
51	0	0	2107	1040	3760	75
52	0	0	2125	1040	3758	76
53	0	0	2191	1040	3759	76
54	0	0	2280	1039	3759	75
55	0	0	2295	1038	3756	73
56	0	0	2249	1036	3758	74
57	0	0	2179	1035	3760	75
58	0	0	2088	1034	3759	76
59	0	0	2011	1034	3759	74
60	0	0	1968	1035	3758	76
61	0	0	1949	1037	3757	76
62	0	0	1930	1035	3760	75
63	0	0	1889	1034	3758	75
64	0	0	1854	1037	3758	75
65	0	0	1863	1038	3758	75
66	0	0	1896	1040	3757	76
67	0	0	1954	1037	3760	77
68	0	0	2042	1039	3759	76
69	0	0	2141	1038	3759	73
70	0	0	2206	1038	3759	77
71	0	0	2228	1038	3759	77
72	0	0	2239	1038	3760	75
73	0	0	2277	1038	3758	75
74	0	0	2330	1039	3758	75
75	0	0	2328	1037	3758	76
76	0	0	2285	1036	3757	76
77	0	0	2233	1033	3759	77
78	0	0	2156	1034	3758	75
79	0	0	2084	1035	3757	72
80	0	0	2021	1034	3759	76
81	0	0	1964	1035	3758	76
82	0	0	1926	1034	3759	76
83	0	0	1888	1035	3759	76
84	0	0	1839	1035	3759	74
85	0	0	1847	1037	3758	74
86	0	0	1891	1038	3758	77
87	0	0	1952	1040	3759	76
88	0	0	2009	1038	3758	76
89	0	0	2062	1039	3760	74
90	0	0	2129	1038	3759	75
91	0	0	2194	1038	3758	76
92	0	0	2245	1040	3759	77
93	0	0	2293	1038	3758	76
94	0	0	2334	1037	3757	72
95	0	0	2301	1035	3758	75
96	0	0	2255	1035	3757	76
97	0	0	2213	1036	3758	76
98	0	0	2142	1034	3759	76
99	0	0	2083	1035	3758	76
100	0	0	2038	1035	3757	75
101	0	0	2015	1035	3760	75
102	0	0	1988	1036	3760	79
103	0	0	1968	1035	3759	77
104	0	0	1955	1037	3760	76
105	0	0	1973	1037	3759	76
106	0	0	2025	1035	3758	76
107	0	0	2087	1036	3759	76
108	0	0	2163	1038	3759	76
109	0	0	2238	1039	3760	74
110	0	0	2300	1038	3757	76
111	0	0	2347	1038	3759	75
112	0	0	2366	1038	3757	76
113	0	0	2369	1038	3758	76
114	0	0	2376	1038	3756	74
115	0	0	2334	1035	3759	76
116	0	0	2270	1035	3758	76
117	0	0	2188	1033	3758	77
118	0	0	2082	1034	3759	77
119	0	0	2001	1034	3759	74
120	0	0	1979	1037	3759	75
121	0	0	1991	1038	3759	75
122	0	0	1999	1037	3759	76
123	0	0	1937	1033	3759	74
124	0	0	1862	1035	3757	76
125	0	0	1870	1039	3758	76
126	0	0	1947	1036	3755	77
127	0	0	2034	1037	3757	76
0	0	0	2131	1037	3759	75
1	0	0	2220	1039	3756	74
2	0	0	2262	1037	3757	75
3	0	0	2270	1038	3758	76
4	0	0	2299	1037	3758	77
5	0	0	2344	1039	3759	74
6	0	0	2365	1038	3758	76
7	0	0	2327	1035	3758	78
8	0	0	2285	1035	3760	75
9	0	0	2252	1035	3758	76
10	0	0	2185	1035	3759	76
11	0	0	2095	1035	3760	75
12	0	0	2019	1034	3760	75
13	0	0	1965	1035	3759	76
14	0	0	1937	1037	3758	77
15	0	0	1931	1035	3757	76
16	0	0	1912	1036	3758	75
17	0	0	1920	1038	3757	75
18	0	0	1962	1038	3759	76
19	0	0	2012	1035	3757	76
20	0	0	2045	1039	3760	77
21	0	0	2104	1039	3759	78
22	0	0	2184	1038	3760	75
23	0	0	2259	1038	3759	76
24	0	0	2339	1038	3759	75
25	0	0	2406	1040	3759	76
26	0	0	2443	1039	3759	77
27	0	0	2413	1035	3757	75
28	0	0	2355	1034	3758	77
29	0	0	2271	1034	3758	76
30	0	0	2167	1035	3760	77
31	0	0	2080	1034	3758	76
32	0	0	2005	1035	3758	76
33	0	0	1970	1035	3757	76
34	0	0	1942	1034	3758	76
35	0	0	1897	1035	3758	76
36	0	0	1851	1035	3758	76
37	0	0	1856	1037	3756	77
38	0	0	1890	1037	3759	76
39	0	0	1934	1037	3759	77
40	0	0	2016	1039	3759	77
41	0	0	2097	1038	3760	75
42	0	0	2142	1038	3759	76
43	0	0	2162	1038	3760	75
44	0	0	2170	1039	3760	76
45	0	0	2212	1040	3758	76
46	0	0	2259	1038	3759	75
47	0	0	2242	1035	3760	75
48	0	0	2178	1034	3757	77
49	0	0	2094	1032	3759	76
50	0	0	1986	1034	3758	76
51	0	0	1931	1035	3759	79
52	0	0	1924	1039	3758	75
53	0	0	1936	1038	3758	76
54	0	0	1957	1038	3757	77
55	0	0	1949	1035	3759	74
56	0	0	1916	1036	3758	79
57	0	0	1913	1038	3760	75
58	0	0	1937	1037	3758	77
59	0	0	1974	1038	3760	75
60	0	0	2025	1038	3760	78
61	0	0	2083	1038	3759	79
62	0	0	2135	1039	3760	75
63	0	0	2167	1038	3758	79
64	0	0	2157	1035	3758	74
65	0	0	2137	1039	3760	76
66	0	0	2155	1039	3758	50
67	0	0	2205	1039	3757	75
68	0	0	2272	1039	3760	79
69	0	0	2297	1036	3757	76
70	0	0	2217	1034	3758	76
71	0	0	2090	1034	3759	78
72	0	0	1980	1034	3759	75
73	0	0	1910	1034	3758	75
74	0	0	1864	1034	3760	75
75	0	0	1818	1035	3759	76
76	0	0	1771	1034	3759	77
77	0	0	1773	1038	3758	76
78	0	0	1815	1038	3759	76
79	0	0	1874	1039	3758	76
80	0	0	1950	1039	3760	75
81	0	0	2026	1038	3759	79
82	0	0	2067	1038	3759	75
83	0	0	2081	1037	3758	77
84	0	0	2115	1036	3759	76
85	0	0	2184	1037	3757	77
86	0	0	2252	1038	3758	77
87	0	0	2235	1035	3760	76
88	0	0	2200	1035	3758	77
89	0	0	2169	1035	3758	76
90	0	0	2115	1034	3758	76
91	0	0	2051	1034	3760	75
92	0	0	1985	1034	3760	74
93	0	0	1929	1034	3759	76
94	0	0	1886	1034	3759	77
95	0	0	1850	1036	3759	75
96	0	0	1817	1034	3758	76
97	0	0	1835	1037	3758	76
98	0	0	1885	1038	3758	76
99	0	0	1916	1038	3758	77
100	0	0	1945	1036	3758	76
101	0	0	1994	1038	3759	75
102	0	0	2073	1038	3760	75
103	0	0	2146	1038	3759	76
104	0	0	2186	1040	3758	76
105	0	0	2207	1038	3758	77
106	0	0	2223	1039	3759	76
107	0	0	2192	1036	3759	74
108	0	0	2149	1035	3760	75
109	0	0	2093	1033	3757	77
110	0	0	2025	1032	3760	75
111	0	0	1961	1034	3760	75
112	0	0	1892	1034	3759	76
113	0	0	1843	1034	3758	76
114	0	0	1836	1037	3755	77
115	0	0	1837	1036	3757	76
116	0	0	1830	1037	3758	77
117	0	0	1850	1037	3759	76
118	0	0	1885	1038	3757	76
119	0	0	1930	1038	3758	77
120	0	0	1987	1037	3759	79
121	0	0	2050	1037	3759	76
122	0	0	2116	1038	3759	77
123	0	0	2161	1038	3759	77
124	0	0	2191	1039	3759	77
125	0	0	2232	1037	3759	76
126	0	0	2269	1038	3759	74
127	0	0	2252	1031	3759	77
0	0	0	2199	1035	3760	74
1	0	0	2131	1031	3759	76
2	0	0	2039	1030	3759	76
3	0	0	1958	1034	3759	76
4	0	0	1908	1034	3759	76
5	0	0	1861	1035	3760	76
6	0	0	1816	1034	3758	75
7	0	0	1788	1035	3758	75
8	0	0	1776	1038	3758	76
9	0	0	1809	1038	3759	76
10	0	0	1867	1037	3757	76
11	0	0	1920	1039	3758	76
12	0	0	1976	1035	3759	76
13	0	0	2036	1038	3760	73
14	0	0	2128	1037	3759	76
15	0	0	2212	1039	3760	76
16	0	0	2268	1035	3756	77
17	0	0	2310	1035	3759	76
18	0	0	2340	1039	3758	76
19	0	0	2294	1034	3757	76
20	0	0	2212	1034	3758	77
21	0	0	2127	1034	3756	77
22	0	0	2027	1033	3758	75
23	0	0	1936	1034	3759	76
24	0	0	1891	1036	3759	76
25	0	0	1857	1036	3758	76
26	0	0	1834	1035	3759	79
27	0	0	1814	1031	3759	76
28	0	0	1793	1036	3758	74
29	0	0	1812	1037	3758	75
30	0	0	1849	1038	3760	73
31	0	0	1884	1038	3758	76
32	0	0	1940	1034	3759	76
33	0	0	2007	1039	3760	77
34	0	0	2076	1038	3759	75
35	0	0	2140	1038	3760	76
36	0	0	2191	1038	3759	75
37	0	0	2250	1037	3757	75
38	0	0	2295	1038	3758	74
39	0	0	2280	1035	3757	76
40	0	0	2242	1035	3757	76
41	0	0	2180	1034	3758	75
42	0	0	2067	1034	3760	75
43	0	0	1952	1033	3760	75
44	0	0	1877	1034	3759	75
45	0	0	1841	1034	3759	76
46	0	0	1820	1035	3759	77
47	0	0	1825	1034	3759	76
48	0	0	1842	1036	3759	76
49	0	0	1893	1038	3759	75
50	0	0	1948	1039	3758	76
51	0	0	1981	1037	3758	77
52	0	0	2020	1036	3758	75
53	0	0	2076	1037	3759	77
54	0	0	2154	1038	3758	76
55	0	0	2220	1037	3759	77
56	0	0	2243	1038	3758	75
57	0	0	2256	1038	3758	75
58	0	0	2278	1039	3759	76
59	0	0	2256	1034	3757	74
60	0	0	2205	1034	3758	77
61	0	0	2135	1033	3758	76
62	0	0	2029	1033	3759	75
63	0	0	1951	1034	3760	73
64	0	0	1910	1035	3759	76
65	0	0	1885	1035	3760	76
66	0	0	1877	1038	3759	77
67	0	0	1883	1037	3758	74
68	0	0	1866	1035	3758	80
69	0	0	1853	1036	3759	75
70	0	0	1851	1037	3760	76
71	0	0	1896	1036	3758	77
72	0	0	1991	1037	3758	75
73	0	0	2067	1038	3759	76
74	0	0	2135	1039	3758	77
75	0	0	2192	1037	3758	73
76	0	0	2220	1037	3758	77
77	0	0	2214	1038	3758	74
78	0	0	2195	1037	3758	80
79	0	0	2145	1034	3759	79
80	0	0	2117	1036	3758	76
81	0	0	2107	1036	3760	74
82	0	0	2076	1035	3760	75
83	0	0	2043	1035	3760	75
84	0	0	2009	1034	3760	75
85	0	0	1938	1033	3758	76
86	0	0	1872	1034	3759	75
87	0	0	1849	1035	3758	75
88	0	0	1851	1037	3758	76
89	0	0	1859	1037	3759	75
90	0	0	1877	1037	3758	76
91	0	0	1906	1037	3758	76
92	0	0	1961	1037	3757	77
93	0	0	2035	1038	3759	80
94	0	0	2111	1038	3759	79
95	0	0	2170	1037	3759	77
96	0	0	2211	1037	3759	77
97	0	0	2224	1037	3759	76
98	0	0	2212	1035	3760	74
99	0	0	2154	1034	3758	78
100	0	0	2097	1034	3760	76
101	0	0	2046	1036	3759	75
102	0	0	1988	1033	3758	76
103	0	0	1962	1036	3758	75
104	0	0	1950	1035	3758	77
105	0	0	1942	1037	3757	76
106	0	0	1951	1037	3759	74
107	0	0	1967	1037	3758	74
108	0	0	1938	1034	3758	76
109	0	0	1891	1034	3758	78
110	0	0	1858	1034	3758	76
111	0	0	1860	1037	3758	76
112	0	0	1931	1039	3760	76
113	0	0	2024	1038	3760	78
114	0	0	2095	1037	3759	76
115	0	0	2142	1037	3759	76
116	0	0	2163	1037	3760	76
117	0	0	2191	1037	3760	77
118	0	0	2254	1036	3758	76
119	0	0	2250	1035	3759	75
120	0	0	2196	1034	3758	76
121	0	0	2132	1034	3759	77
122	0	0	2044	1032	3756	77
123	0	0	1965	1033	3759	79
124	0	0	1916	1035	3758	76
125	0	0	1897	1035	3758	76
126	0	0	1893	1036	3758	76
127	0	0	1883	1034	3758	76
0	0	0	1875	1036	3759	76
1	0	0	1901	1037	3758	79
2	0	0	1951	1036	3758	77
3	0	0	2000	1037	3760	73
4	0	0	2059	1038	3760	78
5	0	0	2128	1038	3759	75
6	0	0	2179	1037	3759	78
7	0	0	2187	1038	3760	75
8	0	0	2179	1037	3760	77
9	0	0	2216	1035	3756	77
10	0	0	2296	1037	3757	76
11	0	0	2291	1034	3756	78
12	0	0	2227	1033	3757	76
13	0	0	2144	1033	3758	74
14	0	0	2054	1033	3759	79
15	0	0	1985	1033	3759	75
16	0	0	1930	1032	3760	75
17	0	0	1890	1033	3759	77
18	0	0	1870	1035	3759	75
19	0	0	1863	1035	3760	76
20	0	0	1875	1036	3759	74
21	0	0	1966	1037	3759	76
22	0	0	2081	1036	3758	76
23	0	0	2129	1037	3757	76
24	0	0	2143	1036	3759	79
25	0	0	2161	1036	3759	76
26	0	0	2197	1037	3758	78
27	0	0	2215	1037	3758	76
28	0	0	2233	1039	3758	76
29	0	0	2281	1038	3758	75
30	0	0	2353	1037	3758	79
31	0	0	2358	1034	3757	78
32	0	0	2284	1033	3759	76
33	0	0	2195	1034	3759	78
34	0	0	2096	1032	3757	77
35	0	0	2037	1034	3760	74
36	0	0	2046	1037	3759	77
37	0	0	2058	1038	3758	76
38	0	0	2029	1033	3759	75
39	0	0	1984	1033	3760	75
40	0	0	1939	1035	3758	75
41	0	0	1958	1036	3757	75
42	0	0	2018	1037	3757	76
43	0	0	2048	1037	3758	77
44	0	0	2039	1034	3756	77
45	0	0	2066	1036	3759	76
46	0	0	2165	1036	3758	75
47	0	0	2263	1037	3758	76
48	0	0	2298	1037	3758	77
49	0	0	2317	1036	3759	79
50	0	0	2314	1034	3758	77
51	0	0	2243	1034	3758	79
52	0	0	2152	1033	3760	75
53	0	0	2052	1034	3760	74
54	0	0	1939	1032	3759	76
55	0	0	1849	1033	3760	73
56	0	0	1767	1032	3759	75
57	0	0	1692	1034	3760	75
58	0	0	1642	1032	3760	76
59	0	0	1631	1036	3758	75
60	0	0	1656	1036	3758	76
61	0	0	1722	1036	3757	75
62	0	0	1777	1036	3757	76
63	0	0	1827	1035	3757	78
64	0	0	1914	1036	3759	79
65	0	0	2009	1036	3759	76
66	0	0	2098	1036	3758	75
67	0	0	2171	1036	3759	78
68	0	0	2202	1037	3759	77
69	0	0	2204	1036	3759	79
70	0	0	2204	1037	3759	77
71	0	0	2191	1034	3759	76
72	0	0	2179	1037	3758	76
73	0	0	2138	1032	3759	73
74	0	0	2063	1033	3759	75
75	0	0	1994	1033	3759	77
76	0	0	1949	1033	3758	74
77	0	0	1920	1033	3759	76
78	0	0	1902	1035	3758	76
79	0	0	1876	1035	3757	76
80	0	0	1846	1034	3758	76
81	0	0	1862	1037	3759	75
82	0	0	1910	1036	3758	76
83	0	0	1960	1037	3758	77
84	0	0	2012	1038	3759	75
85	0	0	2058	1036	3760	75
86	0	0	2129	1036	3759	75
87	0	0	2199	1036	3760	74
88	0	0	2237	1036	3756	77
89	0	0	2258	1039	3758	74
90	0	0	2268	1037	3758	76
91	0	0	2222	1032	3756	75
92	0	0	2165	1033	3758	77
93	0	0	2123	1033	3757	75
94	0	0	2070	1031	3759	77
95	0	0	1994	1031	3759	76
96	0	0	1924	1029	3759	76
97	0	0	1876	1032	3758	76
98	0	0	1868	1035	3758	77
99	0	0	1873	1035	3758	74
100	0	0	1861	1035	3759	78
101	0	0	1881	1035	3759	74
102	0	0	1917	1035	3760	75
103	0	0	1945	1032	3759	76
104	0	0	1979	1037	3759	76
105	0	0	2026	1035	3760	75
106	0	0	2079	1035	3759	76
107	0	0	2132	1036	3758	77
108	0	0	2180	1035	3757	77
109	0	0	2247	1034	3759	79
110	0	0	2304	1035	3758	76
111	0	0	2287	1033	3756	76
112	0	0	2248	1033	3758	77
113	0	0	2213	1032	3757	77
114	0	0	2131	1030	3759	77
115	0	0	2019	1029	3759	78
116	0	0	1916	1032	3760	75
117	0	0	1834	1031	3758	76
118	0	0	1782	1032	3759	74
119	0	0	1752	1033	3760	75
120	0	0	1758	1037	3759	76
121	0	0	1841	1035	3758	76
122	0	0	1955	1036	3758	76
123	0	0	2038	1032	3758	77
124	0	0	2095	1035	3758	76
125	0	0	2135	1034	3759	78
126	0	0	2175	1035	3758	74
127	0	0	2227	1035	3759	76
0	0	0	2281	1035	3757	75
1	0	0	2300	1034	3759	77
2	0	0	2259	1032	3758	77
3	0	0	2205	1032	3758	76
4	0	0	2193	1036	3758	77
5	0	0	2171	1032	3758	76
6	0	0	2107	1031	3759	76
7	0	0	2033	1032	3759	77
8	0	0	1986	1031	3759	76
9	0	0	1923	1031	3760	76
10	0	0	1870	1031	3758	76
11	0	0	1862	1031	3759	75
12	0	0	1863	1036	3759	75
13	0	0	1892	1035	3757	76
14	0	0	1940	1034	3756	75
15	0	0	1980	1034	3757	76
16	0	0	1999	1035	3758	76
17	0	0	2023	1034	3759	78
18	0	0	2071	1034	3758	76
19	0	0	2130	1035	3758	76
20	0	0	2185	1032	3758	77
21	0	0	2238	1035	3758	76
22	0	0	2295	1037	3758	76
23	0	0	2316	1036	3758	76
24	0	0	2328	1035	3760	75
25	0	0	2295	1033	3759	78
26	0	0	2220	1032	3759	76
27	0	0	2145	1031	3760	75
28	0	0	2076	1031	3759	76
29	0	0	2025	1034	3760	75
30	0	0	1984	1032	3759	73
31	0	0	1945	1031	3758	76
32	0	0	1897	1032	3759	75
33	0	0	1890	1035	3757	78
34	0	0	1911	1035	3759	76
35	0	0	1943	1035	3758	73
36	0	0	1991	1034	3758	76
37	0	0	2059	1034	3760	75
38	0	0	2131	1035	3759	77
39	0	0	2179	1037	3760	75
40	0	0	2210	1037	3759	75
41	0	0	2244	1036	3759	74
42	0	0	2290	1035	3759	76
43	0	0	2280	1032	3758	77
44	0	0	2220	1031	3758	77
45	0	0	2149	1031	3758	74
46	0	0	2080	1030	3758	78
47	0	0	2036	1033	3758	76
48	0	0	2013	1031	3758	78
49	0	0	1955	1030	3758	76
50	0	0	1888	1030	3758	76
51	0	0	1872	1034	3758	77
52	0	0	1903	1034	3759	75
53	0	0	1971	1035	3759	75
54	0	0	2052	1034	3759	77
55	0	0	2139	1034	3760	75
56	0	0	2209	1035	3760	75
57	0	0	2258	1034	3760	75
58	0	0	2304	1034	3759	78
59	0	0	2339	1033	3759	77
60	0	0	2356	1035	3759	76
61	0	0	2357	1036	3758	77
62	0	0	2365	1036	3759	77
63	0	0	2345	1034	3757	79
64	0	0	2298	1033	3759	75
65	0	0	2231	1031	3757	75
66	0	0	2144	1032	3758	77
67	0	0	2099	1032	3759	77
68	0	0	2083	1031	3758	77
69	0	0	2044	1032	3759	73
70	0	0	1988	1031	3759	76
71	0	0	1950	1031	3759	76
72	0	0	1921	1032	3759	76
73	0	0	1920	1034	3758	75
74	0	0	1951	1034	3759	76
75	0	0	2003	1033	3759	76
76	0	0	2072	1034	3759	77
77	0	0	2135	1034	3760	75
78	0	0	2188	1035	3759	75
79	0	0	2235	1034	3758	76
80	0	0	2284	1035	3758	76
81	0	0	2325	1032	3758	78
82	0	0	2357	1035	3758	76
83	0	0	2342	1032	3757	77
84	0	0	2301	1031	3758	76
85	0	0	2253	1031	3758	76
86	0	0	2205	1031	3758	77
87	0	0	2172	1032	3759	76
88	0	0	2133	1031	3759	75
89	0	0	2079	1031	3760	75
90	0	0	2021	1033	3759	74
91	0	0	1978	1031	3759	75
92	0	0	1940	1032	3759	76
93	0	0	1948	1034	3758	77
94	0	0	1962	1033	3758	76
95	0	0	1985	1035	3760	78
96	0	0	2039	1032	3758	78
97	0	0	2122	1033	3758	77
98	0	0	2220	1034	3758	73
99	0	0	2310	1034	3758	77
100	0	0	2371	1033	3758	76
101	0	0	2404	1032	3758	77
102	0	0	2425	1033	3758	75
103	0	0	2358	1029	3758	75
104	0	0	2273	1030	3758	77
105	0	0	2215	1031	3758	76
106	0	0	2151	1028	3759	77
107	0	0	2117	1033	3760	76
108	0	0	2113	1034	3761	74
109	0	0	2108	1034	3761	76
110	0	0	2097	1032	3759	77
111	0	0	2057	1031	3758	76
112	0	0	1996	1030	3759	76
113	0	0	1966	1032	3758	75
114	0	0	1975	1034	3759	76
115	0	0	2011	1036	3758	77
116	0	0	2074	1035	3758	76
117	0	0	2144	1034	3760	73
118	0	0	2199	1033	3760	69
119	0	0	2237	1033	3760	74
120	0	0	2273	1034	3760	78
121	0	0	2310	1034	3758	76
122	0	0	2326	1034	3759	76
123	0	0	2286	1031	3758	75
124	0	0	2244	1030	3758	77
125	0	0	2192	1030	3760	79
126	0	0	2127	1030	3760	75
127	0	0	2073	1030	3760	73
0	0	0	2025	1030	3758	74
1	0	0	1982	1030	3758	77
2	0	0	1949	1030	3759	76
3	0	0	1913	1030	3760	74
4	0	0	1862	1029	3759	76
5	0	0	1853	1033	3759	75
6	0	0	1884	1033	3758	76
7	0	0	1947	1031	3757	75
8	0	0	2031	1034	3757	75
9	0	0	2108	1032	3759	76
10	0	0	2182	1033	3759	76
11	0	0	2245	1032	3760	74
12	0	0	2276	1034	3760	79
13	0	0	2282	1036	3758	75
14	0	0	2272	1030	3759	76
15	0	0	2229	1031	3758	72
16	0	0	2183	1030	3758	77
17	0	0	2150	1029	3759	76
18	0	0	2085	1030	3759	76
19	0	0	2009	1029	3759	76
20	0	0	1972	1030	3759	76
21	0	0	1935	1029	3758	76
22	0	0	1878	1028	3757	75
23	0	0	1804	1030	3756	76
24	0	0	1758	1029	3758	76
25	0	0	1791	1035	3757	72
26	0	0	1839	1034	3758	77
27	0	0	1875	1032	3758	77
28	0	0	1932	1032	3757	75
29	0	0	1995	1032	3760	74
30	0	0	2063	1034	3759	72
31	0	0	2131	1033	3758	76
32	0	0	2191	1032	3760	76
33	0	0	2244	1033	3757	76
34	0	0	2279	1033	3759	76
35	0	0	2249	1030	3756	76
36	0	0	2186	1029	3758	76
37	0	0	2118	1029	3760	79
38	0	0	2037	1029	3756	75
39	0	0	1964	1029	3759	72
40	0	0	1883	1028	3758	74
41	0	0	1821	1029	3759	77
42	0	0	1775	1028	3759	77
43	0	0	1740	1030	3758	75
44	0	0	1724	1033	3759	76
45	0	0	1764	1032	3757	76
46	0	0	1812	1032	3758	77
47	0	0	1857	1034	3759	77
48	0	0	1930	1035	3759	76
49	0	0	2010	1032	3760	75
50	0	0	2087	1033	3759	76
51	0	0	2132	1033	3760	75
52	0	0	2147	1033	3758	80
53	0	0	2161	1033	3756	76
54	0	0	2169	1032	3758	75
55	0	0	2116	1029	3757	76
56	0	0	2054	1029	3757	77
57	0	0	1993	1027	3759	79
58	0	0	1891	1029	3758	76
59	0	0	1757	1028	3759	76
60	0	0	1661	1028	3758	73
61	0	0	1627	1031	3759	76
62	0	0	1653	1032	3759	77
63	0	0	1688	1034	3758	75
64	0	0	1693	1033	3759	76
65	0	0	1699	1032	3758	77
66	0	0	1706	1032	3758	77
67	0	0	1721	1032	3759	76
68	0	0	1760	1033	3759	73
69	0	0	1819	1029	3759	76
70	0	0	1890	1033	3760	75
71	0	0	1947	1033	3758	77
72	0	0	1947	1029	3758	74
73	0	0	1908	1032	3756	76
74	0	0	1932	1032	3758	76
75	0	0	1985	1033	3758	76
76	0	0	2028	1032	3758	76
77	0	0	2007	1028	3758	77
78	0	0	1910	1029	3759	77
79	0	0	1792	1028	3760	75
80	0	0	1712	1029	3759	76
81	0	0	1654	1028	3759	77
82	0	0	1629	1032	3758	76
83	0	0	1641	1033	3758	77
84	0	0	1638	1029	3759	76
85	0	0	1629	1030	3757	76
86	0	0	1647	1032	3757	75
87	0	0	1693	1032	3758	76
88	0	0	1761	1032	3758	77
89	0	0	1835	1033	3759	76
90	0	0	1897	1033	3758	76
91	0	0	1938	1032	3758	76
92	0	0	1981	1035	3758	76
93	0	0	2035	1033	3758	76
94	0	0	2093	1032	3759	76
95	0	0	2113	1027	3758	76
96	0	0	2091	1029	3758	76
97	0	0	2055	1026	3759	76
98	0	0	1976	1029	3760	75
99	0	0	1860	1030	3758	76
100	0	0	1742	1028	3760	75
101	0	0	1642	1028	3758	77
102	0	0	1590	1029	3758	78
103	0	0	1589	1032	3758	76
104	0	0	1609	1034	3758	75
105	0	0	1664	1032	3758	76
106	0	0	1730	1032	3758	76
107	0	0	1797	1033	3758	74
108	0	0	1852	1032	3758	76
109	0	0	1914	1033	3760	75
110	0	0	1987	1031	3759	75
111	0	0	2050	1031	3760	76
112	0	0	2094	1034	3759	78
113	0	0	2148	1032	3759	77
114	0	0	2207	1035	3759	75
115	0	0	2203	1029	3758	77
116	0	0	2132	1028	3758	76
117	0	0	2045	1029	3758	76
118	0	0	1952	1029	3758	76
119	0	0	1895	1029	3759	76
120	0	0	1844	1028	3758	77
121	0	0	1784	1027	3758	76
122	0	0	1734	1028	3758	77
123	0	0	1706	1029	3759	76
124	0	0	1692	1031	3758	76
125	0	0	1706	1031	3757	78
126	0	0	1748	1029	3758	77
127	0	0	1799	1034	3758	76
0	0	0	1870	1031	3760	76
1	0	0	1932	1032	3760	75
2	0	0	1975	1031	3759	76
3	0	0	2010	1031	3760	76
4	0	0	2027	1032	3759	78
5	0	0	2060	1032	3759	77
6	0	0	2125	1033	3758	75
7	0	0	2142	1032	3756	75
8	0	0	2118	1029	3758	76
9	0	0	2065	1028	3758	76
10	0	0	1944	1026	3760	78
11	0	0	1843	1026	3759	75
12	0	0	1820	1031	3757	76
13	0	0	1819	1030	3759	80
14	0	0	1802	1030	3758	77
15	0	0	1769	1028	3758	75
16	0	0	1712	1028	3758	76
17	0	0	1717	1031	3758	76
18	0	0	1744	1031	3759	76
19	0	0	1771	1031	3759	77
20	0	0	1795	1032	3760	73
21	0	0	1842	1031	3757	76
22	0	0	1932	1032	3760	75
23	0	0	2023	1032	3758	77
24	0	0	2092	1033	3758	76
25	0	0	2153	1033	3759	79
26	0	0	2244	1031	3758	76
27	0	0	2294	1031	3757	76
28	0	0	2261	1027	3758	77
29	0	0	2153	1029	3757	77
30	0	0	2014	1027	3760	77
31	0	0	1922	1032	3759	76
32	0	0	1906	1029	3758	76
33	0	0	1885	1028	3759	76
34	0	0	1842	1030	3758	76
35	0	0	1782	1027	3760	75
36	0	0	1716	1027	3759	79
37	0	0	1721	1031	3758	79
38	0	0	1798	1030	3759	76
39	0	0	1874	1031	3758	75
40	0	0	1959	1030	3760	77
41	0	0	2061	1031	3759	76
42	0	0	2139	1031	3758	76
43	0	0	2185	1030	3759	79
44	0	0	2197	1032	3758	78
45	0	0	2204	1031	3757	75
46	0	0	2220	1030	3757	76
47	0	0	2163	1027	3757	76
48	0	0	2079	1027	3758	77
49	0	0	2023	1027	3759	75
50	0	0	1971	1028	3760	75
51	0	0	1935	1027	3759	76
52	0	0	1904	1027	3760	75
53	0	0	1869	1029	3759	77
54	0	0	1843	1028	3759	76
55	0	0	1812	1028	3760	76
56	0	0	1777	1028	3758	75
57	0	0	1783	1030	3757	77
58	0	0	1840	1031	3757	76
59	0	0	1920	1029	3758	77
60	0	0	2019	1030	3758	77
61	0	0	2105	1028	3758	77
62	0	0	2180	1032	3757	77
63	0	0	2260	1031	3758	79
64	0	0	2307	1030	3758	77
65	0	0	2332	1031	3760	75
66	0	0	2360	1031	3759	75
67	0	0	2295	1026	3758	77
68	0	0	2174	1026	3760	75
69	0	0	2095	1027	3760	74
70	0	0	2053	1027	3760	76
71	0	0	2005	1026	3759	76
72	0	0	1946	1026	3758	77
73	0	0	1867	1026	3760	79
74	0	0	1789	1026	3758	76
75	0	0	1767	1031	3758	75
76	0	0	1800	1030	3758	78
77	0	0	1862	1029	3757	76
78	0	0	1905	1030	3757	77
79	0	0	1929	1030	3758	76
80	0	0	1953	1030	3759	76
81	0	0	1991	1030	3758	77
82	0	0	2036	1030	3759	76
83	0	0	2061	1029	3760	76
84	0	0	2084	1030	3760	75
85	0	0	2115	1030	3760	75
86	0	0	2184	1030	3759	76
87	0	0	2212	1032	3757	77
88	0	0	2193	1028	3760	75
89	0	0	2149	1027	3759	77
90	0	0	2073	1027	3759	77
91	0	0	1974	1026	3758	76
92	0	0	1871	1026	3758	77
93	0	0	1804	1026	3758	75
94	0	0	1791	1030	3758	75
95	0	0	1826	1030	3758	75
96	0	0	1884	1031	3758	76
97	0	0	1964	1030	3757	76
98	0	0	2076	1029	3758	77
99	0	0	2192	1028	3759	77
100	0	0	2276	1030	3759	77
101	0	0	2344	1031	3760	76
102	0	0	2442	1030	3759	77
103	0	0	2548	1030	3761	75
104	0	0	2596	1030	3759	77
105	0	0	2589	1031	3759	77
106	0	0	2618	1030	3758	76
107	0	0	2630	1031	3757	77
108	0	0	2617	1030	3759	79
109	0	0	2564	1026	3757	76
110	0	0	2467	1026	3757	76
111	0	0	2383	1027	3758	75
112	0	0	2302	1026	3758	76
113	0	0	2241	1027	3758	76
114	0	0	2252	1030	3758	76
115	0	0	2311	1031	3758	75
116	0	0	2321	1027	3759	77
117	0	0	2286	1026	3759	76
118	0	0	2211	1028	3758	77
119	0	0	2169	1028	3759	77
120	0	0	2258	1030	3759	77
121	0	0	2431	1031	3759	77
122	0	0	2577	1030	3759	76
123	0	0	2656	1032	3758	77
124	0	0	2700	1030	3758	76
125	0	0	2748	1030	3759	77
126	0	0	2810	1032	3758	76
127	0	0	2809	1030	3757	76
0	0	0	2779	1030	3757	76
1	0	0	2738	1026	3759	79
2	0	0	2638	1026	3759	77
3	0	0	2512	1026	3760	76
4	0	0	2418	1026	3758	75
5	0	0	2395	1029	3760	75
6	0	0	2424	1030	3760	74
7	0	0	2481	1030	3759	77
8	0	0	2514	1030	3759	76
9	0	0	2562	1029	3758	77
10	0	0	2612	1030	3759	78
11	0	0	2647	1027	3758	76
12	0	0	2694	1029	3759	75
13	0	0	2729	1027	3758	75
14	0	0	2737	1029	3758	77
15	0	0	2760	1030	3759	76
16	0	0	2808	1029	3758	76
17	0	0	2862	1030	3758	77
18	0	0	2938	1031	3758	76
19	0	0	2986	1029	3757	77
20	0	0	2991	1029	3759	74
21	0	0	2902	1026	3759	75
22	0	0	2755	1025	3759	77
23	0	0	2634	1024	3759	75
24	0	0	2569	1026	3759	77
25	0	0	2562	1030	3760	75
26	0	0	2565	1030	3760	73
27	0	0	2572	1029	3759	75
28	0	0	2573	1029	3759	75
29	0	0	2599	1029	3757	76
30	0	0	2631	1029	3758	74
31	0	0	2652	1030	3759	75
32	0	0	2695	1029	3758	77
33	0	0	2737	1027	3759	76
34	0	0	2763	1029	3758	76
35	0	0	2791	1030	3759	75
36	0	0	2805	1029	3759	73
37	0	0	2808	1030	3757	75
38	0	0	2868	1027	3758	76
39	0	0	2969	1029	3758	77
40	0	0	3039	1028	3759	74
41	0	0	3082	1030	3759	77
42	0	0	3077	1030	3760	75
43	0	0	3034	1026	3760	76
44	0	0	2954	1026	3760	75
45	0	0	2830	1022	3759	77
46	0	0	2743	1027	3758	76
47	0	0	2752	1030	3759	76
48	0	0	2779	1027	3758	76
49	0	0	2806	1030	3758	76
50	0	0	2800	1030	3757	76
51	0	0	2826	1030	3758	77
52	0	0	2941	1030	3759	75
53	0	0	3056	1028	3759	76
54	0	0	3140	1030	3760	75
55	0	0	3230	1030	3759	77
56	0	0	3301	1031	3760	76
57	0	0	3319	1030	3757	77
58	0	0	3326	1028	3759	76
59	0	0	3283	1026	3758	77
60	0	0	3228	1031	3757	76
61	0	0	3217	1029	3758	72
62	0	0	3209	1029	3759	77
63	0	0	3174	1025	3759	75
64	0	0	3102	1026	3758	77
65	0	0	3056	1027	3758	76
66	0	0	3043	1031	3757	75
67	0	0	3051	1029	3756	77
68	0	0	3023	1030	3758	76
69	0	0	3006	1028	3757	76
70	0	0	3005	1029	3758	76
71	0	0	3006	1029	3759	75
72	0	0	3068	1027	3760	75
73	0	0	3233	1027	3760	76
74	0	0	3407	1029	3759	77
75	0	0	3526	1031	3759	76
76	0	0	3576	1031	3759	77
77	0	0	3590	1029	3756	77
78	0	0	3630	1028	3760	76
79	0	0	3648	1028	3758	76
80	0	0	3601	1027	3757	76
81	0	0	3515	1026	3757	76
82	0	0	3379	1025	3757	77
83	0	0	3251	1026	3759	75
84	0	0	3164	1025	3758	77
85	0	0	3130	1029	3760	75
86	0	0	3128	1029	3759	80
87	0	0	3151	1029	3756	77
88	0	0	3149	1028	3759	76
89	0	0	3153	1029	3758	77
90	0	0	3182	1028	3758	78
91	0	0	3226	1028	3759	75
92	0	0	3280	1028	3760	77
93	0	0	3320	1028	3760	75
94	0	0	3356	1029	3759	78
95	0	0	3424	1028	3759	77
96	0	0	3502	1031	3757	76
97	0	0	3547	1029	3760	77
98	0	0	3564	1028	3758	77
99	0	0	3532	1029	3758	76
100	0	0	3485	1030	3757	76
101	0	0	3449	1028	3758	73
102	0	0	3363	1026	3760	75
103	0	0	3277	1024	3760	76
104	0	0	3218	1025	3758	77
105	0	0	3151	1027	3759	76
106	0	0	3087	1027	3759	75
107	0	0	3068	1028	3758	77
108	0	0	3062	1029	3759	76
109	0	0	3094	1028	3758	76
110	0	0	3131	1028	3758	75
111	0	0	3137	1028	3759	77
112	0	0	3134	1029	3756	77
113	0	0	3190	1028	3760	75
114	0	0	3280	1028	3758	77
115	0	0	3352	1027	3759	76
116	0	0	3393	1028	3758	75
117	0	0	3418	1030	3758	77
118	0	0	3473	1026	3759	77
119	0	0	3481	1029	3759	76
120	0	0	3420	1025	3758	77
121	0	0	3324	1024	3758	76
122	0	0	3174	1023	3758	77
123	0	0	3045	1024	3760	75
124	0	0	3045	1028	3759	76
125	0	0	3091	1027	3760	76
126	0	0	3084	1025	3760	76
127	0	0	3001	1024	3756	77
0	0	0	2936	1026	3759	76
1	0	0	2940	1027	3757	76
2	0	0	2980	1026	3759	76
3	0	0	3046	1029	3757	74
4	0	0	3117	1028	3758	77
5	0	0	3162	1028	3759	76
6	0	0	3199	1028	3758	76
7	0	0	3216	1027	3758	78
8	0	0	3209	1028	3758	76
9	0	0	3218	1029	3759	76
10	0	0	3278	1027	3759	77
11	0	0	3296	1028	3758	77
12	0	0	3277	1029	3758	77
13	0	0	3219	1025	3759	73
14	0	0	3140	1024	3759	76
15	0	0	3073	1025	3760	75
16	0	0	2980	1023	3759	77
17	0	0	2862	1024	3758	76
18	0	0	2789	1024	3759	76
19	0	0	2749	1025	3756	76
20	0	0	2716	1027	3758	76
21	0	0	2740	1027	3759	76
22	0	0	2793	1027	3757	77
23	0	0	2863	1028	3757	76
24	0	0	2931	1027	3759	75
25	0	0	2994	1027	3759	75
26	0	0	3048	1027	3759	76
27	0	0	3073	1027	3760	76
28	0	0	3073	1027	3760	77
29	0	0	3084	1028	3758	77
30	0	0	3090	1028	3758	77
31	0	0	3020	1025	3757	77
32	0	0	2943	1024	3758	77
33	0	0	2888	1023	3759	78
34	0	0	2843	1026	3759	75
35	0	0	2813	1025	3759	76
36	0	0	2755	1023	3758	78
37	0	0	2690	1022	3760	76
38	0	0	2674	1027	3759	79
39	0	0	2697	1027	3758	77
40	0	0	2724	1026	3758	76
41	0	0	2781	1027	3757	76
42	0	0	2820	1027	3757	75
43	0	0	2794	1028	3758	74
44	0	0	2764	1027	3759	76
45	0	0	2766	1026	3759	77
46	0	0	2795	1026	3759	77
47	0	0	2823	1027	3759	76
48	0	0	2827	1027	3759	76
49	0	0	2833	1027	3759	75
50	0	0	2861	1027	3759	77
51	0	0	2855	1028	3757	76
52	0	0	2833	1027	3758	77
53	0	0	2806	1026	3760	77
54	0	0	2735	1024	3758	76
55	0	0	2648	1022	3759	77
56	0	0	2573	1022	3758	77
57	0	0	2514	1023	3758	76
58	0	0	2488	1024	3759	75
59	0	0	2467	1025	3758	75
60	0	0	2445	1026	3758	77
61	0	0	2476	1026	3760	75
62	0	0	2556	1026	3760	76
63	0	0	2639	1029	3759	77
64	0	0	2695	1027	3759	74
65	0	0	2718	1027	3759	76
66	0	0	2729	1027	3758	77
67	0	0	2731	1026	3760	76
68	0	0	2737	1025	3758	77
69	0	0	2765	1027	3757	75
70	0	0	2824	1027	3757	76
71	0	0	2843	1028	3756	77
72	0	0	2814	1025	3757	77
73	0	0	2759	1023	3760	77
74	0	0	2691	1022	3759	77
75	0	0	2619	1022	3760	76
76	0	0	2533	1021	3759	78
77	0	0	2446	1023	3759	76
78	0	0	2384	1022	3760	79
79	0	0	2335	1022	3758	77
80	0	0	2279	1022	3759	77
81	0	0	2254	1025	3758	77
82	0	0	2244	1025	3758	77
83	0	0	2234	1027	3758	76
84	0	0	2294	1025	3759	76
85	0	0	2405	1025	3759	77
86	0	0	2504	1026	3758	75
87	0	0	2543	1025	3758	76
88	0	0	2552	1025	3760	75
89	0	0	2583	1026	3759	76
90	0	0	2657	1026	3757	77
91	0	0	2687	1025	3757	77
92	0	0	2665	1025	3758	77
93	0	0	2619	1021	3760	76
94	0	0	2542	1023	3759	77
95	0	0	2458	1022	3759	77
96	0	0	2388	1021	3759	77
97	0	0	2346	1022	3759	78
98	0	0	2314	1023	3760	77
99	0	0	2288	1022	3759	77
100	0	0	2243	1022	3758	77
101	0	0	2240	1025	3758	77
102	0	0	2283	1024	3758	77
103	0	0	2348	1024	3758	76
104	0	0	2424	1025	3759	76
105	0	0	2475	1025	3759	77
106	0	0	2524	1025	3758	77
107	0	0	2561	1025	3758	77
108	0	0	2581	1025	3758	76
109	0	0	2577	1025	3757	77
110	0	0	2591	1025	3755	76
111	0	0	2585	1026	3758	74
112	0	0	2537	1022	3758	77
113	0	0	2482	1021	3759	78
114	0	0	2407	1021	3760	76
115	0	0	2299	1021	3758	77
116	0	0	2192	1020	3759	77
117	0	0	2133	1022	3759	77
118	0	0	2121	1025	3759	75
119	0	0	2106	1022	3758	75
120	0	0	2059	1022	3759	77
121	0	0	2041	1025	3757	76
122	0	0	2091	1027	3758	76
123	0	0	2188	1025	3758	77
124	0	0	2277	1024	3759	77
125	0	0	2309	1025	3759	76
126	0	0	2322	1025	3759	77
127	0	0	2360	1024	3759	77
0	0	0	2407	1025	3759	77
1	0	0	2443	1026	3760	75
2	0	0	2490	1025	3760	76
3	0	0	2498	1025	3758	77
4	0	0	2476	1026	3757	76
5	0	0	2433	1020	3759	76
6	0	0	2344	1021	3759	75
7	0	0	2242	1021	3759	77
8	0	0	2142	1021	3758	77
9	0	0	2069	1020	3756	79
10	0	0	2022	1021	3758	78
11	0	0	2011	1024	3759	76
12	0	0	1999	1024	3759	76
13	0	0	2019	1024	3758	76
14	0	0	2062	1024	3758	77
15	0	0	2102	1024	3759	76
16	0	0	2146	1024	3760	76
17	0	0	2199	1024	3760	76
18	0	0	2262	1024	3759	77
19	0	0	2271	1023	3759	77
20	0	0	2220	1021	3759	78
21	0	0	2220	1025	3758	75
22	0	0	2309	1025	3758	76
23	0	0	2331	1025	3757	76
24	0	0	2293	1022	3757	78
25	0	0	2260	1019	3759	76
26	0	0	2189	1021	3759	77
27	0	0	2109	1020	3759	77
28	0	0	2038	1020	3758	78
29	0	0	2001	1022	3759	76
30	0	0	1984	1022	3759	77
31	0	0	1959	1021	3758	75
32	0	0	1917	1020	3758	77
33	0	0	1904	1023	3758	78
34	0	0	1907	1025	3759	77
35	0	0	1922	1023	3760	77
36	0	0	1965	1024	3760	77
37	0	0	2013	1025	3760	76
38	0	0	2065	1024	3759	77
39	0	0	2113	1025	3758	76
40	0	0	2161	1024	3759	76
41	0	0	2195	1024	3756	78
42	0	0	2246	1025	3759	77
43	0	0	2253	1025	3758	76
44	0	0	2220	1023	3757	77
45	0	0	2179	1020	3758	77
46	0	0	2080	1020	3756	77
47	0	0	1972	1020	3759	78
48	0	0	1914	1021	3758	77
49	0	0	1911	1026	3758	76
50	0	0	1934	1025	3760	75
51	0	0	1961	1024	3759	75
52	0	0	1914	1019	3760	76
53	0	0	1844	1020	3758	78
54	0	0	1813	1025	3758	76
55	0	0	1866	1024	3759	76
56	0	0	1953	1024	3758	75
57	0	0	2022	1025	3758	76
58	0	0	2094	1023	3758	78
59	0	0	2152	1025	3758	77
60	0	0	2189	1023	3757	78
61	0	0	2203	1025	3757	76
62	0	0	2254	1025	3759	76
63	0	0	2269	1023	3757	80
64	0	0	2243	1022	3760	76
65	0	0	2204	1020	3759	74
66	0	0	2127	1020	3760	60
67	0	0	2044	1020	3760	77
68	0	0	2001	1020	3759	78
69	0	0	1971	1020	3759	78
70	0	0	1929	1020	3759	78
71	0	0	1879	1020	3756	78
72	0	0	1832	1021	3756	77
73	0	0	1820	1024	3758	75
74	0	0	1835	1025	3758	78
75	0	0	1880	1023	3758	78
76	0	0	1949	1023	3758	75
77	0	0	1981	1024	3760	75
78	0	0	2004	1023	3758	76
79	0	0	2045	1023	3759	75
80	0	0	2080	1025	3758	77
81	0	0	2105	1025	3758	76
82	0	0	2169	1024	3759	77
83	0	0	2206	1024	3758	76
84	0	0	2201	1025	3758	76
85	0	0	2175	1020	3759	77
86	0	0	2084	1019	3759	78
87	0	0	1957	1019	3758	78
88	0	0	1864	1018	3759	77
89	0	0	1806	1020	3758	77
90	0	0	1760	1019	3756	78
91	0	0	1722	1019	3756	79
92	0	0	1702	1022	3757	77
93	0	0	1736	1023	3758	77
94	0	0	1801	1023	3757	77
95	0	0	1859	1023	3758	77
96	0	0	1913	1023	3759	76
97	0	0	1961	1023	3757	77
98	0	0	2002	1022	3759	77
99	0	0	2035	1023	3759	78
100	0	0	2050	1023	3757	78
101	0	0	2078	1023	3759	75
102	0	0	2150	1023	3758	78
103	0	0	2182	1024	3759	77
104	0	0	2140	1019	3760	76
105	0	0	2063	1020	3760	74
106	0	0	1957	1018	3759	76
107	0	0	1847	1018	3757	76
108	0	0	1757	1018	3758	78
109	0	0	1691	1019	3758	77
110	0	0	1652	1019	3758	77
111	0	0	1632	1019	3759	77
112	0	0	1621	1022	3756	77
113	0	0	1655	1022	3757	77
114	0	0	1710	1022	3760	77
115	0	0	1734	1022	3760	76
116	0	0	1781	1022	3759	77
117	0	0	1832	1024	3759	77
118	0	0	1866	1022	3759	77
119	0	0	1909	1023	3759	77
120	0	0	1963	1022	3758	79
121	0	0	1991	1022	3758	75
122	0	0	1979	1020	3758	77
123	0	0	1941	1020	3757	79
124	0	0	1933	1022	3758	79
125	0	0	1944	1022	3758	77
126	0	0	1907	1019	3759	78
127	0	0	1848	1019	3756	74
0	0	0	1801	1018	3758	77
1	0	0	1763	1019	3760	77
2	0	0	1718	1018	3756	78
3	0	0	1670	1018	3759	75
4	0	0	1644	1021	3756	76
5	0	0	1672	1022	3758	78
6	0	0	1706	1021	3760	77
7	0	0	1741	1021	3756	79
8	0	0	1798	1021	3759	77
9	0	0	1860	1022	3759	77
10	0	0	1918	1022	3759	78
11	0	0	1974	1022	3760	76
12	0	0	1988	1022	3759	76
13	0	0	1978	1023	3759	76
14	0	0	2004	1023	3758	76
15	0	0	1982	1019	3757	80
16	0	0	1934	1019	3757	78
17	0	0	1887	1018	3757	77
18	0	0	1807	1019	3759	76
19	0	0	1728	1018	3758	78
20	0	0	1673	1019	3757	75
21	0	0	1623	1018	3760	77
22	0	0	1612	1022	3756	79
23	0	0	1624	1021	3759	76
24	0	0	1604	1019	3759	77
25	0	0	1594	1021	3759	78
26	0	0	1607	1020	3759	77
27	0	0	1661	1021	3759	77
28	0	0	1745	1023	3759	76
29	0	0	1828	1022	3759	76
30	0	0	1887	1022	3758	79
31	0	0	1936	1020	3759	77
32	0	0	1967	1022	3757	75
33	0	0	1975	1022	3757	76
34	0	0	1986	1022	3758	76
35	0	0	1940	1018	3757	78
36	0	0	1868	1018	3758	77
37	0	0	1811	1018	3759	77
38	0	0	1770	1019	3758	76
39	0	0	1719	1017	3756	74
40	0	0	1664	1018	3759	77
41	0	0	1608	1017	3760	77
42	0	0	1559	1017	3758	79
43	0	0	1526	1017	3758	76
44	0	0	1475	1016	3759	77
45	0	0	1425	1016	3757	77
46	0	0	1390	1018	3757	78
47	0	0	1415	1021	3758	80
48	0	0	1503	1020	3757	76
49	0	0	1593	1021	3757	77
50	0	0	1685	1021	3758	77
51	0	0	1758	1020	3758	78
52	0	0	1801	1021	3758	78
53	0	0	1826	1021	3760	75
54	0	0	1853	1020	3758	78
55	0	0	1801	1018	3755	77
56	0	0	1732	1017	3758	78
57	0	0	1708	1020	3759	77
58	0	0	1682	1018	3760	76
59	0	0	1652	1018	3759	77
60	0	0	1602	1017	3760	76
61	0	0	1528	1015	3759	78
62	0	0	1443	1017	3758	77
63	0	0	1344	1016	3760	76
64	0	0	1256	1015	3757	76
65	0	0	1263	1022	3758	77
66	0	0	1358	1017	3759	77
67	0	0	1451	1020	3759	78
68	0	0	1520	1021	3759	77
69	0	0	1588	1021	3758	77
70	0	0	1665	1021	3760	75
71	0	0	1748	1021	3758	77
72	0	0	1801	1021	3760	77
73	0	0	1801	1021	3760	80
74	0	0	1801	1021	3756	77
75	0	0	1801	1019	3758	77
76	0	0	1797	1019	3759	77
77	0	0	1755	1016	3759	77
78	0	0	1664	1017	3758	79
79	0	0	1585	1017	3757	77
80	0	0	1549	1015	3758	77
81	0	0	1518	1019	3758	77
82	0	0	1499	1018	3759	77
83	0	0	1491	1018	3758	80
84	0	0	1452	1017	3758	77
85	0	0	1433	1020	3757	77
86	0	0	1464	1020	3759	77
87	0	0	1521	1020	3759	77
88	0	0	1576	1020	3759	79
89	0	0	1620	1020	3758	77
90	0	0	1662	1021	3759	80
91	0	0	1711	1020	3759	77
92	0	0	1789	1022	3760	77
93	0	0	1870	1020	3759	80
94	0	0	1946	1021	3757	77
95	0	0	1943	1015	3758	78
96	0	0	1857	1020	3756	79
97	0	0	1755	1017	3758	77
98	0	0	1699	1018	3758	79
99	0	0	1683	1018	3759	76
100	0	0	1668	1018	3758	78
101	0	0	1644	1018	3758	79
102	0	0	1631	1020	3760	78
103	0	0	1629	1018	3758	78
104	0	0	1586	1016	3757	76
105	0	0	1550	1018	3758	77
106	0	0	1562	1023	3758	79
107	0	0	1630	1022	3759	77
108	0	0	1748	1020	3760	76
109	0	0	1845	1020	3760	75
110	0	0	1910	1019	3759	77
111	0	0	1950	1020	3759	77
112	0	0	1977	1020	3759	80
113	0	0	1983	1020	3758	79
114	0	0	2011	1020	3758	76
115	0	0	1972	1017	3757	77
116	0	0	1891	1017	3758	76
117	0	0	1825	1017	3760	77
118	0	0	1750	1017	3758	77
119	0	0	1667	1016	3760	78
120	0	0	1596	1015	3759	78
121	0	0	1523	1019	3758	78
122	0	0	1480	1017	3759	78
123	0	0	1464	1017	3760	76
124	0	0	1443	1016	3758	77
125	0	0	1450	1017	3758	77
126	0	0	1453	1020	3759	77
127	0	0	1464	1021	3759	77
0	0	0	1499	1019	3759	79
1	0	0	1541	1019	3759	77
2	0	0	1573	1021	3758	77
3	0	0	1600	1020	3758	75
4	0	0	1602	1019	3758	77
5	0	0	1590	1021	3758	75
6	0	0	1612	1020	3756	77
7	0	0	1596	1017	3759	77
8	0	0	1544	1017	3758	77
9	0	0	1512	1018	3760	77
10	0	0	1473	1016	3759	79
11	0	0	1418	1015	3760	76
12	0	0	1376	1015	3760	77
13	0	0	1381	1020	3759	77
14	0	0	1420	1021	3760	76
15	0	0	1468	1020	3759	79
16	0	0	1478	1019	3760	76
17	0	0	1486	1019	3757	77
18	0	0	1504	1020	3758	76
19	0	0	1500	1020	3758	77
20	0	0	1547	1019	3758	79
21	0	0	1601	1020	3759	77
22	0	0	1633	1020	3758	78
23	0	0	1652	1019	3759	78
24	0	0	1660	1020	3759	75
25	0	0	1696	1019	3758	77
26	0	0	1790	1019	3760	77
27	0	0	1876	1020	3760	79
28	0	0	1908	1020	3756	79
29	0	0	1902	1017	3759	77
30	0	0	1848	1016	3759	79
31	0	0	1779	1015	3760	76
32	0	0	1713	1014	3760	77
33	0	0	1652	1016	3758	78
34	0	0	1597	1017	3760	77
35	0	0	1557	1015	3758	77
36	0	0	1498	1016	3758	77
37	0	0	1465	1018	3757	77
38	0	0	1502	1019	3758	79
39	0	0	1576	1018	3758	77
40	0	0	1657	1019	3759	73
41	0	0	1730	1019	3759	77
42	0	0	1813	1019	3760	76
43	0	0	1882	1019	3760	79
44	0	0	1930	1019	3760	77
45	0	0	1964	1020	3760	76
46	0	0	2000	1020	3760	76
47	0	0	1998	1017	3759	77
48	0	0	1951	1016	3758	80
49	0	0	1892	1014	3759	77
50	0	0	1817	1015	3759	78
51	0	0	1735	1016	3758	77
52	0	0	1661	1014	3758	78
53	0	0	1617	1016	3758	77
54	0	0	1600	1017	3758	78
55	0	0	1592	1017	3758	75
56	0	0	1556	1016	3759	77
57	0	0	1544	1019	3759	77
58	0	0	1580	1018	3760	78
59	0	0	1643	1016	3759	77
60	0	0	1699	1018	3759	77
61	0	0	1712	1019	3760	76
62	0	0	1704	1019	3759	79
63	0	0	1750	1018	3760	77
64	0	0	1865	1018	3760	75
65	0	0	1965	1019	3758	78
66	0	0	2035	1019	3759	78
67	0	0	2040	1018	3757	77
68	0	0	2013	1017	3757	77
69	0	0	1967	1012	3759	77
70	0	0	1867	1015	3759	75
71	0	0	1767	1016	3760	78
72	0	0	1697	1015	3759	77
73	0	0	1639	1016	3758	78
74	0	0	1598	1014	3759	77
75	0	0	1605	1019	3759	78
76	0	0	1634	1017	3759	78
77	0	0	1663	1018	3758	76
78	0	0	1677	1019	3759	78
79	0	0	1680	1018	3760	76
80	0	0	1698	1017	3760	77
81	0	0	1734	1017	3759	78
82	0	0	1794	1018	3759	78
83	0	0	1863	1018	3759	77
84	0	0	1920	1015	3759	77
85	0	0	1947	1018	3758	75
86	0	0	1989	1017	3757	77
87	0	0	1990	1016	3757	78
88	0	0	1939	1016	3758	78
89	0	0	1899	1013	3758	77
90	0	0	1848	1015	3759	76
91	0	0	1783	1014	3759	76
92	0	0	1715	1013	3758	77
93	0	0	1650	1015	3759	77
94	0	0	1621	1016	3760	76
95	0	0	1637	1018	3759	77
96	0	0	1664	1018	3759	77
97	0	0	1687	1018	3758	78
98	0	0	1716	1019	3759	78
99	0	0	1746	1015	3759	77
100	0	0	1766	1018	3759	76
101	0	0	1788	1017	3759	77
102	0	0	1833	1018	3758	78
103	0	0	1888	1018	3758	78
104	0	0	1946	1017	3758	79
105	0	0	1984	1019	3758	75
106	0	0	2022	1018	3757	77
107	0	0	1990	1014	3758	78
108	0	0	1952	1017	3758	78
109	0	0	1930	1014	3758	79
110	0	0	1855	1015	3759	80
111	0	0	1768	1013	3759	80
112	0	0	1704	1014	3759	78
113	0	0	1660	1014	3760	77
114	0	0	1623	1014	3759	77
115	0	0	1592	1014	3759	75
116	0	0	1551	1013	3758	77
117	0	0	1541	1018	3756	76
118	0	0	1577	1018	3758	77
119	0	0	1652	1016	3757	79
120	0	0	1737	1020	3759	80
121	0	0	1828	1017	3757	77
122	0	0	1910	1017	3758	77
123	0	0	1986	1017	3758	78
124	0	0	2031	1017	3759	75
125	0	0	2007	1013	3759	76
126	0	0	1960	1013	3759	80
127	0	0	1899	1014	3759	79
0	0	0	1855	1014	3759	77
1	0	0	1861	1016	3759	77
2	0	0	1838	1015	3760	75
3	0	0	1778	1013	3759	77
4	0	0	1711	1014	3760	76
5	0	0	1655	1014	3757	77
6	0	0	1624	1014	3759	77
7	0	0	1616	1016	3759	76
8	0	0	1598	1015	3757	76
9	0	0	1594	1017	3758	77
10	0	0	1604	1017	3758	78
11	0	0	1654	1014	3757	78
12	0	0	1732	1019	3758	76
13	0	0	1794	1017	3759	78
14	0	0	1855	1017	3758	78
15	0	0	1903	1017	3759	78
16	0	0	1939	1017	3760	74
17	0	0	1983	1018	3759	79
18	0	0	2062	1017	3760	76
19	0	0	2090	1017	3758	78
20	0	0	2033	1013	3759	79
21	0	0	1964	1014	3759	77
22	0	0	1916	1014	3759	77
23	0	0	1872	1013	3758	79
24	0	0	1834	1014	3758	78
25	0	0	1795	1013	3759	75
26	0	0	1749	1013	3758	76
27	0	0	1690	1013	3759	77
28	0	0	1632	1012	3757	76
29	0	0	1629	1017	3757	77
30	0	0	1661	1016	3759	75
31	0	0	1666	1015	3758	75
32	0	0	1672	1017	3759	79
33	0	0	1716	1017	3760	79
34	0	0	1803	1017	3759	78
35	0	0	1907	1017	3761	75
36	0	0	2007	1016	3759	77
37	0	0	2080	1017	3759	77
38	0	0	2137	1017	3759	77
39	0	0	2098	1013	3757	77
40	0	0	2011	1013	3757	77
41	0	0	1969	1015	3755	78
42	0	0	1930	1014	3758	80
43	0	0	1860	1012	3758	79
44	0	0	1760	1011	3758	77
45	0	0	1681	1011	3758	78
46	0	0	1644	1012	3756	78
47	0	0	1647	1015	3758	80
48	0	0	1642	1018	3758	78
49	0	0	1670	1016	3757	77
50	0	0	1703	1015	3758	77
51	0	0	1726	1015	3759	78
52	0	0	1764	1017	3760	75
53	0	0	1821	1016	3759	77
54	0	0	1905	1016	3760	76
55	0	0	1991	1019	3759	78
56	0	0	2043	1016	3758	76
57	0	0	2069	1016	3758	77
58	0	0	2092	1016	3757	79
59	0	0	2068	1013	3757	77
60	0	0	1992	1012	3758	76
61	0	0	1893	1013	3757	80
62	0	0	1784	1011	3759	77
63	0	0	1692	1012	3760	79
64	0	0	1647	1013	3758	78
65	0	0	1634	1012	3758	77
66	0	0	1605	1013	3759	76
67	0	0	1594	1017	3760	76
68	0	0	1592	1015	3759	77
69	0	0	1574	1014	3758	78
70	0	0	1556	1012	3757	78
71	0	0	1511	1012	3759	77
72	0	0	1524	1016	3759	77
73	0	0	1615	1016	3758	79
74	0	0	1725	1016	3758	77
75	0	0	1785	1015	3758	78
76	0	0	1788	1015	3756	78
77	0	0	1750	1013	3758	79
78	0	0	1733	1014	3757	79
79	0	0	1726	1016	3757	77
80	0	0	1733	1017	3758	77
81	0	0	1740	1016	3760	80
82	0	0	1694	1011	3759	79
83	0	0	1624	1012	3759	79
84	0	0	1589	1014	3760	75
85	0	0	1567	1015	3760	75
86	0	0	1544	1012	3757	79
87	0	0	1526	1012	3759	77
88	0	0	1483	1011	3758	79
89	0	0	1442	1012	3757	78
90	0	0	1448	1014	3758	75
91	0	0	1495	1014	3758	77
92	0	0	1559	1015	3758	79
93	0	0	1653	1015	3758	79
94	0	0	1741	1015	3758	77
95	0	0	1769	1017	3758	78
96	0	0	1745	1010	3758	78
97	0	0	1728	1016	3759	77
98	0	0	1751	1016	3758	79
99	0	0	1742	1012	3758	78
100	0	0	1727	1014	3759	76
101	0	0	1717	1014	3760	79
102	0	0	1665	1011	3760	76
103	0	0	1593	1011	3759	79
104	0	0	1516	1011	3758	78
105	0	0	1456	1011	3758	78
106	0	0	1431	1013	3760	80
107	0	0	1418	1012	3759	77
108	0	0	1382	1012	3757	77
109	0	0	1366	1013	3757	77
110	0	0	1396	1014	3758	76
111	0	0	1447	1015	3758	79
112	0	0	1488	1015	3759	79
113	0	0	1538	1015	3759	79
114	0	0	1615	1016	3758	78
115	0	0	1702	1014	3758	79
116	0	0	1767	1016	3760	80
117	0	0	1795	1015	3759	79
118	0	0	1816	1015	3758	77
119	0	0	1779	1012	3758	77
120	0	0	1740	1013	3758	78
121	0	0	1727	1013	3759	79
122	0	0	1701	1011	3759	77
123	0	0	1662	1012	3758	78
124	0	0	1612	1011	3758	78
125	0	0	1533	1011	3759	75
126	0	0	1455	1011	3759	77
127	0	0	1402	1011	3758	77
0	0	0	1370	1011	3757	76
1	0	0	1356	1013	3758	77
2	0	0	1362	1017	3758	76
3	0	0	1380	1016	3758	77
4	0	0	1451	1014	3760	75
5	0	0	1556	1015	3758	77
6	0	0	1668	1017	3760	76
7	0	0	1747	1015	3758	80
8	0	0	1783	1014	3759	77
9	0	0	1779	1015	3760	76
10	0	0	1784	1014	3758	76
11	0	0	1766	1011	3757	78
12	0	0	1759	1015	3756	78
13	0	0	1751	1010	3757	77
14	0	0	1694	1010	3759	77
15	0	0	1620	1011	3758	77
16	0	0	1526	1010	3758	77
17	0	0	1441	1010	3759	74
18	0	0	1404	1013	3760	79
19	0	0	1419	1013	3758	77
20	0	0	1439	1014	3758	76
21	0	0	1470	1015	3759	76
22	0	0	1517	1015	3756	75
23	0	0	1557	1015	3759	76
24	0	0	1588	1014	3760	76
25	0	0	1605	1014	3759	76
26	0	0	1632	1014	3759	78
27	0	0	1675	1014	3758	79
28	0	0	1741	1012	3759	79
29	0	0	1794	1014	3758	77
30	0	0	1851	1014	3757	76
31	0	0	1860	1013	3756	80
32	0	0	1836	1013	3757	78
33	0	0	1807	1012	3759	79
34	0	0	1735	1010	3759	78
35	0	0	1655	1011	3759	77
36	0	0	1586	1010	3759	78
37	0	0	1522	1010	3759	76
38	0	0	1464	1011	3760	76
39	0	0	1416	1007	3759	77
40	0	0	1405	1014	3758	76
41	0	0	1456	1013	3758	77
42	0	0	1518	1013	3758	79
43	0	0	1566	1012	3759	79
44	0	0	1615	1014	3758	77
45	0	0	1666	1014	3758	76
46	0	0	1692	1014	3758	77
47	0	0	1743	1013	3757	78
48	0	0	1848	1012	3759	77
49	0	0	1964	1013	3758	78
50	0	0	2056	1014	3757	76
51	0	0	2036	1010	3757	76
52	0	0	1948	1010	3757	78
53	0	0	1864	1009	3759	79
54	0	0	1763	1011	3759	78
55	0	0	1674	1010	3758	77
56	0	0	1624	1011	3759	77
57	0	0	1595	1012	3759	78
58	0	0	1566	1007	3759	77
59	0	0	1522	1009	3759	78
60	0	0	1468	1009	3758	76
61	0	0	1466	1013	3757	76
62	0	0	1525	1012	3757	78
63	0	0	1598	1011	3759	79
64	0	0	1671	1014	3758	79
65	0	0	1738	1013	3757	76
66	0	0	1787	1014	3758	77
67	0	0	1815	1014	3758	78
68	0	0	1833	1013	3759	77
69	0	0	1857	1014	3759	79
70	0	0	1903	1017	3759	77
71	0	0	1912	1013	3758	77
72	0	0	1909	1013	3758	76
73	0	0	1890	1011	3760	76
74	0	0	1811	1009	3760	76
75	0	0	1727	1010	3760	75
76	0	0	1682	1010	3758	78
77	0	0	1658	1011	3759	76
78	0	0	1630	1011	3759	77
79	0	0	1587	1010	3758	77
80	0	0	1545	1011	3758	76
81	0	0	1573	1013	3757	77
82	0	0	1645	1014	3757	77
83	0	0	1680	1015	3758	76
84	0	0	1703	1011	3758	79
85	0	0	1746	1013	3758	78
86	0	0	1816	1012	3758	78
87	0	0	1878	1012	3758	78
88	0	0	1922	1014	3759	78
89	0	0	1956	1014	3760	76
90	0	0	2006	1014	3758	78
91	0	0	2016	1011	3759	78
92	0	0	1969	1010	3758	76
93	0	0	1902	1007	3758	78
94	0	0	1803	1008	3759	75
95	0	0	1700	1007	3759	77
96	0	0	1638	1012	3758	77
97	0	0	1639	1014	3758	77
98	0	0	1631	1011	3758	76
99	0	0	1616	1011	3758	77
100	0	0	1585	1010	3757	78
101	0	0	1585	1012	3756	75
102	0	0	1613	1013	3757	76
103	0	0	1676	1012	3759	77
104	0	0	1751	1013	3759	79
105	0	0	1813	1012	3759	79
106	0	0	1857	1014	3759	77
107	0	0	1899	1013	3760	76
108	0	0	1941	1013	3760	75
109	0	0	1952	1014	3758	77
110	0	0	1964	1013	3759	77
111	0	0	1963	1013	3757	77
112	0	0	1955	1013	3758	77
113	0	0	1927	1010	3759	77
114	0	0	1868	1009	3758	77
115	0	0	1819	1009	3758	78
116	0	0	1786	1009	3758	77
117	0	0	1745	1010	3759	76
118	0	0	1715	1010	3758	79
119	0	0	1697	1011	3758	76
120	0	0	1658	1009	3758	79
121	0	0	1630	1011	3759	77
122	0	0	1636	1013	3760	75
123	0	0	1659	1012	3759	79
124	0	0	1728	1013	3760	76
125	0	0	1812	1012	3759	79
126	0	0	1882	1013	3759	78
127	0	0	1933	1013	3760	77
0	0	0	1959	1013	3759	77
1	0	0	1981	1013	3758	77
2	0	0	2042	1013	3757	79
3	0	0	2066	1011	3757	77
4	0	0	2017	1010	3758	77
5	0	0	1952	1010	3757	79
6	0	0	1872	1009	3759	78
7	0	0	1773	1008	3758	78
8	0	0	1667	1008	3759	78
9	0	0	1582	1008	3759	76
10	0	0	1515	1009	3759	78
11	0	0	1512	1013	3760	76
12	0	0	1540	1012	3759	77
13	0	0	1576	1014	3759	77
14	0	0	1610	1013	3758	78
15	0	0	1661	1015	3759	78
16	0	0	1727	1012	3759	76
17	0	0	1796	1012	3758	79
18	0	0	1861	1014	3757	77
19	0	0	1910	1012	3758	80
20	0	0	1907	1008	3759	78
21	0	0	1845	1009	3758	78
22	0	0	1834	1012	3757	75
23	0	0	1839	1013	3757	77
24	0	0	1882	1013	3758	77
25	0	0	1933	1012	3759	77
26	0	0	1914	1009	3759	78
27	0	0	1851	1009	3759	79
28	0	0	1800	1010	3759	78
29	0	0	1767	1008	3759	77
30	0	0	1713	1008	3759	78
31	0	0	1659	1009	3758	77
32	0	0	1619	1008	3758	75
33	0	0	1636	1014	3757	77
34	0	0	1709	1012	3757	80
35	0	0	1787	1012	3757	79
36	0	0	1868	1012	3758	77
37	0	0	1906	1011	3759	78
38	0	0	1943	1012	3759	76
39	0	0	1978	1012	3757	78
40	0	0	1975	1008	3759	78
41	0	0	1926	1010	3759	78
42	0	0	1954	1013	3759	77
43	0	0	1996	1012	3758	77
44	0	0	1978	1008	3758	78
45	0	0	1926	1009	3758	75
46	0	0	1880	1008	3759	78
47	0	0	1847	1008	3759	75
48	0	0	1809	1007	3759	78
49	0	0	1739	1008	3758	77
50	0	0	1667	1008	3759	77
51	0	0	1640	1010	3758	77
52	0	0	1643	1011	3757	73
53	0	0	1664	1011	3758	79
54	0	0	1716	1011	3755	78
55	0	0	1760	1011	3757	77
56	0	0	1787	1012	3759	77
57	0	0	1806	1012	3758	75
58	0	0	1836	1012	3759	77
59	0	0	1882	1013	3757	75
60	0	0	1951	1011	3757	76
61	0	0	2021	1011	3759	78
62	0	0	2092	1011	3759	77
63	0	0	2089	1009	3758	78
64	0	0	2026	1008	3758	78
65	0	0	1964	1009	3758	79
66	0	0	1908	1007	3759	77
67	0	0	1868	1008	3758	76
68	0	0	1858	1011	3759	75
69	0	0	1852	1010	3759	79
70	0	0	1830	1008	3758	76
71	0	0	1792	1008	3758	77
72	0	0	1736	1007	3757	76
73	0	0	1724	1011	3760	77
74	0	0	1752	1011	3759	77
75	0	0	1788	1011	3759	77
76	0	0	1840	1009	3759	77
77	0	0	1913	1010	3759	74
78	0	0	1998	1012	3759	78
79	0	0	2066	1011	3760	79
80	0	0	2102	1011	3758	76
81	0	0	2115	1010	3759	78
82	0	0	2140	1011	3758	75
83	0	0	2124	1008	3758	77
84	0	0	2062	1008	3756	75
85	0	0	2000	1007	3757	77
86	0	0	1922	1007	3758	76
87	0	0	1824	1007	3758	72
88	0	0	1747	1008	3759	78
89	0	0	1708	1006	3759	79
90	0	0	1658	1008	3758	76
91	0	0	1600	1006	3759	77
92	0	0	1564	1007	3757	75
93	0	0	1567	1010	3758	78
94	0	0	1582	1009	3759	79
95	0	0	1590	1010	3758	77
96	0	0	1621	1008	3760	77
97	0	0	1673	1011	3759	76
98	0	0	1722	1010	3759	78
99	0	0	1754	1010	3759	77
100	0	0	1770	1011	3759	77
101	0	0	1782	1008	3758	78
102	0	0	1832	1011	3759	77
103	0	0	1853	1010	3757	78
104	0	0	1826	1008	3757	76
105	0	0	1785	1007	3759	76
106	0	0	1719	1004	3758	77
107	0	0	1644	1006	3758	78
108	0	0	1591	1008	3758	78
109	0	0	1560	1005	3760	77
110	0	0	1541	1007	3758	80
111	0	0	1548	1010	3759	77
112	0	0	1541	1007	3758	76
113	0	0	1546	1008	3758	78
114	0	0	1582	1010	3758	78
115	0	0	1647	1012	3758	76
116	0	0	1743	1011	3758	76
117	0	0	1829	1010	3758	77
118	0	0	1870	1010	3759	77
119	0	0	1886	1010	3759	75
120	0	0	1907	1010	3757	77
121	0	0	1943	1011	3758	77
122	0	0	2013	1010	3758	76
123	0	0	2022	1006	3757	77
124	0	0	1958	1008	3757	77
125	0	0	1927	1012	3757	76
126	0	0	1932	1008	3759	78
127	0	0	1893	1007	3759	76
0	0	0	1858	1006	3759	78
1	0	0	1812	1008	3760	77
2	0	0	1768	1007	3759	76
3	0	0	1748	1006	3759	77
4	0	0	1735	1007	3757	78
5	0	0	1739	1009	3757	75
6	0	0	1766	1010	3758	77
7	0	0	1815	1012	3757	76
8	0	0	1890	1007	3758	77
9	0	0	1982	1009	3758	78
10	0	0	2052	1009	3758	78
11	0	0	2095	1008	3758	78
12	0	0	2104	1011	3758	78
13	0	0	2098	1012	3758	76
14	0	0	2134	1009	3757	76
15	0	0	2126	1007	3756	77
16	0	0	2079	1008	3758	78
17	0	0	2021	1006	3758	77
18	0	0	1948	1005	3760	76
19	0	0	1874	1005	3759	78
20	0	0	1813	1005	3760	76
21	0	0	1759	1007	3759	79
22	0	0	1725	1007	3759	77
23	0	0	1721	1009	3759	77
24	0	0	1726	1009	3757	77
25	0	0	1760	1010	3759	77
26	0	0	1813	1009	3758	75
27	0	0	1857	1009	3759	79
28	0	0	1883	1009	3759	77
29	0	0	1896	1008	3759	77
30	0	0	1933	1009	3759	77
31	0	0	1997	1010	3758	79
32	0	0	2055	1011	3759	78
33	0	0	2105	1012	3760	77
34	0	0	2179	1010	3759	77
35	0	0	2200	1009	3758	78
36	0	0	2153	1005	3759	79
37	0	0	2073	1006	3760	76
38	0	0	1991	1004	3759	77
39	0	0	1926	1006	3760	76
40	0	0	1881	1005	3757	77
41	0	0	1840	1002	3758	78
42	0	0	1804	1005	3758	80
43	0	0	1779	1008	3758	77
44	0	0	1743	1005	3757	78
45	0	0	1729	1006	3757	77
46	0	0	1736	1011	3757	78
47	0	0	1765	1009	3760	79
48	0	0	1835	1011	3759	77
49	0	0	1924	1009	3759	76
50	0	0	2002	1009	3759	77
51	0	0	2064	1012	3759	77
52	0	0	2109	1009	3760	77
53	0	0	2148	1009	3760	76
54	0	0	2195	1008	3756	77
55	0	0	2204	1007	3759	77
56	0	0	2167	1009	3758	76
57	0	0	2159	1008	3760	79
58	0	0	2120	1007	3758	78
59	0	0	2037	1004	3757	78
60	0	0	1945	1004	3758	77
61	0	0	1896	1007	3758	75
62	0	0	1879	1005	3758	78
63	0	0	1855	1004	3759	77
64	0	0	1821	1005	3759	77
65	0	0	1816	1008	3757	77
66	0	0	1834	1008	3758	75
67	0	0	1845	1008	3760	79
68	0	0	1864	1008	3760	77
69	0	0	1920	1007	3759	79
70	0	0	1996	1008	3760	77
71	0	0	2061	1011	3759	79
72	0	0	2127	1008	3760	79
73	0	0	2183	1011	3758	77
74	0	0	2227	1008	3757	78
75	0	0	2204	1005	3757	78
76	0	0	2154	1005	3757	78
77	0	0	2115	1006	3758	77
78	0	0	2067	1005	3759	77
79	0	0	2025	1005	3759	78
80	0	0	1975	1004	3758	77
81	0	0	1887	1005	3758	77
82	0	0	1819	1004	3759	78
83	0	0	1800	1009	3759	77
84	0	0	1769	1005	3760	76
85	0	0	1739	1003	3759	78
86	0	0	1741	1008	3758	79
87	0	0	1775	1009	3759	77
88	0	0	1824	1009	3758	77
89	0	0	1867	1007	3758	77
90	0	0	1926	1006	3758	77
91	0	0	1977	1009	3758	78
92	0	0	2014	1008	3760	79
93	0	0	2060	1010	3759	78
94	0	0	2146	1007	3758	76
95	0	0	2183	1008	3758	77
96	0	0	2141	1005	3760	77
97	0	0	2110	1006	3760	77
98	0	0	2092	1004	3759	78
99	0	0	2060	1004	3759	78
100	0	0	2000	1004	3759	78
101	0	0	1912	1003	3760	77
102	0	0	1828	1003	3761	79
103	0	0	1783	1005	3759	78
104	0	0	1763	1006	3758	78
105	0	0	1780	1008	3757	78
106	0	0	1822	1009	3757	77
107	0	0	1853	1006	3758	77
108	0	0	1878	1008	3759	77
109	0	0	1897	1007	3758	77
110	0	0	1950	1006	3759	77
111	0	0	2040	1008	3756	78
112	0	0	2120	1008	3760	79
113	0	0	2160	1008	3758	78
114	0	0	2217	1008	3756	79
115	0	0	2255	1008	3758	78
116	0	0	2254	1008	3758	79
117	0	0	2225	1006	3760	77
118	0	0	2163	1004	3760	77
119	0	0	2062	1003	3757	75
120	0	0	1958	1003	3759	78
121	0	0	1897	1004	3759	78
122	0	0	1864	1005	3758	75
123	0	0	1856	1008	3759	77
124	0	0	1846	1006	3759	77
125	0	0	1857	1005	3757	77
126	0	0	1891	1007	3758	77
127	0	0	1950	1008	3758	77
0	0	0	2020	1008	3758	78
1	0	0	2083	1007	3758	78
2	0	0	2141	1007	3759	78
3	0	0	2195	1005	3759	76
4	0	0	2238	1008	3760	77
5	0	0	2254	1008	3759	77
6	0	0	2284	1008	3759	78
7	0	0	2290	1007	3758	78
8	0	0	2264	1004	3759	78
9	0	0	2212	1003	3760	77
10	0	0	2111	1003	3759	77
11	0	0	2020	1003	3758	76
12	0	0	2001	1008	3757	77
13	0	0	2006	1008	3758	77
14	0	0	1994	1005	3759	77
15	0	0	1951	1002	3756	78
16	0	0	1877	1003	3757	78
17	0	0	1827	1002	3757	78
18	0	0	1824	1006	3758	78
19	0	0	1854	1007	3760	77
20	0	0	1906	1006	3758	78
21	0	0	1973	1007	3758	78
22	0	0	2042	1006	3760	77
23	0	0	2102	1006	3759	78
24	0	0	2135	1008	3758	75
25	0	0	2158	1007	3757	77
26	0	0	2230	1007	3758	77
27	0	0	2293	1007	3759	77
28	0	0	2312	1008	3760	79
29	0	0	2282	1004	3760	77
30	0	0	2208	1003	3759	77
31	0	0	2103	1002	3758	80
32	0	0	2008	1002	3759	77
33	0	0	1932	1003	3760	75
34	0	0	1866	1003	3759	78
35	0	0	1820	1004	3758	76
36	0	0	1781	1003	3758	78
37	0	0	1784	1007	3758	77
38	0	0	1843	1008	3759	76
39	0	0	1926	1006	3760	76
40	0	0	2013	1006	3760	76
41	0	0	2038	1006	3759	77
42	0	0	2031	1005	3760	77
43	0	0	2058	1005	3760	78
44	0	0	2097	1009	3759	87
45	0	0	2119	1007	3758	539
46	0	0	2183	1007	3757	1425
47	0	0	2241	1005	3757	2232
48	0	0	2252	1006	3757	2786
49	0	0	2238	1004	3757	3145
50	0	0	2177	1003	3758	3373
51	0	0	2104	1002	3757	3519
52	0	0	2053	1002	3760	3623
53	0	0	1988	1002	3761	3693
54	0	0	1932	1002	3760	3745
55	0	0	1908	1003	3760	3784
56	0	0	1856	1001	3758	3813
57	0	0	1814	1004	3758	3837
58	0	0	1824	1003	3758	3855
59	0	0	1873	1005	3757	3871
60	0	0	1931	1004	3758	3884
61	0	0	1977	1005	3758	3894
62	0	0	2017	1005	3758	3903
63	0	0	2068	1006	3758	3911
64	0	0	2108	1005	3759	3919
65	0	0	2140	1005	3758	3924
66	0	0	2175	1005	3757	3929
67	0	0	2143	1002	3757	3933
68	0	0	2078	1003	3757	3937
69	0	0	2074	1006	3757	3941
70	0	0	2063	1005	3759	3944
71	0	0	2010	1004	3757	3947
72	0	0	1934	1002	3759	3950
73	0	0	1870	1001	3760	3952
74	0	0	1819	1001	3758	3955
75	0	0	1794	1003	3758	3957
76	0	0	1789	1003	3757	3957
77	0	0	1798	1005	3757	3959
78	0	0	1827	1006	3756	3960
79	0	0	1878	1005	3756	3963
80	0	0	1961	1006	3758	3965
81	0	0	2021	1005	3757	3965
82	0	0	2043	1005	3758	3966
83	0	0	2057	1004	3759	3967
84	0	0	2083	1007	3757	3969
85	0	0	2097	1007	3759	3972
86	0	0	2150	1005	3758	3970
87	0	0	2190	1005	3758	3972
88	0	0	2186	1005	3759	3973
89	0	0	2159	1002	3760	3975
90	0	0	2090	999	3759	3975
91	0	0	2024	1002	3760	3976
92	0	0	2010	1003	3759	3975
93	0	0	1986	1002	3759	3976
94	0	0	1948	1002	3759	3978
95	0	0	1911	999	3758	3978
96	0	0	1858	1001	3758	3979
97	0	0	1799	1002	3756	3978
98	0	0	1779	1006	3758	3979
99	0	0	1818	1005	3758	3980
100	0	0	1888	1003	3758	3980
101	0	0	1944	1006	3760	3981
102	0	0	1966	1005	3760	3980
103	0	0	1996	1005	3759	3981
104	0	0	2049	1006	3759	3982
105	0	0	2110	1003	3759	3983
106	0	0	2193	1006	3759	3983
107	0	0	2239	1007	3759	3984
108	0	0	2231	1003	3759	3983
109	0	0	2185	1002	3759	3983
110	0	0	2071	1000	3759	3985
111	0	0	1890	1000	3758	3984
112	0	0	1751	1001	3758	3984
113	0	0	1719	1006	3759	3984
114	0	0	1762	1006	3759	3986
115	0	0	1819	1003	3759	3985
116	0	0	1827	1002	3757	3985
117	0	0	1781	1001	3758	3987
118	0	0	1722	1002	3757	3986
119	0	0	1714	1005	3759	3986
120	0	0	1797	1004	3759	3987
121	0	0	1926	1005	3759	3987
122	0	0	2041	1004	3759	3987
123	0	0	2135	1005	3759	3987
124	0	0	2199	1004	3759	3987
125	0	0	2240	1003	3759	3988
126	0	0	2304	1005	3759	3989
127	0	0	2335	1005	3758	3987
0	0	0	2295	1002	3758	3988
1	0	0	2234	1002	3759	3989
2	0	0	2148	1000	3759	3989
3	0	0	2043	1001	3759	3990
4	0	0	1939	1002	3758	3988
5	0	0	1858	1001	3759	3988
6	0	0	1827	1002	3759	3988
7	0	0	1823	1001	3760	3990
8	0	0	1812	1003	3759	3991
9	0	0	1833	1002	3759	3989
10	0	0	1907	1007	3759	3992
11	0	0	1997	1005	3759	3990
12	0	0	2070	1003	3760	3991
13	0	0	2119	1005	3759	3990
14	0	0	2161	1007	3758	3990
15	0	0	2199	1006	3758	3990
16	0	0	2234	1006	3756	3991
17	0	0	2248	1005	3759	3993
18	0	0	2258	1005	3758	3991
19	0	0	2276	1004	3758	3991
20	0	0	2283	1004	3757	3992
21	0	0	2265	1003	3759	3991
22	0	0	2187	1000	3759	3992
23	0	0	2094	1001	3762	3992
24	0	0	2025	1004	3758	3991
25	0	0	1968	1000	3759	3992
26	0	0	1917	1001	3760	3992
27	0	0	1868	1000	3760	3993
28	0	0	1826	1002	3759	3992
29	0	0	1841	1006	3758	3992
30	0	0	1898	1005	3758	3992
31	0	0	1961	1004	3756	3992
32	0	0	2015	1004	3759	3994
33	0	0	2059	1004	3758	3992
34	0	0	2115	1003	3758	3992
35	0	0	2170	1003	3758	3992
36	0	0	2188	1005	3758	3993
37	0	0	2192	1004	3759	3994
38	0	0	2227	1005	3757	3993
39	0	0	2245	1004	3758	3992
40	0	0	2207	1001	3759	3993
41	0	0	2145	1001	3760	3993
42	0	0	2062	1000	3760	3994
43	0	0	1981	1001	3760	3995
44	0	0	1930	1002	3760	3994
45	0	0	1888	1001	3760	3996
46	0	0	1859	1001	3760	3995
47	0	0	1858	1004	3758	3994
48	0	0	1850	1001	3758	3993
49	0	0	1839	1006	3757	3993
50	0	0	1857	1004	3758	3994
51	0	0	1890	1004	3756	3994
52	0	0	1940	1004	3759	3995
53	0	0	1993	1004	3758	3994
54	0	0	2031	1004	3758	3994
55	0	0	2084	1005	3759	3994
56	0	0	2177	1004	3760	3995
57	0	0	2266	1003	3759	3994
58	0	0	2326	1004	3758	3995
59	0	0	2283	1001	3760	3996
60	0	0	2195	1001	3758	3993
61	0	0	2113	1000	3758	3994
62	0	0	2035	1001	3761	3996
63	0	0	1960	1000	3759	3991
64	0	0	1930	1001	3760	3996
65	0	0	1934	1005	3758	3995
66	0	0	1935	1005	3756	3995
67	0	0	1934	1005	3758	3997
68	0	0	1907	1001	3757	3995
69	0	0	1903	1003	3758	3996
70	0	0	1913	1004	3758	3992
71	0	0	1938	1003	3758	3996
72	0	0	2001	1004	3759	3996
73	0	0	2089	1004	3758	3995
74	0	0	2177	1005	3758	3996
75	0	0	2248	1004	3758	3996
76	0	0	2282	1005	3759	3995
77	0	0	2291	1003	3759	3996
78	0	0	2334	1004	3759	3995
79	0	0	2353	1005	3758	3996
80	0	0	2302	1001	3759	3993
81	0	0	2235	1000	3760	3997
82	0	0	2155	999	3759	3996
83	0	0	2077	1000	3758	3997
84	0	0	2020	1000	3759	3994
85	0	0	1948	999	3759	3995
86	0	0	1860	1000	3759	3995
87	0	0	1819	1002	3758	3997
88	0	0	1839	1004	3759	3997
89	0	0	1909	1003	3756	3996
90	0	0	2005	1004	3758	3996
91	0	0	2082	1003	3760	3997
92	0	0	2138	1002	3760	3997
93	0	0	2185	1004	3759	3996
94	0	0	2230	1003	3760	3996
95	0	0	2231	1002	3760	3997
96	0	0	2211	1005	3758	3996
97	0	0	2226	1003	3759	3997
98	0	0	2294	1004	3758	3996
99	0	0	2305	1001	3759	3998
100	0	0	2248	1000	3760	3997
101	0	0	2191	1000	3757	3995
102	0	0	2130	999	3759	3998
103	0	0	2037	999	3756	4000
104	0	0	1950	999	3758	3998
105	0	0	1897	999	3760	3996
106	0	0	1856	999	3758	3996
107	0	0	1822	1000	3760	3998
108	0	0	1816	1002	3758	3996
109	0	0	1866	1001	3760	3998
110	0	0	1950	1002	3759	3996
111	0	0	2040	1003	3759	3997
112	0	0	2134	1002	3759	3998
113	0	0	2187	1002	3759	3997
114	0	0	2227	1004	3759	3996
115	0	0	2262	1004	3758	3998
116	0	0	2300	1003	3759	3997
117	0	0	2313	1002	3758	3997
118	0	0	2323	1003	3757	3997
119	0	0	2287	1001	3757	3996
120	0	0	2228	999	3758	3996
121	0	0	2187	1000	3759	3996
122	0	0	2116	998	3758	3997
123	0	0	2026	999	3758	3996
124	0	0	1957	1000	3758	3999
125	0	0	1900	999	3759	3998
126	0	0	1868	1000	3761	3997
127	0	0	1846	999	3759	3998
0	0	0	1815	999	3760	3999
1	0	0	1821	1003	3757	3998
2	0	0	1881	1004	3758	3997
3	0	0	1951	1001	3757	3997
4	0	0	2015	1002	3759	3999
5	0	0	2065	1002	3758	3997
6	0	0	2122	1002	3756	3998
7	0	0	2174	1002	3758	3998
8	0	0	2186	1002	3759	3999
9	0	0	2161	1001	3758	3999
10	0	0	2213	1002	3757	3998
11	0	0	2295	1004	3757	3998
12	0	0	2314	1003	3758	3994
13	0	0	2284	999	3759	3998
14	0	0	2209	997	3759	3998
15	0	0	2126	998	3759	3998
16	0	0	2054	998	3759	3999
17	0	0	1980	998	3760	3996
18	0	0	1926	998	3761	3997
19	0	0	1881	998	3758	3997
20	0	0	1844	997	3758	3998
21	0	0	1840	1002	3757	3998
22	0	0	1869	1002	3760	3998
23	0	0	1907	1001	3759	3998
24	0	0	1950	1002	3758	3999
25	0	0	2003	1001	3758	3998
26	0	0	2079	1002	3758	3998
27	0	0	2166	999	3760	3998
28	0	0	2243	1003	3759	3997
29	0	0	2296	1002	3757	3999
30	0	0	2353	1001	3758	3998
31	0	0	2379	1001	3758	3998
32	0	0	2350	1000	3757	3999
33	0	0	2345	1002	3760	3999
34	0	0	2337	997	3759	3999
35	0	0	2245	997	3760	4000
36	0	0	2091	997	3760	3998
37	0	0	1975	997	3759	3999
38	0	0	1930	999	3759	3999
39	0	0	1924	1001	3759	3999
40	0	0	1911	999	3758	3999
41	0	0	1914	999	3757	3999
42	0	0	1940	1001	3758	3999
43	0	0	1977	1002	3759	4000
44	0	0	2016	1001	3759	3998
45	0	0	2078	1001	3760	3999
46	0	0	2123	1002	3758	3998
47	0	0	2154	1001	3757	3999
48	0	0	2199	1001	3758	4000
49	0	0	2264	1001	3759	3999
50	0	0	2362	1002	3757	3999
51	0	0	2414	1002	3758	3998
52	0	0	2371	997	3760	3999
53	0	0	2298	997	3759	4001
54	0	0	2207	997	3759	3999
55	0	0	2118	997	3758	3998
56	0	0	2048	997	3758	3999
57	0	0	1995	997	3759	3998
58	0	0	1958	999	3758	4000
59	0	0	1933	998	3759	3999
60	0	0	1882	997	3757	3998
61	0	0	1836	998	3758	4000
62	0	0	1854	1001	3759	4000
63	0	0	1896	1000	3758	3998
64	0	0	1940	1001	3759	4000
65	0	0	1977	1000	3759	3999
66	0	0	2024	1000	3759	3999
67	0	0	2089	1002	3758	4000
68	0	0	2124	1001	3760	4001
69	0	0	2129	1001	3759	3999
70	0	0	2171	1001	3758	3998
71	0	0	2201	1001	3758	3999
72	0	0	2171	996	3759	3998
73	0	0	2109	997	3757	4000
74	0	0	2027	997	3759	4000
75	0	0	1939	996	3758	3999
76	0	0	1855	996	3756	4000
77	0	0	1771	996	3759	3999
78	0	0	1721	998	3759	4000
79	0	0	1723	1000	3760	4001
80	0	0	1719	998	3758	3999
81	0	0	1732	1000	3757	4000
82	0	0	1799	998	3759	3998
83	0	0	1866	1001	3758	4001
84	0	0	1910	1000	3760	3998
85	0	0	1946	1000	3759	3999
86	0	0	1985	1002	3758	3999
87	0	0	2015	999	3759	3999
88	0	0	2047	1000	3757	4000
89	0	0	2087	1002	3758	4000
90	0	0	2183	1000	3758	3999
91	0	0	2257	1000	3759	4000
92	0	0	2260	1001	3758	4002
93	0	0	2243	1000	3759	4001
94	0	0	2189	997	3759	4000
95	0	0	2094	996	3758	3997
96	0	0	1995	995	3759	4000
97	0	0	1916	997	3760	4001
98	0	0	1865	996	3759	4002
99	0	0	1838	998	3760	4001
100	0	0	1813	997	3758	3999
101	0	0	1828	1000	3760	4001
102	0	0	1892	1000	3759	4000
103	0	0	1951	1000	3758	4000
104	0	0	1971	1000	3759	4000
105	0	0	2012	999	3758	3999
106	0	0	2072	1000	3758	3999
107	0	0	2133	1000	3758	3999
108	0	0	2177	1000	3756	4000
109	0	0	2251	999	3759	4000
110	0	0	2347	1000	3758	4000
111	0	0	2401	1000	3757	3999
112	0	0	2387	997	3757	4000
113	0	0	2331	995	3757	4000
114	0	0	2234	995	3760	4000
115	0	0	2138	996	3760	4000
116	0	0	2071	996	3760	4000
117	0	0	2005	995	3760	4000
118	0	0	1918	995	3757	4001
119	0	0	1817	991	3762	4000
120	0	0	1777	998	3758	4000
121	0	0	1838	1001	3757	3999
122	0	0	1952	1000	3757	3999
123	0	0	2027	999	3758	4002
124	0	0	2060	998	3759	4001
125	0	0	2094	999	3758	3999
126	0	0	2163	1000	3759	4000
127	0	0	2232	998	3759	3999
0	0	0	2271	1000	3756	4000
1	0	0	2290	999	3759	3999
2	0	0	2351	1000	3758	4000
3	0	0	2399	1000	3759	4001
4	0	0	2386	997	3759	4002
5	0	0	2338	997	3759	4001
6	0	0	2263	995	3761	4001
7	0	0	2154	995	3759	3999
8	0	0	2056	995	3760	3999
9	0	0	1998	996	3760	4000
10	0	0	1977	996	3759	4003
11	0	0	1943	995	3756	4000
12	0	0	1908	995	3758	4000
13	0	0	1897	1000	3757	4000
14	0	0	1915	998	3755	4000
15	0	0	1950	998	3756	4000
16	0	0	1991	999	3758	4000
17	0	0	2042	997	3758	4000
18	0	0	2113	999	3760	4001
19	0	0	2188	999	3760	4001
20	0	0	2246	999	3759	4002
21	0	0	2291	1000	3760	4001
22	0	0	2351	999	3759	3999
23	0	0	2383	999	3759	3998
24	0	0	2374	999	3758	3999
25	0	0	2366	999	3758	4000
26	0	0	2337	995	3757	4000
27	0	0	2258	994	3758	4000
28	0	0	2176	995	3758	4000
29	0	0	2112	995	3758	4000
30	0	0	2072	996	3758	3998
31	0	0	2027	995	3755	4001
32	0	0	1977	994	3757	4000
33	0	0	1961	998	3757	4000
34	0	0	1985	998	3758	4000
35	0	0	2023	998	3759	4002
36	0	0	2071	998	3757	4001
37	0	0	2134	999	3760	4001
38	0	0	2201	1000	3758	4000
39	0	0	2259	998	3762	4000
40	0	0	2292	998	3760	4001
41	0	0	2334	999	3758	4000
42	0	0	2395	999	3758	3999
43	0	0	2395	995	3758	4000
44	0	0	2319	994	3756	4000
45	0	0	2245	995	3758	4002
46	0	0	2187	994	3756	4000
47	0	0	2096	994	3758	4000
48	0	0	1989	994	3758	4000
49	0	0	1947	998	3756	4000
50	0	0	1979	997	3758	4000
51	0	0	2008	997	3759	4001
52	0	0	2015	997	3758	4000
53	0	0	2014	998	3760	4002
54	0	0	2026	999	3759	4001
55	0	0	2051	997	3759	3999
56	0	0	2093	997	3758	4000
57	0	0	2148	998	3759	4000
58	0	0	2208	998	3758	4000
59	0	0	2269	998	3758	4000
60	0	0	2333	999	3758	3999
61	0	0	2374	998	3759	4001
62	0	0	2406	997	3757	4001
63	0	0	2418	998	3757	4000
64	0	0	2408	998	3755	4001
65	0	0	2375	995	3757	3999
66	0	0	2301	993	3758	4001
67	0	0	2221	994	3760	4002
68	0	0	2177	995	3758	3999
69	0	0	2142	994	3761	4000
70	0	0	2092	994	3758	4001
71	0	0	2034	993	3755	3998
72	0	0	1976	993	3758	4000
73	0	0	1948	995	3759	4002
74	0	0	1947	997	3757	4000
75	0	0	1947	996	3758	3999
76	0	0	1981	997	3759	4001
77	0	0	2060	997	3758	4000
78	0	0	2165	997	3758	4000
79	0	0	2249	996	3756	4000
80	0	0	2318	998	3759	3999
81	0	0	2351	997	3756	4000
82	0	0	2389	997	3757	4000
83	0	0	2407	997	3758	4000
84	0	0	2375	995	3756	4000
85	0	0	2339	995	3757	4001
86	0	0	2290	992	3758	4000
87	0	0	2201	994	3762	3999
88	0	0	2112	993	3759	4000
89	0	0	2037	993	3758	4000
90	0	0	1980	993	3759	3999
91	0	0	1927	993	3758	4000
92	0	0	1905	995	3757	4000
93	0	0	1947	996	3757	4000
94	0	0	2054	995	3756	4000
95	0	0	2145	996	3758	3999
96	0	0	2201	998	3757	4000
97	0	0	2251	996	3758	3999
98	0	0	2308	996	3758	4000
99	0	0	2343	996	3758	4000
100	0	0	2344	995	3758	3999
101	0	0	2311	995	3758	4001
102	0	0	2343	997	3759	4000
103	0	0	2384	998	3760	4000
104	0	0	2374	995	3759	4001
105	0	0	2341	994	3760	4002
106	0	0	2291	992	3759	4001
107	0	0	2222	992	3760	4003
108	0	0	2164	995	3758	4000
109	0	0	2129	995	3759	4001
110	0	0	2092	993	3760	4001
111	0	0	2065	995	3758	4003
112	0	0	2057	996	3759	4002
113	0	0	2081	995	3755	4000
114	0	0	2124	995	3758	4001
115	0	0	2127	996	3758	4002
116	0	0	2159	995	3757	4001
117	0	0	2219	996	3759	4001
118	0	0	2269	997	3758	4001
119	0	0	2320	995	3756	4000
120	0	0	2389	997	3760	4001
121	0	0	2446	996	3760	4001
122	0	0	2489	996	3758	4001
123	0	0	2490	993	3758	4001
124	0	0	2416	993	3759	4001
125	0	0	2337	992	3757	3999
126	0	0	2286	992	3757	4000
127	0	0	2227	992	3759	4000
0	0	0	2151	992	3757	4000
1	0	0	2084	992	3758	4001
2	0	0	2061	995	3758	4001
3	0	0	2069	996	3758	4001
4	0	0	2083	995	3757	3999
5	0	0	2109	995	3758	4002
6	0	0	2144	996	3758	4001
7	0	0	2166	995	3756	3999
8	0	0	2187	996	3759	4001
9	0	0	2226	995	3759	4001
10	0	0	2275	994	3759	4000
11	0	0	2335	996	3760	4001
12	0	0	2376	996	3760	4003
13	0	0	2380	996	3759	4002
14	0	0	2408	996	3759	4002
15	0	0	2417	994	3758	4001
16	0	0	2358	993	3758	4001
17	0	0	2279	992	3758	4001
18	0	0	2205	991	3757	4001
19	0	0	2124	991	3759	4000
20	0	0	2052	990	3758	3999
21	0	0	1992	991	3759	3999
22	0	0	1954	992	3758	4000
23	0	0	1929	993	3756	4002
24	0	0	1899	992	3758	4001
25	0	0	1887	994	3758	4001
26	0	0	1911	995	3759	3999
27	0	0	1963	995	3758	4001
28	0	0	2037	995	3761	4003
29	0	0	2097	996	3759	4001
30	0	0	2151	994	3759	4002
31	0	0	2205	995	3759	4002
32	0	0	2250	996	3758	4000
33	0	0	2297	995	3757	4001
34	0	0	2371	996	3757	4001
35	0	0	2407	995	3757	4001
36	0	0	2373	993	3759	4001
37	0	0	2321	992	3758	4000
38	0	0	2262	991	3757	4001
39	0	0	2184	990	3758	4001
40	0	0	2088	990	3758	4001
41	0	0	1993	991	3759	3999
42	0	0	1924	991	3759	4000
43	0	0	1892	993	3760	4003
44	0	0	1883	994	3758	4000
45	0	0	1901	994	3759	4002
46	0	0	1946	994	3759	4002
47	0	0	1991	995	3759	4000
48	0	0	2019	994	3757	4001
49	0	0	2055	995	3758	4001
50	0	0	2109	994	3758	4001
51	0	0	2155	996	3759	4001
52	0	0	2171	995	3759	4001
53	0	0	2197	995	3760	4002
54	0	0	2282	995	3757	4001
55	0	0	2360	995	3757	4001
56	0	0	2370	995	3758	4001
57	0	0	2316	992	3759	4002
58	0	0	2226	991	3758	4001
59	0	0	2139	991	3760	4002
60	0	0	2086	993	3760	4001
61	0	0	2048	992	3760	4001
62	0	0	1979	991	3760	4000
63	0	0	1896	990	3760	4000
64	0	0	1834	990	3758	4001
65	0	0	1817	993	3759	3999
66	0	0	1855	995	3755	4001
67	0	0	1935	995	3758	4000
68	0	0	2017	994	3757	4002
69	0	0	2081	994	3758	4000
70	0	0	2118	995	3758	4001
71	0	0	2153	995	3758	4001
72	0	0	2201	995	3759	4000
73	0	0	2246	995	3759	4002
74	0	0	2292	995	3758	4001
75	0	0	2320	995	3758	4002
76	0	0	2302	992	3758	4001
77	0	0	2269	992	3760	4001
78	0	0	2225	990	3760	4000
79	0	0	2164	990	3759	4001
80	0	0	2087	990	3757	4001
81	0	0	2025	991	3758	4001
82	0	0	1974	992	3759	4000
83	0	0	1930	991	3759	4002
84	0	0	1884	990	3757	4002
85	0	0	1841	990	3757	4001
86	0	0	1836	994	3758	3999
87	0	0	1889	994	3758	4000
88	0	0	1972	991	3758	4002
89	0	0	2044	994	3760	4000
90	0	0	2113	995	3759	4002
91	0	0	2182	994	3760	4002
92	0	0	2221	994	3759	4000
93	0	0	2237	994	3760	4003
94	0	0	2254	994	3758	4001
95	0	0	2275	994	3758	4003
96	0	0	2256	993	3760	4000
97	0	0	2229	992	3759	4001
98	0	0	2202	993	3759	4002
99	0	0	2157	991	3758	4001
100	0	0	2086	990	3758	4001
101	0	0	2006	990	3757	4002
102	0	0	1932	990	3759	4004
103	0	0	1862	990	3758	4003
104	0	0	1775	989	3757	4001
105	0	0	1734	994	3758	3999
106	0	0	1800	994	3758	4002
107	0	0	1907	992	3759	4003
108	0	0	1998	994	3759	4001
109	0	0	2080	994	3759	4001
110	0	0	2145	994	3760	3999
111	0	0	2204	992	3760	4002
112	0	0	2254	994	3760	4003
113	0	0	2272	993	3760	4003
114	0	0	2287	992	3758	4001
115	0	0	2284	992	3758	3999
116	0	0	2235	989	3758	4002
117	0	0	2216	994	3757	4003
118	0	0	2201	990	3759	4001
119	0	0	2147	990	3759	4002
120	0	0	2092	991	3759	4003
121	0	0	2053	992	3758	4001
122	0	0	2006	990	3759	4002
123	0	0	1941	989	3759	4003
124	0	0	1871	989	3758	4001
125	0	0	1831	992	3760	4001
126	0	0	1837	991	3760	4001
127	0	0	1860	993	3759	4004
0	0	0	1928	993	3759	4001
1	0	0	2016	993	3760	4002
2	0	0	2104	994	3760	4002
3	0	0	2175	993	3758	4001
4	0	0	2224	994	3759	4002
5	0	0	2234	993	3759	4003
6	0	0	2256	993	3757	4001
7	0	0	2292	993	3758	4000
8	0	0	2282	989	3758	4000
9	0	0	2240	990	3758	4003
10	0	0	2185	989	3759	3999
11	0	0	2126	990	3758	4001
12	0	0	2083	990	3759	4001
13	0	0	2055	987	3759	4001
14	0	0	2023	989	3760	4003
15	0	0	1975	990	3759	4001
16	0	0	1940	990	3758	4001
17	0	0	1952	993	3760	4001
18	0	0	1993	990	3759	4001
19	0	0	2022	993	3759	4003
20	0	0	2040	993	3759	4001
21	0	0	2065	993	3757	4001
22	0	0	2085	994	3758	4001
23	0	0	2119	993	3759	4002
24	0	0	2151	992	3759	4002
25	0	0	2191	992	3759	4001
26	0	0	2285	996	3757	4001
27	0	0	2365	993	3758	4001
28	0	0	2359	989	3759	4002
29	0	0	2303	989	3758	4003
30	0	0	2227	989	3759	4001
31	0	0	2142	987	3759	4001
32	0	0	2059	989	3760	4001
33	0	0	1996	990	3760	4002
34	0	0	1949	989	3760	4004
35	0	0	1932	991	3759	4001
36	0	0	1921	992	3757	4001
37	0	0	1931	993	3757	4001
38	0	0	1967	991	3757	4001
39	0	0	1996	993	3759	4003
40	0	0	2012	992	3757	4002
41	0	0	2047	992	3758	4001
42	0	0	2107	993	3758	4001
43	0	0	2159	991	3757	4002
44	0	0	2184	993	3759	4003
45	0	0	2193	992	3760	4002
46	0	0	2232	992	3758	4001
47	0	0	2292	992	3758	4001
48	0	0	2320	989	3759	4002
49	0	0	2282	989	3760	4003
50	0	0	2220	988	3759	4003
51	0	0	2153	989	3760	4003
52	0	0	2089	988	3759	4001
53	0	0	2038	986	3759	4001
54	0	0	1997	988	3759	4003
55	0	0	1970	992	3759	4000
56	0	0	1957	991	3758	4003
57	0	0	1961	993	3758	4002
58	0	0	1987	991	3758	4000
59	0	0	2013	992	3758	4000
60	0	0	2044	993	3757	4001
61	0	0	2101	991	3758	4001
62	0	0	2151	991	3759	4000
63	0	0	2157	990	3759	4000
64	0	0	2117	989	3759	4002
65	0	0	2101	992	3760	4003
66	0	0	2180	991	3758	4001
67	0	0	2283	992	3759	4000
68	0	0	2293	989	3758	4001
69	0	0	2245	989	3759	4003
70	0	0	2191	987	3759	4000
71	0	0	2126	988	3759	4004
72	0	0	2061	985	3759	4001
73	0	0	1990	985	3759	4001
74	0	0	1931	988	3758	4001
75	0	0	1891	988	3758	4003
76	0	0	1859	987	3757	4001
77	0	0	1849	991	3756	4002
78	0	0	1867	991	3758	4003
79	0	0	1903	991	3759	4002
80	0	0	1989	991	3759	4003
81	0	0	2080	991	3759	4001
82	0	0	2160	991	3759	4000
83	0	0	2217	990	3759	4001
84	0	0	2246	992	3760	4002
85	0	0	2265	990	3759	4003
86	0	0	2297	991	3759	4003
87	0	0	2319	991	3757	4002
88	0	0	2300	987	3755	4002
89	0	0	2238	988	3758	4002
90	0	0	2125	987	3760	4002
91	0	0	2002	986	3757	4002
92	0	0	1927	987	3759	3999
93	0	0	1911	989	3758	4003
94	0	0	1912	991	3759	4000
95	0	0	1912	990	3760	4005
96	0	0	1895	988	3758	4001
97	0	0	1896	990	3758	4001
98	0	0	1936	992	3760	3999
99	0	0	1975	990	3758	4002
100	0	0	2003	991	3760	4003
101	0	0	2039	989	3759	4002
102	0	0	2082	991	3759	4002
103	0	0	2149	991	3759	4001
104	0	0	2220	992	3759	4001
105	0	0	2275	990	3758	4003
106	0	0	2333	990	3757	4001
107	0	0	2341	987	3757	4001
108	0	0	2278	985	3755	4002
109	0	0	2195	987	3758	4000
110	0	0	2109	987	3758	4003
111	0	0	2051	988	3759	4004
112	0	0	2045	992	3759	3999
113	0	0	2048	990	3756	4002
114	0	0	2031	988	3759	4002
115	0	0	2003	987	3759	4002
116	0	0	1942	985	3759	4001
117	0	0	1877	987	3759	4003
118	0	0	1883	989	3757	4002
119	0	0	1930	991	3759	4000
120	0	0	1978	990	3758	4003
121	0	0	2034	989	3758	4001
122	0	0	2114	991	3758	4001
123	0	0	2198	988	3758	4002
124	0	0	2251	990	3759	4003
125	0	0	2230	987	3758	4002
126	0	0	2214	990	3759	4003
127	0	0	2236	991	3758	4002
0	0	0	2256	992	3758	4002
1	0	0	2255	991	3759	4003
2	0	0	2227	987	3758	4003
3	0	0	2185	988	3758	4001
4	0	0	2133	986	3760	4001
5	0	0	2063	987	3760	4003
6	0	0	1997	987	3760	4002
7	0	0	1947	986	3755	4006
8	0	0	1931	988	3758	4002
9	0	0	1947	990	3758	4003
10	0	0	1993	990	3759	4002
11	0	0	2035	990	3758	4002
12	0	0	2076	989	3759	4003
13	0	0	2109	989	3758	4001
14	0	0	2141	990	3757	4003
15	0	0	2173	988	3756	4002
16	0	0	2209	989	3759	4002
17	0	0	2225	988	3758	4000
18	0	0	2267	990	3758	4001
19	0	0	2327	990	3758	4002
20	0	0	2344	992	3759	4002
21	0	0	2329	990	3759	4000
22	0	0	2289	986	3759	4002
23	0	0	2208	985	3759	4001
24	0	0	2118	986	3759	4002
25	0	0	2028	985	3760	4001
26	0	0	1956	985	3759	4000
27	0	0	1915	983	3757	4003
28	0	0	1886	987	3758	4003
29	0	0	1870	991	3757	3999
30	0	0	1889	988	3757	4002
31	0	0	1925	989	3759	4003
32	0	0	1988	989	3758	3999
33	0	0	2094	988	3758	4001
34	0	0	2168	989	3759	3999
35	0	0	2200	988	3760	4000
36	0	0	2227	989	3759	4002
37	0	0	2241	989	3759	4002
38	0	0	2265	989	3760	4002
39	0	0	2292	989	3758	4001
40	0	0	2281	988	3760	4003
41	0	0	2241	986	3758	4003
42	0	0	2175	984	3758	4000
43	0	0	2076	984	3758	4001
44	0	0	1997	985	3758	4002
45	0	0	1946	984	3758	4001
46	0	0	1898	985	3758	4000
47	0	0	1844	983	3758	4003
48	0	0	1808	987	3758	4003
49	0	0	1821	990	3758	4001
50	0	0	1862	986	3758	4001
51	0	0	1871	989	3759	4003
52	0	0	1860	989	3758	3999
53	0	0	1895	989	3759	4002
54	0	0	1955	989	3758	4002
55	0	0	2011	988	3760	4003
56	0	0	2064	988	3760	4002
57	0	0	2126	989	3758	4000
58	0	0	2212	990	3758	3985
59	0	0	2279	989	3758	3963
60	0	0	2270	985	3757	3940
61	0	0	2205	985	3758	3916
62	0	0	2109	983	3757	3894
63	0	0	2030	986	3758	3873
64	0	0	1974	985	3758	3852
65	0	0	1924	984	3759	3828
66	0	0	1877	985	3758	3807
67	0	0	1871	990	3758	3784
68	0	0	1903	988	3759	3764
69	0	0	1933	990	3758	3739
70	0	0	1958	990	3758	3719
71	0	0	1977	989	3760	3696
72	0	0	2015	988	3759	3676
73	0	0	2080	987	3759	3654
74	0	0	2121	988	3758	3633
75	0	0	2156	988	3760	3609
76	0	0	2195	989	3758	3591
77	0	0	2235	988	3758	3566
78	0	0	2307	988	3757	3545
79	0	0	2378	989	3758	3527
80	0	0	2382	986	3758	3505
81	0	0	2318	984	3758	3484
82	0	0	2222	984	3758	3463
83	0	0	2116	984	3758	3442
84	0	0	2052	985	3759	3422
85	0	0	2003	984	3759	3400
86	0	0	1959	984	3760	3381
87	0	0	1936	986	3758	3363
88	0	0	1916	986	3760	3344
89	0	0	1924	990	3758	3323
90	0	0	1955	990	3758	3304
91	0	0	2007	987	3759	3286
92	0	0	2071	987	3757	3266
93	0	0	2115	987	3757	3248
94	0	0	2145	987	3757	3230
95	0	0	2190	987	3759	3209
96	0	0	2240	987	3759	3193
97	0	0	2289	988	3759	3175
98	0	0	2328	988	3757	3156
99	0	0	2334	988	3757	3139
100	0	0	2290	983	3759	3120
101	0	0	2252	985	3759	3104
102	0	0	2219	984	3758	3084
103	0	0	2178	984	3758	3068
104	0	0	2120	985	3759	3052
105	0	0	2055	982	3759	3034
106	0	0	1989	983	3760	3019
107	0	0	1947	983	3758	3002
108	0	0	1917	984	3758	2985
109	0	0	1878	984	3757	2969
110	0	0	1891	985	3759	2952
111	0	0	1934	987	3758	2937
112	0	0	2024	987	3757	2921
113	0	0	2120	987	3758	2905
114	0	0	2178	988	3758	2890
115	0	0	2207	986	3759	2873
116	0	0	2241	986	3759	2859
117	0	0	2281	988	3755	2844
118	0	0	2306	987	3757	2830
119	0	0	2305	988	3757	2814
120	0	0	2294	987	3758	2800
121	0	0	2292	987	3758	2786
122	0	0	2267	984	3760	2771
123	0	0	2186	984	3759	2756
124	0	0	2114	983	3759	2743
125	0	0	2060	984	3760	2729
126	0	0	2022	984	3759	2715
127	0	0	2002	984	3759	2701
0	0	0	1941	982	3757	2686
1	0	0	1878	984	3758	2674
2	0	0	1902	987	3758	2660
3	0	0	1964	986	3758	2647
4	0	0	2035	987	3757	2633
5	0	0	2119	985	3758	2620
6	0	0	2193	987	3760	2607
7	0	0	2255	989	3759	2594
8	0	0	2285	986	3759	2582
9	0	0	2264	984	3759	2569
10	0	0	2271	986	3760	2556
11	0	0	2315	990	3759	2542
12	0	0	2303	985	3758	2531
13	0	0	2273	985	3758	2518
14	0	0	2243	983	3760	2507
15	0	0	2169	982	3758	2495
16	0	0	2073	982	3758	2483
17	0	0	1979	983	3759	2471
18	0	0	1942	984	3759	2459
19	0	0	1945	987	3758	2447
20	0	0	1965	986	3757	2436
21	0	0	1986	987	3760	2424
22	0	0	2031	986	3758	2414
23	0	0	2093	987	3759	2402
24	0	0	2131	987	3758	2391
25	0	0	2153	985	3759	2380
26	0	0	2187	987	3759	2369
27	0	0	2245	984	3760	2358
28	0	0	2295	986	3760	2348
29	0	0	2332	986	3759	2337
30	0	0	2372	989	3757	2326
31	0	0	2408	987	3758	2316
32	0	0	2399	984	3758	2306
33	0	0	2373	984	3758	2296
34	0	0	2319	982	3758	2285
35	0	0	2215	983	3757	2275
36	0	0	2118	982	3760	2265
37	0	0	2049	983	3759	2255
38	0	0	1994	983	3759	2245
39	0	0	1967	983	3758	2235
40	0	0	1934	983	3759	2225
41	0	0	1905	985	3759	2216
42	0	0	1938	987	3759	2206
43	0	0	2017	986	3759	2197
44	0	0	2083	986	3759	2187
45	0	0	2128	987	3758	2178
46	0	0	2159	986	3760	2169
47	0	0	2191	987	3760	2160
48	0	0	2224	987	3759	2150
49	0	0	2287	986	3758	2141
50	0	0	2373	985	3757	2132
51	0	0	2438	986	3759	2123
52	0	0	2444	987	3757	2114
53	0	0	2425	986	3758	2105
54	0	0	2379	982	3759	2097
55	0	0	2274	983	3758	2087
56	0	0	2144	982	3759	2079
57	0	0	2014	980	3760	2071
58	0	0	1945	983	3759	2063
59	0	0	1948	986	3760	2054
60	0	0	1964	986	3758	2045
61	0	0	1984	986	3758	2036
62	0	0	2021	986	3758	2028
63	0	0	2073	987	3759	2021
64	0	0	2150	985	3758	2012
65	0	0	2208	987	3759	2005
66	0	0	2232	987	3759	1996
67	0	0	2265	986	3758	1989
68	0	0	2322	986	3758	1981
69	0	0	2365	985	3758	1973
70	0	0	2393	986	3758	1965
71	0	0	2412	987	3758	1957
72	0	0	2375	982	3759	1950
73	0	0	2313	983	3759	1943
74	0	0	2247	981	3758	1935
75	0	0	2151	981	3759	1927
76	0	0	2031	981	3759	1919
77	0	0	1937	983	3759	1913
78	0	0	1938	986	3760	1905
79	0	0	1969	985	3759	1898
80	0	0	1947	982	3758	1890
81	0	0	1919	985	3759	1883
82	0	0	1945	984	3759	1877
83	0	0	1978	985	3758	1869
84	0	0	2019	985	3757	1861
85	0	0	2073	988	3759	1855
86	0	0	2137	989	3758	1848
87	0	0	2214	986	3758	1842
88	0	0	2284	986	3759	1835
89	0	0	2347	985	3758	1828
90	0	0	2410	988	3757	1821
91	0	0	2458	986	3759	1815
92	0	0	2452	985	3758	1807
93	0	0	2394	982	3759	1801
94	0	0	2304	981	3759	1794
95	0	0	2208	983	3760	1788
96	0	0	2142	984	3759	1782
97	0	0	2092	982	3759	1775
98	0	0	2056	983	3759	1769
99	0	0	2038	983	3757	1763
100	0	0	2015	982	3758	1756
101	0	0	1996	984	3758	1751
102	0	0	2014	984	3759	1744
103	0	0	2054	986	3758	1738
104	0	0	2103	985	3758	1732
105	0	0	2151	985	3760	1725
106	0	0	2207	985	3759	1720
107	0	0	2262	984	3760	1714
108	0	0	2296	984	3760	1708
109	0	0	2314	985	3760	1702
110	0	0	2335	984	3760	1696
111	0	0	2359	985	3759	1690
112	0	0	2330	982	3760	1684
113	0	0	2280	984	3759	1679
114	0	0	2231	981	3758	1673
115	0	0	2145	981	3758	1667
116	0	0	2035	981	3759	1661
117	0	0	1958	981	3759	1656
118	0	0	1930	982	3759	1649
119	0	0	1947	985	3758	1643
120	0	0	1976	984	3757	1639
121	0	0	1985	983	3757	1633
122	0	0	1993	984	3758	1628
123	0	0	2002	984	3759	1622
124	0	0	2029	984	3760	1617
125	0	0	2089	985	3758	1612
126	0	0	2153	985	3761	1607
127	0	0	2206	986	3760	1601
0	0	0	2246	985	3760	1596
1	0	0	2289	985	3758	1590
2	0	0	2336	986	3758	1586
3	0	0	2367	985	3757	1580
4	0	0	2345	983	3756	1574
5	0	0	2308	981	3758	1570
6	0	0	2251	981	3758	1565
7	0	0	2146	980	3759	1560
8	0	0	2046	980	3759	1556
9	0	0	1972	981	3758	1549
10	0	0	1929	981	3759	1545
11	0	0	1901	982	3758	1540
12	0	0	1885	982	3758	1534
13	0	0	1886	984	3759	1531
14	0	0	1924	986	3758	1524
15	0	0	1954	984	3759	1520
16	0	0	1968	985	3760	1514
17	0	0	1997	985	3759	1510
18	0	0	2056	983	3759	1505
19	0	0	2126	983	3758	1501
20	0	0	2164	985	3759	1496
21	0	0	2184	985	3758	1492
22	0	0	2241	984	3757	1487
23	0	0	2325	985	3757	1482
24	0	0	2325	983	3757	1477
25	0	0	2253	980	3758	1473
26	0	0	2158	980	3758	1468
27	0	0	2068	980	3759	1464
28	0	0	2009	980	3760	1459
29	0	0	1946	981	3758	1455
30	0	0	1894	982	3760	1451
31	0	0	1871	982	3759	1446
32	0	0	1868	983	3758	1442
33	0	0	1858	983	3759	1439
34	0	0	1877	984	3758	1433
35	0	0	1932	983	3759	1429
36	0	0	2012	983	3760	1424
37	0	0	2089	984	3758	1421
38	0	0	2144	983	3759	1416
39	0	0	2189	986	3758	1412
40	0	0	2223	983	3759	1408
41	0	0	2233	984	3758	1403
42	0	0	2246	984	3758	1399
43	0	0	2253	984	3758	1395
44	0	0	2206	980	3758	1391
45	0	0	2139	980	3759	1387
46	0	0	2080	979	3758	1382
47	0	0	1998	980	3759	1381
48	0	0	1939	980	3760	1375
49	0	0	1908	983	3759	1371
50	0	0	1894	983	3760	1367
51	0	0	1907	983	3759	1360
52	0	0	1893	980	3758	1359
53	0	0	1864	981	3758	1356
54	0	0	1865	984	3757	1352
55	0	0	1846	979	3758	1348
56	0	0	1871	983	3757	1344
57	0	0	1952	983	3758	1340
58	0	0	2063	982	3758	1336
59	0	0	2140	986	3758	1332
60	0	0	2192	984	3759	1329
61	0	0	2243	984	3757	1323
62	0	0	2276	984	3758	1322
63	0	0	2299	984	3758	1317
64	0	0	2285	983	3759	1314
65	0	0	2265	983	3759	1311
66	0	0	2252	981	3760	1307
67	0	0	2207	980	3759	1303
68	0	0	2152	980	3759	1299
69	0	0	2075	979	3760	1296
70	0	0	1989	977	3758	1293
71	0	0	1921	980	3759	1289
72	0	0	1874	980	3756	1285
73	0	0	1856	984	3758	1281
74	0	0	1884	983	3758	1278
75	0	0	1928	982	3758	1275
76	0	0	1973	983	3759	1272
77	0	0	2034	981	3758	1268
78	0	0	2103	983	3759	1265
79	0	0	2166	983	3760	1261
80	0	0	2217	983	3759	1258
81	0	0	2238	984	3759	1255
82	0	0	2271	984	3758	1252
83	0	0	2320	984	3758	1249
84	0	0	2312	983	3759	1245
85	0	0	2261	979	3759	1242
86	0	0	2179	979	3758	1239
87	0	0	2072	979	3758	1235
88	0	0	1999	980	3758	1232
89	0	0	1961	982	3758	1228
90	0	0	1910	982	3759	1226
91	0	0	1863	980	3759	1222
92	0	0	1830	980	3757	1219
93	0	0	1818	983	3758	1216
94	0	0	1843	983	3759	1212
95	0	0	1870	982	3758	1209
96	0	0	1879	983	3760	1206
97	0	0	1920	984	3759	1203
98	0	0	2036	983	3759	1200
99	0	0	2162	984	3759	1196
100	0	0	2242	985	3760	1194
101	0	0	2290	983	3758	1191
102	0	0	2328	982	3757	1188
103	0	0	2352	986	3757	1185
104	0	0	2316	980	3758	1183
105	0	0	2279	982	3758	1179
106	0	0	2236	980	3757	1176
107	0	0	2149	978	3758	1172
108	0	0	2050	980	3758	1170
109	0	0	1984	979	3758	1167
110	0	0	1937	980	3759	1164
111	0	0	1877	979	3759	1161
112	0	0	1828	979	3759	1158
113	0	0	1790	980	3760	1157
114	0	0	1803	983	3760	1154
115	0	0	1853	986	3759	1149
116	0	0	1923	983	3759	1147
117	0	0	1987	982	3759	1144
118	0	0	2039	979	3759	1142
119	0	0	2097	983	3759	1138
120	0	0	2153	983	3759	1136
121	0	0	2213	982	3758	1133
122	0	0	2288	983	3758	1130
123	0	0	2340	984	3759	1126
124	0	0	2323	980	3760	1126
125	0	0	2276	981	3759	1122
126	0	0	2215	979	3759	1119
127	0	0	2113	978	3758	1117
0	0	0	1986	979	3758	1113
1	0	0	1904	979	3760	1112
2	0	0	1880	981	3760	1108
3	0	0	1890	983	3758	1106
4	0	0	1907	981	3758	1103
5	0	0	1890	983	3758	1100
6	0	0	1895	982	3760	1099
7	0	0	1910	982	3758	1095
8	0	0	1952	982	3757	1092
9	0	0	2020	982	3758	1090
10	0	0	2089	983	3757	1087
11	0	0	2142	983	3760	1084
12	0	0	2171	983	3759	1082
13	0	0	2179	982	3758	1080
14	0	0	2191	981	3758	1077
15	0	0	2206	985	3758	1074
16	0	0	2184	980	3760	1071
17	0	0	2140	979	3758	1070
18	0	0	2089	978	3757	1068
19	0	0	2019	979	3759	1065
20	0	0	1979	979	3759	1063
21	0	0	1984	982	3761	1061
22	0	0	1989	983	3760	1057
23	0	0	1966	980	3759	1055
24	0	0	1948	979	3758	1053
25	0	0	1924	982	3757	1050
26	0	0	1917	981	3759	1048
27	0	0	1916	983	3759	1046
28	0	0	1931	982	3757	1043
29	0	0	1992	981	3759	1041
30	0	0	2067	982	3758	1037
31	0	0	2147	982	3760	1037
32	0	0	2199	983	3759	1034
33	0	0	2231	983	3758	1032
34	0	0	2266	982	3758	1030
35	0	0	2309	984	3758	1028
36	0	0	2305	982	3759	1025
37	0	0	2254	977	3759	1022
38	0	0	2187	978	3758	1019
39	0	0	2093	978	3759	1019
40	0	0	1995	978	3760	1015
41	0	0	1933	980	3760	1013
42	0	0	1919	982	3759	1010
43	0	0	1927	982	3759	1009
44	0	0	1942	981	3757	1006
45	0	0	1937	982	3758	1005
46	0	0	1926	980	3758	1002
47	0	0	1927	980	3756	1000
48	0	0	1949	982	3758	998
49	0	0	1978	981	3758	995
50	0	0	2006	983	3758	993
51	0	0	2067	982	3758	991
52	0	0	2131	982	3757	989
53	0	0	2175	982	3759	987
54	0	0	2221	983	3759	984
55	0	0	2279	983	3758	983
56	0	0	2296	984	3759	979
57	0	0	2242	978	3757	978
58	0	0	2127	978	3760	975
59	0	0	2010	978	3758	974
60	0	0	1960	980	3758	972
61	0	0	1950	981	3759	970
62	0	0	1939	981	3761	967
63	0	0	1938	982	3758	966
64	0	0	1939	981	3757	963
65	0	0	1908	980	3757	962
66	0	0	1912	982	3758	949
67	0	0	1948	980	3758	957
68	0	0	2002	982	3758	956
69	0	0	2073	982	3759	954
70	0	0	2137	981	3759	952
71	0	0	2203	982	3760	949
72	0	0	2255	981	3760	947
73	0	0	2273	982	3758	946
74	0	0	2273	982	3758	943
75	0	0	2286	982	3758	941
76	0	0	2284	982	3759	939
77	0	0	2280	981	3759	938
78	0	0	2252	978	3759	936
79	0	0	2160	977	3758	934
80	0	0	2058	977	3758	931
81	0	0	1964	978	3760	930
82	0	0	1863	977	3759	927
83	0	0	1781	978	3758	926
84	0	0	1754	979	3758	924
85	0	0	1768	982	3758	922
86	0	0	1814	980	3759	920
87	0	0	1847	982	3760	918
88	0	0	1884	981	3759	917
89	0	0	1947	983	3758	915
90	0	0	2024	980	3759	913
91	0	0	2114	983	3758	911
92	0	0	2193	982	3759	909
93	0	0	2237	982	3758	908
94	0	0	2271	982	3757	906
95	0	0	2318	980	3757	904
96	0	0	2311	981	3756	900
97	0	0	2275	979	3757	900
98	0	0	2209	979	3758	898
99	0	0	2102	978	3758	897
100	0	0	1997	977	3759	894
101	0	0	1918	978	3761	893
102	0	0	1853	978	3757	892
103	0	0	1847	981	3760	889
104	0	0	1876	982	3758	888
105	0	0	1891	980	3758	886
106	0	0	1918	982	3760	884
107	0	0	1946	982	3758	882
108	0	0	1963	981	3758	882
109	0	0	2005	981	3759	879
110	0	0	2065	982	3758	878
111	0	0	2136	981	3759	876
112	0	0	2194	981	3759	874
113	0	0	2240	982	3758	872
114	0	0	2293	982	3757	871
115	0	0	2323	981	3758	869
116	0	0	2277	979	3758	866
117	0	0	2215	975	3759	866
118	0	0	2164	979	3758	864
119	0	0	2113	978	3759	863
120	0	0	2080	979	3760	861
121	0	0	2072	980	3759	857
122	0	0	2033	978	3759	857
123	0	0	1971	978	3758	856
124	0	0	1933	978	3758	854
125	0	0	1916	980	3758	853
126	0	0	1918	982	3757	849
127	0	0	1920	982	3759	849
0	0	0	1933	982	3757	847
1	0	0	1992	981	3758	846
2	0	0	2056	980	3759	845
3	0	0	2123	982	3758	842
4	0	0	2178	981	3759	841
5	0	0	2228	982	3756	840
6	0	0	2288	982	3758	840
7	0	0	2350	981	3758	837
8	0	0	2355	982	3759	835
9	0	0	2337	981	3760	832
10	0	0	2280	978	3759	832
11	0	0	2162	976	3760	829
12	0	0	2051	978	3758	827
13	0	0	1975	977	3760	827
14	0	0	1931	978	3759	826
15	0	0	1904	978	3758	824
16	0	0	1880	978	3758	822
17	0	0	1849	979	3756	820
18	0	0	1860	982	3759	820
19	0	0	1886	981	3758	818
20	0	0	1888	981	3758	816
21	0	0	1902	980	3759	815
22	0	0	1942	981	3759	815
23	0	0	2011	981	3759	812
24	0	0	2071	979	3759	811
25	0	0	2101	981	3759	809
26	0	0	2130	981	3758	807
27	0	0	2175	981	3759	806
28	0	0	2176	981	3757	804
29	0	0	2134	979	3759	803
30	0	0	2056	977	3758	802
31	0	0	1944	977	3758	801
32	0	0	1856	977	3758	799
33	0	0	1803	977	3758	798
34	0	0	1779	977	3759	796
35	0	0	1778	981	3759	794
36	0	0	1792	979	3757	793
37	0	0	1799	981	3758	791
38	0	0	1816	983	3759	790
39	0	0	1838	983	3759	789
40	0	0	1870	980	3758	787
41	0	0	1904	984	3759	786
42	0	0	1935	982	3760	785
43	0	0	1985	982	3762	783
44	0	0	2062	979	3760	781
45	0	0	2134	981	3758	781
46	0	0	2185	982	3758	779
47	0	0	2238	983	3756	777
48	0	0	2244	980	3757	776
49	0	0	2207	977	3756	775
50	0	0	2140	977	3758	774
51	0	0	2048	977	3758	772
52	0	0	1975	977	3759	771
53	0	0	1910	976	3757	770
54	0	0	1837	976	3759	768
55	0	0	1780	977	3758	767
56	0	0	1759	978	3759	767
57	0	0	1758	983	3758	765
58	0	0	1810	981	3759	764
59	0	0	1878	979	3759	762
60	0	0	1903	981	3759	761
61	0	0	1910	983	3758	759
62	0	0	1952	982	3758	758
63	0	0	2037	981	3758	756
64	0	0	2131	977	3759	755
65	0	0	2200	980	3758	754
66	0	0	2237	981	3758	753
67	0	0	2274	981	3756	750
68	0	0	2283	982	3755	751
69	0	0	2267	979	3759	749
70	0	0	2235	978	3758	748
71	0	0	2179	975	3760	747
72	0	0	2097	975	3759	746
73	0	0	1985	976	3758	744
74	0	0	1887	976	3760	742
75	0	0	1819	977	3759	742
76	0	0	1796	978	3758	741
77	0	0	1799	980	3758	739
78	0	0	1822	980	3760	739
79	0	0	1875	977	3758	737
80	0	0	1952	981	3758	736
81	0	0	2025	980	3758	734
82	0	0	2067	981	3759	734
83	0	0	2066	981	3759	732
84	0	0	2082	980	3758	730
85	0	0	2133	981	3759	729
86	0	0	2189	982	3757	729
87	0	0	2247	981	3757	725
88	0	0	2276	981	3756	726
89	0	0	2297	978	3759	724
90	0	0	2322	981	3758	723
91	0	0	2301	979	3758	722
92	0	0	2232	977	3758	721
93	0	0	2113	976	3759	720
94	0	0	1974	976	3760	717
95	0	0	1880	975	3758	717
96	0	0	1844	976	3758	717
97	0	0	1817	979	3756	715
98	0	0	1833	980	3756	715
99	0	0	1879	980	3758	712
100	0	0	1928	980	3757	712
101	0	0	1994	980	3759	711
102	0	0	2078	980	3759	709
103	0	0	2157	980	3757	709
104	0	0	2189	978	3759	708
105	0	0	2192	980	3758	706
106	0	0	2220	980	3758	705
107	0	0	2267	979	3758	703
108	0	0	2273	981	3760	703
109	0	0	2271	980	3760	700
110	0	0	2246	977	3759	703
111	0	0	2166	976	3759	699
112	0	0	2057	976	3759	698
113	0	0	1957	977	3760	697
114	0	0	1908	976	3759	695
115	0	0	1909	981	3759	695
116	0	0	1896	979	3757	693
117	0	0	1870	977	3758	691
118	0	0	1874	981	3759	691
119	0	0	1891	980	3756	691
120	0	0	1904	978	3755	690
121	0	0	1932	982	3757	688
122	0	0	1990	980	3757	687
123	0	0	2049	980	3757	687
124	0	0	2083	980	3760	684
125	0	0	2124	980	3759	685
126	0	0	2221	981	3758	683
127	0	0	2338	982	3758	682
0	0	0	2352	980	3760	681
1	0	0	2302	976	3758	680
2	0	0	2234	977	3758	679
3	0	0	2141	976	3759	677
4	0	0	2049	977	3760	675
5	0	0	1970	976	3756	676
6	0	0	1923	977	3759	675
7	0	0	1897	978	3755	674
8	0	0	1868	975	3759	672
9	0	0	1825	976	3757	671
10	0	0	1820	981	3758	671
11	0	0	1863	980	3758	669
12	0	0	1920	979	3758	668
13	0	0	1977	980	3759	668
14	0	0	2039	980	3760	667
15	0	0	2107	980	3760	666
16	0	0	2155	980	3760	664
17	0	0	2182	980	3760	664
18	0	0	2224	980	3758	663
19	0	0	2263	980	3758	660
20	0	0	2247	979	3758	661
21	0	0	2222	979	3759	660
22	0	0	2198	978	3759	658
23	0	0	2151	978	3758	658
24	0	0	2092	978	3758	656
25	0	0	2039	977	3759	655
26	0	0	1999	976	3759	654
27	0	0	1971	977	3758	654
28	0	0	1946	976	3758	653
29	0	0	1909	976	3759	653
30	0	0	1908	980	3758	651
31	0	0	1929	979	3759	650
32	0	0	1958	980	3758	649
33	0	0	2018	979	3759	648
34	0	0	2078	980	3759	647
35	0	0	2102	980	3759	646
36	0	0	2110	981	3759	645
37	0	0	2119	979	3758	644
38	0	0	2168	980	3757	643
39	0	0	2251	980	3756	641
40	0	0	2288	981	3756	641
41	0	0	2282	980	3757	640
42	0	0	2254	977	3758	639
43	0	0	2197	976	3758	638
44	0	0	2118	978	3758	636
45	0	0	2036	976	3760	636
46	0	0	1964	977	3758	635
47	0	0	1965	980	3759	636
48	0	0	1993	980	3758	634
49	0	0	1992	980	3760	633
50	0	0	1989	979	3760	632
51	0	0	1992	979	3757	631
52	0	0	2002	980	3760	629
53	0	0	2031	980	3758	629
54	0	0	2080	980	3758	628
55	0	0	2130	981	3760	627
56	0	0	2158	979	3758	627
57	0	0	2182	980	3756	627
58	0	0	2237	980	3757	625
59	0	0	2322	981	3760	623
60	0	0	2372	981	3758	623
61	0	0	2366	979	3758	621
62	0	0	2312	977	3759	621
63	0	0	2219	976	3759	620
64	0	0	2139	976	3760	620
65	0	0	2083	976	3761	618
66	0	0	2025	976	3759	618
67	0	0	1981	977	3760	617
68	0	0	1968	977	3758	616
69	0	0	1963	979	3758	615
70	0	0	1996	980	3758	614
71	0	0	2017	979	3757	613
72	0	0	2036	980	3757	612
73	0	0	2079	980	3759	612
74	0	0	2112	980	3760	611
75	0	0	2144	981	3759	610
76	0	0	2213	980	3758	608
77	0	0	2270	980	3760	608
78	0	0	2296	980	3758	607
79	0	0	2333	979	3758	606
80	0	0	2317	977	3758	605
81	0	0	2240	976	3760	605
82	0	0	2148	976	3759	604
83	0	0	2082	979	3759	602
84	0	0	2068	980	3759	603
85	0	0	2048	976	3758	600
86	0	0	1996	977	3760	599
87	0	0	1915	976	3756	599
88	0	0	1841	975	3757	598
89	0	0	1802	979	3758	597
90	0	0	1833	981	3758	597
91	0	0	1901	979	3758	596
92	0	0	1965	980	3757	596
93	0	0	2020	980	3758	594
94	0	0	2062	982	3758	592
95	0	0	2122	981	3759	594
96	0	0	2172	980	3759	593
97	0	0	2224	980	3760	591
98	0	0	2285	983	3759	590
99	0	0	2348	981	3758	590
100	0	0	2355	980	3757	588
101	0	0	2302	978	3758	589
102	0	0	2228	976	3757	588
103	0	0	2109	977	3757	587
104	0	0	1967	976	3759	587
105	0	0	1850	976	3757	584
106	0	0	1789	977	3759	584
107	0	0	1771	979	3758	585
108	0	0	1777	980	3755	583
109	0	0	1779	980	3758	583
110	0	0	1810	980	3759	581
111	0	0	1864	981	3755	580
112	0	0	1944	981	3758	580
113	0	0	2021	982	3758	579
114	0	0	2071	980	3760	579
115	0	0	2105	981	3760	577
116	0	0	2138	981	3760	577
117	0	0	2186	980	3759	577
118	0	0	2256	980	3757	576
119	0	0	2348	980	3758	574
120	0	0	2338	977	3755	575
121	0	0	2245	976	3758	573
122	0	0	2131	976	3758	572
123	0	0	2007	975	3758	571
124	0	0	1897	976	3758	571
125	0	0	1815	977	3758	568
126	0	0	1789	980	3759	569
127	0	0	1807	979	3758	568
0	0	0	1823	980	3757	567
1	0	0	1812	980	3759	567
2	0	0	1831	981	3758	564
3	0	0	1867	980	3760	565
4	0	0	1902	979	3759	565
5	0	0	1957	980	3758	565
6	0	0	2027	980	3759	563
7	0	0	2109	980	3760	562
8	0	0	2172	980	3759	562
9	0	0	2210	980	3758	562
10	0	0	2244	982	3756	560
11	0	0	2298	981	3758	559
12	0	0	2283	978	3758	558
13	0	0	2215	977	3757	558
14	0	0	2129	975	3757	558
15	0	0	2038	977	3758	557
16	0	0	1972	976	3759	556
17	0	0	1903	976	3759	556
18	0	0	1845	976	3759	554
19	0	0	1839	979	3759	554
20	0	0	1830	977	3759	553
21	0	0	1794	976	3758	553
22	0	0	1792	980	3759	551
23	0	0	1803	979	3759	551
24	0	0	1838	980	3760	550
25	0	0	1910	983	3758	548
26	0	0	1984	981	3757	549
27	0	0	2051	981	3758	547
28	0	0	2092	980	3759	548
29	0	0	2140	980	3758	548
30	0	0	2212	980	3756	547
31	0	0	2297	981	3758	546
32	0	0	2310	980	3757	546
33	0	0	2262	977	3759	544
34	0	0	2203	977	3758	543
35	0	0	2128	975	3760	543
36	0	0	2037	976	3760	542
37	0	0	1939	976	3759	543
38	0	0	1842	976	3760	540
39	0	0	1785	977	3758	541
40	0	0	1783	975	3758	540
41	0	0	1797	979	3758	539
42	0	0	1840	980	3758	538
43	0	0	1865	980	3758	538
44	0	0	1885	979	3757	537
45	0	0	1942	981	3757	536
46	0	0	2011	980	3759	536
47	0	0	2061	979	3759	534
