# bioPlux Text File Format
# Version: 1
# StartDateTime: 2011-07-19 18:12:57
# SamplingFrequency: 1000
# SampledChannels: 1 2 3 4
# SamplingResolution: 12
# AcquiringDevice: 00:07:80:42:0F:8B
# EndOfHeader
0	0	0	2131	1061	3847	78
1	0	0	2193	1061	3847	79
2	0	0	2200	1061	3848	76
3	0	0	2153	1059	3848	79
4	0	0	2093	1060	3848	78
5	0	0	2082	1063	3847	78
6	0	0	2113	1063	3847	77
7	0	0	2154	1067	3848	76
8	0	0	2146	1060	3848	78
9	0	0	2079	1060	3848	77
10	0	0	2021	1060	3848	77
11	0	0	1992	1061	3848	77
12	0	0	1995	1064	3848	77
13	0	0	1998	1062	3849	78
14	0	0	2003	1064	3848	74
15	0	0	2027	1059	3847	75
16	0	0	2063	1061	3847	76
17	0	0	2069	1058	3849	77
18	0	0	2035	1058	3848	78
19	0	0	2061	1060	3847	78
20	0	0	2078	1057	3847	78
21	0	0	2021	1055	3847	78
22	0	0	1967	1060	3848	78
23	0	0	1947	1062	3848	77
24	0	0	1962	1064	3847	78
25	0	0	2009	1062	3849	77
26	0	0	2043	1065	3849	74
27	0	0	2056	1064	3848	79
28	0	0	2047	1061	3849	77
29	0	0	2014	1062	3849	77
30	0	0	1989	1062	3848	77
31	0	0	1951	1061	3848	76
32	0	0	1879	1059	3848	76
33	0	0	1816	1061	3848	75
34	0	0	1847	1062	3847	78
35	0	0	1846	1058	3847	77
36	0	0	1842	1059	3847	77
37	0	0	1928	1061	3847	78
38	0	0	2082	1060	3848	79
39	0	0	2179	1059	3847	80
40	0	0	2190	1061	3847	78
41	0	0	2192	1060	3847	78
42	0	0	2176	1059	3847	78
43	0	0	2139	1061	3848	77
44	0	0	2115	1064	3848	78
45	0	0	2150	1064	3848	78
46	0	0	2209	1063	3847	77
47	0	0	2228	1065	3848	79
48	0	0	2206	1061	3848	77
49	0	0	2156	1061	3848	76
50	0	0	2095	1060	3848	77
51	0	0	2040	1060	3847	76
52	0	0	2065	1063	3847	76
53	0	0	2086	1062	3848	78
54	0	0	2018	1058	3847	78
55	0	0	1962	1059	3847	76
56	0	0	1983	1062	3847	76
57	0	0	2024	1061	3848	80
58	0	0	2053	1062	3849	76
59	0	0	2060	1061	3848	78
60	0	0	2062	1063	3849	77
61	0	0	2043	1058	3847	79
62	0	0	2039	1063	3849	78
63	0	0	2062	1063	3848	77
64	0	0	2068	1063	3848	79
65	0	0	2026	1063	3849	77
66	0	0	1994	1064	3847	78
67	0	0	2024	1066	3847	79
68	0	0	2100	1065	3848	77
69	0	0	2149	1065	3849	76
70	0	0	2141	1062	3848	77
71	0	0	2087	1061	3848	77
72	0	0	2036	1061	3848	77
73	0	0	2021	1063	3848	77
74	0	0	2022	1063	3847	75
75	0	0	2026	1061	3847	77
76	0	0	2035	1059	3847	77
77	0	0	1979	1059	3847	77
78	0	0	1889	1058	3848	76
79	0	0	1824	1058	3848	79
80	0	0	1819	1062	3848	78
81	0	0	1869	1063	3848	78
82	0	0	1996	1064	3848	78
83	0	0	2160	1064	3849	77
84	0	0	2233	1064	3847	75
85	0	0	2239	1066	3848	77
86	0	0	2194	1060	3845	79
87	0	0	2162	1065	3847	77
88	0	0	2182	1065	3848	76
89	0	0	2204	1066	3847	79
90	0	0	2180	1062	3849	77
91	0	0	2157	1064	3848	80
92	0	0	2171	1063	3849	77
93	0	0	2197	1063	3848	77
94	0	0	2164	1059	3848	73
95	0	0	2147	1062	3849	77
96	0	0	2194	1062	3847	76
97	0	0	2214	1060	3849	77
98	0	0	2184	1058	3849	78
99	0	0	2118	1058	3849	77
100	0	0	2038	1058	3847	78
101	0	0	1994	1060	3847	78
102	0	0	2013	1063	3847	77
103	0	0	2085	1064	3849	78
104	0	0	2149	1064	3847	75
105	0	0	2218	1065	3848	77
106	0	0	2255	1065	3848	80
107	0	0	2217	1064	3848	76
108	0	0	2182	1062	3849	76
109	0	0	2133	1062	3848	75
110	0	0	2085	1062	3849	77
111	0	0	2048	1061	3849	79
112	0	0	2049	1064	3850	77
113	0	0	2066	1064	3849	77
114	0	0	2032	1059	3848	72
115	0	0	1963	1059	3848	77
116	0	0	1916	1058	3849	76
117	0	0	1853	1058	3848	76
118	0	0	1836	1061	3848	76
119	0	0	1910	1062	3847	75
120	0	0	1987	1063	3847	78
121	0	0	2063	1063	3845	79
122	0	0	2134	1065	3847	77
123	0	0	2147	1062	3849	77
124	0	0	2099	1061	3848	76
125	0	0	2060	1065	3847	78
126	0	0	2092	1066	3849	77
127	0	0	2163	1067	3851	77
0	0	0	2174	1064	3849	77
1	0	0	2142	1063	3848	73
2	0	0	2134	1066	3849	77
3	0	0	2150	1066	3848	76
4	0	0	2148	1065	3847	75
5	0	0	2132	1063	3848	76
6	0	0	2124	1063	3847	73
7	0	0	2125	1063	3848	77
8	0	0	2145	1063	3845	78
9	0	0	2178	1063	3847	77
10	0	0	2114	1059	3849	76
11	0	0	2061	1060	3847	76
12	0	0	2042	1063	3847	77
13	0	0	1988	1059	3850	79
14	0	0	1948	1062	3848	77
15	0	0	1960	1063	3850	78
16	0	0	2045	1064	3848	75
17	0	0	2145	1066	3848	78
18	0	0	2172	1066	3849	77
19	0	0	2182	1066	3849	77
20	0	0	2145	1062	3849	78
21	0	0	2124	1067	3847	76
22	0	0	2134	1067	3848	77
23	0	0	2147	1066	3845	78
24	0	0	2194	1065	3846	76
25	0	0	2236	1064	3849	76
26	0	0	2228	1061	3847	74
27	0	0	2167	1059	3847	77
28	0	0	2071	1058	3849	79
29	0	0	1998	1060	3848	76
30	0	0	1984	1061	3848	77
31	0	0	2022	1063	3849	75
32	0	0	2091	1063	3849	77
33	0	0	2121	1063	3848	78
34	0	0	2118	1064	3847	80
35	0	0	2133	1064	3849	77
36	0	0	2171	1065	3848	76
37	0	0	2240	1067	3849	76
38	0	0	2258	1065	3847	79
39	0	0	2218	1064	3848	76
40	0	0	2147	1062	3848	77
41	0	0	2069	1063	3848	77
42	0	0	2004	1063	3848	77
43	0	0	2024	1066	3849	76
44	0	0	2135	1066	3849	76
45	0	0	2192	1064	3848	76
46	0	0	2209	1064	3847	72
47	0	0	2198	1061	3847	76
48	0	0	2169	1060	3844	78
49	0	0	2145	1060	3847	76
50	0	0	2114	1060	3849	77
51	0	0	2121	1063	3848	77
52	0	0	2180	1063	3848	78
53	0	0	2206	1063	3850	79
54	0	0	2160	1063	3848	78
55	0	0	2097	1062	3848	77
56	0	0	2064	1063	3849	77
57	0	0	2054	1067	3847	77
58	0	0	2054	1065	3847	75
59	0	0	2080	1067	3846	76
60	0	0	2145	1067	3848	76
61	0	0	2192	1067	3848	77
62	0	0	2246	1066	3847	77
63	0	0	2259	1065	3848	79
64	0	0	2230	1064	3848	76
65	0	0	2194	1062	3850	76
66	0	0	2122	1060	3848	76
67	0	0	2051	1060	3849	76
68	0	0	1978	1061	3848	74
69	0	0	1952	1064	3847	76
70	0	0	2002	1063	3849	73
71	0	0	2055	1063	3847	76
72	0	0	2093	1063	3848	78
73	0	0	2133	1062	3848	77
74	0	0	2169	1065	3849	80
75	0	0	2207	1066	3848	78
76	0	0	2235	1065	3847	78
77	0	0	2256	1065	3847	78
78	0	0	2239	1066	3849	78
79	0	0	2211	1066	3847	76
80	0	0	2169	1063	3848	78
81	0	0	2134	1066	3848	77
82	0	0	2144	1067	3850	76
83	0	0	2129	1064	3851	76
84	0	0	2116	1065	3848	76
85	0	0	2104	1063	3849	76
86	0	0	2073	1061	3851	76
87	0	0	2030	1060	3848	77
88	0	0	2011	1061	3847	77
89	0	0	2003	1065	3847	77
90	0	0	1999	1063	3848	77
91	0	0	1978	1061	3847	78
92	0	0	1977	1064	3848	78
93	0	0	2001	1065	3847	77
94	0	0	2094	1066	3847	76
95	0	0	2222	1070	3848	77
96	0	0	2292	1068	3848	77
97	0	0	2308	1066	3848	78
98	0	0	2268	1063	3848	78
99	0	0	2215	1064	3849	77
100	0	0	2167	1066	3849	77
101	0	0	2118	1063	3850	76
102	0	0	2075	1066	3848	77
103	0	0	2123	1063	3849	78
104	0	0	2158	1066	3848	78
105	0	0	2149	1067	3848	76
106	0	0	2141	1064	3847	75
107	0	0	2152	1064	3847	77
108	0	0	2173	1064	3847	77
109	0	0	2174	1063	3848	77
110	0	0	2140	1063	3848	77
111	0	0	2130	1063	3847	77
112	0	0	2144	1064	3848	78
113	0	0	2159	1066	3847	77
114	0	0	2130	1063	3848	78
115	0	0	2107	1064	3849	78
116	0	0	2103	1066	3848	78
117	0	0	2118	1066	3848	77
118	0	0	2089	1066	3847	77
119	0	0	2043	1065	3848	78
120	0	0	2051	1071	3848	77
121	0	0	2100	1067	3848	77
122	0	0	2132	1067	3848	77
123	0	0	2147	1070	3847	76
124	0	0	2157	1067	3848	77
125	0	0	2132	1065	3848	77
126	0	0	2101	1064	3847	77
127	0	0	2089	1064	3847	73
0	0	0	2118	1066	3847	77
1	0	0	2167	1063	3850	77
2	0	0	2206	1063	3849	76
3	0	0	2188	1061	3848	78
4	0	0	2184	1063	3850	77
5	0	0	2236	1066	3848	75
6	0	0	2291	1065	3849	79
7	0	0	2308	1068	3849	78
8	0	0	2287	1062	3849	78
9	0	0	2249	1064	3847	78
10	0	0	2227	1066	3848	78
11	0	0	2223	1068	3849	76
12	0	0	2200	1065	3848	77
13	0	0	2177	1066	3849	77
14	0	0	2169	1068	3847	76
15	0	0	2211	1066	3848	77
16	0	0	2237	1066	3849	75
17	0	0	2201	1065	3849	77
18	0	0	2174	1064	3849	74
19	0	0	2166	1064	3848	77
20	0	0	2174	1065	3848	76
21	0	0	2168	1061	3850	79
22	0	0	2118	1059	3849	77
23	0	0	2069	1060	3848	77
24	0	0	2058	1063	3849	77
25	0	0	2115	1064	3847	78
26	0	0	2191	1066	3851	79
27	0	0	2256	1066	3848	77
28	0	0	2287	1066	3847	79
29	0	0	2296	1066	3847	77
30	0	0	2248	1064	3848	79
31	0	0	2159	1063	3848	77
32	0	0	2092	1064	3848	77
33	0	0	2047	1064	3848	77
34	0	0	2001	1063	3847	77
35	0	0	2001	1066	3848	75
36	0	0	2048	1067	3851	79
37	0	0	2136	1066	3850	76
38	0	0	2213	1065	3848	77
39	0	0	2239	1065	3848	76
40	0	0	2260	1063	3847	76
41	0	0	2286	1065	3850	77
42	0	0	2274	1062	3849	77
43	0	0	2252	1063	3847	76
44	0	0	2243	1063	3847	78
45	0	0	2219	1065	3848	77
46	0	0	2221	1067	3849	77
47	0	0	2221	1067	3848	77
48	0	0	2218	1067	3849	78
49	0	0	2234	1068	3847	78
50	0	0	2252	1068	3848	78
51	0	0	2276	1068	3850	79
52	0	0	2303	1068	3848	76
53	0	0	2293	1064	3849	78
54	0	0	2255	1064	3849	76
55	0	0	2216	1065	3848	75
56	0	0	2224	1066	3849	77
57	0	0	2251	1065	3848	76
58	0	0	2210	1061	3846	78
59	0	0	2117	1060	3847	76
60	0	0	2073	1064	3847	77
61	0	0	2094	1065	3848	75
62	0	0	2114	1064	3848	78
63	0	0	2099	1061	3846	77
64	0	0	2087	1064	3848	78
65	0	0	2117	1064	3848	78
66	0	0	2117	1063	3848	75
67	0	0	2048	1060	3849	78
68	0	0	2001	1065	3849	77
69	0	0	2050	1068	3848	77
70	0	0	2221	1067	3849	77
71	0	0	2415	1066	3849	77
72	0	0	2482	1068	3849	77
73	0	0	2465	1067	3848	77
74	0	0	2444	1066	3850	79
75	0	0	2424	1068	3848	78
76	0	0	2396	1065	3848	74
77	0	0	2345	1063	3848	74
78	0	0	2307	1062	3847	77
79	0	0	2268	1063	3845	76
80	0	0	2267	1063	3848	77
81	0	0	2218	1061	3848	75
82	0	0	2154	1060	3848	77
83	0	0	2128	1062	3849	76
84	0	0	2116	1063	3847	78
85	0	0	2130	1065	3849	77
86	0	0	2192	1067	3850	77
87	0	0	2237	1066	3848	79
88	0	0	2250	1067	3848	78
89	0	0	2273	1066	3848	78
90	0	0	2325	1067	3849	78
91	0	0	2384	1068	3848	77
92	0	0	2413	1068	3847	76
93	0	0	2389	1064	3848	76
94	0	0	2314	1063	3848	76
95	0	0	2217	1062	3848	77
96	0	0	2132	1062	3847	74
97	0	0	2084	1064	3848	76
98	0	0	2078	1065	3848	74
99	0	0	2070	1064	3849	75
100	0	0	2081	1065	3850	79
101	0	0	2096	1064	3849	77
102	0	0	2102	1064	3849	77
103	0	0	2133	1064	3848	79
104	0	0	2206	1065	3847	77
105	0	0	2296	1064	3849	77
106	0	0	2360	1066	3851	79
107	0	0	2353	1063	3849	77
108	0	0	2302	1063	3846	79
109	0	0	2229	1063	3848	78
110	0	0	2156	1064	3848	77
111	0	0	2076	1063	3847	74
112	0	0	1988	1065	3848	76
113	0	0	2029	1069	3847	77
114	0	0	2137	1067	3850	77
115	0	0	2173	1067	3847	77
116	0	0	2196	1067	3848	76
117	0	0	2258	1066	3849	76
118	0	0	2330	1066	3846	76
119	0	0	2307	1062	3847	76
120	0	0	2206	1059	3848	76
121	0	0	2134	1060	3847	76
122	0	0	2103	1062	3850	77
123	0	0	2121	1064	3849	77
124	0	0	2185	1065	3848	77
125	0	0	2289	1063	3848	77
126	0	0	2351	1066	3848	75
127	0	0	2390	1067	3848	77
0	0	0	2411	1067	3847	78
1	0	0	2433	1067	3847	79
2	0	0	2438	1067	3848	78
3	0	0	2395	1065	3849	77
4	0	0	2365	1069	3849	77
5	0	0	2364	1068	3849	76
6	0	0	2351	1067	3848	77
7	0	0	2325	1064	3849	76
8	0	0	2289	1065	3850	77
9	0	0	2269	1063	3849	75
10	0	0	2251	1063	3848	76
11	0	0	2212	1060	3848	77
12	0	0	2190	1063	3848	77
13	0	0	2190	1064	3847	78
14	0	0	2185	1063	3848	77
15	0	0	2166	1063	3848	78
16	0	0	2163	1065	3848	78
17	0	0	2191	1066	3848	78
18	0	0	2239	1067	3850	78
19	0	0	2275	1067	3849	77
20	0	0	2268	1065	3847	77
21	0	0	2235	1065	3849	77
22	0	0	2217	1068	3849	77
23	0	0	2211	1068	3847	78
24	0	0	2203	1067	3848	77
25	0	0	2165	1065	3848	79
26	0	0	2152	1067	3848	77
27	0	0	2206	1067	3849	76
28	0	0	2253	1067	3847	76
29	0	0	2265	1065	3849	77
30	0	0	2212	1062	3848	76
31	0	0	2181	1066	3847	78
32	0	0	2219	1065	3848	77
33	0	0	2246	1062	3847	77
34	0	0	2150	1059	3848	77
35	0	0	1946	1059	3848	76
36	0	0	1734	1060	3848	78
37	0	0	1736	1066	3848	78
38	0	0	1870	1067	3849	77
39	0	0	2074	1061	3849	77
40	0	0	2204	1067	3848	78
41	0	0	2252	1068	3849	79
42	0	0	2290	1067	3848	76
43	0	0	2313	1069	3847	78
44	0	0	2372	1067	3849	76
45	0	0	2387	1067	3848	78
46	0	0	2337	1064	3848	77
47	0	0	2212	1064	3847	76
48	0	0	2008	1063	3847	76
49	0	0	1877	1063	3849	76
50	0	0	1889	1066	3847	76
51	0	0	2005	1065	3847	76
52	0	0	2158	1065	3847	77
53	0	0	2254	1065	3848	77
54	0	0	2307	1064	3848	77
55	0	0	2338	1064	3848	78
56	0	0	2325	1062	3848	78
57	0	0	2265	1063	3847	77
58	0	0	2192	1063	3847	78
59	0	0	2173	1065	3851	77
60	0	0	2239	1067	3848	78
61	0	0	2313	1068	3848	78
62	0	0	2321	1068	3847	77
63	0	0	2284	1065	3849	78
64	0	0	2243	1064	3849	77
65	0	0	2238	1068	3847	76
66	0	0	2227	1067	3848	77
67	0	0	2200	1066	3847	76
68	0	0	2171	1065	3848	77
69	0	0	2139	1063	3848	80
70	0	0	2138	1066	3846	75
71	0	0	2146	1064	3848	77
72	0	0	2137	1065	3848	77
73	0	0	2136	1065	3848	76
74	0	0	2127	1064	3849	76
75	0	0	2105	1061	3848	78
76	0	0	2056	1063	3849	77
77	0	0	2040	1066	3848	77
78	0	0	2060	1066	3847	78
79	0	0	2022	1063	3850	77
80	0	0	1993	1067	3848	79
81	0	0	2022	1068	3850	77
82	0	0	2085	1069	3848	79
83	0	0	2188	1069	3848	77
84	0	0	2285	1068	3849	77
85	0	0	2291	1066	3850	76
86	0	0	2243	1066	3847	77
87	0	0	2200	1064	3848	77
88	0	0	2129	1063	3848	77
89	0	0	2102	1066	3848	76
90	0	0	2148	1066	3848	76
91	0	0	2108	1063	3847	76
92	0	0	2006	1062	3847	76
93	0	0	2011	1065	3847	77
94	0	0	2057	1064	3850	77
95	0	0	2085	1061	3848	78
96	0	0	2123	1066	3848	77
97	0	0	2141	1066	3849	78
98	0	0	2124	1062	3848	78
99	0	0	2059	1064	3849	77
100	0	0	2071	1067	3848	79
101	0	0	2171	1067	3850	78
102	0	0	2289	1069	3848	80
103	0	0	2372	1069	3845	77
104	0	0	2423	1069	3849	77
105	0	0	2404	1065	3848	77
106	0	0	2312	1063	3848	76
107	0	0	2195	1063	3848	75
108	0	0	2135	1064	3848	77
109	0	0	2115	1066	3849	76
110	0	0	2127	1066	3848	75
111	0	0	2147	1065	3848	78
112	0	0	2162	1066	3847	76
113	0	0	2153	1061	3846	77
114	0	0	2090	1062	3850	77
115	0	0	2035	1062	3848	76
116	0	0	2051	1063	3850	77
117	0	0	2122	1066	3849	75
118	0	0	2186	1066	3849	78
119	0	0	2208	1066	3848	79
120	0	0	2208	1066	3848	78
121	0	0	2209	1068	3849	78
122	0	0	2169	1065	3849	78
123	0	0	2137	1069	3848	78
124	0	0	2159	1068	3850	77
125	0	0	2201	1068	3850	78
126	0	0	2224	1068	3850	77
127	0	0	2221	1068	3850	61
0	0	0	2163	1064	3850	78
1	0	0	2074	1064	3850	77
2	0	0	2022	1064	3850	76
3	0	0	2041	1065	3851	75
4	0	0	2094	1066	3848	76
5	0	0	2105	1064	3848	77
6	0	0	2089	1063	3851	77
7	0	0	2092	1065	3849	76
8	0	0	2129	1065	3851	78
9	0	0	2213	1068	3849	76
10	0	0	2296	1067	3852	78
11	0	0	2325	1067	3851	77
12	0	0	2296	1065	3849	78
13	0	0	2288	1068	3849	78
14	0	0	2316	1069	3850	78
15	0	0	2365	1069	3850	78
16	0	0	2426	1068	3850	77
17	0	0	2475	1070	3851	76
18	0	0	2456	1065	3848	77
19	0	0	2377	1064	3850	77
20	0	0	2328	1069	3850	77
21	0	0	2378	1068	3851	77
22	0	0	2459	1067	3849	75
23	0	0	2524	1066	3849	75
24	0	0	2565	1065	3850	77
25	0	0	2552	1067	3848	77
26	0	0	2567	1065	3850	77
27	0	0	2604	1066	3849	77
28	0	0	2606	1066	3849	78
29	0	0	2582	1064	3849	75
30	0	0	2561	1067	3850	78
31	0	0	2574	1068	3851	78
32	0	0	2618	1068	3851	78
33	0	0	2676	1068	3850	78
34	0	0	2696	1071	3849	77
35	0	0	2658	1066	3850	77
36	0	0	2588	1065	3851	77
37	0	0	2528	1066	3849	77
38	0	0	2499	1068	3850	76
39	0	0	2490	1069	3851	75
40	0	0	2465	1065	3850	76
41	0	0	2387	1063	3849	76
42	0	0	2278	1062	3849	75
43	0	0	2184	1062	3849	76
44	0	0	2127	1063	3849	77
45	0	0	2091	1062	3850	77
46	0	0	2046	1062	3851	77
47	0	0	1993	1061	3850	77
48	0	0	1977	1069	3850	78
49	0	0	2036	1067	3851	79
50	0	0	2116	1067	3851	150
51	0	0	2153	1069	3852	755
52	0	0	2190	1068	3850	1622
53	0	0	2221	1067	3851	2350
54	0	0	2204	1069	3849	2850
55	0	0	2181	1066	3851	3177
56	0	0	2133	1065	3850	3389
57	0	0	2056	1065	3852	3529
58	0	0	1985	1066	3851	3624
59	0	0	1970	1070	3850	3694
60	0	0	2019	1067	3851	3744
61	0	0	2096	1066	3851	3783
62	0	0	2107	1064	3851	3812
63	0	0	2070	1062	3851	3837
64	0	0	2064	1064	3853	3854
65	0	0	2110	1064	3851	3868
66	0	0	2130	1062	3852	3883
67	0	0	2088	1062	3852	3893
68	0	0	2075	1064	3851	3902
69	0	0	2096	1067	3851	3910
70	0	0	2162	1067	3853	3917
71	0	0	2211	1067	3852	3923
72	0	0	2226	1068	3852	3929
73	0	0	2199	1067	3852	3932
74	0	0	2198	1070	3851	3936
75	0	0	2206	1070	3850	3938
76	0	0	2183	1065	3851	3944
77	0	0	2126	1065	3852	3946
78	0	0	2075	1067	3853	3950
79	0	0	2045	1067	3853	3951
80	0	0	2037	1068	3851	3952
81	0	0	2063	1067	3852	3955
82	0	0	2072	1066	3852	3959
83	0	0	2056	1068	3852	3960
84	0	0	2062	1067	3851	3962
85	0	0	2103	1066	3854	3962
86	0	0	2095	1061	3852	3963
87	0	0	1994	1061	3852	3964
88	0	0	1908	1060	3851	3967
89	0	0	1898	1067	3852	3968
90	0	0	1968	1067	3853	3967
91	0	0	2044	1067	3852	3970
92	0	0	2121	1068	3852	3971
93	0	0	2165	1068	3851	3971
94	0	0	2177	1069	3851	3972
95	0	0	2160	1067	3852	3974
96	0	0	2149	1069	3851	3974
97	0	0	2142	1069	3851	3974
98	0	0	2156	1069	3850	3974
99	0	0	2187	1070	3852	3976
100	0	0	2189	1064	3851	3974
101	0	0	2114	1065	3852	3976
102	0	0	2058	1062	3851	3977
103	0	0	2018	1063	3850	3976
104	0	0	2005	1066	3851	3976
105	0	0	2027	1066	3851	3981
106	0	0	2051	1065	3851	3980
107	0	0	2070	1065	3850	3980
108	0	0	2084	1067	3850	3981
109	0	0	2084	1068	3851	3980
110	0	0	2115	1067	3849	3980
111	0	0	2143	1067	3852	3981
112	0	0	2152	1069	3850	3981
113	0	0	2174	1069	3848	3982
114	0	0	2211	1070	3849	3982
115	0	0	2225	1069	3851	3984
116	0	0	2199	1066	3851	3983
117	0	0	2162	1065	3851	3983
118	0	0	2148	1069	3850	3982
119	0	0	2134	1066	3852	3984
120	0	0	2095	1065	3849	3987
121	0	0	2064	1065	3851	3984
122	0	0	2079	1067	3850	3984
123	0	0	2128	1064	3849	3987
124	0	0	2159	1066	3850	3985
125	0	0	2152	1064	3851	3986
126	0	0	2100	1061	3851	3986
127	0	0	2033	1061	3850	3985
0	0	0	2003	1062	3850	3987
1	0	0	1994	1065	3853	3985
2	0	0	2016	1069	3851	3987
3	0	0	2029	1067	3851	3987
4	0	0	2019	1067	3851	3987
5	0	0	2040	1068	3850	3987
6	0	0	2083	1067	3852	3987
7	0	0	2109	1070	3851	3987
8	0	0	2116	1069	3851	3988
9	0	0	2106	1067	3849	3987
10	0	0	2093	1069	3850	3988
11	0	0	2111	1067	3853	3987
12	0	0	2123	1068	3851	3988
13	0	0	2151	1068	3851	3988
14	0	0	2157	1067	3855	3987
15	0	0	2123	1062	3851	3990
16	0	0	2019	1060	3851	3992
17	0	0	1913	1060	3850	3990
18	0	0	1864	1063	3852	3990
19	0	0	1872	1065	3850	3990
20	0	0	1947	1066	3851	3991
21	0	0	2023	1067	3852	3991
22	0	0	2083	1067	3851	3993
23	0	0	2138	1067	3851	3991
24	0	0	2160	1067	3850	3990
25	0	0	2170	1068	3849	3990
26	0	0	2153	1066	3848	3991
27	0	0	2096	1066	3849	3992
28	0	0	2083	1069	3849	3991
29	0	0	2135	1069	3850	3992
30	0	0	2163	1069	3849	3991
31	0	0	2136	1065	3850	3991
32	0	0	2076	1064	3850	3992
33	0	0	2028	1065	3850	3992
34	0	0	2015	1064	3850	3992
35	0	0	1974	1059	3851	3991
36	0	0	1944	1065	3849	3992
37	0	0	1989	1066	3851	3992
38	0	0	2067	1062	3848	3993
39	0	0	2103	1064	3849	3992
40	0	0	2079	1063	3849	3991
41	0	0	1998	1063	3848	3992
42	0	0	1984	1067	3850	3994
43	0	0	2051	1066	3849	3993
44	0	0	2117	1067	3848	3992
45	0	0	2146	1068	3848	3992
46	0	0	2165	1068	3847	3992
47	0	0	2173	1069	3848	3995
48	0	0	2175	1068	3849	3994
49	0	0	2147	1064	3849	3992
50	0	0	2126	1068	3849	3992
51	0	0	2092	1064	3851	3992
52	0	0	2014	1064	3849	3994
53	0	0	1955	1065	3848	3994
54	0	0	1939	1066	3849	3993
55	0	0	1934	1065	3849	3994
56	0	0	1960	1065	3848	3993
57	0	0	1991	1063	3849	3996
58	0	0	2014	1065	3850	3994
59	0	0	2042	1065	3848	3993
60	0	0	2054	1066	3849	3993
61	0	0	2069	1065	3849	3993
62	0	0	2107	1067	3848	3994
63	0	0	2149	1065	3850	3994
64	0	0	2137	1065	3850	3995
65	0	0	2127	1068	3849	3994
66	0	0	2140	1069	3848	3993
67	0	0	2153	1069	3849	3996
68	0	0	2152	1068	3849	3994
69	0	0	2127	1066	3849	3994
70	0	0	2095	1066	3849	3995
71	0	0	2129	1069	3850	3992
72	0	0	2198	1068	3850	3996
73	0	0	2219	1067	3848	3995
74	0	0	2152	1061	3849	3994
75	0	0	2015	1062	3848	3994
76	0	0	1917	1061	3851	3995
77	0	0	1862	1062	3849	3996
78	0	0	1848	1064	3848	3995
79	0	0	1849	1064	3847	3995
80	0	0	1860	1065	3849	3995
81	0	0	1917	1064	3847	3995
82	0	0	1952	1066	3849	3997
83	0	0	1916	1063	3849	3996
84	0	0	1911	1067	3848	3995
85	0	0	2006	1068	3849	3996
86	0	0	2104	1069	3849	3995
87	0	0	2113	1065	3849	3996
88	0	0	2055	1065	3850	3996
89	0	0	1994	1064	3849	3995
90	0	0	1949	1067	3852	3997
91	0	0	1969	1068	3849	3997
92	0	0	2057	1067	3849	3997
93	0	0	2087	1066	3850	3997
94	0	0	2020	1062	3848	3995
95	0	0	1959	1062	3849	3993
96	0	0	1957	1065	3847	3995
97	0	0	1974	1065	3848	3995
98	0	0	1977	1065	3846	3994
99	0	0	1993	1064	3849	3996
100	0	0	2035	1066	3848	3995
101	0	0	2066	1065	3849	3996
102	0	0	2098	1065	3848	3996
103	0	0	2096	1068	3848	3997
104	0	0	2111	1067	3849	3995
105	0	0	2147	1068	3849	3996
106	0	0	2173	1069	3849	3996
107	0	0	2201	1068	3851	3998
108	0	0	2222	1068	3847	3996
109	0	0	2232	1069	3850	3997
110	0	0	2197	1066	3848	3996
111	0	0	2075	1062	3851	3996
112	0	0	1893	1063	3849	3996
113	0	0	1797	1064	3848	3997
114	0	0	1835	1065	3848	3996
115	0	0	1920	1066	3849	3996
116	0	0	2010	1064	3847	3997
117	0	0	2088	1065	3849	3998
118	0	0	2091	1061	3847	3998
119	0	0	2062	1064	3849	3996
120	0	0	2067	1064	3849	3996
121	0	0	2040	1062	3848	3997
122	0	0	2018	1065	3851	3996
123	0	0	2014	1067	3850	3998
124	0	0	2042	1066	3849	3996
125	0	0	2135	1067	3850	3999
126	0	0	2219	1068	3849	3998
127	0	0	2216	1064	3849	3998
0	0	0	2139	1064	3849	3998
1	0	0	2108	1069	3848	3997
2	0	0	2118	1067	3848	3997
3	0	0	2072	1065	3847	3996
4	0	0	2026	1064	3850	3996
5	0	0	2010	1067	3846	3998
6	0	0	2004	1064	3849	3996
7	0	0	1977	1062	3848	3997
8	0	0	1942	1062	3849	3997
9	0	0	1929	1064	3850	3998
10	0	0	1952	1064	3849	3997
11	0	0	2005	1063	3849	3997
12	0	0	2082	1064	3850	3997
13	0	0	2140	1065	3849	3998
14	0	0	2151	1066	3849	3999
15	0	0	2125	1063	3850	3999
16	0	0	2069	1062	3848	3997
17	0	0	2001	1063	3849	3995
18	0	0	1951	1064	3847	3997
19	0	0	1900	1064	3848	3996
20	0	0	1883	1067	3849	3998
21	0	0	1920	1068	3848	3997
22	0	0	1978	1068	3848	3997
23	0	0	2019	1068	3847	3997
24	0	0	2077	1066	3849	3996
25	0	0	2115	1067	3848	3998
26	0	0	2078	1062	3849	3997
27	0	0	2013	1061	3849	3997
28	0	0	2005	1066	3849	3998
29	0	0	2011	1063	3851	3999
30	0	0	1975	1059	3848	3999
31	0	0	1949	1061	3850	3999
32	0	0	1935	1066	3848	3997
33	0	0	1954	1065	3849	3997
34	0	0	2023	1065	3848	3999
35	0	0	2105	1065	3849	3999
36	0	0	2169	1066	3849	4000
37	0	0	2197	1066	3848	3997
38	0	0	2198	1067	3848	3998
39	0	0	2153	1064	3849	3999
40	0	0	2093	1064	3849	3999
41	0	0	2047	1063	3848	3998
42	0	0	2025	1066	3849	3999
43	0	0	2014	1066	3849	3998
44	0	0	2018	1067	3850	3998
45	0	0	2066	1066	3850	3998
46	0	0	2102	1065	3849	3998
47	0	0	2108	1064	3848	3998
48	0	0	2110	1064	3848	3997
49	0	0	2114	1063	3847	3997
50	0	0	2110	1064	3847	3998
51	0	0	2088	1061	3849	3999
52	0	0	2054	1063	3848	3998
53	0	0	2056	1064	3849	3998
54	0	0	2086	1066	3851	3999
55	0	0	2134	1066	3848	4001
56	0	0	2158	1067	3849	3998
57	0	0	2143	1064	3850	3997
58	0	0	2117	1065	3849	3997
59	0	0	2089	1065	3849	3999
60	0	0	2042	1065	3847	3998
61	0	0	1993	1064	3849	3998
62	0	0	1984	1067	3850	3998
63	0	0	2013	1066	3848	3998
64	0	0	2038	1066	3848	4000
65	0	0	2035	1067	3849	3998
66	0	0	2032	1065	3848	3998
67	0	0	2013	1065	3848	3998
68	0	0	2028	1064	3848	3999
69	0	0	2030	1065	3848	3997
70	0	0	2020	1064	3846	3999
71	0	0	2017	1064	3849	3997
72	0	0	2020	1064	3848	3998
73	0	0	2033	1065	3848	3998
74	0	0	2055	1065	3850	3999
75	0	0	2036	1062	3849	4000
76	0	0	1966	1063	3849	3999
77	0	0	1914	1063	3849	3998
78	0	0	1911	1067	3849	3997
79	0	0	1895	1065	3848	3998
80	0	0	1870	1066	3849	3999
81	0	0	1878	1067	3847	3999
82	0	0	1936	1067	3848	3998
83	0	0	2008	1067	3848	3998
84	0	0	2064	1067	3849	4000
85	0	0	2052	1064	3847	3998
86	0	0	2010	1061	3848	3995
87	0	0	1947	1061	3849	4000
88	0	0	1944	1064	3849	3996
89	0	0	2006	1063	3849	3997
90	0	0	2033	1063	3849	3999
91	0	0	1982	1060	3849	3999
92	0	0	1945	1062	3850	3999
93	0	0	1936	1062	3850	3999
94	0	0	1866	1061	3849	3999
95	0	0	1792	1063	3850	4000
96	0	0	1817	1066	3848	3998
97	0	0	1897	1067	3850	4001
98	0	0	1956	1068	3849	4000
99	0	0	2007	1067	3849	3997
100	0	0	2033	1067	3847	4000
101	0	0	2038	1068	3848	3998
102	0	0	2046	1065	3848	3998
103	0	0	1979	1064	3849	3998
104	0	0	1894	1062	3849	4000
105	0	0	1880	1066	3848	4001
106	0	0	1929	1065	3850	4001
107	0	0	1938	1066	3848	3999
108	0	0	1905	1061	3848	3999
109	0	0	1847	1061	3850	4000
110	0	0	1803	1060	3851	4000
111	0	0	1776	1060	3849	3999
112	0	0	1759	1062	3850	4001
113	0	0	1778	1064	3849	3998
114	0	0	1802	1064	3849	4000
115	0	0	1838	1065	3848	4000
116	0	0	1885	1065	3848	3998
117	0	0	1946	1065	3847	3999
118	0	0	1966	1067	3848	3999
119	0	0	1966	1068	3849	4000
120	0	0	1959	1067	3848	4000
121	0	0	1973	1067	3848	3999
122	0	0	1984	1066	3848	3999
123	0	0	1969	1064	3849	3999
124	0	0	1942	1064	3850	4000
125	0	0	1910	1061	3849	4000
126	0	0	1846	1061	3850	3997
127	0	0	1805	1063	3849	4000
0	0	0	1828	1064	3849	3999
1	0	0	1878	1063	3850	4001
2	0	0	1874	1060	3848	4000
3	0	0	1830	1060	3848	3999
4	0	0	1807	1060	3847	3999
5	0	0	1808	1064	3849	3999
6	0	0	1855	1064	3849	4000
7	0	0	1939	1062	3848	3999
8	0	0	1973	1064	3848	3999
9	0	0	1990	1066	3849	4001
10	0	0	1982	1066	3849	4000
11	0	0	1986	1066	3848	3996
12	0	0	1984	1065	3849	3999
13	0	0	1937	1062	3848	3999
14	0	0	1872	1062	3849	4001
15	0	0	1857	1067	3850	4002
16	0	0	1874	1065	3850	4000
17	0	0	1859	1062	3852	4001
18	0	0	1856	1064	3848	3999
19	0	0	1843	1061	3848	3999
20	0	0	1835	1063	3849	4000
21	0	0	1846	1061	3848	4000
22	0	0	1885	1062	3848	4000
23	0	0	1942	1062	3848	4000
24	0	0	1974	1059	3847	4000
25	0	0	1970	1059	3850	3999
26	0	0	1919	1060	3849	3998
27	0	0	1896	1065	3850	3999
28	0	0	1931	1062	3848	3999
29	0	0	2001	1064	3847	3999
30	0	0	2041	1067	3849	4000
31	0	0	2044	1065	3849	3999
32	0	0	2018	1063	3850	4000
33	0	0	1994	1063	3849	3999
34	0	0	2009	1066	3850	3999
35	0	0	2066	1064	3850	4000
36	0	0	2069	1061	3849	3998
37	0	0	2007	1060	3850	4001
38	0	0	1951	1060	3848	3999
39	0	0	1960	1062	3848	4001
40	0	0	1963	1061	3849	4002
41	0	0	1947	1058	3849	3999
42	0	0	1914	1057	3850	4000
43	0	0	1875	1058	3848	3999
44	0	0	1856	1063	3847	3999
45	0	0	1872	1062	3848	3999
46	0	0	1907	1062	3850	3998
47	0	0	1901	1059	3850	4000
48	0	0	1862	1060	3849	3999
49	0	0	1868	1064	3849	3999
50	0	0	1913	1064	3849	4000
51	0	0	1976	1064	3849	3999
52	0	0	2044	1065	3850	4000
53	0	0	2102	1064	3848	3999
54	0	0	2096	1062	3848	4001
55	0	0	2036	1060	3850	4001
56	0	0	1974	1060	3849	3999
57	0	0	1939	1060	3850	4001
58	0	0	1921	1059	3848	3999
59	0	0	1886	1059	3849	3999
60	0	0	1879	1059	3848	3999
61	0	0	1854	1058	3849	4002
62	0	0	1787	1056	3851	3999
63	0	0	1755	1060	3848	3999
64	0	0	1828	1062	3849	3999
65	0	0	1952	1059	3851	4000
66	0	0	2071	1062	3851	3999
67	0	0	2112	1062	3850	4000
68	0	0	2099	1061	3848	3999
69	0	0	2083	1061	3849	3999
70	0	0	2036	1058	3849	4000
71	0	0	2023	1064	3849	3999
72	0	0	2057	1064	3851	3999
73	0	0	2080	1064	3849	4001
74	0	0	2081	1064	3849	4001
75	0	0	2041	1060	3848	3999
76	0	0	1970	1059	3849	3999
77	0	0	1968	1062	3851	3999
78	0	0	2012	1063	3849	4001
79	0	0	2059	1061	3849	4000
80	0	0	2035	1058	3848	3999
81	0	0	1971	1057	3850	3999
82	0	0	1880	1055	3849	3999
83	0	0	1807	1056	3849	4000
84	0	0	1795	1061	3850	3999
85	0	0	1863	1057	3847	3999
86	0	0	1937	1062	3849	3999
87	0	0	1977	1062	3851	3999
88	0	0	2022	1063	3849	4001
89	0	0	2051	1065	3847	4000
90	0	0	2050	1061	3849	3999
91	0	0	2013	1059	3848	3999
92	0	0	1949	1060	3849	4000
93	0	0	1891	1062	3847	3999
94	0	0	1915	1064	3849	4000
95	0	0	1972	1064	3851	4000
96	0	0	1982	1063	3849	4000
97	0	0	1934	1058	3851	3999
98	0	0	1809	1057	3849	4000
99	0	0	1716	1058	3848	4000
100	0	0	1718	1058	3850	3999
101	0	0	1768	1060	3849	4003
102	0	0	1837	1060	3848	4001
103	0	0	1930	1059	3848	3999
104	0	0	1986	1061	3849	3999
105	0	0	2026	1065	3849	4000
106	0	0	2079	1062	3849	3999
107	0	0	2098	1061	3849	3999
108	0	0	2043	1059	3849	4002
109	0	0	1945	1057	3847	3999
110	0	0	1885	1059	3848	4000
111	0	0	1900	1065	3849	3999
112	0	0	1934	1064	3848	4000
113	0	0	1959	1064	3850	4001
114	0	0	1991	1065	3852	4000
115	0	0	2033	1061	3851	3999
116	0	0	2018	1062	3850	4000
117	0	0	2034	1063	3850	4001
118	0	0	2044	1062	3848	4000
119	0	0	2001	1058	3850	4002
120	0	0	1904	1056	3849	3999
121	0	0	1811	1055	3849	4000
122	0	0	1783	1058	3849	4000
123	0	0	1790	1060	3848	4000
124	0	0	1846	1061	3848	4000
125	0	0	1946	1062	3848	3999
126	0	0	1990	1062	3849	4000
127	0	0	1994	1062	3848	4002
0	0	0	2042	1065	3847	3999
1	0	0	2063	1062	3848	4000
2	0	0	2014	1059	3849	4002
3	0	0	1948	1061	3849	4000
4	0	0	1909	1061	3850	4001
5	0	0	1862	1060	3849	4000
6	0	0	1824	1061	3851	4001
7	0	0	1791	1060	3850	4001
8	0	0	1777	1064	3849	4000
9	0	0	1799	1062	3848	4001
10	0	0	1845	1062	3848	4000
11	0	0	1894	1061	3848	4000
12	0	0	1932	1061	3850	3999
13	0	0	1927	1059	3849	3999
14	0	0	1899	1056	3847	3999
15	0	0	1898	1060	3852	3997
16	0	0	1939	1061	3848	4000
17	0	0	1929	1058	3849	4000
18	0	0	1930	1062	3849	4000
19	0	0	1998	1062	3847	4002
20	0	0	2084	1062	3848	3999
21	0	0	2118	1064	3849	4000
22	0	0	2106	1061	3848	3999
23	0	0	2048	1063	3849	3999
24	0	0	2060	1066	3847	4000
25	0	0	2102	1064	3848	4001
26	0	0	2088	1060	3848	4000
27	0	0	2027	1059	3849	4002
28	0	0	1974	1061	3849	3999
29	0	0	1967	1063	3848	4002
30	0	0	1973	1062	3846	4000
31	0	0	1944	1057	3848	4000
32	0	0	1893	1057	3848	4001
33	0	0	1860	1058	3850	4001
34	0	0	1884	1060	3848	4002
35	0	0	1955	1060	3850	4002
36	0	0	1985	1061	3847	4001
37	0	0	2015	1060	3849	4001
38	0	0	2043	1061	3850	4003
39	0	0	2040	1060	3849	4002
40	0	0	1981	1058	3850	4001
41	0	0	1913	1060	3847	4000
42	0	0	1869	1062	3848	4000
43	0	0	1886	1064	3848	4001
44	0	0	1925	1065	3848	4001
45	0	0	1976	1065	3848	4000
46	0	0	1993	1063	3848	3999
47	0	0	1967	1061	3848	3999
48	0	0	1955	1063	3849	4000
49	0	0	1964	1063	3849	4002
50	0	0	1990	1062	3848	4000
51	0	0	2001	1061	3848	4001
52	0	0	1995	1059	3847	4001
53	0	0	1968	1058	3850	4000
54	0	0	1951	1061	3849	4001
55	0	0	1965	1060	3850	4002
56	0	0	1956	1056	3851	3999
57	0	0	1920	1057	3846	4000
58	0	0	1858	1058	3849	4000
59	0	0	1780	1058	3849	4000
60	0	0	1747	1062	3848	4000
61	0	0	1836	1064	3849	4002
62	0	0	1986	1062	3848	4000
63	0	0	2123	1065	3848	4000
64	0	0	2203	1064	3848	4002
65	0	0	2218	1063	3848	4000
66	0	0	2151	1059	3848	4000
67	0	0	2075	1059	3849	4001
68	0	0	2056	1062	3850	4001
69	0	0	2023	1060	3849	4001
70	0	0	1973	1059	3850	4001
71	0	0	1907	1059	3849	4000
72	0	0	1904	1059	3847	4000
73	0	0	1978	1061	3849	4001
74	0	0	2063	1060	3851	4000
75	0	0	2100	1060	3848	4000
76	0	0	2111	1061	3848	4001
77	0	0	2065	1059	3848	3999
78	0	0	2004	1059	3849	4001
79	0	0	1985	1062	3847	4001
80	0	0	1988	1063	3848	4001
81	0	0	1987	1063	3848	4000
82	0	0	2009	1065	3848	3999
83	0	0	2060	1064	3849	4001
84	0	0	2089	1065	3849	4001
85	0	0	2073	1060	3849	4000
86	0	0	2040	1063	3848	4002
87	0	0	2035	1065	3850	4000
88	0	0	2029	1060	3849	4001
89	0	0	2020	1063	3849	4002
90	0	0	2031	1063	3848	4000
91	0	0	2017	1059	3847	4000
92	0	0	1974	1058	3848	4001
93	0	0	1941	1058	3848	4001
94	0	0	1900	1057	3847	4000
95	0	0	1889	1061	3847	4000
96	0	0	1949	1061	3848	4000
97	0	0	2013	1062	3849	4000
98	0	0	2016	1060	3849	4001
99	0	0	1962	1058	3849	4001
100	0	0	1911	1061	3848	4000
101	0	0	1952	1064	3848	4001
102	0	0	2034	1065	3849	4001
103	0	0	2110	1063	3849	4001
104	0	0	2132	1065	3849	3998
105	0	0	2123	1063	3849	4000
106	0	0	2096	1061	3849	4000
107	0	0	2042	1060	3848	4000
108	0	0	2019	1065	3849	4000
109	0	0	2040	1063	3848	4000
110	0	0	2059	1063	3848	4000
111	0	0	2034	1059	3848	4000
112	0	0	1998	1060	3848	3999
113	0	0	1964	1057	3848	4000
114	0	0	1921	1058	3848	3998
115	0	0	1930	1062	3849	4002
116	0	0	1982	1059	3847	4001
117	0	0	2051	1063	3849	4001
118	0	0	2077	1062	3850	4002
119	0	0	2080	1063	3848	4002
120	0	0	2109	1063	3849	4000
121	0	0	2134	1063	3848	4001
122	0	0	2138	1064	3849	4004
123	0	0	2140	1065	3849	4001
124	0	0	2138	1065	3848	3999
125	0	0	2162	1065	3847	4001
126	0	0	2156	1063	3849	4000
127	0	0	2100	1060	3850	4000
0	0	0	2024	1060	3849	4001
1	0	0	1975	1060	3847	3998
2	0	0	1947	1061	3847	4000
3	0	0	1943	1063	3848	4000
4	0	0	1942	1061	3849	4000
5	0	0	1950	1062	3848	4002
6	0	0	2001	1062	3848	4001
7	0	0	2042	1062	3849	4000
8	0	0	2051	1060	3849	4002
9	0	0	2019	1060	3850	4000
10	0	0	2032	1062	3850	4001
11	0	0	2081	1063	3848	3999
12	0	0	2120	1064	3848	4000
13	0	0	2139	1065	3848	4000
14	0	0	2115	1064	3848	3999
15	0	0	2057	1060	3848	4000
16	0	0	2000	1063	3847	3999
17	0	0	1951	1062	3849	4002
18	0	0	1916	1064	3847	4000
19	0	0	1925	1064	3848	3999
20	0	0	1927	1063	3849	4002
21	0	0	1971	1064	3849	4001
22	0	0	2036	1064	3848	4000
23	0	0	2042	1061	3848	4000
24	0	0	2032	1062	3848	3999
25	0	0	2032	1062	3849	4000
26	0	0	2060	1060	3848	3999
27	0	0	2098	1062	3848	4000
28	0	0	2111	1062	3848	4000
29	0	0	2090	1060	3850	4000
30	0	0	2060	1059	3849	4000
31	0	0	2031	1060	3847	3999
32	0	0	1996	1061	3848	4000
33	0	0	1966	1061	3847	4000
34	0	0	1924	1061	3847	4000
35	0	0	1908	1065	3848	4001
36	0	0	1916	1066	3848	3999
37	0	0	1955	1064	3849	4002
38	0	0	1994	1066	3848	3998
39	0	0	2012	1066	3849	4001
40	0	0	2043	1065	3850	4002
41	0	0	2038	1063	3849	4002
42	0	0	2028	1061	3847	4000
43	0	0	1999	1060	3849	4000
44	0	0	2006	1060	3849	4000
45	0	0	2033	1061	3849	4001
46	0	0	2061	1061	3848	3999
47	0	0	2065	1061	3847	4006
48	0	0	2074	1062	3849	4003
49	0	0	2037	1059	3849	4001
50	0	0	1993	1059	3849	4001
51	0	0	1993	1063	3848	3999
52	0	0	2018	1066	3848	4000
53	0	0	2035	1063	3847	4000
54	0	0	2044	1067	3848	4001
55	0	0	2063	1066	3849	4001
56	0	0	2057	1064	3848	3999
57	0	0	2025	1061	3849	4000
58	0	0	1951	1062	3849	4000
59	0	0	1879	1062	3850	4001
60	0	0	1879	1065	3850	4002
61	0	0	1940	1065	3850	4001
62	0	0	2011	1063	3848	4000
63	0	0	2030	1064	3848	4001
64	0	0	2039	1061	3847	4001
65	0	0	2012	1059	3848	4001
66	0	0	1977	1060	3849	4003
67	0	0	1989	1063	3848	4001
68	0	0	2055	1063	3848	3999
69	0	0	2126	1063	3849	4001
70	0	0	2196	1063	3850	4005
71	0	0	2272	1064	3848	4001
72	0	0	2296	1063	3848	4001
73	0	0	2237	1061	3847	4000
74	0	0	2153	1061	3848	4001
75	0	0	2085	1062	3849	4001
76	0	0	2086	1066	3847	4001
77	0	0	2113	1066	3848	4001
78	0	0	2150	1066	3848	3999
79	0	0	2177	1063	3849	4000
80	0	0	2210	1066	3849	4000
81	0	0	2167	1061	3849	4001
82	0	0	2077	1059	3848	4000
83	0	0	1983	1058	3847	4000
84	0	0	1889	1058	3847	4002
85	0	0	1857	1062	3847	4000
86	0	0	1956	1061	3847	3999
87	0	0	2101	1062	3848	3998
88	0	0	2128	1060	3848	4000
89	0	0	2101	1059	3849	4002
90	0	0	2121	1062	3849	4000
91	0	0	2234	1064	3848	4000
92	0	0	2319	1064	3849	4000
93	0	0	2359	1064	3848	4001
94	0	0	2390	1065	3848	4001
95	0	0	2352	1061	3849	4001
96	0	0	2271	1063	3847	4001
97	0	0	2179	1062	3848	4001
98	0	0	2118	1062	3847	4001
99	0	0	2100	1066	3849	4002
100	0	0	2116	1064	3849	4000
101	0	0	2123	1065	3848	4000
102	0	0	2133	1064	3850	4000
103	0	0	2117	1061	3848	4002
104	0	0	2096	1061	3849	4002
105	0	0	2058	1059	3849	4001
106	0	0	2036	1063	3850	4002
107	0	0	2054	1062	3848	4001
108	0	0	2128	1063	3849	4002
109	0	0	2216	1063	3850	4002
110	0	0	2238	1063	3849	4001
111	0	0	2220	1062	3850	4002
112	0	0	2201	1065	3848	4001
113	0	0	2205	1065	3848	4002
114	0	0	2206	1066	3849	4001
115	0	0	2206	1067	3849	4002
116	0	0	2206	1067	3849	4003
117	0	0	2181	1063	3848	4001
118	0	0	2154	1065	3848	4003
119	0	0	2143	1067	3849	4002
120	0	0	2109	1062	3849	4001
121	0	0	2075	1063	3849	4002
122	0	0	2051	1063	3849	4001
123	0	0	2070	1064	3848	3999
124	0	0	2100	1064	3848	4001
125	0	0	2040	1059	3849	4001
126	0	0	1958	1059	3849	4000
127	0	0	1945	1064	3850	4002
0	0	0	1992	1066	3849	3999
1	0	0	2071	1064	3849	4002
2	0	0	2154	1064	3849	4001
3	0	0	2203	1064	3848	4000
4	0	0	2221	1065	3848	4000
5	0	0	2229	1066	3848	3999
6	0	0	2204	1063	3848	4001
7	0	0	2163	1064	3848	4002
8	0	0	2121	1063	3849	4002
9	0	0	2113	1066	3849	4001
10	0	0	2170	1067	3848	3999
11	0	0	2204	1067	3849	4002
12	0	0	2188	1067	3849	4001
13	0	0	2195	1065	3849	4000
14	0	0	2214	1066	3850	4002
15	0	0	2200	1059	3846	4002
16	0	0	2144	1060	3849	4002
17	0	0	2118	1064	3849	4002
18	0	0	2140	1063	3848	4000
19	0	0	2146	1061	3848	4001
20	0	0	2124	1064	3848	3999
21	0	0	2178	1061	3848	4001
22	0	0	2274	1065	3850	4002
23	0	0	2283	1061	3847	4000
24	0	0	2209	1062	3847	4001
25	0	0	2195	1065	3847	4001
26	0	0	2243	1065	3848	4001
27	0	0	2268	1067	3848	4002
28	0	0	2258	1066	3848	4000
29	0	0	2230	1066	3846	3999
30	0	0	2234	1063	3849	4001
31	0	0	2218	1064	3849	4001
32	0	0	2226	1066	3850	4001
33	0	0	2256	1066	3850	4002
34	0	0	2200	1062	3849	4001
35	0	0	2176	1064	3850	4001
36	0	0	2212	1064	3849	4003
37	0	0	2220	1063	3851	4000
38	0	0	2163	1060	3850	4002
39	0	0	2128	1063	3847	4001
40	0	0	2193	1065	3848	4002
41	0	0	2216	1062	3849	4000
42	0	0	2159	1061	3849	4002
43	0	0	2103	1062	3848	4001
44	0	0	2121	1066	3848	4000
45	0	0	2230	1066	3850	4000
46	0	0	2276	1065	3848	4001
47	0	0	2250	1068	3849	4001
48	0	0	2262	1068	3848	4004
49	0	0	2264	1068	3849	4000
50	0	0	2273	1068	3849	3999
51	0	0	2288	1066	3848	4000
52	0	0	2297	1066	3849	4002
53	0	0	2292	1063	3848	4000
54	0	0	2234	1062	3848	4000
55	0	0	2143	1060	3849	4001
56	0	0	2074	1061	3849	4002
57	0	0	2070	1063	3848	4001
58	0	0	2122	1064	3849	4002
59	0	0	2197	1063	3848	4000
60	0	0	2270	1063	3848	4001
61	0	0	2317	1065	3847	4001
62	0	0	2337	1065	3850	4004
63	0	0	2345	1065	3850	4000
64	0	0	2337	1067	3849	4003
65	0	0	2327	1063	3850	4000
66	0	0	2280	1064	3848	4000
67	0	0	2250	1066	3848	4003
68	0	0	2227	1065	3848	4003
69	0	0	2186	1064	3848	4001
70	0	0	2173	1068	3849	4000
71	0	0	2197	1065	3848	4000
72	0	0	2189	1063	3848	4002
73	0	0	2131	1062	3848	4003
74	0	0	2059	1061	3848	4001
75	0	0	2008	1063	3849	4001
76	0	0	2052	1065	3849	4002
77	0	0	2101	1063	3848	4003
78	0	0	2115	1062	3850	4002
79	0	0	2055	1060	3848	4001
80	0	0	2012	1063	3848	4000
81	0	0	2072	1065	3849	4002
82	0	0	2199	1064	3849	4001
83	0	0	2292	1065	3848	4003
84	0	0	2272	1062	3848	4001
85	0	0	2173	1064	3847	4001
86	0	0	2169	1067	3846	3999
87	0	0	2217	1068	3848	4001
88	0	0	2272	1070	3847	4004
89	0	0	2291	1067	3848	4001
90	0	0	2282	1065	3848	4001
91	0	0	2240	1065	3847	4001
92	0	0	2198	1064	3849	4003
93	0	0	2152	1063	3848	4003
94	0	0	2122	1064	3849	4002
95	0	0	2123	1066	3848	4001
96	0	0	2133	1064	3849	4000
97	0	0	2085	1059	3849	4002
98	0	0	1996	1059	3848	4003
99	0	0	1946	1060	3849	4001
100	0	0	1958	1063	3850	4000
101	0	0	2029	1066	3848	3999
102	0	0	2080	1065	3849	4002
103	0	0	2082	1066	3848	4001
104	0	0	2111	1066	3848	4001
105	0	0	2212	1066	3848	4001
106	0	0	2302	1070	3847	4001
107	0	0	2306	1063	3848	4003
108	0	0	2257	1065	3849	4002
109	0	0	2224	1066	3848	4001
110	0	0	2225	1067	3848	4002
111	0	0	2215	1067	3849	4002
112	0	0	2192	1065	3849	4002
113	0	0	2143	1063	3850	4002
114	0	0	2085	1061	3849	4001
115	0	0	2021	1061	3848	4001
116	0	0	2011	1066	3848	3999
117	0	0	2023	1065	3849	4002
118	0	0	2033	1063	3848	4001
119	0	0	2045	1064	3849	4003
120	0	0	2087	1064	3851	4000
121	0	0	2129	1066	3847	3999
122	0	0	2158	1064	3849	4001
123	0	0	2210	1066	3847	4001
124	0	0	2263	1066	3848	4001
125	0	0	2300	1067	3848	4002
126	0	0	2330	1068	3848	4001
127	0	0	2304	1063	3848	4002
0	0	0	2193	1064	3847	4001
1	0	0	2120	1065	3848	4001
2	0	0	2080	1065	3848	3999
3	0	0	2056	1068	3848	4002
4	0	0	2119	1069	3851	4003
5	0	0	2171	1066	3849	4001
6	0	0	2195	1066	3849	4001
7	0	0	2204	1065	3849	4002
8	0	0	2188	1065	3849	4002
9	0	0	2177	1065	3848	4002
10	0	0	2198	1065	3847	4001
11	0	0	2219	1065	3847	4001
12	0	0	2218	1065	3848	3999
13	0	0	2208	1066	3848	3999
14	0	0	2230	1065	3848	4003
15	0	0	2288	1066	3848	4001
16	0	0	2357	1067	3850	4003
17	0	0	2399	1069	3851	4002
18	0	0	2398	1068	3847	3999
19	0	0	2392	1071	3850	4001
20	0	0	2377	1068	3848	4001
21	0	0	2349	1065	3849	4001
22	0	0	2290	1065	3849	4002
23	0	0	2221	1065	3850	4002
24	0	0	2151	1065	3849	4002
25	0	0	2127	1068	3848	4001
26	0	0	2146	1065	3848	4001
27	0	0	2195	1067	3848	4000
28	0	0	2218	1067	3848	4003
29	0	0	2193	1065	3847	4003
30	0	0	2147	1062	3848	4001
31	0	0	2162	1066	3848	4001
32	0	0	2247	1065	3848	4002
33	0	0	2330	1067	3850	4002
34	0	0	2322	1065	3849	4002
35	0	0	2259	1063	3848	4001
36	0	0	2229	1065	3851	3999
37	0	0	2250	1069	3848	3999
38	0	0	2227	1067	3849	4002
39	0	0	2224	1069	3849	4002
40	0	0	2279	1070	3848	4001
41	0	0	2370	1068	3850	4001
42	0	0	2400	1067	3848	4000
43	0	0	2295	1064	3850	4002
44	0	0	2138	1066	3849	4003
45	0	0	2039	1064	3848	4001
46	0	0	2013	1066	3847	4000
47	0	0	2053	1068	3848	3999
48	0	0	2152	1067	3849	4002
49	0	0	2271	1067	3848	4002
50	0	0	2342	1066	3848	4001
51	0	0	2421	1065	3850	4003
52	0	0	2497	1066	3848	4003
53	0	0	2541	1067	3851	4001
54	0	0	2581	1068	3850	4003
55	0	0	2610	1067	3849	4001
56	0	0	2664	1067	3849	4001
57	0	0	2698	1070	3848	4002
58	0	0	2741	1070	3850	4002
59	0	0	2766	1071	3848	4002
60	0	0	2791	1071	3849	4003
61	0	0	2813	1072	3848	4001
62	0	0	2809	1070	3848	4003
63	0	0	2781	1068	3847	4003
64	0	0	2723	1067	3849	4001
65	0	0	2683	1069	3848	4001
66	0	0	2703	1066	3848	4001
67	0	0	2728	1069	3849	3999
68	0	0	2769	1067	3850	4000
69	0	0	2848	1069	3848	4003
70	0	0	2859	1067	3848	4001
71	0	0	2830	1065	3848	4001
72	0	0	2786	1066	3847	4001
73	0	0	2761	1067	3848	4001
74	0	0	2791	1068	3848	4002
75	0	0	2812	1068	3850	4001
76	0	0	2772	1065	3849	4003
77	0	0	2702	1067	3849	4003
78	0	0	2632	1066	3850	4002
79	0	0	2570	1067	3849	4003
80	0	0	2510	1067	3848	4001
81	0	0	2440	1066	3849	4003
82	0	0	2428	1071	3850	4003
83	0	0	2492	1071	3850	4001
84	0	0	2523	1070	3850	4003
85	0	0	2486	1067	3849	4002
86	0	0	2415	1064	3848	4001
87	0	0	2326	1063	3849	4000
88	0	0	2233	1064	3849	4002
89	0	0	2199	1066	3849	4002
90	0	0	2203	1067	3849	4003
91	0	0	2212	1068	3848	4001
92	0	0	2221	1067	3848	4001
93	0	0	2247	1067	3850	4000
94	0	0	2288	1067	3848	4003
95	0	0	2280	1066	3848	4002
96	0	0	2252	1065	3849	4003
97	0	0	2248	1070	3847	3999
98	0	0	2286	1071	3850	4000
99	0	0	2348	1073	3848	4001
100	0	0	2381	1071	3848	4001
101	0	0	2392	1071	3848	4001
102	0	0	2392	1070	3849	4001
103	0	0	2318	1067	3850	4002
104	0	0	2207	1064	3849	4002
105	0	0	2151	1065	3848	4001
106	0	0	2116	1065	3849	4003
107	0	0	2085	1065	3850	4003
108	0	0	2044	1065	3849	4002
109	0	0	2051	1066	3848	4001
110	0	0	2092	1067	3849	4003
111	0	0	2158	1066	3848	4001
112	0	0	2232	1067	3848	4000
113	0	0	2218	1064	3849	4003
114	0	0	2136	1064	3849	4001
115	0	0	2103	1069	3848	4001
116	0	0	2152	1069	3848	4001
117	0	0	2186	1071	3847	4001
118	0	0	2205	1071	3849	4002
119	0	0	2209	1071	3849	4003
120	0	0	2193	1071	3848	4001
121	0	0	2141	1067	3848	4001
122	0	0	2033	1067	3848	4001
123	0	0	2015	1071	3849	4002
124	0	0	2050	1072	3849	4002
125	0	0	2067	1070	3848	4001
126	0	0	2076	1069	3848	4001
127	0	0	2064	1065	3848	4001
0	0	0	2013	1065	3848	4002
1	0	0	2008	1066	3848	4002
2	0	0	2008	1067	3847	4001
3	0	0	2029	1066	3848	4001
4	0	0	2120	1067	3848	4002
5	0	0	2220	1068	3849	4002
6	0	0	2254	1068	3848	4002
7	0	0	2265	1069	3848	4001
8	0	0	2263	1070	3848	4001
9	0	0	2274	1069	3849	4001
10	0	0	2324	1071	3848	4002
11	0	0	2339	1070	3848	4003
12	0	0	2283	1069	3849	4003
13	0	0	2224	1069	3848	4001
14	0	0	2181	1069	3851	4002
15	0	0	2194	1069	3849	4002
16	0	0	2230	1068	3848	4002
17	0	0	2231	1068	3848	4001
18	0	0	2200	1067	3848	4001
19	0	0	2164	1065	3848	4001
20	0	0	2093	1063	3848	4002
21	0	0	2052	1064	3849	4002
22	0	0	2044	1067	3847	3999
23	0	0	2034	1066	3848	4001
24	0	0	2025	1067	3849	4002
25	0	0	2034	1069	3849	4002
26	0	0	2062	1069	3849	4002
27	0	0	2115	1069	3850	4001
28	0	0	2169	1070	3850	4003
29	0	0	2211	1071	3847	4001
30	0	0	2239	1071	3848	4002
31	0	0	2241	1071	3849	4002
32	0	0	2214	1072	3847	4001
33	0	0	2250	1071	3849	4003
34	0	0	2304	1072	3849	4000
35	0	0	2302	1069	3848	4002
36	0	0	2209	1067	3848	4002
37	0	0	2078	1067	3850	4002
38	0	0	1960	1064	3848	4001
39	0	0	1864	1064	3848	4002
40	0	0	1779	1064	3850	4002
41	0	0	1724	1065	3848	4003
42	0	0	1705	1068	3848	4001
43	0	0	1791	1068	3849	4001
44	0	0	2026	1067	3848	4001
45	0	0	2215	1069	3848	4002
46	0	0	2269	1068	3848	4003
47	0	0	2291	1069	3848	4001
48	0	0	2310	1069	3848	4001
49	0	0	2332	1071	3848	4001
50	0	0	2291	1067	3849	4002
51	0	0	2209	1069	3848	4003
52	0	0	2185	1072	3847	4001
53	0	0	2220	1072	3849	4003
54	0	0	2285	1072	3849	4002
55	0	0	2294	1069	3850	4002
56	0	0	2215	1067	3849	4003
57	0	0	2148	1068	3848	4001
58	0	0	2165	1072	3847	4001
59	0	0	2206	1068	3848	3999
60	0	0	2203	1066	3847	4001
61	0	0	2154	1067	3848	4002
62	0	0	2192	1068	3852	3998
63	0	0	2235	1068	3848	3999
64	0	0	2202	1066	3848	4002
65	0	0	2197	1069	3849	4003
66	0	0	2207	1070	3848	4002
67	0	0	2180	1067	3847	4001
68	0	0	2151	1068	3848	4001
69	0	0	2146	1071	3848	4001
70	0	0	2140	1072	3848	4002
71	0	0	2147	1072	3849	4003
72	0	0	2191	1072	3848	4001
73	0	0	2219	1072	3850	4003
74	0	0	2218	1073	3850	4001
75	0	0	2228	1072	3851	4002
76	0	0	2244	1072	3850	4003
77	0	0	2247	1071	3848	4001
78	0	0	2251	1071	3848	4003
79	0	0	2186	1066	3849	4002
80	0	0	2080	1065	3850	4002
81	0	0	2024	1065	3848	4002
82	0	0	2029	1069	3846	4001
83	0	0	2065	1069	3847	4001
84	0	0	2057	1065	3848	4001
85	0	0	2049	1070	3847	4001
86	0	0	2094	1071	3849	4002
87	0	0	2146	1070	3846	4005
88	0	0	2152	1071	3848	4001
89	0	0	2121	1069	3848	4001
90	0	0	2095	1069	3847	4003
91	0	0	2076	1073	3848	4003
92	0	0	2100	1073	3850	4003
93	0	0	2133	1072	3847	4001
94	0	0	2165	1073	3849	4003
95	0	0	2201	1073	3849	4003
96	0	0	2179	1069	3849	4002
97	0	0	2122	1070	3850	4002
98	0	0	2126	1072	3847	4001
99	0	0	2114	1067	3847	4001
100	0	0	2031	1066	3847	4001
101	0	0	1988	1063	3848	4003
102	0	0	2025	1072	3847	4000
103	0	0	2098	1069	3847	4000
104	0	0	2130	1069	3848	4001
105	0	0	2130	1070	3847	4001
106	0	0	2154	1069	3848	4002
107	0	0	2191	1071	3848	4002
108	0	0	2183	1068	3848	4001
109	0	0	2128	1070	3847	4001
110	0	0	2135	1073	3847	4001
111	0	0	2243	1071	3849	4002
112	0	0	2301	1071	3847	4002
113	0	0	2268	1070	3848	4001
114	0	0	2214	1069	3848	4001
115	0	0	2186	1073	3849	4001
116	0	0	2213	1073	3849	4003
117	0	0	2280	1067	3848	4001
118	0	0	2224	1067	3848	4000
119	0	0	2114	1068	3847	4001
120	0	0	2081	1070	3847	4001
121	0	0	2112	1068	3848	4002
122	0	0	2161	1070	3849	4003
123	0	0	2186	1072	3848	4001
124	0	0	2171	1068	3848	4001
125	0	0	2173	1070	3850	4003
126	0	0	2228	1069	3849	4003
127	0	0	2309	1072	3849	4003
0	0	0	2337	1069	3850	4001
1	0	0	2301	1070	3848	4002
2	0	0	2259	1071	3848	4003
3	0	0	2233	1071	3848	4002
4	0	0	2229	1074	3848	4003
5	0	0	2216	1071	3847	4002
6	0	0	2161	1070	3848	4001
7	0	0	2106	1069	3849	4003
8	0	0	2088	1072	3849	4002
9	0	0	2128	1073	3848	4001
10	0	0	2193	1073	3850	4003
11	0	0	2219	1070	3848	4001
12	0	0	2162	1066	3848	4001
13	0	0	2115	1067	3848	4003
14	0	0	2131	1070	3848	4001
15	0	0	2205	1070	3848	4001
16	0	0	2268	1071	3847	4001
17	0	0	2260	1068	3849	4002
18	0	0	2184	1064	3849	4003
19	0	0	2091	1068	3849	4003
20	0	0	2072	1073	3847	4002
21	0	0	2145	1072	3848	4002
22	0	0	2245	1074	3847	4002
23	0	0	2347	1072	3847	4003
24	0	0	2422	1074	3848	4001
25	0	0	2431	1075	3847	4001
26	0	0	2380	1071	3847	4001
27	0	0	2300	1070	3848	4001
28	0	0	2184	1069	3849	4003
29	0	0	2086	1069	3848	4001
30	0	0	2040	1071	3849	4003
31	0	0	2063	1072	3849	4002
32	0	0	2094	1070	3847	4002
33	0	0	2114	1071	3849	4003
34	0	0	2184	1070	3847	4002
35	0	0	2238	1069	3850	4001
36	0	0	2259	1070	3848	4002
37	0	0	2281	1072	3848	4002
38	0	0	2307	1071	3849	4003
39	0	0	2295	1073	3849	4002
40	0	0	2299	1073	3847	4001
41	0	0	2301	1072	3848	4002
42	0	0	2270	1071	3846	4002
43	0	0	2266	1072	3849	4003
44	0	0	2290	1073	3847	4000
45	0	0	2326	1075	3847	4001
46	0	0	2340	1076	3847	4001
47	0	0	2340	1074	3847	4002
48	0	0	2334	1074	3850	4003
49	0	0	2311	1071	3848	4002
50	0	0	2265	1069	3848	4001
51	0	0	2247	1072	3848	4002
52	0	0	2196	1068	3848	4002
53	0	0	2159	1068	3849	4002
54	0	0	2170	1070	3847	4002
55	0	0	2200	1071	3847	4002
56	0	0	2242	1072	3848	4004
57	0	0	2230	1068	3849	4003
58	0	0	2190	1069	3849	4003
59	0	0	2150	1069	3848	4002
60	0	0	2130	1075	3847	4001
61	0	0	2164	1075	3847	4002
62	0	0	2258	1074	3848	4002
63	0	0	2316	1075	3849	4003
64	0	0	2319	1075	3848	4002
65	0	0	2317	1074	3850	4001
66	0	0	2328	1074	3848	4002
67	0	0	2342	1075	3849	4003
68	0	0	2338	1073	3849	4003
69	0	0	2301	1072	3848	4001
70	0	0	2294	1073	3848	4001
71	0	0	2305	1072	3847	4001
72	0	0	2255	1069	3848	4001
73	0	0	2201	1068	3848	4003
74	0	0	2166	1069	3849	4003
75	0	0	2151	1071	3847	4001
76	0	0	2177	1072	3848	4001
77	0	0	2198	1072	3848	4001
78	0	0	2218	1072	3849	4003
79	0	0	2255	1073	3848	4004
80	0	0	2300	1072	3851	4003
81	0	0	2335	1074	3852	4002
82	0	0	2354	1075	3847	4001
83	0	0	2325	1072	3849	4002
84	0	0	2243	1071	3848	4001
85	0	0	2138	1071	3847	4001
86	0	0	2072	1072	3848	4003
87	0	0	2081	1075	3849	4003
88	0	0	2072	1072	3849	4003
89	0	0	2068	1074	3848	4002
90	0	0	2136	1073	3848	4002
91	0	0	2276	1073	3847	4002
92	0	0	2354	1072	3847	4000
93	0	0	2392	1072	3849	4003
94	0	0	2413	1071	3848	4002
95	0	0	2388	1068	3848	4002
96	0	0	2349	1069	3849	4002
97	0	0	2350	1072	3848	4002
98	0	0	2372	1072	3850	4003
99	0	0	2371	1071	3848	3999
100	0	0	2325	1070	3849	4003
101	0	0	2340	1073	3850	4002
102	0	0	2403	1074	3848	4000
103	0	0	2490	1075	3849	4003
104	0	0	2539	1075	3847	4001
105	0	0	2529	1073	3850	3999
106	0	0	2466	1071	3847	4002
107	0	0	2357	1071	3847	4001
108	0	0	2241	1070	3849	4003
109	0	0	2205	1073	3848	4001
110	0	0	2197	1073	3848	4001
111	0	0	2198	1072	3850	4003
112	0	0	2180	1070	3848	4003
113	0	0	2133	1067	3847	4001
114	0	0	2112	1072	3848	4001
115	0	0	2119	1071	3850	4003
116	0	0	2142	1073	3850	4004
117	0	0	2193	1072	3847	4000
118	0	0	2231	1073	3848	4003
119	0	0	2238	1072	3847	4002
120	0	0	2198	1071	3847	4001
121	0	0	2191	1076	3847	4003
122	0	0	2253	1075	3848	4001
123	0	0	2285	1075	3847	4002
124	0	0	2251	1072	3849	4001
125	0	0	2210	1074	3847	4002
126	0	0	2152	1071	3848	4002
127	0	0	2082	1072	3850	4003
0	0	0	2054	1075	3848	4002
1	0	0	2070	1074	3848	4002
2	0	0	2094	1074	3848	4001
3	0	0	2083	1070	3848	4002
4	0	0	2016	1069	3848	4003
5	0	0	1966	1070	3848	4002
6	0	0	1994	1071	3847	4001
7	0	0	2056	1071	3847	4001
8	0	0	2102	1071	3848	4002
9	0	0	2151	1072	3850	4001
10	0	0	2181	1072	3847	4002
11	0	0	2204	1074	3849	4002
12	0	0	2242	1075	3847	4001
13	0	0	2261	1075	3848	4002
14	0	0	2246	1073	3851	4002
15	0	0	2226	1077	3847	4002
16	0	0	2213	1075	3848	4002
17	0	0	2176	1072	3848	4001
18	0	0	2132	1074	3849	4002
19	0	0	2136	1076	3849	4000
20	0	0	2096	1072	3848	4003
21	0	0	2027	1071	3849	4001
22	0	0	1974	1072	3847	4001
23	0	0	1963	1073	3848	4002
24	0	0	1980	1073	3849	4001
25	0	0	1991	1073	3847	4002
26	0	0	1994	1071	3847	4001
27	0	0	2027	1073	3848	4003
28	0	0	2055	1072	3848	4000
29	0	0	2082	1072	3849	4001
30	0	0	2124	1074	3848	4003
31	0	0	2147	1073	3848	3999
32	0	0	2148	1074	3845	4002
33	0	0	2163	1075	3847	4001
34	0	0	2186	1075	3848	4002
35	0	0	2164	1072	3848	4002
36	0	0	2114	1072	3848	4002
37	0	0	2086	1074	3848	4001
38	0	0	2084	1075	3848	4001
39	0	0	2099	1076	3849	4001
40	0	0	2087	1074	3848	4002
41	0	0	2074	1075	3849	4003
42	0	0	2072	1077	3848	4001
43	0	0	2087	1073	3848	4001
44	0	0	2119	1073	3849	4001
45	0	0	2092	1069	3847	4003
46	0	0	2034	1070	3850	4000
47	0	0	2005	1069	3847	4001
48	0	0	1992	1071	3848	4002
49	0	0	2012	1073	3847	4002
50	0	0	2018	1073	3849	4002
51	0	0	2028	1073	3850	4001
52	0	0	2039	1074	3848	4002
53	0	0	2061	1074	3849	4001
54	0	0	2092	1076	3850	4001
55	0	0	2100	1076	3847	4003
56	0	0	2077	1072	3847	4002
57	0	0	2061	1076	3847	4001
58	0	0	2051	1075	3848	4001
59	0	0	2008	1072	3847	4002
60	0	0	1935	1072	3849	4003
61	0	0	1897	1071	3847	4001
62	0	0	1917	1074	3847	4000
63	0	0	1942	1072	3849	4001
64	0	0	1942	1073	3847	4003
65	0	0	1942	1071	3847	4002
66	0	0	1916	1071	3849	4003
67	0	0	1941	1071	3848	4001
68	0	0	2003	1072	3848	4002
69	0	0	2069	1072	3850	4003
70	0	0	2133	1073	3849	4002
71	0	0	2134	1074	3849	4003
72	0	0	2125	1077	3848	4001
73	0	0	2112	1075	3848	4001
74	0	0	2121	1076	3848	4003
75	0	0	2126	1076	3847	4002
76	0	0	2100	1073	3848	4003
77	0	0	2037	1073	3847	4001
78	0	0	1998	1076	3846	4002
79	0	0	2033	1076	3849	4003
80	0	0	2071	1075	3849	4002
81	0	0	2080	1075	3847	4001
82	0	0	2065	1075	3847	4001
83	0	0	2059	1072	3847	4001
84	0	0	2063	1073	3848	4004
85	0	0	2093	1071	3849	4002
86	0	0	2128	1072	3848	4001
87	0	0	2149	1072	3849	4002
88	0	0	2165	1072	3850	4001
89	0	0	2131	1070	3849	4001
90	0	0	2061	1069	3849	4002
91	0	0	1991	1070	3847	4000
92	0	0	1955	1073	3849	4003
93	0	0	1957	1074	3845	4002
94	0	0	1971	1076	3847	4004
95	0	0	1990	1077	3848	4003
96	0	0	2020	1076	3847	4001
97	0	0	2051	1077	3848	4000
98	0	0	2071	1076	3848	4001
99	0	0	2080	1077	3849	4002
100	0	0	2087	1077	3849	4002
101	0	0	2108	1075	3848	4002
102	0	0	2136	1075	3848	4001
103	0	0	2120	1070	3847	4001
104	0	0	2037	1070	3847	4001
105	0	0	1956	1069	3849	4003
106	0	0	1901	1069	3848	4003
107	0	0	1853	1070	3846	4002
108	0	0	1849	1073	3848	4001
109	0	0	1881	1074	3848	4004
110	0	0	1878	1072	3849	4004
111	0	0	1853	1074	3847	4001
112	0	0	1878	1074	3846	4001
113	0	0	1947	1075	3848	4001
114	0	0	2065	1076	3845	4002
115	0	0	2208	1077	3848	4002
116	0	0	2274	1077	3847	4001
117	0	0	2226	1073	3847	4001
118	0	0	2119	1073	3848	4001
119	0	0	2024	1074	3847	4002
120	0	0	1981	1074	3848	4002
121	0	0	1966	1075	3847	4001
122	0	0	1984	1076	3848	4002
123	0	0	2000	1073	3847	4001
124	0	0	1998	1074	3845	4002
125	0	0	1984	1074	3846	4002
126	0	0	1981	1073	3845	4002
127	0	0	1991	1074	3847	4001
0	0	0	1993	1073	3848	4002
1	0	0	1987	1074	3849	4003
2	0	0	2062	1074	3849	4003
3	0	0	2149	1075	3849	4003
4	0	0	2193	1074	3848	4001
5	0	0	2205	1075	3848	4001
6	0	0	2191	1077	3846	4003
7	0	0	2184	1077	3850	4000
8	0	0	2190	1079	3848	4003
9	0	0	2146	1074	3847	4001
10	0	0	2068	1072	3847	4002
11	0	0	1985	1073	3849	4003
12	0	0	1929	1073	3849	4003
13	0	0	1921	1076	3847	4001
14	0	0	1943	1076	3847	4002
15	0	0	1984	1074	3847	4001
16	0	0	1985	1073	3848	4001
17	0	0	1965	1075	3846	4001
18	0	0	1990	1074	3847	4001
19	0	0	2015	1073	3847	4003
20	0	0	2043	1075	3849	4000
21	0	0	2053	1075	3848	4004
22	0	0	2006	1071	3849	4003
23	0	0	1955	1072	3848	4001
24	0	0	1946	1076	3849	3999
25	0	0	1969	1077	3848	4002
26	0	0	1986	1078	3846	4002
27	0	0	1955	1074	3846	4002
28	0	0	1944	1078	3847	4002
29	0	0	1991	1078	3847	4001
30	0	0	2030	1078	3846	4001
31	0	0	2020	1075	3848	4002
32	0	0	2020	1078	3847	4001
33	0	0	2012	1076	3847	4002
34	0	0	1996	1074	3847	4002
35	0	0	1960	1072	3848	4002
36	0	0	1935	1074	3849	4002
37	0	0	1946	1074	3845	4001
38	0	0	1950	1074	3849	4003
39	0	0	1932	1072	3847	4001
40	0	0	1939	1074	3850	4002
41	0	0	1967	1075	3848	4002
42	0	0	2003	1075	3848	4001
43	0	0	2060	1076	3848	4001
44	0	0	2098	1076	3848	4002
45	0	0	2150	1076	3845	4002
46	0	0	2200	1078	3849	4002
47	0	0	2249	1078	3846	4002
48	0	0	2270	1078	3847	4001
49	0	0	2274	1079	3847	4001
50	0	0	2259	1076	3847	4001
51	0	0	2216	1075	3849	4003
52	0	0	2179	1074	3848	4003
53	0	0	2131	1074	3847	4001
54	0	0	2095	1074	3850	4003
55	0	0	2059	1073	3849	4000
56	0	0	2021	1073	3848	4002
57	0	0	2000	1073	3847	4002
58	0	0	1993	1074	3847	4002
59	0	0	2006	1075	3848	4002
60	0	0	2041	1075	3847	4001
61	0	0	2094	1075	3847	3999
62	0	0	2120	1075	3846	4002
63	0	0	2145	1076	3847	4001
64	0	0	2175	1076	3847	4001
65	0	0	2148	1073	3844	4002
66	0	0	2099	1074	3847	4001
67	0	0	2089	1078	3844	4002
68	0	0	2097	1079	3847	4001
69	0	0	2070	1076	3847	4001
70	0	0	2048	1078	3845	4002
71	0	0	2056	1078	3847	3999
72	0	0	2074	1078	3847	4001
73	0	0	2046	1074	3849	4003
74	0	0	1967	1072	3848	4001
75	0	0	1912	1073	3848	4002
76	0	0	1898	1077	3849	4003
77	0	0	1931	1075	3847	4002
78	0	0	1998	1075	3848	4003
79	0	0	2028	1075	3848	4002
80	0	0	1999	1072	3846	4001
81	0	0	1953	1072	3849	4003
82	0	0	1918	1074	3845	4002
83	0	0	1926	1076	3848	4001
84	0	0	1983	1077	3848	4002
85	0	0	2055	1077	3845	4002
86	0	0	2130	1078	3847	4003
87	0	0	2161	1079	3844	4003
88	0	0	2168	1079	3847	4001
89	0	0	2170	1078	3847	4001
90	0	0	2183	1079	3845	4002
91	0	0	2198	1079	3849	4003
92	0	0	2196	1077	3849	4003
93	0	0	2136	1073	3848	4001
94	0	0	2043	1072	3849	4002
95	0	0	1962	1073	3848	4002
96	0	0	1915	1072	3848	4003
97	0	0	1911	1076	3848	4003
98	0	0	1889	1071	3847	4002
99	0	0	1851	1071	3847	4003
100	0	0	1817	1072	3846	4001
101	0	0	1818	1076	3847	4002
102	0	0	1890	1075	3847	4002
103	0	0	2029	1077	3849	4004
104	0	0	2158	1077	3848	4001
105	0	0	2178	1077	3847	4002
106	0	0	2143	1076	3848	4003
107	0	0	2095	1076	3847	4002
108	0	0	2063	1079	3847	4000
109	0	0	2078	1079	3848	4001
110	0	0	2061	1075	3848	4001
111	0	0	2025	1077	3848	3999
112	0	0	2003	1076	3848	4003
113	0	0	1979	1075	3847	4001
114	0	0	1940	1074	3847	4001
115	0	0	1886	1073	3847	3999
116	0	0	1859	1076	3847	4003
117	0	0	1891	1075	3848	4003
118	0	0	1944	1075	3847	4001
119	0	0	1978	1075	3847	4001
120	0	0	1969	1072	3846	4001
121	0	0	1923	1073	3847	3999
122	0	0	1910	1075	3847	4002
123	0	0	1966	1077	3847	3999
124	0	0	2027	1077	3847	4001
125	0	0	1986	1074	3848	4000
126	0	0	1932	1076	3846	4001
127	0	0	1940	1079	3846	4003
0	0	0	2026	1080	3847	4001
1	0	0	2110	1079	3847	4001
2	0	0	2129	1077	3847	4000
3	0	0	2071	1076	3847	3999
4	0	0	2039	1077	3847	4001
5	0	0	2003	1074	3845	4001
6	0	0	1948	1074	3847	4001
7	0	0	1897	1074	3848	3999
8	0	0	1865	1074	3846	4001
9	0	0	1864	1076	3847	4002
10	0	0	1843	1073	3847	4001
11	0	0	1842	1074	3847	4001
12	0	0	1907	1077	3849	3999
13	0	0	1983	1075	3849	4003
14	0	0	2017	1077	3849	4003
15	0	0	1993	1074	3847	4001
16	0	0	1957	1073	3850	4002
17	0	0	1921	1077	3848	4001
18	0	0	1930	1079	3847	4001
19	0	0	1994	1080	3848	4003
20	0	0	2062	1079	3846	4001
21	0	0	2045	1076	3849	4003
22	0	0	2010	1078	3848	4003
23	0	0	2004	1079	3848	4002
24	0	0	1984	1077	3849	4003
25	0	0	1939	1075	3847	4002
26	0	0	1868	1074	3848	4003
27	0	0	1822	1074	3849	4000
28	0	0	1782	1074	3848	4000
29	0	0	1766	1075	3848	4003
30	0	0	1774	1075	3847	4001
31	0	0	1848	1076	3849	4003
32	0	0	1967	1076	3849	4004
33	0	0	2034	1076	3848	4001
34	0	0	2038	1075	3849	4003
35	0	0	2000	1075	3847	4002
36	0	0	1982	1078	3846	4002
37	0	0	2003	1080	3847	4002
38	0	0	2039	1080	3847	4003
39	0	0	2060	1079	3845	4002
40	0	0	2079	1080	3847	4002
41	0	0	2060	1076	3848	4002
42	0	0	2051	1080	3849	4001
43	0	0	2061	1079	3848	4000
44	0	0	2008	1075	3847	4002
45	0	0	1909	1075	3849	4003
46	0	0	1808	1073	3847	4001
47	0	0	1753	1075	3849	4002
48	0	0	1717	1074	3848	4000
49	0	0	1744	1078	3846	4003
50	0	0	1797	1076	3847	4001
51	0	0	1856	1075	3849	4001
52	0	0	1904	1077	3848	4001
53	0	0	1921	1077	3848	4000
54	0	0	1904	1074	3847	4003
55	0	0	1878	1077	3846	4001
56	0	0	1882	1078	3847	4001
57	0	0	1927	1079	3848	3999
58	0	0	1969	1080	3847	4000
59	0	0	1993	1081	3848	4003
60	0	0	1979	1079	3847	4002
61	0	0	1966	1078	3848	4003
62	0	0	1918	1077	3848	4003
63	0	0	1881	1080	3848	4000
64	0	0	1898	1079	3847	4002
65	0	0	1909	1079	3848	4002
66	0	0	1867	1075	3847	4002
67	0	0	1827	1074	3847	4002
68	0	0	1781	1074	3847	4000
69	0	0	1747	1074	3848	4003
70	0	0	1710	1072	3846	4002
71	0	0	1676	1074	3847	4001
72	0	0	1704	1077	3848	4003
73	0	0	1764	1077	3848	4000
74	0	0	1807	1078	3848	4003
75	0	0	1829	1078	3847	4002
76	0	0	1876	1078	3848	4004
77	0	0	1978	1079	3848	4000
78	0	0	2069	1081	3848	4000
79	0	0	2060	1079	3848	4003
80	0	0	2007	1077	3847	4001
81	0	0	1956	1079	3847	4004
82	0	0	1932	1079	3848	4001
83	0	0	1913	1081	3848	4002
84	0	0	1945	1080	3848	4001
85	0	0	1975	1078	3847	4001
86	0	0	1903	1076	3847	4001
87	0	0	1844	1077	3847	4002
88	0	0	1795	1074	3848	4003
89	0	0	1768	1078	3848	4003
90	0	0	1792	1077	3848	4003
91	0	0	1800	1075	3845	4002
92	0	0	1832	1077	3847	4002
93	0	0	1885	1078	3849	4002
94	0	0	1925	1075	3848	4002
95	0	0	1970	1078	3847	4002
96	0	0	2012	1080	3847	4002
97	0	0	2016	1081	3847	4003
98	0	0	2019	1081	3848	4002
99	0	0	2016	1082	3848	4002
100	0	0	1988	1079	3847	4002
101	0	0	1939	1079	3847	4001
102	0	0	1921	1081	3848	4002
103	0	0	1929	1082	3848	4001
104	0	0	1925	1080	3848	4003
105	0	0	1883	1078	3848	4003
106	0	0	1826	1077	3849	4002
107	0	0	1771	1075	3847	4002
108	0	0	1722	1076	3848	4003
109	0	0	1710	1077	3850	3999
110	0	0	1713	1078	3848	4003
111	0	0	1720	1078	3848	4001
112	0	0	1747	1079	3848	4001
113	0	0	1771	1078	3849	4002
114	0	0	1743	1077	3850	4002
115	0	0	1785	1079	3848	4002
116	0	0	1883	1080	3845	4002
117	0	0	1936	1080	3846	4003
118	0	0	1945	1081	3847	4002
119	0	0	1923	1080	3848	4003
120	0	0	1910	1081	3846	4002
121	0	0	1902	1082	3847	4002
122	0	0	1900	1082	3847	4003
123	0	0	1886	1079	3848	4002
124	0	0	1857	1079	3849	4003
125	0	0	1809	1080	3847	4001
126	0	0	1795	1081	3848	4001
127	0	0	1803	1081	3848	4004
0	0	0	1781	1074	3848	4002
1	0	0	1754	1078	3848	4002
2	0	0	1788	1079	3847	3980
3	0	0	1815	1080	3848	3956
4	0	0	1842	1079	3845	3934
5	0	0	1878	1079	3848	3911
6	0	0	1936	1080	3850	3889
7	0	0	1979	1080	3847	3866
8	0	0	2003	1081	3847	3845
9	0	0	2012	1081	3846	3824
10	0	0	2004	1082	3847	3801
11	0	0	2003	1083	3848	3779
12	0	0	1974	1080	3847	3756
13	0	0	1935	1081	3847	3734
14	0	0	1928	1084	3848	3713
15	0	0	1974	1084	3848	3691
16	0	0	2056	1082	3847	3669
17	0	0	2077	1082	3847	3646
18	0	0	2064	1080	3848	3625
19	0	0	2031	1077	3847	3604
20	0	0	1978	1077	3848	3582
21	0	0	1921	1076	3850	3561
22	0	0	1857	1075	3847	3539
23	0	0	1784	1076	3847	3518
24	0	0	1736	1077	3846	3497
25	0	0	1756	1081	3848	3476
26	0	0	1809	1081	3847	3456
27	0	0	1897	1081	3848	3437
28	0	0	2003	1079	3849	3415
29	0	0	2034	1079	3847	3396
30	0	0	1985	1079	3847	3376
31	0	0	1932	1081	3851	3355
32	0	0	1958	1083	3847	3336
33	0	0	1998	1083	3846	3316
34	0	0	2008	1082	3847	3298
35	0	0	1955	1080	3849	3278
36	0	0	1891	1078	3847	3260
37	0	0	1876	1082	3848	3240
38	0	0	1858	1080	3848	3222
39	0	0	1850	1079	3847	3204
40	0	0	1824	1078	3848	3187
41	0	0	1808	1078	3847	3168
42	0	0	1812	1080	3848	3150
43	0	0	1813	1077	3844	3131
44	0	0	1787	1075	3847	3114
45	0	0	1752	1077	3848	3097
46	0	0	1759	1080	3851	3079
47	0	0	1847	1083	3847	3062
48	0	0	1958	1082	3844	3045
49	0	0	2038	1083	3847	3028
50	0	0	2076	1084	3848	3011
51	0	0	2057	1081	3847	2995
52	0	0	2020	1081	3847	2978
53	0	0	1994	1081	3848	2962
54	0	0	1955	1079	3847	2946
55	0	0	1917	1083	3848	2930
56	0	0	1901	1084	3847	2914
57	0	0	1908	1083	3846	2898
58	0	0	1923	1084	3847	2883
59	0	0	1938	1082	3847	2868
60	0	0	1960	1083	3847	2853
61	0	0	1975	1081	3847	2836
62	0	0	1926	1077	3847	2824
63	0	0	1842	1076	3847	2808
64	0	0	1768	1076	3847	2793
65	0	0	1756	1081	3848	2779
66	0	0	1784	1082	3847	2765
67	0	0	1859	1082	3847	2749
68	0	0	1944	1083	3847	2736
69	0	0	2018	1082	3847	2722
70	0	0	2068	1084	3848	2708
71	0	0	2091	1083	3850	2693
72	0	0	2041	1081	3847	2680
73	0	0	1989	1082	3847	2666
74	0	0	1993	1085	3847	2653
75	0	0	2023	1085	3848	2639
76	0	0	2039	1084	3847	2627
77	0	0	2033	1083	3846	2612
78	0	0	2023	1084	3848	2601
79	0	0	2006	1080	3848	2588
80	0	0	1928	1080	3847	2575
81	0	0	1868	1079	3848	2563
82	0	0	1864	1079	3847	2548
83	0	0	1879	1081	3849	2537
84	0	0	1873	1081	3849	2525
85	0	0	1882	1082	3848	2512
86	0	0	1909	1082	3849	2501
87	0	0	1955	1083	3848	2488
88	0	0	1993	1082	3849	2477
89	0	0	2007	1083	3848	2465
90	0	0	2036	1085	3847	2453
91	0	0	2128	1086	3848	2442
92	0	0	2213	1085	3847	2430
93	0	0	2193	1082	3848	2419
94	0	0	2128	1082	3848	2407
95	0	0	2067	1082	3848	2396
96	0	0	2019	1081	3847	2384
97	0	0	1965	1079	3847	2373
98	0	0	1914	1080	3847	2362
99	0	0	1898	1083	3847	2351
100	0	0	1893	1082	3848	2341
101	0	0	1923	1082	3847	2331
102	0	0	1992	1081	3847	2319
103	0	0	2021	1081	3848	2309
104	0	0	2007	1081	3848	2300
105	0	0	1984	1081	3848	2289
106	0	0	1969	1082	3848	2280
107	0	0	1969	1083	3847	2269
108	0	0	1956	1082	3847	2259
109	0	0	1962	1083	3847	2249
110	0	0	2016	1085	3847	2240
111	0	0	2086	1085	3844	2231
112	0	0	2127	1085	3846	2219
113	0	0	2127	1085	3848	2209
114	0	0	2081	1083	3848	2200
115	0	0	2014	1082	3848	2191
116	0	0	1989	1086	3848	2181
117	0	0	2016	1084	3848	2172
118	0	0	2045	1085	3848	2161
119	0	0	2002	1081	3848	2153
120	0	0	1914	1079	3848	2144
121	0	0	1857	1079	3847	2136
122	0	0	1823	1079	3848	2126
123	0	0	1843	1083	3849	2118
124	0	0	1892	1083	3849	2109
125	0	0	1937	1083	3847	2100
126	0	0	1985	1083	3847	2092
127	0	0	2009	1087	3847	2082
0	0	0	1975	1081	3846	2075
1	0	0	1950	1085	3848	2066
2	0	0	2009	1086	3847	2057
3	0	0	2106	1087	3848	2049
4	0	0	2143	1085	3847	2040
5	0	0	2089	1082	3848	2032
6	0	0	1990	1083	3848	2023
7	0	0	1910	1082	3848	2015
8	0	0	1877	1084	3849	2007
9	0	0	1880	1086	3848	1999
10	0	0	1879	1084	3846	1991
11	0	0	1847	1081	3848	1982
12	0	0	1819	1081	3848	1975
13	0	0	1807	1082	3847	1967
14	0	0	1780	1080	3848	1960
15	0	0	1730	1081	3845	1951
16	0	0	1698	1081	3847	1944
17	0	0	1728	1084	3848	1937
18	0	0	1778	1084	3847	1931
19	0	0	1853	1085	3847	1922
20	0	0	2027	1085	3848	1914
21	0	0	2144	1086	3848	1907
22	0	0	2171	1086	3847	1899
23	0	0	2147	1085	3848	1893
24	0	0	2148	1086	3848	1885
25	0	0	2192	1087	3847	1878
26	0	0	2225	1088	3849	1871
27	0	0	2153	1084	3849	1864
28	0	0	2007	1082	3848	1857
29	0	0	1888	1083	3849	1849
30	0	0	1847	1085	3847	1841
31	0	0	1852	1088	3846	1836
32	0	0	1900	1085	3847	1829
33	0	0	1938	1084	3847	1823
34	0	0	1955	1085	3845	1815
35	0	0	1934	1081	3847	1808
36	0	0	1903	1081	3848	1802
37	0	0	1888	1086	3848	1796
38	0	0	1923	1085	3848	1790
39	0	0	1937	1084	3848	1783
40	0	0	1908	1084	3848	1776
41	0	0	1938	1087	3848	1771
42	0	0	2054	1088	3848	1765
43	0	0	2125	1088	3847	1759
44	0	0	2141	1089	3847	1751
45	0	0	2149	1089	3847	1745
46	0	0	2164	1089	3848	1740
47	0	0	2156	1086	3848	1733
48	0	0	2109	1084	3847	1726
49	0	0	2048	1085	3849	1720
50	0	0	1982	1084	3846	1714
51	0	0	1940	1084	3848	1708
52	0	0	1877	1082	3848	1701
53	0	0	1798	1081	3847	1696
54	0	0	1767	1083	3848	1691
55	0	0	1786	1084	3847	1685
56	0	0	1874	1086	3848	1679
57	0	0	1982	1086	3848	1673
58	0	0	2035	1087	3849	1668
59	0	0	2037	1087	3848	1662
60	0	0	2056	1086	3847	1657
61	0	0	2073	1088	3846	1652
62	0	0	2051	1086	3848	1645
63	0	0	2041	1089	3847	1639
64	0	0	2034	1090	3848	1634
65	0	0	2018	1087	3848	1629
66	0	0	1991	1086	3847	1623
67	0	0	1956	1086	3849	1617
68	0	0	1950	1089	3848	1611
69	0	0	1961	1087	3848	1606
70	0	0	1990	1087	3848	1601
71	0	0	2006	1087	3849	1595
72	0	0	1956	1082	3848	1590
73	0	0	1888	1082	3847	1585
74	0	0	1825	1082	3847	1580
75	0	0	1787	1084	3849	1576
76	0	0	1806	1086	3848	1570
77	0	0	1856	1086	3849	1565
78	0	0	1876	1086	3847	1560
79	0	0	1895	1089	3847	1555
80	0	0	1933	1088	3849	1550
81	0	0	1996	1087	3847	1546
82	0	0	2050	1087	3847	1540
83	0	0	2081	1089	3847	1536
84	0	0	2132	1091	3848	1529
85	0	0	2175	1092	3847	1525
86	0	0	2176	1090	3848	1519
87	0	0	2128	1086	3849	1514
88	0	0	2022	1085	3847	1509
89	0	0	1923	1085	3847	1505
90	0	0	1866	1085	3847	1501
91	0	0	1872	1087	3849	1495
92	0	0	1912	1088	3848	1491
93	0	0	1953	1087	3848	1486
94	0	0	1944	1083	3848	1482
95	0	0	1897	1083	3849	1478
96	0	0	1914	1086	3847	1473
97	0	0	1948	1087	3848	1468
98	0	0	1938	1085	3847	1463
99	0	0	1906	1085	3846	1460
100	0	0	1864	1085	3847	1454
101	0	0	1848	1090	3846	1451
102	0	0	1882	1087	3847	1446
103	0	0	1932	1091	3849	1442
104	0	0	1922	1088	3847	1438
105	0	0	1890	1088	3847	1433
106	0	0	1863	1087	3847	1429
107	0	0	1881	1091	3848	1424
108	0	0	1929	1092	3848	1419
109	0	0	1936	1092	3848	1416
110	0	0	1978	1090	3847	1411
111	0	0	2035	1087	3847	1407
112	0	0	2080	1088	3848	1402
113	0	0	2107	1087	3847	1398
114	0	0	2121	1088	3848	1395
115	0	0	2135	1090	3847	1391
116	0	0	2174	1090	3849	1387
117	0	0	2244	1089	3848	1383
118	0	0	2307	1088	3847	1379
119	0	0	2375	1087	3847	1375
120	0	0	2397	1090	3847	1371
121	0	0	2398	1090	3847	1367
122	0	0	2377	1091	3848	1363
123	0	0	2369	1092	3847	1360
124	0	0	2414	1093	3847	1355
125	0	0	2493	1092	3847	1351
126	0	0	2569	1091	3849	1347
127	0	0	2593	1094	3848	1343
0	0	0	2579	1091	3847	1338
1	0	0	2534	1089	3847	1336
2	0	0	2498	1088	3846	1332
3	0	0	2478	1090	3847	1327
4	0	0	2475	1090	3847	1324
5	0	0	2492	1090	3843	1320
6	0	0	2533	1089	3847	1318
7	0	0	2554	1090	3847	1313
8	0	0	2504	1084	3849	1311
9	0	0	2471	1089	3848	1307
10	0	0	2490	1089	3847	1302
11	0	0	2544	1090	3847	1299
12	0	0	2569	1090	3847	1296
13	0	0	2536	1089	3847	1293
14	0	0	2517	1090	3848	1290
15	0	0	2470	1087	3847	1285
16	0	0	2398	1090	3847	1281
17	0	0	2347	1092	3846	1277
18	0	0	2318	1087	3846	1274
19	0	0	2269	1090	3848	1271
20	0	0	2177	1089	3847	1267
21	0	0	2083	1089	3847	1264
22	0	0	2038	1089	3847	1260
23	0	0	2049	1092	3848	1256
24	0	0	2083	1093	3847	1252
25	0	0	2103	1090	3848	1249
26	0	0	2068	1087	3847	1246
27	0	0	2011	1086	3847	1243
28	0	0	1975	1088	3849	1241
29	0	0	1955	1090	3848	1238
30	0	0	1987	1091	3849	1234
31	0	0	2019	1092	3847	1231
32	0	0	2041	1092	3847	1226
33	0	0	2006	1089	3848	1224
34	0	0	1957	1090	3847	1221
35	0	0	1918	1092	3848	1218
36	0	0	1921	1094	3846	1214
37	0	0	1927	1095	3846	1210
38	0	0	1923	1096	3848	1208
39	0	0	1932	1092	3847	1205
40	0	0	1947	1095	3847	1201
41	0	0	1977	1093	3847	1198
42	0	0	1987	1092	3846	1195
43	0	0	1981	1090	3847	1192
44	0	0	1934	1089	3848	1189
45	0	0	1899	1089	3847	1186
46	0	0	1893	1087	3847	1183
47	0	0	1869	1086	3847	1181
48	0	0	1833	1087	3847	1178
49	0	0	1811	1088	3848	1175
50	0	0	1810	1091	3847	1173
51	0	0	1838	1093	3848	1169
52	0	0	1854	1094	3846	1168
53	0	0	1823	1090	3847	1164
54	0	0	1774	1091	3847	1160
55	0	0	1796	1094	3846	1157
56	0	0	1893	1095	3847	1154
57	0	0	1961	1096	3847	1152
58	0	0	2021	1095	3847	1148
59	0	0	2097	1095	3848	1145
60	0	0	2154	1095	3848	1142
61	0	0	2132	1090	3847	1139
62	0	0	2048	1090	3847	1136
63	0	0	1958	1090	3847	1134
64	0	0	1865	1089	3848	1131
65	0	0	1798	1088	3847	1129
66	0	0	1774	1091	3847	1125
67	0	0	1814	1091	3846	1122
68	0	0	1863	1092	3847	1119
69	0	0	1866	1091	3847	1118
70	0	0	1847	1091	3847	1115
71	0	0	1837	1092	3847	1112
72	0	0	1824	1092	3847	1110
73	0	0	1876	1095	3847	1107
74	0	0	2004	1097	3847	1104
75	0	0	2112	1096	3846	1102
76	0	0	2163	1096	3847	1099
77	0	0	2144	1091	3847	1096
78	0	0	2102	1092	3847	1094
79	0	0	2072	1094	3848	1091
80	0	0	2034	1092	3847	1087
81	0	0	1988	1092	3847	1085
82	0	0	1924	1087	3847	1082
83	0	0	1905	1094	3847	1080
84	0	0	1922	1094	3847	1079
85	0	0	1909	1090	3847	1075
86	0	0	1870	1089	3846	1071
87	0	0	1825	1089	3847	1070
88	0	0	1791	1092	3846	1067
89	0	0	1810	1093	3848	1066
90	0	0	1853	1094	3847	1063
91	0	0	1889	1094	3845	1061
92	0	0	1926	1095	3848	1059
93	0	0	1966	1094	3848	1056
94	0	0	1998	1096	3847	1053
95	0	0	2036	1097	3848	1050
96	0	0	2049	1096	3848	1049
97	0	0	2060	1097	3848	1046
98	0	0	2054	1097	3847	1043
99	0	0	2015	1094	3848	1040
100	0	0	1991	1095	3847	1038
101	0	0	1985	1093	3847	1036
102	0	0	1925	1091	3847	1033
103	0	0	1859	1093	3847	1031
104	0	0	1841	1095	3847	1029
105	0	0	1855	1094	3846	1027
106	0	0	1878	1093	3846	1024
107	0	0	1889	1091	3847	1021
108	0	0	1897	1095	3846	1019
109	0	0	1904	1094	3849	1018
110	0	0	1922	1094	3848	1015
111	0	0	1962	1096	3848	1013
112	0	0	2034	1096	3848	1013
113	0	0	2070	1098	3847	1010
114	0	0	2041	1095	3848	1007
115	0	0	1996	1095	3847	1003
116	0	0	1974	1099	3848	1001
117	0	0	2023	1099	3848	1000
118	0	0	2077	1098	3847	997
119	0	0	2049	1095	3847	994
120	0	0	2018	1097	3847	991
121	0	0	2027	1097	3847	990
122	0	0	2016	1094	3847	988
123	0	0	1965	1093	3848	984
124	0	0	1868	1091	3847	983
125	0	0	1860	1095	3847	981
126	0	0	1900	1093	3847	979
127	0	0	1922	1095	3847	966
0	0	0	1946	1095	3847	977
1	0	0	1937	1093	3848	974
2	0	0	1929	1095	3847	971
3	0	0	1977	1097	3848	971
4	0	0	2001	1095	3847	968
5	0	0	1969	1095	3846	965
6	0	0	1961	1097	3847	965
7	0	0	1978	1099	3847	959
8	0	0	2023	1099	3847	959
9	0	0	2091	1099	3847	957
10	0	0	2112	1099	3847	954
11	0	0	2041	1096	3848	953
12	0	0	1964	1095	3847	948
13	0	0	1965	1098	3848	949
14	0	0	2016	1098	3848	946
15	0	0	1997	1094	3846	944
16	0	0	1936	1093	3848	942
17	0	0	1862	1091	3848	939
18	0	0	1829	1095	3847	939
19	0	0	1848	1095	3848	939
20	0	0	1876	1095	3847	935
21	0	0	1898	1096	3848	934
22	0	0	1928	1097	3847	932
23	0	0	1983	1097	3847	930
24	0	0	2019	1097	3847	928
25	0	0	2019	1097	3847	927
26	0	0	2017	1098	3848	924
27	0	0	2013	1100	3847	922
28	0	0	2029	1099	3847	920
29	0	0	2063	1100	3847	917
30	0	0	2051	1099	3848	916
31	0	0	1991	1098	3848	914
32	0	0	1907	1096	3847	912
33	0	0	1834	1096	3847	910
34	0	0	1792	1096	3848	908
35	0	0	1820	1099	3847	905
36	0	0	1856	1096	3849	904
37	0	0	1907	1096	3847	901
38	0	0	1971	1096	3846	901
39	0	0	2031	1096	3848	900
40	0	0	2077	1098	3846	898
41	0	0	2109	1096	3848	897
42	0	0	2133	1099	3847	893
43	0	0	2177	1097	3848	892
44	0	0	2216	1099	3847	891
45	0	0	2223	1099	3846	890
46	0	0	2206	1099	3848	887
47	0	0	2167	1098	3847	885
48	0	0	2135	1099	3846	884
49	0	0	2097	1097	3848	884
50	0	0	2043	1097	3847	881
51	0	0	1997	1097	3848	878
52	0	0	1970	1098	3847	873
53	0	0	1943	1097	3847	875
54	0	0	1932	1098	3847	873
55	0	0	1925	1096	3847	869
56	0	0	1863	1093	3847	869
57	0	0	1807	1093	3848	868
58	0	0	1767	1094	3846	866
59	0	0	1786	1097	3846	863
60	0	0	1852	1097	3846	863
61	0	0	1954	1098	3848	861
62	0	0	2053	1097	3848	857
63	0	0	2141	1098	3847	858
64	0	0	2161	1099	3847	859
65	0	0	2157	1102	3847	855
66	0	0	2144	1099	3848	854
67	0	0	2140	1101	3847	853
68	0	0	2121	1099	3847	851
69	0	0	2068	1097	3849	851
70	0	0	2000	1099	3847	847
71	0	0	1982	1100	3849	845
72	0	0	1991	1103	3847	842
73	0	0	1983	1098	3847	841
74	0	0	1946	1098	3847	840
75	0	0	1933	1102	3846	836
76	0	0	1937	1098	3847	835
77	0	0	1900	1094	3847	832
78	0	0	1884	1097	3846	831
79	0	0	1903	1096	3847	833
80	0	0	1920	1099	3847	830
81	0	0	1925	1098	3848	829
82	0	0	1947	1098	3847	828
83	0	0	1975	1099	3847	826
84	0	0	1913	1096	3847	825
85	0	0	1810	1099	3847	824
86	0	0	1810	1098	3848	823
87	0	0	1916	1100	3847	820
88	0	0	2032	1103	3847	818
89	0	0	2111	1104	3847	817
90	0	0	2158	1103	3846	814
91	0	0	2172	1101	3847	813
92	0	0	2143	1098	3847	812
93	0	0	2092	1097	3847	811
94	0	0	2045	1098	3847	809
95	0	0	2010	1097	3848	806
96	0	0	1946	1095	3847	804
97	0	0	1911	1096	3848	804
98	0	0	1916	1098	3846	803
99	0	0	1929	1099	3847	802
100	0	0	1919	1097	3848	801
101	0	0	1912	1099	3846	799
102	0	0	1927	1099	3849	798
103	0	0	1956	1101	3846	797
104	0	0	2012	1101	3848	796
105	0	0	2050	1102	3848	794
106	0	0	2082	1103	3846	792
107	0	0	2140	1103	3847	792
108	0	0	2157	1104	3846	789
109	0	0	2157	1102	3847	786
110	0	0	2099	1100	3846	786
111	0	0	2060	1101	3848	785
112	0	0	2069	1102	3847	784
113	0	0	2073	1099	3848	782
114	0	0	2024	1099	3847	780
115	0	0	1989	1098	3847	780
116	0	0	1936	1097	3847	777
117	0	0	1895	1096	3847	778
118	0	0	1881	1097	3847	775
119	0	0	1895	1099	3848	772
120	0	0	1915	1099	3848	773
121	0	0	1936	1101	3848	772
122	0	0	1995	1100	3848	770
123	0	0	2072	1101	3847	769
124	0	0	2072	1101	3847	768
125	0	0	2064	1101	3848	767
126	0	0	2088	1105	3847	765
127	0	0	2132	1103	3846	763
0	0	0	2179	1104	3847	762
1	0	0	2206	1104	3847	759
2	0	0	2217	1104	3847	760
3	0	0	2206	1104	3848	757
4	0	0	2165	1100	3847	756
5	0	0	2116	1097	3849	754
6	0	0	2039	1098	3847	755
7	0	0	1970	1098	3849	751
8	0	0	1922	1100	3848	751
9	0	0	1912	1100	3848	750
10	0	0	1925	1100	3847	748
11	0	0	1949	1100	3847	746
12	0	0	2000	1100	3848	746
13	0	0	2052	1101	3847	744
14	0	0	2037	1098	3847	745
15	0	0	2028	1101	3848	744
16	0	0	2045	1102	3847	742
17	0	0	2065	1104	3849	741
18	0	0	2079	1104	3847	740
19	0	0	2076	1105	3847	737
20	0	0	2094	1103	3847	737
21	0	0	2100	1105	3847	732
22	0	0	2095	1104	3850	735
23	0	0	2058	1101	3848	732
24	0	0	2013	1102	3847	730
25	0	0	2008	1102	3847	729
26	0	0	2028	1104	3848	726
27	0	0	2078	1103	3847	727
28	0	0	2105	1102	3847	726
29	0	0	2063	1098	3846	725
30	0	0	1991	1096	3847	724
31	0	0	1935	1098	3848	722
32	0	0	1933	1101	3849	723
33	0	0	1968	1103	3847	721
34	0	0	1979	1102	3848	720
35	0	0	1977	1104	3847	719
36	0	0	2019	1104	3847	716
37	0	0	2086	1104	3849	719
38	0	0	2152	1104	3847	715
39	0	0	2181	1105	3847	714
40	0	0	2191	1105	3848	712
41	0	0	2213	1106	3848	712
42	0	0	2243	1107	3850	711
43	0	0	2213	1104	3848	709
44	0	0	2137	1101	3847	708
45	0	0	2065	1101	3845	707
46	0	0	2010	1100	3847	706
47	0	0	1973	1100	3847	703
48	0	0	1919	1098	3846	702
49	0	0	1890	1099	3846	701
50	0	0	1893	1099	3846	700
51	0	0	1905	1102	3847	700
52	0	0	1930	1101	3846	700
53	0	0	1957	1103	3847	698
54	0	0	1997	1102	3846	697
55	0	0	2076	1104	3845	697
56	0	0	2118	1104	3848	692
57	0	0	2171	1104	3849	694
58	0	0	2196	1105	3847	693
59	0	0	2206	1106	3848	691
60	0	0	2206	1107	3847	690
61	0	0	2187	1104	3846	689
62	0	0	2146	1103	3848	687
63	0	0	2089	1102	3847	686
64	0	0	2036	1102	3847	685
65	0	0	1998	1102	3848	683
66	0	0	1976	1103	3848	684
67	0	0	1963	1103	3849	683
68	0	0	1941	1100	3846	680
69	0	0	1904	1099	3847	679
70	0	0	1867	1098	3845	678
71	0	0	1851	1100	3847	677
72	0	0	1871	1102	3848	677
73	0	0	1927	1100	3847	676
74	0	0	1980	1103	3847	675
75	0	0	2004	1102	3848	674
76	0	0	2015	1105	3848	672
77	0	0	2009	1105	3849	675
78	0	0	2006	1106	3846	671
79	0	0	2025	1106	3846	671
80	0	0	2078	1106	3847	668
81	0	0	2122	1108	3847	668
82	0	0	2113	1104	3848	667
83	0	0	2061	1104	3847	665
84	0	0	2014	1104	3847	664
85	0	0	2010	1105	3849	665
86	0	0	2030	1106	3847	661
87	0	0	2054	1104	3849	661
88	0	0	1994	1099	3846	659
89	0	0	1892	1099	3847	659
90	0	0	1818	1098	3847	658
91	0	0	1786	1102	3848	656
92	0	0	1853	1102	3848	657
93	0	0	2000	1104	3847	656
94	0	0	2134	1104	3847	655
95	0	0	2146	1100	3848	655
96	0	0	2077	1101	3848	654
97	0	0	1991	1103	3844	652
98	0	0	1989	1106	3847	651
99	0	0	2035	1107	3846	650
100	0	0	2082	1108	3848	649
101	0	0	2076	1105	3848	649
102	0	0	2028	1105	3848	647
103	0	0	1993	1105	3848	645
104	0	0	1976	1104	3847	644
105	0	0	1937	1102	3847	643
106	0	0	1907	1103	3847	641
107	0	0	1898	1106	3847	640
108	0	0	1894	1103	3847	640
109	0	0	1915	1103	3847	640
110	0	0	1944	1104	3847	638
111	0	0	1951	1102	3847	637
112	0	0	1912	1100	3848	637
113	0	0	1854	1100	3847	636
114	0	0	1812	1101	3847	635
115	0	0	1828	1104	3847	635
116	0	0	1896	1104	3848	635
117	0	0	1986	1106	3847	633
118	0	0	2055	1108	3847	633
119	0	0	2051	1103	3848	631
120	0	0	1998	1105	3848	629
121	0	0	2011	1109	3849	631
122	0	0	2047	1109	3849	628
123	0	0	2073	1109	3848	626
124	0	0	2056	1104	3847	625
125	0	0	2028	1106	3847	625
126	0	0	2017	1102	3847	622
127	0	0	1965	1103	3846	620
0	0	0	1888	1100	3847	621
1	0	0	1813	1100	3846	620
2	0	0	1740	1100	3845	619
3	0	0	1702	1100	3846	619
4	0	0	1714	1104	3847	619
5	0	0	1761	1105	3848	618
6	0	0	1802	1105	3845	617
7	0	0	1858	1107	3847	616
8	0	0	1954	1103	3847	614
9	0	0	2031	1107	3846	613
10	0	0	2078	1108	3847	615
11	0	0	2126	1108	3847	614
12	0	0	2163	1108	3847	611
13	0	0	2169	1106	3847	612
14	0	0	2128	1105	3847	608
15	0	0	2049	1103	3847	609
16	0	0	1960	1107	3847	607
17	0	0	1885	1104	3847	606
18	0	0	1854	1106	3846	606
19	0	0	1858	1107	3846	604
20	0	0	1880	1106	3846	603
21	0	0	1940	1104	3843	603
22	0	0	1998	1104	3846	602
23	0	0	2068	1103	3847	602
24	0	0	2102	1104	3846	600
25	0	0	2065	1101	3847	601
26	0	0	2017	1103	3847	601
27	0	0	1984	1102	3847	600
28	0	0	1936	1103	3846	599
29	0	0	1927	1108	3846	597
30	0	0	1959	1109	3847	596
31	0	0	2004	1108	3847	596
32	0	0	2038	1109	3846	596
33	0	0	2033	1109	3846	595
34	0	0	2020	1107	3846	592
35	0	0	2000	1107	3848	592
36	0	0	1995	1108	3846	590
37	0	0	1970	1106	3847	590
38	0	0	1959	1108	3846	589
39	0	0	1952	1108	3846	588
40	0	0	1926	1103	3847	587
41	0	0	1897	1104	3847	586
42	0	0	1907	1105	3846	586
43	0	0	1870	1101	3847	586
44	0	0	1792	1103	3848	585
45	0	0	1804	1104	3847	585
46	0	0	1845	1107	3849	584
47	0	0	1857	1106	3847	584
48	0	0	1900	1107	3847	584
49	0	0	1978	1109	3848	581
50	0	0	2058	1107	3847	580
51	0	0	2109	1110	3848	580
52	0	0	2098	1103	3846	579
53	0	0	2070	1109	3846	580
54	0	0	2073	1111	3848	577
55	0	0	2073	1108	3847	576
56	0	0	2068	1108	3848	575
57	0	0	1998	1104	3846	574
58	0	0	1902	1105	3847	573
59	0	0	1856	1106	3848	572
60	0	0	1835	1103	3847	572
61	0	0	1818	1105	3848	571
62	0	0	1819	1106	3847	571
63	0	0	1816	1104	3847	570
64	0	0	1797	1103	3847	570
65	0	0	1749	1101	3847	570
66	0	0	1724	1105	3847	568
67	0	0	1765	1108	3847	568
68	0	0	1889	1109	3846	566
69	0	0	2001	1109	3845	567
70	0	0	2022	1107	3847	565
71	0	0	2016	1109	3846	565
72	0	0	2049	1110	3846	564
73	0	0	2103	1112	3846	562
74	0	0	2086	1107	3847	562
75	0	0	2012	1108	3848	560
76	0	0	1947	1106	3847	560
77	0	0	1896	1107	3848	559
78	0	0	1869	1108	3848	560
79	0	0	1859	1105	3845	557
80	0	0	1823	1104	3848	557
81	0	0	1839	1106	3847	556
82	0	0	1910	1105	3846	555
83	0	0	1958	1107	3847	555
84	0	0	1960	1105	3845	556
85	0	0	1924	1101	3847	554
86	0	0	1874	1104	3847	553
87	0	0	1880	1107	3846	554
88	0	0	1931	1110	3846	552
89	0	0	1978	1108	3845	553
90	0	0	1986	1110	3847	551
91	0	0	2002	1110	3846	550
92	0	0	2008	1111	3848	550
93	0	0	1998	1111	3847	547
94	0	0	1986	1108	3848	547
95	0	0	1954	1105	3849	547
96	0	0	1943	1111	3847	546
97	0	0	1951	1113	3847	545
98	0	0	1937	1107	3846	544
99	0	0	1871	1104	3844	543
100	0	0	1785	1102	3847	543
101	0	0	1748	1105	3845	542
102	0	0	1754	1107	3846	543
103	0	0	1783	1108	3847	542
104	0	0	1837	1106	3847	542
105	0	0	1875	1104	3846	540
106	0	0	1905	1108	3847	540
107	0	0	1907	1108	3848	539
108	0	0	1939	1108	3845	539
109	0	0	1973	1107	3845	539
110	0	0	2002	1111	3848	538
111	0	0	2080	1111	3846	537
112	0	0	2174	1111	3848	535
113	0	0	2196	1108	3847	535
114	0	0	2118	1108	3847	533
115	0	0	2031	1106	3848	533
116	0	0	1980	1108	3847	532
117	0	0	1939	1107	3847	531
118	0	0	1907	1108	3846	530
119	0	0	1882	1107	3847	530
120	0	0	1869	1106	3847	529
121	0	0	1865	1109	3847	529
122	0	0	1856	1103	3844	530
123	0	0	1835	1104	3846	528
124	0	0	1769	1103	3845	529
125	0	0	1737	1106	3847	527
126	0	0	1733	1106	3848	527
127	0	0	1718	1106	3848	526
0	0	0	1750	1108	3847	525
1	0	0	1855	1110	3848	526
2	0	0	1966	1112	3849	525
3	0	0	2040	1112	3847	523
4	0	0	2075	1112	3847	523
5	0	0	2105	1112	3847	522
6	0	0	2116	1113	3848	522
7	0	0	2092	1106	3849	521
8	0	0	2037	1108	3846	519
9	0	0	2001	1109	3847	519
10	0	0	2013	1111	3847	516
11	0	0	2032	1110	3848	516
12	0	0	1984	1105	3847	516
13	0	0	1916	1106	3848	516
14	0	0	1915	1109	3847	516
15	0	0	1965	1108	3847	515
16	0	0	1984	1108	3848	516
17	0	0	1972	1108	3849	515
18	0	0	1984	1106	3845	515
19	0	0	2012	1108	3848	515
20	0	0	2057	1110	3847	514
21	0	0	2080	1111	3848	513
22	0	0	2037	1108	3848	510
23	0	0	2014	1113	3846	510
24	0	0	2037	1112	3849	509
25	0	0	2089	1113	3847	506
26	0	0	2127	1113	3846	508
27	0	0	2104	1109	3847	507
28	0	0	2027	1109	3847	505
29	0	0	1969	1108	3847	505
30	0	0	1955	1112	3847	504
31	0	0	1962	1110	3848	503
32	0	0	1940	1106	3848	503
33	0	0	1903	1106	3847	503
34	0	0	1871	1105	3847	502
35	0	0	1848	1106	3848	504
36	0	0	1846	1109	3847	502
37	0	0	1877	1107	3847	502
38	0	0	1939	1110	3847	501
39	0	0	2014	1110	3847	501
40	0	0	2045	1111	3847	503
41	0	0	2050	1112	3850	500
42	0	0	2053	1112	3847	499
43	0	0	2028	1111	3846	498
44	0	0	2033	1113	3847	497
45	0	0	2048	1114	3845	497
46	0	0	2045	1113	3846	496
47	0	0	2023	1111	3849	494
48	0	0	1987	1110	3847	494
49	0	0	1965	1111	3849	493
50	0	0	1980	1114	3847	490
51	0	0	2012	1112	3848	492
52	0	0	2021	1110	3848	491
53	0	0	1998	1106	3847	492
54	0	0	1958	1108	3846	491
55	0	0	1938	1110	3847	494
56	0	0	1954	1109	3850	491
57	0	0	1980	1109	3847	490
58	0	0	2006	1111	3848	489
59	0	0	2026	1111	3847	489
60	0	0	2062	1113	3847	488
61	0	0	2110	1113	3847	488
62	0	0	2119	1112	3847	487
63	0	0	2085	1112	3846	487
64	0	0	2046	1111	3846	486
65	0	0	2002	1112	3848	490
66	0	0	1940	1111	3847	484
67	0	0	1876	1111	3848	483
68	0	0	1864	1114	3847	483
69	0	0	1894	1113	3847	482
70	0	0	1921	1115	3847	480
71	0	0	1953	1112	3849	479
72	0	0	1955	1111	3847	479
73	0	0	1965	1110	3846	479
74	0	0	1993	1112	3846	479
75	0	0	1994	1111	3846	477
76	0	0	2029	1111	3847	479
77	0	0	2052	1111	3847	478
78	0	0	2067	1112	3847	479
79	0	0	2091	1113	3847	479
80	0	0	2115	1115	3847	476
81	0	0	2103	1113	3849	477
82	0	0	2139	1114	3847	477
83	0	0	2256	1115	3847	476
84	0	0	2369	1116	3847	473
85	0	0	2412	1116	3847	474
86	0	0	2365	1112	3848	473
87	0	0	2265	1111	3849	472
88	0	0	2149	1111	3847	471
89	0	0	2063	1111	3845	473
90	0	0	2030	1112	3847	470
91	0	0	2006	1111	3848	469
92	0	0	1958	1108	3847	469
93	0	0	1915	1109	3846	469
94	0	0	1911	1112	3846	467
95	0	0	1944	1111	3847	471
96	0	0	1980	1112	3849	469
97	0	0	2000	1111	3847	469
98	0	0	2041	1110	3847	468
99	0	0	2113	1113	3847	467
100	0	0	2149	1114	3848	471
101	0	0	2131	1111	3847	466
102	0	0	2120	1114	3847	466
103	0	0	2133	1116	3847	465
104	0	0	2160	1115	3847	465
105	0	0	2206	1115	3848	465
106	0	0	2245	1116	3847	463
107	0	0	2220	1112	3847	462
108	0	0	2170	1111	3847	461
109	0	0	2114	1111	3846	461
110	0	0	2075	1111	3848	461
111	0	0	2043	1111	3847	459
112	0	0	2012	1111	3846	459
113	0	0	1981	1110	3845	459
114	0	0	1997	1113	3848	458
115	0	0	2006	1110	3847	459
116	0	0	1963	1108	3846	457
117	0	0	1945	1112	3848	458
118	0	0	1971	1113	3847	458
119	0	0	2019	1115	3848	458
120	0	0	2071	1113	3848	459
121	0	0	2122	1114	3848	456
122	0	0	2174	1116	3847	456
123	0	0	2222	1116	3846	454
124	0	0	2223	1114	3843	455
125	0	0	2166	1113	3847	455
126	0	0	2087	1113	3847	453
127	0	0	2023	1109	3847	452
0	0	0	2017	1119	3847	450
1	0	0	2067	1117	3846	451
2	0	0	2139	1115	3848	450
3	0	0	2149	1112	3847	449
4	0	0	2077	1109	3847	449
5	0	0	1965	1108	3846	450
6	0	0	1943	1113	3846	450
7	0	0	2011	1111	3849	449
8	0	0	2074	1112	3847	450
9	0	0	2077	1114	3847	449
10	0	0	2087	1113	3847	449
11	0	0	2149	1114	3847	447
12	0	0	2199	1114	3848	447
13	0	0	2198	1115	3846	446
14	0	0	2137	1113	3847	445
15	0	0	2079	1114	3846	448
16	0	0	2080	1117	3843	447
17	0	0	2154	1117	3847	445
18	0	0	2255	1117	3847	444
19	0	0	2310	1117	3847	442
20	0	0	2244	1112	3848	442
21	0	0	2143	1113	3847	442
22	0	0	2072	1112	3848	442
23	0	0	2028	1113	3847	440
24	0	0	2005	1111	3848	439
25	0	0	1970	1110	3846	439
26	0	0	1940	1109	3847	440
27	0	0	1908	1109	3847	439
28	0	0	1893	1114	3847	438
29	0	0	1918	1113	3845	440
30	0	0	1989	1114	3848	439
31	0	0	2074	1113	3847	439
32	0	0	2128	1115	3847	438
33	0	0	2173	1116	3847	438
34	0	0	2203	1117	3848	438
35	0	0	2234	1117	3846	437
36	0	0	2267	1118	3846	437
37	0	0	2269	1117	3847	436
38	0	0	2223	1114	3845	435
39	0	0	2178	1116	3849	435
40	0	0	2157	1114	3847	434
41	0	0	2090	1114	3847	433
42	0	0	2034	1114	3847	433
43	0	0	2071	1116	3848	432
44	0	0	2109	1115	3847	431
45	0	0	2063	1111	3847	430
46	0	0	2015	1110	3846	430
47	0	0	1978	1110	3847	431
48	0	0	1960	1113	3847	430
49	0	0	1969	1113	3847	431
50	0	0	1996	1114	3847	430
51	0	0	2039	1116	3847	429
52	0	0	2103	1115	3847	429
53	0	0	2160	1118	3847	427
54	0	0	2214	1118	3847	428
55	0	0	2240	1117	3848	429
56	0	0	2245	1118	3847	427
57	0	0	2233	1115	3849	426
58	0	0	2204	1116	3848	425
59	0	0	2166	1116	3848	424
60	0	0	2128	1115	3847	425
61	0	0	2084	1114	3847	423
62	0	0	2056	1115	3848	424
63	0	0	2039	1115	3847	423
64	0	0	2030	1115	3846	422
65	0	0	2044	1115	3846	422
66	0	0	2086	1114	3846	422
67	0	0	2067	1110	3847	423
68	0	0	2004	1110	3845	423
69	0	0	1952	1111	3848	422
70	0	0	1955	1115	3847	422
71	0	0	1986	1116	3847	422
72	0	0	2017	1116	3847	421
73	0	0	2019	1117	3845	423
74	0	0	2021	1118	3848	421
75	0	0	2065	1119	3848	419
76	0	0	2150	1116	3847	418
77	0	0	2243	1119	3847	418
78	0	0	2339	1120	3850	418
79	0	0	2371	1119	3852	418
80	0	0	2348	1115	3846	417
81	0	0	2259	1114	3847	415
82	0	0	2154	1114	3847	415
83	0	0	2071	1114	3847	413
84	0	0	1997	1113	3847	415
85	0	0	1933	1112	3846	414
86	0	0	1928	1115	3847	415
87	0	0	1969	1114	3847	414
88	0	0	1983	1115	3846	415
89	0	0	2002	1115	3845	414
90	0	0	2059	1116	3847	414
91	0	0	2128	1116	3849	413
92	0	0	2168	1118	3848	411
93	0	0	2191	1118	3844	414
94	0	0	2224	1119	3850	414
95	0	0	2251	1120	3848	411
96	0	0	2223	1117	3846	411
97	0	0	2174	1117	3848	410
98	0	0	2150	1120	3848	410
99	0	0	2155	1120	3846	410
100	0	0	2183	1119	3847	409
101	0	0	2196	1120	3847	408
102	0	0	2163	1115	3844	409
103	0	0	2114	1114	3847	405
104	0	0	2053	1114	3848	406
105	0	0	1986	1112	3847	407
106	0	0	1942	1113	3848	405
107	0	0	1917	1114	3848	406
108	0	0	1933	1115	3845	407
109	0	0	2005	1118	3845	405
110	0	0	2120	1117	3847	407
111	0	0	2220	1118	3848	405
112	0	0	2262	1117	3848	405
113	0	0	2201	1115	3847	403
114	0	0	2188	1120	3848	406
115	0	0	2236	1120	3846	405
116	0	0	2260	1121	3846	402
117	0	0	2226	1118	3847	402
118	0	0	2175	1118	3848	401
119	0	0	2149	1119	3845	400
120	0	0	2163	1120	3847	401
121	0	0	2208	1120	3847	401
122	0	0	2221	1118	3844	399
123	0	0	2156	1116	3848	398
124	0	0	2066	1114	3845	399
125	0	0	1997	1113	3847	399
126	0	0	1944	1112	3847	399
127	0	0	1897	1113	3844	399
0	0	0	1900	1117	3846	399
1	0	0	1979	1117	3847	398
2	0	0	2110	1118	3848	398
3	0	0	2178	1120	3845	399
4	0	0	2144	1115	3847	398
5	0	0	2095	1116	3848	397
6	0	0	2070	1116	3845	395
7	0	0	2144	1119	3847	396
8	0	0	2250	1121	3848	397
9	0	0	2332	1121	3844	397
10	0	0	2377	1122	3847	393
11	0	0	2381	1121	3847	393
12	0	0	2320	1115	3848	395
13	0	0	2215	1116	3848	394
14	0	0	2122	1116	3844	394
15	0	0	2096	1119	3847	391
16	0	0	2091	1119	3847	390
17	0	0	2061	1114	3846	392
18	0	0	2039	1115	3847	391
19	0	0	2028	1115	3848	390
20	0	0	1991	1114	3847	389
21	0	0	1965	1116	3848	391
22	0	0	1975	1118	3847	394
23	0	0	2017	1118	3848	392
24	0	0	2070	1121	3846	390
25	0	0	2121	1119	3848	390
26	0	0	2189	1119	3847	389
27	0	0	2217	1121	3847	390
28	0	0	2260	1122	3847	389
29	0	0	2290	1122	3846	390
30	0	0	2273	1119	3847	387
31	0	0	2203	1117	3847	387
32	0	0	2142	1118	3847	386
33	0	0	2103	1118	3847	386
34	0	0	2061	1117	3844	387
35	0	0	2023	1118	3846	384
36	0	0	1982	1115	3847	383
37	0	0	1954	1117	3846	385
38	0	0	1952	1117	3846	384
39	0	0	1948	1117	3846	385
40	0	0	2003	1117	3847	384
41	0	0	2094	1119	3846	383
42	0	0	2151	1118	3848	384
43	0	0	2182	1119	3847	384
44	0	0	2221	1119	3848	383
45	0	0	2305	1121	3848	384
46	0	0	2376	1121	3846	380
47	0	0	2377	1120	3845	383
48	0	0	2284	1118	3847	382
49	0	0	2162	1118	3847	381
50	0	0	2059	1119	3849	379
51	0	0	2018	1122	3847	380
52	0	0	2063	1122	3847	380
53	0	0	2098	1121	3847	379
54	0	0	2116	1120	3846	379
55	0	0	2126	1120	3847	377
56	0	0	2070	1116	3847	377
57	0	0	1951	1115	3848	376
58	0	0	1924	1119	3845	376
59	0	0	1989	1118	3847	377
60	0	0	2103	1118	3849	378
61	0	0	2200	1119	3847	376
62	0	0	2236	1120	3849	377
63	0	0	2246	1121	3846	377
64	0	0	2273	1122	3847	377
65	0	0	2292	1121	3848	376
66	0	0	2283	1122	3847	376
67	0	0	2270	1124	3848	375
68	0	0	2269	1124	3846	374
69	0	0	2271	1124	3847	375
70	0	0	2282	1124	3846	373
71	0	0	2292	1124	3847	373
72	0	0	2310	1124	3847	372
73	0	0	2313	1117	3849	372
74	0	0	2220	1117	3847	371
75	0	0	2118	1118	3848	372
76	0	0	2063	1118	3847	371
77	0	0	2037	1117	3847	372
78	0	0	2007	1115	3848	371
79	0	0	2005	1118	3847	371
80	0	0	2055	1119	3848	370
81	0	0	2115	1119	3847	370
82	0	0	2169	1119	3847	371
83	0	0	2252	1120	3848	370
84	0	0	2342	1122	3848	371
85	0	0	2401	1123	3847	370
86	0	0	2368	1119	3848	369
87	0	0	2301	1119	3846	369
88	0	0	2242	1121	3846	367
89	0	0	2230	1124	3847	369
90	0	0	2246	1125	3848	367
91	0	0	2211	1120	3847	367
92	0	0	2115	1119	3846	368
93	0	0	2017	1117	3848	365
94	0	0	1951	1119	3848	364
95	0	0	1924	1122	3846	364
96	0	0	1949	1121	3847	363
97	0	0	2003	1120	3847	364
98	0	0	2023	1118	3848	363
99	0	0	1999	1119	3848	364
100	0	0	1989	1119	3846	364
101	0	0	1996	1120	3848	364
102	0	0	2013	1120	3847	363
103	0	0	2041	1121	3846	366
104	0	0	2065	1123	3848	364
105	0	0	2096	1123	3848	364
106	0	0	2142	1123	3847	364
107	0	0	2176	1125	3847	364
108	0	0	2160	1121	3847	362
109	0	0	2126	1121	3847	362
110	0	0	2094	1123	3848	360
111	0	0	2107	1119	3847	359
112	0	0	2128	1123	3847	360
113	0	0	2122	1123	3847	361
114	0	0	2115	1125	3848	360
115	0	0	2069	1118	3848	358
116	0	0	2013	1118	3846	359
117	0	0	1985	1120	3848	358
118	0	0	1984	1120	3847	358
119	0	0	2002	1120	3847	359
120	0	0	1990	1118	3847	360
121	0	0	1978	1121	3846	359
122	0	0	1993	1122	3847	360
123	0	0	2021	1120	3847	358
124	0	0	2095	1123	3848	356
125	0	0	2182	1124	3848	359
126	0	0	2241	1124	3847	357
127	0	0	2272	1125	3847	357
0	0	0	2264	1124	3847	357
1	0	0	2261	1125	3849	354
2	0	0	2276	1125	3848	356
3	0	0	2302	1125	3848	355
4	0	0	2311	1123	3847	355
5	0	0	2242	1120	3849	354
6	0	0	2150	1120	3848	357
7	0	0	2092	1120	3847	355
8	0	0	2037	1119	3848	351
9	0	0	1978	1118	3846	353
10	0	0	1950	1119	3847	352
11	0	0	1951	1122	3848	354
12	0	0	1950	1121	3848	354
13	0	0	1980	1121	3848	352
14	0	0	2055	1122	3847	353
15	0	0	2110	1121	3847	352
16	0	0	2110	1123	3848	352
17	0	0	2110	1125	3848	352
18	0	0	2087	1121	3848	352
19	0	0	2049	1123	3847	352
20	0	0	2073	1125	3845	351
21	0	0	2160	1126	3847	348
22	0	0	2241	1126	3847	351
23	0	0	2250	1124	3848	349
24	0	0	2193	1123	3847	349
25	0	0	2150	1122	3847	347
26	0	0	2125	1122	3848	349
27	0	0	2061	1119	3847	346
28	0	0	1940	1120	3848	346
29	0	0	1871	1120	3846	348
30	0	0	1883	1121	3847	347
31	0	0	1896	1120	3846	348
32	0	0	1878	1118	3847	349
33	0	0	1860	1122	3848	347
34	0	0	1914	1122	3849	345
35	0	0	1964	1120	3845	347
36	0	0	2031	1124	3848	347
37	0	0	2156	1124	3847	347
38	0	0	2276	1125	3848	345
39	0	0	2346	1125	3847	344
40	0	0	2345	1123	3847	345
41	0	0	2292	1123	3848	343
42	0	0	2245	1124	3847	345
43	0	0	2233	1125	3848	344
44	0	0	2215	1122	3847	344
45	0	0	2167	1121	3847	343
46	0	0	2106	1121	3848	341
47	0	0	2037	1120	3847	343
48	0	0	1976	1119	3848	340
49	0	0	1952	1119	3848	341
50	0	0	1944	1123	3847	344
51	0	0	1933	1119	3848	341
52	0	0	1928	1122	3848	343
53	0	0	1943	1121	3848	341
54	0	0	1974	1122	3847	344
55	0	0	2064	1122	3848	344
56	0	0	2136	1123	3848	341
57	0	0	2157	1124	3847	342
58	0	0	2178	1124	3847	341
59	0	0	2189	1126	3846	341
60	0	0	2163	1124	3846	340
61	0	0	2155	1125	3846	341
62	0	0	2144	1125	3847	337
63	0	0	2136	1126	3850	339
64	0	0	2119	1123	3847	338
65	0	0	2064	1122	3847	338
66	0	0	2012	1122	3847	338
67	0	0	1998	1122	3847	335
68	0	0	1994	1123	3847	335
69	0	0	1973	1120	3848	336
70	0	0	1947	1120	3849	337
71	0	0	1925	1121	3847	337
72	0	0	1954	1122	3848	336
73	0	0	2076	1122	3850	336
74	0	0	2138	1121	3847	336
75	0	0	2112	1122	3844	338
76	0	0	2117	1124	3846	335
77	0	0	2161	1125	3847	336
78	0	0	2202	1126	3847	335
79	0	0	2202	1124	3849	335
80	0	0	2173	1125	3849	335
81	0	0	2174	1128	3848	338
82	0	0	2154	1124	3848	334
83	0	0	2144	1127	3850	333
84	0	0	2168	1126	3847	335
85	0	0	2137	1122	3847	332
86	0	0	2068	1119	3848	332
87	0	0	2031	1123	3848	332
88	0	0	2022	1122	3848	331
89	0	0	2011	1123	3847	331
90	0	0	2023	1122	3844	333
91	0	0	2074	1122	3846	333
92	0	0	2147	1124	3847	331
93	0	0	2217	1122	3847	331
94	0	0	2294	1123	3847	332
95	0	0	2378	1124	3847	331
96	0	0	2451	1123	3847	331
97	0	0	2508	1124	3849	329
98	0	0	2557	1125	3850	330
99	0	0	2609	1127	3848	329
100	0	0	2640	1127	3848	331
101	0	0	2624	1125	3847	330
102	0	0	2597	1127	3848	328
103	0	0	2583	1126	3851	328
104	0	0	2599	1127	3848	326
105	0	0	2630	1126	3847	327
106	0	0	2673	1123	3847	326
107	0	0	2688	1125	3847	325
108	0	0	2663	1123	3847	326
109	0	0	2647	1124	3846	327
110	0	0	2662	1123	3846	326
111	0	0	2656	1119	3846	327
112	0	0	2588	1117	3847	325
113	0	0	2547	1124	3847	325
114	0	0	2599	1123	3847	327
115	0	0	2706	1125	3847	327
116	0	0	2761	1124	3847	325
117	0	0	2720	1122	3848	324
118	0	0	2666	1126	3851	328
119	0	0	2694	1127	3846	325
120	0	0	2703	1126	3847	325
121	0	0	2640	1123	3846	323
122	0	0	2588	1124	3847	322
123	0	0	2528	1123	3847	322
124	0	0	2455	1123	3847	323
125	0	0	2350	1123	3847	323
126	0	0	2237	1120	3847	321
127	0	0	2128	1122	3847	321
0	0	0	2063	1119	3847	321
1	0	0	2020	1121	3845	322
2	0	0	2028	1122	3848	320
3	0	0	2042	1123	3848	321
4	0	0	2006	1119	3848	324
5	0	0	1979	1121	3848	321
6	0	0	1984	1123	3847	322
7	0	0	1981	1122	3848	321
8	0	0	1955	1122	3848	323
9	0	0	1966	1126	3848	323
10	0	0	2025	1126	3848	322
11	0	0	2072	1127	3846	320
12	0	0	2081	1128	3848	320
13	0	0	2086	1128	3848	323
14	0	0	2078	1128	3847	319
15	0	0	2065	1127	3848	318
16	0	0	2027	1124	3847	318
17	0	0	1981	1123	3848	319
18	0	0	1930	1123	3847	318
19	0	0	1885	1123	3848	320
20	0	0	1868	1122	3847	316
21	0	0	1864	1124	3847	316
22	0	0	1864	1123	3846	318
23	0	0	1874	1121	3848	317
24	0	0	1889	1123	3848	317
25	0	0	1931	1124	3847	316
26	0	0	1991	1125	3847	317
27	0	0	2017	1125	3846	317
28	0	0	2023	1127	3847	316
29	0	0	2051	1126	3848	317
30	0	0	2107	1124	3846	316
31	0	0	2141	1128	3847	315
32	0	0	2123	1124	3847	315
33	0	0	2125	1127	3845	315
34	0	0	2163	1130	3847	315
35	0	0	2192	1127	3847	314
36	0	0	2130	1125	3847	313
37	0	0	2009	1122	3848	313
38	0	0	1900	1126	3848	313
39	0	0	1851	1123	3848	313
40	0	0	1845	1125	3847	311
41	0	0	1895	1127	3847	311
42	0	0	1927	1123	3845	311
43	0	0	1906	1123	3847	311
44	0	0	1873	1120	3847	313
45	0	0	1863	1125	3848	312
46	0	0	1891	1125	3847	312
47	0	0	1948	1125	3849	312
48	0	0	2028	1127	3848	312
49	0	0	2101	1127	3847	311
50	0	0	2155	1127	3847	311
51	0	0	2163	1127	3847	311
52	0	0	2158	1128	3845	310
53	0	0	2150	1128	3845	311
54	0	0	2154	1129	3848	312
55	0	0	2151	1126	3847	310
56	0	0	2073	1123	3847	309
57	0	0	1961	1123	3846	307
58	0	0	1879	1123	3847	308
59	0	0	1831	1123	3847	310
60	0	0	1785	1122	3846	309
61	0	0	1763	1125	3848	306
62	0	0	1821	1124	3844	307
63	0	0	1886	1123	3847	308
64	0	0	1900	1123	3848	307
65	0	0	1873	1121	3847	308
66	0	0	1856	1123	3847	308
67	0	0	1867	1125	3848	306
68	0	0	1899	1127	3847	307
69	0	0	1996	1127	3848	307
70	0	0	2100	1127	3847	309
71	0	0	2132	1129	3847	307
72	0	0	2093	1125	3848	305
73	0	0	2038	1125	3848	306
74	0	0	1999	1125	3848	308
75	0	0	1941	1125	3847	305
76	0	0	1914	1128	3847	305
77	0	0	1932	1127	3847	303
78	0	0	1969	1128	3848	308
79	0	0	1992	1127	3847	303
80	0	0	1970	1122	3847	306
81	0	0	1899	1120	3846	305
82	0	0	1853	1122	3844	303
83	0	0	1860	1122	3844	303
84	0	0	1898	1124	3848	307
85	0	0	1927	1125	3847	306
86	0	0	1953	1124	3847	304
87	0	0	1979	1126	3847	303
88	0	0	2011	1126	3848	304
89	0	0	2069	1127	3848	306
90	0	0	2103	1127	3847	303
91	0	0	2117	1129	3847	302
92	0	0	2133	1129	3845	301
93	0	0	2130	1129	3847	302
94	0	0	2120	1128	3848	303
95	0	0	2084	1126	3847	303
96	0	0	2044	1126	3847	301
97	0	0	2020	1125	3847	298
98	0	0	1972	1124	3848	302
99	0	0	1897	1123	3847	302
100	0	0	1805	1122	3847	299
101	0	0	1769	1126	3847	299
102	0	0	1830	1123	3847	299
103	0	0	1906	1125	3847	299
104	0	0	1913	1122	3848	303
105	0	0	1855	1120	3849	301
106	0	0	1785	1121	3849	299
107	0	0	1769	1127	3849	299
108	0	0	1815	1128	3847	300
109	0	0	1887	1126	3847	299
110	0	0	1903	1129	3846	299
111	0	0	1921	1129	3847	298
112	0	0	1991	1129	3847	298
113	0	0	2084	1128	3847	298
114	0	0	2174	1130	3848	297
115	0	0	2232	1130	3848	296
116	0	0	2276	1128	3847	296
117	0	0	2260	1126	3848	295
118	0	0	2187	1123	3848	296
119	0	0	2098	1123	3848	295
120	0	0	2062	1126	3848	295
121	0	0	2053	1123	3847	295
122	0	0	1999	1122	3847	296
123	0	0	1950	1121	3847	296
124	0	0	1972	1125	3848	295
125	0	0	2057	1125	3847	295
126	0	0	2124	1123	3847	296
127	0	0	2154	1128	3847	274
0	0	0	2202	1128	3848	298
1	0	0	2212	1127	3847	294
2	0	0	2227	1128	3847	295
3	0	0	2296	1128	3846	296
4	0	0	2295	1125	3847	293
5	0	0	2146	1126	3847	294
6	0	0	1954	1124	3847	293
7	0	0	1848	1127	3848	292
8	0	0	1885	1130	3847	293
9	0	0	1983	1129	3848	291
10	0	0	2028	1129	3849	292
11	0	0	2001	1125	3848	293
12	0	0	1911	1122	3847	291
13	0	0	1789	1122	3848	291
14	0	0	1718	1125	3847	290
15	0	0	1704	1125	3847	291
16	0	0	1735	1125	3848	291
17	0	0	1808	1125	3847	293
18	0	0	1890	1125	3847	292
19	0	0	1962	1125	3846	294
20	0	0	2028	1128	3848	294
21	0	0	2032	1125	3847	291
22	0	0	2001	1126	3846	290
23	0	0	1998	1130	3847	292
24	0	0	1998	1129	3846	291
25	0	0	1975	1126	3847	293
26	0	0	1958	1129	3848	289
27	0	0	1949	1130	3847	290
28	0	0	1978	1129	3847	288
29	0	0	2016	1128	3848	285
30	0	0	2002	1126	3848	287
31	0	0	1996	1126	3847	288
32	0	0	2013	1127	3847	287
33	0	0	2011	1128	3846	288
34	0	0	1976	1122	3846	287
35	0	0	1940	1125	3847	286
36	0	0	1927	1125	3847	288
37	0	0	1957	1125	3847	288
38	0	0	2000	1126	3847	288
39	0	0	2029	1128	3847	288
40	0	0	2043	1128	3847	288
41	0	0	2064	1128	3849	287
42	0	0	2072	1128	3847	288
43	0	0	2119	1127	3847	287
44	0	0	2174	1130	3846	287
45	0	0	2208	1129	3847	287
46	0	0	2174	1127	3848	287
47	0	0	2112	1128	3848	285
48	0	0	2104	1130	3847	285
49	0	0	2104	1129	3847	282
50	0	0	2092	1131	3848	284
51	0	0	2069	1124	3847	285
52	0	0	2004	1125	3846	284
53	0	0	1962	1124	3846	283
54	0	0	1928	1124	3846	284
55	0	0	1920	1125	3847	287
56	0	0	1969	1127	3847	286
57	0	0	2055	1127	3847	283
58	0	0	2104	1127	3847	285
59	0	0	2099	1128	3846	284
60	0	0	2114	1126	3847	285
61	0	0	2087	1126	3848	284
62	0	0	2081	1130	3847	283
63	0	0	2135	1130	3848	284
64	0	0	2194	1130	3847	283
65	0	0	2197	1127	3847	285
66	0	0	2151	1127	3847	283
67	0	0	2141	1130	3846	281
68	0	0	2196	1130	3847	282
69	0	0	2238	1128	3846	281
70	0	0	2136	1123	3847	283
71	0	0	1992	1125	3847	281
72	0	0	1924	1126	3844	278
73	0	0	1916	1127	3846	281
74	0	0	1896	1124	3847	280
75	0	0	1897	1126	3848	280
76	0	0	1931	1126	3848	282
77	0	0	1957	1126	3848	281
78	0	0	1991	1127	3847	280
79	0	0	2037	1128	3847	280
80	0	0	2090	1128	3848	280
81	0	0	2121	1128	3848	281
82	0	0	2077	1126	3848	281
83	0	0	2018	1127	3846	280
84	0	0	1969	1128	3846	279
85	0	0	1979	1131	3847	277
86	0	0	2048	1131	3848	278
87	0	0	2139	1131	3846	280
88	0	0	2202	1130	3847	278
89	0	0	2203	1129	3846	279
90	0	0	2174	1126	3847	278
91	0	0	2125	1125	3847	278
92	0	0	2057	1124	3845	274
93	0	0	2022	1126	3847	276
94	0	0	2026	1127	3847	275
95	0	0	2024	1123	3847	277
96	0	0	2039	1127	3848	278
97	0	0	2072	1127	3848	278
98	0	0	2116	1127	3847	277
99	0	0	2154	1126	3846	277
100	0	0	2161	1127	3847	278
101	0	0	2133	1126	3849	277
102	0	0	2097	1128	3846	277
103	0	0	2081	1130	3846	276
104	0	0	2121	1131	3846	276
105	0	0	2183	1132	3847	275
106	0	0	2193	1129	3847	275
107	0	0	2142	1128	3848	276
108	0	0	2059	1126	3847	275
109	0	0	2011	1128	3847	274
110	0	0	1985	1129	3848	273
111	0	0	1966	1128	3848	274
112	0	0	2043	1131	3847	272
113	0	0	2166	1126	3847	274
114	0	0	2252	1125	3846	274
115	0	0	2198	1123	3847	274
116	0	0	2116	1122	3847	276
117	0	0	2056	1124	3847	276
118	0	0	2055	1127	3847	274
119	0	0	2125	1126	3847	274
120	0	0	2170	1128	3847	276
121	0	0	2173	1130	3847	275
122	0	0	2155	1130	3846	274
123	0	0	2173	1134	3848	272
124	0	0	2214	1133	3846	272
125	0	0	2241	1132	3847	273
126	0	0	2252	1132	3848	272
127	0	0	2231	1130	3848	272
0	0	0	2221	1132	3848	271
1	0	0	2213	1131	3847	269
2	0	0	2204	1130	3847	271
3	0	0	2184	1128	3847	271
4	0	0	2167	1128	3847	270
5	0	0	2171	1128	3846	271
6	0	0	2186	1128	3846	272
7	0	0	2191	1127	3846	271
8	0	0	2205	1128	3847	271
9	0	0	2197	1128	3846	271
10	0	0	2161	1125	3847	271
11	0	0	2143	1129	3848	271
12	0	0	2171	1129	3848	271
13	0	0	2222	1131	3848	270
14	0	0	2269	1131	3848	269
15	0	0	2300	1132	3847	270
16	0	0	2282	1129	3848	270
17	0	0	2225	1129	3848	269
18	0	0	2166	1129	3848	270
19	0	0	2111	1128	3847	269
20	0	0	2063	1127	3847	268
21	0	0	2045	1130	3847	268
22	0	0	2060	1131	3847	268
23	0	0	2077	1130	3847	267
24	0	0	2064	1128	3846	267
25	0	0	2052	1127	3846	267
26	0	0	2058	1127	3846	267
27	0	0	2060	1127	3847	268
28	0	0	2028	1125	3847	267
29	0	0	2015	1127	3847	263
30	0	0	2038	1131	3848	267
31	0	0	2082	1130	3848	266
32	0	0	2164	1129	3847	268
33	0	0	2243	1131	3849	267
34	0	0	2235	1128	3847	267
35	0	0	2220	1132	3847	267
36	0	0	2224	1132	3848	268
37	0	0	2184	1128	3847	268
38	0	0	2164	1134	3848	266
39	0	0	2172	1132	3843	268
40	0	0	2139	1129	3846	265
41	0	0	2086	1128	3848	265
42	0	0	2059	1130	3849	264
43	0	0	2051	1131	3847	264
44	0	0	2060	1130	3848	263
45	0	0	2023	1125	3846	264
46	0	0	1943	1124	3847	264
47	0	0	1887	1123	3847	268
48	0	0	1913	1128	3848	264
49	0	0	1979	1128	3847	263
50	0	0	2026	1128	3847	265
51	0	0	2062	1130	3847	264
52	0	0	2112	1128	3848	267
53	0	0	2168	1130	3848	264
54	0	0	2217	1130	3846	263
55	0	0	2262	1132	3846	264
56	0	0	2244	1129	3848	266
57	0	0	2179	1128	3846	263
58	0	0	2129	1130	3847	262
59	0	0	2121	1133	3846	263
60	0	0	2117	1130	3846	262
61	0	0	2059	1129	3847	261
62	0	0	2045	1132	3848	261
63	0	0	2038	1128	3847	262
64	0	0	1997	1126	3848	260
65	0	0	1932	1124	3847	261
66	0	0	1916	1129	3847	262
67	0	0	1961	1129	3846	261
68	0	0	2012	1128	3847	263
69	0	0	2029	1129	3847	259
70	0	0	2060	1130	3847	262
71	0	0	2121	1129	3847	262
72	0	0	2186	1130	3846	261
73	0	0	2236	1132	3848	261
74	0	0	2219	1130	3846	257
75	0	0	2197	1130	3847	261
76	0	0	2172	1131	3844	263
77	0	0	2152	1134	3845	259
78	0	0	2159	1135	3848	259
79	0	0	2179	1133	3847	257
80	0	0	2152	1131	3848	256
81	0	0	2074	1127	3848	262
82	0	0	1989	1128	3847	259
83	0	0	1949	1130	3848	259
84	0	0	1946	1129	3847	256
85	0	0	1914	1127	3847	258
86	0	0	1890	1127	3848	260
87	0	0	1877	1125	3847	259
88	0	0	1859	1126	3847	260
89	0	0	1873	1129	3847	256
90	0	0	1936	1130	3847	259
91	0	0	2014	1131	3847	258
92	0	0	2066	1133	3847	257
93	0	0	2068	1131	3847	258
94	0	0	2059	1133	3848	258
95	0	0	2055	1132	3846	259
96	0	0	2058	1134	3846	259
97	0	0	2058	1135	3846	257
98	0	0	2088	1134	3848	257
99	0	0	2123	1134	3847	256
100	0	0	2149	1134	3847	256
101	0	0	2152	1134	3847	256
102	0	0	2137	1133	3846	255
103	0	0	2129	1131	3846	256
104	0	0	2124	1131	3846	252
105	0	0	2083	1127	3846	255
106	0	0	2045	1126	3846	255
107	0	0	1997	1127	3846	255
108	0	0	1935	1125	3848	256
109	0	0	1882	1126	3847	256
110	0	0	1884	1130	3848	255
111	0	0	1961	1132	3847	256
112	0	0	2016	1131	3846	256
113	0	0	2014	1132	3848	257
114	0	0	2042	1133	3846	256
115	0	0	2128	1133	3848	256
116	0	0	2203	1133	3849	255
117	0	0	2238	1134	3847	254
118	0	0	2241	1132	3848	255
119	0	0	2207	1131	3847	252
120	0	0	2156	1131	3847	254
121	0	0	2101	1129	3847	253
122	0	0	2052	1132	3846	252
123	0	0	2017	1128	3847	253
124	0	0	1979	1127	3846	248
125	0	0	1927	1127	3846	254
126	0	0	1906	1128	3846	253
127	0	0	1936	1130	3846	252
0	0	0	1981	1127	3847	253
1	0	0	2034	1131	3847	252
2	0	0	2065	1130	3847	253
3	0	0	2065	1130	3846	253
4	0	0	2078	1134	3847	252
5	0	0	2095	1132	3848	254
6	0	0	2100	1131	3847	249
7	0	0	2065	1131	3847	255
8	0	0	2062	1136	3847	252
9	0	0	2112	1136	3846	251
10	0	0	2171	1135	3847	252
11	0	0	2218	1134	3845	252
12	0	0	2222	1132	3847	251
13	0	0	2148	1128	3847	250
14	0	0	2085	1131	3846	249
15	0	0	2081	1131	3847	250
16	0	0	2046	1128	3848	249
17	0	0	1972	1128	3845	249
18	0	0	1942	1126	3847	249
19	0	0	1868	1126	3848	249
20	0	0	1811	1127	3848	250
21	0	0	1843	1130	3849	250
22	0	0	1954	1133	3847	250
23	0	0	2113	1131	3848	250
24	0	0	2183	1131	3848	250
25	0	0	2185	1133	3847	249
26	0	0	2176	1134	3848	250
27	0	0	2151	1133	3846	250
28	0	0	2139	1135	3846	247
29	0	0	2161	1135	3845	248
30	0	0	2190	1135	3847	248
31	0	0	2171	1132	3847	248
32	0	0	2108	1131	3848	247
33	0	0	2007	1131	3849	248
34	0	0	1949	1132	3848	250
35	0	0	1964	1134	3848	247
36	0	0	1998	1132	3847	246
37	0	0	2005	1131	3847	247
38	0	0	1990	1130	3847	248
39	0	0	1993	1131	3848	247
40	0	0	1998	1129	3847	248
41	0	0	1952	1127	3847	248
42	0	0	1917	1130	3846	248
43	0	0	2012	1132	3847	248
44	0	0	2179	1132	3847	248
45	0	0	2317	1136	3847	247
46	0	0	2355	1133	3846	247
47	0	0	2271	1129	3847	245
48	0	0	2166	1132	3847	245
49	0	0	2145	1137	3849	248
50	0	0	2125	1135	3847	246
51	0	0	2124	1136	3848	245
52	0	0	2152	1133	3847	246
53	0	0	2116	1131	3847	243
54	0	0	2056	1130	3846	244
55	0	0	1981	1133	3848	245
56	0	0	1954	1131	3847	245
57	0	0	1951	1132	3848	244
58	0	0	1926	1128	3847	248
59	0	0	1881	1127	3847	246
60	0	0	1839	1128	3847	245
61	0	0	1811	1128	3848	244
62	0	0	1810	1132	3847	245
63	0	0	1863	1133	3847	243
64	0	0	1937	1132	3846	248
65	0	0	1976	1133	3847	245
66	0	0	2019	1133	3847	245
67	0	0	2075	1133	3846	245
68	0	0	2133	1136	3847	242
69	0	0	2176	1136	3849	246
70	0	0	2153	1134	3848	243
71	0	0	2104	1132	3847	243
72	0	0	2061	1130	3847	242
73	0	0	2006	1131	3848	240
74	0	0	1921	1131	3849	243
75	0	0	1866	1131	3848	241
76	0	0	1860	1133	3847	243
77	0	0	1870	1131	3848	242
78	0	0	1896	1131	3846	242
79	0	0	1908	1133	3847	242
80	0	0	1902	1131	3847	242
81	0	0	1884	1129	3845	242
82	0	0	1863	1127	3847	243
83	0	0	1828	1130	3847	240
84	0	0	1794	1130	3848	244
85	0	0	1788	1133	3847	242
86	0	0	1813	1135	3847	243
87	0	0	1947	1132	3847	242
88	0	0	2104	1135	3847	240
89	0	0	2195	1136	3849	241
90	0	0	2211	1137	3848	241
91	0	0	2184	1133	3847	241
92	0	0	2167	1132	3848	240
93	0	0	2114	1132	3847	241
94	0	0	2057	1132	3848	244
95	0	0	2054	1134	3847	239
96	0	0	2049	1132	3846	239
97	0	0	2004	1126	3847	240
98	0	0	1902	1127	3846	240
99	0	0	1782	1127	3847	239
100	0	0	1725	1130	3847	239
101	0	0	1753	1131	3847	241
102	0	0	1793	1132	3848	240
103	0	0	1824	1132	3846	239
104	0	0	1880	1133	3849	241
105	0	0	1981	1133	3847	240
106	0	0	2101	1134	3848	240
107	0	0	2164	1135	3847	240
108	0	0	2151	1129	3847	240
109	0	0	2091	1133	3846	239
110	0	0	2024	1132	3847	238
111	0	0	1991	1133	3846	239
112	0	0	1967	1134	3845	239
113	0	0	1979	1136	3847	236
114	0	0	1997	1135	3849	237
115	0	0	1950	1130	3848	237
116	0	0	1863	1129	3846	235
117	0	0	1796	1129	3846	237
118	0	0	1755	1129	3846	238
119	0	0	1754	1132	3844	237
120	0	0	1803	1130	3847	238
121	0	0	1878	1131	3848	238
122	0	0	1979	1131	3847	238
123	0	0	2032	1132	3847	238
124	0	0	2065	1133	3850	239
125	0	0	2077	1135	3847	237
126	0	0	2065	1132	3847	238
127	0	0	2047	1134	3847	237
0	0	0	2045	1137	3846	238
1	0	0	2052	1135	3847	237
2	0	0	2105	1136	3847	237
3	0	0	2155	1136	3846	236
4	0	0	2159	1132	3847	236
5	0	0	2080	1131	3848	236
6	0	0	1990	1132	3846	235
7	0	0	1985	1134	3847	235
8	0	0	2008	1133	3847	235
9	0	0	2033	1133	3844	235
10	0	0	2003	1128	3847	232
11	0	0	1919	1128	3848	235
12	0	0	1833	1126	3847	235
13	0	0	1795	1132	3848	235
14	0	0	1849	1132	3846	235
15	0	0	1921	1132	3847	235
16	0	0	1960	1132	3848	235
17	0	0	1953	1131	3847	235
18	0	0	1958	1135	3848	235
19	0	0	1989	1134	3846	235
20	0	0	2012	1136	3846	235
21	0	0	2010	1136	3849	235
22	0	0	1973	1132	3846	234
23	0	0	1916	1132	3847	233
24	0	0	1888	1132	3848	233
25	0	0	1888	1136	3849	235
26	0	0	1912	1135	3848	233
27	0	0	1929	1134	3848	232
28	0	0	1903	1130	3847	232
29	0	0	1858	1129	3848	232
30	0	0	1814	1129	3848	231
31	0	0	1803	1132	3848	232
32	0	0	1805	1132	3847	233
33	0	0	1805	1132	3846	233
34	0	0	1827	1132	3846	232
35	0	0	1840	1132	3846	232
36	0	0	1834	1131	3846	230
37	0	0	1821	1134	3847	233
38	0	0	1903	1134	3844	232
39	0	0	2026	1135	3846	234
40	0	0	2078	1136	3847	232
41	0	0	2074	1136	3848	232
42	0	0	2070	1135	3847	230
43	0	0	2087	1135	3847	232
44	0	0	2084	1131	3847	231
45	0	0	2010	1130	3847	230
46	0	0	1902	1131	3848	231
47	0	0	1874	1134	3848	231
48	0	0	1884	1133	3847	229
49	0	0	1863	1130	3847	230
50	0	0	1819	1126	3846	229
51	0	0	1760	1129	3846	229
52	0	0	1713	1129	3846	231
53	0	0	1666	1128	3846	231
54	0	0	1685	1132	3847	232
55	0	0	1805	1132	3847	230
56	0	0	1995	1133	3848	230
57	0	0	2160	1132	3847	231
58	0	0	2277	1134	3847	231
59	0	0	2302	1136	3847	231
60	0	0	2244	1131	3848	231
61	0	0	2160	1133	3848	230
62	0	0	2104	1132	3847	229
63	0	0	2052	1131	3847	230
64	0	0	2037	1135	3848	228
65	0	0	2044	1136	3849	231
66	0	0	2034	1132	3846	228
67	0	0	2001	1131	3846	228
68	0	0	1967	1130	3847	228
69	0	0	1936	1129	3846	228
70	0	0	1924	1131	3846	229
71	0	0	1938	1131	3845	228
72	0	0	1973	1132	3847	229
73	0	0	1989	1132	3847	229
74	0	0	2015	1132	3847	229
75	0	0	2013	1128	3848	230
76	0	0	1932	1129	3846	228
77	0	0	1855	1130	3848	229
78	0	0	1819	1134	3847	229
79	0	0	1879	1134	3846	229
80	0	0	1972	1134	3846	229
81	0	0	2081	1135	3846	225
82	0	0	2198	1135	3846	226
83	0	0	2256	1136	3846	227
84	0	0	2269	1135	3846	227
85	0	0	2202	1131	3848	227
86	0	0	2093	1130	3845	224
87	0	0	2010	1131	3847	225
88	0	0	1963	1130	3846	225
89	0	0	1930	1128	3848	225
90	0	0	1897	1128	3848	227
91	0	0	1880	1130	3849	227
92	0	0	1884	1131	3848	226
93	0	0	1903	1131	3847	227
94	0	0	1913	1132	3848	226
95	0	0	1916	1132	3848	226
96	0	0	1927	1134	3848	228
97	0	0	1967	1131	3847	226
98	0	0	2018	1135	3848	226
99	0	0	2072	1134	3846	227
100	0	0	2106	1135	3846	223
101	0	0	2100	1136	3847	226
102	0	0	2100	1136	3846	225
103	0	0	2109	1135	3846	225
104	0	0	2116	1135	3847	225
105	0	0	2085	1130	3847	224
106	0	0	2028	1132	3846	224
107	0	0	1991	1131	3847	223
108	0	0	1975	1131	3847	224
109	0	0	1952	1131	3846	223
110	0	0	1962	1131	3847	223
111	0	0	1998	1132	3846	224
112	0	0	2020	1131	3847	225
113	0	0	2062	1131	3846	224
114	0	0	2137	1132	3846	225
115	0	0	2165	1131	3847	223
116	0	0	2116	1131	3848	223
117	0	0	2077	1128	3847	225
118	0	0	2016	1131	3847	224
119	0	0	1992	1134	3845	225
120	0	0	1992	1135	3846	223
121	0	0	2012	1136	3847	223
122	0	0	2052	1135	3846	223
123	0	0	2133	1136	3846	222
124	0	0	2130	1135	3846	222
125	0	0	2087	1133	3846	223
126	0	0	2058	1133	3847	223
127	0	0	2016	1129	3847	221
0	0	0	2001	1134	3847	222
1	0	0	2002	1134	3846	222
2	0	0	2019	1132	3846	222
3	0	0	2039	1130	3846	222
4	0	0	2024	1128	3847	223
5	0	0	1993	1130	3846	222
6	0	0	1994	1133	3847	222
7	0	0	2017	1133	3847	223
8	0	0	2056	1133	3847	223
9	0	0	2099	1134	3847	222
10	0	0	2111	1135	3845	222
11	0	0	2137	1135	3848	222
12	0	0	2158	1135	3846	222
13	0	0	2150	1134	3847	222
14	0	0	2092	1131	3846	220
15	0	0	2009	1133	3847	221
16	0	0	1941	1134	3847	221
17	0	0	1931	1135	3847	220
18	0	0	1954	1136	3847	221
19	0	0	1972	1135	3847	219
20	0	0	1953	1129	3847	218
21	0	0	1889	1132	3845	220
22	0	0	1883	1134	3845	221
23	0	0	1953	1132	3846	221
24	0	0	2005	1130	3845	219
25	0	0	2036	1132	3846	220
26	0	0	2064	1134	3848	220
27	0	0	2077	1134	3847	219
28	0	0	2100	1134	3845	221
29	0	0	2105	1133	3847	221
30	0	0	2123	1136	3847	220
31	0	0	2162	1137	3846	221
32	0	0	2174	1137	3847	219
33	0	0	2158	1134	3844	220
34	0	0	2100	1131	3848	219
35	0	0	2038	1133	3846	219
36	0	0	1993	1136	3846	219
37	0	0	2010	1138	3845	218
38	0	0	2056	1135	3845	218
39	0	0	2042	1131	3846	218
40	0	0	1999	1130	3845	216
41	0	0	1925	1129	3846	217
42	0	0	1864	1130	3845	217
43	0	0	1831	1133	3845	219
44	0	0	1894	1134	3847	217
45	0	0	2002	1132	3846	218
46	0	0	2099	1135	3848	218
47	0	0	2148	1134	3849	223
48	0	0	2128	1132	3845	219
49	0	0	2125	1132	3848	219
50	0	0	2119	1136	3846	219
51	0	0	2144	1136	3848	219
52	0	0	2200	1136	3846	217
53	0	0	2212	1137	3846	218
54	0	0	2182	1134	3848	217
55	0	0	2135	1134	3847	217
56	0	0	2075	1133	3846	217
57	0	0	2007	1134	3847	215
58	0	0	1975	1135	3847	215
59	0	0	1973	1136	3847	215
60	0	0	1936	1132	3846	215
61	0	0	1866	1130	3848	215
62	0	0	1836	1132	3847	220
63	0	0	1830	1133	3845	217
64	0	0	1857	1132	3847	216
65	0	0	1948	1133	3846	216
66	0	0	2067	1133	3847	216
67	0	0	2137	1134	3847	217
68	0	0	2155	1134	3848	218
69	0	0	2177	1135	3848	217
70	0	0	2184	1136	3846	216
71	0	0	2226	1137	3846	218
72	0	0	2269	1138	3846	216
73	0	0	2270	1138	3847	216
74	0	0	2243	1134	3847	215
75	0	0	2170	1134	3847	214
76	0	0	2073	1135	3846	214
77	0	0	2050	1136	3847	213
78	0	0	2016	1134	3847	214
79	0	0	1967	1132	3846	214
80	0	0	1960	1135	3846	214
81	0	0	1997	1135	3845	213
82	0	0	2076	1134	3847	214
83	0	0	2093	1134	3847	213
84	0	0	2049	1130	3848	214
85	0	0	2015	1131	3846	215
86	0	0	1989	1132	3846	215
87	0	0	1965	1132	3846	214
88	0	0	1925	1133	3846	215
89	0	0	1946	1135	3847	215
90	0	0	2019	1137	3847	215
91	0	0	2086	1136	3845	214
92	0	0	2127	1140	3845	214
93	0	0	2163	1139	3845	215
94	0	0	2196	1139	3845	213
95	0	0	2200	1137	3846	212
96	0	0	2130	1132	3847	212
97	0	0	2077	1138	3846	211
98	0	0	2136	1137	3848	213
99	0	0	2178	1137	3847	213
100	0	0	2151	1133	3846	211
101	0	0	2096	1131	3846	212
102	0	0	2031	1132	3845	210
103	0	0	1967	1130	3848	212
104	0	0	1878	1130	3846	211
105	0	0	1836	1134	3845	213
106	0	0	1901	1135	3846	213
107	0	0	2019	1135	3846	212
108	0	0	2104	1135	3847	212
109	0	0	2089	1133	3847	213
110	0	0	2031	1135	3847	213
111	0	0	2034	1138	3846	212
112	0	0	2086	1140	3846	212
113	0	0	2180	1139	3846	213
114	0	0	2244	1137	3847	211
115	0	0	2265	1137	3844	212
116	0	0	2231	1134	3847	212
117	0	0	2151	1134	3847	211
118	0	0	2091	1134	3848	211
119	0	0	2044	1133	3846	211
120	0	0	2012	1133	3845	211
121	0	0	1979	1132	3847	210
122	0	0	1945	1133	3846	209
123	0	0	1919	1134	3846	211
124	0	0	1956	1134	3846	210
125	0	0	2029	1135	3847	210
126	0	0	2051	1133	3845	211
127	0	0	2027	1132	3846	212
0	0	0	1967	1134	3847	211
1	0	0	2010	1139	3846	210
2	0	0	2120	1138	3846	211
3	0	0	2232	1137	3847	212
4	0	0	2214	1135	3847	210
5	0	0	2117	1135	3847	210
6	0	0	2092	1139	3846	209
7	0	0	2109	1139	3846	209
8	0	0	2122	1139	3846	210
9	0	0	2124	1138	3846	210
10	0	0	2108	1136	3845	209
11	0	0	2038	1133	3846	209
12	0	0	1951	1133	3846	208
13	0	0	1898	1134	3845	208
14	0	0	1938	1135	3846	207
15	0	0	2046	1135	3847	209
16	0	0	2151	1135	3845	209
17	0	0	2195	1135	3845	209
18	0	0	2213	1136	3846	209
19	0	0	2207	1135	3848	210
20	0	0	2169	1133	3846	209
21	0	0	2125	1135	3845	208
22	0	0	2141	1136	3846	211
23	0	0	2219	1139	3846	211
24	0	0	2250	1139	3846	210
25	0	0	2242	1141	3847	208
26	0	0	2219	1138	3845	207
27	0	0	2211	1140	3845	207
28	0	0	2206	1139	3845	207
29	0	0	2174	1135	3845	207
30	0	0	2146	1136	3846	207
31	0	0	2101	1135	3846	206
32	0	0	2017	1134	3845	206
33	0	0	1974	1137	3845	205
34	0	0	1995	1137	3847	207
35	0	0	1997	1135	3847	206
36	0	0	1972	1133	3847	207
37	0	0	1971	1136	3846	209
38	0	0	2023	1137	3845	207
39	0	0	2100	1138	3848	207
40	0	0	2161	1137	3845	207
41	0	0	2165	1139	3847	207
42	0	0	2169	1138	3845	208
43	0	0	2220	1140	3843	207
44	0	0	2246	1142	3844	206
45	0	0	2214	1138	3846	207
46	0	0	2173	1137	3845	206
47	0	0	2167	1141	3845	206
48	0	0	2192	1140	3845	206
49	0	0	2137	1136	3846	206
50	0	0	2088	1136	3846	205
51	0	0	2024	1134	3846	205
52	0	0	2005	1138	3847	203
53	0	0	1991	1133	3847	204
54	0	0	2002	1137	3844	205
55	0	0	2023	1136	3845	205
56	0	0	2023	1136	3846	206
57	0	0	2030	1135	3844	206
58	0	0	2060	1138	3844	206
59	0	0	2109	1136	3846	206
60	0	0	2170	1137	3844	203
61	0	0	2233	1138	3846	206
62	0	0	2261	1137	3845	207
63	0	0	2257	1140	3844	206
64	0	0	2252	1139	3844	205
65	0	0	2224	1138	3845	203
66	0	0	2134	1137	3847	204
67	0	0	2095	1140	3845	205
68	0	0	2120	1143	3846	204
69	0	0	2119	1141	3844	205
70	0	0	2136	1139	3846	201
71	0	0	2212	1139	3846	202
72	0	0	2258	1138	3846	203
73	0	0	2207	1133	3844	205
74	0	0	2083	1133	3845	203
75	0	0	1952	1131	3847	203
76	0	0	1857	1133	3845	204
77	0	0	1888	1136	3844	204
78	0	0	2026	1136	3844	202
79	0	0	2120	1139	3845	204
80	0	0	2151	1138	3843	206
81	0	0	2154	1139	3846	204
82	0	0	2152	1138	3845	205
83	0	0	2168	1135	3844	204
84	0	0	2218	1140	3845	204
85	0	0	2286	1141	3846	203
86	0	0	2328	1141	3845	203
87	0	0	2310	1138	3847	203
88	0	0	2247	1137	3846	203
89	0	0	2209	1140	3844	203
90	0	0	2187	1136	3846	201
91	0	0	2088	1134	3846	201
92	0	0	1958	1134	3845	200
93	0	0	1871	1135	3844	200
94	0	0	1868	1137	3845	202
95	0	0	1884	1137	3844	200
96	0	0	1900	1137	3845	202
97	0	0	1928	1135	3844	202
98	0	0	1974	1133	3844	202
99	0	0	2039	1138	3846	202
100	0	0	2074	1137	3845	202
101	0	0	2092	1138	3846	202
102	0	0	2165	1140	3845	203
103	0	0	2254	1141	3847	203
104	0	0	2302	1142	3846	202
105	0	0	2305	1141	3846	200
106	0	0	2276	1139	3846	201
107	0	0	2243	1139	3845	203
108	0	0	2202	1136	3847	201
109	0	0	2091	1136	3843	201
110	0	0	2008	1137	3845	198
111	0	0	2005	1139	3846	199
112	0	0	2030	1139	3845	199
113	0	0	2062	1138	3846	199
114	0	0	2073	1137	3845	200
115	0	0	2055	1134	3846	198
116	0	0	2031	1134	3846	200
117	0	0	1993	1134	3846	201
118	0	0	1980	1134	3847	201
119	0	0	2013	1138	3844	201
120	0	0	2070	1138	3846	199
121	0	0	2115	1138	3846	201
122	0	0	2159	1138	3845	202
123	0	0	2212	1142	3844	200
124	0	0	2261	1142	3846	201
125	0	0	2279	1141	3845	199
126	0	0	2290	1141	3846	200
127	0	0	2315	1141	3845	200
0	0	0	2313	1135	3846	200
1	0	0	2224	1136	3846	199
2	0	0	2103	1136	3846	197
3	0	0	2027	1137	3846	198
4	0	0	2029	1139	3844	198
5	0	0	1970	1131	3844	200
6	0	0	1908	1134	3846	198
7	0	0	1885	1135	3845	197
8	0	0	1879	1137	3846	198
