# bioPlux Text File Format
# Version: 1
# StartDateTime: 2011-07-18 16:08:02
# SamplingFrequency: 1000
# SampledChannels: 1 2 3 4 5
# SamplingResolution: 12
# AcquiringDevice: 00:07:80:42:0F:95
# EndOfHeader
0	0	0	1982	5	184	806	3947
1	0	0	1980	5	183	806	3947
2	0	0	1984	4	183	806	3947
3	0	0	1999	5	184	806	3948
4	0	0	2023	5	183	806	3947
5	0	0	2044	5	183	806	3947
6	0	0	2061	5	183	806	3948
7	0	0	2066	4	183	806	3948
8	0	0	2061	5	184	807	3948
9	0	0	2041	5	183	806	3948
10	0	0	2021	4	183	806	3948
11	0	0	2012	5	183	806	3948
12	0	0	2018	5	183	806	3948
13	0	0	2025	5	183	806	3948
14	0	0	2024	5	183	806	3948
15	0	0	2020	4	184	806	3947
16	0	0	1982	5	184	806	3947
17	0	0	1935	4	184	807	3947
18	0	0	1912	5	184	807	3948
19	0	0	1912	5	183	806	3947
20	0	0	1918	5	184	806	3947
21	0	0	1929	5	184	806	3948
22	0	0	1932	5	183	806	3948
23	0	0	1930	5	184	807	3948
24	0	0	1941	5	184	806	3949
25	0	0	1971	5	183	806	3948
26	0	0	2000	5	185	806	3948
27	0	0	2022	5	183	806	3948
28	0	0	2045	5	183	806	3949
29	0	0	2054	5	184	806	3947
30	0	0	2042	5	184	806	3948
31	0	0	2004	4	183	806	3947
32	0	0	1970	4	183	807	3947
33	0	0	1958	4	183	807	3948
34	0	0	1961	5	184	806	3948
35	0	0	1964	5	184	806	3947
36	0	0	1955	4	184	806	3948
37	0	0	1944	4	183	806	3947
38	0	0	1932	4	184	806	3948
39	0	0	1901	4	183	806	3947
40	0	0	1866	4	183	805	3949
41	0	0	1845	4	184	806	3948
42	0	0	1839	5	183	806	3948
43	0	0	1858	5	184	807	3948
44	0	0	1904	5	184	806	3948
45	0	0	1945	5	183	806	3948
46	0	0	1970	5	183	806	3948
47	0	0	1977	5	183	806	3950
48	0	0	1962	5	183	806	3948
49	0	0	1944	5	183	806	3948
50	0	0	1937	5	184	806	3947
51	0	0	1932	5	183	806	3947
52	0	0	1928	4	184	806	3948
53	0	0	1920	5	185	806	3948
54	0	0	1919	5	183	806	3947
55	0	0	1906	4	184	806	3948
56	0	0	1879	4	183	807	3948
57	0	0	1859	4	182	807	3948
58	0	0	1862	5	184	806	3948
59	0	0	1861	5	184	806	3948
60	0	0	1859	5	184	806	3949
61	0	0	1866	5	184	806	3948
62	0	0	1872	5	184	806	3948
63	0	0	1887	5	183	806	3948
64	0	0	1914	5	183	806	3949
65	0	0	1932	5	183	807	3947
66	0	0	1927	5	184	806	3947
67	0	0	1909	4	182	806	3948
68	0	0	1901	5	183	806	3948
69	0	0	1918	5	183	806	3947
70	0	0	1944	5	184	806	3947
71	0	0	1960	4	182	807	3947
72	0	0	1980	5	183	806	3948
73	0	0	1989	5	183	806	3949
74	0	0	1973	4	183	806	3948
75	0	0	1945	4	183	806	3948
76	0	0	1895	5	183	806	3948
77	0	0	1845	4	184	806	3949
78	0	0	1833	5	183	806	3948
79	0	0	1848	5	183	806	3947
80	0	0	1860	5	184	806	3947
81	0	0	1873	4	183	807	3947
82	0	0	1882	5	183	806	3948
83	0	0	1887	5	183	806	3948
84	0	0	1904	5	184	806	3947
85	0	0	1924	6	184	806	3947
86	0	0	1945	5	183	807	3947
87	0	0	1958	5	184	806	3948
88	0	0	1959	5	184	806	3948
89	0	0	1960	5	183	806	3948
90	0	0	1965	5	183	806	3948
91	0	0	1965	6	184	806	3948
92	0	0	1969	5	184	806	3949
93	0	0	1969	5	184	806	3948
94	0	0	1956	5	183	806	3948
95	0	0	1934	4	183	806	3948
96	0	0	1905	4	183	806	3947
97	0	0	1882	4	183	806	3948
98	0	0	1871	4	184	806	3948
99	0	0	1845	4	183	806	3947
100	0	0	1844	5	184	806	3947
101	0	0	1865	6	184	806	3948
102	0	0	1887	5	184	806	3948
103	0	0	1909	5	184	805	3948
104	0	0	1941	5	183	806	3948
105	0	0	1968	5	184	806	3948
106	0	0	1970	5	184	806	3948
107	0	0	1960	5	183	806	3948
108	0	0	1961	5	184	806	3948
109	0	0	1959	5	184	806	3948
110	0	0	1967	5	184	806	3948
111	0	0	1987	5	182	807	3948
112	0	0	2001	5	184	806	3948
113	0	0	2001	5	184	806	3948
114	0	0	1985	4	184	806	3947
115	0	0	1971	5	183	806	3947
116	0	0	1961	3	184	806	3947
117	0	0	1947	4	184	807	3947
118	0	0	1932	5	184	806	3948
119	0	0	1907	4	184	806	3947
120	0	0	1889	5	184	806	3947
121	0	0	1894	5	184	806	3947
122	0	0	1923	5	184	806	3948
123	0	0	1952	5	184	806	3948
124	0	0	1984	5	183	806	3948
125	0	0	2015	5	184	806	3948
126	0	0	2029	6	183	806	3948
127	0	0	2031	5	185	806	3948
0	0	0	2031	5	184	806	3948
1	0	0	2023	5	184	806	3948
2	0	0	2026	5	182	806	3949
3	0	0	2031	6	183	806	3947
4	0	0	2040	4	183	806	3948
5	0	0	2041	5	183	806	3949
6	0	0	2026	4	184	806	3948
7	0	0	1998	4	184	806	3949
8	0	0	1965	5	184	806	3948
9	0	0	1955	5	183	806	3948
10	0	0	1956	5	184	807	3949
11	0	0	1935	4	184	806	3948
12	0	0	1935	5	184	806	3949
13	0	0	1960	5	183	806	3948
14	0	0	1988	5	184	806	3949
15	0	0	2004	5	184	806	3948
16	0	0	2020	5	184	806	3948
17	0	0	2034	5	183	807	3948
18	0	0	2053	5	184	806	3948
19	0	0	2060	5	182	806	3948
20	0	0	2066	5	184	806	3948
21	0	0	2079	5	184	806	3947
22	0	0	2087	5	183	806	3947
23	0	0	2082	4	183	806	3948
24	0	0	2073	5	184	806	3948
25	0	0	2059	4	183	806	3948
26	0	0	2050	4	184	806	3948
27	0	0	2019	4	184	806	3949
28	0	0	1986	4	183	806	3949
29	0	0	1979	5	183	806	3948
30	0	0	1993	5	184	806	3948
31	0	0	1996	5	183	806	3948
32	0	0	1998	5	183	806	3948
33	0	0	2022	5	184	806	3948
34	0	0	2054	5	183	806	3948
35	0	0	2079	5	183	806	3948
36	0	0	2099	5	183	806	3947
37	0	0	2119	5	183	806	3947
38	0	0	2137	5	184	806	3944
39	0	0	2148	5	184	806	3947
40	0	0	2147	5	184	806	3948
41	0	0	2142	4	183	806	3947
42	0	0	2135	5	183	806	3947
43	0	0	2131	5	183	805	3947
44	0	0	2130	5	184	806	3948
45	0	0	2116	4	185	806	3948
46	0	0	2092	5	183	806	3949
47	0	0	2075	5	183	806	3948
48	0	0	2070	5	183	806	3948
49	0	0	2068	5	184	806	3948
50	0	0	2068	5	184	806	3948
51	0	0	2059	5	183	806	3947
52	0	0	2062	5	183	807	3947
53	0	0	2080	6	183	806	3948
54	0	0	2100	5	184	806	3948
55	0	0	2121	5	184	806	3948
56	0	0	2147	5	184	806	3947
57	0	0	2160	5	183	806	3947
58	0	0	2152	5	184	806	3948
59	0	0	2138	4	184	806	3948
60	0	0	2131	5	184	806	3948
61	0	0	2135	5	183	806	3947
62	0	0	2131	5	184	806	3948
63	0	0	2122	5	183	806	3948
64	0	0	2120	5	184	806	3948
65	0	0	2105	4	184	806	3949
66	0	0	2088	5	184	806	3948
67	0	0	2076	5	184	806	3947
68	0	0	2067	5	184	806	3947
69	0	0	2066	5	184	806	3948
70	0	0	2076	5	184	806	3948
71	0	0	2083	5	183	806	3948
72	0	0	2102	5	184	806	3948
73	0	0	2131	5	184	806	3947
74	0	0	2160	5	184	806	3947
75	0	0	2172	5	184	806	3948
76	0	0	2168	4	183	806	3948
77	0	0	2150	4	183	806	3948
78	0	0	2146	6	184	806	3948
79	0	0	2146	5	184	806	3948
80	0	0	2149	5	184	806	3949
81	0	0	2165	5	184	806	3947
82	0	0	2188	5	183	806	3948
83	0	0	2186	5	183	806	3948
84	0	0	2178	5	184	806	3949
85	0	0	2179	5	183	806	3948
86	0	0	2149	5	182	806	3947
87	0	0	2102	4	183	806	3947
88	0	0	2074	5	184	806	3948
89	0	0	2064	5	183	806	3948
90	0	0	2069	5	183	806	3948
91	0	0	2069	5	183	806	3947
92	0	0	2062	5	183	806	3947
93	0	0	2066	6	183	806	3948
94	0	0	2087	5	183	806	3948
95	0	0	2120	5	183	806	3948
96	0	0	2155	5	184	806	3949
97	0	0	2171	6	183	806	3948
98	0	0	2177	5	183	806	3948
99	0	0	2189	5	185	806	3948
100	0	0	2200	5	183	806	3948
101	0	0	2194	4	181	806	3947
102	0	0	2169	4	183	807	3947
103	0	0	2152	5	184	806	3948
104	0	0	2143	5	183	806	3948
105	0	0	2132	5	183	806	3948
106	0	0	2120	5	182	806	3947
107	0	0	2113	5	182	806	3948
108	0	0	2095	4	184	806	3948
109	0	0	2076	4	184	806	3947
110	0	0	2075	5	184	806	3948
111	0	0	2072	5	183	806	3949
112	0	0	2077	5	183	807	3948
113	0	0	2099	5	184	807	3948
114	0	0	2124	5	184	806	3948
115	0	0	2142	5	185	805	3948
116	0	0	2151	5	184	806	3948
117	0	0	2162	5	183	806	3948
118	0	0	2179	5	184	806	3948
119	0	0	2206	5	183	806	3948
120	0	0	2230	5	183	806	3948
121	0	0	2240	5	184	806	3947
122	0	0	2233	5	183	806	3948
123	0	0	2227	5	183	807	3947
124	0	0	2220	5	183	806	3948
125	0	0	2209	5	183	805	3948
126	0	0	2192	5	183	806	3948
127	0	0	2171	4	183	806	3948
0	0	0	2155	5	183	806	3948
1	0	0	2155	5	183	806	3949
2	0	0	2149	5	184	805	3948
3	0	0	2131	5	184	806	3948
4	0	0	2126	5	183	806	3948
5	0	0	2134	5	184	806	3948
6	0	0	2152	5	183	806	3947
7	0	0	2180	5	183	805	3948
8	0	0	2211	5	183	806	3947
9	0	0	2229	5	183	806	3948
10	0	0	2241	5	184	806	3948
11	0	0	2254	5	183	806	3948
12	0	0	2269	5	183	805	3948
13	0	0	2281	4	183	806	3948
14	0	0	2287	6	184	806	3947
15	0	0	2281	5	183	807	3948
16	0	0	2260	5	184	806	3947
17	0	0	2244	4	183	806	3949
18	0	0	2230	5	184	806	3948
19	0	0	2219	5	183	806	3948
20	0	0	2205	5	183	806	3948
21	0	0	2192	5	183	806	3948
22	0	0	2189	5	183	806	3948
23	0	0	2179	5	184	806	3948
24	0	0	2179	5	184	806	3948
25	0	0	2190	5	184	807	3948
26	0	0	2202	5	183	806	3948
27	0	0	2223	5	183	806	3948
28	0	0	2252	5	184	806	3948
29	0	0	2283	5	184	806	3948
30	0	0	2311	5	184	806	3948
31	0	0	2334	5	183	806	3949
32	0	0	2343	5	184	805	3948
33	0	0	2335	5	184	806	3949
34	0	0	2315	5	183	806	3948
35	0	0	2292	4	183	806	3948
36	0	0	2271	5	184	806	3948
37	0	0	2250	4	183	806	3949
38	0	0	2234	5	184	806	3948
39	0	0	2215	4	182	806	3949
40	0	0	2200	5	184	806	3948
41	0	0	2189	4	183	806	3949
42	0	0	2164	5	183	806	3948
43	0	0	2138	5	184	806	3948
44	0	0	2146	5	184	807	3948
45	0	0	2181	6	184	806	3947
46	0	0	2216	5	184	806	3948
47	0	0	2245	5	183	806	3948
48	0	0	2266	5	184	806	3948
49	0	0	2283	5	183	806	3949
50	0	0	2296	5	183	806	3949
51	0	0	2305	6	184	806	3948
52	0	0	2308	5	183	806	3948
53	0	0	2319	5	183	806	3949
54	0	0	2330	6	183	806	3948
55	0	0	2317	5	183	806	3948
56	0	0	2282	4	183	806	3948
57	0	0	2239	4	184	806	3948
58	0	0	2207	4	184	807	3947
59	0	0	2179	5	183	806	3947
60	0	0	2167	6	184	806	3948
61	0	0	2159	5	182	806	3948
62	0	0	2152	5	183	806	3948
63	0	0	2140	5	184	806	3948
64	0	0	2150	5	183	806	3948
65	0	0	2168	6	184	806	3948
66	0	0	2184	4	184	806	3948
67	0	0	2206	5	185	806	3948
68	0	0	2219	5	184	806	3947
69	0	0	2233	5	183	806	3948
70	0	0	2263	5	183	806	3948
71	0	0	2281	5	183	806	3949
72	0	0	2282	5	183	806	3948
73	0	0	2288	5	183	806	3949
74	0	0	2293	5	184	807	3948
75	0	0	2284	5	183	806	3948
76	0	0	2255	5	182	806	3949
77	0	0	2221	4	183	806	3948
78	0	0	2203	4	183	806	3949
79	0	0	2198	5	183	806	3948
80	0	0	2207	5	183	806	3948
81	0	0	2209	5	184	806	3948
82	0	0	2195	5	183	806	3948
83	0	0	2188	4	184	806	3947
84	0	0	2201	5	185	806	3949
85	0	0	2234	5	184	806	3949
86	0	0	2273	4	184	806	3948
87	0	0	2307	5	184	806	3949
88	0	0	2327	5	184	806	3948
89	0	0	2328	6	183	806	3948
90	0	0	2326	5	183	806	3948
91	0	0	2334	5	184	806	3948
92	0	0	2349	5	183	806	3948
93	0	0	2364	4	183	807	3949
94	0	0	2366	5	185	806	3948
95	0	0	2347	5	184	806	3948
96	0	0	2325	5	183	806	3948
97	0	0	2313	5	183	806	3948
98	0	0	2315	5	184	806	3948
99	0	0	2317	5	184	806	3948
100	0	0	2321	5	183	806	3948
101	0	0	2323	5	184	806	3948
102	0	0	2322	5	184	806	3948
103	0	0	2311	5	183	806	3948
104	0	0	2286	5	184	806	3949
105	0	0	2272	5	184	806	3948
106	0	0	2258	6	184	806	3948
107	0	0	2254	5	184	806	3948
108	0	0	2262	4	184	806	3949
109	0	0	2285	5	183	806	3948
110	0	0	2327	5	184	806	3948
111	0	0	2365	5	183	806	3948
112	0	0	2378	5	184	806	3948
113	0	0	2378	5	184	806	3947
114	0	0	2357	5	183	806	3948
115	0	0	2328	6	183	806	3948
116	0	0	2308	5	184	806	3948
117	0	0	2302	5	183	806	3948
118	0	0	2292	5	183	806	3948
119	0	0	2268	5	184	806	3948
120	0	0	2244	5	183	806	3948
121	0	0	2225	5	183	806	3949
122	0	0	2212	5	183	806	3949
123	0	0	2188	5	184	806	3948
124	0	0	2172	5	183	806	3948
125	0	0	2184	5	184	806	3948
126	0	0	2214	5	184	806	3948
127	0	0	2245	5	184	806	3948
0	0	0	2271	4	183	807	3949
1	0	0	2289	5	183	806	3948
2	0	0	2301	5	184	806	3947
3	0	0	2308	6	183	806	3948
4	0	0	2312	5	183	806	3948
5	0	0	2312	5	183	807	3948
6	0	0	2291	5	183	806	3948
7	0	0	2253	5	184	806	3948
8	0	0	2220	4	183	806	3948
9	0	0	2201	4	183	806	3949
10	0	0	2179	5	183	806	3948
11	0	0	2166	5	184	806	3949
12	0	0	2171	5	184	806	3949
13	0	0	2174	6	183	806	3948
14	0	0	2170	5	184	806	3948
15	0	0	2144	4	183	806	3947
16	0	0	2125	5	184	806	3948
17	0	0	2125	5	183	806	3947
18	0	0	2145	5	184	806	3947
19	0	0	2185	5	183	806	3948
20	0	0	2225	5	183	806	3947
21	0	0	2257	6	183	806	3948
22	0	0	2282	5	182	806	3948
23	0	0	2296	5	183	806	3949
24	0	0	2301	5	183	806	3948
25	0	0	2314	4	184	806	3949
26	0	0	2331	6	183	806	3948
27	0	0	2342	5	183	806	3948
28	0	0	2353	5	183	806	3949
29	0	0	2365	5	183	806	3948
30	0	0	2382	5	183	806	3947
31	0	0	2417	5	183	806	3948
32	0	0	2455	5	184	806	3948
33	0	0	2479	5	183	806	3948
34	0	0	2500	5	184	806	3948
35	0	0	2508	5	184	806	3947
36	0	0	2518	5	183	806	3948
37	0	0	2553	5	183	807	3948
38	0	0	2593	5	183	806	3948
39	0	0	2640	5	184	806	3948
40	0	0	2695	5	184	806	3948
41	0	0	2740	6	183	806	3948
42	0	0	2779	5	184	806	3948
43	0	0	2820	5	184	806	3948
44	0	0	2851	5	183	806	3948
45	0	0	2869	4	183	807	3949
46	0	0	2877	5	184	806	3947
47	0	0	2860	5	183	806	3948
48	0	0	2821	5	182	806	3949
49	0	0	2783	4	183	806	3948
50	0	0	2745	4	183	806	3948
51	0	0	2716	5	186	806	3947
52	0	0	2705	5	182	807	3948
53	0	0	2702	5	184	806	3948
54	0	0	2685	5	184	806	3948
55	0	0	2633	4	183	807	3948
56	0	0	2577	5	183	806	3948
57	0	0	2542	5	184	806	3948
58	0	0	2507	4	183	806	3948
59	0	0	2471	4	183	806	3948
60	0	0	2461	5	184	806	3948
61	0	0	2448	5	183	806	3948
62	0	0	2407	5	184	806	3948
63	0	0	2357	4	183	806	3948
64	0	0	2303	4	183	806	3948
65	0	0	2260	4	184	806	3947
66	0	0	2231	5	182	806	3947
67	0	0	2200	4	184	806	3947
68	0	0	2163	4	184	806	3948
69	0	0	2132	4	184	806	3948
70	0	0	2110	4	184	806	3948
71	0	0	2094	5	185	806	3948
72	0	0	2077	5	183	806	3948
73	0	0	2057	4	184	806	3948
74	0	0	2035	4	183	806	3948
75	0	0	2014	4	184	806	3948
76	0	0	2018	5	184	806	3949
77	0	0	2041	5	184	806	3949
78	0	0	2067	5	184	805	3948
79	0	0	2097	5	184	806	3948
80	0	0	2126	5	183	806	3948
81	0	0	2150	5	184	806	3949
82	0	0	2164	5	183	806	3948
83	0	0	2176	5	184	806	3948
84	0	0	2188	5	184	806	3948
85	0	0	2198	4	183	806	3947
86	0	0	2200	5	183	806	3948
87	0	0	2180	4	184	806	3949
88	0	0	2149	4	184	807	3948
89	0	0	2118	4	184	806	3949
90	0	0	2106	5	183	806	3948
91	0	0	2110	5	183	806	3949
92	0	0	2117	5	184	806	3950
93	0	0	2119	5	185	806	3948
94	0	0	2119	5	183	806	3948
95	0	0	2111	4	184	806	3949
96	0	0	2108	5	185	806	3948
97	0	0	2112	5	185	806	3947
98	0	0	2110	4	184	806	3948
99	0	0	2130	5	183	806	3948
100	0	0	2160	5	185	806	3947
101	0	0	2181	5	183	806	3947
102	0	0	2198	5	183	806	3948
103	0	0	2200	5	184	806	3948
104	0	0	2201	5	184	806	3948
105	0	0	2209	5	183	806	3948
106	0	0	2205	5	184	806	3948
107	0	0	2200	5	183	806	3948
108	0	0	2205	4	183	806	3949
109	0	0	2205	5	184	806	3949
110	0	0	2189	5	184	806	3948
111	0	0	2179	5	184	806	3948
112	0	0	2162	5	184	806	3948
113	0	0	2132	5	183	806	3949
114	0	0	2109	5	184	806	3948
115	0	0	2101	5	184	806	3947
116	0	0	2112	4	184	806	3947
117	0	0	2133	5	184	806	3948
118	0	0	2141	5	183	806	3948
119	0	0	2151	5	185	806	3949
120	0	0	2163	6	183	806	3948
121	0	0	2168	5	184	806	3948
122	0	0	2178	5	183	806	3948
123	0	0	2198	5	183	806	3948
124	0	0	2215	5	184	806	3949
125	0	0	2222	5	183	806	3949
126	0	0	2222	5	185	806	3948
127	0	0	2212	5	183	806	3948
0	0	0	2188	4	184	806	3948
1	0	0	2162	4	183	806	3948
2	0	0	2139	5	183	806	3948
3	0	0	2124	4	183	806	3948
4	0	0	2108	5	184	806	3948
5	0	0	2097	5	184	806	3947
6	0	0	2096	5	184	806	3948
7	0	0	2091	5	183	806	3948
8	0	0	2105	5	184	805	3948
9	0	0	2127	5	184	806	3949
10	0	0	2146	4	184	807	3948
11	0	0	2163	5	184	806	3948
12	0	0	2169	5	183	806	3948
13	0	0	2168	5	185	806	3948
14	0	0	2166	5	183	806	3948
15	0	0	2164	5	183	807	3949
16	0	0	2171	5	184	806	3948
17	0	0	2200	5	183	806	3949
18	0	0	2229	5	186	806	3948
19	0	0	2218	4	183	806	3948
20	0	0	2182	4	183	806	3948
21	0	0	2148	5	183	806	3949
22	0	0	2137	5	183	806	3948
23	0	0	2134	5	184	806	3949
24	0	0	2136	5	183	806	3948
25	0	0	2140	5	184	807	3949
26	0	0	2153	5	183	806	3948
27	0	0	2167	5	183	806	3948
28	0	0	2174	5	183	806	3948
29	0	0	2165	5	182	806	3949
30	0	0	2148	4	182	806	3949
31	0	0	2152	5	182	806	3948
32	0	0	2162	5	183	806	3948
33	0	0	2167	5	183	806	3949
34	0	0	2178	5	183	806	3949
35	0	0	2197	5	183	806	3948
36	0	0	2223	5	183	806	3948
37	0	0	2242	5	183	806	3947
38	0	0	2235	4	184	807	3948
39	0	0	2209	4	184	806	3948
40	0	0	2189	5	184	806	3949
41	0	0	2180	5	183	806	3949
42	0	0	2185	5	183	806	3947
43	0	0	2198	5	184	806	3949
44	0	0	2196	5	184	806	3949
45	0	0	2188	5	184	806	3948
46	0	0	2179	4	184	806	3948
47	0	0	2155	5	183	806	3948
48	0	0	2154	5	183	807	3948
49	0	0	2158	5	183	806	3948
50	0	0	2156	4	184	806	3948
51	0	0	2167	5	184	806	3948
52	0	0	2190	5	184	806	3948
53	0	0	2215	5	184	807	3948
54	0	0	2222	5	183	806	3948
55	0	0	2220	5	183	806	3947
56	0	0	2227	5	183	806	3947
57	0	0	2241	5	183	806	3949
58	0	0	2253	5	184	806	3948
59	0	0	2251	5	183	806	3948
60	0	0	2229	3	184	806	3948
61	0	0	2208	4	183	806	3948
62	0	0	2192	5	184	806	3948
63	0	0	2163	5	183	806	3948
64	0	0	2137	5	182	806	3948
65	0	0	2128	5	183	806	3949
66	0	0	2140	5	183	806	3949
67	0	0	2150	5	183	806	3948
68	0	0	2166	5	184	806	3948
69	0	0	2177	5	183	806	3948
70	0	0	2184	5	184	807	3948
71	0	0	2194	5	183	806	3947
72	0	0	2217	6	183	806	3948
73	0	0	2246	5	184	806	3948
74	0	0	2281	5	183	806	3948
75	0	0	2317	5	183	806	3949
76	0	0	2321	5	182	806	3948
77	0	0	2309	5	183	806	3949
78	0	0	2292	5	184	806	3948
79	0	0	2283	5	184	806	3948
80	0	0	2288	5	184	806	3948
81	0	0	2292	4	185	806	3948
82	0	0	2274	6	183	806	3948
83	0	0	2240	5	184	806	3948
84	0	0	2194	4	184	806	3948
85	0	0	2166	5	184	807	3949
86	0	0	2178	5	184	806	3947
87	0	0	2189	5	183	806	3948
88	0	0	2186	5	184	806	3948
89	0	0	2179	5	184	806	3948
90	0	0	2181	4	183	806	3947
91	0	0	2202	5	183	806	3948
92	0	0	2236	5	183	806	3948
93	0	0	2269	6	183	806	3948
94	0	0	2292	5	185	806	3948
95	0	0	2307	4	184	806	3948
96	0	0	2310	5	184	806	3949
97	0	0	2312	6	184	806	3948
98	0	0	2318	5	183	806	3948
99	0	0	2320	5	183	806	3947
100	0	0	2313	4	182	806	3948
101	0	0	2290	5	183	806	3949
102	0	0	2262	5	183	806	3948
103	0	0	2240	5	184	806	3949
104	0	0	2226	5	183	806	3948
105	0	0	2217	5	183	806	3948
106	0	0	2216	5	184	806	3949
107	0	0	2209	5	183	806	3948
108	0	0	2218	6	184	806	3949
109	0	0	2245	5	184	806	3949
110	0	0	2266	4	184	806	3948
111	0	0	2284	5	184	806	3948
112	0	0	2300	5	183	806	3948
113	0	0	2319	5	184	806	3948
114	0	0	2337	5	184	806	3948
115	0	0	2356	4	183	806	3948
116	0	0	2362	5	183	806	3948
117	0	0	2357	6	183	806	3948
118	0	0	2352	5	184	806	3948
119	0	0	2353	5	182	806	3948
120	0	0	2355	4	183	806	3948
121	0	0	2346	5	183	806	3948
122	0	0	2326	5	183	806	3949
123	0	0	2295	5	183	806	3948
124	0	0	2266	4	184	806	3948
125	0	0	2247	5	184	806	3949
126	0	0	2238	5	183	806	3948
127	0	0	2235	5	184	806	3949
0	0	0	2247	5	184	806	3948
1	0	0	2269	5	184	806	3948
2	0	0	2285	5	184	806	3948
3	0	0	2297	5	183	806	3948
4	0	0	2307	5	183	806	3948
5	0	0	2312	5	183	806	3948
6	0	0	2314	5	182	806	3948
7	0	0	2322	4	183	806	3948
8	0	0	2343	5	184	806	3948
9	0	0	2367	5	183	806	3947
10	0	0	2375	5	183	806	3947
11	0	0	2368	5	183	806	3948
12	0	0	2350	5	183	806	3948
13	0	0	2328	5	184	806	3949
14	0	0	2313	5	184	806	3948
15	0	0	2312	5	183	805	3948
16	0	0	2328	5	184	806	3949
17	0	0	2337	4	183	806	3948
18	0	0	2324	5	184	806	3949
19	0	0	2294	5	184	806	3948
20	0	0	2271	5	184	806	3949
21	0	0	2264	5	184	806	3948
22	0	0	2273	5	184	806	3948
23	0	0	2306	5	182	806	3948
24	0	0	2347	5	184	806	3948
25	0	0	2379	5	184	806	3948
26	0	0	2399	5	185	806	3947
27	0	0	2409	5	184	806	3948
28	0	0	2399	5	183	806	3948
29	0	0	2375	5	184	806	3947
30	0	0	2353	5	183	806	3948
31	0	0	2346	5	183	806	3948
32	0	0	2345	5	184	807	3948
33	0	0	2336	5	183	806	3948
34	0	0	2313	5	183	806	3949
35	0	0	2280	4	185	806	3948
36	0	0	2253	4	185	806	3948
37	0	0	2234	5	183	806	3948
38	0	0	2225	5	183	806	3949
39	0	0	2205	5	184	806	3947
40	0	0	2205	5	184	806	3948
41	0	0	2211	5	183	806	3947
42	0	0	2218	5	184	806	3948
43	0	0	2250	5	184	806	3948
44	0	0	2283	5	184	806	3948
45	0	0	2290	6	183	806	3948
46	0	0	2289	5	182	806	3948
47	0	0	2276	5	183	806	3948
48	0	0	2254	5	184	806	3948
49	0	0	2231	4	183	806	3948
50	0	0	2210	5	183	806	3949
51	0	0	2206	5	184	806	3949
52	0	0	2213	5	184	806	3948
53	0	0	2217	5	184	806	3949
54	0	0	2199	6	182	806	3948
55	0	0	2173	5	183	806	3948
56	0	0	2128	4	184	806	3948
57	0	0	2089	5	183	806	3948
58	0	0	2080	5	184	806	3948
59	0	0	2077	5	184	806	3949
60	0	0	2092	5	184	806	3947
61	0	0	2103	5	184	806	3948
62	0	0	2117	5	184	806	3949
63	0	0	2144	5	183	807	3948
64	0	0	2178	5	184	806	3949
65	0	0	2198	5	183	806	3948
66	0	0	2192	5	184	806	3948
67	0	0	2182	5	183	806	3948
68	0	0	2175	5	184	806	3948
69	0	0	2168	5	184	806	3948
70	0	0	2156	5	183	805	3948
71	0	0	2132	4	183	806	3948
72	0	0	2105	4	182	806	3948
73	0	0	2079	4	183	806	3948
74	0	0	2058	5	183	806	3948
75	0	0	2047	5	184	806	3947
76	0	0	2044	5	184	806	3948
77	0	0	2044	5	183	806	3948
78	0	0	2048	5	184	806	3947
79	0	0	2039	5	183	806	3948
80	0	0	2035	5	182	806	3948
81	0	0	2039	5	184	806	3948
82	0	0	2044	5	183	806	3948
83	0	0	2056	5	184	806	3948
84	0	0	2075	5	184	806	3948
85	0	0	2101	5	183	806	3948
86	0	0	2118	5	183	806	3949
87	0	0	2115	5	184	806	3948
88	0	0	2109	5	183	806	3949
89	0	0	2117	5	184	806	3947
90	0	0	2119	5	183	806	3948
91	0	0	2108	5	184	806	3948
92	0	0	2093	5	183	806	3948
93	0	0	2076	5	184	806	3948
94	0	0	2067	5	184	806	3947
95	0	0	2062	5	182	806	3948
96	0	0	2046	4	183	806	3948
97	0	0	2021	5	184	806	3948
98	0	0	2016	5	184	806	3948
99	0	0	2010	5	185	806	3948
100	0	0	2014	6	183	806	3948
101	0	0	2020	5	183	806	3948
102	0	0	2015	5	183	806	3949
103	0	0	2018	5	184	806	3948
104	0	0	2037	5	184	806	3948
105	0	0	2065	4	184	806	3948
106	0	0	2088	5	185	806	3948
107	0	0	2090	5	184	806	3948
108	0	0	2089	5	184	806	3948
109	0	0	2107	4	184	806	3947
110	0	0	2128	5	183	806	3948
111	0	0	2138	5	184	806	3948
112	0	0	2131	5	182	806	3948
113	0	0	2119	5	184	806	3948
114	0	0	2104	5	183	806	3947
115	0	0	2077	3	183	806	3948
116	0	0	2040	5	183	806	3948
117	0	0	2010	4	184	806	3949
118	0	0	1998	5	183	806	3948
119	0	0	1989	5	184	806	3948
120	0	0	1995	5	184	806	3948
121	0	0	2026	5	184	806	3949
122	0	0	2053	5	183	806	3948
123	0	0	2064	7	184	806	3948
124	0	0	2072	5	183	806	3947
125	0	0	2095	4	184	806	3947
126	0	0	2117	5	183	806	3947
127	0	0	2123	5	183	806	3948
0	0	0	2129	5	183	806	3948
1	0	0	2139	5	184	806	3948
2	0	0	2128	4	184	806	3948
3	0	0	2097	4	184	806	3948
4	0	0	2079	5	183	806	3948
5	0	0	2071	5	183	806	3948
6	0	0	2066	5	183	806	3949
7	0	0	2051	5	184	806	3948
8	0	0	2030	4	183	806	3948
9	0	0	2029	5	183	806	3949
10	0	0	2026	5	183	806	3948
11	0	0	2023	5	184	806	3947
12	0	0	2040	5	183	806	3948
13	0	0	2071	5	183	806	3948
14	0	0	2101	5	183	806	3948
15	0	0	2138	5	183	806	3948
16	0	0	2168	5	184	806	3947
17	0	0	2178	5	184	806	3948
18	0	0	2181	5	184	806	3948
19	0	0	2167	5	183	806	3948
20	0	0	2147	5	184	806	3948
21	0	0	2140	5	183	806	3948
22	0	0	2121	4	184	806	3948
23	0	0	2102	5	183	806	3948
24	0	0	2102	5	184	806	3949
25	0	0	2107	5	183	806	3948
26	0	0	2106	6	183	806	3949
27	0	0	2095	5	183	807	3948
28	0	0	2080	5	183	806	3948
29	0	0	2058	4	183	806	3948
30	0	0	2031	4	183	806	3948
31	0	0	1999	5	183	806	3947
32	0	0	2002	5	183	806	3947
33	0	0	2030	5	184	806	3948
34	0	0	2056	5	184	806	3948
35	0	0	2084	5	184	806	3949
36	0	0	2109	5	183	806	3947
37	0	0	2134	4	184	806	3948
38	0	0	2146	5	184	806	3948
39	0	0	2136	5	183	806	3949
40	0	0	2134	5	184	806	3949
41	0	0	2144	5	183	806	3948
42	0	0	2137	5	183	806	3948
43	0	0	2127	5	183	806	3949
44	0	0	2121	5	184	806	3949
45	0	0	2102	4	183	806	3949
46	0	0	2078	4	183	806	3948
47	0	0	2067	5	183	806	3948
48	0	0	2060	5	183	806	3947
49	0	0	2052	5	184	806	3948
50	0	0	2050	5	183	806	3947
51	0	0	2054	5	184	806	3948
52	0	0	2069	5	184	806	3947
53	0	0	2094	5	183	805	3948
54	0	0	2106	5	184	806	3949
55	0	0	2110	5	184	806	3948
56	0	0	2125	5	183	806	3949
57	0	0	2140	5	185	807	3948
58	0	0	2145	5	184	806	3948
59	0	0	2135	5	184	806	3948
60	0	0	2122	5	183	806	3948
61	0	0	2125	5	183	806	3948
62	0	0	2144	5	183	806	3947
63	0	0	2160	5	184	806	3947
64	0	0	2159	5	181	806	3948
65	0	0	2147	5	183	806	3948
66	0	0	2127	4	183	806	3948
67	0	0	2112	4	184	806	3947
68	0	0	2094	5	185	806	3948
69	0	0	2078	5	184	806	3948
70	0	0	2059	4	184	806	3948
71	0	0	2027	5	184	806	3948
72	0	0	2020	5	184	806	3949
73	0	0	2033	5	183	806	3949
74	0	0	2063	5	183	806	3948
75	0	0	2099	5	184	807	3949
76	0	0	2116	5	182	806	3949
77	0	0	2132	5	184	806	3947
78	0	0	2148	5	183	806	3948
79	0	0	2158	5	184	806	3949
80	0	0	2163	5	184	806	3947
81	0	0	2172	5	183	806	3947
82	0	0	2160	5	183	806	3947
83	0	0	2135	5	184	806	3947
84	0	0	2113	5	183	806	3948
85	0	0	2092	5	184	807	3949
86	0	0	2077	6	184	806	3948
87	0	0	2076	5	183	806	3948
88	0	0	2075	5	184	805	3948
89	0	0	2073	5	184	807	3949
90	0	0	2067	5	183	806	3948
91	0	0	2051	5	184	806	3948
92	0	0	2038	5	183	806	3947
93	0	0	2036	5	184	806	3948
94	0	0	2046	5	182	806	3948
95	0	0	2070	5	184	806	3948
96	0	0	2103	5	184	806	3947
97	0	0	2128	5	183	806	3947
98	0	0	2154	5	185	806	3948
99	0	0	2176	5	184	806	3948
100	0	0	2178	5	182	806	3947
101	0	0	2172	5	183	806	3947
102	0	0	2157	4	184	806	3947
103	0	0	2134	4	184	806	3948
104	0	0	2112	5	183	806	3948
105	0	0	2103	5	183	806	3949
106	0	0	2098	4	183	806	3948
107	0	0	2090	5	184	806	3948
108	0	0	2071	4	184	806	3949
109	0	0	2046	4	184	806	3949
110	0	0	2031	4	183	806	3948
111	0	0	2023	5	183	806	3948
112	0	0	2029	5	184	807	3948
113	0	0	2042	5	183	806	3947
114	0	0	2072	5	183	806	3948
115	0	0	2110	5	184	806	3947
116	0	0	2126	5	184	806	3947
117	0	0	2129	5	184	806	3948
118	0	0	2136	5	183	806	3948
119	0	0	2143	5	184	806	3948
120	0	0	2151	5	183	806	3948
121	0	0	2156	5	183	806	3949
122	0	0	2150	5	183	807	3948
123	0	0	2132	5	183	806	3948
124	0	0	2124	5	184	806	3948
125	0	0	2118	5	184	806	3948
126	0	0	2108	5	184	806	3948
127	0	0	2091	5	184	806	3948
0	0	0	2070	5	184	806	3948
1	0	0	2050	5	183	806	3948
2	0	0	2035	4	183	806	3947
3	0	0	2019	5	183	806	3947
4	0	0	2024	5	184	806	3947
5	0	0	2041	5	186	806	3948
6	0	0	2063	5	185	806	3948
7	0	0	2095	5	185	807	3948
8	0	0	2124	7	183	806	3947
9	0	0	2144	6	184	806	3948
10	0	0	2157	5	183	806	3949
11	0	0	2153	5	183	806	3948
12	0	0	2136	5	183	806	3949
13	0	0	2133	5	183	806	3948
14	0	0	2131	6	182	806	3948
15	0	0	2134	5	183	805	3948
16	0	0	2131	5	184	806	3948
17	0	0	2117	5	184	807	3948
18	0	0	2103	5	183	806	3948
19	0	0	2088	5	183	806	3948
20	0	0	2079	5	185	806	3948
21	0	0	2069	5	184	806	3948
22	0	0	2074	5	183	806	3947
23	0	0	2082	5	183	806	3947
24	0	0	2083	5	184	806	3947
25	0	0	2086	5	184	806	3948
26	0	0	2088	5	185	806	3948
27	0	0	2098	5	183	806	3948
28	0	0	2113	5	183	806	3948
29	0	0	2117	5	184	806	3948
30	0	0	2114	5	185	806	3948
31	0	0	2135	5	183	806	3948
32	0	0	2174	5	184	806	3949
33	0	0	2205	5	183	806	3947
34	0	0	2214	5	183	806	3948
35	0	0	2199	4	183	806	3948
36	0	0	2169	5	182	806	3948
37	0	0	2150	4	183	807	3948
38	0	0	2132	4	184	806	3947
39	0	0	2107	4	183	806	3948
40	0	0	2086	4	183	806	3948
41	0	0	2072	5	184	806	3948
42	0	0	2064	5	183	806	3948
43	0	0	2043	4	183	806	3947
44	0	0	2042	6	182	806	3948
45	0	0	2057	5	184	806	3948
46	0	0	2079	5	184	806	3948
47	0	0	2107	5	184	806	3949
48	0	0	2136	5	183	806	3948
49	0	0	2162	5	184	806	3948
50	0	0	2179	5	183	806	3947
51	0	0	2177	5	185	806	3948
52	0	0	2167	5	183	806	3947
53	0	0	2176	4	183	806	3947
54	0	0	2193	5	184	806	3947
55	0	0	2187	5	183	807	3947
56	0	0	2160	5	183	806	3948
57	0	0	2131	4	183	806	3948
58	0	0	2105	5	182	807	3947
59	0	0	2086	4	183	806	3948
60	0	0	2077	5	183	806	3948
61	0	0	2072	5	183	806	3949
62	0	0	2071	5	184	806	3948
63	0	0	2073	5	184	806	3948
64	0	0	2092	5	184	806	3948
65	0	0	2109	5	184	805	3948
66	0	0	2113	5	184	806	3948
67	0	0	2125	5	183	806	3947
68	0	0	2143	5	184	806	3947
69	0	0	2154	6	183	806	3948
70	0	0	2166	5	184	806	3948
71	0	0	2180	5	184	806	3948
72	0	0	2199	5	184	806	3947
73	0	0	2220	5	182	806	3947
74	0	0	2220	5	183	806	3947
75	0	0	2208	5	183	806	3948
76	0	0	2200	5	182	806	3948
77	0	0	2194	5	184	806	3948
78	0	0	2178	4	183	806	3948
79	0	0	2147	5	184	806	3948
80	0	0	2111	4	183	806	3949
81	0	0	2086	4	183	806	3948
82	0	0	2067	4	184	806	3948
83	0	0	2049	4	185	806	3947
84	0	0	2054	5	184	806	3948
85	0	0	2063	5	182	805	3948
86	0	0	2074	5	183	806	3948
87	0	0	2107	5	184	806	3947
88	0	0	2151	5	184	806	3948
89	0	0	2182	5	184	806	3949
90	0	0	2207	5	184	806	3949
91	0	0	2234	5	183	806	3948
92	0	0	2254	5	183	806	3948
93	0	0	2255	4	185	806	3948
94	0	0	2227	5	183	806	3948
95	0	0	2198	4	183	806	3948
96	0	0	2180	5	183	806	3949
97	0	0	2174	5	183	806	3948
98	0	0	2171	5	183	806	3948
99	0	0	2159	5	184	806	3947
100	0	0	2148	5	183	806	3948
101	0	0	2144	5	184	806	3948
102	0	0	2144	5	183	806	3947
103	0	0	2132	5	183	806	3947
104	0	0	2124	5	184	806	3948
105	0	0	2136	5	184	806	3948
106	0	0	2157	5	183	806	3947
107	0	0	2181	5	183	806	3948
108	0	0	2197	5	184	806	3947
109	0	0	2205	5	183	806	3948
110	0	0	2203	5	184	806	3949
111	0	0	2197	5	183	806	3948
112	0	0	2188	5	183	806	3949
113	0	0	2181	5	182	806	3948
114	0	0	2173	5	184	806	3948
115	0	0	2163	5	183	806	3948
116	0	0	2156	5	182	806	3949
117	0	0	2155	5	184	806	3947
118	0	0	2154	4	184	806	3948
119	0	0	2131	4	183	806	3947
120	0	0	2103	5	184	805	3948
121	0	0	2080	4	183	806	3948
122	0	0	2065	4	185	806	3947
123	0	0	2043	5	184	806	3947
124	0	0	2041	5	184	806	3948
125	0	0	2056	5	183	806	3949
126	0	0	2072	5	183	806	3948
127	0	0	2097	5	185	806	3948
0	0	0	2127	5	184	806	3948
1	0	0	2143	5	184	806	3948
2	0	0	2149	5	183	806	3948
3	0	0	2156	5	183	806	3949
4	0	0	2157	5	183	806	3947
5	0	0	2159	5	183	806	3947
6	0	0	2148	4	183	806	3948
7	0	0	2119	4	185	806	3948
8	0	0	2100	4	183	806	3948
9	0	0	2081	4	183	806	3947
10	0	0	2073	5	183	806	3947
11	0	0	2069	5	183	806	3948
12	0	0	2063	5	184	806	3949
13	0	0	2065	5	184	806	3948
14	0	0	2077	5	184	806	3950
15	0	0	2067	4	183	806	3948
16	0	0	2067	5	183	806	3948
17	0	0	2080	5	184	806	3948
18	0	0	2090	5	183	806	3948
19	0	0	2104	6	184	806	3948
20	0	0	2117	5	184	806	3948
21	0	0	2135	5	183	806	3947
22	0	0	2156	5	183	806	3948
23	0	0	2165	5	184	806	3949
24	0	0	2173	5	183	806	3948
25	0	0	2177	5	184	806	3947
26	0	0	2166	5	182	806	3947
27	0	0	2151	4	184	806	3947
28	0	0	2131	4	182	806	3948
29	0	0	2104	4	183	806	3947
30	0	0	2081	5	183	806	3947
31	0	0	2067	4	183	806	3948
32	0	0	2051	4	184	806	3949
33	0	0	2035	5	183	806	3948
34	0	0	2032	5	184	806	3949
35	0	0	2016	4	184	807	3948
36	0	0	2019	5	183	806	3948
37	0	0	2046	5	183	806	3948
38	0	0	2078	5	182	806	3948
39	0	0	2119	5	183	806	3947
40	0	0	2153	5	184	806	3949
41	0	0	2177	5	183	805	3948
42	0	0	2188	5	183	807	3948
43	0	0	2173	5	183	806	3948
44	0	0	2147	4	183	806	3947
45	0	0	2135	5	184	806	3947
46	0	0	2127	5	183	806	3948
47	0	0	2124	5	184	806	3948
48	0	0	2132	5	184	806	3948
49	0	0	2121	5	183	806	3948
50	0	0	2099	4	184	806	3948
51	0	0	2079	5	184	806	3948
52	0	0	2068	5	184	807	3948
53	0	0	2062	5	184	806	3949
54	0	0	2059	5	184	806	3948
55	0	0	2061	5	183	806	3948
56	0	0	2079	5	183	806	3947
57	0	0	2092	5	183	805	3947
58	0	0	2111	5	184	806	3948
59	0	0	2132	5	183	806	3948
60	0	0	2146	6	184	806	3947
61	0	0	2149	5	182	806	3948
62	0	0	2147	5	184	807	3948
63	0	0	2148	5	183	806	3949
64	0	0	2142	5	183	806	3947
65	0	0	2138	5	183	806	3948
66	0	0	2132	5	183	806	3948
67	0	0	2119	5	184	806	3948
68	0	0	2105	5	183	806	3948
69	0	0	2101	5	183	806	3948
70	0	0	2104	5	184	806	3948
71	0	0	2104	5	183	806	3948
72	0	0	2092	5	184	806	3948
73	0	0	2083	5	183	806	3948
74	0	0	2075	5	183	806	3947
75	0	0	2057	4	183	806	3947
76	0	0	2050	5	183	806	3948
77	0	0	2058	5	184	806	3949
78	0	0	2070	5	183	806	3948
79	0	0	2079	5	184	806	3949
80	0	0	2080	5	183	806	3947
81	0	0	2084	5	183	806	3947
82	0	0	2092	5	183	807	3948
83	0	0	2103	5	184	806	3949
84	0	0	2107	5	184	806	3948
85	0	0	2114	5	183	806	3948
86	0	0	2115	5	183	806	3948
87	0	0	2109	5	183	806	3948
88	0	0	2098	5	183	806	3948
89	0	0	2080	5	183	806	3947
90	0	0	2071	5	183	806	3947
91	0	0	2070	6	183	806	3947
92	0	0	2072	5	183	806	3947
93	0	0	2079	5	184	806	3948
94	0	0	2099	5	184	806	3948
95	0	0	2105	5	183	806	3947
96	0	0	2116	5	184	806	3948
97	0	0	2142	5	183	806	3947
98	0	0	2173	5	183	806	3948
99	0	0	2212	5	183	806	3948
100	0	0	2267	5	184	806	3948
101	0	0	2327	5	183	806	3948
102	0	0	2387	5	183	807	3948
103	0	0	2437	5	185	807	3949
104	0	0	2460	5	184	806	3948
105	0	0	2485	5	183	806	3949
106	0	0	2512	5	183	806	3948
107	0	0	2526	5	184	807	3948
108	0	0	2523	5	183	806	3948
109	0	0	2511	5	184	806	3948
110	0	0	2507	5	183	806	3948
111	0	0	2511	5	184	807	3947
112	0	0	2513	5	184	807	3948
113	0	0	2507	5	183	806	3948
114	0	0	2507	5	184	806	3948
115	0	0	2518	6	185	806	3948
116	0	0	2555	5	184	806	3948
117	0	0	2597	5	183	806	3948
118	0	0	2622	5	182	806	3949
119	0	0	2638	5	183	806	3948
120	0	0	2648	5	185	806	3948
121	0	0	2645	5	185	805	3948
122	0	0	2635	5	183	806	3948
123	0	0	2622	5	183	806	3948
124	0	0	2604	5	184	806	3947
125	0	0	2585	5	183	806	3947
126	0	0	2548	4	183	806	3947
127	0	0	2497	4	183	806	3948
0	0	0	2438	4	183	806	3949
1	0	0	2371	4	183	806	3947
2	0	0	2318	4	183	806	3949
3	0	0	2272	4	184	806	3948
4	0	0	2221	4	183	806	3948
5	0	0	2173	4	183	806	3950
6	0	0	2121	4	182	806	3947
7	0	0	2058	4	183	806	3948
8	0	0	2005	3	183	806	3948
9	0	0	1977	4	183	806	3948
10	0	0	1970	5	184	806	3948
11	0	0	1970	5	184	806	3947
12	0	0	1976	5	183	806	3947
13	0	0	1999	5	184	806	3947
14	0	0	2023	5	184	807	3948
15	0	0	2039	5	183	806	3948
16	0	0	2049	5	183	806	3948
17	0	0	2054	5	183	806	3947
18	0	0	2043	4	184	806	3947
19	0	0	2034	5	184	806	3948
20	0	0	2034	5	184	806	3948
21	0	0	2029	5	184	806	3948
22	0	0	2019	5	182	806	3948
23	0	0	2005	3	185	806	3948
24	0	0	1984	4	183	806	3948
25	0	0	1974	5	184	806	3948
26	0	0	1974	5	184	806	3948
27	0	0	1969	5	184	806	3948
28	0	0	1972	5	184	806	3947
29	0	0	1991	5	184	806	3948
30	0	0	2028	5	183	806	3948
31	0	0	2074	5	182	806	3948
32	0	0	2115	5	183	806	3949
33	0	0	2127	5	184	806	3948
34	0	0	2129	5	182	806	3948
35	0	0	2140	5	184	806	3948
36	0	0	2158	5	183	806	3948
37	0	0	2173	5	183	806	3949
38	0	0	2172	4	183	806	3948
39	0	0	2149	4	183	806	3949
40	0	0	2135	5	184	806	3948
41	0	0	2130	5	184	806	3949
42	0	0	2125	6	183	806	3948
43	0	0	2124	5	184	806	3948
44	0	0	2160	5	184	806	3948
45	0	0	2217	5	183	806	3949
46	0	0	2268	5	184	806	3948
47	0	0	2317	5	183	806	3947
48	0	0	2366	3	185	806	3948
49	0	0	2416	5	184	806	3947
50	0	0	2463	5	184	806	3948
51	0	0	2515	5	184	806	3948
52	0	0	2545	5	182	806	3948
53	0	0	2542	4	183	806	3949
54	0	0	2531	5	184	806	3949
55	0	0	2514	5	184	806	3946
56	0	0	2500	5	183	806	3949
57	0	0	2481	7	184	806	3948
58	0	0	2444	3	184	806	3948
59	0	0	2392	5	182	807	3948
60	0	0	2345	4	183	806	3948
61	0	0	2310	5	184	806	3948
62	0	0	2292	5	184	806	3949
63	0	0	2290	4	184	806	3948
64	0	0	2291	5	184	806	3947
65	0	0	2286	5	183	806	3948
66	0	0	2269	4	183	806	3948
67	0	0	2237	4	183	806	3947
68	0	0	2215	3	185	806	3948
69	0	0	2198	5	184	806	3949
70	0	0	2191	5	184	806	3948
71	0	0	2205	5	183	806	3949
72	0	0	2227	5	185	806	3948
73	0	0	2240	4	183	806	3948
74	0	0	2244	5	183	807	3948
75	0	0	2239	5	183	806	3948
76	0	0	2229	5	184	806	3947
77	0	0	2220	5	182	806	3948
78	0	0	2218	5	183	806	3947
79	0	0	2209	5	183	807	3947
80	0	0	2187	5	183	807	3949
81	0	0	2163	5	184	806	3947
82	0	0	2141	5	183	806	3948
83	0	0	2124	4	183	806	3948
84	0	0	2101	4	183	807	3948
85	0	0	2090	5	184	806	3948
86	0	0	2092	5	184	806	3948
87	0	0	2093	5	183	806	3949
88	0	0	2109	5	184	806	3948
89	0	0	2128	5	184	807	3948
90	0	0	2144	5	184	806	3948
91	0	0	2170	5	184	806	3948
92	0	0	2188	5	184	806	3948
93	0	0	2187	6	184	806	3948
94	0	0	2180	5	184	806	3949
95	0	0	2179	5	183	806	3948
96	0	0	2185	5	184	806	3948
97	0	0	2198	6	184	806	3947
98	0	0	2204	5	184	806	3947
99	0	0	2198	5	183	806	3948
100	0	0	2188	5	183	806	3948
101	0	0	2175	5	183	806	3948
102	0	0	2164	5	183	806	3948
103	0	0	2152	5	183	806	3948
104	0	0	2140	5	184	807	3948
105	0	0	2127	4	184	806	3949
106	0	0	2111	4	184	806	3948
107	0	0	2096	5	184	806	3948
108	0	0	2098	4	183	806	3948
109	0	0	2114	5	182	806	3949
110	0	0	2135	5	184	807	3948
111	0	0	2172	5	184	806	3947
112	0	0	2205	5	183	806	3947
113	0	0	2221	5	185	806	3948
114	0	0	2204	4	183	806	3948
115	0	0	2186	5	183	806	3948
116	0	0	2182	5	183	806	3948
117	0	0	2183	5	182	806	3947
118	0	0	2191	5	182	806	3948
119	0	0	2200	5	183	806	3948
120	0	0	2203	5	183	806	3948
121	0	0	2187	5	182	806	3948
122	0	0	2171	5	184	806	3949
123	0	0	2161	5	185	806	3948
124	0	0	2154	5	183	806	3947
125	0	0	2143	5	184	806	3948
126	0	0	2126	5	183	806	3948
127	0	0	2107	5	184	806	3948
0	0	0	2103	6	183	806	3947
1	0	0	2112	5	184	807	3948
2	0	0	2124	5	184	806	3948
3	0	0	2152	5	184	806	3949
4	0	0	2187	5	183	807	3947
5	0	0	2216	5	185	806	3947
6	0	0	2237	5	184	806	3948
7	0	0	2243	5	184	806	3949
8	0	0	2232	5	184	806	3947
9	0	0	2227	5	182	807	3948
10	0	0	2232	6	184	806	3948
11	0	0	2227	4	183	806	3948
12	0	0	2203	5	182	806	3948
13	0	0	2172	5	183	806	3948
14	0	0	2154	5	184	806	3948
15	0	0	2145	5	183	806	3948
16	0	0	2140	5	183	806	3948
17	0	0	2137	5	183	806	3948
18	0	0	2134	5	184	806	3948
19	0	0	2123	6	183	806	3947
20	0	0	2128	6	185	806	3947
21	0	0	2147	5	182	806	3947
22	0	0	2162	5	184	807	3949
23	0	0	2174	5	183	806	3947
24	0	0	2186	5	183	806	3947
25	0	0	2211	5	184	806	3948
26	0	0	2232	5	184	807	3948
27	0	0	2231	5	184	806	3948
28	0	0	2211	5	183	806	3948
29	0	0	2195	4	184	806	3948
30	0	0	2182	5	184	806	3948
31	0	0	2172	5	184	806	3949
32	0	0	2168	5	183	806	3948
33	0	0	2180	5	184	806	3948
34	0	0	2199	5	183	805	3949
35	0	0	2209	5	184	807	3948
36	0	0	2212	5	185	807	3948
37	0	0	2207	5	183	806	3948
38	0	0	2179	5	184	806	3947
39	0	0	2139	4	184	806	3947
40	0	0	2125	4	184	806	3948
41	0	0	2141	5	183	807	3948
42	0	0	2179	5	184	806	3948
43	0	0	2219	5	184	806	3948
44	0	0	2246	5	184	806	3948
45	0	0	2260	4	185	806	3948
46	0	0	2262	5	184	806	3948
47	0	0	2275	5	182	806	3949
48	0	0	2280	5	183	806	3948
49	0	0	2286	5	183	806	3948
50	0	0	2283	5	183	806	3948
51	0	0	2264	5	183	806	3948
52	0	0	2242	5	183	806	3948
53	0	0	2233	5	183	806	3947
54	0	0	2227	5	183	806	3947
55	0	0	2216	4	183	806	3948
56	0	0	2214	5	182	806	3948
57	0	0	2212	5	183	806	3948
58	0	0	2201	5	184	806	3948
59	0	0	2187	5	183	806	3948
60	0	0	2183	5	184	806	3948
61	0	0	2188	5	183	806	3948
62	0	0	2200	5	184	807	3948
63	0	0	2213	5	183	806	3948
64	0	0	2233	5	185	806	3948
65	0	0	2255	5	183	806	3948
66	0	0	2282	5	184	806	3948
67	0	0	2294	5	184	806	3947
68	0	0	2294	5	184	806	3947
69	0	0	2287	5	183	806	3948
70	0	0	2270	5	184	806	3947
71	0	0	2243	4	183	806	3948
72	0	0	2214	5	183	806	3948
73	0	0	2198	5	184	806	3947
74	0	0	2187	5	185	806	3948
75	0	0	2180	5	183	806	3947
76	0	0	2168	5	184	807	3948
77	0	0	2153	5	184	806	3948
78	0	0	2156	5	184	806	3947
79	0	0	2173	5	182	805	3948
80	0	0	2198	4	184	806	3948
81	0	0	2211	5	184	807	3948
82	0	0	2214	5	184	807	3948
83	0	0	2233	5	185	806	3948
84	0	0	2272	6	184	806	3947
85	0	0	2301	5	183	806	3947
86	0	0	2301	5	183	806	3947
87	0	0	2288	5	183	806	3948
88	0	0	2277	5	183	806	3947
89	0	0	2271	5	183	806	3947
90	0	0	2262	5	183	806	3948
91	0	0	2256	5	183	806	3948
92	0	0	2251	5	183	807	3948
93	0	0	2241	5	184	806	3948
94	0	0	2226	5	182	806	3948
95	0	0	2205	5	183	807	3948
96	0	0	2182	4	183	806	3948
97	0	0	2169	5	183	806	3949
98	0	0	2160	5	184	806	3948
99	0	0	2150	5	183	806	3948
100	0	0	2157	5	184	806	3948
101	0	0	2165	5	183	806	3948
102	0	0	2167	5	184	806	3948
103	0	0	2178	5	183	806	3948
104	0	0	2209	5	185	806	3947
105	0	0	2243	5	184	806	3948
106	0	0	2253	5	183	806	3948
107	0	0	2252	5	183	807	3949
108	0	0	2239	5	183	806	3947
109	0	0	2220	5	183	806	3947
110	0	0	2212	5	183	806	3947
111	0	0	2207	5	183	806	3948
112	0	0	2204	5	184	806	3948
113	0	0	2171	4	184	806	3948
114	0	0	2134	5	183	806	3948
115	0	0	2106	5	183	806	3951
116	0	0	2094	5	183	806	3949
117	0	0	2085	5	184	806	3948
118	0	0	2070	4	183	806	3947
119	0	0	2056	5	184	806	3947
120	0	0	2054	5	184	807	3947
121	0	0	2053	5	184	806	3947
122	0	0	2044	5	185	806	3948
123	0	0	2051	5	184	806	3947
124	0	0	2078	5	184	806	3948
125	0	0	2105	5	183	806	3948
126	0	0	2111	5	182	806	3948
127	0	0	2092	5	184	806	3949
0	0	0	2070	5	183	806	3948
1	0	0	2069	5	183	805	3949
2	0	0	2076	5	183	806	3948
3	0	0	2072	5	183	806	3948
4	0	0	2063	5	184	806	3948
5	0	0	2046	5	184	806	3948
6	0	0	2032	5	183	806	3948
7	0	0	2025	6	184	806	3948
8	0	0	2024	5	183	806	3947
9	0	0	2011	4	184	806	3948
10	0	0	1983	4	184	807	3948
11	0	0	1950	5	184	806	3948
12	0	0	1938	5	183	806	3948
13	0	0	1931	5	183	806	3949
14	0	0	1928	5	183	806	3948
15	0	0	1944	5	183	806	3948
16	0	0	1959	5	184	806	3948
17	0	0	1965	4	183	806	3948
18	0	0	1967	5	183	806	3948
19	0	0	1971	6	182	806	3948
20	0	0	1985	5	183	806	3948
21	0	0	1992	5	184	806	3948
22	0	0	1977	5	182	807	3947
23	0	0	1957	4	183	806	3947
24	0	0	1935	4	184	806	3948
25	0	0	1907	4	183	806	3948
26	0	0	1881	4	184	806	3948
27	0	0	1856	5	183	806	3948
28	0	0	1836	5	183	806	3949
29	0	0	1827	5	183	806	3948
30	0	0	1823	5	184	806	3947
31	0	0	1806	4	183	806	3949
32	0	0	1808	5	184	806	3948
33	0	0	1824	5	183	806	3948
34	0	0	1848	5	183	806	3948
35	0	0	1875	5	184	806	3948
36	0	0	1885	5	184	806	3948
37	0	0	1885	6	184	806	3948
38	0	0	1889	5	184	807	3948
39	0	0	1902	6	183	806	3948
40	0	0	1917	5	183	806	3949
41	0	0	1929	6	184	806	3947
42	0	0	1914	5	184	806	3947
43	0	0	1894	4	183	806	3947
44	0	0	1877	5	184	806	3948
45	0	0	1868	5	183	806	3947
46	0	0	1868	5	183	806	3949
47	0	0	1863	5	183	806	3948
48	0	0	1850	4	184	807	3948
49	0	0	1840	4	183	806	3948
50	0	0	1827	5	183	806	3948
51	0	0	1817	5	184	806	3948
52	0	0	1827	7	184	806	3948
53	0	0	1847	5	183	806	3948
54	0	0	1874	5	184	806	3948
55	0	0	1903	5	184	806	3948
56	0	0	1925	5	184	806	3948
57	0	0	1934	5	184	806	3948
58	0	0	1939	5	184	806	3949
59	0	0	1948	5	184	806	3948
60	0	0	1965	5	183	806	3948
61	0	0	1978	5	181	807	3947
62	0	0	1967	5	183	806	3947
63	0	0	1947	5	184	806	3948
64	0	0	1930	5	183	806	3948
65	0	0	1905	4	183	806	3948
66	0	0	1878	5	184	806	3948
67	0	0	1860	5	183	806	3948
68	0	0	1842	4	183	806	3948
69	0	0	1837	5	183	806	3948
70	0	0	1837	5	183	806	3948
71	0	0	1827	4	183	806	3948
72	0	0	1828	6	183	806	3948
73	0	0	1841	4	184	806	3948
74	0	0	1872	5	183	805	3948
75	0	0	1910	5	183	806	3947
76	0	0	1936	4	183	806	3948
77	0	0	1961	5	184	806	3947
78	0	0	1983	5	184	806	3947
79	0	0	1995	5	184	806	3948
80	0	0	1993	5	183	806	3949
81	0	0	1991	5	183	806	3948
82	0	0	1991	5	183	806	3948
83	0	0	1990	5	184	806	3949
84	0	0	1971	4	183	806	3948
85	0	0	1957	5	183	806	3949
86	0	0	1945	5	183	806	3948
87	0	0	1931	5	182	806	3948
88	0	0	1916	4	185	807	3949
89	0	0	1898	4	184	806	3948
90	0	0	1895	5	183	806	3947
91	0	0	1886	5	183	806	3949
92	0	0	1884	5	185	806	3948
93	0	0	1890	5	184	806	3947
94	0	0	1915	5	183	806	3948
95	0	0	1962	5	183	806	3948
96	0	0	2004	5	183	806	3949
97	0	0	2023	5	184	806	3948
98	0	0	2030	5	183	806	3948
99	0	0	2039	5	183	806	3948
100	0	0	2050	5	184	806	3948
101	0	0	2048	5	183	806	3949
102	0	0	2038	5	183	806	3948
103	0	0	2031	5	183	806	3948
104	0	0	2013	4	184	806	3949
105	0	0	1979	4	184	806	3947
106	0	0	1961	5	183	806	3946
107	0	0	1942	5	183	806	3947
108	0	0	1923	4	183	806	3947
109	0	0	1921	5	183	806	3948
110	0	0	1933	5	184	806	3947
111	0	0	1946	5	184	806	3947
112	0	0	1972	5	184	806	3948
113	0	0	1992	5	183	806	3948
114	0	0	1983	5	183	806	3948
115	0	0	1980	5	183	806	3947
116	0	0	1993	4	183	806	3948
117	0	0	2011	5	183	806	3948
118	0	0	2020	5	183	806	3948
119	0	0	2022	5	184	806	3949
120	0	0	2022	5	183	806	3947
121	0	0	2033	5	183	806	3948
122	0	0	2033	5	183	806	3948
123	0	0	2031	5	184	806	3948
124	0	0	2032	5	183	806	3948
125	0	0	2007	5	183	806	3947
126	0	0	1984	5	183	807	3948
127	0	0	1973	5	183	806	3948
0	0	0	1966	5	184	806	3948
1	0	0	1963	5	183	806	3949
2	0	0	1949	4	183	806	3948
3	0	0	1931	5	184	806	3949
4	0	0	1929	5	184	806	3948
5	0	0	1933	5	183	806	3947
6	0	0	1939	5	182	805	3948
7	0	0	1958	5	183	806	3948
8	0	0	1982	5	184	806	3948
9	0	0	1997	5	183	806	3948
10	0	0	2007	5	183	806	3948
11	0	0	2013	5	184	806	3948
12	0	0	2025	5	183	806	3948
13	0	0	2044	5	182	807	3947
14	0	0	2052	6	182	806	3947
15	0	0	2043	5	184	806	3948
16	0	0	2035	5	183	806	3948
17	0	0	2009	4	184	806	3947
18	0	0	1976	4	183	806	3949
19	0	0	1950	5	183	806	3948
20	0	0	1927	5	183	806	3948
21	0	0	1911	5	183	806	3948
22	0	0	1892	4	184	806	3948
23	0	0	1862	4	182	806	3949
24	0	0	1852	5	183	806	3948
25	0	0	1858	5	184	806	3948
26	0	0	1881	5	184	805	3948
27	0	0	1919	5	183	806	3948
28	0	0	1952	5	183	806	3947
29	0	0	1980	6	184	806	3948
30	0	0	1994	5	183	806	3948
31	0	0	2001	5	182	805	3948
32	0	0	2012	5	184	806	3948
33	0	0	2022	5	183	806	3947
34	0	0	1999	5	183	806	3947
35	0	0	1971	5	183	806	3947
36	0	0	1956	5	184	806	3948
37	0	0	1956	5	183	806	3948
38	0	0	1964	5	183	807	3948
39	0	0	1967	5	183	806	3948
40	0	0	1960	5	183	806	3948
41	0	0	1952	5	183	806	3949
42	0	0	1946	5	184	806	3948
43	0	0	1944	5	183	806	3948
44	0	0	1957	5	184	806	3947
45	0	0	1982	5	184	806	3947
46	0	0	2003	5	184	806	3948
47	0	0	2015	5	184	806	3947
48	0	0	2015	6	183	806	3947
49	0	0	2023	5	183	806	3948
50	0	0	2037	5	183	806	3948
51	0	0	2048	5	184	805	3948
52	0	0	2055	5	183	806	3949
53	0	0	2071	5	184	806	3948
54	0	0	2080	5	184	807	3948
55	0	0	2078	5	183	806	3948
56	0	0	2066	5	182	806	3948
57	0	0	2043	5	183	806	3948
58	0	0	2009	4	183	807	3948
59	0	0	1981	5	184	806	3948
60	0	0	1960	5	183	806	3947
61	0	0	1941	4	184	806	3949
62	0	0	1938	4	184	806	3947
63	0	0	1941	5	183	806	3948
64	0	0	1951	5	183	806	3948
65	0	0	1970	5	183	806	3948
66	0	0	1988	5	185	805	3948
67	0	0	2008	5	184	806	3947
68	0	0	2021	5	184	806	3947
69	0	0	2025	5	183	806	3947
70	0	0	2032	5	183	806	3947
71	0	0	2043	5	183	806	3948
72	0	0	2054	5	183	806	3948
73	0	0	2063	5	183	806	3949
74	0	0	2054	4	183	807	3948
75	0	0	2028	4	182	806	3947
76	0	0	2004	5	183	806	3949
77	0	0	1972	4	184	806	3947
78	0	0	1947	5	184	806	3948
79	0	0	1931	5	183	806	3947
80	0	0	1929	5	183	806	3947
81	0	0	1935	5	184	806	3948
82	0	0	1941	5	184	806	3947
83	0	0	1945	6	184	806	3947
84	0	0	1955	5	183	806	3948
85	0	0	1955	4	183	806	3948
86	0	0	1942	5	184	805	3948
87	0	0	1954	5	184	806	3948
88	0	0	1969	5	183	806	3948
89	0	0	1990	5	183	806	3948
90	0	0	2023	5	183	806	3949
91	0	0	2044	5	183	806	3948
92	0	0	2057	4	182	806	3949
93	0	0	2068	5	182	807	3948
94	0	0	2074	5	183	806	3948
95	0	0	2068	5	183	806	3948
96	0	0	2056	5	184	805	3948
97	0	0	2040	5	183	806	3941
98	0	0	2018	4	183	807	3947
99	0	0	1991	4	183	806	3948
100	0	0	1978	4	184	806	3948
101	0	0	1977	5	184	806	3948
102	0	0	1977	5	184	806	3947
103	0	0	1970	6	183	806	3948
104	0	0	1972	7	184	806	3947
105	0	0	1975	5	183	806	3947
106	0	0	1976	5	184	806	3949
107	0	0	1982	5	183	806	3948
108	0	0	2007	5	183	805	3948
109	0	0	2044	5	183	806	3948
110	0	0	2079	5	183	807	3949
111	0	0	2095	5	184	806	3948
112	0	0	2105	5	183	806	3947
113	0	0	2107	5	183	807	3947
114	0	0	2103	6	183	806	3947
115	0	0	2093	5	182	806	3948
116	0	0	2080	5	184	806	3948
117	0	0	2048	5	183	806	3948
118	0	0	2022	5	183	806	3948
119	0	0	2017	5	183	806	3948
120	0	0	2016	6	183	806	3948
121	0	0	2017	5	183	806	3948
122	0	0	2020	5	183	806	3949
123	0	0	2023	5	183	806	3948
124	0	0	2028	5	184	806	3948
125	0	0	2036	5	183	806	3948
126	0	0	2053	5	184	806	3948
127	0	0	2068	5	184	806	3948
0	0	0	2070	5	184	806	3949
1	0	0	2064	5	183	806	3949
2	0	0	2063	5	183	806	3947
3	0	0	2084	5	184	806	3948
4	0	0	2113	5	184	806	3947
5	0	0	2125	6	183	806	3947
6	0	0	2125	5	183	806	3947
7	0	0	2119	5	183	806	3948
8	0	0	2115	5	184	806	3948
9	0	0	2097	5	183	806	3948
10	0	0	2063	4	183	806	3948
11	0	0	2034	6	184	806	3947
12	0	0	2011	5	184	806	3948
13	0	0	1992	5	184	806	3948
14	0	0	1972	4	184	806	3949
15	0	0	1965	5	184	806	3947
16	0	0	1975	5	182	806	3948
17	0	0	1994	5	184	806	3948
18	0	0	2012	5	184	806	3948
19	0	0	2039	5	184	806	3947
20	0	0	2070	5	184	806	3948
21	0	0	2083	5	184	806	3948
22	0	0	2087	6	183	806	3948
23	0	0	2096	5	184	806	3949
24	0	0	2095	4	183	806	3947
25	0	0	2096	5	183	806	3949
26	0	0	2093	5	183	807	3949
27	0	0	2079	5	183	806	3948
28	0	0	2064	5	184	806	3948
29	0	0	2054	5	183	806	3948
30	0	0	2032	6	183	806	3948
31	0	0	2002	4	184	806	3948
32	0	0	1971	5	184	806	3948
33	0	0	1961	5	183	806	3948
34	0	0	1958	4	183	806	3947
35	0	0	1955	5	184	806	3947
36	0	0	1964	5	183	806	3948
37	0	0	1976	5	184	806	3947
38	0	0	1992	5	184	806	3948
39	0	0	2025	5	184	806	3948
40	0	0	2054	5	184	806	3948
41	0	0	2069	5	182	806	3948
42	0	0	2074	5	185	806	3949
43	0	0	2074	5	183	806	3948
44	0	0	2070	5	182	806	3949
45	0	0	2071	5	183	806	3948
46	0	0	2076	5	184	806	3948
47	0	0	2070	6	184	806	3948
48	0	0	2056	4	184	806	3948
49	0	0	2042	5	184	806	3947
50	0	0	2028	3	183	806	3948
51	0	0	2010	5	183	807	3948
52	0	0	1994	4	184	806	3947
53	0	0	1980	5	184	806	3948
54	0	0	1975	5	183	806	3947
55	0	0	1974	6	184	806	3947
56	0	0	1992	5	183	806	3947
57	0	0	2018	6	183	806	3947
58	0	0	2034	5	183	806	3948
59	0	0	2054	5	183	805	3948
60	0	0	2083	6	185	806	3948
61	0	0	2108	5	183	806	3948
62	0	0	2107	4	184	806	3948
63	0	0	2100	5	184	807	3948
64	0	0	2086	3	183	806	3948
65	0	0	2072	4	186	806	3947
66	0	0	2054	5	182	806	3948
67	0	0	2038	4	183	806	3948
68	0	0	2019	5	183	806	3948
69	0	0	2000	4	184	806	3949
70	0	0	1997	5	184	806	3947
71	0	0	1991	5	182	806	3948
72	0	0	1997	5	184	806	3948
73	0	0	2021	5	184	806	3948
74	0	0	2032	5	183	806	3947
75	0	0	2030	5	184	806	3948
76	0	0	2043	5	183	806	3948
77	0	0	2056	5	184	806	3948
78	0	0	2070	5	185	807	3949
79	0	0	2081	6	184	806	3948
80	0	0	2083	5	182	806	3948
81	0	0	2076	5	183	807	3948
82	0	0	2065	5	184	806	3948
83	0	0	2055	5	184	806	3948
84	0	0	2054	6	184	806	3947
85	0	0	2060	6	183	806	3947
86	0	0	2072	5	182	806	3948
87	0	0	2085	5	183	806	3948
88	0	0	2088	5	183	806	3942
89	0	0	2084	4	184	806	3949
90	0	0	2058	4	184	806	3947
91	0	0	2017	4	182	807	3948
92	0	0	1990	4	183	806	3948
93	0	0	1984	5	184	806	3948
94	0	0	1992	5	183	806	3948
95	0	0	2002	5	184	806	3948
96	0	0	2022	6	184	806	3948
97	0	0	2035	5	184	806	3948
98	0	0	2041	5	183	806	3949
99	0	0	2044	5	185	806	3948
100	0	0	2045	5	183	806	3949
101	0	0	2055	5	184	806	3948
102	0	0	2062	6	184	806	3948
103	0	0	2066	5	184	806	3948
104	0	0	2066	5	183	807	3948
105	0	0	2063	5	183	806	3947
106	0	0	2056	6	183	805	3947
107	0	0	2041	5	184	806	3948
108	0	0	2017	4	184	806	3948
109	0	0	1990	5	184	806	3948
110	0	0	1972	5	183	806	3948
111	0	0	1962	5	183	806	3948
112	0	0	1955	4	184	806	3948
113	0	0	1951	5	184	807	3949
114	0	0	1944	5	183	806	3948
115	0	0	1937	5	183	806	3948
116	0	0	1955	5	184	806	3948
117	0	0	1971	5	184	806	3948
118	0	0	1970	5	184	806	3948
119	0	0	1984	6	184	806	3947
120	0	0	2005	5	183	806	3947
121	0	0	2031	5	183	806	3947
122	0	0	2063	5	184	806	3948
123	0	0	2086	5	183	806	3948
124	0	0	2094	5	183	806	3949
125	0	0	2114	5	184	806	3948
126	0	0	2140	5	183	806	3948
127	0	0	2167	5	183	806	3949
0	0	0	2186	5	183	807	3948
1	0	0	2187	5	184	806	3948
2	0	0	2173	5	183	806	3949
3	0	0	2172	5	184	806	3948
4	0	0	2190	5	183	806	3948
5	0	0	2214	5	183	806	3948
6	0	0	2237	6	184	806	3947
7	0	0	2260	5	183	806	3947
8	0	0	2280	5	184	805	3948
9	0	0	2298	4	183	806	3947
10	0	0	2324	5	185	806	3948
11	0	0	2360	5	183	806	3948
12	0	0	2394	5	185	806	3948
13	0	0	2422	5	183	806	3948
14	0	0	2442	5	183	806	3949
15	0	0	2448	5	184	806	3948
16	0	0	2457	5	183	806	3948
17	0	0	2480	5	184	806	3948
18	0	0	2504	6	183	806	3948
19	0	0	2515	5	183	806	3948
20	0	0	2529	5	183	806	3948
21	0	0	2534	5	184	806	3947
22	0	0	2516	5	184	806	3948
23	0	0	2495	5	184	807	3948
24	0	0	2479	5	184	806	3948
25	0	0	2462	5	184	806	3949
26	0	0	2437	5	183	806	3947
27	0	0	2401	4	184	806	3948
28	0	0	2367	5	184	806	3947
29	0	0	2338	4	184	806	3948
30	0	0	2320	5	184	806	3948
31	0	0	2321	5	183	806	3948
32	0	0	2319	5	184	806	3948
33	0	0	2290	4	185	806	3948
34	0	0	2244	4	183	806	3948
35	0	0	2183	4	182	806	3948
36	0	0	2118	4	184	806	3947
37	0	0	2060	4	183	806	3948
38	0	0	2009	5	183	806	3948
39	0	0	1967	4	183	806	3949
40	0	0	1927	4	183	806	3948
41	0	0	1887	4	183	806	3948
42	0	0	1854	4	184	806	3947
43	0	0	1831	4	185	806	3948
44	0	0	1828	5	184	806	3949
45	0	0	1832	5	184	806	3948
46	0	0	1843	5	183	806	3947
47	0	0	1852	5	183	806	3948
48	0	0	1865	5	183	806	3948
49	0	0	1881	6	184	806	3948
50	0	0	1902	5	184	806	3948
51	0	0	1928	5	183	806	3948
52	0	0	1954	5	184	806	3948
53	0	0	1983	5	183	805	3948
54	0	0	2023	4	183	806	3948
55	0	0	2069	5	183	807	3949
56	0	0	2096	5	182	806	3947
57	0	0	2098	5	184	806	3948
58	0	0	2077	4	183	806	3948
59	0	0	2051	4	183	806	3947
60	0	0	2031	5	184	806	3948
61	0	0	2012	4	184	806	3949
62	0	0	1992	5	183	806	3948
63	0	0	1969	4	184	806	3948
64	0	0	1956	5	184	806	3948
65	0	0	1953	5	185	806	3948
66	0	0	1949	5	183	806	3948
67	0	0	1948	5	183	806	3947
68	0	0	1957	5	183	806	3948
69	0	0	1950	4	183	806	3948
70	0	0	1954	5	183	806	3948
71	0	0	1987	5	183	806	3948
72	0	0	2032	5	183	806	3948
73	0	0	2076	5	183	806	3948
74	0	0	2098	5	183	806	3948
75	0	0	2101	5	183	807	3948
76	0	0	2100	5	183	806	3947
77	0	0	2084	5	184	806	3948
78	0	0	2049	4	184	806	3948
79	0	0	2032	5	182	806	3948
80	0	0	2036	5	183	806	3948
81	0	0	2026	5	183	806	3948
82	0	0	2012	5	183	806	3948
83	0	0	2000	5	184	806	3948
84	0	0	1976	4	183	806	3947
85	0	0	1949	4	183	806	3948
86	0	0	1927	4	184	806	3948
87	0	0	1927	5	183	806	3948
88	0	0	1951	5	183	806	3948
89	0	0	1971	5	184	806	3948
90	0	0	1983	5	184	806	3947
91	0	0	2013	5	184	806	3948
92	0	0	2043	5	183	806	3948
93	0	0	2075	5	184	806	3947
94	0	0	2111	5	182	806	3948
95	0	0	2137	5	183	806	3948
96	0	0	2141	5	183	806	3948
97	0	0	2131	5	183	806	3948
98	0	0	2101	5	184	806	3949
99	0	0	2060	4	183	806	3948
100	0	0	2031	5	183	806	3948
101	0	0	2029	5	183	806	3949
102	0	0	2033	5	184	806	3948
103	0	0	2031	5	184	806	3948
104	0	0	2013	3	183	806	3948
105	0	0	1997	5	184	806	3947
106	0	0	1987	5	184	806	3947
107	0	0	1984	5	183	805	3948
108	0	0	2001	5	184	806	3948
109	0	0	2027	4	183	806	3948
110	0	0	2050	5	184	806	3948
111	0	0	2070	5	185	806	3947
112	0	0	2093	5	185	807	3948
113	0	0	2116	5	183	806	3948
114	0	0	2126	5	182	806	3948
115	0	0	2119	5	184	806	3949
116	0	0	2107	6	183	806	3948
117	0	0	2110	5	183	806	3948
118	0	0	2105	5	184	806	3948
119	0	0	2090	4	183	806	3948
120	0	0	2072	5	184	806	3948
121	0	0	2052	5	183	806	3947
122	0	0	2027	4	183	807	3947
123	0	0	1996	4	183	806	3948
124	0	0	1977	3	183	806	3948
125	0	0	1972	5	184	806	3947
126	0	0	1964	5	184	806	3947
127	0	0	1962	5	184	807	3947
0	0	0	1979	5	183	806	3948
1	0	0	1997	4	184	806	3948
2	0	0	2012	5	184	806	3947
3	0	0	2048	5	184	806	3948
4	0	0	2079	5	184	807	3948
5	0	0	2101	5	182	806	3948
6	0	0	2105	4	184	806	3948
7	0	0	2088	5	183	806	3949
8	0	0	2082	6	183	806	3948
9	0	0	2092	5	184	806	3949
10	0	0	2097	5	183	806	3949
11	0	0	2081	3	183	806	3948
12	0	0	2060	4	184	806	3948
13	0	0	2041	3	184	806	3947
14	0	0	2017	6	183	806	3948
15	0	0	2009	5	183	806	3948
16	0	0	2017	5	185	806	3947
17	0	0	2026	5	183	806	3948
18	0	0	2023	4	184	806	3948
19	0	0	2010	5	183	806	3949
20	0	0	2008	5	182	806	3949
21	0	0	2014	5	184	806	3948
22	0	0	2019	5	184	806	3948
23	0	0	2035	6	183	806	3948
24	0	0	2061	5	184	807	3948
25	0	0	2072	5	184	806	3948
26	0	0	2075	4	184	806	3948
27	0	0	2082	5	184	806	3948
28	0	0	2073	5	183	806	3948
29	0	0	2057	5	183	806	3947
30	0	0	2053	5	184	806	3947
31	0	0	2062	5	182	806	3948
32	0	0	2080	5	183	806	3949
33	0	0	2075	5	183	806	3948
34	0	0	2061	5	183	806	3949
35	0	0	2051	5	183	806	3948
36	0	0	2044	4	183	806	3948
37	0	0	2039	5	184	806	3948
38	0	0	2028	5	183	806	3948
39	0	0	2026	5	183	806	3948
40	0	0	2036	5	184	806	3948
41	0	0	2043	4	184	806	3948
42	0	0	2052	5	184	806	3948
43	0	0	2069	5	184	807	3948
44	0	0	2093	5	183	807	3948
45	0	0	2123	5	185	806	3948
46	0	0	2142	5	184	806	3948
47	0	0	2145	5	184	806	3947
48	0	0	2144	5	184	806	3947
49	0	0	2159	5	183	806	3948
50	0	0	2167	5	182	806	3948
51	0	0	2161	4	184	806	3948
52	0	0	2146	5	183	806	3949
53	0	0	2113	6	183	806	3948
54	0	0	2080	5	183	806	3948
55	0	0	2066	5	185	806	3948
56	0	0	2064	5	183	806	3948
57	0	0	2079	5	183	806	3948
58	0	0	2094	5	184	806	3949
59	0	0	2074	5	184	806	3947
60	0	0	2060	5	183	806	3947
61	0	0	2069	4	184	806	3948
62	0	0	2095	5	183	806	3948
63	0	0	2135	5	183	806	3947
64	0	0	2159	5	183	806	3948
65	0	0	2183	5	184	806	3948
66	0	0	2211	5	183	806	3949
67	0	0	2229	5	183	806	3948
68	0	0	2227	5	183	806	3948
69	0	0	2207	5	183	805	3948
70	0	0	2172	4	182	806	3948
71	0	0	2145	5	184	806	3948
72	0	0	2143	5	183	806	3948
73	0	0	2147	5	183	806	3948
74	0	0	2149	5	184	806	3948
75	0	0	2136	5	184	806	3948
76	0	0	2112	4	183	806	3948
77	0	0	2096	5	184	806	3948
78	0	0	2083	5	183	806	3947
79	0	0	2072	5	184	806	3947
80	0	0	2074	5	182	806	3948
81	0	0	2098	5	184	806	3948
82	0	0	2132	5	184	806	3948
83	0	0	2169	5	183	806	3948
84	0	0	2193	5	183	805	3948
85	0	0	2211	5	183	806	3949
86	0	0	2230	5	183	806	3948
87	0	0	2241	5	183	806	3948
88	0	0	2247	5	184	806	3949
89	0	0	2254	5	183	806	3949
90	0	0	2253	4	183	806	3948
91	0	0	2240	5	183	806	3948
92	0	0	2216	5	184	806	3949
93	0	0	2202	5	183	806	3947
94	0	0	2189	5	184	806	3948
95	0	0	2174	5	184	806	3949
96	0	0	2151	4	183	806	3948
97	0	0	2130	5	184	806	3948
98	0	0	2110	4	183	806	3948
99	0	0	2099	5	183	806	3947
100	0	0	2114	5	184	806	3948
101	0	0	2138	5	184	806	3948
102	0	0	2165	5	184	806	3948
103	0	0	2193	5	183	806	3948
104	0	0	2218	4	183	806	3948
105	0	0	2238	5	182	806	3948
106	0	0	2249	5	183	806	3948
107	0	0	2248	5	184	807	3949
108	0	0	2244	5	183	806	3948
109	0	0	2244	5	183	806	3948
110	0	0	2240	5	183	806	3948
111	0	0	2219	5	183	806	3948
112	0	0	2202	5	184	806	3948
113	0	0	2196	5	183	806	3948
114	0	0	2182	4	183	806	3947
115	0	0	2159	5	184	806	3948
116	0	0	2144	5	184	806	3948
117	0	0	2141	6	183	806	3948
118	0	0	2145	5	184	806	3948
119	0	0	2145	5	183	806	3947
120	0	0	2149	5	184	806	3948
121	0	0	2156	5	183	806	3949
122	0	0	2165	5	183	806	3948
123	0	0	2187	5	184	806	3948
124	0	0	2201	6	183	806	3948
125	0	0	2199	5	184	806	3948
126	0	0	2192	5	183	806	3948
127	0	0	2197	5	183	806	3948
0	0	0	2206	5	183	806	3947
1	0	0	2220	5	183	806	3947
2	0	0	2224	5	182	806	3948
3	0	0	2215	5	184	806	3948
4	0	0	2208	5	183	806	3947
5	0	0	2188	4	183	806	3949
6	0	0	2156	4	184	806	3948
7	0	0	2124	5	184	806	3948
8	0	0	2111	5	184	806	3949
9	0	0	2097	5	184	806	3948
10	0	0	2079	4	185	806	3948
11	0	0	2070	6	184	805	3948
12	0	0	2065	5	183	806	3948
13	0	0	2057	5	184	806	3948
14	0	0	2054	5	184	806	3949
15	0	0	2072	5	183	806	3948
16	0	0	2101	5	183	806	3947
17	0	0	2120	5	184	806	3948
18	0	0	2122	5	183	806	3948
19	0	0	2124	6	183	806	3947
20	0	0	2139	5	184	807	3948
21	0	0	2150	5	183	806	3947
22	0	0	2142	5	183	806	3948
23	0	0	2114	4	183	806	3948
24	0	0	2084	5	184	806	3947
25	0	0	2052	4	183	806	3948
26	0	0	2028	5	183	806	3948
27	0	0	2018	5	183	806	3948
28	0	0	2003	4	182	806	3948
29	0	0	1986	4	182	806	3949
30	0	0	1959	4	183	806	3948
31	0	0	1944	5	183	806	3948
32	0	0	1952	5	184	806	3948
33	0	0	1976	5	183	806	3948
34	0	0	2002	5	183	806	3948
35	0	0	2027	5	183	806	3948
36	0	0	2044	5	184	806	3947
37	0	0	2051	5	183	806	3948
38	0	0	2043	5	183	806	3948
39	0	0	2022	5	183	806	3947
40	0	0	2023	6	183	806	3949
41	0	0	2031	5	185	806	3948
42	0	0	2033	5	184	806	3948
43	0	0	2022	5	183	807	3948
44	0	0	1998	4	184	807	3949
45	0	0	1969	4	184	806	3948
46	0	0	1926	5	183	806	3948
47	0	0	1881	4	184	806	3948
48	0	0	1865	5	184	806	3948
49	0	0	1875	5	184	806	3948
50	0	0	1889	5	182	806	3948
51	0	0	1904	4	184	806	3948
52	0	0	1920	5	184	806	3948
53	0	0	1922	5	184	806	3948
54	0	0	1921	5	184	806	3948
55	0	0	1929	5	184	806	3948
56	0	0	1944	5	183	806	3948
57	0	0	1964	5	185	806	3948
58	0	0	1973	5	183	806	3949
59	0	0	1970	5	183	806	3948
60	0	0	1976	6	183	806	3949
61	0	0	1995	5	183	806	3948
62	0	0	1997	5	183	806	3948
63	0	0	1975	5	183	806	3948
64	0	0	1961	5	183	806	3949
65	0	0	1945	4	183	806	3948
66	0	0	1928	5	182	806	3948
67	0	0	1916	4	183	806	3949
68	0	0	1900	5	184	806	3948
69	0	0	1892	5	183	806	3948
70	0	0	1882	4	184	806	3947
71	0	0	1876	5	184	806	3948
72	0	0	1875	5	184	806	3948
73	0	0	1888	5	184	806	3948
74	0	0	1912	5	183	806	3948
75	0	0	1939	5	184	806	3948
76	0	0	1964	5	185	806	3948
77	0	0	1981	5	184	806	3948
78	0	0	1994	5	184	806	3948
79	0	0	2000	5	183	806	3949
80	0	0	1996	5	184	806	3948
81	0	0	1997	5	184	806	3948
82	0	0	1986	5	183	806	3949
83	0	0	1968	5	185	806	3948
84	0	0	1961	5	183	806	3949
85	0	0	1949	5	183	806	3948
86	0	0	1924	4	184	806	3948
87	0	0	1900	5	184	806	3948
88	0	0	1902	5	185	806	3948
89	0	0	1903	5	184	806	3948
90	0	0	1892	5	184	806	3948
91	0	0	1874	4	185	806	3948
92	0	0	1861	5	184	806	3948
93	0	0	1865	5	183	806	3949
94	0	0	1886	5	184	806	3949
95	0	0	1917	4	184	806	3949
96	0	0	1938	5	183	807	3948
97	0	0	1951	5	184	806	3948
98	0	0	1958	5	184	806	3948
99	0	0	1970	5	184	806	3948
100	0	0	1988	5	183	806	3948
101	0	0	2005	5	183	806	3947
102	0	0	2011	5	184	806	3948
103	0	0	2004	5	184	806	3948
104	0	0	1982	4	183	806	3948
105	0	0	1955	4	183	806	3948
106	0	0	1937	4	184	806	3948
107	0	0	1920	5	184	806	3948
108	0	0	1909	5	183	806	3948
109	0	0	1907	5	184	806	3949
110	0	0	1904	5	184	806	3948
111	0	0	1902	5	184	806	3949
112	0	0	1916	5	185	806	3949
113	0	0	1924	5	183	806	3948
114	0	0	1928	5	184	807	3949
115	0	0	1946	5	184	806	3948
116	0	0	1964	5	183	806	3948
117	0	0	1976	5	183	806	3948
118	0	0	1989	5	184	806	3948
119	0	0	2009	6	183	806	3948
120	0	0	2029	5	184	806	3948
121	0	0	2036	5	184	806	3948
122	0	0	2028	5	184	806	3948
123	0	0	2019	5	182	806	3948
124	0	0	2011	5	184	806	3948
125	0	0	2001	4	182	806	3949
126	0	0	1978	4	185	807	3948
127	0	0	1953	4	183	805	3948
0	0	0	1934	4	184	807	3949
1	0	0	1922	5	183	806	3948
2	0	0	1913	4	184	806	3948
3	0	0	1914	5	184	806	3948
4	0	0	1927	5	184	806	3948
5	0	0	1942	5	182	806	3948
6	0	0	1959	5	184	806	3948
7	0	0	1980	5	184	806	3948
8	0	0	1995	5	183	806	3948
9	0	0	1994	5	184	806	3949
10	0	0	1989	5	184	806	3948
11	0	0	1988	5	184	806	3948
12	0	0	1996	5	183	806	3951
13	0	0	2006	5	183	806	3948
14	0	0	1997	5	184	806	3948
15	0	0	1988	5	183	806	3948
16	0	0	1990	5	184	806	3948
17	0	0	1985	5	184	806	3948
18	0	0	1970	5	184	806	3949
19	0	0	1955	5	184	805	3948
20	0	0	1952	5	183	806	3948
21	0	0	1957	5	183	806	3948
22	0	0	1944	5	184	806	3948
23	0	0	1926	4	184	806	3948
24	0	0	1927	5	183	806	3948
25	0	0	1939	5	184	807	3949
26	0	0	1953	5	184	806	3947
27	0	0	1971	5	183	806	3949
28	0	0	1990	5	184	806	3948
29	0	0	2003	6	184	805	3948
30	0	0	2011	5	183	806	3948
31	0	0	2020	5	183	806	3948
32	0	0	2037	5	183	806	3948
33	0	0	2045	5	184	806	3948
34	0	0	2038	5	183	806	3949
35	0	0	2023	5	185	806	3949
36	0	0	2006	4	184	806	3948
37	0	0	1984	4	183	806	3949
38	0	0	1961	4	184	807	3948
39	0	0	1940	4	183	806	3947
40	0	0	1930	5	183	806	3948
41	0	0	1927	5	184	806	3947
42	0	0	1920	5	182	806	3947
43	0	0	1902	5	184	806	3948
44	0	0	1899	5	184	805	3948
45	0	0	1911	6	185	807	3948
46	0	0	1941	5	184	806	3948
47	0	0	1983	6	183	806	3948
48	0	0	2014	5	183	806	3948
49	0	0	2043	5	184	806	3948
50	0	0	2057	5	183	806	3949
51	0	0	2037	5	183	806	3948
52	0	0	2016	5	184	806	3948
53	0	0	2008	5	183	806	3948
54	0	0	2014	5	185	807	3948
55	0	0	2019	5	185	806	3948
56	0	0	2013	5	184	806	3948
57	0	0	2001	5	183	806	3947
58	0	0	1979	4	184	806	3948
59	0	0	1962	4	184	806	3948
60	0	0	1958	5	184	806	3948
61	0	0	1964	5	183	806	3947
62	0	0	1971	5	183	806	3948
63	0	0	1972	5	184	806	3948
64	0	0	1975	5	184	807	3947
65	0	0	1973	5	184	806	3948
66	0	0	1980	5	183	806	3948
67	0	0	1991	5	183	806	3949
68	0	0	1995	6	183	807	3948
69	0	0	2004	5	184	806	3948
70	0	0	2030	5	183	806	3949
71	0	0	2050	5	183	806	3948
72	0	0	2048	5	183	806	3948
73	0	0	2035	5	184	806	3948
74	0	0	2026	5	183	806	3948
75	0	0	2007	5	183	806	3948
76	0	0	1990	5	183	806	3948
77	0	0	1982	5	183	806	3948
78	0	0	1980	5	183	806	3947
79	0	0	1976	5	184	806	3948
80	0	0	1967	5	184	806	3948
81	0	0	1951	5	183	806	3948
82	0	0	1942	5	184	806	3949
83	0	0	1945	5	184	806	3948
84	0	0	1962	5	184	806	3948
85	0	0	1981	5	184	806	3948
86	0	0	1998	5	184	806	3948
87	0	0	2010	6	183	807	3948
88	0	0	2016	5	183	806	3948
89	0	0	2015	5	184	806	3948
90	0	0	2017	5	184	806	3948
91	0	0	2024	5	184	806	3949
92	0	0	2019	5	182	806	3947
93	0	0	2010	5	184	806	3947
94	0	0	2008	5	183	806	3947
95	0	0	2011	5	184	806	3948
96	0	0	2015	5	183	806	3948
97	0	0	1999	4	183	807	3949
98	0	0	1977	5	183	807	3947
99	0	0	1965	5	183	807	3948
100	0	0	1959	5	183	806	3948
101	0	0	1953	5	183	806	3948
102	0	0	1947	6	184	807	3948
103	0	0	1946	5	184	806	3948
104	0	0	1959	5	183	806	3949
105	0	0	1960	5	184	806	3948
106	0	0	1950	5	183	806	3948
107	0	0	1964	5	184	806	3947
108	0	0	1987	5	183	806	3948
109	0	0	2004	5	184	807	3948
110	0	0	2023	5	183	806	3949
111	0	0	2041	5	183	806	3947
112	0	0	2055	5	184	806	3947
113	0	0	2063	4	184	807	3948
114	0	0	2045	4	184	806	3948
115	0	0	2018	5	184	806	3948
116	0	0	2005	5	183	806	3948
117	0	0	1986	3	183	806	3948
118	0	0	1953	4	184	806	3948
119	0	0	1941	5	183	807	3949
120	0	0	1933	5	183	806	3948
121	0	0	1923	5	184	806	3948
122	0	0	1916	4	182	806	3948
123	0	0	1921	5	184	806	3948
124	0	1	1941	5	183	806	3948
125	0	1	1960	5	182	806	3948
126	0	1	1971	5	184	806	3948
127	0	1	1985	6	184	806	3948
0	0	1	2001	5	184	806	3948
1	0	1	2013	5	185	806	3949
2	0	1	2018	5	184	806	3948
3	0	1	2028	5	183	806	3945
4	0	1	2040	4	184	806	3948
5	0	1	2064	5	183	807	3948
6	0	1	2068	5	183	806	3948
7	0	1	2045	5	183	806	3948
8	0	1	2017	4	184	806	3948
9	0	1	1988	3	182	807	3949
10	0	1	1968	4	184	807	3948
11	0	1	1946	5	184	805	3948
12	0	1	1925	5	183	806	3948
13	0	1	1922	6	183	806	3947
14	0	1	1927	5	184	806	3948
15	0	1	1911	5	184	806	3948
16	0	1	1911	5	184	806	3948
17	0	1	1930	5	183	806	3948
18	0	1	1954	5	184	806	3948
19	0	1	1984	6	184	806	3948
20	0	1	2012	5	184	806	3948
21	0	1	2038	6	183	806	3948
22	0	1	2054	5	183	806	3949
23	0	1	2059	5	183	806	3949
24	0	1	2049	4	182	806	3948
25	0	1	2046	5	183	806	3948
26	0	1	2049	5	183	806	3949
27	0	1	2041	5	183	806	3948
28	0	1	2029	5	184	806	3949
29	0	1	2019	5	183	806	3949
30	0	1	2016	5	184	806	3948
31	0	1	2009	5	184	806	3948
32	0	1	1983	5	184	806	3949
33	0	1	1966	4	184	806	3948
34	0	1	1955	4	184	806	3948
35	0	1	1942	6	185	806	3948
36	0	1	1952	5	183	806	3948
37	0	1	1976	5	183	806	3949
38	0	1	2005	5	183	806	3948
39	0	1	2029	5	183	806	3948
40	0	1	2041	5	184	806	3948
41	0	1	2053	5	184	806	3948
42	0	1	2067	5	182	806	3948
43	0	1	2086	5	184	806	3949
44	0	1	2094	5	183	806	3948
45	0	1	2090	5	184	806	3948
46	0	1	2084	5	183	806	3949
47	0	1	2076	5	184	806	3948
48	0	1	2061	5	183	806	3948
49	0	1	2044	4	183	806	3948
50	0	1	2029	5	183	806	3948
51	1	1	2016	5	183	807	3948
52	1	1	2011	5	183	806	3948
53	1	1	2013	5	183	806	3948
54	1	1	2007	4	183	806	3948
55	1	1	2000	5	185	806	3948
56	1	1	2014	5	184	806	3948
57	1	1	2036	5	183	806	3949
58	1	1	2051	5	184	806	3948
59	1	1	2062	4	184	806	3949
60	1	1	2066	5	184	807	3948
61	1	1	2069	5	183	806	3948
62	1	1	2081	5	184	806	3948
63	1	1	2099	5	184	806	3949
64	1	1	2116	5	183	806	3948
65	1	1	2125	5	183	806	3948
66	1	1	2120	5	183	806	3948
67	1	1	2102	5	183	807	3949
68	1	1	2088	5	184	806	3948
69	1	1	2082	5	184	806	3949
70	1	1	2064	4	182	806	3948
71	1	1	2036	4	184	806	3949
72	1	1	2014	4	183	806	3949
73	1	1	2008	5	184	806	3948
74	1	1	2004	5	184	806	3948
75	1	1	1997	5	184	806	3948
76	1	1	1987	4	184	806	3949
77	1	1	1978	5	183	806	3948
78	1	1	1995	5	184	806	3949
79	1	1	2013	5	182	806	3948
80	1	1	2033	4	184	806	3948
81	1	1	2059	5	184	807	3948
82	1	1	2074	5	184	806	3948
83	1	1	2088	5	184	806	3948
84	1	1	2102	5	183	806	3948
85	1	1	2097	5	183	806	3948
86	1	1	2065	4	184	807	3948
87	1	1	2029	5	184	806	3949
88	1	1	2000	5	184	806	3948
89	1	1	1990	5	183	806	3950
90	1	1	1979	5	184	806	3948
91	1	1	1965	4	183	806	3949
92	1	1	1959	5	184	806	3948
93	1	1	1957	5	183	806	3948
94	1	1	1952	5	183	806	3948
95	1	1	1942	4	183	806	3948
96	1	1	1939	5	183	806	3948
97	1	1	1948	5	182	806	3949
98	1	1	1962	5	183	806	3948
99	1	1	1979	5	183	806	3948
100	1	1	1999	5	184	806	3948
101	1	1	2025	5	185	806	3948
102	1	1	2061	5	184	806	3948
103	1	1	2085	5	183	806	3949
104	1	1	2090	6	184	806	3948
105	1	1	2078	5	183	806	3948
106	1	1	2051	4	183	806	3950
107	1	1	2027	4	183	806	3949
108	1	1	2017	5	184	807	3949
109	1	1	2005	5	184	806	3948
110	1	1	1986	4	183	806	3948
111	1	1	1976	5	184	807	3948
112	1	1	1969	5	183	806	3948
113	1	1	1971	5	184	806	3948
114	1	1	1959	5	184	806	3948
115	1	1	1951	5	184	806	3948
116	1	1	1953	5	184	806	3948
117	1	1	1968	5	184	806	3949
118	1	1	1992	5	184	806	3948
119	1	1	2021	5	185	806	3949
120	1	1	2031	5	183	806	3949
121	1	1	2035	5	184	807	3949
122	1	1	2043	5	184	806	3953
123	1	1	2050	5	183	806	3948
124	1	1	2055	5	183	807	3948
125	1	1	2044	4	182	806	3948
126	1	1	2016	5	183	806	3948
127	1	1	1991	5	183	806	3948
0	1	1	1980	5	184	806	3948
1	1	1	1978	5	184	806	3948
2	1	1	1972	4	183	806	3949
3	1	1	1948	4	184	806	3949
4	1	1	1933	5	183	806	3948
5	1	1	1927	5	183	806	3949
6	1	1	1923	5	184	806	3948
7	1	1	1931	5	184	806	3948
8	1	1	1960	5	184	807	3948
9	1	1	1990	5	183	806	3949
10	1	1	2003	5	182	807	3948
11	1	1	2010	4	184	806	3948
12	1	1	2016	5	184	806	3948
13	1	1	2029	5	184	806	3948
14	1	1	2047	5	182	806	3948
15	1	1	2053	5	184	806	3948
16	1	1	2049	5	183	806	3949
17	1	1	2035	5	183	806	3949
18	1	1	2007	4	183	807	3948
19	1	1	1991	5	183	806	3948
20	1	1	1990	5	184	806	3949
21	1	1	1985	5	183	806	3948
22	1	1	1974	4	184	806	3948
23	1	1	1970	5	183	807	3948
24	1	1	1968	5	182	806	3948
25	1	1	1955	5	183	806	3948
26	1	1	1933	4	184	806	3948
27	1	1	1925	5	183	806	3948
28	1	1	1937	5	184	806	3948
29	1	1	1957	5	184	807	3949
30	1	1	1977	5	184	806	3948
31	1	1	2005	5	183	807	3949
32	1	1	2030	5	183	806	3948
33	1	1	2046	5	184	807	3948
34	1	1	2055	5	184	806	3948
35	1	1	2060	5	183	806	3948
36	1	1	2068	5	183	806	3948
37	1	1	2066	5	184	806	3948
38	1	1	2056	5	182	806	3948
39	1	1	2046	5	184	806	3948
40	1	1	2029	5	183	806	3948
41	1	1	2002	4	184	806	3948
42	1	1	1985	5	184	806	3948
43	1	1	1984	5	183	806	3948
44	1	1	1972	5	183	806	3949
45	1	1	1949	4	183	806	3948
46	1	1	1920	4	184	807	3949
47	1	1	1892	4	184	807	3948
48	1	1	1879	5	184	806	3948
49	1	1	1874	5	184	806	3948
50	1	1	1883	5	183	806	3948
51	1	1	1908	5	183	806	3948
52	1	1	1928	5	183	806	3948
53	1	1	1944	5	183	806	3949
54	1	1	1960	5	183	806	3948
55	1	1	1975	5	184	806	3948
56	1	1	1992	5	184	807	3949
57	1	1	2009	5	183	806	3949
58	1	1	2011	5	183	806	3948
59	1	1	2010	5	182	806	3949
60	1	1	2032	5	184	806	3948
61	1	1	2060	5	184	806	3948
62	1	1	2091	5	183	807	3948
63	1	1	2120	5	184	806	3948
64	1	1	2154	5	183	806	3948
65	1	1	2182	5	184	806	3948
66	1	1	2193	5	184	806	3948
67	1	1	2198	5	185	806	3948
68	1	1	2208	5	183	806	3948
69	1	1	2227	5	181	806	3948
70	1	1	2257	5	183	806	3948
71	1	1	2288	5	183	806	3948
72	1	1	2319	5	183	806	3948
73	1	1	2355	5	183	806	3948
74	1	1	2390	5	184	806	3949
75	1	1	2429	5	184	806	3948
76	1	1	2463	5	183	807	3948
77	1	1	2494	4	184	806	3948
78	1	1	2514	5	184	807	3948
79	1	1	2525	5	183	806	3949
80	1	1	2519	5	183	806	3948
81	1	1	2510	5	183	806	3948
82	1	1	2499	5	183	806	3948
83	1	1	2484	5	183	806	3948
84	1	1	2467	5	182	806	3948
85	1	1	2453	5	184	806	3948
86	1	1	2439	5	183	806	3948
87	1	1	2422	5	184	806	3948
88	1	1	2408	5	183	806	3948
89	1	1	2393	5	184	806	3948
90	1	1	2371	5	184	806	3948
91	1	1	2346	5	184	806	3948
92	1	1	2329	5	183	806	3948
93	1	1	2309	5	184	807	3948
94	1	1	2279	5	184	806	3950
95	1	1	2245	4	184	807	3950
96	1	1	2220	5	184	806	3948
97	1	1	2187	4	183	806	3949
98	1	1	2127	4	183	807	3949
99	1	1	2073	4	183	806	3948
100	1	1	2022	4	184	806	3949
101	1	1	1972	4	184	806	3948
102	1	1	1912	3	184	806	3948
103	1	1	1862	4	183	807	3949
104	1	1	1837	4	184	806	3948
105	1	1	1831	5	183	806	3949
106	1	1	1817	4	184	806	3948
107	1	1	1806	4	184	806	3948
108	1	1	1807	5	184	806	3948
109	1	1	1815	5	184	806	3949
110	1	1	1830	5	184	806	3948
111	1	1	1850	5	183	806	3950
112	1	1	1875	5	183	806	3948
113	1	1	1915	5	183	807	3942
114	1	1	1955	5	183	806	3948
115	1	1	1983	5	183	806	3949
116	1	1	1998	6	183	806	3948
117	1	1	2006	4	184	806	3947
118	1	1	1997	5	183	807	3948
119	1	1	1982	5	183	806	3948
120	1	1	1970	5	183	806	3948
121	1	1	1955	4	182	806	3948
122	1	1	1939	5	183	807	3948
123	1	1	1917	5	184	806	3948
124	1	1	1887	4	183	806	3948
125	1	1	1869	5	182	806	3948
126	1	1	1870	5	182	806	3949
127	1	1	1871	5	183	806	3948
0	1	1	1874	5	185	806	3948
1	1	1	1880	5	183	806	3949
2	1	1	1900	5	184	806	3948
3	1	1	1930	5	183	806	3948
4	1	1	1959	4	184	806	3948
5	1	1	1979	5	184	807	3948
6	1	1	1979	5	184	806	3948
7	1	1	1985	5	184	806	3948
8	1	1	2001	5	183	806	3948
9	1	1	2007	5	184	806	3948
10	1	1	1981	4	183	806	3949
11	1	1	1955	5	183	806	3948
12	1	1	1945	5	183	807	3949
13	1	1	1941	7	184	806	3948
14	1	1	1919	4	184	806	3948
15	1	1	1892	4	183	806	3948
16	1	1	1871	5	184	807	3949
17	1	1	1873	5	183	806	3948
18	1	1	1880	5	184	806	3948
19	1	1	1884	5	183	807	3948
20	1	1	1908	5	184	807	3948
21	1	1	1945	5	184	806	3948
22	1	1	1965	5	184	806	3948
23	1	1	1967	5	182	806	3949
24	1	1	1969	5	184	806	3948
25	1	1	1975	5	183	806	3948
26	1	1	1995	5	184	806	3949
27	1	1	2006	5	184	806	3948
28	1	1	2009	5	183	807	3948
29	1	1	2001	5	184	806	3948
30	1	1	1978	4	184	806	3948
31	1	1	1955	5	183	806	3949
32	1	1	1952	5	182	806	3948
33	1	1	1957	5	185	806	3948
34	1	1	1960	6	183	806	3948
35	1	1	1943	4	182	806	3949
36	1	1	1917	4	183	806	3948
37	1	1	1902	5	184	806	3949
38	1	1	1890	5	184	806	3948
39	1	1	1894	5	184	806	3948
40	1	1	1917	5	185	806	3948
41	1	1	1938	5	183	806	3948
42	1	1	1957	5	184	806	3948
43	1	1	1980	5	184	806	3948
44	1	1	2007	5	183	806	3948
45	1	1	2026	5	183	807	3948
46	1	1	2024	5	184	806	3949
47	1	1	2008	5	183	806	3948
48	1	1	2002	5	183	806	3949
49	1	1	2009	5	184	806	3949
50	1	1	2011	5	184	807	3948
51	1	1	2006	5	183	806	3948
52	1	1	1984	4	183	806	3948
53	1	1	1955	4	183	806	3948
54	1	1	1933	5	183	806	3948
55	1	1	1921	5	185	807	3949
56	1	1	1918	5	184	806	3948
57	1	1	1925	5	183	806	3949
58	1	1	1929	5	184	806	3948
59	1	1	1928	5	185	806	3947
60	1	1	1931	5	184	806	3948
61	1	1	1949	5	183	806	3948
62	1	1	1971	5	184	806	3948
63	1	1	1996	5	183	806	3948
64	1	1	2012	5	183	806	3948
65	1	1	2023	5	183	806	3948
66	1	1	2028	5	184	806	3949
67	1	1	2033	5	184	806	3948
68	1	1	2044	5	183	806	3949
69	1	1	2044	5	183	806	3948
70	1	1	2021	4	183	806	3948
71	1	1	2006	5	185	806	3948
72	1	1	1999	5	183	806	3948
73	1	1	1994	5	183	806	3948
74	1	1	1982	5	185	806	3948
75	1	1	1968	5	183	807	3948
76	1	1	1958	5	184	806	3948
77	1	1	1954	5	184	806	3948
78	1	1	1939	4	183	806	3948
79	1	1	1923	5	183	806	3948
80	1	1	1930	5	183	807	3948
81	1	1	1948	5	183	806	3949
82	1	1	1981	5	183	806	3950
83	1	1	2023	5	183	806	3948
84	1	1	2061	5	183	806	3949
85	1	1	2089	5	183	807	3949
86	1	1	2103	5	183	806	3948
87	1	1	2097	5	184	806	3948
88	1	1	2082	5	183	806	3948
89	1	1	2072	5	183	806	3948
90	1	1	2044	4	184	806	3948
91	1	1	2012	4	184	806	3949
92	1	1	1989	5	183	806	3948
93	1	1	1985	5	183	806	3948
94	1	1	1989	5	183	806	3948
95	1	1	1999	5	183	806	3948
96	1	1	1995	5	183	807	3948
97	1	1	1980	5	183	806	3949
98	1	1	1969	6	183	806	3948
99	1	1	1975	5	183	806	3948
100	1	1	2010	5	184	806	3948
101	1	1	2054	5	183	806	3949
102	1	1	2084	5	183	806	3948
103	1	1	2095	5	184	806	3948
104	1	1	2099	5	183	806	3945
105	1	1	2104	5	184	806	3948
106	1	1	2108	5	184	806	3949
107	1	1	2096	5	183	806	3948
108	1	1	2069	5	184	806	3949
109	1	1	2064	5	184	806	3949
110	1	1	2070	4	183	806	3948
111	1	1	2069	5	183	806	3948
112	1	1	2064	5	183	806	3948
113	1	1	2065	5	183	806	3948
114	1	1	2057	5	183	806	3948
115	1	1	2039	4	184	807	3948
116	1	1	2029	5	183	806	3949
117	1	1	2023	5	183	806	3949
118	1	1	2029	5	184	806	3948
119	1	1	2045	5	184	806	3948
120	1	1	2057	5	183	806	3948
121	1	1	2077	5	184	807	3948
122	1	1	2111	5	183	806	3948
123	1	1	2134	5	184	806	3949
124	1	1	2141	5	184	806	3948
125	1	1	2153	5	184	806	3948
126	1	1	2161	5	183	806	3948
127	1	1	2159	5	183	806	3948
0	1	1	2158	5	184	806	3948
1	1	1	2161	6	184	806	3948
2	1	1	2157	5	184	807	3948
3	1	1	2140	5	184	807	3948
4	1	1	2118	5	183	806	3948
5	1	1	2095	4	184	806	3948
6	1	1	2078	5	184	806	3948
7	1	1	2080	5	184	806	3949
8	1	1	2096	5	183	806	3948
9	1	1	2089	4	183	806	3949
10	1	1	2062	6	183	806	3948
11	1	1	2065	5	184	806	3948
12	1	1	2076	5	182	806	3948
13	1	1	2090	5	184	807	3948
14	1	1	2105	5	183	806	3948
15	1	1	2128	5	183	805	3949
16	1	1	2152	5	184	806	3948
17	1	1	2180	5	183	806	3948
18	1	1	2201	5	183	806	3949
19	1	1	2204	5	184	806	3949
20	1	1	2197	5	183	806	3948
21	1	1	2182	5	183	805	3948
22	1	1	2163	5	184	806	3948
23	1	1	2160	5	183	807	3949
24	1	1	2165	5	184	806	3948
25	1	1	2170	5	183	806	3948
26	1	1	2173	5	184	806	3948
27	1	1	2168	5	183	807	3948
28	1	1	2149	5	184	806	3948
29	1	1	2126	5	183	806	3948
30	1	1	2101	5	184	806	3947
31	1	1	2091	4	183	806	3948
32	1	1	2094	5	183	806	3948
33	1	1	2105	5	183	806	3949
34	1	1	2128	4	184	806	3948
35	1	1	2155	5	182	806	3948
36	1	1	2179	5	183	806	3949
37	1	1	2196	5	183	806	3949
38	1	1	2202	5	183	806	3949
39	1	1	2210	5	183	806	3950
40	1	1	2221	5	184	807	3948
41	1	1	2232	6	183	806	3948
42	1	1	2237	5	184	807	3949
43	1	1	2239	5	185	806	3948
44	1	1	2236	5	184	806	3948
45	1	1	2218	5	183	806	3948
46	1	1	2189	4	183	806	3948
47	1	1	2163	4	184	806	3949
48	1	1	2143	4	183	806	3949
49	1	1	2124	5	184	806	3948
50	1	1	2115	5	184	806	3949
51	1	1	2125	5	183	806	3948
52	1	1	2150	5	183	806	3949
53	1	1	2176	5	184	806	3949
54	1	1	2197	5	184	806	3948
55	1	1	2215	5	184	806	3948
56	1	1	2222	6	184	806	3948
57	1	1	2224	5	183	807	3949
58	1	1	2229	5	183	806	3948
59	1	1	2228	5	183	806	3949
60	1	1	2227	5	183	806	3947
61	1	1	2221	6	183	806	3948
62	1	1	2207	5	183	806	3948
63	1	1	2186	5	184	806	3948
64	1	1	2177	5	184	806	3948
65	1	1	2173	5	183	807	3948
66	1	1	2163	3	183	806	3948
67	1	1	2144	4	184	806	3948
68	1	1	2126	5	184	806	3949
69	1	1	2110	5	184	806	3948
70	1	1	2089	5	183	806	3949
71	1	1	2086	5	184	806	3948
72	1	1	2090	5	184	806	3949
73	1	1	2095	5	184	806	3948
74	1	1	2098	5	183	806	3948
75	1	1	2099	5	184	806	3947
76	1	1	2105	5	183	807	3948
77	1	1	2116	5	183	806	3948
78	1	1	2122	5	184	806	3948
79	1	1	2120	5	184	806	3947
80	1	1	2115	5	183	806	3947
81	1	1	2119	5	183	806	3948
82	1	1	2116	5	184	806	3949
83	1	1	2098	5	182	806	3949
84	1	1	2069	4	183	806	3948
85	1	1	2025	4	184	806	3948
86	1	1	1975	5	183	806	3948
87	1	1	1936	4	184	807	3950
88	1	1	1905	4	183	806	3949
89	1	1	1898	5	184	806	3948
90	1	1	1907	5	183	807	3948
91	1	1	1921	3	184	806	3948
92	1	1	1921	5	184	806	3948
93	1	1	1920	5	183	806	3948
94	1	1	1933	5	183	806	3948
95	1	1	1955	5	183	806	3949
96	1	1	1971	5	184	806	3949
97	1	1	1973	5	183	806	3948
98	1	1	1973	5	183	806	3949
99	1	1	1971	5	183	806	3948
100	1	1	1966	5	184	806	3948
101	1	1	1966	7	184	806	3948
102	1	1	1972	5	184	806	3949
103	1	1	1971	6	183	806	3948
104	1	1	1953	4	184	806	3948
105	1	1	1935	4	184	806	3948
106	1	1	1926	3	184	806	3949
107	1	1	1906	4	184	807	3948
108	1	1	1893	5	184	805	3948
109	1	1	1884	4	184	806	3949
110	1	1	1866	4	184	806	3948
111	1	1	1848	5	184	806	3948
112	1	1	1844	5	183	806	3949
113	1	1	1849	5	183	806	3948
114	1	1	1864	5	184	806	3948
115	1	1	1884	5	183	806	3948
116	1	1	1897	5	183	806	3948
117	1	1	1909	5	184	806	3948
118	1	1	1925	5	183	806	3949
119	1	1	1935	5	184	806	3948
120	1	1	1945	5	182	806	3949
121	1	1	1949	5	185	806	3950
122	1	1	1929	5	183	806	3948
123	1	1	1907	4	184	807	3949
124	1	1	1887	5	183	806	3948
125	1	1	1869	5	184	806	3948
126	1	1	1849	4	183	806	3948
127	1	1	1837	4	184	806	3949
0	1	1	1830	5	184	806	3948
1	1	1	1831	5	184	806	3948
2	1	1	1819	5	184	806	3949
3	1	1	1821	5	184	806	3948
4	1	1	1834	5	183	806	3948
5	1	1	1834	5	184	806	3949
6	1	1	1843	5	184	806	3948
7	1	1	1868	5	183	806	3948
8	1	1	1889	5	184	806	3948
9	1	1	1905	5	184	806	3950
10	1	1	1914	5	183	806	3948
11	1	1	1914	5	183	806	3948
12	1	1	1908	5	183	806	3948
13	1	1	1899	5	183	806	3948
14	1	1	1893	5	183	806	3948
15	1	1	1892	5	184	806	3948
16	1	1	1890	5	183	806	3947
17	1	1	1876	4	184	806	3949
18	1	1	1853	4	183	806	3949
19	1	1	1825	5	183	806	3948
20	1	1	1791	4	184	806	3949
21	1	1	1767	5	184	806	3948
22	1	1	1777	5	184	806	3948
23	1	1	1819	5	183	807	3948
24	1	1	1863	5	184	806	3948
25	1	1	1881	5	184	806	3949
26	1	1	1904	5	184	806	3948
27	1	1	1930	5	184	806	3950
28	1	1	1940	5	184	807	3948
29	1	1	1934	6	183	807	3948
30	1	1	1946	5	183	806	3948
31	1	1	1968	5	183	806	3948
32	1	1	1989	4	183	806	3948
33	1	1	2004	5	184	806	3948
34	1	1	1986	5	182	806	3949
35	1	1	1959	5	183	806	3948
36	1	1	1938	5	183	806	3948
37	1	1	1924	5	183	806	3949
38	1	1	1921	6	184	806	3948
39	1	1	1912	4	184	806	3948
40	1	1	1906	5	182	806	3948
41	1	1	1901	5	183	806	3948
42	1	1	1884	4	183	806	3948
43	1	1	1873	5	183	806	3948
44	1	1	1871	5	184	806	3948
45	1	1	1871	5	184	805	3949
46	1	1	1884	5	184	806	3948
47	1	1	1916	5	183	806	3948
48	1	1	1956	5	184	806	3948
49	1	1	1974	5	184	806	3948
50	1	1	1967	4	183	806	3949
51	1	1	1959	5	184	806	3948
52	1	1	1970	5	182	806	3949
53	1	1	1975	5	183	806	3948
54	1	1	1955	4	183	806	3948
55	1	1	1927	5	184	805	3948
56	1	1	1908	4	184	806	3948
57	1	1	1904	5	183	806	3947
58	1	1	1907	6	184	806	3948
59	1	1	1914	5	183	806	3950
60	1	1	1912	5	184	806	3949
61	1	1	1903	5	184	806	3948
62	1	1	1883	4	183	806	3948
63	1	1	1875	5	184	806	3948
64	1	1	1878	5	184	806	3948
65	1	1	1886	5	184	806	3949
66	1	1	1902	5	183	806	3948
67	1	1	1923	5	183	806	3948
68	1	1	1935	5	185	806	3948
69	1	1	1927	5	183	806	3948
70	1	1	1912	5	184	805	3948
71	1	1	1909	5	184	806	3949
72	1	1	1923	5	183	807	3948
73	1	1	1950	5	183	806	3948
74	1	1	1982	5	184	806	3948
75	1	1	2013	5	183	806	3948
76	1	1	2016	4	183	806	3950
77	1	1	1988	4	184	806	3948
78	1	1	1946	5	184	806	3948
79	1	1	1916	4	183	806	3949
80	1	1	1912	5	184	806	3948
81	1	1	1913	6	184	806	3948
82	1	1	1910	5	182	806	3949
83	1	1	1899	5	184	806	3949
84	1	1	1898	5	182	806	3948
85	1	1	1902	5	183	805	3948
86	1	1	1910	5	183	806	3948
87	1	1	1920	5	184	806	3948
88	1	1	1928	5	184	807	3948
89	1	1	1953	5	184	806	3948
90	1	1	1979	5	184	806	3948
91	1	1	1998	5	184	806	3949
92	1	1	2016	6	184	806	3948
93	1	1	2029	5	183	807	3948
94	1	1	2007	4	183	806	3948
95	1	1	1972	4	183	805	3948
96	1	1	1949	4	183	806	3948
97	1	1	1936	4	183	806	3949
98	1	1	1933	5	183	806	3949
99	1	1	1930	5	184	806	3948
100	1	1	1931	5	184	805	3948
101	1	1	1919	4	183	806	3948
102	1	1	1887	5	184	806	3948
103	1	1	1880	5	184	806	3948
104	1	1	1895	5	184	806	3948
105	1	1	1914	5	182	805	3948
106	1	1	1927	5	184	806	3948
107	1	1	1940	5	184	806	3948
108	1	1	1959	6	183	806	3948
109	1	1	1975	5	183	806	3948
110	1	1	1969	5	182	805	3949
111	1	1	1956	4	183	806	3949
112	1	1	1951	5	184	806	3948
113	1	1	1952	5	183	806	3948
114	1	1	1952	5	184	807	3949
115	1	1	1953	5	183	806	3948
116	1	1	1959	5	183	806	3949
117	1	1	1951	6	183	805	3948
118	1	1	1936	5	183	806	3948
119	1	1	1924	5	184	806	3947
120	1	1	1926	5	183	805	3948
121	1	1	1931	4	184	806	3948
122	1	1	1929	5	184	806	3949
123	1	1	1936	5	184	806	3948
124	1	1	1944	5	184	806	3948
125	1	1	1934	5	183	806	3948
126	1	1	1931	5	184	806	3948
127	1	1	1934	5	184	806	3948
0	1	1	1949	5	183	807	3948
1	1	1	1972	5	184	807	3948
2	1	1	1990	5	183	806	3948
3	1	1	1990	5	184	806	3949
4	1	1	1986	5	184	805	3948
5	1	1	1987	5	183	806	3948
6	1	1	1973	5	183	807	3948
7	1	1	1945	4	183	806	3948
8	1	1	1930	5	184	806	3948
9	1	1	1926	5	182	807	3948
10	1	1	1920	5	183	806	3948
11	1	1	1915	5	183	806	3948
12	1	1	1909	5	184	806	3948
13	1	1	1899	4	183	806	3948
14	1	1	1890	5	184	806	3949
15	1	1	1904	5	183	806	3949
16	1	1	1920	5	183	806	3948
17	1	1	1933	5	184	806	3949
18	1	1	1957	5	184	806	3948
19	1	1	1976	5	184	806	3948
20	1	1	1988	5	184	806	3948
21	1	1	2001	5	183	806	3948
22	1	1	2014	5	184	806	3948
23	1	1	2024	5	184	806	3948
24	1	1	2031	5	184	806	3948
25	1	1	2029	6	183	806	3948
26	1	1	2018	5	184	806	3948
27	1	1	2005	4	183	806	3949
28	1	1	1980	4	184	806	3948
29	1	1	1950	4	184	806	3949
30	1	1	1931	5	183	806	3949
31	1	1	1920	5	183	806	3948
32	1	1	1909	5	183	806	3949
33	1	1	1908	6	183	806	3948
34	1	1	1906	5	184	806	3948
35	1	1	1913	5	182	806	3948
36	1	1	1928	5	183	806	3949
37	1	1	1940	5	183	806	3948
38	1	1	1962	5	184	806	3948
39	1	1	1985	5	183	806	3949
40	1	1	1997	5	184	806	3948
41	1	1	2006	5	183	806	3948
42	1	1	2017	5	184	806	3948
43	1	1	2026	4	183	806	3949
44	1	1	2033	5	182	807	3948
45	1	1	2034	5	183	806	3948
46	1	1	2031	5	183	806	3949
47	1	1	2019	5	184	806	3949
48	1	1	2007	4	183	806	3948
49	1	1	1994	5	184	806	3948
50	1	1	1980	6	183	806	3948
51	1	1	1960	4	183	806	3948
52	1	1	1940	4	184	806	3949
53	1	1	1924	4	183	806	3948
54	1	1	1908	4	182	806	3948
55	1	1	1913	7	184	806	3948
56	1	1	1939	6	183	806	3948
57	1	1	1958	5	183	806	3948
58	1	1	1973	5	184	806	3948
59	1	1	1982	5	184	806	3949
60	1	1	1988	5	183	806	3949
61	1	1	1988	5	184	806	3948
62	1	1	1987	5	183	806	3949
63	1	1	1990	5	184	806	3948
64	1	1	2006	5	183	806	3948
65	1	1	2018	5	183	806	3948
66	1	1	2009	6	182	806	3948
67	1	1	2009	5	184	806	3949
68	1	1	1998	5	183	806	3948
69	1	1	1971	5	183	806	3948
70	1	1	1949	5	183	806	3948
71	1	1	1928	4	184	806	3948
72	1	1	1912	4	183	806	3948
73	1	1	1907	5	184	806	3948
74	1	1	1895	6	183	806	3948
75	1	1	1898	5	183	806	3948
76	1	1	1920	5	184	806	3949
77	1	1	1926	5	183	806	3948
78	1	1	1934	4	183	806	3949
79	1	1	1958	5	185	806	3948
80	1	1	1988	5	183	806	3948
81	1	1	2027	5	183	806	3948
82	1	1	2054	5	184	806	3950
83	1	1	2060	5	184	806	3948
84	1	1	2052	5	183	806	3948
85	1	1	2025	4	182	807	3948
86	1	1	2006	5	184	806	3948
87	1	1	1999	5	183	806	3948
88	1	1	1993	4	184	806	3948
89	1	1	1991	5	183	806	3948
90	1	1	1990	4	183	806	3948
91	1	1	1990	5	183	806	3949
92	1	1	1975	4	183	806	3948
93	1	1	1962	4	183	806	3949
94	1	1	1956	5	186	807	3948
95	1	1	1961	5	183	807	3948
96	1	1	1965	5	184	806	3948
97	1	1	1954	5	183	807	3949
98	1	1	1942	5	184	806	3948
99	1	1	1948	4	183	806	3949
100	1	1	1973	5	183	807	3948
101	1	1	1994	5	183	806	3948
102	1	1	2003	5	184	806	3948
103	1	1	2002	4	184	806	3949
104	1	1	2014	5	182	806	3948
105	1	1	2019	5	181	807	3948
106	1	1	2011	5	183	806	3948
107	1	1	2005	5	183	806	3948
108	1	1	1993	5	183	806	3948
109	1	1	1976	4	182	806	3948
110	1	1	1958	5	184	806	3948
111	1	1	1943	5	184	806	3948
112	1	1	1941	5	185	807	3949
113	1	1	1932	5	183	806	3948
114	1	1	1920	5	183	807	3949
115	1	1	1927	6	184	806	3949
116	1	1	1946	5	183	806	3949
117	1	1	1969	5	184	806	3949
118	1	1	2009	5	183	806	3948
119	1	1	2052	6	183	806	3948
120	1	1	2077	5	183	806	3948
121	1	1	2096	5	183	806	3948
122	1	1	2109	5	184	806	3948
123	1	1	2117	5	183	806	3948
124	1	1	2125	5	184	806	3948
125	1	1	2128	5	184	806	3948
126	1	1	2118	5	184	806	3948
127	1	1	2106	5	183	806	3949
0	1	1	2093	5	183	806	3948
1	1	1	2077	6	184	806	3948
2	1	1	2071	5	183	806	3948
3	1	1	2065	5	183	806	3949
4	1	1	2044	4	184	806	3950
5	1	1	2032	5	184	806	3948
6	1	1	2029	5	183	807	3949
7	1	1	2043	5	183	806	3949
8	1	1	2059	5	184	806	3948
9	1	1	2072	5	183	806	3949
10	1	1	2088	4	183	806	3948
11	1	1	2108	5	183	806	3949
12	1	1	2127	5	183	806	3949
13	1	1	2144	6	183	806	3948
14	1	1	2155	5	184	806	3948
15	1	1	2147	4	183	806	3948
16	1	1	2128	5	183	806	3948
17	1	1	2111	5	182	806	3948
18	1	1	2088	4	183	806	3948
19	1	1	2074	5	182	806	3948
20	1	1	2067	5	184	806	3948
21	1	1	2060	5	184	806	3948
22	1	1	2056	5	184	806	3948
23	1	1	2041	4	184	806	3948
24	1	1	2015	5	183	806	3949
25	1	1	2000	5	184	806	3948
26	1	1	1988	4	183	807	3949
27	1	1	1983	5	183	806	3949
28	1	1	1988	5	183	806	3948
29	1	1	2004	5	183	806	3948
30	1	1	2027	5	184	806	3948
31	1	1	2041	5	183	806	3948
32	1	1	2041	5	183	806	3948
33	1	1	2034	5	184	806	3949
34	1	1	2030	5	183	806	3949
35	1	1	2034	5	183	806	3948
36	1	1	2027	5	184	806	3948
37	1	1	2025	6	184	806	3948
38	1	1	2043	5	183	806	3948
39	1	1	2056	5	183	806	3950
40	1	1	2051	5	183	806	3948
41	1	1	2044	5	184	807	3949
42	1	1	2034	5	183	806	3948
43	1	1	2014	4	183	807	3948
44	1	1	1992	4	183	806	3948
45	1	1	1978	5	183	806	3948
46	1	1	1955	4	184	806	3948
47	1	1	1938	5	184	806	3948
48	1	1	1950	5	184	806	3948
49	1	1	1979	6	183	806	3948
50	1	1	2019	5	183	806	3948
51	1	1	2057	5	184	806	3948
52	1	1	2077	6	184	806	3948
53	1	1	2069	5	183	806	3948
54	1	1	2055	5	184	806	3948
55	1	1	2054	5	183	806	3949
56	1	1	2050	5	184	806	3948
57	1	1	2044	5	184	806	3948
58	1	1	2041	5	184	806	3949
59	1	1	2030	5	183	806	3948
60	1	1	2010	4	184	806	3949
61	1	1	2001	5	185	806	3948
62	1	1	1995	5	182	806	3948
63	1	1	1985	5	184	807	3949
64	1	1	1977	5	184	807	3948
65	1	1	1976	5	184	806	3948
66	1	1	1961	5	184	806	3948
67	1	1	1959	5	184	806	3948
68	1	1	1974	4	184	806	3948
69	1	1	1999	5	185	806	3948
70	1	1	2021	5	183	806	3948
71	1	1	2038	5	184	806	3948
72	1	1	2053	5	183	806	3948
73	1	1	2071	4	184	806	3948
74	1	1	2088	5	183	806	3948
75	1	1	2096	5	184	806	3949
76	1	1	2096	5	184	806	3948
77	1	1	2080	5	184	806	3948
78	1	1	2061	5	184	806	3949
79	1	1	2038	4	182	806	3948
80	1	1	2019	5	183	806	3948
81	1	1	1998	5	184	806	3948
82	1	1	1979	5	183	806	3949
83	1	1	1971	4	183	806	3949
84	1	1	1983	5	184	807	3949
85	1	1	2003	5	183	806	3948
86	1	1	2002	4	184	806	3948
87	1	1	2000	5	183	806	3948
88	1	1	1996	5	183	806	3948
89	1	1	1994	5	183	806	3948
90	1	1	2002	5	183	806	3949
91	1	1	2016	5	185	806	3948
92	1	1	2030	5	183	806	3948
93	1	1	2054	4	183	806	3948
94	1	1	2074	5	184	806	3948
95	1	1	2077	5	183	807	3948
96	1	1	2074	5	184	806	3949
97	1	1	2080	5	183	806	3949
98	1	1	2076	5	183	806	3948
99	1	1	2059	4	184	806	3948
100	1	1	2043	5	183	806	3948
101	1	1	2024	4	184	806	3948
102	1	1	2006	5	184	806	3948
103	1	1	1993	5	183	806	3949
104	1	1	1977	4	184	806	3949
105	1	1	1967	4	183	806	3948
106	1	1	1957	5	183	806	3948
107	1	1	1964	5	182	806	3949
108	1	1	1987	5	184	806	3948
109	1	1	2003	5	184	806	3948
110	1	1	2016	5	185	806	3948
111	1	1	2031	5	183	806	3949
112	1	1	2039	5	183	806	3949
113	1	1	2038	4	183	806	3948
114	1	1	2043	5	184	806	3949
115	1	1	2051	6	184	806	3948
116	1	1	2064	5	183	806	3948
117	1	1	2074	5	183	806	3948
118	1	1	2063	4	183	806	3949
119	1	1	2034	3	184	806	3948
120	1	1	1997	5	183	806	3948
121	1	1	1964	4	183	806	3949
122	1	1	1933	5	183	806	3949
123	1	1	1918	3	183	806	3948
124	1	1	1908	5	184	806	3948
125	1	1	1906	5	185	806	3949
126	1	1	1901	5	184	806	3948
127	1	1	1911	5	184	806	3948
0	1	1	1924	4	183	806	3948
1	1	1	1940	5	183	806	3949
2	1	1	1971	5	185	806	3948
3	1	1	2005	4	184	806	3948
4	1	1	2020	5	182	806	3948
5	1	1	2018	5	182	806	3948
6	1	1	2025	5	182	806	3948
7	1	1	2046	5	183	806	3948
8	1	1	2069	5	182	807	3948
9	1	1	2077	5	185	806	3948
10	1	1	2070	5	183	806	3950
11	1	1	2060	5	183	806	3948
12	1	1	2069	5	182	806	3948
13	1	1	2089	5	183	806	3949
14	1	1	2105	5	184	806	3949
15	1	1	2122	5	183	806	3948
16	1	1	2148	5	184	806	3948
17	1	1	2172	6	183	806	3948
18	1	1	2197	5	183	807	3948
19	1	1	2233	5	183	806	3951
20	1	1	2268	5	183	806	3948
21	1	1	2300	5	183	806	3949
22	1	1	2339	5	183	806	3948
23	1	1	2389	6	183	806	3948
24	1	1	2439	5	184	806	3948
25	1	1	2480	5	183	806	3948
26	1	1	2509	5	183	806	3948
27	1	1	2524	5	184	806	3950
28	1	1	2540	5	184	806	3948
29	1	1	2568	5	184	806	3948
30	1	1	2595	5	184	806	3948
31	1	1	2617	5	183	806	3948
32	1	1	2620	5	183	806	3948
33	1	1	2607	5	184	806	3948
34	1	1	2596	5	182	806	3948
35	1	1	2590	4	183	806	3948
36	1	1	2584	5	183	806	3949
37	1	1	2565	5	183	806	3948
38	1	1	2526	4	183	806	3950
39	1	1	2516	5	183	807	3949
40	1	1	2517	5	183	806	3949
41	1	1	2515	5	183	806	3948
42	1	1	2502	6	183	806	3948
43	1	1	2487	5	183	806	3948
44	1	1	2464	5	184	806	3949
45	1	1	2437	4	182	806	3949
46	1	1	2413	4	183	806	3949
47	1	1	2379	5	183	806	3948
48	1	1	2333	5	184	806	3948
49	1	1	2277	4	184	806	3948
50	1	1	2220	3	184	806	3948
51	1	1	2165	4	183	806	3948
52	1	1	2100	4	184	806	3949
53	1	1	2034	4	183	806	3948
54	1	1	1972	4	184	806	3948
55	1	1	1926	4	183	806	3949
56	1	1	1901	4	184	806	3948
57	1	1	1883	4	184	806	3948
58	1	1	1862	5	184	806	3949
59	1	1	1859	5	184	806	3949
60	1	1	1869	4	183	806	3949
61	1	1	1892	5	183	806	3950
62	1	1	1922	5	183	806	3948
63	1	1	1949	5	184	806	3949
64	1	1	1965	5	183	806	3949
65	1	1	1964	4	184	806	3948
66	1	1	1960	5	184	806	3948
67	1	1	1965	6	184	806	3948
68	1	1	1979	5	184	807	3948
69	1	1	1997	5	184	807	3949
70	1	1	2012	4	183	806	3948
71	1	1	2018	5	185	806	3948
72	1	1	2008	5	184	806	3948
73	1	1	1975	4	183	807	3948
74	1	1	1939	4	182	806	3949
75	1	1	1931	4	184	806	3949
76	1	1	1942	5	183	806	3949
77	1	1	1951	5	184	806	3948
78	1	1	1945	5	183	806	3949
79	1	1	1958	5	184	806	3949
80	1	1	1978	4	184	806	3949
81	1	1	1995	5	183	806	3948
82	1	1	2008	5	184	806	3948
83	1	1	2020	5	183	807	3948
84	1	1	2024	5	184	806	3948
85	1	1	2021	5	183	806	3948
86	1	1	2007	5	184	806	3948
87	1	1	1994	5	184	806	3949
88	1	1	1999	5	183	806	3948
89	1	1	2017	5	183	806	3948
90	1	1	2031	4	183	806	3949
91	1	1	2031	5	183	806	3950
92	1	1	2032	6	182	806	3948
93	1	1	2015	5	183	806	3949
94	1	1	1986	5	185	806	3948
95	1	1	1959	4	182	806	3949
96	1	1	1946	4	185	806	3948
97	1	1	1942	5	184	806	3949
98	1	1	1931	5	184	806	3948
99	1	1	1933	5	183	806	3948
100	1	1	1946	5	183	806	3948
101	1	1	1970	5	183	806	3948
102	1	1	2003	5	184	806	3948
103	1	1	2033	5	183	806	3949
104	1	1	2057	5	184	806	3949
105	1	1	2070	5	183	806	3949
106	1	1	2083	5	184	806	3948
107	1	1	2095	5	183	806	3948
108	1	1	2096	5	184	807	3948
109	1	1	2095	5	183	806	3948
110	1	1	2090	5	184	806	3948
111	1	1	2088	5	183	806	3948
112	1	1	2063	4	184	806	3949
113	1	1	2034	4	183	806	3948
114	1	1	2013	4	185	806	3948
115	1	1	2009	5	184	806	3949
116	1	1	2017	5	184	806	3948
117	1	1	2030	5	184	806	3948
118	1	1	2033	5	183	806	3948
119	1	1	2033	5	183	806	3948
120	1	1	2025	5	184	806	3948
121	1	1	2017	5	184	806	3948
122	1	1	2029	5	184	806	3948
123	1	1	2062	5	184	806	3948
124	1	1	2097	5	183	806	3949
125	1	1	2115	5	184	806	3949
126	1	1	2122	5	183	806	3948
127	1	1	2121	5	183	806	3950
0	1	1	2127	5	185	806	3948
1	1	1	2135	5	184	806	3948
2	1	1	2137	5	182	806	3949
3	1	1	2121	5	184	806	3948
4	1	1	2096	4	184	806	3948
5	1	1	2079	5	184	806	3948
6	1	1	2068	5	182	806	3948
7	1	1	2054	5	183	806	3948
8	1	1	2043	5	182	807	3949
9	1	1	2030	5	184	806	3948
10	1	1	2015	5	183	806	3952
11	1	1	2014	5	184	806	3948
12	1	1	2018	5	185	806	3949
13	1	1	2028	5	184	806	3948
14	1	1	2055	4	184	806	3948
15	1	1	2095	5	184	805	3948
16	1	1	2125	5	183	806	3948
17	1	1	2139	5	183	806	3949
18	1	1	2147	5	184	806	3948
19	1	1	2155	5	183	806	3948
20	1	1	2161	4	183	806	3948
21	1	1	2158	5	184	806	3948
22	1	1	2145	5	184	806	3948
23	1	1	2123	5	184	807	3949
24	1	1	2101	5	184	806	3948
25	1	1	2092	5	184	806	3948
26	1	1	2085	6	184	807	3949
27	1	1	2076	5	183	806	3948
28	1	1	2064	5	184	806	3948
29	1	1	2059	5	182	806	3948
30	1	1	2046	4	183	806	3948
31	1	1	2048	5	185	806	3948
32	1	1	2060	5	183	806	3949
33	1	1	2070	5	183	806	3948
34	1	1	2084	5	184	806	3949
35	1	1	2108	5	183	805	3948
36	1	1	2133	5	184	806	3948
37	1	1	2154	5	183	806	3949
38	1	1	2160	5	184	806	3948
39	1	1	2158	4	183	806	3948
40	1	1	2157	6	183	806	3948
41	1	1	2154	5	184	806	3948
42	1	1	2152	5	184	806	3948
43	1	1	2155	5	184	806	3948
44	1	1	2157	5	183	806	3948
45	1	1	2146	4	183	806	3948
46	1	1	2127	4	184	806	3948
47	1	1	2120	5	182	806	3949
48	1	1	2127	5	182	806	3949
49	1	1	2137	5	184	806	3948
50	1	1	2127	6	184	806	3948
51	1	1	2112	5	184	806	3948
52	1	1	2104	5	183	806	3949
53	1	1	2102	5	183	806	3948
54	1	1	2120	5	184	806	3948
55	1	1	2149	6	183	806	3948
56	1	1	2173	5	184	806	3948
57	1	1	2180	5	184	806	3949
58	1	1	2184	5	184	806	3949
59	1	1	2184	6	184	806	3948
60	1	1	2180	6	184	806	3948
61	1	1	2161	5	184	806	3948
62	1	1	2149	5	184	806	3948
63	1	1	2142	5	183	806	3948
64	1	1	2131	5	184	806	3949
65	1	1	2118	5	183	806	3948
66	1	1	2095	4	184	806	3948
67	1	1	2085	6	184	806	3948
68	1	1	2082	5	183	806	3948
69	1	1	2079	5	184	806	3948
70	1	1	2062	5	184	806	3948
71	1	1	2068	5	184	806	3949
72	1	1	2085	5	183	806	3948
73	1	1	2102	5	183	806	3948
74	1	1	2130	5	184	806	3948
75	1	1	2152	5	183	806	3948
76	1	1	2164	5	184	806	3948
77	1	1	2173	5	184	806	3948
78	1	1	2190	5	184	807	3948
79	1	1	2205	5	184	806	3949
80	1	1	2226	5	183	806	3948
81	1	1	2236	5	184	806	3948
82	1	1	2230	5	184	806	3950
83	1	1	2214	5	183	806	3948
84	1	1	2191	4	184	806	3948
85	1	1	2162	5	184	806	3948
86	1	1	2136	4	183	806	3948
87	1	1	2118	5	183	806	3948
88	1	1	2106	5	183	806	3948
89	1	1	2098	5	183	806	3948
90	1	1	2086	5	184	806	3948
91	1	1	2093	5	184	806	3948
92	1	1	2122	5	185	806	3948
93	1	1	2166	5	183	806	3948
94	1	1	2206	5	184	806	3948
95	1	1	2231	5	183	806	3949
96	1	1	2251	5	183	806	3949
97	1	1	2266	5	183	806	3949
98	1	1	2277	5	184	806	3949
99	1	1	2283	6	183	806	3948
100	1	1	2284	5	184	806	3948
101	1	1	2280	5	183	806	3948
102	1	1	2259	5	184	806	3949
103	1	1	2242	5	183	806	3948
104	1	1	2230	5	184	806	3948
105	1	1	2230	5	183	806	3948
106	1	1	2233	5	185	806	3948
107	1	1	2223	5	183	806	3948
108	1	1	2206	5	183	806	3948
109	1	1	2193	5	183	806	3948
110	1	1	2182	5	183	806	3948
111	1	1	2188	5	184	806	3949
112	1	1	2203	5	184	806	3949
113	1	1	2222	5	185	806	3949
114	1	1	2248	6	184	806	3948
115	1	1	2277	4	184	806	3948
116	1	1	2300	5	184	806	3948
117	1	1	2317	5	183	807	3949
118	1	1	2324	5	183	806	3948
119	1	1	2324	5	184	806	3949
120	1	1	2322	5	183	807	3948
121	1	1	2316	5	184	806	3947
122	1	1	2308	5	183	806	3948
123	1	1	2303	5	184	806	3948
124	1	1	2287	5	184	806	3948
125	1	1	2269	5	183	806	3948
126	1	1	2248	4	183	806	3948
127	1	1	2226	5	183	806	3949
0	1	1	2217	5	184	806	3948
1	1	1	2220	5	183	806	3942
2	1	1	2222	5	183	806	3948
3	1	1	2244	5	184	806	3948
4	1	1	2269	5	183	806	3948
5	1	1	2277	5	183	806	3949
6	1	1	2284	4	183	806	3948
7	1	1	2299	5	184	806	3948
8	1	1	2316	5	184	806	3949
9	1	1	2313	5	185	806	3948
10	1	1	2313	5	183	806	3949
11	1	1	2313	5	183	806	3948
12	1	1	2315	5	184	806	3948
13	1	1	2319	5	183	806	3948
14	1	1	2319	5	184	807	3949
15	1	1	2313	5	184	806	3948
16	1	1	2305	5	182	806	3949
17	1	1	2296	5	184	806	3948
18	1	1	2272	4	183	805	3949
19	1	1	2236	4	184	806	3949
20	1	1	2206	5	184	806	3949
21	1	1	2198	5	184	806	3948
22	1	1	2197	5	184	806	3948
23	1	1	2210	5	184	806	3948
24	1	1	2223	5	185	806	3948
25	1	1	2236	5	184	806	3948
26	1	1	2255	5	184	806	3948
27	1	1	2267	5	183	806	3948
28	1	1	2266	5	184	806	3948
29	1	1	2260	5	183	806	3948
30	1	1	2252	5	184	806	3948
31	1	1	2239	5	183	806	3949
32	1	1	2232	4	185	806	3948
33	1	1	2229	5	183	806	3948
34	1	1	2222	5	183	806	3948
35	1	1	2204	5	183	806	3950
36	1	1	2181	5	183	806	3948
37	1	1	2157	4	183	806	3949
38	1	1	2134	5	184	806	3948
39	1	1	2107	4	183	806	3948
40	1	1	2094	5	183	806	3948
41	1	1	2093	5	183	806	3949
42	1	1	2096	5	184	805	3948
43	1	1	2097	5	184	806	3948
44	1	1	2084	5	184	806	3948
45	1	1	2066	5	184	806	3949
46	1	1	2066	5	184	806	3948
47	1	1	2079	5	183	806	3948
48	1	1	2100	5	183	805	3948
49	1	1	2111	6	183	806	3948
50	1	1	2110	5	183	806	3948
51	1	1	2107	5	184	806	3949
52	1	1	2100	5	183	807	3948
53	1	1	2094	5	184	805	3948
54	1	1	2082	5	183	806	3949
55	1	1	2069	5	183	806	3949
56	1	1	2041	3	183	806	3948
57	1	1	2014	4	184	806	3948
58	1	1	1997	4	183	806	3949
59	1	1	1988	5	183	806	3948
60	1	1	1986	5	183	806	3948
61	1	1	1988	6	184	806	3947
62	1	1	1978	5	184	806	3948
63	1	1	1964	4	184	806	3948
64	1	1	1950	5	185	806	3948
65	1	1	1949	5	183	806	3948
66	1	1	1958	4	184	806	3948
67	1	1	1971	5	184	806	3948
68	1	1	1990	5	185	807	3949
69	1	1	2017	5	185	806	3949
70	1	1	2048	5	183	806	3948
71	1	1	2064	4	184	806	3949
72	1	1	2065	5	183	807	3948
73	1	1	2055	5	183	805	3948
74	1	1	2046	5	183	806	3948
75	1	1	2036	5	183	806	3948
76	1	1	2018	4	183	806	3948
77	1	1	2000	4	184	806	3948
78	1	1	1970	4	184	806	3948
79	1	1	1943	5	184	806	3948
80	1	1	1934	5	184	806	3948
81	1	1	1934	5	183	806	3948
82	1	1	1935	5	184	806	3948
83	1	1	1959	5	184	806	3949
84	1	1	1989	5	182	806	3949
85	1	1	2014	5	183	806	3948
86	1	1	2023	5	184	806	3948
87	1	1	2024	5	184	806	3948
88	1	1	2025	5	183	805	3948
89	1	1	2024	5	184	807	3949
90	1	1	2032	5	183	806	3948
91	1	1	2044	5	184	806	3948
92	1	1	2057	5	183	806	3948
93	1	1	2050	5	185	807	3948
94	1	1	2033	5	185	806	3948
95	1	1	2023	5	183	806	3948
96	1	1	2010	4	183	806	3949
97	1	1	2003	5	184	807	3948
98	1	1	1976	4	183	807	3948
99	1	1	1948	4	183	806	3948
100	1	1	1946	5	183	806	3948
101	1	1	1956	6	183	807	3948
102	1	1	1963	5	184	806	3948
103	1	1	1984	4	185	807	3949
104	1	1	2009	5	184	806	3948
105	1	1	2023	5	184	806	3948
106	1	1	2026	5	183	806	3948
107	1	1	2017	5	184	806	3948
108	1	1	2008	5	184	806	3948
109	1	1	2008	5	183	806	3948
110	1	1	2011	5	184	806	3949
111	1	1	2017	5	183	806	3948
112	1	1	2027	5	184	806	3948
113	1	1	2038	5	184	806	3949
114	1	1	2045	5	183	806	3949
115	1	1	2047	5	184	806	3948
116	1	1	2034	5	182	806	3949
117	1	1	2024	5	183	806	3949
118	1	1	2014	5	184	806	3948
119	1	1	1996	5	184	806	3949
120	1	1	1977	5	183	806	3946
121	1	1	1959	4	183	807	3949
122	1	1	1940	4	184	807	3948
123	1	1	1946	5	183	806	3948
124	1	1	1966	5	184	806	3948
125	1	1	1992	5	184	806	3948
126	1	1	2017	4	184	806	3948
127	1	1	2035	5	183	806	3948
0	1	1	2050	5	183	806	3948
1	1	1	2063	5	184	806	3948
2	1	1	2063	5	184	806	3949
3	1	1	2064	5	184	806	3948
4	1	1	2072	5	184	806	3948
5	1	1	2066	5	183	806	3948
6	1	1	2058	5	183	806	3949
7	1	1	2055	5	184	806	3948
8	1	1	2041	5	184	806	3948
9	1	1	2025	5	183	806	3948
10	1	1	2004	4	183	806	3948
11	1	1	1972	4	186	806	3949
12	1	1	1948	4	184	806	3948
13	1	1	1927	4	184	806	3948
14	1	1	1908	5	184	806	3948
15	1	1	1916	5	184	806	3948
16	1	1	1947	5	184	806	3948
17	1	1	1976	5	183	806	3949
18	1	1	1997	4	184	806	3948
19	1	1	2015	5	184	806	3948
20	1	1	2032	5	184	806	3949
21	1	1	2043	5	183	806	3948
22	1	1	2045	5	183	806	3948
23	1	1	2041	5	183	806	3948
24	1	1	2048	5	185	806	3948
25	1	1	2063	5	183	806	3948
26	1	1	2073	5	184	806	3949
27	1	1	2072	5	183	806	3948
28	1	1	2048	4	184	806	3949
29	1	1	2009	4	184	807	3948
30	1	1	1973	5	183	806	3948
31	1	1	1957	5	183	807	3948
32	1	1	1953	5	182	806	3947
33	1	1	1950	5	184	806	3948
34	1	1	1936	5	184	806	3948
35	1	1	1934	5	183	806	3948
36	1	1	1945	5	184	806	3948
37	1	1	1958	5	183	806	3948
38	1	1	1975	5	185	806	3948
39	1	1	1981	5	183	806	3948
40	1	1	1985	5	184	806	3948
41	1	1	2005	5	183	806	3949
42	1	1	2023	5	183	806	3950
43	1	1	2031	5	184	806	3948
44	1	1	2040	5	184	806	3948
45	1	1	2029	4	184	806	3948
46	1	1	2006	4	183	806	3949
47	1	1	1993	5	183	806	3948
48	1	1	1984	5	184	806	3948
49	1	1	1970	5	184	806	3948
50	1	1	1961	5	184	806	3948
51	1	1	1958	5	183	806	3948
52	1	1	1957	5	183	806	3948
53	1	1	1953	5	184	806	3948
54	1	1	1944	5	183	806	3948
55	1	1	1951	5	184	806	3949
56	1	1	1963	5	183	806	3949
57	1	1	1977	5	183	806	3950
58	1	1	1988	4	183	806	3948
59	1	1	2000	5	184	806	3948
60	1	1	2017	5	184	806	3948
61	1	1	2038	5	183	806	3949
62	1	1	2056	5	183	806	3948
63	1	1	2057	5	183	806	3948
64	1	1	2060	5	183	806	3948
65	1	1	2062	5	184	806	3948
66	1	1	2053	5	183	806	3948
67	1	1	2028	4	183	806	3948
68	1	1	2005	4	184	806	3949
69	1	1	1987	4	183	806	3948
70	1	1	1974	5	183	806	3948
71	1	1	1965	5	183	806	3949
72	1	1	1968	5	184	806	3948
73	1	1	1971	5	184	806	3948
74	1	1	1958	5	184	806	3948
75	1	1	1953	5	185	806	3948
76	1	1	1943	5	183	806	3949
77	1	1	1936	5	184	806	3948
78	1	1	1957	5	184	806	3948
79	1	1	1995	5	184	806	3948
80	1	1	2024	4	184	806	3949
81	1	1	2045	5	183	806	3949
82	1	1	2064	5	184	806	3949
83	1	1	2076	4	184	806	3948
84	1	1	2080	5	184	806	3948
85	1	1	2062	4	182	807	3948
86	1	1	2028	4	184	806	3948
87	1	1	2002	4	183	807	3948
88	1	1	1984	4	184	806	3948
89	1	1	1985	5	184	806	3948
90	1	1	2002	5	183	806	3948
91	1	1	2015	5	183	806	3949
92	1	1	2015	5	183	806	3948
93	1	1	1997	5	184	806	3949
94	1	1	1975	4	184	806	3948
95	1	1	1959	4	184	806	3948
96	1	1	1953	5	182	806	3948
97	1	1	1964	5	184	806	3949
98	1	1	2000	5	183	806	3948
99	1	1	2048	5	183	806	3948
100	1	1	2084	5	184	807	3948
101	1	1	2095	5	183	806	3948
102	1	1	2091	5	183	806	3948
103	1	1	2087	5	184	806	3949
104	1	1	2083	5	183	805	3948
105	1	1	2069	5	183	806	3948
106	1	1	2059	5	183	806	3949
107	1	1	2037	4	184	806	3948
108	1	1	2011	4	183	806	3948
109	1	1	1996	4	184	806	3949
110	1	1	1985	5	183	806	3950
111	1	1	1966	4	183	806	3948
112	1	1	1959	5	183	806	3948
113	1	1	1961	5	184	806	3948
114	1	1	1957	5	184	806	3948
115	1	1	1970	5	184	806	3948
116	1	1	1996	5	184	806	3949
117	1	1	2009	5	185	806	3948
118	1	1	2025	5	184	806	3948
119	1	1	2050	4	183	806	3948
120	1	1	2076	5	183	806	3948
121	1	1	2085	5	184	806	3948
122	1	1	2079	5	183	806	3948
123	1	1	2072	5	184	806	3948
124	1	1	2075	5	183	806	3948
125	1	1	2069	5	184	806	3949
126	1	1	2052	4	182	806	3949
127	1	1	2032	4	183	806	3948
0	1	1	2010	4	183	806	3948
1	1	1	1984	4	184	806	3948
2	1	1	1969	5	184	807	3949
3	1	1	1974	5	184	806	3948
4	1	1	1987	5	183	806	3948
5	1	1	1988	5	184	806	3948
6	1	1	1984	5	183	806	3948
7	1	1	1998	5	184	806	3948
8	1	1	2023	5	182	806	3948
9	1	1	2038	5	183	806	3948
10	1	1	2054	5	184	806	3948
11	1	1	2068	5	183	806	3948
12	1	1	2071	5	183	806	3948
13	1	1	2063	5	183	806	3949
14	1	1	2054	5	182	806	3948
15	1	1	2054	5	183	806	3950
16	1	1	2064	5	183	807	3948
17	1	1	2066	5	184	807	3948
18	1	1	2059	5	183	806	3949
19	1	1	2041	5	183	806	3948
20	1	1	2024	4	184	806	3949
21	1	1	2006	4	184	806	3948
22	1	1	1993	5	183	806	3948
23	1	1	1985	5	183	806	3949
24	1	1	1980	5	183	806	3948
25	1	1	1977	5	184	806	3949
26	1	1	1970	5	184	806	3948
27	1	1	1971	5	184	807	3948
28	1	1	1980	5	183	806	3949
29	1	1	2003	5	184	806	3948
30	1	1	2043	5	183	806	3948
31	1	1	2071	4	182	806	3948
32	1	1	2076	5	184	806	3948
33	1	1	2069	5	183	806	3948
34	1	1	2063	5	183	806	3949
35	1	1	2058	5	184	806	3948
36	1	1	2060	5	184	806	3948
37	1	1	2060	5	183	807	3948
38	1	1	2053	5	183	806	3948
39	1	1	2042	5	184	806	3948
40	1	1	2024	5	183	806	3948
41	1	1	2005	4	184	806	3948
42	1	1	1997	5	183	806	3948
43	1	1	1995	5	183	806	3948
44	1	1	1985	5	183	806	3948
45	1	1	1972	5	182	806	3948
46	1	1	1953	4	184	806	3948
47	1	1	1949	5	184	806	3948
48	1	1	1963	5	185	806	3949
49	1	1	1992	5	183	806	3948
50	1	1	2026	5	184	806	3948
51	1	1	2049	5	183	806	3948
52	1	1	2058	5	184	807	3949
53	1	1	2066	5	182	806	3948
54	1	1	2073	5	183	806	3949
55	1	1	2070	5	181	806	3948
56	1	1	2066	5	184	806	3948
57	1	1	2053	5	185	806	3948
58	1	1	2041	5	183	806	3948
59	1	1	2043	5	184	806	3948
60	1	1	2039	4	185	806	3948
61	1	1	2023	4	183	806	3948
62	1	1	2009	5	183	806	3949
63	1	1	1997	5	182	806	3949
64	1	1	1978	4	183	806	3948
65	1	1	1957	4	183	806	3948
66	1	1	1942	4	183	806	3948
67	1	1	1938	5	183	806	3948
68	1	1	1948	5	183	806	3948
69	1	1	1969	5	183	806	3949
70	1	1	1995	6	185	806	3948
71	1	1	2026	5	183	806	3948
72	1	1	2054	5	184	807	3949
73	1	1	2072	5	184	806	3948
74	1	1	2081	5	184	806	3948
75	1	1	2080	5	184	806	3948
76	1	1	2079	5	184	806	3948
77	1	1	2066	5	183	806	3948
78	1	1	2053	5	183	806	3949
79	1	1	2044	5	184	806	3948
80	1	1	2035	5	184	807	3950
81	1	1	2027	5	184	806	3950
82	1	1	2019	5	183	807	3948
83	1	1	2012	5	182	806	3950
84	1	1	1993	5	184	806	3948
85	1	1	1972	4	183	806	3948
86	1	1	1949	5	183	806	3948
87	1	1	1962	5	184	806	3948
88	1	1	1986	5	184	806	3948
89	1	1	2014	5	184	806	3948
90	1	1	2051	5	183	806	3947
91	1	1	2083	5	183	806	3948
92	1	1	2106	5	183	806	3948
93	1	1	2123	5	184	806	3948
94	1	1	2129	5	184	806	3949
95	1	1	2125	5	184	806	3948
96	1	1	2114	5	183	806	3948
97	1	1	2108	5	184	807	3950
98	1	1	2109	5	184	806	3948
99	1	1	2108	5	184	806	3948
100	1	1	2094	5	184	806	3948
101	1	1	2071	5	183	806	3948
102	1	1	2051	5	183	806	3948
103	1	1	2044	5	182	806	3948
104	1	1	2051	5	184	806	3948
105	1	1	2055	5	184	806	3949
106	1	1	2039	5	183	806	3948
107	1	1	2040	5	183	806	3948
108	1	1	2061	5	184	806	3949
109	1	1	2090	5	184	806	3948
110	1	1	2124	5	183	806	3948
111	1	1	2149	4	184	806	3948
112	1	1	2164	5	184	806	3949
113	1	1	2174	5	183	806	3949
114	1	1	2177	5	184	806	3948
115	1	1	2176	5	183	806	3948
116	1	1	2180	5	183	807	3948
117	1	1	2180	5	184	806	3948
118	1	1	2163	5	182	806	3948
119	1	1	2134	4	183	806	3949
120	1	1	2107	5	183	806	3948
121	1	1	2087	4	183	806	3948
122	1	1	2081	5	184	806	3948
123	1	1	2076	5	182	806	3948
124	1	1	2061	5	184	806	3948
125	1	1	2046	4	183	806	3948
126	1	1	2030	5	183	806	3948
127	1	1	2027	5	184	806	3948
0	1	1	2044	5	184	806	3949
1	1	1	2069	5	185	806	3948
2	1	1	2102	5	184	806	3950
3	1	1	2128	5	184	806	3948
4	1	1	2134	5	184	806	3948
5	1	1	2136	5	184	806	3949
6	1	1	2133	5	182	806	3948
7	1	1	2134	5	184	806	3948
8	1	1	2134	4	185	806	3948
9	1	1	2125	5	183	806	3948
10	1	1	2105	4	182	806	3948
11	1	1	2079	4	183	806	3948
12	1	1	2054	5	183	806	3948
13	1	1	2032	5	183	806	3948
14	1	1	2011	4	182	806	3948
15	1	1	1982	4	183	806	3949
16	1	1	1967	5	183	806	3949
17	1	1	1977	5	183	806	3948
18	1	1	1984	4	184	806	3948
19	1	1	1993	5	183	807	3948
20	1	1	2004	5	183	806	3949
21	1	1	2017	5	184	806	3948
22	1	1	2033	5	182	806	3948
23	1	1	2048	4	183	806	3948
24	1	1	2072	5	183	806	3948
25	1	1	2105	5	184	806	3948
26	1	1	2123	5	183	806	3949
27	1	1	2114	4	184	806	3948
28	1	1	2101	4	183	806	3948
29	1	1	2101	5	184	806	3948
30	1	1	2097	5	184	806	3948
31	1	1	2078	4	184	806	3948
32	1	1	2050	4	183	806	3949
33	1	1	2021	4	184	806	3948
34	1	1	1988	4	183	807	3948
35	1	1	1976	5	183	806	3948
36	1	1	1985	5	184	806	3948
37	1	1	1990	5	183	806	3949
38	1	1	1985	5	183	806	3948
39	1	1	1988	5	183	806	3949
40	1	1	1987	5	184	806	3948
41	1	1	1986	5	185	806	3948
42	1	1	2001	5	184	806	3948
43	1	1	2019	5	182	806	3948
44	1	1	2034	5	183	806	3948
45	1	1	2054	5	183	806	3948
46	1	1	2072	5	183	806	3948
47	1	1	2098	5	184	806	3949
48	1	1	2125	5	184	806	3948
49	1	1	2122	5	183	806	3948
50	1	1	2083	4	184	806	3948
51	1	1	2039	5	183	806	3950
52	1	1	2007	6	184	806	3948
53	1	1	1985	5	184	806	3951
54	1	1	1974	5	183	806	3948
55	1	1	1976	5	184	806	3949
56	1	1	1990	5	183	806	3948
57	1	1	1989	5	182	806	3948
58	1	1	1963	5	183	806	3948
59	1	1	1961	5	184	806	3948
60	1	1	1990	5	184	806	3949
61	1	1	2017	5	185	806	3948
62	1	1	2040	5	183	806	3949
63	1	1	2069	5	183	806	3948
64	1	1	2086	5	183	806	3948
65	1	1	2090	5	184	806	3949
66	1	1	2092	5	183	806	3948
67	1	1	2092	5	183	806	3948
68	1	1	2093	4	184	806	3948
69	1	1	2087	5	183	806	3948
70	1	1	2075	5	183	807	3949
71	1	1	2061	5	183	806	3948
72	1	1	2043	5	184	806	3948
73	1	1	2033	5	183	806	3948
74	1	1	2025	5	183	807	3948
75	1	1	2007	5	183	806	3948
76	1	1	1988	5	184	806	3948
77	1	1	1977	5	183	806	3948
78	1	1	1968	5	184	807	3948
79	1	1	1976	5	183	807	3948
80	1	1	1999	5	184	806	3948
81	1	1	2019	5	184	806	3948
82	1	1	2035	5	185	806	3948
83	1	1	2044	5	184	806	3948
84	1	1	2053	6	183	806	3948
85	1	1	2059	5	184	806	3949
86	1	1	2061	5	184	806	3950
87	1	1	2064	5	184	807	3948
88	1	1	2073	5	184	806	3948
89	1	1	2076	5	184	807	3949
90	1	1	2073	5	184	806	3949
91	1	1	2066	5	184	806	3949
92	1	1	2045	5	184	806	3948
93	1	1	2017	5	183	806	3949
94	1	1	1994	5	184	806	3950
95	1	1	1972	5	184	806	3948
96	1	1	1959	5	184	806	3949
97	1	1	1951	5	183	806	3948
98	1	1	1943	5	184	806	3948
99	1	1	1941	5	183	806	3948
100	1	1	1941	5	183	806	3949
101	1	1	1954	5	183	806	3948
102	1	1	1980	5	183	806	3948
103	1	1	2003	5	183	806	3948
104	1	1	2022	5	183	806	3948
105	1	1	2044	5	183	806	3949
106	1	1	2074	5	184	806	3948
107	1	1	2098	5	182	806	3948
108	1	1	2112	5	183	806	3948
109	1	1	2121	5	183	806	3948
110	1	1	2128	5	183	806	3949
111	1	1	2140	5	183	806	3948
112	1	1	2158	5	182	806	3949
113	1	1	2178	5	183	806	3949
114	1	1	2196	5	183	806	3948
115	1	1	2220	5	183	806	3949
116	1	1	2248	5	184	806	3948
117	1	1	2276	5	184	807	3948
118	1	1	2300	5	184	806	3949
119	1	1	2328	5	184	806	3948
120	1	1	2348	5	184	806	3949
121	1	1	2367	5	183	806	3948
122	1	1	2396	5	183	806	3948
123	1	1	2429	5	184	806	3948
124	1	1	2469	5	183	806	3948
125	1	1	2514	5	183	806	3949
126	1	1	2553	5	183	806	3948
127	1	1	2577	5	184	806	3949
0	1	1	2592	5	184	806	3948
1	1	1	2592	5	182	806	3948
2	1	1	2590	5	183	807	3948
3	1	1	2587	5	183	806	3948
4	1	1	2580	5	184	806	3948
5	1	1	2573	5	184	806	3948
6	1	1	2555	5	183	807	3950
7	1	0	2518	5	183	806	3949
8	1	0	2482	3	183	806	3948
9	1	0	2438	4	183	806	3948
10	1	0	2384	3	183	806	3948
11	1	0	2350	4	184	806	3948
12	1	0	2339	5	183	806	3949
13	1	0	2324	5	184	806	3948
14	1	0	2310	5	184	806	3948
15	1	0	2290	4	184	806	3948
16	1	0	2258	4	183	806	3949
17	1	0	2222	4	184	806	3948
18	1	0	2186	4	185	806	3948
19	1	0	2144	4	183	806	3948
20	1	0	2103	4	184	806	3948
21	1	0	2058	4	183	806	3948
22	1	0	2011	4	182	806	3948
23	1	0	1958	4	184	806	3948
24	1	0	1908	4	183	806	3950
25	1	0	1880	4	183	806	3949
26	1	0	1859	4	184	806	3948
27	1	0	1858	5	183	807	3949
28	1	0	1865	5	183	806	3948
29	1	0	1869	5	184	806	3948
30	1	0	1863	5	184	806	3948
31	1	0	1867	5	183	806	3949
32	1	0	1875	5	185	806	3948
33	1	0	1886	5	184	806	3948
34	1	0	1908	5	183	806	3948
35	1	0	1942	4	183	806	3948
36	1	0	1969	5	183	806	3948
37	1	0	1991	5	183	807	3949
38	1	0	1999	5	183	806	3948
39	1	0	2008	5	184	806	3949
40	1	0	2019	5	184	806	3948
41	1	0	2009	5	184	807	3948
42	1	0	1998	5	184	806	3950
43	1	0	1985	5	184	806	3948
44	1	0	1979	5	182	806	3947
45	1	0	1974	5	183	806	3948
46	1	0	1959	4	184	807	3948
47	1	0	1932	4	182	807	3948
48	1	0	1911	4	184	806	3948
49	1	0	1898	4	184	806	3948
50	1	0	1895	5	184	806	3948
51	1	0	1910	5	184	806	3949
52	1	0	1925	5	184	806	3948
53	1	0	1946	5	184	806	3948
54	1	0	1981	5	183	806	3948
55	1	0	2017	4	184	806	3949
56	1	0	2039	5	184	806	3949
57	1	0	2043	5	184	807	3949
58	1	0	2043	5	184	806	3948
59	1	0	2042	5	183	805	3950
60	1	0	2046	5	184	806	3948
61	1	0	2044	4	183	806	3948
62	1	0	2050	5	184	806	3948
63	1	0	2041	5	184	806	3948
64	1	0	2022	5	183	805	3948
65	1	0	2010	5	183	806	3948
66	1	0	1992	5	183	806	3949
67	1	0	1977	4	183	806	3949
68	1	0	1965	5	184	806	3948
69	1	0	1957	5	183	805	3949
70	1	0	1950	5	184	806	3949
71	1	0	1956	4	183	806	3949
72	1	0	1968	6	184	807	3948
73	1	0	1985	5	184	806	3948
74	1	0	2010	5	183	806	3948
75	1	0	2029	5	184	806	3948
76	1	0	2036	5	185	806	3949
77	1	0	2038	5	183	806	3948
78	1	0	2044	5	184	806	3948
79	1	0	2052	5	181	806	3948
80	1	0	2061	4	183	806	3948
81	1	0	2059	5	183	806	3948
82	1	0	2053	5	184	806	3948
83	1	0	2053	5	183	807	3949
84	1	0	2060	7	182	806	3948
85	1	0	2063	5	184	806	3948
86	1	0	2026	4	184	806	3948
87	1	0	1987	4	183	806	3948
88	1	0	1970	5	184	806	3948
89	1	0	1956	5	184	806	3948
90	1	0	1951	5	184	806	3949
91	1	0	1961	5	183	806	3949
92	1	0	1975	5	183	806	3948
93	1	0	1990	5	184	806	3948
94	1	0	2019	6	183	806	3948
95	1	0	2051	3	184	806	3949
96	1	0	2076	5	183	806	3948
97	1	0	2092	5	184	807	3949
98	1	0	2099	5	184	806	3948
99	1	0	2105	5	183	806	3948
100	1	0	2111	6	184	806	3948
101	1	0	2099	4	183	806	3949
102	1	0	2072	4	183	806	3948
103	1	0	2044	4	183	806	3948
104	1	0	2024	5	184	806	3948
105	0	0	2017	6	183	806	3948
106	0	0	2015	5	183	806	3948
107	0	0	2010	5	183	806	3948
108	0	0	2003	5	184	806	3948
109	0	0	1995	5	184	806	3948
110	0	0	1987	6	184	806	3948
111	0	0	1993	5	183	806	3949
112	0	0	2004	5	184	806	3948
113	0	0	2025	6	183	806	3948
114	0	0	2062	5	183	806	3947
115	0	0	2086	4	184	806	3947
116	0	0	2096	5	184	806	3948
117	0	0	2101	6	185	806	3948
118	0	0	2093	5	183	806	3948
119	0	0	2089	5	184	806	3948
120	0	0	2093	6	183	806	3948
121	0	0	2078	4	183	806	3948
122	0	0	2053	4	184	806	3948
123	0	0	2042	5	184	806	3948
124	0	0	2044	5	184	806	3948
125	0	0	2053	6	183	806	3948
126	0	0	2054	5	184	806	3949
127	0	0	2046	5	184	806	3949
0	0	0	2040	5	184	806	3949
1	0	0	2025	5	183	806	3948
2	0	0	2014	5	183	806	3948
3	0	0	2018	5	183	806	3948
4	0	0	2029	5	183	807	3949
5	0	0	2039	5	183	806	3948
6	0	0	2067	5	184	806	3949
7	0	0	2098	5	184	806	3948
8	0	0	2118	5	184	806	3948
9	0	0	2136	5	184	806	3949
10	0	0	2138	5	184	806	3948
11	0	0	2127	5	184	806	3948
12	0	0	2120	6	183	806	3948
13	0	0	2111	5	184	807	3948
14	0	0	2095	5	183	806	3949
15	0	0	2092	5	183	806	3948
16	0	0	2093	5	184	806	3948
17	0	0	2091	5	183	806	3948
18	0	0	2082	5	182	806	3949
19	0	0	2067	5	183	806	3948
20	0	0	2046	5	184	806	3949
21	0	0	2014	4	184	806	3947
22	0	0	2002	5	183	806	3947
23	0	0	2024	5	184	807	3947
24	0	0	2069	5	184	805	3948
25	0	0	2096	5	183	806	3948
26	0	0	2123	5	184	806	3948
27	0	0	2143	5	184	806	3948
28	0	0	2157	5	183	806	3948
29	0	0	2160	5	184	806	3948
30	0	0	2154	5	184	806	3948
31	0	0	2159	4	184	806	3948
32	0	0	2174	5	184	806	3948
33	0	0	2173	5	183	806	3949
34	0	0	2162	5	184	806	3948
35	0	0	2158	6	183	806	3949
36	0	0	2151	5	184	806	3948
37	0	0	2133	5	183	806	3948
38	0	0	2114	4	183	806	3947
39	0	0	2098	5	183	806	3948
40	0	0	2088	5	183	806	3947
41	0	0	2086	5	183	806	3948
42	0	0	2089	5	183	806	3948
43	0	0	2104	5	184	806	3948
44	0	0	2114	5	183	806	3949
45	0	0	2112	5	184	806	3948
46	0	0	2125	5	182	806	3949
47	0	0	2150	5	184	806	3949
48	0	0	2164	4	183	806	3949
49	0	0	2171	5	183	806	3948
50	0	0	2190	6	183	806	3949
51	0	0	2208	5	182	807	3948
52	0	0	2224	5	183	806	3948
53	0	0	2217	5	182	806	3948
54	0	0	2194	5	182	806	3948
55	0	0	2178	4	183	806	3948
56	0	0	2164	5	183	806	3948
57	0	0	2159	5	183	806	3948
58	0	0	2159	5	183	806	3948
59	0	0	2153	5	184	806	3948
60	0	0	2143	5	184	806	3948
61	0	0	2136	5	183	806	3948
62	0	0	2128	5	183	806	3948
63	0	0	2134	5	183	806	3948
64	0	0	2146	5	183	807	3949
65	0	0	2168	5	185	806	3948
66	0	0	2192	5	183	806	3949
67	0	0	2209	5	184	806	3948
68	0	0	2222	5	184	806	3948
69	0	0	2230	5	184	806	3949
70	0	0	2230	5	184	806	3948
71	0	0	2231	5	183	806	3949
72	0	0	2225	5	183	806	3948
73	0	0	2217	5	183	806	3948
74	0	0	2215	5	184	806	3948
75	0	0	2213	5	183	806	3948
76	0	0	2201	4	184	806	3948
77	0	0	2191	5	183	806	3948
78	0	0	2180	5	184	806	3948
79	0	0	2173	5	183	806	3949
80	0	0	2176	5	184	806	3948
81	0	0	2178	5	183	806	3948
82	0	0	2173	5	183	806	3948
83	0	0	2181	5	184	806	3949
84	0	0	2193	5	183	806	3948
85	0	0	2212	5	184	806	3949
86	0	0	2232	7	184	806	3948
87	0	0	2246	5	183	806	3948
88	0	0	2255	5	183	806	3948
89	0	0	2261	5	184	806	3948
90	0	0	2270	5	184	806	3948
91	0	0	2275	5	183	806	3949
92	0	0	2281	5	183	806	3948
93	0	0	2280	5	184	806	3948
94	0	0	2263	5	184	806	3948
95	0	0	2237	4	183	807	3949
96	0	0	2211	4	182	807	3948
97	0	0	2194	5	183	807	3948
98	0	0	2184	5	184	806	3948
99	0	0	2181	5	183	806	3948
100	0	0	2181	5	183	806	3948
101	0	0	2174	5	183	806	3948
102	0	0	2166	5	184	806	3948
103	0	0	2175	5	184	806	3948
104	0	0	2187	5	183	805	3948
105	0	0	2193	5	183	806	3948
106	0	0	2212	6	184	806	3948
107	0	0	2227	5	184	806	3948
108	0	0	2237	5	184	807	3949
109	0	0	2252	5	184	806	3948
110	0	0	2256	5	183	806	3949
111	0	0	2246	5	184	806	3948
112	0	0	2235	6	184	806	3948
113	0	0	2227	5	183	806	3948
114	0	0	2236	5	183	805	3949
115	0	0	2238	5	183	806	3948
116	0	0	2223	5	182	806	3948
117	0	0	2200	4	183	806	3948
118	0	0	2168	4	184	806	3948
119	0	0	2137	5	183	806	3949
120	0	0	2109	5	183	806	3948
121	0	0	2094	4	182	806	3949
122	0	0	2090	5	184	806	3949
123	0	0	2108	5	184	806	3948
124	0	0	2145	5	183	806	3948
125	0	0	2171	5	183	806	3948
126	0	0	2190	5	185	806	3948
127	0	0	2209	6	184	806	3948
0	0	0	2219	5	183	806	3948
1	0	0	2223	5	183	805	3949
2	0	0	2224	5	184	806	3948
3	0	0	2201	5	183	806	3948
4	0	0	2176	5	183	806	3948
5	0	0	2154	5	183	806	3948
6	0	0	2133	5	184	806	3948
7	0	0	2107	4	183	806	3949
8	0	0	2081	4	183	807	3948
9	0	0	2060	5	183	806	3948
10	0	0	2034	4	185	806	3949
11	0	0	2009	5	185	805	3948
12	0	0	2000	5	184	806	3949
13	0	0	1992	5	184	806	3948
14	0	0	1988	5	184	807	3948
15	0	0	1989	5	183	806	3948
16	0	0	1984	5	183	806	3948
17	0	0	1996	4	183	805	3948
18	0	0	2034	5	183	806	3948
19	0	0	2074	6	184	806	3948
20	0	0	2097	5	183	806	3948
21	0	0	2105	5	184	805	3949
22	0	0	2099	5	183	806	3948
23	0	0	2076	5	183	806	3949
24	0	0	2062	5	183	806	3949
25	0	0	2045	5	183	806	3948
26	0	0	2040	5	183	806	3948
27	0	0	2031	5	184	806	3948
28	0	0	2006	4	183	806	3948
29	0	0	1972	4	182	806	3948
30	0	0	1939	5	183	806	3948
31	0	0	1921	5	184	805	3948
32	0	0	1917	5	184	806	3948
