# bioPlux Text File Format
# Version: 1
# StartDateTime: 2011-07-18 17:22:02
# SamplingFrequency: 1000
# SampledChannels: 1 2 3 4
# SamplingResolution: 12
# AcquiringDevice: 00:07:80:42:0F:8B
# EndOfHeader
0	0	0	2017	1878	3848	81
1	0	0	2018	1880	3848	81
2	0	0	2009	1880	3848	80
3	0	0	1998	1879	3847	80
4	0	0	1998	1882	3848	81
5	0	0	1997	1881	3850	80
6	0	0	2001	1879	3848	81
7	0	0	2024	1880	3849	80
8	0	0	2048	1879	3847	79
9	0	0	2059	1880	3847	78
10	0	0	2066	1879	3849	79
11	0	0	2057	1878	3847	77
12	0	0	2043	1877	3848	82
13	0	0	2038	1878	3846	78
14	0	0	2036	1877	3847	79
15	0	0	2034	1876	3847	79
16	0	0	2031	1878	3847	81
17	0	0	2040	1878	3848	80
18	0	0	2048	1877	3847	80
19	0	0	2043	1878	3848	81
20	0	0	2044	1878	3848	81
21	0	0	2052	1879	3849	80
22	0	0	2048	1879	3847	80
23	0	0	2032	1878	3845	80
24	0	0	2018	1880	3847	80
25	0	0	2026	1878	3847	80
26	0	0	2042	1880	3848	77
27	0	0	2045	1880	3848	78
28	0	0	2041	1879	3847	78
29	0	0	2034	1880	3849	80
30	0	0	2034	1879	3847	78
31	0	0	2051	1879	3848	79
32	0	0	2076	1878	3849	79
33	0	0	2096	1877	3846	79
34	0	0	2122	1878	3848	80
35	0	0	2125	1876	3850	80
36	0	0	2116	1877	3849	80
37	0	0	2094	1875	3850	84
38	0	0	2076	1875	3847	79
39	0	0	2059	1876	3847	79
40	0	0	2054	1877	3849	81
41	0	0	2061	1879	3849	81
42	0	0	2045	1877	3847	84
43	0	0	2018	1876	3846	79
44	0	0	2000	1878	3847	80
45	0	0	2006	1879	3852	80
46	0	0	2016	1880	3848	80
47	0	0	2022	1880	3848	80
48	0	0	2028	1878	3847	79
49	0	0	2040	1880	3848	79
50	0	0	2057	1878	3847	78
51	0	0	2072	1877	3849	76
52	0	0	2092	1876	3849	80
53	0	0	2109	1876	3848	79
54	0	0	2124	1875	3849	80
55	0	0	2121	1876	3849	80
56	0	0	2113	1876	3849	79
57	0	0	2106	1876	3848	83
58	0	0	2095	1876	3846	81
59	0	0	2082	1876	3847	81
60	0	0	2073	1877	3847	81
61	0	0	2066	1878	3848	80
62	0	0	2068	1878	3847	79
63	0	0	2075	1878	3847	81
64	0	0	2071	1879	3847	80
65	0	0	2063	1879	3847	81
66	0	0	2055	1879	3849	79
67	0	0	2067	1879	3848	75
68	0	0	2078	1878	3848	79
69	0	0	2092	1877	3847	79
70	0	0	2101	1878	3847	79
71	0	0	2100	1879	3848	78
72	0	0	2087	1875	3848	79
73	0	0	2081	1875	3846	78
74	0	0	2099	1875	3847	79
75	0	0	2111	1877	3847	81
76	0	0	2104	1877	3848	81
77	0	0	2096	1875	3848	77
78	0	0	2078	1874	3848	81
79	0	0	2059	1873	3847	81
80	0	0	2039	1877	3847	82
81	0	0	2033	1878	3848	80
82	0	0	2039	1877	3848	79
83	0	0	2029	1875	3846	80
84	0	0	2009	1877	3848	79
85	0	0	2007	1879	3847	80
86	0	0	2011	1878	3848	80
87	0	0	2005	1878	3849	81
88	0	0	2001	1878	3847	79
89	0	0	2012	1877	3849	79
90	0	0	2035	1877	3847	80
91	0	0	2056	1876	3848	79
92	0	0	2060	1876	3848	79
93	0	0	2056	1875	3848	79
94	0	0	2057	1875	3848	79
95	0	0	2060	1875	3848	79
96	0	0	2073	1875	3847	81
97	0	0	2079	1875	3848	82
98	0	0	2077	1874	3848	81
99	0	0	2067	1874	3849	81
100	0	0	2035	1873	3849	81
101	0	0	2015	1874	3848	81
102	0	0	2015	1877	3848	81
103	0	0	2022	1877	3848	80
104	0	0	2029	1876	3848	81
105	0	0	2040	1878	3848	81
106	0	0	2040	1878	3848	80
107	0	0	2044	1877	3848	80
108	0	0	2072	1877	3850	80
109	0	0	2100	1876	3847	79
110	0	0	2107	1876	3848	80
111	0	0	2096	1874	3847	79
112	0	0	2095	1875	3848	78
113	0	0	2103	1874	3848	80
114	0	0	2114	1873	3847	79
115	0	0	2109	1874	3845	79
116	0	0	2117	1875	3848	80
117	0	0	2139	1875	3849	83
118	0	0	2128	1872	3850	80
119	0	0	2095	1872	3848	82
120	0	0	2063	1872	3847	82
121	0	0	2028	1871	3848	81
122	0	0	2006	1874	3848	76
123	0	0	2004	1876	3850	81
124	0	0	2022	1875	3848	81
125	0	0	2039	1877	3847	82
126	0	0	2039	1877	3848	78
127	0	0	2037	1878	3848	81
0	0	0	2042	1877	3848	79
1	0	0	2037	1875	3847	79
2	0	0	2025	1874	3847	80
3	0	0	2030	1871	3849	77
4	0	0	2049	1875	3848	74
5	0	0	2071	1873	3850	80
6	0	0	2083	1874	3848	80
7	0	0	2076	1873	3849	80
8	0	0	2067	1871	3848	80
9	0	0	2061	1874	3849	81
10	0	0	2049	1874	3849	80
11	0	0	2039	1873	3847	81
12	0	0	2020	1872	3845	82
13	0	0	2001	1873	3847	82
14	0	0	1987	1874	3848	82
15	0	0	1983	1875	3849	80
16	0	0	1985	1876	3847	80
17	0	0	1985	1875	3848	84
18	0	0	1993	1873	3849	80
19	0	0	2001	1875	3848	76
20	0	0	2007	1875	3847	78
21	0	0	2018	1875	3847	79
22	0	0	2028	1874	3848	79
23	0	0	2045	1873	3850	78
24	0	0	2049	1872	3848	80
25	0	0	2045	1873	3847	77
26	0	0	2046	1872	3848	79
27	0	0	2056	1873	3848	80
28	0	0	2072	1870	3848	81
29	0	0	2070	1873	3851	81
30	0	0	2056	1873	3848	80
31	0	0	2061	1875	3848	81
32	0	0	2062	1873	3846	81
33	0	0	2058	1871	3849	80
34	0	0	2051	1875	3848	82
35	0	0	2039	1874	3847	80
36	0	0	2030	1875	3847	80
37	0	0	2008	1873	3848	80
38	0	0	1982	1871	3847	79
39	0	0	1958	1874	3848	80
40	0	0	1962	1874	3849	79
41	0	0	1979	1871	3848	79
42	0	0	1996	1873	3848	82
43	0	0	2015	1871	3850	79
44	0	0	2023	1873	3848	80
45	0	0	2027	1872	3848	78
46	0	0	2035	1873	3849	80
47	0	0	2031	1871	3846	79
48	0	0	2012	1868	3847	80
49	0	0	2013	1872	3848	82
50	0	0	2023	1872	3847	80
51	0	0	2027	1872	3847	81
52	0	0	2025	1873	3846	81
53	0	0	2029	1871	3847	79
54	0	0	2028	1874	3849	82
55	0	0	2018	1873	3848	80
56	0	0	1997	1872	3847	81
57	0	0	1984	1874	3848	81
58	0	0	1983	1873	3847	79
59	0	0	1988	1875	3849	79
60	0	0	1994	1874	3849	79
61	0	0	2004	1871	3848	79
62	0	0	2019	1872	3849	78
63	0	0	2037	1873	3848	80
64	0	0	2055	1871	3848	80
65	0	0	2064	1871	3847	80
66	0	0	2069	1871	3847	80
67	0	0	2065	1871	3847	80
68	0	0	2046	1869	3847	80
69	0	0	2030	1870	3848	80
70	0	0	2016	1870	3847	80
71	0	0	2000	1871	3849	79
72	0	0	1984	1872	3848	83
73	0	0	1974	1869	3847	80
74	0	0	1965	1873	3848	84
75	0	0	1950	1871	3848	80
76	0	0	1932	1871	3848	79
77	0	0	1927	1874	3849	79
78	0	0	1933	1873	3847	81
79	0	0	1933	1874	3849	80
80	0	0	1933	1873	3847	79
81	0	0	1937	1873	3847	79
82	0	0	1949	1871	3847	79
83	0	0	1968	1871	3847	79
84	0	0	1989	1871	3848	79
85	0	0	2022	1870	3847	80
86	0	0	2057	1871	3849	80
87	0	0	2078	1870	3847	79
88	0	0	2099	1870	3845	82
89	0	0	2117	1871	3848	81
90	0	0	2134	1871	3848	80
91	0	0	2146	1871	3848	82
92	0	0	2167	1872	3849	80
93	0	0	2203	1872	3847	79
94	0	0	2255	1872	3848	83
95	0	0	2302	1872	3847	83
96	0	0	2327	1872	3847	81
97	0	0	2351	1872	3847	80
98	0	0	2381	1874	3848	80
99	0	0	2419	1872	3848	79
100	0	0	2455	1873	3849	79
101	0	0	2488	1869	3847	79
102	0	0	2516	1871	3848	80
103	0	0	2556	1871	3848	80
104	0	0	2591	1873	3848	79
105	0	0	2613	1870	3847	81
106	0	0	2623	1868	3847	80
107	0	0	2630	1869	3850	80
108	0	0	2624	1868	3847	80
109	0	0	2601	1869	3848	84
110	0	0	2570	1868	3847	80
111	0	0	2549	1870	3849	80
112	0	0	2535	1869	3847	81
113	0	0	2513	1870	3847	81
114	0	0	2479	1869	3848	81
115	0	0	2436	1868	3851	80
116	0	0	2385	1869	3847	80
117	0	0	2345	1869	3849	80
118	0	0	2302	1869	3848	80
119	0	0	2257	1869	3848	79
120	0	0	2211	1868	3848	80
121	0	0	2162	1867	3847	79
122	0	0	2127	1867	3847	79
123	0	0	2090	1866	3846	79
124	0	0	2050	1867	3849	80
125	0	0	2007	1866	3847	80
126	0	0	1979	1865	3847	79
127	0	0	1951	1864	3847	80
0	0	0	1922	1865	3847	80
1	0	0	1903	1867	3848	83
2	0	0	1891	1868	3847	82
3	0	0	1880	1867	3847	81
4	0	0	1877	1868	3847	81
5	0	0	1871	1871	3848	80
6	0	0	1867	1870	3848	84
7	0	0	1855	1872	3847	79
8	0	0	1859	1871	3847	80
9	0	0	1862	1869	3847	80
10	0	0	1874	1872	3847	80
11	0	0	1887	1871	3848	79
12	0	0	1895	1870	3847	82
13	0	0	1911	1870	3848	79
14	0	0	1928	1869	3847	79
15	0	0	1938	1870	3848	80
16	0	0	1938	1868	3848	79
17	0	0	1933	1869	3847	80
18	0	0	1947	1868	3848	79
19	0	0	1955	1867	3847	80
20	0	0	1963	1869	3847	80
21	0	0	1954	1866	3848	84
22	0	0	1931	1865	3847	83
23	0	0	1923	1869	3849	80
24	0	0	1940	1866	3847	80
25	0	0	1954	1869	3848	81
26	0	0	1953	1870	3848	80
27	0	0	1944	1870	3847	84
28	0	0	1937	1871	3849	80
29	0	0	1939	1871	3848	81
30	0	0	1950	1871	3848	77
31	0	0	1955	1871	3849	79
32	0	0	1949	1869	3848	79
33	0	0	1956	1870	3849	79
34	0	0	1957	1870	3847	80
35	0	0	1942	1867	3848	78
36	0	0	1942	1868	3848	79
37	0	0	1957	1867	3847	79
38	0	0	1970	1867	3847	79
39	0	0	1981	1868	3846	79
40	0	0	1999	1869	3848	82
41	0	0	2017	1867	3848	81
42	0	0	2021	1869	3848	81
43	0	0	2003	1866	3847	81
44	0	0	1976	1866	3847	81
45	0	0	1952	1866	3848	81
46	0	0	1939	1867	3849	82
47	0	0	1932	1870	3848	83
48	0	0	1929	1870	3848	80
49	0	0	1924	1869	3847	79
50	0	0	1928	1870	3848	84
51	0	0	1940	1871	3848	79
52	0	0	1945	1869	3847	79
53	0	0	1946	1869	3847	78
54	0	0	1952	1868	3848	78
55	0	0	1956	1869	3848	80
56	0	0	1954	1869	3848	80
57	0	0	1956	1866	3847	79
58	0	0	1966	1866	3847	80
59	0	0	1976	1866	3848	79
60	0	0	1992	1867	3849	80
61	0	0	2008	1867	3847	80
62	0	0	2004	1867	3849	80
63	0	0	1996	1867	3848	81
64	0	0	1996	1867	3847	82
65	0	0	1984	1864	3848	82
66	0	0	1954	1866	3848	81
67	0	0	1942	1867	3847	81
68	0	0	1930	1868	3847	80
69	0	0	1923	1870	3847	81
70	0	0	1920	1869	3847	80
71	0	0	1919	1868	3845	81
72	0	0	1942	1868	3847	79
73	0	0	1961	1868	3847	79
74	0	0	1971	1868	3848	79
75	0	0	1973	1866	3848	79
76	0	0	1972	1868	3848	78
77	0	0	1976	1866	3847	80
78	0	0	1992	1867	3849	79
79	0	0	2006	1866	3848	81
80	0	0	2016	1866	3849	79
81	0	0	2020	1866	3849	81
82	0	0	2018	1866	3848	83
83	0	0	2018	1867	3847	81
84	0	0	2015	1866	3847	83
85	0	0	2008	1866	3848	85
86	0	0	1980	1865	3849	81
87	0	0	1948	1865	3848	81
88	0	0	1930	1866	3847	81
89	0	0	1920	1870	3847	80
90	0	0	1925	1866	3847	79
91	0	0	1939	1868	3848	79
92	0	0	1968	1868	3848	79
93	0	0	1996	1866	3847	79
94	0	0	2011	1867	3849	77
95	0	0	2008	1867	3849	79
96	0	0	2009	1864	3849	79
97	0	0	2022	1865	3847	80
98	0	0	2058	1867	3848	80
99	0	0	2071	1866	3848	81
100	0	0	2061	1863	3848	80
101	0	0	2021	1862	3848	82
102	0	0	1989	1864	3848	81
103	0	0	1973	1866	3848	79
104	0	0	1958	1865	3847	82
105	0	0	1948	1868	3848	80
106	0	0	1953	1868	3848	80
107	0	0	1965	1867	3847	80
108	0	0	1975	1868	3847	80
109	0	0	1988	1868	3847	79
110	0	0	1996	1867	3848	80
111	0	0	1990	1867	3849	80
112	0	0	1978	1867	3848	80
113	0	0	1982	1867	3848	77
114	0	0	1997	1865	3848	79
115	0	0	2007	1867	3848	80
116	0	0	2019	1867	3849	79
117	0	0	2031	1865	3847	80
118	0	0	2037	1864	3848	79
119	0	0	2041	1861	3850	80
120	0	0	2038	1865	3847	80
121	0	0	2027	1863	3848	82
122	0	0	2010	1863	3846	82
123	0	0	2000	1865	3847	82
124	0	0	1999	1866	3847	79
125	0	0	2013	1863	3847	81
126	0	0	2014	1866	3848	81
127	0	0	2008	1866	3846	80
0	0	0	2001	1866	3847	81
1	0	0	2005	1868	3848	81
2	0	0	2008	1865	3849	79
3	0	0	2005	1866	3849	80
4	0	0	1996	1865	3849	79
5	0	0	1976	1865	3847	80
6	0	0	1978	1865	3847	78
7	0	0	1986	1863	3848	79
8	0	0	1994	1865	3848	79
9	0	0	2011	1863	3847	80
10	0	0	2028	1863	3847	80
11	0	0	2026	1863	3847	78
12	0	0	2029	1864	3848	80
13	0	0	2035	1863	3848	83
14	0	0	2040	1863	3847	80
15	0	0	2048	1864	3847	81
16	0	0	2052	1866	3848	82
17	0	0	2053	1865	3848	82
18	0	0	2062	1866	3849	82
19	0	0	2061	1865	3849	80
20	0	0	2034	1862	3848	81
21	0	0	2007	1863	3847	79
22	0	0	1999	1863	3848	80
23	0	0	1995	1866	3849	80
24	0	0	2001	1865	3847	80
25	0	0	2016	1866	3846	78
26	0	0	2026	1864	3847	76
27	0	0	2033	1865	3849	79
28	0	0	2038	1862	3848	79
29	0	0	2058	1863	3848	79
30	0	0	2083	1863	3847	79
31	0	0	2095	1863	3847	80
32	0	0	2104	1862	3848	80
33	0	0	2109	1862	3848	82
34	0	0	2092	1861	3848	82
35	0	0	2082	1863	3848	81
36	0	0	2072	1864	3848	81
37	0	0	2059	1863	3848	82
38	0	0	2042	1864	3848	81
39	0	0	2048	1865	3847	80
40	0	0	2063	1866	3846	80
41	0	0	2053	1864	3850	80
42	0	0	2045	1865	3847	80
43	0	0	2053	1866	3848	80
44	0	0	2058	1864	3847	27
45	0	0	2069	1864	3848	80
46	0	0	2081	1865	3847	80
47	0	0	2088	1864	3848	76
48	0	0	2079	1861	3848	79
49	0	0	2069	1863	3849	79
50	0	0	2072	1860	3847	80
51	0	0	2079	1862	3848	80
52	0	0	2100	1863	3848	79
53	0	0	2120	1862	3848	83
54	0	0	2121	1862	3848	82
55	0	0	2112	1862	3847	81
56	0	0	2100	1863	3851	80
57	0	0	2088	1863	3851	83
58	0	0	2096	1864	3847	83
59	0	0	2108	1864	3847	79
60	0	0	2104	1865	3847	80
61	0	0	2088	1863	3850	80
62	0	0	2076	1865	3847	81
63	0	0	2078	1865	3848	80
64	0	0	2092	1863	3847	79
65	0	0	2108	1862	3848	79
66	0	0	2117	1864	3848	80
67	0	0	2127	1862	3849	79
68	0	0	2132	1862	3848	79
69	0	0	2132	1860	3847	79
70	0	0	2130	1862	3847	80
71	0	0	2141	1861	3848	79
72	0	0	2153	1862	3849	81
73	0	0	2157	1862	3848	81
74	0	0	2159	1861	3847	79
75	0	0	2158	1860	3847	81
76	0	0	2143	1861	3847	80
77	0	0	2122	1861	3849	82
78	0	0	2117	1864	3847	81
79	0	0	2116	1863	3847	79
80	0	0	2114	1864	3847	81
81	0	0	2112	1864	3851	80
82	0	0	2100	1864	3848	81
83	0	0	2110	1864	3848	80
84	0	0	2140	1863	3847	79
85	0	0	2161	1864	3847	80
86	0	0	2181	1863	3847	80
87	0	0	2191	1861	3850	79
88	0	0	2190	1862	3848	79
89	0	0	2189	1861	3847	79
90	0	0	2192	1861	3847	79
91	0	0	2196	1858	3847	79
92	0	0	2187	1861	3847	82
93	0	0	2186	1861	3848	81
94	0	0	2179	1860	3847	79
95	0	0	2169	1862	3847	81
96	0	0	2167	1859	3847	81
97	0	0	2169	1860	3848	83
98	0	0	2163	1863	3847	81
99	0	0	2152	1863	3848	80
100	0	0	2139	1860	3850	80
101	0	0	2131	1863	3848	81
102	0	0	2134	1863	3848	80
103	0	0	2143	1863	3848	80
104	0	0	2148	1863	3849	80
105	0	0	2148	1863	3847	79
106	0	0	2151	1862	3848	80
107	0	0	2169	1862	3848	79
108	0	0	2184	1861	3848	78
109	0	0	2195	1860	3847	79
110	0	0	2211	1861	3848	80
111	0	0	2211	1859	3845	79
112	0	0	2197	1862	3847	79
113	0	0	2179	1860	3848	81
114	0	0	2157	1858	3846	75
115	0	0	2147	1861	3847	80
116	0	0	2143	1861	3848	82
117	0	0	2141	1862	3847	80
118	0	0	2124	1860	3848	82
119	0	0	2100	1861	3847	79
120	0	0	2089	1863	3848	81
121	0	0	2100	1863	3848	81
122	0	0	2119	1862	3847	80
123	0	0	2128	1863	3849	79
124	0	0	2124	1862	3847	76
125	0	0	2119	1862	3848	79
126	0	0	2123	1860	3845	79
127	0	0	2123	1861	3846	77
0	0	0	2120	1859	3848	78
1	0	0	2119	1859	3847	77
2	0	0	2113	1859	3847	79
3	0	0	2112	1859	3848	84
4	0	0	2118	1858	3848	81
5	0	0	2131	1859	3848	80
6	0	0	2149	1859	3847	78
7	0	0	2148	1859	3848	81
8	0	0	2117	1857	3848	82
9	0	0	2072	1856	3848	83
10	0	0	2043	1858	3848	83
11	0	0	2036	1862	3848	82
12	0	0	2026	1859	3847	81
13	0	0	2006	1859	3847	79
14	0	0	1989	1860	3848	80
15	0	0	1984	1862	3848	82
16	0	0	1999	1861	3847	76
17	0	0	2025	1861	3847	80
18	0	0	2045	1861	3849	79
19	0	0	2059	1861	3847	79
20	0	0	2052	1857	3848	79
21	0	0	2039	1859	3847	76
22	0	0	2038	1859	3847	79
23	0	0	2040	1858	3848	81
24	0	0	2054	1859	3847	81
25	0	0	2062	1859	3849	81
26	0	0	2041	1857	3848	80
27	0	0	2025	1859	3847	81
28	0	0	2015	1859	3848	85
29	0	0	2023	1858	3847	82
30	0	0	2033	1861	3848	80
31	0	0	2029	1860	3848	81
32	0	0	2017	1862	3847	81
33	0	0	2008	1859	3847	79
34	0	0	1987	1859	3846	79
35	0	0	1967	1858	3848	80
36	0	0	1962	1860	3847	76
37	0	0	1977	1861	3848	79
38	0	0	1992	1859	3848	79
39	0	0	1991	1860	3847	80
40	0	0	1990	1858	3849	79
41	0	0	1997	1858	3848	76
42	0	0	2014	1859	3847	79
43	0	0	2021	1855	3847	79
44	0	0	2015	1859	3847	80
45	0	0	2000	1855	3849	80
46	0	0	1982	1856	3847	80
47	0	0	1964	1857	3845	79
48	0	0	1947	1858	3847	81
49	0	0	1944	1860	3848	81
50	0	0	1949	1859	3848	81
51	0	0	1956	1860	3847	80
52	0	0	1953	1861	3847	81
53	0	0	1951	1859	3847	80
54	0	0	1947	1860	3846	80
55	0	0	1945	1861	3850	80
56	0	0	1950	1859	3848	80
57	0	0	1971	1861	3848	79
58	0	0	2006	1858	3849	79
59	0	0	2035	1860	3847	77
60	0	0	2049	1857	3848	77
61	0	0	2034	1855	3847	76
62	0	0	2021	1857	3847	79
63	0	0	2014	1855	3847	79
64	0	0	1996	1855	3847	80
65	0	0	1975	1854	3849	80
66	0	0	1963	1858	3847	80
67	0	0	1961	1858	3847	81
68	0	0	1954	1858	3847	81
69	0	0	1940	1858	3848	81
70	0	0	1930	1858	3847	82
71	0	0	1924	1860	3848	81
72	0	0	1922	1860	3847	80
73	0	0	1924	1859	3847	80
74	0	0	1925	1860	3847	80
75	0	0	1939	1858	3848	80
76	0	0	1956	1858	3848	77
77	0	0	1968	1858	3847	79
78	0	0	1975	1858	3848	79
79	0	0	1981	1859	3846	79
80	0	0	1984	1857	3848	79
81	0	0	1988	1857	3847	80
82	0	0	1995	1856	3847	80
83	0	0	2005	1855	3847	79
84	0	0	2009	1856	3848	80
85	0	0	2011	1855	3848	81
86	0	0	2013	1856	3847	82
87	0	0	2007	1856	3847	83
88	0	0	1979	1855	3847	81
89	0	0	1972	1859	3847	80
90	0	0	1964	1857	3848	82
91	0	0	1948	1857	3849	82
92	0	0	1927	1857	3848	81
93	0	0	1943	1859	3848	80
94	0	0	1968	1860	3849	80
95	0	0	1984	1860	3849	79
96	0	0	1991	1859	3847	79
97	0	0	1993	1858	3847	79
98	0	0	1998	1858	3847	79
99	0	0	2002	1857	3847	80
100	0	0	1999	1857	3847	78
101	0	0	1987	1856	3847	79
102	0	0	1984	1854	3847	80
103	0	0	1986	1855	3848	79
104	0	0	1992	1857	3847	80
105	0	0	1988	1858	3848	81
106	0	0	1992	1856	3848	81
107	0	0	2001	1855	3849	81
108	0	0	1999	1858	3846	80
109	0	0	1995	1857	3848	81
110	0	0	2009	1859	3849	80
111	0	0	2013	1857	3847	80
112	0	0	1990	1854	3848	82
113	0	0	1957	1855	3847	80
114	0	0	1934	1856	3848	80
115	0	0	1927	1861	3848	80
116	0	0	1939	1857	3847	80
117	0	0	1968	1856	3847	80
118	0	0	2008	1858	3847	80
119	0	0	2031	1857	3847	79
120	0	0	2023	1856	3848	79
121	0	0	2007	1855	3848	78
122	0	0	2007	1853	3847	79
123	0	0	2019	1856	3848	80
124	0	0	2032	1855	3848	80
125	0	0	2032	1858	3849	82
126	0	0	2032	1855	3848	82
127	0	0	2027	1857	3847	81
0	0	0	2008	1855	3848	80
1	0	0	1993	1856	3849	84
2	0	0	1989	1859	3848	80
3	0	0	1986	1857	3847	81
4	0	0	1972	1855	3847	81
5	0	0	1961	1859	3847	80
6	0	0	1964	1857	3847	80
7	0	0	1982	1861	3847	79
8	0	0	2005	1858	3849	79
9	0	0	2021	1857	3847	80
10	0	0	2020	1856	3848	80
11	0	0	2017	1855	3850	83
12	0	0	2015	1858	3848	80
13	0	0	2027	1854	3848	79
14	0	0	2032	1853	3849	79
15	0	0	2031	1854	3848	79
16	0	0	2031	1854	3849	83
17	0	0	2038	1857	3848	81
18	0	0	2042	1854	3846	83
19	0	0	2032	1854	3847	81
20	0	0	2018	1855	3847	80
21	0	0	2006	1856	3847	81
22	0	0	2002	1858	3847	84
23	0	0	1993	1856	3847	81
24	0	0	1990	1856	3847	81
25	0	0	1992	1858	3847	80
26	0	0	1999	1856	3848	79
27	0	0	2006	1860	3848	80
28	0	0	1999	1855	3848	79
29	0	0	1982	1854	3848	79
30	0	0	1976	1855	3847	79
31	0	0	1985	1855	3847	78
32	0	0	2003	1857	3848	80
33	0	0	2032	1853	3848	81
34	0	0	2064	1853	3847	80
35	0	0	2076	1854	3847	80
36	0	0	2068	1854	3847	79
37	0	0	2039	1852	3848	82
38	0	0	2018	1851	3847	80
39	0	0	2013	1854	3847	80
40	0	0	2016	1855	3847	80
41	0	0	2015	1855	3847	82
42	0	0	2014	1856	3848	81
43	0	0	2000	1854	3849	80
44	0	0	1967	1851	3847	80
45	0	0	1945	1854	3848	79
46	0	0	1952	1857	3848	79
47	0	0	1976	1857	3849	80
48	0	0	1990	1856	3849	80
49	0	0	2011	1852	3848	79
50	0	0	2036	1854	3848	79
51	0	0	2054	1855	3848	79
52	0	0	2050	1852	3847	79
53	0	0	2060	1853	3849	80
54	0	0	2081	1854	3847	79
55	0	0	2098	1850	3848	82
56	0	0	2090	1851	3849	81
57	0	0	2058	1849	3848	80
58	0	0	2021	1850	3848	81
59	0	0	1997	1851	3848	81
60	0	0	1988	1855	3847	80
61	0	0	1996	1855	3850	83
62	0	0	2004	1856	3848	81
63	0	0	2011	1855	3848	81
64	0	0	1999	1854	3848	81
65	0	0	1999	1857	3847	80
66	0	0	2011	1855	3849	80
67	0	0	2017	1855	3849	79
68	0	0	2021	1854	3847	79
69	0	0	2026	1854	3849	79
70	0	0	2034	1854	3846	79
71	0	0	2035	1852	3849	79
72	0	0	2012	1849	3847	78
73	0	0	2001	1851	3847	80
74	0	0	2022	1852	3847	79
75	0	0	2051	1853	3847	82
76	0	0	2068	1852	3848	79
77	0	0	2062	1850	3848	80
78	0	0	2044	1852	3848	80
79	0	0	2041	1852	3848	76
80	0	0	2032	1852	3848	81
81	0	0	2023	1853	3848	79
82	0	0	2014	1853	3848	80
83	0	0	2003	1854	3849	81
84	0	0	1998	1853	3847	80
85	0	0	1997	1854	3847	79
86	0	0	1997	1854	3846	80
87	0	0	2006	1852	3845	80
88	0	0	2016	1853	3847	79
89	0	0	2020	1853	3848	82
90	0	0	2019	1851	3847	79
91	0	0	2027	1853	3848	77
92	0	0	2038	1851	3847	78
93	0	0	2057	1851	3847	79
94	0	0	2073	1851	3847	78
95	0	0	2057	1848	3848	80
96	0	0	2040	1851	3848	79
97	0	0	2042	1852	3849	80
98	0	0	2053	1852	3850	81
99	0	0	2066	1852	3848	81
100	0	0	2066	1850	3847	81
101	0	0	2049	1851	3848	81
102	0	0	2040	1854	3851	81
103	0	0	2021	1850	3847	80
104	0	0	1999	1852	3847	80
105	0	0	1994	1852	3847	81
106	0	0	1991	1854	3848	79
107	0	0	1995	1853	3848	80
108	0	0	1999	1853	3847	79
109	0	0	2006	1852	3848	79
110	0	0	2014	1850	3847	77
111	0	0	2022	1851	3848	77
112	0	0	2028	1850	3849	79
113	0	0	2039	1850	3849	80
114	0	0	2056	1851	3848	79
115	0	0	2066	1850	3848	79
116	0	0	2075	1850	3849	81
117	0	0	2075	1849	3848	80
118	0	0	2055	1848	3849	81
119	0	0	2026	1848	3847	81
120	0	0	2007	1849	3847	80
121	0	0	1991	1850	3849	82
122	0	0	1978	1852	3848	82
123	0	0	1985	1852	3847	81
124	0	0	2000	1852	3848	81
125	0	0	2017	1852	3848	79
126	0	0	2026	1852	3848	80
127	0	0	2025	1851	3849	79
0	0	0	2010	1850	3848	79
1	0	0	2001	1853	3848	79
2	0	0	2015	1851	3849	79
3	0	0	2026	1850	3851	79
4	0	0	2033	1850	3848	80
5	0	0	2055	1848	3847	80
6	0	0	2071	1850	3848	79
7	0	0	2092	1849	3848	79
8	0	0	2102	1849	3849	80
9	0	0	2081	1847	3849	81
10	0	0	2048	1847	3847	81
11	0	0	2023	1849	3847	81
12	0	0	2020	1848	3847	80
13	0	0	2013	1851	3847	82
14	0	0	2003	1851	3847	81
15	0	0	1999	1852	3848	81
16	0	0	2003	1850	3847	81
17	0	0	2012	1850	3847	79
18	0	0	2020	1852	3850	81
19	0	0	2003	1851	3849	79
20	0	0	2010	1851	3848	79
21	0	0	2019	1851	3847	79
22	0	0	2024	1848	3847	78
23	0	0	2031	1850	3848	78
24	0	0	2037	1849	3847	78
25	0	0	2046	1849	3849	79
26	0	0	2068	1849	3848	80
27	0	0	2080	1847	3847	79
28	0	0	2085	1849	3850	81
29	0	0	2080	1849	3848	80
30	0	0	2065	1847	3847	81
31	0	0	2062	1849	3848	81
32	0	0	2058	1849	3849	79
33	0	0	2051	1850	3850	81
34	0	0	2045	1850	3847	81
35	0	0	2030	1848	3847	81
36	0	0	2017	1851	3848	79
37	0	0	2012	1852	3849	83
38	0	0	2012	1851	3851	80
39	0	0	2014	1851	3848	80
40	0	0	2019	1850	3847	79
41	0	0	2036	1850	3848	79
42	0	0	2057	1850	3849	77
43	0	0	2064	1850	3849	79
44	0	0	2058	1847	3847	78
45	0	0	2049	1848	3848	79
46	0	0	2045	1848	3847	79
47	0	0	2049	1848	3847	81
48	0	0	2052	1848	3847	81
49	0	0	2044	1847	3848	80
50	0	0	2032	1846	3847	81
51	0	0	2012	1847	3848	83
52	0	0	2004	1847	3848	80
53	0	0	2004	1849	3847	82
54	0	0	2003	1849	3848	81
55	0	0	1987	1847	3847	80
56	0	0	1985	1849	3848	80
57	0	0	1995	1850	3847	82
58	0	0	1999	1850	3847	79
59	0	0	2004	1849	3847	79
60	0	0	2011	1849	3847	79
61	0	0	2008	1847	3848	76
62	0	0	2014	1849	3848	79
63	0	0	2032	1849	3848	79
64	0	0	2046	1848	3848	78
65	0	0	2058	1848	3847	79
66	0	0	2069	1848	3847	80
67	0	0	2080	1847	3849	79
68	0	0	2080	1846	3847	82
69	0	0	2070	1847	3852	81
70	0	0	2052	1845	3848	81
71	0	0	2032	1846	3848	81
72	0	0	2021	1847	3848	79
73	0	0	1999	1846	3848	81
74	0	0	1991	1849	3846	80
75	0	0	1993	1849	3847	82
76	0	0	1983	1850	3846	80
77	0	0	1976	1850	3848	77
78	0	0	1994	1851	3845	80
79	0	0	2021	1849	3847	79
80	0	0	2027	1847	3847	79
81	0	0	2029	1850	3848	79
82	0	0	2037	1848	3848	79
83	0	0	2049	1847	3847	79
84	0	0	2043	1845	3848	79
85	0	0	2038	1847	3849	80
86	0	0	2046	1848	3847	80
87	0	0	2044	1847	3848	79
88	0	0	2036	1846	3846	81
89	0	0	2029	1845	3848	80
90	0	0	2025	1845	3847	81
91	0	0	2026	1844	3848	80
92	0	0	2019	1849	3847	80
93	0	0	2009	1848	3847	82
94	0	0	2001	1848	3847	82
95	0	0	1991	1847	3847	80
96	0	0	1988	1849	3847	80
97	0	0	2006	1850	3846	80
98	0	0	2033	1848	3848	81
99	0	0	2042	1848	3849	79
100	0	0	2041	1847	3848	79
101	0	0	2038	1847	3848	79
102	0	0	2042	1849	3847	78
103	0	0	2060	1846	3849	79
104	0	0	2060	1845	3848	78
105	0	0	2044	1845	3847	79
106	0	0	2031	1844	3847	80
107	0	0	2025	1848	3847	80
108	0	0	2030	1846	3847	80
109	0	0	2032	1845	3848	81
110	0	0	2043	1842	3847	81
111	0	0	2052	1847	3847	81
112	0	0	2058	1849	3847	81
113	0	0	2043	1846	3848	82
114	0	0	2024	1845	3848	81
115	0	0	2005	1846	3848	80
116	0	0	1995	1847	3848	80
117	0	0	2002	1848	3848	79
118	0	0	2013	1848	3848	80
119	0	0	2020	1845	3848	80
120	0	0	2020	1848	3849	79
121	0	0	2017	1846	3848	79
122	0	0	2023	1846	3848	77
123	0	0	2028	1847	3849	79
124	0	0	2027	1845	3849	78
125	0	0	2035	1845	3849	79
126	0	0	2041	1842	3847	78
127	0	0	2041	1845	3847	79
0	0	0	2053	1845	3849	81
1	0	0	2061	1846	3849	81
2	0	0	2061	1844	3847	81
3	0	0	2058	1847	3847	80
4	0	0	2046	1846	3847	81
5	0	0	2027	1845	3848	81
6	0	0	2004	1846	3848	82
7	0	0	1985	1845	3848	81
8	0	0	1982	1847	3847	80
9	0	0	1993	1849	3847	80
10	0	0	2001	1847	3849	81
11	0	0	2009	1847	3847	79
12	0	0	2013	1847	3847	79
13	0	0	2012	1847	3850	79
14	0	0	2024	1846	3848	75
15	0	0	2044	1845	3848	80
16	0	0	2050	1845	3848	78
17	0	0	2048	1845	3847	79
18	0	0	2068	1843	3850	80
19	0	0	2101	1843	3848	79
20	0	0	2110	1844	3850	80
21	0	0	2106	1844	3849	81
22	0	0	2091	1843	3848	80
23	0	0	2070	1843	3848	81
24	0	0	2060	1846	3847	80
25	0	0	2048	1845	3848	81
26	0	0	2029	1843	3849	82
27	0	0	2008	1844	3849	80
28	0	0	1990	1844	3848	81
29	0	0	1981	1846	3847	80
30	0	0	1973	1847	3851	79
31	0	0	1977	1846	3847	79
32	0	0	1991	1845	3847	79
33	0	0	2003	1846	3847	79
34	0	0	2003	1846	3847	78
35	0	0	2001	1845	3847	79
36	0	0	2014	1844	3848	80
37	0	0	2042	1843	3847	79
38	0	0	2078	1842	3848	80
39	0	0	2106	1842	3849	79
40	0	0	2120	1844	3848	81
41	0	0	2114	1842	3848	81
42	0	0	2086	1840	3847	82
43	0	0	2055	1841	3850	82
44	0	0	2045	1844	3847	82
45	0	0	2036	1846	3849	81
46	0	0	2030	1846	3849	81
47	0	0	2028	1845	3847	80
48	0	0	2021	1845	3848	80
49	0	0	2014	1846	3847	79
50	0	0	2007	1844	3847	80
51	0	0	2013	1845	3849	79
52	0	0	2037	1845	3847	79
53	0	0	2078	1845	3847	80
54	0	0	2115	1844	3849	80
55	0	0	2134	1843	3849	79
56	0	0	2114	1840	3848	79
57	0	0	2083	1841	3848	80
58	0	0	2079	1842	3848	79
59	0	0	2090	1843	3847	80
60	0	0	2103	1842	3847	81
61	0	0	2113	1842	3849	81
62	0	0	2114	1843	3847	81
63	0	0	2106	1842	3847	80
64	0	0	2087	1842	3847	79
65	0	0	2068	1843	3848	82
66	0	0	2061	1843	3847	81
67	0	0	2041	1842	3847	81
68	0	0	2024	1844	3847	80
69	0	0	2026	1846	3847	80
70	0	0	2027	1844	3848	80
71	0	0	2020	1844	3848	80
72	0	0	2023	1844	3848	79
73	0	0	2024	1844	3848	79
74	0	0	2023	1844	3847	77
75	0	0	2041	1842	3848	79
76	0	0	2063	1842	3848	79
77	0	0	2088	1841	3847	79
78	0	0	2109	1841	3847	79
79	0	0	2096	1840	3847	80
80	0	0	2071	1838	3848	80
81	0	0	2058	1842	3847	82
82	0	0	2060	1842	3847	81
83	0	0	2068	1842	3847	81
84	0	0	2070	1842	3848	82
85	0	0	2061	1841	3848	81
86	0	0	2049	1843	3846	81
87	0	0	2043	1841	3847	81
88	0	0	2038	1844	3848	81
89	0	0	2025	1844	3848	81
90	0	0	2021	1845	3849	80
91	0	0	2014	1843	3848	80
92	0	0	2014	1844	3849	80
93	0	0	2018	1843	3847	79
94	0	0	2019	1843	3848	79
95	0	0	2024	1842	3850	79
96	0	0	2024	1841	3847	78
97	0	0	2039	1841	3847	79
98	0	0	2068	1841	3846	79
99	0	0	2075	1841	3847	80
100	0	0	2065	1840	3850	80
101	0	0	2055	1840	3847	82
102	0	0	2055	1840	3847	81
103	0	0	2062	1841	3847	81
104	0	0	2055	1839	3848	81
105	0	0	2032	1840	3850	81
106	0	0	2008	1840	3848	81
107	0	0	1988	1841	3849	82
108	0	0	1979	1843	3848	80
109	0	0	1993	1843	3848	80
110	0	0	2017	1843	3847	79
111	0	0	2013	1842	3847	78
112	0	0	2012	1843	3847	79
113	0	0	2024	1842	3846	79
114	0	0	2050	1841	3848	79
115	0	0	2081	1842	3847	78
116	0	0	2083	1838	3847	77
117	0	0	2082	1840	3847	79
118	0	0	2071	1838	3846	79
119	0	0	2050	1837	3848	79
120	0	0	2040	1838	3847	82
121	0	0	2044	1840	3850	82
122	0	0	2059	1840	3848	81
123	0	0	2050	1840	3850	82
124	0	0	2032	1841	3849	78
125	0	0	2030	1841	3849	79
126	0	0	2032	1842	3848	81
127	0	0	2029	1841	3847	79
0	0	0	2018	1842	3848	81
1	0	0	1993	1840	3847	81
2	0	0	1967	1839	3848	80
3	0	0	1959	1841	3847	80
4	0	0	1982	1841	3847	79
5	0	0	2024	1840	3847	79
6	0	0	2060	1841	3848	79
7	0	0	2073	1840	3850	80
8	0	0	2068	1839	3847	79
9	0	0	2074	1839	3849	80
10	0	0	2074	1840	3848	80
11	0	0	2054	1837	3851	80
12	0	0	2048	1838	3848	79
13	0	0	2033	1837	3849	81
14	0	0	2013	1837	3848	80
15	0	0	2006	1840	3847	81
16	0	0	1999	1839	3850	80
17	0	0	1993	1840	3848	79
18	0	0	1977	1839	3848	81
19	0	0	1969	1840	3847	80
20	0	0	1969	1841	3844	81
21	0	0	1976	1841	3847	81
22	0	0	1977	1841	3848	80
23	0	0	1973	1840	3848	82
24	0	0	1979	1840	3847	80
25	0	0	1982	1840	3847	79
26	0	0	1987	1840	3846	79
27	0	0	1994	1839	3848	77
28	0	0	2003	1838	3849	79
29	0	0	2022	1838	3847	80
30	0	0	2052	1832	3848	80
31	0	0	2081	1837	3848	80
32	0	0	2096	1837	3848	78
33	0	0	2100	1837	3848	81
34	0	0	2100	1837	3847	81
35	0	0	2114	1835	3846	80
36	0	0	2145	1838	3849	81
37	0	0	2173	1839	3847	82
38	0	0	2211	1839	3849	82
39	0	0	2263	1837	3847	80
40	0	0	2309	1835	3846	80
41	0	0	2345	1840	3848	80
42	0	0	2364	1839	3847	80
43	0	0	2398	1839	3849	80
44	0	0	2454	1839	3847	79
45	0	0	2501	1834	3848	80
46	0	0	2529	1839	3850	79
47	0	0	2543	1837	3847	81
48	0	0	2562	1837	3849	79
49	0	0	2597	1835	3847	79
50	0	0	2641	1831	3848	80
51	0	0	2684	1835	3848	80
52	0	0	2705	1836	3847	80
53	0	0	2705	1836	3848	81
54	0	0	2687	1835	3847	81
55	0	0	2657	1831	3846	80
56	0	0	2612	1834	3848	81
57	0	0	2552	1834	3848	79
58	0	0	2508	1836	3848	81
59	0	0	2488	1838	3847	81
60	0	0	2473	1839	3848	81
61	0	0	2451	1837	3850	77
62	0	0	2404	1836	3849	79
63	0	0	2361	1836	3849	80
64	0	0	2337	1836	3848	79
65	0	0	2304	1834	3847	79
66	0	0	2253	1834	3847	80
67	0	0	2194	1833	3848	79
68	0	0	2134	1832	3848	79
69	0	0	2079	1831	3847	80
70	0	0	2034	1832	3847	78
71	0	0	2001	1833	3848	81
72	0	0	1992	1836	3848	81
73	0	0	1994	1836	3849	82
74	0	0	2003	1835	3847	81
75	0	0	1987	1834	3847	81
76	0	0	1939	1832	3849	81
77	0	0	1892	1833	3848	79
78	0	0	1864	1834	3848	81
79	0	0	1863	1837	3848	81
80	0	0	1871	1840	3847	80
81	0	0	1886	1838	3849	80
82	0	0	1910	1837	3846	84
83	0	0	1931	1837	3849	80
84	0	0	1949	1838	3847	79
85	0	0	1941	1834	3847	79
86	0	0	1914	1835	3845	80
87	0	0	1919	1834	3848	78
88	0	0	1943	1836	3849	79
89	0	0	1974	1834	3847	79
90	0	0	2003	1834	3848	80
91	0	0	2017	1834	3848	80
92	0	0	2019	1834	3848	80
93	0	0	2021	1834	3849	82
94	0	0	2037	1835	3848	81
95	0	0	2044	1833	3849	85
96	0	0	2029	1832	3847	80
97	0	0	2014	1835	3848	81
98	0	0	2007	1836	3846	81
99	0	0	2005	1837	3848	80
100	0	0	2000	1835	3848	81
101	0	0	1982	1835	3848	80
102	0	0	1969	1835	3850	82
103	0	0	1962	1835	3848	79
104	0	0	1967	1834	3847	80
105	0	0	1987	1835	3847	79
106	0	0	2015	1834	3847	80
107	0	0	2038	1834	3848	75
108	0	0	2043	1833	3845	80
109	0	0	2043	1832	3847	80
110	0	0	2038	1833	3847	80
111	0	0	2022	1831	3846	81
112	0	0	2023	1833	3848	81
113	0	0	2034	1832	3848	84
114	0	0	2036	1833	3848	81
115	0	0	2024	1831	3848	81
116	0	0	1984	1831	3848	79
117	0	0	1950	1831	3848	79
118	0	0	1943	1835	3848	81
119	0	0	1952	1834	3847	80
120	0	0	1966	1834	3847	80
121	0	0	1980	1836	3846	80
122	0	0	2004	1834	3848	80
123	0	0	2021	1835	3846	80
124	0	0	2028	1835	3847	79
125	0	0	2029	1835	3847	79
126	0	0	2033	1833	3846	79
127	0	0	2033	1833	3848	79
0	0	0	2027	1832	3847	79
1	0	0	2031	1832	3849	79
2	0	0	2041	1832	3847	79
3	0	0	2048	1831	3847	80
4	0	0	2066	1831	3848	77
5	0	0	2090	1832	3849	80
6	0	0	2095	1831	3847	80
7	0	0	2062	1828	3848	80
8	0	0	2008	1829	3847	81
9	0	0	1973	1831	3848	82
10	0	0	1965	1833	3847	81
11	0	0	1965	1834	3847	81
12	0	0	1958	1834	3846	80
13	0	0	1959	1834	3849	80
14	0	0	1969	1833	3847	80
15	0	0	1993	1832	3844	80
16	0	0	2017	1833	3847	79
17	0	0	2029	1833	3848	80
18	0	0	2026	1831	3848	79
19	0	0	2013	1831	3849	79
20	0	0	2000	1830	3847	79
21	0	0	2008	1830	3849	80
22	0	0	2035	1831	3847	80
23	0	0	2052	1830	3847	80
24	0	0	2054	1830	3848	80
25	0	0	2060	1830	3847	80
26	0	0	2060	1830	3846	81
27	0	0	2055	1831	3849	82
28	0	0	2046	1831	3846	81
29	0	0	2044	1832	3847	80
30	0	0	2052	1832	3844	80
31	0	0	2043	1831	3848	81
32	0	0	2026	1830	3847	80
33	0	0	2008	1831	3848	81
34	0	0	2003	1832	3849	80
35	0	0	2004	1831	3849	79
36	0	0	2016	1833	3848	80
37	0	0	2035	1831	3849	80
38	0	0	2049	1832	3848	79
39	0	0	2049	1830	3848	76
40	0	0	2050	1829	3846	79
41	0	0	2063	1829	3847	79
42	0	0	2082	1828	3847	80
43	0	0	2074	1828	3846	80
44	0	0	2051	1827	3847	80
45	0	0	2036	1828	3847	80
46	0	0	2034	1829	3847	81
47	0	0	2039	1831	3847	81
48	0	0	2034	1828	3846	83
49	0	0	2017	1830	3847	80
50	0	0	2011	1831	3847	81
51	0	0	2005	1832	3849	81
52	0	0	2007	1832	3847	80
53	0	0	2014	1830	3848	81
54	0	0	2035	1832	3850	81
55	0	0	2063	1831	3847	80
56	0	0	2080	1831	3847	79
57	0	0	2083	1830	3848	79
58	0	0	2080	1830	3848	80
59	0	0	2077	1830	3848	80
60	0	0	2063	1827	3847	80
61	0	0	2060	1828	3846	80
62	0	0	2066	1827	3847	79
63	0	0	2066	1827	3846	79
64	0	0	2070	1829	3848	80
65	0	0	2069	1828	3849	81
66	0	0	2060	1828	3848	82
67	0	0	2055	1828	3848	80
68	0	0	2063	1830	3847	81
69	0	0	2065	1829	3848	80
70	0	0	2045	1827	3847	81
71	0	0	2021	1828	3850	81
72	0	0	2008	1830	3846	80
73	0	0	2006	1831	3847	80
74	0	0	2016	1830	3848	84
75	0	0	2021	1830	3847	79
76	0	0	2011	1829	3847	79
77	0	0	2006	1829	3848	79
78	0	0	2011	1829	3849	77
79	0	0	2035	1827	3848	80
80	0	0	2065	1828	3848	80
81	0	0	2102	1828	3847	80
82	0	0	2134	1827	3847	79
83	0	0	2139	1827	3847	80
84	0	0	2119	1826	3847	80
85	0	0	2101	1825	3847	82
86	0	0	2080	1824	3847	82
87	0	0	2075	1827	3847	81
88	0	0	2080	1829	3848	81
89	0	0	2067	1827	3849	81
90	0	0	2051	1828	3847	81
91	0	0	2043	1830	3847	81
92	0	0	2041	1829	3847	80
93	0	0	2052	1829	3849	81
94	0	0	2050	1829	3848	80
95	0	0	2048	1830	3848	80
96	0	0	2055	1829	3847	80
97	0	0	2076	1828	3847	79
98	0	0	2109	1829	3848	79
99	0	0	2130	1827	3848	78
100	0	0	2123	1826	3847	76
101	0	0	2111	1826	3847	79
102	0	0	2107	1825	3847	81
103	0	0	2114	1826	3848	80
104	0	0	2116	1826	3849	81
105	0	0	2119	1826	3846	80
106	0	0	2121	1827	3847	81
107	0	0	2122	1826	3849	80
108	0	0	2094	1823	3847	80
109	0	0	2068	1824	3848	82
110	0	0	2056	1827	3846	80
111	0	0	2048	1827	3847	82
112	0	0	2027	1826	3847	81
113	0	0	2036	1829	3849	80
114	0	0	2046	1828	3848	80
115	0	0	2056	1830	3848	81
116	0	0	2086	1827	3847	80
117	0	0	2127	1825	3847	80
118	0	0	2152	1826	3849	78
119	0	0	2162	1827	3848	79
120	0	0	2157	1826	3846	79
121	0	0	2152	1825	3847	80
122	0	0	2147	1824	3847	80
123	0	0	2148	1825	3848	80
124	0	0	2150	1825	3848	80
125	0	0	2145	1825	3847	79
126	0	0	2142	1825	3843	81
127	0	0	2136	1827	3847	81
0	0	0	2122	1826	3849	80
1	0	0	2114	1826	3848	83
2	0	0	2100	1827	3846	81
3	0	0	2096	1828	3848	81
4	0	0	2096	1827	3848	82
5	0	0	2108	1829	3848	81
6	0	0	2120	1828	3848	79
7	0	0	2139	1826	3845	79
8	0	0	2159	1827	3849	80
9	0	0	2171	1827	3847	79
10	0	0	2182	1826	3850	80
11	0	0	2190	1826	3849	78
12	0	0	2183	1824	3848	79
13	0	0	2188	1824	3848	79
14	0	0	2206	1826	3848	81
15	0	0	2222	1825	3847	81
16	0	0	2220	1824	3848	81
17	0	0	2197	1822	3846	81
18	0	0	2178	1820	3847	81
19	0	0	2153	1822	3847	80
20	0	0	2141	1826	3848	80
21	0	0	2151	1826	3848	84
22	0	0	2174	1826	3848	81
23	0	0	2186	1827	3846	81
24	0	0	2186	1826	3849	80
25	0	0	2187	1827	3848	84
26	0	0	2193	1826	3849	83
27	0	0	2203	1826	3848	79
28	0	0	2208	1825	3847	79
29	0	0	2211	1825	3847	79
30	0	0	2220	1825	3847	80
31	0	0	2237	1825	3848	79
32	0	0	2245	1823	3848	80
33	0	0	2259	1822	3847	79
34	0	0	2272	1822	3847	80
35	0	0	2277	1823	3847	79
36	0	0	2290	1823	3847	81
37	0	0	2302	1822	3848	81
38	0	0	2292	1823	3847	79
39	0	0	2263	1821	3845	82
40	0	0	2224	1822	3848	80
41	0	0	2188	1821	3849	83
42	0	0	2160	1823	3848	81
43	0	0	2150	1825	3847	82
44	0	0	2147	1826	3848	80
45	0	0	2159	1827	3849	80
46	0	0	2161	1824	3847	83
47	0	0	2160	1826	3848	79
48	0	0	2172	1824	3847	80
49	0	0	2194	1823	3846	80
50	0	0	2217	1824	3848	79
51	0	0	2230	1824	3848	79
52	0	0	2226	1822	3850	79
53	0	0	2235	1823	3847	80
54	0	0	2253	1823	3847	80
55	0	0	2272	1823	3848	80
56	0	0	2281	1822	3849	81
57	0	0	2274	1822	3848	81
58	0	0	2239	1819	3847	81
59	0	0	2206	1821	3845	83
60	0	0	2195	1823	3846	82
61	0	0	2192	1824	3848	83
62	0	0	2195	1824	3848	81
63	0	0	2199	1824	3846	83
64	0	0	2193	1824	3847	81
65	0	0	2179	1825	3848	80
66	0	0	2170	1825	3848	80
67	0	0	2163	1825	3849	79
68	0	0	2156	1823	3847	80
69	0	0	2169	1824	3848	79
70	0	0	2197	1824	3848	80
71	0	0	2235	1821	3848	79
72	0	0	2250	1823	3852	79
73	0	0	2240	1821	3848	79
74	0	0	2212	1820	3847	80
75	0	0	2185	1819	3848	80
76	0	0	2147	1818	3848	77
77	0	0	2117	1819	3847	81
78	0	0	2113	1822	3847	81
79	0	0	2117	1822	3847	81
80	0	0	2113	1822	3846	83
81	0	0	2119	1825	3848	79
82	0	0	2126	1823	3848	81
83	0	0	2114	1823	3848	81
84	0	0	2101	1821	3850	79
85	0	0	2097	1822	3848	81
86	0	0	2095	1824	3851	81
87	0	0	2084	1824	3851	80
88	0	0	2082	1823	3847	79
89	0	0	2091	1823	3847	79
90	0	0	2097	1823	3848	80
91	0	0	2102	1822	3849	80
92	0	0	2101	1821	3850	79
93	0	0	2104	1821	3848	80
94	0	0	2108	1821	3847	79
95	0	0	2104	1820	3846	79
96	0	0	2094	1821	3847	80
97	0	0	2076	1820	3849	81
98	0	0	2058	1820	3847	81
99	0	0	2049	1821	3846	80
100	0	0	2051	1819	3847	81
101	0	0	2050	1823	3848	81
102	0	0	2043	1824	3850	80
103	0	0	2038	1821	3847	81
104	0	0	2031	1823	3845	83
105	0	0	2038	1822	3846	79
106	0	0	2054	1823	3848	80
107	0	0	2067	1823	3847	78
108	0	0	2071	1823	3848	81
109	0	0	2071	1822	3845	79
110	0	0	2073	1820	3847	77
111	0	0	2075	1823	3848	76
112	0	0	2076	1821	3847	78
113	0	0	2067	1820	3848	79
114	0	0	2067	1820	3847	79
115	0	0	2062	1821	3848	79
116	0	0	2061	1820	3848	80
117	0	0	2072	1821	3849	81
118	0	0	2085	1821	3847	83
119	0	0	2091	1820	3848	84
120	0	0	2092	1820	3849	81
121	0	0	2062	1819	3849	81
122	0	0	2038	1819	3847	80
123	0	0	2022	1821	3848	81
124	0	0	2012	1822	3848	81
125	0	0	2002	1819	3847	79
126	0	0	1986	1821	3847	77
127	0	0	1984	1822	3847	80
0	0	0	1985	1822	3847	79
1	0	0	1989	1822	3847	79
2	0	0	2000	1820	3846	79
3	0	0	2020	1822	3848	80
4	0	0	2043	1819	3847	78
5	0	0	2066	1820	3848	80
6	0	0	2074	1819	3847	79
7	0	0	2078	1816	3847	80
8	0	0	2093	1819	3849	80
9	0	0	2086	1819	3849	80
10	0	0	2055	1818	3848	82
11	0	0	2017	1817	3848	83
12	0	0	2008	1819	3847	79
13	0	0	1996	1820	3848	83
14	0	0	1973	1819	3847	80
15	0	0	1955	1821	3851	81
16	0	0	1958	1822	3847	79
17	0	0	1976	1822	3848	82
18	0	0	2006	1822	3848	82
19	0	0	2042	1822	3847	80
20	0	0	2052	1820	3847	80
21	0	0	2036	1818	3847	79
22	0	0	2012	1815	3847	79
23	0	0	2001	1820	3848	78
24	0	0	2012	1819	3847	78
25	0	0	2037	1820	3847	80
26	0	0	2052	1818	3846	79
27	0	0	2055	1818	3847	79
28	0	0	2049	1819	3848	82
29	0	0	2041	1819	3849	80
30	0	0	2030	1818	3847	81
31	0	0	2018	1817	3847	81
32	0	0	2005	1817	3847	79
33	0	0	1986	1820	3848	82
34	0	0	1988	1821	3848	81
35	0	0	1990	1821	3847	82
36	0	0	1987	1821	3848	84
37	0	0	1993	1821	3847	80
38	0	0	2009	1821	3849	80
39	0	0	2016	1820	3847	84
40	0	0	2013	1821	3847	79
41	0	0	2009	1820	3849	77
42	0	0	2018	1819	3847	77
43	0	0	2040	1820	3848	79
44	0	0	2053	1819	3847	27
45	0	0	2062	1817	3847	79
46	0	0	2067	1818	3849	77
47	0	0	2062	1817	3847	77
48	0	0	2055	1819	3848	80
49	0	0	2055	1818	3848	82
50	0	0	2039	1817	3847	81
51	0	0	2017	1816	3847	81
52	0	0	1995	1818	3847	80
53	0	0	1985	1819	3847	80
54	0	0	1979	1820	3847	83
55	0	0	1986	1820	3846	81
56	0	0	1990	1818	3847	81
57	0	0	2001	1821	3847	80
58	0	0	2019	1821	3848	80
59	0	0	2043	1819	3847	82
60	0	0	2055	1820	3848	80
61	0	0	2061	1819	3847	79
62	0	0	2067	1820	3848	80
63	0	0	2078	1819	3848	80
64	0	0	2071	1817	3847	80
65	0	0	2058	1816	3847	79
66	0	0	2043	1815	3847	80
67	0	0	2043	1817	3847	80
68	0	0	2054	1818	3848	82
69	0	0	2048	1817	3847	83
70	0	0	2040	1817	3846	81
71	0	0	2029	1817	3849	80
72	0	0	2017	1819	3848	81
73	0	0	2020	1818	3848	81
74	0	0	2024	1819	3848	80
75	0	0	2026	1819	3847	80
76	0	0	2025	1820	3847	79
77	0	0	2032	1820	3849	82
78	0	0	2046	1820	3848	80
79	0	0	2045	1819	3849	80
80	0	0	2043	1819	3848	79
81	0	0	2037	1818	3848	80
82	0	0	2039	1818	3848	79
83	0	0	2050	1818	3848	79
84	0	0	2059	1817	3847	82
85	0	0	2072	1815	3847	80
86	0	0	2108	1816	3846	80
87	0	0	2129	1816	3845	79
88	0	0	2132	1817	3847	84
89	0	0	2119	1815	3847	82
90	0	0	2107	1817	3849	81
91	0	0	2100	1817	3847	82
92	0	0	2078	1814	3848	82
93	0	0	2035	1815	3847	79
94	0	0	2015	1818	3847	83
95	0	0	2019	1818	3847	81
96	0	0	2023	1819	3849	80
97	0	0	2026	1819	3848	79
98	0	0	2039	1819	3848	80
99	0	0	2043	1818	3847	81
100	0	0	2053	1818	3847	79
101	0	0	2057	1815	3847	80
102	0	0	2054	1817	3848	80
103	0	0	2054	1817	3848	79
104	0	0	2051	1816	3847	82
105	0	0	2039	1814	3847	80
106	0	0	2031	1813	3847	80
107	0	0	2042	1816	3848	84
108	0	0	2069	1816	3848	80
109	0	0	2081	1816	3850	81
110	0	0	2076	1816	3848	82
111	0	0	2064	1816	3848	79
112	0	0	2062	1817	3849	85
113	0	0	2065	1816	3849	82
114	0	0	2053	1817	3847	83
115	0	0	2044	1817	3847	81
116	0	0	2040	1816	3847	81
117	0	0	2034	1817	3846	79
118	0	0	2037	1818	3848	79
119	0	0	2035	1815	3847	84
120	0	0	2044	1819	3848	79
121	0	0	2051	1818	3847	77
122	0	0	2052	1815	3848	79
123	0	0	2061	1816	3847	79
124	0	0	2061	1815	3848	79
125	0	0	2069	1815	3847	80
126	0	0	2087	1814	3846	79
127	0	0	2100	1815	3848	80
0	0	0	2089	1812	3849	80
1	0	0	2082	1815	3848	83
2	0	0	2070	1813	3847	81
3	0	0	2055	1813	3848	81
4	0	0	2031	1814	3848	79
5	0	0	2011	1814	3848	81
6	0	0	2011	1816	3847	81
7	0	0	2028	1817	3846	81
8	0	0	2049	1817	3847	81
9	0	0	2068	1815	3848	83
10	0	0	2075	1817	3847	79
11	0	0	2070	1817	3848	80
12	0	0	2058	1816	3847	80
13	0	0	2055	1816	3848	79
14	0	0	2080	1815	3854	80
15	0	0	2103	1812	3848	79
16	0	0	2114	1814	3847	77
17	0	0	2122	1814	3848	79
18	0	0	2115	1814	3848	80
19	0	0	2090	1810	3848	81
20	0	0	2064	1811	3849	81
21	0	0	2050	1814	3848	81
22	0	0	2050	1814	3847	82
23	0	0	2052	1815	3848	81
24	0	0	2054	1814	3848	84
25	0	0	2052	1816	3847	83
26	0	0	2042	1815	3847	83
27	0	0	2037	1817	3848	80
28	0	0	2037	1814	3845	82
29	0	0	2041	1818	3848	80
30	0	0	2035	1816	3849	80
31	0	0	2024	1815	3847	79
32	0	0	2032	1815	3847	80
33	0	0	2046	1814	3848	80
34	0	0	2067	1814	3849	79
35	0	0	2081	1814	3848	79
36	0	0	2088	1813	3847	79
37	0	0	2092	1813	3848	79
38	0	0	2108	1814	3847	80
39	0	0	2123	1812	3848	84
40	0	0	2116	1811	3848	83
41	0	0	2101	1813	3848	81
42	0	0	2101	1814	3847	81
43	0	0	2108	1813	3847	83
44	0	0	2108	1815	3848	81
45	0	0	2088	1812	3849	82
46	0	0	2061	1811	3848	82
47	0	0	2040	1813	3847	81
48	0	0	2018	1812	3847	79
49	0	0	2007	1814	3849	83
50	0	0	2019	1815	3849	80
51	0	0	2036	1815	3848	80
52	0	0	2051	1814	3848	79
53	0	0	2065	1814	3847	79
54	0	0	2070	1811	3847	80
55	0	0	2069	1813	3848	80
56	0	0	2067	1812	3846	79
57	0	0	2078	1811	3847	80
58	0	0	2098	1812	3847	80
59	0	0	2112	1812	3848	80
60	0	0	2108	1812	3848	81
61	0	0	2096	1812	3848	81
62	0	0	2079	1811	3847	81
63	0	0	2069	1812	3847	83
64	0	0	2067	1812	3848	80
65	0	0	2058	1813	3849	83
66	0	0	2055	1816	3847	80
67	0	0	2065	1815	3848	81
68	0	0	2061	1814	3848	81
69	0	0	2044	1811	3847	83
70	0	0	2029	1813	3849	80
71	0	0	2030	1814	3848	80
72	0	0	2044	1814	3847	79
73	0	0	2069	1814	3847	80
74	0	0	2076	1811	3848	79
75	0	0	2071	1812	3847	80
76	0	0	2078	1811	3847	80
77	0	0	2096	1811	3848	80
78	0	0	2116	1811	3848	77
79	0	0	2118	1811	3848	80
80	0	0	2103	1810	3849	81
81	0	0	2077	1809	3848	80
82	0	0	2061	1811	3848	81
83	0	0	2056	1811	3847	79
84	0	0	2058	1810	3847	83
85	0	0	2050	1811	3848	82
86	0	0	2048	1813	3847	80
87	0	0	2048	1813	3846	81
88	0	0	2036	1813	3847	80
89	0	0	2036	1814	3848	80
90	0	0	2036	1813	3848	81
91	0	0	2023	1812	3847	80
92	0	0	2014	1811	3847	80
93	0	0	2023	1812	3846	79
94	0	0	2043	1814	3847	79
95	0	0	2052	1812	3848	79
96	0	0	2053	1811	3847	80
97	0	0	2064	1810	3848	79
98	0	0	2087	1809	3847	79
99	0	0	2118	1810	3848	79
100	0	0	2112	1809	3849	81
101	0	0	2098	1810	3847	80
102	0	0	2089	1810	3847	81
103	0	0	2087	1809	3847	81
104	0	0	2077	1807	3847	81
105	0	0	2057	1809	3848	82
106	0	0	2048	1812	3849	82
107	0	0	2046	1813	3847	81
108	0	0	2055	1812	3847	81
109	0	0	2073	1813	3847	81
110	0	0	2082	1813	3849	81
111	0	0	2074	1812	3845	80
112	0	0	2066	1812	3848	79
113	0	0	2069	1811	3847	77
114	0	0	2087	1809	3847	80
115	0	0	2103	1810	3848	78
116	0	0	2106	1810	3846	79
117	0	0	2099	1809	3847	79
118	0	0	2079	1808	3848	80
119	0	0	2057	1807	3847	80
120	0	0	2039	1808	3848	83
121	0	0	2034	1809	3847	80
122	0	0	2041	1809	3847	81
123	0	0	2040	1807	3847	81
124	0	0	2017	1807	3847	81
125	0	0	2001	1810	3850	83
126	0	0	2001	1810	3846	84
127	0	0	2013	1811	3850	80
0	0	0	2023	1809	3846	81
1	0	0	2027	1811	3847	82
2	0	0	2027	1812	3848	80
3	0	0	2029	1812	3847	80
4	0	0	2033	1811	3848	79
5	0	0	2041	1809	3847	80
6	0	0	2052	1810	3847	80
7	0	0	2067	1810	3848	80
8	0	0	2075	1809	3847	79
9	0	0	2093	1808	3847	80
10	0	0	2104	1806	3846	79
11	0	0	2097	1808	3847	82
12	0	0	2098	1810	3847	80
13	0	0	2102	1808	3852	80
14	0	0	2098	1808	3845	80
15	0	0	2084	1808	3848	82
16	0	0	2062	1808	3848	81
17	0	0	2045	1808	3848	81
18	0	0	2037	1811	3848	81
19	0	0	2028	1811	3847	81
20	0	0	2020	1811	3848	80
21	0	0	2020	1811	3849	81
22	0	0	2027	1812	3849	80
23	0	0	2045	1811	3849	80
24	0	0	2054	1811	3848	80
25	0	0	2059	1810	3848	80
26	0	0	2087	1810	3848	79
27	0	0	2117	1809	3847	79
28	0	0	2131	1808	3847	80
29	0	0	2120	1804	3847	80
30	0	0	2101	1804	3846	80
31	0	0	2087	1806	3847	79
32	0	0	2065	1807	3847	81
33	0	0	2055	1807	3847	79
34	0	0	2038	1807	3848	81
35	0	0	2026	1809	3846	82
36	0	0	2018	1810	3847	81
37	0	0	2016	1809	3849	84
38	0	0	2019	1809	3852	84
39	0	0	2024	1810	3847	80
40	0	0	2023	1810	3848	82
41	0	0	2037	1810	3848	79
42	0	0	2058	1809	3848	80
43	0	0	2078	1809	3847	79
44	0	0	2085	1807	3847	80
45	0	0	2077	1807	3846	79
46	0	0	2081	1808	3848	82
47	0	0	2098	1808	3847	80
48	0	0	2113	1806	3847	79
49	0	0	2119	1808	3847	80
50	0	0	2117	1805	3847	80
51	0	0	2108	1805	3848	83
52	0	0	2100	1807	3848	80
53	0	0	2093	1806	3847	79
54	0	0	2084	1809	3849	81
55	0	0	2074	1808	3847	81
56	0	0	2067	1808	3846	81
57	0	0	2054	1808	3848	81
58	0	0	2039	1808	3847	79
59	0	0	2023	1809	3846	81
60	0	0	2010	1808	3848	84
61	0	0	2005	1808	3847	83
62	0	0	2012	1811	3847	80
63	0	0	2029	1808	3845	75
64	0	0	2045	1808	3846	80
65	0	0	2066	1808	3848	81
66	0	0	2090	1808	3848	80
67	0	0	2102	1808	3848	79
68	0	0	2116	1806	3848	78
69	0	0	2132	1806	3847	79
70	0	0	2126	1807	3847	80
71	0	0	2118	1806	3847	79
72	0	0	2129	1807	3848	81
73	0	0	2151	1805	3847	80
74	0	0	2163	1806	3848	81
75	0	0	2146	1803	3847	81
76	0	0	2105	1805	3846	80
77	0	0	2073	1805	3848	82
78	0	0	2058	1808	3846	79
79	0	0	2050	1807	3847	80
80	0	0	2036	1808	3848	81
81	0	0	2039	1809	3846	81
82	0	0	2063	1809	3848	81
83	0	0	2082	1807	3847	80
84	0	0	2088	1808	3844	79
85	0	0	2095	1807	3849	76
86	0	0	2093	1807	3847	79
87	0	0	2099	1805	3848	79
88	0	0	2100	1806	3847	77
89	0	0	2099	1805	3846	79
90	0	0	2109	1804	3849	83
91	0	0	2126	1804	3847	81
92	0	0	2145	1805	3848	80
93	0	0	2147	1805	3847	80
94	0	0	2138	1804	3847	77
95	0	0	2117	1804	3848	82
96	0	0	2100	1805	3848	83
97	0	0	2093	1805	3847	82
98	0	0	2083	1807	3848	80
99	0	0	2057	1805	3847	81
100	0	0	2039	1804	3847	79
101	0	0	2038	1807	3846	80
102	0	0	2039	1810	3848	80
103	0	0	2041	1807	3847	71
104	0	0	2043	1806	3849	80
105	0	0	2054	1805	3849	79
106	0	0	2063	1804	3848	81
107	0	0	2071	1804	3847	79
108	0	0	2064	1804	3847	80
109	0	0	2066	1804	3847	80
110	0	0	2076	1804	3848	84
111	0	0	2084	1804	3846	80
112	0	0	2090	1804	3848	81
113	0	0	2087	1805	3847	80
114	0	0	2076	1804	3847	82
115	0	0	2063	1804	3847	81
116	0	0	2052	1806	3849	81
117	0	0	2031	1802	3848	82
118	0	0	2023	1806	3848	81
119	0	0	2021	1806	3847	81
120	0	0	2017	1805	3847	79
121	0	0	2011	1807	3846	80
122	0	0	2003	1806	3848	81
123	0	0	2008	1806	3848	80
124	0	0	2018	1805	3847	80
125	0	0	2023	1804	3848	79
126	0	0	2017	1805	3846	80
127	0	0	2007	1802	3848	79
0	0	0	2005	1805	3846	78
1	0	0	2032	1803	3847	80
2	0	0	2058	1803	3847	80
3	0	0	2063	1803	3845	80
4	0	0	2057	1805	3848	80
5	0	0	2058	1803	3847	80
6	0	0	2051	1804	3849	81
7	0	0	2053	1805	3848	80
8	0	0	2060	1804	3848	83
9	0	0	2057	1804	3848	82
10	0	0	2053	1805	3847	82
11	0	0	2050	1806	3847	81
12	0	0	2040	1804	3849	85
13	0	0	2034	1807	3847	80
14	0	0	2028	1805	3848	81
15	0	0	2025	1805	3847	80
16	0	0	2042	1805	3847	79
17	0	0	2062	1804	3848	79
18	0	0	2070	1806	3847	80
19	0	0	2070	1803	3847	79
20	0	0	2065	1803	3848	79
21	0	0	2072	1802	3847	80
22	0	0	2078	1802	3847	79
23	0	0	2077	1799	3848	80
24	0	0	2072	1798	3848	81
25	0	0	2068	1802	3847	80
26	0	0	2058	1802	3847	82
27	0	0	2042	1802	3847	82
28	0	0	2029	1804	3846	80
29	0	0	2024	1803	3849	83
30	0	0	2021	1804	3847	82
31	0	0	2002	1803	3849	81
32	0	0	2000	1805	3849	84
33	0	0	2018	1804	3847	82
34	0	0	2035	1805	3847	80
35	0	0	2021	1801	3847	79
36	0	0	1984	1801	3847	78
37	0	0	1962	1800	3847	80
38	0	0	1959	1804	3846	80
39	0	0	1970	1803	3848	79
40	0	0	1987	1803	3847	79
41	0	0	2017	1802	3847	79
42	0	0	2018	1801	3848	81
43	0	0	2025	1802	3848	81
44	0	0	2045	1803	3849	81
45	0	0	2049	1801	3848	80
46	0	0	2029	1801	3849	81
47	0	0	2029	1802	3850	83
48	0	0	2038	1803	3847	84
49	0	0	2059	1802	3848	81
50	0	0	2082	1804	3847	81
51	0	0	2111	1804	3847	82
52	0	0	2140	1803	3847	81
53	0	0	2155	1805	3846	80
54	0	0	2166	1806	3846	80
55	0	0	2199	1803	3847	81
56	0	0	2255	1803	3847	79
57	0	0	2323	1804	3847	79
58	0	0	2381	1802	3847	80
59	0	0	2435	1801	3849	79
60	0	0	2473	1802	3848	79
61	0	0	2502	1802	3847	80
62	0	0	2540	1801	3848	80
63	0	0	2575	1799	3849	80
64	0	0	2603	1804	3848	81
65	0	0	2620	1801	3847	81
66	0	0	2631	1800	3846	81
67	0	0	2640	1803	3846	80
68	0	0	2634	1802	3847	82
69	0	0	2619	1805	3847	81
70	0	0	2605	1803	3845	78
71	0	0	2585	1803	3847	79
72	0	0	2562	1803	3847	80
73	0	0	2524	1801	3847	80
74	0	0	2481	1802	3848	80
75	0	0	2461	1803	3847	78
76	0	0	2454	1803	3847	80
77	0	0	2448	1802	3848	79
78	0	0	2421	1799	3847	79
79	0	0	2373	1800	3849	79
80	0	0	2322	1797	3847	79
81	0	0	2292	1798	3847	79
82	0	0	2272	1799	3847	80
83	0	0	2230	1796	3847	80
84	0	0	2160	1796	3847	80
85	0	0	2089	1796	3843	82
86	0	0	2015	1796	3847	84
87	0	0	1951	1797	3847	82
88	0	0	1909	1798	3847	82
89	0	0	1883	1801	3847	81
90	0	0	1865	1799	3847	81
91	0	0	1852	1800	3848	81
92	0	0	1844	1801	3850	82
93	0	0	1835	1803	3849	81
94	0	0	1846	1803	3848	79
95	0	0	1869	1802	3847	80
96	0	0	1897	1801	3849	80
97	0	0	1933	1802	3848	80
98	0	0	1963	1801	3849	79
99	0	0	1980	1801	3848	79
100	0	0	1985	1799	3847	79
101	0	0	1994	1799	3848	79
102	0	0	1993	1799	3850	82
103	0	0	1993	1799	3847	81
104	0	0	2007	1801	3848	81
105	0	0	2018	1798	3847	81
106	0	0	2033	1799	3847	80
107	0	0	2027	1799	3847	82
108	0	0	2000	1798	3848	79
109	0	0	1989	1800	3848	82
110	0	0	1991	1800	3848	81
111	0	0	1985	1800	3847	82
112	0	0	1973	1801	3847	80
113	0	0	1966	1801	3848	79
114	0	0	1950	1801	3847	80
115	0	0	1922	1798	3849	79
116	0	0	1916	1798	3847	80
117	0	0	1930	1800	3847	82
118	0	0	1950	1801	3847	79
119	0	0	1973	1800	3847	78
120	0	0	2004	1798	3846	79
121	0	0	2024	1795	3847	79
122	0	0	2033	1799	3847	80
123	0	0	2045	1798	3849	83
124	0	0	2042	1799	3848	81
125	0	0	2027	1796	3847	79
126	0	0	2005	1795	3848	82
127	0	0	1993	1799	3847	81
0	0	0	1993	1799	3848	80
1	0	0	1998	1798	3848	81
2	0	0	2000	1799	3847	81
3	0	0	1986	1797	3848	81
4	0	0	1970	1799	3848	84
5	0	0	1963	1799	3849	81
6	0	0	1961	1801	3848	81
7	0	0	1969	1799	3847	80
8	0	0	1983	1800	3846	80
9	0	0	2003	1798	3847	79
10	0	0	2017	1798	3849	83
11	0	0	2024	1798	3847	80
12	0	0	2032	1796	3847	79
13	0	0	2058	1796	3848	81
14	0	0	2069	1797	3848	80
15	0	0	2061	1797	3846	80
16	0	0	2044	1795	3848	81
17	0	0	2036	1797	3848	81
18	0	0	2035	1798	3849	82
19	0	0	2042	1798	3847	81
20	0	0	2043	1798	3849	83
21	0	0	2021	1796	3847	82
22	0	0	2010	1798	3847	81
23	0	0	1991	1797	3845	83
24	0	0	1976	1795	3846	81
25	0	0	1960	1798	3844	80
26	0	0	1949	1798	3843	80
27	0	0	1955	1799	3848	79
28	0	0	1968	1798	3847	80
29	0	0	1985	1798	3847	80
30	0	0	1991	1797	3849	80
31	0	0	2001	1797	3849	79
32	0	0	1998	1796	3847	79
33	0	0	2008	1797	3847	80
34	0	0	2029	1797	3848	82
35	0	0	2048	1795	3847	81
36	0	0	2060	1796	3847	81
37	0	0	2065	1796	3847	81
38	0	0	2061	1797	3845	83
39	0	0	2051	1795	3848	79
40	0	0	2025	1795	3844	81
41	0	0	2003	1796	3847	82
42	0	0	1999	1798	3848	81
43	0	0	1998	1796	3846	81
44	0	0	2003	1797	3846	81
45	0	0	2011	1798	3847	81
46	0	0	2002	1797	3847	80
47	0	0	1993	1798	3847	80
48	0	0	1994	1797	3849	80
49	0	0	2011	1797	3849	80
50	0	0	2016	1796	3848	80
51	0	0	2018	1796	3849	79
52	0	0	2023	1796	3847	79
53	0	0	2030	1796	3844	82
54	0	0	2036	1793	3846	80
55	0	0	2036	1795	3846	80
56	0	0	2035	1795	3847	81
57	0	0	2035	1795	3848	82
58	0	0	2029	1795	3846	82
59	0	0	2035	1793	3847	81
60	0	0	2040	1797	3848	82
61	0	0	2045	1796	3847	82
62	0	0	2040	1796	3847	82
63	0	0	2018	1794	3849	81
64	0	0	2001	1796	3850	82
65	0	0	1995	1797	3850	81
66	0	0	1993	1797	3848	81
67	0	0	2000	1796	3847	80
68	0	0	2011	1798	3848	80
69	0	0	2023	1795	3848	80
70	0	0	2030	1796	3848	80
71	0	0	2042	1795	3847	79
72	0	0	2054	1794	3846	79
73	0	0	2067	1795	3846	79
74	0	0	2083	1794	3848	79
75	0	0	2088	1794	3847	81
76	0	0	2083	1795	3847	81
77	0	0	2061	1791	3847	81
78	0	0	2033	1794	3844	83
79	0	0	2029	1794	3848	79
80	0	0	2022	1795	3850	82
81	0	0	2007	1796	3848	82
82	0	0	1994	1794	3847	82
83	0	0	1984	1796	3848	81
84	0	0	1985	1796	3848	79
85	0	0	1996	1797	3846	80
86	0	0	2014	1796	3847	80
87	0	0	2027	1795	3847	80
88	0	0	2039	1797	3845	79
89	0	0	2052	1795	3848	79
90	0	0	2074	1795	3849	80
91	0	0	2090	1794	3848	79
92	0	0	2099	1793	3846	78
93	0	0	2104	1793	3847	79
94	0	0	2094	1790	3847	80
95	0	0	2078	1791	3846	80
96	0	0	2062	1792	3847	81
97	0	0	2051	1793	3847	81
98	0	0	2046	1793	3847	82
99	0	0	2050	1794	3848	82
100	0	0	2048	1795	3848	82
101	0	0	2037	1795	3848	82
102	0	0	2032	1796	3849	81
103	0	0	2029	1796	3847	81
104	0	0	2033	1795	3847	80
105	0	0	2049	1796	3848	81
106	0	0	2078	1795	3847	81
107	0	0	2098	1796	3847	80
108	0	0	2092	1793	3848	80
109	0	0	2062	1792	3846	80
110	0	0	2040	1792	3847	79
111	0	0	2038	1794	3847	79
112	0	0	2060	1793	3848	79
113	0	0	2093	1792	3848	80
114	0	0	2118	1791	3847	79
115	0	0	2122	1791	3850	80
116	0	0	2115	1792	3847	81
117	0	0	2112	1792	3848	82
118	0	0	2099	1791	3848	80
119	0	0	2088	1795	3846	81
120	0	0	2091	1794	3847	82
121	0	0	2099	1794	3847	82
122	0	0	2091	1793	3847	81
123	0	0	2071	1793	3848	82
124	0	0	2063	1793	3847	80
125	0	0	2063	1795	3846	80
126	0	0	2061	1793	3847	80
127	0	0	2070	1795	3847	79
0	0	0	2090	1793	3847	80
1	0	0	2101	1792	3847	80
2	0	0	2099	1793	3847	81
3	0	0	2095	1792	3847	80
4	0	0	2100	1792	3847	80
5	0	0	2122	1793	3847	80
6	0	0	2157	1793	3846	80
7	0	0	2175	1791	3847	80
8	0	0	2159	1789	3848	80
9	0	0	2130	1790	3847	81
10	0	0	2123	1792	3848	81
11	0	0	2115	1790	3847	80
12	0	0	2102	1793	3847	82
13	0	0	2100	1793	3847	81
14	0	0	2110	1793	3848	82
15	0	0	2109	1793	3847	83
16	0	0	2098	1795	3846	81
17	0	0	2093	1793	3847	80
18	0	0	2085	1793	3847	81
19	0	0	2084	1793	3847	80
20	0	0	2100	1793	3847	80
21	0	0	2128	1794	3847	79
22	0	0	2156	1793	3847	79
23	0	0	2178	1792	3849	78
24	0	0	2188	1789	3847	77
25	0	0	2203	1790	3847	79
26	0	0	2213	1792	3846	80
27	0	0	2202	1791	3847	79
28	0	0	2191	1789	3847	80
29	0	0	2182	1791	3852	80
30	0	0	2170	1790	3847	83
31	0	0	2164	1792	3846	81
32	0	0	2158	1791	3847	82
33	0	0	2145	1792	3848	82
34	0	0	2151	1793	3846	82
35	0	0	2152	1794	3847	82
36	0	0	2140	1794	3849	83
37	0	0	2138	1793	3847	81
38	0	0	2139	1793	3848	80
39	0	0	2144	1793	3847	80
40	0	0	2149	1793	3849	80
41	0	0	2157	1792	3849	84
42	0	0	2170	1792	3847	81
43	0	0	2198	1791	3848	79
44	0	0	2223	1790	3847	78
45	0	0	2240	1791	3848	79
46	0	0	2251	1790	3847	79
47	0	0	2249	1790	3847	79
48	0	0	2231	1789	3847	79
49	0	0	2219	1790	3847	80
50	0	0	2208	1790	3847	80
51	0	0	2205	1792	3847	83
52	0	0	2204	1792	3847	82
53	0	0	2208	1792	3848	82
54	0	0	2204	1792	3847	82
55	0	0	2197	1792	3847	81
56	0	0	2185	1793	3847	82
57	0	0	2177	1793	3848	82
58	0	0	2172	1792	3848	80
59	0	0	2174	1793	3849	82
60	0	0	2190	1793	3847	80
61	0	0	2204	1792	3847	79
62	0	0	2216	1791	3847	79
63	0	0	2233	1790	3848	79
64	0	0	2231	1790	3847	78
65	0	0	2237	1790	3846	78
66	0	0	2255	1790	3846	78
67	0	0	2264	1789	3844	81
68	0	0	2263	1788	3848	81
69	0	0	2246	1787	3847	80
70	0	0	2208	1786	3848	81
71	0	0	2166	1788	3847	80
72	0	0	2129	1788	3848	82
73	0	0	2111	1790	3850	82
74	0	0	2101	1791	3847	80
75	0	0	2089	1792	3849	81
76	0	0	2089	1792	3845	82
77	0	0	2102	1792	3844	82
78	0	0	2122	1791	3848	80
79	0	0	2120	1790	3846	80
80	0	0	2101	1789	3849	78
81	0	0	2094	1790	3847	76
82	0	0	2094	1790	3845	79
83	0	0	2098	1790	3848	79
84	0	0	2110	1788	3847	79
85	0	0	2124	1789	3847	79
86	0	0	2125	1790	3847	79
87	0	0	2113	1788	3848	79
88	0	0	2098	1788	3848	80
89	0	0	2091	1788	3848	81
90	0	0	2086	1788	3850	81
91	0	0	2067	1788	3848	80
92	0	0	2053	1789	3845	82
93	0	0	2050	1790	3848	83
94	0	0	2050	1790	3847	79
95	0	0	2048	1789	3848	80
96	0	0	2040	1790	3841	79
97	0	0	2038	1791	3848	79
98	0	0	2040	1791	3848	80
99	0	0	2041	1791	3847	79
100	0	0	2043	1790	3847	79
101	0	0	2051	1790	3847	77
102	0	0	2058	1789	3848	79
103	0	0	2065	1788	3849	78
104	0	0	2073	1787	3847	79
105	0	0	2085	1788	3847	80
106	0	0	2102	1788	3848	80
107	0	0	2117	1788	3849	79
108	0	0	2116	1787	3848	80
109	0	0	2080	1785	3848	81
110	0	0	2037	1784	3847	80
111	0	0	2007	1786	3847	80
112	0	0	2003	1789	3846	81
113	0	0	2003	1789	3848	81
114	0	0	1983	1787	3847	81
115	0	0	1956	1787	3847	81
116	0	0	1940	1789	3847	79
117	0	0	1933	1791	3847	79
118	0	0	1932	1790	3847	80
119	0	0	1947	1790	3847	79
120	0	0	1985	1789	3847	79
121	0	0	2016	1788	3848	79
122	0	0	2029	1789	3849	78
123	0	0	2027	1788	3849	79
124	0	0	2030	1787	3847	79
125	0	0	2040	1786	3848	79
126	0	0	2034	1786	3848	80
127	0	0	2012	1785	3847	79
0	0	0	2008	1786	3847	80
1	0	0	2016	1787	3847	80
2	0	0	2000	1785	3847	80
3	0	0	1978	1786	3846	80
4	0	0	1965	1786	3848	80
5	0	0	1941	1786	3847	80
6	0	0	1926	1787	3847	81
7	0	0	1925	1789	3847	80
8	0	0	1940	1789	3848	79
9	0	0	1941	1789	3848	79
10	0	0	1921	1787	3847	79
11	0	0	1923	1789	3849	79
12	0	0	1935	1789	3847	79
13	0	0	1955	1789	3847	78
14	0	0	1972	1789	3849	79
15	0	0	1978	1788	3847	78
16	0	0	1984	1785	3844	79
17	0	0	1989	1786	3848	79
18	0	0	2000	1786	3848	79
19	0	0	2001	1785	3847	80
20	0	0	1994	1785	3846	80
21	0	0	1989	1786	3847	79
22	0	0	1982	1786	3848	81
23	0	0	1983	1786	3848	81
24	0	0	1984	1787	3849	80
25	0	0	1966	1786	3846	82
26	0	0	1957	1788	3847	80
27	0	0	1939	1786	3848	80
28	0	0	1917	1788	3848	80
29	0	0	1923	1788	3848	81
30	0	0	1941	1789	3848	79
31	0	0	1956	1789	3845	80
32	0	0	1980	1787	3849	78
33	0	0	1995	1788	3846	77
34	0	0	1998	1787	3849	78
35	0	0	1995	1786	3847	78
36	0	0	1993	1785	3847	79
37	0	0	2014	1785	3846	78
38	0	0	2032	1785	3847	78
39	0	0	2038	1785	3848	79
40	0	0	2029	1785	3846	80
41	0	0	2017	1784	3846	80
42	0	0	2000	1784	3847	80
43	0	0	1976	1784	3847	80
44	0	0	1962	1787	3848	80
45	0	0	1961	1787	3847	80
46	0	0	1965	1788	3848	81
47	0	0	1965	1786	3847	80
48	0	0	1959	1787	3845	80
49	0	0	1945	1787	3847	79
50	0	0	1955	1788	3847	80
51	0	0	1990	1786	3847	79
52	0	0	2019	1787	3848	79
53	0	0	2019	1784	3848	79
54	0	0	1993	1784	3845	77
55	0	0	1979	1785	3847	79
56	0	0	1984	1784	3846	79
57	0	0	2018	1784	3847	79
58	0	0	2050	1783	3848	79
59	0	0	2071	1785	3847	78
60	0	0	2060	1782	3849	81
61	0	0	2025	1781	3847	81
62	0	0	2004	1785	3848	81
63	0	0	1996	1785	3851	81
64	0	0	1997	1785	3848	79
65	0	0	1993	1785	3847	81
66	0	0	1982	1785	3846	80
67	0	0	1964	1784	3846	80
68	0	0	1951	1787	3847	80
69	0	0	1956	1787	3847	80
70	0	0	1967	1786	3847	81
71	0	0	1990	1787	3848	79
72	0	0	2011	1786	3845	78
73	0	0	2019	1787	3847	79
74	0	0	2038	1785	3848	77
75	0	0	2053	1785	3847	77
76	0	0	2059	1785	3848	78
77	0	0	2064	1783	3848	79
78	0	0	2051	1781	3848	79
79	0	0	2033	1782	3850	80
80	0	0	2026	1783	3847	80
81	0	0	2023	1784	3847	80
82	0	0	2022	1786	3848	81
83	0	0	2023	1785	3848	81
84	0	0	2023	1785	3847	80
85	0	0	2011	1783	3847	81
86	0	0	1991	1782	3846	80
87	0	0	1970	1783	3846	80
88	0	0	1964	1785	3849	80
89	0	0	1975	1785	3847	80
90	0	0	1978	1785	3847	80
91	0	0	1988	1785	3850	77
92	0	0	2000	1785	3847	79
93	0	0	2002	1785	3848	78
94	0	0	2009	1783	3850	78
95	0	0	2016	1784	3848	80
96	0	0	2020	1782	3847	77
97	0	0	2032	1782	3847	79
98	0	0	2041	1782	3849	78
99	0	0	2039	1782	3845	79
100	0	0	2020	1781	3847	79
101	0	0	2010	1782	3847	79
102	0	0	2004	1782	3847	81
103	0	0	2004	1783	3848	80
104	0	0	2023	1784	3845	83
105	0	0	2038	1784	3849	82
106	0	0	2032	1785	3847	81
107	0	0	2020	1785	3847	80
108	0	0	2011	1785	3846	80
109	0	0	2015	1786	3848	79
110	0	0	2025	1785	3848	79
111	0	0	2007	1783	3847	79
112	0	0	1998	1784	3847	79
113	0	0	1998	1784	3847	80
114	0	0	2005	1784	3848	78
115	0	0	2017	1784	3848	78
116	0	0	2017	1782	3846	78
117	0	0	2022	1782	3847	79
118	0	0	2029	1782	3847	79
119	0	0	2039	1782	3847	80
120	0	0	2045	1782	3847	81
121	0	0	2061	1782	3847	81
122	0	0	2048	1780	3847	80
123	0	0	2021	1780	3848	81
124	0	0	2003	1782	3847	81
125	0	0	1994	1783	3848	81
126	0	0	1985	1783	3847	80
127	0	0	1983	1781	3846	80
0	0	0	1980	1784	3848	80
1	0	0	1974	1785	3845	84
2	0	0	1982	1784	3848	82
3	0	0	1993	1783	3847	79
4	0	0	1996	1781	3848	82
5	0	0	2008	1783	3848	79
6	0	0	2033	1783	3845	80
7	0	0	2051	1782	3847	78
8	0	0	2043	1782	3848	79
9	0	0	2040	1781	3845	79
10	0	0	2059	1781	3848	79
11	0	0	2086	1781	3848	79
12	0	0	2096	1781	3848	81
13	0	0	2090	1781	3847	80
14	0	0	2070	1779	3848	80
15	0	0	2055	1781	3848	81
16	0	0	2047	1784	3849	81
17	0	0	2024	1780	3849	81
18	0	0	1996	1782	3847	79
19	0	0	1978	1783	3847	81
20	0	0	1980	1783	3847	86
21	0	0	1974	1783	3847	79
22	0	0	1965	1783	3845	80
23	0	0	1965	1782	3846	79
24	0	0	1974	1785	3847	78
25	0	0	1985	1783	3847	79
26	0	0	2006	1782	3845	82
27	0	0	2027	1781	3847	79
28	0	0	2041	1782	3847	79
29	0	0	2051	1780	3847	79
30	0	0	2034	1779	3848	77
31	0	0	2014	1779	3847	78
32	0	0	2020	1780	3845	81
33	0	0	2026	1781	3849	80
34	0	0	2014	1780	3848	79
35	0	0	1994	1780	3847	80
36	0	0	1990	1782	3848	79
37	0	0	2000	1782	3848	81
38	0	0	2004	1784	3843	81
39	0	0	1981	1780	3848	81
40	0	0	1966	1781	3845	81
41	0	0	1951	1782	3847	79
42	0	0	1945	1783	3845	80
43	0	0	1950	1782	3847	79
44	0	0	1957	1781	3849	79
45	0	0	1970	1783	3849	79
46	0	0	1999	1781	3848	77
47	0	0	2019	1780	3848	79
48	0	0	2029	1780	3847	78
49	0	0	2059	1779	3849	79
50	0	0	2092	1780	3848	79
51	0	0	2106	1779	3848	79
52	0	0	2115	1780	3848	80
53	0	0	2100	1777	3847	80
54	0	0	2062	1777	3848	80
55	0	0	2014	1777	3848	84
56	0	0	1981	1779	3847	79
57	0	0	1962	1780	3848	81
58	0	0	1955	1782	3846	81
59	0	0	1957	1781	3847	80
60	0	0	1963	1782	3846	79
61	0	0	1971	1782	3845	83
62	0	0	1973	1781	3847	79
63	0	0	1976	1782	3848	79
64	0	0	1998	1781	3847	79
65	0	0	2028	1781	3848	79
66	0	0	2045	1781	3849	75
67	0	0	2036	1779	3845	79
68	0	0	2013	1780	3847	79
69	0	0	2008	1778	3848	79
70	0	0	2013	1780	3847	78
71	0	0	2014	1779	3847	78
72	0	0	2019	1778	3846	79
73	0	0	2022	1779	3846	80
74	0	0	2019	1778	3849	83
75	0	0	2014	1781	3847	81
76	0	0	2012	1781	3848	79
77	0	0	2013	1781	3849	81
78	0	0	1998	1779	3846	81
79	0	0	1977	1778	3849	82
80	0	0	1959	1779	3846	81
81	0	0	1958	1781	3848	79
82	0	0	1963	1782	3846	79
83	0	0	1978	1782	3847	79
84	0	0	2000	1780	3849	79
85	0	0	2025	1780	3847	79
86	0	0	2042	1781	3847	75
87	0	0	2041	1779	3846	79
88	0	0	2027	1777	3846	79
89	0	0	2013	1777	3848	79
90	0	0	2007	1778	3847	79
91	0	0	2016	1778	3846	79
92	0	0	2036	1779	3845	80
93	0	0	2047	1778	3848	80
94	0	0	2041	1778	3848	81
95	0	0	2025	1777	3847	81
96	0	0	2022	1779	3848	80
97	0	0	2016	1779	3847	81
98	0	0	2015	1781	3848	81
99	0	0	2016	1780	3848	83
100	0	0	2015	1780	3847	80
101	0	0	2018	1781	3849	80
102	0	0	2027	1777	3845	78
103	0	0	2039	1781	3847	79
104	0	0	2057	1779	3848	79
105	0	0	2068	1779	3844	79
106	0	0	2062	1780	3847	79
107	0	0	2064	1777	3847	78
108	0	0	2059	1777	3846	79
109	0	0	2042	1776	3846	79
110	0	0	2027	1775	3846	79
111	0	0	2019	1777	3847	78
112	0	0	2021	1777	3847	80
113	0	0	2041	1778	3848	81
114	0	0	2061	1778	3846	80
115	0	0	2055	1777	3847	80
116	0	0	2038	1778	3848	80
117	0	0	2035	1779	3848	81
118	0	0	2041	1779	3847	79
119	0	0	2031	1777	3848	80
120	0	0	2000	1777	3846	80
121	0	0	1978	1778	3847	80
122	0	0	1978	1779	3847	78
123	0	0	1991	1780	3847	79
124	0	0	1993	1778	3846	79
125	0	0	2002	1780	3845	78
126	0	0	2023	1778	3847	76
127	0	0	2031	1777	3847	79
0	0	0	2026	1777	3846	79
1	0	0	2041	1777	3847	79
2	0	0	2050	1776	3847	79
3	0	0	2060	1777	3849	80
4	0	0	2072	1776	3847	81
5	0	0	2063	1776	3849	81
6	0	0	2048	1777	3847	81
7	0	0	2041	1777	3847	80
8	0	0	2031	1778	3847	80
9	0	0	2024	1778	3847	80
10	0	0	2016	1779	3844	80
11	0	0	2015	1778	3848	81
12	0	0	2011	1778	3844	79
13	0	0	1997	1777	3845	80
14	0	0	1988	1779	3847	80
15	0	0	1985	1778	3847	79
16	0	0	1980	1778	3849	78
17	0	0	1981	1778	3847	77
18	0	0	1990	1779	3847	76
19	0	0	1999	1777	3847	78
20	0	0	1999	1776	3847	79
21	0	0	1999	1776	3849	79
22	0	0	2012	1776	3848	80
23	0	0	2021	1777	3847	80
24	0	0	2040	1776	3848	81
25	0	0	2058	1776	3847	80
26	0	0	2053	1776	3846	79
27	0	0	2028	1774	3847	81
28	0	0	1994	1774	3846	80
29	0	0	1972	1777	3846	80
30	0	0	1968	1778	3843	81
31	0	0	1966	1777	3846	80
32	0	0	1959	1778	3846	79
33	0	0	1975	1778	3846	78
34	0	0	2003	1778	3847	79
35	0	0	2020	1778	3847	80
36	0	0	2028	1777	3847	79
37	0	0	2032	1779	3848	76
38	0	0	2035	1777	3848	76
39	0	0	2038	1776	3847	78
40	0	0	2040	1776	3847	79
41	0	0	2054	1774	3847	79
42	0	0	2067	1775	3847	77
43	0	0	2053	1772	3847	80
44	0	0	2029	1773	3845	35
45	0	0	2028	1775	3849	80
46	0	0	2026	1774	3847	77
47	0	0	2017	1775	3847	75
48	0	0	2019	1776	3846	76
49	0	0	2014	1777	3847	80
50	0	0	2011	1777	3846	81
51	0	0	2014	1777	3847	80
52	0	0	2012	1778	3847	80
53	0	0	2013	1779	3849	80
54	0	0	2030	1778	3847	79
55	0	0	2026	1778	3849	79
56	0	0	2020	1777	3849	82
57	0	0	2028	1777	3848	79
58	0	0	2039	1776	3848	78
59	0	0	2049	1776	3847	79
60	0	0	2054	1776	3848	79
61	0	0	2067	1774	3848	79
62	0	0	2082	1775	3849	79
63	0	0	2079	1775	3848	76
64	0	0	2068	1774	3846	76
65	0	0	2065	1776	3847	78
66	0	0	2063	1774	3847	80
67	0	0	2063	1776	3848	80
68	0	0	2065	1776	3848	84
69	0	0	2062	1776	3847	80
70	0	0	2055	1776	3847	78
71	0	0	2049	1776	3850	77
72	0	0	2049	1777	3849	75
73	0	0	2056	1777	3848	82
74	0	0	2049	1776	3846	79
75	0	0	2042	1776	3847	79
76	0	0	2046	1777	3847	79
77	0	0	2048	1776	3848	79
78	0	0	2050	1776	3847	82
79	0	0	2061	1775	3846	77
80	0	0	2075	1774	3847	79
81	0	0	2086	1773	3846	79
82	0	0	2087	1774	3847	79
83	0	0	2082	1774	3847	79
84	0	0	2073	1773	3848	80
85	0	0	2065	1774	3847	81
86	0	0	2059	1773	3847	81
87	0	0	2061	1775	3848	76
88	0	0	2062	1776	3848	79
89	0	0	2062	1775	3847	77
90	0	0	2054	1775	3848	82
91	0	0	2041	1775	3847	80
92	0	0	2044	1776	3848	80
93	0	0	2036	1777	3848	82
94	0	0	2028	1776	3848	80
95	0	0	2024	1776	3848	79
96	0	0	2035	1775	3847	79
97	0	0	2035	1775	3847	79
98	0	0	2026	1775	3848	79
99	0	0	2023	1774	3846	79
100	0	0	2029	1774	3848	78
101	0	0	2042	1776	3846	79
102	0	0	2060	1775	3848	79
103	0	0	2065	1772	3848	79
104	0	0	2061	1773	3848	77
105	0	0	2053	1773	3848	79
106	0	0	2046	1774	3847	76
107	0	0	2041	1774	3848	80
108	0	0	2031	1774	3844	83
109	0	0	2025	1774	3848	80
110	0	0	2029	1775	3843	82
111	0	0	2025	1776	3847	78
112	0	0	2021	1776	3847	76
113	0	0	2030	1775	3847	79
114	0	0	2038	1776	3849	80
115	0	0	2040	1775	3847	79
116	0	0	2041	1774	3848	80
117	0	0	2046	1775	3849	79
118	0	0	2046	1774	3847	79
119	0	0	2038	1775	3848	77
120	0	0	2027	1773	3847	78
121	0	0	2031	1774	3847	79
122	0	0	2051	1773	3848	79
123	0	0	2065	1772	3848	79
124	0	0	2058	1772	3850	81
125	0	0	2052	1773	3847	80
126	0	0	2051	1773	3847	81
127	0	0	2053	1774	3848	80
0	0	0	2048	1773	3847	75
1	0	0	2040	1774	3848	79
2	0	0	2025	1773	3848	77
3	0	0	2004	1771	3848	80
4	0	0	1996	1774	3847	81
5	0	0	1988	1776	3848	80
6	0	0	1988	1773	3845	79
7	0	0	2006	1773	3847	79
8	0	0	2033	1774	3847	80
9	0	0	2057	1775	3848	80
10	0	0	2077	1774	3848	80
11	0	0	2095	1773	3850	79
12	0	0	2100	1772	3847	77
13	0	0	2096	1772	3847	78
14	0	0	2082	1771	3846	79
15	0	0	2062	1769	3847	79
16	0	0	2042	1770	3848	80
17	0	0	2043	1772	3847	77
18	0	0	2053	1773	3847	78
19	0	0	2055	1773	3848	78
20	0	0	2045	1773	3847	80
21	0	0	2034	1773	3848	81
22	0	0	2020	1772	3847	80
23	0	0	2011	1774	3846	80
24	0	0	2003	1775	3848	78
25	0	0	2002	1775	3848	80
26	0	0	2008	1774	3848	80
27	0	0	2016	1774	3847	80
28	0	0	2023	1774	3845	79
29	0	0	2012	1773	3847	79
30	0	0	2002	1772	3847	79
31	0	0	2001	1772	3847	78
32	0	0	2005	1771	3846	79
33	0	0	2008	1771	3846	79
34	0	0	2019	1770	3846	79
35	0	0	2024	1771	3847	75
36	0	0	2032	1771	3848	77
37	0	0	2037	1771	3846	80
38	0	0	2028	1771	3847	82
39	0	0	2017	1772	3848	81
40	0	0	2021	1771	3848	81
41	0	0	2032	1773	3848	78
42	0	0	2043	1773	3847	77
43	0	0	2051	1773	3847	80
44	0	0	2063	1771	3847	80
45	0	0	2083	1774	3848	77
46	0	0	2132	1773	3847	79
47	0	0	2190	1773	3848	79
48	0	0	2235	1771	3845	79
49	0	0	2249	1769	3849	80
50	0	0	2262	1773	3847	80
51	0	0	2284	1772	3847	77
52	0	0	2302	1773	3848	79
53	0	0	2326	1771	3844	79
54	0	0	2372	1769	3846	79
55	0	0	2422	1771	3848	77
56	0	0	2477	1770	3847	80
57	0	0	2529	1770	3848	80
58	0	0	2561	1771	3848	77
59	0	0	2576	1772	3850	78
60	0	0	2581	1772	3848	80
61	0	0	2590	1772	3849	80
62	0	0	2604	1772	3847	83
63	0	0	2616	1773	3848	82
64	0	0	2626	1772	3848	80
65	0	0	2636	1773	3847	80
66	0	0	2640	1773	3847	80
67	0	0	2630	1772	3846	79
68	0	0	2605	1772	3847	79
69	0	0	2585	1770	3847	78
70	0	0	2564	1770	3847	76
71	0	0	2532	1769	3850	80
72	0	0	2499	1768	3847	79
73	0	0	2474	1769	3847	79
74	0	0	2451	1766	3847	79
75	0	0	2426	1767	3849	77
76	0	0	2389	1767	3847	77
77	0	0	2337	1767	3849	78
78	0	0	2275	1767	3847	80
79	0	0	2216	1764	3847	80
80	0	0	2157	1768	3848	82
81	0	0	2105	1767	3847	81
82	0	0	2050	1769	3850	79
83	0	0	1990	1769	3846	79
84	0	0	1944	1767	3847	75
85	0	0	1918	1770	3847	80
86	0	0	1905	1771	3847	80
87	0	0	1910	1772	3847	79
88	0	0	1922	1771	3844	79
89	0	0	1942	1771	3847	77
90	0	0	1955	1771	3847	80
91	0	0	1964	1770	3847	77
92	0	0	1968	1770	3847	78
93	0	0	1982	1769	3848	78
94	0	0	2004	1768	3848	79
95	0	0	2016	1771	3847	80
96	0	0	2024	1769	3848	80
97	0	0	2026	1767	3847	80
98	0	0	2025	1769	3848	84
99	0	0	2018	1769	3847	78
100	0	0	1999	1769	3847	80
101	0	0	1981	1769	3847	77
102	0	0	1977	1771	3845	80
103	0	0	2000	1772	3845	79
104	0	0	2027	1773	3847	79
105	0	0	2036	1771	3847	80
106	0	0	2009	1768	3847	80
107	0	0	1988	1771	3846	79
108	0	0	1978	1771	3848	79
109	0	0	1967	1773	3847	79
110	0	0	1964	1771	3847	80
111	0	0	1963	1769	3847	78
112	0	0	1974	1770	3847	78
113	0	0	1991	1768	3845	78
114	0	0	2009	1771	3847	79
115	0	0	2018	1769	3847	80
116	0	0	2033	1768	3846	79
117	0	0	2050	1769	3846	77
118	0	0	2040	1767	3846	78
119	0	0	2015	1768	3847	81
120	0	0	1988	1768	3847	82
121	0	0	1982	1769	3846	80
122	0	0	1992	1772	3846	80
123	0	0	1991	1771	3845	75
124	0	0	1980	1771	3847	77
125	0	0	1989	1771	3848	80
126	0	0	2002	1770	3847	81
127	0	0	2009	1770	3849	80
0	0	0	2028	1772	3847	79
1	0	0	2043	1768	3847	79
2	0	0	2048	1769	3848	79
3	0	0	2056	1769	3846	80
4	0	0	2054	1769	3848	79
5	0	0	2052	1769	3847	81
6	0	0	2045	1768	3846	78
7	0	0	2041	1768	3848	77
8	0	0	2049	1767	3847	82
9	0	0	2059	1768	3846	81
10	0	0	2066	1768	3847	80
11	0	0	2071	1771	3847	79
12	0	0	2064	1768	3847	78
13	0	0	2039	1767	3847	79
14	0	0	2015	1769	3846	78
15	0	0	1999	1769	3848	80
16	0	0	1985	1771	3848	77
17	0	0	1981	1771	3848	80
18	0	0	1986	1771	3847	79
19	0	0	1996	1770	3847	79
20	0	0	2009	1769	3848	80
21	0	0	2027	1770	3848	79
22	0	0	2045	1770	3847	79
23	0	0	2055	1769	3848	78
24	0	0	2067	1766	3846	79
25	0	0	2072	1768	3847	80
26	0	0	2076	1767	3845	77
27	0	0	2074	1767	3847	77
28	0	0	2073	1767	3847	83
29	0	0	2061	1766	3847	80
30	0	0	2039	1766	3848	80
31	0	0	2028	1770	3848	81
32	0	0	2032	1768	3848	79
33	0	0	2034	1768	3847	79
34	0	0	2035	1769	3847	79
35	0	0	2039	1770	3846	79
36	0	0	2045	1770	3848	80
37	0	0	2050	1770	3847	79
38	0	0	2044	1769	3847	80
39	0	0	2043	1770	3848	79
40	0	0	2058	1770	3848	79
41	0	0	2069	1768	3845	79
42	0	0	2066	1769	3847	78
43	0	0	2061	1767	3847	82
44	0	0	2044	1765	3846	79
45	0	0	2028	1766	3847	77
46	0	0	2031	1768	3848	80
47	0	0	2062	1767	3848	80
48	0	0	2083	1767	3848	80
49	0	0	2094	1768	3848	78
50	0	0	2089	1767	3853	79
51	0	0	2076	1766	3845	79
52	0	0	2069	1768	3848	81
53	0	0	2070	1768	3847	83
54	0	0	2072	1769	3848	82
55	0	0	2056	1767	3847	81
56	0	0	2023	1765	3846	77
57	0	0	2007	1768	3847	80
58	0	0	1989	1767	3848	83
59	0	0	1986	1769	3845	80
60	0	0	2005	1768	3848	78
61	0	0	2025	1769	3848	80
62	0	0	2044	1768	3848	79
63	0	0	2056	1766	3847	77
64	0	0	2056	1766	3847	79
65	0	0	2065	1765	3847	79
66	0	0	2086	1766	3848	84
67	0	0	2114	1767	3847	77
68	0	0	2138	1765	3848	77
69	0	0	2154	1766	3847	81
70	0	0	2154	1767	3846	79
71	0	0	2129	1764	3848	85
72	0	0	2076	1764	3847	81
73	0	0	2021	1764	3847	78
74	0	0	2003	1769	3846	77
75	0	0	2006	1767	3847	77
76	0	0	1997	1768	3847	81
77	0	0	1995	1769	3847	83
78	0	0	2024	1768	3847	83
79	0	0	2056	1768	3848	80
80	0	0	2073	1769	3848	77
81	0	0	2079	1768	3848	79
82	0	0	2091	1767	3848	79
83	0	0	2105	1766	3847	77
84	0	0	2117	1767	3846	80
85	0	0	2127	1765	3847	80
86	0	0	2139	1766	3848	80
87	0	0	2145	1766	3847	81
88	0	0	2150	1765	3847	81
89	0	0	2157	1765	3846	81
90	0	0	2165	1766	3847	75
91	0	0	2166	1766	3847	78
92	0	0	2135	1766	3847	77
93	0	0	2091	1764	3847	81
94	0	0	2064	1767	3848	80
95	0	0	2055	1768	3848	81
96	0	0	2054	1768	3846	81
97	0	0	2058	1768	3848	80
98	0	0	2062	1767	3847	79
99	0	0	2065	1767	3847	79
100	0	0	2062	1766	3846	79
101	0	0	2062	1766	3848	82
102	0	0	2076	1767	3848	79
103	0	0	2114	1766	3846	79
104	0	0	2136	1765	3846	79
105	0	0	2145	1766	3847	79
106	0	0	2147	1764	3848	84
107	0	0	2136	1765	3846	76
108	0	0	2137	1765	3848	78
109	0	0	2141	1766	3846	78
110	0	0	2142	1766	3847	80
111	0	0	2143	1767	3848	83
112	0	0	2146	1764	3848	81
113	0	0	2137	1766	3847	83
114	0	0	2130	1768	3847	78
115	0	0	2121	1769	3847	78
116	0	0	2113	1767	3848	77
117	0	0	2103	1767	3848	79
118	0	0	2097	1767	3847	78
119	0	0	2092	1767	3846	79
120	0	0	2102	1768	3847	79
121	0	0	2129	1764	3847	79
122	0	0	2147	1765	3847	79
123	0	0	2153	1766	3847	79
124	0	0	2157	1766	3847	79
125	0	0	2183	1764	3847	77
126	0	0	2222	1764	3848	80
127	0	0	2245	1766	3846	80
0	0	0	2250	1764	3847	80
1	0	0	2252	1766	3847	81
2	0	0	2239	1764	3846	81
3	0	0	2208	1763	3848	80
4	0	0	2170	1762	3848	80
5	0	0	2137	1764	3847	79
6	0	0	2130	1765	3847	78
7	0	0	2121	1767	3847	78
8	0	0	2123	1765	3847	79
9	0	0	2137	1766	3847	82
10	0	0	2152	1767	3846	80
11	0	0	2165	1768	3847	79
12	0	0	2173	1764	3845	79
13	0	0	2182	1767	3847	79
14	0	0	2198	1766	3848	75
15	0	0	2195	1765	3846	75
16	0	0	2195	1764	3848	79
17	0	0	2223	1763	3847	79
18	0	0	2260	1762	3847	79
19	0	0	2271	1764	3848	80
20	0	0	2263	1765	3847	80
21	0	0	2249	1763	3847	81
22	0	0	2242	1764	3847	81
23	0	0	2230	1762	3847	77
24	0	0	2209	1763	3848	79
25	0	0	2205	1765	3847	76
26	0	0	2214	1765	3847	81
27	0	0	2210	1767	3847	79
28	0	0	2197	1767	3847	80
29	0	0	2192	1767	3848	80
30	0	0	2185	1766	3843	80
31	0	0	2195	1767	3847	79
32	0	0	2220	1765	3846	79
33	0	0	2255	1764	3847	80
34	0	0	2286	1765	3847	79
35	0	0	2300	1764	3847	80
36	0	0	2290	1763	3847	78
37	0	0	2290	1765	3847	77
38	0	0	2300	1761	3847	81
39	0	0	2301	1760	3848	82
40	0	0	2311	1763	3847	76
41	0	0	2304	1763	3849	78
42	0	0	2293	1764	3847	76
43	0	0	2283	1764	3848	81
44	0	0	2274	1764	3847	83
45	0	0	2260	1766	3843	80
46	0	0	2252	1766	3845	79
47	0	0	2250	1764	3846	77
48	0	0	2250	1764	3847	77
49	0	0	2252	1766	3848	82
50	0	0	2258	1767	3847	80
51	0	0	2250	1765	3847	79
52	0	0	2237	1765	3846	79
53	0	0	2245	1763	3847	80
54	0	0	2264	1765	3847	79
55	0	0	2284	1765	3847	80
56	0	0	2304	1764	3847	79
57	0	0	2329	1759	3846	79
58	0	0	2348	1763	3847	80
59	0	0	2356	1762	3847	79
60	0	0	2355	1762	3847	81
61	0	0	2331	1761	3850	81
62	0	0	2294	1760	3846	81
63	0	0	2262	1759	3847	81
64	0	0	2237	1762	3847	79
65	0	0	2210	1763	3847	78
66	0	0	2194	1766	3847	78
67	0	0	2196	1766	3848	80
68	0	0	2221	1766	3849	82
69	0	0	2249	1766	3848	80
70	0	0	2263	1766	3848	80
71	0	0	2264	1765	3847	79
72	0	0	2255	1765	3848	78
73	0	0	2237	1766	3848	79
74	0	0	2236	1766	3847	79
75	0	0	2242	1765	3848	79
76	0	0	2246	1764	3846	79
77	0	0	2246	1764	3846	78
78	0	0	2241	1764	3847	79
79	0	0	2252	1762	3847	80
80	0	0	2273	1763	3847	80
81	0	0	2292	1762	3847	78
82	0	0	2290	1762	3846	77
83	0	0	2272	1764	3846	76
84	0	0	2253	1765	3847	81
85	0	0	2232	1763	3847	83
86	0	0	2211	1764	3847	81
87	0	0	2187	1762	3846	81
88	0	0	2174	1766	3847	79
89	0	0	2192	1767	3847	80
90	0	0	2209	1766	3848	79
91	0	0	2208	1766	3847	79
92	0	0	2200	1765	3847	80
93	0	0	2199	1766	3847	79
94	0	0	2200	1766	3850	79
95	0	0	2194	1764	3846	79
96	0	0	2187	1763	3846	79
97	0	0	2202	1764	3846	77
98	0	0	2220	1762	3846	81
99	0	0	2228	1764	3847	78
100	0	0	2238	1763	3845	78
101	0	0	2241	1763	3847	81
102	0	0	2217	1761	3848	80
103	0	0	2181	1761	3847	83
104	0	0	2150	1763	3847	83
105	0	0	2142	1765	3848	79
106	0	0	2147	1765	3847	78
107	0	0	2152	1765	3848	78
108	0	0	2130	1765	3848	80
109	0	0	2095	1765	3848	80
110	0	0	2083	1766	3848	80
111	0	0	2099	1766	3846	79
112	0	0	2130	1765	3847	80
113	0	0	2144	1766	3847	79
114	0	0	2150	1765	3847	79
115	0	0	2155	1765	3848	79
116	0	0	2152	1761	3846	79
117	0	0	2161	1759	3846	78
118	0	0	2175	1762	3847	82
119	0	0	2186	1764	3847	77
120	0	0	2192	1763	3847	79
121	0	0	2189	1764	3849	81
122	0	0	2168	1761	3848	79
123	0	0	2135	1761	3847	79
124	0	0	2112	1764	3847	81
125	0	0	2106	1765	3848	78
126	0	0	2109	1766	3846	78
127	0	0	2099	1766	3848	78
0	0	0	2089	1766	3847	80
1	0	0	2069	1764	3847	80
2	0	0	2056	1766	3847	79
3	0	0	2058	1764	3846	79
4	0	0	2070	1765	3847	79
5	0	0	2088	1767	3847	79
6	0	0	2108	1765	3847	79
7	0	0	2132	1759	3847	75
8	0	0	2150	1765	3848	79
9	0	0	2174	1764	3848	80
10	0	0	2190	1764	3847	79
11	0	0	2186	1762	3847	81
12	0	0	2177	1763	3847	79
13	0	0	2158	1762	3847	80
14	0	0	2134	1762	3847	78
15	0	0	2115	1763	3847	78
16	0	0	2105	1764	3847	78
17	0	0	2110	1765	3846	80
18	0	0	2114	1766	3846	80
19	0	0	2116	1765	3846	80
20	0	0	2112	1765	3847	82
21	0	0	2108	1766	3847	80
22	0	0	2117	1766	3847	75
23	0	0	2131	1766	3847	80
24	0	0	2141	1765	3848	79
25	0	0	2148	1765	3848	79
26	0	0	2156	1765	3848	79
27	0	0	2158	1765	3848	79
28	0	0	2146	1764	3847	79
29	0	0	2140	1763	3847	79
30	0	0	2144	1760	3847	80
31	0	0	2149	1763	3846	77
32	0	0	2154	1763	3846	73
33	0	0	2158	1764	3847	78
34	0	0	2153	1762	3848	81
35	0	0	2143	1764	3846	79
36	0	0	2121	1763	3847	81
37	0	0	2104	1765	3846	79
38	0	0	2103	1767	3847	78
39	0	0	2126	1766	3847	78
40	0	0	2131	1766	3847	79
41	0	0	2134	1765	3849	80
42	0	0	2153	1766	3846	80
43	0	0	2155	1767	3848	79
44	0	0	2147	1767	3847	78
45	0	0	2146	1765	3846	79
46	0	0	2160	1765	3848	79
47	0	0	2168	1764	3846	79
48	0	0	2164	1765	3846	79
49	0	0	2174	1763	3847	83
50	0	0	2187	1762	3846	81
51	0	0	2183	1762	3846	80
52	0	0	2172	1763	3846	80
53	0	0	2153	1764	3846	81
54	0	0	2122	1762	3847	81
55	0	0	2108	1766	3846	76
56	0	0	2102	1765	3847	78
57	0	0	2099	1765	3845	77
58	0	0	2117	1766	3848	81
59	0	0	2138	1767	3849	83
60	0	0	2140	1766	3846	80
61	0	0	2137	1767	3848	80
62	0	0	2142	1766	3850	76
63	0	0	2138	1767	3846	79
64	0	0	2132	1764	3847	79
65	0	0	2129	1767	3846	77
66	0	0	2130	1764	3847	79
67	0	0	2141	1765	3846	76
68	0	0	2156	1764	3846	78
69	0	0	2179	1763	3847	79
70	0	0	2208	1764	3846	79
71	0	0	2220	1762	3847	80
72	0	0	2221	1764	3847	76
73	0	0	2217	1764	3847	78
74	0	0	2210	1763	3848	79
75	0	0	2189	1764	3847	80
76	0	0	2161	1762	3847	80
77	0	0	2141	1766	3846	80
78	0	0	2135	1766	3847	82
79	0	0	2131	1767	3847	77
80	0	0	2123	1768	3846	76
81	0	0	2122	1766	3847	80
82	0	0	2129	1766	3846	79
83	0	0	2148	1766	3846	79
84	0	0	2167	1765	3848	79
85	0	0	2180	1766	3845	80
86	0	0	2198	1764	3847	79
87	0	0	2213	1766	3847	72
88	0	0	2218	1764	3846	78
89	0	0	2217	1764	3847	79
90	0	0	2195	1764	3848	79
91	0	0	2193	1764	3845	77
92	0	0	2212	1764	3847	80
93	0	0	2235	1764	3849	81
94	0	0	2233	1766	3848	80
95	0	0	2219	1766	3845	81
96	0	0	2204	1765	3848	78
97	0	0	2171	1763	3845	76
98	0	0	2157	1768	3846	78
99	0	0	2163	1764	3846	80
100	0	0	2172	1767	3845	80
101	0	0	2171	1766	3847	80
102	0	0	2181	1768	3847	80
103	0	0	2191	1768	3848	79
104	0	0	2196	1768	3848	82
105	0	0	2198	1768	3845	80
106	0	0	2192	1767	3847	79
107	0	0	2188	1766	3847	79
108	0	0	2190	1765	3847	79
109	0	0	2202	1765	3847	80
110	0	0	2215	1765	3847	80
111	0	0	2222	1763	3844	73
112	0	0	2231	1766	3848	80
113	0	0	2234	1764	3846	81
114	0	0	2217	1763	3846	79
115	0	0	2204	1766	3844	80
116	0	0	2190	1767	3847	78
117	0	0	2176	1767	3848	78
118	0	0	2162	1768	3846	79
119	0	0	2159	1769	3846	81
120	0	0	2169	1768	3846	80
121	0	0	2190	1768	3847	80
122	0	0	2206	1768	3847	80
123	0	0	2205	1767	3847	79
124	0	0	2201	1768	3846	79
125	0	0	2195	1769	3846	80
126	0	0	2190	1769	3848	79
127	0	0	2195	1766	3847	79
0	0	0	2211	1765	3848	77
1	0	0	2233	1765	3844	79
2	0	0	2244	1767	3849	80
3	0	0	2236	1766	3848	80
4	0	0	2242	1765	3846	80
5	0	0	2244	1764	3847	77
6	0	0	2246	1766	3846	75
7	0	0	2224	1766	3847	78
8	0	0	2212	1770	3847	81
9	0	0	2217	1767	3846	81
10	0	0	2220	1765	3847	80
11	0	0	2201	1766	3847	80
12	0	0	2173	1767	3848	78
13	0	0	2159	1771	3848	82
14	0	0	2158	1769	3848	79
15	0	0	2168	1769	3847	80
16	0	0	2180	1769	3847	80
17	0	0	2195	1768	3848	79
18	0	0	2204	1767	3847	79
19	0	0	2205	1768	3848	79
20	0	0	2195	1766	3846	79
21	0	0	2196	1766	3846	80
22	0	0	2218	1766	3848	79
23	0	0	2247	1769	3847	77
24	0	0	2256	1766	3846	77
25	0	0	2256	1764	3846	80
26	0	0	2253	1768	3847	80
27	0	0	2243	1767	3847	82
28	0	0	2221	1767	3847	81
29	0	0	2209	1768	3845	79
30	0	0	2195	1767	3847	78
31	0	0	2191	1769	3847	75
32	0	0	2192	1770	3849	81
33	0	0	2203	1772	3848	80
34	0	0	2208	1769	3848	80
35	0	0	2203	1768	3847	79
36	0	0	2203	1770	3847	78
37	0	0	2204	1768	3848	82
38	0	0	2206	1770	3847	79
39	0	0	2208	1768	3846	78
40	0	0	2219	1765	3846	78
41	0	0	2232	1767	3847	76
42	0	0	2246	1766	3847	80
43	0	0	2246	1767	3847	80
44	0	0	2235	1766	3846	80
45	0	0	2238	1767	3848	81
46	0	0	2239	1768	3847	79
47	0	0	2225	1769	3848	78
48	0	0	2204	1773	3847	78
49	0	0	2223	1770	3847	81
50	0	0	2256	1767	3847	81
51	0	0	2261	1770	3847	80
52	0	0	2254	1771	3847	82
53	0	0	2223	1769	3847	82
54	0	0	2186	1767	3846	79
55	0	0	2177	1767	3846	79
56	0	0	2179	1770	3847	80
57	0	0	2190	1770	3847	79
58	0	0	2192	1769	3847	79
59	0	0	2192	1769	3846	78
60	0	0	2209	1768	3847	78
61	0	0	2223	1768	3845	77
62	0	0	2223	1769	3848	79
63	0	0	2222	1768	3848	77
64	0	0	2230	1767	3847	78
65	0	0	2214	1766	3848	80
66	0	0	2185	1768	3847	82
67	0	0	2172	1770	3846	81
68	0	0	2171	1769	3847	79
69	0	0	2165	1770	3845	82
70	0	0	2152	1771	3843	78
71	0	0	2143	1772	3846	79
72	0	0	2137	1772	3847	79
73	0	0	2142	1771	3846	80
74	0	0	2147	1772	3846	80
75	0	0	2145	1771	3846	79
76	0	0	2141	1770	3847	81
77	0	0	2159	1771	3848	79
78	0	0	2187	1772	3846	80
79	0	0	2204	1768	3847	79
80	0	0	2210	1769	3848	79
81	0	0	2225	1770	3848	77
82	0	0	2237	1768	3849	79
83	0	0	2242	1768	3847	80
84	0	0	2236	1769	3847	80
85	0	0	2228	1769	3847	80
86	0	0	2222	1771	3846	83
87	0	0	2211	1770	3846	79
88	0	0	2202	1772	3847	81
89	0	0	2200	1772	3847	81
90	0	0	2189	1770	3846	78
91	0	0	2165	1770	3846	78
92	0	0	2143	1771	3848	77
93	0	0	2136	1773	3847	80
94	0	0	2147	1772	3845	79
95	0	0	2167	1772	3848	79
96	0	0	2192	1772	3849	79
97	0	0	2239	1772	3848	79
98	0	0	2295	1770	3847	79
99	0	0	2325	1771	3847	78
100	0	0	2325	1770	3847	79
101	0	0	2286	1768	3846	79
102	0	0	2256	1769	3848	79
103	0	0	2245	1770	3847	79
104	0	0	2231	1770	3847	80
105	0	0	2214	1769	3846	81
106	0	0	2205	1770	3846	80
107	0	0	2200	1771	3848	78
108	0	0	2190	1772	3846	78
109	0	0	2182	1772	3846	78
110	0	0	2176	1773	3848	81
111	0	0	2168	1773	3846	79
112	0	0	2162	1773	3848	81
113	0	0	2169	1773	3847	80
114	0	0	2171	1773	3846	79
115	0	0	2167	1773	3847	80
116	0	0	2171	1773	3847	79
117	0	0	2182	1773	3846	76
118	0	0	2196	1773	3847	79
119	0	0	2208	1773	3846	78
120	0	0	2207	1772	3846	79
121	0	0	2216	1771	3847	80
122	0	0	2227	1772	3846	77
123	0	0	2234	1771	3846	80
124	0	0	2235	1772	3849	78
125	0	0	2234	1771	3847	78
126	0	0	2223	1771	3847	77
127	0	0	2207	1774	3849	81
0	0	0	2196	1770	3847	81
1	0	0	2203	1774	3848	82
2	0	0	2209	1773	3848	82
3	0	0	2214	1774	3848	79
4	0	0	2223	1775	3848	78
5	0	0	2223	1774	3846	79
6	0	0	2224	1775	3847	79
7	0	0	2237	1774	3848	79
8	0	0	2242	1774	3847	79
9	0	0	2248	1775	3846	77
10	0	0	2265	1774	3846	79
11	0	0	2258	1772	3846	78
12	0	0	2245	1773	3848	78
13	0	0	2247	1773	3845	80
14	0	0	2258	1773	3848	80
15	0	0	2268	1773	3847	77
16	0	0	2276	1773	3846	80
17	0	0	2278	1772	3849	81
18	0	0	2260	1773	3848	84
19	0	0	2232	1772	3848	81
20	0	0	2200	1773	3847	78
21	0	0	2185	1776	3849	79
22	0	0	2179	1774	3846	77
23	0	0	2168	1775	3846	80
24	0	0	2160	1776	3849	81
25	0	0	2143	1775	3847	81
26	0	0	2138	1775	3848	79
27	0	0	2147	1776	3846	79
28	0	0	2170	1775	3848	79
29	0	0	2196	1777	3846	76
30	0	0	2226	1775	3846	79
31	0	0	2272	1775	3846	79
32	0	0	2305	1774	3846	79
33	0	0	2327	1774	3847	79
34	0	0	2328	1774	3845	76
35	0	0	2303	1772	3847	79
36	0	0	2279	1773	3847	81
37	0	0	2272	1774	3848	77
38	0	0	2275	1775	3850	79
39	0	0	2278	1776	3848	79
40	0	0	2276	1777	3848	81
41	0	0	2277	1776	3846	81
42	0	0	2280	1777	3847	80
43	0	0	2268	1775	3846	80
44	0	0	2260	1778	3845	76
45	0	0	2258	1779	3847	81
46	0	0	2257	1778	3846	79
47	0	0	2251	1778	3846	79
48	0	0	2249	1777	3847	80
49	0	0	2250	1777	3848	79
50	0	0	2257	1777	3847	79
51	0	0	2264	1777	3847	79
52	0	0	2261	1776	3846	79
53	0	0	2276	1775	3848	79
54	0	0	2288	1776	3847	80
55	0	0	2293	1777	3848	76
56	0	0	2296	1775	3847	77
57	0	0	2295	1775	3848	81
58	0	0	2273	1774	3847	80
59	0	0	2271	1777	3847	81
60	0	0	2287	1778	3846	81
61	0	0	2289	1777	3847	76
62	0	0	2273	1778	3846	77
63	0	0	2248	1777	3846	78
64	0	0	2234	1780	3846	80
65	0	0	2231	1779	3847	81
66	0	0	2241	1779	3847	80
67	0	0	2270	1779	3847	79
68	0	0	2280	1780	3846	78
69	0	0	2286	1779	3847	78
70	0	0	2286	1779	3847	79
71	0	0	2282	1775	3847	78
72	0	0	2272	1777	3847	79
73	0	0	2282	1777	3848	79
74	0	0	2298	1777	3846	80
75	0	0	2292	1777	3846	77
76	0	0	2279	1777	3846	75
77	0	0	2265	1777	3846	81
78	0	0	2249	1779	3846	80
79	0	0	2238	1780	3845	80
80	0	0	2236	1779	3847	80
81	0	0	2235	1780	3848	79
82	0	0	2239	1781	3846	78
83	0	0	2247	1781	3847	76
84	0	0	2244	1780	3848	80
85	0	0	2231	1780	3847	79
86	0	0	2207	1779	3848	79
87	0	0	2186	1781	3847	79
88	0	0	2192	1781	3847	79
89	0	0	2212	1781	3849	79
90	0	0	2231	1779	3846	79
91	0	0	2242	1781	3847	79
92	0	0	2241	1780	3846	79
93	0	0	2254	1779	3846	79
94	0	0	2278	1782	3847	79
95	0	0	2293	1777	3848	80
96	0	0	2295	1775	3847	80
97	0	0	2284	1781	3846	80
98	0	0	2273	1783	3846	76
99	0	0	2260	1781	3847	78
100	0	0	2246	1781	3846	78
101	0	0	2240	1782	3847	80
102	0	0	2245	1783	3846	80
103	0	0	2248	1784	3846	80
104	0	0	2243	1784	3847	80
105	0	0	2228	1784	3848	80
106	0	0	2226	1783	3847	79
107	0	0	2228	1783	3847	79
108	0	0	2253	1784	3848	77
109	0	0	2275	1783	3845	79
110	0	0	2282	1783	3847	79
111	0	0	2277	1782	3848	78
112	0	0	2269	1781	3848	79
113	0	0	2274	1781	3846	78
114	0	0	2295	1781	3846	78
115	0	0	2307	1780	3847	77
116	0	0	2318	1781	3846	76
117	0	0	2321	1781	3847	77
118	0	0	2319	1784	3846	79
119	0	0	2300	1782	3847	81
120	0	0	2272	1781	3848	80
121	0	0	2246	1782	3847	80
122	0	0	2238	1784	3847	78
123	0	0	2240	1785	3847	79
124	0	0	2230	1785	3848	77
125	0	0	2238	1785	3848	81
126	0	0	2259	1786	3847	80
127	0	0	2276	1786	3846	79
0	0	0	2279	1785	3846	79
1	0	0	2277	1785	3847	79
2	0	0	2278	1784	3847	79
3	0	0	2278	1782	3847	78
4	0	0	2263	1782	3849	79
5	0	0	2266	1785	3846	78
6	0	0	2271	1783	3845	80
7	0	0	2253	1783	3848	79
8	0	0	2230	1782	3847	81
9	0	0	2216	1783	3848	80
10	0	0	2207	1784	3847	79
11	0	0	2210	1785	3848	79
12	0	0	2224	1785	3848	76
13	0	0	2238	1786	3846	77
14	0	0	2256	1787	3846	79
15	0	0	2259	1787	3847	77
16	0	0	2266	1787	3847	80
17	0	0	2279	1786	3847	80
18	0	0	2289	1788	3846	79
19	0	0	2309	1788	3845	79
20	0	0	2322	1789	3846	78
21	0	0	2335	1787	3848	80
22	0	0	2362	1786	3847	79
23	0	0	2409	1787	3848	79
24	0	0	2460	1787	3848	79
25	0	0	2521	1785	3847	80
26	0	0	2586	1786	3845	80
27	0	0	2644	1785	3848	80
28	0	0	2688	1787	3847	78
29	0	0	2730	1786	3850	78
30	0	0	2770	1787	3846	87
31	0	0	2796	1788	3846	391
32	0	0	2811	1788	3847	1066
33	0	0	2817	1787	3846	1802
34	0	0	2817	1788	3846	2402
35	0	0	2822	1789	3846	2823
36	0	0	2829	1789	3847	3118
37	0	0	2857	1788	3847	3322
38	0	0	2892	1790	3848	3461
39	0	0	2919	1788	3847	3559
40	0	0	2920	1788	3847	3635
41	0	0	2896	1789	3848	3689
42	0	0	2872	1788	3848	3733
43	0	0	2851	1787	3847	3766
44	0	0	2832	1788	3846	3792
45	0	0	2823	1787	3847	3814
46	0	0	2809	1786	3845	3831
47	0	0	2775	1785	3847	3847
48	0	0	2739	1786	3846	3860
49	0	0	2700	1784	3847	3870
50	0	0	2657	1785	3846	3880
51	0	0	2607	1786	3847	3889
52	0	0	2553	1786	3846	3895
53	0	0	2489	1787	3846	3901
54	0	0	2416	1787	3846	3907
55	0	0	2344	1788	3847	3915
56	0	0	2291	1789	3848	3919
57	0	0	2251	1788	3848	3923
58	0	0	2217	1789	3848	3927
59	0	0	2191	1789	3847	3930
60	0	0	2186	1792	3847	3933
61	0	0	2199	1792	3848	3937
62	0	0	2214	1792	3848	3938
63	0	0	2224	1791	3845	3940
64	0	0	2203	1788	3847	3943
65	0	0	2200	1789	3847	3945
66	0	0	2218	1790	3847	3945
67	0	0	2236	1788	3847	3949
68	0	0	2238	1791	3846	3950
69	0	0	2246	1791	3846	3952
70	0	0	2241	1791	3847	3952
71	0	0	2242	1792	3849	3955
72	0	0	2245	1792	3848	3956
73	0	0	2248	1793	3847	3957
74	0	0	2251	1793	3848	3958
75	0	0	2267	1794	3847	3957
76	0	0	2282	1794	3850	3962
77	0	0	2296	1794	3847	3963
78	0	0	2301	1795	3847	3962
79	0	0	2298	1794	3849	3964
80	0	0	2300	1794	3847	3966
81	0	0	2305	1794	3847	3963
82	0	0	2306	1794	3847	3966
83	0	0	2301	1792	3844	3966
84	0	0	2289	1792	3845	3968
85	0	0	2280	1793	3848	3968
86	0	0	2289	1793	3846	3969
87	0	0	2289	1793	3848	3971
88	0	0	2284	1792	3846	3970
89	0	0	2290	1792	3847	3969
90	0	0	2307	1795	3846	3971
91	0	0	2328	1795	3847	3972
92	0	0	2337	1795	3847	3973
93	0	0	2318	1795	3847	3972
94	0	0	2295	1797	3847	3972
95	0	0	2274	1797	3847	3970
96	0	0	2274	1797	3847	3975
97	0	0	2286	1797	3846	3974
98	0	0	2286	1798	3847	3976
99	0	0	2276	1797	3848	3975
100	0	0	2268	1797	3846	3975
101	0	0	2278	1797	3847	3975
102	0	0	2288	1797	3846	3977
103	0	0	2298	1797	3846	3976
104	0	0	2307	1797	3846	3978
105	0	0	2325	1796	3846	3976
106	0	0	2343	1796	3847	3976
107	0	0	2344	1795	3846	3978
108	0	0	2339	1796	3847	3978
109	0	0	2329	1796	3847	3979
110	0	0	2312	1797	3847	3980
111	0	0	2314	1798	3849	3980
112	0	0	2326	1798	3846	3980
113	0	0	2325	1799	3846	3979
114	0	0	2313	1799	3846	3980
115	0	0	2289	1800	3847	3980
116	0	0	2281	1800	3846	3978
117	0	0	2280	1802	3847	3981
118	0	0	2279	1799	3846	3981
119	0	0	2275	1800	3846	3980
120	0	0	2273	1801	3847	3978
121	0	0	2273	1800	3847	3982
122	0	0	2273	1799	3846	3983
123	0	0	2273	1799	3847	3982
124	0	0	2274	1801	3848	3984
125	0	0	2281	1798	3847	3981
126	0	0	2294	1799	3847	3981
127	0	0	2300	1799	3848	3984
0	0	0	2301	1799	3847	3983
1	0	0	2304	1801	3846	3985
2	0	0	2296	1801	3846	3983
3	0	0	2286	1800	3847	3985
4	0	0	2278	1800	3847	3984
5	0	0	2285	1801	3846	3984
6	0	0	2287	1802	3845	3986
7	0	0	2280	1803	3847	3984
8	0	0	2277	1804	3847	3984
9	0	0	2278	1803	3846	3985
10	0	0	2271	1801	3846	3984
11	0	0	2240	1801	3846	3987
12	0	0	2226	1803	3847	3984
13	0	0	2231	1803	3847	3987
14	0	0	2237	1802	3848	3986
15	0	0	2250	1801	3847	3985
16	0	0	2265	1802	3847	3986
17	0	0	2272	1801	3847	3985
18	0	0	2287	1802	3847	3985
19	0	0	2305	1801	3846	3988
20	0	0	2306	1802	3846	3986
21	0	0	2288	1802	3846	3986
22	0	0	2266	1802	3848	3986
23	0	0	2261	1804	3848	3986
24	0	0	2257	1803	3847	3988
25	0	0	2258	1804	3846	3986
26	0	0	2264	1805	3846	3987
27	0	0	2262	1806	3847	3987
28	0	0	2253	1806	3847	3988
29	0	0	2240	1806	3847	3987
30	0	0	2238	1807	3848	3988
31	0	0	2247	1806	3847	3987
32	0	0	2252	1807	3847	3988
33	0	0	2263	1806	3848	3989
34	0	0	2270	1805	3847	3988
35	0	0	2287	1805	3848	3990
36	0	0	2301	1806	3846	3988
37	0	0	2307	1804	3847	3988
38	0	0	2294	1805	3845	3990
39	0	0	2283	1804	3845	3991
40	0	0	2295	1806	3847	3987
41	0	0	2308	1807	3846	3988
42	0	0	2318	1805	3848	3988
43	0	0	2318	1807	3846	3989
44	0	0	2298	1806	3847	3989
45	0	0	2268	1805	3846	3989
46	0	0	2249	1809	3845	3989
47	0	0	2230	1808	3849	3988
48	0	0	2213	1809	3847	3989
49	0	0	2205	1809	3848	3990
50	0	0	2208	1810	3846	3989
51	0	0	2224	1809	3847	3991
52	0	0	2239	1809	3847	3993
53	0	0	2243	1807	3846	3992
54	0	0	2246	1809	3848	3991
55	0	0	2235	1808	3845	3989
56	0	0	2221	1807	3846	3988
57	0	0	2229	1807	3846	3990
58	0	0	2259	1807	3847	3990
59	0	0	2287	1807	3847	3991
60	0	0	2301	1809	3847	3990
61	0	0	2293	1809	3846	3990
62	0	0	2274	1808	3849	3989
63	0	0	2260	1810	3845	3990
64	0	0	2248	1809	3848	3991
65	0	0	2252	1810	3847	3990
66	0	0	2278	1811	3847	3991
67	0	0	2303	1812	3847	3992
68	0	0	2305	1811	3846	3992
69	0	0	2287	1811	3847	3991
70	0	0	2264	1811	3846	3990
71	0	0	2254	1811	3846	3990
72	0	0	2249	1811	3846	3990
73	0	0	2241	1811	3844	3992
74	0	0	2245	1810	3847	3991
75	0	0	2255	1810	3846	3991
76	0	0	2261	1809	3846	3990
77	0	0	2276	1810	3847	3991
78	0	0	2288	1810	3845	3992
79	0	0	2285	1810	3847	3992
80	0	0	2277	1810	3847	3991
81	0	0	2266	1811	3847	3991
82	0	0	2262	1811	3846	3991
83	0	0	2261	1811	3847	3992
84	0	0	2257	1812	3847	3992
85	0	0	2246	1813	3847	3993
86	0	0	2235	1814	3847	3992
87	0	0	2224	1813	3846	3992
88	0	0	2221	1814	3846	3992
89	0	0	2218	1815	3847	3993
90	0	0	2228	1814	3846	3992
91	0	0	2240	1813	3847	3990
92	0	0	2251	1815	3847	3992
93	0	0	2269	1813	3845	3992
94	0	0	2290	1814	3845	3993
95	0	0	2295	1814	3847	3992
96	0	0	2298	1813	3848	3992
97	0	0	2313	1813	3846	3992
98	0	0	2333	1812	3847	3994
99	0	0	2337	1812	3848	3992
100	0	0	2342	1814	3847	3991
101	0	0	2343	1814	3847	3992
102	0	0	2330	1813	3847	3991
103	0	0	2316	1814	3845	3993
104	0	0	2314	1815	3844	3992
105	0	0	2317	1815	3846	3992
106	0	0	2313	1816	3847	3993
107	0	0	2288	1816	3847	3994
108	0	0	2279	1817	3846	3994
109	0	0	2280	1817	3847	3993
110	0	0	2280	1816	3846	3989
111	0	0	2289	1816	3847	3991
112	0	0	2303	1816	3848	3992
113	0	0	2320	1817	3844	3993
114	0	0	2332	1816	3845	3992
115	0	0	2321	1815	3847	3992
116	0	0	2310	1815	3846	3993
117	0	0	2320	1815	3848	3993
118	0	0	2331	1815	3846	3991
119	0	0	2340	1815	3850	3992
120	0	0	2358	1815	3846	3994
121	0	0	2376	1816	3846	3993
122	0	0	2380	1817	3846	3993
123	0	0	2386	1816	3847	3995
124	0	0	2383	1817	3847	3993
125	0	0	2361	1817	3847	3995
126	0	0	2346	1818	3846	3993
127	0	0	2339	1819	3846	3993
0	0	0	2339	1818	3847	3995
1	0	0	2357	1818	3844	3993
2	0	0	2387	1820	3847	3994
3	0	0	2401	1819	3848	3994
4	0	0	2401	1819	3845	3994
5	0	0	2398	1819	3848	3992
6	0	0	2414	1818	3846	3994
7	0	0	2432	1818	3846	3993
8	0	0	2428	1817	3847	3994
9	0	0	2434	1817	3845	3993
10	0	0	2434	1818	3847	3992
11	0	0	2437	1817	3844	3994
12	0	0	2438	1818	3846	3993
13	0	0	2428	1819	3846	3995
14	0	0	2426	1819	3847	3992
15	0	0	2432	1819	3847	3996
16	0	0	2435	1821	3847	3995
17	0	0	2428	1819	3846	3994
18	0	0	2423	1820	3847	3991
19	0	0	2416	1821	3846	3993
20	0	0	2404	1821	3845	3994
21	0	0	2383	1821	3844	3993
22	0	0	2372	1822	3846	3994
23	0	0	2378	1822	3846	3994
24	0	0	2395	1822	3847	3994
25	0	0	2406	1821	3847	3995
26	0	0	2416	1821	3844	3994
27	0	0	2420	1821	3846	3994
28	0	0	2417	1819	3848	3994
29	0	0	2415	1819	3843	3994
30	0	0	2422	1819	3846	3997
31	0	0	2431	1820	3847	3995
32	0	0	2422	1820	3847	3994
33	0	0	2417	1820	3847	3993
34	0	0	2427	1821	3846	3994
35	0	0	2420	1822	3847	3993
36	0	0	2405	1823	3844	3995
37	0	0	2403	1822	3846	3996
38	0	0	2395	1822	3848	3995
39	0	0	2379	1823	3844	3995
40	0	0	2365	1824	3846	3994
41	0	0	2348	1824	3846	3994
42	0	0	2330	1824	3846	3994
43	0	0	2322	1823	3848	3996
44	0	0	2335	1824	3848	3995
45	0	0	2358	1823	3847	3997
46	0	0	2343	1823	3847	3995
47	0	0	2325	1822	3846	3993
48	0	0	2324	1822	3846	3995
49	0	0	2339	1824	3845	3994
50	0	0	2360	1823	3847	3994
51	0	0	2370	1822	3847	3996
52	0	0	2364	1823	3847	3994
53	0	0	2350	1823	3847	3995
54	0	0	2329	1823	3847	3995
55	0	0	2313	1824	3847	3994
56	0	0	2311	1823	3844	3996
57	0	0	2310	1824	3846	3994
58	0	0	2306	1825	3846	3995
59	0	0	2279	1824	3846	3995
60	0	0	2252	1825	3847	3996
61	0	0	2242	1826	3847	3992
62	0	0	2250	1827	3847	3996
63	0	0	2259	1827	3846	3995
64	0	0	2266	1826	3846	3995
65	0	0	2262	1825	3847	3998
66	0	0	2263	1826	3847	3995
67	0	0	2260	1826	3846	3996
68	0	0	2255	1824	3848	3996
69	0	0	2265	1823	3844	3994
70	0	0	2266	1825	3847	3995
71	0	0	2248	1823	3847	3995
72	0	0	2238	1825	3846	3995
73	0	0	2247	1826	3849	3997
74	0	0	2251	1827	3848	3996
75	0	0	2243	1826	3847	3995
76	0	0	2233	1827	3847	3995
77	0	0	2224	1827	3846	3995
78	0	0	2226	1828	3846	3995
79	0	0	2225	1827	3846	3994
80	0	0	2234	1828	3847	3994
81	0	0	2241	1828	3847	3995
82	0	0	2236	1828	3847	3995
83	0	0	2214	1827	3846	3995
84	0	0	2198	1828	3844	3996
85	0	0	2203	1828	3846	3995
86	0	0	2215	1828	3846	3997
87	0	0	2227	1827	3846	3995
88	0	0	2237	1826	3846	3996
89	0	0	2252	1826	3846	3994
90	0	0	2260	1827	3845	3995
91	0	0	2248	1827	3846	3997
92	0	0	2238	1827	3845	3996
93	0	0	2240	1828	3846	3996
94	0	0	2227	1827	3844	3996
95	0	0	2194	1826	3846	3995
96	0	0	2160	1828	3845	3996
97	0	0	2146	1830	3845	3996
98	0	0	2155	1830	3847	3997
99	0	0	2167	1832	3847	3996
100	0	0	2166	1832	3847	3997
101	0	0	2156	1832	3848	3997
102	0	0	2135	1831	3846	4000
103	0	0	2131	1831	3847	3996
104	0	0	2136	1831	3848	3995
105	0	0	2140	1830	3847	3995
106	0	0	2147	1831	3847	3997
107	0	0	2159	1830	3846	3996
108	0	0	2161	1829	3847	3996
109	0	0	2166	1830	3847	3999
110	0	0	2185	1829	3846	3995
111	0	0	2210	1830	3847	3997
112	0	0	2228	1830	3846	3996
113	0	0	2222	1831	3847	3996
114	0	0	2199	1831	3848	3996
115	0	0	2178	1833	3848	3997
116	0	0	2153	1830	3846	3996
117	0	0	2134	1834	3848	3997
118	0	0	2133	1835	3846	3995
119	0	0	2137	1836	3848	3996
120	0	0	2140	1834	3847	3995
121	0	0	2147	1834	3847	3997
122	0	0	2141	1834	3847	3996
123	0	0	2138	1834	3848	3995
124	0	0	2144	1834	3847	3995
125	0	0	2174	1834	3847	3997
126	0	0	2185	1834	3848	3999
127	0	0	2180	1833	3843	3996
0	0	0	2177	1832	3846	3996
1	0	0	2186	1833	3847	3995
2	0	0	2180	1833	3846	3995
3	0	0	2167	1833	3848	3998
4	0	0	2164	1832	3846	3996
5	0	0	2165	1834	3848	3998
6	0	0	2151	1834	3847	3999
7	0	0	2133	1834	3847	3995
8	0	0	2133	1835	3848	3997
9	0	0	2160	1835	3847	3996
10	0	0	2197	1836	3847	3997
11	0	0	2196	1837	3847	3998
12	0	0	2164	1835	3846	3997
13	0	0	2125	1834	3847	3998
14	0	0	2084	1835	3846	3996
15	0	0	2084	1837	3846	3996
16	0	0	2097	1839	3847	3996
17	0	0	2111	1836	3845	3996
18	0	0	2125	1836	3844	3999
19	0	0	2129	1835	3846	3996
20	0	0	2133	1833	3846	3996
21	0	0	2150	1836	3848	3996
22	0	0	2165	1835	3847	4000
23	0	0	2166	1834	3843	4000
24	0	0	2177	1835	3846	3997
25	0	0	2179	1835	3847	3996
26	0	0	2173	1837	3847	3997
27	0	0	2146	1834	3848	3998
28	0	0	2115	1835	3848	3997
29	0	0	2102	1838	3847	3998
30	0	0	2090	1838	3846	3996
31	0	0	2086	1839	3846	3997
32	0	0	2082	1839	3846	3996
33	0	0	2077	1839	3844	3998
34	0	0	2082	1840	3846	3995
35	0	0	2108	1839	3847	3996
36	0	0	2141	1841	3847	3998
37	0	0	2160	1839	3846	4000
38	0	0	2164	1839	3848	3997
39	0	0	2158	1838	3846	3996
40	0	0	2150	1837	3847	3995
41	0	0	2152	1838	3847	3997
42	0	0	2162	1837	3847	3998
43	0	0	2169	1837	3848	3996
44	0	0	2175	1837	3846	3996
45	0	0	2176	1838	3847	3999
46	0	0	2166	1839	3847	3998
47	0	0	2141	1836	3847	3995
48	0	0	2119	1839	3844	3998
49	0	0	2113	1840	3846	3997
50	0	0	2129	1843	3845	3996
51	0	0	2144	1842	3848	3996
52	0	0	2153	1842	3845	4000
53	0	0	2143	1841	3848	3998
54	0	0	2114	1840	3847	3998
55	0	0	2091	1842	3848	3996
56	0	0	2094	1842	3847	3997
57	0	0	2114	1841	3848	3998
58	0	0	2129	1840	3845	3997
59	0	0	2147	1839	3847	3996
60	0	0	2153	1840	3847	3997
61	0	0	2162	1842	3847	3997
62	0	0	2177	1841	3846	3998
63	0	0	2184	1839	3848	3999
64	0	0	2183	1840	3846	3997
65	0	0	2178	1840	3847	3999
66	0	0	2171	1842	3847	3998
67	0	0	2161	1841	3847	3996
68	0	0	2158	1842	3844	3998
69	0	0	2159	1843	3847	3998
70	0	0	2156	1841	3843	3998
71	0	0	2146	1844	3845	3998
72	0	0	2133	1845	3847	3996
73	0	0	2129	1845	3848	3998
74	0	0	2130	1844	3847	3997
75	0	0	2119	1844	3847	3997
76	0	0	2104	1843	3847	3998
77	0	0	2120	1845	3847	3996
78	0	0	2134	1843	3848	3998
79	0	0	2134	1844	3846	3997
80	0	0	2122	1843	3846	3997
81	0	0	2119	1843	3846	3998
82	0	0	2125	1843	3846	3996
83	0	0	2135	1842	3847	3996
84	0	0	2153	1842	3846	3997
85	0	0	2170	1845	3846	3997
86	0	0	2190	1843	3847	3998
87	0	0	2191	1844	3847	3998
88	0	0	2160	1843	3847	3998
89	0	0	2131	1844	3846	3997
90	0	0	2124	1846	3846	3999
91	0	0	2125	1845	3847	3997
92	0	0	2126	1847	3848	3999
93	0	0	2134	1847	3847	3997
94	0	0	2121	1845	3846	3997
95	0	0	2101	1846	3845	3997
96	0	0	2105	1845	3847	3998
97	0	0	2111	1846	3846	3998
98	0	0	2125	1846	3847	3999
99	0	0	2149	1845	3846	3997
100	0	0	2158	1844	3846	3997
101	0	0	2179	1842	3846	3996
102	0	0	2205	1846	3847	3997
103	0	0	2223	1843	3847	3996
104	0	0	2221	1845	3847	3998
105	0	0	2198	1845	3848	3998
106	0	0	2178	1846	3848	3996
107	0	0	2163	1846	3847	3997
108	0	0	2151	1847	3847	3997
109	0	0	2132	1846	3848	3997
110	0	0	2114	1848	3844	3998
111	0	0	2101	1846	3847	3998
112	0	0	2089	1850	3847	3999
113	0	0	2085	1849	3845	3997
114	0	0	2086	1848	3846	3997
115	0	0	2084	1849	3848	3997
116	0	0	2080	1848	3846	3998
117	0	0	2098	1849	3847	3997
118	0	0	2118	1849	3847	3999
119	0	0	2128	1849	3846	3997
120	0	0	2143	1847	3847	3998
121	0	0	2172	1848	3847	3999
122	0	0	2195	1847	3847	3997
123	0	0	2210	1847	3847	3998
124	0	0	2219	1847	3846	3997
125	0	0	2208	1847	3848	3997
126	0	0	2178	1845	3848	3997
127	0	0	2144	1846	3847	3999
0	0	0	2121	1848	3847	3997
1	0	0	2104	1850	3847	3998
2	0	0	2085	1851	3849	3998
3	0	0	2074	1848	3847	3997
4	0	0	2076	1850	3847	3997
5	0	0	2079	1851	3846	3997
6	0	0	2079	1853	3849	3998
7	0	0	2088	1852	3846	3996
8	0	0	2114	1852	3847	3997
9	0	0	2138	1852	3846	3997
10	0	0	2147	1851	3849	3996
11	0	0	2142	1850	3846	3997
12	0	0	2126	1850	3846	3996
13	0	0	2140	1845	3847	3997
14	0	0	2157	1849	3847	3999
15	0	0	2177	1849	3847	3997
16	0	0	2185	1848	3846	3997
17	0	0	2184	1851	3846	3997
18	0	0	2163	1847	3845	4000
19	0	0	2130	1850	3846	3999
20	0	0	2116	1854	3847	3998
21	0	0	2126	1853	3845	4000
22	0	0	2137	1855	3846	3997
23	0	0	2148	1852	3846	3998
24	0	0	2153	1854	3847	3999
25	0	0	2151	1855	3847	3997
26	0	0	2149	1854	3845	3997
27	0	0	2156	1854	3846	3997
28	0	0	2171	1853	3846	4000
29	0	0	2169	1854	3847	3999
30	0	0	2150	1853	3847	3995
31	0	0	2152	1853	3844	3994
32	0	0	2161	1854	3846	3997
33	0	0	2183	1851	3847	3998
34	0	0	2207	1852	3847	3999
35	0	0	2218	1850	3847	3998
36	0	0	2213	1853	3845	3997
37	0	0	2207	1851	3845	3998
38	0	0	2201	1852	3846	3998
39	0	0	2189	1853	3846	3999
40	0	0	2160	1852	3845	3999
41	0	0	2137	1854	3847	3999
42	0	0	2117	1855	3848	3997
43	0	0	2099	1857	3846	3998
44	0	0	2083	1858	3847	3999
45	0	0	2080	1856	3847	3995
46	0	0	2079	1857	3848	3999
47	0	0	2060	1854	3849	3997
48	0	0	2056	1853	3847	3998
49	0	0	2058	1857	3847	3999
50	0	0	2055	1856	3845	3999
51	0	0	2046	1856	3847	3998
52	0	0	2043	1853	3847	3997
53	0	0	2040	1854	3846	3998
54	0	0	2052	1855	3847	3999
55	0	0	2067	1854	3846	3998
56	0	0	2057	1857	3846	3998
57	0	0	2043	1855	3847	3997
58	0	0	2042	1856	3846	3999
59	0	0	2053	1856	3847	3996
60	0	0	2044	1856	3846	4000
61	0	0	2020	1856	3846	3997
62	0	0	2010	1858	3847	3997
63	0	0	2004	1858	3847	3998
64	0	0	1993	1861	3847	3997
65	0	0	1992	1859	3846	3999
66	0	0	1996	1859	3847	3998
67	0	0	2007	1859	3847	3999
68	0	0	2028	1859	3847	3999
69	0	0	2057	1859	3846	3998
70	0	0	2082	1859	3847	3998
71	0	0	2089	1858	3846	3998
72	0	0	2081	1858	3847	3999
73	0	0	2085	1856	3845	3998
74	0	0	2090	1857	3846	3997
75	0	0	2073	1857	3845	4000
76	0	0	2051	1855	3846	3998
77	0	0	2043	1856	3846	3998
78	0	0	2048	1858	3845	4000
79	0	0	2058	1860	3846	3999
80	0	0	2057	1859	3847	3999
81	0	0	2043	1859	3846	3997
82	0	0	2021	1858	3846	3998
83	0	0	2012	1860	3846	3998
84	0	0	2013	1861	3847	3999
85	0	0	2010	1862	3846	4000
86	0	0	2013	1861	3847	3999
87	0	0	2025	1863	3846	3998
88	0	0	2040	1861	3844	4000
89	0	0	2058	1860	3846	3998
90	0	0	2065	1860	3848	4000
91	0	0	2076	1860	3845	3998
92	0	0	2091	1859	3847	3997
93	0	0	2112	1859	3846	3999
94	0	0	2133	1859	3846	3999
95	0	0	2117	1856	3844	4001
96	0	0	2088	1857	3846	3998
97	0	0	2064	1856	3846	3998
98	0	0	2048	1861	3848	3999
99	0	0	2033	1860	3847	3998
100	0	0	2010	1861	3847	3999
101	0	0	1999	1861	3846	3998
102	0	0	2003	1862	3845	3998
103	0	0	2008	1863	3846	3997
104	0	0	2003	1862	3846	3999
105	0	0	1981	1861	3846	4000
106	0	0	1963	1862	3846	3998
107	0	0	1960	1861	3846	3998
108	0	0	1967	1860	3844	4000
109	0	0	1991	1863	3847	3996
110	0	0	2000	1862	3846	4000
111	0	0	2003	1862	3846	3998
112	0	0	2017	1860	3847	3998
113	0	0	2026	1862	3846	3999
114	0	0	2025	1861	3847	3997
115	0	0	2008	1859	3845	4000
116	0	0	2001	1860	3847	3999
117	0	0	1996	1862	3846	3997
118	0	0	2002	1860	3846	3998
119	0	0	2007	1863	3847	3999
120	0	0	2004	1862	3846	4000
121	0	0	1986	1859	3845	3998
122	0	0	1961	1862	3846	3999
123	0	0	1946	1866	3846	3999
124	0	0	1958	1863	3847	3999
125	0	0	1994	1865	3846	3996
126	0	0	2025	1865	3846	3998
127	0	0	2020	1864	3847	3999
0	0	0	2002	1865	3847	3999
1	0	0	1998	1863	3847	3998
2	0	0	1996	1863	3846	4000
3	0	0	1992	1863	3846	3998
4	0	0	1992	1863	3845	4000
5	0	0	2004	1860	3845	3998
6	0	0	2010	1862	3847	3996
7	0	0	2018	1862	3846	3996
8	0	0	2039	1861	3846	3998
9	0	0	2051	1861	3846	3998
10	0	0	2036	1862	3846	3998
11	0	0	2003	1861	3847	3999
12	0	0	1961	1861	3846	3998
13	0	0	1936	1864	3847	3999
14	0	0	1933	1865	3844	3999
15	0	0	1929	1865	3846	3998
16	0	0	1931	1867	3847	3998
17	0	0	1931	1866	3846	3996
18	0	0	1934	1866	3846	3999
19	0	0	1944	1866	3847	3999
20	0	0	1949	1865	3848	3995
21	0	0	1951	1865	3848	3999
22	0	0	1962	1865	3844	4000
23	0	0	1974	1865	3844	3995
24	0	0	1956	1863	3846	3998
25	0	0	1935	1863	3846	3997
26	0	0	1924	1864	3846	3999
27	0	0	1920	1864	3847	4000
28	0	0	1919	1863	3846	3998
29	0	0	1925	1864	3845	4000
30	0	0	1910	1864	3847	3999
31	0	0	1895	1861	3846	3999
32	0	0	1879	1866	3846	3996
33	0	0	1875	1866	3846	3998
34	0	0	1875	1868	3846	3998
35	0	0	1869	1868	3847	4000
36	0	0	1868	1868	3847	3999
37	0	0	1875	1868	3846	3998
38	0	0	1878	1867	3845	3998
39	0	0	1876	1869	3846	3998
40	0	0	1877	1868	3848	3997
41	0	0	1889	1866	3847	4000
42	0	0	1905	1866	3845	3996
43	0	0	1918	1866	3845	3998
44	0	0	1928	1866	3846	3998
45	0	0	1928	1864	3847	3996
46	0	0	1928	1865	3846	4000
47	0	0	1930	1867	3847	4000
48	0	0	1932	1865	3846	3998
49	0	0	1930	1866	3847	4000
50	0	0	1923	1867	3848	3999
51	0	0	1906	1865	3847	3998
52	0	0	1892	1867	3846	3999
53	0	0	1868	1867	3848	4000
54	0	0	1847	1868	3846	3998
55	0	0	1839	1870	3846	3997
56	0	0	1849	1870	3847	3999
57	0	0	1868	1869	3846	3996
58	0	0	1876	1869	3846	3999
59	0	0	1885	1869	3845	4000
60	0	0	1888	1868	3847	3995
61	0	0	1885	1868	3846	3999
62	0	0	1894	1868	3846	3998
63	0	0	1934	1867	3846	3998
64	0	0	1969	1868	3846	3998
65	0	0	1980	1863	3847	3998
66	0	0	1974	1866	3847	3999
67	0	0	1952	1865	3847	4000
68	0	0	1933	1865	3846	3998
69	0	0	1916	1867	3846	3998
70	0	0	1910	1868	3847	3998
71	0	0	1896	1868	3847	3999
72	0	0	1884	1870	3846	3999
73	0	0	1869	1870	3846	3998
74	0	0	1850	1870	3846	3999
75	0	0	1831	1867	3847	3998
76	0	0	1829	1870	3846	3999
77	0	0	1849	1871	3846	3997
78	0	0	1866	1871	3846	3998
79	0	0	1865	1870	3845	3998
80	0	0	1837	1866	3847	3996
81	0	0	1802	1867	3846	3999
82	0	0	1779	1869	3846	3999
83	0	0	1792	1870	3846	3998
84	0	0	1822	1870	3846	3998
85	0	0	1870	1867	3847	3998
86	0	0	1923	1868	3847	3998
87	0	0	1971	1867	3846	3999
88	0	0	2003	1868	3846	3998
89	0	0	2022	1868	3846	3998
90	0	0	2035	1867	3847	3996
91	0	0	2036	1869	3847	3999
92	0	0	2034	1871	3845	3999
93	0	0	2048	1871	3845	3999
94	0	0	2071	1873	3845	3998
95	0	0	2101	1871	3847	3996
96	0	0	2134	1875	3846	3997
97	0	0	2174	1873	3846	3999
98	0	0	2224	1872	3846	3998
99	0	0	2299	1872	3846	3998
100	0	0	2393	1869	3847	3996
101	0	0	2481	1871	3848	3998
102	0	0	2547	1872	3846	3998
103	0	0	2588	1871	3844	4003
104	0	0	2599	1871	3846	3998
105	0	0	2624	1869	3847	3999
106	0	0	2658	1869	3847	3997
107	0	0	2685	1869	3846	3999
108	0	0	2706	1870	3847	4000
109	0	0	2717	1871	3844	3997
110	0	0	2701	1867	3847	3998
111	0	0	2641	1867	3846	3999
112	0	0	2568	1869	3845	3998
113	0	0	2497	1868	3847	4000
114	0	0	2459	1871	3846	3997
115	0	0	2431	1871	3846	3999
116	0	0	2399	1872	3847	4000
117	0	0	2360	1870	3846	3999
118	0	0	2325	1872	3847	4000
119	0	0	2327	1871	3847	3998
120	0	0	2341	1874	3847	3999
121	0	0	2336	1873	3847	3999
122	0	0	2317	1872	3846	3997
123	0	0	2297	1870	3847	4000
124	0	0	2263	1869	3845	3999
125	0	0	2227	1868	3846	3999
126	0	0	2198	1868	3847	4000
127	0	0	2173	1868	3846	3998
0	0	0	2161	1870	3847	4000
1	0	0	2141	1870	3847	4000
2	0	0	2127	1872	3846	4000
3	0	0	2127	1871	3846	4000
4	0	0	2127	1871	3846	3999
5	0	0	2125	1873	3848	3998
6	0	0	2118	1873	3846	3999
7	0	0	2110	1871	3847	3999
8	0	0	2105	1874	3847	3998
9	0	0	2100	1874	3846	3997
10	0	0	2093	1873	3846	3998
11	0	0	2087	1874	3846	4000
12	0	0	2082	1874	3848	4000
13	0	0	2079	1872	3846	4001
14	0	0	2076	1873	3847	4000
15	0	0	2067	1871	3846	3999
16	0	0	2077	1872	3846	3998
17	0	0	2104	1871	3846	3998
18	0	0	2108	1871	3847	3999
19	0	0	2088	1870	3845	4000
20	0	0	2070	1869	3846	3998
21	0	0	2068	1870	3846	3998
22	0	0	2072	1872	3847	4000
23	0	0	2061	1871	3847	3998
24	0	0	2040	1871	3845	3999
25	0	0	2027	1872	3846	3998
26	0	0	2008	1870	3846	3998
27	0	0	1978	1872	3846	3999
28	0	0	1958	1874	3848	4000
29	0	0	1947	1874	3846	4000
30	0	0	1933	1874	3847	4000
31	0	0	1927	1871	3847	3999
32	0	0	1929	1873	3846	4000
33	0	0	1923	1873	3846	4000
34	0	0	1920	1872	3845	4000
35	0	0	1926	1875	3847	4000
36	0	0	1926	1872	3845	3999
37	0	0	1934	1871	3846	4000
38	0	0	1947	1871	3847	3998
39	0	0	1962	1870	3846	4000
40	0	0	1965	1871	3847	3998
41	0	0	1951	1871	3846	4000
42	0	0	1926	1870	3848	4000
43	0	0	1896	1871	3847	3999
44	0	0	1869	1870	3846	4000
45	0	0	1843	1870	3847	4000
46	0	0	1835	1872	3843	4000
47	0	0	1837	1874	3846	4000
48	0	0	1844	1876	3846	3999
49	0	0	1848	1874	3845	4000
50	0	0	1846	1874	3845	3999
51	0	0	1857	1875	3845	3999
52	0	0	1878	1873	3846	4000
53	0	0	1904	1874	3847	4000
54	0	0	1929	1873	3846	4000
55	0	0	1937	1872	3847	3996
56	0	0	1932	1870	3846	3999
57	0	0	1924	1871	3846	4000
58	0	0	1912	1872	3847	3999
59	0	0	1906	1871	3848	4001
60	0	0	1904	1870	3846	3998
61	0	0	1903	1872	3848	4001
62	0	0	1889	1871	3847	4000
63	0	0	1876	1874	3847	3999
64	0	0	1872	1873	3846	4000
65	0	0	1873	1871	3845	3999
66	0	0	1865	1873	3845	3999
67	0	0	1823	1870	3847	3999
68	0	0	1790	1873	3846	3999
69	0	0	1779	1874	3845	3998
70	0	0	1785	1874	3846	3999
71	0	0	1812	1873	3846	3999
72	0	0	1824	1874	3846	4000
73	0	0	1830	1874	3846	4000
74	0	0	1837	1873	3847	4000
75	0	0	1847	1872	3846	3999
76	0	0	1876	1872	3846	4000
77	0	0	1880	1871	3846	3999
78	0	0	1851	1869	3846	3998
79	0	0	1826	1869	3846	3999
80	0	0	1817	1873	3845	3998
81	0	0	1816	1872	3846	3999
82	0	0	1811	1872	3846	4000
83	0	0	1788	1870	3847	3999
84	0	0	1765	1870	3845	3999
85	0	0	1752	1872	3846	3999
86	0	0	1748	1873	3846	3996
87	0	0	1740	1873	3846	3998
88	0	0	1732	1875	3847	3999
89	0	0	1736	1874	3848	3999
90	0	0	1745	1874	3846	3999
91	0	0	1762	1874	3847	4000
92	0	0	1766	1874	3848	4000
93	0	0	1770	1873	3846	4000
94	0	0	1782	1874	3847	4000
95	0	0	1793	1873	3846	3999
96	0	0	1796	1871	3845	4000
97	0	0	1799	1871	3844	4000
98	0	0	1799	1871	3847	4000
99	0	0	1797	1870	3846	4000
100	0	0	1792	1873	3846	3999
101	0	0	1786	1872	3846	3999
102	0	0	1783	1872	3846	4000
103	0	0	1776	1871	3847	4000
104	0	0	1767	1873	3846	3999
105	0	0	1762	1874	3847	4000
106	0	0	1761	1874	3847	4001
107	0	0	1754	1874	3846	3999
108	0	0	1748	1873	3847	4000
109	0	0	1755	1875	3848	4000
110	0	0	1752	1873	3846	3999
111	0	0	1741	1873	3846	4000
112	0	0	1733	1874	3844	3999
113	0	0	1725	1872	3847	3999
114	0	0	1724	1873	3846	3999
115	0	0	1721	1872	3846	3999
116	0	0	1740	1871	3845	3999
117	0	0	1793	1871	3844	3999
118	0	0	1831	1870	3846	4000
119	0	0	1835	1866	3846	4000
120	0	0	1811	1869	3846	3999
121	0	0	1782	1868	3846	3999
122	0	0	1755	1869	3845	3999
123	0	0	1743	1872	3847	4000
124	0	0	1732	1872	3846	3999
125	0	0	1726	1874	3848	4000
126	0	0	1724	1875	3846	3997
127	0	0	1725	1874	3844	3999
0	0	0	1729	1872	3846	4000
1	0	0	1735	1874	3846	3999
2	0	0	1740	1874	3847	3999
3	0	0	1760	1872	3847	3996
4	0	0	1763	1873	3845	3998
5	0	0	1755	1873	3847	3999
6	0	0	1756	1873	3845	3999
7	0	0	1746	1871	3846	3998
8	0	0	1731	1871	3847	3999
9	0	0	1741	1872	3847	4001
10	0	0	1766	1869	3847	4000
11	0	0	1784	1871	3846	3999
12	0	0	1800	1873	3846	3999
13	0	0	1798	1870	3848	3999
14	0	0	1778	1869	3844	3999
15	0	0	1751	1870	3847	4000
16	0	0	1731	1870	3846	3999
17	0	0	1711	1871	3845	4000
18	0	0	1694	1870	3847	3996
19	0	0	1690	1874	3845	3998
20	0	0	1705	1873	3847	3999
21	0	0	1740	1873	3845	4001
22	0	0	1746	1874	3845	3998
23	0	0	1725	1871	3846	3999
24	0	0	1713	1874	3847	4000
25	0	0	1714	1871	3846	4000
26	0	0	1727	1872	3846	4000
27	0	0	1743	1872	3845	3998
28	0	0	1755	1870	3846	3999
29	0	0	1785	1870	3844	3999
30	0	0	1811	1870	3847	4000
31	0	0	1829	1867	3846	3999
32	0	0	1839	1872	3847	4000
33	0	0	1842	1873	3845	4000
34	0	0	1838	1872	3844	3999
35	0	0	1832	1871	3845	3999
36	0	0	1817	1871	3845	3999
37	0	0	1790	1870	3845	3999
38	0	0	1756	1870	3846	3999
39	0	0	1735	1873	3845	3998
40	0	0	1721	1871	3846	4000
41	0	0	1723	1874	3845	3999
42	0	0	1740	1873	3846	3999
43	0	0	1766	1873	3846	3999
44	0	0	1802	1875	3846	3999
45	0	0	1849	1873	3847	3998
46	0	0	1885	1874	3846	3999
47	0	0	1908	1872	3846	3999
48	0	0	1908	1872	3846	3999
49	0	0	1900	1872	3845	3998
50	0	0	1901	1873	3846	4000
51	0	0	1910	1871	3845	3999
52	0	0	1915	1871	3846	3999
53	0	0	1899	1869	3846	3999
54	0	0	1884	1873	3845	3999
55	0	0	1879	1869	3846	3999
56	0	0	1874	1871	3845	3999
57	0	0	1845	1871	3845	3999
58	0	0	1821	1871	3846	3999
59	0	0	1802	1874	3845	3999
60	0	0	1798	1874	3847	3999
61	0	0	1815	1875	3847	4000
62	0	0	1838	1875	3846	3999
63	0	0	1855	1874	3847	3999
64	0	0	1865	1875	3848	4000
65	0	0	1887	1872	3847	4000
66	0	0	1897	1874	3847	4000
67	0	0	1873	1870	3845	3999
68	0	0	1841	1870	3846	4001
69	0	0	1844	1872	3847	4000
70	0	0	1873	1869	3846	3999
71	0	0	1907	1872	3847	4001
72	0	0	1916	1869	3845	3999
73	0	0	1919	1871	3846	4001
74	0	0	1920	1873	3844	3999
75	0	0	1924	1875	3847	3999
76	0	0	1927	1873	3846	3999
77	0	0	1912	1872	3846	3999
78	0	0	1885	1873	3845	3999
79	0	0	1858	1872	3847	3999
80	0	0	1849	1874	3847	3999
81	0	0	1843	1874	3847	3998
82	0	0	1844	1875	3846	3999
83	0	0	1853	1875	3846	3999
84	0	0	1854	1875	3845	3999
85	0	0	1857	1875	3847	4001
86	0	0	1870	1873	3846	3999
87	0	0	1881	1873	3847	4000
88	0	0	1875	1873	3846	4000
89	0	0	1876	1872	3847	3997
90	0	0	1878	1873	3846	4000
91	0	0	1885	1872	3846	4000
92	0	0	1881	1871	3847	3996
93	0	0	1852	1870	3846	4000
94	0	0	1821	1871	3847	4000
95	0	0	1791	1873	3847	4000
96	0	0	1766	1871	3847	3999
97	0	0	1748	1871	3847	3999
98	0	0	1733	1873	3847	3999
99	0	0	1711	1872	3849	4000
100	0	0	1707	1878	3846	4000
101	0	0	1719	1875	3847	4001
102	0	0	1733	1875	3847	3999
103	0	0	1742	1875	3846	4001
104	0	0	1762	1875	3847	4000
105	0	0	1783	1875	3846	3999
106	0	0	1800	1874	3846	3999
107	0	0	1809	1871	3846	3999
108	0	0	1800	1873	3846	3997
109	0	0	1793	1872	3848	3997
110	0	0	1800	1874	3847	4000
111	0	0	1816	1871	3846	3999
112	0	0	1837	1871	3847	3999
113	0	0	1828	1873	3847	3997
114	0	0	1812	1872	3849	4000
115	0	0	1798	1875	3847	4000
116	0	0	1788	1873	3846	3999
117	0	0	1767	1872	3847	4000
118	0	0	1744	1874	3848	4000
119	0	0	1721	1873	3848	3997
120	0	0	1703	1874	3846	4000
121	0	0	1689	1874	3847	4001
122	0	0	1687	1875	3845	3999
123	0	0	1704	1876	3846	3999
124	0	0	1726	1875	3848	3997
125	0	0	1731	1875	3847	4000
126	0	0	1734	1873	3846	3999
127	0	0	1752	1873	3847	4000
0	0	0	1762	1873	3845	4000
1	0	0	1774	1872	3848	3998
2	0	0	1774	1872	3847	3999
3	0	0	1763	1871	3846	3999
4	0	0	1758	1873	3847	3999
5	0	0	1752	1873	3846	4000
6	0	0	1734	1871	3847	4000
7	0	0	1704	1873	3847	4001
8	0	0	1679	1872	3846	3999
9	0	0	1658	1871	3847	3999
10	0	0	1642	1872	3846	4000
11	0	0	1620	1874	3847	4000
12	0	0	1621	1876	3847	4000
13	0	0	1630	1876	3846	3999
14	0	0	1651	1871	3846	3999
15	0	0	1671	1876	3847	3999
16	0	0	1695	1875	3848	3998
17	0	0	1718	1876	3847	4000
18	0	0	1728	1874	3847	3999
19	0	0	1708	1872	3847	4000
20	0	0	1700	1873	3848	3996
21	0	0	1726	1874	3848	3997
22	0	0	1744	1872	3846	4000
23	0	0	1722	1870	3847	4001
24	0	0	1694	1869	3845	3999
25	0	0	1674	1871	3846	3999
26	0	0	1672	1874	3848	3998
27	0	0	1684	1874	3846	4000
28	0	0	1675	1873	3846	3999
29	0	0	1660	1873	3846	3999
30	0	0	1644	1874	3846	3999
31	0	0	1621	1874	3848	3996
32	0	0	1600	1874	3846	4000
33	0	0	1579	1874	3846	3999
34	0	0	1559	1873	3845	4000
35	0	0	1559	1875	3847	4001
36	0	0	1562	1876	3848	4000
37	0	0	1570	1875	3847	4000
38	0	0	1588	1875	3846	3999
39	0	0	1617	1875	3847	4000
40	0	0	1637	1874	3847	3997
41	0	0	1638	1875	3847	3998
42	0	0	1636	1873	3846	3999
43	0	0	1646	1875	3846	4000
44	0	0	1662	1873	3845	3999
45	0	0	1668	1874	3847	3999
46	0	0	1652	1873	3848	4000
47	0	0	1645	1874	3846	4001
48	0	0	1646	1875	3846	3999
49	0	0	1635	1876	3844	4000
50	0	0	1631	1876	3847	3999
51	0	0	1615	1874	3848	4000
52	0	0	1589	1874	3848	4001
53	0	0	1564	1874	3846	3998
54	0	0	1533	1875	3845	3999
55	0	0	1511	1876	3846	4000
56	0	0	1516	1878	3844	4001
57	0	0	1540	1876	3846	4000
58	0	0	1566	1876	3847	4000
59	0	0	1590	1876	3845	3998
60	0	0	1605	1872	3845	3999
61	0	0	1626	1875	3846	4000
62	0	0	1660	1874	3847	3999
63	0	0	1692	1873	3846	3999
64	0	0	1701	1874	3847	4000
65	0	0	1681	1872	3847	4002
66	0	0	1666	1875	3848	3998
67	0	0	1661	1875	3847	4000
68	0	0	1639	1873	3846	3999
69	0	0	1605	1874	3848	3998
70	0	0	1571	1874	3846	3999
71	0	0	1552	1877	3847	4001
72	0	0	1557	1878	3846	3999
73	0	0	1569	1878	3846	3998
74	0	0	1592	1878	3846	3999
75	0	0	1619	1876	3846	4000
76	0	0	1640	1878	3848	4000
77	0	0	1644	1877	3846	4000
78	0	0	1647	1877	3846	3999
79	0	0	1655	1876	3847	4000
80	0	0	1678	1875	3849	4000
81	0	0	1704	1877	3847	3999
82	0	0	1728	1875	3846	3999
83	0	0	1737	1876	3846	3999
84	0	0	1731	1876	3846	3999
85	0	0	1722	1874	3846	3998
86	0	0	1708	1875	3846	3999
87	0	0	1692	1874	3847	4000
88	0	0	1659	1875	3847	4000
89	0	0	1612	1874	3846	3999
90	0	0	1579	1875	3845	3999
91	0	0	1580	1879	3847	4000
92	0	0	1601	1879	3845	4000
93	0	0	1623	1879	3846	3999
94	0	0	1631	1879	3847	4000
95	0	0	1636	1879	3846	3998
96	0	0	1660	1879	3847	3999
97	0	0	1693	1877	3846	4000
98	0	0	1710	1877	3846	3998
99	0	0	1714	1877	3847	3999
100	0	0	1706	1875	3846	3998
101	0	0	1706	1877	3845	3999
102	0	0	1698	1874	3846	4000
103	0	0	1670	1873	3847	3999
104	0	0	1656	1876	3846	3999
105	0	0	1666	1877	3846	3999
106	0	0	1690	1878	3847	4000
107	0	0	1710	1878	3845	4000
108	0	0	1700	1875	3845	3999
109	0	0	1676	1876	3845	3999
110	0	0	1667	1878	3846	4000
111	0	0	1665	1879	3843	3999
112	0	0	1666	1879	3846	4000
113	0	0	1667	1879	3845	3999
114	0	0	1673	1880	3845	3999
115	0	0	1693	1879	3846	3998
116	0	0	1714	1879	3845	3999
117	0	0	1731	1879	3847	3998
118	0	0	1738	1876	3846	3998
119	0	0	1754	1877	3846	4000
120	0	0	1774	1876	3846	3998
121	0	0	1789	1878	3845	3999
122	0	0	1781	1875	3846	4000
123	0	0	1774	1876	3847	3998
124	0	0	1776	1876	3846	3999
125	0	0	1763	1875	3845	3998
126	0	0	1744	1875	3845	3999
127	0	0	1734	1878	3846	3999
0	0	0	1739	1879	3846	3999
1	0	0	1745	1879	3845	4000
2	0	0	1749	1878	3846	3999
3	0	0	1743	1877	3845	3999
4	0	0	1729	1878	3845	4001
5	0	0	1730	1880	3847	4003
6	0	0	1757	1881	3846	3999
7	0	0	1804	1879	3847	4000
8	0	0	1846	1880	3847	4000
9	0	0	1865	1881	3842	4000
10	0	0	1872	1879	3847	4000
11	0	0	1879	1877	3848	3998
12	0	0	1881	1878	3846	4000
13	0	0	1885	1877	3847	4000
14	0	0	1888	1877	3847	3999
