# bioPlux Text File Format
# Version: 1
# StartDateTime: 2011-07-18 12:02:30
# SamplingFrequency: 1000
# SampledChannels: 1 2 3 4 5
# SamplingResolution: 12
# AcquiringDevice: 00:07:80:42:0F:95
# EndOfHeader
0	0	0	1850	995	185	403	3435
1	0	0	1847	998	184	403	3434
2	0	0	1856	995	184	403	3435
3	0	0	1780	995	183	403	3435
4	0	0	1831	999	184	403	3434
5	0	0	1968	998	184	403	3435
6	0	0	2086	999	184	402	3436
7	0	0	2223	999	184	403	3436
8	0	0	2343	999	183	403	3436
9	0	0	2397	999	184	403	3437
10	0	0	2412	998	183	403	3438
11	0	0	2397	998	184	403	3437
12	0	0	2362	995	184	403	3436
13	0	0	2361	998	184	403	3434
14	0	0	2285	993	183	403	3433
15	0	0	2166	993	184	403	3433
16	0	0	2083	994	183	403	3433
17	0	0	2001	994	184	403	3433
18	0	0	1931	993	184	404	3432
19	0	0	1825	993	184	403	3433
20	0	0	1782	996	184	403	3433
21	0	0	1791	999	184	403	3433
22	0	0	1818	997	184	404	3434
23	0	0	1756	996	184	403	3433
24	0	0	1815	1000	184	403	3434
25	0	0	1945	999	184	403	3434
26	0	0	2048	999	183	402	3435
27	0	0	2175	998	184	403	3436
28	0	0	2288	999	184	403	3435
29	0	0	2339	999	183	403	3434
30	0	0	2350	997	184	403	3432
31	0	0	2331	997	184	403	3432
32	0	0	2300	995	183	403	3431
33	0	0	2301	998	184	403	3431
34	0	0	2231	993	183	403	3430
35	0	0	2115	994	184	403	3431
36	0	0	2027	994	185	403	3432
37	0	0	1949	994	185	403	3431
38	0	0	1880	994	183	403	3432
39	0	0	1810	994	184	403	3433
40	0	0	1761	995	184	402	3433
41	0	0	1752	998	183	403	3433
42	0	0	1762	995	183	403	3434
43	0	0	1688	995	184	403	3434
44	0	0	1732	999	184	403	3435
45	0	0	1871	999	184	403	3433
46	0	0	1988	999	184	403	3432
47	0	0	2124	999	184	403	3431
48	0	0	2251	998	183	403	3431
49	0	0	2309	998	183	403	3430
50	0	0	2320	998	184	403	3430
51	0	0	2304	997	184	402	3430
52	0	0	2272	995	183	403	3430
53	0	0	2277	998	184	403	3431
54	0	0	2213	993	184	403	3430
55	0	0	2100	993	184	403	3431
56	0	0	2008	994	184	403	3431
57	0	0	1924	993	184	403	3432
58	0	0	1840	993	183	403	3433
59	0	0	1750	995	184	403	3434
60	0	0	1718	996	183	405	3434
61	0	0	1729	999	184	403	3434
62	0	0	1744	996	184	403	3433
63	0	0	1693	995	184	403	3431
64	0	0	1734	999	183	403	3431
65	0	0	1868	1000	183	405	3430
66	0	0	1978	999	184	403	3429
67	0	0	2116	999	183	403	3430
68	0	0	2247	998	184	403	3430
69	0	0	2307	999	184	403	3431
70	0	0	2325	998	184	403	3430
71	0	0	2311	999	184	403	3430
72	0	0	2284	996	184	403	3432
73	0	0	2286	998	184	403	3431
74	0	0	2226	993	183	403	3431
75	0	0	2103	993	184	403	3432
76	0	0	2005	994	185	403	3433
77	0	0	1924	993	184	403	3434
78	0	0	1859	994	183	403	3434
79	0	0	1792	995	184	403	3432
80	0	0	1744	995	184	403	3431
81	0	0	1731	998	184	403	3430
82	0	0	1747	997	183	403	3429
83	0	0	1675	995	183	403	3430
84	0	0	1715	999	183	403	3430
85	0	0	1864	1000	183	404	3429
86	0	0	1993	998	183	403	3430
87	0	0	2137	999	184	403	3431
88	0	0	2273	999	184	403	3432
89	0	0	2338	999	184	403	3431
90	0	0	2363	999	183	403	3433
91	0	0	2350	998	184	403	3432
92	0	0	2318	994	183	403	3433
93	0	0	2319	998	184	403	3433
94	0	0	2257	993	183	403	3433
95	0	0	2139	993	183	403	3432
96	0	0	2043	994	183	403	3431
97	0	0	1961	993	184	403	3431
98	0	0	1855	993	183	403	3431
99	0	0	1776	994	184	403	3430
100	0	0	1738	995	184	403	3430
101	0	0	1741	998	184	403	3425
102	0	0	1762	998	183	403	3430
103	0	0	1699	995	183	403	3430
104	0	0	1730	998	184	403	3430
105	0	0	1874	999	184	403	3432
106	0	0	2002	999	184	403	3432
107	0	0	2146	998	183	404	3432
108	0	0	2289	999	184	403	3434
109	0	0	2363	999	186	403	3433
110	0	0	2387	998	184	403	3435
111	0	0	2383	999	184	403	3435
112	0	0	2350	994	184	403	3433
113	0	0	2351	997	184	403	3431
114	0	0	2285	993	183	403	3431
115	0	0	2155	993	184	403	3430
116	0	0	2051	994	184	403	3431
117	0	0	1964	993	183	403	3431
118	0	0	1876	993	184	403	3431
119	0	0	1789	994	184	403	3431
120	0	0	1731	995	183	403	3431
121	0	0	1713	996	183	403	3432
122	0	0	1722	995	183	403	3432
123	0	0	1642	995	183	403	3432
124	0	0	1674	999	184	403	3432
125	0	0	1830	999	185	403	3433
126	0	0	1968	999	185	403	3433
127	0	0	2121	998	184	403	3435
0	0	0	2275	999	184	403	3435
1	0	0	2351	998	184	403	3433
2	0	0	2372	998	184	403	3433
3	0	0	2367	998	184	403	3432
4	0	0	2335	995	183	403	3431
5	0	0	2338	999	185	403	3431
6	0	0	2276	993	184	404	3430
7	0	0	2136	993	184	403	3431
8	0	0	2023	994	184	403	3431
9	0	0	1920	992	184	403	3431
10	0	0	1799	993	184	403	3431
11	0	0	1725	994	183	403	3433
12	0	0	1680	994	184	404	3433
13	0	0	1669	997	184	403	3434
14	0	0	1705	998	184	403	3433
15	0	0	1622	994	183	403	3433
16	0	0	1639	998	184	403	3433
17	0	0	1796	999	184	403	3432
18	0	0	1940	999	183	403	3432
19	0	0	2102	998	184	403	3431
20	0	0	2272	998	184	403	3430
21	0	0	2362	999	183	403	3430
22	0	0	2393	998	184	404	3429
23	0	0	2388	998	182	403	3430
24	0	0	2361	995	183	403	3429
25	0	0	2364	998	184	403	3430
26	0	0	2299	993	184	403	3428
27	0	0	2149	993	184	403	3429
28	0	0	2023	993	184	403	3430
29	0	0	1921	993	184	403	3431
30	0	0	1827	993	184	403	3431
31	0	0	1732	993	184	403	3431
32	0	0	1657	994	183	403	3432
33	0	0	1627	995	182	403	3432
34	0	0	1643	997	184	403	3430
35	0	0	1558	994	183	403	3429
36	0	0	1583	999	184	403	3427
37	0	0	1759	998	183	403	3426
38	0	0	1919	998	185	403	3426
39	0	0	2095	998	185	403	3426
40	0	0	2284	998	184	403	3426
41	0	0	2387	998	185	403	3427
42	0	0	2426	998	184	403	3426
43	0	0	2425	998	185	403	3426
44	0	0	2390	994	184	403	3426
45	0	0	2391	997	184	403	3425
46	0	0	2326	992	184	403	3425
47	0	0	2175	992	184	402	3427
48	0	0	2044	993	184	403	3427
49	0	0	1907	992	183	403	3427
50	0	0	1789	992	183	403	3426
51	0	0	1699	993	184	403	3425
52	0	0	1632	994	185	404	3424
53	0	0	1601	997	185	403	3423
54	0	0	1636	997	184	403	3422
55	0	0	1538	993	184	403	3420
56	0	0	1555	998	184	403	3421
57	0	0	1742	998	183	402	3420
58	0	0	1921	998	183	403	3420
59	0	0	2114	998	184	403	3421
60	0	0	2322	998	184	403	3422
61	0	0	2442	997	184	403	3422
62	0	0	2490	998	184	403	3422
63	0	0	2495	998	185	403	3422
64	0	0	2461	994	183	403	3422
65	0	0	2464	998	183	403	3422
66	0	0	2400	992	184	403	3422
67	0	0	2229	992	185	403	3421
68	0	0	2081	992	185	403	3419
69	0	0	1951	992	184	403	3419
70	0	0	1829	992	184	403	3418
71	0	0	1710	993	184	403	3417
72	0	0	1614	993	183	403	3417
73	0	0	1571	994	184	403	3417
74	0	0	1573	996	184	403	3416
75	0	0	1476	993	184	403	3416
76	0	0	1488	999	184	403	3416
77	0	0	1693	998	184	403	3416
78	0	0	1894	998	185	403	3416
79	0	0	2112	998	184	403	3418
80	0	0	2350	998	183	403	3419
81	0	0	2490	997	184	403	3420
82	0	0	2549	998	185	403	3420
83	0	0	2561	997	184	403	3419
84	0	0	2538	995	184	403	3418
85	0	0	2543	998	184	403	3417
86	0	0	2475	992	183	403	3414
87	0	0	2288	991	183	403	3414
88	0	0	2114	992	185	403	3414
89	0	0	1930	991	184	403	3414
90	0	0	1789	992	183	403	3415
91	0	0	1670	992	185	403	3416
92	0	0	1572	993	184	403	3416
93	0	0	1542	997	185	403	3415
94	0	0	1554	997	184	403	3416
95	0	0	1443	992	183	403	3416
96	0	0	1441	998	184	402	3416
97	0	0	1652	999	184	403	3417
98	0	0	1862	998	184	403	3418
99	0	0	2094	997	184	403	3419
100	0	0	2357	998	184	403	3419
101	0	0	2513	998	184	403	3417
102	0	0	2583	998	184	403	3416
103	0	0	2603	997	185	403	3415
104	0	0	2582	994	183	403	3414
105	0	0	2580	997	183	403	3414
106	0	0	2509	991	184	403	3414
107	0	0	2301	991	184	402	3414
108	0	0	2108	992	184	403	3414
109	0	0	1940	991	184	403	3415
110	0	0	1781	991	185	403	3415
111	0	0	1629	992	185	403	3416
112	0	0	1521	992	184	403	3417
113	0	0	1470	994	185	403	3418
114	0	0	1480	997	184	403	3417
115	0	0	1380	992	184	403	3417
116	0	0	1379	997	184	403	3418
117	0	0	1616	998	184	403	3417
118	0	0	1854	998	184	403	3416
119	0	0	2103	997	183	403	3416
120	0	0	2390	998	184	403	3415
121	0	0	2564	997	184	402	3414
122	0	0	2639	998	184	403	3414
123	0	0	2664	997	184	403	3415
124	0	0	2641	994	185	403	3414
125	0	0	2656	998	184	403	3415
126	0	0	2599	992	184	403	3414
127	0	0	2380	993	184	403	3415
0	0	0	2152	991	184	403	3415
1	0	0	1948	991	184	403	3417
2	0	0	1789	992	184	403	3417
3	0	0	1642	992	183	403	3418
4	0	0	1523	993	184	404	3419
5	0	0	1483	994	184	403	3419
6	0	0	1484	997	183	403	3418
7	0	0	1359	992	184	403	3416
8	0	0	1322	998	184	403	3414
9	0	0	1558	998	184	403	3415
10	0	0	1826	999	184	403	3415
11	0	0	2117	997	184	403	3415
12	0	0	2455	997	184	403	3415
13	0	0	2677	998	184	403	3415
14	0	0	2787	997	183	403	3416
15	0	0	2827	998	184	403	3416
16	0	0	2796	993	184	403	3417
17	0	0	2777	997	184	403	3416
18	0	0	2704	991	184	403	3417
19	0	0	2462	991	184	405	3418
20	0	0	2230	991	184	403	3419
21	0	0	1876	991	184	403	3420
22	0	0	1696	993	183	403	3419
23	0	0	1711	997	185	403	3418
24	0	0	1752	998	183	403	3417
25	0	0	1782	997	184	403	3417
26	0	0	1786	996	185	403	3416
27	0	0	1734	993	184	403	3416
28	0	0	1722	997	184	403	3415
29	0	0	1791	997	184	403	3416
30	0	0	1870	998	184	403	3417
31	0	0	1968	997	184	403	3417
32	0	0	2106	997	184	403	3419
33	0	0	2220	998	185	403	3419
34	0	0	2296	997	183	403	3419
35	0	0	2346	997	183	403	3420
36	0	0	2367	997	184	403	3420
37	0	0	2396	998	183	403	3420
38	0	0	2389	994	184	403	3421
39	0	0	2308	993	183	403	3420
40	0	0	2196	993	184	403	3420
41	0	0	2120	993	183	403	3419
42	0	0	2060	993	183	403	3418
43	0	0	1990	993	184	403	3420
44	0	0	1926	995	185	403	3418
45	0	0	1924	996	184	403	3419
46	0	0	1900	994	184	403	3419
47	0	0	1814	992	184	403	3418
48	0	0	1790	998	184	403	3419
49	0	0	1881	998	184	403	3420
50	0	0	1986	997	184	403	3421
51	0	0	2104	997	184	403	3422
52	0	0	2241	998	183	403	3423
53	0	0	2332	998	184	403	3423
54	0	0	2383	998	183	403	3425
55	0	0	2411	998	184	403	3425
56	0	0	2430	998	184	403	3423
57	0	0	2459	998	183	403	3422
58	0	0	2440	994	185	403	3421
59	0	0	2356	993	183	403	3420
60	0	0	2267	994	184	403	3421
61	0	0	2176	993	184	403	3421
62	0	0	2096	994	183	403	3421
63	0	0	2015	994	184	403	3423
64	0	0	1954	995	184	403	3422
65	0	0	1917	995	184	403	3423
66	0	0	1914	999	184	403	3423
67	0	0	1868	994	184	403	3423
68	0	0	1870	998	184	403	3424
69	0	0	1940	998	184	403	3424
70	0	0	2020	998	184	403	3425
71	0	0	2109	997	185	403	3427
72	0	0	2209	998	184	403	3427
73	0	0	2284	998	184	403	3425
74	0	0	2342	998	184	403	3424
75	0	0	2388	998	184	403	3424
76	0	0	2417	998	184	403	3424
77	0	0	2446	999	183	403	3424
78	0	0	2445	996	184	403	3422
79	0	0	2375	994	183	403	3423
80	0	0	2263	994	184	403	3424
81	0	0	2203	994	184	403	3424
82	0	0	2154	995	183	403	3426
83	0	0	2087	995	183	403	3425
84	0	0	2023	995	184	403	3426
85	0	0	1969	994	184	403	3427
86	0	0	1920	994	184	403	3428
87	0	0	1847	994	184	403	3427
88	0	0	1811	998	184	403	3428
89	0	0	1852	998	184	403	3427
90	0	0	1911	999	185	403	3426
91	0	0	1989	999	185	403	3426
92	0	0	2107	999	183	403	3426
93	0	0	2218	998	183	403	3425
94	0	0	2305	999	184	403	3425
95	0	0	2358	999	184	403	3426
96	0	0	2378	999	184	403	3426
97	0	0	2390	999	183	403	3426
98	0	0	2380	995	183	403	3425
99	0	0	2330	995	184	403	3426
100	0	0	2300	998	184	403	3427
101	0	0	2237	994	183	403	3428
102	0	0	2135	994	184	403	3429
103	0	0	2008	994	183	403	3430
104	0	0	1888	994	184	402	3430
105	0	0	1799	994	183	402	3430
106	0	0	1739	995	184	403	3429
107	0	0	1658	994	185	403	3428
108	0	0	1619	998	183	403	3426
109	0	0	1699	999	184	403	3426
110	0	0	1803	999	183	403	3425
111	0	0	1918	998	184	403	3426
112	0	0	2066	999	183	403	3426
113	0	0	2182	998	183	403	3427
114	0	0	2263	999	184	403	3426
115	0	0	2324	999	184	403	3427
116	0	0	2363	999	183	403	3427
117	0	0	2402	999	183	403	3427
118	0	0	2395	995	183	403	3427
119	0	0	2270	995	183	403	3428
120	0	0	2131	994	184	403	3430
121	0	0	2050	994	184	403	3430
122	0	0	1968	995	184	403	3430
123	0	0	1853	995	183	403	3428
124	0	0	1774	995	185	403	3427
125	0	0	1698	994	184	402	3427
126	0	0	1650	996	182	403	3426
127	0	0	1564	994	184	403	3425
0	0	0	1521	999	184	403	3425
1	0	0	1594	998	185	403	3425
2	0	0	1686	999	184	403	3426
3	0	0	1811	1000	184	403	3427
4	0	0	1989	999	183	403	3427
5	0	0	2123	999	183	403	3428
6	0	0	2213	1000	184	404	3428
7	0	0	2265	999	183	402	3428
8	0	0	2287	999	183	403	3429
9	0	0	2314	999	184	403	3428
10	0	0	2293	994	182	403	3429
11	0	0	2181	995	183	403	3428
12	0	0	2061	995	184	402	3427
13	0	0	1963	995	184	403	3427
14	0	0	1869	994	184	403	3426
15	0	0	1756	994	184	403	3425
16	0	0	1653	994	184	403	3425
17	0	0	1594	996	184	402	3425
18	0	0	1584	999	184	403	3426
19	0	0	1540	994	185	403	3425
20	0	0	1530	999	183	403	3426
21	0	0	1645	999	185	403	3425
22	0	0	1765	1000	184	402	3426
23	0	0	1887	999	185	403	3427
24	0	0	2040	999	184	403	3428
25	0	0	2145	999	184	403	3428
26	0	0	2212	999	183	403	3429
27	0	0	2251	999	183	403	3428
28	0	0	2268	998	183	403	3428
29	0	0	2278	999	184	403	3425
30	0	0	2249	995	184	403	3424
31	0	0	2125	994	184	403	3424
32	0	0	2041	995	184	403	3424
33	0	0	1999	996	184	403	3425
34	0	0	1941	995	184	403	3429
35	0	0	1862	995	184	403	3424
36	0	0	1774	994	184	403	3425
37	0	0	1665	995	184	403	3425
38	0	0	1587	995	185	403	3426
39	0	0	1499	994	184	403	3426
40	0	0	1469	999	184	403	3425
41	0	0	1547	999	184	403	3426
42	0	0	1638	999	184	404	3427
43	0	0	1746	999	185	403	3428
44	0	0	1880	999	185	403	3427
45	0	0	1990	998	184	403	3426
46	0	0	2067	1000	184	403	3425
47	0	0	2130	999	183	402	3424
48	0	0	2185	1000	184	403	3424
49	0	0	2214	999	184	403	3423
50	0	0	2218	996	182	403	3424
51	0	0	2164	995	184	404	3422
52	0	0	2096	996	184	404	3423
53	0	0	2090	1000	184	403	3424
54	0	0	2153	1000	184	403	3424
55	0	0	2255	1000	184	403	3425
56	0	0	2356	1000	183	403	3425
57	0	0	2446	999	185	403	3426
58	0	0	2500	999	185	403	3426
59	0	0	2504	998	183	403	3427
60	0	0	2491	999	185	402	3426
61	0	0	2517	999	183	403	3426
62	0	0	2494	996	184	403	3425
63	0	0	2442	996	184	403	3424
64	0	0	2404	995	184	403	3423
65	0	0	2343	994	183	403	3423
66	0	0	2271	995	184	403	3423
67	0	0	2219	996	184	403	3423
68	0	0	2226	999	184	403	3423
69	0	0	2277	999	182	403	3422
70	0	0	2297	994	184	403	3423
71	0	0	2222	995	183	403	3423
72	0	0	2178	995	183	403	3424
73	0	0	2116	994	184	403	3425
74	0	0	2031	994	183	403	3425
75	0	0	2004	998	184	403	3426
76	0	0	1973	995	185	403	3427
77	0	0	1907	994	184	403	3427
78	0	0	1821	995	184	403	3425
79	0	0	1681	993	185	403	3424
80	0	0	1530	994	183	403	3424
81	0	0	1496	998	184	405	3422
82	0	0	1518	999	184	403	3422
83	0	0	1583	999	185	403	3423
84	0	0	1717	999	184	403	3422
85	0	0	1846	999	184	403	3422
86	0	0	1936	1000	184	403	3423
87	0	0	1999	999	183	403	3423
88	0	0	2056	1000	183	403	3424
89	0	0	2120	999	183	403	3423
90	0	0	2163	999	183	403	3424
91	0	0	2113	996	183	403	3425
92	0	0	2106	1000	183	403	3426
93	0	0	2153	1000	183	403	3426
94	0	0	2153	999	184	403	3425
95	0	0	2110	995	183	403	3425
96	0	0	2005	995	184	404	3424
97	0	0	1920	995	184	403	3423
98	0	0	1859	996	185	403	3422
99	0	0	1826	996	183	403	3421
100	0	0	1840	1000	185	403	3421
101	0	0	1950	1000	183	403	3422
102	0	0	2067	1000	185	403	3422
103	0	0	2166	999	184	403	3422
104	0	0	2244	999	184	403	3423
105	0	0	2300	1000	184	403	3423
106	0	0	2334	1000	184	403	3424
107	0	0	2351	1000	183	402	3425
108	0	0	2364	1000	184	403	3425
109	0	0	2385	1000	183	403	3424
110	0	0	2408	1001	184	403	3424
111	0	0	2404	1000	183	403	3424
112	0	0	2407	1000	184	402	3424
113	0	0	2392	997	184	403	3423
114	0	0	2324	998	184	403	3422
115	0	0	2273	996	183	403	3421
116	0	0	2196	996	184	403	3421
117	0	0	2157	998	184	403	3421
118	0	0	2156	1000	183	403	3421
119	0	0	2135	996	185	403	3420
120	0	0	2097	1000	184	403	3422
121	0	0	2128	1000	184	404	3422
122	0	0	2168	1000	184	403	3422
123	0	0	2210	999	184	403	3424
124	0	0	2289	1000	184	403	3424
125	0	0	2357	1000	184	403	3424
126	0	0	2402	1000	184	403	3425
127	0	0	2421	1000	183	403	3425
0	0	0	2405	998	184	403	3424
1	0	0	2358	997	183	403	3422
2	0	0	2313	995	182	403	3422
3	0	0	2227	995	184	405	3420
4	0	0	2137	996	184	403	3420
5	0	0	2062	996	183	403	3421
6	0	0	1974	995	183	402	3420
7	0	0	1884	995	182	403	3422
8	0	0	1793	996	185	404	3421
9	0	0	1710	996	184	403	3422
10	0	0	1648	995	184	403	3422
11	0	0	1581	995	185	403	3423
12	0	0	1515	996	185	403	3422
13	0	0	1555	1000	185	403	3422
14	0	0	1655	1000	184	403	3424
15	0	0	1791	1000	183	403	3424
16	0	0	1973	1000	184	403	3424
17	0	0	2140	1000	185	403	3423
18	0	0	2266	1001	183	403	3421
19	0	0	2370	1001	183	403	3421
20	0	0	2454	1000	183	403	3420
21	0	0	2528	1000	184	403	3419
22	0	0	2555	1001	183	403	3419
23	0	0	2563	1000	184	403	3419
24	0	0	2543	999	184	403	3420
25	0	0	2487	997	183	403	3421
26	0	0	2395	996	184	403	3421
27	0	0	2290	995	184	403	3421
28	0	0	2174	996	184	403	3422
29	0	0	2083	997	183	403	3423
30	0	0	2027	996	183	403	3423
31	0	0	1960	996	184	403	3423
32	0	0	1864	996	185	403	3423
33	0	0	1853	1001	184	403	3422
34	0	0	1936	1001	184	404	3421
35	0	0	2105	1001	183	403	3421
36	0	0	2300	1000	183	403	3420
37	0	0	2416	1001	184	403	3421
38	0	0	2466	1001	185	403	3419
39	0	0	2494	1001	183	403	3419
40	0	0	2513	1001	183	403	3420
41	0	0	2511	1001	184	403	3419
42	0	0	2500	1000	185	403	3419
43	0	0	2463	999	184	403	3420
44	0	0	2444	1001	184	403	3421
45	0	0	2407	997	184	403	3422
46	0	0	2326	997	183	403	3422
47	0	0	2265	997	184	403	3422
48	0	0	2204	997	184	403	3424
49	0	0	2137	997	184	403	3423
50	0	0	2085	997	185	403	3423
51	0	0	2031	996	184	403	3420
52	0	0	1968	998	184	404	3419
53	0	0	1991	1001	184	403	3419
54	0	0	2050	1000	184	403	3419
55	0	0	2117	1001	184	403	3419
56	0	0	2221	1001	184	403	3419
57	0	0	2303	1001	183	403	3419
58	0	0	2359	1000	182	403	3419
59	0	0	2415	1000	183	404	3420
60	0	0	2457	1002	183	403	3420
61	0	0	2464	1000	183	403	3420
62	0	0	2454	1002	183	403	3420
63	0	0	2424	998	184	403	3422
64	0	0	2380	998	184	404	3422
65	0	0	2316	997	184	403	3424
66	0	0	2265	997	183	403	3422
67	0	0	2192	997	184	404	3421
68	0	0	2111	996	184	403	3420
69	0	0	2044	997	184	403	3420
70	0	0	1986	996	184	403	3419
71	0	0	1925	996	183	403	3419
72	0	0	1861	998	184	403	3419
73	0	0	1881	1001	184	403	3418
74	0	0	1928	1001	184	404	3419
75	0	0	1974	1001	184	403	3420
76	0	0	2061	1000	184	403	3419
77	0	0	2162	1001	183	403	3420
78	0	0	2267	1000	183	403	3421
79	0	0	2356	1000	183	403	3422
80	0	0	2403	1001	183	403	3422
81	0	0	2419	1001	184	403	3422
82	0	0	2423	999	183	403	3422
83	0	0	2367	996	185	403	3422
84	0	0	2296	997	184	403	3421
85	0	0	2243	997	183	403	3420
86	0	0	2182	997	183	403	3420
87	0	0	2112	997	185	403	3419
88	0	0	2022	995	183	403	3419
89	0	0	1936	996	184	404	3419
90	0	0	1882	997	185	403	3420
91	0	0	1841	996	183	403	3418
92	0	0	1803	999	184	403	3420
93	0	0	1844	1000	184	403	3419
94	0	0	1903	1000	184	404	3420
95	0	0	1968	1000	183	403	3421
96	0	0	2069	1000	184	403	3421
97	0	0	2158	1000	184	404	3422
98	0	0	2225	1000	182	403	3423
99	0	0	2284	1000	185	403	3422
100	0	0	2316	1000	184	403	3422
101	0	0	2285	997	183	403	3420
102	0	0	2275	1000	183	403	3419
103	0	0	2256	998	183	403	3418
104	0	0	2216	997	183	403	3412
105	0	0	2182	999	183	403	3419
106	0	0	2140	996	183	403	3418
107	0	0	2079	996	185	403	3420
108	0	0	2019	996	184	404	3419
109	0	0	1974	996	183	403	3420
110	0	0	1941	998	183	403	3420
111	0	0	1913	996	183	403	3420
112	0	0	1852	996	185	403	3420
113	0	0	1860	1000	184	403	3421
114	0	0	1917	1000	183	404	3422
115	0	0	2012	1000	183	403	3423
116	0	0	2129	1000	184	403	3422
117	0	0	2189	1000	184	403	3421
118	0	0	2206	1000	184	403	3420
119	0	0	2278	1000	184	403	3419
120	0	0	2386	1000	183	403	3419
121	0	0	2460	1000	184	403	3419
122	0	0	2475	996	183	403	3418
123	0	0	2368	995	183	403	3418
124	0	0	2304	999	183	403	3419
125	0	0	2340	999	183	403	3419
126	0	0	2392	1000	183	403	3420
127	0	0	2327	994	184	403	3420
0	0	0	2194	994	184	403	3421
1	0	0	2064	995	184	404	3421
2	0	0	1960	995	183	403	3422
3	0	0	1875	995	184	403	3422
4	0	0	1832	1000	184	403	3423
5	0	0	1922	999	184	403	3421
6	0	0	2082	999	185	403	3420
7	0	0	2237	999	183	403	3420
8	0	0	2398	999	183	403	3419
9	0	0	2511	998	183	403	3418
10	0	0	2573	998	184	403	3419
11	0	0	2684	999	183	403	3419
12	0	0	2786	999	183	403	3418
13	0	0	2834	999	183	403	3419
14	0	0	2894	999	183	403	3418
15	0	0	2902	999	183	403	3419
16	0	0	2924	1001	184	403	3420
17	0	0	2923	999	182	403	3420
18	0	0	2881	998	184	403	3421
19	0	0	2922	999	184	403	3422
20	0	0	2957	997	184	403	3422
21	0	0	2902	997	184	403	3423
22	0	0	2864	996	184	403	3422
23	0	0	2796	995	185	403	3419
24	0	0	2706	994	184	403	3420
25	0	0	2692	999	184	403	3418
26	0	0	2737	999	184	403	3418
27	0	0	2829	999	183	403	3419
28	0	0	2997	998	184	403	3417
29	0	0	3057	998	183	403	3418
30	0	0	3066	998	184	403	3419
31	0	0	3103	999	183	403	3420
32	0	0	3131	999	184	403	3419
33	0	0	3148	999	182	404	3419
34	0	0	3155	999	184	403	3419
35	0	0	3101	995	184	403	3420
36	0	0	2995	994	183	404	3421
37	0	0	2903	995	183	403	3422
38	0	0	2880	998	184	403	3421
39	0	0	2950	998	183	403	3420
40	0	0	3038	998	184	403	3419
41	0	0	3127	998	183	403	3418
42	0	0	3207	998	182	403	3418
43	0	0	3233	998	184	403	3417
44	0	0	3225	999	184	404	3417
45	0	0	3215	998	184	404	3417
46	0	0	3158	995	183	403	3417
47	0	0	3088	994	183	403	3418
48	0	0	3017	993	185	403	3418
49	0	0	2938	996	184	404	3419
50	0	0	2953	998	184	403	3420
51	0	0	2979	998	183	403	3420
52	0	0	2919	993	183	403	3420
53	0	0	2847	997	183	403	3420
54	0	0	2836	997	183	403	3420
55	0	0	2782	994	183	403	3419
56	0	0	2699	994	184	404	3418
57	0	0	2683	994	184	403	3418
58	0	0	2600	993	183	403	3417
59	0	0	2501	993	184	403	3416
60	0	0	2390	992	183	403	3416
61	0	0	2296	993	183	404	3416
62	0	0	2215	993	184	403	3416
63	0	0	2113	992	184	403	3415
64	0	0	1976	992	184	403	3416
65	0	0	1933	997	184	403	3417
66	0	0	1964	997	185	403	3418
67	0	0	1995	997	184	403	3418
68	0	0	2051	997	184	403	3420
69	0	0	2034	993	184	403	3419
70	0	0	1970	993	184	403	3420
71	0	0	1931	994	183	403	3421
72	0	0	1874	992	183	403	3419
73	0	0	1793	993	183	403	3417
74	0	0	1715	991	183	403	3416
75	0	0	1585	991	183	403	3415
76	0	0	1467	993	184	404	3415
77	0	0	1436	993	184	403	3416
78	0	0	1440	997	183	403	3415
79	0	0	1444	993	185	403	3417
80	0	0	1382	992	183	403	3416
81	0	0	1285	992	183	404	3416
82	0	0	1190	992	184	403	3418
83	0	0	1103	991	184	403	3417
84	0	0	983	992	184	404	3417
85	0	0	919	992	185	403	3418
86	0	0	900	994	184	404	3419
87	0	0	889	993	184	403	3420
88	0	0	885	994	185	403	3419
89	0	0	898	997	183	403	3418
90	0	0	957	997	184	404	3417
91	0	0	1042	997	184	403	3416
92	0	0	1044	998	184	403	3416
93	0	0	1093	997	184	403	3414
94	0	0	1154	998	184	403	3415
95	0	0	1162	994	183	403	3413
96	0	0	1146	997	183	404	3415
97	0	0	1103	993	184	403	3416
98	0	0	1021	993	184	403	3416
99	0	0	974	993	184	404	3416
100	0	0	937	993	183	403	3417
101	0	0	914	993	184	403	3417
102	0	0	898	995	184	404	3418
103	0	0	925	998	185	403	3419
104	0	0	958	997	185	403	3418
105	0	0	1022	997	184	403	3418
106	0	0	1059	998	184	404	3417
107	0	0	1089	998	184	403	3416
108	0	0	1180	998	185	403	3415
109	0	0	1252	998	183	403	3416
110	0	0	1288	999	184	403	3415
111	0	0	1299	998	184	403	3415
112	0	0	1290	995	183	403	3415
113	0	0	1282	996	183	403	3414
114	0	0	1277	995	183	403	3415
115	0	0	1233	993	184	403	3415
116	0	0	1156	993	183	403	3416
117	0	0	1078	993	182	403	3417
118	0	0	987	994	184	403	3418
119	0	0	896	994	184	403	3418
120	0	0	785	993	183	403	3419
121	0	0	665	993	184	403	3419
122	0	0	543	993	184	403	3418
123	0	0	413	993	184	403	3416
124	0	0	256	993	184	403	3415
125	0	0	154	993	184	403	3414
126	0	0	125	995	184	403	3414
127	0	0	155	998	184	403	3414
0	0	0	222	998	184	403	3414
1	0	0	279	999	184	403	3415
2	0	0	336	999	185	404	3415
3	0	0	414	999	183	403	3415
4	0	0	514	999	184	403	3416
5	0	0	679	1000	183	403	3416
6	0	0	709	995	183	403	3416
7	0	0	572	995	184	403	3417
8	0	0	754	1000	183	403	3418
9	0	0	1058	1000	184	403	3418
10	0	0	1354	1000	184	403	3417
11	0	0	1599	1000	183	403	3416
12	0	0	1774	1001	183	403	3415
13	0	0	1882	1000	184	403	3415
14	0	0	1943	1000	184	403	3415
15	0	0	1963	998	185	403	3413
16	0	0	1912	996	183	403	3413
17	0	0	1894	999	185	403	3413
18	0	0	1886	998	184	403	3413
19	0	0	1864	998	184	403	3414
20	0	0	1889	1000	184	403	3415
21	0	0	1925	1000	184	403	3415
22	0	0	1942	1000	184	403	3415
23	0	0	1954	1000	183	403	3416
24	0	0	1974	1000	184	403	3417
25	0	0	2008	1000	183	403	3417
26	0	0	2054	1000	182	403	3417
27	0	0	2067	1000	185	403	3416
28	0	0	2057	999	184	403	3415
29	0	0	2044	1000	184	403	3415
30	0	0	2019	998	184	403	3414
31	0	0	1997	997	184	403	3413
32	0	0	1982	998	183	403	3413
33	0	0	1975	1000	184	403	3412
34	0	0	1989	1000	184	403	3413
35	0	0	2017	1000	184	403	3413
36	0	0	2011	1001	184	403	3413
37	0	0	2059	1001	184	403	3413
38	0	0	2140	1000	184	403	3415
39	0	0	2215	999	184	403	3415
40	0	0	2309	999	184	403	3415
41	0	0	2405	1000	183	403	3416
42	0	0	2484	999	183	403	3417
43	0	0	2479	1000	184	404	3417
44	0	0	2529	999	183	403	3416
45	0	0	2599	1000	183	403	3414
46	0	0	2662	1000	184	403	3421
47	0	0	2709	1000	183	403	3412
48	0	0	2765	999	183	403	3412
49	0	0	2762	999	184	403	3412
50	0	0	2782	1000	183	403	3413
51	0	0	2834	1000	183	404	3412
52	0	0	2810	1000	185	403	3412
53	0	0	2843	999	184	403	3413
54	0	0	2900	999	184	403	3413
55	0	0	2932	999	184	403	3413
56	0	0	2909	999	184	402	3415
57	0	0	2914	999	185	403	3414
58	0	0	2931	999	183	404	3415
59	0	0	2940	999	183	403	3416
60	0	0	2967	999	183	403	3415
61	0	0	2973	999	183	403	3414
62	0	0	3003	999	183	403	3414
63	0	0	3027	999	183	403	3413
64	0	0	2986	996	183	403	3412
65	0	0	2939	996	183	403	3414
66	0	0	2892	994	184	403	3411
67	0	0	2885	999	185	403	3411
68	0	0	2795	994	183	403	3411
69	0	0	2676	994	183	403	3411
70	0	0	2575	994	183	403	3412
71	0	0	2472	994	184	403	3414
72	0	0	2364	994	184	403	3414
73	0	0	2269	994	184	403	3413
74	0	0	2194	994	184	403	3414
75	0	0	2136	994	184	403	3415
76	0	0	2049	995	185	403	3414
77	0	0	1997	994	185	403	3414
78	0	0	2005	998	184	403	3412
79	0	0	2071	997	184	404	3412
80	0	0	2120	998	184	403	3411
81	0	0	2182	998	184	402	3409
82	0	0	2220	997	184	403	3410
83	0	0	2295	998	184	403	3410
84	0	0	2314	996	184	403	3411
85	0	0	2288	997	184	403	3410
86	0	0	2286	998	183	403	3410
87	0	0	2249	994	183	403	3411
88	0	0	2211	995	183	403	3412
89	0	0	2174	994	184	403	3412
90	0	0	2125	995	183	403	3414
91	0	0	2068	994	185	403	3413
92	0	0	1994	993	184	403	3414
93	0	0	1911	993	184	403	3414
94	0	0	1859	999	184	404	3413
95	0	0	1856	994	184	404	3411
96	0	0	1783	993	184	403	3411
97	0	0	1778	998	184	405	3411
98	0	0	1798	997	185	403	3409
99	0	0	1875	998	184	403	3409
100	0	0	1954	997	184	403	3409
101	0	0	2024	997	184	403	3409
102	0	0	2103	998	184	403	3410
103	0	0	2164	998	184	403	3411
104	0	0	2203	998	184	404	3410
105	0	0	2220	997	183	403	3410
106	0	0	2233	997	183	403	3411
107	0	0	2215	995	183	402	3412
108	0	0	2175	994	184	403	3412
109	0	0	2115	994	184	403	3414
110	0	0	2098	999	183	403	3412
111	0	0	2067	993	184	403	3411
112	0	0	1985	994	184	403	3410
113	0	0	1901	993	184	404	3411
114	0	0	1834	993	184	404	3409
115	0	0	1830	997	183	403	3408
116	0	0	1755	993	183	403	3408
117	0	0	1730	999	184	403	3408
118	0	0	1773	998	184	403	3409
119	0	0	1840	997	184	403	3409
120	0	0	1939	998	184	403	3410
121	0	0	2032	998	184	404	3410
122	0	0	2110	998	184	403	3410
123	0	0	2174	997	183	403	3411
124	0	0	2208	998	184	403	3412
125	0	0	2213	998	184	404	3412
126	0	0	2387	998	183	403	3412
127	0	0	2421	994	183	404	3411
0	0	0	2327	993	184	403	3410
1	0	0	2224	993	184	403	3411
2	0	0	2112	994	184	403	3408
3	0	0	2059	997	183	403	3408
4	0	0	1960	993	183	404	3408
5	0	0	1861	994	184	403	3407
6	0	0	1805	994	184	404	3408
7	0	0	1776	994	185	403	3407
8	0	0	1716	993	184	403	3407
9	0	0	1707	998	184	403	3408
10	0	0	1746	998	184	403	3410
11	0	0	1802	997	184	404	3410
12	0	0	1901	997	185	403	3411
13	0	0	1995	999	183	403	3410
14	0	0	2229	997	184	404	3411
15	0	0	2320	998	184	403	3412
16	0	0	2312	997	184	404	3410
17	0	0	2284	995	184	403	3407
18	0	0	2254	994	182	402	3408
19	0	0	2252	998	184	403	3407
20	0	0	2176	992	183	403	3407
21	0	0	2082	993	183	403	3407
22	0	0	2005	993	184	403	3407
23	0	0	1929	993	182	402	3407
24	0	0	1846	993	183	403	3407
25	0	0	1770	992	184	404	3408
26	0	0	1700	993	184	404	3408
27	0	0	1653	993	184	403	3408
28	0	0	1579	993	184	403	3409
29	0	0	1546	995	184	403	3410
30	0	0	1654	996	184	403	3410
31	0	0	1715	997	185	403	3411
32	0	0	1778	998	184	403	3411
33	0	0	1851	997	184	403	3407
34	0	0	1896	998	184	403	3408
35	0	0	1970	997	184	403	3408
36	0	0	1996	996	184	402	3407
37	0	0	1982	997	183	403	3406
38	0	0	2001	997	183	402	3406
39	0	0	1983	994	183	403	3405
40	0	0	1921	993	184	403	3406
41	0	0	1860	993	183	403	3407
42	0	0	1792	993	184	403	3407
43	0	0	1716	992	184	403	3407
44	0	0	1627	992	184	403	3408
45	0	0	1527	993	184	403	3409
46	0	0	1484	993	184	403	3409
47	0	0	1437	992	184	403	3410
48	0	0	1350	992	184	403	3409
49	0	0	1324	995	184	403	3407
50	0	0	1340	996	184	403	3408
51	0	0	1413	997	183	403	3407
52	0	0	1497	997	184	403	3405
53	0	0	1575	996	184	404	3405
54	0	0	1657	995	184	403	3406
55	0	0	1726	997	184	403	3405
56	0	0	1790	997	183	403	3406
57	0	0	1838	997	184	403	3405
58	0	0	1876	997	183	403	3405
59	0	0	1875	996	183	403	3406
60	0	0	1834	993	184	404	3407
61	0	0	1783	994	183	403	3407
62	0	0	1755	993	183	403	3407
63	0	0	1721	994	182	403	3408
64	0	0	1668	992	184	403	3409
65	0	0	1617	993	183	403	3411
66	0	0	1569	992	184	403	3407
67	0	0	1574	997	184	403	3406
68	0	0	1503	992	185	403	3405
69	0	0	1485	996	183	403	3405
70	0	0	1538	996	184	404	3404
71	0	0	1602	996	185	403	3404
72	0	0	1701	997	184	403	3405
73	0	0	1812	997	184	403	3405
74	0	0	1896	996	184	403	3404
75	0	0	1960	996	183	403	3405
76	0	0	2003	997	183	403	3406
77	0	0	2034	997	184	403	3406
78	0	0	2068	997	183	403	3406
79	0	0	2063	995	183	403	3406
80	0	0	2020	993	184	403	3407
81	0	0	1967	993	184	403	3406
82	0	0	1897	993	183	403	3407
83	0	0	1872	997	183	403	3406
84	0	0	1797	991	183	403	3406
85	0	0	1715	993	183	403	3404
86	0	0	1675	992	183	403	3404
87	0	0	1651	993	185	403	3403
88	0	0	1590	993	185	403	3402
89	0	0	1591	996	184	403	3403
90	0	0	1637	996	184	403	3403
91	0	0	1696	997	184	403	3404
92	0	0	1790	997	184	403	3404
93	0	0	1898	997	184	403	3405
94	0	0	1985	997	183	403	3405
95	0	0	2050	996	184	403	3406
96	0	0	2100	997	184	403	3406
97	0	0	2138	997	183	403	3408
98	0	0	2151	997	184	403	3406
99	0	0	2172	997	184	403	3405
100	0	0	2120	992	184	403	3404
101	0	0	2052	993	183	402	3403
102	0	0	2000	993	184	403	3402
103	0	0	1942	993	182	403	3403
104	0	0	1871	993	184	403	3402
105	0	0	1805	993	184	403	3401
106	0	0	1749	993	184	403	3402
107	0	0	1704	992	185	403	3401
108	0	0	1630	993	185	403	3401
109	0	0	1619	998	184	403	3401
110	0	0	1657	997	184	403	3402
111	0	0	1707	996	184	403	3403
112	0	0	1790	998	183	403	3404
113	0	0	1891	997	183	404	3401
114	0	0	1964	997	184	403	3404
115	0	0	2052	997	184	403	3404
116	0	0	2098	997	184	403	3403
117	0	0	2110	997	184	403	3401
118	0	0	2139	997	183	403	3401
119	0	0	2144	996	183	403	3400
120	0	0	2104	993	185	403	3399
121	0	0	2060	993	184	403	3399
122	0	0	2005	993	184	403	3400
123	0	0	1943	992	184	404	3399
124	0	0	1876	993	184	403	3399
125	0	0	1808	992	184	403	3400
126	0	0	1752	993	184	403	3400
127	0	0	1709	993	185	403	3400
0	0	0	1638	993	184	403	3401
1	0	0	1621	997	185	403	3399
2	0	0	1648	997	184	403	3403
3	0	0	1728	996	184	403	3402
4	0	0	1813	997	183	403	3401
5	0	0	1895	996	183	403	3400
6	0	0	1980	997	184	403	3400
7	0	0	2049	997	183	403	3398
8	0	0	2099	997	184	402	3398
9	0	0	2132	997	184	403	3397
10	0	0	2165	997	183	404	3396
11	0	0	2150	995	183	403	3396
12	0	0	2116	993	184	403	3396
13	0	0	2075	993	184	403	3397
14	0	0	2021	993	183	403	3397
15	0	0	1966	993	183	403	3399
16	0	0	1899	992	183	403	3399
17	0	0	1828	993	184	403	3398
18	0	0	1759	992	184	403	3400
19	0	0	1751	995	184	403	3399
20	0	0	1673	992	184	403	3401
21	0	0	1642	997	184	403	3399
22	0	0	1688	996	184	403	3398
23	0	0	1756	996	183	403	3397
24	0	0	1858	997	184	403	3396
25	0	0	1970	996	184	403	3395
26	0	0	2060	996	184	403	3396
27	0	0	2129	997	184	403	3396
28	0	0	2207	997	184	403	3395
29	0	0	2255	997	183	403	3395
30	0	0	2302	996	184	404	3395
31	0	0	2324	997	182	403	3395
32	0	0	2300	994	184	403	3396
33	0	0	2262	993	184	404	3395
34	0	0	2190	992	184	403	3397
35	0	0	2159	996	184	403	3398
36	0	0	2071	992	184	403	3398
37	0	0	1973	993	185	403	3398
38	0	0	1907	993	184	403	3398
39	0	0	1870	992	184	403	3396
40	0	0	1802	993	184	404	3394
41	0	0	1788	997	185	403	3393
42	0	0	1798	996	184	404	3394
43	0	0	1928	997	184	403	3394
44	0	0	2008	996	184	403	3393
45	0	0	2087	997	184	403	3393
46	0	0	2142	997	184	403	3393
47	0	0	2186	997	184	403	3394
48	0	0	2215	996	183	403	3394
49	0	0	2229	996	183	403	3391
50	0	0	2231	996	184	403	3394
51	0	0	2242	997	184	403	3395
52	0	0	2169	992	183	403	3395
53	0	0	2092	992	183	403	3396
54	0	0	2029	993	184	403	3396
55	0	0	1961	992	184	403	3394
56	0	0	1881	992	184	403	3393
57	0	0	1802	992	184	404	3394
58	0	0	1780	995	184	403	3392
59	0	0	1870	995	184	403	3391
60	0	0	1769	991	185	404	3390
61	0	0	1685	992	183	403	3390
62	0	0	1675	996	185	403	3391
63	0	0	1699	996	184	403	3392
64	0	0	1764	996	184	403	3392
65	0	0	1852	997	183	403	3392
66	0	0	1915	996	184	403	3393
67	0	0	2005	996	183	403	3394
68	0	0	2035	996	184	402	3394
69	0	0	2031	996	184	403	3395
70	0	0	2041	996	183	403	3394
71	0	0	2017	993	184	403	3393
72	0	0	1959	992	184	403	3392
73	0	0	1877	991	184	403	3392
74	0	0	1820	996	184	403	3390
75	0	0	1812	992	184	403	3390
76	0	0	1696	991	184	403	3389
77	0	0	1563	991	183	404	3389
78	0	0	1441	990	184	402	3390
79	0	0	1339	990	185	403	3390
80	0	0	1223	991	184	403	3389
81	0	0	1148	992	185	404	3391
82	0	0	1105	993	185	403	3391
83	0	0	1186	996	184	403	3392
84	0	0	1298	996	184	403	3393
85	0	0	1425	996	184	403	3393
86	0	0	1563	995	184	403	3393
87	0	0	1689	996	183	403	3394
88	0	0	1799	995	183	402	3392
89	0	0	1875	995	183	403	3391
90	0	0	1936	996	184	403	3389
91	0	0	1974	995	184	403	3389
92	0	0	1977	995	184	403	3389
93	0	0	1963	995	184	403	3389
94	0	0	1938	992	184	403	3389
95	0	0	1902	992	185	403	3390
96	0	0	1848	992	185	403	3390
97	0	0	1793	991	184	403	3392
98	0	0	1732	991	183	402	3390
99	0	0	1745	995	184	403	3390
100	0	0	1680	991	184	403	3391
101	0	0	1652	995	185	404	3392
102	0	0	1701	996	183	403	3392
103	0	0	1770	995	184	402	3393
104	0	0	1863	996	184	403	3393
105	0	0	1970	996	185	403	3392
106	0	0	2070	996	184	403	3390
107	0	0	2157	996	183	403	3390
108	0	0	2224	996	184	403	3390
109	0	0	2267	996	183	403	3388
110	0	0	2306	996	183	403	3389
111	0	0	2317	996	183	403	3389
112	0	0	2295	994	183	403	3389
113	0	0	2264	993	184	403	3393
114	0	0	2200	991	184	403	3389
115	0	0	2184	996	184	403	3391
116	0	0	2121	991	184	403	3391
117	0	0	2041	992	184	403	3392
118	0	0	1994	992	184	403	3393
119	0	0	1963	992	184	403	3393
120	0	0	1908	991	184	403	3393
121	0	0	1891	996	184	403	3392
122	0	0	1923	996	184	403	3391
123	0	0	1986	995	184	402	3391
124	0	0	2073	996	184	403	3391
125	0	0	2179	996	185	402	3390
126	0	0	2273	996	184	403	3390
127	0	0	2341	996	184	403	3390
0	0	0	2389	995	183	403	3390
1	0	0	2414	995	184	403	3388
2	0	0	2423	996	183	403	3391
3	0	0	2448	996	183	403	3391
4	0	0	2397	992	184	403	3392
5	0	0	2332	992	183	403	3393
6	0	0	2277	992	184	403	3393
7	0	0	2225	992	184	403	3394
8	0	0	2159	992	183	403	3395
9	0	0	2095	991	184	403	3395
10	0	0	2039	992	184	402	3394
11	0	0	1998	991	185	403	3394
12	0	0	1929	991	182	403	3391
13	0	0	1891	995	184	403	3391
14	0	0	1922	996	185	403	3392
15	0	0	1971	995	184	403	3391
16	0	0	2048	995	184	403	3391
17	0	0	2150	996	184	404	3390
18	0	0	2214	996	184	403	3392
19	0	0	2299	995	184	403	3392
20	0	0	2348	995	183	403	3393
21	0	0	2360	996	183	403	3393
22	0	0	2383	996	184	403	3394
23	0	0	2389	997	184	403	3394
24	0	0	2355	992	184	403	3395
25	0	0	2318	993	184	403	3397
26	0	0	2269	992	184	403	3396
27	0	0	2209	992	183	403	3396
28	0	0	2134	991	183	403	3395
29	0	0	2066	991	184	403	3394
30	0	0	2015	992	185	403	3394
31	0	0	1980	992	184	403	3392
32	0	0	1922	992	184	403	3393
33	0	0	1904	995	184	403	3396
34	0	0	1924	996	184	403	3394
35	0	0	2028	995	184	403	3394
36	0	0	2112	996	184	403	3394
37	0	0	2200	996	184	403	3395
38	0	0	2297	995	183	404	3395
39	0	0	2366	995	184	403	3397
40	0	0	2416	996	183	403	3397
41	0	0	2453	995	184	403	3399
42	0	0	2476	997	184	404	3398
43	0	0	2471	995	183	403	3398
44	0	0	2436	993	183	403	3398
45	0	0	2390	992	184	403	3396
46	0	0	2338	992	184	403	3395
47	0	0	2284	992	184	403	3395
48	0	0	2220	992	184	404	3395
49	0	0	2147	991	185	403	3393
50	0	0	2068	991	184	403	3395
51	0	0	2070	995	184	403	3395
52	0	0	1995	991	184	403	3395
53	0	0	1953	996	185	403	3396
54	0	0	1989	997	184	403	3397
55	0	0	2048	996	185	403	3398
56	0	0	2132	996	184	404	3398
57	0	0	2249	996	183	403	3400
58	0	0	2337	996	184	403	3401
59	0	0	2407	996	184	404	3401
60	0	0	2460	996	185	403	3400
61	0	0	2491	995	184	403	3398
62	0	0	2517	996	183	403	3398
63	0	0	2518	996	183	403	3397
64	0	0	2478	992	183	403	3397
65	0	0	2434	992	184	403	3399
66	0	0	2364	990	183	403	3397
67	0	0	2339	996	184	403	3397
68	0	0	2258	991	184	403	3398
69	0	0	2169	991	184	403	3399
70	0	0	2110	991	183	403	3399
71	0	0	2077	992	184	403	3399
72	0	0	2012	991	184	403	3399
73	0	0	1982	994	184	403	3400
74	0	0	2010	995	184	403	3401
75	0	0	2065	995	185	403	3402
76	0	0	2141	995	184	403	3402
77	0	0	2244	996	184	403	3401
78	0	0	2328	996	184	403	3399
79	0	0	2389	996	184	403	3399
80	0	0	2437	996	184	403	3400
81	0	0	2461	996	184	403	3396
82	0	0	2457	995	183	403	3399
83	0	0	2488	996	184	403	3399
84	0	0	2437	991	183	403	3399
85	0	0	2362	992	183	403	3399
86	0	0	2311	992	184	403	3399
87	0	0	2251	991	183	403	3400
88	0	0	2178	991	183	404	3401
89	0	0	2099	992	184	403	3402
90	0	0	2037	991	184	403	3403
91	0	0	1990	992	184	403	3404
92	0	0	1922	991	186	403	3403
93	0	0	1879	992	184	404	3403
94	0	0	1902	996	184	403	3402
95	0	0	1951	996	183	404	3402
96	0	0	2021	995	183	403	3400
97	0	0	2119	995	184	402	3398
98	0	0	2183	995	183	404	3400
99	0	0	2273	994	184	403	3400
100	0	0	2313	995	184	403	3401
101	0	0	2320	994	183	403	3400
102	0	0	2341	996	183	403	3400
103	0	0	2346	995	184	402	3401
104	0	0	2308	992	183	403	3402
105	0	0	2260	991	184	403	3403
106	0	0	2205	991	183	403	3405
107	0	0	2148	991	183	402	3405
108	0	0	2076	991	183	403	3406
109	0	0	2008	991	184	403	3407
110	0	0	1953	991	185	403	3405
111	0	0	1916	992	183	403	3403
112	0	0	1853	991	184	403	3402
113	0	0	1817	993	185	403	3404
114	0	0	1826	995	185	403	3401
115	0	0	1911	995	184	403	3402
116	0	0	1988	995	184	403	3401
117	0	0	2086	995	184	404	3403
118	0	0	2183	996	185	403	3404
119	0	0	2257	995	184	403	3403
120	0	0	2312	995	184	403	3404
121	0	0	2346	996	184	403	3404
122	0	0	2374	995	185	403	3405
123	0	0	2383	995	182	404	3405
124	0	0	2338	991	183	403	3406
125	0	0	2289	991	182	403	3407
126	0	0	2233	991	183	403	3407
127	0	0	2171	991	183	403	3406
0	0	0	2102	991	183	403	3405
1	0	0	2030	992	183	403	3402
2	0	0	1954	991	183	403	3404
3	0	0	1955	995	184	403	3404
4	0	0	1888	991	185	403	3403
5	0	0	1837	993	182	403	3403
6	0	0	1862	995	184	403	3404
7	0	0	1918	995	184	403	3404
8	0	0	1994	995	183	403	3404
9	0	0	2100	995	184	403	3405
10	0	0	2198	995	183	403	3406
11	0	0	2265	995	184	403	3407
12	0	0	2313	995	183	403	3408
13	0	0	2341	994	183	403	3408
14	0	0	2360	995	184	403	3408
15	0	0	2362	995	185	402	3407
16	0	0	2321	991	184	403	3406
17	0	0	2272	991	183	403	3404
18	0	0	2200	990	183	403	3404
19	0	0	2182	995	185	403	3404
20	0	0	2096	990	184	402	3405
21	0	0	2002	991	183	403	3405
22	0	0	1937	991	184	403	3405
23	0	0	1903	991	184	403	3404
24	0	0	1845	991	185	403	3405
25	0	0	1806	993	184	403	3406
26	0	0	1832	995	183	403	3407
27	0	0	1889	994	185	403	3407
28	0	0	1960	994	185	403	3409
29	0	0	2061	995	184	403	3409
30	0	0	2150	995	183	403	3410
31	0	0	2216	995	184	403	3410
32	0	0	2261	995	183	403	3409
33	0	0	2287	996	184	403	3410
34	0	0	2292	995	182	403	3406
35	0	0	2328	995	183	403	3406
36	0	0	2274	990	183	403	3406
37	0	0	2204	991	183	403	3406
38	0	0	2144	991	184	403	3405
39	0	0	2083	991	183	403	3406
40	0	0	2006	991	184	403	3406
41	0	0	1932	990	184	403	3407
42	0	0	1874	991	184	403	3408
43	0	0	1834	991	183	403	3408
44	0	0	1771	990	184	403	3408
45	0	0	1730	992	184	403	3409
46	0	0	1748	994	184	404	3410
47	0	0	1794	995	184	403	3410
48	0	0	1865	995	183	403	3410
49	0	0	1963	995	184	403	3407
50	0	0	2031	995	183	403	3408
51	0	0	2133	995	184	403	3408
52	0	0	2174	995	184	403	3407
53	0	0	2179	995	184	403	3407
54	0	0	2204	995	185	403	3406
55	0	0	2213	995	184	403	3406
56	0	0	2179	992	183	403	3407
57	0	0	2125	991	183	403	3407
58	0	0	2075	991	184	403	3407
59	0	0	2016	991	184	403	3407
60	0	0	1951	991	183	403	3408
61	0	0	1883	990	184	403	3409
62	0	0	1823	991	184	403	3410
63	0	0	1782	991	184	403	3410
64	0	0	1724	990	184	403	3410
65	0	0	1685	992	184	403	3407
66	0	0	1693	994	184	403	3408
67	0	0	1779	994	184	403	3408
68	0	0	1848	995	184	403	3407
69	0	0	1939	994	184	403	3406
70	0	0	2038	995	183	403	3407
71	0	0	2116	994	183	403	3407
72	0	0	2170	995	184	403	3407
73	0	0	2212	995	184	403	3406
74	0	0	2245	995	183	403	3407
75	0	0	2257	995	184	404	3408
76	0	0	2224	991	183	403	3408
77	0	0	2174	992	183	403	3409
78	0	0	2121	990	183	403	3409
79	0	0	2062	991	184	403	3411
80	0	0	1989	991	184	403	3411
81	0	0	1920	989	184	403	3414
82	0	0	1842	990	184	403	3410
83	0	0	1842	995	184	403	3408
84	0	0	1772	990	185	403	3407
85	0	0	1717	994	185	403	3406
86	0	0	1753	994	185	403	3406
87	0	0	1819	995	184	403	3406
88	0	0	1897	995	183	403	3406
89	0	0	2009	995	185	403	3406
90	0	0	2107	995	184	403	3406
91	0	0	2177	994	184	403	3407
92	0	0	2226	995	183	403	3407
93	0	0	2263	995	183	403	3407
94	0	0	2287	995	183	403	3408
95	0	0	2293	995	184	403	3408
96	0	0	2253	991	184	403	3410
97	0	0	2200	991	184	403	3410
98	0	0	2129	990	184	403	3410
99	0	0	2113	995	185	403	3408
100	0	0	2026	990	184	403	3407
101	0	0	1945	990	184	403	3407
102	0	0	1890	991	184	404	3406
103	0	0	1852	991	184	404	3405
104	0	0	1799	990	184	403	3404
105	0	0	1760	992	184	403	3405
106	0	0	1781	994	184	403	3406
107	0	0	1841	994	184	403	3406
108	0	0	1919	995	184	403	3406
109	0	0	2018	994	184	403	3406
110	0	0	2116	994	184	403	3407
111	0	0	2184	994	184	403	3408
112	0	0	2235	994	184	403	3409
113	0	0	2267	995	183	403	3407
114	0	0	2270	994	184	403	3410
115	0	0	2315	995	183	403	3409
116	0	0	2265	990	184	403	3407
117	0	0	2201	991	183	403	3407
118	0	0	2160	991	183	403	3405
119	0	0	2111	991	184	403	3406
120	0	0	2045	991	184	403	3406
121	0	0	1974	990	184	403	3405
122	0	0	1923	991	184	403	3406
123	0	0	1884	991	183	403	3405
124	0	0	1826	990	184	403	3405
125	0	0	1778	992	183	403	3405
126	0	0	1803	994	184	403	3406
127	0	0	1858	994	184	403	3407
0	0	0	1937	994	184	403	3407
1	0	0	2044	995	184	403	3410
2	0	0	2120	996	185	403	3409
3	0	0	2243	994	183	403	3409
4	0	0	2292	994	184	403	3408
5	0	0	2310	995	183	403	3407
6	0	0	2337	995	183	404	3405
7	0	0	2349	995	184	403	3404
8	0	0	2326	992	184	403	3405
9	0	0	2287	991	184	403	3404
10	0	0	2243	990	183	403	3404
11	0	0	2198	991	183	403	3404
12	0	0	2140	990	184	403	3405
13	0	0	2069	989	184	403	3406
14	0	0	2015	991	184	403	3407
15	0	0	1997	994	184	403	3406
16	0	0	1959	990	184	403	3406
17	0	0	1931	995	185	403	3406
18	0	0	1961	995	185	403	3408
19	0	0	2123	995	184	403	3408
20	0	0	2264	994	182	403	3407
21	0	0	2450	995	184	403	3407
22	0	0	2591	995	184	403	3406
23	0	0	2665	994	183	403	3405
24	0	0	2688	995	184	403	3404
25	0	0	2679	995	183	403	3404
26	0	0	2657	995	183	403	3403
27	0	0	2627	991	184	403	3403
28	0	0	2565	990	184	404	3404
29	0	0	2484	994	183	403	3405
30	0	0	2554	995	184	403	3404
31	0	0	2498	990	184	403	3406
32	0	0	2387	990	184	403	3407
33	0	0	2272	989	184	403	3406
34	0	0	2163	990	184	403	3407
35	0	0	2149	995	184	403	3407
36	0	0	2057	989	184	403	3407
37	0	0	1975	991	185	403	3406
38	0	0	1978	994	184	403	3406
39	0	0	2030	994	184	403	3404
40	0	0	2097	994	185	403	3404
41	0	0	2191	995	185	403	3403
42	0	0	2284	994	185	403	3403
43	0	0	2353	995	184	403	3404
44	0	0	2407	994	183	403	3403
45	0	0	2409	994	183	403	3403
46	0	0	2536	995	184	403	3403
47	0	0	2583	994	183	403	3404
48	0	0	2522	989	183	403	3404
49	0	0	2435	990	184	403	3407
50	0	0	2342	990	184	403	3405
51	0	0	2318	994	183	403	3406
52	0	0	2216	989	185	403	3406
53	0	0	2112	989	184	403	3407
54	0	0	2046	991	184	403	3406
55	0	0	1999	991	183	403	3404
56	0	0	1941	990	184	403	3403
57	0	0	1894	992	186	404	3402
58	0	0	1912	995	183	403	3403
59	0	0	1960	994	185	403	3401
60	0	0	2031	994	184	403	3401
61	0	0	2088	995	184	403	3402
62	0	0	2225	994	184	403	3403
63	0	0	2312	994	183	404	3403
64	0	0	2359	994	184	403	3403
65	0	0	2385	994	184	403	3401
66	0	0	2380	995	184	403	3404
67	0	0	2435	994	184	403	3405
68	0	0	2375	990	184	403	3405
69	0	0	2295	990	184	403	3405
70	0	0	2243	991	183	403	3405
71	0	0	2178	990	183	404	3404
72	0	0	2093	989	185	403	3403
73	0	0	2012	989	184	403	3402
74	0	0	1947	990	184	403	3401
75	0	0	1897	990	184	403	3402
76	0	0	1836	989	185	403	3400
77	0	0	1790	995	185	403	3400
78	0	0	1936	993	183	403	3401
79	0	0	1968	994	184	403	3401
80	0	0	1990	994	184	403	3402
81	0	0	2052	995	184	403	3404
82	0	0	2107	994	185	403	3402
83	0	0	2215	994	183	403	3403
84	0	0	2243	994	183	403	3404
85	0	0	2252	994	184	403	3404
86	0	0	2276	994	183	404	3404
87	0	0	2286	994	181	403	3404
88	0	0	2248	990	183	403	3403
89	0	0	2196	991	184	403	3401
90	0	0	2146	990	184	403	3400
91	0	0	2082	990	184	403	3400
92	0	0	2005	989	181	403	3400
93	0	0	1909	992	183	403	3400
94	0	0	1928	993	184	403	3400
95	0	0	1893	990	184	403	3399
96	0	0	1829	989	185	404	3399
97	0	0	1761	990	185	403	3403
98	0	0	1759	994	185	403	3401
99	0	0	1863	994	184	403	3402
100	0	0	1915	993	184	403	3402
101	0	0	1997	994	184	403	3402
102	0	0	2090	994	184	403	3403
103	0	0	2155	994	184	403	3403
104	0	0	2210	993	184	403	3402
105	0	0	2251	994	184	403	3401
106	0	0	2282	994	183	404	3399
107	0	0	2305	994	186	403	3399
108	0	0	2268	990	184	403	3400
109	0	0	2338	994	184	403	3398
110	0	0	2304	990	183	403	3399
111	0	0	2201	990	184	403	3399
112	0	0	2091	989	184	404	3399
113	0	0	1995	990	183	403	3398
114	0	0	1904	989	183	403	3400
115	0	0	1904	994	184	403	3400
116	0	0	1821	988	184	403	3401
117	0	0	1742	990	184	403	3401
118	0	0	1749	994	184	403	3401
119	0	0	1802	994	185	403	3402
120	0	0	1876	994	183	403	3402
121	0	0	1982	994	184	405	3401
122	0	0	2081	994	184	403	3399
123	0	0	2147	994	184	403	3399
124	0	0	2193	993	184	403	3398
125	0	0	2377	994	184	403	3397
126	0	0	2409	994	183	403	3396
127	0	0	2374	990	181	403	3397
0	0	0	2306	989	184	403	3397
1	0	0	2230	990	183	403	3395
2	0	0	2151	989	184	403	3397
3	0	0	2129	993	184	404	3398
4	0	0	2035	989	183	403	3399
5	0	0	1937	989	184	403	3399
6	0	0	1872	990	184	403	3400
7	0	0	1830	991	184	403	3400
8	0	0	1782	989	184	403	3400
9	0	0	1733	990	184	403	3400
10	0	0	1743	994	184	403	3398
11	0	0	1789	994	184	403	3398
12	0	0	1881	994	184	403	3396
13	0	0	2131	993	184	403	3396
14	0	0	2204	994	184	403	3396
15	0	0	2215	994	184	403	3396
16	0	0	2224	995	183	403	3395
17	0	0	2229	993	184	403	3396
18	0	0	2213	993	183	404	3395
19	0	0	2266	994	183	403	3395
20	0	0	2203	989	184	403	3396
21	0	0	2128	990	183	403	3396
22	0	0	2081	990	184	403	3398
23	0	0	2022	990	183	404	3398
24	0	0	1953	989	184	403	3399
25	0	0	1871	989	183	403	3399
26	0	0	1799	989	184	403	3398
27	0	0	1740	989	184	404	3396
28	0	0	1676	991	184	403	3395
29	0	0	1670	992	184	403	3395
30	0	0	1685	993	184	403	3394
31	0	0	1724	993	184	403	3393
32	0	0	1771	994	184	403	3393
33	0	0	1857	993	184	404	3396
34	0	0	1929	993	184	403	3394
35	0	0	2044	994	184	403	3395
36	0	0	2074	993	183	403	3394
37	0	0	2080	993	184	403	3394
38	0	0	2101	994	183	402	3395
39	0	0	2119	993	183	403	3395
40	0	0	2091	990	184	403	3396
41	0	0	2036	990	183	403	3397
42	0	0	1983	989	184	403	3396
43	0	0	1895	990	184	403	3395
44	0	0	1883	993	185	403	3394
45	0	0	1831	989	184	403	3393
46	0	0	1745	989	184	403	3392
47	0	0	1681	989	184	403	3392
48	0	0	1632	989	185	402	3391
49	0	0	1573	990	184	403	3391
50	0	0	1559	992	184	403	3391
51	0	0	1649	993	184	403	3391
52	0	0	1684	993	183	403	3392
53	0	0	1761	993	183	403	3392
54	0	0	1859	993	185	403	3393
55	0	0	1930	993	183	403	3394
56	0	0	1982	994	184	403	3394
57	0	0	2016	993	184	403	3394
58	0	0	2035	994	184	403	3395
59	0	0	2072	993	183	404	3394
60	0	0	2243	994	183	403	3393
61	0	0	2178	989	183	403	3391
62	0	0	2061	989	183	403	3390
63	0	0	1949	988	185	403	3389
64	0	0	1854	988	184	403	3389
65	0	0	1756	989	184	403	3392
66	0	0	1656	989	184	403	3389
67	0	0	1646	993	184	403	3389
68	0	0	1566	989	184	403	3389
69	0	0	1493	990	185	403	3389
70	0	0	1510	993	183	403	3390
71	0	0	1571	993	184	403	3390
72	0	0	1636	993	184	403	3390
73	0	0	1734	993	184	403	3392
74	0	0	1828	993	184	403	3393
75	0	0	1970	993	184	403	3392
76	0	0	2161	993	184	403	3392
77	0	0	2163	990	183	403	3389
78	0	0	2128	991	183	403	3388
79	0	0	2101	989	184	403	3387
80	0	0	2054	989	183	403	3386
81	0	0	1992	989	183	403	3387
82	0	0	1916	989	183	403	3386
83	0	0	1910	992	183	403	3386
84	0	0	1825	989	183	403	3387
85	0	0	1739	989	183	403	3388
86	0	0	1682	989	184	403	3387
87	0	0	1640	989	184	403	3388
88	0	0	1598	988	183	403	3387
89	0	0	1548	989	184	403	3387
90	0	0	1537	989	183	403	3389
91	0	0	1637	993	184	403	3389
92	0	0	1748	993	184	403	3389
93	0	0	1843	993	184	403	3387
94	0	0	1933	994	184	403	3386
95	0	0	1996	993	184	403	3386
96	0	0	2049	993	184	403	3384
97	0	0	2084	993	184	403	3381
98	0	0	2091	993	184	403	3383
99	0	0	2163	993	183	403	3383
100	0	0	2120	988	185	403	3383
101	0	0	2057	990	184	403	3384
102	0	0	2020	988	184	403	3384
103	0	0	1967	989	184	403	3385
104	0	0	1904	989	184	403	3386
105	0	0	1831	988	183	404	3386
106	0	0	1732	989	184	404	3386
107	0	0	1753	992	184	403	3386
108	0	0	1726	988	185	403	3387
109	0	0	1660	990	185	403	3386
110	0	0	1659	993	184	403	3385
111	0	0	1694	993	185	403	3383
112	0	0	1748	993	184	403	3382
113	0	0	1840	993	184	403	3381
114	0	0	1919	994	183	403	3382
115	0	0	2036	993	186	403	3382
116	0	0	2072	994	183	403	3381
117	0	0	2089	993	184	403	3381
118	0	0	2110	992	183	403	3381
119	0	0	2126	993	184	403	3382
120	0	0	2104	990	184	404	3382
121	0	0	2057	988	183	403	3383
122	0	0	1980	989	184	403	3383
123	0	0	1957	989	184	403	3384
124	0	0	1900	988	184	403	3385
125	0	0	1828	988	184	403	3385
126	0	0	1756	988	184	403	3384
127	0	0	1696	989	184	403	3383
0	0	0	1648	988	184	404	3381
1	0	0	1585	989	184	402	3381
2	0	0	1562	989	184	403	3380
3	0	0	1645	992	185	403	3379
4	0	0	1682	992	185	403	3379
5	0	0	1761	992	184	403	3380
6	0	0	1863	992	183	403	3380
7	0	0	1940	992	184	403	3381
8	0	0	1996	992	184	403	3381
9	0	0	2023	990	183	403	3381
10	0	0	2150	992	184	403	3381
11	0	0	2256	991	184	403	3382
12	0	0	2167	987	183	403	3383
13	0	0	2046	988	183	403	3383
14	0	0	1938	987	183	403	3383
15	0	0	1828	987	184	403	3382
16	0	0	1713	987	184	403	3381
17	0	0	1582	986	184	403	3377
18	0	0	1439	986	183	403	3380
19	0	0	1381	987	184	403	3378
20	0	0	1258	986	184	403	3378
21	0	0	1140	987	184	403	3379
22	0	0	1147	992	184	403	3379
23	0	0	1234	991	184	403	3379
24	0	0	1348	991	184	403	3379
25	0	0	1504	990	183	403	3380
26	0	0	1667	992	184	402	3381
27	0	0	1818	991	185	403	3383
28	0	0	1927	991	184	403	3383
29	0	0	2016	991	184	403	3384
30	0	0	2083	992	183	403	3383
31	0	0	2139	991	184	403	3383
32	0	0	2149	992	184	403	3382
33	0	0	2126	989	184	403	3382
34	0	0	2073	987	184	403	3380
35	0	0	2079	991	184	403	3379
36	0	0	2017	987	184	403	3379
37	0	0	1948	987	183	403	3379
38	0	0	1903	987	184	403	3379
39	0	0	1869	988	184	403	3379
40	0	0	1837	986	185	403	3379
41	0	0	1779	988	184	403	3380
42	0	0	1802	992	184	403	3382
43	0	0	1863	992	184	403	3382
44	0	0	1930	991	184	403	3384
45	0	0	2034	991	184	404	3384
46	0	0	2143	991	185	403	3385
47	0	0	2223	991	183	403	3385
48	0	0	2288	992	184	403	3384
49	0	0	2339	991	183	403	3385
50	0	0	2354	991	183	403	3382
51	0	0	2425	992	185	403	3381
52	0	0	2398	987	183	403	3381
53	0	0	2337	988	184	404	3382
54	0	0	2296	987	184	403	3381
55	0	0	2245	987	184	403	3382
56	0	0	2185	987	184	403	3383
57	0	0	2109	987	183	403	3383
58	0	0	2045	987	183	403	3384
59	0	0	1993	987	184	403	3384
60	0	0	1952	986	185	403	3385
61	0	0	1893	987	185	404	3386
62	0	0	1900	991	185	403	3387
63	0	0	1947	991	184	403	3388
64	0	0	2006	991	184	403	3388
65	0	0	2107	991	184	403	3385
66	0	0	2187	991	184	403	3386
67	0	0	2296	991	183	403	3386
68	0	0	2339	992	184	403	3386
69	0	0	2357	991	184	403	3384
70	0	0	2384	992	184	403	3385
71	0	0	2404	992	184	403	3385
72	0	0	2380	988	185	403	3386
73	0	0	2334	988	183	403	3386
74	0	0	2288	988	184	403	3387
75	0	0	2229	987	184	403	3389
76	0	0	2163	987	183	403	3390
77	0	0	2088	987	185	403	3392
78	0	0	2015	987	184	403	3392
79	0	0	1961	988	183	403	3395
80	0	0	1916	987	185	404	3395
81	0	0	1846	987	183	402	3396
82	0	0	1821	990	184	403	3394
83	0	0	1908	990	184	403	3392
84	0	0	1960	991	183	403	3392
85	0	0	2041	991	184	403	3392
86	0	0	2146	991	183	403	3393
87	0	0	2229	991	184	403	3393
88	0	0	2293	991	183	403	3393
89	0	0	2339	991	184	403	3393
90	0	0	2371	991	184	403	3394
91	0	0	2400	991	183	403	3396
92	0	0	2390	989	183	403	3399
93	0	0	2350	988	184	403	3401
94	0	0	2308	986	184	403	3402
95	0	0	2248	987	183	403	3405
96	0	0	2189	987	184	403	3407
97	0	0	2119	987	185	403	3406
98	0	0	2031	987	184	403	3406
99	0	0	2035	991	184	403	3406
100	0	0	1982	986	185	403	3405
101	0	0	1909	988	184	404	3405
102	0	0	1915	990	185	403	3405
103	0	0	1959	991	185	403	3405
104	0	0	2019	991	183	403	3407
105	0	0	2124	992	185	405	3407
106	0	0	2227	991	184	404	3407
107	0	0	2306	991	183	404	3409
108	0	0	2365	991	185	403	3411
109	0	0	2409	991	182	403	3415
110	0	0	2433	991	183	405	3415
111	0	0	2452	991	184	404	3417
112	0	0	2433	988	183	404	3419
113	0	0	2388	987	183	403	3422
114	0	0	2316	987	183	403	3420
115	0	0	2303	991	182	403	3421
116	0	0	2230	986	183	403	3421
117	0	0	2138	987	184	403	3420
118	0	0	2077	987	183	403	3420
119	0	0	2029	987	183	403	3420
120	0	0	1992	987	185	403	3420
121	0	0	1935	987	184	404	3421
122	0	0	1938	991	185	403	3422
123	0	0	1983	991	184	403	3422
124	0	0	2042	991	185	403	3424
125	0	0	2142	991	184	403	3427
126	0	0	2239	991	184	403	3429
127	0	0	2315	991	184	403	3431
0	0	0	2376	991	184	403	3432
1	0	0	2418	991	183	403	3433
2	0	0	2419	991	184	403	3436
3	0	0	2475	991	184	403	3435
4	0	0	2444	987	184	403	3436
5	0	0	2377	988	184	403	3434
6	0	0	2331	987	184	403	3435
7	0	0	2273	987	183	402	3434
8	0	0	2210	987	184	404	3435
9	0	0	2140	986	184	403	3436
10	0	0	2071	986	183	403	3436
11	0	0	2017	987	183	403	3437
12	0	0	1971	987	184	403	3437
13	0	0	1903	987	184	403	3440
14	0	0	1895	991	184	403	3442
15	0	0	1933	991	184	403	3444
16	0	0	1985	990	184	403	3446
17	0	0	2069	991	184	403	3447
18	0	0	2143	991	184	403	3450
19	0	0	2248	991	184	403	3451
20	0	0	2302	991	184	403	3451
21	0	0	2324	991	184	403	3449
22	0	0	2346	991	184	403	3449
23	0	0	2370	991	184	403	3448
24	0	0	2338	987	183	403	3449
25	0	0	2287	987	184	403	3449
26	0	0	2240	987	182	403	3451
27	0	0	2176	986	183	404	3451
28	0	0	2106	986	183	403	3452
29	0	0	2024	986	185	403	3453
30	0	0	1956	986	184	403	3457
31	0	0	1895	986	184	403	3457
32	0	0	1847	986	184	403	3459
33	0	0	1780	987	185	403	3462
34	0	0	1747	988	184	403	3463
35	0	0	1839	991	184	403	3464
36	0	0	1891	990	185	403	3464
37	0	0	1964	991	184	403	3464
38	0	0	2072	990	184	403	3464
39	0	0	2156	990	183	403	3464
40	0	0	2221	991	183	403	3463
41	0	0	2268	990	182	403	3464
42	0	0	2298	991	183	403	3464
43	0	0	2326	991	184	403	3465
44	0	0	2312	988	182	403	3465
45	0	0	2270	987	183	403	3467
46	0	0	2227	987	183	403	3468
47	0	0	2176	987	184	403	3471
48	0	0	2117	986	184	404	3473
49	0	0	2038	986	184	403	3484
50	0	0	1948	986	184	403	3476
51	0	0	1949	989	184	403	3479
52	0	0	1895	986	184	404	3479
53	0	0	1818	987	183	403	3479
54	0	0	1822	990	183	403	3479
55	0	0	1874	991	183	403	3478
56	0	0	1935	990	185	403	3478
57	0	0	2031	991	185	403	3478
58	0	0	2145	990	183	403	3480
59	0	0	2231	990	183	403	3479
60	0	0	2302	991	184	403	3480
61	0	0	2354	990	185	403	3480
62	0	0	2380	991	183	403	3481
63	0	0	2407	990	183	403	3484
64	0	0	2393	988	183	403	3487
65	0	0	2345	987	183	403	3487
66	0	0	2272	986	183	403	3489
67	0	0	2260	990	184	403	3491
68	0	0	2181	986	183	403	3493
69	0	0	2091	986	183	403	3494
70	0	0	2024	987	184	403	3495
71	0	0	1973	986	184	403	3497
72	0	0	1938	986	183	403	3501
73	0	0	1869	987	184	403	3506
74	0	0	1868	990	185	403	3512
75	0	0	1915	990	184	403	3518
76	0	0	1974	990	184	403	3525
77	0	0	2065	989	184	403	3532
78	0	0	2164	991	185	403	3539
79	0	0	2236	990	184	403	3545
80	0	0	2294	991	184	403	3554
81	0	0	2339	989	183	403	3556
82	0	0	2336	989	183	403	3568
83	0	0	2393	990	184	403	3575
84	0	0	2364	986	182	403	3581
85	0	0	2300	986	183	403	3586
86	0	0	2252	986	184	403	3590
87	0	0	2197	986	183	403	3593
88	0	0	2135	986	183	403	3598
89	0	0	2064	986	183	403	3602
90	0	0	1997	986	183	403	3606
91	0	0	1943	986	184	403	3611
92	0	0	1900	986	183	403	3617
93	0	0	1831	986	185	403	3622
94	0	0	1819	990	184	403	3628
95	0	0	1856	990	184	404	3634
96	0	0	1910	989	185	403	3639
97	0	0	1994	990	184	403	3642
98	0	0	2067	990	183	403	3653
99	0	0	2178	990	184	403	3658
100	0	0	2230	989	184	403	3662
101	0	0	2259	990	183	403	3667
102	0	0	2281	990	184	403	3671
103	0	0	2304	991	183	403	3673
104	0	0	2290	988	183	403	3675
105	0	0	2245	986	183	403	3675
106	0	0	2201	986	184	403	3676
107	0	0	2141	986	183	403	3677
108	0	0	2076	985	184	403	3679
109	0	0	1996	985	184	403	3681
110	0	0	1919	985	184	403	3683
111	0	0	1858	986	184	403	3684
112	0	0	1810	986	184	403	3686
113	0	0	1741	986	184	404	3693
114	0	0	1710	987	184	403	3692
115	0	0	1794	990	184	403	3693
116	0	0	1839	990	183	403	3696
117	0	0	1914	990	184	404	3697
118	0	0	2021	990	183	404	3699
119	0	0	2109	990	184	403	3702
120	0	0	2175	989	183	403	3699
121	0	0	2226	989	183	403	3698
122	0	0	2261	990	183	403	3696
123	0	0	2285	989	183	404	3694
124	0	0	2276	988	183	403	3693
125	0	0	2232	986	183	403	3692
126	0	0	2188	986	183	403	3691
127	0	0	2130	985	183	403	3690
0	0	0	2067	986	184	403	3690
1	0	0	1997	985	184	403	3692
2	0	0	1909	985	184	403	3689
3	0	0	1910	989	184	403	3689
4	0	0	1860	985	184	403	3688
5	0	0	1774	986	184	403	3688
6	0	0	1771	990	184	403	3689
7	0	0	1823	990	184	403	3689
8	0	0	1892	990	185	403	3687
9	0	0	1993	989	183	403	3684
10	0	0	2099	989	183	403	3681
11	0	0	2188	989	184	403	3676
12	0	0	2264	990	184	404	3673
13	0	0	2315	990	184	403	3669
14	0	0	2346	989	184	404	3666
15	0	0	2376	990	184	403	3663
16	0	0	2363	988	183	403	3661
17	0	0	2312	986	183	403	3663
18	0	0	2240	987	183	403	3655
19	0	0	2225	988	184	403	3654
20	0	0	2145	985	184	403	3652
21	0	0	2052	985	184	403	3650
22	0	0	1987	986	183	403	3648
23	0	0	1936	986	184	403	3646
24	0	0	1897	985	184	403	3644
25	0	0	1833	986	184	403	3641
26	0	0	1827	989	183	403	3635
27	0	0	1870	989	184	403	3629
28	0	0	1923	989	185	403	3624
29	0	0	2012	989	184	403	3619
30	0	0	2109	990	184	404	3614
31	0	0	2191	989	184	403	3610
32	0	0	2246	989	183	403	3604
33	0	0	2284	989	183	404	3604
34	0	0	2278	989	183	403	3596
35	0	0	2340	989	183	402	3593
36	0	0	2307	985	183	403	3590
37	0	0	2244	986	184	403	3587
38	0	0	2202	986	184	403	3582
39	0	0	2148	985	183	403	3579
40	0	0	2084	985	183	404	3576
41	0	0	2008	986	185	403	3573
42	0	0	1937	985	184	403	3566
43	0	0	1879	985	185	403	3560
44	0	0	1842	985	184	403	3552
45	0	0	1772	985	184	404	3545
46	0	0	1756	989	183	403	3539
47	0	0	1788	989	184	403	3532
48	0	0	1840	988	184	403	3526
49	0	0	1926	989	184	403	3515
50	0	0	2000	990	184	405	3514
51	0	0	2127	989	183	403	3509
52	0	0	2175	989	183	403	3503
53	0	0	2201	989	184	403	3498
54	0	0	2225	990	183	403	3493
55	0	0	2254	989	184	403	3488
56	0	0	2249	988	183	403	3484
57	0	0	2204	985	183	403	3478
58	0	0	2152	986	183	403	3473
59	0	0	2091	985	183	403	3465
60	0	0	2025	985	184	401	3458
61	0	0	1954	985	183	403	3449
62	0	0	1889	985	183	403	3441
63	0	0	1832	986	183	403	3432
64	0	0	1790	985	185	403	3423
65	0	0	1722	986	185	403	3414
66	0	0	1684	986	185	403	3410
67	0	0	1765	989	183	403	3401
68	0	0	1806	989	184	403	3396
69	0	0	1875	989	184	403	3388
70	0	0	1987	989	184	404	3383
71	0	0	2094	989	184	403	3376
72	0	0	2172	990	184	403	3369
73	0	0	2224	989	183	403	3363
74	0	0	2257	989	184	403	3357
75	0	0	2287	989	183	402	3350
76	0	0	2283	988	184	403	3340
77	0	0	2240	986	184	403	3331
78	0	0	2197	985	184	403	3322
79	0	0	2144	985	183	403	3313
80	0	0	2085	985	184	403	3305
81	0	0	2007	984	184	403	3290
82	0	0	1911	984	184	403	3287
83	0	0	1909	988	185	403	3279
84	0	0	1856	985	184	403	3271
85	0	0	1774	985	184	403	3262
86	0	0	1765	989	184	403	3255
87	0	0	1817	989	185	403	3247
88	0	0	1882	989	185	403	3240
89	0	0	1988	989	184	403	3234
90	0	0	2101	989	184	404	3228
91	0	0	2193	989	184	403	3221
92	0	0	2268	989	183	403	3213
93	0	0	2321	989	184	403	3205
94	0	0	2347	990	183	403	3196
95	0	0	2373	989	183	403	3186
96	0	0	2369	988	183	403	3179
97	0	0	2328	985	183	403	3166
98	0	0	2251	985	183	403	3163
99	0	0	2235	987	184	403	3157
100	0	0	2159	985	183	403	3150
101	0	0	2073	985	184	403	3143
102	0	0	2008	985	184	403	3136
103	0	0	1955	985	184	403	3130
104	0	0	1919	985	183	403	3123
105	0	0	1849	984	184	403	3115
106	0	0	1834	989	184	403	3110
107	0	0	1879	989	184	403	3104
108	0	0	1934	989	183	403	3099
109	0	0	2020	989	185	403	3094
110	0	0	2120	989	184	404	3087
111	0	0	2206	989	182	403	3082
112	0	0	2266	989	183	403	3076
113	0	0	2307	990	184	403	3078
114	0	0	2299	987	184	403	3063
115	0	0	2358	989	183	404	3057
116	0	0	2336	985	183	403	3052
117	0	0	2271	986	183	403	3047
118	0	0	2226	986	183	403	3043
119	0	0	2176	985	184	403	3039
120	0	0	2117	985	183	403	3035
121	0	0	2038	984	184	403	3032
122	0	0	1963	984	184	403	3027
123	0	0	1903	985	184	403	3023
124	0	0	1864	984	183	404	3018
125	0	0	1799	985	184	404	3013
126	0	0	1784	988	184	403	3010
127	0	0	1817	989	183	403	3006
0	0	0	1870	989	184	403	3002
1	0	0	1954	988	184	403	3008
2	0	0	2025	988	184	403	2996
3	0	0	2151	989	183	403	2995
4	0	0	2205	989	184	403	2992
5	0	0	2235	989	184	403	2987
6	0	0	2263	988	185	403	2983
7	0	0	2296	989	183	403	2980
8	0	0	2297	987	184	403	2977
9	0	0	2250	985	183	403	2974
10	0	0	2204	985	183	403	2973
11	0	0	2147	985	184	403	2970
12	0	0	2083	985	184	404	2969
13	0	0	2013	984	184	403	2967
14	0	0	1948	984	184	403	2964
15	0	0	1892	985	184	403	2962
16	0	0	1847	985	184	403	2958
17	0	0	1779	984	184	403	2948
18	0	0	1736	986	184	403	2953
19	0	0	1818	989	184	403	2950
20	0	0	1867	988	184	403	2950
21	0	0	1941	989	185	403	2948
22	0	0	2046	989	183	403	2947
23	0	0	2143	989	184	403	2946
24	0	0	2216	989	184	403	2944
25	0	0	2275	989	184	403	2942
26	0	0	2314	989	183	403	2939
27	0	0	2342	989	184	404	2936
28	0	0	2341	987	184	403	2934
29	0	0	2303	985	184	403	2933
30	0	0	2261	985	183	403	2932
31	0	0	2211	985	184	403	2931
32	0	0	2152	984	184	403	2930
33	0	0	2077	984	184	403	2928
34	0	0	1975	984	184	403	2927
35	0	0	1962	987	183	404	2925
36	0	0	1910	984	184	403	2923
37	0	0	1829	984	184	403	2920
38	0	0	1815	988	185	403	2920
39	0	0	1861	988	184	403	2919
40	0	0	1918	990	184	403	2918
41	0	0	2010	987	184	403	2917
42	0	0	2120	989	183	403	2917
43	0	0	2215	988	184	403	2916
44	0	0	2285	988	183	403	2915
45	0	0	2337	988	184	403	2913
46	0	0	2377	989	183	403	2911
47	0	0	2410	988	184	404	2909
48	0	0	2405	987	184	403	2908
49	0	0	2355	984	183	403	2902
50	0	0	2282	984	183	403	2906
51	0	0	2284	987	183	403	2905
52	0	0	2199	984	184	403	2905
53	0	0	2101	984	184	403	2905
54	0	0	2020	984	184	403	2904
55	0	0	1969	985	183	403	2902
56	0	0	1933	984	184	404	2900
57	0	0	1868	984	184	404	2898
58	0	0	1833	987	184	403	2898
59	0	0	1864	989	184	403	2898
60	0	0	1921	988	184	403	2897
61	0	0	2006	988	184	403	2897
62	0	0	2114	989	184	403	2897
63	0	0	2194	988	184	404	2897
64	0	0	2253	988	184	403	2896
65	0	0	2297	989	184	403	2889
66	0	0	2296	986	184	403	2892
67	0	0	2357	989	183	403	2891
68	0	0	2333	984	184	403	2890
69	0	0	2274	985	183	403	2889
70	0	0	2228	984	184	403	2888
71	0	0	2176	984	184	403	2889
72	0	0	2114	984	184	403	2890
73	0	0	2037	983	184	403	2889
74	0	0	1963	983	184	403	2888
75	0	0	1902	984	183	403	2888
76	0	0	1860	984	185	404	2885
77	0	0	1789	984	184	403	2883
78	0	0	1765	987	184	404	2883
79	0	0	1795	988	183	403	2882
80	0	0	1845	987	185	403	2882
81	0	0	1926	987	184	403	2890
82	0	0	2002	987	183	403	2882
83	0	0	2131	988	184	403	2882
84	0	0	2182	988	184	403	2881
85	0	0	2209	987	183	403	2880
86	0	0	2248	988	183	403	2878
87	0	0	2275	988	184	403	2877
88	0	0	2274	987	183	403	2877
89	0	0	2233	984	184	403	2876
90	0	0	2190	984	184	403	2876
91	0	0	2140	984	184	404	2876
92	0	0	2083	984	184	403	2876
93	0	0	2013	983	184	403	2876
94	0	0	1947	984	185	403	2877
95	0	0	1895	985	185	403	2875
96	0	0	1860	984	183	403	2873
97	0	0	1794	983	184	403	2868
98	0	0	1734	983	183	403	2871
99	0	0	1814	987	184	403	2870
100	0	0	1858	988	184	404	2870
101	0	0	1917	988	183	403	2870
102	0	0	2025	987	183	403	2870
103	0	0	2127	988	184	403	2871
104	0	0	2200	988	184	403	2870
105	0	0	2252	987	183	403	2869
106	0	0	2285	988	184	403	2867
107	0	0	2316	988	184	403	2866
108	0	0	2314	988	184	403	2865
109	0	0	2275	984	184	404	2866
110	0	0	2226	984	183	403	2865
111	0	0	2173	984	184	403	2865
112	0	0	2112	983	184	403	2865
113	0	0	2035	983	184	403	2862
114	0	0	1940	983	184	403	2864
115	0	0	1934	986	184	402	2864
116	0	0	1876	983	184	403	2863
117	0	0	1793	983	183	403	2860
118	0	0	1765	987	183	403	2860
119	0	0	1801	987	184	403	2859
120	0	0	1856	987	183	403	2859
121	0	0	1942	987	184	403	2860
122	0	0	2057	988	183	404	2860
123	0	0	2148	987	184	403	2860
124	0	0	2220	988	184	403	2860
125	0	0	2274	988	183	403	2858
126	0	0	2304	988	185	403	2857
127	0	0	2327	988	183	403	2856
0	0	0	2320	986	183	403	2855
1	0	0	2273	984	184	403	2862
2	0	0	2198	983	184	403	2854
3	0	0	2194	985	183	404	2854
4	0	0	2109	983	184	403	2855
5	0	0	2014	984	183	403	2855
6	0	0	1945	983	183	403	2853
7	0	0	1892	983	184	403	2852
8	0	0	1857	983	183	403	2851
9	0	0	1791	983	184	403	2849
10	0	0	1762	986	184	404	2849
11	0	0	1790	988	184	403	2849
12	0	0	1843	988	184	403	2848
13	0	0	1927	987	185	403	2849
14	0	0	2029	987	184	403	2850
15	0	0	2117	987	185	403	2849
16	0	0	2184	987	184	403	2849
17	0	0	2230	987	183	403	2853
18	0	0	2230	986	184	403	2847
19	0	0	2298	987	183	403	2844
20	0	0	2274	983	183	404	2844
21	0	0	2215	983	183	403	2843
22	0	0	2168	984	184	403	2844
23	0	0	2120	983	184	403	2843
24	0	0	2058	983	184	403	2844
25	0	0	1982	983	184	403	2844
26	0	0	1908	983	183	403	2843
27	0	0	1853	983	183	403	2842
28	0	0	1815	983	184	403	2841
29	0	0	1749	982	183	405	2840
30	0	0	1712	985	184	404	2839
31	0	0	1736	987	184	403	2839
32	0	0	1785	987	184	404	2839
33	0	0	1858	987	184	403	2845
34	0	0	1927	987	183	403	2840
35	0	0	2061	987	183	403	2840
36	0	0	2116	987	183	403	2839
37	0	0	2152	988	184	403	2838
38	0	0	2186	988	184	403	2836
39	0	0	2216	987	184	403	2835
40	0	0	2223	987	184	403	2834
41	0	0	2188	983	184	403	2833
42	0	0	2139	983	183	403	2833
43	0	0	2088	983	184	403	2834
44	0	0	2029	983	183	403	2834
45	0	0	1962	982	183	404	2834
46	0	0	1893	983	184	403	2833
47	0	0	1837	983	184	403	2834
48	0	0	1799	983	183	404	2832
49	0	0	1735	982	185	403	2838
50	0	0	1677	984	184	403	2829
51	0	0	1766	987	184	403	2829
52	0	0	1806	986	184	403	2829
53	0	0	1871	988	184	403	2829
54	0	0	1987	987	184	403	2830
55	0	0	2090	987	184	404	2830
56	0	0	2161	987	183	403	2829
57	0	0	2214	987	184	403	2828
58	0	0	2252	986	183	404	2827
59	0	0	2282	986	183	403	2825
60	0	0	2291	987	184	403	2825
61	0	0	2256	984	183	403	2825
62	0	0	2207	985	183	403	2825
63	0	0	2150	984	183	403	2825
64	0	0	2093	983	184	403	2826
65	0	0	2028	982	183	403	2834
66	0	0	1928	982	184	403	2825
67	0	0	1914	985	184	403	2825
68	0	0	1852	983	184	403	2823
69	0	0	1767	982	184	403	2822
70	0	0	1741	987	185	403	2821
71	0	0	1783	987	184	403	2820
72	0	0	1852	987	182	402	2821
73	0	0	1924	988	185	403	2821
74	0	0	2022	987	185	403	2822
75	0	0	2113	986	183	403	2822
76	0	0	2193	986	185	403	2821
77	0	0	2256	986	183	402	2821
78	0	0	2292	987	184	403	2819
79	0	0	2317	987	184	403	2817
80	0	0	2324	986	183	403	2817
81	0	0	2286	983	183	403	2812
82	0	0	2207	983	183	403	2817
83	0	0	2207	984	183	402	2817
84	0	0	2116	982	183	403	2818
85	0	0	2028	982	184	403	2818
86	0	0	1958	982	183	403	2817
87	0	0	1899	982	185	403	2816
88	0	0	1856	982	183	403	2816
89	0	0	1798	981	184	403	2814
90	0	0	1766	985	184	403	2813
91	0	0	1790	986	184	403	2812
92	0	0	1846	986	184	403	2813
93	0	0	1925	985	184	403	2814
94	0	0	2026	986	184	403	2814
95	0	0	2117	986	183	404	2815
96	0	0	2189	986	183	403	2814
97	0	0	2238	986	183	403	2821
98	0	0	2242	988	184	403	2812
99	0	0	2314	987	184	403	2811
100	0	0	2294	983	184	403	2810
101	0	0	2244	983	183	403	2809
102	0	0	2203	983	183	403	2810
103	0	0	2153	983	184	403	2811
104	0	0	2099	983	184	403	2811
105	0	0	2023	982	184	403	2811
106	0	0	1951	982	183	403	2810
107	0	0	1892	982	184	404	2810
108	0	0	1850	981	184	403	2809
109	0	0	1788	982	184	404	2807
110	0	0	1750	984	184	404	2807
111	0	0	1779	985	184	403	2806
112	0	0	1827	986	184	403	2808
113	0	0	1902	986	184	403	2816
114	0	0	1975	986	184	403	2808
115	0	0	2116	987	184	403	2809
116	0	0	2174	986	184	403	2809
117	0	0	2206	987	183	404	2808
118	0	0	2248	985	184	403	2807
119	0	0	2280	986	184	403	2805
120	0	0	2295	986	184	403	2805
121	0	0	2268	983	183	403	2804
122	0	0	2220	982	183	403	2805
123	0	0	2169	982	184	403	2806
124	0	0	2111	982	183	404	2806
125	0	0	2043	982	184	403	2806
126	0	0	1975	982	184	403	2806
127	0	0	1915	982	184	403	2806
0	0	0	1875	982	184	403	2804
1	0	0	1821	981	184	403	2799
2	0	0	1758	982	184	403	2803
3	0	0	1842	986	184	403	2803
4	0	0	1878	986	184	403	2803
5	0	0	1938	986	183	403	2804
6	0	0	2048	986	183	403	2806
7	0	0	2147	986	183	403	2806
8	0	0	2221	987	184	403	2805
9	0	0	2284	986	183	403	2805
10	0	0	2328	987	184	403	2804
11	0	0	2357	986	184	404	2802
12	0	0	2361	987	183	403	2801
13	0	0	2322	983	183	403	2802
14	0	0	2272	982	182	403	2802
15	0	0	2220	983	183	403	2803
16	0	0	2161	982	184	403	2804
17	0	0	2088	981	184	403	2812
18	0	0	1990	980	184	403	2804
19	0	0	1981	984	184	404	2804
20	0	0	1920	982	184	403	2803
21	0	0	1839	981	184	403	2802
22	0	0	1808	987	185	404	2802
23	0	0	1847	987	184	403	2802
24	0	0	1905	986	184	403	2803
25	0	0	1984	987	183	403	2803
26	0	0	2080	986	184	403	2803
27	0	0	2175	986	184	403	2804
28	0	0	2250	986	184	403	2804
29	0	0	2306	986	184	403	2803
30	0	0	2342	986	183	403	2803
31	0	0	2359	986	184	403	2801
32	0	0	2363	986	183	403	2801
33	0	0	2324	982	183	403	2796
34	0	0	2255	981	184	403	2802
35	0	0	2265	984	184	403	2803
36	0	0	2175	981	183	403	2804
37	0	0	2077	981	184	403	2805
38	0	0	1998	982	183	403	2804
39	0	0	1936	982	184	403	2805
40	0	0	1886	982	184	403	2804
41	0	0	1826	981	184	403	2802
42	0	0	1789	984	183	403	2802
43	0	0	1816	986	184	403	2802
44	0	0	1872	986	183	403	2802
45	0	0	1948	986	184	403	2803
46	0	0	2052	986	184	403	2804
47	0	0	2147	985	183	403	2804
48	0	0	2217	986	184	403	2804
49	0	0	2269	986	184	404	2813
50	0	0	2278	986	182	403	2803
51	0	0	2352	986	183	403	2802
52	0	0	2335	982	184	403	2803
53	0	0	2278	982	183	403	2802
54	0	0	2230	982	183	403	2803
55	0	0	2182	982	184	403	2804
56	0	0	2124	982	185	403	2806
57	0	0	2053	982	184	403	2806
58	0	0	1985	982	184	403	2806
59	0	0	1929	982	183	404	2805
60	0	0	1892	982	184	404	2804
61	0	0	1832	981	184	403	2803
62	0	0	1788	983	185	402	2803
63	0	0	1812	985	184	403	2803
64	0	0	1864	985	183	403	2805
65	0	0	1933	985	183	403	2812
66	0	0	2005	986	184	403	2805
67	0	0	2156	985	184	403	2806
68	0	0	2216	986	183	403	2807
69	0	0	2242	985	183	403	2806
70	0	0	2278	986	184	403	2806
71	0	0	2307	986	184	403	2805
72	0	0	2323	985	183	403	2805
73	0	0	2300	983	184	403	2805
74	0	0	2258	982	183	404	2805
75	0	0	2213	982	185	403	2806
76	0	0	2154	981	183	404	2807
77	0	0	2083	982	184	403	2808
78	0	0	2006	980	184	403	2808
79	0	0	1946	982	184	403	2807
80	0	0	1899	982	184	403	2807
81	0	0	1844	981	184	403	2814
82	0	0	1772	981	184	403	2805
83	0	0	1850	986	184	403	2806
84	0	0	1884	986	185	404	2806
85	0	0	1937	986	184	404	2807
86	0	0	2049	986	184	403	2808
87	0	0	2153	985	184	403	2809
88	0	0	2229	985	184	403	2809
89	0	0	2287	985	183	404	2809
90	0	0	2325	986	183	404	2808
91	0	0	2351	985	184	403	2808
92	0	0	2363	986	183	403	2807
93	0	0	2333	982	183	403	2807
94	0	0	2282	982	184	403	2808
95	0	0	2228	981	184	403	2809
96	0	0	2168	982	184	403	2810
97	0	0	2100	981	183	403	2818
98	0	0	2000	981	184	403	2810
99	0	0	1994	984	184	403	2810
100	0	0	1922	981	183	404	2809
101	0	0	1842	980	183	403	2808
102	0	0	1800	983	185	403	2808
103	0	0	1821	985	185	403	2809
104	0	0	1881	985	184	403	2809
105	0	0	1954	986	184	403	2810
106	0	0	2052	985	183	403	2812
107	0	0	2152	985	184	403	2813
108	0	0	2227	985	183	403	2812
109	0	0	2283	985	183	403	2812
110	0	0	2319	986	183	404	2811
111	0	0	2339	985	183	403	2809
112	0	0	2341	985	183	403	2809
113	0	0	2307	982	183	403	2803
114	0	0	2230	981	184	403	2810
115	0	0	2236	984	184	403	2811
116	0	0	2147	980	184	403	2812
117	0	0	2048	980	184	402	2813
118	0	0	1972	981	183	403	2813
119	0	0	1915	981	184	403	2813
120	0	0	1864	982	183	403	2813
121	0	0	1811	981	183	403	2812
122	0	0	1770	982	183	402	2811
123	0	0	1787	985	185	403	2812
124	0	0	1836	985	184	403	2812
125	0	0	1901	985	183	403	2813
126	0	0	2007	986	184	403	2814
127	0	0	2106	985	184	402	2814
0	0	0	2175	986	184	403	2814
1	0	0	2228	984	183	404	2822
2	0	0	2239	985	183	403	2813
3	0	0	2318	986	183	403	2812
4	0	0	2305	981	183	402	2812
5	0	0	2252	981	184	403	2812
6	0	0	2205	982	183	403	2813
7	0	0	2164	982	183	403	2814
8	0	0	2115	982	184	403	2815
9	0	0	2046	981	184	403	2816
10	0	0	1972	981	184	403	2817
11	0	0	1918	981	184	402	2816
12	0	0	1875	981	183	403	2816
13	0	0	1820	980	184	403	2815
14	0	0	1766	982	185	402	2813
15	0	0	1782	985	185	403	2814
16	0	0	1835	984	184	404	2814
17	0	0	1900	985	184	403	2810
18	0	0	1978	985	184	404	2816
19	0	0	2128	984	184	403	2817
20	0	0	2182	985	183	403	2817
21	0	0	2217	985	184	403	2817
22	0	0	2256	985	183	403	2816
23	0	0	2282	985	184	403	2815
24	0	0	2298	986	184	402	2815
25	0	0	2270	981	184	403	2815
26	0	0	2227	981	183	403	2816
27	0	0	2179	981	184	403	2817
28	0	0	2118	981	184	404	2818
29	0	0	2048	981	184	404	2818
30	0	0	1972	981	184	403	2819
31	0	0	1909	981	184	404	2818
32	0	0	1861	981	184	404	2817
33	0	0	1807	980	184	403	2824
34	0	0	1731	980	184	402	2816
35	0	0	1801	985	184	403	2815
36	0	0	1844	985	183	403	2816
37	0	0	1893	984	184	403	2817
38	0	0	1999	985	183	403	2818
39	0	0	2099	985	183	402	2819
40	0	0	2175	984	184	403	2819
41	0	0	2233	985	184	403	2819
42	0	0	2273	985	182	403	2818
43	0	0	2298	985	183	403	2818
44	0	0	2306	985	183	403	2817
45	0	0	2274	981	183	403	2817
46	0	0	2226	981	183	403	2817
47	0	0	2176	982	184	403	2819
48	0	0	2113	981	184	403	2819
49	0	0	2041	980	183	403	2815
50	0	0	1938	980	184	403	2819
51	0	0	1930	982	185	403	2820
52	0	0	1862	980	182	403	2819
53	0	0	1791	981	184	403	2818
54	0	0	1739	981	183	403	2817
55	0	0	1757	985	184	403	2817
56	0	0	1818	984	184	403	2818
57	0	0	1896	985	184	403	2819
58	0	0	2002	984	185	403	2820
59	0	0	2092	985	183	403	2821
60	0	0	2163	985	183	403	2821
61	0	0	2219	984	184	403	2821
62	0	0	2253	986	184	403	2820
63	0	0	2272	985	183	403	2818
64	0	0	2280	985	184	403	2818
65	0	0	2247	981	184	403	2813
66	0	0	2166	980	183	403	2818
67	0	0	2181	984	184	403	2819
68	0	0	2098	980	183	403	2820
69	0	0	2008	980	183	403	2821
70	0	0	1931	980	184	403	2820
71	0	0	1861	980	185	403	2821
72	0	0	1808	982	184	403	2820
73	0	0	1760	981	185	403	2819
74	0	0	1704	981	184	403	2819
75	0	0	1715	984	184	403	2818
76	0	0	1767	984	184	403	2819
77	0	0	1833	985	184	404	2820
78	0	0	1931	984	184	404	2821
79	0	0	2026	984	184	403	2822
80	0	0	2098	984	183	404	2822
81	0	0	2158	985	184	403	2828
82	0	0	2171	985	183	403	2820
83	0	0	2251	985	184	403	2819
84	0	0	2241	981	184	403	2818
85	0	0	2190	981	183	403	2819
86	0	0	2149	981	185	403	2819
87	0	0	2104	981	184	403	2820
88	0	0	2050	981	183	403	2821
89	0	0	1984	980	184	403	2821
90	0	0	1918	980	183	403	2822
91	0	0	1855	980	185	403	2821
92	0	0	1805	981	184	404	2820
93	0	0	1756	979	184	403	2819
94	0	0	1701	981	184	403	2819
95	0	0	1716	984	184	403	2819
96	0	0	1762	984	185	403	2819
97	0	0	1827	985	184	403	2815
98	0	0	1902	985	183	403	2821
99	0	0	2055	984	184	403	2822
100	0	0	2118	985	184	403	2821
101	0	0	2163	984	184	403	2821
102	0	0	2209	984	183	404	2820
103	0	0	2239	984	183	403	2820
104	0	0	2256	984	184	403	2819
105	0	0	2234	981	183	403	2819
106	0	0	2192	981	183	405	2819
107	0	0	2134	981	183	403	2820
108	0	0	2074	981	183	403	2822
109	0	0	2011	980	185	403	2822
110	0	0	1940	979	184	404	2822
111	0	0	1875	980	184	403	2822
112	0	0	1827	981	183	403	2821
113	0	0	1775	980	185	403	2827
114	0	0	1692	980	184	403	2819
115	0	0	1766	984	184	403	2819
116	0	0	1797	984	184	403	2819
117	0	0	1843	984	183	403	2820
118	0	0	1953	985	184	403	2821
119	0	0	2060	984	184	403	2822
120	0	0	2143	984	185	403	2822
121	0	0	2199	984	183	403	2822
122	0	0	2243	984	183	404	2821
123	0	0	2273	985	183	403	2820
124	0	0	2293	984	183	403	2819
125	0	0	2262	981	183	403	2819
126	0	0	2211	980	184	403	2819
127	0	0	2158	980	183	404	2820
0	0	0	2098	980	183	403	2821
1	0	0	2026	980	184	403	2831
2	0	0	1923	979	184	403	2822
3	0	0	1914	982	184	403	2821
4	0	0	1843	981	184	404	2821
5	0	0	1778	980	184	403	2819
6	0	0	1722	980	184	403	2819
7	0	0	1731	984	184	403	2819
8	0	0	1792	984	184	403	2819
9	0	0	1860	984	184	403	2820
10	0	0	1961	983	183	403	2821
11	0	0	2069	984	184	403	2822
12	0	0	2150	983	184	403	2822
13	0	0	2204	984	183	403	2822
14	0	0	2242	984	183	403	2821
15	0	0	2267	985	183	403	2820
16	0	0	2282	984	184	403	2820
17	0	0	2253	980	183	403	2814
18	0	0	2172	979	184	404	2820
19	0	0	2182	983	184	403	2821
20	0	0	2099	979	185	403	2821
21	0	0	2012	979	183	403	2822
22	0	0	1931	979	184	403	2822
23	0	0	1870	980	184	403	2821
24	0	0	1823	980	185	403	2821
25	0	0	1779	979	184	403	2820
26	0	0	1722	980	185	404	2819
27	0	0	1733	984	184	403	2819
28	0	0	1782	984	184	403	2819
29	0	0	1843	984	185	403	2820
30	0	0	1946	984	183	403	2821
31	0	0	2044	983	184	403	2823
32	0	0	2123	984	183	403	2823
33	0	0	2180	983	183	403	2816
34	0	0	2196	983	182	403	2822
35	0	0	2268	984	183	403	2820
36	0	0	2262	980	183	403	2820
37	0	0	2220	981	182	403	2819
38	0	0	2179	980	183	403	2820
39	0	0	2145	980	184	403	2821
40	0	0	2099	980	184	404	2821
41	0	0	2035	979	183	403	2822
42	0	0	1959	979	184	404	2822
43	0	0	1900	980	183	403	2821
44	0	0	1860	980	183	403	2821
45	0	0	1809	979	184	403	2820
46	0	0	1750	980	185	403	2819
47	0	0	1758	983	184	405	2819
48	0	0	1806	983	184	403	2819
49	0	0	1869	984	183	403	2815
50	0	0	1945	982	184	403	2821
51	0	0	2096	983	184	403	2822
52	0	0	2158	983	184	403	2822
53	0	0	2203	983	183	403	2822
54	0	0	2253	984	184	404	2821
55	0	0	2280	983	183	403	2819
56	0	0	2304	983	184	403	2819
57	0	0	2287	981	184	403	2819
58	0	0	2245	980	185	403	2819
59	0	0	2198	979	183	403	2820
60	0	0	2142	979	183	403	2821
61	0	0	2083	979	184	403	2821
62	0	0	2011	979	184	403	2821
63	0	0	1947	979	183	403	2821
64	0	0	1897	979	184	403	2821
65	0	0	1854	978	184	403	2827
66	0	0	1769	979	185	403	2820
67	0	0	1839	983	184	403	2819
68	0	0	1871	983	183	403	2820
69	0	0	1909	983	184	403	2820
70	0	0	2010	983	183	403	2822
71	0	0	2111	983	184	403	2822
72	0	0	2186	983	184	403	2822
73	0	0	2245	983	183	404	2821
74	0	0	2291	983	184	403	2820
75	0	0	2319	983	184	403	2819
76	0	0	2340	983	184	403	2819
77	0	0	2316	979	184	403	2818
78	0	0	2270	980	184	403	2819
79	0	0	2224	980	184	403	2819
80	0	0	2164	979	184	403	2820
81	0	0	2095	979	184	403	2830
82	0	0	1984	979	185	403	2821
83	0	0	1969	981	184	403	2821
84	0	0	1900	979	184	403	2821
85	0	0	1837	979	184	403	2820
86	0	0	1781	979	185	403	2819
87	0	0	1796	983	184	403	2819
88	0	0	1851	983	184	403	2819
89	0	0	1915	983	185	403	2819
90	0	0	2016	982	184	403	2820
91	0	0	2118	983	183	403	2821
92	0	0	2203	983	184	404	2821
93	0	0	2263	982	183	403	2821
94	0	0	2301	983	183	403	2820
95	0	0	2317	983	185	403	2819
96	0	0	2330	983	183	403	2818
97	0	0	2301	979	184	403	2826
98	0	0	2218	979	184	404	2819
99	0	0	2227	981	183	403	2820
100	0	0	2143	978	183	403	2820
101	0	0	2065	979	183	403	2821
102	0	0	1992	978	184	403	2822
103	0	0	1934	979	183	403	2821
104	0	0	1886	979	185	403	2820
105	0	0	1842	978	184	404	2818
106	0	0	1784	979	184	403	2818
107	0	0	1791	983	185	403	2817
108	0	0	1837	983	185	403	2818
109	0	0	1897	983	184	403	2819
110	0	0	1995	983	184	404	2820
111	0	0	2097	982	184	403	2821
112	0	0	2176	983	184	403	2820
113	0	0	2236	982	183	403	2821
114	0	0	2250	983	185	403	2820
115	0	0	2328	982	183	403	2819
116	0	0	2326	979	184	403	2818
117	0	0	2282	979	184	403	2818
118	0	0	2235	979	184	403	2818
119	0	0	2191	979	183	403	2819
120	0	0	2141	979	184	403	2820
121	0	0	2085	978	184	403	2820
122	0	0	2006	978	183	403	2820
123	0	0	1931	979	183	403	2820
124	0	0	1888	979	184	403	2819
125	0	0	1844	977	183	403	2818
126	0	0	1778	979	184	403	2818
127	0	0	1784	982	184	403	2817
0	0	0	1835	983	185	403	2818
1	0	0	1901	983	184	403	2827
2	0	0	1975	982	185	403	2819
3	0	0	2140	982	184	403	2820
4	0	0	2203	983	185	403	2820
5	0	0	2242	983	184	403	2820
6	0	0	2290	983	183	403	2820
7	0	0	2322	982	184	403	2818
8	0	0	2344	982	184	403	2817
9	0	0	2328	980	183	403	2817
10	0	0	2283	979	183	403	2817
11	0	0	2242	979	183	403	2818
12	0	0	2185	978	184	403	2819
13	0	0	2121	978	183	403	2819
14	0	0	2048	978	184	403	2819
15	0	0	1982	979	184	403	2819
16	0	0	1932	979	183	403	2819
17	0	0	1882	977	184	403	2812
18	0	0	1788	978	184	403	2818
19	0	0	1838	982	184	403	2817
20	0	0	1862	982	184	403	2818
21	0	0	1899	983	184	404	2819
22	0	0	1998	982	183	403	2820
23	0	0	2104	983	184	403	2821
24	0	0	2191	982	183	403	2820
25	0	0	2250	983	183	403	2820
26	0	0	2293	983	184	403	2820
27	0	0	2322	982	184	403	2818
28	0	0	2345	982	183	403	2817
29	0	0	2325	980	183	403	2817
30	0	0	2275	979	184	403	2817
31	0	0	2226	979	184	403	2818
32	0	0	2166	978	183	403	2819
33	0	0	2099	978	183	403	2815
34	0	0	1997	978	184	403	2820
35	0	0	1984	979	184	403	2820
36	0	0	1907	978	183	403	2819
37	0	0	1849	978	184	403	2818
38	0	0	1786	978	183	403	2818
39	0	0	1790	982	185	403	2818
40	0	0	1840	982	184	403	2818
41	0	0	1903	982	184	403	2819
42	0	0	2000	982	184	404	2820
43	0	0	2097	982	184	403	2820
44	0	0	2168	982	183	403	2820
45	0	0	2225	982	185	403	2819
46	0	0	2258	982	184	403	2819
47	0	0	2278	982	184	403	2818
48	0	0	2300	981	184	403	2817
49	0	0	2276	979	183	403	2812
50	0	0	2194	978	183	403	2817
51	0	0	2207	980	183	403	2819
52	0	0	2123	978	183	403	2820
53	0	0	2038	978	184	403	2820
54	0	0	1979	978	183	404	2821
55	0	0	1921	978	185	403	2821
56	0	0	1865	979	184	403	2820
57	0	0	1825	978	184	403	2819
58	0	0	1758	978	183	403	2818
59	0	0	1760	981	184	403	2817
60	0	0	1806	981	184	403	2818
61	0	0	1871	982	185	403	2819
62	0	0	1968	981	183	403	2820
63	0	0	2065	982	184	403	2820
64	0	0	2145	982	183	403	2820
65	0	0	2211	982	184	403	2816
66	0	0	2229	983	184	403	2820
67	0	0	2312	982	184	403	2819
68	0	0	2302	979	184	403	2818
69	0	0	2260	979	183	403	2819
70	0	0	2213	979	183	404	2819
71	0	0	2166	978	183	403	2819
72	0	0	2113	979	183	403	2821
73	0	0	2055	978	184	403	2821
74	0	0	1984	977	184	404	2821
75	0	0	1918	978	184	403	2821
76	0	0	1870	979	184	403	2821
77	0	0	1830	976	184	403	2820
78	0	0	1767	978	185	403	2819
79	0	0	1771	981	185	403	2819
80	0	0	1815	982	184	403	2819
81	0	0	1873	982	184	403	2814
82	0	0	1938	982	184	403	2822
83	0	0	2097	982	184	403	2822
84	0	0	2156	981	183	403	2822
85	0	0	2204	982	184	403	2823
86	0	0	2248	983	184	403	2823
87	0	0	2281	980	183	403	2821
88	0	0	2307	982	183	403	2821
89	0	0	2288	979	184	403	2820
90	0	0	2245	979	183	403	2821
91	0	0	2201	978	185	403	2822
92	0	0	2143	978	184	403	2823
93	0	0	2079	977	184	403	2823
94	0	0	2004	978	184	403	2823
95	0	0	1935	978	185	403	2823
96	0	0	1883	978	184	403	2823
97	0	0	1836	976	184	403	2829
98	0	0	1734	978	183	403	2821
99	0	0	1795	982	185	403	2822
100	0	0	1821	982	185	403	2822
101	0	0	1861	982	184	403	2823
102	0	0	1951	982	184	404	2825
103	0	0	2057	982	184	403	2825
104	0	0	2148	981	185	403	2825
105	0	0	2215	982	184	403	2826
106	0	0	2265	982	182	403	2825
107	0	0	2292	981	184	403	2824
108	0	0	2313	982	183	403	2823
109	0	0	2297	979	183	403	2823
110	0	0	2247	979	183	403	2824
111	0	0	2202	978	184	403	2825
112	0	0	2141	977	183	403	2826
113	0	0	2081	977	184	404	2835
114	0	0	1972	977	184	403	2827
115	0	0	1971	978	184	403	2827
116	0	0	1889	978	184	403	2827
117	0	0	1827	977	183	403	2826
118	0	0	1757	978	185	403	2825
119	0	0	1762	982	185	403	2825
120	0	0	1801	981	184	403	2826
121	0	0	1862	982	185	403	2827
122	0	0	1959	980	183	403	2828
123	0	0	2055	981	183	403	2829
124	0	0	2132	981	183	403	2830
125	0	0	2196	982	184	404	2829
126	0	0	2246	982	184	403	2828
127	0	0	2272	982	183	403	2828
0	0	0	2292	982	184	403	2827
1	0	0	2270	978	183	403	2835
2	0	0	2190	978	184	403	2827
3	0	0	2213	980	185	404	2828
4	0	0	2128	976	183	403	2830
5	0	0	2048	977	184	403	2830
6	0	0	1968	977	184	403	2831
7	0	0	1891	977	184	403	2831
8	0	0	1831	978	185	404	2831
9	0	0	1795	978	185	403	2830
10	0	0	1738	978	185	403	2829
11	0	0	1742	981	184	403	2830
12	0	0	1789	982	184	404	2830
13	0	0	1851	981	186	403	2830
14	0	0	1945	981	183	403	2832
15	0	0	2051	982	184	403	2832
16	0	0	2132	981	184	404	2833
17	0	0	2196	981	184	403	2840
18	0	0	2207	982	183	403	2833
19	0	0	2273	981	183	403	2831
20	0	0	2267	978	183	403	2830
21	0	0	2233	978	184	403	2830
22	0	0	2188	978	184	403	2832
23	0	0	2152	979	184	403	2833
24	0	0	2106	978	184	403	2833
25	0	0	2052	978	184	403	2835
26	0	0	1977	977	183	403	2834
27	0	0	1911	978	185	403	2835
28	0	0	1864	978	185	403	2834
29	0	0	1823	977	183	403	2833
30	0	0	1755	978	184	403	2832
31	0	0	1746	981	184	403	2832
32	0	0	1789	981	185	403	2832
33	0	0	1849	982	185	403	2829
34	0	0	1913	982	184	403	2835
35	0	0	2072	981	183	403	2835
36	0	0	2136	981	183	403	2836
37	0	0	2190	982	184	403	2836
38	0	0	2245	981	184	403	2835
39	0	0	2277	981	183	403	2835
40	0	0	2299	981	184	403	2834
41	0	0	2287	980	183	403	2834
42	0	0	2245	978	184	403	2835
43	0	0	2208	978	183	403	2835
44	0	0	2154	977	184	403	2836
45	0	0	2095	977	183	403	2837
46	0	0	2021	977	184	403	2838
47	0	0	1948	977	184	403	2838
48	0	0	1891	978	185	403	2837
49	0	0	1843	977	184	403	2843
50	0	0	1744	977	185	403	2834
51	0	0	1796	981	184	403	2835
52	0	0	1814	981	186	403	2835
53	0	0	1849	981	186	403	2836
54	0	0	1939	981	183	403	2838
55	0	0	2040	981	184	403	2838
56	0	0	2126	981	185	403	2839
57	0	0	2199	982	185	404	2839
58	0	0	2255	982	184	403	2838
59	0	0	2283	981	184	403	2838
60	0	0	2304	981	184	403	2837
61	0	0	2287	979	183	403	2836
62	0	0	2241	978	183	403	2838
63	0	0	2200	978	183	403	2838
64	0	0	2144	977	184	403	2839
65	0	0	2085	977	184	403	2833
66	0	0	1974	976	184	403	2840
67	0	0	1961	977	184	403	2840
68	0	0	1881	977	185	403	2839
69	0	0	1830	977	184	403	2838
70	0	0	1772	977	185	403	2837
71	0	0	1769	981	184	403	2837
72	0	0	1809	981	184	403	2838
73	0	0	1871	981	184	403	2839
74	0	0	1978	981	184	403	2840
75	0	0	2088	981	184	403	2841
76	0	0	2169	982	183	403	2841
77	0	0	2229	981	184	403	2842
78	0	0	2275	982	183	403	2842
79	0	0	2295	981	184	403	2840
80	0	0	2317	981	184	403	2839
81	0	0	2295	978	184	404	2846
82	0	0	2208	977	184	404	2839
83	0	0	2211	978	184	403	2840
84	0	0	2128	977	183	403	2841
85	0	0	2066	977	184	403	2841
86	0	0	2014	977	184	403	2842
87	0	0	1962	978	183	405	2842
88	0	0	1921	978	185	403	2842
89	0	0	1879	976	184	403	2841
90	0	0	1800	977	184	403	2840
91	0	0	1786	981	185	403	2840
92	0	0	1831	981	185	403	2840
93	0	0	1900	981	184	404	2842
94	0	0	1993	981	183	403	2843
95	0	0	2092	982	184	403	2843
96	0	0	2175	981	184	403	2843
97	0	0	2240	981	183	404	2837
98	0	0	2251	982	183	404	2843
99	0	0	2320	981	183	403	2842
100	0	0	2324	981	184	403	2840
101	0	0	2309	980	184	403	2840
102	0	0	2276	978	183	403	2841
103	0	0	2236	978	183	403	2842
104	0	0	2179	977	184	404	2843
105	0	0	2119	977	184	403	2843
106	0	0	2044	977	183	404	2844
107	0	0	1969	977	185	404	2844
108	0	0	1914	977	183	403	2844
109	0	0	1875	977	184	403	2843
110	0	0	1809	977	184	403	2841
111	0	0	1797	981	184	403	2841
112	0	0	1836	981	183	405	2842
113	0	0	1887	981	185	403	2837
114	0	0	1943	981	184	403	2844
115	0	0	2111	981	185	403	2844
116	0	0	2175	981	184	403	2844
117	0	0	2213	981	184	403	2845
118	0	0	2259	981	184	403	2844
119	0	0	2292	981	184	403	2843
120	0	0	2327	982	184	403	2841
121	0	0	2329	981	183	403	2841
122	0	0	2287	978	184	403	2842
123	0	0	2237	978	184	403	2843
124	0	0	2179	977	184	403	2845
125	0	0	2120	977	184	403	2844
126	0	0	2049	977	185	403	2845
127	0	0	1975	977	184	403	2845
0	0	0	1913	977	184	403	2845
1	0	0	1870	977	184	403	2838
2	0	0	1764	976	184	403	2842
3	0	0	1802	981	184	403	2842
4	0	0	1815	981	184	403	2843
5	0	0	1855	981	184	403	2844
6	0	0	1943	981	183	403	2844
7	0	0	2043	981	183	403	2844
8	0	0	2134	981	184	403	2845
9	0	0	2209	981	183	405	2845
10	0	0	2270	981	184	403	2844
11	0	0	2309	981	184	403	2844
12	0	0	2335	981	183	403	2842
13	0	0	2319	978	183	403	2842
14	0	0	2272	977	183	404	2843
15	0	0	2227	977	183	403	2844
16	0	0	2173	977	184	404	2845
17	0	0	2108	977	184	403	2853
18	0	0	1998	977	184	403	2845
19	0	0	1990	977	184	403	2845
20	0	0	1916	976	183	403	2845
21	0	0	1862	977	184	404	2844
22	0	0	1791	977	185	403	2842
23	0	0	1778	981	184	403	2842
24	0	0	1819	981	185	403	2842
25	0	0	1885	981	184	404	2844
26	0	0	1974	981	184	403	2844
27	0	0	2079	981	183	403	2845
28	0	0	2166	980	183	403	2845
29	0	0	2228	981	184	403	2845
30	0	0	2279	981	184	403	2845
31	0	0	2304	981	184	403	2844
32	0	0	2321	981	184	403	2842
33	0	0	2302	977	183	403	2836
34	0	0	2225	977	183	403	2842
35	0	0	2238	979	184	403	2843
36	0	0	2161	976	184	404	2844
37	0	0	2096	977	183	403	2844
38	0	0	2030	976	183	404	2845
39	0	0	1972	977	184	402	2844
40	0	0	1920	977	185	403	2844
41	0	0	1887	977	184	403	2843
42	0	0	1828	976	184	403	2841
43	0	0	1817	981	184	404	2841
44	0	0	1853	981	184	403	2841
45	0	0	1903	981	184	403	2843
46	0	0	1982	980	184	403	2844
47	0	0	2081	980	184	403	2844
48	0	0	2160	981	183	403	2844
49	0	0	2214	981	184	403	2839
50	0	0	2226	981	184	403	2844
51	0	0	2313	981	184	403	2843
52	0	0	2317	981	183	403	2841
53	0	0	2298	980	185	403	2841
54	0	0	2256	978	183	404	2841
55	0	0	2196	977	184	403	2842
56	0	0	2136	977	183	404	2843
57	0	0	2081	976	184	403	2843
58	0	0	2019	977	185	403	2843
59	0	0	1953	976	184	403	2843
60	0	0	1894	977	184	403	2843
61	0	0	1850	976	185	404	2841
62	0	0	1782	976	185	404	2840
63	0	0	1769	980	184	404	2840
64	0	0	1804	981	184	403	2841
65	0	0	1860	981	185	403	2837
66	0	0	1921	980	185	403	2842
67	0	0	2074	980	184	403	2842
68	0	0	2143	980	184	403	2842
69	0	0	2197	980	183	403	2842
70	0	0	2246	981	184	402	2841
71	0	0	2273	981	183	403	2840
72	0	0	2300	981	183	403	2839
73	0	0	2295	980	183	403	2839
74	0	0	2255	977	183	403	2839
75	0	0	2203	978	184	403	2839
76	0	0	2151	977	184	403	2840
77	0	0	2096	977	183	403	2841
78	0	0	2018	976	184	403	2841
79	0	0	1947	977	184	403	2841
80	0	0	1886	977	184	403	2840
81	0	0	1840	975	183	403	2834
82	0	0	1737	976	184	403	2837
83	0	0	1774	980	185	403	2837
84	0	0	1788	980	185	403	2837
85	0	0	1824	981	184	402	2838
86	0	0	1921	981	183	403	2839
87	0	0	2030	981	183	403	2839
88	0	0	2116	981	183	403	2840
89	0	0	2191	981	183	404	2838
90	0	0	2242	980	183	403	2838
91	0	0	2270	981	183	403	2836
92	0	0	2293	980	183	403	2835
93	0	0	2288	980	184	403	2834
94	0	0	2245	977	183	403	2835
95	0	0	2193	977	184	403	2835
96	0	0	2134	976	182	403	2836
97	0	0	2074	976	184	403	2844
98	0	0	1978	976	184	403	2836
99	0	0	1984	976	184	403	2836
100	0	0	1896	976	184	402	2836
101	0	0	1841	977	184	403	2834
102	0	0	1770	976	185	403	2832
103	0	0	1745	980	184	404	2832
104	0	0	1781	980	184	402	2832
105	0	0	1839	980	184	402	2831
106	0	0	1926	980	184	403	2832
107	0	0	2027	981	183	403	2832
108	0	0	2118	980	183	403	2832
109	0	0	2177	980	183	403	2832
110	0	0	2225	981	183	403	2831
111	0	0	2254	980	184	403	2830
112	0	0	2279	981	184	403	2829
113	0	0	2275	978	183	403	2823
114	0	0	2209	977	184	403	2828
115	0	0	2238	979	184	403	2829
116	0	0	2156	976	182	403	2829
117	0	0	2080	977	184	403	2829
118	0	0	2012	976	184	403	2828
119	0	0	1950	976	183	404	2828
120	0	0	1897	977	184	404	2827
121	0	0	1861	976	184	403	2825
122	0	0	1796	976	184	403	2823
123	0	0	1779	981	185	403	2822
124	0	0	1813	980	185	403	2822
125	0	0	1866	981	183	403	2823
126	0	0	1949	980	183	403	2823
127	0	0	2046	980	184	403	2823
0	0	0	2125	980	184	403	2823
1	0	0	2189	981	184	403	2827
2	0	0	2206	981	184	403	2821
3	0	0	2286	980	183	403	2820
4	0	0	2295	981	184	403	2819
5	0	0	2278	979	183	403	2817
6	0	0	2244	977	184	404	2817
7	0	0	2201	977	183	403	2817
8	0	0	2151	976	185	404	2817
9	0	0	2091	976	184	403	2816
10	0	0	2018	975	184	403	2816
11	0	0	1955	977	184	403	2815
12	0	0	1905	977	184	403	2814
13	0	0	1868	976	184	403	2812
14	0	0	1801	976	184	403	2810
15	0	0	1776	979	183	403	2809
16	0	0	1801	980	184	403	2809
17	0	0	1857	981	184	403	2804
18	0	0	1915	980	185	403	2809
19	0	0	2083	980	184	403	2808
20	0	0	2148	980	184	403	2808
21	0	0	2200	980	184	403	2808
22	0	0	2254	980	184	403	2806
23	0	0	2288	981	184	403	2804
24	0	0	2317	980	183	403	2801
25	0	0	2312	979	184	403	2799
26	0	0	2275	977	184	403	2798
27	0	0	2230	977	184	403	2798
28	0	0	2176	976	185	403	2798
29	0	0	2113	976	184	403	2797
30	0	0	2041	976	184	403	2796
31	0	0	1971	975	184	404	2795
32	0	0	1907	976	185	403	2793
33	0	0	1878	976	184	403	2799
34	0	0	1784	976	184	403	2789
35	0	0	1820	980	184	403	2788
36	0	0	1824	980	184	403	2786
37	0	0	1877	981	184	404	2786
38	0	0	1976	980	183	403	2786
39	0	0	2090	980	184	403	2784
40	0	0	2186	980	183	404	2784
41	0	0	2264	981	184	404	2782
42	0	0	2324	981	183	404	2780
43	0	0	2362	981	184	403	2778
44	0	0	2391	980	184	403	2774
45	0	0	2401	980	182	403	2774
46	0	0	2376	978	183	405	2772
47	0	0	2340	978	183	404	2771
48	0	0	2282	977	184	403	2771
49	0	0	2264	979	183	403	2777
50	0	0	2211	978	183	403	2770
51	0	0	2278	980	184	403	2768
52	0	0	2280	980	183	403	2767
53	0	0	2295	980	185	403	2765
54	0	0	2245	976	184	404	2762
55	0	0	2196	977	184	404	2761
56	0	0	2188	980	184	403	2760
57	0	0	2190	980	185	403	2759
58	0	0	2217	980	183	403	2759
59	0	0	2265	981	184	403	2758
60	0	0	2311	980	184	403	2757
61	0	0	2344	981	184	403	2757
62	0	0	2365	980	183	404	2756
63	0	0	2369	980	183	403	2754
64	0	0	2380	980	183	403	2752
65	0	0	2572	981	185	403	2758
66	0	0	2477	976	183	404	2750
67	0	0	2420	976	184	404	2750
68	0	0	2267	976	183	403	2751
69	0	0	2145	976	184	403	2750
70	0	0	2045	975	185	403	2750
71	0	0	1955	976	184	403	2750
72	0	0	1886	976	185	403	2749
73	0	0	1841	977	184	403	2748
74	0	0	1768	975	184	403	2745
75	0	0	1740	979	184	403	2745
76	0	0	1768	980	184	403	2744
77	0	0	1814	980	183	403	2744
78	0	0	1892	980	184	403	2745
79	0	0	1980	980	184	403	2745
80	0	0	2076	980	182	403	2745
81	0	0	2371	980	184	403	2752
82	0	0	2384	977	184	403	2744
83	0	0	2417	975	184	403	2743
84	0	0	2328	976	184	403	2741
85	0	0	2257	976	184	403	2741
86	0	0	2186	976	183	403	2741
87	0	0	2124	976	184	403	2742
88	0	0	2044	976	184	403	2742
89	0	0	1965	976	184	404	2743
90	0	0	1883	975	184	403	2742
91	0	0	1796	976	185	403	2742
92	0	0	1712	976	185	403	2741
93	0	0	1651	975	184	403	2740
94	0	0	1565	975	184	403	2738
95	0	0	1504	975	185	404	2738
96	0	0	1452	975	185	404	2738
97	0	0	1461	980	184	403	2734
98	0	0	1477	980	184	403	2740
99	0	0	1639	979	184	403	2740
100	0	0	1700	979	184	404	2742
101	0	0	1763	980	184	403	2742
102	0	0	1841	980	184	403	2742
103	0	0	1920	980	183	403	2741
104	0	0	1985	979	183	403	2740
105	0	0	2022	980	183	403	2740
106	0	0	2012	979	184	403	2741
107	0	0	1983	976	183	403	2742
108	0	0	1943	976	183	403	2743
109	0	0	1895	976	184	403	2743
110	0	0	1834	975	183	403	2744
111	0	0	1761	975	184	403	2744
112	0	0	1694	975	184	403	2745
113	0	0	1667	976	185	404	2740
114	0	0	1591	975	184	403	2744
115	0	0	1643	979	184	404	2745
116	0	0	1639	980	184	402	2745
117	0	0	1680	980	184	404	2747
118	0	0	1762	979	184	403	2748
119	0	0	1866	980	184	403	2749
120	0	0	1952	979	184	403	2751
121	0	0	2013	979	183	403	2752
122	0	0	2064	980	184	403	2752
123	0	0	2098	979	183	403	2752
124	0	0	2125	980	183	403	2752
125	0	0	2124	979	185	403	2752
126	0	0	2077	976	184	403	2753
127	0	0	2022	976	183	404	2755
0	0	0	1954	975	184	403	2756
1	0	0	1894	976	185	403	2766
2	0	0	1798	975	184	403	2759
3	0	0	1786	975	183	403	2761
4	0	0	1702	975	184	404	2761
5	0	0	1647	975	185	403	2762
6	0	0	1585	975	184	404	2761
7	0	0	1554	977	185	403	2762
8	0	0	1582	979	184	403	2764
9	0	0	1633	980	185	403	2766
10	0	0	1715	980	184	403	2768
11	0	0	1830	980	184	403	2769
12	0	0	1935	979	183	403	2771
13	0	0	2016	980	184	403	2771
14	0	0	2072	979	184	404	2772
15	0	0	2113	980	182	403	2772
16	0	0	2142	980	184	403	2771
17	0	0	2147	979	184	403	2777
18	0	0	2092	976	183	403	2773
19	0	0	2135	978	183	403	2774
20	0	0	2064	975	183	404	2776
21	0	0	1998	976	184	403	2778
22	0	0	1944	977	185	403	2779
23	0	0	1900	976	183	403	2780
24	0	0	1864	976	184	404	2781
25	0	0	1843	976	182	403	2781
26	0	0	1793	975	184	403	2780
27	0	0	1778	979	185	403	2781
28	0	0	1819	979	184	403	2782
29	0	0	1881	979	184	403	2784
30	0	0	1968	980	183	403	2785
31	0	0	2077	979	184	403	2786
32	0	0	2171	979	184	403	2788
33	0	0	2248	980	184	403	2796
34	0	0	2280	980	183	403	2789
35	0	0	2385	980	184	403	2789
36	0	0	2398	980	184	403	2789
37	0	0	2386	979	183	403	2789
38	0	0	2354	976	183	403	2791
39	0	0	2325	977	183	403	2792
40	0	0	2287	976	183	403	2794
41	0	0	2232	976	183	403	2795
42	0	0	2168	976	184	403	2796
43	0	0	2107	975	184	404	2797
44	0	0	2055	976	184	405	2798
45	0	0	2014	976	184	403	2798
46	0	0	1951	975	182	403	2797
47	0	0	1912	977	185	403	2798
48	0	0	1930	980	185	403	2799
49	0	0	1977	980	184	404	2805
50	0	0	2019	980	184	403	2802
51	0	0	2183	979	183	403	2803
52	0	0	2242	979	184	404	2804
53	0	0	2281	979	183	403	2805
54	0	0	2331	980	183	403	2806
55	0	0	2357	978	182	403	2806
56	0	0	2379	980	183	404	2805
57	0	0	2353	976	184	403	2806
58	0	0	2306	976	184	403	2807
59	0	0	2256	976	184	403	2808
60	0	0	2195	975	184	403	2810
61	0	0	2125	975	183	403	2811
62	0	0	2035	975	184	403	2813
63	0	0	1940	975	184	403	2813
64	0	0	1860	975	184	404	2814
65	0	0	1804	975	184	404	2808
66	0	0	1710	975	185	403	2812
67	0	0	1730	977	184	404	2812
68	0	0	1709	977	185	403	2814
69	0	0	1734	980	184	403	2815
70	0	0	1798	979	184	403	2817
71	0	0	1892	979	184	403	2819
72	0	0	1966	979	183	403	2819
73	0	0	2018	979	184	403	2820
74	0	0	2070	979	183	403	2821
75	0	0	2100	979	183	403	2820
76	0	0	2117	980	183	403	2820
77	0	0	2113	978	184	403	2819
78	0	0	2075	975	184	403	2820
79	0	0	2019	975	183	403	2822
80	0	0	1957	975	183	404	2823
81	0	0	1888	975	183	404	2819
82	0	0	1772	974	185	403	2825
83	0	0	1750	975	183	404	2825
84	0	0	1666	975	184	403	2826
85	0	0	1609	975	183	403	2826
86	0	0	1559	975	184	403	2824
87	0	0	1536	978	184	403	2826
88	0	0	1567	979	184	403	2825
89	0	0	1629	980	184	405	2827
90	0	0	1714	980	184	403	2829
91	0	0	1823	980	184	403	2830
92	0	0	1924	979	184	403	2831
93	0	0	2005	980	183	403	2832
94	0	0	2069	980	183	403	2832
95	0	0	2115	979	183	403	2832
96	0	0	2151	979	184	403	2830
97	0	0	2166	980	184	403	2824
98	0	0	2116	976	184	403	2831
99	0	0	2158	978	183	403	2832
100	0	0	2095	975	183	403	2834
101	0	0	2036	976	183	403	2834
102	0	0	1991	976	184	403	2835
103	0	0	1944	976	184	403	2836
104	0	0	1907	976	184	403	2836
105	0	0	1888	976	184	404	2836
106	0	0	1845	975	184	403	2835
107	0	0	1835	979	184	403	2835
108	0	0	1871	979	184	403	2836
109	0	0	1934	980	185	403	2838
110	0	0	2019	979	185	403	2838
111	0	0	2132	979	183	403	2840
112	0	0	2226	979	184	403	2840
113	0	0	2300	979	184	403	2848
114	0	0	2328	979	183	404	2841
115	0	0	2420	979	183	403	2840
116	0	0	2436	980	184	403	2839
117	0	0	2441	980	184	403	2838
118	0	0	2423	978	184	403	2839
119	0	0	2392	977	183	403	2840
120	0	0	2350	975	182	403	2842
121	0	0	2294	975	184	403	2842
122	0	0	2230	975	183	403	2843
123	0	0	2154	975	184	403	2844
124	0	0	2096	976	184	404	2844
125	0	0	2057	976	183	403	2844
126	0	0	1995	975	184	403	2842
127	0	0	1954	978	184	403	2843
0	0	0	1975	980	184	403	2843
1	0	0	2017	979	184	404	2851
2	0	0	2057	979	184	403	2845
3	0	0	2203	979	184	403	2845
4	0	0	2266	980	184	404	2847
5	0	0	2317	980	184	403	2846
6	0	0	2358	980	183	404	2847
7	0	0	2383	979	183	403	2846
8	0	0	2394	980	183	403	2844
9	0	0	2390	978	183	403	2844
10	0	0	2344	975	184	403	2845
11	0	0	2278	976	183	404	2846
12	0	0	2205	975	182	404	2847
13	0	0	2137	975	184	403	2848
14	0	0	2055	975	184	403	2849
15	0	0	1973	975	184	403	2850
16	0	0	1899	975	184	404	2849
17	0	0	1838	976	184	403	2856
18	0	0	1735	974	184	403	2846
19	0	0	1752	978	184	403	2847
20	0	0	1734	977	185	403	2847
21	0	0	1757	980	185	404	2848
22	0	0	1821	979	182	403	2849
23	0	0	1917	979	184	403	2851
24	0	0	2006	979	184	403	2850
25	0	0	2074	979	184	403	2851
26	0	0	2114	979	184	403	2851
27	0	0	2143	980	183	403	2851
28	0	0	2158	979	184	403	2848
29	0	0	2154	977	183	404	2848
30	0	0	2110	975	185	403	2849
31	0	0	2050	976	183	404	2851
32	0	0	1990	975	184	403	2851
33	0	0	1923	975	184	403	2860
34	0	0	1818	975	184	404	2854
35	0	0	1816	975	185	404	2853
36	0	0	1728	974	184	404	2853
37	0	0	1660	975	184	403	2852
38	0	0	1606	975	184	403	2851
39	0	0	1586	979	184	403	2850
40	0	0	1625	978	185	403	2851
41	0	0	1686	979	184	403	2852
42	0	0	1763	979	184	403	2853
43	0	0	1868	979	184	403	2854
44	0	0	1969	979	183	403	2854
45	0	0	2045	979	184	403	2855
46	0	0	2107	979	184	403	2855
47	0	0	2159	979	182	403	2854
48	0	0	2194	979	183	403	2852
49	0	0	2207	979	184	403	2861
50	0	0	2156	977	184	404	2853
51	0	0	2190	977	184	404	2854
52	0	0	2126	975	184	404	2855
53	0	0	2063	975	184	404	2857
54	0	0	2010	977	183	403	2856
55	0	0	1972	975	184	403	2857
56	0	0	1938	976	184	404	2856
57	0	0	1911	976	184	403	2856
58	0	0	1868	975	184	403	2854
59	0	0	1846	980	184	403	2855
60	0	0	1881	979	184	403	2856
61	0	0	1946	980	184	404	2856
62	0	0	2032	979	184	403	2857
63	0	0	2141	979	185	403	2858
64	0	0	2235	979	185	403	2859
65	0	0	2305	979	184	403	2853
66	0	0	2333	979	184	403	2859
67	0	0	2439	979	183	403	2858
68	0	0	2451	979	183	403	2856
69	0	0	2451	980	183	403	2856
70	0	0	2428	977	184	403	2857
71	0	0	2387	976	183	404	2857
72	0	0	2345	976	183	403	2859
73	0	0	2286	975	183	403	2859
74	0	0	2209	975	184	403	2860
75	0	0	2140	975	184	403	2860
76	0	0	2078	975	184	404	2860
77	0	0	2036	975	184	403	2859
78	0	0	1971	975	185	403	2858
79	0	0	1919	975	183	403	2857
80	0	0	1927	979	185	403	2858
81	0	0	1959	979	184	403	2866
82	0	0	1984	978	183	404	2860
83	0	0	2141	980	184	403	2861
84	0	0	2208	979	184	403	2861
85	0	0	2256	980	184	403	2862
86	0	0	2306	979	183	404	2862
87	0	0	2343	979	184	403	2860
88	0	0	2357	980	183	403	2858
89	0	0	2353	978	183	403	2859
90	0	0	2302	975	183	403	2858
91	0	0	2244	976	183	404	2859
92	0	0	2181	975	183	403	2861
93	0	0	2108	975	183	403	2861
94	0	0	2024	975	184	403	2862
95	0	0	1939	974	185	403	2862
96	0	0	1862	975	183	403	2862
97	0	0	1801	975	184	403	2870
98	0	0	1696	974	185	403	2860
99	0	0	1690	975	184	404	2860
100	0	0	1673	978	184	403	2860
101	0	0	1707	979	184	403	2862
102	0	0	1786	978	184	403	2862
103	0	0	1886	979	183	403	2862
104	0	0	1971	979	184	403	2863
105	0	0	2043	980	184	403	2863
106	0	0	2095	979	184	403	2863
107	0	0	2133	979	184	403	2863
108	0	0	2155	979	183	403	2860
109	0	0	2160	978	183	403	2861
110	0	0	2121	976	184	403	2860
111	0	0	2070	975	183	403	2861
112	0	0	2010	975	184	404	2863
113	0	0	1946	975	183	404	2858
114	0	0	1842	975	184	403	2865
115	0	0	1828	975	184	404	2864
116	0	0	1741	975	185	404	2865
117	0	0	1681	975	184	403	2864
118	0	0	1633	974	184	403	2862
119	0	0	1602	977	184	403	2861
120	0	0	1639	979	184	403	2862
121	0	0	1697	979	184	403	2862
122	0	0	1776	979	184	403	2864
123	0	0	1893	978	184	403	2864
124	0	0	2011	979	183	403	2864
125	0	0	2097	978	183	403	2865
126	0	0	2160	979	183	404	2865
127	0	0	2209	979	184	403	2864
0	0	0	2247	979	184	403	2862
1	0	0	2268	979	184	403	2870
2	0	0	2220	976	183	403	2863
3	0	0	2274	978	183	404	2864
4	0	0	2207	975	183	404	2865
5	0	0	2148	976	184	403	2866
6	0	0	2099	975	184	403	2867
7	0	0	2044	976	184	403	2867
8	0	0	2003	975	185	404	2866
9	0	0	1972	976	184	403	2865
10	0	0	1927	974	184	403	2863
11	0	0	1901	979	184	403	2863
12	0	0	1931	979	185	403	2863
13	0	0	1994	979	184	404	2864
14	0	0	2077	978	185	403	2865
15	0	0	2183	979	184	403	2867
16	0	0	2283	979	184	403	2867
17	0	0	2353	979	183	403	2875
18	0	0	2379	979	185	403	2866
19	0	0	2493	979	183	403	2867
20	0	0	2496	979	184	403	2865
21	0	0	2485	979	183	404	2864
22	0	0	2463	977	183	403	2865
23	0	0	2425	976	184	403	2866
24	0	0	2371	975	184	403	2866
25	0	0	2308	975	184	403	2867
26	0	0	2233	975	183	403	2867
27	0	0	2159	974	184	403	2867
28	0	0	2092	976	183	403	2868
29	0	0	2037	975	183	403	2866
30	0	0	1976	974	183	403	2864
31	0	0	1916	975	184	403	2864
32	0	0	1921	979	184	403	2864
33	0	0	1954	978	184	404	2872
34	0	0	1971	978	184	403	2866
35	0	0	2130	979	184	403	2867
36	0	0	2191	979	185	403	2868
37	0	0	2240	979	184	403	2869
38	0	0	2283	978	184	403	2868
39	0	0	2313	979	184	403	2868
40	0	0	2332	979	184	404	2865
41	0	0	2343	979	183	403	2865
42	0	0	2295	974	183	404	2865
43	0	0	2230	975	184	403	2865
44	0	0	2171	975	183	403	2867
45	0	0	2099	974	183	403	2867
46	0	0	2019	974	184	403	2867
47	0	0	1938	974	184	404	2868
48	0	0	1863	974	184	405	2868
49	0	0	1808	975	184	404	2875
50	0	0	1719	974	184	404	2865
51	0	0	1737	976	185	403	2866
52	0	0	1712	977	184	404	2866
53	0	0	1739	979	185	403	2867
54	0	0	1806	979	183	403	2868
55	0	0	1900	978	184	403	2868
56	0	0	1983	978	184	403	2869
57	0	0	2059	979	185	403	2869
58	0	0	2117	979	184	404	2869
59	0	0	2149	979	183	403	2868
60	0	0	2180	979	184	403	2866
61	0	0	2192	978	184	403	2866
62	0	0	2161	975	184	404	2867
63	0	0	2111	975	183	403	2868
64	0	0	2061	974	184	404	2869
65	0	0	1998	975	183	403	2864
66	0	0	1898	975	184	403	2869
67	0	0	1897	974	183	403	2870
68	0	0	1813	974	184	404	2870
69	0	0	1757	975	184	404	2870
70	0	0	1722	974	185	404	2868
71	0	0	1693	977	185	403	2867
72	0	0	1723	978	184	403	2868
73	0	0	1785	978	184	404	2869
74	0	0	1859	978	184	404	2870
75	0	0	1972	979	184	403	2871
76	0	0	2078	979	184	402	2870
77	0	0	2163	979	184	403	2871
78	0	0	2230	979	184	403	2871
79	0	0	2285	978	183	404	2870
80	0	0	2322	979	183	403	2869
81	0	0	2342	980	183	403	2862
82	0	0	2284	975	183	404	2868
83	0	0	2328	977	184	403	2870
84	0	0	2262	974	184	404	2870
85	0	0	2205	976	184	403	2871
86	0	0	2152	974	183	403	2871
87	0	0	2094	975	183	404	2872
88	0	0	2046	975	184	404	2872
89	0	0	2014	976	184	404	2871
90	0	0	1971	974	185	404	2869
91	0	0	1921	976	183	403	2869
92	0	0	1941	978	184	404	2868
93	0	0	1992	979	184	403	2869
94	0	0	2068	978	184	404	2870
95	0	0	2174	979	184	403	2872
96	0	0	2271	979	184	403	2872
97	0	0	2340	978	184	403	2880
98	0	0	2360	979	184	403	2872
99	0	0	2446	978	184	403	2871
100	0	0	2447	979	184	404	2870
101	0	0	2448	978	183	403	2869
102	0	0	2430	976	183	404	2869
103	0	0	2382	975	183	403	2870
104	0	0	2329	975	184	403	2872
105	0	0	2263	974	183	403	2872
106	0	0	2184	974	184	403	2873
107	0	0	2108	974	184	404	2873
108	0	0	2041	974	184	403	2873
109	0	0	1984	974	185	403	2872
110	0	0	1921	974	184	404	2870
111	0	0	1858	975	184	403	2869
112	0	0	1861	978	185	402	2870
113	0	0	1893	978	185	403	2865
114	0	0	1908	978	185	403	2871
115	0	0	2053	979	184	404	2872
116	0	0	2118	978	184	403	2873
117	0	0	2171	978	184	403	2873
118	0	0	2224	978	184	403	2873
119	0	0	2271	979	184	403	2873
120	0	0	2290	979	184	403	2871
121	0	0	2300	979	183	403	2871
122	0	0	2263	975	183	403	2871
123	0	0	2207	975	183	403	2871
124	0	0	2157	974	184	403	2872
125	0	0	2094	974	184	403	2872
126	0	0	2018	974	183	403	2873
127	0	0	1942	974	183	404	2873
0	0	0	1871	974	184	404	2872
1	0	0	1814	975	183	404	2866
2	0	0	1728	974	184	404	2871
3	0	0	1738	975	183	404	2869
4	0	0	1715	977	184	404	2869
5	0	0	1751	978	184	403	2870
6	0	0	1824	978	184	403	2871
7	0	0	1929	978	184	403	2871
8	0	0	2020	978	184	404	2872
9	0	0	2098	978	184	404	2872
10	0	0	2170	979	184	403	2872
11	0	0	2225	978	184	403	2872
12	0	0	2261	978	183	403	2869
13	0	0	2282	978	183	403	2868
14	0	0	2262	975	183	403	2868
15	0	0	2216	975	183	403	2869
16	0	0	2162	974	183	403	2870
17	0	0	2099	975	184	403	2878
18	0	0	1996	974	183	404	2870
19	0	0	2000	973	184	404	2870
20	0	0	1917	973	184	404	2870
21	0	0	1864	975	184	403	2870
22	0	0	1828	974	184	403	2868
23	0	0	1791	975	184	403	2867
24	0	0	1812	977	184	403	2867
25	0	0	1873	977	185	404	2868
26	0	0	1951	977	183	403	2869
27	0	0	2062	978	184	403	2869
28	0	0	2158	978	183	403	2871
29	0	0	2239	978	184	404	2871
30	0	0	2303	978	183	403	2869
31	0	0	2347	979	183	403	2868
32	0	0	2382	978	183	403	2868
33	0	0	2399	978	184	403	2874
34	0	0	2340	975	184	403	2866
35	0	0	2359	975	183	403	2867
36	0	0	2286	974	183	403	2868
37	0	0	2218	974	183	403	2868
38	0	0	2165	974	184	404	2869
39	0	0	2111	975	183	403	2869
40	0	0	2049	974	183	404	2869
41	0	0	2002	975	184	403	2868
42	0	0	1951	973	184	403	2866
43	0	0	1894	974	184	403	2865
44	0	0	1907	979	184	403	2866
45	0	0	1958	978	184	404	2866
46	0	0	2017	978	185	403	2867
47	0	0	2117	978	184	403	2867
48	0	0	2207	978	184	403	2868
49	0	0	2269	979	184	403	2862
50	0	0	2281	978	183	403	2868
51	0	0	2376	978	183	403	2867
52	0	0	2378	978	184	403	2866
53	0	0	2382	979	183	403	2864
54	0	0	2354	975	183	403	2865
55	0	0	2309	974	183	404	2866
56	0	0	2256	975	183	403	2866
57	0	0	2198	974	183	403	2867
58	0	0	2129	973	183	403	2867
59	0	0	2048	974	184	403	2868
60	0	0	1969	974	184	404	2868
61	0	0	1907	974	185	403	2867
62	0	0	1851	973	184	403	2865
63	0	0	1786	974	184	403	2865
64	0	0	1789	978	184	403	2865
65	0	0	1820	977	184	403	2859
66	0	0	1845	977	184	403	2865
67	0	0	2002	978	184	403	2866
68	0	0	2069	977	183	403	2866
69	0	0	2123	977	184	403	2867
70	0	0	2171	977	183	403	2867
71	0	0	2209	978	183	403	2866
72	0	0	2235	978	184	403	2865
73	0	0	2253	978	183	404	2864
74	0	0	2226	975	183	403	2864
75	0	0	2175	974	184	404	2865
76	0	0	2111	973	184	403	2865
77	0	0	2037	974	183	403	2867
78	0	0	1964	974	186	404	2867
79	0	0	1888	973	184	403	2867
80	0	0	1814	973	184	404	2867
81	0	0	1760	974	184	403	2860
82	0	0	1674	972	184	403	2864
83	0	0	1674	974	184	404	2863
84	0	0	1659	976	184	403	2863
85	0	0	1697	978	184	403	2864
86	0	0	1765	977	183	404	2866
87	0	0	1857	977	184	403	2866
88	0	0	1962	978	183	403	2867
89	0	0	2048	977	183	403	2868
90	0	0	2112	978	183	403	2867
91	0	0	2156	977	184	403	2867
92	0	0	2185	977	183	403	2865
93	0	0	2205	977	184	403	2865
94	0	0	2181	974	185	403	2865
95	0	0	2134	974	184	403	2866
96	0	0	2089	973	184	403	2867
97	0	0	2029	974	184	404	2876
98	0	0	1932	973	184	403	2870
99	0	0	1918	973	184	403	2872
100	0	0	1829	973	184	404	2873
101	0	0	1778	974	184	403	2874
102	0	0	1740	973	184	404	2873
103	0	0	1691	975	185	404	2876
104	0	0	1713	978	186	403	2876
105	0	0	1776	977	184	403	2879
106	0	0	1840	977	184	403	2882
107	0	0	1936	977	185	403	2884
108	0	0	2041	977	184	403	2887
109	0	0	2127	978	183	403	2889
110	0	0	2189	977	184	404	2891
111	0	0	2232	977	183	403	2892
112	0	0	2259	977	184	404	2893
113	0	0	2275	976	183	403	2892
114	0	0	2217	974	184	404	2903
115	0	0	2243	974	184	404	2912
116	0	0	2170	973	184	403	2923
117	0	0	2097	974	183	403	2934
118	0	0	2037	973	183	403	2945
119	0	0	1971	973	184	403	2956
120	0	0	1910	973	183	403	2968
121	0	0	1860	973	184	402	2979
122	0	0	1814	973	184	403	2990
123	0	0	1764	974	184	403	3002
124	0	0	1773	977	184	403	3013
125	0	0	1814	977	184	403	3025
126	0	0	1872	977	184	403	3037
127	0	0	1968	977	184	403	3047
0	0	0	2059	977	183	404	3056
1	0	0	2122	977	184	403	3058
2	0	0	2134	977	184	403	3074
3	0	0	2244	977	184	403	3085
4	0	0	2244	977	183	403	3096
5	0	0	2249	976	182	403	3110
6	0	0	2219	974	183	404	3124
7	0	0	2160	974	183	403	3138
8	0	0	2108	974	184	403	3152
9	0	0	2051	973	182	403	3167
10	0	0	1976	971	184	403	3181
11	0	0	1899	973	184	403	3194
12	0	0	1829	973	185	403	3207
13	0	0	1772	973	184	403	3220
14	0	0	1716	972	185	403	3232
15	0	0	1644	973	184	403	3243
16	0	0	1637	977	184	403	3254
17	0	0	1663	977	183	403	3270
18	0	0	1679	977	183	403	3272
19	0	0	1840	977	184	403	3283
20	0	0	1900	976	184	403	3294
21	0	0	1948	977	184	403	3306
22	0	0	1997	977	184	403	3319
23	0	0	2030	977	184	402	3330
24	0	0	1990	971	184	404	3343
25	0	0	1566	971	184	403	3354
26	0	0	1300	973	184	403	3366
27	0	0	1268	975	183	403	3378
28	0	0	1281	976	183	403	3388
29	0	0	1278	974	184	403	3399
30	0	0	1256	973	184	403	3410
31	0	0	1211	973	184	403	3419
32	0	0	1140	972	183	403	3428
33	0	0	1090	973	185	404	3443
34	0	0	1018	972	185	404	3440
35	0	0	996	972	184	403	3448
36	0	0	943	973	183	404	3456
37	0	0	970	977	184	403	3465
38	0	0	1060	976	184	402	3475
39	0	0	1203	977	184	404	3484
40	0	0	1348	977	183	404	3493
41	0	0	1461	977	183	404	3502
42	0	0	1560	977	184	403	3511
43	0	0	1647	977	184	403	3520
44	0	0	1708	977	183	404	3527
45	0	0	1768	977	184	403	3535
46	0	0	1786	977	183	404	3542
47	0	0	1766	974	184	404	3549
48	0	0	1739	973	184	403	3557
49	0	0	1701	973	184	404	3556
50	0	0	1620	972	184	404	3568
51	0	0	1633	972	184	404	3572
52	0	0	1546	973	184	404	3576
53	0	0	1499	973	184	402	3582
54	0	0	1481	972	184	404	3588
55	0	0	1444	974	184	404	3595
56	0	0	1472	977	184	404	3601
57	0	0	1531	977	184	403	3606
58	0	0	1615	977	185	403	3612
59	0	0	1744	976	184	403	3618
60	0	0	1825	975	183	403	3624
61	0	0	1765	973	184	404	3629
62	0	0	1764	977	183	403	3634
63	0	0	1807	977	183	402	3640
64	0	0	1867	976	183	404	3645
65	0	0	1957	977	183	403	3642
66	0	0	1949	973	184	404	3653
67	0	0	1962	972	183	404	3657
68	0	0	1885	973	183	404	3658
69	0	0	1826	974	184	404	3661
70	0	0	1784	973	183	403	3664
71	0	0	1734	973	184	403	3668
72	0	0	1689	973	184	404	3671
73	0	0	1662	974	184	404	3676
74	0	0	1641	972	184	403	3679
75	0	0	1585	973	184	403	3684
76	0	0	1598	977	184	404	3688
77	0	0	1644	977	184	403	3691
78	0	0	1701	977	184	402	3695
79	0	0	1801	976	184	403	3698
80	0	0	1899	977	184	404	3701
81	0	0	1975	977	184	403	3712
82	0	0	2000	977	184	403	3707
83	0	0	2118	977	182	403	3710
84	0	0	2125	977	183	403	3710
85	0	0	2105	973	183	404	3711
86	0	0	2028	973	183	403	3712
87	0	0	1939	973	184	403	3715
88	0	0	1857	973	184	403	3718
89	0	0	1793	973	184	403	3719
90	0	0	1743	972	184	404	3722
91	0	0	1690	972	184	404	3724
92	0	0	1668	976	184	403	3725
93	0	0	1680	976	184	403	3727
94	0	0	1669	972	184	403	3729
95	0	0	1628	973	184	403	3731
96	0	0	1615	976	185	403	3734
97	0	0	1643	977	185	403	3740
98	0	0	1648	976	184	402	3738
99	0	0	1788	976	184	403	3740
100	0	0	1858	976	184	403	3740
101	0	0	1938	977	184	405	3741
102	0	0	2026	977	184	403	3741
103	0	0	2109	977	183	404	3743
104	0	0	2168	976	182	403	3742
105	0	0	2208	977	185	403	3744
106	0	0	2212	976	183	403	3745
107	0	0	2177	974	183	403	3746
108	0	0	2135	973	183	402	3748
109	0	0	2086	973	184	403	3749
110	0	0	2029	972	184	404	3751
111	0	0	1963	972	183	403	3753
112	0	0	1907	973	183	403	3755
113	0	0	1828	971	184	404	3759
114	0	0	1713	972	185	404	3757
115	0	0	1721	972	185	404	3757
116	0	0	1700	976	183	403	3759
117	0	0	1718	976	184	403	3760
118	0	0	1761	976	184	403	3759
119	0	0	1886	976	184	404	3760
120	0	0	2017	977	184	403	3760
121	0	0	2128	977	184	403	3761
122	0	0	2211	977	183	403	3762
123	0	0	2268	977	183	403	3764
124	0	0	2297	977	184	403	3764
125	0	0	2327	977	183	403	3766
126	0	0	2351	977	183	403	3767
127	0	0	2358	977	184	404	3769
0	0	0	2350	976	183	403	3770
1	0	0	2307	973	183	404	3773
2	0	0	2216	973	184	403	3771
3	0	0	2225	973	183	403	3773
4	0	0	2120	972	184	404	3774
5	0	0	2043	973	184	404	3775
6	0	0	1998	972	184	403	3775
7	0	0	1952	975	184	403	3776
8	0	0	1981	977	184	403	3777
9	0	0	2039	976	184	403	3778
10	0	0	2111	976	184	403	3780
11	0	0	2221	976	185	404	3780
12	0	0	2323	977	183	403	3783
13	0	0	2406	977	183	403	3784
14	0	0	2469	977	184	404	3785
15	0	0	2512	977	183	403	3787
16	0	0	2535	977	183	403	3787
17	0	0	2557	978	183	403	3796
18	0	0	2503	974	183	404	3791
19	0	0	2537	973	184	403	3791
20	0	0	2442	972	184	404	3793
21	0	0	2343	972	184	403	3794
22	0	0	2252	971	184	403	3796
23	0	0	2168	973	183	404	3795
24	0	0	2096	972	184	403	3796
25	0	0	2037	973	185	403	3798
26	0	0	1993	973	184	403	3798
27	0	0	1933	973	185	403	3800
28	0	0	1938	977	184	403	3801
29	0	0	1980	977	184	404	3804
30	0	0	2028	976	183	403	3804
31	0	0	2111	977	184	403	3805
32	0	0	2200	977	184	403	3807
33	0	0	2265	977	183	404	3806
34	0	0	2274	978	183	403	3809
35	0	0	2374	977	183	403	3811
36	0	0	2353	974	183	404	3811
37	0	0	2352	977	184	403	3812
38	0	0	2338	976	183	403	3814
39	0	0	2294	973	184	404	3815
40	0	0	2244	973	183	404	3815
41	0	0	2182	973	184	404	3816
42	0	0	2117	972	183	403	3817
43	0	0	2038	972	183	403	3819
44	0	0	1970	973	185	404	3820
45	0	0	1913	973	184	404	3822
46	0	0	1864	972	184	403	3822
47	0	0	1798	973	184	403	3823
48	0	0	1780	976	184	404	3825
49	0	0	1816	976	184	403	3823
50	0	0	1829	977	184	403	3828
51	0	0	1985	976	184	403	3830
52	0	0	2064	977	182	404	3830
53	0	0	2139	977	183	404	3831
54	0	0	2198	977	183	403	3832
55	0	0	2251	976	184	403	3832
56	0	0	2291	977	183	403	3832
57	0	0	2311	977	183	403	3833
58	0	0	2291	975	183	403	3835
59	0	0	2248	974	183	403	3835
60	0	0	2209	973	184	404	3836
61	0	0	2163	973	184	404	3837
62	0	0	2108	973	184	403	3838
63	0	0	2042	973	183	403	3840
64	0	0	1980	973	184	403	3839
65	0	0	1931	973	184	403	3837
66	0	0	1860	972	185	404	3843
67	0	0	1874	973	184	403	3842
68	0	0	1843	975	182	403	3843
69	0	0	1880	977	184	403	3845
70	0	0	1944	977	185	403	3845
71	0	0	2045	976	184	403	3847
72	0	0	2150	977	185	404	3846
73	0	0	2236	977	183	404	3846
74	0	0	2299	977	184	403	3847
75	0	0	2346	977	184	403	3848
76	0	0	2383	977	183	404	3848
77	0	0	2413	977	184	403	3849
78	0	0	2399	975	183	403	3850
79	0	0	2354	973	184	404	3850
80	0	0	2315	974	183	403	3851
81	0	0	2255	973	183	404	3846
82	0	0	2162	973	184	404	3852
83	0	0	2163	972	184	404	3852
84	0	0	2062	972	184	404	3853
85	0	0	1991	973	183	403	3854
86	0	0	1955	973	185	404	3855
87	0	0	1898	974	187	404	3854
88	0	0	1890	977	183	403	3855
89	0	0	1937	977	184	404	3856
90	0	0	2000	977	184	403	3855
91	0	0	2097	977	185	403	3855
92	0	0	2190	977	184	403	3855
93	0	0	2262	977	183	403	3856
94	0	0	2319	977	183	403	3857
95	0	0	2363	977	184	403	3857
96	0	0	2385	977	183	403	3857
97	0	0	2400	977	184	403	3849
98	0	0	2338	974	184	404	3858
99	0	0	2375	973	184	404	3858
100	0	0	2294	973	184	404	3859
101	0	0	2216	973	183	404	3860
102	0	0	2140	972	183	402	3860
103	0	0	2069	973	184	403	3860
104	0	0	1999	973	183	403	3860
105	0	0	1949	973	184	403	3861
106	0	0	1913	972	184	403	3860
107	0	0	1852	973	184	404	3860
108	0	0	1850	977	184	403	3860
109	0	0	1880	976	184	403	3860
110	0	0	1928	977	184	403	3860
111	0	0	2004	977	184	403	3860
112	0	0	2087	977	184	403	3860
113	0	0	2151	977	184	403	3853
114	0	0	2165	977	184	403	3860
115	0	0	2272	977	184	403	3861
116	0	0	2269	977	183	403	3860
117	0	0	2282	977	184	404	3861
118	0	0	2275	975	184	404	3861
119	0	0	2229	973	182	403	3862
120	0	0	2169	973	184	403	3862
121	0	0	2100	973	184	403	3861
122	0	0	2026	972	184	403	3861
123	0	0	1934	972	182	403	3860
124	0	0	1868	973	184	403	3861
125	0	0	1823	973	183	404	3860
126	0	0	1790	972	185	405	3860
127	0	0	1725	973	184	403	3859
0	0	0	1711	977	184	403	3859
1	0	0	1742	976	184	404	3854
2	0	0	1762	976	184	403	3859
