# bioPlux Text File Format
# Version: 1
# StartDateTime: 2011-07-18 12:06:28
# SamplingFrequency: 1000
# SampledChannels: 1 2 3 4 5
# SamplingResolution: 12
# AcquiringDevice: 00:07:80:42:0F:95
# EndOfHeader
0	0	0	1995	4	184	402	3923
1	0	0	1977	4	183	403	3923
2	0	0	1951	4	184	402	3923
3	0	0	1928	4	184	402	3923
4	0	0	1932	5	184	402	3923
5	0	0	1959	5	184	402	3923
6	0	0	1997	5	183	403	3923
7	0	0	2049	5	183	402	3923
8	0	0	2059	5	184	402	3922
9	0	0	2039	5	183	402	3922
10	0	0	2053	5	184	402	3922
11	0	0	2080	5	184	403	3922
12	0	0	2057	4	184	402	3923
13	0	0	2006	4	185	402	3922
14	0	0	1990	5	184	402	3922
15	0	0	2009	5	183	402	3922
16	0	0	2026	5	183	402	3922
17	0	0	2031	5	183	402	3923
18	0	0	2023	5	184	402	3923
19	0	0	1999	5	184	403	3923
20	0	0	1976	4	183	402	3922
21	0	0	1982	5	185	402	3923
22	0	0	1999	5	184	402	3924
23	0	0	1989	4	183	402	3922
24	0	0	1968	5	183	403	3922
25	0	0	1973	4	184	402	3922
26	0	0	1994	5	184	403	3922
27	0	0	2001	4	184	402	3923
28	0	0	1973	4	184	402	3922
29	0	0	1952	4	184	402	3922
30	0	0	1956	4	183	402	3923
31	0	0	1977	5	183	403	3923
32	0	0	2002	5	182	402	3923
33	0	0	2014	5	184	402	3923
34	0	0	2008	5	184	402	3923
35	0	0	2002	5	184	402	3923
36	0	0	1991	4	185	402	3923
37	0	0	1981	5	184	402	3923
38	0	0	1982	5	184	402	3923
39	0	0	1990	5	183	403	3924
40	0	0	1993	5	185	402	3923
41	0	0	1990	5	185	402	3922
42	0	0	1992	5	182	402	3927
43	0	0	2008	5	183	402	3922
44	0	0	2023	5	185	402	3922
45	0	0	2033	4	184	402	3922
46	0	0	2034	5	184	402	3923
47	0	0	2020	4	183	402	3923
48	0	0	2024	5	184	402	3923
49	0	0	2038	6	184	402	3922
50	0	0	2055	4	184	402	3923
51	0	0	2076	5	184	402	3922
52	0	0	2106	5	184	402	3923
53	0	0	2119	5	184	402	3923
54	0	0	2079	4	184	402	3924
55	0	0	2049	4	184	403	3923
56	0	0	2027	4	184	402	3923
57	0	0	2004	5	183	402	3923
58	0	0	2007	5	183	402	3922
59	0	0	2019	5	184	402	3922
60	0	0	2038	4	183	402	3922
61	0	0	2068	5	184	402	3923
62	0	0	2105	5	184	402	3923
63	0	0	2131	5	184	402	3922
64	0	0	2113	4	184	402	3923
65	0	0	2091	4	184	402	3922
66	0	0	2080	5	185	402	3923
67	0	0	2076	5	184	402	3923
68	0	0	2081	5	184	402	3923
69	0	0	2096	5	183	402	3923
70	0	0	2106	5	184	402	3923
71	0	0	2110	5	185	402	3923
72	0	0	2130	5	184	403	3923
73	0	0	2154	5	183	402	3924
74	0	0	2172	5	184	402	3922
75	0	0	2170	4	184	402	3922
76	0	0	2169	5	184	403	3922
77	0	0	2200	5	184	402	3923
78	0	0	2252	5	183	402	3922
79	0	0	2308	5	184	402	3922
80	0	0	2329	6	183	402	3923
81	0	0	2332	5	183	402	3922
82	0	0	2342	5	184	402	3923
83	0	0	2354	5	183	402	3922
84	0	0	2382	5	184	403	3922
85	0	0	2412	4	184	402	3923
86	0	0	2440	5	183	402	3924
87	0	0	2488	5	184	402	3923
88	0	0	2576	5	183	402	3922
89	0	0	2668	5	183	402	3922
90	0	0	2680	5	184	402	3923
91	0	0	2624	4	184	402	3923
92	0	0	2590	4	184	402	3923
93	0	0	2554	4	183	402	3923
94	0	0	2510	6	184	402	3922
95	0	0	2486	5	184	402	3922
96	0	0	2463	4	184	403	3922
97	0	0	2427	4	183	402	3923
98	0	0	2373	6	184	402	3922
99	0	0	2321	4	184	402	3922
100	0	0	2305	5	184	402	3923
101	0	0	2301	5	184	403	3923
102	0	0	2297	5	184	402	3923
103	0	0	2261	4	183	402	3923
104	0	0	2232	4	183	403	3923
105	0	0	2202	5	184	402	3923
106	0	0	2176	4	183	403	3923
107	0	0	2152	4	183	402	3923
108	0	0	2133	4	183	402	3922
109	0	0	2106	4	183	402	3923
110	0	0	2045	4	184	402	3923
111	0	0	1974	4	184	402	3923
112	0	0	1923	4	184	402	3922
113	0	0	1893	4	184	402	3922
114	0	0	1879	4	184	402	3923
115	0	0	1865	5	182	403	3923
116	0	0	1870	5	184	402	3922
117	0	0	1871	4	184	402	3923
118	0	0	1833	4	184	402	3924
119	0	0	1816	5	184	402	3922
120	0	0	1835	5	185	402	3923
121	0	0	1843	5	184	402	3923
122	0	0	1867	5	184	402	3923
123	0	0	1893	5	183	402	3922
124	0	0	1917	5	184	402	3922
125	0	0	1945	6	184	402	3922
126	0	0	1969	5	184	403	3923
127	0	0	1978	5	184	402	3923
0	0	0	1991	5	183	402	3922
1	0	0	2007	4	183	402	3922
2	0	0	2013	4	184	402	3921
3	0	0	2022	5	183	403	3923
4	0	0	2026	5	183	402	3923
5	0	0	2026	5	183	402	3922
6	0	0	2017	5	185	401	3922
7	0	0	2001	5	183	402	3923
8	0	0	1982	5	184	402	3924
9	0	0	1979	4	184	402	3923
10	0	0	1981	5	184	402	3922
11	0	0	1982	5	183	402	3923
12	0	0	1993	5	183	402	3923
13	0	0	1994	5	184	402	3922
14	0	0	1989	5	183	402	3923
15	0	0	1976	4	185	402	3922
16	0	0	1974	5	184	402	3922
17	0	0	2007	5	185	402	3922
18	0	0	2030	4	183	403	3923
19	0	0	2024	5	183	402	3922
20	0	0	1995	5	185	402	3922
21	0	0	1980	5	184	402	3923
22	0	0	1999	5	184	402	3923
23	0	0	2024	5	184	402	3923
24	0	0	2036	5	184	402	3923
25	0	0	2040	5	184	402	3923
26	0	0	2043	5	184	402	3923
27	0	0	2048	6	183	402	3923
28	0	0	2058	5	184	402	3923
29	0	0	2044	4	183	402	3923
30	0	0	2013	4	183	402	3922
31	0	0	1983	4	184	402	3922
32	0	0	1981	4	184	402	3923
33	0	0	1984	5	183	402	3924
34	0	0	1986	5	184	402	3923
35	0	0	2005	5	183	402	3922
36	0	0	2005	4	185	402	3923
37	0	0	1972	4	184	402	3923
38	0	0	1946	4	185	402	3922
39	0	0	1956	5	184	403	3923
40	0	0	2001	5	184	402	3924
41	0	0	2041	5	185	402	3922
42	0	0	2060	5	183	402	3923
43	0	0	2070	5	184	402	3923
44	0	0	2085	5	183	402	3923
45	0	0	2102	5	186	402	3923
46	0	0	2081	4	184	402	3924
47	0	0	2051	4	184	402	3923
48	0	0	2052	5	184	402	3923
49	0	0	2080	5	183	402	3923
50	0	0	2102	5	184	402	3922
51	0	0	2061	4	182	402	3922
52	0	0	1999	4	185	402	3922
53	0	0	1970	5	184	403	3922
54	0	0	1977	5	184	403	3923
55	0	0	1989	5	184	402	3924
56	0	0	2028	5	184	402	3923
57	0	0	2073	5	184	402	3923
58	0	0	2092	4	184	402	3923
59	0	0	2085	4	184	402	3924
60	0	0	2053	5	184	402	3923
61	0	0	2014	4	183	402	3923
62	0	0	1992	5	183	402	3923
63	0	0	1999	5	184	403	3922
64	0	0	2023	5	183	402	3923
65	0	0	2031	4	184	402	3922
66	0	0	2016	5	184	402	3922
67	0	0	2009	5	184	402	3922
68	0	0	2019	4	184	402	3923
69	0	0	2035	5	184	402	3923
70	0	0	2038	5	184	402	3923
71	0	0	2024	5	184	402	3922
72	0	0	2014	5	183	402	3922
73	0	0	2019	5	184	402	3923
74	0	0	2025	5	183	403	3923
75	0	0	2043	5	183	402	3923
76	0	0	2048	5	184	402	3923
77	0	0	2066	5	183	402	3923
78	0	0	2097	5	184	402	3924
79	0	0	2086	4	184	402	3923
80	0	0	2079	5	184	402	3923
81	0	0	2093	6	184	402	3922
82	0	0	2098	5	184	402	3922
83	0	0	2084	4	183	402	3923
84	0	0	2077	5	184	402	3923
85	0	0	2076	4	184	402	3922
86	0	0	2073	5	184	402	3922
87	0	0	2088	5	184	403	3922
88	0	0	2114	4	183	402	3923
89	0	0	2125	5	184	403	3923
90	0	0	2121	5	184	402	3923
91	0	0	2108	4	185	402	3923
92	0	0	2097	4	184	402	3923
93	0	0	2099	5	184	402	3923
94	0	0	2123	5	184	402	3924
95	0	0	2138	5	184	402	3923
96	0	0	2149	5	183	401	3923
97	0	0	2168	5	183	402	3922
98	0	0	2182	5	184	402	3922
99	0	0	2184	5	183	403	3923
100	0	0	2205	5	184	402	3922
101	0	0	2229	5	183	402	3922
102	0	0	2218	4	185	402	3922
103	0	0	2199	4	184	403	3922
104	0	0	2173	4	184	402	3923
105	0	0	2139	4	183	402	3922
106	0	0	2095	4	184	402	3923
107	0	0	2043	4	184	402	3923
108	0	0	2027	5	184	402	3924
109	0	0	2052	5	184	403	3923
110	0	0	2086	5	184	402	3924
111	0	0	2099	5	184	402	3923
112	0	0	2102	6	185	402	3923
113	0	0	2095	5	183	402	3923
114	0	0	2095	5	183	403	3923
115	0	0	2111	5	184	402	3923
116	0	0	2110	6	185	402	3922
117	0	0	2098	5	184	402	3922
118	0	0	2089	4	184	402	3922
119	0	0	2082	5	183	402	3923
120	0	0	2089	5	185	402	3922
121	0	0	2100	5	184	402	3922
122	0	0	2104	5	183	403	3922
123	0	0	2118	5	184	402	3922
124	0	0	2150	5	184	403	3923
125	0	0	2174	5	184	402	3923
126	0	0	2183	5	183	402	3924
127	0	0	2174	4	184	402	3923
0	0	0	2143	3	184	402	3923
1	0	0	2115	4	184	402	3923
2	0	0	2115	5	184	402	3922
3	0	0	2135	5	184	402	3922
4	0	0	2152	6	184	402	3922
5	0	0	2166	5	183	402	3922
6	0	0	2176	5	184	402	3923
7	0	0	2171	5	184	402	3924
8	0	0	2156	6	184	402	3922
9	0	0	2135	6	184	402	3922
10	0	0	2117	4	184	402	3923
11	0	0	2111	5	184	402	3924
12	0	0	2133	5	184	402	3922
13	0	0	2154	5	184	402	3923
14	0	0	2120	5	183	402	3923
15	0	0	2085	4	184	402	3923
16	0	0	2111	5	183	402	3923
17	0	0	2163	5	185	402	3922
18	0	0	2195	5	184	402	3922
19	0	0	2196	4	184	403	3922
20	0	0	2183	5	184	403	3922
21	0	0	2177	5	184	402	3923
22	0	0	2179	5	183	402	3922
23	0	0	2191	5	183	402	3923
24	0	0	2199	5	184	402	3923
25	0	0	2183	4	184	402	3923
26	0	0	2163	4	184	402	3923
27	0	0	2150	5	183	402	3922
28	0	0	2158	5	184	402	3923
29	0	0	2170	6	184	402	3923
30	0	0	2177	5	183	403	3923
31	0	0	2212	5	184	402	3923
32	0	0	2254	5	183	402	3922
33	0	0	2256	5	184	402	3922
34	0	0	2214	5	184	402	3923
35	0	0	2193	5	183	402	3923
36	0	0	2202	5	184	402	3923
37	0	0	2226	5	184	402	3923
38	0	0	2244	5	183	402	3922
39	0	0	2223	5	183	402	3922
40	0	0	2169	4	183	402	3923
41	0	0	2088	4	184	402	3923
42	0	0	2051	4	185	402	3923
43	0	0	2061	5	184	403	3922
44	0	0	2087	4	184	403	3922
45	0	0	2127	5	184	403	3922
46	0	0	2161	5	183	402	3923
47	0	0	2174	5	185	402	3923
48	0	0	2172	5	183	402	3924
49	0	0	2161	5	184	402	3922
50	0	0	2131	4	183	402	3923
51	0	0	2108	4	184	402	3923
52	0	0	2109	5	184	402	3922
53	0	0	2129	5	183	402	3923
54	0	0	2141	4	184	402	3923
55	0	0	2135	5	184	402	3923
56	0	0	2135	5	184	402	3923
57	0	0	2126	5	184	402	3922
58	0	0	2122	5	184	402	3922
59	0	0	2120	5	184	402	3922
60	0	0	2118	5	183	403	3922
61	0	0	2132	5	183	402	3923
62	0	0	2144	5	184	402	3922
63	0	0	2139	4	184	402	3922
64	0	0	2127	4	184	402	3923
65	0	0	2102	4	184	403	3924
66	0	0	2084	5	183	402	3923
67	0	0	2093	5	184	402	3922
68	0	0	2113	4	184	402	3922
69	0	0	2119	4	184	402	3922
70	0	0	2106	5	184	403	3922
71	0	0	2108	5	184	402	3922
72	0	0	2107	5	183	402	3922
73	0	0	2110	5	185	402	3922
74	0	0	2113	5	184	402	3922
75	0	0	2105	5	183	402	3922
76	0	0	2086	4	184	402	3923
77	0	0	2067	4	184	402	3922
78	0	0	2028	3	183	402	3923
79	0	0	1990	4	184	403	3923
80	0	0	1980	5	184	402	3924
81	0	0	1976	5	184	402	3923
82	0	0	1983	5	184	402	3923
83	0	0	2011	6	182	402	3923
84	0	0	2035	5	185	402	3923
85	0	0	2037	5	183	402	3923
86	0	0	2040	5	183	402	3923
87	0	0	2085	5	184	402	3922
88	0	0	2147	5	183	402	3923
89	0	0	2190	5	184	402	3923
90	0	0	2225	5	184	402	3922
91	0	0	2218	4	184	402	3923
92	0	0	2182	5	184	402	3922
93	0	0	2171	5	184	402	3922
94	0	0	2158	5	185	402	3923
95	0	0	2125	4	184	402	3923
96	0	0	2093	4	184	402	3923
97	0	0	2083	5	184	402	3923
98	0	0	2083	5	184	402	3923
99	0	0	2087	6	184	402	3923
100	0	0	2078	4	184	402	3923
101	0	0	2052	4	183	402	3923
102	0	0	2021	4	184	402	3922
103	0	0	2002	4	183	403	3922
104	0	0	2004	5	184	402	3922
105	0	0	2018	5	183	402	3922
106	0	0	2021	5	184	402	3923
107	0	0	2017	5	185	402	3922
108	0	0	2003	4	183	402	3923
109	0	0	1998	5	183	402	3923
110	0	0	1990	5	183	402	3922
111	0	0	1993	5	183	402	3924
112	0	0	1993	5	183	402	3922
113	0	0	1985	5	183	402	3923
114	0	0	1980	4	183	402	3924
115	0	0	1981	4	184	402	3923
116	0	0	1993	5	184	402	3923
117	0	0	1995	5	183	402	3922
118	0	0	2006	5	184	402	3924
119	0	0	2006	5	183	402	3922
120	0	0	1992	4	183	402	3922
121	0	0	1989	5	183	402	3923
122	0	0	1998	5	184	402	3922
123	0	0	2020	4	183	402	3922
124	0	0	2037	5	185	402	3922
125	0	0	2033	5	184	403	3923
126	0	0	2034	5	183	402	3923
127	0	0	2061	5	184	402	3922
0	0	0	2080	5	183	402	3923
1	0	0	2091	5	183	402	3922
2	0	0	2110	5	184	402	3923
3	0	0	2127	5	183	402	3923
4	0	0	2141	5	184	402	3922
5	0	0	2127	5	184	402	3922
6	0	0	2075	5	184	402	3922
7	0	0	1998	4	183	402	3922
8	0	0	1956	4	184	402	3923
9	0	0	1963	6	184	402	3923
10	0	0	1978	5	184	402	3922
11	0	0	1970	4	184	402	3922
12	0	0	1965	5	183	403	3923
13	0	0	1973	5	184	402	3922
14	0	0	1988	5	183	402	3923
15	0	0	1991	5	183	402	3922
16	0	0	1975	5	183	402	3922
17	0	0	1972	5	183	402	3923
18	0	0	1977	5	185	402	3924
19	0	0	1977	5	184	402	3923
20	0	0	1976	5	182	402	3924
21	0	0	1986	5	184	402	3923
22	0	0	2003	5	185	402	3922
23	0	0	2034	5	184	401	3923
24	0	0	2079	5	185	402	3922
25	0	0	2116	5	184	402	3922
26	0	0	2098	5	183	402	3922
27	0	0	2062	4	184	402	3922
28	0	0	2049	6	184	402	3923
29	0	0	2062	5	183	402	3922
30	0	0	2078	5	184	402	3922
31	0	0	2058	4	184	402	3923
32	0	0	2034	4	184	402	3923
33	0	0	2020	5	183	401	3923
34	0	0	2011	4	183	402	3923
35	0	0	2016	5	184	402	3922
36	0	0	2071	6	183	402	3923
37	0	0	2119	5	184	402	3924
38	0	0	2131	5	182	401	3923
39	0	0	2111	4	184	402	3922
40	0	0	2085	5	183	402	3922
41	0	0	2062	4	184	402	3922
42	0	0	2036	4	184	402	3923
43	0	0	2012	4	184	402	3923
44	0	0	2018	6	184	402	3922
45	0	0	2036	5	184	402	3922
46	0	0	2040	5	183	402	3922
47	0	0	2020	4	184	402	3922
48	0	0	1992	4	184	401	3923
49	0	0	1967	4	184	402	3923
50	0	0	1942	4	181	403	3922
51	0	0	1935	5	184	402	3923
52	0	0	1987	5	184	402	3924
53	0	0	2066	5	184	402	3923
54	0	0	2088	6	183	402	3922
55	0	0	2069	4	182	402	3923
56	0	0	2070	5	183	403	3922
57	0	0	2088	5	183	402	3923
58	0	0	2069	4	183	401	3923
59	0	0	2050	4	184	402	3922
60	0	0	2048	5	182	402	3923
61	0	0	2059	5	184	402	3923
62	0	0	2082	5	183	402	3922
63	0	0	2101	5	184	402	3923
64	0	0	2114	5	183	402	3922
65	0	0	2112	5	183	402	3922
66	0	0	2087	4	183	403	3922
67	0	0	2052	4	183	402	3922
68	0	0	2040	5	184	401	3923
69	0	0	2054	5	184	402	3923
70	0	0	2060	5	184	402	3923
71	0	0	2046	4	184	402	3923
72	0	0	2028	5	184	403	3922
73	0	0	2029	5	183	402	3923
74	0	0	2021	5	183	402	3922
75	0	0	1994	5	183	402	3922
76	0	0	1971	4	184	402	3922
77	0	0	1960	5	183	402	3922
78	0	0	1986	5	183	401	3923
79	0	0	2029	4	184	402	3923
80	0	0	2053	5	183	402	3922
81	0	0	2070	5	183	402	3923
82	0	0	2082	5	183	402	3923
83	0	0	2057	4	184	402	3923
84	0	0	2043	4	184	402	3924
85	0	0	2077	5	184	403	3922
86	0	0	2102	5	183	402	3923
87	0	0	2071	4	184	402	3924
88	0	0	2028	4	184	402	3923
89	0	0	2023	6	184	402	3922
90	0	0	2042	5	183	402	3923
91	0	0	2042	4	183	402	3923
92	0	0	2023	3	184	402	3922
93	0	0	1992	4	184	401	3923
94	0	0	1989	5	183	402	3922
95	0	0	2014	5	184	402	3923
96	0	0	2025	5	183	403	3922
97	0	0	2009	5	183	402	3922
98	0	0	1984	4	184	402	3923
99	0	0	1978	5	184	402	3922
100	0	0	1983	5	184	402	3922
101	0	0	1995	5	183	402	3923
102	0	0	2011	5	183	402	3924
103	0	0	2032	5	184	402	3923
104	0	0	2062	4	185	402	3924
105	0	0	2112	5	184	403	3922
106	0	0	2144	5	184	403	3922
107	0	0	2152	5	184	402	3923
108	0	0	2128	4	184	402	3923
109	0	0	2046	4	184	402	3922
110	0	0	1998	4	184	402	3922
111	0	0	1998	5	183	403	3922
112	0	0	1997	4	184	402	3923
113	0	0	1993	5	183	402	3923
114	0	0	2010	5	183	402	3922
115	0	0	1991	5	183	402	3922
116	0	0	1979	5	183	402	3923
117	0	0	2011	5	183	402	3923
118	0	0	2077	5	184	402	3923
119	0	0	2137	4	184	403	3924
120	0	0	2142	4	183	402	3923
121	0	0	2096	4	184	402	3923
122	0	0	2071	5	184	402	3923
123	0	0	2086	5	183	402	3923
124	0	0	2097	5	183	402	3922
125	0	0	2076	5	184	402	3922
126	0	0	2061	5	184	403	3922
127	0	0	2076	4	184	402	3923
0	0	0	2132	5	184	402	3923
1	0	0	2162	5	184	402	3922
2	0	0	2155	5	184	402	3922
3	0	0	2126	4	183	402	3923
4	0	0	2086	5	183	402	3924
5	0	0	2021	4	184	402	3923
6	0	0	1963	4	183	402	3924
7	0	0	1950	5	182	402	3922
8	0	0	1984	5	184	402	3922
9	0	0	2032	4	184	402	3923
10	0	0	2057	5	183	402	3923
11	0	0	2089	5	184	402	3922
12	0	0	2109	5	183	402	3922
13	0	0	2088	6	184	402	3922
14	0	0	2056	4	184	402	3922
15	0	0	2048	5	184	402	3922
16	0	0	2055	5	183	402	3922
17	0	0	2094	5	184	402	3922
18	0	0	2121	7	185	403	3923
19	0	0	2110	5	183	402	3923
20	0	0	2064	4	185	402	3923
21	0	0	2031	4	184	402	3922
22	0	0	2007	5	184	402	3923
23	0	0	2001	5	183	402	3923
24	0	0	2012	5	183	402	3924
25	0	0	2049	5	184	402	3923
26	0	0	2080	5	183	402	3924
27	0	0	2063	4	183	402	3923
28	0	0	2054	5	183	402	3923
29	0	0	2074	5	183	402	3923
30	0	0	2090	5	183	402	3922
31	0	0	2092	4	183	402	3923
32	0	0	2072	4	184	402	3922
33	0	0	2038	4	182	403	3922
34	0	0	2022	4	184	402	3922
35	0	0	2040	5	184	402	3923
36	0	0	2082	4	185	402	3922
37	0	0	2097	5	184	402	3922
38	0	0	2081	6	185	402	3923
39	0	0	2079	6	184	402	3923
40	0	0	2080	5	184	402	3923
41	0	0	2066	4	184	402	3923
42	0	0	2065	5	184	402	3923
43	0	0	2076	5	184	402	3923
44	0	0	2074	4	184	402	3923
45	0	0	2068	5	184	402	3922
46	0	0	2051	5	183	402	3922
47	0	0	2018	4	183	402	3922
48	0	0	1992	4	183	402	3922
49	0	0	1982	5	183	402	3923
50	0	0	2012	5	183	402	3923
51	0	0	2071	4	184	402	3923
52	0	0	2108	5	184	402	3922
53	0	0	2116	5	183	403	3922
54	0	0	2115	5	184	402	3923
55	0	0	2098	4	184	402	3923
56	0	0	2084	4	183	402	3922
57	0	0	2080	5	184	402	3923
58	0	0	2090	5	184	402	3923
59	0	0	2089	5	184	402	3923
60	0	0	2083	5	184	402	3923
61	0	0	2060	4	184	402	3922
62	0	0	2012	4	184	402	3923
63	0	0	2001	5	183	402	3923
64	0	0	2022	5	183	402	3923
65	0	0	2056	5	183	402	3923
66	0	0	2074	5	184	402	3922
67	0	0	2078	5	183	402	3922
68	0	0	2093	5	182	402	3922
69	0	0	2101	5	184	402	3923
70	0	0	2103	5	183	402	3923
71	0	0	2074	3	184	402	3923
72	0	0	2034	4	184	402	3923
73	0	0	2024	5	182	402	3923
74	0	0	2044	6	184	402	3923
75	0	0	2086	5	184	402	3923
76	0	0	2110	5	184	402	3923
77	0	0	2134	5	184	402	3923
78	0	0	2155	5	183	402	3923
79	0	0	2167	5	184	402	3923
80	0	0	2151	4	183	402	3923
81	0	0	2109	4	183	402	3922
82	0	0	2065	4	182	402	3923
83	0	0	2036	5	184	402	3923
84	0	0	2019	5	183	402	3922
85	0	0	2007	4	184	402	3923
86	0	0	2005	5	184	402	3922
87	0	0	2002	4	183	402	3923
88	0	0	2000	5	183	403	3922
89	0	0	2028	5	183	402	3922
90	0	0	2048	5	183	402	3923
91	0	0	2096	5	184	402	3923
92	0	0	2113	5	184	402	3923
93	0	0	2072	4	183	402	3923
94	0	0	2048	4	185	403	3923
95	0	0	2061	5	184	402	3923
96	0	0	2085	4	184	402	3923
97	0	0	2077	5	186	402	3922
98	0	0	2072	5	184	402	3923
99	0	0	2080	5	184	402	3923
100	0	0	2083	5	183	402	3923
101	0	0	2073	4	184	402	3923
102	0	0	2075	5	184	402	3922
103	0	0	2067	4	182	403	3922
104	0	0	2044	4	183	402	3923
105	0	0	2024	4	185	402	3923
106	0	0	2029	4	184	402	3923
107	0	0	2044	5	183	402	3922
108	0	0	2022	4	184	403	3923
109	0	0	2013	4	183	402	3923
110	0	0	2031	5	184	402	3923
111	0	0	2068	5	184	402	3923
112	0	0	2105	5	184	402	3923
113	0	0	2126	5	185	402	3923
114	0	0	2104	4	184	402	3923
115	0	0	2073	4	184	402	3923
116	0	0	2069	5	185	402	3922
117	0	0	2092	5	185	402	3923
118	0	0	2106	5	184	403	3923
119	0	0	2109	4	185	403	3923
120	0	0	2086	5	184	402	3923
121	0	0	2056	5	184	402	3922
122	0	0	2035	5	184	402	3923
123	0	0	2044	5	182	402	3923
124	0	0	2062	5	184	403	3924
125	0	0	2074	5	183	402	3923
126	0	0	2078	5	184	402	3923
127	0	0	2066	4	183	403	3923
0	0	0	2065	5	183	402	3924
1	0	0	2064	4	184	402	3923
2	0	0	2063	5	183	402	3923
3	0	0	2065	6	183	402	3922
4	0	0	2074	5	183	402	3923
5	0	0	2080	5	184	402	3922
6	0	0	2074	5	184	402	3923
7	0	0	2080	5	184	402	3923
8	0	0	2102	5	183	402	3923
9	0	0	2128	5	185	402	3922
10	0	0	2117	4	184	402	3922
11	0	0	2092	3	184	402	3923
12	0	0	2084	5	183	402	3923
13	0	0	2091	5	184	402	3923
14	0	0	2087	5	184	402	3924
15	0	0	2052	4	184	402	3924
16	0	0	2024	4	183	402	3923
17	0	0	2012	5	184	402	3924
18	0	0	2026	5	183	402	3923
19	0	0	2062	5	183	402	3923
20	0	0	2104	5	183	402	3922
21	0	0	2124	5	183	402	3923
22	0	0	2119	5	184	402	3922
23	0	0	2103	5	183	402	3922
24	0	0	2090	4	183	402	3922
25	0	0	2093	5	184	402	3922
26	0	0	2121	4	184	402	3923
27	0	0	2153	5	185	402	3923
28	0	0	2162	5	184	402	3923
29	0	0	2191	5	184	402	3923
30	0	0	2197	4	184	402	3923
31	0	0	2166	4	184	402	3924
32	0	0	2128	4	184	402	3923
33	0	0	2100	4	184	402	3924
34	0	0	2055	4	183	402	3922
35	0	0	2014	4	184	402	3922
36	0	0	2021	4	184	402	3923
37	0	0	2012	4	184	402	3924
38	0	0	1985	5	183	402	3922
39	0	0	1997	5	183	402	3922
40	0	0	2033	5	184	402	3922
41	0	0	2069	4	183	402	3922
42	0	0	2097	5	183	402	3923
43	0	0	2114	5	183	403	3923
44	0	0	2092	3	184	402	3923
45	0	0	2062	5	184	402	3923
46	0	0	2039	3	183	402	3923
47	0	0	2035	5	183	402	3923
48	0	0	2045	5	184	402	3923
49	0	0	2071	5	184	402	3924
50	0	0	2089	5	184	402	3923
51	0	0	2102	4	183	402	3923
52	0	0	2126	5	183	402	3923
53	0	0	2139	6	184	402	3922
54	0	0	2135	4	184	402	3922
55	0	0	2112	4	184	402	3922
56	0	0	2058	3	183	402	3923
57	0	0	2034	4	183	402	3923
58	0	0	2032	5	184	402	3923
59	0	0	2013	4	184	402	3923
60	0	0	2010	5	184	402	3922
61	0	0	2025	4	183	402	3923
62	0	0	2027	5	184	402	3924
63	0	0	2039	5	183	402	3923
64	0	0	2051	4	183	402	3923
65	0	0	2060	5	183	402	3923
66	0	0	2085	5	183	402	3922
67	0	0	2117	5	184	402	3923
68	0	0	2112	4	184	403	3923
69	0	0	2092	5	184	402	3922
70	0	0	2093	5	184	402	3923
71	0	0	2104	4	184	402	3923
72	0	0	2129	5	184	402	3923
73	0	0	2145	5	183	402	3922
74	0	0	2138	5	184	402	3923
75	0	0	2122	4	184	402	3923
76	0	0	2103	4	184	402	3923
77	0	0	2079	4	184	402	3924
78	0	0	2079	5	183	402	3923
79	0	0	2103	4	183	402	3923
80	0	0	2126	5	184	402	3923
81	0	0	2134	4	183	402	3923
82	0	0	2137	5	183	402	3923
83	0	0	2133	5	183	402	3923
84	0	0	2141	5	184	402	3922
85	0	0	2137	5	183	401	3923
86	0	0	2121	4	184	402	3922
87	0	0	2121	5	184	402	3923
88	0	0	2133	5	184	402	3922
89	0	0	2131	5	184	402	3922
90	0	0	2106	4	183	402	3923
91	0	0	2098	5	183	402	3922
92	0	0	2103	5	183	402	3923
93	0	0	2095	4	183	402	3922
94	0	0	2072	4	183	402	3923
95	0	0	2064	5	184	402	3924
96	0	0	2059	3	183	402	3923
97	0	0	2056	5	183	402	3924
98	0	0	2054	5	184	402	3923
99	0	0	2052	5	184	402	3924
100	0	0	2046	5	183	402	3924
101	0	0	2046	4	183	402	3923
102	0	0	2045	5	183	403	3924
103	0	0	2056	6	184	402	3922
104	0	0	2073	6	184	402	3924
105	0	0	2078	5	183	402	3923
106	0	0	2065	4	183	402	3922
107	0	0	2036	4	184	402	3922
108	0	0	2000	5	184	402	3922
109	0	0	2001	5	184	402	3923
110	0	0	2035	5	184	402	3923
111	0	0	2045	5	184	402	3924
112	0	0	2046	5	184	402	3923
113	0	0	2041	4	184	402	3923
114	0	0	2042	5	184	402	3924
115	0	0	2053	5	182	402	3931
116	0	0	2055	5	184	402	3923
117	0	0	2046	5	184	402	3923
118	0	0	2046	6	184	402	3922
119	0	0	2056	6	183	402	3924
120	0	0	2050	5	184	402	3922
121	0	0	2026	3	184	402	3922
122	0	0	2000	4	183	402	3922
123	0	0	2007	5	184	402	3922
124	0	0	2031	5	183	402	3922
125	0	0	2035	5	184	402	3923
126	0	0	2044	5	184	402	3924
127	0	0	2087	5	184	402	3923
0	0	0	2127	5	184	402	3924
1	0	0	2112	4	184	403	3923
2	0	0	2070	4	184	402	3923
3	0	0	2071	3	183	403	3924
4	0	0	2091	5	183	402	3923
5	0	0	2096	5	185	402	3923
6	0	0	2071	4	183	402	3924
7	0	0	2038	4	183	402	3924
8	0	0	2004	4	184	402	3923
9	0	0	2004	5	183	402	3923
10	0	0	2019	5	183	402	3922
11	0	0	2032	5	183	402	3922
12	0	0	2046	4	184	402	3923
13	0	0	2062	5	183	402	3923
14	0	0	2078	5	184	402	3922
15	0	0	2079	5	184	402	3923
16	0	0	2079	5	184	402	3923
17	0	0	2078	5	184	402	3923
18	0	0	2092	4	184	402	3923
19	0	0	2139	5	183	402	3924
20	0	0	2173	5	184	402	3923
21	0	0	2177	5	185	402	3923
22	0	0	2158	4	184	402	3923
23	0	0	2127	4	184	402	3923
24	0	0	2094	4	184	402	3922
25	0	0	2070	5	184	402	3922
26	0	0	2078	5	184	402	3922
27	0	0	2093	5	184	402	3923
28	0	0	2108	4	184	402	3923
29	0	0	2118	5	183	402	3922
30	0	0	2104	4	183	402	3923
31	0	0	2043	4	183	402	3922
32	0	0	1998	4	184	402	3923
33	0	0	2004	4	183	402	3923
34	0	0	2023	5	183	402	3923
35	0	0	2046	5	183	402	3923
36	0	0	2051	5	184	402	3923
37	0	0	2044	4	184	402	3923
38	0	0	2027	4	184	402	3923
39	0	0	2026	5	183	402	3924
40	0	0	2038	5	183	402	3922
41	0	0	2052	5	184	402	3923
42	0	0	2050	5	185	402	3922
43	0	0	2058	4	184	402	3923
44	0	0	2070	5	184	402	3922
45	0	0	2068	5	182	402	3924
46	0	0	2048	4	183	402	3923
47	0	0	2044	5	184	403	3923
48	0	0	2072	5	184	403	3923
49	0	0	2098	5	183	402	3922
50	0	0	2091	4	183	402	3923
51	0	0	2053	4	183	402	3923
52	0	0	2036	5	183	402	3923
53	0	0	2038	4	183	402	3923
54	0	0	2030	5	183	402	3924
55	0	0	2026	5	183	402	3923
56	0	0	2043	5	184	401	3923
57	0	0	2083	4	184	402	3923
58	0	0	2115	4	183	402	3923
59	0	0	2127	5	183	402	3922
60	0	0	2105	6	185	402	3922
61	0	0	2076	4	184	402	3922
62	0	0	2057	4	186	402	3922
63	0	0	2058	5	184	402	3923
64	0	0	2075	5	184	402	3923
65	0	0	2086	5	184	402	3924
66	0	0	2076	4	184	403	3923
67	0	0	2037	4	185	402	3923
68	0	0	1984	4	183	402	3923
69	0	0	1937	4	183	402	3924
70	0	0	1951	5	184	402	3923
71	0	0	2007	5	184	402	3924
72	0	0	2055	5	184	402	3922
73	0	0	2074	5	183	402	3923
74	0	0	2067	5	183	402	3923
75	0	0	2065	5	184	402	3922
76	0	0	2087	5	184	402	3922
77	0	0	2109	5	185	402	3922
78	0	0	2094	4	183	402	3923
79	0	0	2079	5	184	402	3923
80	0	0	2101	5	184	402	3922
81	0	0	2127	4	184	402	3922
82	0	0	2140	5	185	402	3923
83	0	0	2151	5	183	402	3924
84	0	0	2141	4	184	402	3923
85	0	0	2087	4	184	402	3924
86	0	0	2035	4	185	402	3924
87	0	0	2013	4	185	402	3923
88	0	0	1997	4	184	402	3924
89	0	0	1965	4	183	403	3922
90	0	0	1932	3	184	402	3923
91	0	0	1917	5	184	402	3923
92	0	0	1927	5	182	402	3923
93	0	0	1980	5	183	402	3923
94	0	0	2052	5	183	402	3923
95	0	0	2083	5	183	402	3923
96	0	0	2068	4	185	402	3923
97	0	0	2039	5	184	402	3923
98	0	0	2074	5	184	402	3923
99	0	0	2129	5	184	402	3923
100	0	0	2150	5	183	402	3924
101	0	0	2138	5	184	402	3923
102	0	0	2095	4	184	402	3923
103	0	0	2028	4	184	402	3924
104	0	0	1992	4	185	402	3923
105	0	0	1990	5	184	402	3924
106	0	0	2001	5	184	403	3923
107	0	0	2041	5	183	402	3923
108	0	0	2048	5	183	402	3924
109	0	0	1991	4	183	402	3923
110	0	0	1944	4	184	402	3922
111	0	0	1970	5	183	402	3923
112	0	0	2032	5	183	402	3923
113	0	0	2077	5	182	402	3923
114	0	0	2100	5	184	402	3923
115	0	0	2107	5	183	402	3923
116	0	0	2119	5	184	402	3923
117	0	0	2127	5	184	402	3924
118	0	0	2124	5	184	402	3923
119	0	0	2123	5	184	402	3924
120	0	0	2113	5	185	402	3924
121	0	0	2106	5	184	402	3923
122	0	0	2112	5	184	402	3923
123	0	0	2128	5	183	402	3923
124	0	0	2106	4	185	402	3923
125	0	0	2066	4	184	402	3923
126	0	0	2036	5	183	402	3923
127	0	0	2017	4	184	402	3923
0	0	0	2022	5	183	402	3923
1	0	0	2044	5	183	402	3923
2	0	0	2059	5	183	402	3923
3	0	0	2061	5	183	402	3922
4	0	0	2056	5	183	402	3923
5	0	0	2054	5	183	402	3924
6	0	0	2068	5	183	402	3924
7	0	0	2101	5	184	402	3923
8	0	0	2120	5	184	402	3924
9	0	0	2116	5	184	402	3924
10	0	0	2110	5	184	402	3923
11	0	0	2102	5	184	402	3924
12	0	0	2114	5	184	402	3923
13	0	0	2147	6	184	402	3923
14	0	0	2161	5	184	402	3923
15	0	0	2136	4	184	402	3923
16	0	0	2098	5	184	402	3923
17	0	0	2092	5	184	402	3923
18	0	0	2094	5	184	402	3923
19	0	0	2100	5	184	402	3923
20	0	0	2123	5	184	402	3923
21	0	0	2156	5	184	402	3923
22	0	0	2179	5	183	402	3923
23	0	0	2157	4	183	402	3923
24	0	0	2103	4	183	402	3924
25	0	0	2064	5	183	402	3923
26	0	0	2050	5	184	402	3924
27	0	0	2062	5	183	402	3923
28	0	0	2085	5	184	402	3923
29	0	0	2124	5	184	402	3923
30	0	0	2156	5	184	402	3924
31	0	0	2176	6	184	402	3923
32	0	0	2163	5	183	402	3922
33	0	0	2152	5	183	402	3923
34	0	0	2164	5	184	402	3923
35	0	0	2157	4	184	402	3923
36	0	0	2146	5	183	402	3923
37	0	0	2157	5	184	402	3922
38	0	0	2172	5	184	402	3924
39	0	0	2156	4	184	402	3924
40	0	0	2112	4	183	402	3924
41	0	0	2071	4	184	402	3924
42	0	0	2033	5	183	402	3923
43	0	0	2012	5	184	402	3923
44	0	0	2022	5	183	402	3924
45	0	0	2038	5	184	402	3923
46	0	0	2046	5	183	402	3922
47	0	0	2062	5	183	402	3923
48	0	0	2074	6	184	402	3923
49	0	0	2074	5	183	402	3923
50	0	0	2060	5	184	402	3923
51	0	0	2076	5	184	402	3923
52	0	0	2110	5	184	402	3923
53	0	0	2104	4	184	402	3923
54	0	0	2095	5	183	402	3923
55	0	0	2131	5	183	402	3923
56	0	0	2180	5	184	402	3924
57	0	0	2184	5	184	402	3928
58	0	0	2161	4	184	402	3924
59	0	0	2161	5	183	402	3924
60	0	0	2147	4	184	403	3924
61	0	0	2106	4	183	402	3923
62	0	0	2068	4	183	402	3923
63	0	0	2045	4	185	402	3923
64	0	0	2051	5	184	402	3923
65	0	0	2051	5	183	402	3923
66	0	0	2026	4	183	402	3922
67	0	0	2015	5	184	402	3924
68	0	0	2011	5	183	403	3922
69	0	0	2023	5	183	402	3923
70	0	0	2048	5	183	402	3923
71	0	0	2071	5	183	402	3923
72	0	0	2092	5	183	402	3924
73	0	0	2116	5	183	402	3923
74	0	0	2133	5	183	402	3923
75	0	0	2161	5	185	402	3924
76	0	0	2188	5	184	402	3923
77	0	0	2177	4	183	402	3923
78	0	0	2120	4	183	402	3923
79	0	0	2081	4	184	402	3924
80	0	0	2075	5	184	402	3923
81	0	0	2075	5	184	402	3923
82	0	0	2059	4	183	402	3923
83	0	0	2032	4	184	402	3922
84	0	0	2013	4	183	402	3923
85	0	0	1999	4	184	402	3923
86	0	0	1994	5	183	402	3923
87	0	0	2008	5	183	402	3923
88	0	0	2044	4	184	402	3923
89	0	0	2087	5	184	402	3923
90	0	0	2104	5	184	402	3924
91	0	0	2069	4	184	402	3924
92	0	0	2036	4	184	402	3923
93	0	0	2039	5	185	402	3922
94	0	0	2052	5	183	402	3923
95	0	0	2040	5	183	402	3923
96	0	0	2024	5	183	402	3923
97	0	0	2016	5	184	402	3924
98	0	0	2020	5	183	402	3924
99	0	0	2020	5	184	402	3923
100	0	0	2014	5	183	402	3923
101	0	0	2002	5	184	402	3924
102	0	0	2003	6	183	402	3922
103	0	0	2019	5	184	402	3923
104	0	0	2033	5	183	402	3924
105	0	0	2027	4	183	402	3923
106	0	0	2014	5	183	402	3924
107	0	0	2015	5	183	402	3923
108	0	0	2003	4	184	402	3924
109	0	0	1989	5	185	402	3923
110	0	0	1994	5	183	402	3924
111	0	0	2014	5	185	402	3923
112	0	0	2043	5	183	402	3922
113	0	0	2070	5	184	402	3922
114	0	0	2076	5	184	402	3923
115	0	0	2092	5	184	402	3923
116	0	0	2094	5	184	402	3923
117	0	0	2050	3	183	402	3922
118	0	0	1996	4	184	402	3923
119	0	0	1974	5	184	402	3924
120	0	0	1971	5	184	402	3923
121	0	0	1980	5	184	402	3923
122	0	0	1990	5	184	402	3923
123	0	0	2010	5	183	402	3923
124	0	0	2039	5	183	402	3923
125	0	0	2057	5	184	402	3924
126	0	0	2051	5	183	402	3923
127	0	0	2019	4	183	402	3923
0	0	0	2017	5	183	402	3923
1	0	0	2042	5	184	402	3924
2	0	0	2057	4	183	402	3923
3	0	0	2024	4	183	402	3923
4	0	0	1998	4	184	402	3922
5	0	0	2006	5	185	402	3923
6	0	0	2037	5	184	402	3923
7	0	0	2060	5	184	403	3923
8	0	0	2086	5	184	402	3923
9	0	0	2125	5	183	402	3923
10	0	0	2144	5	183	402	3923
11	0	0	2087	4	184	402	3924
12	0	0	2016	4	183	402	3924
13	0	0	1995	5	184	402	3923
14	0	0	2012	4	183	402	3923
15	0	0	2030	5	184	402	3924
16	0	0	2032	5	183	402	3924
17	0	0	2037	5	183	402	3923
18	0	0	2046	5	183	402	3923
19	0	0	2060	5	183	402	3924
20	0	0	2088	5	184	404	3923
21	0	0	2098	5	183	401	3922
22	0	0	2083	4	183	402	3923
23	0	0	2052	4	184	402	3922
24	0	0	2041	4	184	402	3922
25	0	0	2032	5	184	402	3923
26	0	0	2031	5	184	402	3924
27	0	0	2033	5	185	402	3923
28	0	0	2052	5	184	402	3923
29	0	0	2101	5	185	402	3923
30	0	0	2127	5	183	402	3923
31	0	0	2097	4	184	401	3923
32	0	0	2041	4	183	402	3924
33	0	0	1997	4	182	402	3923
34	0	0	2008	5	184	402	3922
35	0	0	2009	5	184	402	3922
36	0	0	2028	5	184	402	3923
37	0	0	2058	5	183	402	3923
38	0	0	2065	5	184	402	3923
39	0	0	2074	4	183	402	3923
40	0	0	2087	5	184	402	3923
41	0	0	2089	5	184	402	3924
42	0	0	2089	5	183	402	3923
43	0	0	2098	5	184	402	3923
44	0	0	2097	4	183	402	3924
45	0	0	2090	5	184	404	3923
46	0	0	2089	5	184	401	3923
47	0	0	2087	5	183	402	3924
48	0	0	2093	5	184	402	3923
49	0	0	2115	4	184	402	3923
50	0	0	2126	5	184	402	3923
51	0	0	2116	5	184	402	3924
52	0	0	2097	5	185	402	3923
53	0	0	2078	4	183	402	3922
54	0	0	2085	5	184	402	3923
55	0	0	2111	5	182	402	3923
56	0	0	2146	5	185	403	3922
57	0	0	2191	5	183	402	3923
58	0	0	2233	5	183	402	3923
59	0	0	2262	6	183	403	3923
60	0	0	2265	5	183	402	3923
61	0	0	2267	5	184	402	3923
62	0	0	2307	5	185	402	3924
63	0	0	2355	5	184	402	3923
64	0	0	2396	5	183	402	3924
65	0	0	2432	5	184	402	3923
66	0	0	2463	5	185	402	3923
67	0	0	2499	5	184	402	3924
68	0	0	2539	5	184	402	3923
69	0	0	2560	6	184	403	3923
70	0	0	2552	5	184	402	3923
71	0	0	2530	5	185	402	3923
72	0	0	2519	5	185	402	3923
73	0	0	2524	5	184	402	3924
74	0	0	2530	5	183	402	3923
75	0	0	2531	5	183	402	3923
76	0	0	2548	5	182	402	3923
77	0	0	2545	4	184	402	3924
78	0	0	2478	4	183	402	3923
79	0	0	2413	4	183	402	3923
80	0	0	2363	4	184	402	3924
81	0	0	2313	4	185	402	3924
82	0	0	2270	4	184	402	3924
83	0	0	2254	5	183	402	3924
84	0	0	2248	5	184	402	3923
85	0	0	2252	5	184	402	3923
86	0	0	2254	5	184	402	3923
87	0	0	2248	5	185	402	3923
88	0	0	2247	5	183	402	3922
89	0	0	2229	4	183	402	3923
90	0	0	2175	4	184	402	3923
91	0	0	2073	4	183	403	3923
92	0	0	1964	4	185	402	3924
93	0	0	1907	4	184	402	3923
94	0	0	1897	4	183	402	3923
95	0	0	1893	5	183	402	3923
96	0	0	1878	4	183	403	3924
97	0	0	1870	5	184	402	3924
98	0	0	1888	5	183	402	3924
99	0	0	1901	4	183	402	3923
100	0	0	1904	5	184	402	3923
101	0	0	1915	5	184	402	3923
102	0	0	1919	5	184	402	3923
103	0	0	1930	5	185	402	3923
104	0	0	1949	6	184	403	3922
105	0	0	1961	5	184	402	3923
106	0	0	1941	4	184	402	3923
107	0	0	1927	5	185	402	3923
108	0	0	1932	5	184	402	3923
109	0	0	1923	5	184	402	3923
110	0	0	1903	4	184	402	3923
111	0	0	1912	5	184	403	3923
112	0	0	1922	5	184	402	3924
113	0	0	1919	5	183	402	3923
114	0	0	1900	3	182	402	3924
115	0	0	1896	5	184	403	3923
116	0	0	1880	4	183	402	3923
117	0	0	1889	5	184	402	3924
118	0	0	1902	5	183	402	3923
119	0	0	1931	5	183	402	3923
120	0	0	1972	5	185	402	3923
121	0	0	1988	5	184	402	3924
122	0	0	2000	5	183	402	3923
123	0	0	2023	5	184	402	3923
124	0	0	2037	5	184	402	3923
125	0	0	2056	5	184	402	3923
126	0	0	2085	5	183	402	3923
127	0	0	2123	5	184	402	3926
0	0	0	2146	5	184	402	3923
1	0	0	2133	4	182	402	3924
2	0	0	2102	5	183	402	3923
3	0	0	2072	4	184	402	3923
4	0	0	2029	4	183	402	3924
5	0	0	2012	5	184	402	3924
6	0	0	2002	4	184	402	3923
7	0	0	1984	4	184	402	3923
8	0	0	1993	5	184	402	3924
9	0	0	2018	5	183	402	3923
10	0	0	2058	5	183	402	3923
11	0	0	2095	4	183	402	3923
12	0	0	2110	5	185	402	3923
13	0	0	2096	5	185	402	3923
14	0	0	2068	4	184	402	3924
15	0	0	2034	5	183	402	3923
16	0	0	2028	5	184	402	3923
17	0	0	2050	5	184	402	3923
18	0	0	2073	5	185	402	3924
19	0	0	2079	5	185	402	3924
20	0	0	2044	4	183	402	3923
21	0	0	2036	4	184	402	3923
22	0	0	2046	5	184	402	3923
23	0	0	2055	4	184	402	3922
24	0	0	2063	5	183	402	3923
25	0	0	2037	4	183	401	3922
26	0	0	2013	3	182	402	3924
27	0	0	2010	5	183	403	3923
28	0	0	2009	5	184	402	3923
29	0	0	2008	5	183	402	3923
30	0	0	2015	5	183	403	3924
31	0	0	2033	4	184	402	3923
32	0	0	2053	5	184	402	3923
33	0	0	2055	5	184	402	3923
34	0	0	2061	5	184	402	3923
35	0	0	2092	5	183	402	3923
36	0	0	2111	4	184	402	3923
37	0	0	2085	4	185	402	3923
38	0	0	2064	5	185	402	3923
39	0	0	2049	5	184	402	3923
40	0	0	2054	5	184	402	3922
41	0	0	2070	5	183	402	3922
42	0	0	2072	5	183	402	3922
43	0	0	2064	5	183	402	3923
44	0	0	2051	5	183	402	3924
45	0	0	2034	4	183	402	3922
46	0	0	2005	4	183	402	3924
47	0	0	1984	4	183	402	3923
48	0	0	1969	4	183	402	3923
49	0	0	1975	5	184	402	3924
50	0	0	2008	5	183	402	3923
51	0	0	2039	5	184	403	3923
52	0	0	2072	5	184	402	3923
53	0	0	2092	5	183	402	3924
54	0	0	2105	5	184	402	3923
55	0	0	2121	5	183	402	3922
56	0	0	2133	5	184	402	3923
57	0	0	2152	5	184	402	3922
58	0	0	2173	5	185	403	3923
59	0	0	2163	4	183	402	3923
60	0	0	2146	5	183	402	3924
61	0	0	2140	5	183	403	3923
62	0	0	2130	4	184	402	3923
63	0	0	2120	5	184	402	3924
64	0	0	2103	5	183	402	3923
65	0	0	2073	4	183	402	3923
66	0	0	2045	4	184	402	3923
67	0	0	2014	4	183	402	3923
68	0	0	1995	4	184	403	3923
69	0	0	2002	5	183	402	3924
70	0	0	2030	5	182	402	3923
71	0	0	2076	5	184	402	3924
72	0	0	2097	5	183	403	3923
73	0	0	2088	5	184	403	3923
74	0	0	2078	5	183	402	3923
75	0	0	2089	5	184	402	3924
76	0	0	2112	4	184	402	3922
77	0	0	2146	5	185	402	3922
78	0	0	2183	5	183	402	3923
79	0	0	2181	5	184	402	3923
80	0	0	2168	4	184	403	3923
81	0	0	2133	4	184	402	3923
82	0	0	2083	4	183	402	3923
83	0	0	2042	4	184	402	3923
84	0	0	2016	4	184	402	3924
85	0	0	2008	5	184	402	3923
86	0	0	2027	5	183	402	3923
87	0	0	2035	4	183	402	3923
88	0	0	2014	5	184	402	3924
89	0	0	2014	6	182	402	3923
90	0	0	2045	5	184	402	3923
91	0	0	2091	5	183	403	3922
92	0	0	2125	4	183	402	3923
93	0	0	2167	5	183	403	3923
94	0	0	2202	5	183	402	3923
95	0	0	2194	5	184	402	3923
96	0	0	2179	5	183	402	3924
97	0	0	2167	4	183	401	3923
98	0	0	2140	4	184	403	3923
99	0	0	2123	5	184	402	3923
100	0	0	2111	4	183	402	3923
101	0	0	2068	4	183	402	3923
102	0	0	2029	4	184	402	3924
103	0	0	2003	4	184	402	3924
104	0	0	2005	5	182	402	3923
105	0	0	2025	5	184	402	3923
106	0	0	2034	5	183	402	3923
107	0	0	2039	5	183	402	3923
108	0	0	2044	5	184	403	3923
109	0	0	2070	5	184	402	3923
110	0	0	2092	5	184	402	3923
111	0	0	2098	5	183	403	3923
112	0	0	2120	5	183	402	3923
113	0	0	2126	5	184	402	3923
114	0	0	2144	5	184	402	3923
115	0	0	2173	5	184	402	3923
116	0	0	2196	5	184	402	3923
117	0	0	2211	5	183	402	3923
118	0	0	2209	5	184	402	3927
119	0	0	2200	5	183	402	3923
120	0	0	2194	5	184	402	3924
121	0	0	2162	5	186	402	3923
122	0	0	2128	4	184	402	3923
123	0	0	2097	4	184	403	3923
124	0	0	2091	5	184	402	3923
125	0	0	2112	5	183	402	3922
126	0	0	2140	4	183	402	3922
127	0	0	2159	5	184	402	3922
0	0	0	2167	5	183	403	3923
1	0	0	2142	4	184	402	3924
2	0	0	2113	4	183	402	3923
3	0	0	2094	4	183	402	3922
4	0	0	2083	4	184	402	3923
5	0	0	2072	4	184	402	3923
6	0	0	2074	5	183	402	3924
7	0	0	2100	5	184	402	3924
8	0	0	2141	5	183	402	3923
9	0	0	2187	5	185	402	3923
10	0	0	2212	5	184	403	3923
11	0	0	2206	5	184	402	3923
12	0	0	2192	5	184	402	3923
13	0	0	2170	5	184	402	3923
14	0	0	2146	4	183	402	3923
15	0	0	2148	5	183	403	3923
16	0	0	2159	5	184	402	3923
17	0	0	2142	4	184	402	3923
18	0	0	2122	5	184	402	3924
19	0	0	2114	5	183	402	3923
20	0	0	2103	5	184	403	3923
21	0	0	2072	4	181	402	3923
22	0	0	2049	5	183	402	3923
23	0	0	2051	5	183	402	3923
24	0	0	2067	4	185	402	3923
25	0	0	2104	5	184	401	3923
26	0	0	2124	5	183	402	3923
27	0	0	2126	5	184	402	3924
28	0	0	2142	5	185	402	3923
29	0	0	2150	4	184	402	3923
30	0	0	2123	4	184	402	3923
31	0	0	2121	5	182	402	3923
32	0	0	2122	5	185	402	3922
33	0	0	2140	5	184	402	3923
34	0	0	2173	5	184	402	3923
35	0	0	2185	5	184	402	3922
36	0	0	2196	5	184	402	3923
37	0	0	2188	5	184	402	3923
38	0	0	2168	5	184	402	3923
39	0	0	2144	4	184	402	3923
40	0	0	2096	4	183	402	3923
41	0	0	2054	5	183	402	3923
42	0	0	2046	5	184	402	3923
43	0	0	2059	5	184	402	3923
44	0	0	2090	5	184	402	3922
45	0	0	2103	5	184	402	3923
46	0	0	2109	5	182	402	3923
47	0	0	2111	5	183	402	3922
48	0	0	2125	5	184	402	3922
49	0	0	2127	5	184	402	3922
50	0	0	2122	5	184	403	3922
51	0	0	2104	4	183	402	3923
52	0	0	2087	4	184	402	3923
53	0	0	2073	4	184	403	3924
54	0	0	2063	4	184	402	3923
55	0	0	2055	5	183	403	3923
56	0	0	2054	5	184	402	3924
57	0	0	2062	5	183	402	3923
58	0	0	2056	5	183	402	3924
59	0	0	2042	5	183	404	3923
60	0	0	2035	5	184	402	3923
61	0	0	2028	5	184	402	3924
62	0	0	2015	4	184	402	3923
63	0	0	1994	4	184	403	3923
64	0	0	1972	4	183	402	3923
65	0	0	1993	5	184	403	3923
66	0	0	2059	5	184	402	3923
67	0	0	2089	5	184	402	3922
68	0	0	2083	5	184	402	3923
69	0	0	2083	5	184	402	3923
70	0	0	2108	5	184	402	3924
71	0	0	2111	5	182	402	3923
72	0	0	2092	5	184	402	3923
73	0	0	2079	4	184	402	3923
74	0	0	2046	4	184	402	3923
75	0	0	2011	4	183	403	3923
76	0	0	1995	5	184	402	3923
77	0	0	1960	4	183	402	3923
78	0	0	1923	5	183	403	3924
79	0	0	1895	5	183	402	3922
80	0	0	1898	5	183	402	3923
81	0	0	1954	4	183	402	3923
82	0	0	2022	5	183	402	3922
83	0	0	2064	5	183	402	3923
84	0	0	2059	5	184	402	3923
85	0	0	2049	4	183	402	3923
86	0	0	2054	5	184	402	3923
87	0	0	2072	5	184	402	3923
88	0	0	2075	5	185	402	3923
89	0	0	2082	5	184	402	3923
90	0	0	2118	5	184	403	3923
91	0	0	2156	5	184	402	3924
92	0	0	2127	4	184	402	3923
93	0	0	2095	4	183	403	3923
94	0	0	2100	5	183	402	3923
95	0	0	2106	5	183	402	3924
96	0	0	2082	4	183	402	3923
97	0	0	2034	4	184	402	3922
98	0	0	1985	4	184	402	3922
99	0	0	1939	4	183	402	3923
100	0	0	1907	4	183	403	3922
101	0	0	1908	5	183	402	3923
102	0	0	1931	5	184	402	3923
103	0	0	1974	5	184	402	3924
104	0	0	2006	5	183	402	3923
105	0	0	2022	5	183	402	3923
106	0	0	2033	5	184	403	3924
107	0	0	2038	5	184	402	3922
108	0	0	2033	5	184	402	3924
109	0	0	2014	4	185	402	3923
110	0	0	1989	4	184	403	3923
111	0	0	1980	5	183	402	3923
112	0	0	1985	5	184	402	3923
113	0	0	1991	5	184	402	3922
114	0	0	1993	5	184	402	3923
115	0	0	1971	4	184	403	3922
116	0	0	1948	5	183	402	3923
117	0	0	1967	5	183	402	3922
118	0	0	1985	5	183	403	3922
119	0	0	1996	5	184	402	3923
120	0	0	2008	5	184	403	3923
121	0	0	2003	5	183	402	3923
122	0	0	2013	5	183	402	3924
123	0	0	2016	6	183	402	3923
124	0	0	2008	3	184	402	3924
125	0	0	1984	4	184	402	3924
126	0	0	1998	5	183	402	3923
127	0	0	2049	5	184	403	3924
0	0	0	2073	6	185	402	3923
1	0	0	2078	5	184	402	3923
2	0	0	2076	5	185	402	3923
3	0	0	2074	5	184	402	3923
4	0	0	2051	5	183	402	3922
5	0	0	2027	4	183	402	3924
6	0	0	2014	3	183	402	3923
7	0	0	2003	4	184	402	3923
8	0	0	1979	4	184	402	3923
9	0	0	1966	6	184	402	3923
10	0	0	1972	5	183	402	3923
11	0	0	1985	4	183	402	3923
12	0	0	2001	5	183	402	3924
13	0	0	2018	5	183	402	3924
14	0	0	2032	5	183	402	3924
15	0	0	2033	4	184	402	3923
16	0	0	2007	5	184	402	3923
17	0	0	2000	5	184	403	3923
18	0	0	2009	5	184	402	3923
19	0	0	2020	6	184	402	3922
20	0	0	2038	5	183	402	3922
21	0	0	2054	5	185	402	3923
22	0	0	2051	5	183	403	3923
23	0	0	2050	5	184	402	3924
24	0	0	2056	5	184	402	3923
25	0	0	2058	5	184	403	3923
26	0	0	2043	4	183	402	3923
27	0	0	2041	4	184	402	3924
28	0	0	2037	5	184	402	3923
29	0	0	2022	5	185	402	3923
30	0	0	2019	5	183	402	3924
31	0	0	2000	5	183	402	3923
32	0	0	1963	4	183	402	3923
33	0	0	1928	3	183	402	3923
34	0	0	1913	5	184	402	3922
35	0	0	1928	5	183	402	3923
36	0	0	1965	5	184	402	3923
37	0	0	2004	5	184	403	3923
38	0	0	2030	5	184	402	3923
39	0	0	2036	5	184	402	3922
40	0	0	2035	5	184	401	3923
41	0	0	2047	4	184	403	3922
42	0	0	2053	5	184	404	3923
43	0	0	2038	5	184	402	3923
44	0	0	2042	5	185	402	3924
45	0	0	2027	5	184	402	3923
46	0	0	1984	4	184	402	3923
47	0	0	1956	5	184	402	3923
48	0	0	1983	5	184	402	3923
49	0	0	2021	5	184	402	3923
50	0	0	2038	5	184	402	3923
51	0	0	2039	5	183	402	3922
52	0	0	2046	5	183	402	3923
53	0	0	2050	5	183	402	3924
54	0	0	2045	5	183	402	3922
55	0	0	2033	4	184	403	3922
56	0	0	1998	5	184	402	3923
57	0	0	1964	4	184	402	3924
58	0	0	1972	5	184	403	3923
59	0	0	2020	5	184	402	3924
60	0	0	2051	5	185	402	3925
61	0	0	2045	5	184	402	3923
62	0	0	2048	5	184	402	3923
63	0	0	2065	5	184	402	3924
64	0	0	2086	5	184	402	3923
65	0	0	2097	5	184	403	3923
66	0	0	2098	5	185	402	3923
67	0	0	2092	5	184	403	3923
68	0	0	2081	5	183	402	3923
69	0	0	2063	5	183	402	3923
70	0	0	2048	4	184	402	3923
71	0	0	2030	4	183	402	3923
72	0	0	2026	5	184	402	3923
73	0	0	1986	4	184	402	3923
74	0	0	1935	4	184	402	3923
75	0	0	1935	5	183	402	3923
76	0	0	2005	6	183	402	3923
77	0	0	2090	5	184	402	3924
78	0	0	2145	5	183	402	3924
79	0	0	2162	5	184	402	3923
80	0	0	2148	5	184	402	3924
81	0	0	2135	5	184	403	3923
82	0	0	2120	4	184	402	3923
83	0	0	2098	4	185	402	3923
84	0	0	2082	5	183	402	3922
85	0	0	2093	5	184	402	3923
86	0	0	2069	5	184	402	3923
87	0	0	2028	4	183	403	3923
88	0	0	1993	4	184	402	3923
89	0	0	1987	5	183	402	3923
90	0	0	1986	5	183	402	3923
91	0	0	1971	5	184	402	3923
92	0	0	1981	5	184	402	3924
93	0	0	2015	5	183	402	3923
94	0	0	2032	5	184	402	3923
95	0	0	2043	5	184	402	3923
96	0	0	2063	4	184	402	3924
97	0	0	2062	5	184	402	3923
98	0	0	2066	5	184	402	3923
99	0	0	2091	5	184	402	3923
100	0	0	2138	5	184	402	3922
101	0	0	2188	5	184	402	3922
102	0	0	2207	5	184	403	3922
103	0	0	2160	4	184	403	3923
104	0	0	2078	4	184	402	3922
105	0	0	2019	4	185	402	3924
106	0	0	2002	4	183	402	3923
107	0	0	1985	4	184	402	3923
108	0	0	1989	5	183	402	3923
109	0	0	2013	5	183	402	3923
110	0	0	2030	5	184	402	3923
111	0	0	2032	6	184	402	3923
112	0	0	2030	4	184	403	3923
113	0	0	2029	5	184	403	3924
114	0	0	2024	5	184	402	3923
115	0	0	2023	5	184	402	3923
116	0	0	2027	5	184	402	3923
117	0	0	2025	4	184	403	3922
118	0	0	2036	5	184	403	3923
119	0	0	2070	5	184	402	3922
120	0	0	2107	5	184	402	3922
121	0	0	2128	5	183	402	3922
122	0	0	2110	4	183	403	3923
123	0	0	2094	5	184	402	3923
124	0	0	2076	4	184	402	3923
125	0	0	2046	4	184	402	3923
126	0	0	2008	4	184	402	3923
127	0	0	1988	4	184	403	3923
0	0	0	1985	5	183	402	3924
1	0	0	2000	5	183	402	3923
2	0	0	2033	5	184	402	3924
3	0	0	2059	4	183	402	3924
4	0	0	2087	5	184	402	3923
5	0	0	2099	5	183	402	3923
6	0	0	2083	4	183	403	3924
7	0	0	2076	5	183	402	3924
8	0	0	2080	5	184	402	3923
9	0	0	2085	5	184	402	3923
10	0	0	2103	5	183	402	3923
11	0	0	2092	5	184	402	3923
12	0	0	2083	5	184	402	3923
13	0	0	2089	5	183	402	3923
14	0	0	2103	5	184	402	3924
15	0	0	2109	5	184	402	3923
16	0	0	2114	5	184	402	3924
17	0	0	2103	5	184	402	3923
18	0	0	2079	4	184	401	3923
19	0	0	2031	4	184	402	3924
20	0	0	2014	5	184	402	3923
21	0	0	2045	5	183	402	3924
22	0	0	2068	5	184	402	3923
23	0	0	2035	5	184	402	3923
24	0	0	2002	4	183	402	3923
25	0	0	1999	5	184	402	3923
26	0	0	2021	5	183	402	3924
27	0	0	2053	5	183	402	3922
28	0	0	2089	5	183	401	3923
29	0	0	2100	4	183	402	3923
30	0	0	2083	4	184	402	3923
31	0	0	2054	4	184	402	3923
32	0	0	2058	5	185	402	3923
33	0	0	2099	5	184	403	3923
34	0	0	2125	5	184	402	3924
35	0	0	2124	5	184	402	3924
36	0	0	2102	4	184	402	3923
37	0	0	2071	5	184	402	3924
38	0	0	2093	5	184	402	3924
39	0	0	2124	5	183	402	3923
40	0	0	2107	4	183	402	3923
41	0	0	2079	5	183	402	3922
42	0	0	2081	5	182	402	3924
43	0	0	2083	6	183	402	3922
44	0	0	2082	5	183	402	3922
45	0	0	2105	5	183	403	3923
46	0	0	2114	5	184	402	3923
47	0	0	2096	5	184	402	3923
48	0	0	2092	6	184	402	3923
49	0	0	2095	5	184	403	3924
50	0	0	2101	5	184	402	3924
51	0	0	2115	5	184	402	3924
52	0	0	2114	5	184	402	3923
53	0	0	2093	4	184	402	3923
54	0	0	2058	4	184	403	3923
55	0	0	2020	4	184	402	3923
56	0	0	2021	5	184	402	3923
57	0	0	2060	5	183	402	3923
58	0	0	2083	4	184	403	3922
59	0	0	2054	4	183	402	3923
60	0	0	2023	4	183	402	3924
61	0	0	2020	5	184	402	3923
62	0	0	2034	5	184	402	3924
63	0	0	2043	5	182	402	3922
64	0	0	2033	4	183	402	3923
65	0	0	2024	5	183	402	3923
66	0	0	2033	5	184	402	3923
67	0	0	2064	5	183	401	3924
68	0	0	2088	6	183	402	3923
69	0	0	2082	5	184	402	3923
70	0	0	2074	5	183	402	3923
71	0	0	2067	5	183	402	3923
72	0	0	2068	5	184	402	3923
73	0	0	2068	6	184	402	3923
74	0	0	2090	5	185	403	3924
75	0	0	2109	5	183	402	3923
76	0	0	2106	5	184	402	3924
77	0	0	2098	5	184	403	3922
78	0	0	2099	6	184	402	3923
79	0	0	2106	4	183	402	3923
80	0	0	2094	4	183	402	3923
81	0	0	2080	5	183	402	3923
82	0	0	2067	4	183	402	3923
83	0	0	2063	4	182	402	3923
84	0	0	2067	5	183	402	3923
85	0	0	2076	5	184	402	3924
86	0	0	2083	5	183	402	3923
87	0	0	2083	5	184	402	3924
88	0	0	2082	5	184	402	3924
89	0	0	2087	5	183	402	3923
90	0	0	2095	5	184	402	3923
91	0	0	2110	5	183	402	3922
92	0	0	2140	5	184	402	3924
93	0	0	2140	6	185	402	3922
94	0	0	2107	4	184	403	3922
95	0	0	2074	4	184	402	3923
96	0	0	2050	5	184	402	3923
97	0	0	2080	5	184	402	3923
98	0	0	2105	5	184	402	3923
99	0	0	2102	5	183	402	3924
100	0	0	2094	5	183	402	3923
101	0	0	2084	5	184	402	3923
102	0	0	2081	4	182	402	3924
103	0	0	2051	4	183	403	3923
104	0	0	2007	4	183	402	3923
105	0	0	1989	5	184	402	3924
106	0	0	1993	5	184	402	3922
107	0	0	2001	5	183	402	3923
108	0	0	2023	5	183	402	3923
109	0	0	2045	5	184	402	3923
110	0	0	2051	5	183	402	3923
111	0	0	2049	5	184	402	3923
112	0	0	2061	5	185	402	3923
113	0	0	2080	5	184	402	3923
114	0	0	2101	5	184	403	3922
115	0	0	2125	5	183	401	3923
116	0	0	2143	5	184	402	3924
117	0	0	2147	6	182	402	3923
118	0	0	2134	5	184	402	3923
119	0	0	2121	4	183	402	3923
120	0	0	2114	4	183	402	3924
121	0	0	2086	4	184	402	3923
122	0	0	2052	5	183	402	3924
123	0	0	2040	6	183	402	3923
124	0	0	2051	5	183	403	3922
125	0	0	2056	5	184	402	3923
126	0	0	2058	5	184	402	3922
127	0	0	2061	5	183	402	3923
0	0	0	2058	5	183	402	3923
1	0	0	2052	5	184	402	3922
2	0	0	2061	5	184	402	3923
3	0	0	2052	4	184	402	3923
4	0	0	2020	4	184	402	3923
5	0	0	2016	5	184	402	3923
6	0	0	2044	5	184	402	3924
7	0	0	2065	5	184	401	3923
8	0	0	2063	5	184	402	3924
9	0	0	2086	5	184	403	3922
10	0	0	2091	5	183	402	3923
11	0	0	2104	5	184	402	3924
12	0	0	2120	5	183	401	3923
13	0	0	2132	5	183	402	3922
14	0	0	2125	5	183	402	3922
15	0	0	2094	4	183	402	3923
16	0	0	2057	4	183	402	3923
17	0	0	2044	5	184	402	3923
18	0	0	2078	5	183	402	3922
19	0	0	2110	4	183	402	3923
20	0	0	2125	5	183	402	3923
21	0	0	2128	5	184	402	3923
22	0	0	2122	5	185	402	3924
23	0	0	2118	5	184	402	3923
24	0	0	2121	5	184	402	3923
25	0	0	2140	5	184	402	3923
26	0	0	2153	5	184	402	3923
27	0	0	2136	4	185	402	3923
28	0	0	2100	4	183	402	3923
29	0	0	2065	4	184	402	3923
30	0	0	2061	5	184	402	3923
31	0	0	2081	5	184	403	3923
32	0	0	2106	5	184	402	3923
33	0	0	2120	5	184	402	3923
34	0	0	2116	5	184	402	3922
35	0	0	2104	5	183	402	3923
36	0	0	2091	4	183	402	3924
37	0	0	2071	5	183	402	3923
38	0	0	2068	5	183	402	3924
39	0	0	2084	4	183	403	3923
40	0	0	2120	5	185	402	3923
41	0	0	2157	5	184	402	3924
42	0	0	2176	5	184	402	3921
43	0	0	2169	5	184	402	3923
44	0	0	2148	4	184	402	3924
45	0	0	2126	4	184	402	3923
46	0	0	2125	5	184	402	3923
47	0	0	2131	5	184	402	3923
48	0	0	2138	5	184	402	3922
49	0	0	2130	4	183	402	3922
50	0	0	2116	5	184	402	3922
51	0	0	2116	5	183	402	3923
52	0	0	2139	5	184	402	3923
53	0	0	2157	6	184	402	3924
54	0	0	2138	4	183	402	3923
55	0	0	2116	5	182	402	3923
56	0	0	2119	5	183	402	3923
57	0	0	2125	5	183	402	3923
58	0	0	2125	5	183	402	3923
59	0	0	2144	5	183	402	3923
60	0	0	2166	6	184	402	3923
61	0	0	2172	5	184	402	3923
62	0	0	2164	5	183	402	3923
63	0	0	2158	5	184	402	3922
64	0	0	2167	4	184	402	3922
65	0	0	2174	5	183	402	3922
66	0	0	2180	5	184	402	3922
67	0	0	2149	4	184	401	3923
68	0	0	2139	5	184	402	3922
69	0	0	2130	5	184	402	3923
70	0	0	2122	5	184	402	3923
71	0	0	2125	5	183	402	3924
72	0	0	2120	5	184	402	3924
73	0	0	2114	4	183	402	3925
74	0	0	2102	5	184	403	3923
75	0	0	2083	4	184	402	3923
76	0	0	2072	5	183	402	3924
77	0	0	2072	5	183	401	3923
78	0	0	2076	5	183	402	3923
79	0	0	2074	5	183	402	3922
80	0	0	2086	6	184	403	3923
81	0	0	2131	5	183	402	3923
82	0	0	2179	5	184	402	3924
83	0	0	2205	5	184	402	3922
84	0	0	2220	5	184	402	3923
85	0	0	2206	5	183	402	3923
86	0	0	2183	4	185	402	3923
87	0	0	2157	4	183	401	3923
88	0	0	2129	4	184	402	3923
89	0	0	2100	5	184	402	3923
90	0	0	2076	5	184	403	3923
91	0	0	2063	5	184	402	3923
92	0	0	2062	5	183	401	3923
93	0	0	2062	5	183	403	3923
94	0	0	2061	5	184	402	3923
95	0	0	2057	6	183	402	3923
96	0	0	2050	4	183	402	3924
97	0	0	2033	5	183	402	3923
98	0	0	2042	4	183	402	3923
99	0	0	2071	5	182	402	3922
100	0	0	2084	5	184	403	3923
101	0	0	2058	4	183	402	3924
102	0	0	2022	4	184	401	3923
103	0	0	1995	5	184	402	3923
104	0	0	1999	5	184	403	3923
105	0	0	2020	5	184	402	3923
106	0	0	2035	5	184	402	3923
107	0	0	2041	5	184	401	3923
108	0	0	2064	5	183	402	3923
109	0	0	2080	5	184	403	3923
110	0	0	2073	5	184	402	3923
111	0	0	2059	5	184	402	3923
112	0	0	2064	5	183	401	3923
113	0	0	2061	5	183	402	3923
114	0	0	2060	5	183	402	3924
115	0	0	2089	5	183	402	3923
116	0	0	2129	5	184	402	3923
117	0	0	2156	5	184	402	3924
118	0	0	2159	4	184	402	3923
119	0	0	2131	4	183	402	3923
120	0	0	2084	4	183	402	3923
121	0	0	2051	4	184	403	3923
122	0	0	2044	5	183	402	3924
123	0	0	2011	4	184	401	3923
124	0	0	1990	5	184	403	3923
125	0	0	2003	5	183	402	3923
126	0	0	2010	5	185	402	3923
127	0	0	2019	5	183	401	3923
0	0	0	2015	5	184	402	3923
1	0	0	2002	5	184	402	3922
2	0	0	2024	5	184	402	3922
3	0	0	2051	5	183	402	3922
4	0	0	2065	5	184	402	3923
5	0	0	2075	5	183	402	3923
6	0	0	2057	4	183	402	3924
7	0	0	2016	4	183	402	3923
8	0	0	2006	5	183	402	3922
9	0	0	2024	5	183	402	3924
10	0	0	2042	5	184	402	3923
11	0	0	2043	5	184	402	3924
12	0	0	2022	4	184	402	3924
13	0	0	2010	5	183	402	3923
14	0	0	1988	5	184	402	3923
15	0	0	1982	5	184	402	3923
16	0	0	2005	5	185	402	3924
17	0	0	2043	5	184	403	3923
18	0	0	2081	5	183	402	3923
19	0	0	2094	5	184	402	3923
20	0	0	2103	5	183	402	3922
21	0	0	2116	5	184	402	3923
22	0	0	2109	5	183	402	3923
23	0	0	2099	4	183	403	3924
24	0	0	2073	4	183	402	3923
25	0	0	2049	4	184	403	3923
26	0	0	2020	4	184	402	3924
27	0	0	2001	5	183	402	3924
28	0	0	2008	5	184	402	3923
29	0	0	2023	5	183	402	3923
30	0	0	2029	5	184	402	3923
31	0	0	2015	5	183	402	3923
32	0	0	1999	5	183	402	3923
33	0	0	2011	5	184	402	3924
34	0	0	2029	5	184	402	3923
35	0	0	2047	5	184	402	3922
36	0	0	2081	5	184	402	3922
37	0	0	2097	6	184	402	3922
38	0	0	2086	5	183	402	3923
39	0	0	2052	4	184	402	3923
40	0	0	2010	5	185	402	3923
41	0	0	1999	5	184	402	3923
42	0	0	2022	5	184	402	3923
43	0	0	2046	5	184	402	3923
44	0	0	2046	5	184	402	3924
45	0	0	2045	4	183	402	3924
46	0	0	2032	5	184	403	3923
47	0	0	2010	4	183	402	3923
48	0	0	2002	5	184	402	3923
49	0	0	2020	5	184	402	3923
50	0	0	2033	5	183	402	3922
51	0	0	2027	5	184	403	3922
52	0	0	2015	5	184	402	3922
53	0	0	2010	4	184	402	3922
54	0	0	2025	5	184	402	3924
55	0	0	2026	5	184	402	3922
56	0	0	2033	5	184	402	3924
57	0	0	2067	5	185	402	3924
58	0	0	2071	6	184	402	3922
59	0	0	2051	4	184	402	3923
60	0	0	2032	4	183	402	3923
61	0	0	2017	5	184	402	3923
62	0	0	2014	5	184	402	3923
63	0	0	2025	6	184	402	3923
64	0	0	2036	5	184	402	3924
65	0	0	2032	4	183	402	3924
66	0	0	2048	5	183	402	3923
67	0	0	2056	5	183	402	3923
68	0	0	2050	5	183	402	3924
69	0	0	2051	5	184	402	3922
70	0	0	2024	3	184	402	3924
71	0	0	1984	4	183	402	3923
72	0	0	1989	5	183	402	3923
73	0	0	2015	6	183	402	3923
74	0	0	2050	5	183	402	3923
75	0	0	2103	5	184	402	3923
76	0	0	2135	5	183	402	3923
77	0	0	2134	5	184	402	3923
78	0	0	2127	4	184	402	3923
79	0	0	2121	5	183	403	3924
80	0	0	2142	5	183	402	3923
81	0	0	2168	5	184	402	3924
82	0	0	2155	4	185	402	3924
83	0	0	2128	5	184	402	3923
84	0	0	2108	4	184	402	3923
85	0	0	2090	4	184	402	3922
86	0	0	2093	5	184	402	3922
87	0	0	2120	5	183	402	3922
88	0	0	2146	5	184	402	3922
89	0	0	2164	5	184	402	3923
90	0	0	2157	4	183	402	3923
91	0	0	2165	6	182	402	3922
92	0	0	2200	5	184	402	3923
93	0	0	2246	5	184	402	3923
94	0	0	2276	5	184	402	3923
95	0	0	2277	4	184	402	3924
96	0	0	2287	5	185	402	3923
97	0	0	2324	5	184	402	3923
98	0	0	2367	5	184	402	3924
99	0	0	2385	5	184	402	3923
100	0	0	2362	3	184	402	3923
101	0	0	2355	5	184	402	3922
102	0	0	2394	5	184	402	3922
103	0	0	2437	5	183	402	3923
104	0	0	2445	5	184	402	3923
105	0	0	2411	4	184	402	3922
106	0	0	2410	5	183	402	3922
107	0	0	2444	5	183	402	3923
108	0	0	2461	6	183	402	3923
109	0	0	2449	5	184	402	3923
110	0	0	2427	5	183	402	3923
111	0	0	2424	5	184	402	3923
112	0	0	2425	5	184	402	3926
113	0	0	2403	4	184	402	3923
114	0	0	2392	5	183	402	3923
115	0	0	2380	4	184	402	3923
116	0	0	2348	4	184	402	3923
117	0	0	2315	4	184	402	3923
118	0	0	2288	5	184	403	3923
119	0	0	2265	5	183	402	3923
120	0	0	2242	4	183	402	3923
121	0	0	2233	5	184	402	3923
122	0	0	2224	5	184	402	3923
123	0	0	2198	4	183	401	3923
124	0	0	2149	4	184	402	3923
125	0	0	2095	3	184	402	3924
126	0	0	2049	4	183	402	3923
127	0	0	1993	4	184	403	3923
0	0	0	1945	4	184	402	3923
1	0	0	1909	4	184	402	3923
2	0	0	1873	4	183	402	3923
3	0	0	1868	5	183	402	3923
4	0	0	1879	5	184	402	3923
5	0	0	1886	5	184	402	3922
6	0	0	1871	4	184	402	3923
7	0	0	1842	4	184	402	3923
8	0	0	1847	6	183	402	3922
9	0	0	1873	5	184	402	3923
10	0	0	1909	5	184	403	3923
11	0	0	1932	5	184	402	3923
12	0	0	1930	5	184	402	3923
13	0	0	1928	5	184	402	3923
14	0	0	1953	5	183	402	3923
15	0	0	1965	5	184	402	3924
16	0	0	1942	4	184	402	3923
17	0	0	1898	4	183	402	3924
18	0	0	1877	5	183	401	3923
19	0	0	1900	4	182	402	3923
20	0	0	1923	5	183	402	3924
21	0	0	1941	5	183	402	3923
22	0	0	1956	4	184	402	3923
23	0	0	1972	5	185	402	3922
24	0	0	1967	5	184	402	3923
25	0	0	1962	5	184	402	3923
26	0	0	1978	5	183	402	3923
27	0	0	1986	5	184	402	3922
28	0	0	1993	5	184	402	3922
29	0	0	2014	5	184	402	3922
30	0	0	2030	5	183	402	3923
31	0	0	2008	4	184	402	3923
32	0	0	1989	5	184	402	3923
33	0	0	1961	4	184	402	3923
34	0	0	1927	4	184	402	3923
35	0	0	1929	4	184	402	3923
36	0	0	1946	5	183	402	3923
37	0	0	1958	5	184	403	3923
38	0	0	1965	5	184	402	3923
39	0	0	1977	5	183	402	3923
40	0	0	1964	4	183	402	3923
41	0	0	1952	5	185	402	3924
42	0	0	1966	5	184	402	3922
43	0	0	2005	5	184	402	3923
44	0	0	2039	5	184	402	3923
45	0	0	2064	5	184	402	3923
46	0	0	2088	5	184	402	3923
47	0	0	2100	5	183	402	3923
48	0	0	2088	5	183	402	3923
49	0	0	2063	4	184	402	3923
50	0	0	2021	4	184	402	3923
51	0	0	2000	5	185	402	3923
52	0	0	2006	5	184	402	3923
53	0	0	2027	5	184	402	3923
54	0	0	2046	5	184	402	3923
55	0	0	2052	5	184	402	3924
56	0	0	2075	5	183	402	3923
57	0	0	2106	5	183	402	3924
58	0	0	2133	5	185	402	3922
59	0	0	2121	4	184	402	3922
60	0	0	2061	3	183	402	3923
61	0	0	2019	4	183	402	3923
62	0	0	2003	4	183	402	3922
63	0	0	1976	4	184	402	3923
64	0	0	1958	5	184	402	3923
65	0	0	1984	4	183	402	3923
66	0	0	2027	5	184	403	3924
67	0	0	2048	5	184	402	3923
68	0	0	2029	4	183	402	3923
69	0	0	1996	4	184	402	3923
70	0	0	1987	5	184	402	3923
71	0	0	2033	5	185	402	3924
72	0	0	2071	5	183	402	3922
73	0	0	2081	5	184	402	3923
74	0	0	2080	5	184	402	3924
75	0	0	2056	3	184	402	3924
76	0	0	2018	4	184	402	3923
77	0	0	1991	4	184	402	3923
78	0	0	1990	5	184	402	3923
79	0	0	2005	5	184	402	3923
80	0	0	2016	4	183	402	3923
81	0	0	2026	5	184	402	3923
82	0	0	2032	5	183	402	3923
83	0	0	2038	5	184	402	3923
84	0	0	2031	4	184	402	3923
85	0	0	2020	5	184	402	3924
86	0	0	2024	5	184	402	3923
87	0	0	2046	5	184	402	3923
88	0	0	2068	5	184	402	3923
89	0	0	2067	5	184	402	3923
90	0	0	2054	4	184	402	3923
91	0	0	2053	5	183	402	3923
92	0	0	2056	5	183	402	3922
93	0	0	2052	4	184	402	3923
94	0	0	2018	4	184	402	3923
95	0	0	1992	4	184	402	3924
96	0	0	1989	5	183	402	3923
97	0	0	1999	5	183	403	3923
98	0	0	2019	4	183	402	3923
99	0	0	2028	5	183	402	3923
100	0	0	2025	4	183	402	3924
101	0	0	2031	5	183	402	3923
102	0	0	2044	5	184	402	3923
103	0	0	2054	4	184	402	3922
104	0	0	2024	4	184	402	3923
105	0	0	2005	4	183	402	3922
106	0	0	2003	5	184	402	3923
107	0	0	1999	5	184	402	3922
108	0	0	2006	4	184	402	3922
109	0	0	2027	5	184	402	3923
110	0	0	2051	4	183	402	3923
111	0	0	2066	5	185	402	3923
112	0	0	2080	5	185	402	3923
113	0	0	2095	5	184	402	3924
114	0	0	2105	5	183	402	3924
115	0	0	2098	4	183	402	3924
116	0	0	2081	4	183	403	3924
117	0	0	2061	5	184	403	3924
118	0	0	2043	4	184	402	3923
119	0	0	2046	5	184	402	3923
120	0	0	2059	4	183	402	3924
121	0	0	2069	5	183	402	3922
122	0	0	2080	5	183	402	3923
123	0	0	2078	5	183	402	3922
124	0	0	2072	5	184	402	3923
125	0	0	2072	4	183	402	3923
126	0	0	2078	5	184	402	3923
127	0	0	2101	5	183	402	3923
0	0	0	2134	5	184	402	3923
1	0	0	2161	5	183	402	3923
2	0	0	2165	5	184	402	3923
3	0	0	2150	4	184	402	3924
4	0	0	2115	5	184	402	3923
5	0	0	2098	5	184	402	3923
6	0	0	2089	5	184	402	3923
7	0	0	2081	5	183	402	3924
8	0	0	2069	4	184	402	3924
9	0	0	2062	4	183	402	3923
10	0	0	2074	5	183	402	3923
11	0	0	2063	4	184	402	3923
12	0	0	2070	5	184	402	3923
13	0	0	2112	5	184	402	3924
14	0	0	2128	5	183	402	3922
15	0	0	2101	4	184	402	3923
16	0	0	2084	5	184	402	3923
17	0	0	2088	4	183	402	3923
18	0	0	2109	5	184	402	3923
19	0	0	2143	5	184	402	3924
20	0	0	2139	4	186	402	3923
21	0	0	2114	4	185	402	3923
22	0	0	2116	4	184	402	3923
23	0	0	2124	5	184	402	3923
24	0	0	2127	5	184	402	3923
25	0	0	2117	4	184	402	3923
26	0	0	2092	4	184	402	3924
27	0	0	2078	5	184	402	3923
28	0	0	2082	5	185	402	3924
29	0	0	2078	5	183	402	3923
30	0	0	2073	5	184	402	3923
31	0	0	2077	5	184	402	3922
32	0	0	2058	3	184	402	3922
33	0	0	2046	5	183	402	3923
34	0	0	2061	5	183	402	3924
35	0	0	2077	5	183	401	3923
36	0	0	2107	5	184	402	3923
37	0	0	2142	5	184	402	3924
38	0	0	2157	5	183	403	3923
39	0	0	2157	4	184	402	3924
40	0	0	2149	5	185	402	3923
41	0	0	2151	5	184	402	3923
42	0	0	2172	5	184	402	3923
43	0	0	2181	5	185	402	3923
44	0	0	2187	5	184	402	3923
45	0	0	2188	5	184	402	3924
46	0	0	2189	5	184	402	3924
47	0	0	2178	3	183	402	3923
48	0	0	2169	5	184	402	3923
49	0	0	2162	5	184	402	3924
50	0	0	2154	5	183	402	3923
51	0	0	2131	4	183	402	3923
52	0	0	2095	3	183	402	3923
53	0	0	2071	4	184	402	3923
54	0	0	2071	5	183	402	3923
55	0	0	2081	5	184	402	3923
56	0	0	2099	5	183	402	3922
57	0	0	2118	3	183	402	3923
58	0	0	2149	5	184	402	3923
59	0	0	2178	5	184	402	3922
60	0	0	2166	5	184	402	3922
61	0	0	2142	4	185	402	3923
62	0	0	2124	3	185	402	3923
63	0	0	2121	5	184	402	3924
64	0	0	2129	5	184	402	3922
65	0	0	2164	5	183	402	3924
66	0	0	2190	5	183	402	3923
67	0	0	2175	4	184	402	3923
68	0	0	2143	4	184	402	3923
69	0	0	2125	6	183	402	3923
70	0	0	2127	5	184	402	3923
71	0	0	2136	5	184	402	3923
72	0	0	2115	5	183	402	3924
73	0	0	2081	4	183	402	3923
74	0	0	2048	4	184	402	3923
75	0	0	2063	5	185	402	3923
76	0	0	2088	4	184	402	3922
77	0	0	2079	4	183	402	3923
78	0	0	2070	5	183	402	3923
79	0	0	2093	5	184	402	3922
80	0	0	2137	5	184	402	3922
81	0	0	2175	5	184	402	3922
82	0	0	2168	3	184	402	3923
83	0	0	2125	4	184	402	3922
84	0	0	2088	4	184	402	3922
85	0	0	2068	5	184	402	3923
86	0	0	2037	4	185	402	3923
87	0	0	2008	4	183	402	3924
88	0	0	1991	4	183	402	3923
89	0	0	1997	5	183	402	3924
90	0	0	2029	5	184	402	3923
91	0	0	2061	5	184	402	3923
92	0	0	2072	5	184	403	3924
93	0	0	2067	5	183	402	3923
94	0	0	2059	5	184	402	3923
95	0	0	2039	4	184	402	3922
96	0	0	2038	5	185	402	3923
97	0	0	2032	5	183	402	3923
98	0	0	2021	5	184	402	3922
99	0	0	2014	4	185	402	3922
100	0	0	2010	5	184	402	3923
101	0	0	2014	5	184	402	3923
102	0	0	2031	4	183	402	3923
103	0	0	2054	5	184	403	3924
104	0	0	2080	5	183	402	3923
105	0	0	2092	5	183	402	3923
106	0	0	2091	5	184	402	3924
107	0	0	2057	4	184	402	3923
108	0	0	2019	5	184	402	3923
109	0	0	2008	5	184	402	3923
110	0	0	2017	5	183	402	3923
111	0	0	2018	4	183	402	3922
112	0	0	1986	4	183	402	3923
113	0	0	1954	4	183	402	3923
114	0	0	1936	4	184	402	3922
115	0	0	1934	5	184	402	3923
116	0	0	1917	4	184	402	3923
117	0	0	1861	4	184	402	3923
118	0	0	1865	5	184	402	3923
119	0	0	1929	6	183	402	3923
120	0	0	2000	5	184	402	3923
121	0	0	2031	5	185	402	3923
122	0	0	2043	5	183	402	3924
123	0	0	2056	5	184	402	3923
124	0	0	2055	4	184	402	3923
125	0	0	2034	5	184	402	3923
126	0	0	2020	5	184	402	3923
127	0	0	2014	5	183	402	3923
0	0	0	2011	5	183	402	3924
1	0	0	1985	5	184	402	3922
2	0	0	1961	5	184	402	3922
3	0	0	1974	5	183	402	3922
4	0	0	1986	5	184	402	3922
5	0	0	1978	4	184	402	3923
6	0	0	1979	5	184	402	3922
7	0	0	1997	5	182	402	3922
8	0	0	2027	5	184	402	3922
9	0	0	2066	5	183	402	3923
10	0	0	2094	5	183	402	3923
11	0	0	2095	4	184	402	3923
12	0	0	2072	4	185	404	3923
13	0	0	2039	4	186	402	3923
14	0	0	2013	4	184	402	3923
15	0	0	2008	5	185	402	3923
16	0	0	2006	4	185	402	3922
17	0	0	1980	4	184	402	3922
18	0	0	1961	5	184	402	3923
19	0	0	1942	5	184	402	3923
20	0	0	1929	4	184	402	3923
21	0	0	1926	5	183	402	3923
22	0	0	1928	5	184	402	3923
23	0	0	1925	5	185	402	3923
24	0	0	1921	5	182	402	3923
25	0	0	1917	5	183	402	3923
26	0	0	1931	4	184	402	3923
27	0	0	1967	5	183	402	3923
28	0	0	2001	5	183	402	3924
29	0	0	2010	5	184	402	3924
30	0	0	2022	6	183	402	3923
31	0	0	2044	5	183	402	3923
32	0	0	2077	5	184	404	3922
33	0	0	2117	4	184	402	3923
34	0	0	2125	4	184	402	3922
35	0	0	2075	4	184	402	3922
36	0	0	2023	4	184	402	3923
37	0	0	1989	4	184	402	3922
38	0	0	1979	5	183	402	3922
39	0	0	1958	4	184	402	3923
40	0	0	1944	4	184	402	3923
41	0	0	1926	4	183	403	3923
42	0	0	1905	4	183	402	3923
43	0	0	1906	5	184	402	3924
44	0	0	1908	5	183	402	3923
45	0	0	1948	5	183	402	3920
46	0	0	2002	5	183	402	3923
47	0	0	2024	5	184	403	3923
48	0	0	1984	4	184	402	3923
49	0	0	1981	5	183	402	3923
50	0	0	2031	5	184	402	3923
51	0	0	2094	5	185	402	3923
52	0	0	2134	5	185	402	3923
53	0	0	2111	4	185	402	3922
54	0	0	2069	4	184	402	3923
55	0	0	2028	4	183	402	3923
56	0	0	2004	4	184	402	3922
57	0	0	2008	5	184	402	3923
58	0	0	2018	5	185	402	3924
59	0	0	2018	5	184	402	3923
60	0	0	1987	4	184	402	3923
61	0	0	1954	4	183	402	3923
62	0	0	1942	5	184	403	3923
63	0	0	1942	5	184	402	3923
64	0	0	1935	5	183	402	3923
65	0	0	1942	5	183	402	3923
66	0	0	1971	5	183	402	3923
67	0	0	2022	5	184	402	3922
68	0	0	2065	5	184	402	3922
69	0	0	2087	4	184	402	3923
70	0	0	2081	4	183	402	3922
71	0	0	2065	5	184	402	3922
72	0	0	2045	4	184	402	3923
73	0	0	2008	5	185	402	3924
74	0	0	1977	5	184	402	3923
75	0	0	1973	5	184	402	3923
76	0	0	1980	5	184	402	3924
77	0	0	1980	5	184	401	3923
78	0	0	1987	5	184	402	3923
79	0	0	1984	5	184	402	3923
80	0	0	1977	5	183	402	3923
81	0	0	1961	5	182	402	3923
82	0	0	1971	5	184	402	3923
83	0	0	1995	4	184	402	3923
84	0	0	2001	5	183	402	3923
85	0	0	1999	4	184	402	3923
86	0	0	1988	5	184	402	3922
87	0	0	1993	6	184	402	3922
88	0	0	2012	5	182	402	3923
89	0	0	2010	5	183	402	3923
90	0	0	2012	5	184	402	3924
91	0	0	2037	5	184	402	3923
92	0	0	2064	5	184	402	3923
93	0	0	2091	5	184	402	3923
94	0	0	2113	5	183	403	3923
95	0	0	2113	5	183	402	3924
96	0	0	2070	4	185	402	3923
97	0	0	2009	4	184	403	3923
98	0	0	1977	4	183	402	3923
99	0	0	1989	5	183	402	3923
100	0	0	2014	5	184	402	3923
101	0	0	2035	5	184	403	3923
102	0	0	2020	4	183	402	3923
103	0	0	1984	4	184	402	3923
104	0	0	1979	5	183	402	3923
105	0	0	1973	5	184	402	3923
106	0	0	1978	5	183	402	3923
107	0	0	2014	5	183	402	3923
108	0	0	2060	5	183	402	3923
109	0	0	2081	5	183	402	3923
110	0	0	2097	5	184	402	3923
111	0	0	2098	5	184	402	3923
112	0	0	2098	5	184	403	3923
113	0	0	2083	5	184	402	3923
114	0	0	2076	4	184	402	3924
115	0	0	2086	5	184	402	3922
116	0	0	2078	5	185	402	3922
117	0	0	2055	4	183	402	3922
118	0	0	2036	5	183	402	3923
119	0	0	2015	4	184	402	3923
120	0	0	1983	4	184	402	3923
121	0	0	1955	4	183	403	3922
122	0	0	1945	5	184	402	3923
123	0	0	1951	5	183	402	3924
124	0	0	1975	5	184	402	3923
125	0	0	2006	5	183	402	3923
126	0	0	2045	5	184	402	3923
127	0	0	2073	5	183	402	3923
0	0	0	2099	5	183	402	3923
1	0	0	2096	5	184	402	3924
2	0	0	2083	5	184	402	3924
3	0	0	2073	5	185	402	3923
4	0	0	2078	5	184	402	3923
5	0	0	2074	5	184	402	3922
6	0	0	2057	4	185	402	3923
7	0	0	2038	4	183	402	3924
8	0	0	2010	4	185	402	3923
9	0	0	1988	4	184	402	3923
10	0	0	1970	5	183	402	3923
11	0	0	1947	4	185	402	3923
12	0	0	1934	5	183	402	3922
13	0	0	1956	5	183	402	3923
14	0	0	1993	5	183	401	3923
15	0	0	2029	5	183	402	3923
16	0	0	2045	5	184	402	3923
17	0	0	2019	4	183	402	3923
18	0	0	1981	3	183	402	3923
19	0	0	1962	5	183	402	3923
20	0	0	1961	5	185	402	3923
21	0	0	1958	5	184	402	3923
22	0	0	1960	5	183	402	3922
23	0	0	1968	5	184	402	3922
24	0	0	2001	5	185	402	3922
25	0	0	2045	5	185	402	3922
26	0	0	2058	5	184	403	3923
27	0	0	2059	5	185	402	3922
28	0	0	2064	5	184	402	3922
29	0	0	2074	5	184	402	3923
30	0	0	2087	5	185	402	3923
31	0	0	2110	5	184	402	3924
32	0	0	2120	5	183	402	3923
33	0	0	2070	4	183	402	3924
34	0	0	2003	4	184	402	3923
35	0	0	1973	4	184	402	3923
36	0	0	1972	5	183	403	3923
37	0	0	1986	5	183	402	3923
38	0	0	2007	5	184	402	3923
39	0	0	2029	5	184	402	3923
40	0	0	2023	4	184	402	3922
41	0	0	2008	5	183	403	3924
42	0	0	2011	5	184	402	3923
43	0	0	2029	5	184	402	3923
44	0	0	2049	5	185	403	3922
45	0	0	2060	5	183	402	3922
46	0	0	2066	5	184	402	3923
47	0	0	2064	5	183	402	3923
48	0	0	2039	4	184	402	3923
49	0	0	2007	4	184	402	3923
50	0	0	1974	4	184	401	3923
51	0	0	1948	4	183	402	3923
52	0	0	1941	5	183	402	3923
53	0	0	1950	4	184	402	3923
54	0	0	1971	4	183	402	3922
55	0	0	1998	5	183	402	3923
56	0	0	2019	5	183	403	3923
57	0	0	2029	5	184	402	3922
58	0	0	2026	5	183	402	3923
59	0	0	2015	5	184	403	3922
60	0	0	2020	5	184	401	3922
61	0	0	2038	5	183	402	3923
62	0	0	2052	5	184	402	3923
63	0	0	2062	5	184	402	3923
64	0	0	2059	5	184	402	3923
65	0	0	2068	5	184	402	3924
66	0	0	2088	5	184	402	3923
67	0	0	2086	5	184	402	3923
68	0	0	2083	4	184	402	3923
69	0	0	2080	4	184	402	3923
70	0	0	2061	4	183	402	3923
71	0	0	2044	5	183	402	3924
72	0	0	2026	4	183	402	3922
73	0	0	1990	4	184	402	3922
74	0	0	1950	4	183	402	3922
75	0	0	1931	4	184	402	3922
76	0	0	1931	5	183	402	3923
77	0	0	1957	5	184	402	3923
78	0	0	2013	5	182	402	3922
79	0	0	2059	5	183	402	3923
80	0	0	2078	5	184	402	3923
81	0	0	2071	5	184	402	3923
82	0	0	2069	5	184	402	3923
83	0	0	2079	5	183	402	3923
84	0	0	2076	4	184	402	3923
85	0	0	2037	4	185	401	3923
86	0	0	1992	4	184	402	3923
87	0	0	1989	5	183	402	3922
88	0	0	2017	5	184	403	3923
89	0	0	2056	5	184	402	3922
90	0	0	2095	5	184	402	3923
91	0	0	2119	5	185	402	3923
92	0	0	2108	4	183	402	3922
93	0	0	2046	4	183	402	3922
94	0	0	1996	4	183	402	3923
95	0	0	1991	5	184	402	3923
96	0	0	1929	4	183	402	3923
97	0	0	1858	4	183	402	3924
98	0	0	1872	5	184	402	3923
99	0	0	1922	5	184	402	3923
100	0	0	1968	5	183	402	3923
101	0	0	2039	5	184	402	3924
102	0	0	2105	5	184	402	3923
103	0	0	2104	4	183	402	3923
104	0	0	2036	4	184	402	3923
105	0	0	1980	4	185	402	3923
106	0	0	1968	5	185	402	3923
107	0	0	1987	5	185	402	3922
108	0	0	1997	5	184	402	3922
109	0	0	2009	5	184	402	3923
110	0	0	2014	5	185	402	3922
111	0	0	2004	4	185	402	3923
112	0	0	1978	5	183	402	3922
113	0	0	1986	5	183	402	3923
114	0	0	2016	5	184	402	3923
115	0	0	2032	4	184	402	3926
116	0	0	2031	5	184	402	3923
117	0	0	2037	5	183	402	3924
118	0	0	2035	4	184	402	3923
119	0	0	2036	5	183	402	3923
120	0	0	2037	4	184	401	3923
121	0	0	2043	5	184	402	3924
122	0	0	2051	5	183	402	3922
123	0	0	2049	5	184	402	3922
124	0	0	2051	5	184	402	3923
125	0	0	2061	5	183	402	3922
126	0	0	2061	5	184	402	3923
127	0	0	2056	5	184	402	3922
0	0	0	2051	5	184	402	3923
1	0	0	2042	5	185	402	3922
2	0	0	2017	4	184	402	3923
3	0	0	1996	4	184	402	3923
4	0	0	1995	5	184	402	3924
5	0	0	1999	5	184	402	3923
6	0	0	2004	5	184	402	3924
7	0	0	2002	4	183	402	3924
8	0	0	1972	4	184	402	3923
9	0	0	1955	4	183	402	3924
10	0	0	1953	6	183	402	3922
11	0	0	1958	5	183	402	3923
12	0	0	1971	5	184	402	3923
13	0	0	1986	5	183	402	3923
14	0	0	2015	5	184	402	3923
15	0	0	2030	5	184	402	3922
16	0	0	2029	5	184	402	3923
17	0	0	2030	5	184	402	3922
18	0	0	2040	5	185	402	3923
19	0	0	2023	4	184	402	3923
20	0	0	2006	4	183	402	3924
21	0	0	2027	5	184	403	3922
22	0	0	2051	5	184	403	3923
23	0	0	2062	5	184	402	3923
24	0	0	2074	5	183	403	3924
25	0	0	2064	5	184	402	3923
26	0	0	2041	4	182	402	3923
27	0	0	2015	4	184	402	3922
28	0	0	2010	5	183	402	3923
29	0	0	2023	5	183	402	3922
30	0	0	2051	4	182	402	3922
31	0	0	2090	5	185	402	3922
32	0	0	2109	5	183	402	3922
33	0	0	2096	5	185	402	3923
34	0	0	2066	4	183	402	3922
35	0	0	2043	4	184	402	3923
36	0	0	2044	5	184	402	3923
37	0	0	2059	5	184	403	3923
38	0	0	2076	5	184	402	3924
39	0	0	2049	4	183	402	3923
40	0	0	2006	4	183	402	3924
41	0	0	1982	4	184	404	3923
42	0	0	1956	4	184	403	3923
43	0	0	1958	5	183	402	3924
44	0	0	2000	5	184	402	3922
45	0	0	2051	5	184	402	3922
46	0	0	2073	5	184	402	3923
47	0	0	2057	4	183	402	3922
48	0	0	2038	4	183	402	3923
49	0	0	2036	5	183	402	3922
50	0	0	2040	5	184	402	3922
51	0	0	2042	5	183	402	3923
52	0	0	2036	5	184	402	3923
53	0	0	2035	5	183	402	3923
54	0	0	2030	5	184	402	3924
55	0	0	2021	4	184	402	3923
56	0	0	2019	6	184	402	3923
57	0	0	2030	5	185	402	3923
58	0	0	2038	5	184	402	3924
59	0	0	2029	5	184	402	3922
60	0	0	2025	4	184	402	3923
61	0	0	2023	5	183	402	3923
62	0	0	2027	5	184	402	3923
63	0	0	2049	5	184	402	3923
64	0	0	2069	5	183	402	3923
65	0	0	2088	5	183	402	3922
66	0	0	2099	5	183	402	3923
67	0	0	2083	4	184	402	3923
68	0	0	2066	5	183	402	3923
69	0	0	2064	5	183	402	3923
70	0	0	2049	4	182	402	3923
71	0	0	2039	5	183	402	3923
72	0	0	2073	5	183	402	3924
73	0	0	2110	5	183	402	3923
74	0	0	2114	5	183	402	3923
75	0	0	2085	4	184	402	3924
76	0	0	2065	5	184	402	3923
77	0	0	2052	4	184	402	3923
78	0	0	2046	5	184	402	3923
79	0	0	2048	5	184	402	3922
80	0	0	2055	5	184	402	3922
81	0	0	2067	5	184	402	3923
82	0	0	2087	5	183	402	3923
83	0	0	2108	5	183	402	3923
84	0	0	2123	5	183	402	3923
85	0	0	2097	4	184	402	3923
86	0	0	2056	4	184	402	3923
87	0	0	2028	4	184	402	3923
88	0	0	2013	5	183	402	3923
89	0	0	2020	5	184	402	3924
90	0	0	2039	5	184	402	3923
91	0	0	2081	5	183	402	3923
92	0	0	2133	5	184	402	3923
93	0	0	2139	5	184	402	3923
94	0	0	2142	5	184	402	3922
95	0	0	2142	5	184	402	3922
96	0	0	2143	5	184	402	3922
97	0	0	2155	5	184	402	3923
98	0	0	2153	5	184	402	3923
99	0	0	2118	4	184	402	3922
100	0	0	2096	4	185	402	3922
101	0	0	2094	5	185	402	3922
102	0	0	2110	5	183	402	3923
103	0	0	2123	5	184	402	3923
104	0	0	2125	5	183	402	3924
105	0	0	2125	4	184	402	3923
106	0	0	2128	5	183	402	3927
107	0	0	2116	4	184	402	3924
108	0	0	2102	5	182	402	3923
109	0	0	2105	5	183	402	3923
110	0	0	2115	5	182	403	3922
111	0	0	2111	5	184	402	3923
112	0	0	2115	5	183	402	3923
113	0	0	2122	5	183	402	3923
114	0	0	2108	4	184	402	3922
115	0	0	2098	4	184	402	3922
116	0	0	2103	5	183	402	3922
117	0	0	2109	5	184	402	3923
118	0	0	2112	5	184	402	3923
119	0	0	2121	5	184	402	3922
120	0	0	2138	5	185	402	3923
121	0	0	2144	5	184	402	3923
122	0	0	2119	4	184	403	3923
123	0	0	2093	4	183	402	3923
124	0	0	2076	4	184	402	3923
125	0	0	2071	5	184	402	3923
126	0	0	2072	5	184	402	3923
127	0	0	2071	5	183	402	3923
0	0	0	2071	5	184	402	3923
1	0	0	2056	4	184	402	3923
2	0	0	2036	4	183	402	3923
3	0	0	2011	4	183	402	3923
4	0	0	2010	5	184	402	3924
5	0	0	2022	6	183	402	3923
6	0	0	2034	5	184	402	3924
7	0	0	2031	5	183	402	3923
8	0	0	2049	4	183	402	3923
9	0	0	2082	4	184	403	3923
10	0	0	2097	5	184	402	3923
11	0	0	2103	5	184	402	3923
12	0	0	2080	4	184	402	3924
13	0	0	2069	5	184	403	3923
14	0	0	2079	5	183	402	3923
15	0	0	2090	5	184	402	3924
16	0	0	2099	5	184	402	3922
17	0	0	2106	5	184	402	3923
18	0	0	2086	4	183	402	3922
19	0	0	2053	4	184	403	3923
20	0	0	2039	5	183	402	3923
21	0	0	2059	5	183	402	3923
22	0	0	2078	5	184	402	3922
23	0	0	2084	5	184	402	3922
24	0	0	2081	5	185	402	3923
25	0	0	2067	5	184	402	3923
26	0	0	2063	5	184	402	3923
27	0	0	2049	5	184	402	3923
28	0	0	2023	4	184	402	3923
29	0	0	2014	5	184	402	3923
30	0	0	2038	5	183	402	3923
31	0	0	2051	5	184	402	3923
32	0	0	2024	3	184	402	3922
33	0	0	1991	4	184	402	3923
34	0	0	1992	5	184	402	3923
35	0	0	2002	5	184	402	3923
36	0	0	1988	4	184	402	3922
37	0	0	1963	4	184	402	3923
38	0	0	1958	5	184	402	3923
39	0	0	1972	5	183	402	3923
40	0	0	2008	5	183	402	3923
41	0	0	2055	5	183	402	3923
42	0	0	2076	5	184	402	3923
43	0	0	2072	4	182	402	3923
44	0	0	2058	4	184	402	3923
45	0	0	2051	5	183	402	3924
46	0	0	2065	5	184	402	3923
47	0	0	2071	5	183	402	3923
48	0	0	2069	5	184	402	3922
49	0	0	2076	5	183	402	3922
50	0	0	2061	4	183	402	3923
51	0	0	2046	4	184	402	3923
52	0	0	2049	5	184	403	3922
53	0	0	2061	4	184	402	3922
54	0	0	2057	5	184	402	3923
55	0	0	2037	4	183	402	3923
56	0	0	2021	4	184	402	3924
57	0	0	2002	4	184	402	3923
58	0	0	1980	4	184	402	3923
59	0	0	1968	5	184	403	3923
60	0	0	1978	5	183	402	3923
61	0	0	2001	5	183	402	3923
62	0	0	2011	5	184	402	3924
63	0	0	2017	5	183	402	3923
64	0	0	2025	5	183	401	3923
65	0	0	2033	5	183	402	3923
66	0	0	2003	4	184	402	3922
67	0	0	1988	5	184	403	3922
68	0	0	1980	4	184	402	3923
69	0	0	1936	4	184	403	3923
70	0	0	1908	5	183	402	3923
71	0	0	1948	5	184	402	3923
72	0	0	2007	4	184	402	3922
73	0	0	2040	5	184	402	3922
74	0	0	2038	5	185	403	3923
75	0	0	2037	5	183	402	3923
76	0	0	2041	5	183	402	3923
77	0	0	2014	4	184	402	3923
78	0	0	1970	4	184	402	3923
79	0	0	1964	5	183	403	3923
80	0	0	1972	5	183	403	3923
81	0	0	1971	5	183	402	3922
82	0	0	1969	5	183	402	3923
83	0	0	1987	5	184	402	3923
84	0	0	2012	5	183	402	3924
85	0	0	2031	5	182	402	3923
86	0	0	2053	5	184	402	3922
87	0	0	2066	5	185	402	3922
88	0	0	2060	5	183	403	3923
89	0	0	2063	5	183	403	3923
90	0	0	2079	5	184	402	3924
91	0	0	2100	5	184	402	3923
92	0	0	2118	5	184	403	3924
93	0	0	2103	4	185	402	3923
94	0	0	2046	4	184	403	3923
95	0	0	1995	4	184	402	3924
96	0	0	1959	4	184	402	3923
97	0	0	1939	4	182	402	3923
98	0	0	1943	5	184	402	3923
99	0	0	1972	5	183	403	3923
100	0	0	1996	5	183	402	3923
101	0	0	1974	4	183	402	3922
102	0	0	1942	4	183	402	3922
103	0	0	1918	3	184	402	3923
104	0	0	1940	5	184	402	3924
105	0	0	2001	5	182	402	3923
106	0	0	2060	5	184	402	3924
107	0	0	2085	7	184	402	3923
108	0	0	2088	5	184	402	3923
109	0	0	2093	5	184	402	3924
110	0	0	2101	5	183	402	3923
111	0	0	2092	4	184	402	3923
112	0	0	2057	4	184	402	3923
113	0	0	2033	5	183	402	3923
114	0	0	2038	5	184	402	3923
115	0	0	2073	5	184	402	3924
116	0	0	2098	5	183	402	3923
117	0	0	2102	5	183	402	3922
118	0	0	2082	3	184	402	3923
119	0	0	2057	5	183	402	3923
120	0	0	2016	4	184	402	3923
121	0	0	1987	4	183	402	3923
122	0	0	1970	4	183	402	3923
123	0	0	1930	4	183	402	3923
124	0	0	1900	5	184	402	3924
125	0	0	1934	5	184	402	3923
126	0	0	2002	5	184	402	3923
127	0	0	2073	5	183	403	3924
0	0	0	2142	5	184	402	3923
1	0	0	2199	5	184	402	3923
2	0	0	2215	5	184	402	3924
3	0	0	2208	5	184	402	3923
4	0	0	2175	5	184	403	3924
5	0	0	2136	4	184	402	3923
6	0	0	2111	5	184	402	3923
7	0	0	2090	4	184	402	3923
8	0	0	2088	5	184	402	3923
9	0	0	2102	5	183	402	3923
10	0	0	2140	5	185	402	3923
11	0	0	2201	5	184	402	3923
12	0	0	2253	5	183	402	3923
13	0	0	2275	5	184	402	3923
14	0	0	2276	5	183	402	3923
15	0	0	2267	5	184	402	3923
16	0	0	2277	5	184	403	3923
17	0	0	2289	5	183	402	3924
18	0	0	2298	4	184	402	3923
19	0	0	2318	5	183	403	3923
20	0	0	2350	5	184	402	3923
21	0	0	2382	5	184	402	3924
22	0	0	2408	5	184	402	3923
23	0	0	2438	5	183	402	3922
24	0	0	2482	5	183	402	3922
25	0	0	2528	5	183	402	3923
26	0	0	2559	5	183	403	3923
27	0	0	2577	5	184	402	3923
28	0	0	2555	4	183	402	3923
29	0	0	2509	4	184	402	3924
30	0	0	2475	4	183	402	3923
31	0	0	2445	4	184	402	3923
32	0	0	2411	4	183	402	3923
33	0	0	2369	4	182	402	3924
34	0	0	2309	4	184	402	3923
35	0	0	2253	4	183	402	3923
36	0	0	2231	5	184	402	3923
37	0	0	2209	5	183	402	3923
38	0	0	2173	4	185	402	3923
39	0	0	2146	4	184	402	3923
40	0	0	2136	5	184	402	3923
41	0	0	2122	4	184	403	3923
42	0	0	2087	4	184	402	3923
43	0	0	2042	4	185	402	3923
44	0	0	2003	4	184	402	3923
45	0	0	1969	5	184	402	3923
46	0	0	1947	4	184	402	3923
47	0	0	1926	4	184	402	3924
48	0	0	1883	4	183	402	3924
49	0	0	1859	4	184	402	3924
50	0	0	1869	5	184	402	3923
51	0	0	1861	4	184	403	3923
52	0	0	1840	4	183	402	3923
53	0	0	1825	4	183	402	3924
54	0	0	1824	6	185	402	3922
55	0	0	1839	5	184	402	3922
56	0	0	1859	5	184	403	3922
57	0	0	1871	5	183	402	3923
58	0	0	1870	6	184	402	3922
59	0	0	1872	5	184	402	3923
60	0	0	1878	5	183	402	3923
61	0	0	1882	5	184	403	3923
62	0	0	1897	5	185	402	3924
63	0	0	1909	5	183	402	3923
64	0	0	1908	5	184	403	3923
65	0	0	1914	5	184	402	3923
66	0	0	1948	5	184	402	3924
67	0	0	1983	5	183	402	3924
68	0	0	1983	5	185	402	3923
69	0	0	1983	5	182	402	3924
70	0	0	1979	5	183	402	3923
71	0	0	1951	4	183	403	3923
72	0	0	1919	4	183	402	3923
73	0	0	1913	5	183	402	3922
74	0	0	1948	5	183	402	3922
75	0	0	1987	4	184	402	3923
76	0	0	2013	5	183	402	3923
77	0	0	2042	5	183	402	3923
78	0	0	2056	5	184	402	3923
79	0	0	2044	4	184	402	3923
80	0	0	2037	5	183	402	3923
81	0	0	2027	4	184	403	3923
82	0	0	2022	5	184	402	3923
83	0	0	2028	5	184	402	3924
84	0	0	2015	3	185	402	3923
85	0	0	1992	4	183	402	3923
86	0	0	1981	5	185	402	3924
87	0	0	1974	5	183	402	3923
88	0	0	1977	5	184	403	3924
89	0	0	1995	4	184	402	3922
90	0	0	2008	5	183	402	3923
91	0	0	2003	4	184	402	3924
92	0	0	1979	4	184	402	3923
93	0	0	1953	4	185	402	3922
94	0	0	1947	5	183	401	3924
95	0	0	1967	5	183	402	3923
96	0	0	1974	5	184	402	3923
97	0	0	1962	5	183	402	3923
98	0	0	1956	5	184	402	3923
99	0	0	1968	5	185	402	3923
100	0	0	2005	5	185	402	3923
101	0	0	2044	5	183	402	3923
102	0	0	2046	4	183	402	3923
103	0	0	2032	5	184	402	3923
104	0	0	2033	6	185	402	3922
105	0	0	2045	6	184	402	3922
106	0	0	2056	5	183	402	3923
107	0	0	2028	4	184	402	3923
108	0	0	1980	5	184	402	3922
109	0	0	1966	5	182	403	3922
110	0	0	1994	5	184	402	3923
111	0	0	2013	5	183	402	3923
112	0	0	2016	5	184	402	3923
113	0	0	2022	5	183	402	3923
114	0	0	2017	5	184	402	3923
115	0	0	2035	5	183	402	3923
116	0	0	2056	5	184	402	3923
117	0	0	2048	5	184	402	3923
118	0	0	2039	5	183	402	3924
119	0	0	2062	6	184	402	3923
120	0	0	2085	5	184	402	3923
121	0	0	2093	5	185	402	3923
122	0	0	2090	5	183	402	3923
123	0	0	2079	5	184	402	3922
124	0	0	2086	5	184	402	3922
125	0	0	2083	4	184	402	3923
126	0	0	2048	4	184	402	3922
127	0	0	2012	4	184	402	3922
0	0	0	1995	5	184	402	3923
1	0	0	2002	5	184	402	3924
2	0	0	2007	5	184	404	3923
3	0	0	2002	5	183	402	3923
4	0	0	1993	5	183	402	3924
5	0	0	2007	5	183	402	3923
6	0	0	2034	5	183	402	3923
7	0	0	2053	5	183	402	3923
8	0	0	2059	5	183	402	3923
9	0	0	2051	5	184	402	3923
10	0	0	2022	4	184	402	3923
11	0	0	2026	5	184	402	3922
12	0	0	2044	5	183	402	3922
13	0	0	2062	5	184	402	3922
14	0	0	2080	5	184	402	3923
15	0	0	2091	5	184	402	3923
16	0	0	2101	4	183	403	3922
17	0	0	2087	5	185	402	3922
18	0	0	2046	4	184	402	3923
19	0	0	2027	5	183	402	3924
20	0	0	2022	5	183	402	3923
21	0	0	1990	4	183	402	3923
22	0	0	1978	5	183	402	3923
23	0	0	1986	5	184	403	3923
24	0	0	1998	5	183	402	3923
25	0	0	1998	5	183	402	3922
26	0	0	1991	5	183	402	3922
27	0	0	1988	5	183	402	3923
28	0	0	1998	5	184	402	3923
29	0	0	2019	5	183	402	3923
30	0	0	2063	5	185	402	3923
31	0	0	2090	5	184	402	3922
32	0	0	2096	5	185	402	3922
33	0	0	2118	5	184	402	3923
34	0	0	2121	4	183	403	3923
35	0	0	2090	5	184	402	3923
36	0	0	2061	4	184	402	3924
37	0	0	2043	5	184	402	3923
38	0	0	2017	4	184	403	3923
39	0	0	2003	5	184	402	3923
40	0	0	2017	5	184	402	3923
41	0	0	2052	4	183	402	3923
42	0	0	2079	5	184	402	3923
43	0	0	2075	4	184	402	3923
44	0	0	2059	4	183	403	3923
45	0	0	2058	5	183	402	3923
46	0	0	2065	5	184	402	3922
47	0	0	2057	5	184	402	3923
48	0	0	2052	5	183	402	3923
49	0	0	2061	5	184	402	3923
50	0	0	2078	5	184	402	3924
51	0	0	2068	4	184	402	3923
52	0	0	2065	5	184	402	3923
53	0	0	2077	5	184	402	3923
54	0	0	2088	5	184	403	3923
55	0	0	2101	5	183	402	3923
56	0	0	2129	5	183	402	3923
57	0	0	2158	5	183	403	3923
58	0	0	2173	4	184	402	3923
59	0	0	2174	5	184	402	3924
60	0	0	2145	4	184	402	3923
61	0	0	2111	4	184	402	3923
62	0	0	2069	4	184	402	3923
63	0	0	2039	4	183	402	3923
64	0	0	2032	5	184	403	3923
65	0	0	2044	5	183	402	3922
66	0	0	2056	5	183	402	3922
67	0	0	2073	5	183	402	3923
68	0	0	2094	5	184	403	3923
69	0	0	2103	4	184	402	3923
70	0	0	2103	5	184	402	3923
71	0	0	2113	5	183	402	3923
72	0	0	2144	5	183	403	3923
73	0	0	2176	5	184	402	3923
74	0	0	2202	5	184	402	3923
75	0	0	2218	5	184	402	3924
76	0	0	2189	4	185	402	3922
77	0	0	2147	4	184	402	3923
78	0	0	2116	4	184	402	3923
79	0	0	2106	5	183	402	3923
80	0	0	2098	5	184	402	3922
81	0	0	2082	4	183	402	3924
82	0	0	2075	5	183	402	3923
83	0	0	2075	4	184	402	3923
84	0	0	2094	5	183	402	3924
85	0	0	2108	5	182	402	3923
86	0	0	2124	5	184	402	3923
87	0	0	2140	6	184	402	3923
88	0	0	2170	5	183	402	3924
89	0	0	2178	5	184	403	3924
90	0	0	2161	4	183	402	3924
91	0	0	2163	5	184	403	3923
92	0	0	2183	6	184	402	3923
93	0	0	2206	5	184	402	3923
94	0	0	2211	5	184	402	3923
95	0	0	2206	5	183	402	3922
96	0	0	2189	4	184	402	3924
97	0	0	2183	5	184	402	3923
98	0	0	2186	5	184	402	3923
99	0	0	2177	5	184	402	3923
100	0	0	2144	4	183	402	3923
101	0	0	2094	4	184	402	3923
102	0	0	2036	5	184	402	3923
103	0	0	2000	4	183	402	3924
104	0	0	2016	5	183	402	3923
105	0	0	2049	5	183	402	3923
106	0	0	2072	5	183	402	3923
107	0	0	2087	4	184	402	3923
108	0	0	2090	5	183	402	3923
109	0	0	2094	5	183	402	3923
110	0	0	2102	5	184	402	3922
111	0	0	2115	5	184	402	3923
112	0	0	2117	5	183	403	3923
113	0	0	2114	5	185	402	3923
114	0	0	2128	5	184	402	3923
115	0	0	2145	5	185	402	3922
116	0	0	2168	5	184	402	3923
117	0	0	2175	4	183	402	3923
118	0	0	2136	4	184	402	3923
119	0	0	2089	4	184	402	3923
120	0	0	2078	5	183	402	3924
121	0	0	2087	6	184	402	3923
122	0	0	2094	6	183	402	3923
123	0	0	2091	5	183	402	3924
124	0	0	2089	5	183	402	3923
125	0	0	2089	4	183	402	3924
126	0	0	2073	5	184	402	3922
127	0	0	2055	6	183	402	3923
0	0	0	2038	4	183	402	3924
1	0	0	2022	5	183	402	3923
2	0	0	2023	5	184	402	3924
3	0	0	2022	5	184	403	3923
4	0	0	2037	5	183	402	3923
5	0	0	2055	5	184	403	3924
6	0	0	2065	5	184	403	3923
7	0	0	2086	6	184	402	3923
8	0	0	2099	5	183	402	3923
9	0	0	2084	5	184	402	3923
10	0	0	2065	4	184	402	3923
11	0	0	2063	5	184	402	3923
12	0	0	2082	5	185	402	3923
13	0	0	2096	5	183	402	3923
14	0	0	2089	4	184	402	3923
15	0	0	2048	4	183	402	3923
16	0	0	2019	4	183	402	3923
17	0	0	2031	5	183	402	3922
18	0	0	2033	5	183	402	3924
19	0	0	2020	4	183	402	3923
20	0	0	2015	5	184	402	3923
21	0	0	2020	5	184	402	3923
22	0	0	2034	5	183	402	3923
23	0	0	2048	5	183	402	3923
24	0	0	2039	5	185	402	3923
25	0	0	2038	5	185	402	3923
26	0	0	2041	5	184	402	3923
27	0	0	2048	5	185	402	3924
28	0	0	2048	5	183	403	3923
29	0	0	2037	5	184	402	3923
30	0	0	2015	4	185	402	3924
31	0	0	1984	4	184	402	3923
32	0	0	1974	5	184	402	3924
33	0	0	1977	5	184	402	3922
34	0	0	1966	5	185	402	3922
35	0	0	1949	4	183	402	3923
36	0	0	1936	5	183	402	3923
37	0	0	1934	5	183	402	3922
38	0	0	1951	5	183	402	3924
39	0	0	1974	5	184	402	3923
40	0	0	1983	5	183	402	3923
41	0	0	1961	4	184	402	3923
42	0	0	1955	5	184	402	3923
43	0	0	1961	4	184	402	3923
44	0	0	1960	5	184	402	3923
45	0	0	1962	5	184	403	3923
46	0	0	1974	5	185	402	3923
47	0	0	2001	6	184	402	3924
48	0	0	2012	5	184	402	3923
49	0	0	1981	5	184	402	3923
50	0	0	1957	4	185	403	3923
51	0	0	1928	4	183	402	3923
52	0	0	1930	5	184	402	3924
53	0	0	1955	6	184	402	3923
54	0	0	1998	5	184	402	3923
55	0	0	2023	5	184	402	3923
56	0	0	2001	4	183	402	3923
57	0	0	1975	5	183	402	3923
58	0	0	1963	5	183	402	3923
59	0	0	1966	5	183	402	3923
60	0	0	1945	4	183	402	3924
61	0	0	1908	5	184	402	3923
62	0	0	1902	5	184	402	3923
63	0	0	1939	4	184	402	3923
64	0	0	1986	5	184	402	3923
65	0	0	2001	5	184	402	3923
66	0	0	1980	4	184	402	3923
67	0	0	1982	5	183	402	3924
68	0	0	1998	5	184	402	3922
69	0	0	2014	5	184	402	3923
70	0	0	2000	4	184	403	3923
71	0	0	1977	4	184	402	3923
72	0	0	1968	5	184	402	3923
73	0	0	1966	5	183	402	3923
74	0	0	1950	5	184	402	3923
75	0	0	1934	4	184	402	3923
76	0	0	1927	4	183	402	3924
77	0	0	1938	5	183	402	3923
78	0	0	1966	5	183	402	3924
79	0	0	1965	4	183	403	3923
80	0	0	1945	4	183	402	3923
81	0	0	1937	4	184	402	3924
82	0	0	1942	6	184	402	3923
83	0	0	1963	5	184	402	3922
84	0	0	1995	4	185	402	3922
85	0	0	2022	5	183	402	3923
86	0	0	2020	5	184	402	3923
87	0	0	2008	5	185	402	3922
88	0	0	2008	4	184	402	3923
89	0	0	2022	6	184	402	3923
90	0	0	2039	5	184	402	3923
91	0	0	2039	5	184	402	3923
92	0	0	2017	5	184	402	3924
93	0	0	1988	4	185	402	3923
94	0	0	1967	5	183	402	3923
95	0	0	1949	4	183	402	3923
96	0	0	1937	5	183	402	3924
97	0	0	1927	5	183	402	3922
98	0	0	1935	5	184	402	3922
99	0	0	1948	5	184	401	3922
100	0	0	1953	5	184	402	3922
101	0	0	1963	5	185	402	3923
102	0	0	1991	4	184	402	3924
103	0	0	2024	6	184	402	3922
104	0	0	2045	5	184	402	3922
105	0	0	2045	5	185	402	3923
106	0	0	2049	5	184	401	3923
107	0	0	2055	5	184	402	3922
108	0	0	2060	5	184	402	3924
109	0	0	2055	5	185	402	3924
110	0	0	2035	4	184	402	3923
111	0	0	2020	4	183	402	3923
112	0	0	2020	5	183	402	3923
113	0	0	2018	5	183	402	3923
114	0	0	1996	4	184	402	3923
115	0	0	1964	4	183	402	3923
116	0	0	1920	4	183	402	3923
117	0	0	1928	5	183	402	3922
118	0	0	1946	5	183	402	3922
119	0	0	1938	4	184	402	3922
120	0	0	1922	4	183	402	3923
121	0	0	1927	5	184	402	3923
122	0	0	1953	5	184	402	3922
123	0	0	1985	5	184	402	3922
124	0	0	2012	5	185	402	3923
125	0	0	2025	5	184	402	3923
126	0	0	2029	5	185	401	3923
127	0	0	2019	5	184	402	3923
0	0	0	2020	5	184	402	3923
1	0	0	2026	5	184	402	3923
2	0	0	2028	5	184	402	3923
3	0	0	2019	5	184	401	3923
4	0	0	2008	5	183	402	3923
5	0	0	2013	5	184	402	3922
6	0	0	2004	4	184	402	3923
7	0	0	1989	5	184	402	3923
8	0	0	1985	5	184	402	3923
9	0	0	2038	5	183	402	3923
10	0	0	2107	5	183	402	3923
11	0	0	2100	5	183	402	3923
12	0	0	2060	4	184	402	3923
13	0	0	2018	4	184	401	3923
14	0	0	1991	3	184	402	3924
15	0	0	1976	5	183	402	3923
16	0	0	2000	5	184	402	3923
17	0	0	2050	5	183	402	3924
18	0	0	2087	5	185	401	3923
19	0	0	2086	4	184	402	3924
20	0	0	2032	4	184	402	3922
21	0	0	1988	4	183	403	3923
22	0	0	1989	5	183	402	3923
23	0	0	2020	5	182	401	3923
24	0	0	2032	5	183	402	3922
25	0	0	2032	5	183	403	3923
26	0	0	2019	4	183	402	3922
27	0	0	2009	5	183	402	3923
28	0	0	2020	5	183	402	3924
29	0	0	2031	5	183	402	3923
30	0	0	2002	4	184	402	3923
31	0	0	1960	4	183	402	3923
32	0	0	1957	5	184	402	3924
33	0	0	1988	5	184	401	3923
34	0	0	2019	4	184	402	3924
35	0	0	2027	5	185	402	3923
36	0	0	2013	5	183	402	3923
37	0	0	1988	4	185	402	3924
38	0	0	1968	5	184	401	3923
39	0	0	1970	5	184	402	3922
40	0	0	1990	5	184	403	3922
41	0	0	2006	5	184	403	3923
42	0	0	2015	5	183	402	3923
43	0	0	2029	5	184	402	3923
44	0	0	2052	5	183	402	3922
45	0	0	2088	5	184	402	3923
46	0	0	2122	6	183	402	3923
47	0	0	2119	4	184	402	3923
48	0	0	2081	4	183	402	3924
49	0	0	2042	4	184	402	3923
50	0	0	2017	4	183	402	3923
51	0	0	1991	5	184	402	3923
52	0	0	1981	5	184	403	3923
53	0	0	2002	5	184	402	3923
54	0	0	2049	4	184	402	3923
55	0	0	2084	5	184	402	3923
56	0	0	2101	6	184	402	3923
57	0	0	2091	4	184	402	3924
58	0	0	2073	4	184	401	3923
59	0	0	2062	4	185	402	3922
60	0	0	2065	5	185	402	3930
61	0	0	2089	6	184	402	3923
62	0	0	2109	5	184	402	3923
63	0	0	2108	4	184	402	3924
64	0	0	2074	5	184	402	3923
65	0	0	2030	4	184	402	3923
66	0	0	2000	4	183	402	3923
67	0	0	1982	4	182	402	3924
68	0	0	1967	5	183	402	3924
69	0	0	1952	5	184	403	3922
70	0	0	1954	5	183	402	3923
71	0	0	1957	5	184	403	3924
72	0	0	1973	5	184	404	3923
73	0	0	1992	5	184	402	3923
74	0	0	1999	4	184	403	3923
75	0	0	1987	5	183	402	3923
76	0	0	1992	5	184	402	3922
77	0	0	2005	5	183	402	3922
78	0	0	2016	5	184	402	3923
79	0	0	2034	5	183	402	3923
80	0	0	2039	5	183	402	3924
81	0	0	2033	5	184	403	3924
82	0	0	2033	3	184	402	3923
83	0	0	2034	4	184	402	3924
84	0	0	2041	5	183	402	3923
85	0	0	2039	5	184	402	3923
86	0	0	2039	5	183	402	3923
87	0	0	2046	5	183	402	3923
88	0	0	2063	5	183	402	3923
89	0	0	2086	5	183	402	3922
90	0	0	2082	4	183	402	3922
91	0	0	2044	4	184	403	3922
92	0	0	2025	4	184	402	3924
93	0	0	2032	5	184	402	3923
94	0	0	2046	4	184	402	3923
95	0	0	2049	5	185	402	3923
96	0	0	2026	4	185	402	3923
97	0	0	1979	4	184	402	3924
98	0	0	1938	4	183	402	3924
99	0	0	1917	4	184	402	3923
100	0	0	1920	5	184	402	3923
101	0	0	1960	6	184	402	3923
102	0	0	1995	4	184	402	3922
103	0	0	2005	5	183	402	3924
104	0	0	1988	5	183	402	3922
105	0	0	1961	4	184	402	3923
106	0	0	1959	5	183	402	3923
107	0	0	1976	5	183	402	3923
108	0	0	1978	5	183	402	3923
109	0	0	1980	4	183	402	3922
110	0	0	1989	5	183	402	3924
111	0	0	1999	5	183	402	3924
112	0	0	2005	5	183	402	3922
113	0	0	2023	5	184	402	3923
114	0	0	2060	5	184	402	3923
115	0	0	2079	5	183	402	3923
116	0	0	2073	4	183	402	3923
117	0	0	2068	5	184	402	3924
118	0	0	2068	5	183	402	3923
119	0	0	2060	5	184	402	3922
120	0	0	2061	5	183	402	3922
121	0	0	2067	6	184	402	3923
122	0	0	2067	6	185	402	3923
123	0	0	2062	5	184	402	3923
124	0	0	2056	4	183	402	3923
125	0	0	2034	4	185	402	3922
126	0	0	1996	4	183	403	3922
127	0	0	1949	4	184	402	3922
0	0	0	1904	4	184	403	3924
1	0	0	1887	5	183	403	3924
2	0	0	1916	5	183	402	3923
3	0	0	1970	6	184	402	3923
4	0	0	2024	6	184	402	3923
5	0	0	2060	5	184	402	3924
6	0	0	2106	5	184	402	3924
7	0	0	2162	5	183	402	3923
8	0	0	2183	5	183	402	3923
9	0	0	2152	4	183	402	3924
10	0	0	2115	4	184	402	3923
11	0	0	2084	3	183	402	3926
12	0	0	2060	4	185	402	3922
13	0	0	2044	4	185	402	3922
14	0	0	2028	6	184	402	3923
15	0	0	2039	5	184	402	3923
16	0	0	2051	5	184	402	3922
17	0	0	2049	4	184	402	3923
18	0	0	2021	5	184	402	3923
19	0	0	1987	5	182	402	3923
20	0	0	1960	4	184	402	3923
21	0	0	1964	4	183	402	3923
22	0	0	1980	6	183	402	3923
23	0	0	1965	5	183	402	3923
24	0	0	1973	6	183	402	3923
25	0	0	2003	5	184	402	3924
26	0	0	2030	5	184	402	3922
27	0	0	2065	5	184	403	3923
28	0	0	2083	5	184	402	3923
29	0	0	2048	4	184	403	3923
30	0	0	2031	4	184	402	3923
31	0	0	2030	5	183	402	3923
32	0	0	2016	4	184	402	3923
33	0	0	2007	5	184	403	3923
34	0	0	2020	4	184	402	3923
35	0	0	2051	5	183	402	3923
36	0	0	2074	5	184	402	3923
37	0	0	2087	5	184	402	3923
38	0	0	2074	5	183	402	3923
39	0	0	2001	5	183	402	3923
40	0	0	1928	4	183	402	3923
41	0	0	1906	5	183	402	3922
42	0	0	1919	5	183	402	3922
43	0	0	1928	5	184	402	3923
44	0	0	1950	4	184	402	3923
45	0	0	1981	5	183	402	3924
46	0	0	2022	5	184	402	3923
47	0	0	2069	5	184	402	3923
48	0	0	2086	5	184	403	3924
49	0	0	2083	4	184	402	3923
50	0	0	2078	5	184	402	3924
51	0	0	2071	5	183	402	3923
52	0	0	2079	5	184	402	3923
53	0	0	2078	4	183	402	3923
54	0	0	2055	4	184	402	3923
55	0	0	2029	4	183	402	3923
56	0	0	2010	5	184	402	3923
57	0	0	1996	6	183	402	3923
58	0	0	1997	5	183	401	3923
59	0	0	1998	5	183	402	3923
60	0	0	1999	5	183	402	3923
61	0	0	1995	4	184	403	3926
62	0	0	1986	4	186	402	3922
63	0	0	1974	5	183	402	3923
64	0	0	1974	5	184	402	3924
65	0	0	1986	5	184	402	3923
66	0	0	2009	5	183	402	3923
67	0	0	2026	5	183	402	3923
68	0	0	2033	5	184	402	3923
69	0	0	2033	5	185	402	3923
70	0	0	2037	5	183	402	3923
71	0	0	2038	5	183	402	3923
72	0	0	2041	5	184	402	3924
73	0	0	2029	4	185	402	3924
74	0	0	2003	4	185	402	3923
75	0	0	1988	4	184	402	3923
76	0	0	1993	4	184	402	3924
77	0	0	1998	5	183	402	3922
78	0	0	1999	5	184	402	3923
79	0	0	1985	5	183	402	3923
80	0	0	1984	5	184	402	3923
81	0	0	1996	5	183	402	3923
82	0	0	2004	5	185	402	3922
83	0	0	2001	5	183	402	3923
84	0	0	2006	5	183	402	3923
85	0	0	2041	5	183	402	3923
86	0	0	2080	5	183	402	3923
87	0	0	2111	5	184	402	3923
88	0	0	2074	5	184	402	3923
89	0	0	2020	4	184	402	3923
90	0	0	1991	4	184	402	3923
91	0	0	1994	5	184	402	3922
92	0	0	2021	5	184	402	3922
93	0	0	2035	6	184	402	3923
94	0	0	2057	5	184	402	3923
95	0	0	2079	5	184	402	3924
96	0	0	2080	5	184	402	3922
97	0	0	2041	4	183	403	3923
98	0	0	1975	4	184	402	3924
99	0	0	1939	3	184	402	3923
100	0	0	1950	5	183	402	3923
101	0	0	1963	6	183	402	3923
102	0	0	1962	5	183	402	3923
103	0	0	1958	5	184	402	3923
104	0	0	1970	5	184	402	3924
105	0	0	1994	5	184	402	3923
106	0	0	2013	5	184	402	3923
107	0	0	2020	5	184	402	3924
108	0	0	2024	5	184	402	3923
109	0	0	2059	4	185	402	3923
110	0	0	2093	4	184	402	3922
111	0	0	2090	5	183	402	3922
112	0	0	2083	5	184	402	3922
113	0	0	2065	4	185	402	3922
114	0	0	2064	5	184	402	3923
115	0	0	2096	5	184	402	3923
116	0	0	2108	5	183	402	3922
117	0	0	2105	5	183	402	3923
118	0	0	2118	6	183	402	3923
119	0	0	2125	5	184	402	3923
120	0	0	2117	5	184	402	3923
121	0	0	2110	5	183	402	3924
122	0	0	2081	4	185	402	3923
123	0	0	2032	4	184	402	3923
124	0	0	2004	4	184	402	3924
125	0	0	1998	5	183	402	3923
126	0	0	2011	5	183	402	3922
127	0	0	2043	5	184	402	3922
0	0	0	2090	5	184	402	3923
1	0	0	2131	5	184	402	3923
2	0	0	2143	5	184	402	3923
3	0	0	2125	5	184	402	3922
4	0	0	2090	4	185	402	3922
5	0	0	2062	5	184	402	3923
6	0	0	2041	3	184	402	3923
7	0	0	2039	5	184	402	3923
8	0	0	2051	5	184	402	3923
9	0	0	2056	5	184	402	3924
10	0	0	2046	4	183	402	3924
11	0	0	2046	4	183	402	3923
12	0	0	2051	5	183	402	3924
13	0	0	2055	6	184	402	3922
14	0	0	2066	5	184	402	3923
15	0	0	2079	5	184	402	3923
16	0	0	2094	4	183	402	3923
17	0	0	2113	5	184	402	3924
18	0	0	2139	5	183	402	3922
19	0	0	2147	5	184	402	3923
20	0	0	2128	5	183	402	3924
21	0	0	2078	4	184	402	3923
22	0	0	2059	5	184	402	3924
23	0	0	2057	5	184	402	3923
24	0	0	2057	4	184	402	3923
25	0	0	2069	5	182	402	3923
26	0	0	2085	5	184	402	3924
27	0	0	2088	5	184	402	3923
28	0	0	2068	4	183	402	3923
29	0	0	2040	3	184	402	3923
30	0	0	2033	5	184	402	3923
31	0	0	2053	5	184	402	3923
32	0	0	2054	5	183	402	3924
33	0	0	2025	4	183	402	3922
34	0	0	2006	4	183	402	3922
35	0	0	2002	5	184	402	3922
36	0	0	2002	4	183	402	3922
37	0	0	2016	5	183	402	3923
38	0	0	2024	5	184	402	3923
39	0	0	2026	5	183	402	3923
40	0	0	2011	4	184	402	3923
41	0	0	2019	5	184	402	3924
42	0	0	2059	5	184	402	3923
43	0	0	2105	5	184	402	3924
44	0	0	2115	5	184	402	3923
45	0	0	2097	4	184	402	3923
46	0	0	2069	4	184	402	3923
47	0	0	2045	5	184	402	3923
48	0	0	2022	4	184	402	3922
49	0	0	1980	4	184	402	3922
50	0	0	1955	4	183	402	3923
51	0	0	1949	5	183	402	3923
52	0	0	1974	5	182	402	3923
53	0	0	1986	5	183	402	3922
54	0	0	1998	5	184	402	3923
55	0	0	2012	5	184	402	3923
56	0	0	2020	4	183	402	3923
57	0	0	2023	4	184	402	3924
58	0	0	2032	5	184	402	3924
59	0	0	2035	5	185	402	3923
60	0	0	2018	5	184	402	3923
61	0	0	1999	4	184	402	3923
62	0	0	1984	4	184	402	3923
63	0	0	1988	5	183	402	3923
64	0	0	1991	4	184	402	3922
65	0	0	1968	5	184	402	3923
66	0	0	1975	3	184	402	3923
67	0	0	1987	5	183	403	3924
68	0	0	1981	5	183	402	3922
69	0	0	1992	5	183	402	3924
70	0	0	2002	5	183	402	3924
71	0	0	1991	4	183	402	3923
72	0	0	1963	4	183	402	3923
73	0	0	1917	4	182	402	3923
74	0	0	1890	5	184	402	3923
75	0	0	1895	5	183	402	3923
76	0	0	1936	5	183	402	3924
77	0	0	1983	5	184	402	3923
78	0	0	2012	5	184	402	3924
79	0	0	2013	6	184	402	3923
80	0	0	1992	4	185	402	3922
81	0	0	1962	3	184	402	3923
82	0	0	1953	5	184	402	3923
83	0	0	1947	5	183	402	3922
84	0	0	1937	6	184	402	3924
85	0	0	1933	5	183	402	3922
86	0	0	1940	5	184	402	3922
87	0	0	1960	5	183	402	3922
88	0	0	1969	5	184	402	3923
89	0	0	1949	4	183	402	3922
90	0	0	1955	5	184	402	3923
91	0	0	1976	4	183	402	3923
92	0	0	1988	5	183	402	3923
93	0	0	1985	5	183	402	3923
94	0	0	1988	5	183	402	3923
95	0	0	1991	5	184	402	3923
96	0	0	1967	4	183	402	3923
97	0	0	1943	4	184	402	3922
98	0	0	1946	5	184	402	3924
99	0	0	1954	5	184	402	3922
100	0	0	1952	5	183	402	3923
101	0	0	1949	5	184	403	3923
102	0	0	1958	5	184	402	3922
103	0	0	1997	4	184	402	3922
104	0	0	2041	5	184	402	3923
105	0	0	2062	5	185	402	3923
106	0	0	2044	4	183	402	3923
107	0	0	2000	4	183	402	3923
108	0	0	1958	4	184	402	3923
109	0	0	1939	5	184	402	3923
110	0	0	1940	5	184	402	3923
111	0	0	1943	4	183	402	3923
112	0	0	1960	5	184	402	3923
113	0	0	1980	5	184	402	3922
114	0	0	1988	5	183	402	3924
115	0	0	1967	5	183	402	3923
116	0	0	1944	4	183	402	3923
117	0	0	1939	5	183	402	3923
118	0	0	1948	6	184	402	3923
119	0	0	1964	5	183	402	3922
120	0	0	1958	4	185	403	3922
121	0	0	1952	4	184	402	3924
122	0	0	1973	5	184	402	3922
123	0	0	2007	5	184	402	3924
124	0	0	2005	4	184	402	3923
125	0	0	1982	5	184	402	3923
126	0	0	1968	4	184	402	3923
127	0	0	1975	5	183	402	3924
0	0	0	1970	4	184	402	3923
1	0	0	1942	5	183	402	3923
2	0	0	1951	5	184	402	3923
3	0	0	1975	5	183	402	3923
4	0	0	1979	4	184	402	3922
5	0	0	1963	5	183	402	3922
6	0	0	1951	4	185	402	3923
7	0	0	1934	4	184	402	3922
8	0	0	1910	4	183	402	3923
9	0	0	1913	5	184	402	3923
10	0	0	1919	5	183	402	3924
11	0	0	1959	5	184	403	3923
12	0	0	1995	5	184	402	3923
13	0	0	2014	5	184	402	3924
14	0	0	2031	5	183	402	3923
15	0	0	2064	5	184	402	3923
16	0	0	2085	5	184	402	3923
17	0	0	2104	5	182	402	3923
18	0	0	2135	5	183	402	3923
19	0	0	2132	4	184	402	3922
20	0	0	2048	4	185	402	3923
21	0	0	1942	4	184	401	3923
22	0	0	1883	4	183	402	3924
23	0	0	1861	4	184	402	3923
24	0	0	1874	5	183	402	3923
25	0	0	1903	5	184	402	3922
26	0	0	1925	5	183	402	3923
27	0	0	1930	5	184	402	3923
28	0	0	1924	5	183	402	3923
29	0	0	1942	5	185	402	3923
30	0	0	1989	5	184	402	3923
31	0	0	2036	5	184	402	3923
32	0	0	2076	5	183	402	3923
33	0	0	2109	4	184	402	3923
34	0	0	2115	5	184	402	3923
35	0	0	2087	4	183	402	3924
36	0	0	2032	4	184	401	3922
37	0	0	1980	4	186	403	3923
38	0	0	1971	5	185	402	3923
39	0	0	1979	5	184	402	3922
40	0	0	2016	4	184	402	3922
41	0	0	2066	5	183	402	3923
42	0	0	2118	5	182	402	3923
43	0	0	2134	5	184	402	3923
44	0	0	2123	5	184	402	3923
45	0	0	2106	4	184	402	3923
46	0	0	2104	5	183	402	3923
47	0	0	2132	5	183	402	3924
48	0	0	2165	5	183	402	3923
49	0	0	2192	5	184	402	3923
50	0	0	2225	5	183	402	3924
51	0	0	2265	5	183	402	3923
52	0	0	2300	5	185	402	3922
53	0	0	2342	4	183	402	3923
54	0	0	2391	5	184	402	3923
55	0	0	2435	5	183	402	3922
56	0	0	2471	5	184	402	3923
57	0	0	2491	5	184	402	3922
58	0	0	2497	5	184	402	3923
59	0	0	2497	5	184	402	3923
60	0	0	2496	5	184	402	3923
61	0	0	2506	5	183	404	3923
62	0	0	2522	5	185	402	3923
63	0	0	2512	5	183	402	3924
64	0	0	2479	4	183	402	3923
65	0	0	2436	4	184	402	3923
66	0	0	2428	5	184	402	3923
67	0	0	2434	5	182	402	3923
68	0	0	2415	4	185	403	3923
69	0	0	2370	4	183	402	3923
70	0	0	2328	4	184	402	3923
71	0	0	2313	5	184	404	3922
72	0	0	2281	5	184	402	3923
73	0	0	2234	4	184	402	3923
74	0	0	2212	4	183	402	3922
75	0	0	2200	4	184	401	3922
76	0	0	2163	4	184	404	3922
77	0	0	2117	4	184	402	3923
78	0	0	2111	5	184	402	3923
79	0	0	2097	4	183	402	3923
80	0	0	2060	4	183	402	3924
81	0	0	2008	4	186	402	3923
82	0	0	1944	4	184	402	3923
83	0	0	1867	4	184	402	3924
84	0	0	1785	4	184	402	3923
85	0	0	1744	4	184	402	3924
86	0	0	1755	5	185	402	3923
87	0	0	1783	5	185	402	3923
88	0	0	1816	5	184	402	3923
89	0	0	1833	5	183	402	3923
90	0	0	1814	4	184	402	3923
91	0	0	1796	4	183	402	3923
92	0	0	1783	3	185	402	3923
93	0	0	1803	5	184	402	3923
94	0	0	1833	5	184	402	3923
95	0	0	1847	5	184	402	3922
96	0	0	1849	5	184	402	3923
97	0	0	1879	5	185	402	3924
98	0	0	1930	5	184	402	3924
99	0	0	1953	5	184	402	3924
100	0	0	1945	4	183	402	3923
101	0	0	1924	4	183	402	3923
102	0	0	1891	4	184	402	3924
103	0	0	1854	5	183	402	3923
104	0	0	1864	5	183	402	3924
105	0	0	1916	5	184	402	3922
106	0	0	1961	5	183	402	3922
107	0	0	1954	4	184	402	3923
108	0	0	1937	5	184	402	3923
109	0	0	1934	5	184	402	3923
110	0	0	1934	5	184	402	3923
111	0	0	1948	5	183	403	3923
112	0	0	1972	5	184	402	3923
113	0	0	2000	5	184	402	3923
114	0	0	2012	5	184	402	3923
115	0	0	2013	5	183	403	3923
116	0	0	2000	4	184	404	3923
117	0	0	1956	5	184	402	3923
118	0	0	1924	4	185	402	3923
119	0	0	1912	5	184	402	3923
120	0	0	1921	5	184	402	3922
121	0	0	1937	5	183	403	3923
122	0	0	1955	5	184	402	3923
123	0	0	1965	5	183	402	3923
124	0	0	1954	5	183	402	3922
125	0	0	1931	4	184	402	3922
126	0	0	1924	5	183	403	3922
127	0	0	1928	5	184	402	3923
0	0	0	1929	5	184	402	3923
1	0	0	1944	5	184	402	3923
2	0	0	1959	5	184	402	3923
3	0	0	1971	5	183	402	3923
4	0	0	2012	5	184	402	3923
5	0	0	2034	5	185	402	3924
6	0	0	2040	5	184	402	3924
7	0	0	2040	5	184	402	3922
8	0	0	2050	5	184	402	3923
9	0	0	2070	5	184	402	3924
10	0	0	2105	5	184	402	3923
11	0	0	2111	5	183	402	3924
12	0	0	2078	4	183	402	3924
13	0	0	2023	4	183	402	3923
14	0	0	1986	4	184	402	3923
15	0	0	1978	5	184	402	3924
16	0	0	1966	4	183	402	3923
17	0	0	1947	4	184	402	3923
18	0	0	1934	5	184	402	3923
19	0	0	1941	5	184	402	3924
20	0	0	1956	5	183	402	3924
21	0	0	1984	5	184	402	3923
22	0	0	2011	5	184	402	3923
23	0	0	2027	4	185	402	3923
24	0	0	2037	5	184	402	3923
25	0	0	2041	5	184	402	3923
26	0	0	2035	5	184	402	3922
27	0	0	2028	5	185	402	3922
28	0	0	2009	4	184	402	3922
29	0	0	1979	5	183	402	3923
30	0	0	1973	5	184	402	3923
31	0	0	1969	5	184	402	3924
32	0	0	1980	5	184	402	3923
33	0	0	2002	5	184	402	3923
34	0	0	2001	4	184	402	3924
35	0	0	1962	4	183	402	3923
36	0	0	1918	4	184	402	3924
37	0	0	1896	4	184	402	3923
38	0	0	1884	4	184	402	3923
39	0	0	1896	5	184	402	3923
40	0	0	1959	5	185	402	3924
41	0	0	2035	5	184	402	3923
42	0	0	2031	4	185	402	3923
43	0	0	2004	5	184	402	3923
44	0	0	2018	5	184	402	3923
45	0	0	2049	5	183	402	3923
46	0	0	2072	5	184	402	3922
47	0	0	2070	5	184	402	3922
48	0	0	2055	4	185	402	3923
49	0	0	2073	5	184	402	3923
50	0	0	2084	5	184	402	3923
51	0	0	2050	4	184	402	3923
52	0	0	2015	4	184	402	3923
53	0	0	2001	4	184	402	3923
54	0	0	2027	5	183	402	3924
55	0	0	2066	4	184	403	3924
56	0	0	2100	5	184	403	3924
57	0	0	2115	5	184	402	3923
58	0	0	2093	4	184	402	3923
59	0	0	2046	4	184	402	3924
60	0	0	2017	4	183	402	3923
61	0	0	2037	5	184	402	3923
62	0	0	2074	5	183	402	3924
63	0	0	2092	5	184	403	3926
64	0	0	2084	4	183	402	3923
65	0	0	2063	5	184	402	3924
66	0	0	2072	5	184	402	3923
67	0	0	2095	5	184	402	3923
68	0	0	2070	5	184	402	3923
69	0	0	2040	4	185	402	3923
70	0	0	2035	5	184	402	3923
71	0	0	2049	5	184	402	3924
72	0	0	2066	5	183	402	3923
73	0	0	2064	5	184	402	3923
74	0	0	2040	4	183	401	3923
75	0	0	2020	4	184	402	3923
76	0	0	2021	7	184	402	3923
77	0	0	2036	5	183	402	3923
78	0	0	2059	5	183	403	3922
79	0	0	2060	5	184	402	3923
80	0	0	2048	5	183	403	3923
81	0	0	2045	5	184	402	3923
82	0	0	2056	5	184	402	3923
83	0	0	2078	5	183	402	3923
84	0	0	2096	5	185	402	3923
85	0	0	2111	5	183	402	3924
86	0	0	2089	4	184	402	3924
87	0	0	2059	3	184	402	3923
88	0	0	2046	5	183	402	3923
89	0	0	2062	6	184	402	3924
90	0	0	2089	5	184	402	3923
91	0	0	2110	5	183	402	3923
92	0	0	2118	5	184	402	3923
93	0	0	2120	5	184	402	3922
94	0	0	2117	4	183	402	3923
95	0	0	2080	4	183	402	3923
96	0	0	2041	4	183	402	3923
97	0	0	2015	4	183	402	3924
98	0	0	2018	5	185	402	3922
99	0	0	2037	5	184	401	3923
100	0	0	2077	5	185	402	3924
101	0	0	2125	5	183	402	3924
102	0	0	2154	5	184	402	3923
103	0	0	2146	4	184	402	3924
104	0	0	2104	4	184	402	3923
105	0	0	2070	4	184	402	3924
106	0	0	2079	5	184	402	3923
107	0	0	2112	5	184	402	3923
108	0	0	2145	5	185	402	3922
109	0	0	2161	5	183	401	3923
110	0	0	2166	5	183	402	3923
111	0	0	2167	5	184	402	3923
112	0	0	2166	5	183	402	3923
113	0	0	2150	4	183	402	3922
114	0	0	2122	4	184	401	3923
115	0	0	2116	5	183	402	3923
116	0	0	2130	5	183	402	3923
117	0	0	2132	5	183	402	3924
118	0	0	2109	4	184	402	3923
119	0	0	2086	4	184	402	3923
120	0	0	2066	5	184	402	3924
121	0	0	2082	5	184	402	3923
122	0	0	2127	5	184	402	3923
123	0	0	2159	5	184	402	3922
124	0	0	2166	5	183	402	3923
125	0	0	2144	4	183	402	3923
126	0	0	2140	5	184	402	3922
127	0	0	2164	5	184	402	3922
0	0	0	2193	4	184	402	3922
1	0	0	2211	5	185	402	3922
2	0	0	2188	4	185	402	3923
3	0	0	2144	4	184	402	3924
4	0	0	2117	5	184	402	3923
5	0	0	2122	5	184	402	3923
6	0	0	2130	5	183	402	3924
7	0	0	2131	5	183	402	3923
8	0	0	2134	5	184	402	3923
9	0	0	2143	5	182	402	3923
10	0	0	2153	4	185	402	3923
11	0	0	2163	5	183	402	3923
12	0	0	2147	4	185	402	3923
13	0	0	2110	4	183	402	3923
14	0	0	2098	5	183	402	3922
15	0	0	2129	5	184	402	3922
16	0	0	2160	5	185	402	3922
17	0	0	2160	5	182	402	3923
18	0	0	2146	5	185	402	3923
19	0	0	2164	5	184	402	3922
20	0	0	2191	5	184	402	3923
21	0	0	2193	4	185	402	3923
22	0	0	2165	4	184	402	3923
23	0	0	2155	5	183	402	3924
24	0	0	2132	4	184	402	3923
25	0	0	2092	4	184	402	3924
26	0	0	2060	4	183	402	3924
27	0	0	2046	4	184	402	3924
28	0	0	2051	5	184	403	3924
29	0	0	2062	5	182	402	3923
30	0	0	2072	5	183	402	3923
31	0	0	2085	5	183	402	3923
32	0	0	2103	5	184	402	3923
33	0	0	2125	5	184	402	3922
34	0	0	2141	5	183	402	3922
35	0	0	2147	5	184	402	3922
36	0	0	2150	5	184	402	3923
37	0	0	2136	5	185	402	3923
38	0	0	2120	4	184	402	3923
39	0	0	2117	5	184	402	3923
40	0	0	2123	5	184	402	3923
41	0	0	2132	5	184	402	3923
42	0	0	2119	4	185	402	3923
43	0	0	2095	4	183	402	3923
44	0	0	2054	4	183	402	3923
45	0	0	2000	4	185	402	3923
46	0	0	1971	4	183	402	3923
47	0	0	1969	4	184	402	3923
48	0	0	1981	5	184	402	3922
49	0	0	2006	4	183	402	3923
50	0	0	2028	5	183	402	3923
51	0	0	2039	5	183	403	3923
52	0	0	2072	5	184	402	3923
53	0	0	2102	5	183	402	3922
54	0	0	2094	4	183	402	3923
55	0	0	2068	4	184	403	3923
56	0	0	2071	5	184	402	3923
57	0	0	2089	5	184	402	3924
58	0	0	2083	4	184	402	3923
59	0	0	2057	4	184	402	3923
60	0	0	2035	4	184	402	3923
61	0	0	2023	4	183	402	3923
62	0	0	2010	5	184	402	3923
63	0	0	1991	4	183	402	3922
64	0	0	1963	4	184	402	3922
65	0	0	1951	5	184	402	3923
66	0	0	1968	5	184	402	3923
67	0	0	1999	5	183	402	3923
68	0	0	2009	5	184	402	3922
69	0	0	1983	4	183	402	3922
70	0	0	1954	4	184	402	3923
71	0	0	1948	5	184	402	3924
72	0	0	1957	5	184	402	3923
73	0	0	1971	5	184	402	3924
74	0	0	1981	6	183	402	3923
75	0	0	1970	5	183	402	3924
76	0	0	1962	5	184	402	3924
77	0	0	1964	5	184	402	3924
78	0	0	1987	5	184	402	3923
79	0	0	2024	5	185	402	3922
80	0	0	2036	5	185	402	3922
81	0	0	2017	4	184	402	3922
82	0	0	2002	4	184	402	3923
83	0	0	2002	5	183	402	3922
84	0	0	1989	4	184	402	3922
85	0	0	1949	4	183	402	3923
86	0	0	1919	4	184	402	3923
87	0	0	1919	5	184	402	3923
88	0	0	1916	5	183	402	3923
89	0	0	1919	5	183	402	3924
90	0	0	1944	5	183	403	3923
91	0	0	1967	5	183	402	3923
92	0	0	1990	5	183	402	3924
93	0	0	2002	5	184	402	3923
94	0	0	2008	5	182	402	3924
95	0	0	2016	5	184	403	3923
96	0	0	2002	4	184	403	3922
97	0	0	1987	4	184	402	3923
98	0	0	1986	5	184	402	3923
99	0	0	1987	5	184	402	3923
100	0	0	1988	5	184	402	3923
101	0	0	2010	5	184	402	3923
102	0	0	2033	5	184	402	3923
103	0	0	2016	5	183	402	3923
104	0	0	2014	5	184	402	3923
105	0	0	2009	5	183	402	3923
106	0	0	1988	4	184	403	3923
107	0	0	1954	4	184	402	3924
108	0	0	1933	4	184	402	3923
109	0	0	1930	5	183	402	3924
110	0	0	1943	5	183	403	3923
111	0	0	1963	5	183	402	3923
112	0	0	1980	5	183	402	3923
113	0	0	1999	5	184	402	3923
114	0	0	2027	5	183	402	3923
115	0	0	2053	5	183	402	3923
116	0	0	2040	4	184	402	3924
117	0	0	2010	4	183	402	3923
118	0	0	1996	4	184	402	3922
119	0	0	1983	4	185	402	3923
120	0	0	1983	5	185	402	3923
121	0	0	1968	4	184	402	3923
122	0	0	1972	5	184	402	3924
123	0	0	1980	5	184	402	3923
124	0	0	1968	5	183	402	3923
125	0	0	1985	5	184	402	3923
126	0	0	2029	5	184	402	3924
127	0	0	2048	5	184	402	3923
0	0	0	2049	5	183	402	3924
1	0	0	2048	4	183	402	3923
2	0	0	2018	4	184	402	3922
3	0	0	1978	4	184	402	3922
4	0	0	1955	4	183	402	3923
5	0	0	1942	4	184	402	3922
6	0	0	1931	3	183	402	3923
7	0	0	1912	4	183	402	3923
8	0	0	1894	4	185	402	3923
9	0	0	1895	5	183	402	3924
10	0	0	1917	5	184	402	3922
11	0	0	1956	5	184	402	3923
12	0	0	1981	4	184	402	3923
13	0	0	1991	5	184	402	3924
14	0	0	2021	5	183	402	3924
15	0	0	2040	5	184	402	3923
16	0	0	2007	4	185	402	3923
17	0	0	1978	5	185	402	3923
18	0	0	1980	5	183	402	3923
19	0	0	1960	4	184	402	3924
20	0	0	1921	4	184	402	3923
21	0	0	1928	5	183	402	3922
22	0	0	1966	5	184	402	3923
23	0	0	1997	5	183	402	3923
24	0	0	2022	5	184	402	3923
25	0	0	2044	5	184	402	3922
26	0	0	2070	5	183	402	3923
27	0	0	2098	5	184	402	3923
28	0	0	2121	5	184	402	3923
29	0	0	2119	5	183	401	3923
30	0	0	2082	4	184	402	3924
31	0	0	2042	4	185	402	3923
32	0	0	2023	4	184	402	3923
33	0	0	2015	5	183	402	3924
34	0	0	2015	5	183	402	3923
35	0	0	2010	5	183	402	3923
36	0	0	2003	4	185	402	3923
37	0	0	1978	4	184	402	3922
38	0	0	1948	4	184	403	3923
39	0	0	1929	4	183	402	3923
40	0	0	1938	5	184	402	3923
41	0	0	1953	5	184	402	3924
42	0	0	1980	5	184	402	3924
43	0	0	2012	5	183	403	3923
44	0	0	2030	5	184	402	3924
45	0	0	2034	5	184	402	3923
46	0	0	2041	5	184	402	3923
47	0	0	2042	5	184	402	3923
48	0	0	2046	5	184	402	3924
49	0	0	2040	4	184	402	3924
50	0	0	2018	4	184	402	3923
51	0	0	2017	5	183	402	3922
52	0	0	2028	5	184	402	3923
53	0	0	2050	5	184	401	3923
54	0	0	2060	5	183	402	3923
55	0	0	2043	4	184	402	3923
56	0	0	2023	4	183	402	3923
57	0	0	2008	4	183	402	3923
58	0	0	2009	5	184	403	3924
59	0	0	2012	5	183	402	3923
60	0	0	1994	4	183	402	3923
61	0	0	1966	4	184	402	3923
62	0	0	1967	5	183	402	3923
63	0	0	2008	5	183	403	3923
64	0	0	2037	5	183	402	3924
65	0	0	2045	5	184	402	3923
66	0	0	2049	5	183	402	3924
67	0	0	2053	5	183	402	3923
68	0	0	2013	4	184	402	3923
69	0	0	1972	4	183	402	3924
70	0	0	1983	5	184	402	3923
71	0	0	2016	5	184	403	3922
72	0	0	2035	5	183	402	3923
73	0	0	2043	5	184	402	3923
74	0	0	2041	5	183	402	3923
75	0	0	2027	4	184	402	3922
76	0	0	2009	4	183	402	3923
77	0	0	2002	5	183	402	3923
78	0	0	2007	5	184	402	3923
79	0	0	2019	5	184	402	3924
80	0	0	2037	5	183	402	3924
81	0	0	2037	5	184	402	3923
82	0	0	2021	4	184	402	3923
83	0	0	2015	5	183	402	3924
84	0	0	2015	5	184	402	3923
85	0	0	2016	5	184	402	3922
86	0	0	1989	4	184	402	3922
87	0	0	1971	5	183	402	3922
88	0	0	1990	5	184	402	3923
89	0	0	2039	4	183	402	3923
90	0	0	2055	5	183	402	3922
91	0	0	2042	7	183	402	3922
92	0	0	2042	5	184	402	3923
93	0	0	2053	5	184	401	3923
94	0	0	2073	5	183	402	3923
95	0	0	2073	4	183	402	3924
96	0	0	2032	4	183	402	3923
97	0	0	2001	4	184	402	3923
98	0	0	1988	5	184	402	3924
99	0	0	1976	4	183	402	3923
100	0	0	1971	5	184	402	3923
101	0	0	1988	4	184	402	3922
102	0	0	2010	5	183	402	3923
103	0	0	2026	5	183	402	3923
104	0	0	2037	5	183	402	3924
105	0	0	2053	5	184	402	3922
106	0	0	2082	5	183	402	3922
107	0	0	2102	5	185	402	3923
108	0	0	2102	5	184	402	3923
109	0	0	2085	4	183	402	3923
110	0	0	2076	5	183	402	3922
111	0	0	2078	5	184	402	3922
112	0	0	2076	5	183	402	3923
113	0	0	2052	4	184	401	3924
114	0	0	2017	4	183	402	3924
115	0	0	1996	5	184	402	3923
116	0	0	2000	5	184	402	3923
117	0	0	2035	5	184	402	3923
118	0	0	2075	5	184	402	3924
119	0	0	2084	5	183	402	3923
120	0	0	2054	4	184	402	3922
121	0	0	1996	5	184	402	3923
122	0	0	1962	5	185	402	3922
123	0	0	1942	4	183	403	3923
124	0	0	1952	5	183	402	3931
125	0	0	1973	5	183	402	3923
126	0	0	1981	5	183	402	3922
127	0	0	2011	5	183	402	3923
0	0	0	2059	5	184	401	3923
1	0	0	2087	5	182	402	3923
2	0	0	2090	5	184	402	3924
3	0	0	2064	4	184	402	3923
4	0	0	2021	4	183	402	3923
5	0	0	1990	4	184	402	3924
6	0	0	2008	5	183	402	3923
7	0	0	2035	5	183	403	3923
8	0	0	2024	4	183	403	3924
9	0	0	1989	5	183	402	3922
10	0	0	1967	5	184	403	3923
11	0	0	1965	5	184	402	3923
12	0	0	1984	5	184	402	3922
13	0	0	1999	5	184	402	3922
14	0	0	2008	5	184	402	3923
15	0	0	2034	5	184	402	3923
16	0	0	2065	5	183	402	3923
17	0	0	2074	5	185	402	3923
18	0	0	2088	5	183	402	3923
19	0	0	2102	4	184	402	3924
20	0	0	2082	4	183	401	3924
21	0	0	2082	5	184	402	3924
22	0	0	2087	5	184	402	3924
23	0	0	2067	5	184	402	3922
24	0	0	2031	4	184	402	3922
25	0	0	2006	4	185	402	3923
26	0	0	1988	4	184	402	3924
27	0	0	1980	5	184	402	3924
28	0	0	1984	5	184	402	3922
29	0	0	1987	5	184	402	3923
30	0	0	1982	5	184	402	3923
31	0	0	1987	5	183	402	3923
32	0	0	2005	5	184	402	3923
33	0	0	2011	5	183	402	3923
34	0	0	2002	4	184	402	3923
35	0	0	1998	5	183	402	3923
36	0	0	1985	4	184	402	3923
37	0	0	1983	5	184	402	3923
38	0	0	2009	5	184	402	3923
39	0	0	2060	5	184	402	3923
40	0	0	2113	5	184	403	3923
41	0	0	2111	4	184	402	3923
42	0	0	2077	5	184	402	3922
43	0	0	2049	4	185	402	3922
44	0	0	2043	4	184	402	3923
45	0	0	2057	5	184	402	3923
46	0	0	2073	5	182	402	3923
47	0	0	2067	5	185	402	3922
48	0	0	2037	4	183	402	3922
49	0	0	1996	4	183	402	3923
50	0	0	1965	4	183	403	3923
51	0	0	1965	5	183	402	3923
52	0	0	1997	5	184	402	3923
53	0	0	2024	5	183	402	3923
54	0	0	2027	5	183	402	3923
55	0	0	2004	4	184	402	3923
56	0	0	1976	4	181	402	3923
57	0	0	1975	5	183	402	3922
58	0	0	2001	5	184	402	3923
59	0	0	2036	5	185	402	3923
60	0	0	2057	5	183	402	3923
61	0	0	2059	5	184	402	3924
62	0	0	2068	5	184	402	3922
63	0	0	2081	5	184	403	3923
64	0	0	2062	4	183	403	3923
65	0	0	2019	4	185	402	3922
66	0	0	1999	5	184	402	3924
67	0	0	2006	5	184	402	3923
68	0	0	2027	5	183	402	3924
69	0	0	2010	4	183	402	3923
70	0	0	1982	4	183	403	3923
71	0	0	2012	5	183	402	3924
72	0	0	2052	5	184	402	3923
73	0	0	2026	4	184	402	3924
74	0	0	1976	4	183	402	3923
75	0	0	1984	5	183	402	3922
76	0	0	2014	5	184	402	3923
77	0	0	2035	5	184	402	3922
78	0	0	2049	5	183	402	3922
79	0	0	2068	3	184	402	3923
80	0	0	2083	5	184	402	3923
81	0	0	2070	3	184	402	3923
82	0	0	2034	4	184	402	3923
83	0	0	2038	5	184	402	3923
84	0	0	2057	5	183	403	3923
85	0	0	2064	5	184	402	3923
86	0	0	2037	4	183	402	3923
87	0	0	1999	4	185	402	3924
88	0	0	1989	4	183	402	3923
89	0	0	1994	4	183	402	3923
90	0	0	1996	5	184	402	3924
91	0	0	1990	5	183	402	3923
92	0	0	2008	5	184	402	3922
93	0	0	2028	4	185	402	3922
94	0	0	2010	4	183	403	3922
95	0	0	2003	5	184	403	3923
96	0	0	2032	5	183	402	3923
97	0	0	2058	5	184	402	3923
98	0	0	2039	4	184	402	3924
99	0	0	2024	4	183	402	3923
100	0	0	2022	5	184	402	3922
101	0	0	2026	5	184	402	3924
102	0	0	2058	5	184	402	3923
103	0	0	2094	5	184	402	3924
104	0	0	2113	5	185	402	3923
105	0	0	2130	5	184	403	3923
106	0	0	2138	5	184	402	3923
107	0	0	2084	4	184	402	3922
108	0	0	2002	4	183	402	3922
109	0	0	1978	4	184	402	3923
110	0	0	1962	4	184	402	3923
111	0	0	1977	5	184	402	3923
112	0	0	1994	5	184	402	3922
113	0	0	1972	4	184	402	3922
114	0	0	1962	5	183	402	3922
115	0	0	1961	5	184	403	3923
116	0	0	1970	5	184	402	3924
117	0	0	1983	5	183	402	3923
118	0	0	1992	5	183	402	3923
119	0	0	1994	5	184	402	3923
120	0	0	2005	5	183	402	3923
121	0	0	2028	5	184	402	3923
122	0	0	2057	4	184	402	3922
123	0	0	2090	5	183	402	3923
124	0	0	2123	5	184	402	3923
125	0	0	2129	5	183	402	3922
126	0	0	2111	4	184	402	3923
127	0	0	2081	4	184	402	3922
0	0	0	2046	4	184	402	3922
1	0	0	2021	4	184	402	3923
2	0	0	2024	5	184	402	3922
3	0	0	2068	5	183	402	3923
4	0	0	2106	5	184	402	3922
5	0	0	2084	4	183	402	3922
6	0	0	2053	5	184	402	3923
7	0	0	2058	5	183	403	3923
8	0	0	2076	5	183	402	3923
9	0	0	2091	5	184	402	3923
10	0	0	2070	4	183	402	3923
11	0	0	2041	4	183	402	3923
12	0	0	2032	5	183	402	3923
13	0	0	2038	5	183	402	3923
14	0	0	2056	5	185	403	3922
15	0	0	2050	5	183	402	3922
16	0	0	2045	5	184	402	3923
17	0	0	2049	5	185	402	3923
18	0	0	2043	5	183	402	3923
19	0	0	2029	4	184	402	3923
20	0	0	2029	5	183	402	3924
21	0	0	2044	5	184	402	3923
22	0	0	2062	5	184	402	3923
23	0	0	2068	5	184	402	3924
24	0	0	2059	5	184	402	3923
25	0	0	2039	4	185	402	3924
26	0	0	2039	5	185	403	3923
27	0	0	2041	5	183	402	3923
28	0	0	2063	5	184	402	3924
29	0	0	2092	5	184	402	3922
30	0	0	2079	4	184	402	3923
31	0	0	2034	4	182	402	3922
32	0	0	2016	4	184	403	3922
33	0	0	2016	5	183	403	3923
34	0	0	2015	5	184	402	3923
35	0	0	2044	5	184	402	3922
36	0	0	2095	5	183	402	3922
37	0	0	2119	4	184	402	3923
38	0	0	2103	5	184	402	3923
39	0	0	2094	5	184	402	3923
40	0	0	2091	5	184	402	3924
41	0	0	2073	4	184	402	3923
42	0	0	2051	4	184	402	3923
43	0	0	2029	4	184	402	3924
44	0	0	2008	4	184	402	3923
45	0	0	1996	5	184	402	3924
46	0	0	2000	5	184	402	3923
47	0	0	2018	5	183	402	3923
48	0	0	2043	5	184	402	3923
49	0	0	2074	5	184	402	3923
50	0	0	2111	5	184	402	3922
51	0	0	2128	5	183	402	3923
52	0	0	2108	4	184	402	3924
53	0	0	2080	4	184	402	3923
54	0	0	2066	4	184	402	3923
55	0	0	2072	5	183	402	3923
56	0	0	2087	5	184	402	3923
57	0	0	2090	5	184	402	3923
58	0	0	2091	5	184	403	3923
59	0	0	2076	5	184	402	3923
60	0	0	2078	5	184	402	3923
61	0	0	2101	5	182	403	3923
62	0	0	2114	5	183	403	3922
63	0	0	2100	5	184	402	3923
64	0	0	2094	5	183	402	3923
65	0	0	2100	5	183	401	3923
66	0	0	2104	5	185	402	3924
67	0	0	2098	4	183	402	3923
68	0	0	2069	5	184	402	3924
69	0	0	2042	5	184	402	3923
70	0	0	2063	5	185	402	3924
71	0	0	2106	4	184	402	3923
72	0	0	2144	4	183	402	3923
73	0	0	2163	5	183	402	3923
74	0	0	2153	5	184	402	3923
75	0	0	2148	5	183	402	3924
76	0	0	2142	5	184	402	3923
77	0	0	2135	5	184	403	3923
78	0	0	2116	4	184	402	3923
79	0	0	2085	4	184	402	3923
80	0	0	2060	4	183	402	3923
81	0	0	2044	4	185	402	3923
82	0	0	2048	5	184	402	3924
83	0	0	2050	5	183	403	3923
84	0	0	2017	5	183	402	3923
85	0	0	2009	5	184	402	3922
86	0	0	2033	5	183	402	3922
87	0	0	2055	5	184	402	3923
88	0	0	2071	5	184	402	3923
89	0	0	2074	5	183	402	3923
90	0	0	2041	4	184	402	3924
91	0	0	2003	4	184	402	3923
92	0	0	1998	5	184	402	3923
93	0	0	2011	5	184	403	3923
94	0	0	2040	5	183	402	3924
95	0	0	2096	7	184	402	3922
96	0	0	2142	5	183	402	3923
97	0	0	2118	4	184	402	3923
98	0	0	2057	4	184	402	3923
99	0	0	2002	4	185	402	3922
100	0	0	1988	5	184	402	3922
101	0	0	2015	5	184	402	3923
102	0	0	2057	5	184	403	3923
103	0	0	2079	5	182	403	3923
104	0	0	2069	5	183	402	3922
105	0	0	2049	4	183	401	3924
106	0	0	2023	4	183	402	3924
107	0	0	2016	4	183	402	3923
108	0	0	2049	5	183	402	3924
109	0	0	2068	5	183	402	3924
110	0	0	2057	5	184	402	3923
111	0	0	2073	5	183	402	3923
112	0	0	2082	4	184	402	3923
113	0	0	2084	5	184	403	3923
114	0	0	2067	4	184	402	3922
115	0	0	2049	4	184	402	3922
116	0	0	2027	4	183	403	3922
117	0	0	1997	4	184	402	3922
118	0	0	1985	5	183	402	3923
119	0	0	1972	4	183	402	3922
120	0	0	1947	4	184	402	3924
121	0	0	1917	5	183	402	3923
122	0	0	1925	5	184	402	3923
123	0	0	1939	5	184	402	3923
124	0	0	1943	5	184	402	3923
125	0	0	1940	5	183	402	3923
126	0	0	1951	5	183	402	3923
127	0	0	1968	4	185	402	3923
0	0	0	1973	5	183	402	3923
1	0	0	1992	5	183	402	3923
2	0	0	2016	5	184	402	3922
3	0	0	2027	5	184	403	3923
4	0	0	2016	4	184	402	3922
5	0	0	2000	5	184	402	3923
6	0	0	2005	5	184	402	3922
7	0	0	2018	5	183	401	3923
8	0	0	2023	5	183	402	3923
9	0	0	2035	5	185	402	3923
10	0	0	2048	5	184	403	3923
11	0	0	2049	5	184	402	3924
12	0	0	2045	6	183	402	3923
13	0	0	2056	6	184	402	3923
14	0	0	2045	4	184	402	3923
15	0	0	2009	4	184	402	3923
16	0	0	1986	4	183	402	3922
17	0	0	1976	4	184	402	3923
18	0	0	1975	5	183	403	3923
19	0	0	1972	4	184	402	3923
20	0	0	1982	5	183	402	3923
21	0	0	2003	5	184	402	3922
22	0	0	2049	5	183	401	3923
23	0	0	2092	5	184	402	3923
24	0	0	2129	5	184	402	3923
25	0	0	2122	4	184	403	3924
26	0	0	2067	4	184	402	3923
27	0	0	2018	4	184	402	3923
28	0	0	1987	4	183	401	3923
29	0	0	1959	4	183	402	3923
30	0	0	1958	5	184	402	3924
31	0	0	1962	5	184	402	3923
32	0	0	1964	5	183	402	3923
