# bioPlux Text File Format
# Version: 1
# StartDateTime: 2011-07-19 13:02:53
# SamplingFrequency: 1000
# SampledChannels: 1 2 3 4 5
# SamplingResolution: 12
# AcquiringDevice: 00:07:80:42:0F:95
# EndOfHeader
0	0	0	2169	5	183	376	3360
1	0	0	2193	5	182	376	3357
2	0	0	2226	5	184	376	3355
3	0	0	2237	5	183	376	3355
4	0	0	2198	5	184	376	3356
5	0	0	2146	4	183	376	3357
6	0	0	2102	4	184	377	3358
7	0	0	2074	3	184	376	3359
8	0	0	2037	4	183	376	3360
9	0	0	2007	5	184	376	3360
10	0	0	1990	4	184	376	3359
11	0	0	1971	5	184	375	3357
12	0	0	1922	3	184	376	3355
13	0	0	1913	5	184	376	3355
14	0	0	1952	5	184	376	3357
15	0	0	1997	5	184	376	3357
16	0	0	2021	5	184	376	3358
17	0	0	2057	5	184	376	3360
18	0	0	2123	5	184	376	3360
19	0	0	2159	5	183	376	3360
20	0	0	2166	5	184	376	3360
21	0	0	2169	5	184	376	3358
22	0	0	2183	5	184	376	3356
23	0	0	2182	5	184	376	3355
24	0	0	2154	5	183	376	3356
25	0	0	2095	4	183	376	3357
26	0	0	2029	4	184	376	3358
27	0	0	1993	4	183	376	3360
28	0	0	1974	4	184	376	3360
29	0	0	1959	4	183	376	3361
30	0	0	1960	5	184	377	3359
31	0	0	1956	5	184	376	3357
32	0	0	1923	3	185	376	3355
33	0	0	1916	5	184	376	3355
34	0	0	1934	5	184	376	3356
35	0	0	1961	5	184	376	3357
36	0	0	1996	5	184	376	3358
37	0	0	2028	4	183	376	3360
38	0	0	2065	5	184	376	3361
39	0	0	2120	5	184	376	3360
40	0	0	2157	4	184	376	3359
41	0	0	2163	5	183	376	3357
42	0	0	2163	5	183	376	3356
43	0	0	2159	5	183	376	3355
44	0	0	2150	5	183	376	3357
45	0	0	2137	4	185	376	3357
46	0	0	2083	4	183	376	3358
47	0	0	2021	4	183	376	3360
48	0	0	1981	4	184	376	3361
49	0	0	1949	4	183	376	3361
50	0	0	1911	4	184	375	3359
51	0	0	1882	4	184	376	3357
52	0	0	1851	4	183	376	3356
53	0	0	1850	5	184	376	3356
54	0	0	1870	6	184	376	3356
55	0	0	1924	4	185	376	3357
56	0	0	1991	5	183	376	3358
57	0	0	2050	5	184	376	3360
58	0	0	2078	5	184	376	3360
59	0	0	2079	5	184	376	3361
60	0	0	2068	4	184	376	3359
61	0	0	2075	5	183	376	3357
62	0	0	2127	5	183	376	3356
63	0	0	2184	5	184	376	3356
64	0	0	2217	5	183	377	3356
65	0	0	2224	4	184	376	3357
66	0	0	2199	4	184	376	3358
67	0	0	2142	3	183	376	3360
68	0	0	2081	4	184	376	3360
69	0	0	2020	4	183	376	3359
70	0	0	1978	4	184	376	3359
71	0	0	1968	4	183	376	3357
72	0	0	1940	4	183	376	3355
73	0	0	1918	4	184	376	3355
74	0	0	1929	5	184	376	3356
75	0	0	1954	5	184	376	3358
76	0	0	1983	5	184	376	3359
77	0	0	2021	5	185	376	3360
78	0	0	2070	5	183	376	3361
79	0	0	2136	5	183	376	3360
80	0	0	2197	4	183	376	3359
81	0	0	2219	5	184	376	3357
82	0	0	2201	3	184	376	3356
83	0	0	2156	4	184	376	3355
84	0	0	2094	4	184	376	3356
85	0	0	2051	4	184	376	3357
86	0	0	2027	4	183	376	3359
87	0	0	2026	5	184	376	3360
88	0	0	2044	5	183	375	3361
89	0	0	2012	4	183	376	3361
90	0	0	1951	4	185	376	3359
91	0	0	1896	4	185	376	3357
92	0	0	1837	3	184	376	3356
93	0	0	1800	3	185	376	3355
94	0	0	1791	5	184	376	3356
95	0	0	1804	4	184	377	3357
96	0	0	1855	5	184	376	3359
97	0	0	1938	5	185	376	3360
98	0	0	2022	5	185	376	3361
99	0	0	2095	5	182	376	3360
100	0	0	2141	5	184	375	3359
101	0	0	2175	4	183	376	3358
102	0	0	2207	5	183	376	3356
103	0	0	2209	5	184	376	3355
104	0	0	2182	4	183	376	3356
105	0	0	2144	4	184	376	3358
106	0	0	2096	4	184	376	3359
107	0	0	2060	3	183	375	3360
108	0	0	2041	5	183	376	3361
109	0	0	2024	4	184	376	3361
110	0	0	1989	4	183	375	3359
111	0	0	1933	4	184	376	3357
112	0	0	1874	4	183	376	3356
113	0	0	1865	5	184	376	3355
114	0	0	1896	5	183	377	3356
115	0	0	1929	5	185	376	3357
116	0	0	1960	5	183	376	3359
117	0	0	1997	5	183	376	3360
118	0	0	2037	5	184	376	3360
119	0	0	2084	5	184	376	3360
120	0	0	2106	5	183	376	3359
121	0	0	2102	5	184	376	3358
122	0	0	2104	4	183	376	3356
123	0	0	2111	5	183	376	3355
124	0	0	2115	5	183	376	3356
125	0	0	2102	4	183	377	3357
126	0	0	2067	4	183	376	3358
127	0	0	2020	4	184	376	3360
0	0	0	1981	4	184	376	3360
1	0	0	1963	4	184	376	3360
2	0	0	1957	5	184	376	3360
3	0	0	1954	4	184	376	3358
4	0	0	1923	4	184	376	3356
5	0	0	1919	5	184	376	3356
6	0	0	1939	5	184	376	3356
7	0	0	1948	5	184	376	3357
8	0	0	1955	5	186	376	3358
9	0	0	1992	5	184	376	3360
10	0	0	2048	5	183	376	3360
11	0	0	2110	6	184	376	3360
12	0	0	2166	5	183	376	3359
13	0	0	2183	5	184	376	3357
14	0	0	2182	4	183	376	3356
15	0	0	2170	5	184	376	3355
16	0	0	2160	5	182	377	3356
17	0	0	2159	5	183	377	3357
18	0	0	2153	5	184	376	3358
19	0	0	2126	4	184	376	3360
20	0	0	2083	4	184	376	3360
21	0	0	2041	4	184	376	3361
22	0	0	2002	4	184	375	3359
23	0	0	1961	4	185	376	3357
24	0	0	1924	3	183	376	3356
25	0	0	1915	5	185	376	3356
26	0	0	1945	6	184	376	3356
27	0	0	2006	5	184	376	3357
28	0	0	2075	5	185	376	3358
29	0	0	2107	4	183	376	3360
30	0	0	2120	5	183	376	3360
31	0	0	2147	6	184	376	3360
32	0	0	2178	5	183	377	3359
33	0	0	2175	5	184	376	3358
34	0	0	2182	5	183	376	3356
35	0	0	2183	5	184	376	3355
36	0	0	2146	5	183	375	3356
37	0	0	2111	4	183	375	3358
38	0	0	2121	5	184	376	3359
39	0	0	2125	4	184	376	3360
40	0	0	2102	4	184	376	3361
41	0	0	2084	6	183	376	3360
42	0	0	2066	5	184	376	3359
43	0	0	2034	4	185	376	3357
44	0	0	1981	4	184	376	3356
45	0	0	1959	5	185	376	3355
46	0	0	1986	5	184	376	3356
47	0	0	2031	5	184	375	3358
48	0	0	2084	5	184	375	3359
49	0	0	2134	4	183	376	3360
50	0	0	2184	5	183	376	3360
51	0	0	2221	5	184	376	3360
52	0	0	2251	5	184	377	3359
53	0	0	2277	5	184	376	3357
54	0	0	2306	5	183	376	3355
55	0	0	2332	5	184	376	3355
56	0	0	2333	6	183	376	3356
57	0	0	2288	4	184	377	3357
58	0	0	2246	4	182	376	3359
59	0	0	2229	4	183	376	3360
60	0	0	2198	4	183	376	3360
61	0	0	2148	4	182	376	3361
62	0	0	2106	4	184	376	3359
63	0	0	2086	4	184	376	3357
64	0	0	2073	4	183	376	3356
65	0	0	2081	5	185	376	3356
66	0	0	2101	5	184	376	3356
67	0	0	2110	5	184	376	3357
68	0	0	2131	5	184	376	3358
69	0	0	2151	5	184	376	3360
70	0	0	2180	5	184	376	3360
71	0	0	2211	5	184	376	3360
72	0	0	2241	5	184	375	3359
73	0	0	2255	5	183	376	3357
74	0	0	2263	4	182	376	3356
75	0	0	2259	5	184	376	3355
76	0	0	2251	5	183	376	3356
77	0	0	2240	5	183	375	3357
78	0	0	2208	4	183	376	3359
79	0	0	2143	4	183	376	3360
80	0	0	2067	4	183	376	3360
81	0	0	2028	4	184	376	3360
82	0	0	2033	5	184	376	3360
83	0	0	2037	4	183	376	3358
84	0	0	2005	4	184	376	3356
85	0	0	2001	5	184	376	3356
86	0	0	2015	5	184	376	3356
87	0	0	2057	5	183	376	3357
88	0	0	2137	5	184	375	3358
89	0	0	2211	5	183	376	3360
90	0	0	2235	5	183	376	3360
91	0	0	2202	4	184	376	3360
92	0	0	2169	5	183	376	3359
93	0	0	2177	5	183	376	3358
94	0	0	2212	5	183	376	3356
95	0	0	2244	6	183	376	3355
96	0	0	2253	5	184	376	3356
97	0	0	2241	4	182	376	3357
98	0	0	2227	4	183	376	3358
99	0	0	2194	4	183	376	3360
100	0	0	2134	4	184	376	3360
101	0	0	2078	4	184	376	3361
102	0	0	2057	4	185	375	3359
103	0	0	2064	5	185	376	3357
104	0	0	2030	4	185	376	3356
105	0	0	2002	4	183	376	3355
106	0	0	2013	4	185	376	3356
107	0	0	2026	5	184	375	3357
108	0	0	2058	5	184	376	3359
109	0	0	2113	5	184	376	3360
110	0	0	2167	5	184	376	3361
111	0	0	2203	5	184	376	3360
112	0	0	2220	5	184	376	3359
113	0	0	2230	5	184	375	3358
114	0	0	2262	5	183	376	3356
115	0	0	2277	5	184	376	3355
116	0	0	2253	4	184	376	3356
117	0	0	2214	5	183	375	3357
118	0	0	2154	4	184	376	3358
119	0	0	2079	4	184	376	3360
120	0	0	2029	5	183	376	3360
121	0	0	1991	4	184	376	3360
122	0	0	1956	4	182	376	3359
123	0	0	1956	5	184	376	3358
124	0	0	1970	5	184	376	3356
125	0	0	2010	5	184	376	3355
126	0	0	2060	5	186	376	3357
127	0	0	2089	5	184	376	3357
0	0	0	2109	5	185	376	3358
1	0	0	2104	4	184	376	3360
2	0	0	2089	4	184	376	3360
3	0	0	2105	5	184	376	3360
4	0	0	2147	5	183	375	3359
5	0	0	2177	5	185	376	3358
6	0	0	2204	5	183	376	3356
7	0	0	2213	5	184	376	3356
8	0	0	2198	5	183	376	3356
9	0	0	2175	5	184	376	3357
10	0	0	2141	4	184	375	3358
11	0	0	2100	4	184	376	3360
12	0	0	2046	4	183	376	3360
13	0	0	1999	4	184	376	3361
14	0	0	1968	4	184	376	3359
15	0	0	1944	4	184	376	3357
16	0	0	1919	4	184	376	3356
17	0	0	1921	5	184	376	3355
18	0	0	1948	5	185	376	3356
19	0	0	1969	5	184	376	3357
20	0	0	2001	5	185	376	3359
21	0	0	2051	5	184	376	3360
22	0	0	2105	5	183	376	3360
23	0	0	2144	5	183	376	3360
24	0	0	2162	5	184	376	3359
25	0	0	2178	5	184	375	3357
26	0	0	2206	5	184	376	3356
27	0	0	2212	5	184	376	3355
28	0	0	2175	4	183	376	3357
29	0	0	2125	4	184	376	3357
30	0	0	2089	4	184	376	3358
31	0	0	2067	4	184	376	3360
32	0	0	2035	4	183	376	3360
33	0	0	2011	4	184	376	3360
34	0	0	2003	6	185	376	3359
35	0	0	2000	5	183	376	3358
36	0	0	1973	4	184	376	3356
37	0	0	1963	5	184	376	3355
38	0	0	1968	5	184	376	3356
39	0	0	1989	5	184	376	3357
40	0	0	2041	5	184	376	3359
41	0	0	2095	5	184	376	3360
42	0	0	2123	5	183	376	3361
43	0	0	2118	4	183	376	3360
44	0	0	2084	4	183	376	3360
45	0	0	2079	5	183	376	3358
46	0	0	2086	5	183	376	3356
47	0	0	2089	6	183	376	3356
48	0	0	2097	5	183	376	3356
49	0	0	2091	3	183	376	3357
50	0	0	2052	4	183	376	3359
51	0	0	2007	4	183	376	3360
52	0	0	1974	4	183	376	3360
53	0	0	1953	5	184	376	3361
54	0	0	1935	4	183	377	3360
55	0	0	1930	5	184	375	3358
56	0	0	1908	4	184	376	3356
57	0	0	1915	5	183	376	3356
58	0	0	1945	5	185	376	3356
59	0	0	1990	4	184	376	3357
60	0	0	2064	5	184	376	3359
61	0	0	2161	5	184	376	3360
62	0	0	2266	5	183	376	3361
63	0	0	2367	5	185	376	3360
64	0	0	2450	4	184	376	3359
65	0	0	2516	5	184	376	3358
66	0	0	2557	5	184	376	3356
67	0	0	2574	5	183	376	3355
68	0	0	2598	5	183	376	3356
69	0	0	2640	4	184	375	3357
70	0	0	2668	5	183	375	3359
71	0	0	2676	5	183	376	3360
72	0	0	2660	5	183	376	3360
73	0	0	2647	6	184	376	3361
74	0	0	2649	5	184	376	3360
75	0	0	2649	5	185	375	3358
76	0	0	2622	4	184	376	3356
77	0	0	2617	5	185	376	3355
78	0	0	2607	6	184	376	3357
79	0	0	2583	4	184	375	3357
80	0	0	2571	5	184	375	3358
81	0	0	2551	4	184	376	3360
82	0	0	2496	4	184	376	3361
83	0	0	2430	4	184	376	3360
84	0	0	2387	4	184	376	3360
85	0	0	2367	4	183	376	3359
86	0	0	2345	4	184	376	3356
87	0	0	2307	4	183	376	3355
88	0	0	2254	4	184	376	3356
89	0	0	2221	4	184	376	3357
90	0	0	2201	4	183	375	3359
91	0	0	2176	4	184	376	3361
92	0	0	2147	4	184	376	3360
93	0	0	2111	4	185	375	3360
94	0	0	2053	4	184	376	3360
95	0	0	1998	4	184	376	3358
96	0	0	1952	5	184	376	3356
97	0	0	1939	6	184	376	3355
98	0	0	1959	5	185	376	3356
99	0	0	1984	4	185	376	3357
100	0	0	2015	5	184	375	3359
101	0	0	2066	5	183	376	3360
102	0	0	2107	5	184	376	3360
103	0	0	2117	5	183	376	3360
104	0	0	2117	4	182	376	3359
105	0	0	2128	5	184	376	3358
106	0	0	2156	5	184	376	3356
107	0	0	2163	4	184	376	3355
108	0	0	2147	4	182	376	3357
109	0	0	2110	4	183	376	3358
110	0	0	2079	4	183	375	3359
111	0	0	2058	4	184	376	3360
112	0	0	2030	4	184	376	3360
113	0	0	1992	4	184	376	3361
114	0	0	1965	4	183	378	3360
115	0	0	1959	5	184	375	3358
116	0	0	1940	4	185	376	3356
117	0	0	1930	5	185	376	3355
118	0	0	1928	5	183	376	3356
119	0	0	1936	5	185	376	3357
120	0	0	1976	5	185	376	3359
121	0	0	2025	5	184	376	3360
122	0	0	2068	5	183	376	3360
123	0	0	2106	5	183	376	3360
124	0	0	2122	5	184	376	3360
125	0	0	2120	5	184	376	3359
126	0	0	2144	5	183	376	3356
127	0	0	2182	5	183	376	3355
0	0	0	2192	4	182	376	3357
1	0	0	2181	5	184	375	3357
2	0	0	2150	4	183	375	3358
3	0	0	2096	4	184	376	3360
4	0	0	2043	4	183	376	3361
5	0	0	1999	4	183	376	3360
6	0	0	1984	5	183	376	3360
7	0	0	1989	5	184	376	3358
8	0	0	1957	4	184	376	3356
9	0	0	1921	4	185	376	3356
10	0	0	1915	5	185	376	3356
11	0	0	1932	5	184	376	3358
12	0	0	1978	5	184	376	3359
13	0	0	2035	5	183	376	3360
14	0	0	2088	5	183	376	3361
15	0	0	2137	5	184	376	3360
16	0	0	2174	5	184	376	3360
17	0	0	2215	5	183	375	3358
18	0	0	2246	5	184	376	3356
19	0	0	2219	4	183	376	3355
20	0	0	2155	4	183	376	3356
21	0	0	2101	4	184	376	3357
22	0	0	2076	4	184	375	3359
23	0	0	2087	5	185	376	3361
24	0	0	2095	5	183	376	3360
25	0	0	2048	4	183	376	3361
26	0	0	1974	4	183	376	3360
27	0	0	1935	4	185	376	3358
28	0	0	1907	4	184	376	3356
29	0	0	1893	5	184	376	3356
30	0	0	1889	5	185	376	3356
31	0	0	1900	5	184	376	3358
32	0	0	1954	5	184	376	3359
33	0	0	2043	5	182	376	3360
34	0	0	2135	5	184	376	3360
35	0	0	2210	5	183	376	3360
36	0	0	2244	5	184	376	3359
37	0	0	2242	5	184	375	3358
38	0	0	2242	5	184	376	3356
39	0	0	2245	5	183	376	3355
40	0	0	2241	5	182	376	3357
41	0	0	2230	5	184	377	3357
42	0	0	2212	4	183	376	3359
43	0	0	2166	4	183	376	3361
44	0	0	2109	4	184	376	3360
45	0	0	2064	4	183	376	3361
46	0	0	2035	4	184	376	3360
47	0	0	2020	4	184	376	3358
48	0	0	1993	4	185	376	3356
49	0	0	1989	5	184	376	3355
50	0	0	2018	5	184	376	3356
51	0	0	2031	5	184	376	3357
52	0	0	2022	5	185	376	3359
53	0	0	2023	5	184	376	3360
54	0	0	2046	5	184	376	3360
55	0	0	2082	5	183	376	3360
56	0	0	2098	5	184	376	3360
57	0	0	2119	5	183	376	3359
58	0	0	2126	5	183	376	3356
59	0	0	2118	5	184	376	3356
60	0	0	2134	6	183	375	3356
61	0	0	2165	5	183	376	3358
62	0	0	2189	5	183	376	3359
63	0	0	2196	5	184	375	3360
64	0	0	2186	5	183	376	3360
65	0	0	2156	4	184	376	3360
66	0	0	2118	4	184	376	3359
67	0	0	2080	4	184	376	3358
68	0	0	2037	4	184	376	3356
69	0	0	2033	5	184	376	3355
70	0	0	2051	4	183	376	3357
71	0	0	2059	5	185	375	3357
72	0	0	2047	5	184	376	3359
73	0	0	2041	5	185	376	3360
74	0	0	2058	5	184	376	3360
75	0	0	2104	5	183	376	3361
76	0	0	2183	5	184	376	3360
77	0	0	2252	5	185	376	3358
78	0	0	2276	5	184	376	3356
79	0	0	2248	4	182	376	3355
80	0	0	2199	4	184	376	3356
81	0	0	2158	5	182	376	3357
82	0	0	2121	4	183	376	3358
83	0	0	2086	4	185	376	3360
84	0	0	2056	4	184	376	3360
85	0	0	2026	5	185	375	3360
86	0	0	2003	5	184	376	3360
87	0	0	2010	5	185	376	3359
88	0	0	2024	5	185	376	3356
89	0	0	2020	5	184	375	3355
90	0	0	2005	4	185	376	3357
91	0	0	2006	5	184	376	3358
92	0	0	2019	4	184	376	3358
93	0	0	2054	5	183	376	3360
94	0	0	2103	6	184	376	3360
95	0	0	2162	5	183	376	3361
96	0	0	2216	5	184	376	3361
97	0	0	2251	5	184	376	3358
98	0	0	2263	5	184	376	3356
99	0	0	2268	5	182	376	3355
100	0	0	2257	5	184	376	3357
101	0	0	2236	4	183	376	3358
102	0	0	2228	3	183	376	3358
103	0	0	2214	4	184	376	3360
104	0	0	2182	4	183	376	3361
105	0	0	2133	4	184	376	3360
106	0	0	2088	4	183	376	3360
107	0	0	2067	5	184	376	3359
108	0	0	2044	5	185	376	3356
109	0	0	2062	5	185	376	3356
110	0	0	2087	5	185	376	3356
111	0	0	2094	5	184	376	3358
112	0	0	2101	5	184	376	3360
113	0	0	2125	5	183	376	3360
114	0	0	2158	5	183	376	3361
115	0	0	2206	3	183	376	3360
116	0	0	2232	5	184	376	3360
117	0	0	2256	5	184	376	3358
118	0	0	2285	5	183	375	3356
119	0	0	2274	5	183	376	3355
120	0	0	2252	5	183	376	3356
121	0	0	2262	5	184	376	3357
122	0	0	2255	4	184	376	3358
123	0	0	2245	5	183	375	3360
124	0	0	2238	5	184	376	3360
125	0	0	2227	5	184	376	3360
126	0	0	2185	4	185	376	3360
127	0	0	2123	4	184	376	3358
0	0	0	2052	4	185	376	3357
1	0	0	2031	5	183	376	3355
2	0	0	2073	5	183	376	3356
3	0	0	2120	5	184	376	3357
4	0	0	2146	5	183	375	3359
5	0	0	2158	5	183	376	3360
6	0	0	2190	5	184	376	3360
7	0	0	2252	6	183	376	3360
8	0	0	2313	5	184	376	3360
9	0	0	2358	5	185	375	3358
10	0	0	2381	5	183	376	3356
11	0	0	2384	4	183	376	3355
12	0	0	2362	5	184	376	3356
13	0	0	2338	4	183	376	3357
14	0	0	2302	4	183	376	3359
15	0	0	2246	4	183	376	3361
16	0	0	2185	4	184	376	3360
17	0	0	2134	3	184	376	3361
18	0	0	2086	4	184	377	3360
19	0	0	2081	5	184	376	3358
20	0	0	2073	4	184	376	3356
21	0	0	2065	5	185	375	3355
22	0	0	2072	4	184	376	3356
23	0	0	2076	5	184	376	3357
24	0	0	2117	5	184	376	3359
25	0	0	2188	5	183	376	3360
26	0	0	2269	5	183	376	3360
27	0	0	2317	5	185	376	3360
28	0	0	2352	5	184	376	3359
29	0	0	2372	5	183	376	3358
30	0	0	2367	5	182	376	3356
31	0	0	2345	5	184	376	3355
32	0	0	2297	4	183	376	3356
33	0	0	2250	4	183	376	3357
34	0	0	2221	4	183	376	3359
35	0	0	2195	4	183	376	3360
36	0	0	2170	4	183	376	3360
37	0	0	2132	4	183	376	3361
38	0	0	2077	4	183	376	3360
39	0	0	2007	4	185	376	3358
40	0	0	1932	4	184	376	3356
41	0	0	1905	4	184	376	3355
42	0	0	1946	5	184	376	3357
43	0	0	2023	5	184	376	3358
44	0	0	2099	5	183	376	3359
45	0	0	2155	5	184	376	3361
46	0	0	2189	5	184	376	3361
47	0	0	2224	5	184	376	3360
48	0	0	2275	5	184	376	3360
49	0	0	2312	5	183	376	3359
50	0	0	2334	5	183	376	3356
51	0	0	2357	5	183	376	3356
52	0	0	2374	6	184	376	3356
53	0	0	2367	5	183	376	3357
54	0	0	2328	4	184	376	3359
55	0	0	2269	4	183	376	3360
56	0	0	2204	4	184	376	3360
57	0	0	2156	4	184	376	3360
58	0	0	2143	4	185	376	3360
59	0	0	2135	5	184	376	3358
60	0	0	2088	4	184	376	3357
61	0	0	2060	5	183	376	3355
62	0	0	2061	5	184	376	3356
63	0	0	2048	4	183	376	3358
64	0	0	2054	4	185	376	3360
65	0	0	2100	5	183	376	3360
66	0	0	2141	5	184	376	3360
67	0	0	2169	5	183	376	3360
68	0	0	2211	5	184	376	3359
69	0	0	2288	5	183	376	3358
70	0	0	2375	5	183	376	3356
71	0	0	2431	4	184	376	3355
72	0	0	2409	4	183	376	3356
73	0	0	2348	4	183	376	3358
74	0	0	2295	4	183	375	3359
75	0	0	2251	4	184	376	3360
76	0	0	2187	4	184	376	3360
77	0	0	2126	4	184	376	3361
78	0	0	2083	4	183	377	3360
79	0	0	2041	4	185	376	3358
80	0	0	2011	4	184	376	3356
81	0	0	1998	4	184	376	3355
82	0	0	1998	4	184	376	3357
83	0	0	1993	4	184	377	3357
84	0	0	2010	5	183	377	3359
85	0	0	2053	5	184	376	3360
86	0	0	2104	5	183	376	3360
87	0	0	2144	5	183	375	3361
88	0	0	2168	5	184	376	3360
89	0	0	2200	5	183	376	3358
90	0	0	2248	5	183	376	3357
91	0	0	2262	5	183	376	3355
92	0	0	2208	4	184	376	3356
93	0	0	2128	4	182	376	3357
94	0	0	2058	4	183	375	3359
95	0	0	1997	4	183	376	3360
96	0	0	1952	4	184	376	3360
97	0	0	1934	4	184	376	3360
98	0	0	1939	4	184	376	3360
99	0	0	1953	5	184	376	3359
100	0	0	1928	4	184	376	3356
101	0	0	1910	4	185	376	3356
102	0	0	1929	5	184	376	3356
103	0	0	1954	4	184	376	3357
104	0	0	1970	5	184	376	3359
105	0	0	1985	5	184	376	3360
106	0	0	2011	5	185	376	3360
107	0	0	2056	4	183	376	3360
108	0	0	2097	5	184	376	3360
109	0	0	2101	5	184	377	3358
110	0	0	2104	5	183	376	3356
111	0	0	2111	5	184	376	3355
112	0	0	2088	4	183	376	3356
113	0	0	2081	5	184	376	3358
114	0	0	2086	5	183	376	3359
115	0	0	2081	5	182	375	3360
116	0	0	2042	4	183	376	3361
117	0	0	1970	4	183	376	3360
118	0	0	1908	4	184	376	3359
119	0	0	1872	4	184	377	3358
120	0	0	1822	4	183	376	3356
121	0	0	1774	4	185	376	3355
122	0	0	1774	5	184	376	3357
123	0	0	1817	5	184	376	3357
124	0	0	1873	5	185	377	3358
125	0	0	1927	5	184	376	3360
126	0	0	1978	5	184	376	3360
127	0	0	2025	5	184	376	3360
0	0	0	2080	5	184	376	3360
1	0	0	2119	5	184	376	3359
2	0	0	2143	5	183	375	3356
3	0	0	2177	5	183	376	3355
4	0	0	2203	4	184	376	3356
5	0	0	2198	5	184	376	3357
6	0	0	2164	4	184	376	3359
7	0	0	2125	4	183	376	3360
8	0	0	2068	3	185	376	3360
9	0	0	1998	4	184	376	3360
10	0	0	1936	4	183	376	3360
11	0	0	1895	4	185	375	3358
12	0	0	1852	4	183	376	3356
13	0	0	1834	5	184	376	3356
14	0	0	1848	5	185	376	3356
15	0	0	1874	5	184	376	3357
16	0	0	1895	5	185	377	3359
17	0	0	1930	5	184	376	3360
18	0	0	1968	5	184	376	3360
19	0	0	2024	5	184	376	3360
20	0	0	2104	5	184	375	3360
21	0	0	2182	5	184	377	3358
22	0	0	2228	5	184	376	3357
23	0	0	2207	4	184	376	3355
24	0	0	2142	4	183	376	3356
25	0	0	2108	4	183	376	3357
26	0	0	2109	5	184	376	3359
27	0	0	2077	4	182	375	3360
28	0	0	2020	4	184	376	3360
29	0	0	1958	4	184	376	3360
30	0	0	1911	5	184	376	3359
31	0	0	1896	5	185	376	3358
32	0	0	1859	4	184	376	3356
33	0	0	1822	4	185	376	3355
34	0	0	1822	5	184	376	3357
35	0	0	1834	5	184	377	3357
36	0	0	1881	5	185	377	3359
37	0	0	1958	5	184	376	3361
38	0	0	1996	5	183	375	3360
39	0	0	2006	5	183	376	3361
40	0	0	2032	5	184	376	3360
41	0	0	2081	5	183	376	3358
42	0	0	2132	5	182	376	3356
43	0	0	2171	5	184	376	3355
44	0	0	2168	5	183	376	3356
45	0	0	2159	4	184	376	3357
46	0	0	2118	4	183	376	3358
47	0	0	2065	4	183	376	3360
48	0	0	2020	4	183	376	3360
49	0	0	1971	4	184	376	3360
50	0	0	1935	4	184	376	3360
51	0	0	1923	4	184	376	3359
52	0	0	1892	4	183	376	3356
53	0	0	1863	4	185	376	3356
54	0	0	1872	6	184	376	3356
55	0	0	1906	5	185	376	3357
56	0	0	1945	5	183	376	3359
57	0	0	1983	5	184	376	3360
58	0	0	2037	5	185	376	3360
59	0	0	2076	5	184	376	3360
60	0	0	2086	4	184	376	3360
61	0	0	2102	5	184	376	3358
62	0	0	2113	5	184	376	3356
63	0	0	2091	4	183	376	3355
64	0	0	2039	4	184	376	3356
65	0	0	1987	4	184	375	3357
66	0	0	1946	4	182	376	3358
67	0	0	1932	5	184	376	3360
68	0	0	1941	5	183	376	3360
69	0	0	1954	5	183	376	3361
70	0	0	1950	5	184	376	3360
71	0	0	1922	4	184	376	3358
72	0	0	1883	4	185	376	3356
73	0	0	1869	5	184	376	3355
74	0	0	1891	5	184	376	3356
75	0	0	1923	5	184	375	3357
76	0	0	1958	5	184	377	3358
77	0	0	2012	5	184	376	3360
78	0	0	2058	5	185	376	3360
79	0	0	2099	5	185	376	3360
80	0	0	2124	5	183	376	3359
81	0	0	2128	5	183	376	3358
82	0	0	2150	5	182	376	3356
83	0	0	2179	5	183	375	3355
84	0	0	2166	4	183	376	3356
85	0	1	2128	4	184	376	3357
86	0	1	2067	4	183	376	3359
87	0	1	1998	4	184	376	3360
88	0	1	1957	4	184	376	3360
89	0	1	1961	5	184	375	3361
90	0	1	1979	5	183	377	3360
91	0	1	1971	4	184	376	3358
92	0	1	1938	4	184	376	3357
93	0	1	1929	5	184	376	3355
94	0	1	1956	5	184	376	3356
95	0	1	1985	4	184	376	3358
96	0	1	2002	5	184	376	3359
97	0	1	2015	5	184	376	3360
98	0	1	2049	5	184	376	3361
99	0	1	2088	6	184	376	3360
100	0	1	2113	4	183	376	3360
101	0	1	2126	5	183	376	3359
102	0	1	2136	5	183	376	3356
103	0	1	2123	4	183	376	3356
104	0	1	2093	5	184	376	3356
105	0	1	2078	3	184	376	3358
106	0	1	2085	5	184	376	3359
107	0	1	2091	5	183	376	3360
108	0	1	2079	4	183	376	3361
109	0	1	2052	5	184	376	3360
110	0	1	2021	4	183	376	3360
111	0	1	1997	4	184	376	3359
112	0	1	1955	4	184	376	3356
113	0	1	1916	4	184	376	3355
114	0	1	1901	4	183	375	3357
115	0	1	1904	5	185	376	3357
116	0	1	1934	5	185	376	3359
117	1	1	1974	5	183	376	3360
118	1	1	2008	5	184	376	3360
119	1	1	2045	5	184	376	3360
120	1	1	2081	3	184	376	3360
121	1	1	2112	4	183	376	3358
122	1	1	2157	5	183	376	3356
123	1	1	2187	5	183	376	3355
124	1	1	2173	4	183	376	3356
125	1	1	2134	4	184	376	3357
126	1	1	2097	4	182	376	3358
127	1	1	2051	4	183	376	3360
0	1	1	2015	4	184	376	3360
1	1	1	1986	5	184	376	3360
2	1	1	1951	3	183	376	3360
3	1	1	1915	4	184	376	3359
4	1	1	1871	4	184	376	3356
5	1	1	1855	4	184	376	3356
6	1	1	1867	5	185	376	3356
7	1	1	1889	4	184	376	3358
8	1	1	1901	5	185	376	3359
9	1	1	1954	5	184	376	3360
10	1	1	2019	5	183	375	3360
11	1	1	2082	5	183	376	3360
12	1	1	2143	5	183	376	3360
13	1	1	2182	5	184	376	3358
14	1	1	2222	5	183	376	3357
15	1	1	2244	5	183	376	3355
16	1	1	2215	4	183	377	3356
17	1	1	2168	4	184	376	3357
18	1	1	2097	4	183	376	3358
19	1	1	2024	4	184	376	3360
20	1	1	1945	4	184	376	3360
21	1	1	1880	4	184	376	3360
22	1	1	1862	5	184	376	3360
23	1	1	1876	5	183	376	3359
24	1	1	1862	4	184	376	3356
25	1	1	1842	4	185	376	3356
26	1	1	1846	7	185	376	3356
27	1	1	1869	5	185	375	3357
28	1	1	1917	5	185	377	3358
29	1	1	1984	5	184	376	3360
30	1	1	2038	5	184	376	3360
31	1	1	2065	5	184	376	3360
32	1	1	2073	5	182	376	3360
33	1	1	2072	5	184	376	3358
34	1	1	2087	5	184	376	3357
35	1	1	2116	5	184	376	3355
36	1	1	2133	5	183	375	3357
37	1	1	2153	4	184	376	3357
38	1	1	2158	4	183	376	3358
39	1	1	2128	4	184	376	3360
40	1	1	2068	4	184	376	3360
41	1	1	2015	4	184	375	3361
42	1	1	1975	4	184	376	3361
43	1	1	1938	4	184	376	3358
44	1	1	1899	4	183	376	3357
45	1	1	1878	4	184	376	3355
46	1	1	1885	5	184	375	3356
47	1	1	1901	5	184	376	3357
48	1	1	1931	5	184	376	3358
49	1	1	1947	5	184	376	3360
50	1	1	1959	5	186	376	3360
51	1	1	1995	5	183	376	3360
52	1	1	2064	5	184	376	3359
53	1	1	2126	5	183	376	3358
54	1	1	2165	5	182	376	3356
55	1	1	2178	5	183	376	3355
56	1	1	2132	4	185	376	3357
57	1	1	2050	4	183	377	3357
58	1	1	1973	4	183	376	3359
59	1	1	1930	4	183	376	3360
60	1	1	1912	4	184	376	3360
61	1	1	1906	5	184	377	3360
62	1	1	1899	5	184	376	3360
63	1	1	1885	4	184	376	3359
64	1	1	1849	4	183	376	3356
65	1	1	1833	5	184	376	3355
66	1	1	1862	5	184	376	3356
67	1	1	1899	5	183	376	3357
68	1	1	1918	5	185	375	3358
69	1	1	1932	5	183	376	3360
70	1	1	1954	5	183	376	3360
71	1	1	1986	5	183	375	3361
72	1	1	2011	5	183	376	3360
73	1	1	2037	4	183	376	3358
74	1	1	2062	5	183	376	3356
75	1	1	2074	5	184	376	3355
76	1	1	2052	4	185	375	3357
77	1	1	2024	4	182	376	3357
78	1	1	1956	4	184	376	3359
79	1	1	1894	4	184	375	3360
80	1	1	1886	5	183	376	3360
81	1	1	1894	5	184	376	3360
82	1	1	1890	4	184	376	3360
83	1	1	1871	4	183	376	3358
84	1	1	1832	4	184	376	3356
85	1	1	1817	5	185	376	3355
86	1	1	1850	5	183	376	3356
87	1	1	1891	4	185	376	3357
88	1	1	1943	5	183	377	3359
89	1	1	2011	5	184	376	3360
90	1	1	2048	5	183	376	3360
91	1	1	2058	5	184	375	3361
92	1	1	2052	5	184	376	3360
93	1	1	2043	5	183	376	3358
94	1	1	2055	5	184	376	3357
95	1	1	2093	5	183	376	3355
96	1	1	2091	4	183	376	3356
97	1	1	2048	4	184	376	3357
98	1	1	2005	4	183	376	3359
99	1	1	1961	4	183	376	3360
100	1	1	1905	4	184	376	3360
101	1	1	1855	4	184	376	3360
102	1	1	1812	4	184	375	3360
103	1	1	1797	4	184	376	3358
104	1	1	1790	4	184	376	3356
105	1	1	1792	5	184	376	3355
106	1	1	1825	5	184	375	3356
107	1	1	1874	4	185	376	3357
108	1	1	1918	5	184	376	3358
109	1	1	1957	5	185	376	3360
110	1	1	1983	6	184	376	3360
111	1	1	2011	5	185	375	3361
112	1	1	2048	5	184	376	3360
113	1	1	2069	5	184	376	3358
114	1	1	2083	5	184	376	3356
115	1	1	2113	5	184	376	3355
116	1	1	2134	5	184	375	3356
117	1	1	2124	5	184	376	3357
118	1	1	2095	4	183	376	3359
119	1	1	2044	4	183	376	3360
120	1	1	2015	4	184	376	3360
121	1	1	1991	4	182	376	3360
122	1	1	1955	3	185	376	3360
123	1	1	1894	4	184	377	3358
124	1	1	1829	4	184	376	3356
125	1	1	1813	5	184	376	3356
126	1	1	1841	6	185	376	3356
127	1	1	1871	5	184	376	3357
0	1	1	1892	4	184	376	3358
1	1	1	1925	5	184	376	3360
2	1	1	1951	5	185	375	3360
3	1	1	1986	5	183	376	3360
4	1	1	2043	5	184	376	3359
5	1	1	2096	5	183	377	3358
6	1	1	2125	5	184	376	3356
7	1	1	2131	4	183	376	3356
8	1	1	2113	4	183	376	3355
9	1	1	2093	5	183	376	3356
10	1	1	2095	5	184	376	3358
11	1	1	2103	5	183	375	3360
12	1	1	2062	4	183	376	3360
13	1	1	2023	4	185	375	3360
14	1	1	2006	4	183	376	3360
15	1	1	1994	4	185	376	3358
16	1	1	1948	4	183	376	3356
17	1	1	1900	4	184	376	3355
18	1	1	1889	5	185	376	3355
19	1	1	1889	4	184	376	3357
20	1	1	1900	5	184	376	3358
21	1	1	1952	5	184	376	3359
22	1	1	2046	5	184	376	3360
23	1	1	2153	5	183	375	3360
24	1	1	2219	4	183	376	3360
25	1	1	2251	5	183	376	3358
26	1	1	2267	5	183	376	3356
27	1	1	2274	5	183	376	3355
28	1	1	2242	5	182	376	3356
29	1	1	2197	3	182	376	3358
30	1	1	2146	4	184	376	3358
31	1	1	2116	5	184	376	3360
32	1	1	2105	5	184	376	3360
33	1	1	2080	4	183	376	3361
34	1	1	2044	4	185	376	3360
35	1	1	1999	4	185	376	3358
36	1	1	1950	4	184	376	3356
37	1	1	1922	5	184	376	3355
38	1	1	1951	5	184	375	3356
39	1	1	2012	5	183	376	3358
40	1	1	2088	5	184	376	3358
41	1	1	2144	5	183	376	3360
42	1	1	2148	5	183	376	3361
43	1	1	2146	5	183	376	3360
44	1	1	2157	5	184	375	3359
45	1	1	2164	5	183	376	3358
46	1	1	2172	5	183	376	3356
47	1	1	2191	5	184	376	3355
48	1	1	2207	5	183	376	3356
49	1	1	2188	5	184	376	3356
50	1	1	2139	4	183	376	3359
51	1	1	2093	4	184	375	3359
52	1	1	2078	4	183	376	3361
53	1	1	2037	5	184	376	3360
54	1	1	1995	5	184	376	3359
55	1	1	1983	5	184	376	3358
56	1	1	1967	4	184	376	3356
57	1	1	1960	5	185	375	3355
58	1	1	1995	5	184	376	3356
59	1	1	2036	5	184	376	3356
60	1	1	2059	5	184	376	3358
61	1	1	2068	5	184	375	3359
62	1	1	2053	4	184	376	3360
63	1	1	2051	5	183	376	3360
64	1	1	2072	7	184	376	3359
65	1	1	2103	5	183	376	3358
66	1	1	2140	5	184	376	3356
67	1	1	2166	5	183	376	3355
68	1	1	2168	5	183	376	3355
69	1	1	2174	4	183	376	3356
70	1	1	2169	5	183	376	3358
71	1	1	2148	4	183	375	3359
72	1	1	2125	4	183	376	3360
73	1	1	2109	4	183	376	3359
74	1	1	2089	4	184	377	3359
75	1	1	2063	4	184	376	3358
76	1	1	2012	4	183	375	3356
77	1	1	1998	5	184	376	3356
78	1	1	2029	5	185	376	3355
79	1	1	2046	6	185	376	3356
80	1	1	2056	5	183	376	3358
81	1	1	2074	4	184	376	3360
82	1	1	2079	5	184	376	3360
83	1	1	2087	5	184	376	3360
84	1	1	2119	6	185	376	3359
85	1	1	2155	5	183	376	3358
86	1	1	2188	5	183	375	3355
87	1	1	2219	5	182	376	3355
88	1	1	2222	5	183	376	3356
89	1	1	2219	5	183	376	3356
90	1	1	2203	4	183	376	3358
91	1	1	2164	4	183	375	3359
92	1	1	2123	4	183	376	3359
93	1	1	2104	4	183	376	3360
94	1	1	2082	4	184	376	3359
95	1	1	2035	4	183	377	3357
96	1	1	1982	4	184	375	3356
97	1	1	1964	5	184	376	3356
98	1	1	1983	5	184	377	3355
99	1	1	2027	6	184	376	3356
100	1	1	2060	4	184	376	3358
101	1	1	2099	5	184	376	3359
102	1	1	2169	5	185	376	3360
103	1	1	2241	5	183	376	3360
104	1	1	2283	5	183	376	3359
105	1	1	2286	5	182	376	3358
106	1	1	2290	5	183	376	3356
107	1	1	2299	5	182	376	3354
108	1	1	2283	4	183	376	3356
109	1	1	2244	4	184	376	3357
110	1	1	2216	4	183	376	3358
111	1	1	2202	5	184	376	3360
112	1	1	2185	5	184	376	3359
113	1	1	2163	4	184	376	3361
114	1	1	2129	5	184	376	3359
115	1	1	2077	4	184	376	3358
116	1	1	1997	4	184	375	3356
117	1	1	1958	5	185	376	3354
118	1	1	1975	5	184	376	3355
119	1	1	2010	5	185	376	3356
120	1	1	2056	5	184	376	3357
121	1	1	2122	5	183	375	3359
122	1	1	2187	5	185	376	3359
123	1	1	2230	5	182	376	3360
124	1	1	2269	5	184	376	3359
125	1	1	2308	5	183	376	3358
126	1	1	2342	5	183	375	3355
127	1	1	2358	5	184	376	3356
0	1	1	2355	5	183	376	3355
1	1	1	2329	5	184	375	3356
2	1	1	2269	4	184	376	3358
3	1	1	2206	4	184	376	3359
4	1	1	2166	4	184	376	3359
5	1	1	2146	4	183	376	3359
6	1	1	2113	4	184	376	3359
7	1	1	2080	4	185	376	3357
8	1	1	2043	4	183	376	3355
9	1	1	2039	5	184	376	3354
10	1	1	2065	5	184	376	3356
11	1	1	2088	5	185	376	3357
12	1	1	2112	5	184	376	3357
13	1	1	2180	5	182	376	3359
14	1	1	2257	5	184	376	3359
15	1	1	2321	5	183	375	3359
16	1	1	2363	5	183	375	3359
17	1	1	2400	5	184	376	3357
18	1	1	2438	5	184	376	3355
19	1	1	2465	5	183	376	3354
20	1	1	2431	4	183	376	3355
21	1	1	2369	4	183	376	3356
22	1	1	2308	4	183	376	3358
23	1	1	2265	4	183	375	3359
24	1	1	2255	5	183	376	3360
25	1	1	2267	5	184	376	3359
26	1	1	2282	5	185	375	3359
27	1	1	2272	4	184	376	3358
28	1	1	2230	4	184	376	3355
29	1	1	2211	6	185	375	3354
30	1	1	2204	4	184	376	3355
31	1	1	2176	4	185	376	3356
32	1	1	2162	5	184	376	3357
33	1	1	2161	5	185	375	3359
34	1	1	2168	5	183	376	3359
35	1	1	2203	5	183	376	3360
36	1	1	2265	5	184	376	3360
37	1	1	2313	5	183	376	3358
38	1	1	2334	5	183	376	3356
39	1	1	2333	5	184	376	3354
40	1	1	2332	5	183	376	3355
41	1	1	2332	6	183	375	3356
42	1	1	2313	4	184	376	3357
43	1	1	2291	4	183	375	3359
44	1	1	2254	4	183	376	3359
45	1	1	2204	4	184	376	3359
46	1	1	2154	4	184	376	3359
47	1	1	2112	4	183	376	3358
48	1	1	2074	4	184	375	3355
49	1	1	2046	3	184	376	3355
50	1	1	2035	4	184	377	3355
51	1	1	2032	5	184	376	3356
52	1	1	2042	5	184	376	3358
53	1	1	2105	5	184	376	3359
54	1	1	2195	5	183	375	3359
55	1	1	2245	5	183	376	3359
56	1	1	2268	5	182	376	3359
57	1	1	2271	5	184	376	3357
58	1	1	2289	5	183	375	3355
59	1	1	2308	5	184	376	3354
60	1	1	2293	5	183	376	3356
61	1	1	2271	4	184	376	3357
62	1	1	2242	4	184	376	3357
63	1	1	2213	4	185	375	3359
64	1	1	2192	5	183	376	3360
65	1	1	2169	5	183	376	3359
66	1	1	2130	5	184	376	3359
67	1	1	2064	4	183	376	3357
68	1	1	1968	4	184	375	3355
69	1	1	1892	4	184	376	3354
70	1	1	1879	5	184	376	3355
71	1	1	1898	5	185	376	3356
72	1	1	1946	5	184	376	3358
73	1	1	2015	5	183	376	3359
74	1	1	2081	5	184	376	3359
75	1	1	2126	5	184	376	3360
76	1	1	2152	5	183	376	3359
77	1	1	2178	5	184	376	3357
78	1	1	2198	5	183	375	3355
79	1	1	2183	4	184	376	3354
80	1	1	2123	4	183	376	3355
81	1	1	2062	5	183	376	3356
82	1	1	2014	4	183	376	3357
83	1	1	1976	5	183	376	3359
84	1	1	1968	5	184	375	3359
85	1	1	1979	5	183	376	3359
86	1	1	1979	5	183	376	3359
87	1	1	1966	5	184	376	3358
88	1	1	1938	4	184	375	3355
89	1	1	1910	4	185	376	3355
90	1	1	1918	5	182	376	3355
91	1	1	1948	5	184	376	3356
92	1	1	1975	5	184	376	3357
93	1	1	2004	5	184	376	3359
94	1	1	2032	5	183	376	3359
95	1	1	2060	5	184	376	3359
96	1	1	2097	5	184	376	3358
97	1	1	2116	5	184	376	3357
98	1	1	2132	5	184	375	3355
99	1	1	2145	5	184	376	3354
100	1	1	2126	5	184	376	3355
101	1	1	2089	5	183	376	3356
102	1	1	2052	4	183	376	3357
103	1	1	2027	4	183	376	3359
104	1	1	2003	4	184	376	3359
105	1	1	1968	4	184	376	3360
106	1	1	1918	4	183	376	3359
107	1	1	1862	4	184	376	3357
108	1	1	1799	4	184	376	3356
109	1	1	1757	5	183	376	3354
110	1	1	1769	5	184	376	3355
111	1	1	1824	5	184	376	3357
112	1	1	1895	5	184	376	3357
113	1	1	1938	5	183	376	3359
114	1	1	2001	5	184	376	3359
115	1	1	2057	5	183	376	3360
116	1	1	2081	5	184	376	3359
117	1	1	2094	5	184	376	3357
118	1	1	2119	5	184	376	3355
119	1	1	2161	5	184	376	3354
120	1	1	2165	4	184	376	3355
121	1	1	2113	4	183	376	3356
122	1	1	2028	4	184	376	3357
123	1	1	1954	4	184	376	3359
124	1	1	1892	4	183	376	3359
125	1	1	1837	4	186	376	3359
126	1	1	1778	4	184	376	3359
127	1	1	1756	4	184	376	3357
0	1	1	1734	4	184	376	3355
1	1	1	1709	3	184	376	3355
2	1	1	1690	4	183	376	3355
3	1	1	1676	4	185	376	3355
4	1	1	1687	5	183	376	3357
5	1	1	1723	5	184	376	3359
6	1	1	1771	4	184	375	3359
7	1	1	1842	5	184	376	3360
8	1	1	1933	5	183	376	3359
9	1	1	2039	4	183	376	3357
10	1	1	2143	5	183	376	3355
11	1	1	2207	4	184	376	3355
12	1	1	2217	5	185	376	3354
13	1	1	2206	5	183	377	3356
14	1	1	2218	5	183	376	3357
15	1	1	2255	5	184	376	3359
16	1	1	2301	5	183	376	3359
17	1	1	2327	5	183	375	3359
18	1	1	2339	5	183	376	3358
19	1	1	2351	4	185	376	3358
20	1	1	2369	5	184	376	3355
21	1	1	2406	5	184	376	3354
22	1	1	2465	5	186	376	3355
23	1	1	2517	5	183	376	3355
24	1	1	2560	5	184	376	3357
25	1	1	2624	5	184	376	3359
26	1	1	2681	4	183	376	3359
27	1	1	2720	5	185	375	3359
28	1	1	2746	5	182	376	3359
29	1	1	2750	5	183	376	3358
30	1	1	2737	5	184	376	3355
31	1	1	2716	5	183	376	3354
32	1	1	2667	4	183	376	3355
33	1	1	2610	4	183	376	3356
34	1	1	2537	4	184	376	3357
35	1	1	2460	4	184	376	3358
36	1	1	2376	3	184	376	3360
37	1	1	2288	4	184	377	3359
38	1	1	2205	4	185	376	3359
39	1	1	2141	4	185	376	3357
40	1	1	2070	4	185	376	3355
41	1	1	2002	4	185	376	3354
42	1	1	1975	4	183	377	3354
43	1	1	1994	6	185	376	3356
44	1	1	2036	4	184	376	3357
45	1	1	2091	5	184	376	3358
46	1	1	2122	4	184	376	3359
47	1	1	2141	5	185	376	3359
48	1	1	2156	6	183	376	3359
49	1	1	2176	5	184	376	3357
50	1	1	2207	5	183	376	3355
51	1	1	2219	4	185	376	3353
52	1	1	2164	4	184	376	3354
53	1	1	2085	5	183	376	3356
54	1	1	2007	5	183	376	3356
55	1	1	1939	4	184	376	3358
56	1	1	1896	3	184	376	3359
57	1	1	1875	5	185	376	3359
58	1	1	1864	5	184	376	3359
59	1	1	1838	4	184	376	3358
60	1	1	1795	4	184	376	3355
61	1	1	1766	4	185	376	3354
62	1	1	1770	5	183	376	3355
63	1	1	1789	5	185	376	3356
64	1	1	1828	6	183	375	3357
65	1	1	1893	5	184	376	3359
66	1	1	1948	6	185	376	3359
67	1	1	1996	5	184	376	3360
68	1	1	2053	4	184	376	3359
69	1	1	2093	5	184	376	3357
70	1	1	2123	5	184	376	3356
71	1	1	2135	5	183	376	3355
72	1	1	2118	4	183	376	3355
73	1	1	2095	4	183	376	3356
74	1	1	2065	4	184	376	3358
75	1	1	2010	4	183	376	3358
76	1	1	1936	4	183	376	3360
77	1	1	1856	4	184	376	3359
78	1	1	1811	4	184	376	3359
79	1	1	1812	5	184	376	3358
80	1	1	1820	5	184	376	3355
81	1	1	1822	5	184	376	3354
82	1	1	1846	5	185	376	3354
83	1	1	1885	6	185	376	3356
84	1	1	1930	5	184	376	3357
85	1	1	1949	5	183	376	3359
86	1	1	1972	6	184	376	3359
87	1	1	1990	5	184	376	3360
88	1	1	2006	5	183	376	3359
89	1	1	2027	5	183	376	3357
90	1	1	2061	5	183	376	3356
91	1	1	2090	4	184	376	3354
92	1	1	2089	5	184	376	3355
93	1	1	2094	5	184	376	3355
94	1	1	2102	6	183	376	3357
95	1	1	2070	4	183	376	3358
96	1	1	2016	3	183	377	3359
97	1	1	1964	4	184	376	3360
98	1	1	1913	4	184	376	3359
99	1	1	1879	4	183	376	3357
100	1	1	1868	4	185	376	3355
101	1	1	1845	4	184	376	3354
102	1	1	1810	5	184	376	3354
103	1	1	1809	5	184	377	3355
104	1	1	1862	6	183	376	3357
105	1	1	1950	5	184	375	3359
106	1	1	2029	4	183	376	3360
107	1	1	2096	5	182	376	3359
108	1	1	2124	5	183	376	3359
109	1	1	2130	5	184	376	3358
110	1	1	2134	5	183	376	3355
111	1	1	2134	5	183	376	3354
112	1	1	2119	5	183	376	3354
113	1	1	2109	5	183	375	3356
114	1	1	2089	4	184	376	3357
115	1	1	2052	4	182	376	3358
116	1	1	2007	4	184	376	3359
117	1	1	1957	4	183	376	3360
118	1	1	1903	4	184	376	3359
119	1	1	1871	5	183	376	3357
120	1	1	1860	4	184	376	3356
121	1	1	1864	5	184	376	3354
122	1	1	1897	4	184	376	3355
123	1	1	1937	5	183	377	3356
124	1	1	1979	5	183	376	3357
125	1	1	2038	5	184	376	3358
126	1	1	2096	4	184	376	3359
127	1	1	2127	6	184	376	3359
0	1	1	2134	5	182	376	3358
1	1	1	2128	4	184	376	3357
2	1	1	2137	5	183	376	3355
3	1	1	2136	5	183	376	3354
4	1	1	2112	5	184	376	3354
5	1	1	2100	5	182	376	3356
6	1	1	2085	4	184	376	3358
7	1	1	2079	5	183	376	3358
8	1	1	2066	4	183	376	3360
9	1	1	2038	4	185	376	3359
10	1	1	1994	4	183	376	3359
11	1	1	1954	4	183	376	3358
12	1	1	1907	4	185	376	3355
13	1	1	1889	4	185	376	3355
14	1	1	1908	5	184	376	3354
15	1	1	1921	5	184	376	3355
16	1	1	1940	5	185	376	3357
17	1	1	1973	5	184	375	3358
18	1	1	1995	4	184	378	3359
19	1	1	2017	5	183	376	3359
20	1	1	2043	5	183	375	3358
21	1	1	2081	5	184	376	3357
22	1	1	2127	5	184	376	3355
23	1	1	2152	5	183	376	3354
24	1	1	2158	5	182	376	3355
25	1	1	2173	5	183	376	3356
26	1	1	2167	4	184	376	3357
27	1	1	2147	4	183	376	3359
28	1	1	2098	4	185	376	3359
29	1	1	2055	4	183	376	3359
30	1	1	2031	4	184	376	3358
31	1	1	2019	4	184	376	3357
32	1	1	2002	4	185	376	3355
33	1	1	1978	4	185	376	3355
34	1	1	1965	4	185	376	3354
35	1	1	1969	5	184	375	3356
36	1	1	1988	5	184	376	3357
37	1	1	2032	5	184	375	3358
38	1	1	2076	5	183	376	3359
39	1	1	2104	5	184	376	3359
40	1	1	2121	5	184	375	3359
41	1	1	2159	5	184	376	3357
42	1	1	2185	5	184	376	3355
43	1	1	2190	5	183	376	3353
44	1	1	2175	4	184	376	3354
45	1	1	2145	4	183	375	3355
46	1	1	2100	4	183	376	3357
47	1	1	2060	4	184	376	3359
48	1	1	2038	4	184	376	3359
49	1	1	2029	5	184	376	3359
50	1	1	2026	5	185	376	3359
51	1	1	2005	3	184	376	3357
52	1	1	1954	4	185	376	3356
53	1	1	1907	4	184	376	3354
54	1	1	1912	6	185	376	3355
55	1	1	1949	5	185	376	3355
56	1	1	2001	5	184	376	3357
57	1	1	2066	5	183	376	3358
58	1	1	2128	5	184	376	3359
59	1	1	2171	5	183	376	3359
60	1	1	2199	5	184	376	3359
61	1	1	2209	5	184	376	3358
62	1	1	2220	5	184	376	3355
63	1	1	2225	5	184	376	3355
64	1	1	2221	5	185	376	3354
65	1	1	2217	5	184	376	3356
66	1	1	2210	5	184	376	3358
67	1	1	2192	4	183	375	3358
68	1	1	2163	4	184	376	3359
69	1	1	2122	4	184	376	3359
70	1	1	2097	5	183	376	3359
71	1	1	2066	4	185	376	3357
72	1	1	2016	3	184	376	3355
73	1	1	1979	5	184	376	3354
74	1	1	1990	5	184	376	3354
75	1	1	2007	5	185	376	3355
76	1	1	2024	4	184	376	3357
77	1	1	2077	5	184	376	3358
78	1	1	2136	5	183	376	3359
79	1	1	2187	5	184	376	3359
80	1	1	2232	5	184	376	3359
81	1	1	2265	4	183	376	3357
82	1	1	2284	5	183	376	3355
83	1	1	2291	5	183	376	3355
84	1	1	2274	4	185	375	3354
85	1	1	2242	5	184	376	3356
86	1	1	2184	4	183	376	3358
87	1	1	2120	4	183	376	3358
88	1	1	2072	4	184	376	3360
89	1	1	2036	4	186	375	3359
90	1	1	2009	4	185	376	3359
91	1	1	2006	5	183	376	3358
92	1	1	1990	4	184	376	3355
93	1	1	1968	4	184	376	3353
94	1	1	1965	5	184	375	3355
95	1	1	1969	5	184	377	3356
96	1	1	2004	4	184	376	3357
97	1	1	2040	4	184	376	3358
98	1	1	2064	5	184	376	3359
99	1	1	2084	5	183	376	3359
100	1	1	2095	5	184	376	3358
101	1	1	2120	4	183	376	3357
102	1	1	2174	5	184	376	3355
103	1	1	2235	5	183	376	3354
104	1	1	2274	5	184	376	3354
105	1	1	2262	4	184	376	3356
106	1	1	2203	4	182	376	3357
107	1	1	2122	4	183	376	3358
108	1	1	2071	4	184	376	3360
109	1	1	2052	4	185	376	3359
110	1	1	2045	5	183	376	3359
111	1	1	2033	4	184	376	3358
112	1	1	2011	5	184	376	3355
113	1	1	2003	5	185	376	3355
114	1	1	2014	5	183	376	3355
115	1	1	2039	5	185	376	3355
116	1	1	2069	4	184	376	3357
117	1	1	2110	5	183	376	3359
118	1	1	2169	5	184	377	3359
119	1	1	2229	4	183	376	3359
120	1	1	2266	5	184	376	3358
121	1	1	2267	4	183	376	3357
122	1	1	2278	5	183	376	3355
123	1	1	2301	5	184	376	3354
124	1	1	2305	5	184	376	3355
125	1	1	2298	5	183	376	3356
126	1	1	2276	4	183	376	3357
127	1	1	2236	4	183	376	3358
0	1	1	2165	4	184	376	3360
1	1	1	2099	4	184	376	3359
2	1	1	2065	4	183	376	3358
3	1	1	2043	4	185	376	3358
4	1	1	2009	4	184	376	3355
5	1	1	1977	4	185	376	3355
6	1	1	1985	5	184	375	3354
7	1	1	2018	5	185	376	3355
8	1	1	2056	4	184	376	3357
9	1	1	2108	5	183	376	3359
10	1	1	2146	5	183	376	3359
11	1	1	2169	4	183	376	3359
12	1	1	2192	5	183	376	3359
13	1	1	2207	5	184	376	3357
14	1	1	2231	5	184	376	3355
15	1	1	2247	5	183	376	3354
16	1	1	2253	5	184	376	3355
17	1	1	2239	4	183	376	3356
18	1	1	2196	4	183	376	3358
19	1	1	2132	4	184	376	3358
20	1	1	2077	4	183	377	3359
21	1	1	2053	5	183	375	3359
22	1	1	2026	4	184	376	3359
23	1	1	1994	3	183	376	3357
24	1	1	1975	4	184	376	3355
25	1	1	1961	4	184	376	3354
26	1	1	1964	5	184	376	3354
27	1	1	1980	5	185	376	3355
28	1	1	2006	4	184	376	3357
29	1	1	2035	5	184	376	3358
30	1	1	2062	5	184	376	3359
31	1	1	2103	5	183	376	3359
32	1	1	2148	5	184	376	3359
33	1	1	2176	4	183	376	3357
34	1	1	2204	5	182	376	3355
35	1	1	2228	5	184	375	3354
36	1	1	2212	4	184	375	3355
37	1	1	2175	5	183	376	3356
38	1	1	2171	5	183	376	3357
39	1	1	2149	4	184	376	3359
40	1	1	2097	4	183	376	3359
41	1	1	2029	4	184	376	3360
42	1	1	1953	4	184	376	3359
43	1	1	1896	4	185	376	3358
44	1	1	1842	4	184	376	3356
45	1	1	1795	5	184	376	3354
46	1	1	1798	6	184	375	3355
47	1	1	1853	5	184	376	3355
48	1	1	1909	3	184	376	3356
49	1	1	1939	5	184	376	3358
50	1	1	1978	6	182	376	3359
51	1	1	2015	5	184	375	3359
52	1	1	2041	5	184	376	3359
53	1	1	2068	5	184	376	3358
54	1	1	2096	5	183	376	3355
55	1	1	2130	5	182	376	3354
56	1	1	2112	5	183	376	3354
57	1	1	2074	4	183	376	3355
58	1	1	2032	4	183	376	3357
59	1	1	1988	4	184	376	3359
60	1	1	1932	3	183	376	3359
61	1	1	1868	4	183	376	3359
62	1	1	1829	4	185	376	3358
63	1	1	1825	4	183	376	3357
64	1	1	1821	4	184	375	3355
65	1	1	1820	6	184	376	3354
66	1	1	1837	5	183	376	3354
67	1	1	1861	5	185	376	3355
68	1	1	1873	4	184	376	3357
69	1	1	1897	5	184	376	3358
70	1	1	1940	5	184	376	3359
71	1	1	1995	5	183	376	3359
72	1	1	2048	5	184	376	3359
73	1	1	2089	5	183	376	3358
74	1	1	2120	5	183	376	3355
75	1	1	2127	5	183	376	3354
76	1	1	2087	4	184	376	3354
77	1	1	2056	4	184	376	3355
78	1	1	2050	4	183	376	3357
79	1	1	2042	4	184	376	3358
80	1	1	2007	4	183	376	3359
81	1	1	1960	4	184	376	3359
82	1	1	1922	4	184	376	3358
83	1	1	1887	3	185	376	3357
84	1	1	1854	4	185	376	3355
85	1	1	1833	5	183	376	3354
86	1	1	1845	5	184	376	3355
87	1	1	1887	5	185	376	3356
88	1	1	1950	5	185	376	3358
89	1	1	2011	5	184	376	3359
90	1	1	2052	5	185	375	3359
91	1	1	2037	4	185	375	3360
92	1	0	2015	4	184	376	3359
93	1	0	1980	4	183	376	3358
94	1	0	1983	5	183	376	3356
95	1	0	2007	5	183	376	3354
96	1	0	2023	5	184	375	3355
97	1	0	2041	5	183	376	3356
98	1	0	2046	5	183	376	3357
99	1	0	2042	5	183	376	3358
100	1	0	2037	5	183	376	3359
101	1	0	2009	4	184	376	3359
102	1	0	1945	4	184	376	3359
103	1	0	1875	4	183	376	3358
104	1	0	1776	4	184	376	3355
105	1	0	1693	4	183	376	3354
106	1	0	1705	5	185	376	3355
107	1	0	1774	5	183	376	3356
108	1	0	1843	5	183	376	3357
109	1	0	1917	5	185	376	3358
110	1	0	1985	5	185	376	3359
111	1	0	2043	5	184	376	3359
112	1	0	2092	5	183	376	3359
113	1	0	2112	4	184	376	3358
114	1	0	2111	5	183	376	3354
115	1	0	2119	5	183	376	3354
116	1	0	2120	5	182	376	3354
117	1	0	2131	5	181	376	3356
118	1	0	2116	4	182	376	3357
119	1	0	2072	4	184	376	3359
120	1	0	2028	5	183	376	3359
121	1	0	1996	4	184	376	3359
122	1	0	1973	4	185	376	3360
123	1	0	1934	4	184	376	3358
124	1	0	1878	4	184	376	3356
125	1	0	1844	5	184	376	3354
126	1	0	1859	5	185	376	3355
127	1	0	1891	5	184	376	3356
0	1	0	1941	5	183	376	3357
1	1	0	1997	5	184	376	3359
2	1	0	2027	5	183	376	3359
3	1	0	2046	5	184	376	3359
4	1	0	2078	5	185	376	3358
5	1	0	2100	5	184	376	3357
6	1	0	2104	5	182	376	3355
7	1	0	2113	5	183	376	3354
8	1	0	2117	5	183	376	3355
9	1	0	2114	5	183	376	3356
10	1	0	2095	5	183	376	3357
11	1	0	2068	4	183	376	3358
12	1	0	2022	4	183	376	3359
13	1	0	1982	4	182	376	3359
14	1	0	1962	4	185	376	3358
15	1	0	1950	4	184	376	3357
16	1	0	1928	4	184	376	3355
17	1	0	1902	4	183	376	3354
18	1	0	1890	4	184	376	3354
19	1	0	1894	5	184	376	3356
20	1	0	1928	5	184	376	3357
21	1	0	1986	5	184	376	3358
22	1	0	2028	5	183	376	3360
23	1	0	2044	5	184	376	3359
24	1	0	2054	5	183	376	3359
25	1	0	2072	5	185	376	3358
26	1	0	2099	5	182	376	3355
27	1	0	2134	5	184	376	3355
28	1	0	2155	5	183	376	3354
29	1	0	2145	5	183	375	3355
30	1	0	2124	4	184	376	3357
31	1	0	2097	4	184	376	3358
32	1	0	2046	4	184	376	3359
33	1	0	1989	4	184	375	3359
34	1	0	1931	4	184	376	3359
35	1	0	1863	4	183	376	3358
36	1	0	1795	4	183	376	3356
37	0	0	1773	4	184	376	3354
38	0	0	1802	5	184	376	3354
39	0	0	1838	5	185	375	3355
40	0	0	1886	5	184	376	3357
41	0	0	1963	5	185	376	3358
42	0	0	2023	5	184	376	3360
43	0	0	2048	6	184	376	3359
44	0	0	2079	5	184	375	3359
45	0	0	2117	5	184	376	3357
46	0	0	2168	5	183	376	3355
47	0	0	2236	5	182	376	3354
48	0	0	2265	4	183	376	3354
49	0	0	2234	4	183	376	3356
50	0	0	2173	4	183	376	3358
51	0	0	2087	4	184	376	3358
52	0	0	2012	4	184	376	3359
53	0	0	1977	4	183	375	3359
54	0	0	1957	5	185	376	3359
55	0	0	1943	5	184	376	3358
56	0	0	1924	4	184	376	3356
57	0	0	1899	5	185	376	3354
58	0	0	1901	5	184	376	3355
59	0	0	1906	5	184	376	3356
60	0	0	1934	4	184	376	3357
61	0	0	1996	5	183	376	3358
62	0	0	2076	5	184	376	3360
63	0	0	2129	5	185	377	3359
64	0	0	2146	5	184	375	3359
65	0	0	2136	5	184	376	3358
66	0	0	2156	5	183	376	3355
67	0	0	2183	5	184	376	3354
68	0	0	2160	4	184	376	3355
69	0	0	2108	4	183	376	3356
70	0	0	2070	4	183	376	3357
71	0	0	2046	4	183	376	3358
72	0	0	2028	5	184	376	3359
73	0	0	2005	3	185	376	3359
74	0	0	1977	4	184	376	3359
75	0	0	1971	5	184	376	3358
76	0	0	1959	4	184	376	3355
77	0	0	1932	5	184	376	3355
78	0	0	1935	5	185	375	3355
79	0	0	1947	5	185	375	3356
80	0	0	1964	5	183	376	3358
81	0	0	2000	5	184	376	3358
82	0	0	2038	5	185	376	3359
83	0	0	2061	6	183	376	3359
84	0	0	2092	5	183	376	3359
85	0	0	2137	5	184	376	3358
86	0	0	2171	5	184	376	3356
87	0	0	2194	5	184	376	3354
88	0	0	2180	4	183	376	3355
89	0	0	2156	4	183	376	3356
90	0	0	2123	4	184	376	3357
91	0	0	2083	4	183	376	3358
92	0	0	2042	4	184	376	3359
93	0	0	2014	5	184	376	3359
94	0	0	2009	5	184	376	3359
95	0	0	2009	5	184	376	3358
96	0	0	1991	4	184	376	3355
97	0	0	1949	4	185	376	3354
98	0	0	1924	4	185	376	3354
99	0	0	1929	5	185	376	3355
100	0	0	1946	5	184	376	3357
101	0	0	1973	5	183	376	3359
102	0	0	2013	5	184	376	3359
103	0	0	2063	5	183	376	3359
104	0	0	2116	5	184	376	3359
105	0	0	2153	5	183	376	3358
106	0	0	2166	5	183	376	3355
107	0	0	2159	5	183	376	3355
108	0	0	2142	4	184	375	3354
109	0	0	2144	5	184	376	3355
110	0	0	2161	5	184	376	3357
111	0	0	2115	4	184	376	3358
112	0	0	2043	5	183	375	3359
113	0	0	1998	4	184	376	3359
114	0	0	1978	5	183	376	3359
115	0	0	1977	5	184	376	3357
116	0	0	1958	4	184	376	3355
117	0	0	1906	4	185	376	3354
118	0	0	1852	4	185	376	3355
119	0	0	1859	5	184	376	3356
120	0	0	1921	5	184	376	3357
121	0	0	1993	5	184	376	3359
122	0	0	2036	5	184	376	3359
123	0	0	2069	5	184	376	3359
124	0	0	2107	5	184	375	3359
125	0	0	2136	5	184	376	3358
126	0	0	2146	5	184	376	3355
127	0	0	2170	5	183	376	3354
0	0	0	2172	5	183	376	3354
1	0	0	2160	5	183	375	3355
2	0	0	2141	4	184	376	3358
3	0	0	2112	4	183	376	3358
4	0	0	2075	4	184	376	3359
5	0	0	2034	4	184	376	3359
6	0	0	2004	4	184	375	3358
7	0	0	1984	4	184	376	3357
8	0	0	1947	4	184	376	3355
9	0	0	1897	4	183	376	3354
10	0	0	1892	5	184	376	3354
11	0	0	1929	5	184	376	3356
12	0	0	1996	5	185	376	3357
13	0	0	2077	5	184	376	3358
14	0	0	2124	5	183	376	3359
15	0	0	2152	5	184	376	3359
16	0	0	2181	5	183	376	3359
17	0	0	2180	5	184	376	3357
18	0	0	2175	5	184	376	3355
19	0	0	2204	5	183	376	3354
20	0	0	2233	4	183	376	3354
21	0	0	2218	4	183	375	3355
22	0	0	2152	4	184	376	3357
23	0	0	2077	4	183	376	3358
24	0	0	2032	5	183	376	3359
25	0	0	2003	4	183	375	3359
26	0	0	1963	4	183	375	3359
27	0	0	1920	4	184	376	3358
28	0	0	1863	4	184	376	3355
29	0	0	1830	5	185	376	3354
30	0	0	1863	5	185	376	3354
31	0	0	1923	5	184	376	3356
32	0	0	1981	5	184	376	3357
33	0	0	2020	5	184	376	3358
34	0	0	2042	5	184	376	3358
35	0	0	2082	5	183	376	3359
36	0	0	2152	5	184	375	3358
37	0	0	2213	5	183	376	3357
38	0	0	2233	5	182	376	3354
39	0	0	2227	5	183	376	3353
40	0	0	2209	4	183	376	3354
41	0	0	2193	4	184	375	3355
42	0	0	2157	4	184	376	3357
43	0	0	2108	4	184	376	3358
44	0	0	2077	4	184	376	3358
45	0	0	2054	4	183	376	3359
46	0	0	2010	4	183	376	3359
47	0	0	1958	4	184	376	3357
48	0	0	1911	4	184	376	3354
49	0	0	1844	4	185	376	3353
50	0	0	1792	3	184	376	3354
51	0	0	1792	5	184	376	3355
52	0	0	1839	5	182	376	3356
53	0	0	1926	5	184	376	3358
54	0	0	1988	5	185	376	3358
55	0	0	2032	4	185	376	3358
56	0	0	2075	5	184	376	3358
57	0	0	2099	5	184	376	3357
58	0	0	2108	5	183	376	3354
59	0	0	2124	5	183	376	3353
60	0	0	2128	5	184	376	3354
61	0	0	2122	5	184	376	3355
62	0	0	2110	4	183	376	3357
63	0	0	2070	4	183	375	3358
64	0	0	2030	4	182	376	3359
65	0	0	1995	4	185	376	3359
66	0	0	1964	4	183	376	3359
67	0	0	1933	4	184	376	3357
68	0	0	1894	4	184	376	3355
69	0	0	1875	4	184	376	3353
70	0	0	1890	5	183	376	3354
71	0	0	1916	5	185	376	3356
72	0	0	1952	5	183	376	3356
73	0	0	2012	5	184	376	3357
74	0	0	2074	5	184	376	3358
75	0	0	2115	4	185	376	3358
76	0	0	2138	5	184	375	3358
77	0	0	2153	5	185	376	3357
78	0	0	2168	5	184	376	3354
79	0	0	2185	5	184	376	3353
80	0	0	2187	5	184	376	3354
81	0	0	2197	5	185	376	3355
82	0	0	2189	5	183	376	3357
83	0	0	2166	4	183	376	3357
84	0	0	2111	4	183	376	3359
85	0	0	2041	4	184	375	3359
86	0	0	1976	5	184	375	3358
87	0	0	1929	4	184	376	3358
88	0	0	1902	4	183	376	3354
89	0	0	1884	4	184	376	3354
90	0	0	1887	5	183	377	3354
91	0	0	1887	5	184	376	3355
92	0	0	1906	5	184	376	3356
93	0	0	1969	5	184	376	3357
94	0	0	2039	5	184	376	3358
95	0	0	2098	5	184	376	3359
96	0	0	2132	5	184	376	3358
97	0	0	2131	5	183	376	3357
98	0	0	2124	5	183	376	3355
99	0	0	2140	4	183	376	3353
100	0	0	2153	5	183	376	3354
101	0	0	2131	4	183	376	3355
102	0	0	2123	5	184	376	3357
103	0	0	2119	5	182	376	3357
104	0	0	2088	4	184	376	3358
105	0	0	2005	4	184	376	3359
106	0	0	1949	4	185	376	3358
107	0	0	1937	4	184	376	3357
108	0	0	1944	5	185	375	3354
109	0	0	1968	5	184	376	3353
110	0	0	2005	5	184	376	3354
111	0	0	2030	5	184	376	3355
112	0	0	2038	5	185	376	3356
113	0	0	2020	4	183	376	3358
114	0	0	1970	3	185	376	3358
115	0	0	1940	5	183	375	3359
116	0	0	1978	5	184	376	3358
117	0	0	2069	5	185	376	3357
118	0	0	2135	5	184	376	3354
119	0	0	2184	5	184	376	3353
120	0	0	2190	5	184	376	3353
121	0	0	2154	4	183	376	3354
122	0	0	2119	4	184	376	3356
123	0	0	2070	4	184	376	3357
124	0	0	2008	4	183	376	3358
125	0	0	1950	4	183	376	3358
126	0	0	1924	5	185	376	3358
127	0	0	1937	5	184	376	3357
0	0	0	1936	4	184	376	3354
1	0	0	1912	4	184	376	3354
2	0	0	1920	5	185	376	3353
3	0	0	1928	5	184	376	3354
4	0	0	1931	5	185	376	3356
5	0	0	1955	5	183	376	3357
6	0	0	1979	5	184	376	3358
7	0	0	1984	5	183	376	3359
8	0	0	1982	5	183	376	3359
9	0	0	2009	5	184	376	3357
10	0	0	2057	5	184	376	3354
11	0	0	2115	5	183	376	3354
12	0	0	2151	5	184	376	3353
13	0	0	2172	5	184	376	3355
14	0	0	2187	5	184	376	3356
15	0	0	2172	5	184	376	3357
16	0	0	2127	4	184	376	3358
17	0	0	2052	4	183	376	3358
18	0	0	1986	4	184	376	3358
19	0	0	1947	4	183	376	3357
20	0	0	1919	4	184	376	3354
21	0	0	1899	4	184	376	3353
22	0	0	1912	5	185	376	3353
23	0	0	1938	5	185	376	3354
24	0	0	1978	5	184	376	3356
25	0	0	2044	5	184	376	3358
26	0	0	2102	4	184	376	3358
27	0	0	2140	5	184	376	3358
28	0	0	2168	5	183	376	3358
29	0	0	2195	5	184	375	3356
30	0	0	2207	5	183	376	3355
31	0	0	2210	5	183	376	3352
32	0	0	2182	4	183	376	3353
33	0	0	2145	4	183	376	3354
34	0	0	2123	5	183	376	3356
35	0	0	2124	5	183	376	3357
36	0	0	2128	5	182	376	3358
37	0	0	2113	5	184	376	3358
38	0	0	2091	4	184	376	3358
39	0	0	2073	4	184	376	3356
40	0	0	2057	5	184	376	3353
41	0	0	2033	4	184	376	3352
42	0	0	2026	5	184	376	3354
43	0	0	2031	4	184	376	3355
44	0	0	2048	5	184	375	3356
45	0	0	2094	5	184	376	3358
46	0	0	2136	5	183	376	3358
47	0	0	2189	5	185	376	3358
48	0	0	2251	5	183	376	3357
49	0	0	2301	5	184	375	3356
50	0	0	2323	5	184	376	3353
51	0	0	2325	4	184	376	3352
52	0	0	2296	5	185	376	3353
53	0	0	2268	4	183	376	3354
54	0	0	2235	4	184	376	3356
55	0	0	2187	4	184	376	3356
56	0	0	2143	4	182	376	3359
57	0	0	2103	4	183	376	3358
58	0	0	2075	5	183	376	3358
59	0	0	2080	5	184	376	3356
60	0	0	2085	5	184	376	3353
61	0	0	2049	3	184	376	3353
62	0	0	2022	4	185	376	3353
63	0	0	2016	5	184	376	3354
64	0	0	2057	5	184	376	3356
65	0	0	2137	5	184	376	3356
66	0	0	2205	5	184	376	3358
67	0	0	2273	5	184	376	3358
68	0	0	2326	5	184	376	3358
69	0	0	2346	5	182	376	3356
70	0	0	2314	4	184	376	3354
71	0	0	2269	4	184	376	3352
72	0	0	2227	4	184	376	3353
73	0	0	2214	5	184	376	3354
74	0	0	2218	5	183	376	3356
75	0	0	2193	4	184	376	3356
76	0	0	2142	4	183	376	3357
77	0	0	2100	4	183	376	3358
78	0	0	2079	4	183	376	3357
79	0	0	2070	5	184	376	3357
80	0	0	2055	5	184	376	3353
81	0	0	2036	5	184	376	3353
82	0	0	2055	5	184	376	3353
83	0	0	2091	5	184	376	3354
84	0	0	2116	5	184	376	3356
85	0	0	2144	5	184	376	3356
86	0	0	2169	5	183	376	3357
87	0	0	2164	4	183	376	3358
88	0	0	2150	5	184	376	3357
89	0	0	2150	5	183	376	3356
90	0	0	2153	5	184	376	3354
91	0	0	2178	5	183	376	3352
92	0	0	2194	5	183	376	3352
93	0	0	2200	5	184	376	3354
94	0	0	2201	5	183	376	3356
95	0	0	2180	4	184	376	3356
96	0	0	2159	4	183	376	3357
97	0	0	2142	5	184	376	3357
98	0	0	2124	4	183	376	3357
99	0	0	2089	4	184	376	3357
100	0	0	2034	4	183	376	3353
101	0	0	1990	4	184	376	3353
102	0	0	1999	5	183	376	3354
103	0	0	2023	5	184	376	3354
104	0	0	2056	5	183	376	3356
105	0	0	2108	5	184	376	3356
106	0	0	2149	5	184	376	3357
107	0	0	2170	5	184	376	3358
108	0	0	2185	5	184	376	3357
109	0	0	2200	5	184	375	3356
110	0	0	2211	5	184	376	3354
111	0	0	2224	6	183	376	3352
112	0	0	2213	4	183	376	3352
113	0	0	2177	4	183	376	3354
114	0	0	2144	4	184	376	3356
115	0	0	2121	4	183	376	3356
116	0	0	2100	4	184	376	3358
117	0	0	2077	4	182	376	3358
118	0	0	2043	4	184	376	3357
119	0	0	2025	5	184	376	3356
120	0	0	2024	5	184	376	3353
121	0	0	2011	5	183	376	3352
122	0	0	2016	5	184	376	3352
123	0	0	2033	5	184	375	3353
124	0	0	2028	5	184	376	3355
125	0	0	2023	5	184	376	3356
126	0	0	2049	5	184	376	3357
127	0	0	2099	5	184	376	3357
0	0	0	2154	5	183	376	3357
1	0	0	2194	5	182	376	3356
2	0	0	2232	5	183	376	3353
3	0	0	2262	5	184	376	3352
4	0	0	2257	5	183	376	3352
5	0	0	2238	4	184	377	3353
6	0	0	2214	4	183	376	3356
7	0	0	2167	4	184	376	3356
8	0	0	2123	4	184	376	3358
9	0	0	2094	4	183	377	3357
10	0	0	2037	4	184	377	3357
11	0	0	1984	5	183	376	3356
12	0	0	1955	4	184	376	3352
13	0	0	1955	5	184	376	3353
14	0	0	1976	4	183	376	3352
15	0	0	1999	5	185	376	3354
16	0	0	2036	5	183	375	3355
17	0	0	2097	5	184	376	3357
18	0	0	2133	5	185	376	3357
19	0	0	2125	4	184	376	3357
20	0	0	2112	5	183	377	3357
21	0	0	2118	5	184	376	3356
22	0	0	2128	5	183	376	3353
23	0	0	2157	4	185	376	3352
24	0	0	2184	5	183	376	3352
25	0	0	2166	4	184	376	3353
26	0	0	2130	4	182	376	3355
27	0	0	2092	4	183	376	3356
28	0	0	2054	4	184	376	3357
29	0	0	2021	4	184	376	3357
30	0	0	1998	4	184	377	3357
31	0	0	1975	4	185	376	3356
32	0	0	1929	4	183	376	3353
33	0	0	1893	5	185	376	3352
34	0	0	1900	5	184	377	3352
35	0	0	1914	5	184	377	3353
36	0	0	1922	5	184	375	3355
37	0	0	1948	5	184	376	3355
38	0	0	1979	5	183	376	3357
39	0	0	1991	5	184	376	3357
40	0	0	1993	5	183	376	3357
41	0	0	1996	5	183	375	3355
42	0	0	2008	5	184	376	3352
43	0	0	2032	4	184	376	3351
44	0	0	2041	5	184	376	3352
45	0	0	2014	4	183	377	3353
46	0	0	1988	4	183	376	3355
47	0	0	1990	5	184	376	3355
48	0	0	2025	5	183	376	3357
49	0	0	2051	5	184	376	3357
50	0	0	2064	5	183	377	3356
51	0	0	2084	5	184	376	3356
52	0	0	2101	5	185	376	3352
53	0	0	2104	5	183	376	3351
54	0	0	2151	4	183	376	3352
55	0	0	2221	5	184	375	3353
56	0	0	2294	5	183	376	3354
57	0	0	2384	5	184	376	3355
58	0	0	2459	5	183	376	3356
59	0	0	2524	5	184	376	3357
60	0	0	2594	5	184	376	3356
61	0	0	2663	5	184	376	3355
62	0	0	2707	5	183	376	3352
63	0	0	2745	5	184	376	3351
64	0	0	2770	4	183	376	3352
65	0	0	2754	4	183	376	3354
66	0	0	2703	4	183	376	3355
67	0	0	2630	4	183	376	3355
68	0	0	2568	4	184	376	3356
69	0	0	2528	4	184	376	3356
70	0	0	2482	4	184	377	3356
71	0	0	2409	4	184	376	3355
72	0	0	2315	4	184	376	3352
73	0	0	2211	4	184	376	3351
74	0	0	2148	4	184	376	3352
75	0	0	2125	4	184	376	3353
76	0	0	2111	5	183	376	3354
77	0	0	2127	5	185	376	3355
78	0	0	2163	5	184	376	3356
79	0	0	2183	5	183	376	3356
80	0	0	2201	5	184	377	3356
81	0	0	2207	5	184	376	3356
82	0	0	2197	5	184	377	3353
83	0	0	2202	5	183	376	3351
84	0	0	2197	4	184	376	3352
85	0	0	2154	4	184	376	3353
86	0	0	2104	4	183	377	3354
87	0	0	2063	4	183	376	3354
88	0	0	2028	4	183	376	3357
89	0	0	2001	4	183	376	3356
90	0	0	1984	4	183	377	3356
91	0	0	1954	4	184	376	3355
92	0	0	1906	4	183	376	3352
93	0	0	1869	4	184	376	3351
94	0	0	1871	5	184	376	3351
95	0	0	1898	5	185	376	3353
96	0	0	1944	5	183	376	3354
97	0	0	1979	5	184	376	3356
98	0	0	1996	6	184	375	3355
99	0	0	2022	4	183	376	3356
100	0	0	2048	5	184	376	3356
101	0	0	2076	5	184	376	3354
102	0	0	2091	5	184	376	3352
103	0	0	2122	5	184	376	3351
104	0	0	2144	5	183	376	3351
105	0	0	2127	5	184	376	3352
106	0	0	2122	5	182	376	3354
107	0	0	2120	5	184	376	3354
108	0	0	2085	4	183	376	3355
109	0	0	2027	3	183	376	3356
110	0	0	1996	4	183	376	3356
111	0	0	1990	5	184	376	3354
112	0	0	1978	4	184	376	3352
113	0	0	1956	5	184	376	3350
114	0	0	1968	5	184	376	3351
115	0	0	1994	5	185	376	3352
116	0	0	2016	5	184	376	3353
117	0	0	2043	5	184	376	3355
118	0	0	2056	5	183	376	3355
119	0	0	2062	5	185	376	3356
120	0	0	2082	5	184	376	3356
121	0	0	2092	5	184	376	3354
122	0	0	2091	5	183	376	3351
123	0	0	2078	5	185	376	3350
124	0	0	2058	4	183	376	3351
125	0	0	2030	4	183	376	3352
126	0	0	2004	4	183	376	3354
127	0	0	1976	5	184	376	3354
0	0	0	1973	5	183	376	3355
1	0	0	1996	5	184	376	3356
2	0	0	2027	5	184	376	3356
3	0	0	2046	5	183	376	3354
4	0	0	2039	4	184	376	3351
5	0	0	2037	5	185	376	3350
6	0	0	2057	5	184	376	3351
7	0	0	2058	5	183	376	3351
8	0	0	2045	5	185	376	3353
9	0	0	2037	5	184	376	3354
10	0	0	2053	5	183	376	3356
11	0	0	2086	5	184	376	3356
12	0	0	2115	5	184	376	3355
13	0	0	2132	5	184	376	3354
14	0	0	2134	5	184	376	3351
15	0	0	2147	5	183	375	3350
16	0	0	2167	4	183	376	3350
17	0	0	2167	5	184	376	3352
18	0	0	2131	4	184	376	3353
19	0	0	2087	4	183	376	3354
20	0	0	2062	4	185	376	3355
21	0	0	2034	4	184	376	3355
22	0	0	2005	5	183	377	3355
23	0	0	1952	4	183	376	3354
24	0	0	1877	4	184	376	3351
25	0	0	1854	5	184	376	3351
26	0	0	1912	4	184	376	3351
27	0	0	1966	5	184	376	3351
28	0	0	2010	5	183	376	3353
29	0	0	2061	5	184	376	3354
30	0	0	2103	4	184	376	3356
31	0	0	2135	4	184	376	3355
32	0	0	2168	5	183	376	3355
33	0	0	2209	5	182	376	3354
34	0	0	2243	5	183	376	3351
35	0	0	2265	5	183	375	3350
36	0	0	2267	6	184	376	3350
37	0	0	2250	4	183	376	3351
38	0	0	2224	4	182	376	3352
39	0	0	2191	5	184	376	3353
40	0	0	2160	4	183	375	3355
41	0	0	2132	4	183	376	3355
42	0	0	2097	4	185	376	3354
43	0	0	2057	4	184	376	3354
44	0	0	1999	4	184	376	3350
45	0	0	1937	4	185	376	3350
46	0	0	1930	5	183	376	3350
47	0	0	1955	5	184	376	3351
48	0	0	1990	5	183	375	3352
49	0	0	2060	5	184	376	3354
50	0	0	2132	7	184	376	3354
51	0	0	2176	5	184	376	3355
52	0	0	2183	5	183	376	3355
53	0	0	2174	5	185	376	3353
54	0	0	2188	5	184	376	3350
55	0	0	2214	5	183	375	3350
56	0	0	2219	4	184	376	3349
57	0	0	2220	5	183	376	3351
58	0	0	2216	4	184	376	3352
59	0	0	2172	4	183	376	3353
60	0	0	2129	4	185	376	3354
61	0	0	2115	5	184	376	3354
62	0	0	2104	4	185	376	3354
63	0	0	2074	4	185	376	3353
64	0	0	2019	4	183	376	3351
65	0	0	1948	4	183	376	3349
66	0	0	1921	4	184	376	3349
67	0	0	1934	5	184	376	3351
68	0	0	1974	5	184	376	3352
69	0	0	2044	5	184	376	3352
70	0	0	2125	5	184	375	3353
71	0	0	2192	5	184	376	3354
72	0	0	2247	5	185	376	3354
73	0	0	2260	5	183	376	3353
74	0	0	2258	6	183	376	3349
75	0	0	2281	5	184	376	3349
76	0	0	2292	6	184	376	3349
77	0	0	2273	4	183	376	3350
78	0	0	2232	4	183	376	3352
79	0	0	2188	4	183	376	3354
80	0	0	2170	5	184	375	3353
81	0	0	2149	5	184	376	3354
82	0	0	2116	4	184	376	3354
83	0	0	2065	4	183	376	3352
84	0	0	2010	4	184	376	3350
85	0	0	1968	4	185	375	3349
86	0	0	1981	5	185	376	3349
87	0	0	1997	5	183	376	3350
88	0	0	1999	5	185	376	3352
89	0	0	2038	5	184	376	3352
90	0	0	2094	5	183	377	3353
91	0	0	2147	5	185	376	3353
92	0	0	2211	5	184	376	3353
93	0	0	2268	5	183	376	3352
94	0	0	2275	5	183	376	3349
95	0	0	2257	4	184	376	3348
96	0	0	2224	5	185	376	3348
97	0	0	2190	4	183	376	3349
98	0	0	2155	4	184	376	3351
99	0	0	2111	4	185	376	3352
100	0	0	2074	4	183	376	3353
101	0	0	2050	5	184	376	3353
102	0	0	2034	4	183	376	3353
103	0	0	2033	5	184	376	3352
104	0	0	2029	4	185	376	3350
105	0	0	2004	4	185	376	3347
106	0	0	2012	5	184	376	3348
107	0	0	2042	5	184	376	3350
108	0	0	2082	4	183	376	3351
109	0	0	2107	5	184	376	3352
110	0	0	2142	5	184	376	3352
111	0	0	2194	5	183	375	3353
112	0	0	2222	5	183	376	3352
113	0	0	2212	5	184	376	3351
114	0	0	2198	5	184	376	3348
115	0	0	2216	5	183	375	3348
116	0	0	2226	5	183	376	3349
117	0	0	2219	5	183	376	3349
118	0	0	2214	5	184	375	3350
119	0	0	2192	4	183	376	3351
120	0	0	2154	4	183	376	3352
121	0	0	2108	4	183	376	3352
122	0	0	2073	4	183	377	3352
123	0	0	2048	4	184	376	3351
124	0	0	2025	4	184	376	3349
125	0	0	2008	6	184	375	3347
126	0	0	2008	5	184	376	3347
127	0	0	2017	5	184	376	3349
0	0	0	2036	5	183	376	3350
1	0	0	2072	5	184	376	3351
2	0	0	2109	5	185	376	3352
3	0	0	2171	5	184	375	3352
4	0	0	2240	5	184	376	3351
5	0	0	2275	5	184	375	3351
6	0	0	2287	5	182	375	3347
7	0	0	2299	5	183	376	3346
8	0	0	2281	4	183	376	3347
9	0	0	2244	4	183	376	3348
10	0	0	2221	4	183	376	3350
11	0	0	2196	4	185	376	3350
12	0	0	2168	4	184	375	3352
13	0	0	2147	5	184	376	3352
14	0	0	2129	4	184	376	3351
15	0	0	2099	4	184	376	3350
16	0	0	2065	4	183	376	3347
17	0	0	2058	5	183	376	3346
18	0	0	2090	5	184	376	3346
19	0	0	2130	4	185	376	3347
20	0	0	2154	5	184	376	3349
21	0	0	2179	5	184	376	3351
22	0	0	2215	5	183	376	3351
23	0	0	2251	6	184	376	3352
24	0	0	2265	5	184	376	3351
25	0	0	2257	5	184	376	3350
26	0	0	2289	5	184	376	3347
27	0	0	2313	5	184	376	3345
28	0	0	2276	4	183	376	3346
29	0	0	2218	4	183	376	3347
30	0	0	2202	5	183	376	3349
31	0	0	2207	5	184	376	3350
32	0	0	2191	4	185	376	3350
33	0	0	2152	4	183	376	3351
34	0	0	2102	4	184	377	3350
35	0	0	2055	4	184	376	3349
36	0	0	2015	4	183	376	3348
37	0	0	1974	4	184	376	3345
38	0	0	1976	5	184	376	3346
39	0	0	2008	5	184	376	3347
40	0	0	2063	5	185	377	3348
41	0	0	2139	5	183	376	3349
42	0	0	2201	5	184	376	3350
43	0	0	2234	5	183	376	3350
44	0	0	2248	5	184	376	3350
45	0	0	2254	5	184	376	3349
46	0	0	2262	5	184	376	3346
47	0	0	2259	5	183	375	3346
48	0	0	2238	5	183	376	3345
49	0	0	2212	4	184	376	3346
50	0	0	2211	5	183	376	3348
51	0	0	2212	5	184	376	3349
52	0	0	2187	4	184	376	3350
53	0	0	2146	5	183	376	3350
54	0	0	2110	4	183	376	3350
55	0	0	2074	4	184	376	3348
56	0	0	2041	4	184	376	3345
57	0	0	2004	4	184	376	3344
58	0	0	1992	5	183	377	3344
59	0	0	2002	5	185	376	3345
60	0	0	2040	5	185	376	3347
61	0	0	2114	5	184	376	3349
62	0	0	2181	6	184	376	3349
63	0	0	2224	6	184	376	3349
64	0	0	2256	5	184	376	3350
65	0	0	2263	5	184	376	3347
66	0	0	2267	6	184	376	3344
67	0	0	2268	5	184	375	3343
68	0	0	2242	5	183	377	3343
69	0	0	2201	4	183	376	3344
70	0	0	2166	4	183	375	3346
71	0	0	2115	4	183	376	3347
72	0	0	2057	4	183	376	3349
73	0	0	1991	4	184	376	3348
74	0	0	1953	4	183	376	3348
75	0	0	1955	5	184	376	3347
76	0	0	1936	4	184	376	3343
77	0	0	1902	4	184	376	3343
78	0	0	1894	5	184	376	3343
79	0	0	1918	5	184	376	3343
80	0	0	1973	5	184	375	3345
81	0	0	2042	5	184	376	3346
82	0	0	2094	5	184	375	3348
83	0	0	2115	5	183	376	3347
84	0	0	2131	5	183	376	3347
85	0	0	2148	5	184	376	3345
86	0	0	2163	5	184	376	3342
87	0	0	2186	5	184	376	3341
88	0	0	2166	4	184	376	3341
89	0	0	2097	4	184	376	3342
90	0	0	2022	4	183	376	3344
91	0	0	1977	4	183	376	3345
92	0	0	1975	5	183	376	3347
93	0	0	1979	5	184	376	3347
94	0	0	1975	5	184	376	3346
95	0	0	1964	4	184	376	3345
96	0	0	1942	4	184	376	3341
97	0	0	1906	4	183	376	3340
98	0	0	1901	6	184	376	3340
99	0	0	1922	5	183	376	3341
100	0	0	1954	5	184	376	3343
101	0	0	1993	5	184	376	3344
102	0	0	2049	5	183	375	3344
103	0	0	2117	6	183	376	3345
104	0	0	2170	5	184	376	3345
105	0	0	2176	5	184	375	3343
106	0	0	2158	5	183	376	3340
107	0	0	2157	5	184	375	3340
108	0	0	2159	4	185	376	3339
109	0	0	2156	4	183	376	3340
110	0	0	2143	5	183	375	3341
111	0	0	2096	4	183	376	3342
112	0	0	2023	4	183	376	3343
113	0	0	1952	5	182	376	3343
114	0	0	1899	4	183	376	3343
115	0	0	1869	4	184	375	3342
116	0	0	1849	5	184	376	3339
117	0	0	1849	5	184	376	3337
118	0	0	1885	5	184	377	3337
119	0	0	1922	5	184	376	3338
120	0	0	1941	5	184	375	3340
121	0	0	1977	5	184	376	3342
122	0	0	2029	6	184	375	3342
123	0	0	2062	6	183	376	3342
124	0	0	2072	5	184	376	3342
125	0	0	2069	5	183	375	3340
126	0	0	2086	5	183	376	3338
127	0	0	2107	5	184	376	3336
0	0	0	2095	4	184	375	3336
1	0	0	2072	4	184	376	3337
2	0	0	2065	5	183	375	3339
3	0	0	2064	5	183	376	3339
4	0	0	2067	5	183	376	3341
5	0	0	2046	5	184	376	3340
6	0	0	2023	5	183	376	3340
7	0	0	1993	4	183	376	3339
8	0	0	1926	4	184	376	3336
9	0	0	1853	4	185	376	3334
10	0	0	1842	4	183	376	3335
11	0	0	1882	5	184	376	3335
12	0	0	1946	5	185	375	3337
13	0	0	2027	5	184	376	3338
14	0	0	2110	5	184	376	3338
15	0	0	2165	3	184	376	3339
16	0	0	2161	4	184	377	3338
17	0	0	2122	4	184	375	3337
18	0	0	2083	5	184	376	3334
19	0	0	2078	5	183	376	3333
20	0	0	2037	5	183	376	3333
21	0	0	1967	4	183	376	3335
22	0	0	1921	4	183	376	3335
23	0	0	1911	5	183	376	3337
24	0	0	1907	5	184	376	3338
25	0	0	1891	5	184	376	3337
26	0	0	1874	4	183	376	3337
27	0	0	1866	5	183	376	3336
28	0	0	1853	4	183	376	3332
29	0	0	1824	4	185	376	3331
30	0	0	1836	5	184	376	3331
31	0	0	1876	5	185	376	3333
32	0	0	1930	5	184	376	3334
33	0	0	1995	5	185	376	3334
34	0	0	2054	5	183	376	3335
35	0	0	2108	5	184	375	3336
36	0	0	2122	5	183	375	3335
37	0	0	2096	4	183	375	3334
38	0	0	2071	5	184	376	3331
39	0	0	2082	5	184	376	3330
40	0	0	2082	5	183	376	3331
41	0	0	2050	4	184	376	3331
42	0	0	2002	5	183	376	3333
43	0	0	1945	4	184	376	3333
44	0	0	1903	4	183	375	3334
45	0	0	1869	5	183	375	3334
46	0	0	1848	4	184	376	3334
47	0	0	1845	5	183	375	3332
48	0	0	1835	4	183	376	3330
49	0	0	1814	5	185	376	3328
50	0	0	1833	5	183	375	3328
51	0	0	1878	5	184	376	3329
52	0	0	1930	5	184	376	3330
53	0	0	1988	4	184	376	3331
54	0	0	2035	5	183	376	3333
55	0	0	2076	5	183	376	3333
56	0	0	2102	5	184	376	3332
57	0	0	2109	5	184	376	3331
58	0	0	2121	5	184	376	3328
59	0	0	2161	5	184	376	3326
60	0	0	2192	5	183	376	3327
61	0	0	2192	5	185	376	3328
62	0	0	2197	5	183	375	3329
63	0	0	2167	5	184	376	3330
64	0	0	2100	4	183	376	3332
65	0	0	2032	4	184	376	3331
66	0	0	1999	4	184	376	3331
67	0	0	1975	5	184	376	3330
68	0	0	1944	4	184	376	3326
69	0	0	1907	4	184	376	3326
70	0	0	1883	4	184	376	3326
71	0	0	1886	5	184	376	3326
72	0	0	1923	5	183	375	3327
73	0	0	1978	5	185	376	3328
74	0	0	2032	5	183	376	3330
75	0	0	2081	6	185	375	3329
76	0	0	2116	5	184	376	3329
77	0	0	2138	5	184	376	3328
78	0	0	2144	5	185	376	3324
79	0	0	2145	5	184	376	3323
80	0	0	2127	4	183	376	3324
81	0	0	2101	4	184	376	3324
82	0	0	2086	4	184	375	3326
83	0	0	2064	5	183	376	3328
84	0	0	2029	3	185	376	3327
85	0	0	1996	4	183	376	3328
86	0	0	1973	4	185	376	3328
87	0	0	1942	4	184	375	3326
88	0	0	1914	4	184	376	3323
89	0	0	1893	4	183	377	3321
90	0	0	1892	5	183	376	3322
91	0	0	1902	5	184	376	3323
92	0	0	1929	5	185	376	3325
93	0	0	1985	5	184	376	3325
94	0	0	2052	5	183	375	3326
95	0	0	2095	5	184	375	3326
96	0	0	2131	5	184	376	3326
97	0	0	2184	5	183	375	3324
98	0	0	2210	4	183	376	3322
99	0	0	2208	5	182	377	3320
100	0	0	2180	5	184	376	3320
101	0	0	2157	4	184	376	3321
102	0	0	2134	4	183	375	3322
103	0	0	2104	4	184	376	3323
104	0	0	2064	4	183	376	3324
105	0	0	2007	4	185	376	3325
106	0	0	1961	4	184	376	3324
107	0	0	1921	4	183	376	3323
108	0	0	1882	4	184	376	3320
109	0	0	1839	4	184	375	3318
110	0	0	1845	5	185	376	3318
111	0	0	1884	5	183	376	3319
112	0	0	1938	5	184	376	3321
113	0	0	1990	5	184	376	3323
114	0	0	2041	5	183	376	3322
115	0	0	2085	5	184	376	3322
116	0	0	2120	5	183	376	3322
117	0	0	2149	5	183	376	3321
118	0	0	2165	5	184	376	3317
119	0	0	2186	5	184	376	3317
120	0	0	2184	5	183	376	3316
121	0	0	2169	4	184	376	3317
122	0	0	2135	4	183	375	3319
123	0	0	2115	4	183	376	3320
124	0	0	2074	4	184	376	3320
125	0	0	2005	5	183	376	3321
126	0	0	1956	4	185	376	3321
127	0	0	1942	5	183	376	3319
0	0	0	1955	5	184	376	3316
1	0	0	1942	4	184	376	3315
2	0	0	1919	4	183	376	3315
3	0	0	1910	5	184	376	3315
4	0	0	1913	5	185	375	3317
5	0	0	1939	5	183	376	3317
6	0	0	1988	5	185	376	3318
7	0	0	2048	5	184	376	3318
8	0	0	2079	5	184	376	3318
9	0	0	2086	5	183	376	3317
10	0	0	2122	4	184	376	3315
11	0	0	2180	5	184	376	3312
12	0	0	2210	5	182	376	3312
13	0	0	2201	5	184	376	3314
14	0	0	2180	5	184	375	3315
15	0	0	2149	5	183	376	3315
16	0	0	2093	4	184	376	3318
17	0	0	2015	4	184	376	3317
18	0	0	1956	4	184	376	3316
19	0	0	1937	4	184	376	3315
20	0	0	1944	4	184	376	3313
21	0	0	1933	4	184	376	3310
22	0	0	1930	5	185	376	3310
23	0	0	1945	5	184	376	3311
24	0	0	1976	5	185	376	3312
25	0	0	2033	5	185	376	3314
26	0	0	2095	5	184	376	3315
27	0	0	2136	5	184	376	3316
28	0	0	2176	5	184	376	3314
29	0	0	2207	5	183	375	3313
30	0	0	2207	5	184	376	3311
31	0	0	2201	5	183	376	3308
32	0	0	2190	5	183	376	3308
33	0	0	2167	4	183	376	3309
34	0	0	2144	4	183	376	3311
35	0	0	2116	4	183	376	3311
36	0	0	2083	4	183	376	3313
37	0	0	2060	4	183	376	3312
38	0	0	2073	5	184	376	3312
39	0	0	2090	5	185	376	3311
40	0	0	2067	4	183	376	3307
41	0	0	2019	5	185	376	3306
42	0	0	2014	5	184	376	3306
43	0	0	2032	5	184	376	3308
44	0	0	2044	5	184	376	3308
45	0	0	2062	5	184	376	3310
46	0	0	2081	5	183	377	3310
47	0	0	2115	5	183	376	3310
48	0	0	2158	5	184	377	3310
49	0	0	2190	5	183	376	3309
50	0	0	2188	5	184	375	3305
51	0	0	2193	5	182	377	3303
52	0	0	2197	6	183	376	3304
53	0	0	2200	5	183	376	3305
54	0	0	2206	5	183	376	3307
55	0	0	2189	4	184	376	3307
56	0	0	2137	4	183	375	3308
57	0	0	2074	4	184	376	3308
58	0	0	2001	4	183	376	3307
59	0	0	1933	4	184	376	3306
60	0	0	1908	5	184	376	3303
61	0	0	1906	5	183	376	3301
62	0	0	1914	5	184	376	3301
63	0	0	1938	5	184	376	3302
64	0	0	1978	5	184	376	3304
65	0	0	2027	5	183	375	3305
66	0	0	2087	5	183	376	3306
67	0	0	2137	5	184	376	3306
68	0	0	2169	5	183	376	3307
69	0	0	2187	5	184	376	3304
70	0	0	2192	4	184	376	3302
71	0	0	2205	5	183	376	3299
72	0	0	2203	5	184	376	3299
73	0	0	2189	5	184	376	3300
74	0	0	2183	5	184	376	3302
75	0	0	2149	4	183	376	3302
76	0	0	2095	4	184	377	3303
77	0	0	2031	5	184	376	3304
78	0	0	1981	3	184	376	3304
79	0	0	1969	5	184	377	3303
80	0	0	1984	5	184	376	3299
81	0	0	1977	5	184	375	3297
82	0	0	1964	5	185	376	3297
83	0	0	1941	5	183	376	3298
84	0	0	1925	5	185	376	3300
85	0	0	1959	5	183	376	3300
86	0	0	2015	5	184	376	3301
87	0	0	2072	5	183	376	3302
88	0	0	2114	4	183	376	3301
89	0	0	2143	5	183	376	3300
90	0	0	2172	5	184	376	3296
91	0	0	2211	5	183	376	3294
92	0	0	2225	6	183	375	3294
93	0	0	2210	5	183	376	3296
94	0	0	2174	4	183	376	3297
95	0	0	2126	4	183	376	3299
96	0	0	2083	4	185	376	3299
97	0	0	2046	4	184	376	3300
98	0	0	2021	4	184	376	3300
99	0	0	1998	4	183	376	3297
100	0	0	1963	3	183	376	3295
101	0	0	1904	4	184	376	3292
102	0	0	1878	5	183	376	3292
103	0	0	1883	5	184	376	3294
104	0	0	1898	5	185	376	3295
105	0	0	1954	4	183	376	3297
106	0	0	2011	5	184	376	3297
107	0	0	2058	5	184	376	3297
108	0	0	2116	6	183	376	3297
109	0	0	2183	5	183	376	3296
110	0	0	2206	5	183	376	3292
111	0	0	2181	4	184	376	3290
112	0	0	2145	6	184	376	3290
113	0	0	2089	5	184	376	3292
114	0	0	2037	4	184	376	3294
115	0	0	2016	4	184	376	3294
116	0	0	2026	5	184	376	3296
117	0	0	2030	4	183	376	3296
118	0	0	1999	5	184	376	3295
119	0	0	1956	4	184	376	3294
120	0	0	1914	4	184	376	3290
121	0	0	1887	4	184	376	3288
122	0	0	1904	5	184	375	3289
123	0	0	1951	5	185	376	3290
124	0	0	1998	5	184	376	3292
125	0	0	2045	5	184	376	3292
126	0	0	2093	5	184	376	3294
127	0	0	2129	5	184	376	3294
0	0	0	2165	5	183	376	3294
1	0	0	2194	5	184	376	3292
2	0	0	2196	5	183	376	3289
3	0	0	2200	5	183	376	3287
4	0	0	2208	5	184	375	3288
5	0	0	2210	5	184	376	3288
6	0	0	2211	5	184	376	3290
7	0	0	2187	4	184	376	3291
8	0	0	2142	5	183	376	3293
9	0	0	2093	4	184	376	3293
10	0	0	2054	5	184	376	3292
11	0	0	2035	4	185	376	3291
12	0	0	2002	5	183	376	3287
13	0	0	1964	3	184	376	3287
14	0	0	1968	5	183	376	3286
15	0	0	1988	5	185	376	3287
16	0	0	2026	5	184	376	3288
17	0	0	2092	5	184	376	3289
18	0	0	2136	6	184	376	3291
19	0	0	2161	5	182	377	3291
20	0	0	2205	5	183	376	3290
21	0	0	2251	5	183	376	3289
22	0	0	2269	5	183	375	3286
23	0	0	2262	4	183	376	3284
24	0	0	2239	5	181	376	3284
25	0	0	2232	5	183	376	3286
26	0	0	2215	4	183	376	3287
27	0	0	2174	4	184	376	3289
28	0	0	2133	4	183	376	3289
29	0	0	2102	4	181	377	3289
30	0	0	2067	4	184	376	3289
31	0	0	2025	4	185	376	3288
32	0	0	1968	4	184	376	3284
33	0	0	1916	4	184	376	3283
34	0	0	1911	5	184	377	3283
35	0	0	1926	6	183	375	3284
36	0	0	1973	5	185	376	3286
37	0	0	2062	5	184	376	3287
38	0	0	2154	5	184	376	3288
39	0	0	2214	5	184	375	3288
40	0	0	2237	5	184	376	3288
41	0	0	2260	5	184	376	3287
42	0	0	2266	4	184	376	3284
43	0	0	2264	5	183	375	3281
44	0	0	2257	5	182	376	3282
45	0	0	2240	5	184	376	3283
46	0	0	2207	4	184	376	3284
47	0	0	2175	5	183	376	3285
48	0	0	2146	4	183	376	3286
49	0	0	2112	4	184	375	3287
50	0	0	2068	4	185	376	3287
51	0	0	2035	4	184	376	3285
52	0	0	1997	4	183	376	3282
53	0	0	1960	4	184	376	3281
54	0	0	1964	5	184	376	3281
55	0	0	1971	5	184	376	3281
56	0	0	1981	5	184	376	3284
57	0	0	2020	5	184	376	3284
58	0	0	2075	5	184	376	3285
59	0	0	2122	5	184	376	3286
60	0	0	2137	5	184	376	3285
61	0	0	2137	5	184	376	3284
62	0	0	2154	5	183	376	3280
63	0	0	2198	5	183	376	3279
64	0	0	2232	5	183	375	3279
65	0	0	2237	5	183	376	3280
66	0	0	2229	5	184	376	3281
67	0	0	2196	4	184	376	3284
68	0	0	2146	4	184	376	3284
69	0	0	2093	4	184	376	3284
70	0	0	2061	4	184	376	3284
71	0	0	2031	4	183	376	3282
72	0	0	1994	4	184	376	3279
73	0	0	1949	4	185	376	3277
74	0	0	1950	5	184	376	3278
75	0	0	1991	4	184	376	3279
76	0	0	2055	5	185	376	3280
77	0	0	2160	5	185	376	3281
78	0	0	2235	5	184	376	3283
79	0	0	2274	5	184	376	3282
80	0	0	2252	4	184	376	3282
81	0	0	2180	4	183	376	3280
82	0	0	2133	4	184	376	3278
83	0	0	2154	5	182	375	3276
84	0	0	2200	5	184	376	3276
85	0	0	2216	4	184	376	3277
86	0	0	2173	4	184	376	3278
87	0	0	2107	4	184	376	3279
88	0	0	2073	5	182	375	3281
89	0	0	2094	5	184	376	3281
90	0	0	2115	5	184	376	3280
91	0	0	2109	5	185	376	3279
92	0	0	2093	4	184	376	3276
93	0	0	2078	5	184	376	3274
94	0	0	2092	5	184	376	3274
95	0	0	2115	5	184	376	3276
96	0	0	2118	5	183	376	3277
97	0	0	2113	4	184	376	3279
98	0	0	2121	5	182	377	3279
99	0	0	2143	5	184	376	3279
100	0	0	2162	5	183	376	3279
101	0	0	2167	5	184	376	3277
102	0	0	2179	5	183	376	3274
103	0	0	2218	5	183	376	3273
104	0	0	2244	5	184	376	3273
105	0	0	2259	5	183	376	3274
106	0	0	2275	5	184	376	3275
107	0	0	2269	4	184	376	3277
108	0	0	2232	4	184	376	3277
109	0	0	2177	4	184	376	3278
110	0	0	2104	3	184	376	3278
111	0	0	2014	4	184	376	3276
112	0	0	1923	4	184	376	3272
113	0	0	1868	4	184	376	3271
114	0	0	1884	5	184	376	3271
115	0	0	1925	4	184	376	3272
116	0	0	1969	5	183	376	3273
117	0	0	2021	5	184	376	3275
118	0	0	2077	5	183	376	3276
119	0	0	2104	5	184	376	3276
120	0	0	2096	5	183	376	3277
121	0	0	2093	5	184	376	3274
122	0	0	2114	4	183	376	3272
123	0	0	2158	5	185	376	3269
124	0	0	2194	5	184	376	3269
125	0	0	2194	4	184	376	3271
126	0	0	2172	4	183	376	3272
127	0	0	2127	4	184	376	3273
0	0	0	2062	4	184	375	3275
1	0	0	2005	4	184	376	3276
2	0	0	1966	4	183	376	3275
3	0	0	1933	4	184	376	3273
4	0	0	1915	4	183	376	3269
5	0	0	1900	5	184	376	3268
6	0	0	1923	4	184	375	3268
7	0	0	1951	5	185	376	3270
8	0	0	1969	5	184	376	3271
9	0	0	1985	5	185	376	3272
10	0	0	1971	5	184	376	3273
11	0	0	1980	5	184	376	3273
12	0	0	2039	4	184	376	3273
13	0	0	2101	5	184	376	3272
14	0	0	2125	5	184	376	3268
15	0	0	2123	4	183	376	3266
16	0	0	2102	5	183	376	3266
17	0	0	2093	4	183	376	3267
18	0	0	2076	4	184	376	3269
19	0	0	2039	5	183	376	3270
20	0	0	1990	5	184	376	3271
21	0	0	1917	4	184	376	3272
22	0	0	1849	4	184	376	3272
23	0	0	1806	4	184	376	3270
24	0	0	1790	4	184	376	3267
25	0	0	1777	4	184	376	3266
26	0	0	1780	5	183	376	3266
27	0	0	1783	4	183	376	3266
28	0	0	1798	5	183	376	3268
29	0	0	1829	5	184	376	3269
30	0	0	1880	5	183	376	3270
31	0	0	1950	5	183	376	3271
32	0	0	2032	4	183	375	3271
33	0	0	2105	5	184	376	3269
34	0	0	2166	5	184	376	3265
35	0	0	2201	5	183	376	3264
36	0	0	2202	5	184	376	3264
37	0	0	2202	4	184	376	3265
38	0	0	2203	5	184	376	3267
39	0	0	2180	4	183	376	3269
40	0	0	2145	4	184	376	3269
41	0	0	2097	4	183	376	3270
42	0	0	2043	4	184	376	3270
43	0	0	1988	4	184	376	3268
44	0	0	1935	4	184	376	3265
45	0	0	1895	4	186	376	3262
46	0	0	1911	5	184	375	3263
47	0	0	1926	4	184	376	3264
48	0	0	1916	5	184	376	3266
49	0	0	1933	5	184	376	3267
50	0	0	1972	4	183	376	3268
51	0	0	2003	5	184	376	3269
52	0	0	2026	4	184	376	3268
53	0	0	2056	5	183	376	3267
54	0	0	2084	6	184	376	3263
55	0	0	2113	5	184	376	3262
56	0	0	2132	5	183	376	3261
57	0	0	2113	3	183	376	3263
58	0	0	2070	4	183	376	3264
59	0	0	1993	4	184	376	3267
60	0	0	1896	4	183	377	3267
61	0	0	1830	4	184	376	3268
62	0	0	1806	4	184	376	3268
63	0	0	1817	5	185	376	3266
64	0	0	1823	4	184	376	3262
65	0	0	1799	5	184	376	3261
66	0	0	1795	5	185	376	3260
67	0	0	1818	3	184	376	3262
68	0	0	1830	5	185	376	3264
69	0	0	1841	5	183	376	3264
70	0	0	1848	5	184	376	3266
71	0	0	1854	5	185	376	3266
72	0	0	1861	5	184	376	3265
73	0	0	1849	5	184	376	3265
74	0	0	1844	5	184	376	3262
75	0	0	1872	5	183	377	3259
76	0	0	1908	5	183	376	3259
77	0	0	1912	5	183	376	3261
78	0	0	1883	4	183	376	3262
79	0	0	1836	4	183	376	3264
80	0	0	1788	4	183	375	3265
81	0	0	1759	4	185	376	3265
82	0	0	1757	5	183	376	3265
83	0	0	1766	5	184	376	3264
84	0	0	1792	5	184	376	3260
85	0	0	1818	5	183	375	3259
86	0	0	1845	5	184	376	3259
87	0	0	1869	3	184	376	3260
88	0	0	1899	5	184	376	3262
89	0	0	1979	5	185	376	3262
90	0	0	2080	5	183	376	3264
91	0	0	2177	5	184	376	3264
92	0	0	2275	4	183	376	3264
93	0	0	2359	5	183	376	3262
94	0	0	2429	5	184	376	3259
95	0	0	2503	5	184	376	3257
96	0	0	2557	5	184	376	3257
97	0	0	2587	5	183	376	3258
98	0	0	2612	5	183	376	3260
99	0	0	2616	5	184	376	3261
100	0	0	2606	5	183	375	3263
101	0	0	2596	5	185	376	3264
102	0	0	2580	5	183	376	3264
103	0	0	2535	4	184	376	3261
104	0	0	2484	4	184	376	3259
105	0	0	2428	4	185	376	3256
106	0	0	2403	5	185	376	3256
107	0	0	2378	4	183	376	3258
108	0	0	2352	5	184	376	3260
109	0	0	2354	5	184	376	3261
110	0	0	2353	5	183	376	3262
111	0	0	2323	4	184	376	3262
112	0	0	2306	3	183	376	3262
113	0	0	2273	4	184	376	3260
114	0	0	2237	5	184	376	3257
115	0	0	2220	5	183	376	3256
116	0	0	2202	4	183	376	3256
117	0	0	2174	4	184	376	3257
118	0	0	2136	4	183	376	3258
119	0	0	2091	4	185	376	3261
120	0	0	2056	4	184	375	3261
121	0	0	2014	4	184	376	3261
122	0	0	1944	4	183	376	3262
123	0	0	1888	4	183	376	3261
124	0	0	1858	3	185	376	3256
125	0	0	1830	4	183	376	3255
126	0	0	1810	4	185	376	3255
127	0	0	1803	4	184	376	3256
0	0	0	1812	5	185	376	3257
1	0	0	1859	6	184	376	3259
2	0	0	1924	5	184	377	3261
3	0	0	1986	5	184	376	3260
4	0	0	2029	5	184	376	3260
5	0	0	2054	5	183	376	3259
6	0	0	2075	5	184	376	3256
7	0	0	2097	5	183	377	3254
8	0	0	2089	4	184	376	3254
9	0	0	2043	4	184	376	3256
10	0	0	1985	4	182	376	3256
11	0	0	1948	4	184	376	3258
12	0	0	1944	5	184	375	3260
13	0	0	1950	5	184	376	3261
14	0	0	1928	4	183	376	3260
15	0	0	1905	4	185	376	3259
16	0	0	1892	5	184	376	3255
17	0	0	1867	4	184	375	3253
18	0	0	1855	5	183	376	3254
19	0	0	1860	4	183	376	3255
20	0	0	1894	5	184	376	3257
21	0	0	1959	5	184	376	3257
22	0	0	2023	5	183	376	3258
23	0	0	2072	5	185	376	3259
24	0	0	2110	4	183	376	3259
25	0	0	2147	5	183	376	3257
26	0	0	2152	5	184	376	3254
27	0	0	2152	5	183	376	3252
28	0	0	2150	5	183	376	3252
29	0	0	2140	5	184	376	3254
30	0	0	2114	4	184	376	3255
31	0	0	2076	4	184	376	3257
32	0	0	2019	4	183	375	3258
33	0	0	1969	4	184	376	3259
34	0	0	1945	4	183	376	3259
35	0	0	1927	4	184	376	3257
36	0	0	1898	5	183	376	3253
37	0	0	1862	5	184	376	3251
38	0	0	1865	5	184	376	3251
39	0	0	1900	5	185	376	3253
40	0	0	1940	5	185	376	3254
41	0	0	1998	5	184	376	3256
42	0	0	2062	5	183	376	3257
43	0	0	2118	5	185	376	3257
44	0	0	2169	5	183	376	3258
45	0	0	2179	5	184	376	3256
46	0	0	2136	4	184	376	3252
47	0	0	2089	4	183	376	3251
48	0	0	2053	4	183	376	3252
49	0	0	2044	5	184	376	3252
50	0	0	2059	5	184	376	3254
51	0	0	2068	5	183	376	3255
52	0	0	2071	5	184	376	3256
53	0	0	2069	5	185	376	3256
54	0	0	2032	4	184	376	3257
55	0	0	1975	4	184	376	3255
56	0	0	1921	4	183	376	3253
57	0	0	1874	4	184	375	3250
58	0	0	1883	5	184	375	3250
59	0	0	1926	5	184	376	3252
60	0	0	1983	5	184	376	3253
61	0	0	2037	4	185	376	3255
62	0	0	2050	5	184	376	3256
63	0	0	2035	4	184	376	3256
64	0	0	2049	5	183	376	3256
65	0	0	2091	5	183	376	3254
66	0	0	2127	5	183	375	3251
67	0	0	2160	5	182	376	3249
68	0	0	2162	5	182	376	3250
69	0	0	2140	4	183	376	3251
70	0	0	2120	4	184	376	3253
71	0	0	2096	5	184	376	3254
72	0	0	2068	5	183	376	3255
73	0	0	2030	4	184	376	3256
74	0	0	1976	4	185	376	3256
75	0	0	1927	4	184	376	3254
76	0	0	1890	4	184	376	3250
77	0	0	1853	5	184	375	3248
78	0	0	1871	5	184	376	3249
79	0	0	1912	5	184	376	3250
80	0	0	1958	5	183	376	3251
81	0	0	2010	5	183	375	3253
82	0	0	2070	5	183	376	3255
83	0	0	2112	5	184	376	3256
84	0	0	2151	5	183	376	3255
85	0	0	2193	5	184	376	3253
86	0	0	2195	4	185	376	3251
87	0	0	2170	4	183	377	3248
88	0	0	2147	5	183	376	3248
89	0	0	2142	5	184	376	3249
90	0	0	2164	5	183	376	3251
91	0	0	2169	5	184	376	3252
92	0	0	2131	4	184	376	3254
93	0	0	2083	4	183	376	3255
94	0	0	2035	4	183	376	3254
95	0	0	1993	4	184	376	3252
96	0	0	1994	5	184	376	3249
97	0	0	1987	5	184	377	3247
98	0	0	1979	5	184	376	3248
99	0	0	1993	5	184	376	3249
100	0	0	2015	5	185	376	3250
101	0	0	2040	5	185	376	3251
102	0	0	2067	5	184	377	3253
103	0	0	2112	5	184	376	3254
104	0	0	2178	5	183	376	3253
105	0	0	2246	5	184	376	3251
106	0	0	2275	5	183	376	3248
107	0	0	2260	4	182	376	3246
108	0	0	2200	4	184	376	3247
109	0	0	2136	4	183	376	3248
110	0	0	2100	4	183	376	3250
111	0	0	2089	5	185	376	3251
112	0	0	2103	5	183	376	3253
113	0	0	2132	5	183	376	3254
114	0	0	2156	5	183	376	3252
115	0	0	2140	4	184	376	3251
116	0	0	2086	5	184	376	3248
117	0	0	2011	4	187	376	3246
118	0	0	1979	4	184	375	3246
119	0	0	1974	5	184	376	3247
120	0	0	1991	5	183	376	3249
121	0	0	2040	5	184	376	3250
122	0	0	2093	5	183	376	3252
123	0	0	2150	5	185	375	3252
124	0	0	2191	5	183	376	3252
125	0	0	2205	5	183	376	3250
126	0	0	2217	5	184	376	3247
127	0	0	2230	4	185	376	3245
0	0	0	2218	4	184	376	3245
1	0	0	2177	4	184	376	3247
2	0	0	2128	5	184	376	3248
3	0	0	2100	5	183	375	3250
4	0	0	2094	4	184	376	3251
5	0	0	2079	5	183	375	3252
6	0	0	2071	5	183	376	3252
7	0	0	2051	4	184	376	3249
8	0	0	2021	4	184	376	3247
9	0	0	1999	4	184	376	3244
10	0	0	2001	5	183	375	3244
11	0	0	2005	5	183	376	3246
12	0	0	2016	5	184	376	3247
13	0	0	2064	5	185	376	3249
14	0	0	2133	5	184	376	3250
15	0	0	2192	5	184	376	3251
16	0	0	2231	5	184	376	3251
17	0	0	2243	5	184	376	3249
18	0	0	2243	5	184	376	3245
19	0	0	2250	4	184	376	3244
20	0	0	2246	5	183	376	3244
21	0	0	2223	5	183	376	3246
22	0	0	2181	4	183	376	3248
23	0	0	2119	4	183	376	3248
24	0	0	2057	4	183	376	3250
25	0	0	2020	4	183	375	3250
26	0	0	2002	5	184	376	3251
27	0	0	2005	5	184	376	3248
28	0	0	2018	5	186	376	3245
29	0	0	1990	5	185	376	3243
30	0	0	1975	4	185	376	3243
31	0	0	1976	5	184	376	3245
32	0	0	2002	5	185	376	3247
33	0	0	2060	5	183	376	3248
34	0	0	2113	5	183	376	3249
35	0	0	2153	5	185	375	3250
36	0	0	2179	5	184	376	3250
37	0	0	2200	5	184	376	3248
38	0	0	2218	5	184	376	3246
39	0	0	2236	5	184	376	3243
40	0	0	2229	5	185	376	3243
41	0	0	2206	5	185	376	3244
42	0	0	2177	4	183	376	3246
43	0	0	2141	4	185	376	3247
44	0	0	2104	4	183	376	3249
45	0	0	2072	4	184	376	3250
46	0	0	2048	4	184	376	3249
47	0	0	2043	5	184	376	3247
48	0	0	2040	5	185	376	3244
49	0	0	2019	4	184	376	3242
50	0	0	2020	5	185	376	3242
51	0	0	2031	5	183	376	3244
52	0	0	2040	5	183	376	3245
53	0	0	2065	5	185	375	3247
54	0	0	2098	4	185	376	3248
55	0	0	2140	5	183	376	3249
56	0	0	2177	5	184	376	3248
57	0	0	2208	5	183	376	3247
58	0	0	2240	5	183	376	3244
59	0	0	2277	5	184	377	3241
60	0	0	2282	5	184	375	3242
61	0	0	2240	4	184	376	3243
62	0	0	2185	4	183	376	3245
63	0	0	2143	4	185	376	3246
64	0	0	2106	4	184	376	3248
65	0	0	2049	4	185	376	3248
66	0	0	1977	4	184	376	3248
67	0	0	1909	4	185	376	3247
68	0	0	1878	4	184	376	3244
69	0	0	1884	5	184	376	3241
70	0	0	1907	5	185	375	3241
71	0	0	1910	5	184	376	3243
72	0	0	1924	5	183	376	3244
73	0	0	1968	5	183	376	3246
74	0	0	2019	5	184	376	3247
75	0	0	2081	5	184	376	3248
76	0	0	2139	5	185	376	3248
77	0	0	2163	5	184	376	3246
78	0	0	2150	5	184	376	3242
79	0	0	2139	4	184	376	3240
80	0	0	2103	4	184	376	3240
81	0	0	2067	4	183	376	3242
82	0	0	2062	5	183	376	3244
83	0	0	2035	5	183	376	3245
84	0	0	1990	4	183	376	3247
85	0	0	1956	4	183	376	3248
86	0	0	1925	4	183	376	3247
87	0	0	1905	5	184	376	3246
88	0	0	1923	5	184	376	3242
89	0	0	1937	4	185	376	3240
90	0	0	1953	5	184	375	3240
91	0	0	1968	5	184	376	3242
92	0	0	1987	5	183	376	3243
93	0	0	2007	5	184	376	3245
94	0	0	2019	5	184	376	3247
95	0	0	2060	4	185	376	3248
96	0	0	2104	5	183	376	3247
97	0	0	2145	5	183	376	3245
98	0	0	2181	5	183	376	3241
99	0	0	2204	5	184	376	3240
100	0	0	2189	4	183	375	3240
101	0	0	2148	4	184	376	3241
102	0	0	2105	4	184	376	3243
103	0	0	2055	4	184	376	3244
104	0	0	2004	4	184	376	3246
105	0	0	1928	4	184	375	3246
106	0	0	1854	4	184	376	3247
107	0	0	1821	4	184	376	3244
108	0	0	1804	4	184	376	3242
109	0	0	1782	4	184	377	3239
110	0	0	1786	5	185	375	3239
111	0	0	1796	5	184	376	3242
112	0	0	1804	5	184	376	3242
113	0	0	1847	5	184	376	3245
114	0	0	1910	5	185	377	3246
115	0	0	1964	5	184	375	3246
116	0	0	1992	5	184	376	3247
117	0	0	2016	5	184	376	3244
118	0	0	2059	5	184	376	3241
119	0	0	2077	5	184	376	3239
120	0	0	2074	5	183	376	3239
121	0	0	2043	4	184	376	3241
122	0	0	1991	4	184	376	3242
123	0	0	1943	4	183	376	3243
124	0	0	1895	4	184	376	3246
125	0	0	1862	4	183	376	3247
126	0	0	1830	4	182	376	3246
127	0	0	1789	4	184	376	3245
0	0	0	1740	4	184	376	3241
1	0	0	1707	4	183	376	3239
2	0	0	1723	5	184	375	3239
3	0	0	1736	5	184	376	3240
4	0	0	1743	5	184	376	3241
5	0	0	1769	5	185	376	3243
6	0	0	1825	4	184	376	3244
7	0	0	1888	5	185	376	3246
8	0	0	1936	5	185	376	3245
9	0	0	1947	5	184	376	3244
10	0	0	1948	5	182	376	3240
11	0	0	1948	5	184	376	3238
12	0	0	1931	4	184	376	3238
13	0	0	1924	4	183	376	3240
14	0	0	1910	5	183	376	3241
15	0	0	1882	4	183	376	3244
16	0	0	1841	5	184	375	3244
17	0	0	1788	4	184	376	3245
18	0	0	1747	4	183	376	3246
19	0	0	1719	4	183	376	3243
20	0	0	1706	4	184	376	3240
21	0	0	1695	4	184	376	3238
22	0	0	1709	5	185	376	3238
23	0	0	1731	5	183	376	3240
24	0	0	1746	5	184	376	3241
25	0	0	1776	5	184	376	3243
26	0	0	1813	5	184	376	3244
27	0	0	1843	5	185	376	3245
28	0	0	1883	5	185	376	3245
29	0	0	1917	5	184	376	3244
30	0	0	1941	5	184	376	3240
31	0	0	1995	5	183	376	3238
32	0	0	2028	5	184	376	3239
33	0	0	1999	4	184	376	3239
34	0	0	1947	4	184	376	3240
35	0	0	1889	4	183	376	3242
36	0	0	1851	4	185	376	3244
37	0	0	1846	5	183	376	3244
38	0	0	1835	4	184	376	3244
39	0	0	1812	4	183	376	3243
40	0	0	1773	4	183	376	3241
41	0	0	1722	4	184	377	3238
42	0	0	1697	5	183	376	3238
43	0	0	1695	4	184	376	3239
44	0	0	1700	5	184	376	3240
45	0	0	1725	5	183	376	3242
46	0	0	1776	5	184	376	3243
47	0	0	1851	5	184	375	3244
48	0	0	1903	5	183	375	3244
49	0	0	1890	5	185	376	3242
50	0	0	1881	5	184	376	3239
51	0	0	1886	5	184	376	3237
52	0	0	1878	5	183	376	3238
53	0	0	1878	5	184	376	3239
54	0	0	1876	5	184	376	3240
55	0	0	1862	3	182	376	3243
56	0	0	1833	4	183	377	3244
57	0	0	1796	5	183	376	3244
58	0	0	1779	4	183	376	3244
59	0	0	1783	5	184	376	3242
60	0	0	1796	5	183	377	3239
61	0	0	1790	5	184	376	3238
62	0	0	1784	4	184	376	3238
63	0	0	1768	4	185	376	3239
64	0	0	1754	4	185	376	3240
65	0	0	1781	5	184	376	3242
66	0	0	1846	5	184	376	3243
67	0	0	1915	5	184	376	3243
68	0	0	1967	5	184	376	3244
69	0	0	2009	5	184	376	3242
70	0	0	2040	5	182	376	3240
71	0	0	2065	5	184	377	3237
72	0	0	2053	4	184	376	3236
73	0	0	2030	4	183	376	3238
74	0	0	2025	5	184	376	3239
75	0	0	2011	5	184	376	3241
76	0	0	1980	5	183	376	3243
77	0	0	1938	4	183	376	3244
78	0	0	1883	4	183	376	3244
79	0	0	1833	4	183	376	3242
80	0	0	1775	4	183	376	3239
81	0	0	1692	4	184	376	3237
82	0	0	1663	5	184	375	3237
83	0	0	1711	5	184	376	3239
84	0	0	1790	5	184	376	3239
85	0	0	1876	5	183	376	3241
86	0	0	1941	5	185	376	3243
87	0	0	1974	5	184	375	3244
88	0	0	2006	5	184	376	3243
89	0	0	2040	5	184	376	3243
90	0	0	2071	4	183	376	3238
91	0	0	2088	5	183	376	3236
92	0	0	2088	5	183	375	3236
93	0	0	2057	4	183	376	3238
94	0	0	2008	4	183	376	3239
95	0	0	1968	4	184	376	3241
96	0	0	1926	4	183	376	3242
97	0	0	1871	4	183	376	3243
98	0	0	1823	4	185	376	3244
99	0	0	1795	4	184	376	3241
100	0	0	1801	4	183	376	3239
101	0	0	1772	4	184	377	3236
102	0	0	1745	4	184	376	3236
103	0	0	1752	5	184	376	3238
104	0	0	1773	5	184	376	3240
105	0	0	1806	6	183	376	3241
106	0	0	1853	5	184	376	3243
107	0	0	1921	5	184	376	3243
108	0	0	1972	5	183	376	3243
109	0	0	1992	5	183	376	3241
110	0	0	2000	4	184	376	3238
111	0	0	2022	5	183	376	3236
112	0	0	2036	5	184	376	3236
113	0	0	2026	4	184	376	3238
114	0	0	1997	4	183	376	3239
115	0	0	1960	4	184	375	3241
116	0	0	1898	4	184	376	3243
117	0	0	1803	4	184	376	3244
118	0	0	1738	4	183	376	3243
119	0	0	1726	5	185	376	3241
120	0	0	1745	5	184	376	3238
121	0	0	1765	5	183	376	3236
122	0	0	1791	5	184	376	3237
123	0	0	1822	5	184	376	3238
124	0	0	1863	5	184	376	3239
125	0	0	1910	4	184	376	3241
126	0	0	1950	5	185	376	3242
127	0	0	1989	5	184	376	3243
0	0	0	2011	5	183	376	3243
1	0	0	2005	4	184	376	3241
2	0	0	1975	4	184	376	3239
3	0	0	1956	4	183	377	3236
4	0	0	1956	5	183	376	3236
5	0	0	1966	5	183	376	3237
6	0	0	1975	5	183	376	3240
7	0	0	1947	4	183	376	3240
8	0	0	1890	4	184	376	3242
9	0	0	1842	4	183	376	3243
10	0	0	1813	4	184	376	3243
11	0	0	1798	4	184	376	3241
12	0	0	1778	4	184	376	3238
13	0	0	1735	4	184	376	3236
14	0	0	1715	4	185	375	3236
15	0	0	1740	5	184	376	3238
16	0	0	1774	5	185	376	3239
17	0	0	1827	5	184	376	3241
18	0	0	1880	5	183	376	3242
19	0	0	1907	5	183	375	3243
20	0	0	1916	5	183	375	3243
21	0	0	1931	4	184	376	3241
22	0	0	1951	6	184	376	3238
23	0	0	1989	5	183	376	3236
24	0	0	2011	5	184	376	3237
25	0	0	1997	5	183	376	3238
26	0	0	1997	5	183	376	3239
27	0	0	1996	5	184	376	3242
28	0	0	1974	4	184	377	3242
29	0	0	1931	4	184	376	3243
30	0	0	1891	4	184	376	3243
31	0	0	1875	5	184	376	3241
32	0	0	1879	6	184	376	3238
33	0	0	1840	4	184	376	3236
34	0	0	1803	4	185	376	3237
35	0	0	1770	4	183	376	3238
36	0	0	1755	5	184	376	3239
37	0	0	1770	4	184	376	3240
38	0	0	1797	5	183	376	3242
39	0	0	1829	5	183	376	3243
40	0	0	1884	5	184	375	3243
41	0	0	1944	5	183	376	3241
42	0	0	1978	4	183	376	3239
43	0	0	2013	5	185	376	3236
44	0	0	2030	5	183	376	3236
45	0	0	2013	4	182	375	3238
46	0	0	1990	5	184	376	3239
47	0	0	1957	5	184	377	3241
48	0	0	1951	4	183	376	3243
49	0	0	1957	5	185	376	3244
50	0	0	1947	4	184	376	3243
51	0	0	1932	4	184	376	3241
52	0	0	1907	4	183	376	3239
53	0	0	1848	4	185	377	3236
54	0	0	1786	4	184	376	3236
55	0	0	1761	5	184	376	3238
56	0	0	1778	5	184	376	3239
57	0	0	1838	6	185	376	3241
58	0	0	1886	5	184	376	3243
59	0	0	1903	5	184	376	3244
60	0	0	1926	5	183	376	3243
61	0	0	1968	5	183	376	3241
62	0	0	2030	4	184	376	3238
63	0	0	2114	5	183	376	3236
64	0	0	2125	4	184	376	3236
65	0	0	2066	4	182	375	3238
66	0	0	2007	4	182	376	3239
67	0	0	1969	4	183	376	3242
68	0	0	1939	4	183	376	3242
69	0	0	1898	4	183	377	3243
70	0	0	1838	4	183	376	3243
71	0	0	1789	4	183	376	3242
72	0	0	1753	3	185	376	3238
73	0	0	1709	4	185	376	3236
74	0	0	1693	4	184	377	3236
75	0	0	1709	5	183	376	3238
76	0	0	1742	5	184	376	3239
77	0	0	1793	5	184	376	3242
78	0	0	1839	5	184	377	3243
79	0	0	1884	5	184	377	3243
80	0	0	1936	5	183	376	3244
81	0	0	1988	5	184	376	3242
82	0	0	2016	4	184	376	3238
83	0	0	2032	5	184	376	3237
84	0	0	2035	5	183	376	3237
85	0	0	2020	4	183	376	3238
86	0	0	1989	4	183	376	3239
87	0	0	1942	4	184	376	3241
88	0	0	1911	4	183	376	3242
89	0	0	1885	4	184	376	3243
90	0	0	1840	4	184	375	3243
91	0	0	1814	4	184	376	3241
92	0	0	1813	5	185	376	3238
93	0	0	1810	5	184	376	3236
94	0	0	1811	5	184	375	3236
95	0	0	1796	4	183	376	3238
96	0	0	1776	4	185	376	3239
97	0	0	1794	5	184	376	3242
98	0	0	1833	5	185	376	3243
99	0	0	1885	5	184	376	3244
100	0	0	1949	5	184	376	3244
101	0	0	2004	5	184	376	3242
102	0	0	2042	5	183	376	3239
103	0	0	2067	5	184	376	3237
104	0	0	2059	4	184	376	3237
105	0	0	2025	4	183	376	3238
106	0	0	2003	4	185	376	3239
107	0	0	1972	4	184	376	3241
108	0	0	1915	4	183	376	3243
109	0	0	1867	4	183	376	3243
110	0	0	1836	4	184	376	3244
111	0	0	1824	4	184	376	3243
112	0	0	1818	5	185	376	3239
113	0	0	1794	4	184	376	3237
114	0	0	1789	5	183	376	3238
115	0	0	1809	5	183	376	3239
116	0	0	1845	5	184	376	3239
117	0	0	1889	5	183	376	3241
118	0	0	1934	5	184	375	3243
119	0	0	1972	5	183	375	3243
120	0	0	1999	5	183	376	3244
121	0	0	2046	5	184	376	3242
122	0	0	2080	5	183	376	3239
123	0	0	2089	5	183	376	3236
124	0	0	2072	4	183	376	3237
125	0	0	2054	5	184	376	3239
126	0	0	2056	5	184	376	3241
127	0	0	2031	5	183	376	3242
0	0	0	1999	4	184	376	3244
1	0	0	1971	4	185	376	3245
2	0	0	1922	4	183	376	3244
3	0	0	1873	4	183	376	3243
4	0	0	1827	4	186	376	3239
5	0	0	1782	4	185	376	3237
6	0	0	1779	5	184	376	3238
7	0	0	1793	5	184	376	3239
8	0	0	1813	5	184	376	3240
9	0	0	1835	5	184	376	3243
10	0	0	1868	4	184	376	3244
11	0	0	1912	5	183	376	3244
12	0	0	1964	5	184	376	3245
13	0	0	1999	5	183	376	3242
14	0	0	2004	5	183	376	3239
15	0	0	2003	4	184	376	3238
16	0	0	1980	4	184	376	3238
17	0	0	1970	5	184	376	3239
18	0	0	1998	5	183	376	3240
19	0	0	2024	5	184	375	3242
20	0	0	1996	4	184	376	3244
21	0	0	1914	4	184	375	3245
22	0	0	1830	4	182	375	3245
23	0	0	1799	4	183	376	3243
24	0	0	1781	4	184	376	3241
25	0	0	1742	4	184	376	3238
26	0	0	1736	5	184	376	3238
27	0	0	1761	5	184	376	3239
28	0	0	1797	5	184	376	3241
29	0	0	1851	5	184	376	3243
30	0	0	1923	5	184	376	3244
31	0	0	1989	5	184	376	3245
32	0	0	2027	5	182	376	3245
33	0	0	2041	5	184	376	3243
34	0	0	2048	5	183	376	3240
35	0	0	2064	5	183	376	3238
36	0	0	2068	5	183	376	3238
37	0	0	2042	4	182	376	3240
38	0	0	1986	4	183	376	3242
39	0	0	1899	6	183	376	3243
40	0	0	1827	3	184	376	3245
41	0	0	1797	4	183	376	3246
42	0	0	1802	5	183	376	3245
43	0	0	1813	5	184	376	3245
44	0	0	1804	5	184	376	3241
45	0	0	1767	4	183	376	3239
46	0	0	1754	4	184	376	3240
47	0	0	1777	5	182	375	3240
48	0	0	1836	5	185	376	3242
49	0	0	1914	5	183	376	3244
50	0	0	1951	5	185	376	3245
51	0	0	1966	5	185	376	3246
52	0	0	1991	5	184	376	3246
53	0	0	2036	5	184	376	3244
54	0	0	2078	5	184	376	3241
55	0	0	2100	4	183	375	3239
56	0	0	2104	5	184	376	3239
57	0	0	2077	4	183	376	3241
58	0	0	2062	5	184	376	3242
59	0	0	2027	4	182	376	3244
60	0	0	1948	4	184	376	3245
61	0	0	1865	4	184	375	3246
62	0	0	1799	4	184	376	3246
63	0	0	1769	4	183	376	3246
64	0	0	1767	6	183	376	3241
65	0	0	1756	3	184	376	3239
66	0	0	1758	5	184	376	3240
67	0	0	1762	5	183	376	3241
68	0	0	1773	5	184	376	3243
69	0	0	1817	5	184	376	3246
70	0	0	1879	5	184	376	3247
71	0	0	1945	5	183	376	3247
72	0	0	1999	5	183	376	3247
73	0	0	2036	5	183	376	3245
74	0	0	2053	5	184	376	3242
75	0	0	2062	5	184	375	3240
76	0	0	2071	5	184	377	3240
77	0	0	2058	4	184	376	3242
78	0	0	2024	4	184	376	3243
79	0	0	1993	5	182	376	3245
80	0	0	1967	4	183	376	3246
81	0	0	1938	4	184	376	3247
82	0	0	1893	4	183	376	3248
83	0	0	1859	4	184	376	3246
84	0	0	1836	4	185	375	3244
85	0	0	1792	4	183	376	3241
86	0	0	1760	5	184	376	3241
87	0	0	1758	5	184	376	3242
88	0	0	1773	5	184	376	3245
89	0	0	1829	6	185	375	3245
90	0	0	1903	4	184	376	3247
91	0	0	1967	5	184	376	3248
92	0	0	2013	5	183	376	3248
93	0	0	2040	5	183	376	3246
94	0	0	2058	5	183	376	3243
95	0	0	2074	5	183	376	3241
96	0	0	2067	5	184	375	3241
97	0	0	2072	5	183	376	3243
98	0	0	2098	5	183	376	3244
99	0	0	2099	5	183	376	3246
100	0	0	2076	4	184	376	3248
101	0	0	2028	4	184	376	3249
102	0	0	1972	4	183	376	3248
103	0	0	1921	4	183	376	3248
104	0	0	1867	4	184	376	3244
105	0	0	1791	5	185	376	3242
106	0	0	1750	4	185	376	3242
107	0	0	1762	5	184	376	3243
108	0	0	1801	5	184	376	3244
109	0	0	1867	5	184	376	3247
110	0	0	1926	5	184	376	3248
111	0	0	1953	5	184	377	3249
112	0	0	1980	5	184	376	3249
113	0	0	2010	5	184	375	3247
114	0	0	2056	5	183	376	3244
115	0	0	2095	5	183	376	3242
116	0	0	2113	5	184	376	3242
117	0	0	2119	5	183	376	3244
118	0	0	2108	5	183	376	3245
119	0	0	2076	4	184	376	3247
120	0	0	2026	4	183	376	3249
121	0	0	1987	4	184	376	3249
122	0	0	1971	4	184	376	3250
123	0	0	1963	4	184	376	3248
124	0	0	1950	4	185	375	3246
125	0	0	1925	4	185	376	3243
126	0	0	1926	5	185	376	3243
127	0	0	1949	5	184	376	3245
0	0	0	1981	5	183	376	3246
1	0	0	2029	5	183	375	3249
2	0	0	2069	5	184	377	3249
3	0	0	2089	5	183	376	3250
4	0	0	2118	4	184	376	3250
5	0	0	2155	5	183	376	3249
6	0	0	2175	5	183	376	3246
7	0	0	2178	5	183	376	3243
8	0	0	2151	4	184	376	3244
9	0	0	2123	4	184	376	3245
10	0	0	2098	4	184	376	3247
11	0	0	2080	5	182	376	3248
12	0	0	2085	5	183	376	3250
13	0	0	2076	4	183	376	3251
14	0	0	2038	4	184	375	3251
15	0	0	2015	5	185	376	3249
16	0	0	2019	5	184	376	3247
17	0	0	2016	5	184	376	3244
18	0	0	1996	4	185	376	3244
19	0	0	1981	4	184	376	3246
20	0	0	1990	5	184	376	3247
21	0	0	2026	5	185	376	3250
22	0	0	2062	5	184	377	3251
23	0	0	2101	5	184	376	3251
24	0	0	2121	5	184	376	3252
25	0	0	2130	5	184	376	3250
26	0	0	2161	5	183	377	3247
27	0	0	2212	5	185	376	3245
28	0	0	2228	5	183	376	3245
29	0	0	2219	5	184	376	3247
30	0	0	2208	5	183	376	3248
31	0	0	2181	4	183	376	3250
32	0	0	2127	4	183	376	3252
33	0	0	2063	4	183	376	3252
34	0	0	2017	4	184	376	3252
35	0	0	1988	4	183	376	3251
36	0	0	1967	4	184	375	3249
37	0	0	1926	4	184	376	3246
38	0	0	1910	5	184	376	3246
39	0	0	1935	5	185	376	3248
40	0	0	1988	6	184	376	3249
41	0	0	2060	5	184	376	3250
42	0	0	2115	5	185	376	3252
43	0	0	2138	5	183	377	3253
44	0	0	2130	5	183	376	3254
45	0	0	2130	5	183	376	3252
46	0	0	2150	5	184	376	3249
47	0	0	2168	5	184	376	3247
48	0	0	2168	5	183	376	3248
49	0	0	2163	5	183	376	3248
50	0	0	2170	5	184	376	3251
51	0	0	2183	6	183	376	3251
52	0	0	2189	5	183	375	3253
53	0	0	2157	4	183	376	3254
54	0	0	2090	4	183	377	3254
55	0	0	2032	4	185	376	3252
56	0	0	1983	4	183	376	3250
57	0	0	1910	4	183	376	3248
58	0	0	1879	4	184	377	3248
59	0	0	1898	5	184	375	3249
60	0	0	1928	5	184	376	3251
61	0	0	1953	5	184	376	3252
62	0	0	1965	5	184	376	3254
63	0	0	1995	5	184	377	3255
64	0	0	2040	5	184	376	3255
65	0	0	2095	5	184	376	3254
66	0	0	2153	5	184	376	3251
67	0	0	2197	5	183	376	3248
68	0	0	2200	5	183	377	3248
69	0	0	2177	4	182	375	3250
70	0	0	2150	4	184	376	3252
71	0	0	2124	4	183	376	3254
72	0	0	2094	4	183	376	3255
73	0	0	2039	4	183	376	3256
74	0	0	1986	4	184	376	3257
75	0	0	1929	4	183	376	3254
76	0	0	1906	5	183	376	3253
77	0	0	1885	4	184	376	3250
78	0	0	1877	5	184	376	3250
79	0	0	1900	5	183	376	3251
80	0	0	1943	5	184	376	3253
81	0	0	1988	5	183	376	3255
82	0	0	2036	5	184	375	3256
83	0	0	2085	4	183	376	3257
84	0	0	2133	5	184	376	3258
85	0	0	2178	5	184	376	3256
86	0	0	2207	5	183	376	3253
87	0	0	2241	5	183	376	3251
88	0	0	2275	5	184	377	3251
89	0	0	2280	5	183	376	3252
90	0	0	2224	4	183	376	3254
91	0	0	2120	4	184	375	3256
92	0	0	2018	4	184	376	3257
93	0	0	1964	4	184	376	3259
94	0	0	1954	5	184	376	3258
95	0	0	1953	4	182	376	3257
96	0	0	1942	4	181	376	3254
97	0	0	1907	4	184	376	3252
98	0	0	1891	4	184	376	3253
99	0	0	1897	5	184	376	3254
100	0	0	1928	5	185	376	3255
101	0	0	1985	5	183	375	3257
102	0	0	2035	5	185	376	3259
103	0	0	2092	5	183	376	3259
104	0	0	2147	5	184	376	3259
105	0	0	2165	5	183	376	3259
106	0	0	2148	4	185	376	3255
107	0	0	2145	6	183	376	3253
108	0	0	2124	4	184	376	3253
109	0	0	2087	4	183	377	3255
110	0	0	2044	4	184	376	3256
111	0	0	1998	4	183	375	3259
112	0	0	1946	5	183	376	3260
113	0	0	1900	4	183	376	3261
114	0	0	1859	4	185	376	3260
115	0	0	1831	5	183	376	3259
116	0	0	1803	4	184	376	3256
117	0	0	1755	4	184	376	3254
118	0	0	1726	5	184	376	3254
119	0	0	1754	5	184	376	3256
120	0	0	1815	5	183	376	3257
121	0	0	1889	5	184	376	3259
122	0	0	1953	6	183	376	3260
123	0	0	1999	5	184	376	3261
124	0	0	2061	5	184	376	3261
125	0	0	2119	5	184	376	3260
126	0	0	2168	5	184	376	3257
127	0	0	2225	5	184	376	3255
0	0	0	2275	5	183	376	3256
1	0	0	2319	5	183	376	3256
2	0	0	2369	5	183	376	3258
3	0	0	2405	5	184	375	3260
4	0	0	2455	5	184	376	3262
5	0	0	2488	5	183	376	3263
6	0	0	2490	5	183	375	3262
7	0	0	2464	5	183	376	3260
8	0	0	2466	5	183	376	3258
9	0	0	2488	5	184	376	3256
10	0	0	2538	5	185	376	3257
11	0	0	2589	5	183	376	3257
12	0	0	2637	6	184	376	3259
13	0	0	2701	5	183	376	3260
14	0	0	2771	5	184	376	3263
15	0	0	2790	5	183	376	3263
16	0	0	2754	4	184	376	3264
17	0	0	2711	4	183	376	3262
18	0	0	2706	5	183	375	3260
19	0	0	2718	5	183	376	3257
20	0	0	2688	4	183	376	3257
21	0	0	2629	4	183	376	3258
22	0	0	2546	4	183	376	3260
23	0	0	2430	4	184	376	3262
24	0	0	2339	5	184	376	3264
25	0	0	2283	4	183	376	3265
26	0	0	2216	4	184	376	3264
27	0	0	2147	4	184	376	3263
28	0	0	2100	4	184	376	3261
29	0	0	2070	4	184	376	3259
30	0	0	2078	5	184	376	3259
31	0	0	2104	5	184	375	3260
32	0	0	2113	5	184	376	3261
33	0	0	2122	5	185	376	3263
34	0	0	2143	5	183	377	3265
35	0	0	2172	5	184	376	3266
36	0	0	2200	5	184	376	3265
37	0	0	2202	5	183	376	3264
38	0	0	2182	5	182	376	3261
39	0	0	2192	4	183	376	3260
40	0	0	2173	4	183	376	3259
41	0	0	2117	4	182	375	3260
42	0	0	2075	4	184	376	3262
43	0	0	2038	4	183	376	3265
44	0	0	2008	5	184	376	3267
45	0	0	1974	4	184	376	3267
46	0	0	1942	4	183	375	3266
47	0	0	1925	4	184	376	3265
48	0	0	1924	5	185	376	3262
49	0	0	1914	5	184	376	3260
50	0	0	1923	5	183	376	3261
51	0	0	1945	5	184	375	3262
52	0	0	1970	4	184	376	3264
53	0	0	2010	5	183	376	3264
54	0	0	2065	6	185	376	3266
55	0	0	2124	5	184	376	3267
56	0	0	2167	5	184	376	3267
57	0	0	2192	5	184	376	3266
58	0	0	2198	5	183	376	3264
59	0	0	2205	4	183	376	3261
60	0	0	2203	5	182	376	3261
61	0	0	2192	5	184	376	3263
62	0	0	2179	5	184	376	3264
63	0	0	2148	4	185	376	3266
64	0	0	2122	5	184	376	3268
65	0	0	2111	5	184	376	3270
66	0	0	2091	5	184	375	3269
67	0	0	2088	5	184	376	3267
68	0	0	2063	4	183	376	3264
69	0	0	2007	3	184	376	3263
70	0	0	1963	4	183	376	3263
71	0	0	1970	5	184	376	3265
72	0	0	1990	5	184	376	3265
73	0	0	2019	5	184	376	3267
74	0	0	2065	4	183	376	3270
75	0	0	2131	5	183	376	3270
76	0	0	2186	5	183	376	3270
77	0	0	2221	5	183	376	3268
78	0	0	2249	5	184	376	3266
79	0	0	2263	6	184	376	3264
80	0	0	2268	4	183	376	3264
81	0	0	2248	4	184	376	3265
82	0	0	2206	4	183	376	3267
83	0	0	2146	4	184	376	3268
84	0	0	2113	4	183	376	3271
85	0	0	2103	5	184	376	3272
86	0	0	2081	4	183	376	3271
87	0	0	2065	4	184	376	3271
88	0	0	2053	4	185	376	3267
89	0	0	2014	4	185	376	3265
90	0	0	2018	5	184	376	3266
91	0	0	2028	5	183	376	3267
92	0	0	2008	4	184	376	3268
93	0	0	1985	4	183	376	3271
94	0	0	1967	5	184	375	3271
95	0	0	2001	5	184	376	3272
96	0	0	2095	5	183	375	3272
97	0	0	2173	5	183	376	3272
98	0	0	2199	5	183	377	3268
99	0	0	2210	5	184	375	3266
100	0	0	2209	5	184	376	3267
101	0	0	2182	4	184	376	3269
102	0	0	2150	4	184	376	3269
103	0	0	2129	5	185	375	3271
104	0	0	2132	5	184	376	3273
105	0	0	2151	5	184	376	3273
106	0	0	2162	5	183	376	3274
107	0	0	2155	5	184	376	3273
108	0	0	2117	5	184	376	3270
109	0	0	2053	4	184	376	3268
110	0	0	2008	4	183	376	3269
111	0	0	1981	4	183	375	3270
112	0	0	1961	5	184	376	3271
113	0	0	1983	5	183	376	3272
114	0	0	2032	5	184	376	3274
115	0	0	2068	5	183	376	3275
116	0	0	2100	5	183	376	3275
117	0	0	2140	5	183	376	3274
118	0	0	2163	5	184	376	3272
119	0	0	2178	5	183	376	3270
120	0	0	2174	5	183	376	3269
121	0	0	2163	5	183	376	3271
122	0	0	2166	5	184	376	3272
123	0	0	2160	5	184	376	3274
124	0	0	2138	4	185	375	3275
125	0	0	2119	5	183	376	3276
126	0	0	2094	4	184	376	3276
127	0	0	2052	4	184	376	3275
0	0	0	2032	4	183	376	3272
1	0	0	2018	5	183	376	3271
2	0	0	2025	5	184	376	3271
3	0	0	2041	5	183	376	3272
4	0	0	2042	5	184	376	3273
5	0	0	2053	5	184	376	3275
6	0	0	2060	5	184	376	3277
7	0	0	2076	5	183	376	3278
8	0	0	2097	5	184	375	3278
9	0	0	2120	5	183	376	3277
10	0	0	2141	4	183	376	3274
11	0	0	2172	6	184	376	3272
12	0	0	2184	5	183	376	3272
13	0	0	2191	5	183	375	3273
14	0	0	2217	5	183	375	3275
15	0	0	2197	4	183	376	3278
16	0	0	2164	4	183	376	3279
17	0	0	2131	4	183	376	3279
18	0	0	2108	4	183	376	3280
19	0	0	2087	4	184	376	3278
20	0	0	2052	4	184	376	3277
21	0	0	1993	4	184	376	3274
22	0	0	1962	4	184	376	3274
23	0	0	1956	5	184	375	3275
24	0	0	1974	5	184	376	3276
25	0	0	2032	5	184	376	3278
26	0	0	2085	5	185	376	3280
27	0	0	2140	5	183	376	3281
28	0	0	2187	5	183	375	3281
29	0	0	2210	5	183	376	3279
30	0	0	2213	5	184	376	3278
31	0	0	2213	5	184	376	3275
32	0	0	2222	4	184	376	3275
33	0	0	2225	5	183	375	3276
34	0	0	2224	5	183	376	3278
35	0	0	2226	5	183	376	3279
36	0	0	2200	5	184	376	3281
37	0	0	2146	4	183	376	3282
38	0	0	2099	4	185	376	3282
39	0	0	2058	4	183	376	3281
40	0	0	2033	5	184	376	3278
41	0	0	2005	4	183	376	3276
42	0	0	1977	4	185	376	3276
43	0	0	1968	5	185	375	3278
44	0	0	1993	5	184	376	3280
45	0	0	2049	5	183	377	3281
46	0	0	2125	5	184	376	3283
47	0	0	2215	5	184	376	3284
48	0	0	2288	5	184	376	3283
49	0	0	2318	5	184	376	3283
50	0	0	2332	5	183	376	3280
51	0	0	2347	5	183	376	3278
52	0	0	2313	4	183	376	3278
53	0	0	2257	4	184	376	3279
54	0	0	2189	4	184	376	3281
55	0	0	2141	4	182	376	3283
56	0	0	2116	4	183	377	3284
57	0	0	2102	4	183	376	3285
58	0	0	2082	4	184	375	3285
59	0	0	2076	5	183	376	3283
60	0	0	2080	5	184	376	3281
61	0	0	2052	5	184	376	3279
62	0	0	2030	5	184	376	3280
63	0	0	2017	4	185	376	3281
64	0	0	2017	4	183	376	3283
65	0	0	2055	6	185	375	3284
66	0	0	2124	5	183	376	3285
67	0	0	2191	6	184	376	3287
68	0	0	2258	5	183	376	3287
69	0	0	2298	5	184	376	3285
70	0	0	2309	5	183	377	3283
71	0	0	2328	5	184	376	3281
72	0	0	2309	4	184	376	3281
73	0	0	2260	4	184	376	3283
74	0	0	2218	5	184	376	3284
75	0	0	2188	4	184	376	3286
76	0	0	2162	4	183	376	3288
77	0	0	2117	4	183	376	3288
78	0	0	2068	4	183	376	3288
79	0	0	2023	4	184	376	3287
80	0	0	1986	5	182	376	3284
81	0	0	1963	4	183	377	3282
82	0	0	1981	5	185	376	3282
83	0	0	2028	5	184	376	3283
84	0	0	2057	5	184	376	3285
85	0	0	2078	5	184	376	3287
86	0	0	2106	5	184	375	3288
87	0	0	2149	5	183	376	3289
88	0	0	2199	5	184	376	3290
89	0	0	2243	5	184	376	3288
90	0	0	2274	5	182	376	3287
91	0	0	2298	5	183	376	3285
92	0	0	2295	4	183	376	3284
93	0	0	2255	4	183	376	3285
94	0	0	2224	4	183	376	3286
95	0	0	2172	5	183	375	3288
96	0	0	2107	4	184	376	3290
97	0	0	2045	4	183	376	3292
98	0	0	2006	4	183	376	3291
99	0	0	1981	4	183	376	3289
100	0	0	1963	4	183	376	3287
101	0	0	1941	5	183	376	3285
102	0	0	1937	5	183	376	3285
103	0	0	1956	5	183	376	3287
104	0	0	1978	5	183	376	3288
105	0	0	2016	5	183	375	3290
106	0	0	2083	5	184	376	3291
107	0	0	2142	4	183	376	3292
108	0	0	2188	5	183	376	3292
109	0	0	2241	4	184	376	3292
110	0	0	2290	5	183	376	3288
111	0	0	2331	5	184	376	3286
112	0	0	2328	5	183	376	3286
113	0	0	2285	4	184	376	3288
114	0	0	2235	4	183	376	3289
115	0	0	2204	4	183	376	3290
116	0	0	2184	5	183	376	3292
117	0	0	2164	4	184	376	3293
118	0	0	2132	5	184	376	3294
119	0	0	2095	4	183	376	3292
120	0	0	2065	4	184	375	3289
121	0	0	2016	4	185	376	3288
122	0	0	1992	5	184	376	3288
123	0	0	1993	5	184	376	3289
124	0	0	2026	5	183	376	3290
125	0	0	2075	5	184	376	3292
126	0	0	2106	5	184	376	3293
127	0	0	2141	4	183	376	3294
0	0	0	2193	5	183	376	3295
1	0	0	2257	5	183	376	3293
2	0	0	2267	5	183	375	3290
3	0	0	2240	4	183	376	3288
4	0	0	2196	4	183	376	3289
5	0	0	2143	4	183	376	3290
6	0	0	2126	5	183	376	3291
7	0	0	2112	5	183	376	3293
8	0	0	2086	5	184	375	3294
9	0	0	2049	4	184	376	3295
10	0	0	2002	5	183	376	3295
11	0	0	1981	4	184	376	3295
12	0	0	1977	5	184	375	3292
13	0	0	1966	4	183	376	3289
14	0	0	1966	5	183	376	3290
15	0	0	1973	5	184	376	3291
16	0	0	1980	5	184	376	3292
17	0	0	2005	5	182	376	3294
18	0	0	2052	5	183	376	3295
19	0	0	2101	5	182	376	3296
20	0	0	2145	5	185	376	3297
21	0	0	2157	5	183	376	3295
22	0	0	2137	4	183	376	3293
23	0	0	2133	5	183	376	3290
24	0	0	2129	5	183	376	3291
25	0	0	2139	5	183	376	3292
26	0	0	2174	3	183	376	3294
27	0	0	2173	4	183	376	3295
28	0	0	2127	4	185	376	3296
29	0	0	2069	5	183	376	3298
30	0	0	1982	4	183	376	3297
31	0	0	1915	4	183	376	3296
32	0	0	1863	4	183	376	3295
33	0	0	1805	4	184	376	3292
34	0	0	1790	4	184	376	3292
35	0	0	1812	5	184	376	3293
36	0	0	1843	4	184	376	3294
37	0	0	1893	6	183	376	3296
38	0	0	1955	5	183	376	3297
39	0	0	2007	6	184	376	3298
40	0	0	2045	5	184	376	3298
41	0	0	2076	4	183	376	3298
42	0	0	2101	5	183	377	3295
43	0	0	2132	5	182	376	3292
44	0	0	2139	5	183	376	3294
45	0	0	2110	4	182	376	3294
46	0	0	2099	5	183	376	3295
47	0	0	2091	5	183	376	3296
48	0	0	2071	4	183	375	3298
49	0	0	2026	5	183	376	3299
50	0	0	1995	4	182	376	3299
51	0	0	1988	4	184	376	3298
52	0	0	1963	4	184	376	3297
53	0	0	1889	4	184	376	3293
54	0	0	1820	5	184	376	3294
55	0	0	1817	5	184	376	3296
56	0	0	1860	5	184	376	3296
57	0	0	1910	5	184	376	3299
58	0	0	1926	5	184	376	3300
59	0	0	1928	5	183	376	3300
60	0	0	1963	5	184	376	3300
61	0	0	2045	5	184	376	3299
62	0	0	2118	6	182	376	3296
63	0	0	2151	5	184	376	3294
64	0	0	2136	5	183	376	3294
65	0	0	2099	5	184	376	3296
66	0	0	2075	4	184	376	3298
67	0	0	2067	5	184	376	3298
68	0	0	2058	4	182	376	3300
69	0	0	2010	4	182	376	3302
70	0	0	1943	4	183	376	3301
71	0	0	1886	4	184	376	3300
72	0	0	1839	4	183	376	3297
73	0	0	1801	4	184	376	3296
74	0	0	1807	6	184	375	3296
75	0	0	1849	5	183	376	3297
76	0	0	1899	5	184	376	3298
77	0	0	1940	6	184	376	3300
78	0	0	1969	5	183	375	3301
79	0	0	2000	5	184	376	3302
80	0	0	2041	5	184	376	3302
81	0	0	2066	5	183	376	3301
82	0	0	2090	6	184	376	3299
83	0	0	2115	5	184	375	3297
84	0	0	2116	4	183	376	3297
85	0	0	2092	4	182	376	3298
86	0	0	2078	4	183	376	3300
87	0	0	2043	4	183	376	3301
88	0	0	1998	4	182	376	3303
89	0	0	1969	4	184	376	3304
90	0	0	1955	4	185	376	3303
91	0	0	1928	4	184	376	3303
92	0	0	1894	4	184	376	3300
93	0	0	1870	4	182	377	3298
94	0	0	1882	5	183	376	3298
95	0	0	1888	5	184	376	3299
96	0	0	1900	5	182	376	3300
97	0	0	1943	5	184	376	3303
98	0	0	2008	5	184	376	3304
99	0	0	2060	5	183	376	3305
100	0	0	2070	5	184	376	3305
101	0	0	2041	4	183	376	3303
102	0	0	2021	5	183	376	3302
103	0	0	2029	5	183	376	3300
104	0	0	2030	4	183	376	3299
105	0	0	2011	4	183	376	3300
106	0	0	1989	5	184	376	3302
107	0	0	1963	4	183	376	3303
108	0	0	1960	5	184	376	3305
109	0	0	1971	5	183	376	3306
110	0	0	1984	5	183	376	3307
111	0	0	1991	5	184	376	3305
112	0	0	1984	5	184	376	3303
113	0	0	1941	4	184	376	3300
114	0	0	1891	4	184	376	3300
115	0	0	1843	4	183	376	3302
116	0	0	1853	5	183	376	3303
117	0	0	1924	5	184	375	3305
118	0	0	1995	5	183	376	3306
119	0	0	2028	5	183	376	3307
120	0	0	2042	5	183	376	3307
121	0	0	2049	5	184	376	3306
122	0	0	2051	5	183	376	3304
123	0	0	2077	5	183	376	3302
124	0	0	2125	5	184	376	3303
125	0	0	2171	5	183	376	3303
126	0	0	2166	4	183	376	3305
127	0	0	2133	4	185	376	3306
0	0	0	2104	5	183	376	3307
1	0	0	2079	4	183	376	3308
2	0	0	2041	4	183	376	3309
3	0	0	1989	4	184	376	3307
4	0	0	1923	4	185	376	3305
5	0	0	1874	4	184	376	3303
6	0	0	1873	5	183	376	3303
7	0	0	1883	5	184	376	3304
8	0	0	1874	6	184	376	3305
9	0	0	1924	5	184	376	3308
10	0	0	2007	5	183	376	3309
11	0	0	2076	5	183	376	3310
12	0	0	2099	5	184	376	3310
13	0	0	2084	4	184	376	3310
14	0	0	2065	5	183	376	3306
15	0	0	2078	5	184	376	3304
16	0	0	2094	5	183	376	3305
17	0	0	2077	4	184	376	3307
18	0	0	2033	4	183	376	3307
19	0	0	1974	4	184	376	3308
20	0	0	1905	4	183	376	3310
21	0	0	1858	3	183	376	3311
22	0	0	1858	5	184	376	3311
23	0	0	1868	4	184	376	3311
24	0	0	1884	5	185	376	3308
25	0	0	1886	5	184	376	3306
26	0	0	1890	5	184	376	3306
27	0	0	1908	5	185	376	3307
28	0	0	1932	5	185	376	3308
29	0	0	1959	5	184	376	3311
30	0	0	1998	5	183	376	3312
31	0	0	2026	4	183	376	3312
32	0	0	2048	5	184	376	3312
33	0	0	2092	5	183	376	3312
34	0	0	2138	5	182	377	3309
35	0	0	2176	5	183	376	3307
36	0	0	2194	4	183	376	3307
37	0	0	2179	4	183	376	3308
38	0	0	2137	4	183	376	3310
39	0	0	2087	4	183	376	3311
40	0	0	2043	5	184	376	3313
41	0	0	2009	4	182	376	3314
42	0	0	2002	5	183	376	3314
43	0	0	1998	5	184	376	3312
44	0	0	1967	4	183	376	3310
45	0	0	1894	4	184	376	3308
46	0	0	1854	4	183	376	3309
47	0	0	1869	5	184	376	3310
48	0	0	1910	5	183	376	3312
49	0	0	1970	5	183	375	3313
50	0	0	2016	5	185	376	3314
51	0	0	2055	4	183	376	3315
52	0	0	2084	5	184	376	3315
53	0	0	2109	5	185	376	3314
54	0	0	2131	5	183	375	3311
55	0	0	2145	5	183	376	3310
56	0	0	2109	4	184	376	3310
57	0	0	2035	4	184	376	3312
58	0	0	1962	4	183	376	3312
59	0	0	1934	4	183	376	3314
60	0	0	1954	5	183	376	3315
61	0	0	1977	4	184	376	3316
62	0	0	1989	5	183	376	3316
63	0	0	1981	5	185	376	3315
64	0	0	1966	4	184	376	3313
65	0	0	1942	4	183	376	3312
66	0	0	1947	4	184	376	3311
67	0	0	1958	5	184	376	3312
68	0	0	1981	5	183	375	3313
69	0	0	2042	5	184	375	3315
70	0	0	2094	5	183	376	3317
71	0	0	2106	5	183	376	3317
72	0	0	2112	5	183	376	3317
73	0	0	2111	5	184	376	3316
74	0	0	2121	5	184	376	3314
75	0	0	2156	5	182	376	3312
76	0	0	2163	4	183	376	3312
77	0	0	2149	5	184	376	3313
78	0	0	2129	4	183	376	3314
79	0	0	2091	4	184	377	3316
80	0	0	2064	4	182	376	3318
81	0	0	2040	4	184	376	3318
82	0	0	2012	4	183	376	3319
83	0	0	1988	4	184	376	3317
84	0	0	1956	4	184	376	3315
85	0	0	1910	4	184	376	3313
86	0	0	1885	3	184	376	3313
87	0	0	1893	5	184	376	3314
88	0	0	1925	5	183	376	3315
89	0	0	1988	5	184	376	3317
90	0	0	2061	5	183	376	3318
91	0	0	2097	4	183	376	3319
92	0	0	2107	5	183	376	3320
93	0	0	2114	5	184	376	3319
94	0	0	2111	5	184	376	3317
95	0	0	2125	5	183	376	3315
96	0	0	2134	4	183	376	3314
97	0	0	2100	4	183	376	3316
98	0	0	2063	4	184	376	3316
99	0	0	2026	4	184	376	3319
100	0	0	1994	4	184	376	3320
101	0	0	1967	4	185	375	3320
102	0	0	1936	4	184	376	3321
103	0	0	1905	4	183	376	3320
104	0	0	1881	4	187	376	3317
105	0	0	1865	4	184	376	3315
106	0	0	1887	5	185	376	3316
107	0	0	1919	5	184	376	3316
108	0	0	1924	5	183	376	3318
109	0	0	1942	4	184	376	3319
110	0	0	1988	5	183	376	3321
111	0	0	2035	5	183	376	3322
112	0	0	2077	5	183	376	3321
113	0	0	2108	5	185	376	3321
114	0	0	2123	5	184	375	3318
115	0	0	2113	5	184	376	3316
116	0	0	2080	4	184	376	3317
117	0	0	2036	4	184	376	3318
118	0	0	1990	4	184	375	3319
119	0	0	1936	5	183	375	3320
120	0	0	1909	5	184	376	3321
121	0	0	1922	5	182	376	3323
122	0	0	1949	5	185	376	3322
123	0	0	1959	5	184	375	3321
124	0	0	1956	4	184	376	3319
125	0	0	1925	4	184	376	3317
126	0	0	1902	4	184	376	3317
127	0	0	1901	5	184	376	3319
0	0	0	1893	4	184	376	3320
1	0	0	1889	5	183	375	3322
2	0	0	1902	5	183	376	3324
3	0	0	1971	5	184	376	3324
4	0	0	2050	5	184	376	3323
5	0	0	2054	5	183	376	3322
6	0	0	2021	5	184	376	3320
7	0	0	1997	4	183	376	3318
8	0	0	1997	5	184	376	3319
9	0	0	2003	5	183	376	3319
10	0	0	1994	4	183	376	3320
11	0	0	1968	4	183	375	3323
12	0	0	1944	4	183	376	3324
13	0	0	1900	3	183	376	3325
14	0	0	1864	4	184	376	3324
15	0	0	1830	5	184	376	3323
16	0	0	1796	5	184	376	3321
17	0	0	1750	4	184	376	3319
18	0	0	1720	4	185	376	3320
19	0	0	1734	5	185	376	3320
20	0	0	1756	5	185	376	3321
21	0	0	1779	5	184	376	3323
22	0	0	1797	5	184	376	3324
23	0	0	1815	4	185	376	3326
24	0	0	1850	5	185	376	3325
25	0	0	1876	5	185	376	3324
26	0	0	1895	5	185	376	3322
27	0	0	1927	5	184	376	3320
28	0	0	1921	3	185	376	3320
29	0	0	1883	4	186	376	3321
30	0	0	1845	4	185	376	3322
31	0	0	1806	4	185	376	3324
32	0	0	1763	4	185	376	3326
33	0	0	1734	4	185	376	3326
34	0	0	1735	5	185	376	3327
35	0	0	1750	5	185	376	3325
36	0	0	1756	5	185	375	3324
37	0	0	1743	5	185	376	3322
38	0	0	1741	5	185	376	3321
39	0	0	1759	5	186	376	3323
40	0	0	1789	5	185	376	3323
41	0	0	1833	5	185	376	3325
42	0	0	1842	5	185	376	3326
43	0	0	1842	4	186	375	3327
44	0	0	1862	5	186	376	3327
45	0	0	1884	5	185	376	3326
46	0	0	1907	5	185	376	3324
47	0	0	1930	5	186	376	3322
48	0	0	1940	4	185	376	3322
49	0	0	1935	5	184	376	3322
50	0	0	1933	4	185	376	3324
51	0	0	1919	4	184	375	3326
52	0	0	1884	4	184	376	3328
53	0	0	1858	4	185	376	3328
54	0	0	1867	5	185	376	3328
55	0	0	1849	5	184	376	3327
56	0	0	1796	4	185	376	3325
57	0	0	1747	4	184	376	3323
58	0	0	1742	4	185	376	3323
59	0	0	1750	5	185	376	3324
60	0	0	1776	3	185	376	3325
61	0	0	1795	5	186	376	3326
62	0	0	1803	5	186	376	3327
63	0	0	1824	5	185	376	3328
64	0	0	1819	5	184	376	3328
65	0	0	1835	6	185	376	3327
66	0	0	1879	5	184	376	3325
67	0	0	1916	5	185	376	3323
68	0	0	1898	4	185	376	3324
69	0	0	1846	4	185	376	3324
70	0	0	1814	4	184	376	3326
71	0	0	1776	4	187	376	3327
72	0	0	1719	4	185	376	3328
73	0	0	1647	4	185	376	3329
74	0	0	1595	4	185	376	3329
75	0	0	1570	4	185	376	3328
76	0	0	1537	4	185	375	3326
77	0	0	1474	4	183	376	3324
78	0	0	1449	4	184	376	3324
79	0	0	1446	4	185	376	3326
80	0	0	1432	4	185	376	3326
81	0	0	1445	5	185	376	3328
82	0	0	1475	5	184	376	3329
83	0	0	1465	4	184	376	3330
84	0	0	1439	5	185	376	3330
85	0	0	1418	4	184	376	3329
86	0	0	1399	4	184	376	3327
87	0	0	1388	4	184	376	3324
88	0	0	1351	4	185	376	3325
89	0	0	1316	4	184	376	3325
90	0	0	1262	4	184	376	3327
91	0	0	1208	4	185	376	3328
92	0	0	1171	4	183	376	3330
93	0	0	1139	4	184	376	3330
94	0	0	1100	4	186	376	3330
95	0	0	1059	4	185	376	3330
96	0	0	1005	4	185	376	3328
97	0	0	907	4	185	376	3326
98	0	0	819	4	185	376	3326
99	0	0	761	4	184	376	3326
100	0	0	714	3	185	376	3327
101	0	0	667	4	184	376	3329
102	0	0	628	4	184	376	3331
103	0	0	593	4	184	376	3331
104	0	0	560	4	185	376	3331
105	0	0	518	4	185	376	3330
106	0	0	456	4	184	376	3328
107	0	0	379	4	185	376	3326
108	0	0	335	4	184	376	3326
109	0	0	313	4	185	376	3327
110	0	0	303	4	185	376	3328
111	0	0	300	3	185	376	3329
112	0	0	300	4	185	376	3331
113	0	0	303	4	184	376	3332
114	0	0	307	4	185	376	3332
115	0	0	311	4	184	376	3330
116	0	0	315	4	185	376	3329
117	0	0	320	4	184	376	3327
118	0	0	325	4	184	376	3327
119	0	0	330	4	184	376	3328
120	0	0	335	3	184	376	3328
121	0	0	339	4	185	376	3330
122	0	0	344	4	185	376	3331
123	0	0	349	4	185	376	3332
124	0	0	354	4	184	376	3332
125	0	0	360	4	184	376	3331
126	0	0	364	4	184	376	3329
127	0	0	369	4	184	375	3327
0	0	0	374	4	185	376	3328
1	0	0	379	4	184	376	3327
2	0	0	384	4	185	376	3330
3	0	0	389	4	185	376	3330
4	0	0	394	4	185	376	3332
5	0	0	398	4	184	376	3333
6	0	0	403	4	184	376	3333
7	0	0	408	4	184	376	3331
8	0	0	413	5	185	376	3330
9	0	0	417	4	184	376	3328
10	0	0	422	4	184	376	3328
11	0	0	427	4	183	376	3328
12	0	0	431	4	185	376	3329
13	0	0	436	3	184	376	3331
14	0	0	441	4	185	375	3332
15	0	0	445	4	183	376	3334
16	0	0	450	4	184	376	3333
17	0	0	455	4	184	376	3332
18	0	0	459	4	183	376	3330
19	0	0	464	4	185	376	3329
20	0	0	468	4	183	376	3328
21	0	0	473	4	184	376	3329
22	0	0	477	4	184	376	3330
23	0	0	482	3	184	376	3331
24	0	0	486	4	183	375	3333
25	0	0	491	5	183	376	3334
26	0	0	495	4	184	376	3333
27	0	0	500	4	184	376	3333
28	0	0	504	4	184	376	3330
29	0	0	509	4	184	376	3328
30	0	0	514	4	184	376	3328
31	0	0	518	4	185	376	3330
32	0	0	523	3	183	376	3330
33	0	0	527	5	184	376	3332
34	0	0	531	4	184	375	3333
