# bioPlux Text File Format
# Version: 1
# StartDateTime: 2011-07-18 10:12:31
# SamplingFrequency: 1000
# SampledChannels: 1 2 3 4
# SamplingResolution: 12
# AcquiringDevice: 00:07:80:42:0F:95
# EndOfHeader
0	0	0	3666	5	185	0
1	0	0	3904	5	185	0
2	0	0	3771	4	183	0
3	0	0	3406	4	184	0
4	0	0	3063	4	183	0
5	0	0	2751	4	184	0
6	0	0	2476	4	183	0
7	0	0	2365	3	183	0
8	0	0	2029	4	184	0
9	0	0	1774	4	183	0
10	0	0	1752	4	183	0
11	0	0	1742	4	184	0
12	0	0	1815	4	184	0
13	0	0	1942	5	184	0
14	0	0	2156	5	184	0
15	0	0	2433	5	182	0
16	0	0	2605	4	184	0
17	0	0	2567	4	184	0
18	0	0	3087	5	185	0
19	0	0	3496	5	185	0
20	0	0	3674	5	185	0
21	0	0	3913	5	184	0
22	0	0	3785	3	184	0
23	0	0	3414	4	184	0
24	0	0	3067	5	184	0
25	0	0	2753	4	183	0
26	0	0	2463	4	185	0
27	0	0	2355	4	184	0
28	0	0	2033	4	183	0
29	0	0	1782	5	184	0
30	0	0	1769	5	185	0
31	0	0	1770	5	185	0
32	0	0	1857	4	184	0
33	0	0	1974	5	185	0
34	0	0	2176	5	184	0
35	0	0	2450	5	185	0
36	0	0	2606	4	186	0
37	0	0	2576	5	185	0
38	0	0	3105	5	184	0
39	0	0	3528	5	185	0
40	0	0	3700	5	184	0
41	0	0	3936	5	184	0
42	0	0	3808	4	184	0
43	0	0	3442	4	184	0
44	0	0	3099	4	183	0
45	0	0	2783	4	184	0
46	0	0	2501	4	183	0
47	0	0	2388	4	183	0
48	0	0	2049	4	183	0
49	0	0	1794	4	182	0
50	0	0	1770	4	184	0
51	0	0	1765	5	185	0
52	0	0	1846	4	184	0
53	0	0	1973	5	185	0
54	0	0	2179	6	185	0
55	0	0	2455	5	185	0
56	0	0	2608	4	183	0
57	0	0	2576	5	183	0
58	0	0	3104	5	184	0
59	0	0	3523	5	184	0
60	0	0	3701	5	185	0
61	0	0	3933	6	185	0
62	0	0	3792	4	184	0
63	0	0	3418	4	185	0
64	0	0	3077	3	183	0
65	0	0	2759	4	184	0
66	0	0	2486	4	182	0
67	0	0	2369	4	182	0
68	0	0	2026	4	184	0
69	0	0	1768	4	183	0
70	0	0	1750	4	184	0
71	0	0	1750	5	183	0
72	0	0	1827	5	184	0
73	0	0	1958	5	184	0
74	0	0	2173	5	183	0
75	0	0	2454	5	184	0
76	0	0	2615	4	185	0
77	0	0	2595	5	185	0
78	0	0	3112	5	185	0
79	0	0	3526	5	185	0
80	0	0	3703	6	184	0
81	0	0	3938	5	184	0
82	0	0	3792	4	184	0
83	0	0	3415	4	184	0
84	0	0	3066	4	183	0
85	0	0	2755	4	184	0
86	0	0	2474	4	182	0
87	0	0	2354	3	183	0
88	0	0	2018	4	184	0
89	0	0	1765	3	184	0
90	0	0	1746	4	184	0
91	0	0	1745	5	184	0
92	0	0	1822	5	184	0
93	0	0	1955	5	185	0
94	0	0	2168	5	183	0
95	0	0	2449	5	184	0
96	0	0	2610	4	186	0
97	0	0	2602	5	185	0
98	0	0	3127	5	185	0
99	0	0	3549	5	185	0
100	0	0	3726	5	184	0
101	0	0	3957	5	186	0
102	0	0	3807	4	184	0
103	0	0	3425	4	185	0
104	0	0	3077	4	183	0
105	0	0	2757	4	184	0
106	0	0	2474	4	184	0
107	0	0	2346	4	184	0
108	0	0	2008	4	183	0
109	0	0	1760	4	184	0
110	0	0	1737	4	183	0
111	0	0	1741	5	185	0
112	0	0	1819	5	184	0
113	0	0	1952	5	184	0
114	0	0	2173	5	184	0
115	0	0	2451	5	184	0
116	0	0	2618	4	185	0
117	0	0	2615	5	185	0
118	0	0	3150	5	184	0
119	0	0	3568	5	185	0
120	0	0	3747	5	186	0
121	0	0	3971	5	185	0
122	0	0	3812	4	184	0
123	0	0	3425	4	183	0
124	0	0	3068	4	184	0
125	0	0	2748	4	184	0
126	0	0	2464	4	185	0
127	0	0	2334	4	183	0
0	0	0	1989	4	184	0
1	0	0	1743	4	184	0
2	0	0	1726	5	183	0
3	0	0	1735	5	184	0
4	0	0	1813	5	184	0
5	0	0	1956	6	184	0
6	0	0	2176	5	185	0
7	0	0	2465	5	184	0
8	0	0	2616	4	184	0
9	0	0	2617	5	185	0
10	0	0	3158	5	185	0
11	0	0	3570	5	185	0
12	0	0	3752	6	184	0
13	0	0	3984	5	184	0
14	0	0	3821	4	184	0
15	0	0	3420	4	184	0
16	0	0	3051	4	184	0
17	0	0	2721	4	184	0
18	0	0	2425	4	183	0
19	0	0	2298	4	182	0
20	0	0	1959	4	184	0
21	0	0	1713	4	184	0
22	0	0	1696	4	185	0
23	0	0	1712	5	184	0
24	0	0	1801	5	184	0
25	0	0	1934	5	184	0
26	0	0	2153	5	185	0
27	0	0	2443	5	184	0
28	0	0	2580	4	186	0
29	0	0	2601	5	185	0
30	0	0	3153	5	185	0
31	0	0	3570	5	186	0
32	0	0	3743	5	185	0
33	0	0	3963	5	184	0
34	0	0	3788	4	185	0
35	0	0	3394	4	184	0
36	0	0	3028	4	184	0
37	0	0	2692	5	183	0
38	0	0	2401	4	184	0
39	0	0	2280	4	184	0
40	0	0	1942	4	184	0
41	0	0	1697	4	183	0
42	0	0	1687	4	183	0
43	0	0	1703	5	184	0
44	0	0	1782	5	183	0
45	0	0	1928	5	184	0
46	0	0	2156	5	184	0
47	0	0	2446	6	185	0
48	0	0	2601	4	184	0
49	0	0	2620	5	184	0
50	0	0	3165	5	184	0
51	0	0	3578	5	185	0
52	0	0	3754	4	185	0
53	0	0	3975	5	184	0
54	0	0	3791	4	184	0
55	0	0	3392	3	183	0
56	0	0	3040	4	183	0
57	0	0	2713	3	184	0
58	0	0	2428	4	183	0
59	0	0	2293	4	184	0
60	0	0	1950	3	183	0
61	0	0	1705	4	183	0
62	0	0	1699	4	183	0
63	0	0	1710	5	184	0
64	0	0	1798	5	184	0
65	0	0	1949	5	183	0
66	0	0	2170	5	184	0
67	0	0	2461	5	184	0
68	0	0	2610	4	183	0
69	0	0	2624	5	185	0
70	0	0	3159	5	185	0
71	0	0	3561	5	184	0
72	0	0	3732	5	185	0
73	0	0	3949	5	185	0
74	0	0	3763	4	184	0
75	0	0	3364	4	183	0
76	0	0	3011	4	183	0
77	0	0	2684	3	184	0
78	0	0	2403	4	183	0
79	0	0	2275	4	183	0
80	0	0	1940	4	183	0
81	0	0	1703	4	183	0
82	0	0	1685	5	184	0
83	0	0	1704	5	184	0
84	0	0	1790	5	184	0
85	0	0	1936	5	184	0
86	0	0	2156	5	184	0
87	0	0	2444	5	184	0
88	0	0	2591	4	184	0
89	0	0	2616	5	184	0
90	0	0	3144	5	185	0
91	0	0	3541	5	184	0
92	0	0	3708	5	185	0
93	0	0	3922	5	184	0
94	0	0	3743	4	185	0
95	0	0	3348	4	185	0
96	0	0	2995	5	184	0
97	0	0	2678	4	185	0
98	0	0	2398	4	183	0
99	0	0	2263	4	184	0
100	0	0	1928	4	184	0
101	0	0	1701	4	183	0
102	0	0	1692	4	184	0
103	0	0	1697	5	183	0
104	0	0	1777	5	183	0
105	0	0	1923	5	184	0
106	0	0	2148	5	182	0
107	0	0	2430	4	183	0
108	0	0	2561	4	185	0
109	0	0	2591	5	184	0
110	0	0	3119	5	185	0
111	0	0	3512	5	184	0
112	0	0	3685	5	185	0
113	0	0	3901	5	185	0
114	0	0	3726	4	183	0
115	0	0	3323	4	184	0
116	0	0	2971	4	183	0
117	0	0	2656	4	184	0
118	0	0	2375	4	184	0
119	0	0	2250	4	183	0
120	0	0	1925	4	184	0
121	0	0	1699	4	183	0
122	0	0	1689	4	183	0
123	0	0	1708	5	183	0
124	0	0	1794	5	184	0
125	0	0	1930	5	184	0
126	0	0	2139	5	183	0
127	0	0	2416	5	184	0
0	0	0	2535	3	184	0
1	0	0	2581	5	183	0
2	0	0	3121	5	185	0
3	0	0	3510	5	185	0
4	0	0	3674	5	185	0
5	0	0	3883	5	185	0
6	0	0	3709	4	182	0
7	0	0	3316	4	184	0
8	0	0	2968	4	184	0
9	0	0	2653	4	182	0
10	0	0	2377	4	183	0
11	0	0	2262	4	182	0
12	0	0	1935	4	183	0
13	0	0	1715	4	184	0
14	0	0	1705	4	183	0
15	0	0	1719	5	184	0
16	0	0	1792	5	184	0
17	0	0	1934	5	184	0
18	0	0	2152	4	183	0
19	0	0	2429	5	184	0
20	0	0	2549	4	185	0
21	0	0	2588	5	185	0
22	0	0	3116	5	184	0
23	0	0	3495	5	184	0
24	0	0	3663	5	186	0
25	0	0	3871	5	183	0
26	0	0	3685	4	185	0
27	0	0	3297	4	184	0
28	0	0	2957	3	183	0
29	0	0	2647	4	184	0
30	0	0	2386	4	185	0
31	0	0	2254	4	183	0
32	0	0	1915	4	183	0
33	0	0	1693	4	183	0
34	0	0	1684	4	183	0
35	0	0	1698	5	186	0
36	0	0	1771	5	185	0
37	0	0	1908	5	184	0
38	0	0	2122	5	183	0
39	0	0	2399	5	184	0
40	0	0	2513	4	185	0
41	0	0	2560	5	185	0
42	0	0	3097	5	184	0
43	0	0	3467	5	184	0
44	0	0	3630	5	184	0
45	0	0	3844	5	185	0
46	0	0	3665	4	184	0
47	0	0	3288	4	184	0
48	0	0	2950	4	184	0
49	0	0	2635	4	183	0
50	0	0	2375	4	185	0
51	0	0	2240	4	185	0
52	0	0	1905	4	184	0
53	0	0	1678	4	184	0
54	0	0	1657	4	184	0
55	0	0	1680	5	183	0
56	0	0	1756	5	182	0
57	0	0	1893	5	184	0
58	0	0	2107	5	185	0
59	0	0	2387	5	185	0
60	0	0	2490	4	185	0
61	0	0	2543	5	185	0
62	0	0	3091	5	185	0
63	0	0	3479	5	184	0
64	0	0	3648	5	184	0
65	0	0	3853	5	184	0
66	0	0	3665	4	185	0
67	0	0	3291	4	182	0
68	0	0	2948	3	183	0
69	0	0	2640	4	184	0
70	0	0	2380	4	183	0
71	0	0	2236	4	185	0
72	0	0	1893	4	183	0
73	0	0	1664	4	182	0
74	0	0	1647	4	183	0
75	0	0	1662	5	183	0
76	0	0	1728	5	185	0
77	0	0	1872	5	184	0
78	0	0	2093	4	183	0
79	0	0	2378	5	184	0
80	0	0	2486	4	185	0
81	0	0	2537	5	185	0
82	0	0	3078	5	185	0
83	0	0	3469	5	185	0
84	0	0	3649	5	185	0
85	0	0	3860	5	184	0
86	0	0	3665	4	186	0
87	0	0	3280	4	184	0
88	0	0	2939	4	182	0
89	0	0	2628	4	183	0
90	0	0	2357	4	184	0
91	0	0	2211	4	184	0
92	0	0	1865	4	183	0
93	0	0	1633	4	182	0
94	0	0	1619	4	183	0
95	0	0	1639	6	183	0
96	0	0	1712	5	184	0
97	0	0	1851	5	183	0
98	0	0	2072	5	183	0
99	0	0	2363	5	183	0
100	0	0	2461	4	186	0
101	0	0	2535	5	184	0
102	0	0	3096	5	183	0
103	0	0	3489	5	185	0
104	0	0	3671	5	185	0
105	0	0	3884	5	184	0
106	0	0	3697	4	184	0
107	0	0	3289	4	183	0
108	0	0	2936	4	184	0
109	0	0	2615	4	183	0
110	0	0	2326	4	184	0
111	0	0	2188	4	184	0
112	0	0	1853	3	182	0
113	0	0	1626	4	184	0
114	0	0	1603	4	184	0
115	0	0	1619	5	183	0
116	0	0	1684	5	184	0
117	0	0	1839	5	185	0
118	0	0	2066	4	184	0
119	0	0	2353	5	183	0
120	0	0	2457	4	185	0
121	0	0	2522	5	184	0
122	0	0	3072	5	184	0
123	0	0	3470	5	185	0
124	0	0	3663	5	184	0
125	0	0	3873	5	185	0
126	0	0	3677	4	184	0
127	0	0	3279	4	185	0
0	0	0	2920	4	184	0
1	0	0	2599	4	184	0
2	0	0	2326	4	184	0
3	0	0	2167	4	184	0
4	0	0	1815	4	184	0
5	0	0	1578	3	184	0
6	0	0	1559	4	185	0
7	0	0	1569	5	183	0
8	0	0	1628	5	184	0
9	0	0	1779	5	185	0
10	0	0	2013	5	182	0
11	0	0	2313	5	185	0
12	0	0	2429	4	184	0
13	0	0	2510	5	186	0
14	0	0	3080	5	185	0
15	0	0	3483	5	184	0
16	0	0	3677	4	185	0
17	0	0	3891	4	184	0
18	0	0	3680	4	183	0
19	0	0	3272	4	184	0
20	0	0	2918	4	184	0
21	0	0	2601	4	184	0
22	0	0	2327	4	183	0
23	0	0	2167	4	184	0
24	0	0	1812	4	183	0
25	0	0	1578	3	184	0
26	0	0	1550	4	184	0
27	0	0	1565	5	184	0
28	0	0	1629	5	183	0
29	0	0	1784	5	184	0
30	0	0	2019	5	182	0
31	0	0	2319	5	185	0
32	0	0	2434	4	184	0
33	0	0	2509	5	184	0
34	0	0	3072	5	184	0
35	0	0	3477	4	184	0
36	0	0	3671	5	185	0
37	0	0	3893	5	184	0
38	0	0	3688	4	183	0
39	0	0	3285	4	185	0
40	0	0	2926	4	183	0
41	0	0	2598	4	184	0
42	0	0	2321	4	184	0
43	0	0	2156	4	183	0
44	0	0	1796	4	184	0
45	0	0	1558	4	184	0
46	0	0	1530	4	184	0
47	0	0	1539	5	184	0
48	0	0	1601	5	183	0
49	0	0	1757	5	184	0
50	0	0	1999	5	184	0
51	0	0	2302	5	183	0
52	0	0	2412	4	185	0
53	0	0	2500	5	183	0
54	0	0	3074	5	185	0
55	0	0	3471	5	185	0
56	0	0	3670	5	184	0
57	0	0	3888	5	185	0
58	0	0	3678	4	184	0
59	0	0	3268	4	184	0
60	0	0	2904	3	183	0
61	0	0	2568	4	184	0
62	0	0	2293	4	184	0
63	0	0	2127	4	183	0
64	0	0	1759	4	184	0
65	0	0	1526	3	185	0
66	0	0	1502	4	182	0
67	0	0	1510	5	183	0
68	0	0	1575	5	184	0
69	0	0	1737	5	183	0
70	0	0	1979	5	184	0
71	0	0	2290	5	185	0
72	0	0	2391	4	184	0
73	0	0	2488	5	185	0
74	0	0	3066	5	185	0
75	0	0	3466	5	184	0
76	0	0	3663	5	185	0
77	0	0	3883	5	184	0
78	0	0	3680	4	183	0
79	0	0	3264	4	184	0
80	0	0	2890	4	184	0
81	0	0	2552	4	184	0
82	0	0	2265	4	183	0
83	0	0	2108	4	182	0
84	0	0	1751	4	184	0
85	0	0	1518	4	183	0
86	0	0	1491	4	184	0
87	0	0	1513	4	184	0
88	0	0	1586	4	183	0
89	0	0	1732	5	184	0
90	0	0	1966	4	183	0
91	0	0	2273	5	185	0
92	0	0	2356	4	184	0
93	0	0	2465	5	184	0
94	0	0	3048	5	185	0
95	0	0	3448	7	185	0
96	0	0	3644	4	184	0
97	0	0	3864	5	183	0
98	0	0	3655	4	183	0
99	0	0	3246	4	184	0
100	0	0	2878	4	184	0
101	0	0	2544	4	183	0
102	0	0	2268	4	183	0
103	0	0	2097	4	184	0
104	0	0	1732	4	183	0
105	0	0	1501	4	182	0
106	0	0	1486	4	184	0
107	0	0	1508	5	183	0
108	0	0	1568	5	184	0
109	0	0	1728	5	184	0
110	0	0	1969	5	185	0
111	0	0	2279	5	184	0
112	0	0	2363	4	186	0
113	0	0	2468	5	184	0
114	0	0	3046	5	185	0
115	0	0	3447	5	184	0
116	0	0	3646	5	184	0
117	0	0	3848	5	185	0
118	0	0	3635	4	185	0
119	0	0	3228	4	184	0
120	0	0	2875	4	183	0
121	0	0	2547	3	183	0
122	0	0	2280	4	183	0
123	0	0	2105	4	183	0
124	0	0	1738	4	184	0
125	0	0	1506	4	183	0
126	0	0	1488	4	184	0
127	0	0	1511	5	183	0
0	0	0	1570	4	184	0
1	0	0	1723	5	183	0
2	0	0	1965	5	184	0
3	0	0	2272	4	185	0
4	0	0	2349	4	184	0
5	0	0	2464	5	185	0
6	0	0	3038	5	185	0
7	0	0	3424	5	185	0
8	0	0	3615	5	185	0
9	0	0	3817	5	184	0
10	0	0	3604	4	183	0
11	0	0	3202	4	185	0
12	0	0	2848	4	184	0
13	0	0	2518	3	184	0
14	0	0	2256	4	184	0
15	0	0	2077	4	183	0
16	0	0	1713	4	184	0
17	0	0	1491	4	184	0
18	0	0	1464	4	183	0
19	0	0	1489	5	184	0
20	0	0	1549	5	183	0
21	0	0	1705	5	184	0
22	0	0	1939	5	184	0
23	0	0	2240	5	185	0
24	0	0	2318	4	185	0
25	0	0	2431	5	184	0
26	0	0	2997	5	185	0
27	0	0	3391	5	184	0
28	0	0	3595	5	185	0
29	0	0	3799	5	183	0
30	0	0	3587	4	183	0
31	0	0	3187	4	184	0
32	0	0	2837	4	184	0
33	0	0	2507	4	184	0
34	0	0	2240	4	183	0
35	0	0	2061	4	182	0
36	0	0	1706	4	184	0
37	0	0	1487	4	184	0
38	0	0	1466	4	184	0
39	0	0	1486	5	184	0
40	0	0	1543	5	184	0
41	0	0	1706	5	184	0
42	0	0	1941	5	184	0
43	0	0	2241	5	185	0
44	0	0	2314	4	185	0
45	0	0	2443	5	185	0
46	0	0	3008	5	185	0
47	0	0	3397	5	184	0
48	0	0	3604	5	185	0
49	0	0	3798	4	185	0
50	0	0	3570	4	184	0
51	0	0	3169	4	184	0
52	0	0	2817	4	184	0
53	0	0	2503	3	185	0
54	0	0	2244	4	184	0
55	0	0	2065	4	183	0
56	0	0	1708	4	183	0
57	0	0	1487	4	183	0
58	0	0	1459	4	183	0
59	0	0	1488	5	184	0
60	0	0	1550	5	184	0
61	0	0	1694	5	184	0
62	0	0	1923	5	184	0
63	0	0	2214	3	186	0
64	0	0	2277	4	184	0
65	0	0	2424	5	185	0
66	0	0	3000	5	184	0
67	0	0	3386	5	186	0
68	0	0	3587	5	186	0
69	0	0	3784	5	184	0
70	0	0	3564	4	184	0
71	0	0	3149	4	184	0
72	0	0	2791	4	185	0
73	0	0	2469	4	184	0
74	0	0	2196	4	184	0
75	0	0	2031	4	184	0
76	0	0	1689	4	183	0
77	0	0	1471	4	183	0
78	0	0	1438	4	184	0
79	0	0	1468	5	183	0
80	0	0	1530	5	183	0
81	0	0	1696	4	184	0
82	0	0	1931	5	183	0
83	0	0	2224	4	185	0
84	0	0	2291	4	185	0
85	0	0	2421	5	184	0
86	0	0	2988	5	184	0
87	0	0	3369	5	185	0
88	0	0	3573	4	185	0
89	0	0	3765	5	184	0
90	0	0	3541	3	185	0
91	0	0	3146	4	183	0
92	0	0	2798	4	185	0
93	0	0	2479	3	183	0
94	0	0	2225	4	182	0
95	0	0	2035	4	184	0
96	0	0	1673	4	184	0
97	0	0	1457	4	183	0
98	0	0	1438	3	184	0
99	0	0	1461	5	183	0
100	0	0	1512	5	184	0
101	0	0	1670	5	184	0
102	0	0	1903	5	185	0
103	0	0	2204	5	184	0
104	0	0	2263	4	186	0
105	0	0	2405	5	185	0
106	0	0	2984	5	186	0
107	0	0	3361	5	184	0
108	0	0	3572	5	185	0
109	0	0	3759	4	185	0
110	0	0	3519	4	185	0
111	0	0	3112	4	184	0
112	0	0	2762	4	184	0
113	0	0	2445	4	184	0
114	0	0	2194	4	183	0
115	0	0	2010	4	184	0
116	0	0	1651	4	183	0
117	0	0	1436	4	182	0
118	0	0	1410	3	184	0
119	0	0	1448	5	184	0
120	0	0	1511	5	184	0
121	0	0	1676	5	184	0
122	0	0	1919	5	185	0
123	0	0	2219	5	185	0
124	0	0	2277	5	185	0
125	0	0	2421	5	184	0
126	0	0	2986	5	185	0
127	0	0	3353	5	184	0
0	0	0	3558	5	185	0
1	0	0	3751	4	184	0
2	0	0	3513	4	184	0
3	0	0	3114	4	184	0
4	0	0	2765	4	184	0
5	0	0	2447	4	184	0
6	0	0	2199	4	184	0
7	0	0	2006	4	184	0
8	0	0	1644	4	184	0
9	0	0	1436	4	184	0
10	0	0	1418	4	183	0
11	0	0	1446	5	184	0
12	0	0	1501	5	184	0
13	0	0	1658	5	183	0
14	0	0	1902	5	183	0
15	0	0	2210	5	185	0
16	0	0	2272	4	184	0
17	0	0	2424	5	185	0
18	0	0	2993	5	184	0
19	0	0	3364	5	184	0
20	0	0	3559	5	186	0
21	0	0	3739	5	184	0
22	0	0	3496	4	185	0
23	0	0	3094	4	184	0
24	0	0	2738	5	184	0
25	0	0	2416	4	184	0
26	0	0	2164	4	183	0
27	0	0	1978	4	184	0
28	0	0	1623	4	184	0
29	0	0	1415	4	183	0
30	0	0	1387	4	183	0
31	0	0	1417	5	184	0
32	0	0	1478	5	184	0
33	0	0	1648	5	184	0
34	0	0	1897	5	184	0
35	0	0	2203	5	185	0
36	0	0	2251	4	184	0
37	0	0	2409	5	185	0
38	0	0	2975	5	184	0
39	0	0	3344	5	185	0
40	0	0	3546	6	185	0
41	0	0	3733	4	184	0
42	0	0	3488	4	184	0
43	0	0	3076	3	184	0
44	0	0	2724	4	184	0
45	0	0	2398	4	184	0
46	0	0	2151	4	184	0
47	0	0	1958	4	184	0
48	0	0	1599	4	184	0
49	0	0	1394	4	183	0
50	0	0	1374	4	183	0
51	0	0	1413	5	184	0
52	0	0	1481	5	184	0
53	0	0	1646	5	184	0
54	0	0	1882	5	184	0
55	0	0	2186	5	184	0
56	0	0	2225	4	185	0
57	0	0	2400	5	185	0
58	0	0	2976	5	185	0
59	0	0	3343	5	183	0
60	0	0	3553	5	185	0
61	0	0	3731	5	184	0
62	0	0	3482	4	184	0
63	0	0	3056	4	184	0
64	0	0	2698	4	183	0
65	0	0	2376	4	183	0
66	0	0	2119	4	183	0
67	0	0	1929	4	184	0
68	0	0	1577	4	185	0
69	0	0	1382	4	184	0
70	0	0	1373	4	183	0
71	0	0	1410	5	184	0
72	0	0	1473	5	183	0
73	0	0	1639	5	184	0
74	0	0	1881	5	185	0
75	0	0	2188	5	184	0
76	0	0	2220	4	185	0
77	0	0	2406	5	184	0
78	0	0	2969	5	185	0
79	0	0	3337	5	184	0
80	0	0	3547	6	185	0
81	0	0	3714	4	184	0
82	0	0	3465	4	184	0
83	0	0	3055	4	184	0
84	0	0	2700	4	183	0
85	0	0	2378	3	183	0
86	0	0	2129	4	184	0
87	0	0	1927	4	183	0
88	0	0	1570	4	184	0
89	0	0	1375	4	184	0
90	0	0	1364	4	184	0
91	0	0	1406	4	184	0
92	0	0	1471	5	184	0
93	0	0	1646	5	184	0
94	0	0	1895	4	184	0
95	0	0	2196	5	184	0
96	0	0	2231	4	185	0
97	0	0	2417	5	185	0
98	0	0	2978	5	186	0
99	0	0	3334	5	184	0
100	0	0	3535	5	184	0
101	0	0	3694	4	184	0
102	0	0	3443	4	184	0
103	0	0	3036	4	183	0
104	0	0	2683	4	184	0
105	0	0	2365	4	183	0
106	0	0	2122	4	183	0
107	0	0	1916	4	184	0
108	0	0	1555	4	183	0
109	0	0	1357	4	183	0
110	0	0	1348	4	185	0
111	0	0	1390	4	184	0
112	0	0	1456	5	184	0
113	0	0	1629	5	185	0
114	0	0	1874	5	186	0
115	0	0	2175	5	184	0
116	0	0	2212	4	184	0
117	0	0	2407	5	183	0
118	0	0	2962	5	184	0
119	0	0	3320	5	184	0
120	0	0	3525	5	184	0
121	0	0	3675	3	183	0
122	0	0	3413	4	184	0
123	0	0	3000	4	183	0
124	0	0	2644	4	185	0
125	0	0	2327	4	183	0
126	0	0	2080	4	183	0
127	0	0	1884	4	184	0
0	0	0	1542	4	183	0
1	0	0	1352	4	183	0
2	0	0	1334	4	183	0
3	0	0	1378	5	183	0
4	0	0	1443	5	183	0
5	0	0	1621	5	186	0
6	0	0	1877	5	184	0
7	0	0	2186	5	184	0
8	0	0	2218	4	184	0
9	0	0	2416	5	184	0
10	0	0	2974	5	185	0
11	0	0	3320	5	183	0
12	0	0	3521	5	184	0
13	0	0	3664	4	184	0
14	0	0	3407	4	184	0
15	0	0	3007	4	184	0
16	0	0	2656	4	185	0
17	0	0	2334	3	185	0
18	0	0	2101	4	185	0
19	0	0	1890	4	183	0
20	0	0	1538	4	184	0
21	0	0	1352	5	184	0
22	0	0	1326	4	183	0
23	0	0	1376	5	183	0
24	0	0	1441	4	184	0
25	0	0	1617	5	185	0
26	0	0	1868	6	184	0
27	0	0	2182	5	184	0
28	0	0	2208	4	184	0
29	0	0	2404	5	184	0
30	0	0	2963	5	184	0
31	0	0	3312	5	187	0
32	0	0	3521	6	185	0
33	0	0	3662	4	184	0
34	0	0	3402	4	184	0
35	0	0	2993	3	184	0
36	0	0	2636	4	183	0
37	0	0	2315	4	183	0
38	0	0	2068	4	184	0
39	0	0	1872	4	183	0
40	0	0	1532	4	183	0
41	0	0	1346	4	184	0
42	0	0	1333	5	184	0
43	0	0	1383	5	185	0
44	0	0	1446	5	184	0
45	0	0	1607	5	184	0
46	0	0	1851	5	185	0
47	0	0	2157	5	184	0
48	0	0	2163	4	186	0
49	0	0	2381	5	185	0
50	0	0	2953	5	184	0
51	0	0	3304	5	184	0
52	0	0	3515	6	185	0
53	0	0	3653	4	184	0
54	0	0	3391	4	184	0
55	0	0	2989	4	184	0
56	0	0	2632	2	184	0
57	0	0	2308	4	183	0
58	0	0	2075	4	184	0
59	0	0	1866	4	183	0
60	0	0	1519	4	183	0
61	0	0	1341	4	184	0
62	0	0	1319	2	183	0
63	0	0	1366	4	184	0
64	0	0	1430	5	184	0
65	0	0	1600	5	183	0
66	0	0	1846	5	184	0
67	0	0	2152	4	184	0
68	0	0	2155	4	185	0
69	0	0	2366	5	184	0
70	0	0	2932	6	184	0
71	0	0	3280	5	184	0
72	0	0	3490	4	185	0
73	0	0	3627	3	184	0
74	0	0	3368	4	184	0
75	0	0	2963	4	185	0
76	0	0	2621	4	184	0
77	0	0	2302	4	184	0
78	0	0	2068	4	184	0
79	0	0	1856	3	183	0
80	0	0	1491	4	183	0
81	0	0	1267	4	183	0
82	0	0	1271	5	184	0
83	0	0	1377	4	184	0
84	0	0	1459	5	185	0
85	0	0	1653	5	185	0
86	0	0	1923	5	185	0
87	0	0	2259	6	184	0
88	0	0	2313	4	185	0
89	0	0	2516	5	184	0
90	0	0	3001	5	183	0
91	0	0	3273	5	185	0
92	0	0	3425	6	184	0
93	0	0	3501	4	185	0
94	0	0	3244	4	184	0
95	0	0	2885	4	184	0
96	0	0	2604	4	184	0
97	0	0	2348	4	184	0
98	0	0	2187	4	184	0
99	0	0	2054	4	184	0
100	0	0	1828	4	183	0
101	0	0	1744	5	183	0
102	0	0	1760	3	184	0
103	0	0	1797	5	183	0
104	0	0	1812	5	183	0
105	0	0	1874	5	184	0
106	0	0	1973	5	183	0
107	0	0	2120	5	185	0
108	0	0	2059	4	185	0
109	0	0	2170	5	184	0
110	0	0	2537	5	185	0
111	0	0	2768	5	184	0
112	0	0	2943	5	185	0
113	0	0	3086	5	184	0
114	0	0	2962	4	184	0
115	0	0	2734	4	184	0
116	0	0	2544	4	184	0
117	0	0	2369	4	184	0
118	0	0	2244	4	183	0
119	0	0	2102	3	183	0
120	0	0	1838	4	183	0
121	0	0	1690	4	184	0
122	0	0	1645	4	183	0
123	0	0	1650	5	185	0
124	0	0	1668	5	184	0
125	0	0	1778	5	183	0
126	0	0	1942	5	183	0
127	0	0	2153	5	184	0
0	0	0	2107	4	185	0
1	0	0	2250	5	185	0
2	0	0	2655	5	184	0
3	0	0	2880	4	183	0
4	0	0	3043	5	184	0
5	0	0	3170	4	184	0
6	0	0	2988	4	184	0
7	0	0	2730	5	183	0
8	0	0	2515	4	184	0
9	0	0	2325	5	184	0
10	0	0	2207	4	184	0
11	0	0	2065	4	184	0
12	0	0	1782	4	184	0
13	0	0	1642	4	183	0
14	0	0	1618	5	183	0
15	0	0	1647	5	182	0
16	0	0	1679	5	184	0
17	0	0	1805	5	184	0
18	0	0	1994	5	184	0
19	0	0	2224	5	183	0
20	0	0	2156	4	185	0
21	0	0	2323	5	185	0
22	0	0	2796	5	185	0
23	0	0	3056	5	184	0
24	0	0	3243	5	185	0
25	0	0	3366	4	184	0
26	0	0	3155	4	183	0
27	0	0	2831	4	184	0
28	0	0	2553	3	183	0
29	0	0	2289	4	184	0
30	0	0	2097	4	184	0
31	0	0	1894	4	183	0
32	0	0	1542	4	183	0
33	0	0	1344	4	183	0
34	0	0	1299	4	184	0
35	0	0	1327	5	184	0
36	0	0	1367	5	184	0
37	0	0	1530	5	184	0
38	0	0	1778	5	184	0
39	0	0	2091	5	184	0
40	0	0	2087	4	186	0
41	0	0	2344	5	185	0
42	0	0	2925	5	184	0
43	0	0	3274	6	184	0
44	0	0	3507	5	185	0
45	0	0	3661	4	185	0
46	0	0	3392	4	185	0
47	0	0	2975	4	184	0
48	0	0	2608	4	183	0
49	0	0	2267	4	184	0
50	0	0	2022	4	183	0
51	0	0	1787	4	184	0
52	0	0	1427	4	183	0
53	0	0	1240	4	184	0
54	0	0	1231	4	183	0
55	0	0	1305	4	183	0
56	0	0	1390	5	183	0
57	0	0	1584	5	184	0
58	0	0	1861	5	183	0
59	0	0	2191	5	184	0
60	0	0	2187	4	184	0
61	0	0	2436	5	185	0
62	0	0	2998	5	185	0
63	0	0	3340	5	186	0
64	0	0	3543	5	185	0
65	0	0	3644	4	184	0
66	0	0	3352	4	185	0
67	0	0	2939	4	184	0
68	0	0	2579	4	182	0
69	0	0	2251	4	184	0
70	0	0	2013	4	183	0
71	0	0	1755	3	183	0
72	0	0	1371	3	182	0
73	0	0	1189	4	184	0
74	0	0	1176	4	183	0
75	0	0	1249	4	184	0
76	0	0	1310	5	183	0
77	0	0	1495	4	183	0
78	0	0	1772	5	184	0
79	0	0	2100	5	184	0
80	0	0	2105	4	185	0
81	0	0	2384	5	185	0
82	0	0	2971	5	184	0
83	0	0	3310	5	184	0
84	0	0	3533	5	184	0
85	0	0	3643	4	184	0
86	0	0	3363	4	184	0
87	0	0	2950	4	184	0
88	0	0	2595	4	183	0
89	0	0	2268	4	183	0
90	0	0	2031	4	184	0
91	0	0	1787	3	184	0
92	0	0	1421	4	183	0
93	0	0	1244	5	183	0
94	0	0	1217	5	184	0
95	0	0	1282	5	184	0
96	0	0	1353	5	184	0
97	0	0	1538	5	184	0
98	0	0	1803	5	184	0
99	0	0	2123	5	184	0
100	0	0	2106	4	186	0
101	0	0	2374	5	185	0
102	0	0	2954	5	185	0
103	0	0	3292	5	183	0
104	0	0	3527	5	184	0
105	0	0	3635	4	184	0
106	0	0	3340	4	184	0
107	0	0	2925	3	185	0
108	0	0	2555	5	183	0
109	0	0	2220	4	183	0
110	0	0	1975	4	184	0
111	0	0	1726	4	183	0
112	0	0	1360	3	182	0
113	0	0	1186	4	182	0
114	0	0	1166	5	183	0
115	0	0	1232	5	184	0
116	0	0	1302	5	184	0
117	0	0	1489	5	184	0
118	0	0	1759	5	184	0
119	0	0	2075	5	184	0
120	0	0	2051	4	184	0
121	0	0	2340	5	185	0
122	0	0	2925	5	185	0
123	0	0	3259	5	185	0
124	0	0	3489	5	184	0
125	0	0	3589	5	184	0
126	0	0	3300	4	184	0
127	0	0	2877	4	183	0
0	0	0	2514	4	184	0
1	0	0	2182	4	183	0
2	0	0	1955	4	183	0
3	0	0	1735	4	184	0
4	0	0	1390	4	183	0
5	0	0	1229	4	182	0
6	0	0	1217	5	183	0
7	0	0	1293	5	184	0
8	0	0	1369	4	183	0
9	0	0	1545	5	184	0
10	0	0	1802	5	184	0
11	0	0	2106	5	185	0
12	0	0	2079	4	185	0
13	0	0	2362	5	185	0
14	0	0	2936	5	184	0
15	0	0	3265	6	184	0
16	0	0	3503	5	184	0
17	0	0	3573	4	186	0
18	0	0	3282	4	184	0
19	0	0	2874	4	184	0
20	0	0	2503	4	184	0
21	0	0	2172	3	183	0
22	0	0	1956	4	183	0
23	0	0	1739	4	184	0
24	0	0	1380	4	183	0
25	0	0	1228	4	184	0
26	0	0	1221	4	182	0
27	0	0	1301	4	184	0
28	0	0	1370	5	183	0
29	0	0	1558	4	183	0
30	0	0	1829	5	185	0
31	0	0	2156	5	184	0
32	0	0	2105	3	184	0
33	0	0	2373	5	184	0
34	0	0	2903	5	184	0
35	0	0	3223	5	184	0
36	0	0	3450	6	184	0
37	0	0	3519	4	184	0
38	0	0	3226	4	185	0
39	0	0	2829	4	183	0
40	0	0	2471	4	184	0
41	0	0	2142	5	184	0
42	0	0	1943	4	183	0
43	0	0	1724	4	184	0
44	0	0	1388	4	184	0
45	0	0	1226	4	183	0
46	0	0	1225	4	184	0
47	0	0	1292	5	183	0
48	0	0	1372	5	184	0
49	0	0	1548	5	184	0
50	0	0	1818	5	184	0
51	0	0	2139	5	185	0
52	0	0	2076	4	184	0
53	0	0	2340	5	185	0
54	0	0	2862	4	184	0
55	0	0	3177	6	184	0
56	0	0	3396	5	183	0
57	0	0	3464	5	185	0
58	0	0	3180	4	183	0
59	0	0	2791	4	183	0
60	0	0	2435	4	184	0
61	0	0	2115	4	184	0
62	0	0	1934	4	184	0
63	0	0	1710	4	183	0
64	0	0	1382	4	183	0
65	0	0	1228	4	184	0
66	0	0	1229	5	183	0
67	0	0	1301	4	184	0
68	0	0	1383	5	184	0
69	0	0	1556	5	184	0
70	0	0	1821	5	183	0
71	0	0	2128	5	184	0
72	0	0	2049	5	184	0
73	0	0	2320	5	185	0
74	0	0	2829	5	185	0
75	0	0	3130	5	185	0
76	0	0	3348	5	184	0
77	0	0	3402	4	183	0
78	0	0	3130	4	184	0
79	0	0	2776	4	183	0
80	0	0	2442	4	184	0
81	0	0	2146	4	183	0
82	0	0	1980	5	183	0
83	0	0	1758	4	184	0
84	0	0	1439	3	184	0
85	0	0	1292	4	183	0
86	0	0	1271	5	184	0
87	0	0	1337	5	184	0
88	0	0	1405	5	183	0
89	0	0	1555	5	183	0
90	0	0	1812	5	184	0
91	0	0	2114	5	184	0
92	0	0	2025	4	185	0
93	0	0	2301	5	185	0
94	0	0	2807	5	184	0
95	0	0	3097	5	184	0
96	0	0	3315	5	183	0
97	0	0	3381	5	184	0
98	0	0	3116	4	185	0
99	0	0	2778	3	184	0
100	0	0	2455	5	183	0
101	0	0	2167	4	184	0
102	0	0	2021	4	183	0
103	0	0	1816	4	184	0
104	0	0	1510	4	183	0
105	0	0	1370	5	183	0
106	0	0	1351	4	183	0
107	0	0	1412	4	184	0
108	0	0	1469	5	184	0
109	0	0	1601	4	184	0
110	0	0	1845	5	184	0
111	0	0	2120	5	184	0
112	0	0	2000	4	184	0
113	0	0	2269	5	184	0
114	0	0	2764	5	184	0
115	0	0	3047	5	185	0
116	0	0	3270	5	183	0
117	0	0	3348	4	184	0
118	0	0	3085	4	184	0
119	0	0	2756	4	183	0
120	0	0	2446	5	184	0
121	0	0	2162	3	182	0
122	0	0	2019	4	184	0
123	0	0	1813	4	183	0
124	0	0	1505	2	184	0
125	0	0	1366	4	184	0
126	0	0	1342	4	182	0
127	0	0	1393	4	184	0
0	0	0	1439	4	184	0
1	0	0	1557	5	184	0
2	0	0	1792	5	183	0
3	0	0	2068	5	184	0
4	0	0	1943	4	184	0
5	0	0	2207	5	185	0
6	0	0	2703	5	184	0
7	0	0	2983	6	184	0
8	0	0	3204	5	184	0
9	0	0	3283	4	183	0
10	0	0	3037	4	184	0
11	0	0	2723	4	185	0
12	0	0	2424	4	183	0
13	0	0	2156	4	184	0
14	0	0	2022	4	184	0
15	0	0	1824	4	183	0
16	0	0	1523	4	184	0
17	0	0	1384	4	184	0
18	0	0	1356	4	183	0
19	0	0	1395	4	184	0
20	0	0	1440	5	184	0
21	0	0	1565	4	184	0
22	0	0	1784	5	183	0
23	0	0	2054	5	182	0
24	0	0	1923	4	185	0
25	0	0	2176	5	184	0
26	0	0	2670	5	184	0
27	0	0	2956	5	185	0
28	0	0	3189	5	185	0
29	0	0	3297	4	184	0
30	0	0	3073	4	183	0
31	0	0	2771	3	183	0
32	0	0	2484	4	183	0
33	0	0	2216	4	183	0
34	0	0	2089	4	184	0
35	0	0	1882	4	183	0
36	0	0	1570	4	185	0
37	0	0	1424	4	183	0
38	0	0	1387	4	184	0
39	0	0	1421	4	184	0
40	0	0	1444	4	185	0
41	0	0	1561	5	185	0
42	0	0	1780	5	184	0
43	0	0	2048	5	184	0
44	0	0	1910	4	185	0
45	0	0	2166	5	184	0
46	0	0	2664	5	184	0
47	0	0	2958	5	184	0
48	0	0	3206	5	184	0
49	0	0	3318	3	185	0
50	0	0	3106	4	185	0
51	0	0	2808	4	183	0
52	0	0	2527	4	183	0
53	0	0	2266	4	184	0
54	0	0	2138	3	183	0
55	0	0	1935	4	183	0
56	0	0	1622	4	183	0
57	0	0	1460	3	183	0
58	0	0	1408	4	184	0
59	0	0	1420	5	184	0
60	0	0	1415	5	184	0
61	0	0	1516	5	185	0
62	0	0	1717	4	184	0
63	0	0	1982	5	185	0
64	0	0	1832	3	185	0
65	0	0	2085	5	185	0
66	0	0	2602	5	184	0
67	0	0	2909	5	184	0
68	0	0	3184	5	184	0
69	0	0	3335	4	182	0
70	0	0	3144	4	183	0
71	0	0	2844	4	184	0
72	0	0	2561	3	183	0
73	0	0	2291	4	184	0
74	0	0	2161	3	183	0
75	0	0	1960	4	184	0
76	0	0	1637	4	183	0
77	0	0	1461	3	184	0
78	0	0	1391	5	183	0
79	0	0	1398	4	184	0
80	0	0	1383	5	184	0
81	0	0	1474	5	183	0
82	0	0	1666	5	185	0
83	0	0	1913	5	184	0
84	0	0	1746	3	183	0
85	0	0	2011	5	185	0
86	0	0	2543	5	184	0
87	0	0	2877	5	186	0
88	0	0	3163	5	185	0
89	0	0	3324	4	183	0
90	0	0	3160	4	184	0
91	0	0	2869	4	183	0
92	0	0	2595	4	183	0
93	0	0	2339	4	183	0
94	0	0	2215	4	184	0
95	0	0	2007	4	184	0
96	0	0	1664	4	184	0
97	0	0	1470	4	184	0
98	0	0	1387	5	183	0
99	0	0	1363	3	183	0
100	0	0	1318	5	184	0
101	0	0	1404	5	185	0
102	0	0	1593	5	185	0
103	0	0	1841	5	184	0
104	0	0	1666	4	184	0
105	0	0	1924	5	184	0
106	0	0	2479	5	184	0
107	0	0	2834	5	184	0
108	0	0	3147	5	184	0
109	0	0	3345	5	184	0
110	0	0	3209	4	184	0
111	0	0	2929	4	184	0
112	0	0	2668	4	183	0
113	0	0	2414	4	183	0
114	0	0	2300	4	183	0
115	0	0	2086	4	184	0
116	0	0	1723	4	184	0
117	0	0	1524	4	184	0
118	0	0	1434	4	183	0
119	0	0	1402	3	183	0
120	0	0	1349	4	184	0
121	0	0	1428	5	185	0
122	0	0	1607	5	184	0
123	0	0	1857	5	184	0
124	0	0	1672	3	183	0
125	0	0	1926	4	184	0
126	0	0	2489	5	185	0
127	0	0	2850	5	183	0
0	0	0	3175	5	185	0
1	0	0	3384	5	184	0
2	0	0	3258	4	183	0
3	0	0	2975	4	184	0
4	0	0	2717	4	184	0
5	0	0	2460	4	184	0
6	0	0	2345	3	184	0
7	0	0	2119	4	183	0
8	0	0	1742	4	183	0
9	0	0	1513	4	183	0
10	0	0	1417	4	182	0
11	0	0	1362	3	183	0
12	0	0	1293	4	183	0
13	0	0	1374	5	184	0
14	0	0	1552	5	185	0
15	0	0	1801	5	185	0
16	0	0	1611	4	184	0
17	0	0	1875	5	185	0
18	0	0	2448	5	184	0
19	0	0	2806	4	183	0
20	0	0	3132	5	184	0
21	0	0	3344	5	184	0
22	0	0	3206	4	184	0
23	0	0	2909	4	184	0
24	0	0	2643	4	183	0
25	0	0	2372	4	184	0
26	0	0	2254	3	182	0
27	0	0	2035	4	183	0
28	0	0	1665	4	184	0
29	0	0	1461	4	182	0
30	0	0	1362	4	184	0
31	0	0	1323	3	183	0
32	0	0	1264	4	184	0
33	0	0	1356	5	185	0
34	0	0	1537	5	184	0
35	0	0	1796	4	185	0
36	0	0	1609	4	185	0
37	0	0	1882	5	184	0
38	0	0	2456	5	184	0
39	0	0	2809	5	185	0
40	0	0	3143	5	184	0
41	0	0	3343	5	184	0
42	0	0	3205	4	184	0
43	0	0	2910	4	184	0
44	0	0	2640	4	183	0
45	0	0	2372	4	184	0
46	0	0	2258	4	183	0
47	0	0	2024	4	184	0
48	0	0	1656	4	183	0
49	0	0	1459	4	184	0
50	0	0	1379	3	183	0
51	0	0	1345	3	183	0
52	0	0	1283	4	185	0
53	0	0	1371	4	184	0
54	0	0	1554	5	185	0
55	0	0	1806	4	185	0
56	0	0	1624	3	184	0
57	0	0	1935	5	184	0
58	0	0	2514	6	185	0
59	0	0	2862	5	184	0
60	0	0	3174	5	186	0
61	0	0	3352	4	184	0
62	0	0	3192	4	184	0
63	0	0	2874	4	184	0
64	0	0	2596	4	184	0
65	0	0	2320	4	184	0
66	0	0	2201	4	183	0
67	0	0	1978	4	183	0
68	0	0	1622	4	184	0
69	0	0	1436	4	184	0
70	0	0	1360	4	183	0
71	0	0	1348	4	183	0
72	0	0	1299	4	183	0
73	0	0	1404	5	184	0
74	0	0	1596	5	184	0
75	0	0	1851	5	184	0
76	0	0	1665	4	184	0
77	0	0	1983	5	185	0
78	0	0	2552	5	184	0
79	0	0	2893	5	184	0
80	0	0	3197	5	184	0
81	0	0	3361	4	184	0
82	0	0	3191	4	183	0
83	0	0	2881	5	183	0
84	0	0	2611	4	183	0
85	0	0	2339	4	185	0
86	0	0	2232	4	184	0
87	0	0	1979	3	182	0
88	0	0	1604	4	184	0
89	0	0	1424	4	184	0
90	0	0	1349	4	184	0
91	0	0	1332	4	183	0
92	0	0	1304	5	185	0
93	0	0	1417	5	184	0
94	0	0	1615	5	184	0
95	0	0	1885	5	184	0
96	0	0	1700	4	184	0
97	0	0	2011	5	185	0
98	0	0	2565	5	185	0
99	0	0	2883	5	184	0
100	0	0	3183	5	185	0
101	0	0	3319	5	184	0
102	0	0	3127	5	183	0
103	0	0	2810	4	184	0
104	0	0	2528	3	185	0
105	0	0	2249	4	183	0
106	0	0	2131	4	183	0
107	0	0	1884	4	184	0
108	0	0	1529	4	183	0
109	0	0	1356	4	183	0
110	0	0	1275	4	181	0
111	0	0	1268	4	183	0
112	0	0	1250	5	184	0
113	0	0	1370	5	184	0
114	0	0	1587	5	184	0
115	0	0	1864	5	185	0
116	0	0	1680	4	183	0
117	0	0	2011	5	184	0
118	0	0	2552	5	184	0
119	0	0	2870	5	184	0
120	0	0	3159	5	185	0
121	0	0	3300	5	184	0
122	0	0	3116	4	183	0
123	0	0	2812	4	184	0
124	0	0	2525	4	184	0
125	0	0	2248	4	185	0
126	0	0	2146	4	184	0
127	0	0	1882	4	184	0
0	0	0	1523	4	183	0
1	0	0	1366	4	184	0
2	0	0	1311	4	183	0
3	0	0	1317	4	184	0
4	0	0	1307	4	184	0
5	0	0	1429	5	183	0
6	0	0	1646	5	184	0
7	0	0	1920	5	184	0
8	0	0	1736	4	184	0
9	0	0	2080	5	184	0
10	0	0	2635	4	184	0
11	0	0	2943	5	184	0
12	0	0	3235	5	185	0
13	0	0	3349	5	185	0
14	0	0	3134	4	183	0
15	0	0	2815	4	183	0
16	0	0	2521	4	184	0
17	0	0	2238	4	184	0
18	0	0	2127	4	183	0
19	0	0	1870	4	185	0
20	0	0	1518	4	183	0
21	0	0	1364	3	182	0
22	0	0	1292	4	183	0
23	0	0	1298	4	184	0
24	0	0	1303	4	184	0
25	0	0	1427	5	184	0
26	0	0	1655	4	184	0
27	0	0	1937	5	185	0
28	0	0	1759	4	184	0
29	0	0	2108	5	184	0
30	0	0	2659	4	185	0
31	0	0	2958	5	185	0
32	0	0	3244	5	185	0
33	0	0	3372	5	184	0
34	0	0	3144	4	183	0
35	0	0	2823	4	183	0
36	0	0	2516	4	184	0
37	0	0	2222	4	184	0
38	0	0	2108	4	183	0
39	0	0	1837	4	182	0
40	0	0	1469	4	183	0
41	0	0	1319	5	183	0
42	0	0	1261	4	184	0
43	0	0	1276	4	184	0
44	0	0	1280	4	184	0
45	0	0	1409	5	185	0
46	0	0	1648	6	183	0
47	0	0	1937	5	184	0
48	0	0	1750	4	185	0
49	0	0	2122	5	185	0
50	0	0	2695	5	184	0
51	0	0	2994	5	184	0
52	0	0	3290	5	185	0
53	0	0	3398	4	183	0
54	0	0	3146	4	183	0
55	0	0	2808	3	184	0
56	0	0	2490	4	184	0
57	0	0	2175	4	183	0
58	0	0	2049	4	184	0
59	0	0	1781	4	183	0
60	0	0	1414	4	183	0
61	0	0	1263	3	183	0
62	0	0	1196	4	184	0
63	0	0	1213	4	184	0
64	0	0	1234	5	183	0
65	0	0	1362	5	184	0
66	0	0	1613	5	183	0
67	0	0	1920	5	184	0
68	0	0	1743	4	185	0
69	0	0	2118	5	185	0
70	0	0	2691	4	184	0
71	0	0	2987	5	185	0
72	0	0	3287	5	185	0
73	0	0	3399	4	184	0
74	0	0	3140	4	184	0
75	0	0	2813	4	184	0
76	0	0	2494	4	183	0
77	0	0	2182	4	184	0
78	0	0	2064	4	183	0
79	0	0	1775	4	183	0
80	0	0	1394	4	183	0
81	0	0	1255	3	183	0
82	0	0	1201	4	183	0
83	0	0	1214	4	184	0
84	0	0	1242	5	184	0
85	0	0	1382	5	184	0
86	0	0	1642	4	184	0
87	0	0	1957	5	184	0
88	0	0	1784	4	185	0
89	0	0	2182	5	184	0
90	0	0	2773	5	183	0
91	0	0	3082	4	184	0
92	0	0	3379	5	183	0
93	0	0	3470	4	185	0
94	0	0	3198	4	184	0
95	0	0	2856	4	185	0
96	0	0	2523	5	184	0
97	0	0	2208	4	184	0
98	0	0	2080	4	183	0
99	0	0	1790	4	184	0
100	0	0	1408	4	183	0
101	0	0	1263	5	184	0
102	0	0	1201	4	184	0
103	0	0	1218	4	183	0
104	0	0	1243	5	185	0
105	0	0	1386	5	184	0
106	0	0	1645	5	183	0
107	0	0	1966	5	183	0
108	0	0	1782	5	185	0
109	0	0	2179	5	184	0
110	0	0	2768	5	184	0
111	0	0	3072	5	185	0
112	0	0	3377	5	184	0
113	0	0	3475	4	184	0
114	0	0	3197	4	183	0
115	0	0	2841	4	184	0
116	0	0	2507	4	185	0
117	0	0	2171	4	183	0
118	0	0	2046	4	183	0
119	0	0	1738	4	183	0
120	0	0	1347	4	185	0
121	0	0	1192	5	183	0
122	0	0	1127	4	183	0
123	0	0	1163	4	184	0
124	0	0	1198	6	184	0
125	0	0	1348	4	185	0
126	0	0	1612	4	184	0
127	0	0	1929	5	185	0
0	0	0	1753	5	185	0
1	0	0	2157	5	185	0
2	0	0	2757	5	185	0
3	0	0	3072	5	185	0
4	0	0	3383	5	184	0
5	0	0	3477	4	184	0
6	0	0	3190	4	183	0
7	0	0	2828	4	185	0
8	0	0	2485	4	184	0
9	0	0	2148	4	184	0
10	0	0	2011	4	183	0
11	0	0	1713	4	183	0
12	0	0	1327	4	184	0
13	0	0	1179	4	184	0
14	0	0	1118	4	184	0
15	0	0	1134	4	183	0
16	0	0	1166	5	184	0
17	0	0	1319	5	185	0
18	0	0	1594	5	183	0
19	0	0	1926	5	185	0
20	0	0	1752	5	185	0
21	0	0	2181	5	185	0
22	0	0	2791	5	184	0
23	0	0	3105	5	185	0
24	0	0	3424	5	185	0
25	0	0	3500	4	184	0
26	0	0	3215	4	184	0
27	0	0	2850	4	184	0
28	0	0	2502	4	185	0
29	0	0	2161	4	184	0
30	0	0	2022	4	183	0
31	0	0	1706	4	183	0
32	0	0	1323	4	183	0
33	0	0	1184	4	185	0
34	0	0	1126	4	184	0
35	0	0	1166	4	182	0
36	0	0	1200	5	184	0
37	0	0	1358	5	184	0
38	0	0	1634	5	185	0
39	0	0	1950	5	185	0
40	0	0	1772	5	184	0
41	0	0	2225	4	185	0
42	0	0	2833	5	185	0
43	0	0	3153	5	184	0
44	0	0	3470	5	184	0
45	0	0	3549	4	182	0
46	0	0	3244	4	185	0
47	0	0	2860	4	185	0
48	0	0	2501	3	183	0
49	0	0	2153	4	183	0
50	0	0	2017	4	184	0
51	0	0	1712	4	182	0
52	0	0	1328	3	183	0
53	0	0	1186	4	183	0
54	0	0	1135	4	183	0
55	0	0	1170	4	183	0
56	0	0	1199	5	184	0
57	0	0	1353	5	183	0
58	0	0	1631	5	184	0
59	0	0	1946	5	186	0
60	0	0	1756	5	185	0
61	0	0	2216	5	185	0
62	0	0	2822	5	184	0
63	0	0	3132	4	185	0
64	0	0	3451	5	186	0
65	0	0	3525	4	183	0
66	0	0	3222	4	184	0
67	0	0	2844	3	184	0
68	0	0	2485	4	184	0
69	0	0	2143	4	184	0
70	0	0	2012	4	183	0
71	0	0	1685	4	183	0
72	0	0	1291	4	185	0
73	0	0	1147	4	183	0
74	0	0	1088	4	186	0
75	0	0	1127	4	183	0
76	0	0	1167	4	183	0
77	0	0	1332	5	184	0
78	0	0	1612	5	184	0
79	0	0	1927	5	184	0
80	0	0	1743	5	185	0
81	0	0	2201	5	185	0
82	0	0	2803	5	184	0
83	0	0	3105	5	184	0
84	0	0	3421	5	184	0
85	0	0	3481	4	183	0
86	0	0	3184	4	183	0
87	0	0	2810	4	184	0
88	0	0	2454	4	183	0
89	0	0	2111	4	183	0
90	0	0	1984	4	185	0
91	0	0	1666	4	183	0
92	0	0	1278	3	183	0
93	0	0	1145	4	182	0
94	0	0	1088	4	183	0
95	0	0	1118	4	183	0
96	0	0	1159	5	185	0
97	0	0	1323	5	184	0
98	0	0	1609	5	184	0
99	0	0	1937	5	185	0
100	0	0	1746	5	185	0
101	0	0	2212	5	184	0
102	0	0	2823	5	185	0
103	0	0	3129	5	184	0
104	0	0	3450	5	185	0
105	0	0	3521	4	185	0
106	0	0	3218	4	184	0
107	0	0	2854	4	184	0
108	0	0	2498	4	184	0
109	0	0	2153	4	183	0
110	0	0	2033	4	184	0
111	0	0	1704	4	185	0
112	0	0	1312	4	183	0
113	0	0	1178	4	185	0
114	0	0	1118	4	184	0
115	0	0	1143	4	184	0
116	0	0	1189	5	184	0
117	0	0	1347	5	183	0
118	0	0	1637	5	184	0
119	0	0	1964	5	184	0
120	0	0	1773	5	184	0
121	0	0	2232	5	184	0
122	0	0	2835	5	184	0
123	0	0	3134	5	185	0
124	0	0	3464	5	185	0
125	0	0	3533	4	184	0
126	0	0	3216	4	184	0
127	0	0	2848	4	184	0
0	0	0	2492	4	184	0
1	0	0	2146	4	183	0
2	0	0	2019	4	182	0
3	0	0	1694	4	183	0
4	0	0	1305	3	182	0
5	0	0	1172	4	183	0
6	0	0	1109	4	183	0
7	0	0	1141	4	184	0
8	0	0	1180	5	183	0
9	0	0	1329	5	184	0
10	0	0	1613	5	184	0
11	0	0	1930	5	185	0
12	0	0	1738	5	186	0
13	0	0	2206	5	185	0
14	0	0	2817	5	184	0
15	0	0	3116	5	185	0
16	0	0	3436	5	184	0
17	0	0	3521	4	185	0
18	0	0	3205	4	183	0
19	0	0	2842	3	184	0
20	0	0	2481	4	185	0
21	0	0	2125	4	184	0
22	0	0	2001	4	184	0
23	0	0	1677	3	184	0
24	0	0	1285	4	183	0
25	0	0	1153	4	184	0
26	0	0	1090	4	183	0
27	0	0	1106	4	183	0
28	0	0	1151	4	183	0
29	0	0	1303	5	184	0
30	0	0	1585	5	183	0
31	0	0	1906	5	185	0
32	0	0	1718	4	183	0
33	0	0	2195	5	185	0
34	0	0	2808	5	184	0
35	0	0	3114	5	185	0
36	0	0	3442	5	184	0
37	0	0	3510	4	184	0
38	0	0	3192	4	184	0
39	0	0	2838	4	184	0
40	0	0	2489	4	184	0
41	0	0	2152	4	184	0
42	0	0	2030	4	183	0
43	0	0	1697	4	183	0
44	0	0	1294	4	183	0
45	0	0	1156	4	184	0
46	0	0	1091	4	184	0
47	0	0	1119	4	184	0
48	0	0	1160	5	183	0
49	0	0	1313	4	184	0
50	0	0	1595	5	184	0
51	0	0	1912	5	184	0
52	0	0	1714	5	184	0
53	0	0	2187	5	185	0
54	0	0	2796	6	185	0
55	0	0	3105	5	185	0
56	0	0	3448	5	185	0
57	0	0	3528	4	184	0
58	0	0	3230	4	184	0
59	0	0	2868	3	182	0
60	0	0	2514	4	184	0
61	0	0	2168	4	183	0
62	0	0	2052	4	183	0
63	0	0	1712	3	183	0
64	0	0	1316	4	183	0
65	0	0	1182	4	183	0
66	0	0	1114	4	184	0
67	0	0	1134	4	183	0
68	0	0	1169	5	183	0
69	0	0	1322	6	183	0
70	0	0	1602	5	184	0
71	0	0	1916	5	184	0
72	0	0	1705	5	183	0
73	0	0	2200	5	184	0
74	0	0	2805	5	184	0
75	0	0	3125	5	184	0
76	0	0	3479	5	185	0
77	0	0	3556	4	184	0
78	0	0	3248	4	183	0
79	0	0	2877	4	183	0
80	0	0	2529	4	183	0
81	0	0	2188	4	184	0
82	0	0	2070	4	183	0
83	0	0	1733	4	183	0
84	0	0	1341	4	183	0
85	0	0	1197	4	184	0
86	0	0	1121	4	183	0
87	0	0	1131	4	183	0
88	0	0	1151	4	184	0
89	0	0	1297	5	185	0
90	0	0	1572	5	185	0
91	0	0	1880	5	185	0
92	0	0	1665	5	185	0
93	0	0	2156	5	185	0
94	0	0	2755	4	184	0
95	0	0	3061	5	184	0
96	0	0	3421	5	184	0
97	0	0	3502	4	184	0
98	0	0	3209	4	184	0
99	0	0	2855	4	183	0
100	0	0	2509	4	184	0
101	0	0	2170	4	182	0
102	0	0	2054	4	183	0
103	0	0	1713	4	183	0
104	0	0	1319	4	183	0
105	0	0	1181	3	184	0
106	0	0	1099	4	183	0
107	0	0	1089	3	183	0
108	0	0	1106	4	184	0
109	0	0	1253	5	184	0
110	0	0	1528	5	184	0
111	0	0	1838	5	184	0
112	0	0	1610	4	185	0
113	0	0	2113	5	185	0
114	0	0	2730	5	183	0
115	0	0	3063	5	184	0
116	0	0	3438	5	185	0
117	0	0	3544	4	184	0
118	0	0	3250	4	184	0
119	0	0	2892	4	184	0
120	0	0	2548	3	183	0
121	0	0	2205	4	183	0
122	0	0	2091	4	184	0
123	0	0	1760	4	183	0
124	0	0	1368	4	183	0
125	0	0	1226	4	183	0
126	0	0	1132	4	183	0
127	0	0	1133	4	183	0
0	0	0	1146	5	185	0
1	0	0	1269	5	184	0
2	0	0	1539	5	185	0
3	0	0	1827	5	185	0
4	0	0	1589	5	184	0
5	0	0	2103	5	184	0
6	0	0	2731	5	184	0
7	0	0	3057	5	184	0
8	0	0	3438	5	184	0
9	0	0	3570	5	184	0
10	0	0	3284	4	184	0
11	0	0	2934	4	184	0
12	0	0	2587	4	184	0
13	0	0	2241	4	183	0
14	0	0	2143	3	182	0
15	0	0	1798	4	183	0
16	0	0	1385	3	184	0
17	0	0	1234	4	184	0
18	0	0	1134	4	184	0
19	0	0	1113	4	184	0
20	0	0	1113	5	184	0
21	0	0	1228	4	184	0
22	0	0	1496	5	184	0
23	0	0	1785	4	184	0
24	0	0	1534	5	183	0
25	0	0	2046	5	185	0
26	0	0	2683	5	185	0
27	0	0	3026	5	185	0
28	0	0	3424	5	184	0
29	0	0	3569	5	183	0
30	0	0	3298	4	184	0
31	0	0	2972	4	184	0
32	0	0	2641	4	184	0
33	0	0	2307	4	183	0
34	0	0	2214	4	183	0
35	0	0	1866	4	183	0
36	0	0	1445	5	184	0
37	0	0	1276	3	183	0
38	0	0	1157	4	184	0
39	0	0	1122	4	183	0
40	0	0	1096	5	184	0
41	0	0	1198	4	184	0
42	0	0	1450	4	183	0
43	0	0	1737	4	184	0
44	0	0	1461	5	184	0
45	0	0	1973	5	184	0
46	0	0	2616	4	184	0
47	0	0	2972	5	185	0
48	0	0	3386	5	184	0
49	0	0	3560	5	184	0
50	0	0	3317	4	184	0
51	0	0	3007	4	183	0
52	0	0	2682	4	183	0
53	0	0	2354	4	183	0
54	0	0	2260	4	183	0
55	0	0	1900	4	184	0
56	0	0	1467	4	183	0
57	0	0	1288	4	184	0
58	0	0	1145	4	183	0
59	0	0	1085	3	184	0
60	0	0	1043	5	184	0
61	0	0	1120	7	184	0
62	0	0	1361	5	185	0
63	0	0	1638	4	184	0
64	0	0	1352	5	183	0
65	0	0	1875	5	185	0
66	0	0	2529	5	184	0
67	0	0	2904	5	184	0
68	0	0	3346	5	185	0
69	0	0	3569	5	184	0
70	0	0	3361	4	183	0
71	0	0	3070	4	183	0
72	0	0	2764	4	182	0
73	0	0	2441	4	183	0
74	0	0	2362	4	183	0
75	0	0	2008	4	182	0
76	0	0	1559	4	184	0
77	0	0	1358	4	184	0
78	0	0	1203	4	182	0
79	0	0	1124	4	182	0
80	0	0	1044	5	184	0
81	0	0	1108	5	184	0
82	0	0	1333	5	184	0
83	0	0	1598	4	185	0
84	0	0	1275	5	184	0
85	0	0	1799	5	185	0
86	0	0	2470	6	185	0
87	0	0	2878	5	184	0
88	0	0	3346	5	184	0
89	0	0	3632	5	183	0
90	0	0	3456	4	184	0
91	0	0	3188	4	184	0
92	0	0	2893	4	183	0
93	0	0	2586	4	184	0
94	0	0	2512	4	182	0
95	0	0	2142	4	184	0
96	0	0	1671	4	184	0
97	0	0	1447	4	183	0
98	0	0	1259	4	183	0
99	0	0	1140	4	184	0
100	0	0	1016	4	184	0
101	0	0	1013	5	183	0
102	0	0	1211	5	185	0
103	0	0	1444	4	185	0
104	0	0	1070	5	185	0
105	0	0	1616	5	184	0
106	0	0	2337	5	184	0
107	0	0	2763	5	184	0
108	0	0	3272	5	184	0
109	0	0	3628	5	184	0
110	0	0	3524	3	184	0
111	0	0	3289	4	184	0
112	0	0	2998	4	184	0
113	0	0	2677	4	183	0
114	0	0	2639	4	182	0
115	0	0	2271	4	184	0
116	0	0	1777	4	184	0
117	0	0	1526	2	184	0
118	0	0	1296	4	184	0
119	0	0	1131	4	183	0
120	0	0	954	4	183	0
121	0	0	906	5	184	0
122	0	0	1077	4	185	0
123	0	0	1282	4	184	0
124	0	0	858	4	184	0
125	0	0	1399	5	185	0
126	0	0	2149	5	185	0
127	0	0	2631	5	185	0
0	0	0	3197	5	184	0
1	0	0	3580	5	184	0
2	0	0	3627	4	183	0
3	0	0	3438	4	184	0
4	0	0	3183	3	183	0
5	0	0	2901	4	184	0
6	0	0	2887	4	183	0
7	0	0	2489	4	183	0
8	0	0	1948	4	184	0
9	0	0	1641	3	183	0
10	0	0	1366	4	185	0
11	0	0	1139	4	183	0
12	0	0	894	4	183	0
13	0	0	784	4	185	0
14	0	0	901	5	184	0
15	0	0	1088	4	185	0
16	0	0	645	3	185	0
17	0	0	1136	4	184	0
18	0	0	1926	5	184	0
19	0	0	2471	4	185	0
20	0	0	3095	5	184	0
21	0	0	3520	5	183	0
22	0	0	3758	5	184	0
23	0	0	3649	4	184	0
24	0	0	3427	3	184	0
25	0	0	3163	4	184	0
26	0	0	3187	4	184	0
27	0	0	2761	4	184	0
28	0	0	2177	4	185	0
29	0	0	1825	3	183	0
30	0	0	1475	4	184	0
31	0	0	1167	3	184	0
32	0	0	836	4	184	0
33	0	0	636	4	183	0
34	0	0	697	4	184	0
35	0	0	841	4	183	0
36	0	0	487	4	185	0
37	0	0	809	5	184	0
38	0	0	1664	5	186	0
39	0	0	2283	4	186	0
40	0	0	2985	5	184	0
41	0	0	3453	5	185	0
42	0	0	3730	5	184	0
43	0	0	3887	5	183	0
44	0	0	3750	4	182	0
45	0	0	3512	4	184	0
46	0	0	3584	4	183	0
47	0	0	3130	4	184	0
48	0	0	2470	4	183	0
49	0	0	2044	4	184	0
50	0	0	1608	3	184	0
51	0	0	1213	4	184	0
52	0	0	758	4	184	0
53	0	0	462	4	183	0
54	0	0	405	5	184	0
55	0	0	500	4	184	0
56	0	0	296	4	185	0
57	0	0	461	5	184	0
58	0	0	1337	5	185	0
59	0	0	2022	5	185	0
60	0	0	2830	5	184	0
61	0	0	3354	5	185	0
62	0	0	3671	5	184	0
63	0	0	3854	5	184	0
64	0	0	3956	5	183	0
65	0	0	3952	4	184	0
66	0	0	3992	5	182	0
67	0	0	3543	4	184	0
68	0	0	2798	4	183	0
69	0	0	2291	4	184	0
70	0	0	1757	3	184	0
71	0	0	1246	4	183	0
72	0	0	732	4	184	0
73	0	0	440	3	183	0
74	0	0	274	4	184	0
75	0	0	182	4	185	0
76	0	0	137	4	184	0
77	0	0	124	5	184	0
78	0	0	968	5	184	0
79	0	0	1728	5	185	0
80	0	0	2643	5	184	0
81	0	0	3244	5	184	0
82	0	0	3605	5	185	0
83	0	0	3814	5	185	0
84	0	0	3934	6	183	0
85	0	0	4001	5	184	0
86	0	0	4034	6	183	0
87	0	0	3948	4	183	0
88	0	0	3166	4	183	0
89	0	0	2595	4	184	0
90	0	0	1951	3	183	0
91	0	0	1313	4	184	0
92	0	0	768	4	184	0
93	0	0	457	4	184	0
94	0	0	283	4	184	0
95	0	0	186	4	185	0
96	0	0	135	4	184	0
97	0	0	110	4	184	0
98	0	0	616	5	183	0
99	0	0	1431	5	185	0
100	0	0	2462	5	184	0
101	0	0	3136	5	184	0
102	0	0	3538	5	184	0
103	0	0	3775	5	183	0
104	0	0	3910	5	183	0
105	0	0	3987	5	183	0
106	0	0	4026	5	184	0
107	0	0	4046	5	183	0
108	0	0	3552	4	184	0
109	0	0	2946	4	183	0
110	0	0	2183	4	184	0
111	0	0	1398	4	184	0
112	0	0	816	4	184	0
113	0	0	482	4	184	0
114	0	0	294	3	183	0
115	0	0	189	3	184	0
116	0	0	134	4	185	0
117	0	0	107	4	186	0
118	0	0	239	5	186	0
119	0	0	1070	5	184	0
120	0	0	2260	5	184	0
121	0	0	3004	5	184	0
122	0	0	3459	5	184	0
123	0	0	3728	5	183	0
124	0	0	3881	5	183	0
125	0	0	3969	5	183	0
126	0	0	4016	5	183	0
127	0	0	4039	5	182	0
0	0	0	3891	4	183	0
1	0	0	3264	4	183	0
2	0	0	2360	4	185	0
3	0	0	1454	4	183	0
4	0	0	847	4	183	0
5	0	0	498	3	184	0
6	0	0	299	4	183	0
7	0	0	191	4	184	0
8	0	0	134	4	184	0
9	0	0	104	4	185	0
10	0	0	92	4	186	0
11	0	0	700	5	185	0
12	0	0	2049	5	184	0
13	0	0	2877	5	184	0
14	0	0	3382	5	184	0
15	0	0	3682	5	184	0
16	0	0	3856	5	184	0
17	0	0	3953	5	184	0
18	0	0	4006	5	183	0
19	0	0	4035	5	183	0
20	0	0	4048	5	183	0
21	0	0	3627	4	183	0
22	0	0	2579	3	184	0
23	0	0	1562	4	183	0
24	0	0	914	3	183	0
25	0	0	535	3	183	0
26	0	0	319	4	183	0
27	0	0	199	3	184	0
28	0	0	137	4	184	0
29	0	0	103	4	185	0
30	0	0	88	4	186	0
31	0	0	360	5	185	0
32	0	0	1863	5	184	0
33	0	0	2775	5	184	0
34	0	0	3314	5	184	0
35	0	0	3642	5	183	0
36	0	0	3831	5	183	0
37	0	0	3937	5	184	0
38	0	0	3995	5	184	0
39	0	0	4027	5	182	0
40	0	0	4042	5	184	0
41	0	0	3980	4	183	0
42	0	0	2798	4	183	0
43	0	0	1656	4	183	0
44	0	0	967	4	185	0
45	0	0	563	4	184	0
46	0	0	333	4	185	0
47	0	0	205	4	185	0
48	0	0	138	4	185	0
49	0	0	102	4	184	0
50	0	0	86	4	184	0
51	0	0	113	5	184	0
52	0	0	1714	4	184	0
53	0	0	2687	5	184	0
54	0	0	3259	5	184	0
55	0	0	3608	5	184	0
56	0	0	3812	5	184	0
57	0	0	3924	5	183	0
58	0	0	3987	5	184	0
59	0	0	4021	5	183	0
60	0	0	4038	5	183	0
61	0	0	4044	6	183	0
62	0	0	2978	3	183	0
63	0	0	1750	4	184	0
64	0	0	1022	4	184	0
65	0	0	594	5	184	0
66	0	0	348	4	184	0
67	0	0	211	3	184	0
68	0	0	139	4	185	0
69	0	0	101	4	183	0
70	0	0	84	4	185	0
71	0	0	78	5	185	0
72	0	0	1619	5	185	0
73	0	0	2630	5	183	0
74	0	0	3224	5	184	0
75	0	0	3585	5	183	0
76	0	0	3796	5	184	0
77	0	0	3916	5	183	0
78	0	0	3980	5	183	0
79	0	0	4017	5	183	0
80	0	0	4035	6	183	0
81	0	0	4041	6	183	0
82	0	0	3101	3	183	0
83	0	0	1798	4	184	0
84	0	0	1041	4	183	0
85	0	0	606	4	185	0
86	0	0	354	4	183	0
87	0	0	213	3	185	0
88	0	0	139	3	185	0
89	0	0	98	5	185	0
90	0	0	80	4	184	0
91	0	0	76	4	185	0
92	0	0	1533	5	185	0
93	0	0	2581	5	184	0
94	0	0	3197	5	183	0
95	0	0	3563	5	184	0
96	0	0	3783	6	182	0
97	0	0	3906	5	183	0
98	0	0	3975	6	183	0
99	0	0	4011	5	183	0
100	0	0	4029	5	185	0
101	0	0	4037	5	184	0
102	0	0	3202	4	182	0
103	0	0	1843	4	182	0
104	0	0	1067	4	184	0
105	0	0	620	4	185	0
106	0	0	360	5	184	0
107	0	0	214	3	185	0
108	0	0	138	4	185	0
109	0	0	97	4	185	0
110	0	0	78	4	185	0
111	0	0	72	5	185	0
112	0	0	1482	5	185	0
113	0	0	2549	5	184	0
114	0	0	3179	5	183	0
115	0	0	3552	5	183	0
116	0	0	3774	6	183	0
117	0	0	3899	5	183	0
118	0	0	3970	5	182	0
119	0	0	4008	5	184	0
120	0	0	4027	6	183	0
121	0	0	4033	6	184	0
122	0	0	3248	4	182	0
123	0	0	1862	4	184	0
124	0	0	1076	4	184	0
125	0	0	620	4	184	0
126	0	0	360	4	184	0
127	0	0	212	5	185	0
0	0	0	135	4	185	0
1	0	0	93	5	186	0
2	0	0	73	4	185	0
3	0	0	69	6	185	0
4	0	0	1440	5	185	0
5	0	0	2522	5	185	0
6	0	0	3161	5	184	0
7	0	0	3545	4	182	0
8	0	0	3766	5	183	0
9	0	0	3893	5	183	0
10	0	0	3965	5	182	0
11	0	0	4003	5	184	0
12	0	0	4021	5	183	0
13	0	0	4030	4	183	0
14	0	0	3243	3	183	0
15	0	0	1862	4	184	0
16	0	0	1075	4	183	0
17	0	0	618	4	185	0
18	0	0	359	4	185	0
19	0	0	211	3	185	0
20	0	0	133	4	185	0
21	0	0	92	4	185	0
22	0	0	71	4	185	0
23	0	0	66	5	185	0
24	0	0	1422	5	184	0
25	0	0	2502	5	184	0
26	0	0	3148	5	184	0
27	0	0	3535	5	184	0
28	0	0	3760	5	184	0
29	0	0	3890	5	183	0
30	0	0	3961	5	183	0
31	0	0	4001	4	182	0
32	0	0	4019	5	183	0
33	0	0	4027	5	182	0
34	0	0	3337	3	184	0
35	0	0	1912	4	184	0
36	0	0	1103	4	183	0
37	0	0	633	4	184	0
38	0	0	363	5	184	0
39	0	0	213	4	185	0
40	0	0	131	4	184	0
41	0	0	90	4	184	0
42	0	0	69	3	185	0
43	0	0	62	5	185	0
44	0	0	1389	5	185	0
45	0	0	2481	5	185	0
46	0	0	3135	5	184	0
47	0	0	3525	5	184	0
48	0	0	3752	5	183	0
49	0	0	3884	5	184	0
50	0	0	3957	5	183	0
51	0	0	3997	5	182	0
52	0	0	4015	5	182	0
53	0	0	4023	6	182	0
54	0	0	3400	3	184	0
55	0	0	1945	4	184	0
56	0	0	1121	4	184	0
57	0	0	641	3	184	0
58	0	0	367	4	184	0
59	0	0	214	4	186	0
60	0	0	131	4	185	0
61	0	0	88	4	185	0
62	0	0	67	4	184	0
63	0	0	59	5	184	0
64	0	0	1352	5	185	0
65	0	0	2459	5	184	0
66	0	0	3120	5	184	0
67	0	0	3515	5	183	0
68	0	0	3749	5	184	0
69	0	0	3879	5	183	0
70	0	0	3953	5	183	0
71	0	0	3992	5	183	0
72	0	0	4012	5	183	0
73	0	0	4021	5	183	0
74	0	0	3488	4	182	0
75	0	0	1979	4	184	0
76	0	0	1147	3	184	0
77	0	0	656	4	184	0
78	0	0	374	3	185	0
79	0	0	217	4	184	0
80	0	0	132	4	185	0
81	0	0	86	4	186	0
82	0	0	65	4	184	0
83	0	0	57	5	185	0
84	0	0	1316	4	186	0
85	0	0	2448	5	184	0
86	0	0	3105	5	185	0
87	0	0	3507	5	183	0
88	0	0	3741	6	183	0
89	0	0	3873	5	184	0
90	0	0	3951	5	183	0
91	0	0	3989	5	184	0
92	0	0	4010	5	183	0
93	0	0	4018	5	184	0
94	0	0	3021	3	183	0
95	0	0	1718	4	183	0
96	0	0	993	3	184	0
97	0	0	567	3	184	0
98	0	0	323	4	185	0
99	0	0	185	4	184	0
100	0	0	116	4	185	0
101	0	0	78	4	185	0
102	0	0	60	4	184	0
103	0	0	54	5	184	0
104	0	0	1343	5	185	0
105	0	0	2462	5	184	0
106	0	0	3115	6	184	0
107	0	0	3510	5	183	0
108	0	0	3744	5	184	0
109	0	0	3877	5	183	0
110	0	0	3949	5	183	0
111	0	0	3989	5	184	0
112	0	0	4010	5	183	0
113	0	0	4017	5	183	0
114	0	0	2558	3	182	0
115	0	0	1469	4	185	0
116	0	0	842	4	184	0
117	0	0	484	4	183	0
118	0	0	277	4	184	0
119	0	0	162	3	185	0
120	0	0	104	4	185	0
121	0	0	73	4	184	0
122	0	0	59	4	184	0
123	0	0	55	5	185	0
124	0	0	1427	5	184	0
125	0	0	2513	5	185	0
126	0	0	3150	5	184	0
127	0	0	3530	5	184	0
0	0	0	3758	5	183	0
1	0	0	3885	5	183	0
2	0	0	3957	5	184	0
3	0	0	3994	5	183	0
4	0	0	4013	6	183	0
5	0	0	3895	4	184	0
6	0	0	2311	4	184	0
7	0	0	1332	4	183	0
8	0	0	764	3	184	0
9	0	0	441	3	184	0
10	0	0	255	4	185	0
11	0	0	153	3	185	0
12	0	0	99	4	184	0
13	0	0	73	4	185	0
14	0	0	61	4	184	0
15	0	0	59	5	185	0
16	0	0	1575	5	184	0
17	0	0	2597	5	183	0
18	0	0	3204	5	184	0
19	0	0	3564	5	186	0
20	0	0	3779	5	183	0
21	0	0	3898	5	183	0
22	0	0	3965	5	183	0
23	0	0	4001	5	183	0
24	0	0	4019	5	185	0
25	0	0	3683	4	184	0
26	0	0	2194	3	183	0
27	0	0	1267	4	184	0
28	0	0	728	3	185	0
29	0	0	421	3	185	0
30	0	0	246	3	184	0
31	0	0	149	4	185	0
32	0	0	100	4	184	0
33	0	0	75	4	185	0
34	0	0	64	4	184	0
35	0	0	63	5	184	0
36	0	0	1681	5	185	0
37	0	0	2661	5	185	0
38	0	0	3243	5	183	0
39	0	0	3590	5	185	0
40	0	0	3795	6	184	0
41	0	0	3910	5	184	0
42	0	0	3976	5	183	0
43	0	0	4006	5	182	0
44	0	0	4023	5	183	0
45	0	0	3489	4	183	0
46	0	0	2121	3	185	0
47	0	0	1226	4	184	0
48	0	0	706	3	184	0
49	0	0	408	4	185	0
50	0	0	242	4	184	0
51	0	0	150	4	185	0
52	0	0	102	4	185	0
53	0	0	78	4	186	0
54	0	0	68	4	184	0
55	0	0	167	5	185	0
56	0	0	1768	4	184	0
57	0	0	2713	5	185	0
58	0	0	3276	5	185	0
59	0	0	3614	5	184	0
60	0	0	3808	5	183	0
61	0	0	3919	5	183	0
62	0	0	3980	5	183	0
63	0	0	4013	5	183	0
64	0	0	4029	5	185	0
65	0	0	3344	4	183	0
66	0	0	2046	4	184	0
67	0	0	1193	4	185	0
68	0	0	688	3	183	0
69	0	0	400	4	184	0
70	0	0	239	4	184	0
71	0	0	149	3	184	0
72	0	0	104	4	185	0
73	0	0	83	4	186	0
74	0	0	73	4	185	0
75	0	0	256	5	184	0
76	0	0	1822	5	185	0
77	0	0	2736	5	183	0
78	0	0	3293	5	183	0
79	0	0	3624	5	184	0
80	0	0	3816	6	184	0
81	0	0	3926	5	183	0
82	0	0	3985	5	183	0
83	0	0	4017	4	184	0
84	0	0	4032	4	183	0
85	0	0	3247	5	184	0
86	0	0	2004	3	183	0
87	0	0	1171	4	184	0
88	0	0	678	3	184	0
89	0	0	395	4	183	0
90	0	0	237	4	185	0
91	0	0	152	4	185	0
92	0	0	107	4	185	0
93	0	0	85	3	185	0
94	0	0	76	4	184	0
95	0	0	435	5	185	0
96	0	0	1928	4	184	0
97	0	0	2801	5	184	0
98	0	0	3332	5	185	0
99	0	0	3650	4	184	0
100	0	0	3833	5	183	0
101	0	0	3936	6	183	0
102	0	0	3993	5	184	0
103	0	0	4023	4	184	0
104	0	0	3996	4	184	0
105	0	0	3200	3	183	0
106	0	0	2030	4	184	0
107	0	0	1178	4	183	0
108	0	0	688	3	184	0
109	0	0	402	4	184	0
110	0	0	242	4	184	0
111	0	0	156	4	184	0
112	0	0	110	4	184	0
113	0	0	88	4	185	0
114	0	0	80	4	184	0
115	0	0	428	4	185	0
116	0	0	1915	5	185	0
117	0	0	2803	5	184	0
118	0	0	3330	4	185	0
119	0	0	3650	5	184	0
120	0	0	3835	7	184	0
121	0	0	3939	6	184	0
122	0	0	3996	5	183	0
123	0	0	4027	5	184	0
124	0	0	4001	4	183	0
125	0	0	3215	4	183	0
126	0	0	2056	4	184	0
127	0	0	1194	4	184	0
0	0	0	698	3	184	0
1	0	0	410	4	184	0
2	0	0	247	3	185	0
3	0	0	159	3	185	0
4	0	0	114	4	184	0
5	0	0	92	4	185	0
6	0	0	82	3	184	0
7	0	0	492	5	184	0
8	0	0	1970	6	184	0
9	0	0	2836	5	184	0
10	0	0	3352	4	183	0
11	0	0	3663	6	184	0
12	0	0	3844	6	184	0
13	0	0	3944	5	183	0
14	0	0	4000	5	182	0
15	0	0	4030	5	183	0
16	0	0	4035	4	184	0
17	0	0	3266	4	182	0
18	0	0	2041	4	183	0
19	0	0	1188	4	184	0
20	0	0	695	3	184	0
21	0	0	409	4	185	0
22	0	0	248	4	185	0
23	0	0	160	4	184	0
24	0	0	115	4	185	0
25	0	0	94	4	184	0
26	0	0	84	4	185	0
27	0	0	118	5	184	0
28	0	0	1761	5	184	0
29	0	0	2716	5	184	0
30	0	0	3281	4	184	0
31	0	0	3623	5	184	0
32	0	0	3822	5	182	0
33	0	0	3934	6	184	0
34	0	0	3996	5	182	0
35	0	0	4028	5	183	0
36	0	0	4045	4	184	0
37	0	0	4051	5	183	0
38	0	0	3102	3	183	0
39	0	0	1775	3	182	0
40	0	0	1032	4	184	0
41	0	0	604	4	185	0
42	0	0	357	4	183	0
43	0	0	218	4	185	0
44	0	0	145	4	185	0
45	0	0	108	4	185	0
46	0	0	88	4	186	0
47	0	0	82	5	184	0
48	0	0	1349	5	185	0
49	0	0	2478	5	184	0
50	0	0	3140	5	184	0
51	0	0	3534	5	183	0
52	0	0	3769	5	184	0
53	0	0	3903	5	183	0
54	0	0	3976	5	183	0
55	0	0	4017	5	182	0
56	0	0	4036	6	183	0
57	0	0	4046	5	184	0
58	0	0	3037	3	183	0
59	0	0	1739	4	184	0
60	0	0	1009	3	183	0
61	0	0	591	4	185	0
62	0	0	348	4	185	0
63	0	0	212	5	186	0
64	0	0	140	4	183	0
65	0	0	103	3	186	0
66	0	0	84	4	185	0
67	0	0	79	5	185	0
68	0	0	1509	4	185	0
69	0	0	2569	5	184	0
70	0	0	3193	5	183	0
71	0	0	3565	6	184	0
72	0	0	3786	5	184	0
73	0	0	3911	5	183	0
74	0	0	3979	5	183	0
75	0	0	4017	5	183	0
76	0	0	4035	5	184	0
77	0	0	4042	5	181	0
78	0	0	2736	3	183	0
79	0	0	1577	4	183	0
80	0	0	914	4	185	0
81	0	0	532	5	185	0
82	0	0	315	4	186	0
83	0	0	194	3	184	0
84	0	0	131	4	185	0
85	0	0	97	4	186	0
86	0	0	79	4	185	0
87	0	0	77	4	182	0
88	0	0	1624	4	184	0
89	0	0	2633	5	184	0
90	0	0	3231	5	184	0
91	0	0	3590	5	184	0
92	0	0	3799	5	183	0
93	0	0	3916	5	184	0
94	0	0	3982	5	184	0
95	0	0	4016	5	183	0
96	0	0	4034	5	183	0
97	0	0	4042	5	183	0
98	0	0	2528	3	184	0
99	0	0	1472	4	184	0
100	0	0	853	4	185	0
101	0	0	495	4	184	0
102	0	0	295	3	184	0
103	0	0	182	3	184	0
104	0	0	125	4	185	0
105	0	0	92	5	185	0
106	0	0	77	4	185	0
107	0	0	76	5	185	0
108	0	0	1738	4	185	0
109	0	0	2689	5	184	0
110	0	0	3265	5	184	0
111	0	0	3610	5	183	0
112	0	0	3809	5	183	0
113	0	0	3923	4	183	0
114	0	0	3987	5	183	0
115	0	0	4019	5	183	0
116	0	0	4036	5	183	0
117	0	0	3961	4	184	0
118	0	0	2356	3	184	0
119	0	0	1374	4	183	0
120	0	0	795	4	184	0
121	0	0	463	4	183	0
122	0	0	275	4	184	0
123	0	0	171	4	185	0
124	0	0	118	4	185	0
125	0	0	90	4	185	0
126	0	0	78	4	185	0
127	0	0	165	5	184	0
0	0	0	1839	5	184	0
1	0	0	2749	5	184	0
2	0	0	3301	5	184	0
3	0	0	3630	5	183	0
4	0	0	3821	5	183	0
5	0	0	3929	4	184	0
6	0	0	3991	5	182	0
7	0	0	4022	5	184	0
8	0	0	4034	5	183	0
9	0	0	3759	4	184	0
10	0	0	2238	4	184	0
11	0	0	1306	4	183	0
12	0	0	756	4	184	0
13	0	0	440	4	184	0
14	0	0	261	4	184	0
15	0	0	165	4	184	0
16	0	0	114	4	185	0
17	0	0	88	5	185	0
18	0	0	77	4	185	0
19	0	0	312	5	185	0
20	0	0	1924	4	184	0
21	0	0	2799	5	184	0
22	0	0	3331	5	184	0
23	0	0	3648	5	183	0
24	0	0	3833	5	185	0
25	0	0	3937	5	184	0
26	0	0	3991	5	183	0
27	0	0	4022	5	184	0
28	0	0	4036	5	182	0
29	0	0	3548	4	184	0
30	0	0	2112	4	184	0
31	0	0	1226	4	183	0
32	0	0	714	4	183	0
33	0	0	416	4	184	0
34	0	0	248	4	184	0
35	0	0	158	3	185	0
36	0	0	111	4	185	0
37	0	0	87	4	185	0
38	0	0	78	4	184	0
39	0	0	384	5	184	0
40	0	0	1959	5	184	0
41	0	0	2828	5	184	0
42	0	0	3344	5	184	0
43	0	0	3657	6	184	0
44	0	0	3838	5	183	0
45	0	0	3938	5	184	0
46	0	0	3995	5	184	0
47	0	0	4024	5	183	0
48	0	0	4038	5	184	0
49	0	0	3456	3	183	0
50	0	0	2093	4	184	0
51	0	0	1213	4	185	0
52	0	0	708	3	183	0
53	0	0	413	4	183	0
54	0	0	248	4	183	0
55	0	0	157	4	185	0
56	0	0	111	4	185	0
57	0	0	89	4	185	0
58	0	0	77	4	185	0
59	0	0	527	5	184	0
60	0	0	2035	5	184	0
61	0	0	2873	5	184	0
62	0	0	3373	5	183	0
63	0	0	3674	5	184	0
64	0	0	3847	5	184	0
65	0	0	3946	5	184	0
66	0	0	3997	5	183	0
67	0	0	4025	5	183	0
68	0	0	4039	5	183	0
69	0	0	3299	4	184	0
70	0	0	1983	3	184	0
71	0	0	1153	3	183	0
72	0	0	668	4	184	0
73	0	0	393	4	183	0
74	0	0	237	3	184	0
75	0	0	151	3	185	0
76	0	0	109	4	185	0
77	0	0	87	4	184	0
78	0	0	78	4	185	0
79	0	0	576	5	184	0
80	0	0	2059	3	184	0
81	0	0	2888	5	184	0
82	0	0	3385	5	184	0
83	0	0	3681	5	184	0
84	0	0	3852	5	184	0
85	0	0	3948	5	183	0
86	0	0	4000	5	184	0
87	0	0	4027	5	183	0
88	0	0	4011	4	183	0
89	0	0	3265	3	184	0
90	0	0	2005	4	183	0
91	0	0	1165	4	184	0
92	0	0	676	4	184	0
93	0	0	398	4	184	0
94	0	0	241	4	185	0
95	0	0	155	4	184	0
96	0	0	112	4	185	0
97	0	0	89	3	185	0
98	0	0	79	4	185	0
99	0	0	660	5	185	0
100	0	0	2092	4	184	0
101	0	0	2908	5	185	0
102	0	0	3399	5	184	0
103	0	0	3686	5	184	0
104	0	0	3857	5	182	0
105	0	0	3951	4	183	0
106	0	0	4001	5	184	0
107	0	0	4029	5	183	0
108	0	0	4006	4	183	0
109	0	0	3219	4	184	0
110	0	0	1983	4	183	0
111	0	0	1153	4	184	0
112	0	0	669	4	184	0
113	0	0	395	5	184	0
114	0	0	240	4	186	0
115	0	0	154	4	184	0
116	0	0	111	4	184	0
117	0	0	88	5	185	0
118	0	0	80	4	185	0
119	0	0	734	5	185	0
120	0	0	2132	4	185	0
121	0	0	2931	5	184	0
122	0	0	3415	5	183	0
123	0	0	3697	5	185	0
124	0	0	3862	5	182	0
125	0	0	3954	4	183	0
126	0	0	4005	5	184	0
127	0	0	4032	5	183	0
0	0	0	4020	4	183	0
1	0	0	3267	4	182	0
2	0	0	2020	4	183	0
3	0	0	1174	4	184	0
4	0	0	684	4	183	0
5	0	0	400	4	183	0
6	0	0	244	3	184	0
7	0	0	157	4	184	0
8	0	0	113	4	185	0
9	0	0	90	5	185	0
10	0	0	80	5	185	0
11	0	0	635	5	185	0
12	0	0	2080	5	185	0
13	0	0	2901	5	183	0
14	0	0	3394	5	184	0
15	0	0	3688	5	184	0
16	0	0	3857	5	184	0
17	0	0	3951	4	183	0
18	0	0	4006	6	183	0
19	0	0	4030	5	183	0
20	0	0	4043	5	184	0
21	0	0	3387	4	184	0
22	0	0	2102	4	184	0
23	0	0	1229	3	184	0
24	0	0	714	4	184	0
25	0	0	418	4	184	0
26	0	0	254	4	184	0
27	0	0	163	4	185	0
28	0	0	116	4	184	0
29	0	0	92	4	184	0
30	0	0	81	4	185	0
31	0	0	611	5	185	0
32	0	0	2083	5	185	0
33	0	0	2895	5	184	0
34	0	0	3390	5	184	0
35	0	0	3686	5	184	0
36	0	0	3855	5	184	0
37	0	0	3950	5	183	0
38	0	0	4003	5	183	0
39	0	0	4030	5	183	0
40	0	0	4042	5	183	0
41	0	0	3503	4	183	0
42	0	0	2158	4	184	0
43	0	0	1262	4	184	0
44	0	0	732	3	184	0
45	0	0	429	4	183	0
46	0	0	257	4	186	0
47	0	0	165	4	186	0
48	0	0	116	4	185	0
49	0	0	92	3	185	0
50	0	0	81	4	185	0
51	0	0	501	5	185	0
52	0	0	2025	5	184	0
53	0	0	2860	5	184	0
54	0	0	3371	5	184	0
55	0	0	3673	5	184	0
56	0	0	3849	5	183	0
57	0	0	3945	5	183	0
58	0	0	4000	5	182	0
59	0	0	4027	5	184	0
60	0	0	4040	4	183	0
61	0	0	3660	4	183	0
62	0	0	2256	4	183	0
63	0	0	1308	3	184	0
64	0	0	764	3	184	0
65	0	0	446	4	185	0
66	0	0	267	4	185	0
67	0	0	169	4	184	0
68	0	0	118	4	185	0
69	0	0	92	4	185	0
70	0	0	80	4	185	0
71	0	0	410	5	185	0
72	0	0	1977	5	185	0
73	0	0	2843	5	184	0
74	0	0	3353	5	183	0
75	0	0	3662	5	184	0
76	0	0	3842	5	185	0
77	0	0	3943	5	184	0
78	0	0	3997	5	183	0
79	0	0	4026	5	183	0
80	0	0	4041	5	184	0
81	0	0	3802	4	183	0
82	0	0	2343	4	184	0
83	0	0	1359	3	184	0
84	0	0	792	4	184	0
85	0	0	462	4	184	0
86	0	0	275	4	185	0
87	0	0	171	4	185	0
88	0	0	118	4	186	0
89	0	0	92	4	185	0
90	0	0	78	4	185	0
91	0	0	379	5	184	0
92	0	0	1966	5	185	0
93	0	0	2833	5	183	0
94	0	0	3347	5	183	0
95	0	0	3657	4	184	0
96	0	0	3839	5	183	0
97	0	0	3942	5	183	0
98	0	0	3995	5	184	0
99	0	0	4024	4	184	0
100	0	0	4037	5	183	0
101	0	0	3931	4	183	0
102	0	0	2448	4	183	0
103	0	0	1417	4	185	0
104	0	0	820	4	183	0
105	0	0	480	3	183	0
106	0	0	284	4	185	0
107	0	0	175	4	185	0
108	0	0	119	5	185	0
109	0	0	91	4	185	0
110	0	0	78	3	183	0
111	0	0	298	5	185	0
112	0	0	1912	5	185	0
113	0	0	2800	5	183	0
114	0	0	3332	4	185	0
115	0	0	3647	5	183	0
116	0	0	3830	5	183	0
117	0	0	3936	5	184	0
118	0	0	3991	5	183	0
119	0	0	4020	5	184	0
120	0	0	4035	6	183	0
121	0	0	3989	4	184	0
122	0	0	2511	4	184	0
123	0	0	1451	3	183	0
124	0	0	839	4	185	0
125	0	0	488	5	184	0
126	0	0	288	3	184	0
127	0	0	176	4	184	0
0	0	0	119	5	185	0
1	0	0	89	4	184	0
2	0	0	75	4	184	0
3	0	0	248	5	185	0
4	0	0	1888	5	184	0
5	0	0	2786	5	185	0
6	0	0	3322	4	183	0
7	0	0	3642	6	184	0
8	0	0	3825	5	183	0
9	0	0	3930	5	182	0
10	0	0	3989	6	184	0
11	0	0	4016	5	185	0
12	0	0	4032	4	183	0
13	0	0	4036	4	183	0
14	0	0	2555	4	183	0
15	0	0	1475	4	183	0
16	0	0	851	4	184	0
17	0	0	492	3	184	0
18	0	0	290	4	185	0
19	0	0	176	4	184	0
20	0	0	117	4	185	0
21	0	0	87	4	184	0
22	0	0	72	4	185	0
23	0	0	185	5	184	0
24	0	0	1866	5	184	0
25	0	0	2761	5	184	0
26	0	0	3306	5	184	0
27	0	0	3631	6	183	0
28	0	0	3819	5	184	0
29	0	0	3925	5	183	0
30	0	0	3983	5	183	0
31	0	0	4015	5	183	0
32	0	0	4028	5	183	0
33	0	0	4036	3	183	0
34	0	0	2571	4	183	0
35	0	0	1493	4	184	0
36	0	0	861	4	184	0
37	0	0	496	4	185	0
38	0	0	291	4	184	0
39	0	0	177	4	186	0
40	0	0	115	4	185	0
41	0	0	84	6	185	0
42	0	0	69	4	185	0
43	0	0	142	5	185	0
44	0	0	1836	5	185	0
45	0	0	2743	5	183	0
46	0	0	3295	5	182	0
47	0	0	3622	5	183	0
48	0	0	3815	5	183	0
49	0	0	3920	5	183	0
50	0	0	3980	5	182	0
51	0	0	4011	5	183	0
52	0	0	4026	5	184	0
53	0	0	4033	5	182	0
54	0	0	2670	4	184	0
55	0	0	1546	4	184	0
56	0	0	891	3	183	0
57	0	0	514	3	185	0
58	0	0	297	4	185	0
59	0	0	179	4	185	0
60	0	0	116	4	185	0
61	0	0	83	4	184	0
62	0	0	69	4	185	0
63	0	0	104	5	185	0
64	0	0	1811	5	185	0
65	0	0	2736	5	185	0
66	0	0	3284	5	184	0
67	0	0	3615	5	184	0
68	0	0	3809	5	184	0
69	0	0	3916	5	182	0
70	0	0	3977	5	183	0
71	0	0	4009	5	183	0
72	0	0	4022	4	183	0
73	0	0	4029	5	184	0
74	0	0	2737	4	183	0
75	0	0	1571	3	184	0
76	0	0	910	4	184	0
77	0	0	523	4	185	0
78	0	0	302	4	185	0
79	0	0	181	4	183	0
80	0	0	116	4	185	0
81	0	0	80	5	184	0
82	0	0	64	4	185	0
83	0	0	62	5	185	0
84	0	0	1763	5	184	0
85	0	0	2709	5	184	0
86	0	0	3271	5	184	0
87	0	0	3603	5	184	0
88	0	0	3801	5	183	0
89	0	0	3911	5	184	0
90	0	0	3972	5	184	0
91	0	0	4004	5	183	0
92	0	0	4019	5	183	0
93	0	0	4026	5	183	0
94	0	0	2846	4	182	0
95	0	0	1629	4	184	0
96	0	0	936	3	185	0
97	0	0	540	4	183	0
98	0	0	310	4	185	0
99	0	0	182	3	186	0
100	0	0	116	4	186	0
101	0	0	81	4	184	0
102	0	0	63	4	185	0
103	0	0	60	5	185	0
104	0	0	1729	5	183	0
105	0	0	2686	5	184	0
106	0	0	3256	5	184	0
107	0	0	3594	5	182	0
108	0	0	3793	5	184	0
109	0	0	3906	5	182	0
110	0	0	3968	5	183	0
111	0	0	4001	5	182	0
112	0	0	4016	4	183	0
113	0	0	4021	4	182	0
114	0	0	2877	4	183	0
115	0	0	1643	4	183	0
116	0	0	943	4	183	0
117	0	0	543	4	184	0
118	0	0	310	4	184	0
119	0	0	181	4	184	0
120	0	0	114	4	185	0
121	0	0	79	4	185	0
122	0	0	61	4	185	0
123	0	0	56	5	184	0
124	0	0	1687	5	185	0
125	0	0	2660	5	184	0
126	0	0	3239	5	184	0
127	0	0	3585	4	183	0
0	0	0	3787	5	183	0
1	0	0	3900	5	183	0
2	0	0	3964	5	183	0
3	0	0	3997	4	183	0
4	0	0	4015	5	182	0
5	0	0	4017	4	183	0
6	0	0	3046	4	183	0
7	0	0	1730	4	184	0
8	0	0	993	4	184	0
9	0	0	567	3	185	0
10	0	0	324	4	183	0
11	0	0	188	4	186	0
12	0	0	116	4	185	0
13	0	0	79	4	185	0
14	0	0	60	5	187	0
15	0	0	53	5	186	0
16	0	0	1637	5	183	0
17	0	0	2622	5	184	0
18	0	0	3216	5	183	0
19	0	0	3569	5	184	0
20	0	0	3776	5	184	0
21	0	0	3893	5	185	0
22	0	0	3959	5	183	0
23	0	0	3993	5	182	0
24	0	0	4011	5	184	0
25	0	0	4014	4	183	0
26	0	0	2379	4	184	0
27	0	0	1378	4	183	0
28	0	0	787	4	183	0
29	0	0	448	4	183	0
30	0	0	256	4	185	0
31	0	0	150	3	186	0
32	0	0	95	4	186	0
33	0	0	68	4	183	0
34	0	0	55	4	184	0
35	0	0	162	4	185	0
36	0	0	1854	5	186	0
37	0	0	2749	5	185	0
38	0	0	3292	5	182	0
39	0	0	3615	5	184	0
40	0	0	3804	5	184	0
41	0	0	3911	5	184	0
42	0	0	3967	5	183	0
43	0	0	3998	5	183	0
44	0	0	4012	5	183	0
45	0	0	3243	4	184	0
46	0	0	1834	4	184	0
47	0	0	1064	4	183	0
48	0	0	609	3	184	0
49	0	0	346	4	184	0
50	0	0	201	4	185	0
51	0	0	122	4	184	0
52	0	0	82	4	185	0
53	0	0	63	3	184	0
54	0	0	56	4	185	0
55	0	0	567	5	184	0
56	0	0	2054	4	184	0
57	0	0	2876	5	183	0
58	0	0	3365	5	184	0
59	0	0	3662	5	183	0
60	0	0	3832	5	183	0
61	0	0	3926	5	183	0
62	0	0	3980	5	184	0
63	0	0	4006	5	183	0
64	0	0	3989	4	183	0
65	0	0	3052	4	182	0
66	0	0	1822	4	183	0
67	0	0	1051	4	184	0
68	0	0	607	3	183	0
69	0	0	348	4	186	0
70	0	0	204	4	185	0
71	0	0	126	4	185	0
72	0	0	87	4	185	0
73	0	0	67	4	185	0
74	0	0	60	4	185	0
75	0	0	886	5	184	0
76	0	0	2192	5	183	0
77	0	0	2958	5	184	0
78	0	0	3420	5	183	0
79	0	0	3694	5	185	0
80	0	0	3852	5	184	0
81	0	0	3940	5	183	0
82	0	0	3989	5	184	0
83	0	0	4013	5	183	0
84	0	0	3649	4	184	0
85	0	0	2907	4	184	0
86	0	0	2078	3	184	0
87	0	0	1255	4	184	0
88	0	0	721	3	184	0
89	0	0	416	3	184	0
90	0	0	244	3	185	0
91	0	0	149	4	184	0
92	0	0	100	4	184	0
93	0	0	75	4	185	0
94	0	0	566	5	186	0
95	0	0	1304	5	185	0
96	0	0	2220	4	183	0
97	0	0	2916	5	183	0
98	0	0	3373	5	184	0
99	0	0	3666	5	183	0
100	0	0	3835	5	183	0
101	0	0	3867	5	183	0
102	0	0	3848	4	183	0
103	0	0	3511	4	183	0
104	0	0	3109	4	183	0
105	0	0	2750	4	183	0
106	0	0	2364	4	182	0
107	0	0	1959	4	183	0
108	0	0	1549	3	184	0
109	0	0	1214	4	183	0
110	0	0	1000	4	185	0
111	0	0	764	4	183	0
112	0	0	498	4	184	0
113	0	0	716	4	184	0
114	0	0	1076	5	185	0
115	0	0	1476	5	186	0
116	0	0	2031	5	183	0
117	0	0	2490	5	184	0
118	0	0	2821	5	185	0
119	0	0	3073	5	183	0
120	0	0	3254	5	184	0
121	0	0	3353	5	183	0
122	0	0	3421	4	183	0
123	0	0	3247	4	183	0
124	0	0	2995	4	184	0
125	0	0	2753	4	183	0
126	0	0	2464	4	182	0
127	0	0	2133	4	184	0
0	0	0	1777	4	184	0
1	0	0	1461	4	183	0
2	0	0	1234	4	184	0
3	0	0	995	4	184	0
4	0	0	724	4	185	0
5	0	0	825	5	184	0
6	0	0	1069	4	185	0
7	0	0	1380	4	184	0
8	0	0	1835	5	185	0
9	0	0	2227	5	184	0
10	0	0	2508	4	184	0
11	0	0	2742	5	184	0
12	0	0	2903	5	184	0
13	0	0	2995	5	182	0
14	0	0	3050	4	183	0
15	0	0	2899	4	183	0
16	0	0	2679	4	183	0
17	0	0	2459	4	183	0
18	0	0	2202	4	184	0
19	0	0	1909	4	184	0
20	0	0	1613	4	184	0
21	0	0	1350	4	184	0
22	0	0	1187	4	184	0
23	0	0	989	4	184	0
24	0	0	793	4	185	0
25	0	0	974	4	184	0
26	0	0	1258	5	184	0
27	0	0	1571	5	185	0
28	0	0	2016	5	184	0
29	0	0	2369	5	185	0
30	0	0	2588	5	184	0
31	0	0	2751	5	184	0
32	0	0	2843	5	183	0
33	0	0	2867	5	184	0
34	0	0	2866	4	185	0
35	0	0	2672	4	184	0
36	0	0	2448	4	183	0
37	0	0	2249	4	184	0
38	0	0	2010	4	184	0
39	0	0	1748	4	184	0
40	0	0	1500	5	184	0
41	0	0	1301	3	184	0
42	0	0	1198	4	185	0
43	0	0	1037	4	184	0
44	0	0	908	5	184	0
45	0	0	1157	4	185	0
46	0	0	1464	5	185	0
47	0	0	1786	5	184	0
48	0	0	2223	5	185	0
49	0	0	2528	5	184	0
50	0	0	2700	5	184	0
51	0	0	2811	4	184	0
52	0	0	2862	4	184	0
53	0	0	2852	5	183	0
54	0	0	2833	4	182	0
55	0	0	2618	4	183	0
56	0	0	2393	4	183	0
57	0	0	2211	4	184	0
58	0	0	1995	4	183	0
59	0	0	1756	4	184	0
60	0	0	1532	4	185	0
61	0	0	1363	4	184	0
62	0	0	1294	4	183	0
63	0	0	1146	4	184	0
64	0	0	1038	5	185	0
65	0	0	1296	4	186	0
66	0	0	1603	5	184	0
67	0	0	1915	5	184	0
68	0	0	2322	5	183	0
69	0	0	2589	5	184	0
70	0	0	2732	4	183	0
71	0	0	2823	5	183	0
72	0	0	2854	5	183	0
73	0	0	2844	5	182	0
74	0	0	2813	5	183	0
75	0	0	2618	4	183	0
76	0	0	2407	4	184	0
77	0	0	2238	4	184	0
78	0	0	2040	4	184	0
79	0	0	1819	4	184	0
80	0	0	1608	4	184	0
81	0	0	1451	4	184	0
82	0	0	1377	4	183	0
83	0	0	1241	4	184	0
84	0	0	1131	5	185	0
85	0	0	1350	5	185	0
86	0	0	1616	4	185	0
87	0	0	1895	5	184	0
88	0	0	2270	5	185	0
89	0	0	2531	5	184	0
90	0	0	2675	5	183	0
91	0	0	2780	5	184	0
92	0	0	2827	5	184	0
93	0	0	2839	5	183	0
94	0	0	2828	4	184	0
95	0	0	2656	4	183	0
96	0	0	2462	3	184	0
97	0	0	2310	4	183	0
98	0	0	2128	4	184	0
99	0	0	1916	4	184	0
100	0	0	1707	5	183	0
101	0	0	1541	4	184	0
102	0	0	1450	4	185	0
103	0	0	1303	4	183	0
104	0	0	1175	5	185	0
105	0	0	1353	4	184	0
106	0	0	1584	4	185	0
107	0	0	1838	5	184	0
108	0	0	2177	4	184	0
109	0	0	2425	5	183	0
110	0	0	2577	4	185	0
111	0	0	2690	5	183	0
112	0	0	2749	5	184	0
113	0	0	2773	5	184	0
114	0	0	2768	4	183	0
115	0	0	2630	4	182	0
116	0	0	2472	4	183	0
117	0	0	2327	4	184	0
118	0	0	2162	4	184	0
119	0	0	1973	4	185	0
120	0	0	1779	3	183	0
121	0	0	1614	3	184	0
122	0	0	1523	4	184	0
123	0	0	1384	4	184	0
124	0	0	1262	5	185	0
125	0	0	1404	5	186	0
126	0	0	1600	5	185	0
127	0	0	1810	4	185	0
0	0	0	2120	5	183	0
1	0	0	2347	5	184	0
2	0	0	2495	5	184	0
3	0	0	2604	5	184	0
4	0	0	2678	5	184	0
5	0	0	2711	5	184	0
6	0	0	2729	4	184	0
7	0	0	2624	4	184	0
8	0	0	2495	4	183	0
9	0	0	2383	4	184	0
10	0	0	2248	4	183	0
11	0	0	2083	4	183	0
12	0	0	1904	4	183	0
13	0	0	1743	4	185	0
14	0	0	1647	4	184	0
15	0	0	1503	4	184	0
16	0	0	1369	4	184	0
17	0	0	1473	5	186	0
18	0	0	1630	4	185	0
19	0	0	1814	4	183	0
20	0	0	2104	5	184	0
21	0	0	2335	5	183	0
22	0	0	2492	5	184	0
23	0	0	2620	5	184	0
24	0	0	2710	5	184	0
25	0	0	2751	5	182	0
26	0	0	2796	5	183	0
27	0	0	2721	4	183	0
28	0	0	2617	4	184	0
29	0	0	2516	4	183	0
30	0	0	2379	4	184	0
31	0	0	2214	4	184	0
32	0	0	2026	4	184	0
33	0	0	1855	4	185	0
34	0	0	1735	4	184	0
35	0	0	1592	4	185	0
36	0	0	1438	4	184	0
37	0	0	1497	5	184	0
38	0	0	1624	4	185	0
39	0	0	1786	5	184	0
40	0	0	2061	5	184	0
41	0	0	2295	5	184	0
42	0	0	2488	5	183	0
43	0	0	2656	4	184	0
44	0	0	2805	5	183	0
45	0	0	2900	5	182	0
46	0	0	2994	5	184	0
47	0	0	3019	3	184	0
48	0	0	2987	3	184	0
49	0	0	2936	4	183	0
50	0	0	2840	4	182	0
51	0	0	2811	5	184	0
52	0	0	3327	5	184	0
53	0	0	3613	5	184	0
54	0	0	3777	4	183	0
55	0	0	3867	5	185	0
56	0	0	3919	5	184	0
57	0	0	3945	5	185	0
58	0	0	3959	5	184	0
59	0	0	3962	5	185	0
60	0	0	3963	5	184	0
61	0	0	3961	5	183	0
62	0	0	3957	5	184	0
63	0	0	3954	4	182	0
64	0	0	3949	5	182	0
65	0	0	3944	5	182	0
66	0	0	3939	5	184	0
67	0	0	3934	5	185	0
68	0	0	3929	5	183	0
69	0	0	3924	5	183	0
70	0	0	3919	5	183	0
71	0	0	3913	5	182	0
72	0	0	3910	5	184	0
73	0	0	3904	5	183	0
74	0	0	3899	5	184	0
75	0	0	3895	5	184	0
76	0	0	3207	4	184	0
77	0	0	1745	4	183	0
78	0	0	943	4	184	0
79	0	0	482	4	184	0
80	0	0	215	4	183	0
81	0	0	65	4	183	0
82	0	0	0	3	183	0
83	0	0	974	5	184	0
84	0	0	2173	5	183	0
85	0	0	2882	5	183	0
86	0	0	3305	5	182	0
87	0	0	3558	5	183	0
88	0	0	3703	5	183	0
89	0	0	3785	5	182	0
90	0	0	3828	6	184	0
91	0	0	3851	5	183	0
92	0	0	3861	5	184	0
93	0	0	3865	5	184	0
94	0	0	3697	3	184	0
95	0	0	2708	4	184	0
96	0	0	1588	4	184	0
97	0	0	843	4	184	0
98	0	0	413	4	184	0
99	0	0	170	4	184	0
100	0	0	31	4	183	0
101	0	0	0	4	183	0
102	0	0	0	4	184	0
103	0	0	492	5	183	0
104	0	0	1856	4	183	0
105	0	0	2690	5	183	0
106	0	0	3186	5	182	0
107	0	0	3485	5	183	0
108	0	0	3660	5	183	0
109	0	0	3758	5	183	0
110	0	0	3811	5	184	0
111	0	0	3838	5	184	0
112	0	0	3852	5	183	0
113	0	0	3857	5	184	0
114	0	0	2896	4	184	0
115	0	0	1778	3	183	0
116	0	0	963	3	184	0
117	0	0	480	4	184	0
118	0	0	204	4	184	0
119	0	0	50	4	185	0
120	0	0	0	4	183	0
121	0	0	0	4	185	0
122	0	0	0	4	183	0
123	0	0	283	4	183	0
124	0	0	1677	4	183	0
125	0	0	2584	5	183	0
126	0	0	3128	5	184	0
127	0	0	3449	5	184	0
0	0	0	3642	5	183	0
1	0	0	3749	5	183	0
2	0	0	3808	5	183	0
3	0	0	3839	5	183	0
4	0	0	3855	5	183	0
5	0	0	3862	5	184	0
6	0	0	2718	4	183	0
7	0	0	1589	4	184	0
8	0	0	846	3	184	0
9	0	0	418	4	184	0
10	0	0	171	4	186	0
11	0	0	33	4	184	0
12	0	0	0	4	184	0
13	0	0	0	4	184	0
14	0	0	0	4	184	0
15	0	0	386	5	183	0
16	0	0	1740	4	184	0
17	0	0	2624	5	183	0
18	0	0	3154	5	184	0
19	0	0	3468	5	184	0
20	0	0	3654	5	183	0
21	0	0	3760	5	184	0
22	0	0	3815	5	183	0
23	0	0	3845	5	184	0
24	0	0	3860	5	183	0
25	0	0	3764	4	185	0
26	0	0	2358	3	185	0
27	0	0	1290	4	184	0
28	0	0	674	4	184	0
29	0	0	323	4	185	0
30	0	0	120	4	184	0
31	0	0	10	4	183	0
32	0	0	0	4	184	0
33	0	0	0	4	184	0
34	0	0	0	4	184	0
35	0	0	462	5	184	0
36	0	0	1811	5	183	0
37	0	0	2670	5	184	0
38	0	0	3185	5	184	0
39	0	0	3490	5	184	0
40	0	0	3670	5	183	0
41	0	0	3772	4	184	0
42	0	0	3825	5	183	0
43	0	0	3855	5	183	0
44	0	0	3870	5	184	0
45	0	0	3643	4	183	0
46	0	0	2202	4	184	0
47	0	0	1205	4	185	0
48	0	0	628	4	184	0
49	0	0	299	4	185	0
50	0	0	110	3	185	0
51	0	0	8	3	184	0
52	0	0	0	4	185	0
53	0	0	0	4	184	0
54	0	0	0	4	184	0
55	0	0	569	5	184	0
56	0	0	1883	4	184	0
57	0	0	2715	5	183	0
58	0	0	3215	5	183	0
59	0	0	3511	5	183	0
60	0	0	3686	5	183	0
61	0	0	3783	5	184	0
62	0	0	3836	5	183	0
63	0	0	3864	5	183	0
64	0	0	3878	5	183	0
65	0	0	3567	4	184	0
66	0	0	2148	3	184	0
67	0	0	1178	4	184	0
68	0	0	616	4	183	0
69	0	0	292	5	183	0
70	0	0	112	4	184	0
71	0	0	11	4	184	0
72	0	0	0	4	184	0
73	0	0	0	3	185	0
74	0	0	0	4	184	0
75	0	0	286	5	184	0
76	0	0	1654	5	184	0
77	0	0	2574	5	184	0
78	0	0	3134	5	183	0
79	0	0	3469	5	184	0
80	0	0	3665	5	183	0
81	0	0	3775	4	184	0
82	0	0	3837	5	184	0
83	0	0	3868	5	184	0
84	0	0	3884	5	184	0
85	0	0	3630	4	185	0
86	0	0	2189	4	184	0
87	0	0	1215	4	183	0
88	0	0	642	4	184	0
89	0	0	313	4	184	0
90	0	0	127	4	184	0
91	0	0	24	3	184	0
92	0	0	0	4	183	0
93	0	0	0	4	183	0
94	0	0	0	4	184	0
95	0	0	393	5	184	0
96	0	0	1758	4	183	0
97	0	0	2639	5	184	0
98	0	0	3178	5	183	0
99	0	0	3499	5	182	0
100	0	0	3685	5	184	0
101	0	0	3791	5	184	0
102	0	0	3848	5	184	0
103	0	0	3880	5	184	0
104	0	0	3895	6	183	0
105	0	0	3678	4	183	0
106	0	0	2244	4	183	0
107	0	0	1250	4	185	0
108	0	0	666	3	185	0
109	0	0	328	4	185	0
110	0	0	139	4	184	0
111	0	0	33	4	184	0
112	0	0	0	4	184	0
113	0	0	0	4	184	0
114	0	0	0	4	185	0
115	0	0	255	5	184	0
116	0	0	1611	4	184	0
117	0	0	2564	5	183	0
118	0	0	3131	5	183	0
119	0	0	3475	4	184	0
120	0	0	3676	5	183	0
121	0	0	3789	5	183	0
122	0	0	3850	5	184	0
123	0	0	3885	4	184	0
124	0	0	3900	5	184	0
125	0	0	3770	4	184	0
126	0	0	2353	4	184	0
127	0	0	1352	4	184	0
0	0	0	732	5	184	0
1	0	0	370	4	184	0
2	0	0	166	4	184	0
3	0	0	52	4	185	0
4	0	0	0	4	184	0
5	0	0	0	4	183	0
6	0	0	0	4	183	0
7	0	0	67	6	184	0
8	0	0	1415	4	183	0
9	0	0	2453	5	183	0
10	0	0	3064	4	183	0
11	0	0	3440	5	183	0
12	0	0	3659	5	184	0
13	0	0	3783	5	184	0
14	0	0	3851	5	183	0
15	0	0	3889	5	184	0
16	0	0	3905	5	184	0
17	0	0	3814	4	184	0
18	0	0	2433	3	184	0
19	0	0	1528	4	184	0
20	0	0	840	4	184	0
21	0	0	436	4	185	0
22	0	0	206	4	184	0
23	0	0	79	3	184	0
24	0	0	10	4	184	0
25	0	0	0	4	183	0
26	0	0	0	4	184	0
27	0	0	0	3	184	0
28	0	0	1070	5	184	0
29	0	0	2104	5	184	0
30	0	0	2838	5	183	0
31	0	0	3308	5	183	0
32	0	0	3586	5	183	0
33	0	0	3744	5	183	0
34	0	0	3835	5	184	0
35	0	0	3883	5	184	0
36	0	0	3909	5	184	0
37	0	0	3922	5	184	0
38	0	0	2880	4	185	0
39	0	0	2207	4	184	0
40	0	0	1328	3	184	0
41	0	0	721	2	185	0
42	0	0	372	5	184	0
43	0	0	173	4	183	0
44	0	0	65	4	184	0
45	0	0	7	4	184	0
46	0	0	0	5	185	0
47	0	0	0	4	183	0
48	0	0	451	4	183	0
49	0	0	1310	4	185	0
50	0	0	2259	5	185	0
51	0	0	2953	5	184	0
52	0	0	3380	4	182	0
53	0	0	3631	4	183	0
54	0	0	3772	5	183	0
55	0	0	3854	5	184	0
56	0	0	3898	5	184	0
57	0	0	3921	5	183	0
58	0	0	3579	4	184	0
59	0	0	3165	4	184	0
60	0	0	2125	4	183	0
61	0	0	1194	3	185	0
62	0	0	647	5	185	0
63	0	0	331	4	185	0
64	0	0	156	4	185	0
65	0	0	57	4	184	0
66	0	0	6	4	183	0
67	0	0	0	3	184	0
68	0	0	0	4	183	0
69	0	0	693	5	183	0
70	0	0	1713	5	184	0
71	0	0	2631	5	183	0
72	0	0	3188	5	184	0
73	0	0	3520	4	183	0
74	0	0	3712	5	184	0
75	0	0	3823	5	183	0
76	0	0	3884	5	184	0
77	0	0	3916	6	184	0
78	0	0	3914	4	185	0
79	0	0	3826	5	184	0
80	0	0	2869	3	185	0
81	0	0	1609	5	185	0
82	0	0	888	4	185	0
83	0	0	471	4	183	0
84	0	0	233	3	183	0
85	0	0	102	4	184	0
86	0	0	30	4	184	0
87	0	0	0	3	184	0
88	0	0	0	4	184	0
89	0	0	0	4	183	0
90	0	0	1062	5	184	0
91	0	0	2258	4	184	0
92	0	0	2963	5	184	0
93	0	0	3388	5	185	0
94	0	0	3639	5	184	0
95	0	0	3782	5	184	0
96	0	0	3865	5	184	0
97	0	0	3908	4	184	0
98	0	0	3929	5	183	0
99	0	0	3938	5	184	0
100	0	0	3335	4	185	0
101	0	0	1833	5	185	0
102	0	0	1029	4	184	0
103	0	0	553	3	184	0
104	0	0	283	4	185	0
105	0	0	132	4	183	0
106	0	0	49	4	183	0
107	0	0	6	4	183	0
108	0	0	0	4	183	0
109	0	0	0	4	183	0
110	0	0	539	5	183	0
111	0	0	1964	5	184	0
112	0	0	2783	6	183	0
113	0	0	3283	5	184	0
114	0	0	3580	5	184	0
115	0	0	3752	4	184	0
116	0	0	3849	5	183	0
117	0	0	3903	5	184	0
118	0	0	3930	5	183	0
119	0	0	3942	5	183	0
120	0	0	3739	3	184	0
121	0	0	2080	4	185	0
122	0	0	1176	4	185	0
123	0	0	642	4	184	0
124	0	0	335	4	184	0
125	0	0	161	4	184	0
126	0	0	68	4	184	0
127	0	0	18	4	185	0
0	0	0	0	4	184	0
1	0	0	0	4	184	0
2	0	0	102	4	183	0
3	0	0	1691	5	183	0
4	0	0	2624	6	183	0
5	0	0	3189	5	184	0
6	0	0	3527	5	183	0
7	0	0	3723	5	184	0
8	0	0	3837	5	184	0
9	0	0	3899	5	184	0
10	0	0	3931	5	184	0
11	0	0	3946	5	183	0
12	0	0	3952	4	185	0
13	0	0	2407	4	185	0
14	0	0	1365	3	184	0
15	0	0	753	3	185	0
16	0	0	401	4	183	0
17	0	0	202	4	184	0
18	0	0	92	4	184	0
19	0	0	34	4	183	0
20	0	0	4	4	184	0
21	0	0	0	4	183	0
22	0	0	0	5	183	0
23	0	0	1479	5	184	0
24	0	0	2501	5	184	0
25	0	0	3117	5	183	0
26	0	0	3486	5	183	0
27	0	0	3704	5	184	0
28	0	0	3828	5	184	0
29	0	0	3895	5	184	0
30	0	0	3931	5	184	0
31	0	0	3949	5	183	0
32	0	0	3958	4	184	0
33	0	0	2748	3	184	0
34	0	0	1544	5	183	0
35	0	0	867	3	184	0
36	0	0	469	3	184	0
37	0	0	241	4	184	0
38	0	0	116	4	184	0
39	0	0	48	4	184	0
40	0	0	13	3	184	0
41	0	0	0	4	184	0
42	0	0	0	4	183	0
43	0	0	1292	4	184	0
44	0	0	2406	5	184	0
45	0	0	3054	5	183	0
46	0	0	3451	5	184	0
47	0	0	3685	5	184	0
48	0	0	3817	5	184	0
49	0	0	3892	5	184	0
50	0	0	3932	5	184	0
51	0	0	3951	5	183	0
52	0	0	3961	4	185	0
53	0	0	2903	5	185	0
54	0	0	1629	3	185	0
55	0	0	917	4	184	0
56	0	0	498	4	185	0
57	0	0	259	4	183	0
58	0	0	128	4	183	0
59	0	0	56	4	184	0
60	0	0	20	4	184	0
61	0	0	3	4	184	0
62	0	0	0	4	183	0
63	0	0	1275	5	184	0
64	0	0	2398	5	183	0
65	0	0	3050	5	183	0
66	0	0	3451	5	183	0
67	0	0	3686	5	184	0
68	0	0	3820	5	184	0
69	0	0	3896	5	185	0
70	0	0	3934	5	183	0
71	0	0	3955	5	185	0
72	0	0	3962	5	184	0
73	0	0	2987	4	184	0
74	0	0	1675	4	184	0
75	0	0	938	3	184	0
76	0	0	517	4	184	0
77	0	0	272	4	183	0
78	0	0	134	4	184	0
79	0	0	62	4	184	0
80	0	0	24	4	184	0
81	0	0	7	4	183	0
82	0	0	1	4	182	0
83	0	0	1267	5	184	0
84	0	0	2394	5	182	0
85	0	0	3056	5	184	0
86	0	0	3451	5	184	0
87	0	0	3688	4	184	0
88	0	0	3824	5	184	0
89	0	0	3898	5	183	0
90	0	0	3936	5	184	0
91	0	0	3957	5	185	0
92	0	0	3966	5	185	0
93	0	0	3212	3	184	0
94	0	0	1787	4	184	0
95	0	0	1005	4	184	0
96	0	0	556	3	184	0
97	0	0	294	4	182	0
98	0	0	148	4	184	0
99	0	0	69	3	184	0
100	0	0	29	3	183	0
101	0	0	10	4	183	0
102	0	0	3	4	183	0
103	0	0	989	5	182	0
104	0	0	2242	6	184	0
105	0	0	2965	5	183	0
106	0	0	3398	5	182	0
107	0	0	3657	5	184	0
108	0	0	3806	5	184	0
109	0	0	3891	6	184	0
110	0	0	3933	5	184	0
111	0	0	3957	5	184	0
112	0	0	3968	4	184	0
113	0	0	3253	4	184	0
114	0	0	1821	4	183	0
115	0	0	1027	4	184	0
116	0	0	565	4	185	0
117	0	0	303	4	184	0
118	0	0	155	4	184	0
119	0	0	74	4	183	0
120	0	0	33	4	184	0
121	0	0	14	4	184	0
122	0	0	6	4	184	0
123	0	0	894	5	184	0
124	0	0	2177	5	183	0
125	0	0	2929	5	184	0
126	0	0	3381	5	184	0
127	0	0	3646	5	183	0
0	0	0	3802	5	184	0
1	0	0	3890	5	184	0
2	0	0	3935	5	184	0
3	0	0	3959	5	184	0
4	0	0	3970	5	184	0
5	0	0	3377	4	185	0
6	0	0	1886	5	185	0
7	0	0	1066	4	184	0
8	0	0	589	4	185	0
9	0	0	316	4	185	0
10	0	0	164	4	184	0
11	0	0	81	6	184	0
12	0	0	38	4	183	0
13	0	0	17	4	185	0
14	0	0	11	4	184	0
15	0	0	821	5	183	0
16	0	0	2139	5	185	0
17	0	0	2906	6	183	0
18	0	0	3370	5	184	0
19	0	0	3642	5	185	0
20	0	0	3800	5	183	0
21	0	0	3890	5	184	0
22	0	0	3939	5	185	0
23	0	0	3961	5	184	0
24	0	0	3972	5	184	0
25	0	0	3542	4	184	0
26	0	0	1970	5	185	0
27	0	0	1123	5	185	0
28	0	0	623	4	183	0
29	0	0	336	4	184	0
30	0	0	177	4	184	0
31	0	0	89	4	184	0
32	0	0	43	4	184	0
33	0	0	21	4	183	0
34	0	0	13	4	183	0
35	0	0	655	5	185	0
36	0	0	2053	5	184	0
37	0	0	2849	5	183	0
38	0	0	3336	5	184	0
39	0	0	3625	5	184	0
40	0	0	3790	6	184	0
41	0	0	3886	5	183	0
42	0	0	3937	6	185	0
43	0	0	3964	5	185	0
44	0	0	3975	5	184	0
45	0	0	3647	4	184	0
46	0	0	2043	4	184	0
47	0	0	1167	4	184	0
48	0	0	650	3	183	0
49	0	0	353	4	184	0
50	0	0	185	4	184	0
51	0	0	96	4	182	0
52	0	0	48	5	184	0
53	0	0	25	4	184	0
54	0	0	16	4	184	0
55	0	0	283	6	183	0
56	0	0	1807	5	184	0
57	0	0	2704	5	184	0
58	0	0	3250	5	184	0
59	0	0	3576	5	183	0
60	0	0	3767	5	182	0
61	0	0	3873	5	183	0
62	0	0	3933	5	185	0
63	0	0	3962	5	185	0
64	0	0	3977	4	184	0
65	0	0	3984	4	183	0
66	0	0	2486	4	183	0
67	0	0	1413	4	184	0
68	0	0	799	3	184	0
69	0	0	439	3	185	0
70	0	0	235	4	183	0
71	0	0	124	4	184	0
72	0	0	64	4	184	0
73	0	0	34	4	183	0
74	0	0	21	4	184	0
75	0	0	94	5	183	0
76	0	0	1620	5	183	0
77	0	0	2603	6	183	0
78	0	0	3184	5	184	0
79	0	0	3538	5	184	0
80	0	0	3744	6	183	0
81	0	0	3861	5	184	0
82	0	0	3927	4	184	0
83	0	0	3963	5	184	0
84	0	0	3977	5	185	0
85	0	0	3983	5	184	0
86	0	0	2674	3	183	0
87	0	0	1516	4	184	0
88	0	0	860	4	184	0
89	0	0	476	4	184	0
90	0	0	256	5	184	0
91	0	0	135	4	182	0
92	0	0	71	3	183	0
93	0	0	39	4	184	0
94	0	0	24	5	183	0
95	0	0	62	5	184	0
96	0	0	1585	5	184	0
97	0	0	2584	5	184	0
98	0	0	3173	5	184	0
99	0	0	3532	4	184	0
100	0	0	3743	5	184	0
101	0	0	3862	5	184	0
102	0	0	3928	5	185	0
103	0	0	3961	5	185	0
104	0	0	3978	4	184	0
105	0	0	3986	5	184	0
106	0	0	2818	4	184	0
107	0	0	1596	3	183	0
108	0	0	900	3	185	0
109	0	0	502	4	184	0
110	0	0	271	4	184	0
111	0	0	143	4	184	0
112	0	0	76	3	185	0
113	0	0	41	4	183	0
114	0	0	26	3	183	0
115	0	0	39	5	184	0
116	0	0	1582	5	184	0
117	0	0	2582	5	184	0
118	0	0	3177	5	184	0
119	0	0	3531	5	183	0
120	0	0	3743	5	182	0
121	0	0	3861	5	184	0
122	0	0	3928	5	184	0
123	0	0	3961	5	184	0
124	0	0	3977	5	184	0
125	0	0	3985	5	184	0
126	0	0	2867	4	185	0
127	0	0	1621	4	184	0
0	0	0	915	4	185	0
1	0	0	511	4	184	0
2	0	0	277	3	183	0
3	0	0	147	4	183	0
4	0	0	76	4	183	0
5	0	0	41	4	183	0
6	0	0	26	4	184	0
7	0	0	18	4	185	0
8	0	0	1085	5	184	0
9	0	0	2291	4	184	0
10	0	0	3004	5	185	0
11	0	0	3428	5	184	0
12	0	0	3683	5	184	0
13	0	0	3829	5	184	0
14	0	0	3909	5	184	0
15	0	0	3953	5	185	0
16	0	0	3975	5	185	0
17	0	0	3986	5	185	0
18	0	0	3014	4	186	0
19	0	0	1700	3	184	0
20	0	0	962	4	185	0
21	0	0	536	3	184	0
22	0	0	295	4	184	0
23	0	0	158	4	185	0
24	0	0	85	3	185	0
25	0	0	47	4	184	0
26	0	0	30	5	184	0
27	0	0	23	4	184	0
28	0	0	1239	5	184	0
29	0	0	2385	4	184	0
30	0	0	3059	5	184	0
31	0	0	3467	5	183	0
32	0	0	3704	5	185	0
33	0	0	3842	5	184	0
34	0	0	3918	4	184	0
35	0	0	3959	5	185	0
36	0	0	3980	5	184	0
37	0	0	3989	5	184	0
38	0	0	3055	4	185	0
39	0	0	1733	4	184	0
40	0	0	982	4	183	0
41	0	0	549	4	184	0
42	0	0	302	3	184	0
43	0	0	162	4	184	0
44	0	0	87	3	183	0
45	0	0	50	4	184	0
46	0	0	32	4	185	0
47	0	0	24	4	183	0
48	0	0	1172	5	183	0
49	0	0	2336	4	184	0
50	0	0	3031	5	183	0
51	0	0	3449	5	183	0
52	0	0	3695	5	184	0
53	0	0	3838	5	183	0
54	0	0	3915	4	184	0
55	0	0	3959	5	184	0
56	0	0	3979	5	184	0
57	0	0	3991	5	185	0
58	0	0	2833	4	185	0
59	0	0	1617	4	184	0
60	0	0	917	4	185	0
61	0	0	513	4	185	0
62	0	0	280	4	184	0
63	0	0	153	4	183	0
64	0	0	83	4	184	0
65	0	0	49	4	184	0
66	0	0	33	3	183	0
67	0	0	27	4	183	0
68	0	0	1436	5	182	0
69	0	0	2490	5	183	0
70	0	0	3127	5	184	0
71	0	0	3507	5	184	0
72	0	0	3731	5	183	0
73	0	0	3859	4	184	0
74	0	0	3928	4	183	0
75	0	0	3966	5	184	0
76	0	0	3984	5	185	0
77	0	0	3993	5	185	0
78	0	0	2697	4	185	0
79	0	0	1534	4	185	0
80	0	0	875	3	184	0
81	0	0	488	3	184	0
82	0	0	268	3	183	0
83	0	0	147	4	185	0
84	0	0	81	3	184	0
85	0	0	48	4	183	0
86	0	0	35	4	183	0
87	0	0	48	4	184	0
88	0	0	1513	5	183	0
89	0	0	2546	4	183	0
90	0	0	3155	5	184	0
91	0	0	3525	5	184	0
92	0	0	3742	5	184	0
93	0	0	3865	5	183	0
94	0	0	3932	5	185	0
95	0	0	3971	5	183	0
96	0	0	3987	5	184	0
97	0	0	3993	5	184	0
98	0	0	2612	4	183	0
99	0	0	1488	4	183	0
100	0	0	849	4	184	0
101	0	0	473	4	184	0
102	0	0	261	4	183	0
103	0	0	143	4	184	0
104	0	0	80	4	184	0
105	0	0	48	4	184	0
106	0	0	35	4	184	0
107	0	0	95	5	183	0
108	0	0	1590	5	184	0
109	0	0	2591	5	184	0
110	0	0	3182	5	184	0
111	0	0	3542	5	184	0
112	0	0	3752	5	184	0
113	0	0	3872	5	183	0
114	0	0	3937	4	184	0
115	0	0	3975	5	183	0
116	0	0	3989	5	184	0
117	0	0	3996	5	184	0
118	0	0	2595	4	184	0
119	0	0	1478	3	183	0
120	0	0	838	4	183	0
121	0	0	471	4	184	0
122	0	0	259	4	185	0
123	0	0	143	4	185	0
124	0	0	82	3	184	0
125	0	0	50	4	184	0
126	0	0	36	4	184	0
127	0	0	131	5	183	0
0	0	0	1625	4	183	0
1	0	0	2612	5	184	0
2	0	0	3201	5	183	0
3	0	0	3551	5	185	0
4	0	0	3759	5	186	0
5	0	0	3876	5	184	0
6	0	0	3942	5	184	0
7	0	0	3973	5	185	0
8	0	0	3991	5	182	0
9	0	0	3998	4	183	0
10	0	0	2537	3	184	0
11	0	0	1448	3	184	0
12	0	0	821	4	184	0
13	0	0	462	4	184	0
14	0	0	255	4	184	0
15	0	0	140	4	184	0
16	0	0	80	3	184	0
17	0	0	50	4	184	0
18	0	0	36	5	184	0
19	0	0	186	5	184	0
20	0	0	1666	5	184	0
21	0	0	2639	5	184	0
22	0	0	3216	5	185	0
23	0	0	3559	4	185	0
24	0	0	3763	5	184	0
25	0	0	3880	5	184	0
26	0	0	3943	3	183	0
27	0	0	3976	5	184	0
28	0	0	3992	5	183	0
29	0	0	3999	4	183	0
30	0	0	2499	4	183	0
31	0	0	1427	2	183	0
32	0	0	809	3	184	0
33	0	0	452	4	184	0
34	0	0	251	4	184	0
35	0	0	140	4	184	0
36	0	0	79	3	182	0
37	0	0	51	4	183	0
38	0	0	38	4	184	0
39	0	0	207	5	183	0
40	0	0	1696	5	183	0
41	0	0	2655	4	184	0
42	0	0	3229	5	184	0
43	0	0	3571	6	184	0
44	0	0	3768	5	184	0
45	0	0	3883	5	184	0
46	0	0	3945	5	184	0
47	0	0	3977	5	184	0
48	0	0	3994	5	184	0
49	0	0	3998	4	185	0
50	0	0	2443	4	185	0
51	0	0	1406	4	183	0
52	0	0	797	3	184	0
53	0	0	446	4	184	0
54	0	0	249	4	184	0
55	0	0	138	4	183	0
56	0	0	79	4	184	0
57	0	0	51	4	184	0
58	0	0	39	3	184	0
59	0	0	223	5	184	0
60	0	0	1734	5	183	0
61	0	0	2669	5	184	0
62	0	0	3236	5	184	0
63	0	0	3575	5	185	0
64	0	0	3772	5	183	0
65	0	0	3886	5	184	0
66	0	0	3946	5	184	0
67	0	0	3979	5	184	0
68	0	0	3995	5	185	0
69	0	0	4000	4	184	0
70	0	0	2487	3	185	0
71	0	0	1422	4	184	0
72	0	0	807	4	184	0
73	0	0	455	3	184	0
74	0	0	252	4	185	0
75	0	0	141	4	183	0
76	0	0	82	4	184	0
77	0	0	52	4	184	0
78	0	0	39	4	184	0
79	0	0	262	4	184	0
80	0	0	1770	5	183	0
81	0	0	2700	5	183	0
82	0	0	3256	5	184	0
83	0	0	3583	5	184	0
84	0	0	3779	5	185	0
85	0	0	3889	5	185	0
86	0	0	3950	5	184	0
87	0	0	3980	5	185	0
88	0	0	3995	4	186	0
89	0	0	4001	4	184	0
90	0	0	2515	4	184	0
91	0	0	1437	4	183	0
92	0	0	816	4	183	0
93	0	0	460	4	184	0
94	0	0	255	4	185	0
95	0	0	143	4	183	0
96	0	0	82	4	184	0
97	0	0	53	4	184	0
98	0	0	40	4	183	0
99	0	0	211	5	183	0
100	0	0	1701	5	183	0
101	0	0	2658	5	184	0
102	0	0	3231	5	184	0
103	0	0	3569	5	183	0
104	0	0	3770	5	184	0
105	0	0	3885	5	183	0
106	0	0	3947	4	184	0
107	0	0	3981	6	185	0
108	0	0	3995	5	185	0
109	0	0	4001	4	184	0
110	0	0	2582	4	185	0
111	0	0	1474	4	184	0
112	0	0	838	4	185	0
113	0	0	470	4	183	0
114	0	0	263	4	184	0
115	0	0	147	4	183	0
116	0	0	84	4	183	0
117	0	0	55	4	184	0
118	0	0	40	4	184	0
119	0	0	161	4	184	0
120	0	0	1617	5	184	0
121	0	0	2609	5	184	0
122	0	0	3201	5	185	0
123	0	0	3555	5	184	0
124	0	0	3761	5	183	0
125	0	0	3880	5	184	0
126	0	0	3944	5	184	0
127	0	0	3978	5	184	0
0	0	0	3996	5	185	0
1	0	0	4004	5	184	0
2	0	0	2757	3	185	0
3	0	0	1581	4	184	0
4	0	0	899	4	185	0
5	0	0	506	4	184	0
6	0	0	282	4	184	0
7	0	0	158	4	184	0
8	0	0	90	4	184	0
9	0	0	56	4	184	0
10	0	0	43	4	184	0
11	0	0	36	6	183	0
12	0	0	1471	5	184	0
13	0	0	2517	5	184	0
14	0	0	3145	5	184	0
15	0	0	3523	4	184	0
16	0	0	3743	6	185	0
17	0	0	3869	5	184	0
18	0	0	3939	5	184	0
19	0	0	3975	5	184	0
20	0	0	3994	5	184	0
21	0	0	4002	6	184	0
22	0	0	2926	4	185	0
23	0	0	1671	4	184	0
24	0	0	952	4	183	0
25	0	0	536	4	185	0
26	0	0	298	3	184	0
27	0	0	167	4	183	0
28	0	0	95	4	184	0
29	0	0	59	4	183	0
30	0	0	44	4	184	0
31	0	0	36	5	183	0
32	0	0	1195	4	184	0
33	0	0	2356	5	184	0
34	0	0	3048	5	183	0
35	0	0	3465	5	184	0
36	0	0	3711	5	183	0
37	0	0	3850	5	185	0
38	0	0	3929	5	183	0
39	0	0	3971	5	184	0
40	0	0	3992	5	184	0
41	0	0	4001	5	184	0
42	0	0	3413	4	185	0
43	0	0	1902	4	185	0
44	0	0	1096	3	184	0
45	0	0	619	4	183	0
46	0	0	345	4	185	0
47	0	0	194	4	184	0
48	0	0	109	4	184	0
49	0	0	67	4	184	0
50	0	0	46	4	184	0
51	0	0	36	5	184	0
52	0	0	749	5	183	0
53	0	0	2105	5	184	0
54	0	0	2892	5	184	0
55	0	0	3372	5	183	0
56	0	0	3657	5	184	0
57	0	0	3821	4	184	0
58	0	0	3912	5	184	0
59	0	0	3963	5	185	0
60	0	0	3988	5	184	0
61	0	0	3999	4	184	0
62	0	0	3857	4	184	0
63	0	0	2140	4	184	0
64	0	0	1232	4	184	0
65	0	0	698	4	185	0
66	0	0	389	5	185	0
67	0	0	219	4	184	0
68	0	0	123	4	184	0
69	0	0	75	4	184	0
70	0	0	51	5	182	0
71	0	0	40	5	183	0
72	0	0	137	4	184	0
73	0	0	1738	5	184	0
74	0	0	2673	5	184	0
75	0	0	3242	5	184	0
76	0	0	3581	4	185	0
77	0	0	3778	5	183	0
78	0	0	3889	5	183	0
79	0	0	3951	5	185	0
80	0	0	3983	5	184	0
81	0	0	3999	4	184	0
82	0	0	4003	5	185	0
83	0	0	2404	4	184	0
84	0	0	1387	4	184	0
85	0	0	789	4	184	0
86	0	0	442	4	183	0
87	0	0	248	4	184	0
88	0	0	141	4	184	0
89	0	0	85	4	184	0
90	0	0	57	5	183	0
91	0	0	44	4	184	0
92	0	0	40	5	183	0
93	0	0	1503	4	185	0
94	0	0	2539	5	183	0
95	0	0	3161	5	182	0
96	0	0	3535	5	186	0
97	0	0	3753	5	185	0
98	0	0	3876	5	184	0
99	0	0	3945	5	184	0
100	0	0	3981	5	182	0
101	0	0	3999	5	184	0
102	0	0	4004	4	184	0
103	0	0	2593	4	184	0
104	0	0	1484	4	183	0
105	0	0	853	4	185	0
106	0	0	481	4	184	0
107	0	0	270	3	183	0
108	0	0	154	4	182	0
109	0	0	92	5	184	0
110	0	0	64	4	184	0
111	0	0	48	4	184	0
112	0	0	43	5	183	0
113	0	0	1440	5	185	0
114	0	0	2513	5	183	0
115	0	0	3140	5	183	0
116	0	0	3523	5	183	0
117	0	0	3748	5	184	0
118	0	0	3874	5	184	0
119	0	0	3945	5	184	0
120	0	0	3982	5	184	0
121	0	0	4000	4	184	0
122	0	0	4007	4	184	0
123	0	0	2567	4	184	0
124	0	0	1471	4	184	0
125	0	0	846	3	184	0
126	0	0	479	4	183	0
127	0	0	270	3	184	0
0	0	0	154	4	185	0
1	0	0	94	4	185	0
2	0	0	66	5	185	0
3	0	0	51	4	185	0
4	0	0	45	5	184	0
5	0	0	1434	5	184	0
6	0	0	2510	5	184	0
7	0	0	3141	5	184	0
8	0	0	3525	5	183	0
9	0	0	3750	5	184	0
10	0	0	3876	5	184	0
11	0	0	3947	5	184	0
12	0	0	3985	5	184	0
13	0	0	4003	5	184	0
14	0	0	4009	4	185	0
15	0	0	2565	4	183	0
16	0	0	1471	4	184	0
17	0	0	840	4	184	0
18	0	0	480	4	183	0
19	0	0	272	4	184	0
20	0	0	157	4	184	0
21	0	0	97	4	184	0
22	0	0	69	4	184	0
23	0	0	52	5	185	0
24	0	0	47	5	185	0
25	0	0	1449	5	183	0
26	0	0	2520	5	184	0
27	0	0	3153	5	184	0
28	0	0	3528	5	185	0
29	0	0	3753	5	184	0
30	0	0	3880	5	183	0
31	0	0	3950	5	184	0
32	0	0	3987	5	184	0
33	0	0	4003	4	185	0
34	0	0	4011	4	185	0
35	0	0	2552	3	184	0
36	0	0	1463	4	184	0
37	0	0	837	3	183	0
38	0	0	479	3	184	0
39	0	0	273	4	184	0
40	0	0	157	4	183	0
41	0	0	99	4	183	0
42	0	0	71	5	184	0
43	0	0	54	5	183	0
44	0	0	49	5	184	0
45	0	0	1478	5	184	0
46	0	0	2538	5	184	0
47	0	0	3164	5	183	0
48	0	0	3536	5	185	0
49	0	0	3759	5	184	0
50	0	0	3885	5	184	0
51	0	0	3954	5	184	0
52	0	0	3990	4	183	0
53	0	0	4010	5	183	0
54	0	0	4014	4	184	0
55	0	0	2565	3	185	0
56	0	0	1473	4	184	0
57	0	0	843	4	184	0
58	0	0	483	4	185	0
59	0	0	276	4	185	0
60	0	0	160	4	184	0
61	0	0	101	4	184	0
62	0	0	72	5	184	0
63	0	0	57	5	184	0
64	0	0	51	5	185	0
65	0	0	1463	5	184	0
66	0	0	2529	5	184	0
67	0	0	3160	5	184	0
68	0	0	3534	5	185	0
69	0	0	3758	5	185	0
70	0	0	3885	5	185	0
71	0	0	3955	5	183	0
72	0	0	3991	4	183	0
73	0	0	4010	5	183	0
74	0	0	4015	4	185	0
75	0	0	2550	3	184	0
76	0	0	1464	4	183	0
77	0	0	840	4	183	0
78	0	0	479	4	184	0
79	0	0	275	4	184	0
80	0	0	162	4	185	0
81	0	0	101	4	183	0
82	0	0	74	4	184	0
83	0	0	58	5	183	0
84	0	0	53	5	183	0
85	0	0	1493	5	183	0
86	0	0	2548	5	184	0
87	0	0	3172	5	185	0
88	0	0	3546	5	184	0
89	0	0	3764	5	184	0
90	0	0	3889	5	184	0
91	0	0	3959	5	185	0
92	0	0	3994	4	182	0
93	0	0	4011	4	184	0
94	0	0	4018	4	185	0
95	0	0	2552	3	184	0
96	0	0	1476	4	183	0
97	0	0	847	3	182	0
98	0	0	484	4	184	0
99	0	0	279	4	183	0
100	0	0	164	4	184	0
101	0	0	103	4	184	0
102	0	0	76	4	185	0
103	0	0	60	5	185	0
104	0	0	54	4	184	0
105	0	0	1472	5	186	0
106	0	0	2527	5	183	0
107	0	0	3161	5	184	0
108	0	0	3541	5	184	0
109	0	0	3760	5	185	0
110	0	0	3889	5	184	0
111	0	0	3958	5	183	0
112	0	0	3995	4	183	0
113	0	0	4013	5	184	0
114	0	0	4019	4	184	0
115	0	0	2549	4	185	0
116	0	0	1476	4	183	0
117	0	0	847	3	184	0
118	0	0	485	4	184	0
119	0	0	278	4	185	0
120	0	0	165	4	184	0
121	0	0	106	4	184	0
122	0	0	77	5	184	0
123	0	0	62	5	184	0
124	0	0	56	4	184	0
125	0	0	1466	5	184	0
126	0	0	2526	5	184	0
127	0	0	3158	6	184	0
0	0	0	3539	5	185	0
1	0	0	3763	5	183	0
2	0	0	3888	5	183	0
3	0	0	3959	5	184	0
4	0	0	3996	4	184	0
5	0	0	4013	4	184	0
6	0	0	4020	4	184	0
7	0	0	2532	4	183	0
8	0	0	1457	4	184	0
9	0	0	843	4	184	0
10	0	0	483	4	185	0
11	0	0	278	4	184	0
12	0	0	165	3	184	0
13	0	0	108	4	184	0
14	0	0	78	4	184	0
15	0	0	63	4	184	0
16	0	0	58	5	184	0
17	0	0	1439	5	183	0
18	0	0	2519	5	185	0
19	0	0	3151	5	183	0
20	0	0	3536	5	184	0
21	0	0	3762	5	185	0
22	0	0	3889	5	183	0
23	0	0	3960	5	183	0
24	0	0	3997	5	184	0
25	0	0	4016	4	185	0
26	0	0	4023	4	183	0
27	0	0	2534	4	184	0
28	0	0	1460	4	184	0
29	0	0	845	2	183	0
30	0	0	486	4	184	0
31	0	0	280	3	185	0
32	0	0	168	4	183	0
33	0	0	109	4	184	0
34	0	0	82	6	184	0
35	0	0	67	4	183	0
36	0	0	60	5	184	0
37	0	0	1481	5	183	0
38	0	0	2543	5	184	0
39	0	0	3167	5	184	0
40	0	0	3546	5	183	0
41	0	0	3768	5	185	0
42	0	0	3892	5	184	0
43	0	0	3965	5	185	0
44	0	0	3999	4	185	0
45	0	0	4017	5	185	0
46	0	0	4024	4	185	0
47	0	0	2521	4	183	0
48	0	0	1452	4	183	0
49	0	0	841	4	185	0
50	0	0	484	3	184	0
51	0	0	280	3	183	0
52	0	0	168	4	183	0
53	0	0	109	4	184	0
54	0	0	80	5	184	0
55	0	0	67	5	184	0
56	0	0	61	5	183	0
57	0	0	1447	5	183	0
58	0	0	2526	5	183	0
59	0	0	3156	5	185	0
60	0	0	3539	5	185	0
61	0	0	3766	5	184	0
62	0	0	3894	5	183	0
63	0	0	3964	6	184	0
64	0	0	4001	5	184	0
65	0	0	4018	5	184	0
66	0	0	4026	4	184	0
67	0	0	2534	4	185	0
68	0	0	1460	4	184	0
69	0	0	841	3	184	0
70	0	0	487	4	184	0
71	0	0	284	4	183	0
72	0	0	170	4	183	0
73	0	0	112	4	184	0
74	0	0	84	5	184	0
75	0	0	68	5	183	0
76	0	0	63	4	184	0
77	0	0	1455	5	184	0
78	0	0	2531	5	184	0
79	0	0	3167	5	185	0
80	0	0	3544	5	184	0
81	0	0	3769	5	184	0
82	0	0	3898	5	184	0
83	0	0	3966	5	184	0
84	0	0	4002	5	183	0
85	0	0	4022	5	184	0
86	0	0	4028	4	183	0
87	0	0	2505	4	184	0
88	0	0	1446	4	185	0
89	0	0	834	4	184	0
90	0	0	483	3	183	0
91	0	0	282	3	185	0
92	0	0	170	3	184	0
93	0	0	114	4	183	0
94	0	0	86	7	184	0
95	0	0	70	4	182	0
96	0	0	65	4	183	0
97	0	0	1404	5	183	0
98	0	0	2503	5	184	0
99	0	0	3150	6	184	0
100	0	0	3535	5	184	0
101	0	0	3765	5	185	0
102	0	0	3894	5	184	0
103	0	0	3969	5	183	0
104	0	0	4004	5	185	0
105	0	0	4024	4	183	0
106	0	0	4030	4	184	0
107	0	0	2467	4	183	0
108	0	0	1426	4	183	0
109	0	0	823	3	184	0
110	0	0	476	4	184	0
111	0	0	280	4	184	0
112	0	0	170	4	183	0
113	0	0	115	4	184	0
114	0	0	88	5	183	0
115	0	0	72	4	184	0
116	0	0	67	5	183	0
117	0	0	1392	5	185	0
118	0	0	2497	5	184	0
119	0	0	3149	7	183	0
120	0	0	3538	4	184	0
121	0	0	3766	5	183	0
122	0	0	3896	5	185	0
123	0	0	3969	5	185	0
124	0	0	4006	5	185	0
125	0	0	4025	5	184	0
126	0	0	4032	4	184	0
127	0	0	2477	4	184	0
0	0	0	1441	3	185	0
1	0	0	833	4	184	0
2	0	0	482	3	182	0
3	0	0	285	4	183	0
4	0	0	173	4	183	0
5	0	0	116	4	184	0
6	0	0	90	7	183	0
7	0	0	76	5	184	0
8	0	0	70	5	184	0
9	0	0	1491	5	182	0
10	0	0	2545	5	184	0
11	0	0	3178	5	185	0
12	0	0	3557	5	184	0
13	0	0	3776	5	183	0
14	0	0	3903	5	183	0
15	0	0	3974	6	184	0
16	0	0	4009	5	184	0
17	0	0	4030	4	184	0
18	0	0	4034	5	184	0
19	0	0	2490	4	183	0
20	0	0	1450	4	183	0
21	0	0	838	4	184	0
22	0	0	486	3	184	0
23	0	0	288	4	185	0
24	0	0	177	4	183	0
25	0	0	120	4	184	0
26	0	0	91	4	185	0
27	0	0	77	5	185	0
28	0	0	72	5	184	0
29	0	0	1509	5	183	0
30	0	0	2555	5	184	0
31	0	0	3184	5	184	0
32	0	0	3560	5	184	0
33	0	0	3779	5	183	0
34	0	0	3905	5	184	0
35	0	0	3975	5	184	0
36	0	0	4013	5	184	0
37	0	0	4031	5	184	0
38	0	0	4035	4	184	0
39	0	0	2478	4	184	0
40	0	0	1442	4	184	0
41	0	0	835	4	183	0
42	0	0	485	3	185	0
43	0	0	286	4	183	0
44	0	0	177	4	184	0
45	0	0	120	4	185	0
46	0	0	92	5	184	0
47	0	0	78	4	185	0
48	0	0	73	5	185	0
49	0	0	1560	5	183	0
50	0	0	2586	5	185	0
51	0	0	3203	5	184	0
52	0	0	3572	5	184	0
53	0	0	3788	5	185	0
54	0	0	3912	5	184	0
55	0	0	3978	5	184	0
56	0	0	4013	5	183	0
57	0	0	4031	4	184	0
58	0	0	4035	4	184	0
59	0	0	2483	4	184	0
60	0	0	1437	4	184	0
61	0	0	838	4	184	0
62	0	0	487	4	184	0
63	0	0	287	3	183	0
64	0	0	177	4	184	0
65	0	0	121	4	184	0
66	0	0	94	4	184	0
67	0	0	78	3	184	0
68	0	0	74	5	183	0
69	0	0	1611	5	182	0
70	0	0	2625	5	184	0
71	0	0	3221	5	184	0
72	0	0	3582	4	185	0
73	0	0	3795	5	184	0
74	0	0	3914	5	183	0
75	0	0	3982	5	184	0
76	0	0	4015	5	183	0
77	0	0	4033	4	184	0
78	0	0	4037	3	184	0
79	0	0	2437	3	184	0
80	0	0	1411	4	184	0
81	0	0	823	4	185	0
82	0	0	478	4	185	0
83	0	0	283	4	184	0
84	0	0	175	4	184	0
85	0	0	120	4	183	0
86	0	0	94	5	184	0
87	0	0	79	5	183	0
88	0	0	74	5	184	0
89	0	0	1557	5	184	0
90	0	0	2593	5	185	0
91	0	0	3202	5	184	0
92	0	0	3572	5	184	0
93	0	0	3789	5	183	0
94	0	0	3912	5	184	0
95	0	0	3980	5	184	0
96	0	0	4016	5	183	0
97	0	0	4034	5	184	0
98	0	0	4037	4	183	0
99	0	0	2408	4	184	0
100	0	0	1395	4	184	0
101	0	0	809	4	183	0
102	0	0	473	2	184	0
103	0	0	280	4	184	0
104	0	0	174	4	182	0
105	0	0	119	4	184	0
106	0	0	93	5	185	0
107	0	0	80	4	183	0
108	0	0	75	5	184	0
109	0	0	1505	4	185	0
110	0	0	2564	5	185	0
111	0	0	3191	5	185	0
112	0	0	3563	5	183	0
113	0	0	3784	5	183	0
114	0	0	3910	5	184	0
115	0	0	3981	5	185	0
116	0	0	4017	4	183	0
117	0	0	4034	3	185	0
118	0	0	4039	4	184	0
119	0	0	2399	4	183	0
120	0	0	1391	4	185	0
121	0	0	807	4	183	0
122	0	0	474	4	184	0
123	0	0	280	3	184	0
124	0	0	176	4	185	0
125	0	0	121	4	184	0
126	0	0	97	5	183	0
127	0	0	82	5	184	0
0	0	0	76	5	184	0
1	0	0	1517	5	184	0
2	0	0	2573	5	184	0
3	0	0	3197	5	183	0
4	0	0	3570	5	185	0
5	0	0	3787	5	185	0
6	0	0	3915	5	183	0
7	0	0	3981	5	184	0
8	0	0	4018	5	184	0
9	0	0	4037	5	184	0
10	0	0	4040	4	183	0
11	0	0	2425	4	184	0
12	0	0	1406	4	184	0
13	0	0	816	4	184	0
14	0	0	476	3	184	0
15	0	0	285	4	183	0
16	0	0	178	3	184	0
17	0	0	124	4	183	0
18	0	0	98	4	183	0
19	0	0	82	5	184	0
20	0	0	78	4	182	0
21	0	0	1602	4	183	0
22	0	0	2613	5	184	0
23	0	0	3222	5	184	0
24	0	0	3585	5	183	0
25	0	0	3798	5	185	0
26	0	0	3919	5	185	0
27	0	0	3987	5	184	0
28	0	0	4023	6	183	0
29	0	0	4037	5	185	0
30	0	0	4043	4	184	0
31	0	0	2453	4	184	0
32	0	0	1432	4	185	0
33	0	0	832	4	182	0
34	0	0	486	4	183	0
35	0	0	290	4	183	0
36	0	0	181	4	184	0
37	0	0	126	4	184	0
38	0	0	98	4	182	0
39	0	0	85	4	184	0
40	0	0	78	4	184	0
41	0	0	1663	5	183	0
42	0	0	2648	5	184	0
43	0	0	3242	5	183	0
44	0	0	3599	5	184	0
45	0	0	3805	5	185	0
46	0	0	3924	5	185	0
47	0	0	3987	5	184	0
48	0	0	4021	5	184	0
49	0	0	4039	5	183	0
50	0	0	4043	4	183	0
51	0	0	2435	4	184	0
52	0	0	1421	4	184	0
53	0	0	826	4	184	0
54	0	0	482	4	185	0
55	0	0	286	4	184	0
56	0	0	180	4	183	0
57	0	0	124	4	185	0
58	0	0	100	4	183	0
59	0	0	83	5	183	0
60	0	0	79	5	184	0
61	0	0	1602	5	184	0
62	0	0	2622	5	183	0
63	0	0	3222	4	183	0
64	0	0	3585	5	185	0
65	0	0	3799	5	184	0
66	0	0	3918	5	184	0
67	0	0	3986	5	184	0
68	0	0	4020	5	185	0
69	0	0	4038	5	184	0
70	0	0	4042	4	185	0
71	0	0	2450	4	184	0
72	0	0	1421	4	185	0
73	0	0	831	4	184	0
74	0	0	485	3	183	0
75	0	0	290	4	184	0
76	0	0	181	4	185	0
77	0	0	124	4	183	0
78	0	0	99	5	183	0
79	0	0	83	5	184	0
80	0	0	79	4	184	0
81	0	0	1593	5	184	0
82	0	0	2616	5	184	0
83	0	0	3218	5	183	0
84	0	0	3584	5	184	0
85	0	0	3798	5	183	0
86	0	0	3921	5	184	0
87	0	0	3985	5	183	0
88	0	0	4022	5	186	0
89	0	0	4039	4	183	0
90	0	0	4042	4	184	0
91	0	0	2454	3	184	0
92	0	0	1422	4	184	0
93	0	0	832	4	184	0
94	0	0	486	4	185	0
95	0	0	289	4	184	0
96	0	0	181	4	185	0
97	0	0	126	4	184	0
98	0	0	99	4	183	0
99	0	0	83	5	185	0
100	0	0	79	5	184	0
101	0	0	1566	5	184	0
102	0	0	2602	5	184	0
103	0	0	3214	5	184	0
104	0	0	3578	5	183	0
105	0	0	3795	5	184	0
106	0	0	3918	5	184	0
107	0	0	3986	5	184	0
108	0	0	4021	4	184	0
109	0	0	4038	5	183	0
110	0	0	4044	4	184	0
111	0	0	2487	4	183	0
112	0	0	1442	4	185	0
113	0	0	838	4	183	0
114	0	0	493	4	184	0
115	0	0	293	4	184	0
116	0	0	182	4	184	0
117	0	0	128	4	184	0
118	0	0	100	4	183	0
119	0	0	84	5	183	0
120	0	0	80	4	183	0
121	0	0	1583	5	185	0
122	0	0	2611	5	182	0
123	0	0	3221	5	184	0
124	0	0	3584	5	183	0
125	0	0	3796	4	185	0
126	0	0	3920	5	184	0
127	0	0	3986	5	185	0
0	0	0	4021	4	184	0
1	0	0	4040	5	185	0
2	0	0	4043	4	184	0
3	0	0	2546	4	183	0
4	0	0	1476	4	184	0
5	0	0	857	4	184	0
6	0	0	503	4	183	0
7	0	0	299	4	184	0
8	0	0	186	4	184	0
9	0	0	129	4	184	0
10	0	0	101	5	184	0
11	0	0	85	5	183	0
12	0	0	79	5	183	0
13	0	0	1625	5	184	0
14	0	0	2636	5	184	0
15	0	0	3236	4	184	0
16	0	0	3594	5	184	0
17	0	0	3802	5	184	0
18	0	0	3922	5	185	0
19	0	0	3988	5	186	0
20	0	0	4019	5	184	0
21	0	0	4037	5	183	0
22	0	0	4042	4	183	0
23	0	0	2535	4	184	0
24	0	0	1468	4	184	0
25	0	0	853	3	183	0
26	0	0	498	4	183	0
27	0	0	297	3	184	0
28	0	0	185	4	184	0
29	0	0	126	4	183	0
30	0	0	99	5	184	0
31	0	0	84	5	184	0
32	0	0	79	4	184	0
33	0	0	1591	5	184	0
34	0	0	2606	5	183	0
35	0	0	3217	5	185	0
36	0	0	3584	5	184	0
37	0	0	3795	5	183	0
38	0	0	3918	5	184	0
39	0	0	3984	5	184	0
40	0	0	4019	4	184	0
41	0	0	4038	4	184	0
42	0	0	4041	4	183	0
43	0	0	2490	4	184	0
44	0	0	1453	4	183	0
45	0	0	844	4	184	0
46	0	0	492	3	184	0
47	0	0	294	3	185	0
48	0	0	183	4	185	0
49	0	0	126	4	184	0
50	0	0	99	4	184	0
51	0	0	83	6	184	0
52	0	0	78	4	184	0
53	0	0	1593	5	184	0
54	0	0	2608	5	184	0
55	0	0	3218	5	184	0
56	0	0	3584	6	184	0
57	0	0	3799	5	184	0
58	0	0	3918	5	185	0
59	0	0	3986	5	184	0
60	0	0	4019	4	184	0
61	0	0	4038	4	184	0
62	0	0	4042	4	184	0
63	0	0	2502	4	185	0
64	0	0	1460	4	183	0
65	0	0	848	4	183	0
66	0	0	494	3	184	0
67	0	0	293	4	184	0
68	0	0	184	4	183	0
69	0	0	127	4	184	0
70	0	0	98	5	184	0
71	0	0	83	5	184	0
72	0	0	78	5	184	0
73	0	0	1559	5	184	0
74	0	0	2598	5	184	0
75	0	0	3207	5	184	0
76	0	0	3576	6	183	0
77	0	0	3793	4	183	0
78	0	0	3915	5	184	0
79	0	0	3984	5	184	0
80	0	0	4019	5	184	0
81	0	0	4037	5	183	0
82	0	0	4043	4	185	0
83	0	0	2443	4	184	0
84	0	0	1417	4	184	0
85	0	0	828	4	184	0
86	0	0	483	4	184	0
87	0	0	287	4	184	0
88	0	0	181	4	183	0
89	0	0	127	4	184	0
90	0	0	98	5	183	0
91	0	0	84	6	184	0
92	0	0	79	4	184	0
93	0	0	1512	5	183	0
94	0	0	2571	5	184	0
95	0	0	3191	5	183	0
96	0	0	3568	4	184	0
97	0	0	3789	5	183	0
98	0	0	3913	5	183	0
99	0	0	3985	5	184	0
100	0	0	4019	6	183	0
101	0	0	4039	5	184	0
102	0	0	4045	4	184	0
103	0	0	2436	4	183	0
104	0	0	1414	4	184	0
105	0	0	827	4	183	0
106	0	0	484	3	184	0
107	0	0	289	3	184	0
108	0	0	181	4	184	0
109	0	0	127	4	183	0
110	0	0	99	5	184	0
111	0	0	86	4	184	0
112	0	0	80	5	184	0
113	0	0	1552	5	183	0
114	0	0	2595	5	183	0
115	0	0	3206	5	183	0
116	0	0	3577	5	183	0
117	0	0	3796	5	184	0
118	0	0	3918	4	184	0
119	0	0	3986	5	185	0
120	0	0	4020	4	185	0
121	0	0	4039	3	183	0
122	0	0	4045	4	183	0
123	0	0	2427	4	184	0
124	0	0	1409	4	184	0
125	0	0	825	3	183	0
126	0	0	482	4	184	0
127	0	0	289	4	183	0
0	0	0	181	4	183	0
1	0	0	127	4	184	0
2	0	0	100	5	183	0
3	0	0	85	5	184	0
4	0	0	81	5	183	0
5	0	0	1587	5	184	0
6	0	0	2615	5	184	0
7	0	0	3224	5	183	0
8	0	0	3585	5	184	0
9	0	0	3799	5	183	0
10	0	0	3921	5	184	0
11	0	0	3989	5	183	0
12	0	0	4022	4	183	0
13	0	0	4041	4	184	0
14	0	0	4045	4	184	0
15	0	0	2434	4	184	0
16	0	0	1413	4	184	0
17	0	0	823	4	183	0
18	0	0	484	4	184	0
19	0	0	289	4	184	0
20	0	0	183	4	184	0
21	0	0	127	4	183	0
22	0	0	100	5	185	0
23	0	0	86	4	183	0
24	0	0	81	4	184	0
25	0	0	1555	5	183	0
26	0	0	2596	5	184	0
27	0	0	3214	5	185	0
28	0	0	3579	5	183	0
29	0	0	3797	5	184	0
30	0	0	3920	5	183	0
31	0	0	3989	5	184	0
32	0	0	4022	4	185	0
33	0	0	4040	4	186	0
34	0	0	4047	4	184	0
35	0	0	2419	4	183	0
36	0	0	1406	4	184	0
37	0	0	818	4	185	0
38	0	0	482	4	185	0
39	0	0	288	4	184	0
40	0	0	182	3	184	0
41	0	0	129	4	184	0
42	0	0	101	5	182	0
43	0	0	87	5	184	0
44	0	0	81	5	183	0
45	0	0	1567	5	184	0
46	0	0	2604	5	184	0
47	0	0	3218	5	184	0
48	0	0	3585	5	185	0
49	0	0	3798	5	185	0
50	0	0	3922	5	184	0
51	0	0	3989	5	184	0
52	0	0	4024	4	184	0
53	0	0	4044	5	184	0
54	0	0	4047	4	184	0
55	0	0	2422	4	184	0
56	0	0	1407	4	185	0
57	0	0	819	3	185	0
58	0	0	480	4	184	0
59	0	0	290	4	184	0
60	0	0	182	4	184	0
61	0	0	130	4	184	0
62	0	0	102	4	184	0
63	0	0	88	5	184	0
64	0	0	82	5	184	0
65	0	0	1580	4	185	0
66	0	0	2602	5	184	0
67	0	0	3216	5	184	0
68	0	0	3586	5	185	0
69	0	0	3799	5	184	0
70	0	0	3922	5	184	0
71	0	0	3991	5	183	0
72	0	0	4025	5	184	0
73	0	0	4043	5	183	0
74	0	0	4049	4	184	0
75	0	0	2396	4	184	0
76	0	0	1403	3	184	0
77	0	0	818	5	183	0
78	0	0	479	4	184	0
79	0	0	290	4	184	0
80	0	0	183	4	184	0
81	0	0	129	4	184	0
82	0	0	102	5	183	0
83	0	0	89	5	184	0
84	0	0	84	4	185	0
85	0	0	1583	4	183	0
86	0	0	2604	5	184	0
87	0	0	3218	5	183	0
88	0	0	3587	5	183	0
89	0	0	3802	4	184	0
90	0	0	3923	5	184	0
91	0	0	3991	5	183	0
92	0	0	4024	4	183	0
93	0	0	4045	4	184	0
94	0	0	4047	4	184	0
95	0	0	2409	3	184	0
96	0	0	1409	3	185	0
97	0	0	820	4	184	0
98	0	0	482	4	184	0
99	0	0	290	4	184	0
100	0	0	185	4	184	0
101	0	0	131	4	184	0
102	0	0	102	5	182	0
103	0	0	90	5	184	0
104	0	0	85	4	184	0
105	0	0	1588	5	183	0
106	0	0	2617	5	183	0
107	0	0	3220	5	184	0
108	0	0	3589	5	184	0
109	0	0	3803	5	184	0
110	0	0	3925	5	183	0
111	0	0	3993	4	184	0
112	0	0	4026	5	184	0
113	0	0	4045	4	183	0
114	0	0	4049	4	184	0
115	0	0	2410	4	182	0
116	0	0	1402	4	183	0
117	0	0	822	4	183	0
118	0	0	483	4	183	0
119	0	0	290	4	183	0
120	0	0	186	3	184	0
121	0	0	132	4	183	0
122	0	0	104	5	184	0
123	0	0	90	5	184	0
124	0	0	85	5	183	0
125	0	0	1588	5	184	0
126	0	0	2617	4	185	0
127	0	0	3222	6	183	0
0	0	0	3588	5	184	0
1	0	0	3802	5	183	0
2	0	0	3925	5	183	0
3	0	0	3992	5	184	0
4	0	0	4026	4	184	0
5	0	0	4044	5	182	0
6	0	0	4048	4	184	0
7	0	0	2384	4	184	0
8	0	0	1386	4	184	0
9	0	0	813	4	184	0
10	0	0	479	4	183	0
11	0	0	287	4	183	0
12	0	0	183	4	183	0
13	0	0	134	4	185	0
14	0	0	104	5	184	0
15	0	0	90	5	184	0
16	0	0	86	4	183	0
17	0	0	1579	5	184	0
18	0	0	2611	5	184	0
19	0	0	3223	5	183	0
20	0	0	3587	5	183	0
21	0	0	3803	5	185	0
22	0	0	3925	5	183	0
23	0	0	3993	5	184	0
24	0	0	4026	5	183	0
25	0	0	4046	5	183	0
26	0	0	4050	4	184	0
27	0	0	2393	4	185	0
28	0	0	1391	3	184	0
29	0	0	812	4	183	0
30	0	0	480	3	184	0
31	0	0	290	4	184	0
32	0	0	184	4	185	0
33	0	0	134	4	183	0
34	0	0	106	5	184	0
35	0	0	92	6	184	0
36	0	0	87	5	184	0
37	0	0	1605	5	183	0
38	0	0	2627	5	185	0
39	0	0	3233	5	184	0
40	0	0	3594	4	184	0
41	0	0	3806	4	184	0
42	0	0	3930	5	183	0
43	0	0	3994	5	183	0
44	0	0	4027	4	183	0
45	0	0	4047	4	185	0
46	0	0	4050	3	183	0
47	0	0	2379	4	184	0
48	0	0	1384	4	184	0
49	0	0	807	4	184	0
50	0	0	478	4	184	0
51	0	0	289	4	184	0
52	0	0	185	4	184	0
53	0	0	131	4	184	0
54	0	0	104	5	185	0
55	0	0	91	6	184	0
56	0	0	87	4	184	0
57	0	0	1571	5	185	0
58	0	0	2609	5	184	0
59	0	0	3224	5	185	0
60	0	0	3591	5	184	0
61	0	0	3804	5	184	0
62	0	0	3926	5	184	0
63	0	0	3995	5	184	0
64	0	0	4028	4	184	0
65	0	0	4047	5	184	0
66	0	0	4051	3	184	0
67	0	0	2381	4	184	0
68	0	0	1386	4	183	0
69	0	0	812	4	184	0
70	0	0	478	5	183	0
71	0	0	289	3	183	0
72	0	0	186	3	184	0
73	0	0	132	4	183	0
74	0	0	106	5	184	0
75	0	0	93	5	184	0
76	0	0	88	5	184	0
77	0	0	1609	5	184	0
78	0	0	2629	5	183	0
79	0	0	3230	5	184	0
80	0	0	3595	5	185	0
81	0	0	3808	6	184	0
82	0	0	3929	5	184	0
83	0	0	3995	5	184	0
84	0	0	4028	4	184	0
85	0	0	4047	6	184	0
86	0	0	4052	4	184	0
87	0	0	2372	4	183	0
88	0	0	1381	4	184	0
89	0	0	812	4	184	0
90	0	0	478	4	184	0
91	0	0	290	5	185	0
92	0	0	185	4	183	0
93	0	0	134	4	184	0
94	0	0	106	5	184	0
95	0	0	92	5	183	0
96	0	0	88	5	184	0
97	0	0	1620	5	184	0
98	0	0	2637	5	183	0
99	0	0	3240	5	184	0
100	0	0	3599	5	184	0
101	0	0	3809	5	183	0
102	0	0	3930	5	184	0
103	0	0	3997	4	184	0
104	0	0	4031	4	185	0
105	0	0	4051	4	183	0
106	0	0	4055	4	183	0
107	0	0	2393	4	184	0
108	0	0	1393	3	184	0
109	0	0	814	4	184	0
110	0	0	483	4	181	0
111	0	0	292	4	184	0
112	0	0	187	4	183	0
113	0	0	136	4	185	0
114	0	0	108	5	184	0
115	0	0	93	5	184	0
116	0	0	89	6	184	0
117	0	0	1588	5	183	0
118	0	0	2618	5	184	0
119	0	0	3229	5	184	0
120	0	0	3592	5	184	0
121	0	0	3807	5	183	0
122	0	0	3929	5	183	0
123	0	0	3997	5	184	0
124	0	0	4029	5	184	0
125	0	0	4049	4	183	0
126	0	0	4053	4	184	0
127	0	0	2357	4	185	0
0	0	0	1374	4	184	0
1	0	0	803	3	184	0
2	0	0	476	4	184	0
3	0	0	289	4	183	0
4	0	0	186	4	184	0
5	0	0	134	3	185	0
6	0	0	107	5	183	0
7	0	0	94	5	183	0
8	0	0	90	4	184	0
9	0	0	1610	5	184	0
10	0	0	2632	5	184	0
11	0	0	3237	5	184	0
12	0	0	3601	5	184	0
13	0	0	3810	4	183	0
14	0	0	3930	5	184	0
15	0	0	3997	5	183	0
16	0	0	4030	4	183	0
17	0	0	4051	4	185	0
18	0	0	4054	4	184	0
19	0	0	2378	4	184	0
20	0	0	1386	4	184	0
21	0	0	810	4	183	0
22	0	0	478	4	183	0
23	0	0	291	3	184	0
24	0	0	187	4	184	0
25	0	0	135	4	185	0
26	0	0	108	5	184	0
27	0	0	94	5	185	0
28	0	0	90	4	184	0
29	0	0	1592	5	183	0
30	0	0	2612	5	185	0
31	0	0	3226	5	184	0
32	0	0	3595	5	184	0
33	0	0	3806	5	184	0
34	0	0	3929	5	183	0
35	0	0	3998	5	184	0
36	0	0	4032	4	184	0
37	0	0	4050	4	182	0
38	0	0	4054	4	184	0
39	0	0	2336	4	183	0
40	0	0	1371	4	184	0
41	0	0	802	4	183	0
42	0	0	473	4	186	0
43	0	0	290	3	183	0
44	0	0	187	4	184	0
45	0	0	135	4	183	0
46	0	0	108	4	184	0
47	0	0	95	4	184	0
48	0	0	90	5	183	0
49	0	0	1626	5	185	0
50	0	0	2631	5	183	0
51	0	0	3238	5	184	0
52	0	0	3602	5	184	0
53	0	0	3815	5	183	0
54	0	0	3932	5	183	0
55	0	0	3999	5	184	0
56	0	0	4032	5	183	0
57	0	0	4049	5	183	0
58	0	0	4055	3	183	0
59	0	0	2346	4	184	0
60	0	0	1378	4	183	0
61	0	0	805	4	185	0
62	0	0	476	5	184	0
63	0	0	291	4	183	0
64	0	0	188	4	183	0
65	0	0	138	4	185	0
66	0	0	109	5	184	0
67	0	0	96	5	183	0
68	0	0	91	4	184	0
69	0	0	1608	5	184	0
70	0	0	2623	5	183	0
71	0	0	3233	5	184	0
72	0	0	3599	5	184	0
73	0	0	3811	5	183	0
74	0	0	3933	5	183	0
75	0	0	3998	4	184	0
76	0	0	4032	4	184	0
77	0	0	4051	4	184	0
78	0	0	4056	4	184	0
79	0	0	2331	4	184	0
80	0	0	1368	4	184	0
81	0	0	801	4	184	0
82	0	0	474	3	185	0
83	0	0	289	4	184	0
84	0	0	187	4	184	0
85	0	0	138	5	184	0
86	0	0	110	5	182	0
87	0	0	97	4	183	0
88	0	0	92	4	184	0
89	0	0	1622	5	183	0
90	0	0	2641	4	184	0
91	0	0	3238	4	184	0
92	0	0	3601	5	184	0
93	0	0	3814	5	184	0
94	0	0	3933	5	185	0
95	0	0	4000	5	183	0
96	0	0	4034	4	183	0
97	0	0	4052	4	184	0
98	0	0	4059	4	185	0
99	0	0	2320	4	184	0
100	0	0	1353	4	183	0
101	0	0	798	3	184	0
102	0	0	472	4	183	0
103	0	0	289	3	183	0
104	0	0	187	4	183	0
105	0	0	138	4	184	0
106	0	0	110	4	184	0
107	0	0	97	5	184	0
108	0	0	93	4	184	0
109	0	0	1660	5	184	0
110	0	0	2662	5	185	0
111	0	0	3253	5	183	0
112	0	0	3611	5	183	0
113	0	0	3818	4	184	0
114	0	0	3937	5	184	0
115	0	0	4003	5	184	0
116	0	0	4035	3	183	0
117	0	0	4054	4	183	0
118	0	0	4057	3	182	0
119	0	0	2304	4	184	0
120	0	0	1345	4	184	0
121	0	0	793	4	185	0
122	0	0	469	4	183	0
123	0	0	287	4	184	0
124	0	0	186	4	184	0
125	0	0	137	5	184	0
126	0	0	110	5	183	0
127	0	0	96	5	184	0
0	0	0	93	3	184	0
1	0	0	1667	5	183	0
2	0	0	2666	5	183	0
3	0	0	3260	5	183	0
4	0	0	3612	5	183	0
5	0	0	3820	5	183	0
6	0	0	3938	5	184	0
7	0	0	4004	5	183	0
8	0	0	4037	4	184	0
9	0	0	4055	4	184	0
10	0	0	4057	3	183	0
11	0	0	2301	3	184	0
12	0	0	1342	4	184	0
13	0	0	787	4	183	0
14	0	0	469	4	184	0
15	0	0	287	4	184	0
16	0	0	187	4	185	0
17	0	0	137	4	184	0
18	0	0	111	5	185	0
19	0	0	98	4	184	0
20	0	0	94	4	185	0
21	0	0	1663	4	184	0
22	0	0	2663	5	183	0
23	0	0	3258	5	184	0
24	0	0	3612	5	184	0
25	0	0	3820	3	184	0
26	0	0	3938	5	183	0
27	0	0	4004	5	184	0
28	0	0	4037	4	185	0
29	0	0	4057	4	184	0
30	0	0	4061	4	184	0
31	0	0	2313	4	184	0
32	0	0	1350	3	183	0
33	0	0	792	4	185	0
34	0	0	472	4	184	0
35	0	0	289	3	183	0
36	0	0	188	3	184	0
37	0	0	142	4	184	0
38	0	0	111	5	184	0
39	0	0	98	5	184	0
40	0	0	94	3	184	0
41	0	0	1718	5	183	0
42	0	0	2696	5	184	0
43	0	0	3277	5	183	0
44	0	0	3624	5	183	0
45	0	0	3827	4	184	0
46	0	0	3942	5	184	0
47	0	0	4006	5	183	0
48	0	0	4038	4	184	0
49	0	0	4055	4	184	0
50	0	0	4061	4	183	0
51	0	0	2285	4	183	0
52	0	0	1333	3	185	0
53	0	0	782	4	185	0
54	0	0	466	4	184	0
55	0	0	286	2	183	0
56	0	0	186	3	184	0
57	0	0	136	5	183	0
58	0	0	111	5	185	0
59	0	0	99	5	184	0
60	0	0	94	5	184	0
61	0	0	1742	5	184	0
62	0	0	2710	6	183	0
63	0	0	3287	5	184	0
64	0	0	3632	5	185	0
65	0	0	3829	4	184	0
66	0	0	3945	5	184	0
67	0	0	4007	5	184	0
68	0	0	4038	4	184	0
69	0	0	4055	4	184	0
70	0	0	4059	4	184	0
71	0	0	2314	4	184	0
72	0	0	1350	4	184	0
73	0	0	791	4	185	0
74	0	0	469	4	184	0
75	0	0	288	4	183	0
76	0	0	187	4	183	0
77	0	0	139	4	184	0
78	0	0	111	5	184	0
79	0	0	99	5	183	0
80	0	0	94	4	185	0
81	0	0	1750	5	185	0
82	0	0	2705	5	184	0
83	0	0	3283	5	184	0
84	0	0	3629	5	184	0
85	0	0	3829	5	183	0
86	0	0	3943	5	183	0
87	0	0	4006	5	183	0
88	0	0	4036	5	184	0
89	0	0	4055	5	183	0
90	0	0	4057	4	183	0
91	0	0	2254	4	183	0
92	0	0	1325	3	183	0
93	0	0	775	4	184	0
94	0	0	460	3	184	0
95	0	0	284	4	184	0
96	0	0	185	3	185	0
97	0	0	136	5	184	0
98	0	0	109	5	184	0
99	0	0	98	4	184	0
100	0	0	94	5	184	0
101	0	0	1752	5	183	0
102	0	0	2707	5	184	0
103	0	0	3284	5	183	0
104	0	0	3630	5	185	0
105	0	0	3830	4	184	0
106	0	0	3943	5	184	0
107	0	0	4006	6	184	0
108	0	0	4035	5	184	0
109	0	0	4053	5	185	0
110	0	0	4058	4	184	0
111	0	0	2267	4	185	0
112	0	0	1332	3	183	0
113	0	0	781	3	183	0
114	0	0	463	4	183	0
115	0	0	283	4	183	0
116	0	0	185	4	183	0
117	0	0	138	4	185	0
118	0	0	110	5	184	0
119	0	0	97	5	183	0
120	0	0	94	5	184	0
121	0	0	1724	5	184	0
122	0	0	2700	5	184	0
123	0	0	3276	5	184	0
124	0	0	3624	5	185	0
125	0	0	3828	5	184	0
126	0	0	3941	5	183	0
127	0	0	4005	5	185	0
0	0	0	4037	4	183	0
1	0	0	4054	4	184	0
2	0	0	4057	4	183	0
3	0	0	2264	4	184	0
4	0	0	1321	4	183	0
5	0	0	779	4	184	0
6	0	0	462	3	185	0
7	0	0	283	4	183	0
8	0	0	185	4	183	0
9	0	0	137	4	184	0
10	0	0	109	5	184	0
11	0	0	98	4	184	0
12	0	0	94	5	183	0
13	0	0	1752	5	183	0
14	0	0	2715	5	183	0
15	0	0	3284	6	183	0
16	0	0	3630	5	185	0
17	0	0	3830	5	184	0
18	0	0	3946	5	184	0
19	0	0	4006	4	184	0
20	0	0	4037	4	184	0
21	0	0	4055	4	182	0
22	0	0	4058	4	184	0
23	0	0	2253	4	184	0
24	0	0	1315	4	184	0
25	0	0	776	3	183	0
26	0	0	460	4	184	0
27	0	0	282	3	184	0
28	0	0	185	4	183	0
29	0	0	137	5	185	0
30	0	0	110	5	184	0
31	0	0	98	5	185	0
32	0	0	94	5	184	0
33	0	0	1740	5	184	0
34	0	0	2708	5	185	0
35	0	0	3280	6	184	0
36	0	0	3628	5	185	0
37	0	0	3829	5	184	0
38	0	0	3944	5	184	0
39	0	0	4005	4	183	0
40	0	0	4037	4	184	0
41	0	0	4056	5	185	0
42	0	0	4057	4	184	0
43	0	0	2248	4	184	0
44	0	0	1313	3	184	0
45	0	0	774	3	184	0
46	0	0	459	4	185	0
47	0	0	282	4	185	0
48	0	0	184	4	184	0
49	0	0	135	4	185	0
50	0	0	110	6	184	0
51	0	0	97	5	184	0
52	0	0	95	5	184	0
53	0	0	1738	6	182	0
54	0	0	2707	5	184	0
55	0	0	3284	4	184	0
56	0	0	3628	5	184	0
57	0	0	3829	5	184	0
58	0	0	3944	5	183	0
59	0	0	4008	5	182	0
60	0	0	4039	4	184	0
61	0	0	4055	4	184	0
62	0	0	4041	4	184	0
63	0	0	2231	4	185	0
64	0	0	1303	4	185	0
65	0	0	764	3	185	0
66	0	0	456	4	184	0
67	0	0	280	4	185	0
68	0	0	184	4	184	0
69	0	0	137	5	184	0
70	0	0	109	5	184	0
71	0	0	98	5	184	0
72	0	0	94	4	183	0
73	0	0	1727	5	184	0
74	0	0	2700	5	183	0
75	0	0	3281	4	184	0
76	0	0	3624	5	184	0
77	0	0	3828	5	183	0
78	0	0	3943	5	183	0
79	0	0	4008	4	184	0
80	0	0	4040	4	184	0
81	0	0	4057	4	184	0
82	0	0	4049	4	185	0
83	0	0	2256	4	183	0
84	0	0	1318	4	183	0
85	0	0	772	5	184	0
86	0	0	461	4	183	0
87	0	0	284	4	184	0
88	0	0	186	4	183	0
89	0	0	140	5	184	0
90	0	0	110	5	184	0
91	0	0	98	4	184	0
92	0	0	95	5	183	0
93	0	0	1708	5	184	0
94	0	0	2691	4	184	0
95	0	0	3274	6	184	0
96	0	0	3625	5	184	0
97	0	0	3826	5	184	0
98	0	0	3943	5	184	0
99	0	0	4005	5	184	0
100	0	0	4037	4	184	0
101	0	0	4057	4	185	0
102	0	0	4043	4	184	0
103	0	0	2252	4	183	0
104	0	0	1315	4	185	0
105	0	0	771	3	184	0
106	0	0	458	4	185	0
107	0	0	283	4	184	0
108	0	0	185	4	184	0
109	0	0	139	5	184	0
110	0	0	112	5	185	0
111	0	0	100	5	184	0
112	0	0	96	4	184	0
113	0	0	1687	5	184	0
114	0	0	2670	5	184	0
115	0	0	3262	4	184	0
116	0	0	3618	5	183	0
117	0	0	3823	5	184	0
118	0	0	3941	5	183	0
119	0	0	4004	5	184	0
120	0	0	4036	4	183	0
121	0	0	4058	4	183	0
122	0	0	4032	4	184	0
123	0	0	2225	4	184	0
124	0	0	1308	5	184	0
125	0	0	767	4	183	0
126	0	0	457	3	184	0
127	0	0	283	4	183	0
0	0	0	185	5	184	0
1	0	0	139	5	184	0
2	0	0	112	4	185	0
3	0	0	100	5	185	0
4	0	0	96	5	185	0
5	0	0	1701	5	183	0
6	0	0	2678	5	185	0
7	0	0	3268	4	184	0
8	0	0	3622	5	184	0
9	0	0	3827	5	184	0
10	0	0	3943	5	184	0
11	0	0	4008	5	183	0
12	0	0	4041	4	183	0
13	0	0	4057	4	184	0
14	0	0	4038	4	183	0
15	0	0	2226	4	184	0
16	0	0	1301	4	185	0
17	0	0	769	4	184	0
18	0	0	457	4	184	0
19	0	0	282	4	184	0
20	0	0	187	3	185	0
21	0	0	140	5	184	0
22	0	0	113	4	185	0
23	0	0	101	4	184	0
24	0	0	97	5	184	0
25	0	0	1691	5	184	0
26	0	0	2682	7	185	0
27	0	0	3265	5	184	0
28	0	0	3620	5	184	0
29	0	0	3828	5	184	0
30	0	0	3943	5	183	0
31	0	0	4007	5	184	0
32	0	0	4039	4	184	0
33	0	0	4057	4	184	0
34	0	0	4010	4	183	0
35	0	0	2204	4	184	0
36	0	0	1291	4	183	0
37	0	0	763	4	184	0
38	0	0	454	4	185	0
39	0	0	281	4	184	0
40	0	0	186	4	184	0
41	0	0	140	4	183	0
42	0	0	114	5	184	0
43	0	0	101	5	183	0
44	0	0	98	5	183	0
45	0	0	1707	5	185	0
46	0	0	2692	5	184	0
47	0	0	3277	5	184	0
48	0	0	3625	5	184	0
49	0	0	3829	5	183	0
50	0	0	3945	5	184	0
51	0	0	4009	5	184	0
52	0	0	4042	4	184	0
53	0	0	4058	4	185	0
54	0	0	4032	4	184	0
55	0	0	2221	4	184	0
56	0	0	1299	4	183	0
57	0	0	764	3	185	0
58	0	0	458	4	184	0
59	0	0	283	4	184	0
60	0	0	187	4	185	0
61	0	0	141	4	182	0
62	0	0	114	4	185	0
63	0	0	103	4	184	0
64	0	0	98	5	185	0
65	0	0	1737	5	185	0
66	0	0	2709	5	185	0
67	0	0	3288	5	185	0
68	0	0	3632	5	186	0
69	0	0	3833	5	182	0
70	0	0	3949	5	184	0
71	0	0	4012	4	184	0
72	0	0	4041	4	185	0
73	0	0	4059	4	186	0
74	0	0	3985	4	184	0
75	0	0	2207	4	183	0
76	0	0	1290	4	183	0
77	0	0	759	4	184	0
78	0	0	456	4	183	0
79	0	0	282	4	185	0
80	0	0	186	4	184	0
81	0	0	141	5	183	0
82	0	0	114	5	184	0
83	0	0	103	4	185	0
84	0	0	100	5	183	0
85	0	0	1741	5	184	0
86	0	0	2712	5	184	0
87	0	0	3289	4	184	0
88	0	0	3635	5	185	0
89	0	0	3834	5	185	0
90	0	0	3951	5	184	0
91	0	0	4012	5	183	0
92	0	0	4043	5	184	0
93	0	0	4062	4	183	0
94	0	0	4053	3	183	0
95	0	0	2255	4	184	0
96	0	0	1320	3	184	0
97	0	0	775	4	185	0
98	0	0	462	4	184	0
99	0	0	288	3	185	0
100	0	0	190	4	185	0
101	0	0	142	5	184	0
102	0	0	115	5	185	0
103	0	0	103	5	185	0
104	0	0	100	5	184	0
105	0	0	1682	5	184	0
106	0	0	2669	4	183	0
107	0	0	3265	5	183	0
108	0	0	3620	5	184	0
109	0	0	3824	5	185	0
110	0	0	3944	5	183	0
111	0	0	4010	5	184	0
112	0	0	4041	4	183	0
113	0	0	4060	4	183	0
114	0	0	4028	4	184	0
115	0	0	2219	4	184	0
116	0	0	1305	5	184	0
117	0	0	768	4	184	0
118	0	0	458	4	183	0
119	0	0	286	4	184	0
120	0	0	189	4	184	0
121	0	0	144	4	185	0
122	0	0	115	5	184	0
123	0	0	103	5	183	0
124	0	0	101	4	185	0
125	0	0	1733	5	185	0
126	0	0	2699	5	182	0
127	0	0	3282	5	184	0
0	0	0	3632	5	183	0
1	0	0	3833	5	184	0
2	0	0	3948	5	184	0
3	0	0	4011	4	183	0
4	0	0	4044	4	184	0
5	0	0	4063	4	183	0
6	0	0	4047	4	185	0
7	0	0	2237	3	183	0
8	0	0	1318	4	184	0
9	0	0	774	4	185	0
10	0	0	463	4	184	0
11	0	0	286	4	185	0
12	0	0	191	4	184	0
13	0	0	145	4	184	0
14	0	0	116	4	184	0
15	0	0	105	4	183	0
16	0	0	101	5	184	0
17	0	0	1694	5	183	0
18	0	0	2686	5	184	0
19	0	0	3267	5	184	0
20	0	0	3623	5	184	0
21	0	0	3831	5	183	0
22	0	0	3947	5	183	0
23	0	0	4010	5	184	0
24	0	0	4043	4	183	0
25	0	0	4062	4	184	0
26	0	0	4002	3	184	0
27	0	0	2202	3	184	0
28	0	0	1289	4	184	0
29	0	0	764	4	184	0
30	0	0	457	4	185	0
31	0	0	283	4	184	0
32	0	0	189	4	185	0
33	0	0	143	4	183	0
34	0	0	116	5	183	0
35	0	0	106	4	184	0
36	0	0	101	5	183	0
37	0	0	1723	5	183	0
38	0	0	2702	6	184	0
39	0	0	3280	5	183	0
40	0	0	3630	5	184	0
41	0	0	3833	5	184	0
42	0	0	3951	5	184	0
43	0	0	4011	4	184	0
44	0	0	4043	4	185	0
45	0	0	4063	4	183	0
46	0	0	4017	3	183	0
47	0	0	2210	4	184	0
48	0	0	1294	4	183	0
49	0	0	766	4	184	0
50	0	0	458	4	184	0
51	0	0	284	4	184	0
52	0	0	189	4	185	0
53	0	0	144	5	184	0
54	0	0	117	5	184	0
55	0	0	105	5	184	0
56	0	0	102	5	183	0
57	0	0	1695	5	184	0
58	0	0	2685	4	184	0
59	0	0	3275	5	185	0
60	0	0	3625	5	184	0
61	0	0	3831	5	183	0
62	0	0	3948	4	184	0
63	0	0	4012	4	183	0
64	0	0	4043	5	184	0
65	0	0	4063	4	184	0
66	0	0	4019	4	183	0
67	0	0	2215	4	183	0
68	0	0	1297	4	184	0
69	0	0	764	4	184	0
70	0	0	460	3	185	0
71	0	0	286	4	185	0
72	0	0	190	4	183	0
73	0	0	145	4	185	0
74	0	0	117	5	184	0
75	0	0	106	5	184	0
76	0	0	103	4	184	0
77	0	0	1702	5	185	0
78	0	0	2691	4	184	0
79	0	0	3278	5	185	0
80	0	0	3627	5	184	0
81	0	0	3832	5	183	0
82	0	0	3950	5	184	0
83	0	0	4013	4	182	0
84	0	0	4046	4	183	0
85	0	0	4063	4	184	0
86	0	0	3956	4	185	0
87	0	0	2191	4	183	0
88	0	0	1284	4	185	0
89	0	0	758	4	184	0
90	0	0	457	4	184	0
91	0	0	284	4	183	0
92	0	0	190	4	184	0
93	0	0	145	5	184	0
94	0	0	119	4	184	0
95	0	0	107	5	184	0
96	0	0	104	5	184	0
97	0	0	1712	5	185	0
98	0	0	2697	5	185	0
99	0	0	3282	5	184	0
100	0	0	3634	5	183	0
101	0	0	3834	5	184	0
102	0	0	3952	5	184	0
103	0	0	4013	5	183	0
104	0	0	4046	4	183	0
105	0	0	4063	4	184	0
106	0	0	3980	4	185	0
107	0	0	2204	4	185	0
108	0	0	1292	4	184	0
109	0	0	763	3	184	0
110	0	0	456	4	185	0
111	0	0	286	4	184	0
112	0	0	190	4	184	0
113	0	0	145	5	185	0
114	0	0	120	4	184	0
115	0	0	107	4	183	0
116	0	0	104	5	183	0
117	0	0	1713	5	185	0
118	0	0	2697	5	184	0
119	0	0	3282	5	183	0
120	0	0	3633	5	184	0
121	0	0	3835	5	184	0
122	0	0	3952	5	184	0
123	0	0	4013	4	183	0
124	0	0	4047	4	184	0
125	0	0	4065	4	183	0
