# bioPlux Text File Format
# Version: 1
# StartDateTime: 2011-07-19 17:44:22
# SamplingFrequency: 1000
# SampledChannels: 1 2 3 4
# SamplingResolution: 12
# AcquiringDevice: 00:07:80:42:0F:8B
# EndOfHeader
0	0	0	2017	1169	3661	73
1	0	0	2092	1169	3663	74
2	0	0	2167	1169	3661	72
3	0	0	2252	1170	3660	73
4	0	0	2349	1168	3660	74
5	0	0	2381	1167	3660	74
6	0	0	2315	1165	3661	74
7	0	0	2244	1167	3661	72
8	0	0	2156	1165	3660	74
9	0	0	1999	1165	3661	73
10	0	0	1855	1166	3660	73
11	0	0	1768	1166	3663	74
12	0	0	1738	1165	3662	73
13	0	0	1732	1169	3660	73
14	0	0	1736	1167	3660	72
15	0	0	1763	1167	3659	72
16	0	0	1806	1169	3659	72
17	0	0	1864	1167	3660	72
18	0	0	1925	1168	3660	73
19	0	0	2010	1169	3660	73
20	0	0	2129	1167	3661	72
21	0	0	2199	1169	3660	72
22	0	0	2195	1167	3662	73
23	0	0	2166	1168	3660	73
24	0	0	2200	1170	3659	74
25	0	0	2248	1170	3660	72
26	0	0	2237	1169	3660	72
27	0	0	2210	1165	3660	73
28	0	0	2160	1165	3660	73
29	0	0	2054	1164	3661	73
30	0	0	1963	1166	3660	73
31	0	0	1898	1166	3663	74
32	0	0	1835	1163	3662	73
33	0	0	1774	1165	3660	72
34	0	0	1719	1166	3660	72
35	0	0	1729	1169	3658	71
36	0	0	1788	1169	3659	73
37	0	0	1872	1168	3660	72
38	0	0	1935	1169	3660	73
39	0	0	2002	1169	3660	73
40	0	0	2105	1168	3661	74
41	0	0	2202	1170	3661	73
42	0	0	2253	1169	3661	73
43	0	0	2260	1170	3662	73
44	0	0	2307	1170	3659	73
45	0	0	2352	1169	3659	73
46	0	0	2354	1169	3661	73
47	0	0	2300	1164	3660	74
48	0	0	2205	1162	3661	73
49	0	0	2070	1166	3661	73
50	0	0	1966	1167	3660	72
51	0	0	1903	1165	3661	73
52	0	0	1843	1163	3661	72
53	0	0	1790	1165	3660	73
54	0	0	1741	1165	3659	73
55	0	0	1747	1170	3658	73
56	0	0	1823	1169	3659	72
57	0	0	1902	1168	3661	71
58	0	0	1949	1170	3660	72
59	0	0	1983	1168	3661	73
60	0	0	2038	1170	3660	73
61	0	0	2106	1169	3661	74
62	0	0	2188	1168	3662	73
63	0	0	2258	1169	3661	73
64	0	0	2325	1169	3659	73
65	0	0	2366	1170	3658	72
66	0	0	2325	1166	3659	73
67	0	0	2259	1164	3660	71
68	0	0	2178	1165	3660	74
69	0	0	2073	1165	3661	74
70	0	0	2001	1166	3661	72
71	0	0	1940	1166	3662	73
72	0	0	1895	1166	3662	72
73	0	0	1877	1166	3660	73
74	0	0	1834	1166	3662	72
75	0	0	1802	1167	3660	75
76	0	0	1822	1169	3660	72
77	0	0	1891	1169	3661	72
78	0	0	1986	1168	3660	74
79	0	0	2038	1169	3662	73
80	0	0	2076	1168	3661	71
81	0	0	2128	1167	3660	74
82	0	0	2169	1169	3662	72
83	0	0	2205	1168	3660	74
84	0	0	2287	1168	3661	73
85	0	0	2370	1169	3658	73
86	0	0	2372	1169	3657	73
87	0	0	2323	1165	3660	73
88	0	0	2245	1164	3660	73
89	0	0	2143	1165	3662	73
90	0	0	2036	1164	3661	74
91	0	0	1943	1165	3662	74
92	0	0	1868	1164	3662	74
93	0	0	1838	1166	3660	74
94	0	0	1823	1166	3659	73
95	0	0	1826	1168	3659	71
96	0	0	1856	1168	3660	74
97	0	0	1907	1168	3660	72
98	0	0	1964	1168	3660	73
99	0	0	2011	1169	3661	73
100	0	0	2075	1169	3662	71
101	0	0	2130	1169	3662	73
102	0	0	2190	1168	3660	74
103	0	0	2229	1169	3661	73
104	0	0	2319	1168	3659	73
105	0	0	2443	1169	3659	73
106	0	0	2481	1169	3658	73
107	0	0	2432	1164	3661	72
108	0	0	2351	1163	3658	74
109	0	0	2214	1165	3661	73
110	0	0	2072	1165	3661	73
111	0	0	1989	1165	3661	74
112	0	0	1940	1165	3662	73
113	0	0	1901	1166	3660	74
114	0	0	1876	1167	3661	72
115	0	0	1891	1169	3661	72
116	0	0	1959	1169	3658	73
117	0	0	2017	1168	3661	73
118	0	0	2070	1169	3661	73
119	0	0	2154	1169	3661	73
120	0	0	2239	1168	3661	73
121	0	0	2276	1169	3660	74
122	0	0	2287	1167	3662	73
123	0	0	2311	1167	3660	73
124	0	0	2367	1171	3659	73
125	0	0	2416	1168	3660	74
126	0	0	2414	1168	3660	73
127	0	0	2381	1165	3661	72
0	0	0	2312	1163	3660	72
1	0	0	2199	1164	3661	73
2	0	0	2073	1164	3661	73
3	0	0	1974	1165	3660	74
4	0	0	1914	1166	3662	72
5	0	0	1868	1165	3660	73
6	0	0	1817	1164	3661	72
7	0	0	1807	1168	3661	73
8	0	0	1864	1169	3660	73
9	0	0	1946	1168	3661	74
10	0	0	2019	1168	3660	73
11	0	0	2110	1167	3661	72
12	0	0	2217	1168	3660	71
13	0	0	2298	1169	3661	74
14	0	0	2343	1167	3660	73
15	0	0	2369	1168	3661	73
16	0	0	2414	1168	3659	73
17	0	0	2469	1168	3660	72
18	0	0	2476	1168	3661	73
19	0	0	2450	1166	3661	74
20	0	0	2383	1164	3660	73
21	0	0	2294	1164	3661	72
22	0	0	2194	1164	3662	75
23	0	0	2073	1164	3660	74
24	0	0	1964	1164	3661	73
25	0	0	1905	1165	3660	73
26	0	0	1854	1165	3659	73
27	0	0	1826	1168	3659	71
28	0	0	1827	1168	3660	73
29	0	0	1860	1168	3660	73
30	0	0	1940	1168	3660	73
31	0	0	2030	1168	3660	75
32	0	0	2106	1167	3662	74
33	0	0	2196	1168	3661	74
34	0	0	2295	1168	3662	73
35	0	0	2373	1169	3662	74
36	0	0	2444	1169	3659	73
37	0	0	2493	1169	3659	72
38	0	0	2489	1169	3661	73
39	0	0	2430	1166	3661	73
40	0	0	2301	1163	3660	73
41	0	0	2137	1163	3661	73
42	0	0	1988	1163	3662	73
43	0	0	1896	1165	3661	71
44	0	0	1832	1165	3662	73
45	0	0	1797	1165	3660	73
46	0	0	1778	1166	3659	73
47	0	0	1782	1167	3660	73
48	0	0	1854	1169	3661	72
49	0	0	1931	1169	3660	73
50	0	0	1994	1168	3661	72
51	0	0	2068	1170	3660	73
52	0	0	2119	1168	3661	73
53	0	0	2144	1168	3663	73
54	0	0	2151	1168	3663	73
55	0	0	2176	1169	3660	73
56	0	0	2253	1167	3660	73
57	0	0	2330	1167	3660	73
58	0	0	2308	1165	3660	73
59	0	0	2225	1164	3660	73
60	0	0	2144	1164	3660	74
61	0	0	2050	1163	3661	73
62	0	0	1952	1163	3661	73
63	0	0	1878	1164	3662	72
64	0	0	1826	1166	3661	73
65	0	0	1798	1165	3660	73
66	0	0	1748	1165	3660	72
67	0	0	1725	1168	3660	72
68	0	0	1748	1167	3659	71
69	0	0	1799	1168	3661	49
70	0	0	1866	1167	3659	71
71	0	0	1947	1168	3659	74
72	0	0	2012	1170	3661	72
73	0	0	2052	1168	3661	73
74	0	0	2062	1168	3660	73
75	0	0	2080	1170	3661	73
76	0	0	2160	1167	3660	74
77	0	0	2252	1167	3660	73
78	0	0	2247	1166	3662	73
79	0	0	2194	1165	3660	73
80	0	0	2138	1164	3660	73
81	0	0	2018	1165	3662	72
82	0	0	1878	1163	3662	72
83	0	0	1764	1164	3661	72
84	0	0	1677	1163	3662	73
85	0	0	1614	1164	3660	73
86	0	0	1561	1164	3659	73
87	0	0	1527	1166	3660	73
88	0	0	1571	1168	3660	72
89	0	0	1655	1165	3660	73
90	0	0	1751	1168	3660	73
91	0	0	1857	1168	3660	73
92	0	0	1953	1167	3660	73
93	0	0	2034	1168	3661	71
94	0	0	2099	1167	3662	72
95	0	0	2145	1168	3660	73
96	0	0	2215	1170	3660	72
97	0	0	2276	1168	3660	71
98	0	0	2231	1164	3660	71
99	0	0	2133	1163	3660	74
100	0	0	2048	1163	3660	73
101	0	0	1948	1163	3661	73
102	0	0	1823	1163	3661	73
103	0	0	1703	1164	3662	72
104	0	0	1622	1164	3662	74
105	0	0	1602	1166	3660	74
106	0	0	1574	1164	3659	73
107	0	0	1542	1165	3660	73
108	0	0	1577	1168	3660	73
109	0	0	1657	1166	3660	73
110	0	0	1764	1166	3660	73
111	0	0	1844	1167	3660	73
112	0	0	1910	1166	3662	72
113	0	0	1949	1168	3663	73
114	0	0	2005	1166	3661	73
115	0	0	2082	1167	3662	72
116	0	0	2173	1170	3659	73
117	0	0	2243	1168	3659	73
118	0	0	2265	1169	3660	72
119	0	0	2217	1163	3659	73
120	0	0	2117	1162	3660	73
121	0	0	1968	1164	3660	73
122	0	0	1839	1161	3662	73
123	0	0	1738	1164	3663	74
124	0	0	1673	1163	3661	73
125	0	0	1643	1164	3660	73
126	0	0	1599	1163	3659	73
127	0	0	1574	1167	3660	73
0	0	0	1632	1167	3657	74
1	0	0	1710	1167	3660	73
2	0	0	1785	1167	3660	73
3	0	0	1863	1166	3660	73
4	0	0	1957	1166	3663	72
5	0	0	2025	1167	3661	74
6	0	0	2055	1167	3661	74
7	0	0	2082	1168	3661	74
8	0	0	2156	1167	3659	73
9	0	0	2243	1167	3660	73
10	0	0	2251	1167	3661	72
11	0	0	2207	1165	3661	73
12	0	0	2163	1163	3659	73
13	0	0	2063	1162	3660	73
14	0	0	1927	1161	3663	72
15	0	0	1818	1163	3659	73
16	0	0	1749	1163	3662	73
17	0	0	1689	1163	3660	73
18	0	0	1631	1163	3661	73
19	0	0	1605	1166	3660	71
20	0	0	1646	1168	3660	71
21	0	0	1710	1167	3660	72
22	0	0	1761	1167	3660	77
23	0	0	1810	1168	3661	73
24	0	0	1892	1168	3662	73
25	0	0	1995	1166	3662	72
26	0	0	2069	1168	3662	73
27	0	0	2108	1167	3660	73
28	0	0	2179	1166	3660	72
29	0	0	2237	1167	3659	72
30	0	0	2181	1164	3661	72
31	0	0	2104	1163	3660	75
32	0	0	2035	1163	3660	73
33	0	0	1953	1165	3659	72
34	0	0	1895	1164	3661	73
35	0	0	1842	1164	3661	72
36	0	0	1770	1164	3662	74
37	0	0	1711	1163	3660	73
38	0	0	1663	1162	3660	74
39	0	0	1627	1164	3659	73
40	0	0	1625	1168	3658	74
41	0	0	1649	1167	3660	73
42	0	0	1718	1167	3660	73
43	0	0	1803	1168	3661	72
44	0	0	1897	1167	3662	73
45	0	0	1975	1168	3662	73
46	0	0	2070	1167	3662	73
47	0	0	2149	1167	3660	71
48	0	0	2229	1167	3660	72
49	0	0	2291	1167	3659	73
50	0	0	2266	1164	3657	74
51	0	0	2197	1163	3661	74
52	0	0	2111	1163	3660	74
53	0	0	2007	1163	3660	73
54	0	0	1916	1163	3661	73
55	0	0	1848	1164	3661	73
56	0	0	1793	1163	3662	73
57	0	0	1755	1164	3660	73
58	0	0	1745	1166	3659	73
59	0	0	1745	1167	3659	72
60	0	0	1788	1166	3660	72
61	0	0	1850	1167	3658	71
62	0	0	1885	1167	3661	72
63	0	0	1878	1162	3660	73
64	0	0	1866	1167	3661	74
65	0	0	1918	1166	3662	71
66	0	0	2018	1167	3660	73
67	0	0	2105	1166	3660	73
68	0	0	2176	1167	3660	74
69	0	0	2228	1166	3659	74
70	0	0	2219	1166	3660	71
71	0	0	2193	1165	3660	73
72	0	0	2124	1163	3660	73
73	0	0	1977	1162	3660	73
74	0	0	1827	1161	3661	73
75	0	0	1730	1163	3661	71
76	0	0	1717	1167	3662	73
77	0	0	1737	1168	3660	73
78	0	0	1757	1166	3660	72
79	0	0	1732	1164	3658	74
80	0	0	1726	1166	3660	71
81	0	0	1740	1166	3660	73
82	0	0	1749	1167	3660	75
83	0	0	1792	1166	3661	74
84	0	0	1887	1168	3661	73
85	0	0	1971	1166	3662	71
86	0	0	2042	1166	3659	73
87	0	0	2112	1167	3660	73
88	0	0	2207	1167	3659	73
89	0	0	2305	1166	3657	74
90	0	0	2324	1167	3659	71
91	0	0	2296	1164	3661	73
92	0	0	2235	1162	3660	74
93	0	0	2141	1163	3662	72
94	0	0	2035	1163	3662	73
95	0	0	1893	1161	3661	71
96	0	0	1802	1162	3660	73
97	0	0	1744	1163	3660	73
98	0	0	1671	1163	3659	72
99	0	0	1622	1164	3658	73
100	0	0	1652	1166	3660	73
101	0	0	1718	1166	3658	72
102	0	0	1769	1166	3660	73
103	0	0	1833	1167	3660	73
104	0	0	1924	1166	3660	75
105	0	0	2017	1167	3660	74
106	0	0	2121	1165	3660	73
107	0	0	2215	1167	3662	72
108	0	0	2320	1167	3659	73
109	0	0	2420	1167	3659	73
110	0	0	2460	1167	3660	72
111	0	0	2437	1164	3657	71
112	0	0	2377	1163	3659	71
113	0	0	2226	1162	3661	73
114	0	0	2058	1161	3659	74
115	0	0	1914	1161	3662	71
116	0	0	1805	1161	3661	72
117	0	0	1721	1162	3661	73
118	0	0	1665	1162	3660	74
119	0	0	1670	1165	3657	74
120	0	0	1742	1166	3659	72
121	0	0	1807	1167	3658	73
122	0	0	1874	1165	3660	73
123	0	0	1955	1166	3663	73
124	0	0	2032	1167	3662	77
125	0	0	2096	1164	3662	71
126	0	0	2145	1167	3661	72
127	0	0	2184	1166	3660	77
0	0	0	2235	1166	3660	72
1	0	0	2276	1167	3658	73
2	0	0	2255	1165	3659	72
3	0	0	2234	1165	3660	71
4	0	0	2206	1163	3660	75
5	0	0	2134	1161	3660	73
6	0	0	2048	1162	3660	72
7	0	0	1950	1163	3661	73
8	0	0	1874	1162	3661	72
9	0	0	1799	1162	3660	74
10	0	0	1726	1160	3661	73
11	0	0	1710	1166	3660	73
12	0	0	1747	1167	3660	72
13	0	0	1814	1166	3660	73
14	0	0	1870	1166	3661	72
15	0	0	1925	1167	3660	73
16	0	0	2012	1166	3660	72
17	0	0	2091	1166	3662	73
18	0	0	2160	1166	3660	73
19	0	0	2198	1165	3660	73
20	0	0	2263	1168	3660	73
21	0	0	2338	1167	3658	73
22	0	0	2323	1163	3659	72
23	0	0	2241	1162	3659	73
24	0	0	2129	1161	3660	74
25	0	0	2006	1160	3662	75
26	0	0	1916	1162	3661	73
27	0	0	1841	1162	3663	73
28	0	0	1780	1162	3662	73
29	0	0	1737	1164	3660	73
30	0	0	1719	1163	3660	73
31	0	0	1722	1165	3660	72
32	0	0	1773	1166	3660	74
33	0	0	1824	1163	3661	73
34	0	0	1868	1164	3660	73
35	0	0	1928	1165	3660	74
36	0	0	2021	1164	3661	72
37	0	0	2157	1166	3661	72
38	0	0	2268	1166	3661	74
39	0	0	2358	1164	3660	73
40	0	0	2410	1165	3661	73
41	0	0	2424	1166	3660	74
42	0	0	2355	1163	3660	72
43	0	0	2266	1163	3661	72
44	0	0	2190	1162	3660	73
45	0	0	2059	1161	3660	73
46	0	0	1925	1162	3661	73
47	0	0	1843	1163	3663	73
48	0	0	1800	1162	3662	73
49	0	0	1788	1164	3660	71
50	0	0	1760	1162	3658	74
51	0	0	1730	1163	3660	72
52	0	0	1754	1165	3660	72
53	0	0	1784	1166	3659	72
54	0	0	1833	1163	3660	73
55	0	0	1891	1165	3660	73
56	0	0	1964	1164	3662	72
57	0	0	2063	1165	3661	72
58	0	0	2149	1166	3661	73
59	0	0	2204	1164	3660	73
60	0	0	2274	1165	3661	73
61	0	0	2366	1166	3660	73
62	0	0	2393	1166	3659	72
63	0	0	2348	1162	3661	72
64	0	0	2273	1159	3660	73
65	0	0	2147	1164	3660	74
66	0	0	1997	1160	3662	72
67	0	0	1885	1161	3661	71
68	0	0	1813	1162	3661	72
69	0	0	1775	1161	3660	73
70	0	0	1756	1164	3659	74
71	0	0	1731	1163	3660	73
72	0	0	1736	1166	3659	72
73	0	0	1782	1165	3660	72
74	0	0	1882	1163	3660	73
75	0	0	1989	1166	3660	74
76	0	0	2068	1165	3662	74
77	0	0	2147	1166	3662	74
78	0	0	2214	1165	3661	72
79	0	0	2279	1166	3660	74
80	0	0	2347	1166	3660	74
81	0	0	2387	1166	3660	71
82	0	0	2360	1163	3660	72
83	0	0	2316	1162	3659	72
84	0	0	2231	1161	3660	73
85	0	0	2107	1160	3661	72
86	0	0	1999	1162	3662	71
87	0	0	1909	1162	3662	76
88	0	0	1829	1161	3662	73
89	0	0	1772	1159	3661	73
90	0	0	1724	1161	3661	72
91	0	0	1709	1165	3660	72
92	0	0	1757	1165	3660	76
93	0	0	1811	1165	3660	72
94	0	0	1852	1165	3660	75
95	0	0	1931	1165	3661	71
96	0	0	2039	1164	3663	74
97	0	0	2144	1165	3662	76
98	0	0	2221	1165	3660	71
99	0	0	2275	1165	3660	74
100	0	0	2325	1165	3661	73
101	0	0	2365	1166	3660	72
102	0	0	2315	1163	3660	73
103	0	0	2243	1163	3659	72
104	0	0	2186	1161	3660	74
105	0	0	2099	1160	3661	73
106	0	0	1999	1161	3662	72
107	0	0	1924	1161	3661	72
108	0	0	1868	1161	3664	71
109	0	0	1833	1162	3661	73
110	0	0	1809	1162	3661	71
111	0	0	1813	1165	3660	72
112	0	0	1834	1165	3660	75
113	0	0	1871	1165	3661	72
114	0	0	1923	1165	3660	73
115	0	0	1957	1165	3661	71
116	0	0	2006	1167	3662	74
117	0	0	2075	1165	3662	73
118	0	0	2148	1166	3661	72
119	0	0	2217	1165	3661	71
120	0	0	2293	1163	3660	73
121	0	0	2385	1167	3660	74
122	0	0	2390	1164	3660	75
123	0	0	2334	1162	3660	73
124	0	0	2262	1163	3661	76
125	0	0	2147	1160	3659	72
126	0	0	2015	1161	3662	72
127	0	0	1902	1161	3662	73
0	0	0	1829	1161	3662	73
1	0	0	1793	1162	3663	73
2	0	0	1790	1165	3660	72
3	0	0	1803	1164	3661	73
4	0	0	1857	1165	3660	75
5	0	0	1919	1165	3660	72
6	0	0	1959	1164	3660	73
7	0	0	2004	1164	3660	72
8	0	0	2089	1167	3662	74
9	0	0	2154	1166	3662	74
10	0	0	2215	1165	3660	73
11	0	0	2263	1165	3660	73
12	0	0	2288	1165	3660	73
13	0	0	2340	1167	3660	74
14	0	0	2352	1166	3660	71
15	0	0	2313	1162	3658	71
16	0	0	2244	1161	3660	73
17	0	0	2125	1159	3660	73
18	0	0	2009	1161	3661	73
19	0	0	1897	1161	3662	73
20	0	0	1810	1161	3660	72
21	0	0	1761	1162	3662	72
22	0	0	1724	1162	3660	73
23	0	0	1708	1166	3660	73
24	0	0	1737	1165	3660	72
25	0	0	1792	1165	3660	73
26	0	0	1896	1165	3662	76
27	0	0	2012	1164	3661	73
28	0	0	2092	1164	3660	74
29	0	0	2182	1166	3662	74
30	0	0	2269	1164	3660	73
31	0	0	2328	1165	3660	72
32	0	0	2372	1164	3657	74
33	0	0	2418	1165	3660	72
34	0	0	2393	1162	3660	75
35	0	0	2318	1161	3662	74
36	0	0	2232	1160	3660	73
37	0	0	2125	1161	3662	73
38	0	0	2004	1161	3662	72
39	0	0	1910	1160	3662	73
40	0	0	1862	1161	3662	72
41	0	0	1829	1162	3660	74
42	0	0	1802	1161	3660	74
43	0	0	1765	1162	3660	73
44	0	0	1774	1165	3660	75
45	0	0	1823	1165	3661	72
46	0	0	1883	1164	3660	74
47	0	0	1939	1164	3661	73
48	0	0	2006	1165	3662	71
49	0	0	2096	1164	3662	73
50	0	0	2176	1164	3662	72
51	0	0	2259	1165	3660	73
52	0	0	2352	1163	3659	73
53	0	0	2441	1163	3660	73
54	0	0	2448	1165	3660	71
55	0	0	2404	1164	3662	73
56	0	0	2334	1161	3661	72
57	0	0	2220	1158	3658	74
58	0	0	2097	1158	3662	72
59	0	0	1985	1159	3661	72
60	0	0	1900	1160	3662	73
61	0	0	1866	1162	3663	75
62	0	0	1841	1161	3660	73
63	0	0	1796	1163	3660	72
64	0	0	1786	1164	3660	73
65	0	0	1819	1164	3659	72
66	0	0	1894	1164	3660	73
67	0	0	1981	1166	3660	73
68	0	0	2058	1164	3661	73
69	0	0	2144	1165	3662	71
70	0	0	2240	1165	3663	73
71	0	0	2323	1164	3662	74
72	0	0	2410	1162	3657	74
73	0	0	2480	1162	3660	72
74	0	0	2434	1161	3660	72
75	0	0	2370	1161	3662	72
76	0	0	2301	1160	3660	74
77	0	0	2174	1160	3658	74
78	0	0	2053	1160	3660	74
79	0	0	1958	1161	3662	74
80	0	0	1892	1160	3662	73
81	0	0	1840	1160	3660	73
82	0	0	1826	1163	3661	71
83	0	0	1826	1165	3661	73
84	0	0	1832	1164	3660	72
85	0	0	1858	1164	3661	72
86	0	0	1920	1164	3660	75
87	0	0	2013	1164	3660	76
88	0	0	2100	1162	3662	73
89	0	0	2188	1166	3662	72
90	0	0	2265	1164	3661	72
91	0	0	2292	1166	3662	73
92	0	0	2324	1165	3657	74
93	0	0	2376	1164	3659	71
94	0	0	2383	1164	3660	70
95	0	0	2352	1161	3661	73
96	0	0	2296	1161	3660	73
97	0	0	2188	1160	3661	71
98	0	0	2059	1160	3662	73
99	0	0	1958	1162	3661	75
100	0	0	1877	1160	3661	73
101	0	0	1824	1162	3662	72
102	0	0	1796	1161	3658	73
103	0	0	1775	1161	3660	73
104	0	0	1788	1164	3660	72
105	0	0	1841	1164	3661	73
106	0	0	1916	1166	3660	73
107	0	0	1990	1164	3660	73
108	0	0	2035	1164	3660	71
109	0	0	2093	1165	3661	74
110	0	0	2185	1164	3661	72
111	0	0	2264	1164	3659	74
112	0	0	2352	1164	3660	71
113	0	0	2453	1165	3660	71
114	0	0	2463	1164	3660	75
115	0	0	2410	1161	3659	73
116	0	0	2357	1160	3660	73
117	0	0	2273	1160	3660	73
118	0	0	2171	1158	3661	73
119	0	0	2076	1160	3662	73
120	0	0	1983	1160	3661	72
121	0	0	1898	1161	3661	73
122	0	0	1833	1160	3660	74
123	0	0	1810	1163	3659	72
124	0	0	1824	1165	3659	73
125	0	0	1863	1162	3659	72
126	0	0	1896	1163	3660	74
127	0	0	1926	1164	3660	73
0	0	0	1982	1163	3661	71
1	0	0	2058	1165	3662	72
2	0	0	2141	1164	3660	74
3	0	0	2211	1164	3662	72
4	0	0	2277	1162	3660	73
5	0	0	2389	1165	3659	73
6	0	0	2432	1164	3660	75
7	0	0	2405	1162	3659	76
8	0	0	2368	1161	3660	73
9	0	0	2261	1160	3661	72
10	0	0	2131	1159	3661	71
11	0	0	2019	1160	3662	72
12	0	0	1936	1159	3660	74
13	0	0	1895	1161	3661	74
14	0	0	1856	1160	3660	73
15	0	0	1820	1161	3659	72
16	0	0	1828	1165	3660	74
17	0	0	1869	1164	3660	72
18	0	0	1939	1164	3659	74
19	0	0	2027	1162	3660	73
20	0	0	2105	1164	3661	71
21	0	0	2181	1165	3660	72
22	0	0	2251	1164	3661	71
23	0	0	2297	1164	3660	73
24	0	0	2324	1164	3660	73
25	0	0	2380	1164	3659	74
26	0	0	2373	1161	3660	76
27	0	0	2312	1161	3658	73
28	0	0	2252	1160	3660	73
29	0	0	2179	1159	3660	73
30	0	0	2119	1161	3661	71
31	0	0	2069	1162	3661	72
32	0	0	2014	1161	3661	74
33	0	0	1973	1160	3662	73
34	0	0	1922	1160	3660	74
35	0	0	1875	1160	3660	73
36	0	0	1870	1164	3660	72
37	0	0	1870	1165	3659	71
38	0	0	1897	1164	3661	72
39	0	0	1973	1162	3662	73
40	0	0	2068	1163	3661	73
41	0	0	2166	1165	3663	73
42	0	0	2241	1164	3661	72
43	0	0	2277	1164	3662	73
44	0	0	2329	1164	3662	75
45	0	0	2427	1164	3660	71
46	0	0	2463	1164	3660	73
47	0	0	2466	1164	3660	73
48	0	0	2430	1160	3661	72
49	0	0	2317	1160	3661	73
50	0	0	2193	1158	3660	75
51	0	0	2110	1160	3662	74
52	0	0	2053	1160	3661	72
53	0	0	1993	1160	3661	73
54	0	0	1938	1160	3659	74
55	0	0	1903	1162	3659	72
56	0	0	1920	1162	3660	73
57	0	0	1926	1164	3661	72
58	0	0	1931	1163	3660	73
59	0	0	1985	1164	3662	75
60	0	0	2078	1162	3660	74
61	0	0	2172	1164	3661	76
62	0	0	2212	1164	3660	72
63	0	0	2225	1165	3662	72
64	0	0	2263	1163	3659	72
65	0	0	2350	1163	3657	74
66	0	0	2388	1165	3660	72
67	0	0	2372	1162	3660	75
68	0	0	2330	1160	3660	73
69	0	0	2252	1160	3662	72
70	0	0	2156	1160	3661	76
71	0	0	2057	1160	3662	72
72	0	0	1987	1159	3662	72
73	0	0	1947	1160	3660	73
74	0	0	1874	1159	3659	72
75	0	0	1764	1158	3657	73
76	0	0	1748	1163	3660	76
77	0	0	1811	1163	3659	74
78	0	0	1908	1163	3660	73
79	0	0	1993	1162	3660	73
80	0	0	2057	1162	3662	73
81	0	0	2130	1164	3662	73
82	0	0	2206	1164	3661	75
83	0	0	2270	1164	3660	73
84	0	0	2338	1163	3660	72
85	0	0	2451	1165	3660	74
86	0	0	2494	1163	3659	71
87	0	0	2428	1161	3660	72
88	0	0	2312	1158	3660	73
89	0	0	2172	1159	3660	73
90	0	0	2070	1160	3661	74
91	0	0	1992	1159	3662	75
92	0	0	1899	1159	3661	75
93	0	0	1811	1160	3659	73
94	0	0	1752	1159	3659	74
95	0	0	1705	1160	3660	73
96	0	0	1724	1163	3661	75
97	0	0	1767	1163	3659	73
98	0	0	1838	1162	3661	74
99	0	0	1934	1163	3660	71
100	0	0	2023	1163	3662	73
101	0	0	2122	1164	3663	73
102	0	0	2228	1162	3661	75
103	0	0	2296	1164	3662	73
104	0	0	2338	1162	3660	73
105	0	0	2412	1162	3660	73
106	0	0	2423	1163	3660	73
107	0	0	2386	1160	3660	75
108	0	0	2342	1159	3660	74
109	0	0	2227	1158	3661	72
110	0	0	2083	1158	3662	73
111	0	0	1978	1159	3662	71
112	0	0	1923	1159	3661	74
113	0	0	1868	1159	3661	73
114	0	0	1815	1159	3661	72
115	0	0	1763	1160	3660	73
116	0	0	1761	1163	3660	73
117	0	0	1799	1164	3661	73
118	0	0	1851	1164	3660	73
119	0	0	1920	1163	3661	71
120	0	0	1993	1163	3662	75
121	0	0	2067	1163	3662	73
122	0	0	2146	1163	3661	73
123	0	0	2204	1164	3660	73
124	0	0	2260	1163	3659	71
125	0	0	2316	1166	3660	72
126	0	0	2285	1160	3660	75
127	0	0	2205	1159	3659	75
0	0	0	2128	1157	3661	72
1	0	0	2049	1160	3662	72
2	0	0	1993	1160	3661	73
3	0	0	1937	1159	3662	72
4	0	0	1874	1159	3661	71
5	0	0	1850	1162	3662	73
6	0	0	1841	1162	3660	74
7	0	0	1827	1165	3659	73
8	0	0	1844	1162	3660	72
9	0	0	1873	1163	3660	73
10	0	0	1908	1163	3660	74
11	0	0	1966	1162	3660	75
12	0	0	2028	1162	3662	73
13	0	0	2105	1162	3662	73
14	0	0	2195	1163	3661	72
15	0	0	2253	1163	3661	74
16	0	0	2306	1163	3660	71
17	0	0	2408	1164	3660	75
18	0	0	2457	1163	3660	74
19	0	0	2442	1160	3659	73
20	0	0	2360	1159	3660	73
21	0	0	2243	1159	3664	72
22	0	0	2116	1160	3661	73
23	0	0	2014	1157	3662	73
24	0	0	1899	1158	3661	72
25	0	0	1789	1159	3662	73
26	0	0	1719	1158	3659	73
27	0	0	1675	1162	3660	72
28	0	0	1689	1162	3660	72
29	0	0	1735	1162	3661	72
30	0	0	1796	1163	3660	73
31	0	0	1895	1163	3661	72
32	0	0	1992	1164	3661	72
33	0	0	2087	1163	3661	73
34	0	0	2191	1163	3661	72
35	0	0	2303	1164	3660	73
36	0	0	2382	1164	3661	72
37	0	0	2421	1165	3660	72
38	0	0	2385	1159	3660	74
39	0	0	2303	1159	3659	72
40	0	0	2205	1159	3660	73
41	0	0	2104	1159	3664	73
42	0	0	2007	1160	3662	72
43	0	0	1903	1158	3662	73
44	0	0	1815	1158	3661	72
45	0	0	1762	1159	3660	73
46	0	0	1701	1159	3661	72
47	0	0	1628	1159	3659	73
48	0	0	1648	1163	3660	72
49	0	0	1756	1162	3659	72
50	0	0	1856	1163	3660	73
51	0	0	1937	1162	3661	72
52	0	0	2046	1163	3662	72
53	0	0	2172	1163	3662	72
54	0	0	2273	1163	3661	72
55	0	0	2371	1162	3661	73
56	0	0	2479	1164	3664	74
57	0	0	2589	1165	3660	72
58	0	0	2639	1164	3660	72
59	0	0	2644	1163	3659	72
60	0	0	2640	1163	3660	73
61	0	0	2594	1159	3661	71
62	0	0	2536	1159	3662	71
63	0	0	2485	1159	3662	73
64	0	0	2457	1162	3662	73
65	0	0	2440	1165	3660	74
66	0	0	2444	1162	3660	74
67	0	0	2429	1165	3660	72
68	0	0	2457	1162	3659	74
69	0	0	2524	1163	3659	72
70	0	0	2596	1162	3660	73
71	0	0	2677	1163	3662	73
72	0	0	2787	1163	3661	72
73	0	0	2892	1162	3662	74
74	0	0	2922	1163	3661	72
75	0	0	2920	1164	3660	73
76	0	0	2928	1162	3659	73
77	0	0	2947	1165	3659	72
78	0	0	2866	1159	3660	73
79	0	0	2709	1158	3659	72
80	0	0	2539	1158	3661	72
81	0	0	2392	1155	3662	73
82	0	0	2272	1158	3661	73
83	0	0	2158	1157	3662	75
84	0	0	2022	1157	3661	72
85	0	0	1888	1158	3660	72
86	0	0	1778	1156	3659	73
87	0	0	1671	1156	3659	73
88	0	0	1623	1159	3660	73
89	0	0	1643	1163	3659	72
90	0	0	1698	1162	3660	73
91	0	0	1755	1161	3660	73
92	0	0	1799	1162	3661	74
93	0	0	1854	1162	3661	74
94	0	0	1922	1162	3660	72
95	0	0	1977	1162	3662	73
96	0	0	2025	1160	3659	73
97	0	0	2113	1162	3659	73
98	0	0	2161	1162	3659	74
99	0	0	2131	1157	3659	74
100	0	0	2072	1159	3660	73
101	0	0	1988	1159	3659	73
102	0	0	1904	1157	3661	74
103	0	0	1801	1157	3662	73
104	0	0	1699	1159	3660	72
105	0	0	1645	1161	3662	73
106	0	0	1648	1162	3661	70
107	0	0	1660	1163	3659	73
108	0	0	1702	1162	3660	72
109	0	0	1726	1161	3659	74
110	0	0	1790	1163	3661	71
111	0	0	1916	1162	3662	70
112	0	0	2030	1162	3661	73
113	0	0	2099	1162	3662	73
114	0	0	2140	1162	3661	72
115	0	0	2181	1165	3662	73
116	0	0	2214	1165	3660	72
117	0	0	2257	1163	3659	73
118	0	0	2238	1161	3660	73
119	0	0	2199	1158	3658	76
120	0	0	2131	1160	3661	72
121	0	0	2040	1158	3660	73
122	0	0	1973	1160	3661	73
123	0	0	1934	1160	3662	73
124	0	0	1908	1160	3661	74
125	0	0	1895	1162	3662	73
126	0	0	1862	1159	3661	71
127	0	0	1807	1160	3659	73
0	0	0	1786	1160	3660	72
1	0	0	1789	1162	3659	71
2	0	0	1788	1164	3661	70
3	0	0	1822	1162	3660	72
4	0	0	1894	1160	3661	75
5	0	0	1975	1163	3662	73
6	0	0	2086	1162	3661	74
7	0	0	2195	1162	3661	72
8	0	0	2295	1163	3660	73
9	0	0	2380	1162	3660	72
10	0	0	2385	1161	3660	72
11	0	0	2330	1159	3659	71
12	0	0	2278	1157	3660	73
13	0	0	2173	1156	3660	73
14	0	0	2036	1158	3661	73
15	0	0	1931	1158	3662	73
16	0	0	1834	1158	3661	74
17	0	0	1759	1160	3660	73
18	0	0	1712	1158	3660	74
19	0	0	1669	1158	3659	75
20	0	0	1714	1162	3659	72
21	0	0	1802	1161	3659	71
22	0	0	1852	1161	3660	73
23	0	0	1919	1162	3660	73
24	0	0	1986	1162	3662	73
25	0	0	2043	1162	3660	73
26	0	0	2121	1162	3661	71
27	0	0	2194	1161	3660	73
28	0	0	2247	1164	3661	73
29	0	0	2332	1163	3658	72
30	0	0	2347	1162	3660	72
31	0	0	2288	1158	3660	74
32	0	0	2206	1158	3660	73
33	0	0	2109	1157	3661	73
34	0	0	2004	1158	3661	73
35	0	0	1938	1159	3663	72
36	0	0	1894	1158	3661	71
37	0	0	1851	1159	3662	72
38	0	0	1806	1158	3662	75
39	0	0	1740	1158	3659	71
40	0	0	1714	1161	3660	73
41	0	0	1754	1162	3659	71
42	0	0	1832	1161	3660	74
43	0	0	1936	1162	3660	76
44	0	0	2060	1160	3661	75
45	0	0	2176	1161	3662	72
46	0	0	2255	1162	3660	67
47	0	0	2293	1162	3660	72
48	0	0	2315	1161	3660	73
49	0	0	2391	1160	3659	73
50	0	0	2417	1162	3660	73
51	0	0	2380	1159	3661	73
52	0	0	2319	1158	3660	73
53	0	0	2189	1157	3662	74
54	0	0	2054	1159	3662	73
55	0	0	1960	1159	3661	73
56	0	0	1874	1157	3661	69
57	0	0	1809	1159	3661	73
58	0	0	1758	1158	3662	73
59	0	0	1695	1158	3658	71
60	0	0	1691	1161	3660	73
61	0	0	1725	1161	3661	71
62	0	0	1781	1161	3660	74
63	0	0	1821	1160	3660	73
64	0	0	1905	1163	3660	73
65	0	0	2045	1161	3662	72
66	0	0	2190	1162	3661	72
67	0	0	2283	1165	3659	73
68	0	0	2345	1162	3660	76
69	0	0	2437	1164	3659	72
70	0	0	2446	1160	3660	73
71	0	0	2383	1159	3660	72
72	0	0	2310	1160	3659	73
73	0	0	2181	1157	3661	73
74	0	0	2027	1158	3662	72
75	0	0	1913	1158	3661	72
76	0	0	1856	1158	3661	72
77	0	0	1820	1160	3661	73
78	0	0	1790	1157	3660	74
79	0	0	1758	1159	3658	72
80	0	0	1754	1160	3660	72
81	0	0	1775	1162	3659	72
82	0	0	1805	1163	3660	73
83	0	0	1873	1160	3660	73
84	0	0	1976	1161	3660	73
85	0	0	2082	1161	3661	73
86	0	0	2169	1162	3662	72
87	0	0	2238	1163	3660	73
88	0	0	2304	1161	3660	74
89	0	0	2437	1160	3659	74
90	0	0	2484	1161	3659	72
91	0	0	2442	1158	3659	72
92	0	0	2372	1157	3661	72
93	0	0	2240	1157	3662	73
94	0	0	2118	1157	3660	73
95	0	0	2017	1158	3662	72
96	0	0	1921	1156	3661	72
97	0	0	1823	1157	3662	72
98	0	0	1752	1158	3660	70
99	0	0	1730	1162	3659	73
100	0	0	1788	1159	3660	73
101	0	0	1890	1161	3660	73
102	0	0	1962	1162	3660	73
103	0	0	2018	1161	3660	71
104	0	0	2067	1162	3659	72
105	0	0	2118	1160	3662	72
106	0	0	2164	1162	3661	74
107	0	0	2222	1162	3660	73
108	0	0	2313	1160	3660	73
109	0	0	2430	1163	3658	72
110	0	0	2460	1160	3660	72
111	0	0	2406	1156	3659	68
112	0	0	2317	1157	3660	73
113	0	0	2188	1156	3660	73
114	0	0	2072	1158	3659	72
115	0	0	1974	1157	3662	72
116	0	0	1899	1157	3661	73
117	0	0	1873	1161	3662	73
118	0	0	1887	1164	3660	72
119	0	0	1882	1161	3658	72
120	0	0	1889	1162	3660	73
121	0	0	1934	1162	3659	74
122	0	0	2012	1160	3661	71
123	0	0	2117	1159	3661	73
124	0	0	2216	1163	3661	73
125	0	0	2277	1161	3662	74
126	0	0	2287	1162	3661	72
127	0	0	2271	1161	3660	73
0	0	0	2281	1161	3661	73
1	0	0	2363	1163	3659	72
2	0	0	2399	1163	3658	72
3	0	0	2370	1158	3659	73
4	0	0	2318	1157	3660	74
5	0	0	2245	1158	3661	72
6	0	0	2187	1158	3662	73
7	0	0	2132	1155	3661	73
8	0	0	2071	1158	3662	72
9	0	0	1987	1158	3660	72
10	0	0	1917	1157	3660	71
11	0	0	1858	1157	3658	72
12	0	0	1861	1163	3660	72
13	0	0	1943	1161	3660	72
14	0	0	2021	1160	3659	73
15	0	0	2092	1160	3660	73
16	0	0	2179	1160	3661	74
17	0	0	2265	1161	3663	73
18	0	0	2330	1161	3660	72
19	0	0	2395	1161	3661	74
20	0	0	2459	1161	3660	72
21	0	0	2557	1163	3659	72
22	0	0	2592	1161	3660	71
23	0	0	2568	1159	3660	73
24	0	0	2488	1158	3660	73
25	0	0	2333	1156	3660	74
26	0	0	2162	1157	3661	73
27	0	0	2030	1157	3663	73
28	0	0	1952	1157	3661	73
29	0	0	1904	1158	3661	74
30	0	0	1889	1160	3660	73
31	0	0	1869	1161	3659	72
32	0	0	1892	1159	3660	73
33	0	0	1950	1161	3660	73
34	0	0	2033	1161	3660	73
35	0	0	2130	1160	3660	74
36	0	0	2220	1161	3661	74
37	0	0	2271	1163	3663	73
38	0	0	2303	1159	3660	72
39	0	0	2382	1161	3660	71
40	0	0	2482	1162	3659	73
41	0	0	2588	1163	3659	73
42	0	0	2580	1159	3660	73
43	0	0	2500	1157	3658	72
44	0	0	2412	1157	3660	73
45	0	0	2291	1158	3660	72
46	0	0	2176	1156	3661	74
47	0	0	2108	1160	3662	73
48	0	0	2078	1159	3662	73
49	0	0	2069	1162	3661	73
50	0	0	2050	1158	3660	74
51	0	0	2001	1158	3660	72
52	0	0	1981	1163	3661	71
53	0	0	1996	1161	3661	72
54	0	0	2022	1162	3660	74
55	0	0	2090	1157	3661	74
56	0	0	2178	1162	3662	73
57	0	0	2282	1162	3661	73
58	0	0	2378	1161	3662	72
59	0	0	2439	1162	3661	73
60	0	0	2473	1162	3660	72
61	0	0	2531	1161	3661	76
62	0	0	2557	1163	3660	72
63	0	0	2517	1157	3660	73
64	0	0	2431	1155	3661	75
65	0	0	2294	1157	3661	74
66	0	0	2154	1157	3662	72
67	0	0	2057	1157	3662	72
68	0	0	1994	1157	3661	74
69	0	0	1959	1156	3661	73
70	0	0	1930	1159	3659	73
71	0	0	1886	1157	3661	76
72	0	0	1889	1163	3660	72
73	0	0	1944	1161	3659	71
74	0	0	1999	1160	3660	73
75	0	0	2050	1163	3660	73
76	0	0	2116	1161	3661	74
77	0	0	2174	1160	3661	76
78	0	0	2237	1161	3660	73
79	0	0	2336	1161	3662	73
80	0	0	2423	1160	3659	73
81	0	0	2507	1160	3661	73
82	0	0	2518	1160	3661	73
83	0	0	2444	1157	3659	73
84	0	0	2340	1156	3661	73
85	0	0	2219	1157	3661	73
86	0	0	2102	1156	3663	73
87	0	0	2033	1158	3662	73
88	0	0	1997	1158	3661	73
89	0	0	1967	1158	3660	73
90	0	0	1925	1157	3660	74
91	0	0	1864	1158	3660	71
92	0	0	1843	1161	3659	72
93	0	0	1861	1161	3659	73
94	0	0	1882	1160	3660	73
95	0	0	1907	1161	3660	73
96	0	0	1945	1160	3661	74
97	0	0	2040	1163	3662	73
98	0	0	2156	1161	3661	74
99	0	0	2224	1160	3662	73
100	0	0	2275	1162	3660	71
101	0	0	2384	1160	3660	73
102	0	0	2468	1161	3660	72
103	0	0	2439	1157	3659	74
104	0	0	2355	1156	3660	74
105	0	0	2208	1157	3660	74
106	0	0	2038	1156	3661	71
107	0	0	1922	1156	3663	73
108	0	0	1846	1157	3660	74
109	0	0	1814	1158	3660	73
110	0	0	1792	1157	3660	73
111	0	0	1763	1157	3660	73
112	0	0	1760	1162	3660	73
113	0	0	1760	1157	3659	73
114	0	0	1708	1157	3660	73
115	0	0	1700	1160	3660	74
116	0	0	1765	1162	3661	71
117	0	0	1908	1160	3661	72
118	0	0	2084	1160	3660	73
119	0	0	2227	1160	3661	72
120	0	0	2310	1161	3660	73
121	0	0	2358	1161	3660	73
122	0	0	2309	1156	3659	74
123	0	0	2214	1156	3659	74
124	0	0	2131	1157	3660	74
125	0	0	2044	1155	3661	72
126	0	0	1949	1157	3662	73
127	0	0	1869	1157	3662	72
0	0	0	1802	1157	3661	73
1	0	0	1753	1158	3660	73
2	0	0	1701	1156	3660	74
3	0	0	1635	1156	3660	71
4	0	0	1630	1160	3660	74
5	0	0	1709	1160	3659	72
6	0	0	1830	1160	3660	72
7	0	0	1933	1159	3661	72
8	0	0	2019	1160	3662	72
9	0	0	2086	1158	3662	73
10	0	0	2114	1160	3661	73
11	0	0	2141	1160	3661	74
12	0	0	2161	1160	3660	74
13	0	0	2202	1161	3661	75
14	0	0	2203	1161	3659	72
15	0	0	2177	1158	3659	73
16	0	0	2142	1157	3661	72
17	0	0	2081	1156	3662	76
18	0	0	2030	1156	3661	73
19	0	0	1986	1157	3662	72
20	0	0	1879	1155	3661	73
21	0	0	1767	1156	3662	72
22	0	0	1693	1156	3661	72
23	0	0	1642	1157	3660	73
24	0	0	1668	1159	3659	73
25	0	0	1716	1160	3659	74
26	0	0	1766	1160	3662	75
27	0	0	1854	1160	3660	74
28	0	0	1937	1161	3660	72
29	0	0	2010	1160	3661	72
30	0	0	2074	1160	3661	73
31	0	0	2118	1162	3660	73
32	0	0	2141	1158	3660	72
33	0	0	2206	1162	3657	72
34	0	0	2229	1160	3659	73
35	0	0	2208	1158	3659	73
36	0	0	2177	1158	3658	74
37	0	0	2109	1157	3661	72
38	0	0	2036	1157	3661	73
39	0	0	1993	1156	3661	73
40	0	0	1934	1156	3661	73
41	0	0	1861	1156	3662	73
42	0	0	1786	1156	3661	77
43	0	0	1669	1155	3660	73
44	0	0	1586	1156	3659	72
45	0	0	1596	1160	3659	73
46	0	0	1661	1161	3658	75
47	0	0	1754	1160	3660	72
48	0	0	1833	1160	3662	73
49	0	0	1914	1159	3661	73
50	0	0	1991	1160	3661	73
51	0	0	2062	1159	3661	73
52	0	0	2143	1160	3661	71
53	0	0	2268	1160	3660	74
54	0	0	2315	1160	3660	73
55	0	0	2289	1157	3659	73
56	0	0	2219	1157	3661	72
57	0	0	2105	1156	3662	75
58	0	0	1981	1156	3663	74
59	0	0	1889	1157	3660	72
60	0	0	1823	1156	3661	72
61	0	0	1789	1157	3662	75
62	0	0	1752	1156	3660	72
63	0	0	1674	1156	3660	72
64	0	0	1656	1161	3660	73
65	0	0	1699	1160	3660	73
66	0	0	1771	1161	3660	73
67	0	0	1856	1158	3660	73
68	0	0	1922	1160	3662	74
69	0	0	1992	1159	3661	49
70	0	0	2066	1159	3661	73
71	0	0	2162	1160	3662	73
72	0	0	2231	1160	3662	75
73	0	0	2281	1161	3660	73
74	0	0	2276	1159	3660	72
75	0	0	2239	1156	3659	73
76	0	0	2188	1157	3660	73
77	0	0	2094	1155	3660	72
78	0	0	1980	1156	3661	73
79	0	0	1900	1157	3662	74
80	0	0	1867	1157	3662	72
81	0	0	1821	1155	3660	73
82	0	0	1766	1155	3660	73
83	0	0	1724	1157	3661	74
84	0	0	1709	1157	3659	72
85	0	0	1729	1159	3659	73
86	0	0	1782	1159	3661	72
87	0	0	1843	1160	3661	70
88	0	0	1905	1160	3663	74
89	0	0	1975	1159	3662	72
90	0	0	2050	1159	3660	74
91	0	0	2104	1161	3661	75
92	0	0	2151	1159	3660	72
93	0	0	2215	1161	3659	74
94	0	0	2232	1158	3660	72
95	0	0	2209	1157	3659	73
96	0	0	2181	1156	3661	72
97	0	0	2106	1155	3662	71
98	0	0	2001	1157	3661	73
99	0	0	1896	1155	3662	72
100	0	0	1828	1156	3661	74
101	0	0	1830	1158	3661	72
102	0	0	1816	1157	3661	72
103	0	0	1774	1157	3659	73
104	0	0	1779	1157	3660	73
105	0	0	1841	1158	3659	73
106	0	0	1928	1159	3661	72
107	0	0	2007	1160	3662	71
108	0	0	2083	1160	3661	73
109	0	0	2154	1159	3661	72
110	0	0	2228	1159	3661	73
111	0	0	2261	1160	3661	74
112	0	0	2276	1161	3660	73
113	0	0	2323	1160	3659	72
114	0	0	2275	1155	3659	73
115	0	0	2175	1155	3659	73
116	0	0	2096	1157	3660	73
117	0	0	2009	1155	3660	72
118	0	0	1921	1157	3662	73
119	0	0	1863	1155	3662	73
120	0	0	1822	1157	3662	73
121	0	0	1785	1154	3659	74
122	0	0	1745	1156	3660	71
123	0	0	1723	1159	3660	72
124	0	0	1763	1157	3660	72
125	0	0	1853	1159	3660	72
126	0	0	1934	1156	3662	73
127	0	0	1979	1159	3660	74
0	0	0	2006	1161	3662	73
1	0	0	2052	1157	3661	73
2	0	0	2115	1160	3661	73
3	0	0	2173	1161	3661	75
4	0	0	2232	1159	3660	74
5	0	0	2300	1160	3659	74
6	0	0	2313	1159	3660	72
7	0	0	2275	1156	3659	73
8	0	0	2218	1156	3660	73
9	0	0	2113	1157	3659	72
10	0	0	2003	1156	3661	73
11	0	0	1925	1154	3661	74
12	0	0	1869	1156	3662	73
13	0	0	1820	1156	3660	73
14	0	0	1810	1159	3660	71
15	0	0	1796	1155	3660	72
16	0	0	1775	1156	3660	73
17	0	0	1792	1159	3659	73
18	0	0	1821	1162	3659	73
19	0	0	1857	1161	3659	72
20	0	0	1936	1161	3661	74
21	0	0	2027	1159	3662	72
22	0	0	2140	1160	3661	73
23	0	0	2236	1161	3661	72
24	0	0	2283	1160	3660	71
25	0	0	2365	1160	3658	73
26	0	0	2404	1157	3660	73
27	0	0	2348	1156	3659	73
28	0	0	2273	1156	3662	73
29	0	0	2180	1155	3660	74
30	0	0	2077	1156	3661	74
31	0	0	1987	1156	3663	73
32	0	0	1906	1155	3661	74
33	0	0	1825	1155	3661	73
34	0	0	1778	1155	3660	72
35	0	0	1756	1161	3660	72
36	0	0	1802	1160	3660	72
37	0	0	1865	1160	3661	73
38	0	0	1911	1159	3660	73
39	0	0	1978	1160	3658	74
40	0	0	2062	1159	3659	74
41	0	0	2162	1160	3662	72
42	0	0	2238	1159	3661	73
43	0	0	2260	1159	3660	73
44	0	0	2255	1159	3660	74
45	0	0	2281	1160	3660	74
46	0	0	2298	1158	3660	72
47	0	0	2293	1160	3660	74
48	0	0	2271	1156	3660	73
49	0	0	2180	1155	3661	71
50	0	0	2024	1155	3662	73
51	0	0	1896	1155	3663	74
52	0	0	1834	1156	3661	73
53	0	0	1804	1157	3663	73
54	0	0	1774	1156	3661	76
55	0	0	1724	1156	3657	73
56	0	0	1702	1158	3660	73
57	0	0	1721	1159	3659	73
58	0	0	1775	1160	3661	73
59	0	0	1851	1160	3660	71
60	0	0	1944	1160	3662	74
61	0	0	2055	1156	3662	72
62	0	0	2146	1159	3661	73
63	0	0	2224	1158	3661	73
64	0	0	2306	1160	3660	71
65	0	0	2387	1159	3660	72
66	0	0	2384	1157	3660	72
67	0	0	2334	1156	3659	73
68	0	0	2252	1157	3659	73
69	0	0	2120	1154	3661	73
70	0	0	1974	1155	3658	73
71	0	0	1893	1156	3662	73
72	0	0	1846	1156	3661	73
73	0	0	1808	1154	3662	73
74	0	0	1762	1156	3660	71
75	0	0	1744	1159	3660	74
76	0	0	1793	1159	3660	74
77	0	0	1868	1159	3659	73
78	0	0	1911	1159	3660	73
79	0	0	1937	1160	3661	72
80	0	0	1970	1160	3662	73
81	0	0	2040	1157	3662	73
82	0	0	2127	1159	3661	73
83	0	0	2206	1158	3661	74
84	0	0	2271	1159	3660	74
85	0	0	2347	1159	3658	73
86	0	0	2385	1159	3660	73
87	0	0	2359	1156	3659	73
88	0	0	2345	1158	3662	73
89	0	0	2268	1155	3661	73
90	0	0	2152	1155	3662	74
91	0	0	2047	1155	3663	74
92	0	0	1944	1154	3661	73
93	0	0	1856	1155	3661	72
94	0	0	1794	1155	3660	72
95	0	0	1704	1154	3660	72
96	0	0	1655	1157	3659	73
97	0	0	1693	1159	3659	73
98	0	0	1778	1158	3660	73
99	0	0	1889	1159	3661	73
100	0	0	2002	1159	3662	73
101	0	0	2089	1159	3662	74
102	0	0	2138	1158	3661	74
103	0	0	2173	1159	3661	72
104	0	0	2225	1159	3660	73
105	0	0	2332	1160	3660	74
106	0	0	2407	1160	3659	73
107	0	0	2420	1159	3659	73
108	0	0	2390	1156	3660	73
109	0	0	2278	1154	3660	71
110	0	0	2124	1155	3662	73
111	0	0	2004	1154	3661	72
112	0	0	1951	1156	3662	72
113	0	0	1915	1155	3661	73
114	0	0	1864	1157	3660	73
115	0	0	1799	1155	3660	73
116	0	0	1794	1158	3660	73
117	0	0	1853	1158	3659	73
118	0	0	1924	1158	3660	72
119	0	0	2015	1159	3661	71
120	0	0	2098	1158	3661	72
121	0	0	2146	1159	3661	73
122	0	0	2180	1159	3661	73
123	0	0	2221	1161	3661	73
124	0	0	2276	1161	3660	72
125	0	0	2378	1160	3660	73
126	0	0	2411	1160	3661	73
127	0	0	2351	1155	3660	74
0	0	0	2286	1156	3660	73
1	0	0	2209	1156	3660	72
2	0	0	2118	1155	3662	73
3	0	0	2016	1155	3661	74
4	0	0	1903	1154	3661	74
5	0	0	1816	1154	3661	73
6	0	0	1728	1155	3661	75
7	0	0	1635	1155	3660	73
8	0	0	1619	1159	3659	73
9	0	0	1692	1159	3659	73
10	0	0	1797	1158	3660	73
11	0	0	1861	1160	3660	72
12	0	0	1923	1159	3663	72
13	0	0	2003	1159	3662	73
14	0	0	2090	1159	3661	73
15	0	0	2147	1159	3661	73
16	0	0	2188	1159	3661	71
17	0	0	2296	1159	3662	73
18	0	0	2388	1158	3659	73
19	0	0	2422	1159	3660	73
20	0	0	2372	1155	3660	73
21	0	0	2248	1155	3661	73
22	0	0	2119	1156	3662	73
23	0	0	2011	1155	3659	72
24	0	0	1924	1155	3661	73
25	0	0	1872	1155	3661	74
26	0	0	1838	1155	3659	73
27	0	0	1778	1155	3659	71
28	0	0	1758	1158	3659	72
29	0	0	1799	1158	3659	75
30	0	0	1876	1158	3660	73
31	0	0	1947	1158	3660	73
32	0	0	1981	1159	3661	73
33	0	0	2024	1159	3663	71
34	0	0	2076	1159	3661	73
35	0	0	2115	1159	3659	72
36	0	0	2176	1159	3660	74
37	0	0	2292	1159	3661	73
38	0	0	2374	1159	3659	73
39	0	0	2414	1160	3658	72
40	0	0	2398	1158	3660	73
41	0	0	2289	1153	3660	73
42	0	0	2157	1155	3663	73
43	0	0	2040	1154	3662	74
44	0	0	1958	1155	3661	73
45	0	0	1941	1156	3660	73
46	0	0	1902	1154	3660	73
47	0	0	1810	1154	3659	72
48	0	0	1755	1158	3659	73
49	0	0	1798	1158	3658	73
50	0	0	1854	1158	3660	74
51	0	0	1899	1158	3660	73
52	0	0	1989	1158	3663	73
53	0	0	2098	1160	3662	74
54	0	0	2171	1156	3659	73
55	0	0	2204	1158	3661	75
56	0	0	2238	1157	3660	73
57	0	0	2343	1159	3659	73
58	0	0	2410	1158	3660	73
59	0	0	2402	1157	3660	73
60	0	0	2351	1155	3660	73
61	0	0	2247	1153	3662	73
62	0	0	2141	1155	3663	73
63	0	0	2091	1155	3660	73
64	0	0	2041	1155	3662	72
65	0	0	1958	1157	3660	73
66	0	0	1882	1154	3660	73
67	0	0	1805	1155	3660	72
68	0	0	1770	1157	3660	73
69	0	0	1801	1159	3660	72
70	0	0	1853	1157	3660	73
71	0	0	1903	1158	3661	73
72	0	0	1956	1159	3662	72
73	0	0	2038	1158	3662	73
74	0	0	2112	1159	3662	72
75	0	0	2169	1160	3661	72
76	0	0	2208	1159	3659	73
77	0	0	2275	1159	3660	71
78	0	0	2323	1158	3660	73
79	0	0	2330	1159	3658	73
80	0	0	2292	1156	3659	73
81	0	0	2225	1153	3661	73
82	0	0	2133	1154	3660	71
83	0	0	2036	1154	3662	73
84	0	0	1967	1155	3661	73
85	0	0	1911	1154	3660	73
86	0	0	1857	1152	3662	72
87	0	0	1789	1154	3660	72
88	0	0	1775	1159	3660	73
89	0	0	1812	1158	3659	73
90	0	0	1884	1159	3661	73
91	0	0	1971	1159	3661	71
92	0	0	2071	1158	3661	72
93	0	0	2192	1158	3662	74
94	0	0	2283	1159	3662	73
95	0	0	2313	1160	3661	74
96	0	0	2305	1158	3661	73
97	0	0	2350	1158	3661	73
98	0	0	2378	1158	3660	74
99	0	0	2350	1156	3661	73
100	0	0	2278	1153	3660	73
101	0	0	2138	1154	3661	74
102	0	0	1968	1154	3662	73
103	0	0	1873	1154	3663	73
104	0	0	1824	1154	3661	74
105	0	0	1760	1155	3661	73
106	0	0	1715	1154	3661	72
107	0	0	1685	1155	3660	71
108	0	0	1663	1158	3661	73
109	0	0	1731	1158	3659	73
110	0	0	1864	1160	3659	73
111	0	0	1989	1157	3662	72
112	0	0	2090	1158	3659	74
113	0	0	2143	1159	3662	74
114	0	0	2160	1159	3661	73
115	0	0	2168	1158	3661	72
116	0	0	2207	1159	3661	71
117	0	0	2323	1158	3660	73
118	0	0	2410	1159	3660	73
119	0	0	2400	1155	3659	71
120	0	0	2327	1154	3660	73
121	0	0	2203	1153	3660	74
122	0	0	2069	1154	3660	75
123	0	0	1977	1154	3662	73
124	0	0	1921	1155	3661	72
125	0	0	1892	1157	3661	74
126	0	0	1913	1157	3659	73
127	0	0	1886	1155	3656	74
0	0	0	1868	1158	3660	73
1	0	0	1880	1157	3659	73
2	0	0	1906	1158	3660	72
3	0	0	1939	1158	3662	73
4	0	0	1971	1158	3662	71
5	0	0	2023	1158	3663	72
6	0	0	2091	1158	3661	72
7	0	0	2177	1158	3662	72
8	0	0	2246	1159	3660	74
9	0	0	2336	1159	3658	74
10	0	0	2384	1158	3660	73
11	0	0	2358	1156	3659	73
12	0	0	2320	1155	3660	73
13	0	0	2243	1154	3660	74
14	0	0	2120	1154	3660	73
15	0	0	1997	1154	3661	73
16	0	0	1921	1154	3661	73
17	0	0	1891	1156	3661	73
18	0	0	1873	1155	3660	73
19	0	0	1827	1154	3660	72
20	0	0	1787	1155	3660	73
21	0	0	1813	1158	3660	72
22	0	0	1877	1160	3659	73
23	0	0	1928	1158	3660	73
24	0	0	1974	1158	3661	71
25	0	0	2017	1158	3660	73
26	0	0	2052	1157	3661	74
27	0	0	2139	1159	3662	73
28	0	0	2261	1159	3660	73
29	0	0	2400	1158	3658	74
30	0	0	2468	1158	3660	73
31	0	0	2469	1156	3660	74
32	0	0	2407	1155	3660	73
33	0	0	2316	1153	3660	73
34	0	0	2177	1154	3662	73
35	0	0	2031	1153	3660	74
36	0	0	1931	1154	3661	73
37	0	0	1871	1154	3661	72
38	0	0	1861	1157	3661	72
39	0	0	1826	1154	3660	71
40	0	0	1799	1156	3658	73
41	0	0	1810	1157	3659	73
42	0	0	1830	1157	3660	73
43	0	0	1872	1158	3660	73
44	0	0	1953	1158	3661	73
45	0	0	2051	1157	3660	74
46	0	0	2160	1158	3661	73
47	0	0	2264	1158	3661	73
48	0	0	2344	1157	3658	74
49	0	0	2421	1158	3660	73
50	0	0	2455	1158	3658	73
51	0	0	2419	1155	3661	73
52	0	0	2341	1154	3660	74
53	0	0	2221	1154	3661	73
54	0	0	2054	1153	3663	73
55	0	0	1926	1154	3661	70
56	0	0	1887	1155	3661	73
57	0	0	1881	1156	3661	74
58	0	0	1857	1154	3661	73
59	0	0	1821	1154	3660	71
60	0	0	1816	1158	3657	71
61	0	0	1855	1157	3659	73
62	0	0	1918	1157	3660	73
63	0	0	1990	1157	3658	74
64	0	0	2051	1159	3661	71
65	0	0	2126	1158	3663	74
66	0	0	2211	1158	3661	73
67	0	0	2264	1157	3662	72
68	0	0	2293	1159	3659	73
69	0	0	2331	1158	3659	73
70	0	0	2350	1159	3658	73
71	0	0	2332	1157	3658	73
72	0	0	2300	1155	3660	74
73	0	0	2219	1154	3659	73
74	0	0	2100	1154	3663	71
75	0	0	2003	1154	3662	73
76	0	0	1920	1154	3661	72
77	0	0	1882	1155	3662	74
78	0	0	1878	1156	3659	74
79	0	0	1844	1154	3660	72
80	0	0	1827	1158	3660	72
81	0	0	1853	1157	3660	73
82	0	0	1926	1156	3660	74
83	0	0	2044	1158	3659	73
84	0	0	2151	1158	3661	73
85	0	0	2217	1157	3662	74
86	0	0	2268	1158	3661	73
87	0	0	2299	1158	3661	73
88	0	0	2309	1159	3660	73
89	0	0	2370	1158	3659	72
90	0	0	2436	1157	3661	73
91	0	0	2442	1159	3660	73
92	0	0	2403	1154	3660	73
93	0	0	2318	1154	3661	73
94	0	0	2216	1153	3662	74
95	0	0	2130	1149	3659	70
96	0	0	2046	1154	3662	73
97	0	0	1966	1154	3660	72
98	0	0	1885	1153	3661	73
99	0	0	1789	1153	3660	73
100	0	0	1742	1156	3660	73
101	0	0	1790	1157	3660	72
102	0	0	1890	1158	3660	73
103	0	0	1985	1158	3661	73
104	0	0	2063	1157	3661	72
105	0	0	2141	1158	3662	73
106	0	0	2207	1158	3661	73
107	0	0	2255	1157	3660	73
108	0	0	2296	1157	3660	74
109	0	0	2365	1159	3660	74
110	0	0	2428	1158	3659	72
111	0	0	2466	1156	3659	73
112	0	0	2438	1154	3660	73
113	0	0	2337	1153	3661	73
114	0	0	2217	1153	3660	72
115	0	0	2090	1153	3662	74
116	0	0	1970	1153	3662	73
117	0	0	1873	1153	3661	73
118	0	0	1822	1154	3660	75
119	0	0	1781	1153	3660	72
120	0	0	1770	1158	3659	73
121	0	0	1805	1157	3660	74
122	0	0	1838	1157	3660	73
123	0	0	1883	1156	3661	73
124	0	0	1952	1158	3660	72
125	0	0	2038	1157	3662	73
126	0	0	2126	1158	3659	74
127	0	0	2197	1157	3661	73
0	0	0	2251	1156	3660	75
1	0	0	2330	1159	3659	72
2	0	0	2389	1158	3659	73
3	0	0	2398	1156	3659	72
4	0	0	2333	1153	3660	74
5	0	0	2233	1153	3661	72
6	0	0	2112	1154	3661	72
7	0	0	2059	1155	3662	73
8	0	0	2029	1155	3661	73
9	0	0	2001	1154	3662	71
10	0	0	1935	1153	3661	72
11	0	0	1833	1155	3660	72
12	0	0	1795	1156	3660	73
13	0	0	1799	1157	3659	73
14	0	0	1819	1156	3661	73
15	0	0	1859	1158	3661	72
16	0	0	1933	1157	3661	76
17	0	0	2025	1157	3662	73
18	0	0	2117	1159	3661	73
19	0	0	2190	1157	3662	72
20	0	0	2268	1157	3661	76
21	0	0	2355	1157	3660	74
22	0	0	2396	1158	3661	73
23	0	0	2369	1154	3659	73
24	0	0	2316	1154	3659	75
25	0	0	2231	1154	3661	74
26	0	0	2079	1153	3660	72
27	0	0	1968	1153	3660	72
28	0	0	1915	1155	3660	72
29	0	0	1883	1154	3661	73
30	0	0	1881	1157	3661	72
31	0	0	1844	1153	3658	72
32	0	0	1809	1155	3658	73
33	0	0	1798	1157	3659	73
34	0	0	1808	1156	3660	72
35	0	0	1865	1157	3662	73
36	0	0	1983	1157	3662	76
37	0	0	2135	1158	3662	74
38	0	0	2256	1157	3660	73
39	0	0	2329	1158	3662	72
40	0	0	2345	1157	3661	70
41	0	0	2363	1156	3660	76
42	0	0	2341	1154	3658	73
43	0	0	2254	1154	3659	73
44	0	0	2178	1153	3659	73
45	0	0	2125	1154	3661	74
46	0	0	2050	1154	3662	74
47	0	0	1989	1156	3659	71
48	0	0	1956	1155	3662	73
49	0	0	1948	1155	3659	73
50	0	0	1954	1157	3661	74
51	0	0	1908	1151	3660	76
52	0	0	1874	1154	3659	72
53	0	0	1873	1156	3660	73
54	0	0	1882	1157	3660	72
55	0	0	1914	1157	3661	73
56	0	0	1972	1156	3661	75
57	0	0	2059	1157	3660	73
58	0	0	2152	1157	3661	73
59	0	0	2226	1158	3661	73
60	0	0	2253	1158	3661	74
61	0	0	2312	1157	3660	74
62	0	0	2364	1158	3659	72
63	0	0	2341	1154	3659	73
64	0	0	2293	1153	3659	73
65	0	0	2237	1154	3660	73
66	0	0	2165	1154	3661	72
67	0	0	2079	1153	3660	73
68	0	0	1994	1153	3661	73
69	0	0	1955	1154	3662	73
70	0	0	1940	1152	3661	72
71	0	0	1856	1152	3660	77
72	0	0	1759	1153	3658	73
73	0	0	1753	1157	3659	73
74	0	0	1811	1156	3659	73
75	0	0	1886	1158	3661	74
76	0	0	1953	1157	3661	71
77	0	0	2018	1157	3661	73
78	0	0	2095	1157	3661	73
79	0	0	2164	1156	3661	74
80	0	0	2216	1157	3660	72
81	0	0	2277	1158	3660	74
82	0	0	2316	1157	3659	72
83	0	0	2282	1154	3660	73
84	0	0	2223	1152	3660	73
85	0	0	2141	1154	3660	73
86	0	0	2031	1153	3661	73
87	0	0	1944	1152	3664	71
88	0	0	1882	1151	3661	72
89	0	0	1813	1152	3661	73
90	0	0	1784	1155	3659	73
91	0	0	1771	1154	3660	75
92	0	0	1778	1156	3658	72
93	0	0	1849	1156	3659	73
94	0	0	1956	1157	3660	73
95	0	0	2062	1156	3660	72
96	0	0	2157	1157	3661	75
97	0	0	2271	1157	3663	73
98	0	0	2411	1157	3661	74
99	0	0	2518	1156	3661	72
100	0	0	2578	1154	3661	73
101	0	0	2675	1157	3661	72
102	0	0	2779	1160	3658	71
103	0	0	2827	1156	3659	73
104	0	0	2836	1156	3658	74
105	0	0	2827	1155	3660	73
106	0	0	2774	1154	3661	75
107	0	0	2726	1154	3663	72
108	0	0	2683	1154	3660	74
109	0	0	2656	1156	3659	73
110	0	0	2664	1156	3660	74
111	0	0	2700	1157	3660	71
112	0	0	2748	1156	3660	73
113	0	0	2780	1156	3659	74
114	0	0	2785	1156	3660	74
115	0	0	2779	1156	3661	73
116	0	0	2775	1158	3662	75
117	0	0	2795	1157	3662	73
118	0	0	2833	1156	3661	76
119	0	0	2861	1156	3660	72
120	0	0	2834	1154	3660	73
121	0	0	2785	1154	3660	71
122	0	0	2701	1152	3660	72
123	0	0	2580	1152	3662	75
124	0	0	2465	1151	3657	74
125	0	0	2349	1151	3659	74
126	0	0	2201	1152	3661	71
127	0	0	2045	1151	3663	72
0	0	0	1876	1151	3661	73
1	0	0	1739	1151	3661	73
2	0	0	1665	1152	3661	73
3	0	0	1626	1153	3660	72
4	0	0	1621	1156	3661	73
5	0	0	1654	1156	3660	72
6	0	0	1680	1156	3658	73
7	0	0	1730	1153	3661	73
8	0	0	1804	1156	3661	73
9	0	0	1858	1156	3663	72
10	0	0	1912	1156	3661	73
11	0	0	1962	1156	3659	75
12	0	0	1991	1156	3660	74
13	0	0	2064	1156	3660	76
14	0	0	2152	1157	3659	73
15	0	0	2178	1156	3662	74
16	0	0	2136	1154	3660	73
17	0	0	2076	1151	3659	75
18	0	0	2010	1152	3661	73
19	0	0	1935	1153	3662	73
20	0	0	1862	1152	3661	74
21	0	0	1796	1152	3661	73
22	0	0	1732	1152	3661	73
23	0	0	1650	1151	3659	72
24	0	0	1595	1153	3659	72
25	0	0	1624	1155	3659	74
26	0	0	1698	1156	3660	74
27	0	0	1784	1153	3661	73
28	0	0	1879	1156	3662	71
29	0	0	1996	1156	3663	73
30	0	0	2100	1156	3661	73
31	0	0	2171	1156	3661	74
32	0	0	2209	1153	3661	73
33	0	0	2290	1157	3660	72
34	0	0	2378	1156	3659	73
35	0	0	2352	1154	3659	74
36	0	0	2284	1153	3657	75
37	0	0	2210	1151	3660	71
38	0	0	2118	1152	3661	76
39	0	0	2030	1151	3663	74
40	0	0	1929	1151	3660	72
41	0	0	1845	1151	3660	73
42	0	0	1769	1150	3659	71
43	0	0	1691	1152	3660	71
44	0	0	1676	1155	3659	72
45	0	0	1711	1155	3659	74
46	0	0	1765	1156	3660	73
47	0	0	1846	1156	3661	73
48	0	0	1914	1157	3661	74
49	0	0	1992	1156	3662	73
50	0	0	2084	1155	3661	74
51	0	0	2189	1156	3662	76
52	0	0	2295	1153	3661	73
53	0	0	2405	1156	3660	71
54	0	0	2471	1156	3659	72
55	0	0	2451	1154	3660	71
56	0	0	2389	1152	3657	74
57	0	0	2282	1149	3659	73
58	0	0	2090	1151	3661	72
59	0	0	1892	1150	3661	72
60	0	0	1772	1152	3662	73
61	0	0	1754	1155	3660	73
62	0	0	1777	1155	3660	71
63	0	0	1787	1156	3660	72
64	0	0	1789	1156	3658	74
65	0	0	1816	1155	3658	73
66	0	0	1874	1155	3659	73
67	0	0	1951	1154	3659	75
68	0	0	2042	1156	3661	72
69	0	0	2098	1155	3659	71
70	0	0	2126	1155	3660	71
71	0	0	2171	1155	3660	73
72	0	0	2213	1155	3660	71
73	0	0	2306	1156	3660	72
74	0	0	2422	1156	3659	73
75	0	0	2439	1155	3659	73
76	0	0	2369	1151	3659	73
77	0	0	2264	1152	3660	72
78	0	0	2131	1152	3661	74
79	0	0	1998	1152	3661	76
80	0	0	1896	1151	3660	72
81	0	0	1836	1150	3660	73
82	0	0	1791	1152	3660	73
83	0	0	1746	1152	3660	73
84	0	0	1725	1155	3659	71
85	0	0	1749	1154	3660	72
86	0	0	1810	1156	3659	73
87	0	0	1899	1153	3660	73
88	0	0	1995	1156	3662	73
89	0	0	2107	1156	3661	73
90	0	0	2204	1156	3662	73
91	0	0	2227	1156	3661	74
92	0	0	2227	1155	3661	73
93	0	0	2287	1156	3659	73
94	0	0	2372	1160	3659	76
95	0	0	2383	1155	3660	73
96	0	0	2354	1156	3660	73
97	0	0	2322	1152	3659	73
98	0	0	2224	1151	3661	72
99	0	0	2090	1150	3660	73
100	0	0	1963	1150	3660	73
101	0	0	1855	1150	3660	73
102	0	0	1794	1152	3660	72
103	0	0	1751	1152	3660	73
104	0	0	1746	1155	3659	72
105	0	0	1808	1155	3659	74
106	0	0	1888	1153	3659	74
107	0	0	1964	1155	3660	71
108	0	0	2058	1154	3662	74
109	0	0	2121	1155	3663	73
110	0	0	2141	1155	3661	73
111	0	0	2173	1154	3662	72
112	0	0	2213	1154	3661	76
113	0	0	2291	1154	3660	74
114	0	0	2371	1155	3659	72
115	0	0	2359	1152	3659	73
116	0	0	2316	1150	3659	72
117	0	0	2224	1150	3659	73
118	0	0	2099	1149	3661	71
119	0	0	1989	1150	3660	73
120	0	0	1925	1151	3662	72
121	0	0	1891	1155	3660	72
122	0	0	1893	1153	3660	73
123	0	0	1867	1151	3660	71
124	0	0	1819	1151	3659	73
125	0	0	1841	1155	3660	73
126	0	0	1918	1155	3661	76
127	0	0	2001	1155	3660	71
0	0	0	2072	1155	3661	73
1	0	0	2135	1154	3660	75
2	0	0	2176	1154	3660	74
3	0	0	2211	1155	3661	72
4	0	0	2244	1156	3660	76
5	0	0	2320	1154	3659	74
6	0	0	2399	1154	3659	74
7	0	0	2401	1154	3659	73
8	0	0	2363	1152	3660	73
9	0	0	2293	1152	3660	72
10	0	0	2160	1150	3660	73
11	0	0	2016	1149	3662	73
12	0	0	1931	1151	3660	72
13	0	0	1893	1150	3661	72
14	0	0	1851	1150	3660	72
15	0	0	1807	1149	3659	72
16	0	0	1776	1154	3659	75
17	0	0	1833	1153	3659	73
18	0	0	1901	1155	3659	73
19	0	0	1934	1152	3658	74
20	0	0	1988	1154	3661	76
21	0	0	2060	1153	3660	75
22	0	0	2159	1154	3660	74
23	0	0	2276	1153	3660	73
24	0	0	2369	1156	3660	76
25	0	0	2480	1154	3660	75
26	0	0	2567	1155	3659	75
27	0	0	2524	1150	3660	72
28	0	0	2405	1148	3657	74
29	0	0	2288	1148	3660	73
30	0	0	2181	1151	3661	72
31	0	0	2076	1149	3660	72
32	0	0	1976	1148	3660	72
33	0	0	1898	1150	3660	72
34	0	0	1860	1152	3658	74
35	0	0	1833	1151	3659	71
36	0	0	1838	1154	3658	75
37	0	0	1884	1154	3659	73
38	0	0	1938	1155	3659	73
39	0	0	1988	1155	3660	76
40	0	0	2043	1154	3661	77
41	0	0	2109	1154	3660	73
42	0	0	2203	1155	3662	72
43	0	0	2295	1156	3661	74
44	0	0	2368	1152	3660	74
45	0	0	2464	1155	3660	72
46	0	0	2527	1155	3660	73
47	0	0	2492	1149	3658	72
48	0	0	2409	1150	3659	75
49	0	0	2323	1149	3660	76
50	0	0	2213	1149	3661	72
51	0	0	2117	1150	3661	75
52	0	0	2031	1150	3660	74
53	0	0	1986	1151	3660	72
54	0	0	1982	1151	3661	76
55	0	0	1933	1150	3659	73
56	0	0	1867	1151	3658	71
57	0	0	1857	1153	3658	73
58	0	0	1891	1153	3658	74
59	0	0	1971	1154	3660	73
60	0	0	2056	1154	3661	74
61	0	0	2146	1154	3662	73
62	0	0	2251	1154	3660	73
63	0	0	2372	1153	3661	71
64	0	0	2456	1152	3660	73
65	0	0	2536	1154	3660	73
66	0	0	2641	1154	3658	73
67	0	0	2668	1154	3659	73
68	0	0	2602	1150	3659	72
69	0	0	2488	1150	3660	72
70	0	0	2312	1148	3660	73
71	0	0	2149	1149	3662	71
72	0	0	2036	1149	3660	73
73	0	0	1965	1152	3660	74
74	0	0	1931	1150	3660	72
75	0	0	1901	1150	3660	73
76	0	0	1880	1154	3658	71
77	0	0	1927	1153	3659	74
78	0	0	2019	1155	3659	73
79	0	0	2120	1156	3660	72
80	0	0	2235	1153	3661	73
81	0	0	2345	1153	3660	73
82	0	0	2430	1153	3660	73
83	0	0	2479	1154	3660	73
84	0	0	2496	1154	3661	76
85	0	0	2532	1155	3659	73
86	0	0	2567	1153	3659	72
87	0	0	2529	1150	3659	72
88	0	0	2468	1152	3659	73
89	0	0	2382	1151	3660	72
90	0	0	2257	1149	3660	72
91	0	0	2155	1149	3660	71
92	0	0	2081	1150	3662	72
93	0	0	2033	1148	3662	72
94	0	0	2031	1156	3660	72
95	0	0	2009	1151	3660	71
96	0	0	1970	1150	3658	72
97	0	0	1983	1153	3660	72
98	0	0	2042	1153	3661	74
99	0	0	2118	1155	3660	71
100	0	0	2192	1153	3661	73
101	0	0	2269	1154	3661	73
102	0	0	2342	1153	3660	73
103	0	0	2396	1153	3660	74
104	0	0	2432	1154	3660	72
105	0	0	2434	1154	3660	73
106	0	0	2442	1154	3658	72
107	0	0	2415	1152	3659	73
108	0	0	2375	1151	3659	72
109	0	0	2321	1151	3660	72
110	0	0	2243	1149	3660	74
111	0	0	2192	1152	3660	71
112	0	0	2178	1152	3660	74
113	0	0	2143	1150	3660	73
114	0	0	2083	1151	3660	72
115	0	0	2007	1149	3660	72
116	0	0	1935	1149	3658	72
117	0	0	1929	1153	3660	73
118	0	0	1983	1149	3661	72
119	0	0	2038	1156	3660	72
120	0	0	2060	1153	3660	74
121	0	0	2109	1153	3660	72
122	0	0	2187	1153	3661	74
123	0	0	2274	1154	3661	72
124	0	0	2373	1155	3660	72
125	0	0	2482	1153	3660	74
126	0	0	2556	1151	3658	72
127	0	0	2534	1150	3659	73
0	0	0	2426	1149	3659	73
1	0	0	2280	1147	3661	75
2	0	0	2130	1147	3660	74
3	0	0	2010	1148	3662	72
4	0	0	1923	1149	3660	72
5	0	0	1866	1148	3660	73
6	0	0	1828	1148	3659	73
7	0	0	1790	1149	3659	73
8	0	0	1777	1155	3658	72
9	0	0	1824	1153	3659	73
10	0	0	1885	1152	3658	73
11	0	0	1952	1151	3661	75
12	0	0	2012	1153	3660	75
13	0	0	2056	1154	3657	72
14	0	0	2100	1153	3659	72
15	0	0	2155	1151	3660	72
16	0	0	2228	1151	3659	72
17	0	0	2350	1152	3660	75
18	0	0	2445	1153	3659	72
19	0	0	2432	1150	3659	72
20	0	0	2361	1148	3658	73
21	0	0	2259	1151	3660	72
22	0	0	2105	1149	3660	72
23	0	0	1955	1148	3657	72
24	0	0	1877	1148	3661	72
25	0	0	1829	1149	3659	73
26	0	0	1800	1150	3660	73
27	0	0	1756	1149	3660	71
28	0	0	1715	1151	3658	72
29	0	0	1732	1154	3659	73
30	0	0	1767	1153	3660	70
31	0	0	1766	1153	3660	73
32	0	0	1775	1153	3661	72
33	0	0	1843	1153	3660	74
34	0	0	1944	1152	3661	73
35	0	0	2042	1153	3661	72
36	0	0	2099	1153	3660	75
37	0	0	2169	1152	3660	75
38	0	0	2259	1152	3658	72
39	0	0	2282	1155	3660	72
40	0	0	2253	1151	3659	70
41	0	0	2195	1152	3660	73
42	0	0	2101	1148	3660	73
43	0	0	1996	1148	3660	74
44	0	0	1900	1149	3661	73
45	0	0	1834	1149	3660	70
46	0	0	1801	1152	3660	75
47	0	0	1751	1148	3659	72
48	0	0	1713	1148	3659	72
49	0	0	1743	1153	3658	73
50	0	0	1807	1153	3659	72
51	0	0	1845	1153	3660	72
52	0	0	1875	1153	3660	75
53	0	0	1934	1153	3660	74
54	0	0	2019	1155	3662	73
55	0	0	2092	1150	3659	73
56	0	0	2134	1154	3660	75
57	0	0	2196	1154	3660	73
58	0	0	2290	1153	3657	74
59	0	0	2315	1153	3658	74
60	0	0	2255	1149	3660	72
61	0	0	2134	1148	3660	74
62	0	0	1999	1148	3660	73
63	0	0	1925	1149	3660	71
64	0	0	1886	1149	3660	72
65	0	0	1833	1147	3660	73
66	0	0	1751	1149	3660	73
67	0	0	1659	1148	3660	72
68	0	0	1615	1152	3658	74
69	0	0	1686	1154	3660	73
70	0	0	1789	1152	3656	74
71	0	0	1845	1152	3660	75
72	0	0	1869	1153	3660	73
73	0	0	1940	1153	3660	71
74	0	0	2024	1151	3661	73
75	0	0	2102	1153	3660	72
76	0	0	2123	1152	3660	73
77	0	0	2128	1152	3659	74
78	0	0	2182	1153	3658	71
79	0	0	2214	1153	3659	73
80	0	0	2201	1150	3659	72
81	0	0	2147	1147	3661	73
82	0	0	2056	1149	3660	73
83	0	0	1952	1148	3661	71
84	0	0	1860	1147	3660	73
85	0	0	1806	1150	3660	72
86	0	0	1814	1153	3660	73
87	0	0	1794	1150	3660	72
88	0	0	1748	1149	3658	71
89	0	0	1754	1154	3658	73
90	0	0	1805	1153	3659	72
91	0	0	1870	1153	3660	76
92	0	0	1950	1153	3660	73
93	0	0	2022	1152	3659	74
94	0	0	2067	1154	3661	74
95	0	0	2124	1152	3659	72
96	0	0	2169	1152	3661	73
97	0	0	2200	1152	3660	72
98	0	0	2247	1154	3659	73
99	0	0	2239	1151	3658	72
100	0	0	2192	1150	3659	72
101	0	0	2116	1150	3659	71
102	0	0	2002	1148	3660	72
103	0	0	1899	1147	3660	71
104	0	0	1835	1149	3661	72
105	0	0	1827	1153	3658	73
106	0	0	1835	1154	3659	71
107	0	0	1802	1149	3659	72
108	0	0	1748	1148	3657	69
109	0	0	1731	1151	3659	73
110	0	0	1740	1152	3659	76
111	0	0	1779	1151	3659	72
112	0	0	1840	1152	3660	72
113	0	0	1929	1152	3661	74
114	0	0	2033	1153	3660	73
115	0	0	2124	1151	3660	73
116	0	0	2190	1154	3659	73
117	0	0	2262	1153	3660	73
118	0	0	2322	1152	3655	67
119	0	0	2305	1151	3657	72
120	0	0	2226	1148	3659	74
121	0	0	2150	1148	3660	75
122	0	0	2074	1148	3660	72
123	0	0	2008	1148	3660	71
124	0	0	1930	1148	3661	74
125	0	0	1853	1148	3657	74
126	0	0	1783	1146	3661	71
127	0	0	1728	1148	3660	72
0	0	0	1693	1149	3658	72
1	0	0	1680	1151	3659	73
2	0	0	1704	1152	3655	74
3	0	0	1780	1152	3661	73
4	0	0	1883	1151	3660	72
5	0	0	1979	1153	3661	73
6	0	0	2036	1153	3661	73
7	0	0	2090	1151	3660	71
8	0	0	2143	1153	3658	72
9	0	0	2204	1152	3660	73
10	0	0	2267	1152	3658	72
11	0	0	2246	1149	3659	72
12	0	0	2181	1149	3658	73
13	0	0	2088	1149	3659	71
14	0	0	1967	1146	3661	73
15	0	0	1883	1148	3660	72
16	0	0	1836	1149	3660	73
17	0	0	1822	1150	3659	71
18	0	0	1817	1151	3658	71
19	0	0	1795	1148	3659	72
20	0	0	1733	1148	3658	69
21	0	0	1687	1152	3658	74
22	0	0	1713	1152	3660	74
23	0	0	1821	1153	3659	71
24	0	0	1934	1150	3660	72
25	0	0	2022	1152	3660	72
26	0	0	2116	1153	3661	74
27	0	0	2189	1152	3656	75
28	0	0	2250	1152	3659	73
29	0	0	2308	1152	3660	72
30	0	0	2343	1152	3658	69
31	0	0	2307	1149	3660	71
32	0	0	2238	1150	3659	71
33	0	0	2156	1148	3660	75
34	0	0	2040	1147	3660	72
35	0	0	1931	1147	3660	72
36	0	0	1840	1147	3660	73
37	0	0	1768	1147	3661	76
38	0	0	1715	1150	3660	72
39	0	0	1680	1148	3659	71
40	0	0	1684	1151	3658	68
41	0	0	1765	1151	3658	72
42	0	0	1845	1152	3656	75
43	0	0	1910	1151	3659	72
44	0	0	1985	1150	3660	72
45	0	0	2074	1153	3661	73
46	0	0	2152	1152	3659	73
47	0	0	2214	1152	3661	74
48	0	0	2242	1152	3660	72
49	0	0	2255	1150	3659	72
50	0	0	2283	1151	3658	72
51	0	0	2218	1148	3657	73
52	0	0	2143	1148	3659	73
53	0	0	2095	1149	3658	71
54	0	0	2043	1148	3661	71
55	0	0	1985	1144	3659	68
56	0	0	1904	1148	3661	72
57	0	0	1818	1147	3661	76
58	0	0	1770	1149	3658	72
59	0	0	1734	1147	3658	72
60	0	0	1707	1149	3658	72
61	0	0	1717	1151	3658	73
62	0	0	1774	1150	3659	72
63	0	0	1866	1151	3661	72
64	0	0	1944	1150	3659	72
65	0	0	1990	1152	3660	73
66	0	0	2048	1152	3660	74
67	0	0	2148	1152	3660	73
68	0	0	2237	1153	3659	72
69	0	0	2320	1151	3659	61
70	0	0	2428	1151	3658	72
71	0	0	2443	1150	3658	72
72	0	0	2381	1146	3659	73
73	0	0	2255	1148	3659	72
74	0	0	2041	1149	3660	71
75	0	0	1862	1146	3660	72
76	0	0	1791	1148	3660	72
77	0	0	1769	1147	3660	73
78	0	0	1724	1149	3659	72
79	0	0	1649	1145	3659	72
80	0	0	1621	1151	3658	72
81	0	0	1666	1151	3658	73
82	0	0	1769	1152	3659	73
83	0	0	1873	1151	3659	71
84	0	0	1925	1154	3660	73
85	0	0	1974	1151	3658	72
86	0	0	2041	1151	3660	71
87	0	0	2134	1152	3660	74
88	0	0	2204	1153	3659	72
89	0	0	2224	1151	3659	72
90	0	0	2226	1152	3658	72
91	0	0	2189	1149	3658	72
92	0	0	2156	1150	3659	73
93	0	0	2128	1149	3659	72
94	0	0	2051	1146	3660	71
95	0	0	1932	1152	3659	72
96	0	0	1822	1147	3661	72
97	0	0	1751	1148	3659	71
98	0	0	1688	1148	3660	73
99	0	0	1626	1148	3660	72
100	0	0	1591	1150	3658	72
101	0	0	1623	1151	3660	71
102	0	0	1684	1151	3659	72
103	0	0	1751	1152	3658	73
104	0	0	1811	1152	3661	72
105	0	0	1877	1151	3660	72
106	0	0	1977	1151	3661	71
107	0	0	2069	1151	3660	72
108	0	0	2148	1151	3661	76
109	0	0	2235	1155	3659	73
110	0	0	2335	1153	3659	73
111	0	0	2319	1148	3658	72
112	0	0	2239	1148	3659	72
113	0	0	2158	1147	3660	74
114	0	0	2064	1148	3660	72
115	0	0	1986	1148	3660	72
116	0	0	1916	1146	3660	73
117	0	0	1836	1148	3659	72
118	0	0	1756	1147	3659	72
119	0	0	1702	1148	3659	72
120	0	0	1689	1151	3658	73
121	0	0	1741	1150	3658	73
122	0	0	1813	1154	3658	73
123	0	0	1871	1151	3660	72
124	0	0	1910	1151	3661	71
125	0	0	1963	1151	3660	73
126	0	0	2051	1150	3661	72
127	0	0	2121	1151	3660	72
0	0	0	2171	1151	3660	72
1	0	0	2227	1153	3659	73
2	0	0	2292	1151	3658	72
3	0	0	2291	1150	3658	72
4	0	0	2247	1149	3658	73
5	0	0	2199	1148	3659	73
6	0	0	2101	1150	3660	71
7	0	0	1982	1147	3660	72
8	0	0	1891	1147	3660	72
9	0	0	1814	1149	3659	72
10	0	0	1744	1147	3659	72
11	0	0	1642	1147	3660	71
12	0	0	1580	1149	3659	71
13	0	0	1612	1150	3658	72
14	0	0	1688	1151	3659	72
15	0	0	1774	1155	3660	73
16	0	0	1874	1159	3660	73
17	0	0	1964	1152	3660	73
18	0	0	2030	1150	3660	72
19	0	0	2086	1153	3659	73
20	0	0	2156	1151	3661	76
21	0	0	2218	1152	3659	71
22	0	0	2286	1150	3658	72
23	0	0	2279	1147	3659	72
24	0	0	2214	1147	3660	73
25	0	0	2129	1146	3661	75
26	0	0	2027	1148	3660	72
27	0	0	1961	1147	3660	73
28	0	0	1896	1147	3660	72
29	0	0	1798	1146	3660	73
30	0	0	1696	1146	3661	75
31	0	0	1609	1149	3659	72
32	0	0	1556	1148	3658	73
33	0	0	1595	1150	3658	72
34	0	0	1686	1151	3657	72
35	0	0	1776	1152	3660	73
36	0	0	1884	1151	3660	72
37	0	0	1995	1150	3660	74
38	0	0	2089	1152	3661	73
39	0	0	2172	1151	3659	73
40	0	0	2228	1151	3662	75
41	0	0	2262	1154	3659	73
42	0	0	2315	1151	3657	74
43	0	0	2313	1150	3658	73
44	0	0	2274	1149	3658	73
45	0	0	2215	1148	3658	70
46	0	0	2099	1146	3660	72
47	0	0	1964	1146	3660	75
48	0	0	1860	1147	3660	73
49	0	0	1796	1147	3659	72
50	0	0	1740	1148	3660	71
51	0	0	1675	1147	3659	72
52	0	0	1626	1148	3659	71
53	0	0	1635	1152	3658	73
54	0	0	1717	1151	3658	73
55	0	0	1839	1150	3660	72
56	0	0	1927	1150	3659	72
57	0	0	1978	1151	3659	73
58	0	0	2036	1149	3659	72
59	0	0	2097	1152	3660	73
60	0	0	2175	1151	3661	75
61	0	0	2235	1150	3658	72
62	0	0	2303	1151	3658	73
63	0	0	2303	1149	3658	73
64	0	0	2251	1149	3658	72
65	0	0	2185	1146	3661	73
66	0	0	2066	1147	3660	71
67	0	0	1955	1146	3659	72
68	0	0	1878	1148	3659	72
69	0	0	1828	1148	3660	71
70	0	0	1811	1148	3660	72
71	0	0	1790	1149	3657	72
72	0	0	1780	1151	3657	72
73	0	0	1784	1152	3658	72
74	0	0	1789	1150	3658	73
75	0	0	1813	1151	3660	75
76	0	0	1865	1151	3658	72
77	0	0	1955	1151	3660	72
78	0	0	2060	1152	3659	73
79	0	0	2128	1149	3661	72
80	0	0	2175	1151	3658	69
81	0	0	2224	1150	3657	72
82	0	0	2299	1151	3658	72
83	0	0	2282	1148	3659	71
84	0	0	2212	1148	3660	76
85	0	0	2137	1146	3660	72
86	0	0	2028	1147	3660	71
87	0	0	1915	1147	3659	72
88	0	0	1851	1148	3659	72
89	0	0	1818	1149	3660	73
90	0	0	1807	1150	3660	72
91	0	0	1791	1147	3658	72
92	0	0	1746	1147	3657	72
93	0	0	1727	1148	3657	71
94	0	0	1716	1149	3659	72
95	0	0	1741	1151	3658	71
96	0	0	1837	1151	3659	72
97	0	0	1968	1151	3661	73
98	0	0	2087	1152	3659	73
99	0	0	2179	1150	3659	73
100	0	0	2230	1152	3660	73
101	0	0	2269	1152	3660	73
102	0	0	2317	1151	3655	73
103	0	0	2334	1151	3658	72
104	0	0	2317	1147	3658	72
105	0	0	2246	1147	3658	69
106	0	0	2117	1146	3658	72
107	0	0	1959	1146	3659	73
108	0	0	1837	1146	3659	73
109	0	0	1775	1147	3659	73
110	0	0	1739	1148	3658	72
111	0	0	1715	1148	3658	72
112	0	0	1711	1151	3657	72
113	0	0	1755	1150	3658	73
114	0	0	1815	1150	3658	72
115	0	0	1870	1151	3660	72
116	0	0	1934	1151	3659	71
117	0	0	2014	1151	3660	71
118	0	0	2102	1149	3659	73
119	0	0	2183	1149	3659	73
120	0	0	2226	1152	3661	74
121	0	0	2245	1151	3659	73
122	0	0	2276	1151	3657	72
123	0	0	2284	1152	3659	77
124	0	0	2285	1150	3658	72
125	0	0	2236	1147	3658	69
126	0	0	2104	1146	3659	73
127	0	0	1952	1147	3660	74
0	0	0	1841	1147	3659	72
1	0	0	1792	1148	3660	72
2	0	0	1789	1151	3660	71
3	0	0	1782	1147	3658	73
4	0	0	1766	1150	3658	72
5	0	0	1787	1152	3658	73
6	0	0	1830	1151	3658	72
7	0	0	1900	1150	3660	71
8	0	0	1987	1151	3659	71
9	0	0	2074	1152	3661	73
10	0	0	2140	1151	3659	73
11	0	0	2187	1149	3659	73
12	0	0	2247	1151	3660	73
13	0	0	2292	1151	3659	71
14	0	0	2299	1149	3657	72
15	0	0	2234	1148	3658	72
16	0	0	2163	1147	3658	72
17	0	0	2078	1147	3659	71
18	0	0	1960	1147	3659	72
19	0	0	1860	1147	3659	73
20	0	0	1798	1147	3661	71
21	0	0	1779	1151	3660	71
22	0	0	1790	1151	3659	72
23	0	0	1781	1147	3659	72
24	0	0	1769	1151	3657	72
25	0	0	1794	1151	3659	71
26	0	0	1843	1151	3659	71
27	0	0	1870	1152	3659	73
28	0	0	1912	1151	3659	72
29	0	0	1992	1150	3659	73
30	0	0	2069	1150	3660	71
31	0	0	2136	1152	3661	71
32	0	0	2214	1152	3659	73
33	0	0	2311	1149	3659	72
34	0	0	2407	1150	3658	72
35	0	0	2442	1151	3659	71
36	0	0	2403	1147	3660	71
37	0	0	2302	1147	3659	71
38	0	0	2175	1146	3660	73
39	0	0	2052	1146	3659	73
40	0	0	1968	1146	3660	70
41	0	0	1913	1147	3660	72
42	0	0	1869	1148	3660	72
43	0	0	1801	1144	3659	72
44	0	0	1721	1148	3659	72
45	0	0	1725	1152	3658	74
46	0	0	1786	1150	3659	72
47	0	0	1865	1150	3659	71
48	0	0	1966	1149	3660	72
49	0	0	2083	1152	3661	72
50	0	0	2171	1150	3659	72
51	0	0	2220	1152	3660	73
52	0	0	2251	1151	3661	73
53	0	0	2304	1149	3659	74
54	0	0	2404	1150	3658	73
55	0	0	2437	1151	3657	73
56	0	0	2372	1147	3659	71
57	0	0	2250	1147	3659	72
58	0	0	2088	1146	3660	72
59	0	0	1940	1146	3660	73
60	0	0	1861	1147	3660	73
61	0	0	1828	1147	3660	72
62	0	0	1831	1152	3660	72
63	0	0	1834	1149	3659	72
64	0	0	1817	1150	3658	72
65	0	0	1821	1149	3658	70
66	0	0	1830	1151	3659	71
67	0	0	1865	1151	3659	71
68	0	0	1907	1148	3660	72
69	0	0	1959	1150	3660	73
70	0	0	2046	1148	3660	72
71	0	0	2159	1152	3660	72
72	0	0	2236	1150	3659	71
73	0	0	2286	1152	3659	73
74	0	0	2364	1151	3658	72
75	0	0	2395	1151	3658	72
76	0	0	2347	1148	3657	72
77	0	0	2254	1147	3659	73
78	0	0	2117	1145	3660	73
79	0	0	2007	1147	3659	73
80	0	0	1929	1147	3660	72
81	0	0	1859	1148	3659	72
82	0	0	1807	1147	3659	72
83	0	0	1783	1147	3659	73
84	0	0	1752	1149	3659	71
85	0	0	1765	1152	3660	73
86	0	0	1799	1151	3658	72
87	0	0	1842	1150	3659	73
88	0	0	1921	1151	3660	72
89	0	0	2028	1150	3660	73
90	0	0	2134	1152	3660	72
91	0	0	2224	1151	3661	76
92	0	0	2305	1150	3658	72
93	0	0	2343	1151	3659	71
94	0	0	2365	1152	3658	72
95	0	0	2328	1147	3658	72
96	0	0	2253	1147	3658	73
97	0	0	2172	1147	3659	72
98	0	0	2034	1146	3660	72
99	0	0	1875	1146	3660	72
100	0	0	1764	1146	3660	72
101	0	0	1683	1148	3659	72
102	0	0	1645	1149	3660	73
103	0	0	1641	1148	3659	72
104	0	0	1657	1152	3658	73
105	0	0	1718	1150	3658	74
106	0	0	1783	1152	3658	72
107	0	0	1836	1150	3659	73
108	0	0	1905	1150	3660	72
109	0	0	1996	1150	3660	72
110	0	0	2088	1149	3659	73
111	0	0	2175	1151	3660	72
112	0	0	2257	1152	3660	73
113	0	0	2318	1152	3659	72
114	0	0	2363	1151	3658	73
115	0	0	2288	1147	3658	72
116	0	0	2172	1148	3658	72
117	0	0	2081	1148	3657	73
118	0	0	1976	1146	3660	72
119	0	0	1880	1143	3659	73
120	0	0	1833	1148	3661	71
121	0	0	1810	1149	3658	72
122	0	0	1766	1147	3658	73
123	0	0	1686	1146	3660	73
124	0	0	1614	1147	3658	73
125	0	0	1595	1151	3658	72
126	0	0	1670	1150	3659	71
127	0	0	1813	1150	3660	72
0	0	0	1940	1149	3660	72
1	0	0	2051	1150	3660	73
2	0	0	2135	1153	3659	73
3	0	0	2207	1153	3660	71
4	0	0	2236	1151	3658	73
5	0	0	2234	1150	3660	72
6	0	0	2265	1150	3658	73
7	0	0	2227	1147	3658	73
8	0	0	2123	1146	3659	73
9	0	0	2010	1147	3657	72
10	0	0	1905	1147	3660	71
11	0	0	1840	1147	3660	69
12	0	0	1815	1147	3661	72
13	0	0	1810	1150	3660	71
14	0	0	1806	1152	3660	73
15	0	0	1769	1148	3658	72
16	0	0	1705	1146	3658	73
17	0	0	1684	1148	3658	72
18	0	0	1709	1150	3659	73
19	0	0	1769	1151	3657	72
20	0	0	1852	1150	3660	72
21	0	0	1949	1150	3660	72
22	0	0	2042	1150	3660	72
23	0	0	2134	1152	3659	73
24	0	0	2226	1151	3660	73
25	0	0	2308	1150	3659	73
26	0	0	2399	1151	3658	73
27	0	0	2361	1146	3658	72
28	0	0	2239	1148	3657	72
29	0	0	2129	1147	3660	72
30	0	0	2033	1147	3660	72
31	0	0	1941	1147	3660	72
32	0	0	1871	1145	3662	72
33	0	0	1804	1146	3659	71
34	0	0	1745	1147	3659	72
35	0	0	1707	1146	3659	72
36	0	0	1664	1147	3658	72
37	0	0	1677	1150	3658	72
38	0	0	1743	1150	3659	73
39	0	0	1808	1150	3658	73
40	0	0	1880	1151	3660	72
41	0	0	1981	1151	3660	71
42	0	0	2070	1152	3660	73
43	0	0	2123	1151	3659	72
44	0	0	2146	1151	3659	71
45	0	0	2164	1151	3659	73
46	0	0	2221	1150	3657	73
47	0	0	2238	1150	3659	72
48	0	0	2206	1148	3660	73
49	0	0	2151	1148	3659	73
50	0	0	2050	1146	3660	73
51	0	0	1928	1146	3659	73
52	0	0	1805	1146	3660	72
53	0	0	1701	1148	3659	71
54	0	0	1637	1147	3660	73
55	0	0	1590	1148	3658	72
56	0	0	1540	1147	3659	71
57	0	0	1533	1151	3657	72
58	0	0	1580	1151	3658	72
59	0	0	1648	1152	3659	73
60	0	0	1730	1150	3659	72
61	0	0	1825	1151	3659	72
62	0	0	1944	1151	3659	72
63	0	0	2077	1151	3660	72
64	0	0	2185	1150	3660	72
65	0	0	2282	1150	3658	71
66	0	0	2379	1150	3658	73
67	0	0	2377	1148	3658	71
68	0	0	2331	1148	3657	73
69	0	0	2319	1151	3659	71
70	0	0	2284	1147	3659	72
71	0	0	2223	1147	3659	71
72	0	0	2186	1148	3660	72
73	0	0	2160	1149	3660	73
74	0	0	2162	1150	3659	72
75	0	0	2195	1151	3659	71
76	0	0	2225	1150	3657	72
77	0	0	2305	1151	3657	71
78	0	0	2431	1151	3659	75
79	0	0	2514	1151	3659	71
80	0	0	2561	1151	3659	72
81	0	0	2623	1150	3659	72
82	0	0	2713	1150	3660	73
83	0	0	2813	1151	3659	72
84	0	0	2890	1152	3660	73
85	0	0	2960	1152	3659	72
86	0	0	3033	1151	3657	72
87	0	0	3051	1150	3658	72
88	0	0	2971	1146	3659	74
89	0	0	2841	1147	3661	72
90	0	0	2665	1146	3659	72
91	0	0	2511	1146	3659	72
92	0	0	2404	1146	3660	72
93	0	0	2286	1145	3660	73
94	0	0	2142	1146	3661	72
95	0	0	1974	1145	3659	71
96	0	0	1819	1144	3658	72
97	0	0	1764	1150	3657	72
98	0	0	1818	1150	3658	73
99	0	0	1883	1151	3659	72
100	0	0	1917	1150	3659	72
101	0	0	1951	1152	3657	73
102	0	0	1964	1150	3659	73
103	0	0	1947	1151	3660	73
104	0	0	1971	1150	3661	72
105	0	0	2021	1151	3658	73
106	0	0	2107	1151	3658	72
107	0	0	2128	1150	3658	73
108	0	0	2079	1146	3658	73
109	0	0	1968	1146	3659	72
110	0	0	1780	1145	3657	72
111	0	0	1629	1146	3659	71
112	0	0	1563	1149	3659	72
113	0	0	1540	1148	3660	73
114	0	0	1543	1151	3660	71
115	0	0	1556	1150	3658	74
116	0	0	1562	1151	3659	72
117	0	0	1601	1149	3658	72
118	0	0	1687	1151	3657	72
119	0	0	1785	1151	3660	72
120	0	0	1871	1150	3659	72
121	0	0	1934	1151	3660	72
122	0	0	1988	1154	3660	72
123	0	0	2050	1150	3660	73
124	0	0	2089	1151	3659	69
125	0	0	2123	1152	3659	72
126	0	0	2193	1150	3657	71
127	0	0	2182	1146	3659	72
0	0	0	2101	1145	3658	72
1	0	0	2008	1146	3658	70
2	0	0	1899	1146	3660	72
3	0	0	1795	1146	3659	73
4	0	0	1732	1147	3657	73
5	0	0	1699	1147	3660	72
6	0	0	1696	1152	3658	72
7	0	0	1695	1149	3657	72
8	0	0	1666	1150	3658	71
9	0	0	1669	1152	3657	72
10	0	0	1703	1151	3659	73
11	0	0	1758	1152	3658	71
12	0	0	1836	1149	3661	73
13	0	0	1908	1150	3659	72
14	0	0	1964	1151	3659	72
15	0	0	2045	1150	3660	78
16	0	0	2121	1151	3659	73
17	0	0	2219	1151	3659	72
18	0	0	2370	1151	3658	72
19	0	0	2440	1153	3657	72
20	0	0	2384	1147	3659	72
21	0	0	2254	1146	3661	72
22	0	0	2110	1146	3660	72
23	0	0	1967	1145	3659	72
24	0	0	1829	1147	3660	72
25	0	0	1724	1147	3661	74
26	0	0	1656	1147	3660	70
27	0	0	1646	1150	3659	71
28	0	0	1668	1150	3659	72
29	0	0	1732	1152	3657	73
30	0	0	1787	1150	3658	73
31	0	0	1831	1151	3658	70
32	0	0	1911	1150	3660	72
33	0	0	1978	1150	3659	72
34	0	0	2007	1152	3661	73
35	0	0	2058	1151	3661	72
36	0	0	2123	1151	3660	71
37	0	0	2217	1151	3659	72
38	0	0	2336	1151	3659	72
39	0	0	2398	1152	3657	73
40	0	0	2379	1148	3657	72
41	0	0	2326	1147	3658	70
42	0	0	2222	1146	3660	72
43	0	0	2083	1146	3659	72
44	0	0	1947	1147	3659	72
45	0	0	1870	1146	3660	72
46	0	0	1812	1147	3659	71
47	0	0	1768	1147	3659	72
48	0	0	1739	1149	3658	72
49	0	0	1778	1147	3659	76
50	0	0	1868	1151	3659	71
51	0	0	1917	1151	3659	70
52	0	0	1933	1151	3659	73
53	0	0	1947	1152	3659	74
54	0	0	1989	1147	3660	74
55	0	0	2052	1150	3660	73
56	0	0	2124	1151	3660	71
57	0	0	2198	1151	3660	72
58	0	0	2270	1152	3657	73
59	0	0	2288	1151	3658	70
60	0	0	2252	1147	3658	73
61	0	0	2178	1147	3657	74
62	0	0	2055	1146	3660	72
63	0	0	1951	1147	3659	72
64	0	0	1893	1143	3660	76
65	0	0	1853	1147	3660	72
66	0	0	1800	1147	3660	71
67	0	0	1737	1146	3659	72
68	0	0	1677	1147	3657	72
69	0	0	1681	1150	3659	71
70	0	0	1729	1150	3657	72
71	0	0	1802	1151	3660	71
72	0	0	1892	1150	3660	72
73	0	0	1980	1152	3660	73
74	0	0	2068	1151	3659	71
75	0	0	2175	1152	3660	73
76	0	0	2261	1151	3659	71
77	0	0	2290	1152	3659	73
78	0	0	2317	1151	3657	74
79	0	0	2307	1148	3658	71
80	0	0	2259	1148	3658	73
81	0	0	2210	1148	3656	74
82	0	0	2098	1146	3659	72
83	0	0	1971	1147	3659	72
84	0	0	1880	1147	3661	76
85	0	0	1829	1148	3660	73
86	0	0	1831	1150	3657	74
87	0	0	1836	1149	3657	71
88	0	0	1796	1147	3658	72
89	0	0	1760	1143	3658	76
90	0	0	1758	1152	3658	73
91	0	0	1816	1152	3659	73
92	0	0	1896	1150	3659	71
93	0	0	1966	1151	3659	73
94	0	0	2045	1151	3660	72
95	0	0	2133	1151	3660	72
96	0	0	2230	1151	3660	71
97	0	0	2328	1151	3656	72
98	0	0	2432	1152	3657	72
99	0	0	2461	1151	3659	76
100	0	0	2422	1148	3660	72
101	0	0	2328	1147	3659	71
102	0	0	2182	1148	3657	72
103	0	0	2048	1147	3659	73
104	0	0	1950	1145	3661	75
105	0	0	1887	1147	3658	72
106	0	0	1822	1147	3660	71
107	0	0	1779	1148	3659	71
108	0	0	1731	1147	3657	71
109	0	0	1738	1150	3658	70
110	0	0	1816	1151	3658	73
111	0	0	1897	1151	3658	73
112	0	0	1958	1152	3657	72
113	0	0	2029	1152	3659	72
114	0	0	2120	1151	3658	71
115	0	0	2214	1152	3658	73
116	0	0	2297	1151	3659	71
117	0	0	2337	1152	3659	73
118	0	0	2419	1152	3657	76
119	0	0	2473	1151	3658	69
120	0	0	2448	1148	3658	73
121	0	0	2395	1147	3658	72
122	0	0	2276	1147	3657	71
123	0	0	2138	1147	3659	73
124	0	0	2053	1147	3659	72
125	0	0	1988	1148	3658	71
126	0	0	1954	1149	3658	73
127	0	0	1939	1147	3656	70
0	0	0	1883	1147	3657	72
1	0	0	1849	1149	3657	72
2	0	0	1868	1151	3658	72
3	0	0	1910	1152	3659	73
4	0	0	1928	1151	3657	71
5	0	0	1957	1151	3660	72
6	0	0	2016	1154	3659	73
7	0	0	2105	1151	3661	72
8	0	0	2198	1151	3659	71
9	0	0	2284	1151	3659	72
10	0	0	2370	1152	3657	73
11	0	0	2383	1151	3657	72
12	0	0	2364	1150	3656	74
13	0	0	2326	1148	3659	69
14	0	0	2235	1147	3658	72
15	0	0	2106	1147	3658	73
16	0	0	1994	1146	3659	73
17	0	0	1924	1147	3656	74
18	0	0	1904	1151	3659	69
19	0	0	1916	1152	3659	72
20	0	0	1930	1151	3657	72
21	0	0	1960	1151	3659	72
22	0	0	2006	1151	3658	71
23	0	0	2037	1151	3658	72
24	0	0	2088	1151	3659	71
25	0	0	2139	1152	3659	73
26	0	0	2211	1150	3659	73
27	0	0	2248	1152	3658	73
28	0	0	2274	1152	3659	72
29	0	0	2313	1152	3657	72
30	0	0	2394	1152	3657	73
31	0	0	2447	1151	3657	72
32	0	0	2403	1148	3656	74
33	0	0	2330	1149	3657	70
34	0	0	2226	1147	3659	72
35	0	0	2123	1148	3658	73
36	0	0	2055	1148	3659	72
37	0	0	2010	1148	3659	71
38	0	0	1961	1147	3659	71
39	0	0	1925	1148	3656	69
40	0	0	1905	1151	3657	70
41	0	0	1945	1151	3657	72
42	0	0	1997	1150	3656	73
43	0	0	2048	1151	3658	71
44	0	0	2109	1151	3659	72
45	0	0	2174	1153	3655	73
46	0	0	2234	1152	3659	73
47	0	0	2270	1151	3658	73
48	0	0	2305	1151	3659	70
49	0	0	2341	1153	3658	73
50	0	0	2421	1152	3657	73
51	0	0	2473	1151	3657	73
52	0	0	2452	1148	3656	73
53	0	0	2394	1148	3657	71
54	0	0	2301	1147	3658	72
55	0	0	2218	1148	3660	72
56	0	0	2166	1150	3660	73
57	0	0	2107	1148	3659	72
58	0	0	2044	1148	3660	72
59	0	0	1991	1148	3659	71
60	0	0	1946	1149	3658	72
61	0	0	1953	1153	3657	73
62	0	0	2010	1151	3658	72
63	0	0	2059	1152	3659	73
64	0	0	2131	1151	3659	71
65	0	0	2208	1152	3660	73
66	0	0	2255	1152	3658	72
67	0	0	2293	1153	3660	74
68	0	0	2344	1152	3659	76
69	0	0	2398	1152	3658	71
70	0	0	2474	1152	3657	72
71	0	0	2511	1152	3658	71
72	0	0	2496	1151	3658	72
73	0	0	2433	1148	3659	72
74	0	0	2303	1147	3659	71
75	0	0	2169	1146	3658	73
76	0	0	2067	1147	3660	72
77	0	0	2009	1148	3658	73
78	0	0	2003	1151	3659	74
79	0	0	1979	1149	3658	72
80	0	0	1958	1151	3657	72
81	0	0	1989	1150	3658	71
82	0	0	2042	1153	3658	72
83	0	0	2099	1152	3659	72
84	0	0	2167	1153	3659	73
85	0	0	2200	1152	3659	71
86	0	0	2216	1152	3658	75
87	0	0	2233	1153	3659	73
88	0	0	2287	1153	3658	72
89	0	0	2378	1153	3657	72
90	0	0	2470	1151	3657	72
91	0	0	2476	1149	3657	72
92	0	0	2396	1149	3658	73
93	0	0	2301	1149	3656	72
94	0	0	2194	1148	3657	71
95	0	0	2096	1148	3660	72
96	0	0	1997	1147	3659	72
97	0	0	1895	1148	3659	72
98	0	0	1834	1149	3660	71
99	0	0	1803	1149	3657	71
100	0	0	1793	1153	3657	72
101	0	0	1827	1150	3657	71
102	0	0	1896	1152	3658	72
103	0	0	1953	1152	3658	73
104	0	0	2004	1153	3659	72
105	0	0	2052	1153	3659	73
106	0	0	2112	1152	3658	71
107	0	0	2183	1154	3659	73
108	0	0	2231	1153	3659	74
109	0	0	2274	1152	3657	74
110	0	0	2372	1151	3657	73
111	0	0	2420	1151	3657	72
112	0	0	2417	1151	3658	73
113	0	0	2346	1149	3658	72
114	0	0	2238	1148	3658	72
115	0	0	2140	1148	3659	73
116	0	0	2048	1147	3659	72
117	0	0	1950	1148	3659	72
118	0	0	1847	1148	3660	72
119	0	0	1766	1147	3657	71
120	0	0	1686	1149	3658	71
121	0	0	1666	1151	3657	71
122	0	0	1738	1154	3658	74
123	0	0	1817	1153	3659	76
124	0	0	1854	1152	3657	73
125	0	0	1898	1152	3659	73
126	0	0	1957	1152	3659	72
127	0	0	2023	1153	3660	72
0	0	0	2088	1152	3659	75
1	0	0	2157	1154	3659	71
2	0	0	2243	1152	3657	73
3	0	0	2277	1153	3657	71
4	0	0	2219	1149	3658	73
5	0	0	2132	1149	3659	72
6	0	0	2045	1147	3657	71
7	0	0	1953	1148	3660	72
8	0	0	1871	1149	3660	73
9	0	0	1810	1151	3660	73
10	0	0	1783	1150	3658	76
11	0	0	1757	1148	3658	72
12	0	0	1681	1148	3657	69
13	0	0	1641	1152	3659	72
14	0	0	1710	1152	3657	72
15	0	0	1859	1151	3658	75
16	0	0	2007	1152	3659	73
17	0	0	2087	1153	3659	74
18	0	0	2093	1151	3659	70
19	0	0	2063	1151	3660	74
20	0	0	2055	1153	3659	74
21	0	0	2074	1152	3660	73
22	0	0	2161	1154	3657	73
23	0	0	2218	1153	3657	73
24	0	0	2231	1153	3657	73
25	0	0	2208	1150	3658	71
26	0	0	2117	1149	3658	71
27	0	0	2008	1149	3659	73
28	0	0	1912	1148	3658	73
29	0	0	1823	1148	3659	72
30	0	0	1772	1149	3659	78
31	0	0	1727	1148	3659	72
32	0	0	1619	1149	3657	72
33	0	0	1568	1151	3657	69
34	0	0	1617	1154	3658	74
35	0	0	1705	1153	3658	72
36	0	0	1796	1155	3658	72
37	0	0	1897	1153	3659	73
38	0	0	2011	1154	3659	73
39	0	0	2109	1153	3659	72
40	0	0	2171	1154	3659	75
41	0	0	2194	1152	3660	74
42	0	0	2234	1153	3658	72
43	0	0	2237	1152	3655	73
44	0	0	2210	1153	3658	74
45	0	0	2186	1151	3659	73
46	0	0	2119	1150	3660	72
47	0	0	2032	1148	3659	72
48	0	0	1942	1148	3659	71
49	0	0	1841	1147	3660	72
50	0	0	1777	1150	3659	71
51	0	0	1746	1149	3657	71
52	0	0	1675	1149	3657	72
53	0	0	1605	1150	3657	73
54	0	0	1623	1153	3658	73
55	0	0	1702	1152	3658	71
56	0	0	1837	1151	3660	72
57	0	0	1984	1152	3657	73
58	0	0	2107	1154	3659	73
59	0	0	2199	1151	3659	73
60	0	0	2235	1153	3660	73
61	0	0	2233	1153	3660	71
62	0	0	2268	1154	3658	72
63	0	0	2271	1153	3657	73
64	0	0	2233	1150	3658	73
65	0	0	2172	1149	3659	72
66	0	0	2077	1148	3660	72
67	0	0	1967	1148	3659	72
68	0	0	1851	1149	3660	72
69	0	0	1739	1146	3660	72
70	0	0	1676	1151	3659	71
71	0	0	1665	1151	3660	72
72	0	0	1669	1153	3657	72
73	0	0	1708	1154	3657	73
74	0	0	1789	1151	3658	72
75	0	0	1881	1153	3658	74
76	0	0	1957	1153	3659	72
77	0	0	2022	1153	3659	73
78	0	0	2075	1154	3659	73
79	0	0	2113	1151	3660	72
80	0	0	2152	1154	3660	71
81	0	0	2209	1154	3660	74
82	0	0	2304	1154	3657	73
83	0	0	2367	1155	3657	73
84	0	0	2337	1150	3657	74
85	0	0	2275	1150	3658	71
86	0	0	2166	1148	3659	71
87	0	0	2031	1149	3659	73
88	0	0	1912	1149	3659	73
89	0	0	1819	1146	3660	72
90	0	0	1766	1150	3660	72
91	0	0	1728	1149	3659	72
92	0	0	1683	1150	3658	72
93	0	0	1686	1153	3655	73
94	0	0	1708	1150	3658	72
95	0	0	1712	1154	3659	71
96	0	0	1757	1153	3659	72
97	0	0	1856	1154	3660	73
98	0	0	1949	1154	3658	72
99	0	0	2003	1151	3659	72
100	0	0	2061	1155	3659	74
101	0	0	2118	1154	3659	73
102	0	0	2206	1154	3657	73
103	0	0	2281	1154	3657	72
104	0	0	2274	1151	3658	74
105	0	0	2207	1151	3658	71
106	0	0	2126	1149	3659	72
107	0	0	2029	1149	3658	73
108	0	0	1954	1150	3659	73
109	0	0	1892	1149	3659	71
110	0	0	1835	1151	3659	69
111	0	0	1794	1150	3661	72
112	0	0	1749	1150	3657	72
113	0	0	1778	1153	3657	73
114	0	0	1870	1151	3657	71
115	0	0	1946	1153	3658	71
116	0	0	2006	1154	3658	71
117	0	0	2050	1154	3661	73
118	0	0	2088	1154	3659	73
119	0	0	2102	1153	3659	71
120	0	0	2109	1155	3659	72
121	0	0	2147	1155	3659	71
122	0	0	2241	1154	3657	73
123	0	0	2293	1154	3657	73
124	0	0	2273	1150	3657	71
125	0	0	2231	1153	3658	71
126	0	0	2160	1150	3659	74
127	0	0	2066	1150	3657	73
0	0	0	1982	1150	3660	71
1	0	0	1926	1150	3660	72
2	0	0	1878	1151	3659	73
3	0	0	1812	1150	3659	72
4	0	0	1730	1150	3657	72
5	0	0	1704	1152	3658	72
6	0	0	1728	1154	3658	72
7	0	0	1755	1155	3658	73
8	0	0	1793	1155	3659	72
9	0	0	1860	1151	3659	73
10	0	0	1968	1154	3660	71
11	0	0	2093	1151	3659	72
12	0	0	2186	1156	3659	74
13	0	0	2260	1155	3658	72
14	0	0	2336	1154	3657	73
15	0	0	2337	1151	3656	72
16	0	0	2284	1150	3657	72
17	0	0	2224	1151	3659	71
18	0	0	2148	1150	3658	72
19	0	0	2046	1152	3658	73
20	0	0	1937	1150	3659	72
21	0	0	1829	1149	3659	71
22	0	0	1753	1150	3659	72
23	0	0	1704	1152	3659	73
24	0	0	1655	1149	3657	72
25	0	0	1653	1154	3658	76
26	0	0	1709	1155	3655	73
27	0	0	1775	1154	3658	72
28	0	0	1876	1154	3658	69
29	0	0	1986	1153	3658	73
30	0	0	2087	1151	3658	72
31	0	0	2158	1151	3659	72
32	0	0	2223	1154	3659	72
33	0	0	2276	1154	3658	73
34	0	0	2350	1157	3657	73
35	0	0	2341	1151	3656	71
36	0	0	2263	1150	3656	71
37	0	0	2185	1152	3658	73
38	0	0	2084	1150	3658	71
39	0	0	1942	1150	3659	72
40	0	0	1848	1150	3658	72
41	0	0	1821	1152	3659	71
42	0	0	1826	1155	3659	74
43	0	0	1854	1155	3659	72
44	0	0	1834	1152	3657	72
45	0	0	1832	1154	3658	72
46	0	0	1878	1155	3658	72
47	0	0	1942	1155	3658	73
48	0	0	1983	1155	3658	72
49	0	0	2008	1154	3658	71
50	0	0	2050	1154	3658	73
51	0	0	2101	1155	3657	74
52	0	0	2138	1156	3659	74
53	0	0	2190	1156	3657	74
54	0	0	2295	1155	3658	72
55	0	0	2340	1151	3658	72
56	0	0	2271	1152	3656	74
57	0	0	2179	1151	3658	72
58	0	0	2081	1150	3658	72
59	0	0	1978	1154	3657	72
60	0	0	1911	1152	3659	72
61	0	0	1850	1153	3659	73
62	0	0	1827	1153	3659	71
63	0	0	1804	1152	3657	75
64	0	0	1757	1153	3656	73
65	0	0	1738	1155	3655	71
66	0	0	1782	1159	3657	73
67	0	0	1837	1155	3658	74
68	0	0	1886	1156	3659	72
69	0	0	1949	1151	3658	73
70	0	0	2025	1156	3658	72
71	0	0	2119	1156	3660	72
72	0	0	2195	1157	3659	73
73	0	0	2248	1155	3658	75
74	0	0	2323	1155	3656	73
75	0	0	2350	1154	3655	71
76	0	0	2285	1152	3655	74
77	0	0	2225	1152	3658	77
78	0	0	2147	1151	3658	74
79	0	0	2060	1150	3658	73
80	0	0	1994	1152	3659	72
81	0	0	1948	1152	3659	72
82	0	0	1929	1152	3659	76
83	0	0	1889	1151	3658	72
84	0	0	1840	1153	3658	71
85	0	0	1830	1156	3657	74
86	0	0	1878	1154	3656	74
87	0	0	1974	1155	3658	73
88	0	0	2044	1155	3658	75
89	0	0	2079	1155	3659	73
90	0	0	2109	1156	3659	72
91	0	0	2158	1156	3659	73
92	0	0	2228	1156	3658	72
93	0	0	2288	1156	3658	72
94	0	0	2355	1155	3657	73
95	0	0	2367	1153	3656	74
96	0	0	2299	1152	3657	73
97	0	0	2238	1152	3659	72
98	0	0	2161	1151	3658	74
99	0	0	2046	1149	3658	72
100	0	0	1938	1151	3659	72
101	0	0	1840	1151	3659	71
102	0	0	1776	1152	3659	73
103	0	0	1758	1154	3659	72
104	0	0	1733	1151	3656	72
105	0	0	1756	1155	3656	73
106	0	0	1823	1153	3656	74
107	0	0	1901	1156	3658	76
108	0	0	1968	1155	3657	73
109	0	0	2038	1156	3658	73
110	0	0	2123	1155	3658	71
111	0	0	2219	1153	3656	74
112	0	0	2268	1156	3659	75
113	0	0	2272	1156	3657	75
114	0	0	2289	1155	3657	73
115	0	0	2296	1156	3657	72
116	0	0	2273	1152	3657	73
117	0	0	2244	1154	3657	72
118	0	0	2192	1152	3658	73
119	0	0	2089	1153	3659	72
120	0	0	1973	1152	3659	74
121	0	0	1910	1152	3659	73
122	0	0	1861	1153	3659	72
123	0	0	1786	1152	3656	74
124	0	0	1723	1150	3656	72
125	0	0	1718	1155	3657	71
126	0	0	1779	1155	3657	72
127	0	0	1873	1153	3657	73
0	0	0	1977	1156	3657	75
1	0	0	2055	1157	3658	73
2	0	0	2126	1156	3659	72
3	0	0	2206	1156	3658	71
4	0	0	2272	1155	3659	73
5	0	0	2311	1156	3658	71
6	0	0	2344	1156	3657	74
7	0	0	2324	1152	3655	70
8	0	0	2249	1151	3657	72
9	0	0	2180	1153	3657	72
10	0	0	2135	1154	3658	72
11	0	0	2085	1152	3658	73
12	0	0	2017	1151	3658	73
13	0	0	1933	1151	3658	73
14	0	0	1855	1152	3659	72
15	0	0	1810	1152	3657	72
16	0	0	1748	1152	3656	73
17	0	0	1698	1153	3657	72
18	0	0	1705	1158	3657	72
19	0	0	1774	1156	3658	72
20	0	0	1898	1156	3657	72
21	0	0	2004	1155	3658	73
22	0	0	2081	1156	3659	71
23	0	0	2150	1158	3659	72
24	0	0	2235	1151	3658	73
25	0	0	2310	1157	3657	72
26	0	0	2392	1157	3657	72
27	0	0	2445	1158	3657	73
28	0	0	2410	1155	3657	72
29	0	0	2338	1153	3658	73
30	0	0	2258	1153	3658	72
31	0	0	2149	1151	3658	72
32	0	0	2000	1151	3658	73
33	0	0	1874	1154	3658	73
34	0	0	1814	1153	3659	72
35	0	0	1818	1158	3657	72
36	0	0	1822	1157	3656	73
37	0	0	1808	1155	3657	72
38	0	0	1812	1159	3657	72
39	0	0	1844	1157	3658	74
40	0	0	1893	1156	3657	73
41	0	0	1972	1156	3658	74
42	0	0	2063	1157	3658	73
43	0	0	2158	1159	3659	73
44	0	0	2233	1157	3659	72
45	0	0	2280	1157	3657	72
46	0	0	2333	1157	3656	73
47	0	0	2343	1156	3657	69
48	0	0	2300	1154	3657	73
49	0	0	2259	1153	3657	74
50	0	0	2183	1153	3657	71
51	0	0	2060	1152	3657	73
52	0	0	1923	1152	3657	73
53	0	0	1812	1151	3659	71
54	0	0	1753	1153	3659	74
55	0	0	1732	1156	3655	72
56	0	0	1709	1154	3656	73
57	0	0	1724	1157	3656	73
58	0	0	1789	1156	3658	75
59	0	0	1855	1157	3657	74
60	0	0	1914	1156	3657	72
61	0	0	1981	1157	3659	73
62	0	0	2026	1156	3657	73
63	0	0	2075	1154	3659	73
64	0	0	2124	1157	3658	74
65	0	0	2175	1158	3657	72
66	0	0	2281	1158	3655	73
67	0	0	2376	1158	3656	73
68	0	0	2390	1155	3658	75
69	0	0	2321	1153	3656	56
70	0	0	2232	1152	3657	74
71	0	0	2130	1153	3656	73
72	0	0	2046	1153	3658	72
73	0	0	1989	1154	3659	72
74	0	0	1943	1154	3658	73
75	0	0	1922	1155	3658	72
76	0	0	1886	1154	3656	73
77	0	0	1867	1157	3657	72
78	0	0	1875	1157	3657	72
79	0	0	1897	1158	3656	72
80	0	0	1947	1157	3658	72
81	0	0	2012	1159	3657	73
82	0	0	2070	1158	3658	73
83	0	0	2116	1159	3658	72
84	0	0	2176	1158	3658	74
85	0	0	2242	1157	3657	72
86	0	0	2351	1158	3656	73
87	0	0	2422	1157	3656	73
88	0	0	2397	1155	3656	74
89	0	0	2319	1153	3657	74
90	0	0	2209	1151	3657	72
91	0	0	2079	1153	3657	73
92	0	0	1983	1151	3657	72
93	0	0	1925	1155	3658	73
94	0	0	1893	1155	3660	73
95	0	0	1866	1154	3658	72
96	0	0	1826	1153	3657	72
97	0	0	1806	1157	3659	73
98	0	0	1826	1158	3656	73
99	0	0	1878	1158	3657	73
100	0	0	1948	1157	3657	72
101	0	0	2009	1156	3659	72
102	0	0	2090	1158	3659	73
103	0	0	2158	1159	3658	73
104	0	0	2198	1158	3659	72
105	0	0	2212	1158	3657	74
106	0	0	2279	1159	3657	72
107	0	0	2359	1159	3656	72
108	0	0	2381	1158	3657	71
109	0	0	2323	1154	3658	72
110	0	0	2218	1153	3657	73
111	0	0	2136	1154	3659	73
112	0	0	2090	1156	3658	72
113	0	0	2007	1155	3658	73
114	0	0	1895	1153	3658	73
115	0	0	1818	1153	3657	74
116	0	0	1755	1154	3656	73
117	0	0	1749	1158	3656	71
118	0	0	1821	1157	3657	72
119	0	0	1903	1159	3658	72
120	0	0	2011	1158	3658	72
121	0	0	2115	1159	3657	73
122	0	0	2212	1158	3658	72
123	0	0	2313	1156	3658	74
124	0	0	2398	1158	3658	74
125	0	0	2442	1158	3658	72
126	0	0	2491	1161	3657	74
127	0	0	2491	1155	3655	73
0	0	0	2434	1155	3656	72
1	0	0	2366	1155	3657	72
2	0	0	2260	1153	3657	73
3	0	0	2121	1154	3657	73
4	0	0	2017	1155	3660	73
5	0	0	1932	1154	3658	75
6	0	0	1862	1154	3658	73
7	0	0	1796	1154	3657	72
8	0	0	1706	1153	3656	73
9	0	0	1651	1154	3656	73
10	0	0	1693	1158	3656	73
11	0	0	1798	1158	3657	72
12	0	0	1908	1158	3657	74
13	0	0	2021	1159	3659	72
14	0	0	2105	1155	3655	73
15	0	0	2162	1158	3658	75
16	0	0	2209	1159	3658	73
17	0	0	2250	1158	3657	74
18	0	0	2301	1158	3656	72
19	0	0	2324	1159	3656	72
20	0	0	2283	1155	3656	74
21	0	0	2243	1156	3657	73
22	0	0	2180	1154	3657	71
23	0	0	2083	1154	3658	74
24	0	0	1986	1151	3658	72
25	0	0	1904	1153	3658	74
26	0	0	1838	1155	3659	73
27	0	0	1799	1155	3658	72
28	0	0	1777	1157	3656	73
29	0	0	1792	1158	3658	73
30	0	0	1856	1160	3657	72
31	0	0	1916	1156	3657	73
32	0	0	1970	1158	3657	71
33	0	0	2033	1158	3658	73
34	0	0	2108	1157	3658	73
35	0	0	2186	1159	3659	76
36	0	0	2247	1160	3659	73
37	0	0	2282	1158	3657	71
38	0	0	2349	1159	3657	74
39	0	0	2387	1159	3656	72
40	0	0	2320	1153	3656	75
41	0	0	2236	1155	3657	73
42	0	0	2157	1155	3659	72
43	0	0	2064	1155	3658	73
44	0	0	1969	1155	3658	72
45	0	0	1888	1155	3657	73
46	0	0	1827	1156	3659	72
47	0	0	1811	1156	3657	71
48	0	0	1775	1156	3656	73
49	0	0	1762	1159	3655	71
50	0	0	1789	1156	3656	73
51	0	0	1827	1158	3657	72
52	0	0	1870	1158	3657	69
53	0	0	1938	1158	3658	73
54	0	0	2056	1158	3658	76
55	0	0	2186	1157	3659	73
56	0	0	2270	1159	3659	73
57	0	0	2265	1157	3658	71
58	0	0	2269	1159	3656	73
59	0	0	2285	1158	3657	73
60	0	0	2246	1158	3657	72
61	0	0	2218	1157	3657	72
62	0	0	2165	1156	3659	72
63	0	0	2090	1155	3658	73
64	0	0	2008	1155	3658	72
65	0	0	1934	1155	3658	71
66	0	0	1895	1157	3658	72
67	0	0	1924	1159	3658	71
68	0	0	1946	1157	3656	73
69	0	0	1908	1155	3656	72
70	0	0	1878	1154	3656	73
71	0	0	1857	1158	3657	72
72	0	0	1853	1159	3657	72
73	0	0	1869	1159	3659	72
74	0	0	1930	1159	3659	71
75	0	0	2027	1159	3658	71
76	0	0	2110	1158	3659	73
77	0	0	2185	1159	3658	72
78	0	0	2298	1159	3656	73
79	0	0	2379	1158	3656	71
80	0	0	2372	1157	3655	71
81	0	0	2310	1156	3657	72
82	0	0	2188	1155	3657	72
83	0	0	2037	1155	3658	73
84	0	0	1902	1155	3658	73
85	0	0	1793	1156	3657	71
86	0	0	1728	1155	3659	73
87	0	0	1703	1157	3657	72
88	0	0	1678	1156	3657	74
89	0	0	1693	1159	3653	74
90	0	0	1784	1161	3656	73
91	0	0	1875	1160	3657	72
92	0	0	1911	1159	3657	71
93	0	0	1922	1158	3658	73
94	0	0	1945	1159	3659	72
95	0	0	2028	1159	3659	73
96	0	0	2089	1157	3658	73
97	0	0	2139	1159	3657	72
98	0	0	2216	1161	3657	73
99	0	0	2270	1160	3655	72
100	0	0	2217	1156	3656	73
101	0	0	2135	1155	3657	72
102	0	0	2078	1156	3658	69
103	0	0	1996	1156	3657	73
104	0	0	1916	1155	3656	74
105	0	0	1852	1154	3659	324
106	0	0	1803	1156	3658	1033
107	0	0	1791	1157	3657	1835
108	0	0	1775	1156	3657	2475
109	0	0	1780	1160	3656	2914
110	0	0	1800	1159	3656	3202
111	0	0	1833	1158	3657	3396
112	0	0	1907	1159	3657	3527
113	0	0	1999	1158	3658	3619
114	0	0	2095	1159	3659	3687
115	0	0	2225	1159	3659	3738
116	0	0	2356	1158	3659	3776
117	0	0	2433	1159	3657	3805
118	0	0	2523	1162	3656	3828
119	0	0	2637	1159	3653	3848
120	0	0	2721	1160	3656	3863
121	0	0	2774	1159	3658	3877
122	0	0	2786	1159	3657	3887
123	0	0	2754	1155	3658	3895
124	0	0	2686	1156	3656	3905
125	0	0	2618	1156	3658	3913
126	0	0	2545	1155	3658	3918
127	0	0	2480	1156	3658	3923
0	0	0	2432	1155	3658	3927
1	0	0	2417	1159	3653	3933
2	0	0	2474	1161	3656	3937
3	0	0	2564	1159	3657	3940
4	0	0	2636	1159	3657	3943
5	0	0	2690	1159	3658	3945
6	0	0	2743	1159	3656	3948
7	0	0	2787	1160	3658	3951
8	0	0	2801	1159	3660	3953
9	0	0	2790	1159	3657	3954
10	0	0	2797	1158	3658	3956
11	0	0	2784	1157	3656	3958
12	0	0	2701	1157	3656	3960
13	0	0	2606	1155	3657	3960
14	0	0	2478	1154	3657	3962
15	0	0	2276	1155	3658	3964
16	0	0	2063	1155	3658	3962
17	0	0	1895	1155	3657	3966
18	0	0	1774	1155	3659	3968
19	0	0	1682	1155	3657	3968
20	0	0	1592	1155	3658	3970
21	0	0	1520	1156	3658	3970
22	0	0	1527	1160	3657	3972
23	0	0	1578	1160	3657	3973
24	0	0	1640	1159	3657	3973
25	0	0	1690	1160	3659	3975
26	0	0	1751	1160	3660	3975
27	0	0	1842	1160	3658	3973
28	0	0	1926	1160	3659	3975
29	0	0	1978	1160	3657	3975
30	0	0	2031	1160	3656	3976
31	0	0	2095	1159	3657	3978
32	0	0	2088	1162	3656	3977
33	0	0	2073	1161	3658	3979
34	0	0	2020	1157	3659	3980
35	0	0	1908	1155	3658	3979
36	0	0	1798	1157	3658	3981
37	0	0	1716	1156	3658	3980
38	0	0	1647	1157	3657	3982
39	0	0	1609	1156	3658	3983
40	0	0	1586	1157	3658	3980
41	0	0	1605	1160	3656	3982
42	0	0	1685	1162	3656	3981
43	0	0	1772	1163	3657	3983
44	0	0	1870	1160	3657	3982
45	0	0	1940	1160	3658	3983
46	0	0	1967	1161	3658	3984
47	0	0	1993	1161	3658	3983
48	0	0	2032	1162	3658	3984
49	0	0	2088	1159	3657	3983
50	0	0	2174	1160	3656	3984
51	0	0	2240	1162	3655	3984
52	0	0	2212	1159	3655	3985
53	0	0	2138	1159	3658	3987
54	0	0	2038	1155	3657	3985
55	0	0	1940	1157	3658	3984
56	0	0	1910	1159	3658	3986
57	0	0	1888	1157	3660	3987
58	0	0	1854	1159	3658	3987
59	0	0	1834	1157	3659	3987
60	0	0	1778	1157	3657	3986
61	0	0	1731	1157	3656	3988
62	0	0	1744	1162	3657	3988
63	0	0	1785	1162	3657	3988
64	0	0	1843	1160	3657	3987
65	0	0	1926	1158	3657	3987
66	0	0	2021	1162	3658	3987
67	0	0	2100	1162	3659	3987
68	0	0	2156	1163	3659	3989
69	0	0	2204	1161	3658	3988
70	0	0	2286	1160	3656	3988
71	0	0	2357	1163	3655	3988
72	0	0	2344	1159	3656	3988
73	0	0	2282	1158	3658	3989
74	0	0	2193	1156	3657	3989
75	0	0	2073	1156	3658	3989
76	0	0	1952	1158	3658	3989
77	0	0	1867	1157	3659	3989
78	0	0	1851	1163	3659	3991
79	0	0	1878	1161	3658	3991
80	0	0	1863	1157	3656	3990
81	0	0	1815	1159	3655	3990
82	0	0	1780	1158	3657	3990
83	0	0	1774	1163	3657	3991
84	0	0	1808	1161	3658	3990
85	0	0	1880	1161	3658	3990
86	0	0	1977	1164	3658	3990
87	0	0	2076	1161	3659	3992
88	0	0	2170	1165	3659	3992
89	0	0	2245	1162	3658	3992
90	0	0	2329	1161	3656	3993
91	0	0	2370	1161	3656	3992
92	0	0	2318	1157	3659	3992
93	0	0	2253	1158	3658	3992
94	0	0	2165	1157	3657	3992
95	0	0	2059	1156	3659	3993
96	0	0	1968	1157	3660	3992
97	0	0	1910	1157	3660	3992
98	0	0	1866	1158	3659	3993
99	0	0	1834	1158	3657	3992
100	0	0	1778	1157	3656	3992
101	0	0	1709	1158	3656	3992
102	0	0	1686	1162	3657	3992
103	0	0	1728	1165	3657	3993
104	0	0	1824	1161	3658	3993
105	0	0	1931	1158	3657	3992
106	0	0	2049	1163	3658	3993
107	0	0	2127	1161	3660	3990
108	0	0	2162	1161	3658	3993
109	0	0	2204	1163	3658	3993
110	0	0	2286	1161	3657	3995
111	0	0	2377	1162	3655	3992
112	0	0	2364	1158	3658	3992
113	0	0	2264	1157	3658	3994
114	0	0	2151	1157	3656	3992
115	0	0	2053	1158	3658	3994
116	0	0	1987	1158	3658	3994
117	0	0	1934	1158	3659	3994
118	0	0	1872	1157	3657	3994
119	0	0	1823	1158	3656	3991
120	0	0	1799	1158	3656	3994
121	0	0	1786	1161	3656	3994
122	0	0	1798	1162	3656	3994
123	0	0	1819	1161	3657	3995
124	0	0	1870	1162	3659	3995
125	0	0	1936	1159	3658	3994
126	0	0	1990	1162	3658	3993
127	0	0	2063	1165	3659	3995
0	0	0	2147	1161	3658	3995
1	0	0	2217	1161	3657	3994
2	0	0	2299	1159	3656	3994
3	0	0	2360	1163	3655	3995
4	0	0	2340	1159	3657	3994
5	0	0	2272	1157	3657	3996
6	0	0	2173	1156	3657	3995
7	0	0	2089	1158	3659	3996
8	0	0	2032	1158	3659	3995
9	0	0	1983	1159	3660	3994
10	0	0	1957	1160	3658	3996
11	0	0	1930	1158	3657	3994
12	0	0	1874	1158	3657	3995
13	0	0	1830	1159	3656	3994
14	0	0	1843	1162	3656	3996
15	0	0	1880	1161	3656	3996
16	0	0	1925	1162	3657	3995
17	0	0	1988	1162	3657	3995
18	0	0	2068	1161	3658	3996
19	0	0	2142	1162	3659	3996
20	0	0	2201	1163	3659	3997
21	0	0	2238	1162	3657	3995
22	0	0	2299	1162	3658	3997
23	0	0	2385	1163	3655	3996
24	0	0	2416	1162	3657	3996
25	0	0	2394	1160	3657	3997
26	0	0	2327	1158	3656	3997
27	0	0	2224	1158	3658	3996
28	0	0	2127	1158	3658	3995
29	0	0	2041	1159	3658	3997
30	0	0	1976	1158	3658	3996
31	0	0	1932	1158	3656	3991
32	0	0	1867	1158	3656	3996
33	0	0	1840	1163	3656	3996
34	0	0	1887	1162	3656	3998
35	0	0	1957	1161	3656	3996
36	0	0	2013	1163	3659	3999
37	0	0	2067	1162	3657	3996
38	0	0	2114	1162	3659	3997
39	0	0	2176	1162	3659	3997
40	0	0	2239	1160	3658	3997
41	0	0	2286	1162	3657	3996
42	0	0	2356	1161	3657	3996
43	0	0	2407	1162	3657	3997
44	0	0	2384	1160	3657	3997
45	0	0	2354	1161	3657	3997
46	0	0	2322	1159	3657	3996
47	0	0	2243	1158	3657	3996
48	0	0	2131	1158	3658	3996
49	0	0	2007	1157	3658	3998
50	0	0	1901	1158	3658	3997
51	0	0	1842	1159	3657	3996
52	0	0	1815	1159	3657	3996
53	0	0	1814	1162	3656	3997
54	0	0	1871	1162	3655	3997
55	0	0	1932	1163	3657	3998
56	0	0	2000	1162	3658	3999
57	0	0	2070	1161	3658	3997
58	0	0	2146	1162	3658	3998
59	0	0	2229	1163	3659	3998
60	0	0	2294	1162	3658	3999
61	0	0	2309	1163	3659	3998
62	0	0	2337	1161	3656	3997
63	0	0	2391	1161	3656	3997
64	0	0	2397	1163	3656	3998
65	0	0	2368	1161	3657	3998
66	0	0	2319	1160	3657	3997
67	0	0	2249	1159	3658	3996
68	0	0	2161	1159	3658	3996
69	0	0	2081	1160	3657	3999
70	0	0	2019	1159	3658	3996
71	0	0	1981	1160	3657	3996
72	0	0	1958	1160	3656	3997
73	0	0	1949	1162	3656	3998
74	0	0	2003	1165	3656	3999
75	0	0	2062	1161	3658	3998
76	0	0	2124	1162	3657	4000
77	0	0	2193	1162	3657	3995
78	0	0	2247	1163	3658	3997
79	0	0	2270	1163	3657	3999
80	0	0	2301	1164	3658	3998
81	0	0	2363	1164	3655	3997
82	0	0	2457	1163	3656	3998
83	0	0	2540	1163	3656	3997
84	0	0	2534	1161	3655	3999
85	0	0	2461	1159	3655	3996
86	0	0	2376	1158	3657	3997
87	0	0	2275	1158	3657	3995
88	0	0	2160	1159	3658	3997
89	0	0	2081	1160	3659	3998
90	0	0	2037	1161	3659	3999
91	0	0	2030	1162	3657	3996
92	0	0	1997	1160	3657	3999
93	0	0	1954	1160	3657	4001
94	0	0	1950	1162	3656	3998
95	0	0	1998	1164	3658	3999
96	0	0	2049	1163	3657	3998
97	0	0	2100	1162	3658	3999
98	0	0	2189	1164	3659	3996
99	0	0	2300	1163	3657	3998
100	0	0	2384	1163	3659	4000
101	0	0	2435	1163	3658	3999
102	0	0	2485	1162	3657	3997
103	0	0	2532	1164	3656	4000
104	0	0	2492	1160	3657	3999
105	0	0	2426	1159	3657	3999
106	0	0	2365	1160	3658	3999
107	0	0	2273	1159	3658	3998
108	0	0	2191	1160	3658	3999
109	0	0	2148	1161	3661	3999
110	0	0	2120	1159	3659	3999
111	0	0	2076	1160	3659	3999
112	0	0	2008	1160	3656	3998
113	0	0	1952	1162	3657	4000
114	0	0	1973	1163	3658	3999
115	0	0	2026	1163	3657	3998
116	0	0	2092	1162	3657	3998
117	0	0	2169	1164	3657	3998
118	0	0	2248	1164	3658	3998
119	0	0	2323	1162	3657	3998
120	0	0	2382	1163	3658	3999
121	0	0	2393	1163	3657	3997
122	0	0	2417	1164	3656	3999
123	0	0	2484	1165	3655	3998
124	0	0	2496	1164	3657	3999
125	0	0	2458	1162	3658	3999
126	0	0	2408	1160	3657	3998
127	0	0	2302	1159	3658	4000
0	0	0	2174	1160	3658	3999
1	0	0	2078	1159	3657	3999
2	0	0	1988	1157	3658	4000
3	0	0	1898	1159	3657	3998
4	0	0	1821	1159	3656	3998
5	0	0	1788	1163	3656	4000
6	0	0	1832	1164	3655	3999
7	0	0	1910	1159	3656	3999
8	0	0	1990	1164	3658	4000
9	0	0	2068	1161	3659	3998
10	0	0	2119	1163	3658	3999
11	0	0	2171	1165	3659	3999
12	0	0	2237	1162	3659	3999
13	0	0	2328	1163	3657	3998
14	0	0	2413	1164	3657	4000
15	0	0	2480	1164	3658	3997
16	0	0	2450	1161	3655	3999
17	0	0	2352	1159	3657	3999
18	0	0	2248	1159	3657	3999
19	0	0	2133	1159	3657	3999
20	0	0	2031	1159	3658	4000
21	0	0	1943	1160	3659	4000
22	0	0	1854	1157	3658	4000
23	0	0	1797	1160	3657	3995
24	0	0	1777	1161	3656	3999
25	0	0	1765	1165	3655	3999
26	0	0	1801	1163	3657	3999
27	0	0	1887	1161	3657	3999
28	0	0	1960	1164	3658	4001
29	0	0	1981	1166	3657	3999
30	0	0	1980	1163	3658	4000
31	0	0	2034	1165	3659	4000
32	0	0	2144	1162	3659	4000
33	0	0	2241	1164	3657	3999
34	0	0	2300	1167	3655	3999
35	0	0	2334	1165	3655	3999
36	0	0	2302	1162	3655	3999
37	0	0	2263	1160	3657	3999
38	0	0	2218	1160	3656	3999
39	0	0	2110	1160	3659	4001
40	0	0	1981	1160	3657	3998
41	0	0	1866	1159	3657	3999
42	0	0	1775	1160	3659	4000
43	0	0	1702	1160	3657	3999
44	0	0	1662	1160	3657	3999
45	0	0	1669	1164	3656	4002
46	0	0	1736	1164	3656	3999
47	0	0	1780	1162	3657	4000
48	0	0	1826	1163	3657	3999
49	0	0	1901	1164	3658	3999
50	0	0	1964	1165	3658	3999
51	0	0	2007	1164	3657	3999
52	0	0	2058	1165	3659	4000
53	0	0	2096	1164	3657	3999
54	0	0	2152	1165	3658	4001
55	0	0	2201	1165	3658	3999
56	0	0	2172	1161	3656	3999
57	0	0	2134	1162	3658	4000
58	0	0	2119	1161	3657	3999
59	0	0	2057	1159	3658	4000
60	0	0	1951	1160	3658	4000
61	0	0	1836	1161	3660	4001
62	0	0	1749	1160	3660	4000
63	0	0	1683	1160	3658	4000
64	0	0	1639	1159	3656	4001
65	0	0	1604	1162	3657	3999
66	0	0	1625	1164	3660	4001
67	0	0	1695	1164	3658	4000
68	0	0	1803	1165	3658	4001
69	0	0	1909	1164	3658	4000
70	0	0	1969	1164	3659	4002
71	0	0	1979	1166	3660	4000
72	0	0	1976	1164	3659	4000
73	0	0	2002	1165	3659	4001
74	0	0	2082	1162	3656	4000
75	0	0	2191	1164	3656	3999
76	0	0	2197	1163	3656	3999
77	0	0	2157	1162	3658	4002
78	0	0	2116	1160	3659	3998
79	0	0	2040	1160	3659	4001
80	0	0	1988	1161	3658	4001
81	0	0	1946	1161	3660	4001
82	0	0	1878	1160	3660	4001
83	0	0	1797	1160	3658	3999
84	0	0	1711	1159	3657	4001
85	0	0	1622	1160	3656	4000
86	0	0	1586	1162	3659	4000
87	0	0	1602	1164	3657	4000
88	0	0	1652	1165	3657	4000
89	0	0	1730	1165	3658	4001
90	0	0	1830	1166	3658	4001
91	0	0	1943	1165	3662	4001
92	0	0	2044	1164	3660	4000
93	0	0	2103	1165	3658	4000
94	0	0	2173	1162	3658	3999
95	0	0	2268	1164	3657	4002
96	0	0	2273	1162	3658	4001
97	0	0	2196	1161	3658	4000
98	0	0	2079	1160	3657	4000
99	0	0	1935	1160	3660	4001
100	0	0	1804	1161	3659	4001
101	0	0	1732	1162	3658	3999
102	0	0	1714	1163	3659	4000
103	0	0	1710	1164	3658	4000
104	0	0	1695	1163	3657	4000
105	0	0	1692	1164	3657	4001
106	0	0	1727	1164	3658	4002
107	0	0	1768	1164	3658	4000
108	0	0	1783	1164	3657	4000
109	0	0	1814	1164	3660	4001
110	0	0	1885	1165	3659	4001
111	0	0	1962	1165	3659	4000
112	0	0	2060	1164	3659	4001
113	0	0	2133	1165	3658	4000
114	0	0	2199	1168	3657	4000
115	0	0	2283	1166	3656	4002
116	0	0	2319	1166	3659	4001
117	0	0	2292	1161	3657	4001
118	0	0	2201	1160	3657	4000
119	0	0	2059	1161	3658	4001
120	0	0	1930	1162	3659	4000
121	0	0	1853	1162	3660	4000
122	0	0	1786	1161	3659	4000
123	0	0	1703	1160	3658	4000
124	0	0	1621	1162	3657	4000
125	0	0	1569	1163	3657	4000
126	0	0	1606	1165	3659	4001
127	0	0	1707	1164	3657	4001
0	0	0	1791	1165	3659	4001
1	0	0	1847	1165	3658	4000
2	0	0	1943	1166	3658	3999
3	0	0	2070	1166	3659	3998
4	0	0	2167	1164	3659	4001
5	0	0	2236	1165	3658	4000
6	0	0	2313	1164	3655	4000
7	0	0	2391	1167	3656	4002
8	0	0	2371	1163	3659	4001
9	0	0	2314	1161	3657	4000
10	0	0	2228	1161	3657	4000
11	0	0	2075	1162	3658	4000
12	0	0	1913	1161	3659	4000
13	0	0	1787	1160	3660	4000
14	0	0	1700	1161	3659	4001
15	0	0	1683	1164	3658	4000
16	0	0	1664	1162	3657	4000
17	0	0	1649	1165	3657	4000
18	0	0	1712	1164	3657	3999
19	0	0	1789	1165	3656	4001
20	0	0	1828	1165	3656	4000
21	0	0	1860	1165	3658	4000
22	0	0	1905	1164	3659	4000
23	0	0	1974	1165	3660	3999
24	0	0	2071	1166	3658	4001
25	0	0	2167	1165	3657	4000
26	0	0	2235	1165	3657	4000
27	0	0	2270	1166	3656	4000
28	0	0	2254	1165	3658	3999
29	0	0	2246	1166	3657	4001
30	0	0	2217	1161	3655	4002
31	0	0	2116	1161	3658	4000
32	0	0	1967	1161	3659	4001
33	0	0	1853	1162	3660	4002
34	0	0	1764	1161	3659	4001
35	0	0	1696	1162	3659	4002
36	0	0	1630	1161	3658	4000
37	0	0	1586	1161	3656	4001
38	0	0	1617	1166	3658	4002
39	0	0	1681	1165	3657	4001
40	0	0	1734	1165	3659	4002
41	0	0	1787	1167	3658	4000
42	0	0	1878	1165	3659	4001
43	0	0	1999	1166	3660	4002
44	0	0	2108	1165	3659	4001
45	0	0	2174	1166	3659	4001
46	0	0	2231	1168	3657	4000
47	0	0	2296	1166	3655	4001
48	0	0	2302	1165	3656	4000
49	0	0	2273	1164	3657	4001
50	0	0	2241	1162	3657	4000
51	0	0	2147	1162	3658	4000
52	0	0	2008	1161	3658	4001
53	0	0	1875	1161	3660	4002
54	0	0	1785	1161	3659	4000
55	0	0	1763	1165	3658	4000
56	0	0	1767	1165	3657	4000
57	0	0	1763	1164	3658	3999
58	0	0	1797	1165	3656	4000
59	0	0	1829	1166	3659	4002
60	0	0	1850	1166	3657	4000
61	0	0	1889	1167	3659	4002
62	0	0	1956	1167	3659	4000
63	0	0	2064	1166	3659	3999
64	0	0	2184	1165	3659	4001
65	0	0	2232	1166	3658	4001
66	0	0	2247	1166	3657	4000
67	0	0	2288	1165	3657	4000
68	0	0	2263	1163	3658	4000
69	0	0	2194	1162	3657	4001
70	0	0	2120	1162	3657	4000
71	0	0	2009	1161	3658	4000
72	0	0	1893	1161	3660	4000
73	0	0	1823	1162	3661	4000
74	0	0	1797	1163	3659	4001
75	0	0	1782	1163	3659	4002
76	0	0	1740	1164	3657	4000
77	0	0	1685	1162	3657	4000
78	0	0	1684	1166	3656	4002
79	0	0	1724	1166	3656	4003
80	0	0	1788	1167	3658	3999
81	0	0	1863	1168	3657	4000
82	0	0	1945	1165	3660	3999
83	0	0	2055	1166	3658	4002
84	0	0	2154	1165	3659	4003
85	0	0	2215	1166	3658	4001
86	0	0	2272	1167	3656	4000
87	0	0	2351	1165	3657	3999
88	0	0	2337	1163	3655	4001
89	0	0	2292	1164	3658	4001
90	0	0	2231	1163	3658	4000
91	0	0	2140	1162	3659	4002
92	0	0	2052	1162	3659	4002
93	0	0	1976	1162	3659	4002
94	0	0	1880	1161	3660	4002
95	0	0	1789	1161	3660	3999
96	0	0	1723	1162	3656	4001
97	0	0	1646	1163	3657	4001
98	0	0	1662	1165	3655	4001
99	0	0	1747	1165	3659	4003
100	0	0	1832	1165	3657	4003
101	0	0	1917	1165	3658	4001
102	0	0	2005	1166	3659	4000
103	0	0	2065	1166	3659	4001
104	0	0	2112	1167	3659	4002
105	0	0	2134	1166	3658	4001
106	0	0	2152	1167	3657	4000
107	0	0	2205	1166	3657	4001
108	0	0	2211	1166	3658	4002
109	0	0	2185	1164	3657	4002
110	0	0	2125	1162	3659	4003
111	0	0	2036	1161	3658	4001
112	0	0	1951	1162	3659	4001
113	0	0	1892	1163	3659	4001
114	0	0	1830	1163	3659	4001
115	0	0	1791	1163	3658	4001
116	0	0	1763	1163	3657	4000
117	0	0	1728	1163	3657	4000
118	0	0	1726	1166	3656	4001
119	0	0	1741	1167	3658	4002
120	0	0	1750	1165	3657	4000
121	0	0	1786	1166	3658	4001
122	0	0	1867	1166	3659	4000
123	0	0	1973	1167	3657	4001
124	0	0	2055	1166	3660	4003
125	0	0	2092	1166	3658	4001
126	0	0	2147	1167	3657	4000
127	0	0	2255	1167	3657	4001
0	0	0	2306	1167	3658	4002
1	0	0	2278	1163	3658	4001
2	0	0	2207	1163	3659	4002
3	0	0	2083	1162	3658	4001
4	0	0	1950	1162	3659	4001
5	0	0	1860	1163	3660	4004
6	0	0	1799	1163	3662	4002
7	0	0	1765	1164	3658	4000
8	0	0	1760	1165	3659	3999
9	0	0	1764	1165	3657	4001
10	0	0	1818	1167	3658	4002
11	0	0	1883	1167	3658	4001
12	0	0	1921	1166	3658	4001
13	0	0	1942	1167	3658	4001
14	0	0	1997	1166	3658	4001
15	0	0	2095	1166	3657	4001
16	0	0	2185	1167	3660	4001
17	0	0	2231	1167	3659	4002
18	0	0	2250	1167	3657	4001
19	0	0	2287	1166	3657	4001
20	0	0	2275	1164	3657	4004
21	0	0	2227	1164	3658	4002
22	0	0	2163	1162	3658	3997
23	0	0	2052	1162	3658	4000
24	0	0	1940	1163	3659	4001
25	0	0	1884	1164	3657	4001
26	0	0	1841	1163	3660	4000
27	0	0	1806	1164	3658	4001
28	0	0	1770	1163	3657	4001
29	0	0	1744	1165	3657	4001
30	0	0	1767	1167	3656	4001
31	0	0	1816	1168	3656	4002
32	0	0	1872	1166	3658	4001
33	0	0	1911	1167	3658	4001
34	0	0	1960	1167	3659	4001
35	0	0	2039	1168	3660	4002
36	0	0	2113	1167	3659	4002
37	0	0	2168	1167	3660	4002
38	0	0	2230	1168	3657	4001
39	0	0	2332	1167	3657	4001
40	0	0	2359	1167	3658	4003
41	0	0	2292	1163	3656	4001
42	0	0	2193	1163	3658	4002
43	0	0	2044	1162	3659	4001
44	0	0	1914	1163	3657	4002
45	0	0	1840	1164	3660	4000
46	0	0	1806	1164	3658	4002
47	0	0	1784	1164	3658	4001
48	0	0	1746	1163	3658	4002
49	0	0	1705	1164	3655	4001
50	0	0	1725	1168	3656	4000
51	0	0	1800	1167	3656	4002
52	0	0	1885	1167	3658	4001
53	0	0	1964	1167	3658	4003
54	0	0	2026	1167	3660	4000
55	0	0	2068	1168	3659	4002
56	0	0	2100	1168	3660	4003
57	0	0	2126	1167	3659	4001
58	0	0	2192	1167	3658	4001
59	0	0	2307	1168	3656	4001
60	0	0	2341	1166	3656	4001
61	0	0	2277	1163	3657	4001
62	0	0	2202	1163	3658	4001
63	0	0	2094	1163	3659	4001
64	0	0	1984	1163	3659	4001
65	0	0	1889	1164	3660	4003
66	0	0	1810	1163	3658	4001
67	0	0	1766	1163	3659	4001
68	0	0	1753	1164	3658	4002
69	0	0	1719	1163	3656	4002
70	0	0	1698	1166	3658	4002
71	0	0	1721	1166	3656	4000
72	0	0	1780	1167	3658	4001
73	0	0	1868	1167	3659	4002
74	0	0	1981	1167	3657	4001
75	0	0	2107	1168	3659	3999
76	0	0	2232	1167	3659	4001
77	0	0	2307	1168	3659	4001
78	0	0	2322	1167	3659	4002
79	0	0	2338	1167	3657	4003
80	0	0	2312	1165	3658	4000
81	0	0	2260	1165	3656	4002
82	0	0	2202	1164	3659	4001
83	0	0	2104	1163	3659	4001
84	0	0	2000	1163	3657	4002
85	0	0	1916	1165	3659	3999
86	0	0	1834	1164	3658	4002
87	0	0	1771	1163	3659	4001
88	0	0	1711	1164	3658	4001
89	0	0	1642	1164	3656	4001
90	0	0	1641	1167	3658	3999
91	0	0	1701	1168	3656	4003
92	0	0	1807	1167	3659	4001
93	0	0	1945	1168	3659	4001
94	0	0	2073	1167	3656	4002
95	0	0	2148	1168	3660	4000
96	0	0	2201	1167	3659	4001
97	0	0	2235	1168	3658	4001
98	0	0	2280	1168	3658	4001
99	0	0	2378	1168	3656	4002
100	0	0	2407	1168	3657	3999
101	0	0	2340	1164	3656	4003
102	0	0	2257	1164	3655	4002
103	0	0	2158	1163	3661	4003
104	0	0	2044	1164	3661	4002
105	0	0	1966	1164	3660	4003
106	0	0	1904	1164	3661	4002
107	0	0	1820	1163	3659	4001
108	0	0	1750	1163	3660	4002
109	0	0	1731	1169	3659	4001
110	0	0	1749	1168	3658	4000
111	0	0	1782	1168	3659	4003
112	0	0	1831	1168	3658	4001
113	0	0	1901	1168	3661	4003
114	0	0	1996	1169	3660	4004
115	0	0	2128	1168	3660	4003
116	0	0	2228	1168	3660	4003
117	0	0	2264	1169	3659	4001
118	0	0	2276	1168	3659	4002
119	0	0	2316	1169	3659	4002
120	0	0	2315	1167	3658	4001
121	0	0	2276	1165	3659	4002
122	0	0	2205	1164	3658	4000
123	0	0	2072	1163	3659	4001
124	0	0	1931	1164	3659	4001
125	0	0	1829	1165	3659	3999
126	0	0	1805	1169	3660	4002
127	0	0	1820	1169	3659	4001
0	0	0	1814	1165	3658	4001
1	0	0	1769	1165	3656	4001
2	0	0	1777	1169	3657	4003
3	0	0	1824	1168	3659	4002
4	0	0	1890	1169	3660	4003
5	0	0	1956	1169	3660	4001
6	0	0	2035	1168	3660	4002
7	0	0	2134	1169	3663	4002
8	0	0	2209	1169	3660	4002
9	0	0	2238	1170	3659	4001
10	0	0	2249	1167	3658	4001
11	0	0	2327	1168	3658	4001
12	0	0	2359	1169	3659	4003
13	0	0	2309	1164	3658	4002
14	0	0	2227	1164	3658	4001
15	0	0	2093	1164	3659	4001
16	0	0	1954	1164	3660	3999
17	0	0	1883	1164	3659	4001
18	0	0	1833	1164	3659	4002
19	0	0	1794	1165	3659	4001
20	0	0	1760	1164	3658	4001
21	0	0	1724	1165	3658	4000
22	0	0	1738	1169	3657	3999
23	0	0	1795	1169	3658	4003
24	0	0	1885	1168	3660	4003
25	0	0	1997	1169	3659	4002
26	0	0	2090	1170	3660	4002
27	0	0	2147	1169	3660	4003
28	0	0	2187	1169	3659	4003
29	0	0	2196	1169	3660	4003
30	0	0	2208	1170	3659	4001
31	0	0	2288	1170	3658	4002
32	0	0	2328	1170	3659	4003
33	0	0	2290	1166	3657	4003
34	0	0	2214	1165	3658	4001
35	0	0	2090	1163	3660	4001
36	0	0	1952	1164	3660	3999
37	0	0	1834	1164	3660	4001
38	0	0	1735	1164	3659	4003
39	0	0	1682	1166	3658	4001
40	0	0	1668	1165	3658	4001
41	0	0	1655	1166	3659	3999
42	0	0	1679	1169	3658	4001
43	0	0	1732	1169	3660	4003
44	0	0	1802	1168	3658	4001
45	0	0	1907	1168	3660	4003
46	0	0	1994	1169	3660	4003
47	0	0	2033	1170	3660	4002
48	0	0	2093	1169	3659	4002
49	0	0	2176	1168	3659	4001
50	0	0	2258	1168	3658	4001
51	0	0	2346	1171	3659	4002
52	0	0	2357	1168	3658	4003
53	0	0	2307	1166	3658	4002
54	0	0	2238	1166	3658	4001
55	0	0	2128	1164	3659	4001
56	0	0	1991	1164	3660	3999
57	0	0	1832	1164	3660	4003
58	0	0	1694	1165	3659	4002
59	0	0	1627	1166	3660	4003
60	0	0	1632	1170	3659	4003
61	0	0	1654	1170	3658	4002
62	0	0	1725	1169	3659	4004
63	0	0	1802	1168	3657	4003
64	0	0	1880	1168	3658	4001
65	0	0	1954	1168	3661	4000
66	0	0	1994	1169	3660	3999
67	0	0	2033	1169	3660	4000
68	0	0	2073	1167	3659	4003
69	0	0	2117	1169	3659	4001
70	0	0	2172	1169	3659	4001
71	0	0	2242	1170	3658	4001
72	0	0	2244	1166	3658	4002
73	0	0	2175	1166	3657	4002
74	0	0	2100	1165	3659	4001
75	0	0	2012	1165	3660	4004
76	0	0	1924	1166	3660	4000
77	0	0	1872	1165	3660	4000
78	0	0	1833	1167	3660	4002
79	0	0	1788	1166	3659	4000
80	0	0	1741	1166	3658	4001
81	0	0	1691	1166	3657	4002
82	0	0	1701	1169	3659	4000
83	0	0	1768	1169	3657	4003
84	0	0	1842	1169	3658	4001
85	0	0	1926	1168	3659	4002
86	0	0	2027	1169	3660	3999
87	0	0	2132	1169	3660	4003
88	0	0	2210	1170	3660	4003
89	0	0	2255	1169	3660	4001
90	0	0	2293	1169	3659	4004
91	0	0	2335	1170	3658	4002
92	0	0	2325	1167	3658	4002
93	0	0	2273	1166	3659	4003
94	0	0	2223	1167	3658	4004
95	0	0	2141	1165	3658	3999
96	0	0	2032	1166	3660	4001
97	0	0	1935	1165	3660	4002
98	0	0	1856	1165	3660	4003
99	0	0	1785	1166	3659	4001
100	0	0	1733	1165	3658	4001
101	0	0	1678	1167	3658	4001
102	0	0	1677	1170	3658	4000
103	0	0	1723	1170	3656	4004
104	0	0	1787	1169	3658	4001
105	0	0	1871	1170	3659	4001
106	0	0	1965	1170	3660	4002
107	0	0	2004	1170	3660	4003
108	0	0	2017	1169	3659	4003
109	0	0	2031	1170	3660	4003
110	0	0	2077	1169	3657	4001
111	0	0	2150	1169	3657	4002
112	0	0	2151	1168	3658	4002
113	0	0	2115	1167	3660	4002
114	0	0	2106	1170	3658	4001
115	0	0	2087	1167	3657	4002
116	0	0	2048	1166	3659	4003
117	0	0	2006	1167	3660	4002
118	0	0	1980	1168	3660	4002
119	0	0	1984	1169	3659	4001
120	0	0	1989	1169	3658	4001
121	0	0	1984	1170	3658	4003
122	0	0	2024	1169	3659	4002
123	0	0	2104	1170	3660	4003
124	0	0	2209	1170	3658	4001
125	0	0	2333	1170	3659	4003
126	0	0	2466	1170	3660	4003
127	0	0	2595	1169	3660	4000
0	0	0	2717	1170	3660	4003
1	0	0	2807	1170	3659	4001
2	0	0	2869	1171	3658	4001
3	0	0	2984	1170	3658	4001
4	0	0	3047	1171	3658	4002
5	0	0	3017	1167	3660	4002
6	0	0	2937	1166	3658	4001
7	0	0	2814	1166	3659	4001
8	0	0	2692	1165	3659	4002
9	0	0	2589	1167	3660	4001
10	0	0	2498	1166	3660	4003
11	0	0	2413	1166	3660	4003
12	0	0	2296	1162	3660	4001
13	0	0	2165	1165	3658	4001
14	0	0	2097	1167	3656	4003
15	0	0	2089	1169	3662	3999
16	0	0	2102	1170	3660	4002
17	0	0	2119	1170	3657	4002
18	0	0	2124	1169	3659	4002
19	0	0	2109	1167	3660	4003
20	0	0	2082	1167	3662	4002
21	0	0	2062	1168	3659	4002
22	0	0	2059	1170	3656	4002
23	0	0	2100	1170	3657	4003
24	0	0	2099	1167	3658	4001
25	0	0	2046	1167	3659	4002
26	0	0	1990	1166	3658	4001
27	0	0	1894	1165	3658	4001
28	0	0	1793	1165	3659	4002
29	0	0	1708	1166	3660	4004
30	0	0	1653	1165	3662	4003
31	0	0	1617	1167	3660	4000
32	0	0	1591	1168	3658	4001
33	0	0	1560	1166	3657	4002
34	0	0	1557	1170	3658	4002
35	0	0	1586	1168	3658	4002
36	0	0	1630	1170	3658	4002
37	0	0	1707	1170	3659	4001
38	0	0	1791	1169	3659	4003
39	0	0	1862	1171	3660	4003
40	0	0	1920	1170	3659	4002
41	0	0	1962	1170	3658	4001
42	0	0	2014	1170	3659	4001
43	0	0	2098	1169	3657	4002
44	0	0	2133	1171	3658	4002
45	0	0	2101	1167	3659	4001
46	0	0	2040	1166	3656	3999
47	0	0	1949	1166	3659	4000
48	0	0	1860	1166	3660	4003
49	0	0	1805	1167	3660	4001
50	0	0	1764	1167	3661	4003
51	0	0	1724	1166	3658	4001
52	0	0	1676	1166	3660	4003
53	0	0	1637	1167	3658	4003
54	0	0	1655	1170	3658	4002
55	0	0	1717	1170	3659	4004
56	0	0	1788	1170	3658	4001
57	0	0	1853	1170	3660	4002
58	0	0	1933	1171	3660	4003
59	0	0	2012	1171	3660	4003
60	0	0	2091	1171	3661	4003
61	0	0	2150	1169	3659	4001
62	0	0	2207	1170	3659	4001
63	0	0	2301	1171	3659	4002
64	0	0	2322	1169	3658	4001
65	0	0	2266	1167	3659	4001
66	0	0	2197	1166	3658	4001
67	0	0	2096	1166	3659	4001
68	0	0	1974	1163	3661	4001
69	0	0	1885	1167	3660	4005
70	0	0	1820	1167	3661	4002
71	0	0	1762	1167	3661	4002
72	0	0	1714	1165	3660	4001
73	0	0	1671	1164	3659	4001
74	0	0	1693	1170	3659	4001
75	0	0	1765	1170	3657	4003
76	0	0	1852	1170	3660	4003
77	0	0	1937	1170	3658	4001
78	0	0	2027	1171	3659	4002
79	0	0	2097	1171	3660	4005
80	0	0	2163	1171	3661	4001
81	0	0	2219	1170	3659	4002
82	0	0	2271	1171	3660	4003
83	0	0	2368	1171	3659	4003
84	0	0	2403	1170	3658	4001
85	0	0	2356	1167	3658	4003
86	0	0	2295	1168	3660	4003
87	0	0	2218	1166	3658	4002
88	0	0	2118	1165	3659	4002
89	0	0	2002	1167	3660	4001
90	0	0	1894	1166	3661	4002
91	0	0	1810	1166	3658	4002
92	0	0	1737	1166	3659	4001
93	0	0	1694	1167	3658	4002
94	0	0	1733	1170	3658	4001
95	0	0	1796	1170	3658	4003
96	0	0	1825	1170	3659	4002
97	0	0	1844	1171	3659	4002
98	0	0	1893	1171	3659	4004
99	0	0	1980	1170	3660	4002
100	0	0	2095	1171	3662	4003
101	0	0	2197	1167	3659	4002
102	0	0	2278	1170	3660	4003
103	0	0	2381	1171	3659	3999
104	0	0	2440	1172	3658	4001
105	0	0	2416	1168	3658	4003
106	0	0	2351	1166	3659	4001
107	0	0	2228	1166	3659	4002
108	0	0	2075	1166	3659	4003
109	0	0	1955	1166	3660	4002
110	0	0	1860	1166	3660	4003
111	0	0	1804	1167	3659	4003
112	0	0	1761	1166	3659	4002
113	0	0	1699	1167	3658	4004
114	0	0	1653	1167	3659	4002
115	0	0	1660	1171	3659	4003
116	0	0	1725	1171	3659	4002
117	0	0	1818	1170	3661	4003
118	0	0	1911	1172	3660	4003
119	0	0	2012	1172	3660	4002
120	0	0	2121	1171	3660	4003
121	0	0	2213	1170	3659	4002
122	0	0	2263	1169	3659	4002
123	0	0	2349	1171	3657	4003
124	0	0	2404	1173	3659	4003
125	0	0	2380	1167	3657	4002
126	0	0	2299	1167	3658	4002
127	0	0	2171	1166	3659	4002
0	0	0	2012	1166	3659	4004
1	0	0	1878	1166	3660	4000
2	0	0	1775	1167	3660	4003
3	0	0	1723	1168	3661	4003
4	0	0	1685	1165	3659	4002
5	0	0	1647	1167	3658	4002
6	0	0	1660	1171	3659	4002
7	0	0	1710	1170	3657	4001
8	0	0	1785	1170	3658	4002
9	0	0	1889	1171	3660	3999
10	0	0	1986	1171	3659	4004
11	0	0	2075	1172	3660	4003
12	0	0	2138	1171	3659	4003
13	0	0	2176	1171	3659	4002
14	0	0	2232	1170	3659	4002
15	0	0	2342	1173	3658	4003
16	0	0	2397	1172	3658	4001
17	0	0	2335	1167	3657	4003
18	0	0	2248	1168	3660	4003
19	0	0	2146	1168	3660	4000
20	0	0	2022	1167	3660	4003
21	0	0	1903	1168	3661	4004
22	0	0	1826	1167	3659	4006
23	0	0	1793	1168	3659	4002
24	0	0	1798	1171	3660	3999
25	0	0	1779	1169	3658	4001
26	0	0	1786	1171	3658	4003
27	0	0	1829	1170	3658	4003
28	0	0	1890	1171	3659	4001
29	0	0	1986	1171	3660	4001
30	0	0	2073	1173	3660	4003
31	0	0	2150	1173	3660	4001
32	0	0	2214	1172	3660	4002
33	0	0	2260	1171	3658	4001
34	0	0	2294	1172	3659	4003
35	0	0	2370	1171	3659	4003
36	0	0	2418	1171	3659	4003
37	0	0	2392	1169	3659	4004
38	0	0	2349	1169	3658	4002
39	0	0	2269	1167	3659	4003
40	0	0	2138	1166	3658	4002
41	0	0	2013	1167	3660	4003
42	0	0	1936	1168	3659	4001
43	0	0	1910	1168	3659	4002
44	0	0	1897	1167	3659	4002
45	0	0	1862	1169	3659	4001
46	0	0	1865	1172	3658	4000
47	0	0	1906	1170	3658	4003
48	0	0	1938	1171	3659	4002
49	0	0	1985	1171	3659	4002
50	0	0	2044	1172	3660	3995
51	0	0	2073	1171	3661	3971
52	0	0	2103	1171	3660	3948
53	0	0	2171	1172	3660	3930
54	0	0	2271	1172	3657	3907
55	0	0	2386	1169	3658	3884
56	0	0	2437	1172	3659	3863
57	0	0	2419	1169	3658	3840
58	0	0	2367	1167	3658	3818
59	0	0	2246	1167	3659	3797
60	0	0	2129	1168	3660	3773
61	0	0	2050	1169	3660	3753
62	0	0	1994	1168	3660	3728
63	0	0	1940	1167	3659	3709
64	0	0	1875	1167	3658	3687
65	0	0	1799	1167	3659	3667
66	0	0	1774	1171	3658	3646
67	0	0	1824	1171	3658	3622
68	0	0	1894	1172	3659	3601
69	0	0	1987	1173	3659	3580
70	0	0	2081	1170	3660	3559
71	0	0	2162	1172	3661	3539
72	0	0	2216	1171	3660	3517
73	0	0	2260	1169	3659	3496
74	0	0	2294	1171	3659	3477
75	0	0	2370	1173	3658	3456
76	0	0	2433	1171	3658	3436
77	0	0	2428	1169	3658	3415
78	0	0	2373	1168	3658	3396
79	0	0	2298	1169	3659	3376
80	0	0	2217	1168	3660	3355
81	0	0	2139	1168	3660	3338
82	0	0	2042	1168	3660	3319
83	0	0	1952	1169	3660	3301
84	0	0	1902	1170	3659	3280
85	0	0	1862	1168	3658	3263
86	0	0	1864	1172	3659	3246
87	0	0	1896	1171	3659	3225
88	0	0	1939	1167	3659	3208
89	0	0	1985	1171	3658	3189
90	0	0	2063	1170	3661	3170
91	0	0	2149	1172	3660	3154
92	0	0	2250	1171	3661	3136
93	0	0	2341	1171	3659	3119
94	0	0	2392	1171	3658	3104
95	0	0	2433	1172	3659	3085
96	0	0	2441	1172	3659	3067
97	0	0	2435	1173	3657	3051
98	0	0	2425	1171	3658	3034
99	0	0	2361	1169	3659	3018
100	0	0	2251	1167	3661	3001
101	0	0	2148	1167	3662	2986
102	0	0	2063	1167	3659	2969
103	0	0	1992	1168	3659	2953
104	0	0	1935	1169	3659	2938
105	0	0	1869	1168	3659	2921
106	0	0	1843	1172	3658	2907
107	0	0	1893	1171	3658	2892
108	0	0	1998	1172	3659	2876
109	0	0	2108	1173	3659	2861
110	0	0	2207	1170	3661	2846
111	0	0	2317	1171	3660	2833
112	0	0	2403	1173	3659	2817
113	0	0	2436	1172	3660	2803
114	0	0	2432	1173	3659	2789
115	0	0	2472	1171	3659	2774
116	0	0	2465	1170	3658	2761
117	0	0	2422	1170	3655	2746
118	0	0	2383	1170	3659	2731
119	0	0	2315	1168	3660	2719
120	0	0	2212	1168	3661	2705
121	0	0	2116	1166	3661	2692
122	0	0	2045	1168	3661	2678
123	0	0	1998	1169	3659	2665
124	0	0	1966	1168	3659	2653
125	0	0	1913	1168	3659	2640
126	0	0	1894	1171	3658	2626
127	0	0	1920	1172	3659	2613
0	0	0	1970	1172	3658	2600
1	0	0	2042	1171	3660	2589
2	0	0	2117	1172	3661	2576
3	0	0	2216	1171	3660	2563
4	0	0	2342	1172	3660	2550
5	0	0	2455	1173	3660	2537
6	0	0	2510	1172	3659	2526
7	0	0	2528	1173	3658	2514
8	0	0	2494	1168	3658	2502
9	0	0	2435	1168	3659	2490
10	0	0	2365	1168	3660	2479
11	0	0	2273	1168	3661	2467
12	0	0	2177	1169	3660	2456
13	0	0	2080	1168	3660	2444
14	0	0	1973	1167	3660	2432
15	0	0	1869	1167	3659	2422
16	0	0	1788	1168	3659	2411
17	0	0	1709	1167	3658	2400
18	0	0	1656	1169	3659	2389
19	0	0	1690	1172	3658	2378
20	0	0	1781	1171	3659	2367
