# bioPlux Text File Format
# Version: 1
# StartDateTime: 2011-07-19 12:14:58
# SamplingFrequency: 1000
# SampledChannels: 1 2 3 4
# SamplingResolution: 12
# AcquiringDevice: 00:07:80:42:0F:8B
# EndOfHeader
0	0	0	2116	1317	3715	72
1	0	0	2188	1317	3714	69
2	0	0	2241	1315	3715	73
3	0	0	2268	1317	3712	74
4	0	0	2291	1316	3714	75
5	0	0	2303	1315	3714	76
6	0	0	2275	1312	3717	77
7	0	0	2196	1311	3715	76
8	0	0	2115	1311	3715	73
9	0	0	2054	1314	3714	74
10	0	0	1983	1313	3714	75
11	0	0	1896	1313	3716	74
12	0	0	1827	1313	3714	74
13	0	0	1811	1318	3713	74
14	0	0	1857	1318	3713	74
15	0	0	1887	1319	3713	72
16	0	0	1867	1319	3713	72
17	0	0	1880	1317	3715	72
18	0	0	1920	1319	3715	72
19	0	0	1942	1318	3715	72
20	0	0	1989	1315	3715	70
21	0	0	2067	1317	3714	72
22	0	0	2170	1315	3715	72
23	0	0	2255	1314	3714	74
24	0	0	2277	1314	3714	75
25	0	0	2237	1311	3715	72
26	0	0	2163	1311	3713	72
27	0	0	2066	1309	3715	73
28	0	0	1944	1311	3715	73
29	0	0	1844	1311	3714	78
30	0	0	1792	1314	3715	77
31	0	0	1788	1318	3714	73
32	0	0	1799	1316	3714	74
33	0	0	1787	1316	3714	74
34	0	0	1754	1313	3715	73
35	0	0	1759	1319	3714	74
36	0	0	1779	1319	3715	72
37	0	0	1791	1317	3715	72
38	0	0	1852	1319	3714	71
39	0	0	1939	1315	3715	72
40	0	0	2036	1317	3716	71
41	0	0	2128	1317	3716	75
42	0	0	2194	1316	3715	70
43	0	0	2250	1316	3714	70
44	0	0	2269	1314	3713	73
45	0	0	2242	1312	3714	72
46	0	0	2190	1312	3715	75
47	0	0	2132	1309	3715	75
48	0	0	2060	1311	3714	76
49	0	0	1978	1314	3713	73
50	0	0	1902	1313	3711	75
51	0	0	1826	1312	3715	75
52	0	0	1782	1315	3715	74
53	0	0	1762	1315	3714	74
54	0	0	1735	1318	3713	73
55	0	0	1710	1317	3714	72
56	0	0	1724	1318	3715	74
57	0	0	1786	1316	3715	72
58	0	0	1869	1319	3715	72
59	0	0	1937	1318	3716	71
60	0	0	1992	1318	3713	71
61	0	0	2032	1319	3714	71
62	0	0	2039	1317	3715	70
63	0	0	2065	1315	3712	73
64	0	0	2141	1314	3713	75
65	0	0	2206	1314	3714	74
66	0	0	2214	1314	3714	72
67	0	0	2163	1308	3715	73
68	0	0	2079	1310	3714	73
69	0	0	1983	1311	3715	74
70	0	0	1892	1313	3714	77
71	0	0	1819	1313	3715	74
72	0	0	1762	1312	3715	74
73	0	0	1697	1314	3716	73
74	0	0	1675	1316	3713	74
75	0	0	1710	1317	3714	74
76	0	0	1787	1319	3715	73
77	0	0	1850	1316	3715	72
78	0	0	1902	1317	3715	72
79	0	0	1948	1319	3715	71
80	0	0	2007	1317	3716	75
81	0	0	2090	1317	3713	75
82	0	0	2130	1314	3714	73
83	0	0	2166	1315	3713	71
84	0	0	2199	1314	3713	72
85	0	0	2213	1313	3714	73
86	0	0	2169	1311	3715	73
87	0	0	2095	1312	3717	77
88	0	0	2044	1312	3716	76
89	0	0	1961	1312	3715	77
90	0	0	1874	1312	3715	74
91	0	0	1826	1314	3713	74
92	0	0	1806	1314	3715	74
93	0	0	1763	1314	3713	74
94	0	0	1724	1315	3715	73
95	0	0	1719	1318	3714	72
96	0	0	1748	1318	3712	73
97	0	0	1804	1318	3715	73
98	0	0	1864	1318	3714	72
99	0	0	1881	1317	3714	71
100	0	0	1927	1319	3715	71
101	0	0	1981	1317	3712	72
102	0	0	2051	1314	3715	70
103	0	0	2127	1313	3714	72
104	0	0	2172	1314	3714	75
105	0	0	2184	1315	3715	75
106	0	0	2149	1311	3713	76
107	0	0	2080	1311	3716	72
108	0	0	1997	1310	3715	73
109	0	0	1894	1311	3717	73
110	0	0	1781	1313	3715	76
111	0	0	1703	1312	3712	74
112	0	0	1674	1316	3715	74
113	0	0	1676	1316	3713	74
114	0	0	1657	1317	3713	75
115	0	0	1655	1317	3713	71
116	0	0	1671	1318	3716	72
117	0	0	1710	1318	3714	72
118	0	0	1755	1317	3714	73
119	0	0	1843	1315	3715	72
120	0	0	1920	1316	3715	72
121	0	0	1976	1316	3717	71
122	0	0	2008	1315	3716	69
123	0	0	2006	1315	3716	70
124	0	0	2014	1315	3714	75
125	0	0	2073	1314	3714	72
126	0	0	2123	1314	3715	75
127	0	0	2128	1316	3716	73
0	0	0	2059	1311	3715	73
1	0	0	1957	1309	3715	73
2	0	0	1866	1312	3714	74
3	0	0	1774	1312	3714	74
4	0	0	1706	1312	3715	74
5	0	0	1701	1317	3713	74
6	0	0	1659	1313	3714	73
7	0	0	1635	1318	3714	72
8	0	0	1653	1318	3715	71
9	0	0	1689	1316	3716	72
10	0	0	1764	1318	3715	73
11	0	0	1862	1316	3715	72
12	0	0	1920	1317	3716	76
13	0	0	1933	1316	3715	75
14	0	0	1943	1316	3715	75
15	0	0	1965	1315	3713	74
16	0	0	2010	1313	3713	73
17	0	0	2052	1314	3714	76
18	0	0	2060	1313	3716	73
19	0	0	2029	1310	3715	73
20	0	0	1972	1312	3714	77
21	0	0	1918	1310	3716	76
22	0	0	1848	1312	3714	75
23	0	0	1751	1311	3715	74
24	0	0	1678	1313	3715	73
25	0	0	1624	1313	3714	74
26	0	0	1611	1315	3714	74
27	0	0	1634	1318	3715	79
28	0	0	1662	1317	3717	73
29	0	0	1671	1317	3717	73
30	0	0	1692	1318	3715	72
31	0	0	1760	1320	3715	71
32	0	0	1834	1317	3715	76
33	0	0	1896	1316	3716	74
34	0	0	1946	1315	3714	71
35	0	0	1984	1315	3713	71
36	0	0	2035	1315	3713	74
37	0	0	2061	1315	3714	79
38	0	0	2054	1314	3715	76
39	0	0	2022	1311	3715	76
40	0	0	1991	1312	3715	74
41	0	0	1924	1313	3715	75
42	0	0	1848	1312	3716	79
43	0	0	1779	1312	3718	74
44	0	0	1673	1312	3715	73
45	0	0	1612	1314	3715	74
46	0	0	1612	1317	3714	73
47	0	0	1631	1317	3714	75
48	0	0	1653	1318	3715	72
49	0	0	1680	1318	3715	71
50	0	0	1740	1317	3714	72
51	0	0	1788	1318	3714	71
52	0	0	1842	1317	3716	72
53	0	0	1896	1317	3714	71
54	0	0	1959	1316	3714	74
55	0	0	2053	1313	3713	75
56	0	0	2177	1313	3713	73
57	0	0	2239	1314	3715	69
58	0	0	2237	1314	3715	72
59	0	0	2183	1310	3716	72
60	0	0	2042	1309	3715	73
61	0	0	1891	1311	3716	76
62	0	0	1805	1311	3716	75
63	0	0	1760	1312	3715	74
64	0	0	1713	1313	3714	75
65	0	0	1672	1314	3713	74
66	0	0	1642	1314	3713	74
67	0	0	1611	1316	3713	72
68	0	0	1591	1316	3713	71
69	0	0	1608	1317	3714	72
70	0	0	1677	1317	3714	72
71	0	0	1748	1316	3714	72
72	0	0	1850	1315	3714	71
73	0	0	1987	1316	3715	74
74	0	0	2096	1316	3715	69
75	0	0	2116	1315	3714	73
76	0	0	2146	1313	3713	72
77	0	0	2156	1313	3714	72
78	0	0	2117	1310	3715	75
79	0	0	2027	1310	3715	75
80	0	0	1922	1310	3715	76
81	0	0	1842	1311	3714	73
82	0	0	1788	1311	3714	74
83	0	0	1747	1313	3713	73
84	0	0	1732	1316	3713	74
85	0	0	1702	1313	3713	74
86	0	0	1673	1314	3712	74
87	0	0	1657	1317	3713	74
88	0	0	1662	1317	3715	72
89	0	0	1689	1318	3714	72
90	0	0	1737	1316	3715	72
91	0	0	1798	1317	3714	71
92	0	0	1853	1316	3716	69
93	0	0	1906	1315	3715	70
94	0	0	1948	1315	3716	69
95	0	0	1986	1314	3714	78
96	0	0	2045	1313	3712	75
97	0	0	2119	1315	3714	72
98	0	0	2164	1313	3715	73
99	0	0	2128	1310	3714	73
100	0	0	2032	1310	3714	74
101	0	0	1964	1312	3714	75
102	0	0	1957	1314	3716	77
103	0	0	1946	1315	3715	73
104	0	0	1918	1312	3714	74
105	0	0	1845	1313	3715	74
106	0	0	1718	1315	3714	72
107	0	0	1595	1313	3714	74
108	0	0	1560	1317	3714	71
109	0	0	1595	1317	3716	72
110	0	0	1683	1317	3715	72
111	0	0	1803	1319	3716	71
112	0	0	1926	1316	3718	72
113	0	0	2024	1314	3716	69
114	0	0	2067	1314	3715	70
115	0	0	2099	1314	3713	71
116	0	0	2136	1313	3713	71
117	0	0	2146	1313	3713	72
118	0	0	2156	1313	3715	72
119	0	0	2172	1314	3715	76
120	0	0	2166	1312	3716	73
121	0	0	2072	1311	3715	74
122	0	0	1935	1311	3715	74
123	0	0	1863	1314	3714	72
124	0	0	1840	1312	3715	74
125	0	0	1780	1313	3713	75
126	0	0	1732	1314	3715	73
127	0	0	1696	1314	3715	76
0	0	0	1678	1318	3714	71
1	0	0	1694	1317	3716	73
2	0	0	1724	1317	3715	73
3	0	0	1752	1316	3715	73
4	0	0	1810	1316	3713	71
5	0	0	1889	1316	3715	69
6	0	0	1982	1315	3715	70
7	0	0	2087	1315	3713	71
8	0	0	2146	1314	3713	71
9	0	0	2154	1313	3711	73
10	0	0	2163	1314	3714	70
11	0	0	2087	1310	3715	72
12	0	0	1937	1309	3715	73
13	0	0	1806	1310	3716	73
14	0	0	1716	1312	3716	73
15	0	0	1655	1312	3715	72
16	0	0	1631	1315	3715	74
17	0	0	1610	1313	3714	74
18	0	0	1559	1313	3714	74
19	0	0	1483	1314	3715	74
20	0	0	1470	1318	3713	73
21	0	0	1540	1316	3715	73
22	0	0	1668	1317	3714	73
23	0	0	1808	1316	3714	72
24	0	0	1928	1315	3716	72
25	0	0	2056	1316	3715	72
26	0	0	2188	1315	3715	70
27	0	0	2304	1315	3714	71
28	0	0	2324	1314	3713	71
29	0	0	2227	1308	3714	71
30	0	0	2062	1310	3718	72
31	0	0	1895	1309	3714	73
32	0	0	1774	1309	3715	74
33	0	0	1711	1312	3715	73
34	0	0	1700	1313	3717	74
35	0	0	1711	1315	3716	75
36	0	0	1694	1315	3715	75
37	0	0	1653	1312	3713	74
38	0	0	1599	1313	3713	74
39	0	0	1590	1317	3713	74
40	0	0	1646	1317	3713	73
41	0	0	1718	1316	3715	73
42	0	0	1776	1318	3715	71
43	0	0	1792	1317	3715	71
44	0	0	1839	1316	3715	71
45	0	0	1920	1316	3714	70
46	0	0	1990	1313	3716	71
47	0	0	2045	1313	3714	71
48	0	0	2063	1315	3714	71
49	0	0	2051	1312	3715	72
50	0	0	2082	1313	3716	72
51	0	0	2090	1313	3716	73
52	0	0	2048	1311	3715	73
53	0	0	1985	1310	3715	73
54	0	0	1866	1309	3715	73
55	0	0	1733	1310	3713	74
56	0	0	1618	1311	3712	74
57	0	0	1566	1314	3713	74
58	0	0	1561	1316	3714	73
59	0	0	1547	1315	3715	73
60	0	0	1546	1318	3715	72
61	0	0	1590	1317	3715	72
62	0	0	1680	1317	3715	72
63	0	0	1768	1316	3716	70
64	0	0	1820	1316	3716	72
65	0	0	1857	1316	3715	70
66	0	0	1888	1315	3714	71
67	0	0	1929	1314	3715	71
68	0	0	1966	1314	3714	71
69	0	0	1967	1312	3715	72
70	0	0	1941	1310	3712	73
71	0	0	1903	1310	3714	72
72	0	0	1837	1309	3715	73
73	0	0	1740	1310	3714	74
74	0	0	1646	1310	3713	74
75	0	0	1563	1311	3713	75
76	0	0	1474	1311	3713	74
77	0	0	1406	1313	3715	73
78	0	0	1349	1313	3713	75
79	0	0	1325	1316	3714	73
80	0	0	1352	1317	3715	72
81	0	0	1386	1316	3714	72
82	0	0	1424	1316	3715	73
83	0	0	1491	1318	3715	71
84	0	0	1572	1316	3713	72
85	0	0	1650	1315	3715	70
86	0	0	1730	1314	3715	71
87	0	0	1841	1313	3714	71
88	0	0	1937	1313	3714	70
89	0	0	1939	1310	3715	70
90	0	0	1870	1310	3714	71
91	0	0	1812	1309	3711	75
92	0	0	1737	1309	3714	73
93	0	0	1641	1310	3714	74
94	0	0	1553	1310	3714	73
95	0	0	1486	1311	3714	75
96	0	0	1436	1311	3713	73
97	0	0	1396	1312	3713	75
98	0	0	1369	1314	3714	73
99	0	0	1376	1316	3713	74
100	0	0	1428	1316	3713	75
101	0	0	1461	1316	3714	71
102	0	0	1463	1316	3712	72
103	0	0	1482	1316	3715	72
104	0	0	1524	1315	3712	73
105	0	0	1596	1316	3714	71
106	0	0	1681	1314	3712	70
107	0	0	1759	1313	3713	68
108	0	0	1805	1313	3713	71
109	0	0	1796	1310	3712	73
110	0	0	1762	1309	3712	73
111	0	0	1681	1308	3711	72
112	0	0	1591	1307	3715	73
113	0	0	1532	1310	3715	74
114	0	0	1492	1310	3712	75
115	0	0	1434	1310	3715	73
116	0	0	1348	1311	3711	75
117	0	0	1291	1311	3718	74
118	0	0	1260	1313	3714	74
119	0	0	1237	1313	3712	75
120	0	0	1220	1314	3715	71
121	0	0	1234	1318	3715	71
122	0	0	1272	1316	3714	73
123	0	0	1317	1316	3716	72
124	0	0	1426	1316	3714	72
125	0	0	1573	1315	3715	71
126	0	0	1666	1314	3715	70
127	0	0	1712	1313	3713	71
0	0	0	1721	1313	3715	71
1	0	0	1730	1312	3713	71
2	0	0	1738	1313	3715	71
3	0	0	1716	1309	3716	72
4	0	0	1641	1308	3715	73
5	0	0	1525	1307	3718	74
6	0	0	1437	1310	3716	73
7	0	0	1367	1310	3715	74
8	0	0	1326	1312	3714	75
9	0	0	1331	1315	3713	75
10	0	0	1321	1313	3713	74
11	0	0	1278	1312	3711	75
12	0	0	1264	1317	3714	72
13	0	0	1313	1316	3711	74
14	0	0	1384	1315	3714	72
15	0	0	1480	1315	3714	72
16	0	0	1581	1314	3712	73
17	0	0	1656	1314	3714	69
18	0	0	1696	1312	3715	69
19	0	0	1746	1313	3715	70
20	0	0	1798	1313	3715	73
21	0	0	1820	1312	3715	72
22	0	0	1805	1309	3714	72
23	0	0	1724	1306	3710	72
24	0	0	1654	1309	3715	73
25	0	0	1622	1309	3716	73
26	0	0	1546	1308	3712	75
27	0	0	1419	1309	3715	72
28	0	0	1330	1312	3714	75
29	0	0	1302	1313	3712	74
30	0	0	1332	1315	3713	74
31	0	0	1362	1315	3714	73
32	0	0	1379	1315	3713	72
33	0	0	1428	1315	3711	74
34	0	0	1499	1315	3715	72
35	0	0	1576	1314	3717	72
36	0	0	1608	1315	3716	72
37	0	0	1646	1315	3715	69
38	0	0	1720	1313	3716	70
39	0	0	1782	1312	3714	74
40	0	0	1831	1311	3714	72
41	0	0	1889	1312	3716	71
42	0	0	1920	1312	3715	72
43	0	0	1929	1311	3715	71
44	0	0	1863	1307	3713	73
45	0	0	1742	1307	3714	73
46	0	0	1650	1309	3714	75
47	0	0	1619	1312	3714	73
48	0	0	1623	1314	3715	74
49	0	0	1645	1315	3712	75
50	0	0	1709	1315	3715	73
51	0	0	1795	1316	3715	73
52	0	0	1862	1315	3715	72
53	0	0	1907	1316	3716	72
54	0	0	1973	1315	3715	76
55	0	0	2064	1315	3715	71
56	0	0	2165	1314	3715	71
57	0	0	2246	1313	3715	70
58	0	0	2327	1313	3714	70
59	0	0	2471	1311	3713	71
60	0	0	2676	1311	3713	71
61	0	0	2804	1313	3714	73
62	0	0	2820	1310	3713	72
63	0	0	2796	1311	3715	72
64	0	0	2755	1310	3714	73
65	0	0	2706	1308	3714	74
66	0	0	2620	1309	3715	73
67	0	0	2504	1310	3716	73
68	0	0	2402	1310	3713	73
69	0	0	2324	1311	3714	73
70	0	0	2261	1311	3716	73
71	0	0	2218	1311	3714	74
72	0	0	2182	1312	3716	73
73	0	0	2144	1311	3715	72
74	0	0	2103	1312	3716	71
75	0	0	2083	1313	3715	72
76	0	0	2078	1314	3714	72
77	0	0	2048	1310	3715	72
78	0	0	1988	1309	3713	69
79	0	0	1924	1308	3713	71
80	0	0	1884	1307	3714	71
81	0	0	1830	1307	3714	69
82	0	0	1749	1307	3714	76
83	0	0	1657	1306	3715	72
84	0	0	1560	1306	3715	74
85	0	0	1470	1307	3715	73
86	0	0	1402	1308	3716	72
87	0	0	1360	1310	3716	76
88	0	0	1340	1311	3713	74
89	0	0	1330	1311	3715	73
90	0	0	1272	1310	3714	74
91	0	0	1198	1311	3714	73
92	0	0	1168	1313	3715	76
93	0	0	1192	1314	3714	71
94	0	0	1222	1314	3714	72
95	0	0	1259	1314	3714	72
96	0	0	1339	1314	3715	69
97	0	0	1456	1312	3714	70
98	0	0	1574	1312	3713	70
99	0	0	1648	1311	3713	71
100	0	0	1663	1310	3713	71
101	0	0	1678	1311	3715	71
102	0	0	1691	1311	3715	75
103	0	0	1666	1308	3716	73
104	0	0	1630	1307	3717	72
105	0	0	1575	1308	3717	73
106	0	0	1496	1309	3716	73
107	0	0	1409	1309	3716	73
108	0	0	1330	1309	3714	74
109	0	0	1288	1311	3715	74
110	0	0	1274	1312	3714	74
111	0	0	1291	1315	3715	74
112	0	0	1309	1315	3714	75
113	0	0	1340	1315	3713	72
114	0	0	1382	1315	3715	74
115	0	0	1447	1313	3716	72
116	0	0	1549	1315	3715	70
117	0	0	1634	1313	3716	72
118	0	0	1700	1311	3713	69
119	0	0	1763	1311	3713	71
120	0	0	1841	1310	3715	70
121	0	0	1875	1311	3715	68
122	0	0	1863	1308	3715	74
123	0	0	1806	1306	3715	73
124	0	0	1718	1306	3715	74
125	0	0	1641	1308	3716	73
126	0	0	1600	1309	3715	73
127	0	0	1541	1309	3715	78
0	0	0	1449	1309	3715	74
1	0	0	1358	1311	3713	74
2	0	0	1332	1314	3713	71
3	0	0	1390	1316	3714	74
4	0	0	1516	1315	3714	72
5	0	0	1596	1314	3714	71
6	0	0	1594	1314	3715	72
7	0	0	1589	1313	3715	72
8	0	0	1596	1314	3716	71
9	0	0	1583	1311	3716	70
10	0	0	1581	1311	3714	69
11	0	0	1616	1311	3714	71
12	0	0	1663	1310	3713	71
13	0	0	1731	1311	3714	70
14	0	0	1780	1311	3713	74
15	0	0	1769	1308	3715	72
16	0	0	1725	1309	3714	73
17	0	0	1678	1308	3714	71
18	0	0	1625	1307	3714	74
19	0	0	1529	1309	3715	73
20	0	0	1433	1310	3713	74
21	0	0	1407	1313	3713	73
22	0	0	1413	1314	3713	74
23	0	0	1408	1315	3714	72
24	0	0	1435	1315	3715	75
25	0	0	1470	1314	3716	72
26	0	0	1495	1314	3716	72
27	0	0	1545	1312	3713	72
28	0	0	1612	1314	3716	71
29	0	0	1697	1313	3718	71
30	0	0	1790	1313	3716	70
31	0	0	1865	1311	3713	68
32	0	0	1891	1309	3713	72
33	0	0	1814	1306	3713	71
34	0	0	1703	1307	3714	73
35	0	0	1631	1307	3715	72
36	0	0	1585	1307	3714	73
37	0	0	1555	1309	3714	74
38	0	0	1526	1310	3715	74
39	0	0	1500	1310	3714	73
40	0	0	1463	1310	3716	73
41	0	0	1401	1309	3711	75
42	0	0	1341	1311	3714	74
43	0	0	1336	1313	3714	74
44	0	0	1350	1314	3715	75
45	0	0	1378	1315	3714	72
46	0	0	1437	1314	3715	71
47	0	0	1521	1314	3715	72
48	0	0	1620	1314	3715	72
49	0	0	1722	1314	3715	69
50	0	0	1806	1311	3715	70
51	0	0	1870	1310	3713	71
52	0	0	1909	1312	3713	71
53	0	0	1868	1306	3713	72
54	0	0	1814	1306	3714	71
55	0	0	1784	1307	3713	71
56	0	0	1739	1307	3715	73
57	0	0	1670	1307	3715	74
58	0	0	1576	1307	3715	72
59	0	0	1456	1308	3715	73
60	0	0	1380	1309	3716	75
61	0	0	1369	1311	3713	74
62	0	0	1350	1312	3714	74
63	0	0	1326	1309	3715	73
64	0	0	1326	1314	3715	73
65	0	0	1372	1314	3716	72
66	0	0	1467	1314	3716	72
67	0	0	1566	1313	3714	72
68	0	0	1644	1312	3715	72
69	0	0	1693	1313	3715	70
70	0	0	1737	1311	3715	68
71	0	0	1800	1311	3714	69
72	0	0	1868	1310	3711	73
73	0	0	1886	1306	3715	71
74	0	0	1855	1307	3715	72
75	0	0	1796	1306	3716	72
76	0	0	1710	1306	3715	73
77	0	0	1601	1306	3713	75
78	0	0	1500	1306	3715	75
79	0	0	1445	1308	3716	76
80	0	0	1425	1310	3715	75
81	0	0	1412	1309	3714	74
82	0	0	1376	1310	3714	74
83	0	0	1362	1313	3715	72
84	0	0	1383	1314	3714	72
85	0	0	1451	1314	3715	73
86	0	0	1515	1313	3714	75
87	0	0	1566	1312	3714	74
88	0	0	1616	1315	3713	72
89	0	0	1680	1312	3715	72
90	0	0	1758	1311	3715	69
91	0	0	1811	1310	3714	70
92	0	0	1842	1309	3712	73
93	0	0	1860	1309	3715	70
94	0	0	1836	1307	3716	70
95	0	0	1789	1305	3715	72
96	0	0	1687	1308	3714	73
97	0	0	1586	1307	3712	75
98	0	0	1510	1305	3715	73
99	0	0	1442	1308	3715	70
100	0	0	1419	1310	3713	73
101	0	0	1403	1310	3713	75
102	0	0	1341	1309	3713	73
103	0	0	1319	1311	3714	72
104	0	0	1333	1314	3714	74
105	0	0	1374	1313	3715	72
106	0	0	1425	1313	3714	73
107	0	0	1492	1313	3714	72
108	0	0	1581	1308	3715	71
109	0	0	1656	1312	3716	71
110	0	0	1731	1311	3715	69
111	0	0	1784	1311	3714	71
112	0	0	1794	1309	3714	71
113	0	0	1763	1307	3715	72
114	0	0	1741	1307	3715	74
115	0	0	1706	1305	3715	73
116	0	0	1662	1306	3714	74
117	0	0	1630	1307	3711	75
118	0	0	1589	1307	3715	74
119	0	0	1544	1308	3715	76
120	0	0	1454	1308	3715	74
121	0	0	1342	1306	3713	73
122	0	0	1283	1308	3714	76
123	0	0	1253	1307	3715	72
124	0	0	1233	1311	3714	72
125	0	0	1244	1312	3715	72
126	0	0	1288	1311	3715	72
127	0	0	1337	1312	3711	73
0	0	0	1355	1310	3715	72
1	0	0	1419	1313	3715	69
2	0	0	1544	1310	3714	70
3	0	0	1672	1311	3713	71
4	0	0	1766	1309	3711	73
5	0	0	1799	1305	3714	71
6	0	0	1767	1305	3714	71
7	0	0	1675	1305	3713	72
8	0	0	1560	1305	3715	73
9	0	0	1508	1307	3713	74
10	0	0	1497	1306	3713	74
11	0	0	1468	1307	3715	75
12	0	0	1401	1307	3714	74
13	0	0	1300	1309	3713	73
14	0	0	1231	1308	3715	72
15	0	0	1197	1311	3715	73
16	0	0	1214	1313	3715	73
17	0	0	1222	1312	3716	72
18	0	0	1235	1312	3715	73
19	0	0	1275	1311	3716	75
20	0	0	1346	1312	3715	72
21	0	0	1446	1311	3716	71
22	0	0	1533	1307	3715	72
23	0	0	1583	1309	3714	71
24	0	0	1640	1308	3714	68
25	0	0	1687	1311	3714	70
26	0	0	1667	1305	3714	72
27	0	0	1606	1304	3714	73
28	0	0	1549	1306	3714	73
29	0	0	1473	1304	3715	72
30	0	0	1409	1306	3715	73
31	0	0	1360	1306	3716	76
32	0	0	1310	1306	3714	75
33	0	0	1281	1309	3714	74
34	0	0	1271	1309	3715	72
35	0	0	1247	1311	3715	73
36	0	0	1250	1313	3714	72
37	0	0	1320	1311	3714	74
38	0	0	1404	1312	3714	71
39	0	0	1455	1311	3715	69
40	0	0	1516	1311	3715	71
41	0	0	1583	1311	3715	71
42	0	0	1630	1309	3713	70
43	0	0	1677	1309	3714	71
44	0	0	1743	1305	3715	72
45	0	0	1783	1307	3712	73
46	0	0	1797	1309	3714	73
47	0	0	1748	1303	3715	74
48	0	0	1650	1305	3715	73
49	0	0	1591	1305	3717	72
50	0	0	1533	1305	3717	72
51	0	0	1442	1304	3716	74
52	0	0	1350	1306	3715	75
53	0	0	1305	1307	3713	74
54	0	0	1319	1311	3711	73
55	0	0	1344	1311	3713	71
56	0	0	1357	1312	3715	73
57	0	0	1402	1311	3714	74
58	0	0	1490	1310	3714	72
59	0	0	1587	1310	3715	69
60	0	0	1659	1312	3715	71
61	0	0	1724	1310	3715	70
62	0	0	1763	1308	3714	71
63	0	0	1775	1307	3714	71
64	0	0	1812	1307	3714	70
65	0	0	1831	1307	3714	72
66	0	0	1830	1307	3715	76
67	0	0	1796	1303	3715	75
68	0	0	1712	1302	3714	73
69	0	0	1587	1303	3715	72
70	0	0	1493	1304	3715	78
71	0	0	1453	1305	3715	74
72	0	0	1399	1306	3715	74
73	0	0	1354	1306	3713	74
74	0	0	1335	1308	3713	73
75	0	0	1358	1310	3712	75
76	0	0	1408	1311	3714	76
77	0	0	1447	1311	3714	75
78	0	0	1519	1312	3714	72
79	0	0	1621	1309	3715	72
80	0	0	1708	1309	3715	72
81	0	0	1786	1309	3716	70
82	0	0	1827	1307	3715	73
83	0	0	1854	1306	3714	71
84	0	0	1881	1306	3714	72
85	0	0	1883	1307	3714	72
86	0	0	1856	1303	3715	75
87	0	0	1784	1302	3715	72
88	0	0	1692	1302	3714	73
89	0	0	1618	1303	3714	71
90	0	0	1538	1302	3712	75
91	0	0	1457	1304	3714	75
92	0	0	1411	1305	3714	77
93	0	0	1387	1305	3713	74
94	0	0	1360	1308	3713	73
95	0	0	1337	1306	3712	74
96	0	0	1361	1310	3715	75
97	0	0	1423	1310	3715	74
98	0	0	1507	1309	3715	73
99	0	0	1621	1309	3715	71
100	0	0	1733	1306	3715	71
101	0	0	1807	1308	3716	71
102	0	0	1811	1305	3711	72
103	0	0	1802	1308	3715	70
104	0	0	1822	1304	3714	71
105	0	0	1829	1304	3714	71
106	0	0	1797	1302	3714	71
107	0	0	1739	1301	3714	74
108	0	0	1684	1302	3714	73
109	0	0	1640	1302	3714	74
110	0	0	1564	1304	3716	76
111	0	0	1464	1303	3717	73
112	0	0	1346	1304	3715	74
113	0	0	1237	1304	3713	74
114	0	0	1154	1305	3714	74
115	0	0	1154	1308	3716	78
116	0	0	1208	1310	3715	75
117	0	0	1304	1309	3715	77
118	0	0	1423	1309	3714	72
119	0	0	1541	1311	3715	72
120	0	0	1638	1309	3716	74
121	0	0	1728	1307	3715	71
122	0	0	1783	1306	3713	71
123	0	0	1820	1306	3713	71
124	0	0	1841	1305	3713	71
125	0	0	1835	1304	3714	74
126	0	0	1835	1302	3714	73
127	0	0	1802	1301	3714	73
0	0	0	1733	1301	3715	74
1	0	0	1651	1303	3715	74
2	0	0	1572	1302	3716	78
3	0	0	1476	1303	3716	75
4	0	0	1376	1304	3714	74
5	0	0	1259	1303	3715	74
6	0	0	1201	1307	3714	74
7	0	0	1256	1308	3715	77
8	0	0	1331	1305	3715	73
9	0	0	1384	1309	3715	72
10	0	0	1429	1308	3714	72
11	0	0	1444	1308	3715	69
12	0	0	1477	1308	3716	73
13	0	0	1540	1306	3715	72
14	0	0	1608	1307	3715	69
15	0	0	1683	1306	3712	71
16	0	0	1756	1305	3714	69
17	0	0	1813	1305	3715	71
18	0	0	1846	1305	3715	72
19	0	0	1818	1301	3716	71
20	0	0	1727	1301	3715	74
21	0	0	1620	1301	3716	72
22	0	0	1516	1302	3716	73
23	0	0	1425	1299	3715	73
24	0	0	1331	1304	3714	73
25	0	0	1248	1304	3713	74
26	0	0	1212	1306	3713	74
27	0	0	1231	1308	3714	73
28	0	0	1268	1307	3715	72
29	0	0	1299	1308	3714	71
30	0	0	1333	1310	3714	72
31	0	0	1379	1308	3714	72
32	0	0	1443	1305	3715	71
33	0	0	1514	1306	3715	72
34	0	0	1604	1306	3714	69
35	0	0	1650	1305	3715	70
36	0	0	1674	1305	3714	71
37	0	0	1717	1305	3714	72
38	0	0	1740	1304	3716	71
39	0	0	1701	1300	3714	75
40	0	0	1636	1299	3715	73
41	0	0	1578	1301	3715	71
42	0	0	1497	1299	3715	75
43	0	0	1382	1301	3715	73
44	0	0	1295	1303	3711	76
45	0	0	1278	1307	3713	74
46	0	0	1351	1307	3713	71
47	0	0	1449	1307	3715	77
48	0	0	1471	1307	3714	74
49	0	0	1495	1307	3714	72
50	0	0	1549	1307	3715	73
51	0	0	1569	1307	3715	70
52	0	0	1573	1307	3716	71
53	0	0	1599	1305	3716	71
54	0	0	1648	1305	3715	69
55	0	0	1689	1304	3714	72
56	0	0	1727	1304	3714	73
57	0	0	1792	1303	3715	70
58	0	0	1841	1302	3715	72
59	0	0	1839	1300	3714	72
60	0	0	1765	1299	3714	73
61	0	0	1625	1299	3714	71
62	0	0	1492	1299	3715	73
63	0	0	1433	1302	3715	76
64	0	0	1399	1303	3713	73
65	0	0	1369	1303	3713	73
66	0	0	1338	1304	3714	72
67	0	0	1347	1309	3714	72
68	0	0	1375	1308	3715	74
69	0	0	1385	1308	3716	71
70	0	0	1415	1307	3715	73
71	0	0	1485	1306	3715	73
72	0	0	1563	1306	3716	72
73	0	0	1629	1304	3716	74
74	0	0	1734	1305	3714	68
75	0	0	1848	1303	3713	71
76	0	0	1929	1302	3713	71
77	0	0	1946	1303	3714	70
78	0	0	1951	1302	3715	71
79	0	0	1949	1304	3712	72
80	0	0	1913	1299	3714	73
81	0	0	1821	1300	3714	74
82	0	0	1735	1301	3715	74
83	0	0	1675	1301	3715	74
84	0	0	1631	1302	3714	74
85	0	0	1601	1304	3715	74
86	0	0	1568	1304	3712	75
87	0	0	1570	1303	3715	73
88	0	0	1618	1308	3715	73
89	0	0	1695	1307	3716	72
90	0	0	1734	1306	3715	72
91	0	0	1770	1307	3715	71
92	0	0	1831	1306	3715	72
93	0	0	1886	1306	3715	71
94	0	0	1925	1305	3713	69
95	0	0	1966	1303	3713	71
96	0	0	2001	1303	3713	70
97	0	0	2000	1303	3713	72
98	0	0	1993	1303	3715	71
99	0	0	1983	1302	3715	73
100	0	0	1955	1299	3714	73
101	0	0	1917	1300	3715	72
102	0	0	1857	1300	3716	74
103	0	0	1793	1300	3715	74
104	0	0	1716	1300	3714	74
105	0	0	1622	1302	3714	75
106	0	0	1584	1303	3714	74
107	0	0	1600	1307	3714	74
108	0	0	1641	1306	3715	74
109	0	0	1729	1306	3713	73
110	0	0	1818	1305	3714	72
111	0	0	1858	1304	3714	72
112	0	0	1892	1303	3715	72
113	0	0	1946	1306	3714	72
114	0	0	1996	1304	3714	70
115	0	0	2017	1303	3714	70
116	0	0	2043	1305	3713	68
117	0	0	2036	1298	3714	73
118	0	0	1991	1299	3715	69
119	0	0	1948	1299	3715	72
120	0	0	1936	1304	3716	71
121	0	0	1914	1300	3715	72
122	0	0	1856	1299	3715	74
123	0	0	1802	1302	3715	73
124	0	0	1761	1301	3714	75
125	0	0	1728	1302	3713	74
126	0	0	1709	1304	3713	72
127	0	0	1703	1305	3713	74
0	0	0	1703	1306	3714	71
1	0	0	1725	1306	3712	76
2	0	0	1758	1306	3713	71
3	0	0	1802	1306	3714	72
4	0	0	1865	1306	3716	71
5	0	0	1976	1305	3713	70
6	0	0	2079	1304	3715	70
7	0	0	2134	1303	3714	70
8	0	0	2163	1302	3714	72
9	0	0	2127	1300	3714	71
10	0	0	2097	1302	3716	73
11	0	0	2086	1299	3715	74
12	0	0	2035	1297	3715	73
13	0	0	1934	1299	3715	74
14	0	0	1812	1299	3715	75
15	0	0	1704	1302	3715	74
16	0	0	1661	1303	3713	71
17	0	0	1660	1305	3713	74
18	0	0	1643	1301	3713	74
19	0	0	1631	1308	3713	50
20	0	0	1672	1307	3714	72
21	0	0	1744	1306	3714	71
22	0	0	1832	1308	3716	71
23	0	0	1879	1303	3713	72
24	0	0	1916	1305	3716	74
25	0	0	1964	1305	3715	71
26	0	0	2006	1303	3715	71
27	0	0	2075	1303	3714	71
28	0	0	2150	1302	3714	72
29	0	0	2158	1301	3714	73
30	0	0	2115	1299	3715	72
31	0	0	2064	1298	3715	71
32	0	0	2001	1298	3714	73
33	0	0	1943	1297	3714	74
34	0	0	1883	1298	3714	74
35	0	0	1856	1302	3714	75
36	0	0	1836	1302	3715	74
37	0	0	1791	1303	3713	74
38	0	0	1729	1302	3715	74
39	0	0	1714	1307	3714	73
40	0	0	1759	1305	3715	73
41	0	0	1810	1306	3716	71
42	0	0	1870	1305	3715	72
43	0	0	1952	1303	3715	72
44	0	0	2005	1307	3715	72
45	0	0	2041	1305	3716	69
46	0	0	2091	1303	3715	63
47	0	0	2117	1302	3715	72
48	0	0	2124	1302	3716	72
49	0	0	2119	1303	3713	72
50	0	0	2105	1301	3714	71
51	0	0	2074	1298	3714	69
52	0	0	2021	1300	3713	73
53	0	0	1961	1299	3716	73
54	0	0	1915	1300	3714	73
55	0	0	1870	1301	3715	73
56	0	0	1832	1301	3715	71
57	0	0	1817	1303	3714	74
58	0	0	1792	1302	3714	74
59	0	0	1770	1304	3714	74
60	0	0	1780	1306	3715	72
61	0	0	1831	1307	3715	72
62	0	0	1905	1305	3715	72
63	0	0	1957	1305	3715	72
64	0	0	2017	1302	3715	73
65	0	0	2053	1304	3714	71
66	0	0	2089	1303	3713	67
67	0	0	2163	1302	3713	71
68	0	0	2211	1301	3713	71
69	0	0	2245	1300	3713	71
70	0	0	2236	1300	3714	72
71	0	0	2182	1296	3714	68
72	0	0	2079	1298	3715	73
73	0	0	1996	1299	3715	74
74	0	0	1959	1299	3715	75
75	0	0	1923	1300	3716	74
76	0	0	1880	1301	3714	72
77	0	0	1837	1301	3714	75
78	0	0	1812	1304	3714	74
79	0	0	1806	1304	3714	73
80	0	0	1778	1303	3715	73
81	0	0	1784	1306	3714	71
82	0	0	1830	1305	3715	72
83	0	0	1918	1306	3715	71
84	0	0	2002	1306	3714	71
85	0	0	2058	1305	3715	71
86	0	0	2109	1303	3714	68
87	0	0	2205	1302	3714	70
88	0	0	2316	1303	3713	71
89	0	0	2362	1302	3712	72
90	0	0	2339	1298	3715	72
91	0	0	2265	1298	3716	72
92	0	0	2175	1296	3715	73
93	0	0	2079	1299	3717	73
94	0	0	1996	1299	3715	72
95	0	0	1946	1298	3715	74
96	0	0	1923	1301	3714	72
97	0	0	1883	1301	3713	74
98	0	0	1838	1302	3712	74
99	0	0	1835	1305	3712	73
100	0	0	1852	1306	3714	71
101	0	0	1883	1305	3714	72
102	0	0	1940	1305	3714	72
103	0	0	2014	1303	3715	71
104	0	0	2082	1304	3715	71
105	0	0	2110	1304	3715	72
106	0	0	2155	1304	3715	70
107	0	0	2237	1301	3713	72
108	0	0	2295	1302	3713	71
109	0	0	2291	1301	3713	72
110	0	0	2249	1297	3715	72
111	0	0	2203	1298	3715	72
112	0	0	2153	1298	3716	73
113	0	0	2092	1298	3714	74
114	0	0	2016	1299	3713	72
115	0	0	1933	1298	3713	73
116	0	0	1861	1299	3713	74
117	0	0	1806	1301	3712	73
118	0	0	1782	1305	3713	72
119	0	0	1807	1306	3714	74
120	0	0	1881	1304	3714	72
121	0	0	1970	1305	3714	72
122	0	0	2020	1305	3714	73
123	0	0	2044	1304	3712	73
124	0	0	2056	1305	3714	72
125	0	0	2076	1303	3716	69
126	0	0	2100	1302	3715	71
127	0	0	2141	1302	3714	71
0	0	0	2191	1302	3712	74
1	0	0	2209	1303	3714	72
2	0	0	2218	1301	3715	72
3	0	0	2186	1297	3714	72
4	0	0	2112	1297	3715	73
5	0	0	2029	1298	3713	72
6	0	0	1968	1299	3713	72
7	0	0	1915	1298	3715	73
8	0	0	1885	1301	3715	74
9	0	0	1837	1300	3711	75
10	0	0	1794	1300	3713	71
11	0	0	1780	1303	3714	74
12	0	0	1767	1303	3715	73
13	0	0	1765	1305	3715	72
14	0	0	1784	1303	3714	72
15	0	0	1837	1305	3716	71
16	0	0	1923	1304	3715	72
17	0	0	1980	1303	3717	71
18	0	0	2010	1302	3714	70
19	0	0	2074	1301	3714	71
20	0	0	2182	1299	3715	71
21	0	0	2220	1299	3714	72
22	0	0	2197	1300	3714	73
23	0	0	2163	1297	3715	73
24	0	0	2087	1297	3711	75
25	0	0	1972	1297	3715	72
26	0	0	1901	1299	3714	74
27	0	0	1868	1299	3715	74
28	0	0	1858	1301	3714	75
29	0	0	1805	1298	3713	75
30	0	0	1715	1300	3712	75
31	0	0	1704	1305	3713	72
32	0	0	1761	1307	3716	72
33	0	0	1822	1305	3715	72
34	0	0	1888	1303	3716	72
35	0	0	1949	1304	3715	69
36	0	0	1997	1304	3715	72
37	0	0	2041	1303	3715	70
38	0	0	2082	1302	3713	70
39	0	0	2132	1301	3714	70
40	0	0	2186	1303	3713	70
41	0	0	2225	1301	3712	72
42	0	0	2249	1303	3715	72
43	0	0	2215	1296	3713	73
44	0	0	2108	1295	3716	72
45	0	0	1972	1297	3715	74
46	0	0	1862	1299	3717	74
47	0	0	1804	1300	3715	75
48	0	0	1779	1300	3715	75
49	0	0	1759	1298	3715	74
50	0	0	1734	1301	3715	71
51	0	0	1736	1305	3715	73
52	0	0	1732	1303	3715	72
53	0	0	1747	1305	3715	72
54	0	0	1791	1305	3714	72
55	0	0	1820	1304	3714	72
56	0	0	1884	1304	3715	71
57	0	0	2004	1305	3715	71
58	0	0	2129	1303	3713	70
59	0	0	2206	1299	3713	70
60	0	0	2236	1301	3714	69
61	0	0	2176	1296	3715	72
62	0	0	2087	1298	3715	71
63	0	0	2022	1296	3715	73
64	0	0	1971	1295	3715	73
65	0	0	1909	1297	3716	73
66	0	0	1828	1297	3717	74
67	0	0	1751	1299	3716	74
68	0	0	1697	1300	3714	74
69	0	0	1695	1302	3714	73
70	0	0	1732	1304	3715	74
71	0	0	1760	1303	3715	74
72	0	0	1770	1304	3715	72
73	0	0	1760	1303	3714	73
74	0	0	1790	1303	3714	73
75	0	0	1894	1304	3714	72
76	0	0	1982	1302	3715	71
77	0	0	2010	1301	3714	72
78	0	0	2024	1302	3714	71
79	0	0	2090	1300	3714	72
80	0	0	2192	1300	3714	73
81	0	0	2272	1300	3715	71
82	0	0	2312	1302	3716	72
83	0	0	2265	1295	3715	73
84	0	0	2119	1293	3715	73
85	0	0	1969	1298	3714	73
86	0	0	1884	1299	3715	74
87	0	0	1851	1299	3715	74
88	0	0	1816	1298	3713	74
89	0	0	1788	1299	3713	74
90	0	0	1776	1302	3713	75
91	0	0	1754	1300	3714	74
92	0	0	1745	1305	3714	71
93	0	0	1767	1303	3713	74
94	0	0	1800	1304	3714	72
95	0	0	1854	1304	3715	73
96	0	0	1941	1304	3715	71
97	0	0	2016	1301	3714	71
98	0	0	2076	1301	3715	71
99	0	0	2114	1300	3714	71
100	0	0	2127	1300	3714	71
101	0	0	2139	1300	3717	71
102	0	0	2152	1303	3715	72
103	0	0	2132	1297	3715	73
104	0	0	2080	1296	3715	74
105	0	0	2032	1298	3714	72
106	0	0	1980	1297	3716	77
107	0	0	1944	1298	3714	73
108	0	0	1915	1298	3714	75
109	0	0	1856	1295	3713	74
110	0	0	1796	1299	3713	74
111	0	0	1756	1300	3716	74
112	0	0	1744	1304	3715	73
113	0	0	1794	1303	3715	73
114	0	0	1852	1304	3714	72
115	0	0	1888	1304	3715	73
116	0	0	1913	1302	3716	71
117	0	0	1968	1302	3715	71
118	0	0	2036	1301	3714	70
119	0	0	2106	1300	3713	70
120	0	0	2183	1302	3713	71
121	0	0	2194	1300	3713	71
122	0	0	2157	1296	3714	73
123	0	0	2108	1296	3715	74
124	0	0	2049	1296	3714	74
125	0	0	2011	1296	3715	73
126	0	0	1955	1297	3715	73
127	0	0	1906	1298	3715	76
0	0	0	1881	1300	3714	75
1	0	0	1874	1300	3714	75
2	0	0	1846	1301	3713	73
3	0	0	1822	1303	3714	75
4	0	0	1822	1304	3715	75
5	0	0	1818	1304	3715	75
6	0	0	1844	1303	3715	76
7	0	0	1917	1302	3715	72
8	0	0	1980	1303	3714	70
9	0	0	2025	1301	3713	71
10	0	0	2071	1301	3713	71
11	0	0	2107	1300	3713	71
12	0	0	2153	1301	3713	71
13	0	0	2203	1300	3713	69
14	0	0	2189	1296	3714	72
15	0	0	2142	1295	3714	74
16	0	0	2084	1295	3715	74
17	0	0	1953	1295	3715	74
18	0	0	1802	1298	3715	71
19	0	0	1730	1298	3716	74
20	0	0	1732	1301	3715	79
21	0	0	1763	1302	3715	79
22	0	0	1764	1303	3714	77
23	0	0	1780	1303	3713	71
24	0	0	1813	1304	3714	73
25	0	0	1856	1304	3715	72
26	0	0	1887	1304	3714	73
27	0	0	1921	1302	3715	74
28	0	0	1970	1303	3716	74
29	0	0	2012	1301	3714	71
30	0	0	2074	1302	3715	70
31	0	0	2142	1301	3714	71
32	0	0	2193	1299	3714	70
33	0	0	2173	1297	3715	71
34	0	0	2142	1298	3715	73
35	0	0	2142	1299	3716	74
36	0	0	2118	1296	3716	74
37	0	0	2088	1298	3715	74
38	0	0	2058	1296	3716	74
39	0	0	2006	1297	3715	77
40	0	0	1983	1300	3715	74
41	0	0	1945	1298	3715	73
42	0	0	1848	1299	3714	76
43	0	0	1766	1298	3713	73
44	0	0	1751	1303	3714	76
45	0	0	1788	1303	3714	76
46	0	0	1851	1303	3714	75
47	0	0	1921	1302	3715	72
48	0	0	1989	1302	3716	70
49	0	0	2055	1300	3715	71
50	0	0	2110	1301	3714	71
51	0	0	2168	1298	3714	72
52	0	0	2204	1299	3715	73
53	0	0	2206	1299	3715	71
54	0	0	2178	1295	3715	72
55	0	0	2125	1295	3715	73
56	0	0	2078	1297	3715	73
57	0	0	2049	1296	3715	74
58	0	0	1998	1297	3714	72
59	0	0	1927	1295	3715	75
60	0	0	1859	1298	3714	74
61	0	0	1825	1300	3713	77
62	0	0	1798	1299	3713	76
63	0	0	1792	1304	3714	76
64	0	0	1827	1305	3714	72
65	0	0	1882	1303	3714	72
66	0	0	1901	1302	3715	73
67	0	0	1924	1301	3716	72
68	0	0	1988	1302	3717	75
69	0	0	2076	1301	3715	71
70	0	0	2161	1301	3715	71
71	0	0	2221	1300	3715	71
72	0	0	2271	1299	3713	72
73	0	0	2299	1298	3716	72
74	0	0	2293	1297	3715	72
75	0	0	2238	1295	3714	73
76	0	0	2153	1295	3714	74
77	0	0	2058	1294	3714	73
78	0	0	1990	1297	3714	74
79	0	0	1953	1299	3714	76
80	0	0	1923	1298	3715	77
81	0	0	1871	1298	3713	74
82	0	0	1813	1299	3713	74
83	0	0	1785	1302	3715	74
84	0	0	1802	1303	3715	72
85	0	0	1829	1300	3717	76
86	0	0	1882	1302	3716	74
87	0	0	1963	1302	3716	72
88	0	0	2025	1298	3715	72
89	0	0	2054	1301	3716	71
90	0	0	2065	1300	3714	71
91	0	0	2093	1300	3715	71
92	0	0	2136	1299	3713	70
93	0	0	2154	1298	3711	72
94	0	0	2151	1295	3714	72
95	0	0	2149	1298	3714	74
96	0	0	2133	1296	3714	73
97	0	0	2085	1295	3714	74
98	0	0	2010	1297	3714	72
99	0	0	1930	1295	3715	74
100	0	0	1848	1297	3715	74
101	0	0	1777	1297	3714	75
102	0	0	1745	1301	3714	77
103	0	0	1773	1303	3715	75
104	0	0	1794	1303	3715	76
105	0	0	1803	1302	3715	73
106	0	0	1844	1304	3715	72
107	0	0	1943	1303	3714	71
108	0	0	2051	1301	3717	73
109	0	0	2114	1299	3715	72
110	0	0	2126	1300	3713	70
111	0	0	2134	1299	3714	70
112	0	0	2147	1298	3712	72
113	0	0	2151	1298	3713	73
114	0	0	2150	1299	3715	72
115	0	0	2129	1296	3714	74
116	0	0	2086	1295	3715	74
117	0	0	2005	1295	3715	74
118	0	0	1908	1295	3716	73
119	0	0	1827	1296	3717	77
120	0	0	1793	1295	3715	77
121	0	0	1786	1304	3714	77
122	0	0	1793	1303	3711	74
123	0	0	1799	1302	3713	74
124	0	0	1848	1301	3713	74
125	0	0	1885	1302	3715	73
126	0	0	1899	1303	3713	75
127	0	0	1921	1303	3711	76
0	0	0	1977	1301	3714	74
1	0	0	2050	1296	3715	71
2	0	0	2109	1300	3714	71
3	0	0	2137	1300	3714	70
4	0	0	2177	1299	3713	71
5	0	0	2175	1296	3713	72
6	0	0	2128	1295	3716	72
7	0	0	2068	1294	3716	74
8	0	0	2008	1294	3716	73
9	0	0	1948	1295	3716	74
10	0	0	1896	1296	3715	74
11	0	0	1852	1296	3715	77
12	0	0	1840	1300	3714	74
13	0	0	1867	1301	3713	74
14	0	0	1903	1301	3714	74
15	0	0	1915	1302	3714	77
16	0	0	1888	1298	3714	76
17	0	0	1890	1302	3713	75
18	0	0	1955	1302	3714	72
19	0	0	2038	1301	3715	71
20	0	0	2055	1300	3715	71
21	0	0	2050	1299	3717	72
22	0	0	2077	1300	3715	70
23	0	0	2134	1301	3714	71
24	0	0	2222	1297	3714	72
25	0	0	2273	1298	3715	71
26	0	0	2271	1296	3716	72
27	0	0	2230	1294	3715	73
28	0	0	2139	1294	3715	74
29	0	0	2002	1293	3715	75
30	0	0	1896	1295	3715	74
31	0	0	1869	1297	3715	73
32	0	0	1876	1300	3713	77
33	0	0	1848	1297	3713	79
34	0	0	1831	1301	3713	75
35	0	0	1847	1302	3714	73
36	0	0	1875	1301	3715	72
37	0	0	1865	1300	3715	72
38	0	0	1859	1303	3714	72
39	0	0	1881	1302	3715	74
40	0	0	1940	1301	3713	75
41	0	0	2021	1301	3715	71
42	0	0	2068	1300	3715	70
43	0	0	2099	1298	3716	72
44	0	0	2184	1297	3714	71
45	0	0	2246	1298	3714	73
46	0	0	2278	1296	3715	76
47	0	0	2240	1294	3717	72
48	0	0	2137	1295	3714	74
49	0	0	2085	1296	3714	74
50	0	0	2044	1295	3713	74
51	0	0	1978	1294	3715	76
52	0	0	1901	1296	3712	75
53	0	0	1851	1297	3714	75
54	0	0	1821	1300	3713	73
55	0	0	1825	1302	3714	73
56	0	0	1856	1302	3715	76
57	0	0	1901	1302	3714	76
58	0	0	1960	1302	3717	75
59	0	0	2049	1301	3717	71
60	0	0	2138	1301	3714	72
61	0	0	2198	1299	3716	72
62	0	0	2255	1300	3715	71
63	0	0	2323	1299	3713	71
64	0	0	2372	1298	3713	71
65	0	0	2392	1298	3712	72
66	0	0	2409	1295	3714	73
67	0	0	2442	1298	3713	73
68	0	0	2478	1299	3713	73
69	0	0	2508	1300	3714	73
70	0	0	2504	1297	3714	74
71	0	0	2434	1295	3715	73
72	0	0	2341	1295	3714	73
73	0	0	2295	1298	3714	78
74	0	0	2299	1301	3715	78
75	0	0	2367	1301	3715	77
76	0	0	2496	1301	3715	72
77	0	0	2627	1302	3715	73
78	0	0	2737	1301	3715	72
79	0	0	2830	1302	3715	72
80	0	0	2932	1301	3714	75
81	0	0	3043	1300	3714	72
82	0	0	3125	1299	3714	71
83	0	0	3165	1299	3713	71
84	0	0	3169	1298	3713	72
85	0	0	3148	1298	3714	72
86	0	0	3085	1292	3713	73
87	0	0	2983	1296	3713	74
88	0	0	2863	1293	3714	74
89	0	0	2750	1294	3715	74
90	0	0	2648	1295	3716	73
91	0	0	2552	1295	3716	73
92	0	0	2443	1295	3714	75
93	0	0	2315	1296	3714	78
94	0	0	2157	1296	3715	78
95	0	0	1998	1297	3712	77
96	0	0	1869	1298	3715	72
97	0	0	1837	1301	3714	73
98	0	0	1856	1300	3715	72
99	0	0	1885	1302	3716	73
100	0	0	1924	1301	3715	74
101	0	0	1976	1300	3715	70
102	0	0	2004	1299	3714	67
103	0	0	2041	1297	3713	71
104	0	0	2091	1298	3715	73
105	0	0	2106	1297	3714	72
106	0	0	2102	1296	3715	72
107	0	0	2050	1293	3715	73
108	0	0	1958	1292	3717	73
109	0	0	1857	1294	3715	73
110	0	0	1761	1295	3717	74
111	0	0	1695	1295	3715	77
112	0	0	1650	1296	3715	78
113	0	0	1576	1298	3714	71
114	0	0	1524	1298	3714	73
115	0	0	1530	1301	3715	73
116	0	0	1558	1300	3715	73
117	0	0	1624	1302	3715	75
118	0	0	1709	1301	3714	75
119	0	0	1786	1302	3714	76
120	0	0	1845	1300	3715	71
121	0	0	1898	1299	3715	71
122	0	0	1932	1299	3714	71
123	0	0	1965	1299	3713	74
124	0	0	1995	1299	3713	69
125	0	0	1983	1295	3715	71
126	0	0	1952	1294	3714	72
127	0	0	1931	1294	3715	73
0	0	0	1874	1296	3715	71
1	0	0	1771	1295	3715	72
2	0	0	1710	1295	3717	74
3	0	0	1713	1298	3715	75
4	0	0	1728	1299	3714	75
5	0	0	1704	1299	3713	75
6	0	0	1697	1301	3713	76
7	0	0	1705	1302	3714	76
8	0	0	1726	1301	3714	76
9	0	0	1770	1301	3714	74
10	0	0	1800	1301	3714	71
11	0	0	1820	1301	3716	71
12	0	0	1861	1301	3715	71
13	0	0	1912	1299	3717	72
14	0	0	1977	1299	3715	71
15	0	0	2062	1300	3715	71
16	0	0	2131	1298	3714	72
17	0	0	2165	1297	3715	71
18	0	0	2135	1293	3714	72
19	0	0	2063	1293	3714	73
20	0	0	1993	1294	3714	74
21	0	0	1932	1295	3715	79
22	0	0	1884	1295	3715	74
23	0	0	1859	1296	3715	76
24	0	0	1825	1296	3714	77
25	0	0	1793	1297	3713	77
26	0	0	1758	1298	3714	74
27	0	0	1726	1297	3713	71
28	0	0	1719	1300	3715	72
29	0	0	1739	1301	3715	73
30	0	0	1821	1303	3716	74
31	0	0	1932	1301	3717	73
32	0	0	2003	1300	3715	73
33	0	0	2063	1298	3714	71
34	0	0	2122	1299	3714	71
35	0	0	2166	1298	3714	71
36	0	0	2192	1298	3713	69
37	0	0	2180	1293	3715	71
38	0	0	2130	1293	3714	71
39	0	0	2090	1293	3714	73
40	0	0	2045	1292	3714	72
41	0	0	1996	1294	3715	75
42	0	0	1941	1295	3717	73
43	0	0	1890	1294	3715	77
44	0	0	1852	1296	3715	73
45	0	0	1832	1296	3714	74
46	0	0	1825	1300	3715	75
47	0	0	1816	1298	3715	76
48	0	0	1790	1297	3715	76
49	0	0	1776	1300	3716	75
50	0	0	1805	1300	3715	72
51	0	0	1879	1300	3715	72
52	0	0	1981	1299	3716	71
53	0	0	2062	1296	3715	72
54	0	0	2097	1298	3715	71
55	0	0	2100	1299	3713	69
56	0	0	2104	1297	3714	71
57	0	0	2142	1296	3714	70
58	0	0	2192	1296	3715	73
59	0	0	2197	1295	3714	73
60	0	0	2157	1295	3716	73
61	0	0	2079	1293	3718	74
62	0	0	1983	1293	3715	71
63	0	0	1888	1294	3717	73
64	0	0	1823	1294	3715	77
65	0	0	1791	1297	3715	77
66	0	0	1772	1296	3716	77
67	0	0	1748	1299	3715	74
68	0	0	1765	1300	3715	73
69	0	0	1825	1300	3715	72
70	0	0	1884	1299	3714	72
71	0	0	1917	1300	3715	75
72	0	0	1964	1300	3714	72
73	0	0	2036	1299	3715	71
74	0	0	2089	1297	3714	71
75	0	0	2137	1298	3711	72
76	0	0	2186	1297	3714	77
77	0	0	2193	1295	3714	71
78	0	0	2192	1295	3715	73
79	0	0	2185	1294	3715	73
80	0	0	2152	1292	3715	72
81	0	0	2089	1292	3716	74
82	0	0	2000	1293	3716	72
83	0	0	1930	1293	3715	74
84	0	0	1879	1295	3715	77
85	0	0	1847	1293	3713	80
86	0	0	1823	1296	3714	77
87	0	0	1797	1298	3715	72
88	0	0	1807	1300	3715	73
89	0	0	1830	1299	3714	73
90	0	0	1848	1299	3714	72
91	0	0	1903	1298	3715	74
92	0	0	1983	1298	3714	75
93	0	0	2066	1298	3715	71
94	0	0	2131	1297	3714	71
95	0	0	2178	1296	3714	72
96	0	0	2230	1296	3715	72
97	0	0	2257	1295	3714	70
98	0	0	2248	1293	3716	72
99	0	0	2176	1290	3715	73
100	0	0	2056	1291	3716	73
101	0	0	1940	1292	3716	73
102	0	0	1856	1290	3716	73
103	0	0	1826	1294	3713	78
104	0	0	1811	1296	3715	74
105	0	0	1784	1295	3713	75
106	0	0	1747	1296	3713	74
107	0	0	1758	1299	3713	71
108	0	0	1806	1300	3713	76
109	0	0	1872	1299	3714	76
110	0	0	1944	1300	3711	76
111	0	0	2000	1298	3715	72
112	0	0	2056	1298	3714	71
113	0	0	2122	1298	3716	72
114	0	0	2160	1297	3715	71
115	0	0	2181	1297	3715	71
116	0	0	2193	1294	3715	72
117	0	0	2189	1295	3715	71
118	0	0	2187	1293	3714	72
119	0	0	2178	1292	3714	75
120	0	0	2115	1290	3715	73
121	0	0	2027	1292	3713	74
122	0	0	1951	1293	3715	73
123	0	0	1890	1292	3715	75
124	0	0	1823	1293	3714	74
125	0	0	1764	1294	3713	77
126	0	0	1746	1299	3713	76
127	0	0	1771	1298	3712	77
0	0	0	1806	1299	3713	73
1	0	0	1865	1298	3714	72
2	0	0	1934	1299	3715	73
3	0	0	1981	1298	3716	72
4	0	0	2035	1298	3717	74
5	0	0	2079	1297	3715	72
6	0	0	2106	1297	3713	70
7	0	0	2131	1296	3713	71
8	0	0	2172	1295	3713	71
9	0	0	2207	1295	3715	71
10	0	0	2224	1294	3715	72
11	0	0	2203	1291	3713	74
12	0	0	2153	1292	3714	74
13	0	0	2063	1290	3715	74
14	0	0	1938	1291	3715	71
15	0	0	1843	1292	3714	76
16	0	0	1809	1294	3714	77
17	0	0	1795	1295	3714	74
18	0	0	1788	1296	3713	74
19	0	0	1774	1297	3712	75
20	0	0	1766	1298	3714	75
21	0	0	1777	1298	3714	77
22	0	0	1815	1299	3715	75
23	0	0	1888	1298	3715	76
24	0	0	1944	1297	3715	71
25	0	0	2023	1297	3714	71
26	0	0	2112	1296	3714	71
27	0	0	2200	1296	3713	71
28	0	0	2270	1294	3712	72
29	0	0	2302	1294	3712	73
30	0	0	2288	1291	3716	73
31	0	0	2235	1289	3713	74
32	0	0	2150	1290	3714	74
33	0	0	2063	1290	3715	74
34	0	0	1966	1291	3714	75
35	0	0	1886	1292	3713	74
36	0	0	1850	1293	3715	75
37	0	0	1842	1295	3715	73
38	0	0	1825	1294	3713	78
39	0	0	1798	1295	3714	75
40	0	0	1800	1298	3715	76
41	0	0	1873	1296	3714	73
42	0	0	1943	1298	3716	72
43	0	0	1986	1298	3713	72
44	0	0	2032	1297	3715	71
45	0	0	2115	1296	3715	71
46	0	0	2158	1296	3713	71
47	0	0	2180	1295	3714	70
48	0	0	2212	1294	3714	71
49	0	0	2225	1295	3714	70
50	0	0	2223	1294	3715	72
51	0	0	2205	1292	3714	73
52	0	0	2159	1289	3716	72
53	0	0	2097	1291	3715	74
54	0	0	2050	1291	3716	75
55	0	0	1984	1292	3715	78
56	0	0	1939	1293	3714	78
57	0	0	1925	1296	3713	78
58	0	0	1937	1297	3713	73
59	0	0	1972	1297	3714	73
60	0	0	1982	1295	3711	74
61	0	0	1935	1295	3715	72
62	0	0	1954	1298	3714	72
63	0	0	2003	1297	3714	71
64	0	0	2040	1296	3715	71
65	0	0	2092	1295	3714	71
66	0	0	2139	1295	3714	71
67	0	0	2203	1294	3714	71
68	0	0	2271	1293	3712	74
69	0	0	2320	1293	3714	72
70	0	0	2353	1293	3713	73
71	0	0	2297	1289	3714	74
72	0	0	2193	1289	3716	73
73	0	0	2082	1289	3712	75
74	0	0	1994	1290	3715	74
75	0	0	1928	1290	3715	78
76	0	0	1876	1292	3714	78
77	0	0	1847	1293	3714	77
78	0	0	1829	1296	3714	71
79	0	0	1847	1296	3713	72
80	0	0	1880	1298	3715	72
81	0	0	1902	1297	3714	73
82	0	0	1943	1296	3714	76
83	0	0	2010	1296	3714	75
84	0	0	2086	1296	3715	74
85	0	0	2161	1296	3716	71
86	0	0	2209	1295	3715	71
87	0	0	2239	1293	3714	71
88	0	0	2273	1293	3714	71
89	0	0	2307	1293	3715	71
90	0	0	2310	1292	3714	72
91	0	0	2271	1288	3714	73
92	0	0	2193	1289	3714	74
93	0	0	2107	1289	3712	75
94	0	0	2056	1291	3717	74
95	0	0	2019	1292	3715	77
96	0	0	1984	1292	3714	74
97	0	0	1940	1291	3713	76
98	0	0	1883	1293	3711	75
99	0	0	1847	1295	3713	74
100	0	0	1871	1296	3715	75
101	0	0	1896	1296	3715	76
102	0	0	1909	1296	3715	72
103	0	0	1938	1297	3715	72
104	0	0	1983	1295	3715	70
105	0	0	2045	1295	3711	73
106	0	0	2123	1294	3714	72
107	0	0	2174	1293	3713	70
108	0	0	2182	1292	3713	72
109	0	0	2182	1293	3715	71
110	0	0	2169	1289	3711	72
111	0	0	2117	1288	3711	75
112	0	0	2046	1288	3714	74
113	0	0	1971	1289	3715	74
114	0	0	1887	1290	3715	73
115	0	0	1791	1289	3715	73
116	0	0	1679	1290	3714	79
117	0	0	1604	1291	3714	77
118	0	0	1594	1295	3712	77
119	0	0	1665	1297	3714	72
120	0	0	1758	1295	3715	73
121	0	0	1824	1296	3715	73
122	0	0	1837	1295	3715	72
123	0	0	1835	1296	3715	75
124	0	0	1853	1296	3715	73
125	0	0	1900	1293	3711	72
126	0	0	1944	1294	3713	69
127	0	0	2000	1293	3713	71
0	0	0	2054	1293	3713	72
1	0	0	2063	1291	3714	71
2	0	0	2030	1288	3713	72
3	0	0	1979	1288	3715	73
4	0	0	1915	1289	3715	74
5	0	0	1847	1289	3715	73
6	0	0	1771	1289	3716	73
7	0	0	1722	1290	3714	76
8	0	0	1695	1290	3714	74
9	0	0	1653	1290	3715	73
10	0	0	1608	1291	3714	71
11	0	0	1567	1292	3715	73
12	0	0	1547	1293	3715	76
13	0	0	1550	1295	3714	76
14	0	0	1592	1294	3715	75
15	0	0	1662	1295	3715	72
16	0	0	1733	1295	3715	72
17	0	0	1817	1294	3715	71
18	0	0	1885	1293	3713	71
19	0	0	1922	1292	3714	70
20	0	0	1946	1292	3714	69
21	0	0	1960	1291	3715	72
22	0	0	1981	1291	3715	71
23	0	0	1951	1287	3714	73
24	0	0	1880	1287	3714	75
25	0	0	1786	1288	3715	74
26	0	0	1677	1288	3716	73
27	0	0	1539	1287	3715	73
28	0	0	1468	1290	3713	73
29	0	0	1453	1291	3715	77
30	0	0	1450	1293	3714	74
31	0	0	1453	1295	3713	74
32	0	0	1475	1295	3713	72
33	0	0	1526	1295	3714	72
34	0	0	1610	1294	3715	71
35	0	0	1672	1294	3715	71
36	0	0	1725	1294	3714	78
37	0	0	1776	1294	3716	71
38	0	0	1822	1292	3714	71
39	0	0	1877	1292	3713	71
40	0	0	1939	1293	3715	72
41	0	0	1993	1291	3714	72
42	0	0	2015	1290	3715	72
43	0	0	1956	1287	3715	73
44	0	0	1836	1286	3715	73
45	0	0	1733	1288	3715	74
46	0	0	1676	1289	3715	75
47	0	0	1638	1288	3713	79
48	0	0	1614	1291	3713	74
49	0	0	1601	1289	3713	78
50	0	0	1557	1292	3713	76
51	0	0	1530	1293	3715	76
52	0	0	1551	1294	3713	73
53	0	0	1597	1295	3715	72
54	0	0	1620	1295	3713	72
55	0	0	1667	1295	3716	73
56	0	0	1719	1294	3716	78
57	0	0	1783	1293	3714	71
58	0	0	1848	1293	3715	72
59	0	0	1898	1290	3715	70
60	0	0	1961	1292	3715	68
61	0	0	2024	1290	3715	72
62	0	0	2029	1289	3713	71
63	0	0	1982	1286	3713	74
64	0	0	1898	1286	3715	73
65	0	0	1831	1288	3715	72
66	0	0	1769	1288	3715	75
67	0	0	1711	1288	3713	77
68	0	0	1655	1289	3714	77
69	0	0	1614	1290	3714	74
70	0	0	1600	1294	3714	75
71	0	0	1624	1295	3714	75
72	0	0	1677	1294	3715	72
73	0	0	1738	1294	3715	76
74	0	0	1759	1294	3716	74
75	0	0	1759	1294	3716	74
76	0	0	1787	1294	3716	71
77	0	0	1806	1294	3716	71
78	0	0	1845	1292	3714	68
79	0	0	1921	1292	3713	71
80	0	0	1997	1291	3714	71
81	0	0	2037	1291	3715	71
82	0	0	2044	1290	3713	71
83	0	0	2010	1287	3713	73
84	0	0	1951	1286	3714	74
85	0	0	1896	1287	3715	75
86	0	0	1815	1288	3715	74
87	0	0	1733	1288	3716	72
88	0	0	1672	1289	3714	75
89	0	0	1634	1290	3713	74
90	0	0	1619	1292	3714	76
91	0	0	1626	1294	3715	77
92	0	0	1635	1294	3714	75
93	0	0	1657	1294	3715	73
94	0	0	1699	1293	3715	73
95	0	0	1750	1294	3715	72
96	0	0	1808	1293	3715	71
97	0	0	1887	1292	3716	72
98	0	0	1968	1292	3714	71
99	0	0	2017	1291	3713	71
100	0	0	2055	1290	3711	75
101	0	0	2071	1291	3715	71
102	0	0	2060	1287	3712	71
103	0	0	2034	1287	3714	74
104	0	0	2012	1288	3714	73
105	0	0	1978	1288	3715	72
106	0	0	1930	1287	3715	75
107	0	0	1846	1288	3716	77
108	0	0	1777	1288	3715	79
109	0	0	1739	1290	3714	77
110	0	0	1710	1288	3715	74
111	0	0	1685	1291	3715	73
112	0	0	1695	1294	3716	73
113	0	0	1717	1294	3714	71
114	0	0	1762	1294	3714	76
115	0	0	1834	1292	3715	75
116	0	0	1906	1294	3715	75
117	0	0	1965	1292	3717	72
118	0	0	2027	1292	3714	71
119	0	0	2100	1292	3713	71
120	0	0	2151	1291	3713	70
121	0	0	2171	1291	3714	71
122	0	0	2169	1288	3716	72
123	0	0	2110	1286	3714	73
124	0	0	2001	1286	3715	73
125	0	0	1906	1284	3715	74
126	0	0	1863	1288	3716	73
127	0	0	1841	1289	3716	75
0	0	0	1830	1291	3715	74
1	0	0	1812	1290	3713	75
2	0	0	1770	1289	3713	74
3	0	0	1728	1290	3714	74
4	0	0	1712	1294	3715	75
5	0	0	1741	1295	3715	75
6	0	0	1780	1294	3713	71
7	0	0	1821	1290	3715	72
8	0	0	1865	1293	3715	71
9	0	0	1901	1293	3716	71
10	0	0	1951	1292	3715	70
11	0	0	2028	1291	3713	71
12	0	0	2118	1289	3714	72
13	0	0	2163	1291	3715	72
14	0	0	2140	1285	3718	72
15	0	0	2094	1287	3716	72
16	0	0	2042	1288	3716	74
17	0	0	1990	1284	3715	74
18	0	0	1939	1288	3715	74
19	0	0	1903	1289	3716	73
20	0	0	1887	1290	3714	78
21	0	0	1859	1289	3712	79
22	0	0	1819	1290	3711	79
23	0	0	1793	1292	3713	74
24	0	0	1797	1294	3715	73
25	0	0	1802	1293	3715	72
26	0	0	1831	1294	3714	73
27	0	0	1869	1292	3715	75
28	0	0	1911	1292	3715	76
29	0	0	1974	1293	3716	72
30	0	0	2032	1289	3714	71
31	0	0	2068	1291	3714	71
32	0	0	2090	1289	3713	71
33	0	0	2070	1287	3714	72
34	0	0	2042	1288	3715	72
35	0	0	2053	1287	3714	73
36	0	0	2047	1287	3714	74
37	0	0	2007	1287	3713	72
38	0	0	1937	1286	3714	73
39	0	0	1845	1288	3715	74
40	0	0	1763	1286	3713	77
41	0	0	1715	1289	3714	80
42	0	0	1686	1288	3711	78
43	0	0	1679	1295	3714	72
44	0	0	1711	1294	3715	73
45	0	0	1760	1293	3714	73
46	0	0	1813	1294	3715	72
47	0	0	1890	1291	3715	75
48	0	0	1946	1293	3716	73
49	0	0	1991	1292	3717	72
50	0	0	2025	1292	3713	71
51	0	0	2062	1290	3713	71
52	0	0	2116	1287	3713	71
53	0	0	2176	1291	3715	71
54	0	0	2213	1289	3717	76
55	0	0	2195	1286	3716	73
56	0	0	2112	1286	3714	74
57	0	0	2012	1285	3714	74
58	0	0	1912	1287	3715	74
59	0	0	1838	1287	3715	75
60	0	0	1787	1288	3713	75
61	0	0	1740	1289	3714	74
62	0	0	1724	1291	3714	71
63	0	0	1746	1293	3714	72
64	0	0	1793	1294	3714	75
65	0	0	1862	1294	3711	77
66	0	0	1908	1294	3715	75
67	0	0	1978	1293	3715	72
68	0	0	2097	1293	3716	72
69	0	0	2195	1292	3714	71
70	0	0	2236	1292	3711	71
71	0	0	2237	1290	3713	71
72	0	0	2277	1290	3713	71
73	0	0	2280	1289	3713	70
74	0	0	2220	1286	3713	72
75	0	0	2132	1286	3714	71
76	0	0	2038	1285	3714	74
77	0	0	1938	1283	3715	74
78	0	0	1890	1288	3715	73
79	0	0	1838	1287	3718	76
80	0	0	1764	1288	3714	75
81	0	0	1726	1288	3714	78
82	0	0	1707	1292	3714	75
83	0	0	1735	1294	3714	76
84	0	0	1771	1294	3714	73
85	0	0	1799	1294	3715	73
86	0	0	1830	1293	3714	73
87	0	0	1887	1292	3714	71
88	0	0	1958	1295	3714	76
89	0	0	2032	1293	3713	72
90	0	0	2097	1291	3713	70
91	0	0	2132	1290	3713	71
92	0	0	2147	1290	3713	71
93	0	0	2125	1288	3715	72
94	0	0	2094	1287	3715	76
95	0	0	2078	1287	3711	75
96	0	0	2051	1286	3715	74
97	0	0	2016	1286	3716	74
98	0	0	1970	1287	3716	74
99	0	0	1920	1288	3715	77
100	0	0	1893	1290	3715	78
101	0	0	1865	1291	3713	74
102	0	0	1806	1289	3713	74
103	0	0	1771	1291	3714	71
104	0	0	1773	1296	3713	72
105	0	0	1813	1294	3715	75
106	0	0	1881	1294	3714	76
107	0	0	1935	1293	3714	75
108	0	0	1999	1293	3715	71
109	0	0	2076	1292	3714	72
110	0	0	2114	1292	3715	71
111	0	0	2123	1290	3715	71
112	0	0	2153	1289	3714	73
113	0	0	2160	1290	3715	71
114	0	0	2134	1287	3714	74
115	0	0	2136	1290	3716	73
116	0	0	2150	1292	3715	73
117	0	0	2135	1287	3715	73
118	0	0	2078	1287	3715	72
119	0	0	1985	1286	3712	75
120	0	0	1895	1288	3714	74
121	0	0	1844	1286	3711	75
122	0	0	1802	1290	3712	75
123	0	0	1751	1291	3714	76
124	0	0	1752	1294	3714	76
125	0	0	1794	1295	3715	71
126	0	0	1878	1294	3713	72
127	0	0	1952	1294	3714	72
0	0	0	2009	1293	3715	73
1	0	0	2053	1292	3716	71
2	0	0	2109	1290	3715	71
3	0	0	2160	1290	3715	72
4	0	0	2211	1290	3715	71
5	0	0	2225	1289	3714	72
6	0	0	2179	1286	3715	72
7	0	0	2148	1287	3714	73
8	0	0	2118	1286	3714	74
9	0	0	2055	1285	3712	75
10	0	0	1984	1287	3714	76
11	0	0	1918	1287	3714	79
12	0	0	1873	1287	3713	77
13	0	0	1832	1287	3713	76
14	0	0	1787	1288	3712	75
15	0	0	1765	1292	3714	77
16	0	0	1809	1294	3713	75
17	0	0	1894	1293	3714	72
18	0	0	1950	1293	3715	75
19	0	0	1990	1292	3715	48
20	0	0	2040	1293	3716	72
21	0	0	2114	1292	3714	71
22	0	0	2156	1291	3715	70
23	0	0	2188	1291	3713	71
24	0	0	2268	1288	3712	71
25	0	0	2316	1289	3713	71
26	0	0	2282	1286	3713	72
27	0	0	2239	1286	3712	73
28	0	0	2162	1285	3714	72
29	0	0	2078	1286	3714	72
30	0	0	1970	1285	3715	75
31	0	0	1889	1287	3714	76
32	0	0	1831	1287	3714	75
33	0	0	1775	1289	3714	76
34	0	0	1720	1290	3714	80
35	0	0	1714	1293	3715	79
36	0	0	1760	1293	3714	72
37	0	0	1821	1292	3715	73
38	0	0	1879	1293	3715	73
39	0	0	1960	1294	3715	72
40	0	0	2066	1288	3715	75
41	0	0	2149	1291	3714	71
42	0	0	2195	1291	3713	71
43	0	0	2236	1291	3713	71
44	0	0	2270	1290	3713	76
45	0	0	2272	1289	3711	77
46	0	0	2241	1284	3713	73
47	0	0	2194	1285	3713	71
48	0	0	2150	1285	3714	74
49	0	0	2096	1286	3714	76
50	0	0	2017	1286	3716	75
51	0	0	1938	1285	3715	78
52	0	0	1879	1287	3714	78
53	0	0	1840	1288	3715	71
54	0	0	1813	1289	3715	73
55	0	0	1791	1288	3714	74
56	0	0	1790	1293	3715	73
57	0	0	1815	1292	3713	75
58	0	0	1881	1294	3714	75
59	0	0	2018	1290	3714	74
60	0	0	2168	1291	3715	71
61	0	0	2252	1290	3714	72
62	0	0	2315	1292	3715	70
63	0	0	2377	1292	3713	69
64	0	0	2356	1286	3713	72
65	0	0	2289	1285	3714	72
66	0	0	2192	1283	3714	74
67	0	0	2113	1285	3715	73
68	0	0	2040	1283	3712	75
69	0	0	1979	1284	3715	74
70	0	0	1919	1287	3716	71
71	0	0	1865	1286	3714	74
72	0	0	1855	1291	3714	74
73	0	0	1880	1291	3713	76
74	0	0	1882	1290	3714	79
75	0	0	1880	1292	3713	76
76	0	0	1875	1292	3713	75
77	0	0	1907	1292	3713	72
78	0	0	1978	1291	3713	74
79	0	0	2050	1292	3715	76
80	0	0	2108	1291	3714	71
81	0	0	2185	1291	3714	71
82	0	0	2247	1290	3713	71
83	0	0	2268	1289	3713	71
84	0	0	2279	1289	3715	71
85	0	0	2270	1287	3715	71
86	0	0	2226	1284	3714	71
87	0	0	2179	1285	3714	73
88	0	0	2169	1289	3714	75
89	0	0	2184	1290	3715	73
90	0	0	2166	1286	3715	75
91	0	0	2109	1286	3714	76
92	0	0	2015	1287	3714	76
93	0	0	1929	1285	3713	77
94	0	0	1865	1286	3713	75
95	0	0	1862	1291	3713	73
96	0	0	1926	1292	3713	72
97	0	0	2037	1293	3715	72
98	0	0	2133	1288	3715	75
99	0	0	2191	1293	3715	74
100	0	0	2222	1291	3715	74
101	0	0	2244	1290	3714	72
102	0	0	2266	1290	3714	71
103	0	0	2314	1289	3715	67
104	0	0	2368	1289	3714	71
105	0	0	2396	1287	3714	72
106	0	0	2355	1285	3713	72
107	0	0	2285	1284	3713	74
108	0	0	2221	1284	3713	74
109	0	0	2141	1286	3714	72
110	0	0	2060	1285	3714	74
111	0	0	1962	1285	3714	75
112	0	0	1881	1286	3713	73
113	0	0	1837	1288	3713	74
114	0	0	1808	1288	3714	78
115	0	0	1791	1290	3715	78
116	0	0	1819	1291	3714	75
117	0	0	1877	1292	3713	76
118	0	0	1920	1290	3714	73
119	0	0	1977	1293	3715	72
120	0	0	2058	1291	3716	72
121	0	0	2139	1290	3716	71
122	0	0	2231	1290	3715	72
123	0	0	2300	1288	3714	68
124	0	0	2349	1289	3715	71
125	0	0	2337	1285	3713	71
126	0	0	2276	1285	3714	71
127	0	0	2241	1287	3713	73
0	0	0	2226	1287	3713	75
1	0	0	2204	1287	3714	72
2	0	0	2127	1284	3715	76
3	0	0	2013	1285	3714	73
4	0	0	1914	1286	3713	77
5	0	0	1861	1288	3713	74
6	0	0	1822	1290	3714	72
7	0	0	1785	1288	3714	74
8	0	0	1780	1291	3714	72
9	0	0	1847	1292	3715	73
10	0	0	1952	1292	3715	72
11	0	0	2082	1293	3714	72
12	0	0	2198	1291	3715	71
13	0	0	2240	1290	3714	70
14	0	0	2235	1290	3715	70
15	0	0	2224	1286	3713	71
16	0	0	2242	1289	3713	72
17	0	0	2290	1287	3714	72
18	0	0	2335	1287	3713	72
19	0	0	2350	1287	3713	73
20	0	0	2308	1284	3713	74
21	0	0	2240	1287	3715	72
22	0	0	2149	1284	3715	75
23	0	0	2051	1285	3714	73
24	0	0	1996	1286	3714	75
25	0	0	1948	1285	3714	74
26	0	0	1896	1289	3714	73
27	0	0	1867	1290	3714	73
28	0	0	1875	1291	3713	74
29	0	0	1900	1292	3715	73
30	0	0	1934	1288	3715	72
31	0	0	2012	1293	3714	72
32	0	0	2075	1290	3715	71
33	0	0	2105	1290	3714	72
34	0	0	2183	1290	3713	71
35	0	0	2280	1289	3713	69
36	0	0	2374	1287	3713	72
37	0	0	2447	1286	3714	72
38	0	0	2504	1288	3713	72
39	0	0	2467	1283	3712	71
40	0	0	2338	1282	3714	73
41	0	0	2203	1283	3715	73
42	0	0	2083	1285	3715	74
43	0	0	2011	1287	3716	73
44	0	0	1981	1288	3714	75
45	0	0	1950	1287	3713	74
46	0	0	1908	1288	3714	74
47	0	0	1890	1289	3713	74
48	0	0	1890	1294	3712	72
49	0	0	1922	1291	3713	72
50	0	0	1969	1289	3713	72
51	0	0	2045	1291	3714	72
52	0	0	2124	1292	3714	72
53	0	0	2166	1289	3714	72
54	0	0	2208	1288	3714	71
55	0	0	2295	1289	3714	71
56	0	0	2383	1288	3714	71
57	0	0	2418	1288	3714	72
58	0	0	2400	1285	3714	72
59	0	0	2369	1288	3716	73
60	0	0	2343	1286	3714	76
61	0	0	2281	1285	3714	74
62	0	0	2222	1285	3715	73
63	0	0	2181	1286	3714	75
64	0	0	2138	1289	3711	75
65	0	0	2155	1291	3713	73
66	0	0	2178	1292	3715	73
67	0	0	2170	1291	3714	74
68	0	0	2135	1288	3713	74
69	0	0	2101	1288	3713	73
70	0	0	2089	1292	3711	73
71	0	0	2081	1292	3715	73
72	0	0	2090	1292	3716	71
73	0	0	2134	1291	3715	71
74	0	0	2192	1289	3715	72
75	0	0	2257	1289	3714	69
76	0	0	2358	1288	3715	71
77	0	0	2431	1289	3714	71
78	0	0	2445	1289	3713	73
79	0	0	2440	1289	3715	72
80	0	0	2429	1286	3712	75
81	0	0	2384	1286	3714	75
82	0	0	2310	1286	3714	73
83	0	0	2225	1286	3714	71
84	0	0	2132	1286	3714	75
85	0	0	2032	1287	3713	72
86	0	0	1935	1286	3714	73
87	0	0	1936	1293	3714	74
88	0	0	1993	1292	3713	71
89	0	0	2037	1292	3712	74
90	0	0	2102	1293	3715	72
91	0	0	2199	1291	3716	73
92	0	0	2259	1292	3715	72
93	0	0	2271	1292	3716	71
94	0	0	2301	1290	3714	73
95	0	0	2338	1290	3714	71
96	0	0	2378	1289	3714	71
97	0	0	2428	1289	3713	72
98	0	0	2511	1288	3713	71
99	0	0	2549	1287	3713	73
100	0	0	2465	1285	3713	73
101	0	0	2310	1286	3714	75
102	0	0	2190	1286	3715	75
103	0	0	2130	1286	3714	75
104	0	0	2087	1289	3715	74
105	0	0	2060	1290	3712	73
106	0	0	2045	1292	3715	74
107	0	0	2057	1293	3715	73
108	0	0	2068	1292	3714	71
109	0	0	2078	1294	3715	73
110	0	0	2093	1293	3715	72
111	0	0	2129	1290	3716	71
112	0	0	2171	1292	3715	71
113	0	0	2244	1291	3714	71
114	0	0	2317	1291	3714	71
115	0	0	2363	1290	3711	72
116	0	0	2405	1288	3714	72
117	0	0	2452	1288	3714	71
118	0	0	2473	1289	3713	71
119	0	0	2440	1286	3714	73
120	0	0	2403	1286	3711	74
121	0	0	2353	1284	3715	73
122	0	0	2316	1287	3715	73
123	0	0	2269	1287	3715	71
124	0	0	2224	1288	3714	76
125	0	0	2198	1289	3714	75
126	0	0	2179	1290	3714	75
127	0	0	2182	1292	3714	74
0	0	0	2174	1291	3713	71
1	0	0	2155	1294	3715	72
2	0	0	2206	1293	3713	73
3	0	0	2290	1293	3713	71
4	0	0	2335	1292	3714	70
5	0	0	2382	1291	3713	71
6	0	0	2481	1292	3714	71
7	0	0	2633	1290	3712	71
8	0	0	2723	1289	3712	72
9	0	0	2690	1286	3714	72
10	0	0	2632	1285	3713	68
11	0	0	2591	1287	3711	74
12	0	0	2535	1285	3715	76
13	0	0	2429	1284	3715	73
14	0	0	2294	1284	3716	74
15	0	0	2179	1286	3716	71
16	0	0	2124	1288	3715	74
17	0	0	2102	1289	3715	73
18	0	0	2063	1289	3712	73
19	0	0	2037	1291	3713	73
20	0	0	2056	1292	3713	72
21	0	0	2102	1292	3714	72
22	0	0	2165	1291	3714	76
23	0	0	2234	1294	3713	72
24	0	0	2282	1291	3714	72
25	0	0	2306	1291	3715	71
26	0	0	2350	1290	3713	72
27	0	0	2412	1287	3712	71
28	0	0	2454	1289	3715	71
29	0	0	2459	1288	3715	72
30	0	0	2432	1286	3713	68
31	0	0	2402	1286	3715	74
32	0	0	2358	1285	3713	71
33	0	0	2300	1286	3714	73
34	0	0	2234	1286	3714	74
35	0	0	2153	1285	3713	72
36	0	0	2073	1286	3713	75
37	0	0	2031	1287	3713	75
38	0	0	2038	1292	3711	75
39	0	0	2075	1292	3713	74
40	0	0	2128	1292	3714	73
41	0	0	2156	1292	3714	73
42	0	0	2216	1290	3714	71
43	0	0	2304	1291	3714	71
44	0	0	2351	1290	3715	71
45	0	0	2349	1291	3715	72
46	0	0	2370	1289	3715	70
47	0	0	2417	1290	3714	69
48	0	0	2445	1288	3712	72
49	0	0	2423	1284	3715	71
50	0	0	2337	1283	3712	69
51	0	0	2255	1284	3714	73
52	0	0	2242	1286	3715	75
53	0	0	2195	1284	3713	73
54	0	0	2118	1285	3714	73
55	0	0	2029	1285	3713	72
56	0	0	1953	1286	3713	74
57	0	0	1917	1288	3713	74
58	0	0	1889	1290	3711	74
59	0	0	1916	1289	3713	73
60	0	0	2009	1292	3714	73
61	0	0	2111	1291	3711	74
62	0	0	2176	1290	3715	71
63	0	0	2211	1289	3716	71
64	0	0	2221	1289	3715	72
65	0	0	2249	1290	3715	72
66	0	0	2293	1288	3715	71
67	0	0	2328	1290	3713	70
68	0	0	2371	1288	3712	72
69	0	0	2409	1287	3714	72
70	0	0	2418	1286	3711	68
71	0	0	2377	1282	3713	74
72	0	0	2293	1282	3715	75
73	0	0	2236	1285	3713	73
74	0	0	2187	1283	3714	74
75	0	0	2163	1288	3711	75
76	0	0	2158	1288	3713	75
77	0	0	2108	1284	3713	75
78	0	0	2042	1287	3713	72
79	0	0	2009	1287	3714	72
80	0	0	1991	1287	3714	72
81	0	0	1970	1287	3716	72
82	0	0	1995	1290	3716	72
83	0	0	2086	1289	3713	72
84	0	0	2190	1287	3715	72
85	0	0	2262	1289	3715	71
86	0	0	2288	1288	3713	71
87	0	0	2278	1286	3712	69
88	0	0	2295	1286	3712	72
89	0	0	2303	1286	3713	72
90	0	0	2288	1284	3713	74
91	0	0	2277	1285	3713	73
92	0	0	2250	1284	3713	73
93	0	0	2186	1282	3714	72
94	0	0	2114	1282	3716	74
95	0	0	2056	1284	3713	72
96	0	0	2025	1284	3714	74
97	0	0	1994	1284	3714	75
98	0	0	1967	1286	3714	74
99	0	0	1980	1289	3715	73
100	0	0	2025	1288	3713	73
101	0	0	2059	1288	3715	72
102	0	0	2088	1289	3712	73
103	0	0	2140	1288	3713	72
104	0	0	2202	1287	3714	71
105	0	0	2205	1286	3714	71
106	0	0	2202	1287	3715	72
107	0	0	2207	1285	3713	71
108	0	0	2215	1285	3713	72
109	0	0	2199	1284	3713	72
110	0	0	2185	1283	3713	72
111	0	0	2191	1284	3714	73
112	0	0	2168	1281	3715	74
113	0	0	2124	1282	3716	73
114	0	0	2059	1282	3715	73
115	0	0	2023	1282	3715	74
116	0	0	1976	1279	3714	72
117	0	0	1934	1284	3713	73
118	0	0	1905	1284	3715	74
119	0	0	1875	1284	3714	74
120	0	0	1866	1287	3713	74
121	0	0	1907	1286	3714	73
122	0	0	1990	1288	3713	72
123	0	0	2068	1287	3714	72
124	0	0	2123	1287	3715	71
125	0	0	2168	1285	3714	72
126	0	0	2223	1284	3714	71
127	0	0	2280	1284	3714	71
0	0	0	2350	1283	3715	70
1	0	0	2396	1285	3715	71
2	0	0	2406	1282	3714	72
3	0	0	2435	1279	3714	72
4	0	0	2425	1283	3714	73
5	0	0	2385	1282	3716	76
6	0	0	2365	1285	3716	74
7	0	0	2351	1279	3714	72
8	0	0	2346	1283	3715	73
9	0	0	2342	1285	3712	72
10	0	0	2359	1285	3713	74
11	0	0	2401	1287	3714	73
12	0	0	2472	1286	3713	73
13	0	0	2568	1283	3715	72
14	0	0	2674	1286	3715	70
15	0	0	2805	1285	3717	75
16	0	0	2917	1287	3715	71
17	0	0	2995	1284	3714	72
18	0	0	3067	1283	3714	71
19	0	0	3104	1285	3713	71
20	0	0	3139	1282	3715	74
21	0	0	3169	1283	3714	72
22	0	0	3186	1281	3713	72
23	0	0	3187	1282	3713	72
24	0	0	3171	1284	3713	73
25	0	0	3127	1279	3716	73
26	0	0	3069	1280	3715	73
27	0	0	3001	1279	3713	72
28	0	0	2915	1280	3713	74
29	0	0	2810	1280	3713	75
30	0	0	2645	1280	3714	73
31	0	0	2456	1281	3713	73
32	0	0	2287	1280	3713	73
33	0	0	2188	1279	3714	72
34	0	0	2124	1282	3715	72
35	0	0	2106	1284	3717	75
36	0	0	2113	1285	3715	71
37	0	0	2120	1282	3714	71
38	0	0	2119	1283	3714	72
39	0	0	2118	1283	3712	71
40	0	0	2122	1280	3713	71
41	0	0	2126	1283	3713	71
42	0	0	2101	1277	3713	71
43	0	0	2056	1276	3714	72
44	0	0	2004	1277	3713	72
45	0	0	1956	1279	3716	73
46	0	0	1918	1279	3715	72
47	0	0	1878	1278	3714	71
48	0	0	1817	1278	3714	75
49	0	0	1742	1279	3713	75
50	0	0	1685	1280	3714	75
51	0	0	1654	1283	3714	73
52	0	0	1672	1283	3714	72
53	0	0	1706	1284	3714	73
54	0	0	1740	1285	3714	72
55	0	0	1777	1284	3715	71
56	0	0	1835	1282	3715	72
57	0	0	1906	1281	3714	71
58	0	0	1990	1281	3713	71
59	0	0	2068	1281	3713	70
60	0	0	2137	1281	3713	71
61	0	0	2166	1280	3713	74
62	0	0	2158	1280	3712	72
63	0	0	2108	1276	3713	72
64	0	0	2044	1279	3713	72
65	0	0	2002	1278	3715	73
66	0	0	1971	1277	3714	72
67	0	0	1924	1278	3713	74
68	0	0	1873	1277	3715	72
69	0	0	1848	1279	3715	75
70	0	0	1843	1283	3713	72
71	0	0	1857	1283	3715	71
72	0	0	1882	1283	3713	73
73	0	0	1919	1283	3715	72
74	0	0	1979	1283	3713	72
75	0	0	2021	1283	3716	72
76	0	0	2090	1282	3715	71
77	0	0	2144	1281	3714	72
78	0	0	2165	1280	3714	71
79	0	0	2208	1280	3714	76
80	0	0	2283	1279	3713	70
81	0	0	2343	1280	3714	71
82	0	0	2296	1275	3713	72
83	0	0	2185	1275	3715	75
84	0	0	2105	1275	3714	73
85	0	0	2046	1278	3713	72
86	0	0	2007	1278	3715	73
87	0	0	1997	1281	3715	74
88	0	0	2001	1280	3712	74
89	0	0	1969	1278	3713	72
90	0	0	1889	1279	3713	72
91	0	0	1822	1279	3713	72
92	0	0	1823	1283	3713	73
93	0	0	1890	1282	3713	73
94	0	0	1983	1284	3714	72
95	0	0	2048	1282	3715	72
96	0	0	2081	1283	3715	71
97	0	0	2109	1282	3714	72
98	0	0	2123	1282	3711	72
99	0	0	2167	1279	3713	69
100	0	0	2262	1281	3711	73
101	0	0	2336	1279	3714	71
102	0	0	2318	1276	3714	71
103	0	0	2258	1276	3712	73
104	0	0	2200	1276	3714	72
105	0	0	2137	1277	3715	72
106	0	0	2074	1277	3714	72
107	0	0	2003	1277	3714	73
108	0	0	1946	1277	3713	73
109	0	0	1890	1276	3713	72
110	0	0	1812	1278	3711	74
111	0	0	1794	1283	3713	73
112	0	0	1854	1283	3713	73
113	0	0	1912	1283	3713	73
114	0	0	1944	1279	3713	70
115	0	0	1983	1283	3711	72
116	0	0	2025	1282	3715	72
117	0	0	2081	1281	3715	72
118	0	0	2126	1281	3712	71
119	0	0	2195	1277	3714	69
120	0	0	2281	1279	3711	72
121	0	0	2329	1278	3713	70
122	0	0	2314	1275	3713	71
123	0	0	2257	1275	3714	71
124	0	0	2189	1275	3714	72
125	0	0	2151	1275	3715	71
126	0	0	2110	1276	3713	72
127	0	0	2056	1276	3715	72
0	0	0	1985	1277	3712	73
1	0	0	1891	1275	3712	73
2	0	0	1815	1278	3711	74
3	0	0	1776	1279	3713	71
4	0	0	1758	1280	3713	73
5	0	0	1787	1281	3714	73
6	0	0	1846	1282	3715	71
7	0	0	1910	1281	3716	72
8	0	0	2004	1282	3715	72
9	0	0	2112	1281	3715	71
10	0	0	2204	1280	3714	70
11	0	0	2255	1279	3714	63
12	0	0	2332	1278	3715	71
13	0	0	2413	1279	3714	71
14	0	0	2436	1277	3713	71
15	0	0	2388	1274	3715	72
16	0	0	2293	1274	3712	72
17	0	0	2148	1274	3715	73
18	0	0	1994	1275	3714	73
19	0	0	1866	1272	3715	73
20	0	0	1766	1276	3714	73
21	0	0	1731	1278	3714	71
22	0	0	1733	1282	3714	74
23	0	0	1741	1281	3714	73
24	0	0	1754	1280	3714	73
25	0	0	1816	1283	3714	73
26	0	0	1922	1282	3715	71
27	0	0	1996	1282	3716	73
28	0	0	2042	1281	3715	71
29	0	0	2107	1280	3713	72
30	0	0	2156	1279	3713	70
31	0	0	2183	1277	3712	69
32	0	0	2222	1279	3711	72
33	0	0	2273	1277	3713	71
34	0	0	2300	1278	3715	71
35	0	0	2249	1273	3713	72
36	0	0	2184	1275	3714	73
37	0	0	2146	1277	3715	73
38	0	0	2099	1275	3715	73
39	0	0	2016	1275	3714	73
40	0	0	1956	1278	3715	73
41	0	0	1947	1281	3715	73
42	0	0	1946	1282	3715	74
43	0	0	1923	1277	3713	72
44	0	0	1885	1279	3713	74
45	0	0	1879	1282	3714	75
46	0	0	1920	1282	3714	71
47	0	0	1967	1283	3715	71
48	0	0	2031	1280	3714	71
49	0	0	2136	1281	3713	72
50	0	0	2244	1282	3711	73
51	0	0	2315	1281	3713	67
52	0	0	2352	1279	3715	71
53	0	0	2322	1273	3713	71
54	0	0	2271	1275	3713	71
55	0	0	2200	1276	3713	72
56	0	0	2085	1275	3714	73
57	0	0	1987	1276	3715	73
58	0	0	1941	1275	3715	72
59	0	0	1912	1277	3713	75
60	0	0	1873	1279	3714	72
61	0	0	1862	1282	3711	75
62	0	0	1845	1280	3711	76
63	0	0	1829	1280	3713	74
64	0	0	1844	1279	3711	73
65	0	0	1896	1284	3713	72
66	0	0	1947	1283	3714	73
67	0	0	1976	1283	3713	72
68	0	0	2011	1282	3715	71
69	0	0	2063	1281	3714	72
70	0	0	2104	1281	3714	71
71	0	0	2179	1280	3714	72
72	0	0	2261	1279	3712	72
73	0	0	2302	1278	3714	71
74	0	0	2317	1278	3714	69
75	0	0	2330	1279	3715	71
76	0	0	2295	1273	3714	72
77	0	0	2193	1276	3715	74
78	0	0	2073	1273	3715	72
79	0	0	1956	1276	3714	73
80	0	0	1880	1277	3713	74
81	0	0	1840	1278	3713	74
82	0	0	1807	1279	3713	71
83	0	0	1782	1278	3713	72
84	0	0	1774	1281	3713	73
85	0	0	1808	1283	3714	72
86	0	0	1916	1283	3715	72
87	0	0	2012	1281	3712	72
88	0	0	2089	1280	3715	71
89	0	0	2161	1280	3714	72
90	0	0	2210	1280	3714	71
91	0	0	2275	1280	3714	71
92	0	0	2302	1279	3713	71
93	0	0	2289	1277	3713	69
94	0	0	2256	1275	3713	71
95	0	0	2232	1276	3713	73
96	0	0	2196	1275	3711	73
97	0	0	2121	1274	3714	74
98	0	0	2045	1276	3714	72
99	0	0	2006	1276	3713	73
100	0	0	1970	1276	3713	73
101	0	0	1933	1278	3711	74
102	0	0	1876	1277	3713	74
103	0	0	1824	1276	3713	73
104	0	0	1823	1282	3714	73
105	0	0	1879	1284	3713	73
106	0	0	1969	1280	3714	73
107	0	0	2057	1281	3713	72
108	0	0	2131	1280	3716	72
109	0	0	2173	1280	3714	72
110	0	0	2197	1281	3713	70
111	0	0	2216	1279	3713	69
112	0	0	2245	1278	3712	71
113	0	0	2282	1276	3713	71
114	0	0	2327	1278	3712	71
115	0	0	2339	1276	3713	72
116	0	0	2276	1275	3711	74
117	0	0	2180	1274	3713	73
118	0	0	2079	1275	3713	74
119	0	0	1990	1275	3713	72
120	0	0	1934	1276	3713	74
121	0	0	1916	1279	3713	73
122	0	0	1926	1281	3714	74
123	0	0	1946	1278	3715	71
124	0	0	1972	1282	3713	74
125	0	0	1974	1281	3714	73
126	0	0	1982	1282	3714	72
127	0	0	2008	1281	3715	73
0	0	0	2058	1279	3714	70
1	0	0	2127	1279	3716	71
2	0	0	2186	1279	3713	70
3	0	0	2247	1278	3713	70
4	0	0	2318	1277	3713	71
5	0	0	2369	1276	3713	69
6	0	0	2364	1276	3712	72
7	0	0	2343	1275	3713	74
8	0	0	2307	1274	3713	72
9	0	0	2230	1273	3715	74
10	0	0	2108	1273	3715	73
11	0	0	2000	1274	3713	75
12	0	0	1951	1275	3714	74
13	0	0	1919	1276	3715	74
14	0	0	1901	1280	3712	75
15	0	0	1930	1281	3714	73
16	0	0	1974	1279	3714	72
17	0	0	2006	1282	3714	75
18	0	0	2008	1280	3714	72
19	0	0	2016	1280	3715	71
20	0	0	2020	1279	3714	72
21	0	0	2036	1280	3714	71
22	0	0	2111	1279	3712	71
23	0	0	2218	1278	3713	67
24	0	0	2278	1277	3714	70
25	0	0	2318	1275	3714	71
26	0	0	2317	1274	3715	71
27	0	0	2270	1271	3712	74
28	0	0	2233	1274	3715	72
29	0	0	2216	1276	3716	73
30	0	0	2156	1272	3714	74
31	0	0	2073	1275	3716	72
32	0	0	1979	1275	3714	73
33	0	0	1909	1276	3713	72
34	0	0	1843	1276	3713	73
35	0	0	1792	1277	3713	72
36	0	0	1784	1279	3711	74
37	0	0	1818	1279	3713	73
38	0	0	1891	1279	3714	72
39	0	0	1990	1280	3712	72
40	0	0	2088	1279	3715	71
41	0	0	2128	1279	3713	71
42	0	0	2147	1278	3713	69
43	0	0	2182	1277	3713	70
44	0	0	2227	1277	3713	70
45	0	0	2261	1277	3714	70
46	0	0	2295	1276	3713	71
47	0	0	2291	1272	3716	72
48	0	0	2228	1273	3716	73
49	0	0	2151	1274	3714	73
50	0	0	2057	1273	3715	73
51	0	0	1991	1275	3713	73
52	0	0	2007	1278	3713	73
53	0	0	2019	1278	3712	71
54	0	0	1970	1277	3711	74
55	0	0	1929	1278	3713	72
56	0	0	1902	1278	3714	72
57	0	0	1866	1279	3713	73
58	0	0	1876	1282	3713	72
59	0	0	1909	1280	3715	72
60	0	0	1940	1279	3715	71
61	0	0	1971	1280	3714	72
62	0	0	2012	1278	3714	69
63	0	0	2048	1277	3715	69
64	0	0	2097	1277	3713	70
65	0	0	2122	1276	3713	71
66	0	0	2091	1273	3713	72
67	0	0	2061	1273	3713	72
68	0	0	1989	1274	3713	72
69	0	0	1905	1274	3714	73
70	0	0	1868	1274	3715	73
71	0	0	1842	1274	3713	75
72	0	0	1800	1275	3713	74
73	0	0	1748	1275	3713	75
74	0	0	1705	1276	3715	73
75	0	0	1678	1277	3711	74
76	0	0	1699	1280	3715	73
77	0	0	1725	1279	3714	73
78	0	0	1759	1280	3715	73
79	0	0	1803	1281	3716	72
80	0	0	1851	1279	3715	71
81	0	0	1921	1280	3714	72
82	0	0	2006	1277	3714	71
83	0	0	2055	1277	3714	69
84	0	0	2085	1276	3714	70
85	0	0	2086	1276	3712	71
86	0	0	2083	1275	3713	72
87	0	0	2075	1274	3713	72
88	0	0	2040	1273	3714	69
89	0	0	1961	1272	3713	71
90	0	0	1859	1273	3714	73
91	0	0	1795	1273	3713	73
92	0	0	1763	1277	3713	73
93	0	0	1739	1277	3713	72
94	0	0	1704	1277	3714	73
95	0	0	1692	1279	3713	72
96	0	0	1707	1280	3714	74
97	0	0	1737	1280	3714	73
98	0	0	1798	1280	3715	73
99	0	0	1891	1280	3715	72
100	0	0	1950	1280	3714	72
101	0	0	2011	1279	3715	70
102	0	0	2072	1279	3711	71
103	0	0	2101	1279	3712	70
104	0	0	2136	1277	3712	70
105	0	0	2162	1276	3713	71
106	0	0	2159	1275	3712	71
107	0	0	2122	1273	3713	73
108	0	0	2056	1271	3714	73
109	0	0	1989	1274	3713	71
110	0	0	1961	1275	3715	73
111	0	0	1945	1275	3713	72
112	0	0	1917	1275	3714	73
113	0	0	1865	1275	3714	73
114	0	0	1817	1277	3713	71
115	0	0	1794	1280	3714	74
116	0	0	1839	1280	3713	74
117	0	0	1934	1283	3714	72
118	0	0	1994	1281	3714	75
119	0	0	2045	1279	3714	68
120	0	0	2081	1279	3714	70
121	0	0	2062	1277	3713	71
122	0	0	2056	1279	3715	71
123	0	0	2076	1277	3713	70
124	0	0	2126	1277	3715	70
125	0	0	2162	1276	3713	71
126	0	0	2184	1276	3713	71
127	0	0	2220	1275	3714	72
0	0	0	2212	1274	3715	73
1	0	0	2155	1274	3716	73
2	0	0	2080	1273	3715	73
3	0	0	2013	1274	3714	73
4	0	0	1963	1277	3711	74
5	0	0	1952	1280	3711	75
6	0	0	1971	1280	3712	71
7	0	0	2005	1281	3713	74
8	0	0	2019	1280	3713	74
9	0	0	2036	1280	3712	75
10	0	0	2100	1280	3714	72
11	0	0	2153	1280	3713	73
12	0	0	2166	1280	3715	71
13	0	0	2216	1279	3714	71
14	0	0	2297	1278	3713	70
15	0	0	2378	1278	3714	70
16	0	0	2469	1277	3714	70
17	0	0	2519	1276	3714	71
18	0	0	2523	1276	3713	72
19	0	0	2471	1274	3711	73
20	0	0	2404	1271	3716	72
21	0	0	2337	1274	3713	71
22	0	0	2267	1274	3715	73
23	0	0	2198	1274	3713	74
24	0	0	2118	1277	3714	73
25	0	0	2056	1276	3711	74
26	0	0	2006	1277	3712	71
27	0	0	1965	1277	3712	73
28	0	0	1961	1280	3713	73
29	0	0	1999	1280	3715	73
30	0	0	2049	1280	3714	73
31	0	0	2072	1280	3715	71
32	0	0	2087	1279	3715	71
33	0	0	2140	1279	3714	71
34	0	0	2217	1280	3711	73
35	0	0	2298	1278	3715	70
36	0	0	2372	1278	3714	69
37	0	0	2424	1276	3715	71
38	0	0	2442	1277	3713	71
39	0	0	2420	1273	3715	72
40	0	0	2344	1273	3713	71
41	0	0	2209	1272	3714	71
42	0	0	2124	1276	3714	74
43	0	0	2129	1279	3713	73
44	0	0	2138	1276	3713	74
45	0	0	2060	1276	3713	75
46	0	0	1950	1276	3712	75
47	0	0	1871	1275	3715	74
48	0	0	1859	1282	3714	73
49	0	0	1890	1282	3711	75
50	0	0	1938	1281	3714	73
51	0	0	2029	1280	3714	70
52	0	0	2141	1280	3715	72
53	0	0	2238	1279	3714	69
54	0	0	2294	1280	3715	71
55	0	0	2336	1279	3714	69
56	0	0	2335	1276	3713	70
57	0	0	2299	1276	3713	71
58	0	0	2300	1277	3712	73
59	0	0	2296	1277	3713	71
60	0	0	2263	1275	3712	73
61	0	0	2209	1275	3713	73
62	0	0	2127	1274	3714	74
63	0	0	2062	1276	3714	75
64	0	0	2020	1277	3713	74
65	0	0	1990	1277	3713	74
66	0	0	1964	1279	3712	74
67	0	0	1963	1281	3716	74
68	0	0	1986	1282	3714	73
69	0	0	2015	1283	3714	73
70	0	0	2056	1280	3715	72
71	0	0	2105	1282	3713	73
72	0	0	2150	1279	3713	71
73	0	0	2202	1280	3711	73
74	0	0	2249	1280	3713	72
75	0	0	2253	1277	3711	71
76	0	0	2235	1279	3710	73
77	0	0	2251	1279	3712	70
78	0	0	2235	1276	3712	72
79	0	0	2173	1274	3713	72
80	0	0	2121	1276	3715	73
81	0	0	2092	1276	3712	74
82	0	0	2064	1277	3715	73
83	0	0	2048	1278	3715	75
84	0	0	2018	1277	3714	73
85	0	0	1981	1278	3714	73
86	0	0	1964	1282	3715	73
87	0	0	1959	1284	3716	75
88	0	0	1953	1283	3715	73
89	0	0	1977	1282	3712	74
90	0	0	2009	1283	3714	72
91	0	0	2029	1283	3715	71
92	0	0	2062	1282	3715	72
93	0	0	2130	1282	3715	71
94	0	0	2213	1281	3713	71
95	0	0	2278	1280	3713	71
96	0	0	2336	1281	3714	71
97	0	0	2330	1276	3712	71
98	0	0	2252	1276	3714	71
99	0	0	2135	1276	3715	73
100	0	0	2029	1275	3713	74
101	0	0	1985	1277	3716	71
102	0	0	1963	1277	3715	73
103	0	0	1920	1277	3715	74
104	0	0	1891	1278	3714	72
105	0	0	1874	1281	3714	71
106	0	0	1864	1282	3713	71
107	0	0	1873	1284	3713	74
108	0	0	1906	1283	3713	74
109	0	0	1940	1284	3713	73
110	0	0	2001	1283	3714	72
111	0	0	2086	1283	3712	73
112	0	0	2145	1283	3713	72
113	0	0	2202	1282	3715	71
114	0	0	2222	1283	3714	72
115	0	0	2227	1281	3713	71
116	0	0	2245	1280	3714	71
117	0	0	2227	1277	3715	69
118	0	0	2202	1277	3714	72
119	0	0	2172	1276	3715	69
120	0	0	2114	1276	3714	73
121	0	0	2030	1276	3714	73
122	0	0	1951	1276	3713	73
123	0	0	1901	1279	3714	74
124	0	0	1870	1277	3714	74
125	0	0	1825	1277	3712	74
126	0	0	1764	1278	3712	74
127	0	0	1725	1279	3711	74
0	0	0	1740	1281	3713	72
1	0	0	1796	1282	3714	72
2	0	0	1871	1282	3715	72
3	0	0	1956	1281	3715	69
4	0	0	2044	1281	3713	72
5	0	0	2110	1281	3715	71
6	0	0	2149	1279	3714	71
7	0	0	2191	1278	3713	70
8	0	0	2236	1278	3714	69
9	0	0	2238	1277	3714	71
10	0	0	2202	1274	3714	72
11	0	0	2187	1276	3715	73
12	0	0	2158	1274	3713	73
13	0	0	2097	1273	3714	70
14	0	0	2008	1273	3711	75
15	0	0	1915	1271	3714	73
16	0	0	1845	1274	3713	74
17	0	0	1834	1279	3712	75
18	0	0	1840	1278	3713	71
19	0	0	1850	1279	3715	71
20	0	0	1848	1279	3713	72
21	0	0	1863	1279	3716	72
22	0	0	1895	1279	3715	70
23	0	0	1898	1278	3715	68
24	0	0	1935	1277	3715	71
25	0	0	1983	1277	3715	70
26	0	0	2027	1275	3715	70
27	0	0	2073	1275	3711	70
28	0	0	2108	1274	3714	70
29	0	0	2112	1271	3711	73
30	0	0	2143	1272	3713	71
31	0	0	2165	1272	3713	72
32	0	0	2090	1269	3714	73
33	0	0	1970	1269	3715	72
34	0	0	1847	1269	3714	72
35	0	0	1778	1269	3714	73
36	0	0	1703	1269	3714	73
37	0	0	1633	1271	3712	75
38	0	0	1602	1273	3715	70
39	0	0	1625	1275	3715	72
40	0	0	1677	1275	3714	72
41	0	0	1717	1275	3715	72
42	0	0	1772	1275	3714	71
43	0	0	1817	1274	3714	68
44	0	0	1911	1274	3713	69
45	0	0	1972	1273	3714	71
46	0	0	2007	1272	3713	71
47	0	0	2059	1273	3713	70
48	0	0	2127	1271	3714	70
49	0	0	2147	1270	3711	72
50	0	0	2108	1267	3713	71
51	0	0	2012	1265	3712	71
52	0	0	1892	1265	3714	72
53	0	0	1802	1267	3715	72
54	0	0	1725	1266	3715	73
55	0	0	1641	1266	3714	73
56	0	0	1572	1266	3715	73
57	0	0	1484	1269	3714	70
58	0	0	1392	1269	3715	72
59	0	0	1370	1271	3714	72
60	0	0	1390	1273	3713	72
61	0	0	1440	1272	3715	72
62	0	0	1480	1273	3714	71
63	0	0	1529	1273	3715	70
64	0	0	1604	1271	3714	70
65	0	0	1705	1273	3714	71
66	0	0	1785	1271	3714	71
67	0	0	1825	1270	3713	70
68	0	0	1856	1269	3714	72
69	0	0	1873	1268	3714	71
70	0	0	1861	1263	3713	71
71	0	0	1820	1264	3716	72
72	0	0	1743	1264	3715	72
73	0	0	1634	1265	3715	72
74	0	0	1528	1265	3715	72
75	0	0	1461	1266	3714	74
76	0	0	1472	1271	3715	73
77	0	0	1500	1273	3715	72
78	0	0	1479	1269	3714	74
79	0	0	1425	1270	3714	71
80	0	0	1411	1273	3713	73
81	0	0	1466	1273	3713	72
82	0	0	1542	1274	3713	72
83	0	0	1573	1273	3713	68
84	0	0	1567	1273	3713	70
85	0	0	1612	1271	3714	71
86	0	0	1684	1271	3714	70
87	0	0	1748	1272	3714	71
88	0	0	1833	1270	3713	70
89	0	0	1906	1269	3714	69
90	0	0	1923	1268	3714	72
91	0	0	1929	1270	3713	73
92	0	0	1869	1266	3715	73
93	0	0	1757	1266	3715	71
94	0	0	1654	1266	3714	73
95	0	0	1562	1267	3715	73
96	0	0	1459	1267	3713	73
97	0	0	1391	1269	3714	75
98	0	0	1353	1269	3712	73
99	0	0	1359	1271	3713	72
100	0	0	1382	1273	3713	73
101	0	0	1419	1275	3713	73
102	0	0	1508	1275	3715	72
103	0	0	1611	1273	3714	70
104	0	0	1681	1272	3714	70
105	0	0	1731	1270	3715	72
106	0	0	1769	1272	3714	71
107	0	0	1805	1272	3714	70
108	0	0	1866	1270	3714	69
109	0	0	1936	1270	3713	69
110	0	0	1968	1270	3714	71
111	0	0	1939	1265	3715	72
112	0	0	1902	1267	3715	73
113	0	0	1854	1266	3715	76
114	0	0	1804	1266	3715	73
115	0	0	1715	1266	3714	73
116	0	0	1607	1267	3713	71
117	0	0	1504	1268	3713	74
118	0	0	1420	1269	3713	73
119	0	0	1398	1272	3712	75
120	0	0	1435	1274	3713	73
121	0	0	1451	1272	3715	72
122	0	0	1492	1275	3715	71
123	0	0	1596	1274	3716	70
124	0	0	1722	1271	3715	70
125	0	0	1844	1272	3715	71
126	0	0	1945	1274	3713	71
127	0	0	1980	1272	3714	70
0	0	0	2002	1270	3713	67
1	0	0	2005	1269	3712	71
2	0	0	1992	1268	3713	72
3	0	0	1970	1268	3714	73
4	0	0	1927	1267	3714	73
5	0	0	1869	1266	3715	76
6	0	0	1826	1267	3713	71
7	0	0	1773	1266	3715	73
8	0	0	1667	1266	3713	74
9	0	0	1574	1269	3714	73
10	0	0	1525	1270	3713	71
11	0	0	1533	1273	3713	73
12	0	0	1551	1274	3714	73
13	0	0	1541	1274	3714	74
14	0	0	1547	1275	3715	71
15	0	0	1610	1274	3716	71
16	0	0	1716	1272	3713	71
17	0	0	1841	1272	3713	71
18	0	0	1922	1272	3713	70
19	0	0	1962	1271	3714	71
20	0	0	2014	1271	3714	71
21	0	0	2047	1270	3712	69
22	0	0	2074	1269	3713	73
23	0	0	2071	1267	3713	72
24	0	0	2011	1266	3714	72
25	0	0	1927	1266	3715	74
26	0	0	1841	1267	3714	72
27	0	0	1761	1266	3715	73
28	0	0	1659	1267	3715	74
29	0	0	1576	1269	3715	72
30	0	0	1530	1270	3715	74
31	0	0	1540	1273	3712	71
32	0	0	1592	1274	3714	72
33	0	0	1695	1274	3715	72
34	0	0	1807	1274	3716	72
35	0	0	1882	1275	3715	71
36	0	0	1917	1273	3716	70
37	0	0	1928	1274	3714	71
38	0	0	1954	1273	3714	71
39	0	0	1987	1272	3714	69
40	0	0	2034	1272	3714	71
41	0	0	2096	1271	3714	71
42	0	0	2140	1270	3714	71
43	0	0	2116	1267	3715	72
44	0	0	2052	1267	3716	71
45	0	0	1971	1267	3716	73
46	0	0	1892	1268	3717	73
47	0	0	1821	1268	3715	74
48	0	0	1786	1269	3714	72
49	0	0	1751	1269	3714	74
50	0	0	1696	1270	3714	75
51	0	0	1673	1274	3712	72
52	0	0	1699	1275	3713	73
53	0	0	1751	1274	3713	73
54	0	0	1816	1275	3714	72
55	0	0	1874	1274	3714	71
56	0	0	1940	1274	3716	71
57	0	0	2014	1273	3711	72
58	0	0	2074	1273	3714	71
59	0	0	2110	1271	3714	70
60	0	0	2133	1271	3715	71
61	0	0	2142	1270	3714	69
62	0	0	2153	1271	3715	71
63	0	0	2132	1267	3715	72
64	0	0	2062	1267	3716	73
65	0	0	1973	1267	3715	73
66	0	0	1895	1268	3716	73
67	0	0	1845	1269	3714	73
68	0	0	1847	1273	3713	73
69	0	0	1871	1271	3711	75
70	0	0	1862	1271	3714	71
71	0	0	1853	1274	3714	72
72	0	0	1852	1274	3713	73
73	0	0	1851	1275	3714	72
74	0	0	1865	1273	3715	72
75	0	0	1884	1275	3716	72
76	0	0	1920	1274	3715	71
77	0	0	1985	1274	3716	70
78	0	0	2064	1273	3715	70
79	0	0	2137	1268	3715	69
80	0	0	2223	1272	3715	72
81	0	0	2283	1270	3716	71
82	0	0	2279	1269	3714	71
83	0	0	2247	1267	3712	74
84	0	0	2193	1266	3714	74
85	0	0	2108	1267	3715	73
86	0	0	1991	1268	3715	72
87	0	0	1910	1268	3716	74
88	0	0	1901	1273	3714	73
89	0	0	1906	1273	3713	75
90	0	0	1912	1274	3714	76
91	0	0	1936	1275	3714	73
92	0	0	1951	1274	3714	73
93	0	0	1980	1275	3715	71
94	0	0	2020	1275	3716	71
95	0	0	2095	1273	3716	71
96	0	0	2174	1273	3715	71
97	0	0	2265	1274	3716	71
98	0	0	2323	1272	3713	71
99	0	0	2335	1271	3713	71
100	0	0	2362	1271	3713	70
101	0	0	2434	1270	3715	71
102	0	0	2464	1270	3713	72
103	0	0	2430	1267	3714	73
104	0	0	2384	1267	3714	74
105	0	0	2339	1267	3715	72
106	0	0	2290	1267	3714	72
107	0	0	2243	1269	3715	73
108	0	0	2200	1269	3714	73
109	0	0	2140	1269	3713	75
110	0	0	2067	1270	3714	74
111	0	0	2032	1272	3715	72
112	0	0	2049	1274	3715	73
113	0	0	2087	1274	3716	76
114	0	0	2161	1270	3716	72
115	0	0	2226	1274	3716	69
116	0	0	2274	1273	3717	71
117	0	0	2344	1272	3714	71
118	0	0	2437	1273	3714	71
119	0	0	2527	1268	3714	70
120	0	0	2596	1270	3714	69
121	0	0	2610	1271	3715	70
122	0	0	2608	1269	3714	71
123	0	0	2571	1266	3715	75
124	0	0	2501	1265	3715	72
125	0	0	2440	1268	3716	73
126	0	0	2386	1267	3719	72
127	0	0	2320	1268	3715	74
0	0	0	2236	1267	3714	75
1	0	0	2171	1269	3714	74
2	0	0	2131	1271	3715	72
3	0	0	2116	1271	3714	72
4	0	0	2124	1273	3714	73
5	0	0	2168	1274	3714	73
6	0	0	2234	1273	3714	69
7	0	0	2264	1273	3715	72
8	0	0	2306	1273	3715	71
9	0	0	2372	1272	3715	69
10	0	0	2454	1272	3711	73
11	0	0	2529	1268	3714	70
12	0	0	2591	1271	3713	71
13	0	0	2626	1270	3715	71
14	0	0	2602	1266	3714	75
15	0	0	2546	1266	3716	76
16	0	0	2488	1263	3715	73
17	0	0	2406	1267	3716	72
18	0	0	2316	1266	3715	73
19	0	0	2267	1268	3715	74
20	0	0	2273	1271	3714	74
21	0	0	2287	1270	3715	74
22	0	0	2265	1273	3714	76
23	0	0	2281	1272	3713	71
24	0	0	2317	1273	3713	73
25	0	0	2371	1273	3713	72
26	0	0	2435	1273	3714	72
27	0	0	2480	1274	3715	71
28	0	0	2542	1272	3714	70
29	0	0	2610	1273	3715	70
30	0	0	2680	1272	3715	70
31	0	0	2763	1269	3714	67
32	0	0	2804	1270	3715	71
33	0	0	2784	1267	3715	70
34	0	0	2706	1265	3714	72
35	0	0	2639	1265	3716	75
36	0	0	2576	1265	3715	72
37	0	0	2509	1267	3715	72
38	0	0	2463	1268	3715	76
39	0	0	2438	1270	3717	74
40	0	0	2430	1271	3715	72
41	0	0	2397	1268	3713	73
42	0	0	2345	1271	3713	75
43	0	0	2366	1272	3713	74
44	0	0	2430	1272	3713	73
45	0	0	2467	1273	3714	71
46	0	0	2498	1272	3715	71
47	0	0	2539	1272	3715	74
48	0	0	2610	1271	3715	70
49	0	0	2684	1272	3715	71
50	0	0	2721	1271	3715	68
51	0	0	2729	1271	3716	70
52	0	0	2735	1271	3714	71
53	0	0	2753	1270	3715	70
54	0	0	2750	1268	3714	72
55	0	0	2714	1265	3715	75
56	0	0	2656	1263	3714	73
57	0	0	2605	1265	3715	76
58	0	0	2536	1266	3714	74
59	0	0	2443	1265	3714	74
60	0	0	2336	1265	3714	73
61	0	0	2264	1268	3712	75
62	0	0	2239	1272	3713	76
63	0	0	2244	1272	3713	76
64	0	0	2265	1272	3714	73
65	0	0	2311	1271	3714	72
66	0	0	2372	1272	3715	72
67	0	0	2427	1272	3716	71
68	0	0	2473	1271	3715	73
69	0	0	2568	1272	3716	70
70	0	0	2677	1273	3715	71
71	0	0	2761	1269	3712	71
72	0	0	2818	1269	3714	71
73	0	0	2825	1267	3713	71
74	0	0	2812	1268	3713	72
75	0	0	2764	1263	3713	72
76	0	0	2667	1264	3713	73
77	0	0	2577	1264	3715	75
78	0	0	2513	1266	3714	75
79	0	0	2474	1266	3713	73
80	0	0	2415	1265	3714	74
81	0	0	2333	1268	3714	72
82	0	0	2267	1268	3714	76
83	0	0	2255	1271	3714	74
84	0	0	2278	1272	3714	73
85	0	0	2333	1271	3715	73
86	0	0	2407	1273	3715	72
87	0	0	2440	1273	3716	74
88	0	0	2460	1270	3713	73
89	0	0	2504	1270	3714	71
90	0	0	2547	1268	3713	70
91	0	0	2585	1270	3713	72
92	0	0	2634	1268	3713	74
93	0	0	2674	1268	3713	73
94	0	0	2678	1267	3713	72
95	0	0	2632	1263	3714	72
96	0	0	2567	1265	3714	72
97	0	0	2486	1265	3715	76
98	0	0	2412	1263	3715	75
99	0	0	2331	1265	3715	73
100	0	0	2285	1265	3715	73
101	0	0	2248	1266	3715	74
102	0	0	2205	1266	3715	73
103	0	0	2211	1271	3716	75
104	0	0	2275	1272	3715	72
105	0	0	2361	1272	3716	75
106	0	0	2440	1269	3714	71
107	0	0	2508	1271	3715	70
108	0	0	2574	1270	3714	71
109	0	0	2649	1271	3715	70
110	0	0	2726	1270	3712	70
111	0	0	2817	1269	3713	69
112	0	0	2949	1268	3714	69
113	0	0	3060	1267	3713	71
114	0	0	3097	1266	3713	71
115	0	0	3058	1264	3714	72
116	0	0	3017	1268	3716	76
117	0	0	3014	1268	3716	73
118	0	0	3043	1268	3715	74
119	0	0	3071	1268	3715	73
120	0	0	3064	1269	3715	72
121	0	0	3049	1270	3715	78
122	0	0	3055	1271	3714	73
123	0	0	3086	1271	3713	75
124	0	0	3123	1271	3713	72
125	0	0	3155	1271	3714	71
126	0	0	3188	1271	3715	71
127	0	0	3246	1268	3715	70
0	0	0	3312	1270	3715	71
1	0	0	3364	1270	3714	71
2	0	0	3367	1269	3713	69
3	0	0	3296	1266	3715	68
4	0	0	3234	1266	3715	70
5	0	0	3195	1265	3715	71
6	0	0	3126	1263	3714	72
7	0	0	3017	1263	3716	69
8	0	0	2858	1262	3715	71
9	0	0	2667	1262	3715	73
10	0	0	2491	1262	3715	72
11	0	0	2335	1263	3714	75
12	0	0	2194	1263	3713	74
13	0	0	2094	1266	3714	76
14	0	0	2024	1267	3713	72
15	0	0	1957	1266	3713	71
16	0	0	1921	1268	3713	73
17	0	0	1924	1270	3713	71
18	0	0	1973	1268	3716	75
19	0	0	2023	1270	3715	70
20	0	0	2039	1269	3715	72
21	0	0	2032	1269	3715	71
22	0	0	2038	1268	3715	67
23	0	0	2089	1268	3715	70
24	0	0	2179	1264	3715	70
25	0	0	2251	1267	3715	69
26	0	0	2233	1262	3714	71
27	0	0	2169	1262	3714	73
28	0	0	2120	1264	3715	72
29	0	0	2067	1263	3715	73
30	0	0	2015	1263	3714	73
31	0	0	1967	1265	3715	71
32	0	0	1925	1266	3714	72
33	0	0	1884	1265	3714	73
34	0	0	1833	1266	3714	72
35	0	0	1819	1270	3713	71
36	0	0	1846	1271	3712	74
37	0	0	1913	1269	3714	72
38	0	0	2010	1267	3715	71
39	0	0	2093	1269	3716	72
40	0	0	2145	1268	3715	71
41	0	0	2221	1268	3715	70
42	0	0	2306	1268	3716	67
43	0	0	2352	1267	3715	68
44	0	0	2368	1265	3714	71
45	0	0	2365	1266	3714	70
46	0	0	2323	1263	3713	72
47	0	0	2279	1262	3713	73
48	0	0	2231	1263	3714	72
49	0	0	2168	1263	3715	72
50	0	0	2132	1264	3714	73
51	0	0	2096	1264	3714	74
52	0	0	2053	1265	3714	73
53	0	0	2023	1268	3714	72
54	0	0	2015	1269	3714	73
55	0	0	2033	1269	3711	73
56	0	0	2036	1268	3715	73
57	0	0	2008	1268	3715	73
58	0	0	2008	1271	3715	72
59	0	0	2043	1269	3716	72
60	0	0	2110	1268	3715	71
61	0	0	2180	1267	3715	71
62	0	0	2236	1268	3715	68
63	0	0	2307	1267	3714	71
64	0	0	2375	1263	3714	70
65	0	0	2411	1265	3713	69
66	0	0	2424	1266	3713	71
67	0	0	2405	1263	3715	69
68	0	0	2346	1262	3716	71
69	0	0	2265	1261	3715	73
70	0	0	2196	1264	3714	72
71	0	0	2145	1264	3716	73
72	0	0	2097	1265	3715	71
73	0	0	2066	1267	3715	72
74	0	0	2040	1266	3715	73
75	0	0	2023	1267	3714	72
76	0	0	2004	1267	3713	73
77	0	0	1994	1268	3714	71
78	0	0	1996	1267	3715	72
79	0	0	2022	1268	3715	71
80	0	0	2065	1268	3714	70
81	0	0	2113	1269	3713	71
82	0	0	2175	1267	3716	71
83	0	0	2248	1263	3713	70
84	0	0	2328	1264	3714	70
85	0	0	2397	1265	3715	71
86	0	0	2415	1267	3714	71
87	0	0	2403	1263	3715	70
88	0	0	2352	1262	3716	75
89	0	0	2297	1262	3716	73
90	0	0	2243	1262	3715	72
91	0	0	2160	1262	3715	73
92	0	0	2058	1263	3716	74
93	0	0	1971	1265	3714	73
94	0	0	1934	1265	3714	75
95	0	0	1944	1268	3713	72
96	0	0	1967	1268	3714	71
97	0	0	1999	1270	3714	71
98	0	0	2017	1270	3714	70
99	0	0	2057	1268	3714	72
100	0	0	2162	1267	3714	72
101	0	0	2272	1265	3714	70
102	0	0	2322	1267	3714	70
103	0	0	2328	1265	3715	71
104	0	0	2340	1264	3714	70
105	0	0	2363	1264	3714	72
106	0	0	2370	1263	3714	72
107	0	0	2363	1265	3716	72
108	0	0	2355	1263	3715	72
109	0	0	2275	1260	3715	71
110	0	0	2164	1261	3714	72
111	0	0	2070	1261	3714	73
112	0	0	2010	1263	3711	74
113	0	0	1979	1262	3713	74
114	0	0	1951	1264	3714	75
115	0	0	1951	1267	3713	72
116	0	0	1961	1270	3714	72
117	0	0	1990	1270	3714	70
118	0	0	2064	1269	3714	71
119	0	0	2157	1269	3715	70
120	0	0	2189	1267	3715	72
121	0	0	2180	1265	3716	71
122	0	0	2176	1266	3715	72
123	0	0	2189	1264	3715	70
124	0	0	2254	1264	3715	70
125	0	0	2316	1264	3715	72
126	0	0	2328	1264	3713	71
127	0	0	2280	1262	3714	72
0	0	0	2258	1260	3714	72
1	0	0	2209	1261	3715	72
2	0	0	2124	1261	3714	75
3	0	0	2060	1263	3711	74
4	0	0	2043	1265	3713	72
5	0	0	2030	1264	3714	73
6	0	0	2011	1267	3713	73
7	0	0	2042	1267	3715	72
8	0	0	2091	1267	3714	73
9	0	0	2077	1265	3714	72
10	0	0	2026	1265	3715	73
11	0	0	2023	1267	3716	75
12	0	0	2085	1266	3715	71
13	0	0	2180	1265	3715	71
14	0	0	2252	1266	3711	71
15	0	0	2314	1266	3714	71
16	0	0	2399	1264	3714	71
17	0	0	2442	1263	3713	71
18	0	0	2437	1263	3713	73
19	0	0	2379	1260	3711	72
20	0	0	2316	1261	3714	73
21	0	0	2294	1263	3715	72
22	0	0	2246	1260	3714	71
23	0	0	2151	1260	3714	73
24	0	0	2029	1262	3714	74
25	0	0	1963	1261	3715	73
26	0	0	1927	1264	3714	73
27	0	0	1924	1267	3714	74
28	0	0	1973	1268	3714	72
29	0	0	2034	1267	3716	72
30	0	0	2092	1266	3716	71
31	0	0	2126	1267	3715	71
32	0	0	2149	1266	3714	71
33	0	0	2192	1266	3713	71
34	0	0	2228	1263	3714	70
35	0	0	2251	1264	3713	71
36	0	0	2308	1265	3713	72
37	0	0	2364	1263	3713	71
38	0	0	2384	1263	3713	72
39	0	0	2378	1262	3714	72
40	0	0	2325	1259	3714	74
41	0	0	2276	1261	3715	72
42	0	0	2222	1260	3715	71
43	0	0	2157	1261	3715	73
44	0	0	2088	1259	3715	74
45	0	0	2044	1263	3714	75
46	0	0	2011	1263	3715	73
47	0	0	1965	1266	3713	71
48	0	0	1952	1267	3713	73
49	0	0	1961	1267	3715	72
50	0	0	1990	1267	3715	71
51	0	0	2032	1267	3715	71
52	0	0	2098	1266	3715	70
53	0	0	2180	1266	3715	71
54	0	0	2264	1265	3716	70
55	0	0	2309	1266	3714	69
56	0	0	2343	1265	3714	70
57	0	0	2343	1263	3715	71
58	0	0	2304	1258	3714	71
59	0	0	2268	1262	3715	72
60	0	0	2245	1261	3716	72
61	0	0	2221	1262	3716	72
62	0	0	2172	1260	3716	74
63	0	0	2095	1259	3715	74
64	0	0	2027	1260	3714	74
65	0	0	1969	1262	3713	75
66	0	0	1907	1262	3713	72
67	0	0	1856	1264	3713	71
68	0	0	1870	1267	3715	71
69	0	0	1904	1266	3714	74
70	0	0	1958	1265	3713	71
71	0	0	2021	1267	3714	72
72	0	0	2082	1266	3714	71
73	0	0	2127	1265	3714	70
74	0	0	2191	1264	3715	70
75	0	0	2259	1264	3714	69
76	0	0	2309	1262	3714	71
77	0	0	2349	1263	3715	70
78	0	0	2357	1262	3714	71
79	0	0	2340	1262	3715	72
80	0	0	2297	1259	3714	71
81	0	0	2234	1259	3715	72
82	0	0	2169	1260	3714	71
83	0	0	2115	1261	3714	74
84	0	0	2071	1261	3714	73
85	0	0	2055	1263	3712	71
86	0	0	2013	1263	3713	73
87	0	0	1956	1261	3713	67
88	0	0	1924	1264	3713	73
89	0	0	1934	1267	3713	71
90	0	0	1975	1266	3713	71
91	0	0	2027	1266	3715	71
92	0	0	2088	1265	3715	67
93	0	0	2174	1265	3716	70
94	0	0	2255	1266	3714	70
95	0	0	2293	1263	3714	69
96	0	0	2323	1261	3715	71
97	0	0	2374	1263	3714	72
98	0	0	2409	1262	3715	70
99	0	0	2401	1261	3714	76
100	0	0	2343	1260	3714	72
101	0	0	2241	1258	3715	73
102	0	0	2119	1259	3713	69
103	0	0	2030	1259	3714	74
104	0	0	1991	1261	3715	73
105	0	0	1965	1262	3714	73
106	0	0	1943	1264	3714	72
107	0	0	1960	1266	3713	72
108	0	0	1987	1266	3714	73
109	0	0	2024	1265	3714	73
110	0	0	2075	1269	3713	72
111	0	0	2119	1265	3716	71
112	0	0	2188	1264	3715	68
113	0	0	2252	1267	3714	70
114	0	0	2292	1263	3716	71
115	0	0	2330	1263	3713	69
116	0	0	2380	1260	3713	71
117	0	0	2439	1261	3713	70
118	0	0	2486	1261	3713	72
119	0	0	2476	1258	3715	72
120	0	0	2396	1257	3715	72
121	0	0	2279	1257	3715	73
122	0	0	2188	1258	3714	72
123	0	0	2113	1260	3715	74
124	0	0	2037	1260	3714	74
125	0	0	1985	1261	3712	72
126	0	0	1941	1260	3715	73
127	0	0	1901	1260	3711	72
0	0	0	1892	1265	3715	72
1	0	0	1917	1267	3715	71
2	0	0	1972	1265	3714	71
3	0	0	2039	1264	3716	71
4	0	0	2122	1265	3714	70
5	0	0	2185	1264	3714	69
6	0	0	2226	1264	3714	70
7	0	0	2265	1263	3713	70
8	0	0	2307	1261	3713	70
9	0	0	2343	1261	3713	71
10	0	0	2351	1261	3712	71
11	0	0	2316	1258	3714	72
12	0	0	2263	1259	3713	71
13	0	0	2199	1258	3715	73
14	0	0	2133	1258	3714	72
15	0	0	2068	1258	3716	73
16	0	0	2006	1260	3713	72
17	0	0	1958	1261	3713	74
18	0	0	1925	1261	3715	73
19	0	0	1924	1265	3713	72
20	0	0	1956	1264	3713	72
21	0	0	1967	1263	3715	71
22	0	0	1933	1263	3713	70
23	0	0	1932	1266	3714	72
24	0	0	1971	1264	3715	70
25	0	0	2012	1264	3711	72
26	0	0	2048	1263	3713	68
27	0	0	2074	1263	3712	72
28	0	0	2096	1261	3713	71
29	0	0	2131	1261	3713	72
30	0	0	2172	1261	3715	71
31	0	0	2178	1263	3714	70
32	0	0	2148	1258	3715	74
33	0	0	2103	1259	3716	73
34	0	0	2051	1258	3714	73
35	0	0	1979	1258	3716	71
36	0	0	1891	1257	3715	73
37	0	0	1828	1259	3714	76
38	0	0	1772	1260	3713	74
39	0	0	1739	1260	3713	74
40	0	0	1751	1264	3713	73
41	0	0	1789	1266	3713	72
42	0	0	1765	1261	3713	72
43	0	0	1731	1263	3715	71
44	0	0	1787	1263	3714	71
45	0	0	1903	1263	3715	71
46	0	0	1996	1262	3713	71
47	0	0	2058	1261	3715	72
48	0	0	2095	1263	3714	70
49	0	0	2088	1260	3714	71
50	0	0	2060	1257	3714	72
51	0	0	2011	1256	3715	73
52	0	0	1965	1257	3715	72
53	0	0	1887	1257	3716	73
54	0	0	1807	1257	3714	73
55	0	0	1732	1257	3714	71
56	0	0	1670	1260	3714	73
57	0	0	1623	1259	3713	75
58	0	0	1566	1261	3713	74
59	0	0	1541	1261	3713	72
60	0	0	1525	1260	3713	73
61	0	0	1520	1263	3714	72
62	0	0	1561	1266	3715	71
63	0	0	1620	1264	3715	71
64	0	0	1674	1263	3714	71
65	0	0	1716	1260	3715	71
66	0	0	1756	1258	3715	71
67	0	0	1838	1261	3717	71
68	0	0	1929	1263	3714	70
69	0	0	1988	1259	3714	70
70	0	0	2029	1259	3714	71
71	0	0	2025	1259	3713	72
72	0	0	1972	1256	3715	73
73	0	0	1901	1256	3716	73
74	0	0	1829	1256	3714	73
75	0	0	1725	1256	3714	75
76	0	0	1605	1255	3715	73
77	0	0	1512	1258	3713	75
78	0	0	1460	1261	3714	69
79	0	0	1477	1263	3714	72
80	0	0	1519	1263	3713	73
81	0	0	1555	1264	3714	72
82	0	0	1617	1263	3716	74
83	0	0	1692	1265	3716	72
84	0	0	1738	1263	3715	71
85	0	0	1779	1259	3715	71
86	0	0	1805	1263	3714	70
87	0	0	1862	1261	3716	71
88	0	0	1953	1260	3714	70
89	0	0	2023	1259	3713	72
90	0	0	2037	1258	3713	72
91	0	0	2003	1256	3713	73
92	0	0	1935	1256	3714	73
93	0	0	1829	1257	3714	73
94	0	0	1740	1256	3714	73
95	0	0	1679	1256	3714	72
96	0	0	1625	1257	3714	75
97	0	0	1558	1258	3715	73
98	0	0	1515	1259	3714	73
99	0	0	1524	1262	3714	73
100	0	0	1557	1262	3714	74
101	0	0	1600	1263	3715	73
102	0	0	1651	1264	3715	71
103	0	0	1691	1264	3715	71
104	0	0	1721	1262	3714	71
105	0	0	1750	1261	3714	71
106	0	0	1815	1263	3713	70
107	0	0	1875	1260	3713	70
108	0	0	1911	1260	3713	70
109	0	0	1938	1259	3713	71
110	0	0	1916	1255	3713	71
111	0	0	1895	1258	3713	72
112	0	0	1887	1257	3715	71
113	0	0	1824	1256	3715	72
114	0	0	1732	1255	3715	73
115	0	0	1649	1256	3715	75
116	0	0	1594	1259	3714	73
117	0	0	1571	1259	3715	75
118	0	0	1546	1258	3714	73
119	0	0	1541	1263	3714	73
120	0	0	1562	1262	3713	73
121	0	0	1584	1262	3714	74
122	0	0	1591	1263	3715	71
123	0	0	1597	1262	3714	71
124	0	0	1633	1262	3715	70
125	0	0	1702	1262	3714	71
126	0	0	1758	1260	3714	71
127	0	0	1824	1260	3714	70
0	0	0	1911	1259	3714	68
1	0	0	1966	1258	3713	71
2	0	0	1972	1256	3715	71
3	0	0	1935	1255	3713	71
4	0	0	1876	1254	3716	73
5	0	0	1796	1253	3715	73
6	0	0	1710	1254	3717	73
7	0	0	1617	1254	3715	74
8	0	0	1551	1256	3714	74
9	0	0	1513	1257	3716	75
10	0	0	1452	1257	3713	73
11	0	0	1428	1262	3713	73
12	0	0	1476	1260	3714	76
13	0	0	1541	1262	3713	73
14	0	0	1628	1263	3714	69
15	0	0	1697	1260	3714	71
16	0	0	1748	1261	3714	71
17	0	0	1819	1260	3714	71
18	0	0	1867	1260	3715	71
19	0	0	1891	1259	3714	70
20	0	0	1933	1258	3714	71
21	0	0	1960	1258	3715	71
22	0	0	1946	1257	3714	71
23	0	0	1928	1255	3714	73
24	0	0	1881	1254	3716	73
25	0	0	1814	1254	3715	71
26	0	0	1742	1254	3714	72
27	0	0	1677	1255	3714	74
28	0	0	1620	1255	3714	73
29	0	0	1580	1257	3714	73
30	0	0	1560	1257	3713	76
31	0	0	1545	1259	3711	75
32	0	0	1544	1262	3713	73
33	0	0	1568	1260	3714	72
34	0	0	1586	1262	3716	72
35	0	0	1610	1262	3716	71
36	0	0	1664	1261	3715	71
37	0	0	1759	1260	3716	71
38	0	0	1846	1259	3716	69
39	0	0	1903	1259	3716	70
40	0	0	1953	1257	3714	70
41	0	0	1973	1257	3714	72
42	0	0	1963	1254	3715	75
43	0	0	1910	1253	3713	73
44	0	0	1815	1254	3714	71
45	0	0	1715	1254	3715	72
46	0	0	1630	1254	3714	73
47	0	0	1559	1255	3714	73
48	0	0	1544	1258	3714	72
49	0	0	1549	1258	3714	73
50	0	0	1538	1260	3713	72
51	0	0	1579	1260	3713	73
52	0	0	1622	1260	3713	72
53	0	0	1626	1260	3715	73
54	0	0	1664	1262	3716	72
55	0	0	1718	1261	3716	71
56	0	0	1766	1260	3715	71
57	0	0	1806	1261	3715	70
58	0	0	1837	1257	3714	70
59	0	0	1839	1259	3711	69
60	0	0	1852	1257	3713	71
61	0	0	1888	1257	3713	71
62	0	0	1914	1256	3713	70
63	0	0	1919	1257	3714	72
64	0	0	1925	1257	3715	72
65	0	0	1911	1255	3714	72
66	0	0	1840	1253	3714	74
67	0	0	1749	1253	3714	76
68	0	0	1623	1254	3714	74
69	0	0	1518	1257	3715	74
70	0	0	1458	1256	3713	74
71	0	0	1443	1258	3715	72
72	0	0	1458	1260	3714	73
73	0	0	1518	1258	3715	73
74	0	0	1600	1261	3716	73
75	0	0	1662	1259	3715	71
76	0	0	1713	1259	3715	70
77	0	0	1785	1259	3716	73
78	0	0	1862	1258	3714	70
79	0	0	1922	1258	3711	72
80	0	0	1978	1257	3713	70
81	0	0	2003	1256	3712	72
82	0	0	1979	1253	3713	71
83	0	0	1950	1254	3714	72
84	0	0	1908	1253	3715	72
85	0	0	1820	1251	3715	73
86	0	0	1753	1254	3716	73
87	0	0	1720	1255	3715	74
88	0	0	1693	1253	3715	74
89	0	0	1653	1255	3716	75
90	0	0	1616	1255	3714	73
91	0	0	1601	1258	3713	73
92	0	0	1607	1260	3714	73
93	0	0	1618	1260	3714	72
94	0	0	1620	1261	3715	73
95	0	0	1653	1260	3714	71
96	0	0	1729	1262	3714	71
97	0	0	1821	1259	3714	71
98	0	0	1902	1257	3714	71
99	0	0	1952	1258	3715	71
100	0	0	1982	1258	3714	70
101	0	0	2027	1256	3713	71
102	0	0	2064	1256	3714	71
103	0	0	2043	1252	3714	72
104	0	0	1950	1252	3717	74
105	0	0	1839	1251	3715	73
106	0	0	1782	1254	3715	75
107	0	0	1762	1254	3716	75
108	0	0	1716	1253	3714	72
109	0	0	1655	1255	3713	74
110	0	0	1591	1255	3715	73
111	0	0	1527	1255	3713	74
112	0	0	1489	1258	3712	73
113	0	0	1523	1260	3714	72
114	0	0	1582	1261	3715	72
115	0	0	1660	1259	3713	71
116	0	0	1750	1259	3714	72
117	0	0	1846	1260	3714	71
118	0	0	1920	1258	3715	71
119	0	0	1952	1257	3712	70
120	0	0	1991	1255	3714	70
121	0	0	2042	1254	3714	71
122	0	0	2036	1253	3715	71
123	0	0	2022	1255	3716	72
124	0	0	1975	1253	3715	73
125	0	0	1896	1251	3715	73
126	0	0	1826	1252	3716	71
127	0	0	1729	1252	3714	74
0	0	0	1642	1253	3714	73
1	0	0	1581	1254	3715	74
2	0	0	1510	1253	3713	73
3	0	0	1503	1257	3713	74
4	0	0	1566	1260	3713	73
5	0	0	1612	1259	3714	72
6	0	0	1636	1259	3714	72
7	0	0	1686	1257	3715	71
8	0	0	1732	1258	3714	71
9	0	0	1794	1257	3715	68
10	0	0	1864	1258	3716	67
11	0	0	1955	1256	3715	71
12	0	0	2086	1257	3715	70
13	0	0	2166	1255	3714	71
14	0	0	2148	1250	3714	69
15	0	0	2082	1251	3714	71
16	0	0	1988	1251	3715	72
17	0	0	1908	1249	3715	73
18	0	0	1833	1253	3715	72
19	0	0	1749	1250	3715	73
20	0	0	1694	1254	3714	75
21	0	0	1671	1255	3714	72
22	0	0	1633	1252	3714	72
23	0	0	1601	1257	3714	73
24	0	0	1620	1260	3713	73
25	0	0	1680	1259	3714	73
26	0	0	1745	1259	3713	72
27	0	0	1815	1257	3715	71
28	0	0	1887	1257	3715	71
29	0	0	1945	1259	3714	70
30	0	0	1977	1257	3715	68
31	0	0	2002	1256	3713	70
32	0	0	2052	1254	3714	71
33	0	0	2131	1255	3713	71
34	0	0	2172	1251	3713	70
35	0	0	2133	1251	3714	69
36	0	0	2052	1251	3712	73
37	0	0	1959	1250	3715	71
38	0	0	1862	1251	3714	73
39	0	0	1779	1253	3716	73
40	0	0	1724	1253	3716	74
41	0	0	1702	1256	3713	75
42	0	0	1701	1256	3714	73
43	0	0	1709	1258	3714	73
44	0	0	1714	1256	3716	75
45	0	0	1718	1258	3715	69
46	0	0	1736	1258	3716	72
47	0	0	1778	1256	3715	72
48	0	0	1811	1257	3715	71
49	0	0	1859	1257	3714	71
50	0	0	1903	1256	3714	72
51	0	0	1950	1255	3713	69
52	0	0	2024	1254	3714	70
53	0	0	2113	1253	3713	72
54	0	0	2156	1251	3713	70
55	0	0	2111	1251	3715	73
56	0	0	2005	1250	3716	72
57	0	0	1905	1248	3716	73
58	0	0	1867	1253	3715	74
59	0	0	1865	1252	3715	74
60	0	0	1809	1252	3715	73
61	0	0	1744	1253	3715	75
62	0	0	1678	1250	3714	73
63	0	0	1636	1254	3714	73
64	0	0	1637	1257	3714	73
65	0	0	1645	1259	3711	73
66	0	0	1676	1258	3714	71
67	0	0	1693	1258	3714	109
68	0	0	1727	1256	3714	524
69	0	0	1798	1257	3715	1246
70	0	0	1881	1256	3715	1960
71	0	0	1955	1255	3713	2525
72	0	0	2034	1253	3714	2922
73	0	0	2080	1253	3713	3187
74	0	0	2110	1252	3716	3373
75	0	0	2135	1254	3716	3500
76	0	0	2100	1249	3714	3594
77	0	0	2003	1249	3716	3663
78	0	0	1888	1249	3715	3711
79	0	0	1811	1251	3717	3755
80	0	0	1785	1252	3714	3786
81	0	0	1793	1255	3714	3809
82	0	0	1741	1250	3715	3830
83	0	0	1673	1252	3713	3847
84	0	0	1671	1256	3713	3861
85	0	0	1687	1256	3713	3874
86	0	0	1698	1256	3715	3884
87	0	0	1736	1255	3715	3893
88	0	0	1790	1256	3714	3900
89	0	0	1852	1254	3714	3907
90	0	0	1912	1254	3714	3915
91	0	0	1946	1254	3715	3919
92	0	0	2010	1252	3715	3924
93	0	0	2084	1252	3715	3929
94	0	0	2127	1250	3714	3931
95	0	0	2076	1248	3714	3935
96	0	0	1987	1247	3716	3937
97	0	0	1896	1249	3715	3942
98	0	0	1829	1250	3714	3943
99	0	0	1772	1251	3714	3946
100	0	0	1731	1250	3714	3948
101	0	0	1680	1250	3714	3950
102	0	0	1644	1252	3714	3953
103	0	0	1662	1258	3712	3954
104	0	0	1723	1255	3713	3955
105	0	0	1767	1255	3715	3957
106	0	0	1756	1252	3712	3958
107	0	0	1710	1252	3716	3961
108	0	0	1719	1255	3715	3961
109	0	0	1768	1253	3717	3963
110	0	0	1822	1254	3716	3962
111	0	0	1858	1253	3714	3963
112	0	0	1892	1252	3715	3967
113	0	0	1934	1249	3712	3968
114	0	0	1965	1250	3714	3968
115	0	0	1986	1251	3715	3969
116	0	0	1966	1249	3713	3969
117	0	0	1925	1247	3715	3970
118	0	0	1866	1248	3714	3970
119	0	0	1760	1248	3714	3971
120	0	0	1659	1249	3715	3972
121	0	0	1582	1249	3714	3971
122	0	0	1507	1251	3714	3975
123	0	0	1445	1251	3713	3975
124	0	0	1442	1255	3712	3976
125	0	0	1483	1255	3714	3976
126	0	0	1567	1255	3715	3977
127	0	0	1675	1254	3716	3976
0	0	0	1781	1255	3715	3977
1	0	0	1874	1252	3715	3978
2	0	0	1925	1252	3715	3978
3	0	0	1957	1252	3713	3976
4	0	0	2030	1253	3713	3979
5	0	0	2079	1250	3713	3979
6	0	0	2041	1247	3713	3979
7	0	0	1977	1246	3714	3980
8	0	0	1920	1248	3714	3980
9	0	0	1879	1247	3714	3981
10	0	0	1847	1247	3714	3981
11	0	0	1800	1247	3714	3982
12	0	0	1733	1248	3713	3980
13	0	0	1680	1248	3715	3980
14	0	0	1648	1250	3715	3983
15	0	0	1618	1251	3714	3979
16	0	0	1627	1253	3715	3984
17	0	0	1688	1255	3714	3983
18	0	0	1765	1253	3716	3983
19	0	0	1836	1253	3715	3985
20	0	0	1916	1252	3714	3984
21	0	0	1984	1253	3714	3984
22	0	0	2050	1253	3713	3986
23	0	0	2078	1251	3715	3985
24	0	0	2037	1247	3712	3986
25	0	0	2011	1248	3713	3985
26	0	0	2005	1249	3713	3985
27	0	0	1988	1247	3714	3986
28	0	0	1930	1246	3714	3986
29	0	0	1838	1246	3715	3986
30	0	0	1780	1247	3716	3988
31	0	0	1720	1245	3715	3986
32	0	0	1665	1247	3716	3987
33	0	0	1644	1251	3715	3985
34	0	0	1659	1253	3715	3989
35	0	0	1640	1250	3714	3986
36	0	0	1608	1250	3713	3987
37	0	0	1603	1253	3714	3988
38	0	0	1632	1255	3715	3989
39	0	0	1695	1254	3715	3988
40	0	0	1792	1253	3714	3988
41	0	0	1893	1251	3714	3988
42	0	0	1951	1251	3714	3988
43	0	0	1992	1251	3713	3987
44	0	0	2040	1250	3713	3990
45	0	0	2057	1248	3714	3987
46	0	0	2029	1246	3714	3989
47	0	0	1998	1245	3715	3990
48	0	0	1971	1246	3714	3989
49	0	0	1923	1245	3716	3991
50	0	0	1839	1245	3715	3990
51	0	0	1778	1247	3713	3991
52	0	0	1776	1251	3715	3991
53	0	0	1754	1249	3715	3990
54	0	0	1697	1248	3713	3991
55	0	0	1657	1250	3711	3992
56	0	0	1635	1252	3713	3991
57	0	0	1667	1255	3713	3990
58	0	0	1721	1252	3714	3992
59	0	0	1743	1251	3715	3992
60	0	0	1785	1252	3714	3990
61	0	0	1873	1250	3715	3991
62	0	0	1957	1250	3714	3991
63	0	0	2036	1249	3715	3990
64	0	0	2097	1248	3715	3992
65	0	0	2135	1248	3714	3992
66	0	0	2168	1247	3712	3992
67	0	0	2166	1250	3715	3991
68	0	0	2142	1245	3715	3992
69	0	0	2081	1244	3715	3992
70	0	0	1997	1245	3714	3992
71	0	0	1896	1245	3714	3992
72	0	0	1800	1246	3714	3992
73	0	0	1744	1248	3714	3994
74	0	0	1701	1248	3713	3993
75	0	0	1683	1249	3713	3992
76	0	0	1692	1252	3713	3992
77	0	0	1745	1251	3713	3993
78	0	0	1815	1252	3713	3992
79	0	0	1896	1251	3716	3994
80	0	0	1962	1251	3715	3993
81	0	0	2013	1250	3713	3993
82	0	0	2057	1250	3715	3993
83	0	0	2094	1249	3715	3993
84	0	0	2117	1248	3715	3992
85	0	0	2150	1248	3714	3993
86	0	0	2192	1246	3714	3993
87	0	0	2200	1245	3714	3993
88	0	0	2132	1244	3715	3995
89	0	0	2050	1246	3715	3994
90	0	0	2024	1248	3714	3993
91	0	0	2006	1246	3713	3993
92	0	0	1931	1244	3715	3993
93	0	0	1828	1245	3714	3996
94	0	0	1726	1247	3714	3995
95	0	0	1681	1250	3712	3994
96	0	0	1714	1251	3715	3995
97	0	0	1773	1252	3715	3995
98	0	0	1820	1251	3714	3995
99	0	0	1850	1251	3716	3996
100	0	0	1916	1250	3715	3993
101	0	0	2029	1249	3715	3994
102	0	0	2113	1248	3715	3995
103	0	0	2143	1249	3715	3996
104	0	0	2173	1248	3714	3995
105	0	0	2206	1248	3713	3994
106	0	0	2262	1249	3711	3994
107	0	0	2314	1246	3712	3995
108	0	0	2272	1243	3713	3996
109	0	0	2126	1241	3715	3996
110	0	0	1943	1243	3715	3995
111	0	0	1788	1244	3714	3995
112	0	0	1709	1245	3716	3995
113	0	0	1710	1250	3713	3996
114	0	0	1696	1248	3715	3996
115	0	0	1681	1249	3714	3995
116	0	0	1691	1251	3714	3996
117	0	0	1687	1248	3717	3995
118	0	0	1712	1251	3715	3995
119	0	0	1789	1251	3713	3997
120	0	0	1938	1250	3715	3996
121	0	0	2076	1249	3714	3996
122	0	0	2131	1248	3716	3995
123	0	0	2150	1248	3712	3996
124	0	0	2134	1246	3715	3996
125	0	0	2122	1247	3716	3993
126	0	0	2127	1247	3713	3996
127	0	0	2128	1248	3715	3995
0	0	0	2131	1247	3714	3996
1	0	0	2116	1244	3716	3997
2	0	0	2069	1244	3715	3996
3	0	0	1972	1244	3715	3996
4	0	0	1897	1245	3716	3995
5	0	0	1864	1248	3715	4000
6	0	0	1861	1251	3715	3997
7	0	0	1846	1248	3714	3995
8	0	0	1853	1252	3714	3997
9	0	0	1917	1251	3715	3998
10	0	0	1987	1251	3715	4000
11	0	0	2035	1251	3715	3998
12	0	0	2072	1250	3714	3996
13	0	0	2105	1250	3715	3997
14	0	0	2140	1249	3715	3999
15	0	0	2172	1249	3714	4000
16	0	0	2249	1248	3715	3998
17	0	0	2327	1248	3713	3996
18	0	0	2336	1244	3715	3998
19	0	0	2273	1243	3714	3996
20	0	0	2214	1244	3713	3997
21	0	0	2180	1244	3715	3997
22	0	0	2136	1244	3715	3996
23	0	0	2069	1245	3715	3996
24	0	0	2028	1246	3715	3997
25	0	0	1982	1248	3715	3998
26	0	0	1922	1247	3714	3997
27	0	0	1892	1248	3713	3997
28	0	0	1909	1252	3713	3997
29	0	0	1929	1250	3713	3997
30	0	0	1920	1252	3715	4000
31	0	0	1951	1251	3715	3998
32	0	0	2038	1250	3714	3997
33	0	0	2128	1250	3715	3996
34	0	0	2185	1249	3714	3996
35	0	0	2225	1249	3712	3997
36	0	0	2286	1248	3713	3998
37	0	0	2337	1247	3714	3997
38	0	0	2335	1246	3714	3997
39	0	0	2290	1244	3715	3998
40	0	0	2262	1245	3716	3998
41	0	0	2229	1246	3714	3998
42	0	0	2156	1243	3714	3997
43	0	0	2020	1243	3712	3998
44	0	0	1878	1246	3714	3998
45	0	0	1811	1247	3714	3998
46	0	0	1766	1247	3712	3998
47	0	0	1732	1250	3713	3997
48	0	0	1766	1251	3713	3997
49	0	0	1824	1252	3713	3998
50	0	0	1918	1252	3715	3999
51	0	0	2025	1251	3715	3999
52	0	0	2076	1250	3715	3997
53	0	0	2123	1250	3716	3999
54	0	0	2235	1250	3716	3999
55	0	0	2276	1249	3715	3998
56	0	0	2260	1246	3712	3998
57	0	0	2222	1244	3714	3998
58	0	0	2168	1244	3714	3998
59	0	0	2128	1245	3714	3998
60	0	0	2102	1245	3713	3998
61	0	0	2043	1244	3714	3998
62	0	0	1952	1244	3714	3998
63	0	0	1858	1245	3714	3998
64	0	0	1778	1245	3713	3998
65	0	0	1725	1248	3714	3997
66	0	0	1732	1251	3711	3998
67	0	0	1794	1252	3714	3999
68	0	0	1816	1252	3713	3998
69	0	0	1828	1251	3715	3999
70	0	0	1812	1250	3713	3999
71	0	0	1816	1252	3715	3996
72	0	0	1885	1249	3715	3998
73	0	0	1997	1251	3716	4000
74	0	0	2110	1250	3715	3999
75	0	0	2177	1249	3714	3999
76	0	0	2241	1248	3714	3999
77	0	0	2310	1248	3713	3997
78	0	0	2399	1247	3714	3999
79	0	0	2484	1249	3711	3998
80	0	0	2526	1249	3714	3998
81	0	0	2527	1249	3712	3999
82	0	0	2512	1249	3714	3998
83	0	0	2483	1246	3714	3998
84	0	0	2441	1248	3714	3998
85	0	0	2432	1251	3712	3998
86	0	0	2456	1252	3714	3999
87	0	0	2504	1252	3713	3999
88	0	0	2588	1253	3715	3998
89	0	0	2712	1253	3715	3999
90	0	0	2833	1253	3716	4000
91	0	0	2939	1251	3711	3999
92	0	0	3000	1251	3714	3999
93	0	0	3069	1251	3714	3998
94	0	0	3151	1251	3714	3999
95	0	0	3212	1250	3714	4000
96	0	0	3266	1247	3711	3999
97	0	0	3331	1249	3711	3998
98	0	0	3335	1245	3713	3999
99	0	0	3237	1245	3714	3999
100	0	0	3118	1244	3715	4000
101	0	0	2948	1244	3711	3999
102	0	0	2766	1245	3716	4000
103	0	0	2609	1248	3715	3997
104	0	0	2439	1247	3715	3999
105	0	0	2238	1247	3716	4000
106	0	0	2087	1247	3715	3999
107	0	0	1984	1248	3714	3999
108	0	0	1900	1247	3714	4000
109	0	0	1856	1250	3716	3999
110	0	0	1836	1251	3714	3999
111	0	0	1862	1253	3715	3999
112	0	0	1925	1252	3714	3999
113	0	0	1963	1252	3714	3999
114	0	0	1966	1250	3712	3998
115	0	0	1979	1251	3714	3999
116	0	0	2015	1250	3714	3999
117	0	0	2070	1249	3713	3999
118	0	0	2115	1248	3713	3999
119	0	0	2127	1247	3712	4000
120	0	0	2072	1245	3716	3999
121	0	0	1967	1246	3715	3999
122	0	0	1859	1245	3715	3999
123	0	0	1774	1246	3715	3999
124	0	0	1682	1246	3714	3998
125	0	0	1605	1248	3713	3998
126	0	0	1553	1247	3711	4000
127	0	0	1546	1253	3715	4000
0	0	0	1591	1253	3713	3999
1	0	0	1649	1253	3712	4000
2	0	0	1722	1253	3714	3999
3	0	0	1833	1254	3715	4001
4	0	0	1914	1253	3716	4001
5	0	0	1949	1253	3713	3999
6	0	0	2019	1252	3715	4000
7	0	0	2061	1252	3713	4000
8	0	0	2092	1249	3713	4000
9	0	0	2154	1250	3715	4001
10	0	0	2186	1252	3715	3998
11	0	0	2159	1246	3714	3999
12	0	0	2119	1246	3714	4000
13	0	0	2051	1245	3715	4000
14	0	0	1963	1244	3714	3999
15	0	0	1869	1246	3715	4000
16	0	0	1792	1248	3715	4002
17	0	0	1733	1247	3714	3999
18	0	0	1716	1253	3714	4000
19	0	0	1751	1252	3713	4000
20	0	0	1811	1253	3715	4000
21	0	0	1833	1254	3713	3999
22	0	0	1843	1253	3714	4000
23	0	0	1899	1253	3715	4000
24	0	0	1971	1250	3715	3999
25	0	0	2024	1256	3714	4001
26	0	0	2083	1252	3715	4000
27	0	0	2142	1252	3716	4001
28	0	0	2204	1250	3715	4000
29	0	0	2272	1251	3714	4000
30	0	0	2352	1248	3716	3999
31	0	0	2392	1249	3715	4000
32	0	0	2343	1246	3715	4000
33	0	0	2259	1247	3715	4000
34	0	0	2188	1246	3714	4000
35	0	0	2100	1247	3714	4001
36	0	0	2049	1249	3715	4000
37	0	0	1980	1248	3712	4000
38	0	0	1849	1248	3713	4001
39	0	0	1744	1250	3714	4001
40	0	0	1747	1253	3714	4000
41	0	0	1815	1254	3715	4000
42	0	0	1876	1254	3716	3999
43	0	0	1939	1253	3715	4000
44	0	0	2024	1251	3715	4000
45	0	0	2112	1251	3716	3999
46	0	0	2182	1253	3715	4000
47	0	0	2235	1250	3714	4000
48	0	0	2319	1250	3713	4001
49	0	0	2414	1251	3713	4000
50	0	0	2457	1252	3711	4000
51	0	0	2418	1246	3714	4000
52	0	0	2360	1246	3714	3999
53	0	0	2255	1246	3715	4001
54	0	0	2121	1247	3715	4000
55	0	0	2018	1246	3715	4001
56	0	0	1948	1248	3715	4001
57	0	0	1885	1247	3715	4000
58	0	0	1832	1250	3713	4001
59	0	0	1844	1251	3714	4000
60	0	0	1864	1255	3714	4000
61	0	0	1866	1255	3716	4000
62	0	0	1909	1253	3715	4001
63	0	0	1950	1253	3714	4001
64	0	0	2002	1253	3715	4000
65	0	0	2086	1251	3716	4000
66	0	0	2194	1253	3715	4001
67	0	0	2279	1250	3713	4002
68	0	0	2333	1249	3712	4001
69	0	0	2385	1247	3713	4000
70	0	0	2405	1251	3713	4000
71	0	0	2399	1249	3715	4001
72	0	0	2366	1246	3714	4001
73	0	0	2317	1246	3716	4002
74	0	0	2250	1245	3715	4000
75	0	0	2165	1247	3714	4000
76	0	0	2069	1246	3716	4001
77	0	0	1986	1248	3715	4004
78	0	0	1913	1249	3712	4001
79	0	0	1881	1251	3714	4000
80	0	0	1911	1252	3713	4000
81	0	0	1967	1253	3715	3999
82	0	0	2027	1253	3715	4001
83	0	0	2102	1252	3715	4001
84	0	0	2134	1252	3714	4000
85	0	0	2138	1251	3715	4003
86	0	0	2173	1251	3715	4001
87	0	0	2226	1250	3714	4000
88	0	0	2295	1249	3714	4001
89	0	0	2338	1249	3713	4000
90	0	0	2376	1247	3715	4003
91	0	0	2397	1249	3716	4002
92	0	0	2375	1246	3715	4001
93	0	0	2302	1244	3715	4002
94	0	0	2204	1245	3717	4002
95	0	0	2117	1246	3715	4001
96	0	0	2069	1248	3716	4001
97	0	0	2053	1249	3715	4000
98	0	0	2000	1248	3713	4002
99	0	0	1923	1247	3713	4000
100	0	0	1889	1248	3715	3999
101	0	0	1889	1252	3714	4001
102	0	0	1929	1253	3715	4000
103	0	0	1985	1247	3713	4000
104	0	0	2041	1250	3714	4000
105	0	0	2115	1250	3714	4001
106	0	0	2202	1251	3715	3999
107	0	0	2299	1248	3714	4000
108	0	0	2382	1248	3715	4001
109	0	0	2429	1249	3714	4001
110	0	0	2437	1247	3715	4003
111	0	0	2409	1246	3716	4003
112	0	0	2374	1244	3715	4000
113	0	0	2280	1243	3714	4002
114	0	0	2139	1244	3715	4001
115	0	0	2051	1245	3715	4003
116	0	0	2002	1246	3714	4000
117	0	0	1953	1246	3714	4001
118	0	0	1898	1247	3711	4001
119	0	0	1890	1251	3713	4001
120	0	0	1921	1250	3713	4000
121	0	0	1954	1249	3714	4001
122	0	0	1998	1252	3715	4002
123	0	0	2035	1250	3714	4003
124	0	0	2086	1250	3715	4001
125	0	0	2165	1250	3715	4000
126	0	0	2254	1250	3715	4000
127	0	0	2320	1248	3715	4002
0	0	0	2379	1247	3716	4001
1	0	0	2415	1247	3715	4003
2	0	0	2395	1246	3714	4002
3	0	0	2353	1241	3715	3999
4	0	0	2286	1242	3714	4002
5	0	0	2200	1243	3715	4002
6	0	0	2156	1245	3714	4000
7	0	0	2127	1244	3714	3999
8	0	0	2077	1245	3714	4000
9	0	0	2004	1245	3714	4001
10	0	0	1909	1245	3715	4002
11	0	0	1880	1250	3713	4001
12	0	0	1907	1251	3714	4000
13	0	0	1928	1247	3715	3999
14	0	0	1958	1250	3715	4000
15	0	0	2010	1249	3716	3999
16	0	0	2076	1248	3715	4000
17	0	0	2183	1249	3715	4000
18	0	0	2291	1246	3715	4001
19	0	0	2335	1247	3715	4002
20	0	0	2375	1246	3715	4001
21	0	0	2459	1246	3714	4002
22	0	0	2530	1246	3713	4000
23	0	0	2525	1244	3712	4000
24	0	0	2437	1241	3715	4001
25	0	0	2290	1241	3716	4001
26	0	0	2148	1242	3717	4000
27	0	0	2032	1242	3712	4001
28	0	0	1974	1245	3714	4001
29	0	0	1997	1248	3714	4000
30	0	0	2016	1248	3715	4000
31	0	0	2030	1249	3715	4001
32	0	0	2039	1250	3712	4002
33	0	0	2010	1246	3714	4001
34	0	0	1995	1248	3715	4002
35	0	0	2027	1248	3717	4000
36	0	0	2137	1248	3714	4001
37	0	0	2286	1248	3715	4000
38	0	0	2372	1248	3715	4002
39	0	0	2389	1245	3714	4002
40	0	0	2388	1246	3714	4002
41	0	0	2405	1244	3713	4001
42	0	0	2455	1244	3713	3999
43	0	0	2507	1243	3714	4000
44	0	0	2495	1243	3715	4003
45	0	0	2435	1240	3715	4001
46	0	0	2334	1241	3715	4001
47	0	0	2239	1243	3715	4001
48	0	0	2178	1240	3715	4001
49	0	0	2077	1244	3715	4002
50	0	0	1976	1244	3716	4001
51	0	0	1933	1246	3714	4001
52	0	0	1936	1249	3712	4002
53	0	0	1966	1249	3712	4001
54	0	0	2000	1249	3715	4000
55	0	0	2058	1249	3715	4001
56	0	0	2144	1249	3714	4001
57	0	0	2221	1247	3714	3999
58	0	0	2266	1243	3715	4001
59	0	0	2312	1247	3714	4003
60	0	0	2402	1245	3715	4001
61	0	0	2497	1245	3713	4001
62	0	0	2551	1245	3714	4001
63	0	0	2555	1242	3715	4001
64	0	0	2524	1242	3715	4003
65	0	0	2464	1241	3715	4003
66	0	0	2352	1241	3715	4001
67	0	0	2220	1243	3715	4001
68	0	0	2168	1243	3715	4001
69	0	0	2168	1247	3715	4003
70	0	0	2135	1245	3715	3999
71	0	0	2081	1245	3714	4003
72	0	0	2089	1249	3711	4001
73	0	0	2164	1245	3715	4001
74	0	0	2237	1249	3714	4001
75	0	0	2278	1248	3714	4002
76	0	0	2313	1248	3714	4001
77	0	0	2372	1247	3714	4001
78	0	0	2419	1247	3715	4002
79	0	0	2443	1247	3715	4002
80	0	0	2506	1246	3715	4002
81	0	0	2546	1243	3714	4001
82	0	0	2574	1245	3716	4000
83	0	0	2615	1242	3715	4001
84	0	0	2555	1241	3716	4003
85	0	0	2454	1241	3715	4003
86	0	0	2396	1243	3716	4003
87	0	0	2357	1243	3713	4001
88	0	0	2283	1242	3713	4001
89	0	0	2168	1244	3714	4001
90	0	0	2070	1244	3713	3999
91	0	0	2028	1247	3713	4001
92	0	0	2055	1249	3714	3999
93	0	0	2116	1247	3714	4002
94	0	0	2163	1250	3715	4001
95	0	0	2205	1248	3715	4003
96	0	0	2241	1248	3715	4001
97	0	0	2284	1248	3715	4001
98	0	0	2370	1247	3715	4003
99	0	0	2492	1247	3715	4001
100	0	0	2593	1247	3716	4002
101	0	0	2619	1243	3714	4001
102	0	0	2591	1242	3715	4003
103	0	0	2535	1241	3715	3999
104	0	0	2465	1242	3715	4000
105	0	0	2390	1240	3714	4003
106	0	0	2296	1240	3714	4001
107	0	0	2183	1241	3714	4001
108	0	0	2068	1241	3713	4002
109	0	0	2009	1244	3714	4003
110	0	0	2003	1248	3713	4003
111	0	0	2057	1249	3714	4000
112	0	0	2133	1250	3714	4001
113	0	0	2198	1247	3713	4001
114	0	0	2236	1249	3715	4000
115	0	0	2246	1248	3715	4003
116	0	0	2250	1247	3715	4001
117	0	0	2278	1247	3717	4003
118	0	0	2339	1245	3712	4002
119	0	0	2413	1246	3714	4001
120	0	0	2494	1244	3713	4003
121	0	0	2561	1244	3713	4001
122	0	0	2570	1242	3713	4001
123	0	0	2546	1242	3713	4002
124	0	0	2475	1241	3714	4003
125	0	0	2355	1240	3714	4003
126	0	0	2227	1240	3715	4003
127	0	0	2090	1242	3715	4002
0	0	0	1998	1241	3713	4001
1	0	0	1980	1246	3715	4002
2	0	0	1967	1244	3714	4003
3	0	0	1946	1244	3714	4001
4	0	0	1919	1243	3714	4001
5	0	0	1904	1249	3715	3999
6	0	0	1944	1248	3715	3999
7	0	0	2024	1247	3715	4000
8	0	0	2091	1247	3715	4002
9	0	0	2141	1246	3714	4001
10	0	0	2203	1245	3714	4004
11	0	0	2278	1246	3714	4000
12	0	0	2344	1244	3713	4003
13	0	0	2391	1244	3713	3999
14	0	0	2427	1244	3714	4001
15	0	0	2424	1241	3714	4003
16	0	0	2348	1241	3715	4000
17	0	0	2240	1240	3714	4003
18	0	0	2126	1240	3715	4002
19	0	0	2043	1240	3715	4002
20	0	0	1959	1241	3713	4003
21	0	0	1863	1243	3714	4000
22	0	0	1808	1243	3714	4004
23	0	0	1790	1246	3711	4002
24	0	0	1801	1247	3713	4001
25	0	0	1838	1245	3714	4002
26	0	0	1892	1249	3715	4003
27	0	0	1945	1247	3714	4004
28	0	0	1992	1248	3715	4003
29	0	0	2063	1249	3715	4001
30	0	0	2163	1245	3714	4002
31	0	0	2246	1245	3714	4001
32	0	0	2292	1244	3713	4002
33	0	0	2313	1244	3715	4003
34	0	0	2312	1244	3717	4002
35	0	0	2307	1244	3715	4003
36	0	0	2293	1241	3715	4002
37	0	0	2223	1240	3716	4003
38	0	0	2082	1240	3715	4001
39	0	0	1935	1240	3715	4002
40	0	0	1850	1241	3713	4002
41	0	0	1819	1243	3715	4000
42	0	0	1780	1243	3713	4000
43	0	0	1747	1243	3713	4002
44	0	0	1750	1246	3713	4002
45	0	0	1778	1248	3712	4002
46	0	0	1848	1248	3715	4000
47	0	0	1925	1248	3713	4004
48	0	0	2011	1246	3714	4002
49	0	0	2099	1247	3714	4001
50	0	0	2175	1244	3714	4002
51	0	0	2225	1245	3715	4003
52	0	0	2249	1244	3714	4000
53	0	0	2262	1244	3715	4003
54	0	0	2266	1244	3715	4001
55	0	0	2254	1243	3715	4005
56	0	0	2227	1240	3715	4002
57	0	0	2146	1239	3714	4002
58	0	0	2038	1240	3714	4001
59	0	0	1942	1240	3714	4003
60	0	0	1868	1242	3714	4001
61	0	0	1824	1243	3713	4001
62	0	0	1785	1243	3712	4000
63	0	0	1766	1246	3713	4002
64	0	0	1795	1247	3713	4002
65	0	0	1826	1248	3714	4001
66	0	0	1864	1247	3715	4003
67	0	0	1921	1247	3715	4003
68	0	0	1991	1245	3715	4001
69	0	0	2054	1246	3716	4004
70	0	0	2125	1245	3715	4003
71	0	0	2200	1243	3715	4002
72	0	0	2261	1243	3714	4000
73	0	0	2303	1244	3714	4001
74	0	0	2287	1242	3714	4002
75	0	0	2285	1241	3712	4002
76	0	0	2292	1242	3715	4002
77	0	0	2225	1240	3715	3999
78	0	0	2127	1240	3714	4001
79	0	0	2012	1241	3714	4002
80	0	0	1901	1241	3715	4000
81	0	0	1808	1241	3714	4000
82	0	0	1744	1242	3713	4001
83	0	0	1733	1247	3714	4003
84	0	0	1773	1244	3712	4002
85	0	0	1824	1248	3715	4002
86	0	0	1869	1247	3716	4001
87	0	0	1901	1246	3715	3997
88	0	0	1939	1244	3715	4002
89	0	0	2011	1245	3714	4002
90	0	0	2096	1246	3715	3999
91	0	0	2152	1244	3714	4002
92	0	0	2194	1244	3713	4002
93	0	0	2225	1244	3713	4002
94	0	0	2223	1244	3713	4001
95	0	0	2203	1241	3714	4000
96	0	0	2159	1239	3715	4001
97	0	0	2099	1239	3714	4000
98	0	0	2034	1241	3715	4003
99	0	0	1949	1242	3715	4003
100	0	0	1860	1242	3715	4002
101	0	0	1806	1242	3715	4003
102	0	0	1791	1243	3714	4003
103	0	0	1777	1243	3714	4001
104	0	0	1765	1246	3714	4002
105	0	0	1793	1246	3716	4000
106	0	0	1864	1245	3715	4003
107	0	0	1934	1245	3715	4002
108	0	0	1971	1246	3713	4003
109	0	0	2016	1245	3714	4003
110	0	0	2098	1243	3715	4000
111	0	0	2186	1245	3714	4002
112	0	0	2252	1247	3712	4000
113	0	0	2287	1242	3713	4002
114	0	0	2263	1239	3714	4004
115	0	0	2223	1239	3715	4003
116	0	0	2152	1238	3714	4003
117	0	0	2050	1239	3716	4003
118	0	0	1976	1239	3715	4002
119	0	0	1918	1240	3715	4004
120	0	0	1873	1243	3715	4002
121	0	0	1804	1241	3715	4003
122	0	0	1772	1244	3714	4001
123	0	0	1788	1247	3714	4002
124	0	0	1827	1248	3713	4002
125	0	0	1862	1247	3714	3999
126	0	0	1892	1247	3714	4002
127	0	0	1954	1246	3714	4003
0	0	0	2000	1245	3714	4002
1	0	0	2039	1246	3714	4002
2	0	0	2081	1247	3714	4002
3	0	0	2108	1244	3714	4003
4	0	0	2156	1242	3713	4002
5	0	0	2195	1241	3714	4003
6	0	0	2176	1237	3715	4001
7	0	0	2158	1244	3715	3999
8	0	0	2142	1239	3715	4003
9	0	0	2080	1238	3715	3999
10	0	0	1966	1238	3715	4002
11	0	0	1836	1238	3715	4002
12	0	0	1742	1238	3715	4002
13	0	0	1700	1242	3714	4003
14	0	0	1691	1243	3713	3999
15	0	0	1677	1243	3711	4004
16	0	0	1661	1244	3712	4002
17	0	0	1684	1243	3715	4000
18	0	0	1767	1245	3715	4003
19	0	0	1882	1246	3715	4003
20	0	0	1982	1246	3714	4002
21	0	0	2042	1244	3715	4003
22	0	0	2074	1244	3715	4003
23	0	0	2074	1245	3714	4002
24	0	0	2099	1243	3713	4003
25	0	0	2142	1241	3713	4001
26	0	0	2166	1242	3715	4004
27	0	0	2168	1237	3715	4002
28	0	0	2097	1237	3715	4002
29	0	0	2018	1238	3715	4002
30	0	0	1942	1238	3714	4002
31	0	0	1865	1240	3714	4002
32	0	0	1815	1239	3715	4000
33	0	0	1795	1241	3714	4003
34	0	0	1765	1243	3714	4003
35	0	0	1740	1243	3713	4002
36	0	0	1740	1246	3713	4003
37	0	0	1747	1246	3715	4003
38	0	0	1764	1247	3714	4002
39	0	0	1817	1245	3715	4003
40	0	0	1915	1244	3715	4002
41	0	0	2030	1244	3714	4002
42	0	0	2113	1245	3715	4001
43	0	0	2160	1243	3715	4000
44	0	0	2185	1242	3715	4001
