# bioPlux Text File Format
# Version: 1
# StartDateTime: 2011-07-18 15:52:48
# SamplingFrequency: 1000
# SampledChannels: 1 2 3 4 5
# SamplingResolution: 12
# AcquiringDevice: 00:07:80:42:0F:95
# EndOfHeader
0	0	0	2087	1600	184	398	3611
1	0	0	1976	1600	183	399	3611
2	0	0	1875	1599	184	400	3612
3	0	0	1779	1600	184	400	3612
4	0	0	1708	1601	184	400	3612
5	0	0	1678	1602	184	399	3611
6	0	0	1699	1602	182	398	3611
7	0	0	1598	1600	184	399	3611
8	0	0	1636	1605	183	399	3611
9	0	0	1814	1605	183	398	3610
10	0	0	1972	1605	183	398	3611
11	0	0	2155	1605	183	399	3612
12	0	0	2331	1605	184	399	3612
13	0	0	2414	1605	184	400	3612
14	0	0	2444	1604	185	400	3612
15	0	0	2442	1605	184	400	3612
16	0	0	2407	1602	183	399	3612
17	0	0	2416	1604	183	399	3611
18	0	0	2349	1600	186	398	3611
19	0	0	2210	1599	183	399	3610
20	0	0	2091	1599	184	399	3612
21	0	0	1980	1600	184	399	3611
22	0	0	1878	1599	184	399	3612
23	0	0	1778	1599	184	399	3612
24	0	0	1705	1600	183	399	3612
25	0	0	1677	1602	183	399	3612
26	0	0	1699	1602	183	398	3612
27	0	0	1599	1601	184	399	3611
28	0	0	1637	1606	184	399	3611
29	0	0	1808	1605	184	399	3611
30	0	0	1966	1605	184	399	3611
31	0	0	2156	1605	183	399	3611
32	0	0	2329	1604	183	400	3611
33	0	0	2414	1604	183	399	3612
34	0	0	2442	1605	183	399	3612
35	0	0	2444	1604	184	400	3612
36	0	0	2411	1601	183	400	3611
37	0	0	2414	1603	183	399	3610
38	0	0	2347	1599	183	399	3610
39	0	0	2205	1599	184	398	3611
40	0	0	2089	1600	184	399	3611
41	0	0	1983	1600	184	399	3612
42	0	0	1883	1600	184	399	3613
43	0	0	1783	1599	183	398	3612
44	0	0	1709	1601	184	399	3613
45	0	0	1679	1602	184	400	3612
46	0	0	1696	1602	184	400	3611
47	0	0	1598	1600	183	400	3611
48	0	0	1640	1604	183	399	3611
49	0	0	1814	1605	184	399	3611
50	0	0	1975	1604	184	399	3611
51	0	0	2162	1605	184	399	3612
52	0	0	2336	1604	184	399	3612
53	0	0	2418	1604	185	399	3612
54	0	0	2448	1604	184	400	3612
55	0	0	2446	1604	184	399	3612
56	0	0	2410	1601	183	399	3612
57	0	0	2416	1603	183	399	3611
58	0	0	2350	1599	184	398	3611
59	0	0	2210	1599	185	398	3611
60	0	0	2092	1599	182	398	3611
61	0	0	1981	1599	183	399	3611
62	0	0	1877	1599	184	399	3612
63	0	0	1780	1599	184	399	3612
64	0	0	1709	1600	183	399	3612
65	0	0	1682	1602	184	400	3612
66	0	0	1699	1601	184	400	3611
67	0	0	1602	1600	184	400	3611
68	0	0	1640	1604	184	399	3611
69	0	0	1815	1604	183	398	3610
70	0	0	1968	1604	184	398	3611
71	0	0	2153	1604	185	399	3611
72	0	0	2330	1604	183	399	3612
73	0	0	2410	1604	184	399	3612
74	0	0	2440	1603	184	399	3612
75	0	0	2441	1603	184	399	3611
76	0	0	2406	1601	184	399	3611
77	0	0	2413	1604	183	400	3611
78	0	0	2349	1598	184	400	3610
79	0	0	2208	1599	183	399	3612
80	0	0	2092	1599	184	399	3612
81	0	0	1984	1599	184	399	3611
82	0	0	1884	1598	184	400	3612
83	0	0	1784	1598	184	399	3612
84	0	0	1712	1600	184	399	3612
85	0	0	1686	1601	184	399	3612
86	0	0	1702	1601	185	399	3611
87	0	0	1604	1600	184	399	3611
88	0	0	1642	1603	184	399	3610
89	0	0	1813	1604	184	399	3610
90	0	0	1964	1604	184	399	3611
91	0	0	2146	1604	184	399	3611
92	0	0	2329	1603	184	399	3612
93	0	0	2422	1604	184	400	3613
94	0	0	2454	1604	183	400	3611
95	0	0	2452	1604	183	399	3613
96	0	0	2413	1601	184	400	3612
97	0	0	2413	1603	184	399	3611
98	0	0	2346	1599	184	399	3610
99	0	0	2207	1599	184	399	3610
100	0	0	2091	1599	183	399	3611
101	0	0	1985	1598	184	399	3611
102	0	0	1883	1599	184	399	3612
103	0	0	1782	1599	184	399	3612
104	0	0	1705	1599	184	398	3612
105	0	0	1672	1600	185	399	3611
106	0	0	1685	1601	182	398	3610
107	0	0	1588	1599	184	399	3611
108	0	0	1623	1604	184	399	3611
109	0	0	1799	1604	184	399	3612
110	0	0	1959	1604	185	399	3611
111	0	0	2150	1604	184	400	3612
112	0	0	2331	1604	183	400	3613
113	0	0	2417	1603	184	400	3612
114	0	0	2446	1604	184	400	3613
115	0	0	2443	1603	184	398	3611
116	0	0	2405	1600	185	399	3611
117	0	0	2407	1603	184	398	3611
118	0	0	2342	1598	184	398	3610
119	0	0	2205	1598	184	399	3611
120	0	0	2089	1598	184	399	3611
121	0	0	1984	1599	183	399	3612
122	0	0	1882	1598	183	398	3612
123	0	0	1786	1598	185	398	3612
124	0	0	1712	1599	184	398	3612
125	0	0	1681	1600	184	400	3611
126	0	0	1698	1602	183	399	3610
127	0	0	1600	1599	183	398	3611
0	0	0	1633	1604	183	399	3611
1	0	0	1802	1603	183	400	3610
2	0	0	1955	1604	183	399	3611
3	0	0	2142	1603	183	400	3612
4	0	0	2320	1604	184	400	3613
5	0	0	2402	1603	184	399	3612
6	0	0	2433	1603	184	399	3613
7	0	0	2435	1603	184	398	3612
8	0	0	2399	1600	185	398	3611
9	0	0	2401	1603	184	399	3611
10	0	0	2334	1598	184	399	3610
11	0	0	2198	1597	184	399	3610
12	0	0	2086	1598	185	398	3612
13	0	0	1985	1599	184	400	3612
14	0	0	1885	1598	183	399	3612
15	0	0	1785	1598	184	399	3612
16	0	0	1708	1599	184	398	3612
17	0	0	1681	1601	184	399	3612
18	0	0	1701	1602	184	399	3611
19	0	0	1604	1599	184	399	3611
20	0	0	1640	1603	183	399	3610
21	0	0	1808	1603	185	399	3610
22	0	0	1962	1603	183	398	3611
23	0	0	2144	1603	185	399	3612
24	0	0	2323	1602	183	399	3612
25	0	0	2409	1604	184	399	3613
26	0	0	2436	1603	184	399	3612
27	0	0	2436	1603	184	398	3612
28	0	0	2407	1600	184	399	3612
29	0	0	2412	1602	183	400	3611
30	0	0	2348	1598	183	399	3610
31	0	0	2213	1598	183	399	3612
32	0	0	2098	1598	184	397	3611
33	0	0	1990	1598	185	398	3611
34	0	0	1888	1597	184	399	3612
35	0	0	1791	1598	184	399	3612
36	0	0	1716	1599	183	399	3612
37	0	0	1685	1600	184	399	3612
38	0	0	1704	1601	183	398	3611
39	0	0	1609	1599	183	398	3611
40	0	0	1643	1604	183	398	3611
41	0	0	1809	1603	184	399	3610
42	0	0	1961	1603	184	399	3611
43	0	0	2143	1603	184	399	3611
44	0	0	2317	1603	184	399	3612
45	0	0	2406	1602	186	400	3612
46	0	0	2437	1603	184	400	3613
47	0	0	2437	1603	184	400	3612
48	0	0	2401	1600	185	399	3611
49	0	0	2404	1602	184	399	3611
50	0	0	2342	1597	183	399	3610
51	0	0	2208	1597	184	399	3610
52	0	0	2092	1598	184	399	3611
53	0	0	1988	1598	184	399	3611
54	0	0	1888	1597	183	399	3612
55	0	0	1790	1598	183	399	3613
56	0	0	1716	1598	184	398	3612
57	0	0	1686	1600	183	398	3612
58	0	0	1706	1602	183	399	3612
59	0	0	1610	1598	183	398	3611
60	0	0	1644	1603	183	399	3610
61	0	0	1819	1603	184	399	3611
62	0	0	1968	1603	184	399	3611
63	0	0	2151	1603	185	399	3612
64	0	0	2327	1603	184	400	3612
65	0	0	2412	1603	183	399	3612
66	0	0	2443	1602	184	400	3612
67	0	0	2442	1603	184	399	3612
68	0	0	2403	1599	183	399	3612
69	0	0	2399	1602	184	398	3611
70	0	0	2331	1597	184	398	3610
71	0	0	2197	1598	184	399	3612
72	0	0	2091	1598	183	399	3610
73	0	0	1990	1598	184	399	3611
74	0	0	1888	1597	184	398	3612
75	0	0	1789	1598	184	398	3612
76	0	0	1715	1598	184	398	3612
77	0	0	1683	1600	184	400	3611
78	0	0	1697	1600	184	399	3611
79	0	0	1598	1598	184	399	3611
80	0	0	1633	1603	184	399	3611
81	0	0	1807	1602	184	400	3610
82	0	0	1963	1603	184	400	3611
83	0	0	2144	1603	184	399	3612
84	0	0	2323	1603	183	399	3612
85	0	0	2411	1602	184	399	3612
86	0	0	2440	1602	184	399	3612
87	0	0	2441	1602	184	398	3611
88	0	0	2406	1599	184	398	3611
89	0	0	2400	1602	184	399	3611
90	0	0	2336	1597	184	399	3610
91	0	0	2204	1598	184	399	3611
92	0	0	2090	1598	184	398	3611
93	0	0	1990	1598	184	399	3612
94	0	0	1895	1597	183	399	3612
95	0	0	1797	1598	184	400	3613
96	0	0	1722	1598	184	398	3611
97	0	0	1690	1600	183	399	3612
98	0	0	1709	1601	183	399	3611
99	0	0	1611	1598	184	400	3611
100	0	0	1644	1602	183	399	3610
101	0	0	1813	1603	184	399	3610
102	0	0	1968	1602	184	399	3611
103	0	0	2151	1603	184	398	3611
104	0	0	2324	1603	184	398	3612
105	0	0	2409	1602	184	399	3612
106	0	0	2440	1602	184	398	3612
107	0	0	2439	1601	183	399	3611
108	0	0	2404	1598	185	399	3611
109	0	0	2403	1602	184	399	3611
110	0	0	2336	1597	184	399	3610
111	0	0	2205	1597	184	399	3611
112	0	0	2093	1597	184	399	3611
113	0	0	1987	1597	184	399	3611
114	0	0	1888	1597	184	399	3612
115	0	0	1791	1598	183	399	3613
116	0	0	1715	1597	183	398	3612
117	0	0	1682	1599	184	399	3611
118	0	0	1693	1600	185	399	3611
119	0	0	1605	1598	183	399	3611
120	0	0	1641	1603	184	399	3610
121	0	0	1812	1603	184	398	3610
122	0	0	1960	1602	184	399	3611
123	0	0	2141	1602	185	399	3611
124	0	0	2316	1602	184	399	3612
125	0	0	2403	1602	183	399	3612
126	0	0	2436	1603	183	399	3613
127	0	0	2439	1602	184	399	3612
0	0	0	2404	1599	184	399	3611
1	0	0	2406	1602	184	400	3611
2	0	0	2341	1596	184	400	3610
3	0	0	2208	1596	183	399	3610
4	0	0	2089	1597	184	398	3611
5	0	0	1985	1597	184	399	3611
6	0	0	1886	1596	184	399	3612
7	0	0	1791	1597	183	399	3612
8	0	0	1718	1597	183	398	3612
9	0	0	1692	1600	184	399	3612
10	0	0	1712	1601	183	399	3612
11	0	0	1612	1597	183	398	3611
12	0	0	1645	1603	185	399	3611
13	0	0	1812	1603	183	399	3610
14	0	0	1964	1602	184	399	3611
15	0	0	2145	1602	184	399	3611
16	0	0	2323	1601	183	400	3612
17	0	0	2411	1603	184	400	3612
18	0	0	2439	1602	184	399	3612
19	0	0	2439	1601	185	399	3611
20	0	0	2404	1598	184	398	3611
21	0	0	2401	1601	184	399	3611
22	0	0	2340	1596	184	398	3611
23	0	0	2204	1597	184	399	3611
24	0	0	2092	1596	184	400	3611
25	0	0	1991	1596	185	398	3611
26	0	0	1891	1597	183	399	3613
27	0	0	1797	1597	184	398	3612
28	0	0	1724	1597	185	398	3611
29	0	0	1691	1598	183	399	3611
30	0	0	1708	1601	183	399	3611
31	0	0	1614	1597	184	399	3611
32	0	0	1641	1602	183	399	3611
33	0	0	1808	1602	183	400	3610
34	0	0	1959	1602	184	399	3611
35	0	0	2142	1602	184	400	3612
36	0	0	2318	1601	183	399	3612
37	0	0	2408	1602	184	399	3613
38	0	0	2438	1601	183	398	3611
39	0	0	2440	1601	185	398	3612
40	0	0	2407	1598	184	398	3611
41	0	0	2405	1601	184	399	3611
42	0	0	2342	1597	184	399	3611
43	0	0	2201	1596	184	399	3610
44	0	0	2085	1596	184	398	3611
45	0	0	1982	1596	185	399	3611
46	0	0	1886	1596	183	399	3612
47	0	0	1792	1596	184	399	3612
48	0	0	1716	1597	183	399	3613
49	0	0	1686	1599	183	399	3612
50	0	0	1705	1601	184	398	3611
51	0	0	1611	1597	184	399	3611
52	0	0	1640	1602	184	400	3611
53	0	0	1809	1602	184	399	3610
54	0	0	1967	1601	183	399	3611
55	0	0	2151	1602	184	399	3611
56	0	0	2326	1601	184	399	3612
57	0	0	2411	1601	184	399	3611
58	0	0	2441	1601	184	399	3612
59	0	0	2439	1601	184	400	3611
60	0	0	2407	1597	185	398	3611
61	0	0	2401	1601	183	399	3611
62	0	0	2338	1596	183	400	3610
63	0	0	2207	1595	184	399	3610
64	0	0	2091	1596	184	400	3611
65	0	0	1989	1596	185	399	3611
66	0	0	1893	1596	184	399	3612
67	0	0	1794	1596	184	398	3612
68	0	0	1718	1596	183	398	3611
69	0	0	1685	1598	184	399	3611
70	0	0	1703	1600	184	399	3611
71	0	0	1606	1596	183	399	3611
72	0	0	1632	1602	184	400	3610
73	0	0	1802	1601	183	398	3610
74	0	0	1959	1601	183	398	3611
75	0	0	2141	1601	184	397	3611
76	0	0	2319	1601	185	399	3612
77	0	0	2401	1601	183	399	3612
78	0	0	2433	1601	183	399	3613
79	0	0	2437	1601	183	399	3611
80	0	0	2403	1597	184	399	3610
81	0	0	2398	1601	185	400	3611
82	0	0	2334	1596	184	400	3610
83	0	0	2203	1596	182	399	3611
84	0	0	2092	1596	184	399	3611
85	0	0	1991	1595	183	397	3611
86	0	0	1893	1596	183	398	3612
87	0	0	1796	1595	184	398	3612
88	0	0	1717	1596	184	399	3611
89	0	0	1686	1598	184	399	3611
90	0	0	1704	1600	183	399	3611
91	0	0	1608	1596	183	398	3611
92	0	0	1631	1601	183	399	3611
93	0	0	1796	1601	184	400	3610
94	0	0	1955	1601	184	400	3611
95	0	0	2144	1601	184	398	3611
96	0	0	2322	1602	184	399	3612
97	0	0	2409	1601	184	399	3611
98	0	0	2443	1601	184	400	3612
99	0	0	2443	1600	184	400	3611
100	0	0	2409	1598	185	399	3611
101	0	0	2410	1600	185	399	3610
102	0	0	2352	1595	184	399	3610
103	0	0	2217	1595	184	398	3610
104	0	0	2100	1596	184	399	3611
105	0	0	1994	1596	183	398	3611
106	0	0	1893	1595	183	399	3612
107	0	0	1793	1596	184	399	3611
108	0	0	1716	1596	184	399	3611
109	0	0	1684	1598	184	399	3612
110	0	0	1703	1601	183	400	3612
111	0	0	1606	1596	184	399	3611
112	0	0	1631	1602	183	400	3611
113	0	0	1801	1601	184	399	3610
114	0	0	1954	1601	183	399	3611
115	0	0	2138	1601	184	399	3612
116	0	0	2317	1600	183	400	3612
117	0	0	2403	1600	184	399	3611
118	0	0	2438	1600	184	399	3611
119	0	0	2442	1600	184	395	3611
120	0	0	2408	1597	185	399	3611
121	0	0	2409	1600	185	399	3610
122	0	0	2348	1595	183	399	3610
123	0	0	2211	1594	184	395	3610
124	0	0	2093	1595	184	395	3611
125	0	0	1996	1595	185	399	3611
126	0	0	1898	1595	185	399	3612
127	0	0	1801	1596	183	399	3612
0	0	0	1722	1596	184	398	3611
1	0	0	1689	1598	184	398	3612
2	0	0	1708	1600	183	399	3612
3	0	0	1612	1596	185	399	3611
4	0	0	1637	1601	183	399	3610
5	0	0	1804	1600	182	399	3610
6	0	0	1961	1601	184	395	3611
7	0	0	2143	1601	184	395	3611
8	0	0	2321	1601	184	395	3612
9	0	0	2408	1600	184	395	3611
10	0	0	2442	1600	184	399	3611
11	0	0	2447	1600	184	399	3612
12	0	0	2421	1597	184	399	3611
13	0	0	2419	1600	183	399	3611
14	0	0	2357	1595	184	399	3611
15	0	0	2217	1596	185	399	3610
16	0	0	2098	1595	184	399	3610
17	0	0	1988	1595	184	398	3611
18	0	0	1885	1595	185	399	3612
19	0	0	1788	1596	183	399	3612
20	0	0	1708	1596	183	399	3612
21	0	0	1675	1598	184	400	3611
22	0	0	1692	1600	184	399	3610
23	0	0	1600	1596	184	399	3610
24	0	0	1623	1600	184	395	3610
25	0	0	1789	1600	183	395	3610
26	0	0	1943	1600	184	395	3611
27	0	0	2126	1601	184	395	3611
28	0	0	2312	1600	186	399	3612
29	0	0	2406	1600	184	399	3612
30	0	0	2440	1599	185	398	3611
31	0	0	2440	1600	184	399	3612
32	0	0	2410	1597	183	399	3611
33	0	0	2411	1599	184	399	3610
34	0	0	2350	1595	184	399	3610
35	0	0	2213	1594	184	398	3610
36	0	0	2096	1595	183	399	3610
37	0	0	1991	1595	184	395	3611
38	0	0	1896	1595	184	395	3612
39	0	0	1797	1595	184	399	3611
40	0	0	1719	1596	183	399	3612
41	0	0	1687	1597	184	399	3611
42	0	0	1705	1599	184	395	3611
43	0	0	1606	1596	183	395	3610
44	0	0	1635	1600	183	395	3611
45	0	0	1803	1599	183	399	3610
46	0	0	1961	1600	183	399	3611
47	0	0	2141	1600	184	399	3611
48	0	0	2322	1600	184	398	3612
49	0	0	2413	1600	184	399	3611
50	0	0	2444	1600	183	399	3611
51	0	0	2445	1599	183	399	3611
52	0	0	2412	1596	184	399	3610
53	0	0	2411	1599	184	395	3610
54	0	0	2354	1594	184	395	3610
55	0	0	2220	1594	184	395	3610
56	0	0	2104	1595	185	395	3610
57	0	0	1998	1595	183	399	3611
58	0	0	1892	1595	183	399	3612
59	0	0	1787	1594	183	398	3611
60	0	0	1711	1596	183	395	3612
61	0	0	1678	1597	183	399	3611
62	0	0	1695	1599	183	399	3611
63	0	0	1598	1595	183	399	3611
64	0	0	1621	1600	183	399	3610
65	0	0	1793	1600	183	398	3610
66	0	0	1950	1601	184	399	3611
67	0	0	2140	1600	184	399	3611
68	0	0	2318	1600	184	399	3612
69	0	0	2405	1600	183	399	3611
70	0	0	2439	1599	184	398	3611
71	0	0	2443	1599	185	395	3611
72	0	0	2409	1596	184	395	3611
73	0	0	2412	1599	184	394	3610
74	0	0	2356	1594	183	395	3610
75	0	0	2220	1594	183	399	3611
76	0	0	2104	1595	184	399	3610
77	0	0	1997	1594	184	399	3611
78	0	0	1892	1594	184	399	3612
79	0	0	1790	1594	183	399	3611
80	0	0	1716	1596	184	399	3611
81	0	0	1685	1597	184	399	3611
82	0	0	1698	1599	184	398	3611
83	0	0	1602	1595	184	398	3610
84	0	0	1624	1599	183	398	3609
85	0	0	1795	1600	183	399	3610
86	0	0	1949	1600	184	399	3610
87	0	0	2130	1600	184	398	3611
88	0	0	2312	1599	183	398	3611
89	0	0	2408	1600	184	395	3612
90	0	0	2444	1600	184	395	3611
91	0	0	2447	1599	185	395	3611
92	0	0	2415	1596	184	395	3611
93	0	0	2415	1599	184	398	3610
94	0	0	2354	1594	183	399	3610
95	0	0	2222	1593	184	398	3610
96	0	0	2102	1594	184	399	3610
97	0	0	1997	1594	184	399	3610
98	0	0	1896	1594	183	399	3612
99	0	0	1793	1594	183	399	3611
100	0	0	1713	1595	183	399	3611
101	0	0	1679	1597	184	395	3611
102	0	0	1697	1599	184	395	3611
103	0	0	1601	1594	183	395	3610
104	0	0	1621	1600	183	399	3610
105	0	0	1787	1600	183	399	3609
106	0	0	1944	1600	184	399	3610
107	0	0	2132	1600	184	395	3611
108	0	0	2318	1600	184	395	3612
109	0	0	2410	1599	185	399	3611
110	0	0	2445	1599	183	399	3612
111	0	0	2445	1599	184	398	3611
112	0	0	2413	1595	184	399	3610
113	0	0	2408	1599	184	398	3611
114	0	0	2345	1594	184	399	3609
115	0	0	2212	1593	185	399	3610
116	0	0	2097	1594	184	399	3610
117	0	0	1995	1594	183	398	3611
118	0	0	1892	1593	183	395	3611
119	0	0	1791	1594	184	395	3612
120	0	0	1712	1595	183	394	3611
121	0	0	1679	1596	182	395	3611
122	0	0	1694	1599	184	399	3610
123	0	0	1600	1594	183	398	3610
124	0	0	1621	1600	183	399	3609
125	0	0	1792	1599	185	399	3610
126	0	0	1949	1599	184	399	3610
127	0	0	2129	1599	184	400	3611
0	0	0	2308	1599	184	399	3611
1	0	0	2395	1598	184	398	3611
2	0	0	2428	1599	184	398	3611
3	0	0	2430	1599	184	399	3611
4	0	0	2401	1596	184	399	3610
5	0	0	2403	1599	185	399	3611
6	0	0	2347	1594	184	399	3609
7	0	0	2217	1594	183	399	3611
8	0	0	2099	1594	184	395	3611
9	0	0	1994	1594	185	394	3611
10	0	0	1896	1594	184	395	3612
11	0	0	1796	1594	184	394	3611
12	0	0	1718	1596	184	399	3611
13	0	0	1686	1596	184	399	3611
14	0	0	1702	1599	184	398	3611
15	0	0	1611	1595	183	398	3610
16	0	0	1633	1598	183	399	3609
17	0	0	1800	1599	184	399	3609
18	0	0	1951	1599	184	399	3610
19	0	0	2129	1599	184	400	3611
20	0	0	2312	1599	185	399	3612
21	0	0	2399	1599	185	395	3611
22	0	0	2428	1599	184	395	3612
23	0	0	2430	1599	184	400	3611
24	0	0	2401	1595	184	399	3611
25	0	0	2397	1598	184	398	3610
26	0	0	2336	1593	184	395	3609
27	0	0	2202	1593	183	395	3609
28	0	0	2087	1594	184	395	3610
29	0	0	1984	1594	183	399	3612
30	0	0	1889	1594	183	398	3611
31	0	0	1798	1594	183	398	3611
32	0	0	1722	1594	185	398	3611
33	0	0	1690	1596	183	399	3610
34	0	0	1707	1599	184	400	3610
35	0	0	1615	1594	183	399	3610
36	0	0	1635	1598	184	399	3609
37	0	0	1803	1599	184	395	3611
38	0	1	1959	1599	184	395	3610
39	0	1	2136	1599	184	395	3611
40	0	1	2313	1599	184	395	3612
41	0	1	2403	1599	184	398	3611
42	0	1	2431	1599	184	399	3611
43	0	1	2430	1598	183	399	3611
44	0	1	2400	1595	185	395	3610
45	0	1	2397	1598	184	399	3610
46	0	1	2341	1594	183	400	3609
47	0	1	2210	1593	183	399	3611
48	0	1	2098	1594	184	399	3610
49	0	1	2001	1594	184	399	3611
50	0	1	1905	1593	183	398	3611
51	0	1	1800	1594	184	399	3611
52	0	1	1720	1594	184	399	3611
53	0	1	1685	1595	185	399	3611
54	0	1	1699	1599	183	399	3611
55	0	1	1610	1594	183	395	3610
56	0	1	1634	1599	183	395	3609
57	0	1	1801	1598	185	395	3609
58	0	1	1957	1598	184	395	3610
59	0	1	2133	1599	184	399	3610
60	0	1	2313	1598	184	398	3611
61	0	1	2401	1598	183	399	3611
62	0	1	2433	1598	184	399	3612
63	1	1	2434	1599	183	399	3611
64	1	1	2413	1595	184	399	3610
65	1	1	2415	1599	184	399	3611
66	1	1	2356	1593	184	399	3609
67	1	1	2218	1593	183	399	3609
68	1	1	2099	1593	184	399	3611
69	1	1	1996	1594	185	398	3610
70	1	1	1899	1593	183	399	3611
71	1	1	1808	1594	182	399	3611
72	1	1	1729	1595	184	395	3611
73	1	1	1696	1596	184	395	3611
74	1	1	1714	1599	184	395	3610
75	1	1	1630	1595	184	395	3611
76	1	1	1650	1599	183	399	3609
77	1	1	1813	1599	183	398	3611
78	1	1	1967	1599	184	399	3610
79	1	1	2142	1599	183	399	3611
80	1	1	2320	1599	183	399	3611
81	1	1	2409	1598	184	399	3611
82	1	1	2438	1599	184	399	3612
83	1	1	2438	1598	184	398	3611
84	1	1	2405	1595	184	398	3610
85	1	1	2402	1598	185	395	3610
86	1	1	2344	1593	184	395	3610
87	1	1	2208	1593	184	398	3609
88	1	1	2098	1593	184	399	3611
89	1	1	1995	1594	184	399	3611
90	1	1	1891	1593	183	395	3611
91	1	1	1796	1594	183	399	3612
92	1	1	1723	1594	184	395	3611
93	1	1	1692	1595	184	399	3611
94	1	1	1707	1598	184	399	3610
95	1	1	1618	1594	184	399	3610
96	1	1	1635	1598	184	398	3610
97	1	1	1797	1599	184	398	3611
98	1	1	1951	1599	184	399	3610
99	1	1	2132	1599	185	399	3611
100	1	1	2315	1599	184	399	3612
101	1	1	2405	1598	185	399	3611
102	1	1	2434	1598	184	399	3611
103	1	1	2433	1597	184	395	3611
104	1	1	2400	1595	184	395	3611
105	1	1	2391	1597	184	395	3610
106	1	1	2334	1594	185	395	3609
107	1	1	2198	1593	184	399	3609
108	1	1	2084	1593	183	398	3610
109	1	1	1984	1593	185	400	3611
110	1	1	1885	1593	183	399	3611
111	1	1	1788	1593	184	399	3611
112	1	1	1713	1594	184	399	3612
113	1	1	1684	1596	184	399	3611
114	1	1	1700	1598	184	399	3611
115	1	1	1615	1594	184	399	3611
116	1	1	1631	1598	183	398	3609
117	1	1	1796	1598	183	399	3610
118	1	1	1950	1598	184	399	3610
119	1	1	2122	1598	184	399	3610
120	1	1	2302	1598	182	399	3611
121	1	1	2394	1597	184	395	3611
122	1	1	2429	1597	184	395	3611
123	1	1	2437	1597	184	395	3611
124	1	1	2407	1594	184	395	3611
125	1	1	2401	1598	183	398	3610
126	1	1	2348	1593	185	399	3611
127	1	1	2219	1592	184	399	3610
0	1	1	2099	1593	184	399	3610
1	1	1	1996	1593	184	399	3611
2	1	1	1897	1593	184	399	3611
3	1	1	1799	1593	184	399	3611
4	1	1	1723	1593	184	399	3611
5	1	1	1690	1595	184	395	3611
6	1	1	1705	1598	184	395	3610
7	1	1	1622	1593	184	395	3610
8	1	1	1640	1598	184	399	3609
9	1	1	1803	1598	184	399	3609
10	1	1	1966	1597	184	399	3610
11	1	1	2140	1598	184	395	3612
12	1	1	2312	1598	184	395	3612
13	1	1	2399	1598	185	399	3612
14	1	1	2431	1598	183	399	3611
15	1	1	2434	1598	184	399	3611
16	1	1	2406	1593	184	399	3611
17	1	1	2396	1598	183	399	3610
18	1	1	2339	1592	184	399	3609
19	1	1	2207	1592	185	399	3609
20	1	1	2093	1592	184	399	3610
21	1	1	1991	1593	184	399	3610
22	1	1	1894	1593	184	395	3612
23	1	1	1799	1592	185	395	3611
24	1	1	1722	1593	183	395	3611
25	1	1	1689	1593	184	395	3611
26	1	1	1701	1598	184	399	3611
27	1	1	1607	1593	184	399	3610
28	1	1	1628	1598	183	398	3609
29	1	1	1800	1598	185	399	3609
30	1	1	1955	1597	184	398	3610
31	1	1	2129	1597	184	399	3610
32	1	1	2309	1597	184	399	3611
33	1	1	2401	1597	184	398	3611
34	1	1	2436	1597	184	399	3612
35	1	1	2435	1598	183	398	3611
36	1	1	2407	1594	184	400	3610
37	1	1	2400	1597	184	399	3610
38	1	1	2341	1592	183	399	3609
39	1	1	2210	1592	183	399	3609
40	1	1	2093	1592	184	395	3610
41	1	1	1991	1593	184	395	3611
42	1	1	1897	1592	184	395	3612
43	1	1	1803	1592	184	395	3611
44	1	1	1721	1593	184	399	3612
45	1	1	1684	1595	184	399	3611
46	1	1	1697	1597	184	399	3610
47	1	1	1608	1593	184	399	3610
48	1	1	1627	1597	184	399	3609
49	1	1	1795	1597	184	399	3611
50	1	1	1954	1597	185	399	3610
51	1	1	2130	1597	185	399	3610
52	1	1	2313	1597	184	398	3611
53	1	1	2406	1597	184	395	3611
54	1	1	2437	1597	184	395	3611
55	1	1	2438	1596	184	399	3611
56	1	1	2408	1593	184	399	3611
57	1	1	2397	1596	184	399	3610
58	1	1	2338	1592	184	395	3611
59	1	1	2204	1591	183	395	3609
60	1	1	2091	1591	184	395	3610
61	1	1	1991	1592	184	399	3611
62	1	1	1895	1592	183	398	3611
63	1	1	1799	1592	184	399	3611
64	1	1	1728	1592	183	399	3611
65	1	1	1693	1594	184	399	3611
66	1	1	1710	1597	184	399	3610
67	1	1	1626	1593	184	399	3610
68	1	1	1645	1597	184	399	3609
69	1	1	1803	1598	183	395	3611
70	1	1	1957	1597	184	395	3610
71	1	1	2132	1597	183	395	3610
72	1	1	2308	1597	184	395	3611
73	1	1	2397	1597	184	399	3611
74	1	1	2429	1597	184	398	3612
75	1	1	2436	1597	184	399	3611
76	1	1	2401	1593	183	394	3610
77	1	1	2394	1596	184	398	3610
78	1	1	2337	1592	184	399	3609
79	1	1	2211	1591	184	399	3609
80	1	1	2094	1591	183	399	3610
81	1	1	1994	1592	184	400	3610
82	1	1	1896	1591	184	399	3611
83	1	1	1800	1591	184	398	3611
84	1	1	1726	1592	183	399	3611
85	1	1	1694	1593	184	399	3611
86	1	1	1710	1597	183	399	3610
87	1	1	1626	1592	183	399	3610
88	1	1	1640	1597	184	399	3609
89	1	1	1800	1597	184	395	3611
90	1	1	1958	1597	183	395	3611
91	1	1	2128	1597	184	395	3610
92	1	1	2307	1597	185	395	3612
93	1	1	2400	1596	184	399	3611
94	1	1	2437	1596	184	398	3612
95	1	1	2438	1597	184	399	3611
96	1	1	2410	1593	183	399	3610
97	1	1	2405	1596	184	399	3610
98	1	1	2350	1591	183	399	3609
99	1	1	2218	1591	183	399	3609
100	1	1	2098	1592	184	399	3610
101	1	1	2000	1591	184	395	3610
102	1	1	1899	1591	183	395	3611
103	1	1	1801	1592	185	395	3611
104	1	1	1725	1592	184	398	3612
105	1	1	1696	1594	184	399	3611
106	1	1	1710	1597	183	398	3610
107	1	1	1625	1592	184	395	3610
108	1	1	1644	1596	185	395	3609
109	1	1	1809	1596	184	399	3609
110	1	1	1965	1597	184	399	3610
111	1	1	2133	1597	183	399	3610
112	1	1	2311	1596	184	399	3611
113	1	1	2405	1596	184	399	3612
114	1	1	2437	1597	183	399	3611
115	1	1	2436	1597	184	399	3611
116	1	1	2408	1593	184	399	3611
117	1	1	2397	1595	183	399	3610
118	1	1	2340	1591	184	395	3609
119	1	1	2209	1591	185	395	3609
120	1	1	2095	1591	183	395	3610
121	1	1	1992	1591	184	395	3610
122	1	1	1894	1591	184	399	3611
123	1	1	1795	1591	183	399	3611
124	1	1	1720	1592	185	398	3612
125	1	1	1691	1594	185	399	3611
126	1	1	1706	1597	184	399	3610
127	1	1	1619	1592	183	399	3610
0	1	1	1634	1596	184	399	3609
1	1	1	1799	1597	183	398	3611
2	1	1	1956	1596	183	398	3610
3	1	1	2129	1597	184	399	3610
4	1	1	2314	1596	184	399	3611
5	1	1	2406	1596	184	399	3610
6	1	1	2437	1596	184	399	3610
7	1	1	2437	1596	185	399	3611
8	1	1	2406	1592	184	396	3610
9	1	1	2398	1595	184	395	3609
10	1	1	2348	1591	185	395	3609
11	1	1	2221	1591	184	395	3609
12	1	1	2106	1591	184	399	3610
13	1	1	2004	1592	185	399	3611
14	1	1	1906	1590	183	398	3611
15	1	1	1807	1591	183	399	3612
16	1	1	1729	1592	185	399	3611
17	1	1	1694	1593	185	399	3610
18	1	1	1703	1596	184	399	3610
19	1	1	1616	1592	184	399	3610
20	1	1	1632	1596	184	398	3609
21	1	1	1796	1596	183	395	3609
22	1	1	1950	1596	183	395	3609
23	1	1	2119	1597	184	399	3610
24	1	1	2295	1596	184	398	3611
25	1	1	2389	1596	184	399	3611
26	1	1	2424	1596	184	395	3611
27	1	1	2431	1596	183	395	3610
28	1	1	2400	1592	183	395	3610
29	1	1	2394	1595	183	400	3610
30	1	1	2342	1590	184	399	3609
31	1	1	2213	1591	185	398	3611
32	1	1	2097	1591	184	399	3610
33	1	1	1989	1591	184	399	3610
34	1	1	1894	1592	184	399	3612
35	1	1	1795	1591	183	399	3611
36	1	1	1721	1592	184	399	3611
37	1	1	1691	1593	183	395	3611
38	1	1	1704	1596	184	395	3610
39	1	1	1621	1592	183	395	3610
40	1	1	1633	1597	183	395	3610
41	1	1	1798	1597	184	399	3609
42	1	1	1957	1596	184	399	3610
43	1	1	2129	1596	184	399	3610
44	1	1	2311	1596	185	395	3611
45	1	1	2400	1596	184	399	3610
46	1	1	2434	1596	184	399	3610
47	1	1	2435	1596	184	399	3610
48	1	1	2408	1593	184	399	3610
49	1	1	2403	1595	184	398	3610
50	1	1	2348	1591	185	399	3609
51	1	1	2215	1590	184	399	3609
52	1	1	2101	1591	184	400	3610
53	1	1	2004	1591	183	399	3610
54	1	1	1907	1591	184	399	3611
55	1	1	1810	1591	183	395	3611
56	1	1	1731	1592	184	395	3612
57	1	1	1695	1593	183	395	3611
58	1	1	1706	1596	184	395	3610
59	1	1	1622	1592	184	399	3610
60	1	1	1635	1597	183	399	3609
61	1	1	1800	1596	184	398	3609
62	1	1	1960	1596	184	399	3609
63	1	1	2133	1595	184	399	3610
64	1	1	2314	1596	184	399	3611
65	1	1	2405	1595	184	398	3611
66	1	1	2433	1595	183	399	3611
67	1	1	2431	1595	183	399	3611
68	1	1	2402	1592	183	399	3611
69	1	1	2387	1595	184	399	3610
70	1	1	2337	1591	184	395	3610
71	1	1	2205	1591	184	394	3609
72	1	1	2087	1591	184	395	3610
73	1	1	1987	1591	184	395	3610
74	1	1	1891	1591	184	399	3611
75	1	1	1796	1591	185	398	3611
76	1	1	1720	1591	184	398	3611
77	1	1	1690	1593	183	400	3610
78	1	1	1705	1596	183	399	3610
79	1	1	1621	1591	185	399	3610
80	1	1	1634	1596	184	399	3609
81	1	1	1799	1596	183	399	3610
82	1	1	1951	1596	184	398	3609
83	1	1	2125	1595	184	398	3610
84	1	1	2310	1596	183	399	3612
85	1	1	2402	1595	184	399	3610
86	1	1	2433	1595	182	399	3610
87	1	1	2432	1596	184	399	3610
88	1	1	2406	1591	184	395	3610
89	1	1	2392	1595	184	395	3610
90	1	1	2345	1590	184	395	3609
91	1	1	2215	1590	183	395	3609
92	1	1	2099	1590	184	399	3610
93	1	1	1994	1590	184	399	3611
94	1	1	1903	1590	184	398	3611
95	1	1	1811	1591	184	399	3611
96	1	1	1735	1592	184	399	3610
97	1	1	1694	1593	183	399	3611
98	1	1	1706	1596	184	399	3611
99	1	1	1622	1591	184	399	3610
100	1	1	1633	1595	183	398	3609
101	1	1	1796	1596	183	394	3610
102	1	1	1956	1596	184	395	3610
103	1	1	2129	1594	184	398	3610
104	1	1	2310	1596	184	399	3611
105	1	1	2401	1595	183	399	3611
106	1	1	2436	1595	184	395	3611
107	1	1	2439	1596	184	395	3610
108	1	1	2410	1591	183	396	3610
109	1	1	2399	1594	184	399	3609
110	1	1	2348	1590	183	398	3609
111	1	1	2217	1590	183	398	3609
112	1	1	2097	1590	182	399	3610
113	1	1	1993	1590	184	399	3610
114	1	1	1893	1590	183	399	3611
115	1	1	1796	1591	184	399	3612
116	1	1	1720	1591	183	399	3611
117	1	1	1686	1593	184	395	3611
118	1	1	1703	1595	183	395	3611
119	1	1	1625	1591	183	395	3610
120	1	1	1634	1596	183	395	3609
121	1	1	1793	1595	183	398	3610
122	1	1	1949	1596	184	398	3611
123	1	1	2120	1595	184	399	3611
124	1	1	2301	1595	184	395	3611
125	1	1	2395	1595	184	399	3611
126	1	1	2432	1595	183	398	3611
127	1	1	2438	1595	184	399	3610
0	1	1	2407	1591	184	399	3610
1	1	1	2400	1595	184	398	3610
2	1	1	2350	1590	184	399	3609
3	1	1	2219	1589	184	399	3609
4	1	1	2104	1591	184	399	3610
5	1	1	2005	1590	185	399	3611
6	1	1	1905	1590	184	398	3611
7	1	1	1807	1590	184	395	3612
8	1	1	1729	1591	184	395	3610
9	1	1	1695	1593	184	395	3610
10	1	1	1710	1595	183	395	3610
11	1	1	1627	1590	183	398	3610
12	1	1	1632	1595	184	399	3609
13	1	1	1789	1595	184	399	3609
14	1	1	1949	1595	184	399	3609
15	1	1	2123	1595	184	399	3610
16	1	1	2304	1595	184	399	3611
17	1	1	2396	1595	184	399	3610
18	1	1	2429	1595	184	398	3612
19	1	1	2433	1595	184	399	3611
20	1	1	2403	1592	183	399	3610
21	1	1	2396	1594	184	399	3609
22	1	1	2347	1590	184	399	3609
23	1	1	2216	1589	184	398	3610
24	1	1	2097	1589	184	399	3609
25	1	1	1993	1590	184	396	3610
26	1	1	1899	1590	184	395	3611
27	1	1	1806	1590	183	395	3610
28	1	1	1731	1590	184	395	3610
29	1	1	1694	1591	183	399	3610
30	1	1	1704	1595	183	399	3610
31	1	1	1628	1590	184	398	3609
32	1	1	1639	1595	184	399	3609
33	1	1	1794	1595	185	399	3609
34	1	1	1947	1594	184	399	3609
35	1	1	2118	1594	183	399	3610
36	1	1	2308	1595	184	398	3611
37	1	1	2402	1594	183	395	3611
38	1	1	2431	1594	182	395	3612
39	1	1	2433	1595	184	395	3611
40	1	1	2406	1591	184	399	3610
41	1	1	2394	1595	184	399	3610
42	1	1	2339	1590	184	399	3609
43	1	1	2210	1589	184	395	3609
44	1	1	2096	1590	184	395	3610
45	1	1	1999	1590	184	399	3611
46	1	1	1906	1589	184	399	3611
47	1	1	1810	1590	183	399	3611
48	1	1	1732	1591	183	399	3610
49	1	1	1695	1592	184	398	3610
50	1	1	1707	1595	183	399	3610
51	1	1	1625	1591	184	399	3610
52	1	1	1631	1595	184	399	3609
53	1	1	1791	1595	184	395	3610
54	1	1	1950	1595	185	394	3609
55	1	1	2124	1595	183	399	3610
56	1	1	2305	1594	184	398	3611
57	1	1	2399	1594	184	399	3610
58	1	1	2429	1594	185	395	3610
59	1	1	2430	1594	183	395	3610
60	1	1	2403	1591	184	395	3610
61	1	1	2399	1594	184	398	3609
62	1	1	2346	1589	184	399	3609
63	1	1	2212	1589	184	398	3609
64	1	1	2097	1590	185	398	3610
65	1	1	1995	1590	183	399	3611
66	1	1	1899	1589	184	399	3611
67	1	1	1803	1589	184	399	3610
68	1	1	1728	1590	183	399	3610
69	1	1	1694	1590	184	395	3611
70	1	1	1707	1594	183	395	3610
71	1	1	1625	1590	183	394	3609
72	1	1	1632	1595	185	395	3609
73	1	1	1794	1594	184	399	3610
74	1	1	1953	1595	184	398	3610
75	1	1	2121	1594	184	399	3610
76	1	1	2305	1594	184	394	3611
77	1	1	2402	1595	184	399	3611
78	1	1	2439	1595	185	399	3610
79	1	1	2439	1594	184	399	3610
80	1	1	2407	1590	185	399	3610
81	1	1	2394	1594	184	398	3609
82	1	1	2342	1590	184	398	3609
83	1	1	2214	1589	183	399	3609
84	1	1	2100	1589	184	399	3610
85	1	1	1996	1589	184	399	3610
86	1	1	1901	1589	184	398	3611
87	1	1	1806	1589	184	395	3610
88	1	1	1728	1590	183	395	3612
89	1	1	1694	1592	184	395	3611
90	1	1	1711	1594	184	395	3610
91	1	1	1634	1589	184	398	3609
92	1	1	1642	1594	184	399	3609
93	1	1	1802	1594	184	399	3609
94	1	1	1961	1594	184	399	3609
95	1	1	2131	1594	184	399	3610
96	1	1	2314	1594	184	399	3611
97	1	1	2412	1594	185	399	3612
98	1	1	2441	1594	183	399	3610
99	1	1	2442	1594	184	398	3610
100	1	1	2413	1590	184	399	3610
101	1	1	2400	1593	183	398	3609
102	1	1	2349	1589	184	399	3609
103	1	1	2224	1588	183	399	3609
104	1	1	2104	1589	184	399	3610
105	1	1	2003	1589	184	395	3610
106	1	1	1906	1588	185	394	3610
107	1	1	1807	1589	184	395	3610
108	1	1	1728	1590	185	394	3611
109	1	1	1692	1591	183	398	3611
110	1	1	1706	1594	184	398	3610
111	1	1	1632	1589	184	398	3609
112	1	1	1635	1594	184	399	3609
113	1	1	1789	1594	185	399	3609
114	1	1	1947	1594	183	399	3610
115	1	1	2117	1594	184	399	3610
116	1	1	2303	1594	184	398	3611
117	1	1	2402	1593	184	395	3610
118	1	1	2436	1594	185	395	3611
119	1	1	2438	1593	184	395	3611
120	1	1	2407	1589	183	399	3610
121	1	1	2398	1593	183	399	3609
122	1	1	2348	1588	182	399	3609
123	1	1	2219	1589	183	395	3610
124	1	1	2102	1589	184	395	3610
125	1	1	2001	1588	184	399	3610
126	1	1	1908	1589	184	399	3611
127	1	1	1810	1589	184	398	3611
0	1	1	1732	1590	184	398	3610
1	1	1	1694	1590	183	398	3610
2	1	1	1705	1594	184	399	3611
3	1	1	1632	1588	184	399	3609
4	1	1	1636	1593	184	399	3609
5	1	1	1794	1594	184	399	3609
6	1	1	1953	1594	184	394	3610
7	1	1	2121	1593	184	395	3610
8	1	1	2304	1594	184	395	3611
9	1	1	2403	1593	185	395	3610
10	1	1	2440	1593	184	398	3610
11	1	1	2440	1593	185	399	3610
12	1	1	2408	1590	183	399	3609
13	1	1	2402	1593	183	398	3609
14	1	1	2351	1588	184	399	3609
15	1	1	2218	1588	184	399	3609
16	1	1	2098	1589	184	399	3610
17	1	1	2000	1588	184	398	3611
18	1	1	1902	1588	184	398	3611
19	1	1	1800	1588	184	399	3611
20	1	1	1722	1590	183	399	3610
21	1	1	1690	1591	184	399	3610
22	1	1	1705	1594	184	399	3610
23	1	1	1630	1589	184	399	3610
24	1	1	1637	1594	184	395	3609
25	1	1	1798	1594	184	394	3609
26	1	1	1956	1594	184	395	3609
27	1	1	2122	1593	184	395	3609
28	1	1	2306	1593	183	398	3610
29	1	1	2401	1594	184	399	3611
30	1	1	2434	1594	182	399	3610
31	1	1	2433	1593	184	399	3610
32	1	1	2404	1589	183	399	3610
33	1	1	2392	1593	184	398	3609
34	1	1	2345	1588	184	399	3609
35	1	1	2216	1587	184	399	3610
36	1	1	2095	1588	185	399	3610
37	1	1	1991	1588	184	399	3610
38	1	1	1896	1588	184	399	3611
39	1	1	1796	1589	184	395	3610
40	1	1	1721	1589	184	395	3611
41	1	1	1686	1591	184	395	3611
42	1	1	1698	1594	184	395	3609
43	1	1	1623	1588	183	399	3609
44	1	1	1631	1593	184	399	3609
45	1	1	1790	1593	184	398	3609
46	1	1	1949	1593	183	399	3609
47	1	1	2118	1593	183	399	3611
48	1	1	2302	1593	184	398	3610
49	1	1	2396	1593	183	399	3610
50	1	1	2430	1592	184	399	3611
51	1	1	2433	1593	183	398	3610
52	1	1	2405	1589	184	399	3610
53	1	1	2394	1593	185	399	3609
54	1	1	2343	1587	183	399	3609
55	1	1	2216	1587	184	399	3609
56	1	1	2098	1588	183	399	3609
57	1	1	1999	1588	184	395	3609
58	1	1	1902	1587	184	394	3611
59	1	1	1803	1587	184	395	3610
60	1	1	1726	1589	184	395	3610
61	1	1	1692	1590	184	399	3610
62	1	1	1704	1593	184	399	3609
63	1	1	1629	1588	183	398	3609
64	1	1	1628	1594	184	399	3610
65	1	1	1787	1593	184	399	3609
66	1	1	1944	1593	184	399	3609
67	1	1	2112	1593	184	399	3611
68	1	1	2298	1593	184	397	3611
69	1	1	2398	1593	184	395	3610
70	1	1	2431	1592	184	395	3611
71	1	1	2432	1592	184	395	3611
72	1	1	2400	1588	184	399	3610
73	1	1	2384	1592	183	398	3609
74	1	1	2335	1587	184	399	3609
75	1	1	2213	1587	184	395	3610
76	1	1	2096	1588	184	395	3609
77	1	1	2000	1587	183	399	3609
78	1	1	1903	1587	184	399	3610
79	1	1	1801	1588	184	399	3610
80	1	1	1719	1589	184	398	3610
81	1	1	1685	1590	183	398	3610
82	1	1	1702	1594	184	399	3611
83	1	1	1623	1588	183	398	3609
84	1	1	1628	1593	184	399	3610
85	1	1	1788	1593	185	399	3609
86	1	1	1946	1593	183	395	3609
87	1	1	2111	1593	185	395	3609
88	1	1	2301	1593	184	395	3611
89	1	1	2404	1592	184	395	3610
90	1	1	2441	1592	184	399	3611
91	1	1	2440	1593	184	399	3611
92	1	1	2406	1588	184	399	3609
93	1	1	2390	1592	183	398	3609
94	1	1	2346	1588	184	399	3608
95	1	1	2220	1587	183	399	3609
96	1	1	2102	1588	184	399	3609
97	1	1	2000	1588	183	399	3609
98	1	1	1904	1587	183	398	3610
99	1	1	1807	1587	184	399	3610
100	1	1	1728	1588	184	399	3610
101	1	1	1693	1590	184	399	3610
102	1	1	1707	1592	184	399	3610
103	1	1	1633	1587	183	399	3609
104	1	1	1637	1592	184	395	3609
105	1	1	1791	1593	184	395	3609
106	1	1	1948	1593	183	394	3609
107	1	1	2111	1592	184	395	3610
108	1	1	2298	1593	184	399	3611
109	1	1	2401	1592	184	399	3610
110	1	1	2438	1592	184	399	3611
111	1	1	2441	1592	184	399	3610
112	1	1	2412	1588	184	399	3610
113	1	1	2409	1592	185	399	3610
114	1	1	2363	1586	183	399	3608
115	1	1	2234	1587	184	399	3610
116	1	1	2114	1588	183	399	3610
117	1	1	2014	1587	184	395	3610
118	1	1	1915	1587	184	395	3610
119	1	1	1819	1587	184	399	3610
120	1	1	1741	1588	184	399	3610
121	1	1	1703	1589	183	399	3610
122	1	1	1712	1592	184	395	3610
123	1	1	1637	1588	183	395	3609
124	1	1	1637	1593	184	395	3610
125	1	1	1791	1593	184	399	3608
126	1	1	1952	1593	183	399	3610
127	1	1	2120	1593	184	399	3611
0	1	1	2304	1592	183	398	3610
1	1	1	2397	1592	184	399	3610
2	1	1	2435	1592	184	399	3610
3	1	1	2436	1592	184	399	3610
4	1	1	2406	1589	185	399	3610
5	1	1	2395	1592	184	395	3609
6	1	1	2349	1587	184	394	3609
7	1	1	2223	1586	184	395	3609
8	1	1	2101	1587	184	395	3609
9	1	1	1994	1587	185	399	3610
10	1	1	1896	1587	184	399	3611
11	1	1	1800	1587	184	399	3610
12	1	1	1720	1588	183	395	3611
13	1	1	1685	1589	183	399	3610
14	1	1	1695	1592	183	399	3610
15	1	1	1626	1588	184	399	3610
16	1	1	1631	1593	184	399	3608
17	1	1	1787	1592	183	398	3609
18	1	1	1945	1592	184	399	3609
19	1	1	2111	1592	184	399	3611
20	1	1	2291	1592	183	398	3610
21	1	1	2391	1592	184	395	3610
22	1	1	2428	1591	184	395	3610
23	1	1	2431	1592	185	394	3610
24	1	1	2407	1588	184	399	3610
25	1	1	2401	1592	184	399	3609
26	1	1	2351	1587	184	399	3608
27	1	1	2219	1586	184	395	3609
28	1	1	2099	1587	184	394	3609
29	1	1	2000	1587	184	399	3609
30	1	1	1901	1586	183	399	3610
31	1	1	1807	1587	184	399	3611
32	1	1	1732	1588	184	399	3610
33	1	1	1698	1588	182	399	3610
34	1	1	1709	1592	184	399	3611
35	1	1	1633	1587	184	399	3609
36	1	1	1632	1592	184	399	3608
37	1	1	1790	1591	184	399	3609
38	1	1	1952	1592	183	394	3609
39	1	1	2113	1592	184	395	3610
40	1	1	2298	1592	184	395	3611
41	1	1	2395	1591	184	395	3610
42	1	1	2430	1591	184	398	3610
43	1	1	2432	1592	183	399	3610
44	1	1	2403	1587	183	399	3609
45	1	1	2387	1591	184	399	3609
46	1	1	2341	1586	183	399	3608
47	1	1	2217	1587	184	399	3608
48	1	1	2099	1587	182	399	3609
49	1	1	2001	1587	183	399	3611
50	1	1	1907	1587	184	398	3610
51	1	1	1812	1587	184	399	3611
52	1	1	1731	1588	184	399	3610
53	1	1	1690	1588	183	399	3609
54	1	1	1701	1592	184	399	3610
55	1	1	1627	1587	182	399	3609
56	1	1	1629	1591	184	395	3608
57	1	1	1785	1592	184	395	3609
58	1	1	1942	1592	181	395	3609
59	1	1	2107	1591	184	395	3610
60	1	1	2299	1592	184	399	3610
61	1	1	2402	1591	184	398	3610
62	1	1	2438	1591	184	398	3610
63	1	1	2438	1592	183	399	3610
64	1	1	2413	1588	184	399	3610
65	1	1	2397	1591	184	399	3609
66	1	1	2350	1586	184	399	3609
67	1	1	2224	1587	184	398	3609
68	1	1	2105	1587	183	399	3609
69	1	1	2009	1585	184	395	3609
70	1	1	1908	1586	183	395	3610
71	1	1	1808	1587	184	398	3610
72	1	1	1731	1587	183	399	3610
73	1	1	1694	1589	183	398	3610
74	1	1	1706	1592	184	395	3610
75	1	1	1632	1587	183	395	3609
76	1	1	1630	1592	183	395	3608
77	1	1	1784	1592	184	399	3608
78	1	1	1949	1592	183	398	3609
79	1	1	2114	1591	184	399	3609
80	1	1	2303	1591	184	399	3611
81	1	1	2403	1591	184	399	3610
82	1	1	2438	1591	184	399	3611
83	1	1	2442	1591	184	399	3611
84	1	1	2412	1587	184	399	3610
85	1	1	2398	1591	184	395	3609
86	1	1	2347	1586	185	395	3608
87	1	1	2223	1586	185	395	3608
88	1	1	2098	1586	184	395	3609
89	1	1	1993	1586	184	399	3609
90	1	1	1896	1586	183	399	3610
91	1	1	1803	1587	184	399	3610
92	1	1	1724	1587	183	395	3610
93	1	1	1686	1588	183	399	3610
94	1	1	1701	1592	184	399	3610
95	1	1	1628	1587	184	399	3609
96	1	1	1629	1591	185	399	3610
97	1	1	1786	1591	185	399	3608
98	1	1	1945	1591	184	399	3609
99	1	1	2109	1591	184	399	3610
100	1	1	2294	1591	184	399	3610
101	1	1	2391	1591	184	399	3610
102	1	1	2426	1591	184	399	3610
103	1	1	2432	1590	184	394	3610
104	1	1	2407	1587	184	395	3610
105	1	1	2400	1590	183	395	3609
106	1	1	2359	1586	184	395	3608
107	1	1	2227	1586	185	399	3609
108	1	1	2103	1586	183	399	3610
109	1	1	2003	1585	184	399	3609
110	1	1	1902	1587	184	399	3611
111	1	1	1803	1585	184	399	3610
112	1	1	1722	1587	184	399	3609
113	1	1	1687	1588	185	399	3610
114	1	1	1700	1591	184	399	3609
115	1	1	1628	1587	183	399	3609
116	1	1	1631	1591	184	398	3608
117	1	1	1786	1591	183	399	3609
118	1	1	1943	1591	184	399	3609
119	1	1	2110	1592	184	399	3610
120	1	1	2298	1591	183	398	3610
121	1	1	2399	1591	184	395	3611
122	1	1	2437	1591	184	395	3610
123	1	1	2443	1590	185	395	3610
124	1	1	2417	1587	184	395	3610
125	1	1	2406	1590	184	398	3609
126	1	1	2358	1586	184	399	3609
127	1	1	2229	1585	184	399	3609
0	1	1	2107	1586	183	398	3609
1	1	1	2007	1585	184	399	3610
2	1	1	1905	1586	184	399	3610
3	1	1	1803	1586	184	399	3610
4	1	1	1725	1586	184	399	3611
5	1	1	1691	1589	185	399	3611
6	1	1	1703	1591	184	399	3610
7	1	1	1633	1587	183	400	3610
8	1	1	1630	1590	183	399	3609
9	1	1	1784	1590	184	400	3609
10	1	1	1944	1591	184	399	3609
11	1	1	2113	1590	185	399	3610
12	1	1	2302	1591	184	399	3610
13	1	1	2403	1591	184	398	3610
14	1	1	2439	1591	184	398	3610
15	1	1	2446	1591	185	399	3610
16	1	1	2413	1587	184	399	3611
17	1	1	2394	1590	185	399	3609
18	1	1	2353	1586	184	399	3610
19	1	1	2224	1585	184	399	3609
20	1	1	2102	1585	184	399	3609
21	1	1	2008	1586	184	400	3611
22	1	1	1910	1585	184	399	3610
23	1	1	1817	1586	184	399	3610
24	1	1	1735	1586	184	399	3610
25	1	1	1697	1587	183	399	3610
26	1	1	1705	1591	183	400	3610
27	1	1	1630	1587	183	400	3610
28	1	1	1626	1591	184	399	3608
29	1	1	1785	1590	184	399	3608
30	1	1	1945	1591	185	398	3609
31	1	1	2115	1590	184	399	3609
32	1	1	2305	1591	183	398	3611
33	1	1	2409	1591	184	399	3610
34	1	1	2442	1591	184	399	3610
35	1	1	2445	1591	184	399	3610
36	1	1	2412	1587	185	399	3611
37	1	1	2391	1590	184	400	3609
38	1	1	2349	1585	184	400	3610
39	1	1	2227	1585	184	399	3609
40	1	1	2106	1586	184	398	3609
41	1	1	2006	1585	184	399	3609
42	1	1	1908	1585	184	399	3610
43	1	1	1810	1586	184	399	3610
44	1	1	1732	1586	183	400	3610
45	1	1	1696	1587	184	398	3610
46	1	1	1705	1590	183	399	3609
47	1	1	1630	1586	183	398	3609
48	1	1	1628	1590	184	398	3608
49	1	1	1787	1591	184	399	3609
50	1	1	1947	1591	184	398	3609
51	1	1	2114	1591	184	399	3610
52	1	1	2299	1590	183	399	3610
53	1	1	2400	1590	185	399	3611
54	1	1	2439	1591	183	400	3610
55	1	1	2438	1590	184	400	3610
56	1	1	2408	1586	184	400	3610
57	1	1	2401	1589	184	399	3609
58	1	1	2353	1586	183	399	3608
59	1	1	2224	1585	184	399	3609
60	1	1	2105	1586	184	399	3609
61	1	1	2005	1586	184	399	3611
62	1	1	1909	1585	184	399	3610
63	1	1	1813	1585	184	399	3610
64	1	1	1735	1586	184	399	3611
65	1	1	1700	1588	184	399	3611
66	1	1	1709	1590	184	398	3610
67	1	1	1639	1586	183	398	3609
68	1	1	1634	1590	184	399	3608
69	1	1	1787	1590	184	399	3609
70	1	1	1947	1591	184	399	3609
71	1	1	2112	1590	182	398	3610
72	1	1	2300	1590	184	399	3610
73	1	1	2400	1590	184	399	3611
74	1	1	2436	1590	186	399	3610
75	1	1	2436	1591	185	400	3610
76	1	1	2406	1587	184	399	3610
77	1	1	2397	1590	184	398	3610
78	1	1	2354	1586	184	399	3608
79	1	1	2228	1585	184	398	3609
80	1	1	2106	1585	184	399	3609
81	1	1	2005	1585	184	399	3610
82	1	1	1907	1585	183	399	3610
83	1	1	1808	1585	184	398	3610
84	1	1	1733	1586	184	398	3610
85	1	1	1693	1587	184	400	3611
86	1	1	1706	1590	184	400	3610
87	1	1	1638	1585	183	399	3609
88	1	1	1627	1590	183	399	3608
89	1	1	1779	1591	184	399	3610
90	1	1	1940	1591	183	400	3610
91	1	1	2105	1590	184	399	3610
92	1	1	2291	1590	185	399	3610
93	1	1	2392	1590	183	399	3610
94	1	1	2432	1590	184	399	3610
95	1	1	2434	1590	184	399	3610
96	1	1	2409	1587	184	399	3610
97	1	1	2398	1590	185	398	3608
98	1	1	2354	1585	183	399	3608
99	1	1	2229	1585	184	399	3609
100	1	1	2105	1585	184	399	3609
101	1	1	2003	1585	183	400	3610
102	1	1	1908	1586	184	399	3611
103	1	1	1812	1585	184	400	3610
104	1	1	1733	1586	183	399	3611
105	1	1	1696	1587	184	399	3610
106	1	1	1703	1589	183	399	3610
107	1	1	1633	1587	184	399	3610
108	1	1	1624	1590	184	399	3608
109	1	1	1779	1590	184	399	3609
110	1	1	1942	1591	184	399	3610
111	1	1	2107	1590	184	399	3610
112	1	1	2294	1590	184	398	3610
113	1	1	2393	1590	184	399	3610
114	1	1	2433	1590	184	399	3610
115	1	1	2437	1590	184	399	3610
116	1	1	2407	1586	184	399	3610
117	1	1	2394	1590	183	399	3609
118	1	1	2355	1585	184	399	3609
119	1	1	2229	1585	183	400	3609
120	1	1	2108	1585	184	400	3610
121	1	1	2010	1584	183	399	3610
122	1	1	1912	1585	185	399	3610
123	1	1	1814	1585	183	399	3611
124	1	1	1734	1586	184	398	3610
125	1	1	1694	1587	184	398	3610
126	1	1	1702	1590	184	399	3610
127	1	1	1626	1586	184	399	3608
0	1	1	1622	1590	184	400	3608
1	1	1	1778	1590	184	399	3610
2	1	1	1939	1590	184	399	3610
3	1	1	2103	1590	183	399	3610
4	1	1	2289	1589	184	398	3610
5	1	1	2391	1590	184	399	3610
6	1	1	2433	1590	183	398	3611
7	1	1	2438	1590	184	399	3610
8	1	1	2417	1587	184	399	3610
9	1	1	2406	1589	184	400	3608
10	1	1	2359	1584	185	400	3608
11	1	1	2229	1584	184	399	3609
12	1	1	2106	1585	183	400	3609
13	1	1	2001	1584	183	399	3610
14	1	1	1906	1585	184	399	3611
15	1	1	1811	1585	184	399	3610
16	1	1	1730	1586	183	399	3610
17	1	1	1690	1587	184	399	3610
18	1	1	1700	1590	184	399	3610
19	1	1	1628	1585	183	399	3609
20	1	1	1620	1591	184	398	3608
21	1	1	1775	1590	184	400	3608
22	1	1	1939	1590	184	400	3609
23	1	1	2102	1590	184	399	3610
24	1	1	2295	1590	183	399	3610
25	1	1	2398	1590	184	399	3611
26	1	1	2437	1590	185	398	3610
27	1	1	2440	1590	186	400	3609
28	1	1	2409	1585	184	400	3610
29	1	1	2391	1589	184	399	3609
30	1	1	2349	1585	184	399	3608
31	1	1	2225	1585	184	399	3610
32	1	1	2105	1585	184	399	3610
33	1	1	2006	1584	184	398	3610
34	1	1	1908	1584	185	399	3609
35	1	1	1810	1585	183	399	3610
36	1	1	1731	1585	184	400	3610
37	1	1	1691	1587	185	399	3610
38	1	1	1703	1590	184	400	3610
39	1	1	1631	1585	183	400	3609
40	1	1	1620	1590	184	399	3608
41	1	1	1769	1590	183	399	3609
42	1	1	1935	1590	183	398	3609
43	1	1	2102	1589	184	399	3610
44	1	1	2295	1590	184	399	3610
45	1	1	2400	1589	184	399	3610
46	1	1	2432	1590	184	399	3611
47	1	1	2441	1590	185	399	3611
48	1	1	2421	1586	183	399	3610
49	1	1	2406	1589	184	398	3609
50	1	1	2362	1585	184	398	3608
51	1	1	2232	1584	184	398	3609
52	1	1	2112	1585	185	398	3609
53	1	1	2013	1584	183	399	3610
54	1	1	1912	1584	184	399	3610
55	1	1	1815	1584	184	399	3610
56	1	1	1728	1585	183	399	3611
57	1	1	1692	1586	184	400	3611
58	1	1	1701	1589	183	399	3610
59	1	1	1635	1585	185	400	3609
60	1	1	1628	1590	184	399	3610
61	1	1	1783	1590	185	398	3608
62	1	1	1942	1590	184	398	3608
63	1	1	2102	1590	184	398	3610
64	1	1	2293	1589	183	399	3610
65	1	1	2396	1589	185	398	3609
66	1	1	2431	1589	185	399	3610
67	1	1	2435	1590	183	398	3610
68	1	1	2407	1585	183	398	3609
69	1	1	2396	1589	183	400	3608
70	1	1	2357	1584	184	399	3608
71	1	1	2227	1584	184	400	3608
72	1	1	2103	1584	183	399	3609
73	1	1	2007	1584	184	399	3610
74	1	1	1906	1584	184	400	3611
75	1	1	1811	1584	184	400	3610
76	1	1	1731	1585	184	400	3610
77	1	1	1696	1586	184	399	3610
78	1	1	1707	1589	183	399	3610
79	1	1	1643	1584	183	398	3608
80	1	1	1633	1589	185	399	3608
81	1	1	1783	1590	184	398	3608
82	1	1	1947	1589	184	399	3609
83	1	1	2107	1589	184	399	3610
84	1	1	2299	1590	184	399	3610
85	1	1	2400	1589	183	400	3611
86	1	1	2429	1589	184	400	3610
87	1	1	2429	1589	184	399	3609
88	1	1	2404	1585	184	399	3610
89	1	1	2390	1588	184	399	3608
90	1	1	2349	1584	184	399	3608
91	1	1	2224	1583	184	398	3608
92	1	1	2102	1584	182	400	3609
93	1	1	2005	1584	184	399	3610
94	1	1	1905	1584	183	399	3611
95	1	1	1806	1584	184	399	3610
96	1	1	1730	1585	184	398	3610
97	1	1	1694	1586	185	398	3609
98	1	1	1699	1588	183	398	3609
99	1	1	1634	1584	184	399	3609
100	1	1	1623	1590	184	399	3608
101	1	1	1774	1589	182	399	3608
102	1	1	1936	1590	184	398	3609
103	1	1	2104	1589	184	400	3609
104	1	1	2298	1589	184	400	3610
105	1	1	2407	1589	184	399	3610
106	1	1	2443	1589	183	399	3610
107	1	1	2443	1589	185	399	3610
108	1	1	2413	1585	184	400	3610
109	1	1	2389	1588	184	399	3609
110	1	1	2347	1584	184	399	3608
111	1	1	2220	1583	182	399	3608
112	1	1	2100	1584	185	398	3609
113	1	1	2001	1584	184	399	3610
114	1	1	1905	1584	184	398	3610
115	1	1	1814	1584	184	399	3610
116	1	1	1736	1584	183	399	3610
117	1	1	1698	1586	184	399	3610
118	1	1	1706	1589	183	400	3610
119	1	1	1634	1584	183	400	3609
120	1	1	1624	1589	184	400	3608
121	1	1	1775	1588	183	399	3608
122	1	1	1943	1589	183	398	3609
123	1	1	2104	1589	184	399	3610
124	1	1	2295	1589	183	399	3610
125	1	1	2405	1589	185	399	3611
126	1	1	2438	1589	185	398	3610
127	1	1	2434	1589	184	399	3610
0	1	1	2410	1585	184	399	3610
1	1	1	2393	1588	184	399	3609
2	1	1	2348	1584	184	399	3609
3	1	1	2223	1583	183	399	3609
4	1	1	2100	1584	184	398	3609
5	1	1	2002	1584	183	399	3611
6	1	1	1903	1583	183	399	3610
7	1	1	1806	1584	185	399	3611
8	1	1	1723	1585	186	400	3610
9	1	1	1690	1586	184	399	3610
10	1	1	1704	1589	183	400	3610
11	1	1	1643	1585	182	400	3608
12	1	1	1632	1590	184	399	3608
13	1	1	1782	1588	183	399	3608
14	1	1	1942	1589	184	399	3609
15	1	1	2099	1589	184	399	3610
16	1	1	2288	1588	183	399	3610
17	1	1	2389	1589	184	399	3610
18	1	1	2423	1589	185	399	3610
19	1	1	2432	1589	184	398	3610
20	1	1	2411	1585	184	399	3609
21	1	1	2400	1589	184	399	3610
22	1	1	2359	1584	184	400	3608
23	1	1	2236	1583	184	399	3608
24	1	1	2112	1584	184	399	3609
25	1	1	2014	1584	183	399	3610
26	1	1	1910	1583	183	399	3610
27	1	1	1810	1583	184	400	3610
28	1	1	1729	1585	183	400	3610
29	1	1	1693	1586	184	399	3610
30	1	1	1700	1588	184	399	3610
31	1	1	1634	1585	184	399	3608
32	1	1	1618	1589	183	398	3608
33	1	1	1770	1589	185	398	3608
34	1	1	1937	1589	184	399	3609
35	1	1	2099	1589	184	399	3610
36	1	1	2288	1589	184	399	3610
37	1	1	2396	1589	185	400	3611
38	1	1	2438	1589	184	399	3610
39	1	1	2440	1589	184	399	3610
40	1	1	2411	1585	183	400	3610
41	1	1	2394	1588	184	399	3609
42	1	1	2349	1583	185	399	3608
43	1	1	2225	1583	184	399	3609
44	1	1	2104	1584	184	400	3609
45	1	1	2006	1583	184	399	3610
46	1	1	1908	1583	184	399	3610
47	1	1	1817	1583	184	399	3610
48	1	1	1736	1584	183	399	3610
49	1	1	1700	1586	184	399	3611
50	1	1	1706	1589	184	398	3610
51	1	1	1645	1585	184	399	3609
52	1	1	1633	1588	184	399	3608
53	1	1	1776	1589	183	399	3608
54	1	1	1937	1589	183	399	3609
55	1	1	2101	1588	184	400	3610
56	1	1	2289	1588	183	399	3610
57	1	1	2390	1589	183	400	3611
58	1	1	2428	1589	184	400	3609
59	1	1	2430	1588	183	399	3610
60	1	1	2408	1585	183	399	3609
61	1	1	2395	1588	184	398	3609
62	1	1	2353	1583	184	398	3608
63	1	1	2230	1583	184	399	3609
64	1	1	2110	1583	184	399	3610
65	1	1	2009	1583	183	399	3610
66	1	1	1909	1584	184	399	3611
67	1	1	1803	1583	184	399	3610
68	1	1	1723	1584	184	399	3610
69	1	1	1685	1586	183	399	3610
70	1	1	1697	1588	184	399	3610
71	1	1	1639	1583	183	399	3608
72	1	1	1627	1588	183	399	3609
73	1	1	1780	1589	183	399	3608
74	1	1	1940	1589	185	399	3609
75	1	1	2100	1588	184	399	3610
76	1	1	2293	1588	185	400	3611
77	1	1	2399	1588	184	398	3610
78	1	1	2433	1588	184	398	3610
79	1	1	2439	1588	184	398	3609
80	1	1	2412	1584	184	399	3609
81	1	1	2397	1588	184	399	3609
82	1	1	2356	1583	184	399	3609
83	1	1	2236	1583	184	399	3608
84	1	1	2107	1583	184	399	3609
85	1	1	2008	1583	184	400	3610
86	1	1	1914	1583	184	400	3610
87	1	1	1822	1583	183	400	3610
88	1	1	1737	1584	184	399	3610
89	1	1	1699	1585	183	399	3611
90	1	1	1705	1588	183	399	3609
91	1	1	1639	1584	183	399	3609
92	1	1	1625	1588	184	398	3608
93	1	1	1780	1588	183	399	3608
94	1	1	1945	1589	183	399	3609
95	1	1	2102	1588	184	399	3609
96	1	1	2291	1588	184	399	3609
97	1	1	2394	1588	183	399	3611
98	1	1	2432	1588	184	400	3609
99	1	1	2434	1588	185	398	3609
100	1	1	2413	1584	182	398	3609
101	1	1	2389	1587	183	399	3609
102	1	1	2349	1582	183	399	3608
103	1	1	2229	1582	184	399	3609
104	1	1	2103	1583	184	400	3609
105	1	1	2006	1583	183	400	3609
106	1	1	1912	1583	183	400	3609
107	1	1	1820	1583	184	400	3609
108	1	1	1739	1584	183	399	3610
109	1	1	1701	1585	184	398	3610
110	1	1	1707	1589	183	399	3610
111	1	1	1642	1583	183	398	3608
112	1	1	1623	1588	184	399	3608
113	1	1	1773	1588	184	399	3608
114	1	1	1937	1589	184	399	3609
115	1	1	2101	1587	184	399	3610
116	1	1	2296	1587	184	398	3609
117	1	1	2400	1588	185	400	3609
118	1	1	2435	1588	184	400	3610
119	1	1	2433	1588	184	399	3611
120	1	1	2402	1584	184	399	3610
121	1	1	2390	1587	184	399	3609
122	1	1	2354	1583	184	400	3608
123	1	1	2231	1582	184	400	3609
124	1	1	2110	1583	184	400	3610
125	1	1	2009	1583	183	399	3609
126	1	1	1909	1582	184	398	3609
127	1	1	1811	1583	183	399	3610
0	1	1	1729	1583	184	399	3609
1	1	1	1692	1585	184	398	3609
2	1	1	1702	1588	183	399	3609
3	1	1	1642	1582	183	399	3608
4	1	1	1627	1587	182	399	3609
5	1	1	1781	1588	184	399	3608
6	1	1	1942	1588	184	399	3608
7	1	1	2092	1587	182	400	3609
8	1	1	2280	1587	184	400	3609
9	1	1	2387	1587	183	399	3609
10	1	1	2427	1587	184	399	3610
11	1	1	2436	1588	184	399	3611
12	1	1	2412	1584	184	400	3609
13	1	1	2400	1587	183	399	3608
14	1	1	2358	1583	184	399	3608
15	1	1	2234	1582	184	399	3608
16	1	1	2114	1583	183	397	3608
17	1	1	2010	1582	182	399	3609
18	1	1	1912	1583	184	399	3609
19	1	1	1817	1582	183	399	3611
20	1	1	1734	1583	184	400	3610
21	1	1	1696	1585	183	398	3610
22	1	1	1702	1587	183	399	3609
23	1	1	1641	1584	183	400	3609
24	1	1	1622	1587	184	399	3608
25	1	1	1767	1587	184	399	3608
26	1	1	1928	1588	183	400	3609
27	1	1	2088	1587	183	399	3609
28	1	1	2279	1587	184	398	3609
29	1	1	2387	1587	183	399	3611
30	1	1	2427	1588	184	399	3610
31	1	1	2431	1588	184	398	3609
32	1	1	2406	1584	184	399	3609
33	1	1	2391	1587	183	399	3609
34	1	1	2355	1583	184	399	3608
35	1	1	2234	1581	183	399	3608
36	1	1	2112	1583	184	399	3608
37	1	1	2011	1582	184	400	3609
38	1	1	1906	1582	184	399	3609
39	1	1	1807	1582	183	399	3609
40	1	1	1726	1583	184	399	3609
41	1	1	1690	1585	184	399	3609
42	1	1	1697	1587	183	400	3610
43	1	1	1633	1582	184	400	3608
44	1	1	1617	1587	183	400	3608
45	1	1	1766	1587	183	399	3609
46	1	1	1927	1588	184	398	3609
47	1	1	2086	1587	184	398	3609
48	1	1	2278	1587	184	398	3609
49	1	1	2384	1587	184	399	3609
50	1	1	2423	1587	184	399	3609
51	1	1	2428	1587	184	399	3609
52	1	1	2406	1584	184	399	3610
53	1	1	2397	1587	184	400	3608
54	1	1	2364	1582	183	400	3609
55	1	1	2242	1582	183	400	3608
56	1	1	2112	1582	185	399	3608
57	1	1	2011	1582	184	399	3609
58	1	1	1911	1582	184	399	3609
59	1	1	1809	1582	184	400	3609
60	1	1	1725	1582	184	400	3609
61	1	1	1686	1585	185	399	3609
62	1	1	1695	1587	185	399	3609
63	1	1	1632	1582	184	399	3608
64	1	1	1612	1587	183	398	3608
65	1	1	1759	1587	184	398	3608
66	1	1	1921	1587	183	399	3609
67	1	1	2081	1587	184	399	3610
68	1	1	2272	1586	184	399	3609
69	1	1	2384	1587	183	399	3610
70	1	1	2431	1587	184	401	3610
71	1	1	2433	1587	184	400	3609
72	1	1	2413	1584	184	400	3610
73	1	1	2401	1586	184	400	3608
74	1	1	2365	1582	184	399	3608
75	1	1	2246	1581	184	399	3608
76	1	1	2122	1582	184	395	3608
77	1	1	2023	1581	184	398	3609
78	1	1	1924	1582	184	399	3609
79	1	1	1821	1581	184	399	3609
80	1	1	1732	1582	184	399	3610
81	1	1	1692	1584	183	399	3610
82	1	1	1697	1586	184	399	3609
83	1	1	1629	1583	184	399	3609
84	1	1	1609	1587	184	399	3608
85	1	1	1758	1587	184	400	3609
86	1	1	1924	1587	184	399	3608
87	1	1	2088	1586	185	399	3609
88	1	1	2282	1586	183	399	3609
89	1	1	2395	1586	184	399	3609
90	1	1	2440	1587	185	399	3609
91	1	1	2446	1587	184	400	3609
92	1	1	2419	1583	184	400	3609
93	1	1	2401	1586	184	399	3608
94	1	1	2368	1582	185	399	3608
95	1	1	2254	1581	185	399	3608
96	1	1	2128	1582	184	399	3608
97	1	1	2023	1582	184	399	3609
98	1	1	1918	1581	184	399	3609
99	1	1	1818	1582	182	399	3610
100	1	1	1736	1583	183	399	3609
101	1	1	1694	1583	183	400	3609
102	1	1	1700	1587	183	399	3609
103	1	1	1634	1581	183	400	3608
104	1	1	1611	1586	183	399	3608
105	1	1	1759	1587	184	399	3608
106	1	1	1923	1587	184	398	3608
107	1	1	2087	1586	183	399	3609
108	1	1	2289	1587	184	400	3609
109	1	1	2399	1586	184	399	3609
110	1	1	2442	1586	185	399	3609
111	1	1	2451	1587	184	399	3609
112	1	1	2428	1583	184	399	3609
113	1	1	2413	1586	184	398	3608
114	1	1	2375	1581	184	399	3609
115	1	1	2254	1581	184	399	3608
116	1	1	2121	1582	184	399	3608
117	1	1	2018	1581	185	399	3609
118	1	1	1917	1581	184	399	3609
119	1	1	1817	1581	183	400	3609
120	1	1	1734	1581	184	399	3609
121	1	1	1688	1583	183	400	3609
122	1	1	1691	1586	183	399	3609
123	1	1	1629	1582	184	399	3609
124	1	1	1606	1586	183	399	3607
125	1	1	1746	1587	184	399	3608
126	1	1	1908	1587	183	399	3608
127	1	1	2071	1586	183	399	3609
0	1	1	2270	1586	183	399	3609
1	1	1	2388	1586	184	399	3610
2	1	1	2441	1586	183	399	3609
3	1	1	2451	1586	183	399	3609
4	1	1	2427	1582	184	399	3609
5	1	1	2412	1585	183	400	3608
6	1	1	2379	1581	184	399	3608
7	1	1	2255	1581	183	399	3608
8	1	1	2128	1582	183	399	3609
9	1	1	2018	1581	183	399	3609
10	1	1	1918	1580	184	400	3609
11	1	1	1816	1580	184	400	3609
12	1	1	1729	1582	184	400	3609
13	1	1	1687	1583	184	399	3608
14	1	1	1693	1586	183	398	3609
15	1	1	1627	1581	183	399	3608
16	1	1	1598	1586	184	398	3608
17	1	1	1746	1587	184	399	3608
18	1	1	1907	1587	184	399	3608
19	1	1	2070	1586	183	399	3608
20	1	1	2268	1586	184	398	3610
21	1	1	2383	1585	185	400	3609
22	1	1	2431	1586	184	400	3609
23	1	1	2442	1586	184	400	3609
24	1	1	2420	1582	184	399	3609
25	1	1	2410	1585	184	398	3607
26	1	1	2382	1581	183	399	3608
27	1	1	2255	1581	183	401	3608
28	1	1	2127	1581	184	400	3608
29	1	1	2024	1581	183	399	3609
30	1	1	1918	1581	184	399	3608
31	1	1	1816	1581	183	399	3609
32	1	1	1727	1581	184	399	3609
33	1	1	1681	1583	183	399	3610
34	1	1	1685	1585	183	398	3609
35	1	1	1624	1581	184	399	3608
36	1	1	1596	1586	183	399	3607
37	1	1	1740	1586	183	399	3608
38	1	1	1907	1586	183	400	3608
39	1	1	2070	1586	183	400	3609
40	1	1	2264	1585	184	399	3609
41	1	1	2379	1586	183	400	3610
42	1	1	2428	1586	184	400	3609
43	1	1	2440	1585	184	400	3609
44	1	1	2421	1582	183	399	3609
45	1	1	2416	1586	184	399	3609
46	1	1	2383	1580	184	399	3607
47	1	1	2262	1579	183	399	3607
48	1	1	2132	1581	184	400	3608
49	1	1	2026	1580	183	399	3609
50	1	1	1918	1580	184	399	3608
51	1	1	1813	1580	183	399	3609
52	1	1	1727	1581	184	399	3609
53	1	1	1682	1582	184	400	3609
54	1	1	1686	1586	184	399	3609
55	1	1	1625	1580	184	399	3608
56	1	1	1595	1585	183	399	3608
57	1	1	1738	1586	184	400	3608
58	1	1	1905	1585	184	400	3608
59	1	1	2070	1585	184	400	3608
60	1	1	2276	1585	183	399	3608
61	1	1	2394	1585	184	398	3609
62	1	1	2442	1585	184	399	3609
63	1	1	2455	1585	184	399	3609
64	1	1	2434	1582	183	398	3609
65	1	1	2417	1585	184	398	3608
66	1	1	2389	1581	183	399	3608
67	1	1	2274	1579	184	399	3607
68	1	1	2142	1580	184	400	3608
69	1	1	2044	1580	184	399	3609
70	1	1	1935	1580	183	399	3608
71	1	1	1826	1580	184	400	3610
72	1	1	1732	1581	183	401	3608
73	1	1	1686	1582	183	400	3609
74	1	1	1685	1585	183	399	3609
75	1	1	1619	1580	184	399	3607
76	1	1	1591	1585	184	399	3607
77	1	1	1736	1585	184	399	3608
78	1	1	1907	1586	183	398	3608
79	1	1	2072	1585	183	399	3609
80	1	1	2270	1586	183	399	3610
81	1	1	2388	1586	185	398	3609
82	1	1	2442	1585	183	399	3609
83	1	1	2455	1585	184	398	3609
84	1	1	2435	1581	184	399	3608
85	1	1	2427	1585	183	400	3607
86	1	1	2400	1580	183	399	3607
87	1	1	2280	1579	184	399	3608
88	1	1	2147	1580	184	399	3608
89	1	1	2039	1579	184	400	3609
90	1	1	1930	1580	183	400	3609
91	1	1	1824	1579	184	400	3609
92	1	1	1729	1580	184	400	3609
93	1	1	1674	1581	183	398	3609
94	1	1	1670	1584	183	399	3608
95	1	1	1605	1580	183	399	3607
96	1	1	1577	1585	183	398	3608
97	1	1	1725	1586	184	399	3608
98	1	1	1897	1585	184	399	3608
99	1	1	2064	1585	184	399	3609
100	1	1	2271	1585	183	398	3608
101	1	1	2395	1584	183	400	3610
102	1	1	2448	1585	184	400	3609
103	1	1	2464	1585	184	400	3609
104	1	1	2445	1581	184	399	3608
105	1	1	2433	1584	184	399	3608
106	1	1	2405	1580	184	399	3608
107	1	1	2280	1579	183	400	3607
108	1	1	2147	1579	184	399	3608
109	1	1	2038	1579	183	399	3608
110	1	1	1926	1579	183	399	3608
111	1	1	1816	1580	184	399	3608
112	1	1	1726	1580	184	399	3609
113	1	1	1676	1581	184	398	3608
114	1	1	1675	1584	184	398	3609
115	1	1	1607	1580	184	399	3607
116	1	1	1576	1584	184	399	3607
117	1	1	1721	1584	183	399	3608
118	1	1	1889	1585	184	399	3609
119	1	1	2050	1584	183	399	3608
120	1	1	2259	1585	184	400	3609
121	1	1	2386	1584	183	400	3609
122	1	1	2442	1584	183	399	3609
123	1	1	2462	1584	184	399	3609
124	1	1	2450	1582	183	399	3609
125	1	1	2443	1584	183	399	3608
126	1	1	2409	1579	184	399	3607
127	1	1	2281	1579	183	399	3607
0	1	1	2148	1579	184	399	3608
1	1	1	2038	1579	183	398	3608
2	1	1	1925	1579	183	399	3608
3	1	1	1815	1579	183	398	3608
4	1	1	1719	1579	183	398	3609
5	1	1	1664	1581	183	399	3608
6	1	1	1660	1584	183	399	3608
7	1	1	1595	1579	184	399	3607
8	1	1	1562	1584	184	400	3607
9	1	1	1708	1584	183	400	3607
10	1	1	1881	1585	185	400	3608
11	1	1	2047	1584	184	400	3608
12	1	1	2259	1585	184	399	3609
13	1	1	2388	1584	184	398	3608
14	1	1	2448	1584	184	398	3609
15	1	1	2466	1584	183	399	3610
16	1	1	2455	1582	183	399	3608
17	1	1	2449	1584	184	399	3608
18	1	1	2421	1580	185	399	3607
19	1	1	2295	1579	183	399	3608
20	1	1	2162	1579	183	399	3609
21	1	1	2054	1578	182	400	3609
22	1	1	1941	1578	183	400	3608
23	1	1	1829	1579	184	399	3608
24	1	1	1728	1579	183	399	3608
25	1	1	1670	1580	184	400	3608
26	1	1	1659	1583	183	400	3608
27	1	1	1588	1579	183	400	3607
28	1	1	1557	1584	184	400	3608
29	1	1	1703	1585	184	399	3607
30	1	1	1872	1585	183	399	3608
31	1	1	2035	1584	184	399	3609
32	1	1	2248	1584	184	398	3608
33	1	1	2384	1584	183	399	3610
34	1	1	2444	1583	184	399	3609
35	1	1	2459	1583	184	399	3608
36	1	1	2442	1580	184	399	3608
37	1	1	2430	1584	184	400	3607
38	1	1	2409	1578	183	400	3607
39	1	1	2290	1578	184	400	3608
40	1	1	2158	1578	183	400	3607
41	1	1	2049	1577	183	399	3609
42	1	1	1935	1578	184	399	3608
43	1	1	1827	1579	184	399	3608
44	1	1	1731	1578	184	400	3609
45	1	1	1681	1580	183	399	3609
46	1	1	1673	1583	182	399	3608
47	1	1	1606	1579	184	399	3608
48	1	1	1572	1584	183	399	3607
49	1	1	1720	1583	184	399	3607
50	1	1	1894	1584	184	400	3608
51	1	1	2058	1584	183	399	3609
52	1	1	2264	1583	184	399	3608
53	1	1	2389	1583	183	400	3608
54	1	1	2445	1583	184	400	3608
55	1	1	2464	1583	184	400	3608
56	1	1	2443	1580	184	399	3608
57	1	1	2432	1583	184	399	3607
58	1	1	2403	1578	185	399	3607
59	1	1	2282	1578	184	399	3607
60	1	1	2153	1578	184	400	3607
61	1	1	2045	1577	183	399	3608
62	1	1	1933	1578	184	399	3608
63	1	1	1824	1578	183	399	3609
64	1	1	1731	1579	184	399	3609
65	1	1	1673	1579	184	399	3608
66	1	1	1666	1584	183	399	3609
67	1	1	1606	1578	184	399	3607
68	1	1	1572	1583	184	400	3607
69	1	1	1713	1582	184	399	3607
70	1	1	1887	1583	184	400	3607
71	1	1	2057	1583	184	400	3608
72	1	1	2264	1583	184	400	3609
73	1	1	2392	1582	184	400	3608
74	1	1	2448	1583	183	399	3608
75	1	1	2467	1583	184	399	3608
76	1	1	2452	1580	184	399	3609
77	1	1	2437	1583	184	399	3607
78	1	1	2414	1578	184	400	3608
79	1	1	2297	1578	184	399	3607
80	1	1	2157	1577	184	399	3607
81	1	1	2048	1578	182	399	3608
82	1	1	1934	1578	184	399	3609
83	1	1	1826	1578	183	399	3608
84	1	1	1726	1578	184	398	3609
85	1	1	1671	1579	184	399	3608
86	1	1	1671	1583	184	399	3608
87	1	1	1609	1578	185	399	3607
88	1	1	1571	1583	185	400	3607
89	1	1	1713	1583	183	400	3607
90	1	1	1886	1583	184	400	3607
91	1	1	2054	1583	184	400	3608
92	1	1	2267	1583	184	399	3608
93	1	1	2395	1583	184	398	3608
94	1	1	2453	1583	184	398	3609
95	1	1	2468	1583	184	399	3608
96	1	1	2454	1580	184	399	3608
97	1	1	2441	1583	185	399	3607
98	1	1	2418	1578	184	399	3607
99	1	1	2300	1577	183	399	3607
100	1	1	2166	1578	183	399	3607
101	1	1	2052	1577	183	400	3608
102	1	1	1933	1578	183	400	3608
103	1	1	1819	1578	183	399	3608
104	1	1	1719	1579	183	399	3609
105	1	1	1659	1579	183	399	3609
106	1	1	1657	1583	184	400	3608
107	1	1	1594	1578	183	400	3607
108	1	1	1560	1583	183	399	3607
109	1	1	1703	1583	185	399	3607
110	1	1	1880	1583	184	399	3607
111	1	1	2045	1583	184	399	3609
112	1	1	2258	1583	185	399	3608
113	1	1	2389	1583	184	399	3608
114	1	1	2451	1582	184	399	3608
115	1	1	2471	1583	184	399	3609
116	1	1	2458	1580	184	399	3608
117	1	1	2452	1582	183	400	3607
118	1	1	2431	1578	183	399	3607
119	1	1	2310	1577	184	400	3607
120	1	1	2170	1577	184	400	3608
121	1	1	2049	1577	184	399	3608
122	1	1	1931	1578	183	399	3608
123	1	1	1821	1577	184	398	3609
124	1	1	1723	1577	184	400	3609
125	1	1	1668	1579	184	399	3609
126	1	1	1661	1582	184	399	3608
127	1	1	1603	1577	184	399	3607
0	1	1	1565	1582	184	398	3607
1	1	1	1705	1584	184	399	3607
2	1	1	1878	1583	185	399	3608
3	1	1	2041	1582	184	399	3608
4	1	1	2259	1583	184	399	3608
5	1	1	2393	1582	184	399	3608
6	1	1	2452	1582	184	399	3608
7	1	1	2472	1582	183	400	3609
8	1	1	2457	1579	184	400	3608
9	1	1	2444	1582	184	400	3607
10	1	1	2420	1577	184	400	3608
11	1	1	2296	1577	184	399	3607
12	1	1	2157	1577	184	399	3608
13	1	1	2043	1577	185	399	3609
14	1	1	1923	1577	184	399	3608
15	1	1	1810	1577	183	399	3609
16	1	1	1715	1578	183	399	3609
17	1	1	1664	1579	184	399	3608
18	1	1	1660	1583	183	399	3609
19	1	1	1595	1577	184	399	3607
20	1	1	1553	1582	183	398	3608
21	1	1	1695	1583	184	400	3608
22	1	1	1871	1582	183	399	3607
23	1	1	2040	1581	183	399	3608
24	1	1	2255	1582	183	399	3608
25	1	1	2395	1582	184	399	3608
26	1	1	2457	1582	184	400	3609
27	1	1	2481	1583	183	400	3609
28	1	1	2470	1580	182	400	3608
29	1	1	2453	1581	184	398	3607
30	1	1	2430	1577	184	399	3607
31	1	1	2313	1577	185	399	3607
32	1	1	2174	1577	183	399	3608
33	1	1	2055	1576	184	399	3608
34	1	1	1938	1577	184	399	3608
35	1	1	1829	1576	184	399	3608
36	1	1	1726	1577	184	399	3608
37	1	1	1665	1578	184	399	3608
38	1	1	1659	1582	183	399	3609
39	1	1	1593	1578	184	399	3607
40	1	1	1552	1582	183	399	3608
41	1	1	1693	1582	184	399	3607
42	1	1	1862	1582	183	400	3608
43	1	1	2033	1582	183	399	3608
44	1	1	2258	1582	184	399	3608
45	1	1	2393	1582	184	399	3608
46	1	1	2455	1582	184	398	3608
47	1	1	2476	1582	184	399	3609
48	1	1	2467	1580	184	399	3608
49	1	1	2460	1581	184	399	3607
50	1	1	2442	1577	185	399	3608
51	1	1	2318	1576	184	400	3607
52	1	1	2176	1577	183	399	3607
53	1	1	2067	1576	183	399	3608
54	1	1	1944	1576	185	400	3608
55	1	1	1820	1577	184	398	3609
56	1	1	1716	1577	186	399	3609
57	1	1	1658	1578	183	399	3608
58	1	1	1654	1582	183	400	3608
59	1	1	1586	1576	183	399	3607
60	1	1	1542	1581	183	400	3607
61	1	1	1677	1581	183	399	3607
62	1	1	1855	1582	184	399	3607
63	1	1	2024	1581	184	398	3608
64	1	1	2249	1582	183	398	3608
65	1	1	2391	1582	184	399	3608
66	1	1	2456	1582	184	399	3609
67	1	1	2482	1582	184	399	3609
68	1	1	2473	1579	184	399	3608
69	1	1	2465	1582	184	400	3608
70	1	1	2449	1577	184	400	3607
71	1	1	2326	1576	183	400	3607
72	1	1	2184	1577	183	400	3608
73	1	1	2068	1576	182	399	3608
74	1	1	1945	1576	184	399	3608
75	1	1	1821	1576	183	399	3608
76	1	1	1716	1577	183	400	3608
77	1	1	1655	1578	183	399	3608
78	1	1	1642	1581	184	399	3608
79	1	1	1575	1576	184	399	3607
80	1	1	1531	1581	184	399	3607
81	1	1	1665	1581	183	399	3607
82	1	1	1842	1582	184	399	3607
83	1	1	2016	1581	184	399	3608
84	1	1	2247	1582	184	399	3609
85	1	1	2393	1582	185	399	3608
86	1	1	2462	1581	184	399	3608
87	1	1	2490	1582	184	400	3609
88	1	1	2485	1580	184	399	3608
89	1	1	2485	1581	183	400	3608
90	1	1	2479	1577	183	400	3607
91	1	1	2352	1576	185	399	3607
92	1	1	2204	1576	184	399	3607
93	1	1	2084	1575	184	399	3608
94	1	1	1955	1576	184	399	3608
95	1	1	1824	1576	184	399	3608
96	1	1	1712	1577	183	400	3608
97	1	1	1651	1577	184	399	3608
98	1	1	1639	1581	184	398	3608
99	1	1	1570	1576	184	399	3607
100	1	1	1522	1581	184	398	3607
101	1	1	1659	1581	183	400	3607
102	1	1	1842	1582	183	399	3607
103	1	1	2019	1582	183	399	3609
104	1	1	2246	1581	184	399	3608
105	1	1	2396	1581	185	399	3609
106	1	1	2470	1581	183	400	3608
107	1	1	2499	1581	184	400	3608
108	1	1	2491	1580	184	400	3609
109	1	1	2483	1581	184	399	3607
110	1	1	2471	1577	184	399	3608
111	1	1	2344	1576	184	399	3607
112	1	1	2200	1576	185	399	3607
113	1	1	2081	1576	183	400	3608
114	1	1	1952	1576	183	399	3608
115	1	1	1827	1575	184	399	3608
116	1	1	1715	1576	184	399	3608
117	1	1	1647	1577	184	401	3608
118	1	1	1632	1581	184	400	3608
119	1	1	1561	1575	183	400	3607
120	1	1	1508	1581	184	399	3607
121	1	1	1643	1581	184	399	3607
122	1	1	1829	1582	184	399	3608
123	1	1	2012	1581	184	400	3608
124	1	1	2245	1581	184	400	3609
125	1	1	2396	1581	185	399	3608
126	1	1	2463	1582	183	399	3608
127	1	1	2495	1582	184	399	3609
0	1	1	2487	1579	184	400	3608
1	1	1	2478	1580	184	399	3607
2	1	1	2465	1576	184	399	3607
3	1	1	2347	1576	184	398	3607
4	1	1	2203	1575	183	399	3607
5	1	1	2082	1575	185	399	3608
6	1	1	1949	1575	183	400	3608
7	1	1	1825	1576	183	400	3608
8	1	1	1715	1576	183	400	3608
9	1	1	1649	1577	184	400	3608
10	1	1	1635	1581	184	399	3608
11	1	1	1559	1576	183	399	3607
12	1	1	1506	1581	184	399	3607
13	1	1	1647	1581	185	399	3607
14	1	1	1835	1582	184	399	3608
15	1	1	2012	1580	183	399	3608
16	1	1	2244	1581	184	399	3608
17	1	1	2394	1580	184	398	3608
18	1	1	2463	1581	184	399	3608
19	1	1	2492	1581	183	399	3608
20	1	1	2491	1579	184	396	3608
21	1	1	2489	1580	183	399	3607
22	1	1	2479	1576	183	398	3608
23	1	1	2357	1576	184	399	3607
24	1	1	2205	1575	184	399	3607
25	1	1	2080	1576	184	399	3608
26	1	1	1943	1575	184	399	3608
27	1	1	1806	1576	184	399	3608
28	1	1	1695	1576	185	399	3608
29	1	1	1630	1577	184	399	3608
30	1	1	1620	1581	184	398	3608
31	1	1	1561	1577	185	395	3606
32	1	1	1515	1580	183	395	3607
33	1	1	1667	1581	184	395	3606
34	1	1	1863	1581	184	396	3607
35	1	1	2043	1581	184	399	3608
36	1	1	2274	1581	184	399	3608
37	1	1	2419	1581	183	398	3609
38	1	1	2483	1581	184	399	3608
39	1	1	2503	1581	184	399	3608
40	1	1	2490	1578	184	399	3608
41	1	1	2474	1581	184	399	3607
42	1	1	2450	1576	184	399	3607
43	1	1	2316	1575	183	399	3607
44	1	1	2160	1575	184	399	3607
45	1	1	2029	1575	184	399	3608
46	1	1	1903	1576	184	399	3608
47	1	1	1785	1576	184	399	3608
48	1	1	1681	1577	185	399	3608
49	1	1	1624	1577	184	395	3608
50	1	1	1622	1581	184	395	3608
51	1	1	1573	1576	183	395	3606
52	1	1	1534	1581	184	395	3608
53	1	1	1686	1582	184	399	3607
54	1	1	1877	1581	183	399	3607
55	1	1	2056	1581	184	398	3608
56	1	1	2285	1581	184	399	3608
57	1	1	2428	1581	184	398	3609
58	1	1	2494	1581	184	399	3608
59	1	1	2512	1581	184	399	3609
60	1	1	2487	1577	184	398	3608
61	1	1	2464	1581	184	395	3607
62	1	1	2431	1576	184	396	3606
63	1	1	2296	1575	183	395	3606
64	1	1	2139	1575	184	399	3607
65	1	1	2015	1575	184	399	3608
66	1	1	1886	1575	183	399	3607
67	1	1	1770	1575	184	394	3609
68	1	1	1677	1576	184	395	3608
69	1	1	1631	1577	184	399	3608
70	1	1	1638	1581	184	399	3608
71	1	1	1594	1575	183	399	3606
72	1	1	1559	1580	184	399	3606
73	1	1	1713	1581	184	399	3606
74	1	0	1907	1581	184	399	3607
75	1	0	2084	1581	184	399	3608
76	1	0	2299	1581	184	399	3607
77	1	0	2431	1581	183	399	3608
78	1	0	2481	1581	184	395	3608
79	1	0	2486	1581	184	395	3609
80	1	0	2457	1576	184	395	3608
81	1	0	2421	1581	184	395	3606
82	1	0	2375	1576	184	399	3607
83	1	0	2246	1575	184	399	3607
84	1	0	2100	1576	184	399	3607
85	1	0	1991	1576	184	399	3608
86	1	0	1888	1575	183	399	3607
87	1	0	1789	1575	183	399	3608
88	1	0	1709	1576	184	399	3608
89	1	0	1671	1578	183	399	3608
90	1	0	1686	1580	184	398	3608
91	1	0	1665	1575	184	399	3606
92	1	0	1646	1580	184	399	3606
93	1	0	1795	1580	184	399	3606
94	1	0	1966	1580	184	399	3607
95	1	0	2119	1580	185	398	3607
96	1	0	2314	1580	184	395	3608
97	1	0	2426	1581	183	395	3608
98	1	0	2460	1580	184	395	3608
99	1	0	2458	1580	184	395	3608
100	1	0	2420	1576	183	399	3607
101	1	0	2369	1578	184	399	3607
102	1	0	2315	1576	182	399	3606
103	1	0	2188	1575	185	399	3606
104	1	0	2063	1575	184	400	3607
105	1	0	1968	1575	184	399	3607
106	1	0	1877	1575	183	399	3607
107	0	0	1788	1575	184	399	3608
108	0	0	1704	1576	184	399	3608
109	0	0	1667	1577	183	400	3608
110	0	0	1682	1581	183	400	3608
111	0	0	1670	1576	183	400	3606
112	0	0	1661	1580	184	400	3606
113	0	0	1811	1580	184	399	3606
114	0	0	1982	1580	184	399	3607
115	0	0	2130	1581	183	399	3607
116	0	0	2322	1580	183	400	3608
117	0	0	2433	1580	183	399	3608
118	0	0	2461	1580	185	400	3609
119	0	0	2453	1580	184	399	3608
120	0	0	2420	1576	183	399	3608
121	0	0	2362	1577	184	399	3606
122	0	0	2310	1575	183	399	3607
123	0	0	2192	1575	184	399	3606
124	0	0	2068	1575	184	399	3608
125	0	0	1970	1575	184	398	3608
126	0	0	1882	1576	184	399	3607
127	0	0	1801	1575	183	400	3608
0	0	0	1727	1576	183	400	3607
1	0	0	1695	1577	184	400	3607
2	0	0	1708	1579	184	399	3608
3	0	0	1687	1576	183	399	3606
4	0	0	1673	1581	183	399	3606
5	0	0	1816	1581	183	399	3606
6	0	0	1984	1580	184	399	3606
7	0	0	2131	1580	183	398	3607
8	0	0	2318	1580	184	399	3607
9	0	0	2427	1580	183	399	3608
10	0	0	2455	1581	184	398	3608
11	0	0	2447	1579	184	399	3607
12	0	0	2406	1576	184	399	3608
13	0	0	2343	1576	184	400	3606
14	0	0	2290	1575	184	399	3607
15	0	0	2175	1575	184	399	3607
16	0	0	2051	1574	184	399	3607
17	0	0	1962	1575	184	399	3607
18	0	0	1878	1575	184	399	3607
19	0	0	1797	1575	183	400	3607
20	0	0	1727	1576	184	400	3607
21	0	0	1696	1577	184	399	3607
22	0	0	1710	1580	184	398	3607
23	0	0	1692	1575	183	399	3606
24	0	0	1673	1581	183	399	3606
25	0	0	1814	1580	183	399	3606
26	0	0	1982	1580	184	399	3607
27	0	0	2130	1581	184	399	3608
28	0	0	2316	1580	183	399	3607
29	0	0	2424	1580	183	400	3608
30	0	0	2451	1580	184	400	3608
31	0	0	2442	1579	184	400	3607
32	0	0	2401	1575	184	398	3607
33	0	0	2338	1577	183	399	3607
34	0	0	2285	1574	185	399	3606
35	0	0	2168	1574	185	399	3606
36	0	0	2051	1575	184	400	3606
37	0	0	1965	1574	184	399	3607
38	0	0	1880	1574	184	399	3607
39	0	0	1799	1575	183	399	3608
40	0	0	1730	1576	184	399	3607
41	0	0	1700	1577	183	399	3607
42	0	0	1714	1579	184	397	3607
43	0	0	1703	1575	184	399	3606
44	0	0	1688	1580	184	399	3606
45	0	0	1822	1580	183	399	3606
46	0	0	1988	1580	183	400	3607
47	0	0	2133	1579	183	399	3607
48	0	0	2316	1580	183	400	3608
49	0	0	2424	1580	183	400	3607
50	0	0	2450	1580	184	399	3607
51	0	0	2437	1578	184	399	3608
52	0	0	2399	1576	184	399	3607
53	0	0	2343	1576	184	399	3606
54	0	0	2288	1575	184	399	3607
55	0	0	2172	1574	183	399	3606
56	0	0	2045	1574	185	399	3606
57	0	0	1962	1575	184	399	3608
58	0	0	1878	1575	184	399	3607
59	0	0	1797	1575	183	398	3608
60	0	0	1730	1575	184	399	3607
61	0	0	1702	1577	184	399	3607
62	0	0	1716	1579	184	399	3607
63	0	0	1705	1575	184	398	3606
64	0	0	1689	1580	183	400	3606
65	0	0	1828	1579	183	400	3606
66	0	0	1990	1580	183	400	3606
67	0	0	2133	1579	184	399	3607
68	0	0	2319	1579	184	398	3607
69	0	0	2420	1579	184	399	3608
70	0	0	2446	1580	184	399	3608
71	0	0	2433	1579	184	399	3607
72	0	0	2392	1575	184	399	3607
73	0	0	2332	1576	184	399	3606
74	0	0	2273	1574	185	399	3606
75	0	0	2158	1574	184	399	3606
76	0	0	2040	1574	184	399	3606
77	0	0	1957	1574	185	400	3607
78	0	0	1875	1574	184	400	3608
79	0	0	1794	1575	182	399	3607
80	0	0	1724	1575	184	399	3607
81	0	0	1698	1577	183	399	3607
82	0	0	1719	1579	183	399	3607
83	0	0	1711	1574	184	400	3606
84	0	0	1694	1579	183	400	3607
85	0	0	1836	1580	183	399	3606
86	0	0	2002	1579	183	398	3606
87	0	0	2145	1580	183	399	3608
88	0	0	2323	1579	184	398	3607
89	0	0	2423	1579	184	399	3608
90	0	0	2447	1580	184	399	3608
91	0	0	2431	1577	184	399	3607
92	0	0	2387	1574	184	399	3607
93	0	0	2320	1575	184	399	3606
94	0	0	2268	1574	183	400	3606
95	0	0	2160	1574	185	400	3606
96	0	0	2043	1574	184	400	3606
97	0	0	1959	1573	184	399	3607
98	0	0	1877	1574	184	399	3607
99	0	0	1802	1575	184	399	3607
100	0	0	1735	1574	183	400	3607
101	0	0	1705	1577	184	399	3607
102	0	0	1723	1580	184	399	3607
103	0	0	1711	1574	184	399	3606
104	0	0	1702	1579	184	399	3607
105	0	0	1844	1580	184	399	3607
106	0	0	2006	1579	183	399	3606
107	0	0	2145	1579	183	399	3607
108	0	0	2320	1579	184	399	3608
109	0	0	2417	1579	183	400	3607
110	0	0	2441	1579	183	399	3607
111	0	0	2419	1576	185	400	3607
112	0	0	2377	1574	184	400	3607
113	0	0	2321	1575	184	400	3606
114	0	0	2269	1574	184	400	3606
115	0	0	2158	1573	184	399	3605
116	0	0	2040	1574	184	399	3606
117	0	0	1959	1573	184	398	3607
118	0	0	1882	1574	184	399	3607
119	0	0	1807	1574	183	399	3607
120	0	0	1745	1575	183	399	3607
121	0	0	1720	1577	183	399	3608
122	0	0	1733	1579	183	398	3607
123	0	0	1726	1575	184	399	3607
124	0	0	1714	1580	183	399	3606
125	0	0	1847	1579	183	399	3606
126	0	0	2008	1580	184	400	3606
127	0	0	2145	1578	183	400	3607
0	0	0	2321	1579	185	400	3607
1	0	0	2414	1579	183	400	3608
2	0	0	2432	1579	183	399	3608
3	0	0	2411	1577	184	399	3607
4	0	0	2370	1574	184	399	3607
5	0	0	2312	1575	184	399	3606
6	0	0	2258	1574	185	399	3606
7	0	0	2146	1574	183	399	3606
8	0	0	2034	1574	184	399	3607
9	0	0	1953	1574	184	398	3607
10	0	0	1876	1574	183	399	3607
11	0	0	1806	1574	184	399	3607
12	0	0	1745	1575	184	399	3607
13	0	0	1723	1577	184	399	3607
14	0	0	1742	1580	183	399	3608
15	0	0	1736	1575	184	399	3606
16	0	0	1723	1579	183	399	3606
17	0	0	1858	1579	183	400	3605
18	0	0	2014	1579	184	399	3607
19	0	0	2149	1579	184	400	3607
20	0	0	2324	1579	184	399	3607
21	0	0	2417	1579	185	398	3607
22	0	0	2434	1579	183	399	3607
23	0	0	2413	1576	184	399	3608
24	0	0	2368	1574	184	399	3607
25	0	0	2303	1575	184	399	3606
26	0	0	2247	1573	184	399	3605
27	0	0	2136	1573	183	399	3606
28	0	0	2024	1573	185	399	3606
29	0	0	1949	1574	184	400	3607
30	0	0	1877	1574	184	400	3607
31	0	0	1809	1574	183	398	3607
32	0	0	1750	1575	183	399	3607
33	0	0	1732	1579	184	399	3608
34	0	0	1752	1579	184	400	3607
35	0	0	1746	1575	183	400	3605
36	0	0	1736	1579	184	400	3605
37	0	0	1871	1579	184	399	3606
38	0	0	2027	1579	184	399	3606
39	0	0	2161	1579	183	399	3607
40	0	0	2331	1579	183	399	3606
41	0	0	2422	1579	184	398	3607
42	0	0	2441	1579	183	400	3607
43	0	0	2415	1575	183	399	3607
44	0	0	2369	1574	184	399	3607
45	0	0	2307	1574	184	400	3605
46	0	0	2253	1573	185	400	3605
47	0	0	2145	1573	184	400	3605
48	0	0	2033	1574	184	400	3606
49	0	0	1957	1573	184	399	3606
50	0	0	1883	1573	184	399	3606
51	0	0	1820	1574	183	399	3607
52	0	0	1761	1574	183	400	3607
53	0	0	1746	1578	183	399	3607
54	0	0	1766	1578	184	399	3607
55	0	0	1766	1574	184	399	3606
56	0	0	1756	1579	183	399	3605
57	0	0	1892	1579	183	399	3605
58	0	0	2050	1579	184	399	3606
59	0	0	2180	1579	184	399	3606
60	0	0	2345	1578	184	399	3606
61	0	0	2431	1578	184	399	3608
62	0	0	2437	1578	184	399	3608
63	0	0	2402	1574	184	400	3606
64	0	0	2353	1573	183	400	3607
65	0	0	2284	1574	184	400	3606
66	0	0	2229	1574	185	400	3605
67	0	0	2121	1573	183	400	3605
68	0	0	2012	1574	183	399	3606
69	0	0	1941	1573	185	398	3606
70	0	0	1872	1574	184	399	3606
71	0	0	1809	1574	184	399	3606
72	0	0	1751	1574	183	399	3607
73	0	0	1732	1577	183	399	3607
74	0	0	1757	1578	184	399	3607
75	0	0	1757	1574	184	399	3605
76	0	0	1746	1578	183	398	3605
77	0	0	1881	1579	182	400	3605
78	0	0	2035	1579	183	399	3606
79	0	0	2162	1578	184	399	3606
80	0	0	2326	1577	183	399	3606
81	0	0	2410	1579	183	400	3606
82	0	0	2416	1578	184	400	3607
83	0	0	2386	1575	184	400	3607
84	0	0	2338	1573	183	400	3606
85	0	0	2269	1574	184	399	3605
86	0	0	2215	1573	184	398	3606
87	0	0	2112	1573	185	399	3605
88	0	0	2006	1573	184	399	3605
89	0	0	1935	1573	184	399	3606
90	0	0	1865	1573	184	399	3606
91	0	0	1802	1573	184	399	3606
92	0	0	1747	1575	184	399	3607
93	0	0	1731	1577	183	400	3606
94	0	0	1754	1577	183	400	3606
95	0	0	1758	1573	184	400	3605
96	0	0	1751	1579	184	399	3605
97	0	0	1882	1578	182	399	3605
98	0	0	2035	1578	184	399	3605
99	0	0	2163	1578	184	400	3606
100	0	0	2330	1578	184	400	3607
101	0	0	2420	1578	185	399	3606
102	0	0	2424	1577	182	399	3606
103	0	0	2388	1575	183	399	3606
104	0	0	2341	1573	184	399	3606
105	0	0	2274	1574	185	399	3604
106	0	0	2220	1573	184	399	3604
107	0	0	2113	1572	184	399	3605
108	0	0	2005	1572	185	399	3605
109	0	0	1934	1573	184	400	3606
110	0	0	1867	1573	184	400	3605
111	0	0	1804	1573	184	398	3606
112	0	0	1748	1574	182	399	3606
113	0	0	1734	1577	184	399	3606
114	0	0	1760	1577	183	400	3606
115	0	0	1763	1573	183	400	3604
116	0	0	1749	1578	183	400	3604
117	0	0	1880	1578	182	399	3604
118	0	0	2038	1578	183	399	3604
119	0	0	2165	1578	183	399	3606
120	0	0	2323	1577	183	399	3605
121	0	0	2408	1578	184	399	3606
122	0	0	2417	1577	183	399	3606
123	0	0	2387	1574	184	399	3606
124	0	0	2340	1573	184	399	3605
125	0	0	2281	1573	184	400	3606
126	0	0	2227	1573	184	400	3604
127	0	0	2117	1572	184	400	3604
0	0	0	2003	1572	185	400	3604
1	0	0	1929	1573	183	399	3605
2	0	0	1865	1573	183	399	3605
3	0	0	1806	1573	183	399	3606
4	0	0	1749	1574	184	400	3607
5	0	0	1736	1577	184	399	3606
6	0	0	1764	1577	184	399	3605
7	0	0	1767	1573	183	399	3604
8	0	0	1753	1578	183	399	3604
9	0	0	1888	1578	184	399	3604
10	0	0	2040	1578	184	399	3605
11	0	0	2164	1578	184	399	3605
12	0	0	2327	1577	184	399	3606
13	0	0	2412	1578	184	399	3606
14	0	0	2420	1577	184	399	3605
15	0	0	2385	1574	183	400	3606
16	0	0	2340	1573	184	400	3606
17	0	0	2274	1573	183	400	3604
18	0	0	2215	1573	184	400	3604
19	0	0	2106	1572	183	398	3604
20	0	0	1996	1572	184	399	3604
21	0	0	1921	1572	185	399	3606
22	0	0	1851	1573	184	399	3605
23	0	0	1794	1573	184	400	3606
24	0	0	1744	1574	183	399	3606
25	0	0	1732	1577	183	399	3606
26	0	0	1750	1577	183	399	3606
27	0	0	1754	1573	183	399	3604
28	0	0	1751	1578	183	399	3604
29	0	0	1885	1578	185	400	3604
30	0	0	2039	1578	184	399	3605
31	0	0	2161	1577	183	398	3605
32	0	0	2318	1578	184	399	3605
33	0	0	2406	1577	184	400	3605
34	0	0	2413	1578	183	399	3605
35	0	0	2384	1574	184	400	3606
36	0	0	2340	1572	183	400	3604
37	0	0	2274	1573	185	399	3604
38	0	0	2216	1572	184	399	3604
39	0	0	2113	1572	185	399	3604
40	0	0	2008	1572	184	399	3604
41	0	0	1936	1572	184	399	3604
42	0	0	1868	1573	184	400	3606
43	0	0	1806	1573	185	399	3605
44	0	0	1750	1573	183	399	3605
45	0	0	1737	1576	184	400	3605
46	0	0	1759	1577	184	400	3605
47	0	0	1763	1573	183	400	3604
48	0	0	1749	1578	183	399	3604
49	0	0	1879	1578	184	399	3604
50	0	0	2035	1577	183	399	3604
51	0	0	2159	1577	184	400	3605
52	0	0	2316	1577	184	400	3604
53	0	0	2402	1577	184	399	3604
54	0	0	2404	1577	185	399	3605
55	0	0	2369	1574	184	399	3606
56	0	0	2320	1573	183	398	3604
57	0	0	2251	1573	184	399	3604
58	0	0	2197	1572	184	400	3603
59	0	0	2094	1572	185	399	3603
60	0	0	1988	1572	184	399	3605
61	0	0	1918	1571	183	399	3604
62	0	0	1855	1572	184	400	3604
63	0	0	1800	1572	184	400	3604
64	0	0	1745	1573	184	400	3605
65	0	0	1737	1576	183	400	3605
66	0	0	1763	1578	184	399	3605
67	0	0	1764	1573	184	399	3603
68	0	0	1748	1577	184	399	3604
69	0	0	1882	1578	183	400	3604
70	0	0	2037	1577	183	399	3603
71	0	0	2161	1577	183	399	3604
72	0	0	2318	1577	183	399	3604
73	0	0	2405	1577	183	399	3604
74	0	0	2407	1577	184	398	3604
75	0	0	2373	1573	184	399	3605
76	0	0	2325	1572	184	399	3604
77	0	0	2253	1573	184	399	3603
78	0	0	2201	1572	184	399	3603
79	0	0	2099	1572	184	399	3603
80	0	0	1989	1571	184	400	3604
81	0	0	1920	1572	184	400	3604
82	0	0	1852	1572	184	400	3604
83	0	0	1794	1572	184	400	3605
84	0	0	1742	1573	184	399	3605
85	0	0	1731	1576	183	399	3604
86	0	0	1756	1576	183	399	3604
87	0	0	1765	1573	183	398	3603
88	0	0	1748	1577	183	399	3602
89	0	0	1876	1577	182	399	3603
90	0	0	2028	1576	183	399	3603
91	0	0	2154	1577	184	399	3603
92	0	0	2313	1577	184	400	3605
93	0	0	2403	1577	186	400	3603
94	0	0	2409	1577	184	400	3604
95	0	0	2376	1573	184	400	3604
96	0	0	2329	1572	183	400	3604
97	0	0	2260	1572	184	399	3603
98	0	0	2202	1572	183	399	3603
99	0	0	2100	1571	183	399	3602
100	0	0	1995	1571	183	400	3603
101	0	0	1927	1571	185	399	3603
102	0	0	1859	1572	184	399	3603
103	0	0	1797	1572	183	399	3603
104	0	0	1746	1572	184	399	3604
105	0	0	1737	1577	184	399	3605
106	0	0	1756	1576	184	399	3604
107	0	0	1766	1572	182	399	3602
108	0	0	1750	1577	183	399	3602
109	0	0	1878	1577	183	399	3602
110	0	0	2031	1577	183	399	3603
111	0	0	2161	1577	183	400	3604
112	0	0	2319	1576	184	399	3603
113	0	0	2399	1577	184	400	3603
114	0	0	2405	1577	184	400	3604
115	0	0	2374	1573	184	399	3604
116	0	0	2323	1572	185	399	3603
117	0	0	2261	1572	182	399	3602
118	0	0	2208	1571	184	399	3601
119	0	0	2100	1571	185	399	3602
120	0	0	1994	1571	184	399	3603
121	0	0	1924	1571	184	399	3603
122	0	0	1856	1571	184	399	3603
123	0	0	1796	1572	184	399	3603
124	0	0	1743	1573	184	399	3603
125	0	0	1727	1576	183	400	3604
126	0	0	1753	1577	183	399	3604
127	0	0	1766	1572	183	399	3602
0	0	0	1751	1576	183	399	3603
1	0	0	1880	1577	182	400	3603
2	0	0	2034	1576	184	400	3603
3	0	0	2160	1576	183	400	3603
4	0	0	2318	1576	184	400	3603
5	0	0	2403	1576	184	399	3604
6	0	0	2408	1576	184	399	3604
7	0	0	2374	1571	184	399	3603
8	0	0	2331	1572	184	399	3602
9	0	0	2271	1572	184	399	3602
10	0	0	2216	1571	184	399	3601
11	0	0	2113	1571	185	399	3602
12	0	0	2002	1570	183	399	3602
13	0	0	1931	1571	184	400	3603
14	0	0	1869	1572	184	400	3604
15	0	0	1813	1572	185	400	3603
16	0	0	1758	1572	183	399	3603
17	0	0	1744	1576	182	399	3603
18	0	0	1765	1576	183	399	3602
19	0	0	1771	1572	184	400	3602
20	0	0	1763	1577	183	400	3602
21	0	0	1893	1577	183	399	3603
22	0	0	2048	1576	183	400	3603
23	0	0	2172	1576	184	399	3603
24	0	0	2330	1576	183	398	3603
25	0	0	2420	1576	184	398	3603
26	0	0	2425	1576	185	399	3603
27	0	0	2385	1572	183	399	3603
28	0	0	2337	1571	184	399	3602
29	0	0	2265	1572	184	399	3601
30	0	0	2206	1571	184	400	3601
31	0	0	2105	1570	185	400	3601
32	0	0	1998	1570	184	400	3602
33	0	0	1932	1571	184	400	3602
34	0	0	1867	1571	185	399	3603
35	0	0	1814	1572	183	399	3603
36	0	0	1764	1572	185	399	3603
37	0	0	1751	1575	184	399	3603
38	0	0	1773	1575	184	399	3602
39	0	0	1779	1572	183	399	3601
40	0	0	1764	1576	184	399	3601
41	0	0	1887	1576	184	399	3601
42	0	0	2037	1576	184	399	3602
43	0	0	2161	1577	184	399	3603
44	0	0	2321	1576	184	398	3602
45	0	0	2405	1575	184	399	3604
46	0	0	2405	1576	185	399	3604
47	0	0	2368	1572	183	399	3603
48	0	0	2325	1572	184	400	3603
49	0	0	2257	1570	184	400	3601
50	0	0	2203	1571	184	400	3602
51	0	0	2109	1571	184	400	3602
52	0	0	2001	1569	185	399	3602
53	0	0	1935	1571	184	399	3603
54	0	0	1875	1571	184	399	3602
55	0	0	1819	1571	184	398	3603
56	0	0	1770	1572	184	399	3603
57	0	0	1761	1577	184	399	3603
58	0	0	1790	1575	183	399	3602
59	0	0	1813	1573	184	399	3603
60	0	0	1811	1577	184	398	3601
61	0	0	1937	1576	184	400	3601
62	0	0	2086	1575	184	400	3602
63	0	0	2194	1576	183	399	3602
64	0	0	2328	1576	185	399	3602
65	0	0	2386	1576	184	399	3603
66	0	0	2373	1573	184	400	3603
67	0	0	2328	1571	184	400	3603
68	0	0	2275	1571	184	400	3602
69	0	0	2208	1572	184	399	3601
70	0	0	2157	1571	184	399	3602
71	0	0	2054	1571	185	399	3601
72	0	0	1950	1571	184	399	3603
73	0	0	1885	1571	184	399	3602
74	0	0	1827	1571	184	399	3602
75	0	0	1768	1571	184	399	3602
76	0	0	1716	1572	182	395	3603
77	0	0	1709	1575	183	399	3603
78	0	0	1731	1575	184	399	3602
79	0	0	1748	1571	185	400	3601
80	0	0	1733	1576	183	399	3601
81	0	0	1863	1576	182	400	3602
82	0	0	2016	1575	183	400	3601
83	0	0	2138	1576	183	399	3602
84	0	0	2296	1575	184	399	3602
85	0	0	2383	1575	183	398	3603
86	0	0	2396	1576	184	399	3603
87	0	0	2363	1572	184	399	3603
88	0	0	2318	1571	184	399	3603
89	0	0	2259	1572	184	399	3601
90	0	0	2207	1571	184	399	3601
91	0	0	2109	1570	185	399	3601
92	0	0	2007	1571	185	399	3603
93	0	0	1941	1570	184	400	3602
94	0	0	1881	1571	184	399	3603
95	0	0	1825	1571	185	400	3602
96	0	0	1774	1572	184	399	3603
97	0	0	1762	1576	183	400	3603
98	0	0	1783	1576	184	400	3602
99	0	0	1794	1572	183	400	3602
100	0	0	1779	1576	185	400	3601
101	0	0	1902	1576	183	398	3601
102	0	0	2053	1577	183	399	3602
103	0	0	2166	1575	184	399	3602
104	0	0	2316	1575	183	399	3602
105	0	0	2398	1575	184	399	3602
106	0	0	2401	1575	183	399	3603
107	0	0	2368	1571	184	399	3603
108	0	0	2317	1571	183	398	3602
109	0	0	2251	1571	183	400	3601
110	0	0	2195	1570	184	400	3601
111	0	0	2095	1570	184	400	3601
112	0	0	1989	1571	184	399	3601
113	0	0	1923	1570	184	399	3601
114	0	0	1866	1570	184	398	3602
115	0	0	1811	1571	184	400	3603
116	0	0	1763	1572	183	400	3603
117	0	0	1751	1576	185	399	3603
118	0	0	1775	1575	184	399	3602
119	0	0	1789	1572	183	399	3602
120	0	0	1774	1576	183	400	3600
121	0	0	1896	1576	183	399	3601
122	0	0	2048	1576	183	399	3602
123	0	0	2164	1575	184	399	3601
124	0	0	2316	1576	184	399	3603
125	0	0	2400	1576	183	400	3602
126	0	0	2408	1575	185	400	3602
127	0	0	2377	1572	185	400	3603
0	0	0	2328	1570	185	400	3602
1	0	0	2269	1571	185	400	3602
2	0	0	2218	1571	184	398	3601
3	0	0	2114	1569	185	399	3600
4	0	0	2001	1570	184	399	3601
5	0	0	1927	1570	184	400	3601
6	0	0	1861	1570	184	399	3602
7	0	0	1809	1571	183	399	3602
8	0	0	1762	1572	184	399	3603
9	0	0	1754	1575	183	398	3602
10	0	0	1775	1576	184	399	3603
11	0	0	1787	1571	183	399	3601
12	0	0	1767	1575	184	399	3601
13	0	0	1891	1576	185	399	3600
14	0	0	2044	1575	184	399	3601
15	0	0	2165	1575	183	399	3602
16	0	0	2323	1575	184	400	3603
17	0	0	2413	1576	184	400	3602
18	0	0	2414	1575	185	399	3602
19	0	0	2378	1571	184	400	3602
20	0	0	2331	1571	184	399	3602
21	0	0	2262	1570	185	399	3601
22	0	0	2210	1571	184	399	3601
23	0	0	2110	1570	184	399	3601
24	0	0	2000	1569	184	399	3601
25	0	0	1936	1570	184	399	3601
26	0	0	1873	1570	184	399	3601
27	0	0	1815	1571	184	400	3602
28	0	0	1762	1571	185	398	3602
29	0	0	1747	1575	184	400	3602
30	0	0	1769	1575	183	400	3602
31	0	0	1778	1571	184	399	3602
32	0	0	1761	1576	183	399	3600
33	0	0	1883	1576	184	398	3601
34	0	0	2040	1575	184	400	3601
35	0	0	2159	1575	184	400	3601
36	0	0	2317	1574	184	400	3601
37	0	0	2408	1575	185	399	3602
38	0	0	2410	1575	183	399	3603
39	0	0	2372	1571	183	399	3602
40	0	0	2323	1570	184	399	3601
41	0	0	2249	1571	184	399	3602
42	0	0	2195	1571	184	399	3600
43	0	0	2095	1570	184	399	3601
44	0	0	1990	1570	184	399	3601
45	0	0	1920	1570	184	400	3601
46	0	0	1850	1570	184	400	3601
47	0	0	1790	1571	183	400	3602
48	0	0	1737	1571	184	400	3603
49	0	0	1728	1575	184	399	3602
50	0	0	1751	1575	183	399	3601
51	0	0	1767	1571	184	399	3600
52	0	0	1753	1576	183	400	3600
53	0	0	1881	1575	184	399	3600
54	0	0	2037	1575	182	400	3601
55	0	0	2158	1575	183	399	3601
56	0	0	2318	1575	185	399	3602
57	0	0	2407	1575	185	398	3602
58	0	0	2413	1575	184	398	3602
59	0	0	2381	1572	184	399	3602
60	0	0	2335	1570	184	399	3602
61	0	0	2271	1571	184	399	3600
62	0	0	2219	1570	184	400	3601
63	0	0	2120	1570	185	400	3601
64	0	0	2008	1570	184	399	3601
65	0	0	1940	1570	184	399	3601
66	0	0	1879	1570	184	399	3601
67	0	0	1822	1571	184	401	3601
68	0	0	1770	1571	184	399	3602
69	0	0	1756	1575	184	399	3603
70	0	0	1772	1574	184	399	3601
71	0	0	1788	1571	184	399	3601
72	0	0	1768	1575	185	398	3601
73	0	0	1892	1575	183	398	3600
74	0	0	2051	1576	183	399	3602
75	0	0	2170	1575	183	399	3601
76	0	0	2326	1576	184	399	3602
77	0	0	2418	1575	185	399	3601
78	0	0	2426	1575	184	399	3602
79	0	0	2388	1571	184	400	3603
80	0	0	2340	1570	184	400	3601
81	0	0	2273	1570	185	400	3600
82	0	0	2216	1570	184	399	3600
83	0	0	2120	1570	184	399	3601
84	0	0	2008	1570	184	399	3601
85	0	0	1937	1571	184	400	3602
86	0	0	1870	1570	184	399	3601
87	0	0	1809	1570	184	399	3601
88	0	0	1758	1571	184	399	3602
89	0	0	1749	1575	184	399	3602
90	0	0	1773	1575	184	399	3601
91	0	0	1789	1571	183	399	3601
92	0	0	1771	1576	184	399	3599
93	0	0	1895	1575	184	399	3600
94	0	0	2051	1575	184	399	3601
95	0	0	2169	1575	184	399	3601
96	0	0	2328	1575	184	400	3601
97	0	0	2417	1575	184	400	3602
98	0	0	2423	1575	184	400	3602
99	0	0	2385	1571	184	400	3602
100	0	0	2341	1570	184	399	3601
101	0	0	2273	1570	184	399	3600
102	0	0	2223	1570	184	399	3600
103	0	0	2122	1569	185	399	3600
104	0	0	2006	1569	184	399	3601
105	0	0	1939	1570	183	399	3601
106	0	0	1873	1570	184	399	3601
107	0	0	1816	1570	183	399	3601
108	0	0	1767	1571	183	399	3602
109	0	0	1756	1574	185	400	3602
110	0	0	1774	1574	184	400	3601
111	0	0	1790	1571	184	399	3600
112	0	0	1774	1575	184	399	3600
113	0	0	1895	1575	184	399	3600
114	0	0	2052	1574	184	400	3601
115	0	0	2174	1575	184	400	3602
116	0	0	2333	1575	184	400	3601
117	0	0	2419	1574	184	399	3602
118	0	0	2431	1575	184	399	3603
119	0	0	2401	1571	184	399	3602
120	0	0	2355	1571	184	399	3602
121	0	0	2282	1571	184	399	3600
122	0	0	2224	1570	184	399	3600
123	0	0	2123	1570	185	399	3601
124	0	0	2008	1569	184	399	3601
125	0	0	1937	1570	184	400	3600
126	0	0	1873	1570	183	400	3602
127	0	0	1822	1570	183	400	3601
0	0	0	1774	1571	184	400	3601
1	0	0	1760	1574	183	399	3602
2	0	0	1781	1575	183	400	3602
3	0	0	1791	1571	183	399	3600
4	0	0	1771	1575	183	400	3600
5	0	0	1895	1575	183	399	3600
6	0	0	2049	1575	185	399	3601
7	0	0	2167	1575	183	399	3601
8	0	0	2326	1575	183	399	3602
9	0	0	2415	1575	185	398	3602
10	0	0	2421	1575	183	398	3601
11	0	0	2387	1571	183	399	3601
12	0	0	2343	1570	184	399	3602
13	0	0	2273	1570	185	399	3600
14	0	0	2216	1569	184	399	3600
15	0	0	2119	1569	184	399	3600
16	0	0	2009	1569	185	400	3601
17	0	0	1938	1570	184	400	3601
18	0	0	1871	1570	183	400	3601
19	0	0	1816	1570	183	399	3601
20	0	0	1764	1571	184	399	3601
21	0	0	1750	1575	183	398	3602
22	0	0	1772	1575	183	399	3601
23	0	0	1792	1570	184	399	3600
24	0	0	1771	1574	183	399	3600
25	0	0	1888	1575	184	399	3601
26	0	0	2044	1574	184	399	3601
27	0	0	2162	1575	184	399	3601
28	0	0	2317	1575	183	399	3601
29	0	0	2405	1574	184	400	3601
30	0	0	2420	1575	184	398	3601
31	0	0	2387	1570	184	399	3602
32	0	0	2341	1570	184	399	3601
33	0	0	2274	1570	184	400	3601
34	0	0	2221	1570	184	400	3599
35	0	0	2116	1569	184	399	3600
36	0	0	2007	1569	183	400	3600
37	0	0	1939	1569	183	399	3601
38	0	0	1875	1570	183	399	3601
39	0	0	1823	1570	184	399	3602
40	0	0	1774	1571	183	399	3602
41	0	0	1760	1574	183	399	3602
42	0	0	1780	1574	184	399	3601
43	0	0	1794	1570	184	399	3600
44	0	0	1771	1575	184	399	3600
45	0	0	1884	1575	182	399	3600
46	0	0	2039	1575	183	400	3601
47	0	0	2155	1574	183	400	3600
48	0	0	2312	1574	185	400	3601
49	0	0	2402	1574	185	400	3601
50	0	0	2409	1574	186	400	3601
51	0	0	2375	1571	185	400	3602
52	0	0	2328	1570	184	399	3601
53	0	0	2261	1570	184	399	3600
54	0	0	2204	1569	184	399	3600
55	0	0	2104	1569	184	399	3601
56	0	0	1995	1569	183	399	3600
57	0	0	1929	1570	184	399	3601
58	0	0	1866	1569	184	399	3601
59	0	0	1809	1570	183	399	3601
60	0	0	1760	1571	183	397	3601
61	0	0	1752	1574	182	400	3602
62	0	0	1773	1575	184	400	3601
63	0	0	1795	1571	184	399	3600
64	0	0	1778	1574	184	399	3600
65	0	0	1896	1575	184	398	3600
66	0	0	2055	1575	184	400	3601
67	0	0	2170	1575	184	400	3600
68	0	0	2319	1574	184	400	3601
69	0	0	2407	1575	184	399	3601
70	0	0	2413	1574	184	399	3602
71	0	0	2376	1570	183	399	3601
72	0	0	2327	1571	185	398	3601
73	0	0	2256	1570	183	399	3600
74	0	0	2199	1569	184	399	3600
75	0	0	2100	1569	183	399	3599
76	0	0	1992	1569	185	399	3600
77	0	0	1930	1569	184	400	3600
78	0	0	1871	1570	184	400	3601
79	0	0	1816	1570	184	400	3601
80	0	0	1767	1571	184	400	3601
81	0	0	1753	1574	183	399	3602
82	0	0	1771	1574	183	399	3601
83	0	0	1794	1570	183	399	3601
84	0	0	1776	1575	183	401	3600
85	0	0	1898	1575	183	398	3600
86	0	0	2057	1575	184	399	3601
87	0	0	2173	1575	184	399	3600
88	0	0	2324	1574	184	399	3601
89	0	0	2408	1574	184	399	3601
90	0	0	2415	1575	184	399	3602
91	0	0	2381	1570	184	399	3602
92	0	0	2331	1570	184	399	3601
93	0	0	2262	1570	183	399	3600
94	0	0	2206	1570	182	399	3600
95	0	0	2106	1569	184	399	3599
96	0	0	1999	1569	185	400	3601
97	0	0	1930	1569	184	400	3600
98	0	0	1867	1570	184	400	3601
99	0	0	1814	1570	184	399	3601
100	0	0	1769	1570	184	399	3601
101	0	0	1760	1574	184	399	3602
102	0	0	1788	1574	184	399	3601
103	0	0	1821	1570	183	399	3601
104	0	0	1801	1575	183	399	3600
105	0	0	1915	1575	183	400	3600
106	0	0	2071	1574	185	399	3601
107	0	0	2183	1574	184	399	3601
108	0	0	2323	1574	184	399	3601
109	0	0	2404	1574	185	400	3601
110	0	0	2403	1574	185	399	3601
111	0	0	2360	1570	185	399	3602
112	0	0	2307	1570	184	399	3602
113	0	0	2233	1570	185	400	3600
114	0	0	2176	1570	184	400	3600
115	0	0	2080	1570	184	400	3601
116	0	0	1974	1569	183	400	3600
117	0	0	1908	1569	185	399	3600
118	0	0	1852	1569	183	399	3601
119	0	0	1810	1570	184	399	3602
120	0	0	1767	1571	183	399	3601
121	0	0	1758	1574	184	399	3602
122	0	0	1785	1574	184	399	3601
123	0	0	1811	1570	184	399	3600
124	0	0	1792	1575	184	399	3600
125	0	0	1910	1575	184	401	3600
126	0	0	2061	1575	183	400	3601
127	0	0	2174	1575	185	400	3600
0	0	0	2322	1574	183	399	3601
1	0	0	2403	1575	185	399	3601
2	0	0	2399	1573	184	399	3601
3	0	0	2356	1570	185	400	3602
4	0	0	2304	1570	184	400	3601
5	0	0	2236	1571	184	399	3600
6	0	0	2183	1570	184	399	3600
7	0	0	2091	1569	183	399	3600
8	0	0	1989	1569	184	399	3601
9	0	0	1929	1569	184	399	3601
10	0	0	1874	1570	184	399	3601
11	0	0	1826	1570	184	399	3601
12	0	0	1785	1571	184	399	3601
13	0	0	1782	1574	183	399	3602
14	0	0	1807	1574	183	400	3602
15	0	0	1832	1570	183	400	3600
16	0	0	1813	1574	184	400	3600
17	0	0	1927	1574	183	400	3600
18	0	0	2082	1575	183	399	3601
19	0	0	2192	1574	184	399	3601
20	0	0	2338	1575	184	399	3602
21	0	0	2410	1575	183	399	3602
22	0	0	2403	1572	185	399	3601
23	0	0	2364	1571	184	399	3602
24	0	0	2317	1569	184	399	3601
25	0	0	2247	1570	184	399	3601
26	0	0	2194	1570	184	399	3600
27	0	0	2100	1569	183	399	3600
28	0	0	1996	1569	184	399	3601
29	0	0	1932	1569	184	399	3601
30	0	0	1879	1570	184	399	3601
31	0	0	1838	1570	184	399	3601
32	0	0	1799	1571	183	400	3601
33	0	0	1802	1574	183	400	3602
34	0	0	1836	1574	184	399	3601
35	0	0	1869	1571	183	399	3600
36	0	0	1854	1575	184	400	3600
37	0	0	1974	1575	184	399	3600
38	0	0	2122	1575	183	399	3601
39	0	0	2229	1574	183	395	3600
40	0	0	2367	1574	183	395	3601
41	0	0	2436	1574	184	395	3602
42	0	0	2420	1571	183	395	3602
43	0	0	2369	1570	183	399	3602
44	0	0	2310	1569	184	399	3601
45	0	0	2237	1570	184	399	3600
46	0	0	2175	1569	184	399	3600
47	0	0	2078	1569	183	400	3601
48	0	0	1973	1569	183	399	3601
49	0	0	1914	1570	184	399	3600
50	0	0	1860	1570	183	399	3601
51	0	0	1819	1570	184	399	3601
52	0	0	1777	1571	184	398	3602
53	0	0	1774	1574	184	399	3602
54	0	0	1799	1574	183	399	3601
55	0	0	1823	1571	183	399	3600
56	0	0	1807	1575	183	399	3600
57	0	0	1927	1575	184	395	3601
58	0	0	2079	1574	183	395	3601
59	0	0	2190	1574	183	395	3601
60	0	0	2329	1574	184	395	3602
61	0	0	2404	1575	184	399	3602
62	0	0	2388	1571	183	399	3602
63	0	0	2337	1571	184	399	3602
64	0	0	2274	1570	184	399	3601
65	0	0	2196	1569	185	399	3600
66	0	0	2141	1569	184	399	3600
67	0	0	2050	1569	184	400	3601
68	0	0	1949	1569	183	399	3601
69	0	0	1891	1570	184	396	3601
70	0	0	1842	1570	184	396	3602
71	0	0	1806	1570	184	395	3601
72	0	0	1769	1571	183	399	3601
73	0	0	1772	1574	183	399	3602
74	0	0	1799	1574	184	399	3601
75	0	0	1827	1572	184	395	3600
76	0	0	1815	1574	184	395	3600
77	0	0	1933	1574	185	399	3600
78	0	0	2081	1574	183	399	3601
79	0	0	2188	1574	184	399	3601
80	0	0	2325	1574	184	399	3601
81	0	0	2400	1575	183	399	3601
82	0	0	2388	1572	182	399	3602
83	0	0	2341	1570	183	399	3602
84	0	0	2282	1570	184	399	3602
85	0	0	2202	1569	185	399	3600
86	0	0	2144	1570	184	395	3600
87	0	0	2054	1569	184	395	3601
88	0	0	1951	1569	183	395	3601
89	0	0	1897	1570	184	395	3602
90	0	0	1846	1571	184	399	3601
91	0	0	1810	1570	185	399	3602
92	0	0	1777	1571	185	399	3602
93	0	0	1778	1573	183	399	3602
94	0	0	1809	1574	183	399	3601
95	0	0	1836	1570	184	399	3600
96	0	0	1823	1575	184	399	3600
97	0	0	1940	1574	183	400	3600
98	0	0	2091	1574	183	398	3601
99	0	0	2195	1574	184	399	3601
100	0	0	2330	1574	184	399	3602
101	0	0	2400	1574	185	399	3602
102	0	0	2377	1571	183	400	3602
103	0	0	2332	1571	184	399	3602
104	0	0	2272	1569	184	395	3601
105	0	0	2196	1569	184	395	3600
106	0	0	2142	1569	184	395	3600
107	0	0	2052	1568	183	395	3601
108	0	0	1949	1569	183	399	3601
109	0	0	1893	1569	185	399	3601
110	0	0	1845	1570	183	399	3601
111	0	0	1807	1570	183	399	3601
112	0	0	1775	1571	183	399	3602
113	0	0	1776	1574	184	399	3602
114	0	0	1814	1574	184	399	3602
115	0	0	1845	1570	185	399	3600
116	0	0	1829	1574	183	399	3600
117	0	0	1944	1575	183	395	3601
118	0	0	2093	1574	183	395	3601
119	0	0	2201	1574	183	399	3600
120	0	0	2335	1574	184	399	3601
121	0	0	2405	1574	184	399	3601
122	0	0	2387	1570	185	396	3602
123	0	0	2334	1570	184	395	3602
124	0	0	2276	1569	185	395	3601
125	0	0	2197	1570	183	399	3601
126	0	0	2135	1570	184	399	3601
127	0	0	2041	1569	184	399	3600
0	0	0	1949	1570	184	399	3601
1	0	0	1895	1570	184	399	3601
2	0	0	1846	1570	184	399	3602
3	0	0	1811	1571	184	401	3602
4	0	0	1771	1571	184	399	3601
5	0	0	1771	1573	184	395	3602
6	0	0	1806	1574	183	395	3602
7	0	0	1841	1571	184	395	3600
8	0	0	1827	1575	184	395	3600
9	0	0	1939	1575	183	399	3600
10	0	0	2088	1574	182	399	3601
11	0	0	2192	1574	184	399	3600
12	0	0	2325	1574	183	395	3601
13	0	0	2392	1573	184	399	3601
14	0	0	2376	1571	184	399	3602
15	0	0	2326	1569	183	399	3602
16	0	0	2269	1569	184	399	3601
17	0	0	2193	1569	184	399	3600
18	0	0	2138	1569	185	399	3600
19	0	0	2046	1569	184	400	3600
20	0	0	1950	1569	185	400	3601
21	0	0	1894	1569	185	399	3600
22	0	0	1849	1570	183	399	3602
23	0	0	1817	1570	183	397	3601
24	0	0	1783	1571	184	396	3602
25	0	0	1783	1574	183	395	3602
26	0	0	1811	1574	184	395	3601
27	0	0	1845	1570	183	399	3600
28	0	0	1835	1574	183	399	3600
29	0	0	1949	1574	184	399	3600
30	0	0	2101	1574	184	399	3601
31	0	0	2203	1574	184	399	3600
32	0	0	2330	1573	184	399	3601
33	0	0	2396	1574	184	399	3601
34	0	0	2381	1571	184	398	3601
35	0	0	2332	1570	185	399	3602
36	0	0	2276	1570	184	399	3602
37	0	0	2200	1569	184	399	3600
38	0	0	2142	1569	185	399	3600
39	0	0	2054	1569	184	399	3601
40	0	0	1955	1568	183	399	3600
41	0	0	1896	1569	184	395	3601
42	0	0	1850	1569	184	395	3601
43	0	0	1819	1570	184	395	3601
44	0	0	1787	1571	183	395	3601
45	0	0	1787	1573	183	399	3602
46	0	0	1818	1574	183	399	3601
47	0	0	1858	1571	184	399	3601
48	0	0	1847	1575	183	399	3600
49	0	0	1962	1575	184	401	3600
50	0	0	2109	1575	183	399	3601
51	0	0	2212	1574	184	399	3600
52	0	0	2342	1573	183	399	3601
53	0	0	2412	1574	184	395	3601
54	0	0	2394	1571	184	395	3602
55	0	0	2343	1569	184	395	3602
56	0	0	2283	1569	184	399	3600
57	0	0	2208	1568	183	399	3600
58	0	0	2150	1569	184	399	3600
59	0	0	2061	1568	184	395	3599
60	0	0	1962	1568	183	395	3600
61	0	0	1905	1570	184	399	3601
62	0	0	1855	1570	183	400	3601
63	0	0	1818	1570	184	399	3601
64	0	0	1783	1571	184	399	3601
65	0	0	1788	1574	184	399	3602
66	0	0	1819	1574	184	399	3601
67	0	0	1853	1571	183	399	3600
68	0	0	1839	1574	184	399	3600
69	0	0	1946	1574	185	399	3600
70	0	0	2094	1574	183	395	3601
71	0	0	2195	1574	183	395	3601
72	0	0	2326	1574	183	395	3601
73	0	0	2397	1573	185	395	3601
74	0	0	2389	1572	184	399	3601
75	0	0	2342	1569	182	399	3602
76	0	0	2282	1569	184	399	3600
77	0	0	2202	1569	185	399	3601
78	0	0	2145	1569	185	399	3599
79	0	0	2057	1568	183	400	3600
80	0	0	1961	1568	184	400	3601
81	0	0	1907	1569	184	399	3600
82	0	0	1859	1569	183	399	3601
83	0	0	1823	1569	185	399	3601
84	0	0	1786	1571	183	399	3602
85	0	0	1790	1574	183	399	3602
86	0	0	1823	1573	184	399	3601
87	0	0	1858	1570	185	399	3600
88	0	0	1844	1574	184	395	3600
89	0	0	1957	1575	183	395	3600
90	0	0	2103	1574	182	395	3600
91	0	0	2208	1574	184	395	3600
92	0	0	2342	1574	183	399	3600
93	0	0	2414	1573	185	398	3601
94	0	0	2402	1571	184	399	3601
95	0	0	2352	1569	184	399	3602
96	0	0	2295	1568	183	399	3600
97	0	0	2220	1569	183	400	3601
98	0	0	2161	1569	185	399	3600
99	0	0	2067	1568	184	399	3600
100	0	0	1964	1569	184	399	3601
101	0	0	1904	1569	184	395	3600
102	0	0	1859	1570	184	395	3602
103	0	0	1823	1570	183	399	3602
104	0	0	1785	1570	185	399	3601
105	0	0	1784	1573	184	399	3602
106	0	0	1814	1574	183	395	3601
107	0	0	1857	1571	184	395	3600
108	0	0	1840	1574	183	395	3600
109	0	0	1943	1574	183	399	3600
110	0	0	2093	1574	183	399	3600
111	0	0	2197	1573	183	399	3600
112	0	0	2329	1574	183	399	3601
113	0	0	2401	1574	184	399	3601
114	0	0	2395	1571	184	400	3601
115	0	0	2349	1570	184	399	3602
116	0	0	2288	1568	184	399	3600
117	0	0	2213	1569	184	396	3601
118	0	0	2152	1569	185	395	3600
119	0	0	2059	1568	185	396	3599
120	0	0	1961	1569	184	395	3600
121	0	0	1901	1569	184	399	3600
122	0	0	1851	1569	184	399	3600
123	0	0	1810	1569	184	400	3601
124	0	0	1773	1570	183	396	3601
125	0	0	1776	1574	183	399	3601
126	0	0	1808	1574	183	399	3600
127	0	0	1847	1570	183	399	3600
0	0	0	1830	1574	184	399	3599
1	0	0	1937	1574	184	399	3600
2	0	0	2085	1573	184	399	3600
3	0	0	2192	1573	182	399	3600
4	0	0	2325	1574	184	399	3602
5	0	0	2396	1574	184	395	3601
6	0	0	2389	1573	183	395	3601
7	0	0	2341	1570	184	395	3602
8	0	0	2280	1568	184	399	3600
9	0	0	2201	1569	184	399	3601
10	0	0	2142	1569	184	399	3600
11	0	0	2051	1568	184	395	3600
12	0	0	1949	1569	184	395	3601
13	0	0	1889	1569	185	399	3600
14	0	0	1840	1570	184	399	3601
15	0	0	1803	1569	184	399	3601
16	0	0	1765	1570	184	399	3601
17	0	0	1768	1574	184	399	3602
18	0	0	1800	1573	183	399	3601
19	0	0	1839	1570	183	399	3600
20	0	0	1824	1573	184	399	3600
21	0	0	1929	1574	184	399	3600
22	0	0	2083	1574	184	395	3601
23	0	0	2191	1574	184	395	3600
24	0	0	2327	1574	184	395	3601
25	0	0	2402	1573	184	395	3601
26	0	0	2387	1571	184	399	3602
27	0	0	2338	1569	184	399	3602
28	0	0	2283	1569	184	399	3602
29	0	0	2208	1569	186	400	3600
30	0	0	2155	1569	184	399	3599
31	0	0	2068	1568	184	399	3600
32	0	0	1965	1569	184	400	3601
33	0	0	1905	1569	184	399	3600
34	0	0	1855	1569	184	399	3602
35	0	0	1821	1569	184	399	3601
36	0	0	1786	1571	184	399	3601
37	0	0	1788	1573	183	399	3601
38	0	0	1814	1574	184	399	3601
39	0	0	1853	1571	184	399	3600
40	0	0	1836	1573	184	395	3600
41	0	0	1939	1574	183	395	3601
42	0	0	2090	1573	184	395	3600
43	0	0	2198	1574	183	395	3600
44	0	0	2335	1574	184	399	3600
45	0	0	2413	1573	183	399	3601
46	0	0	2401	1571	184	399	3601
47	0	0	2347	1570	184	399	3602
48	0	0	2288	1569	184	399	3600
49	0	0	2215	1569	184	399	3600
50	0	0	2160	1569	184	399	3600
51	0	0	2071	1568	184	399	3601
52	0	0	1964	1568	184	399	3600
53	0	0	1906	1568	184	395	3600
54	0	0	1855	1569	184	395	3601
55	0	0	1821	1570	184	399	3601
56	0	0	1784	1570	184	399	3601
57	0	0	1784	1573	184	399	3601
58	0	0	1813	1573	183	395	3601
59	0	0	1848	1570	183	395	3600
60	0	0	1829	1574	183	395	3600
61	0	0	1935	1574	184	399	3600
62	0	0	2087	1574	184	399	3601
63	0	0	2197	1574	183	399	3600
64	0	0	2334	1573	183	398	3602
65	0	0	2416	1574	183	399	3601
66	0	0	2402	1571	185	399	3601
67	0	0	2349	1569	183	399	3601
68	0	0	2291	1569	184	399	3601
69	0	0	2214	1569	184	395	3600
70	0	0	2154	1569	184	395	3599
71	0	0	2062	1568	184	396	3599
72	0	0	1956	1568	183	395	3600
73	0	0	1900	1569	184	399	3601
74	0	0	1853	1571	184	398	3601
75	0	0	1813	1570	184	399	3601
76	0	0	1780	1571	184	395	3602
77	0	0	1781	1573	184	399	3601
78	0	0	1814	1574	185	399	3600
79	0	0	1854	1570	184	400	3600
80	0	0	1835	1574	184	399	3600
81	0	0	1945	1574	184	399	3600
82	0	0	2096	1574	184	399	3600
83	0	0	2203	1574	183	399	3600
84	0	0	2339	1573	184	399	3601
85	0	0	2412	1574	183	399	3601
86	0	0	2401	1571	183	399	3601
87	0	0	2355	1570	184	395	3602
88	0	0	2300	1569	184	395	3601
89	0	0	2219	1569	184	395	3600
90	0	0	2157	1569	184	395	3600
91	0	0	2066	1568	184	399	3600
92	0	0	1960	1568	184	399	3600
93	0	0	1899	1569	184	399	3600
94	0	0	1843	1569	184	399	3600
95	0	0	1802	1569	183	399	3601
96	0	0	1767	1570	183	399	3601
97	0	0	1768	1574	184	399	3601
98	0	0	1803	1573	183	399	3600
99	0	0	1850	1571	183	398	3601
100	0	0	1833	1574	183	399	3600
101	0	0	1939	1574	183	399	3599
102	0	0	2090	1574	184	399	3601
103	0	0	2200	1574	184	399	3600
104	0	0	2333	1574	184	399	3600
105	0	0	2407	1573	184	395	3601
106	0	0	2397	1571	184	395	3601
107	0	0	2348	1570	184	395	3601
108	0	0	2287	1569	184	395	3600
109	0	0	2210	1569	184	399	3600
110	0	0	2147	1568	184	399	3600
111	0	0	2055	1568	185	399	3600
112	0	0	1954	1569	185	399	3600
113	0	0	1898	1570	184	399	3601
114	0	0	1844	1570	184	399	3600
115	0	0	1800	1570	185	400	3601
116	0	0	1770	1571	184	399	3601
117	0	0	1777	1574	184	395	3601
118	0	0	1810	1574	183	395	3600
119	0	0	1859	1572	184	399	3601
120	0	0	1842	1574	183	395	3599
121	0	0	1944	1574	183	395	3599
122	0	0	2095	1574	184	395	3600
123	0	0	2201	1574	183	395	3600
124	0	0	2334	1574	185	398	3600
125	0	0	2410	1574	185	399	3601
126	0	0	2399	1571	184	399	3601
127	0	0	2348	1569	184	399	3601
0	0	0	2288	1569	184	399	3601
1	0	0	2215	1570	185	399	3599
2	0	0	2156	1568	184	399	3599
3	0	0	2062	1568	183	399	3599
4	0	0	1956	1569	184	399	3600
5	0	0	1902	1569	183	395	3600
6	0	0	1853	1569	184	395	3600
7	0	0	1813	1569	185	399	3600
8	0	0	1777	1570	184	399	3601
9	0	0	1778	1573	184	400	3601
10	0	0	1810	1575	184	395	3601
11	0	0	1860	1572	183	395	3600
12	0	0	1841	1574	184	395	3599
13	0	0	1936	1574	184	399	3599
14	0	0	2089	1574	184	398	3600
15	0	0	2195	1574	183	399	3600
16	0	0	2327	1574	184	399	3601
17	0	0	2403	1573	184	399	3602
18	0	0	2389	1571	184	399	3601
19	0	0	2342	1569	184	400	3601
20	0	0	2283	1569	184	399	3600
21	0	0	2208	1569	185	395	3600
22	0	0	2148	1569	183	395	3599
23	0	0	2056	1568	184	395	3600
24	0	0	1949	1568	184	395	3600
25	0	0	1889	1569	185	399	3601
26	0	0	1840	1570	184	399	3600
27	0	0	1805	1570	184	399	3601
28	0	0	1777	1571	184	395	3602
29	0	0	1782	1573	184	400	3601
30	0	0	1810	1573	184	399	3600
31	0	0	1854	1571	184	399	3599
32	0	0	1835	1574	184	398	3599
33	0	0	1939	1574	184	399	3599
34	0	0	2088	1573	184	399	3600
35	0	0	2197	1574	183	399	3600
36	0	0	2329	1574	184	399	3600
37	0	0	2408	1573	183	399	3601
38	0	0	2396	1570	183	399	3601
39	0	0	2348	1570	185	395	3602
40	0	0	2284	1569	185	395	3600
41	0	0	2204	1568	184	395	3601
42	0	0	2145	1569	184	395	3599
43	0	0	2056	1568	184	399	3599
44	0	0	1952	1568	185	399	3600
45	0	0	1893	1569	184	399	3600
46	0	0	1846	1569	184	399	3600
47	0	0	1816	1570	183	399	3600
48	0	0	1782	1571	184	399	3602
49	0	0	1780	1573	183	399	3601
50	0	0	1814	1573	184	399	3600
51	0	0	1853	1570	184	398	3599
52	0	0	1834	1574	183	399	3600
53	0	0	1938	1573	183	399	3599
54	0	0	2095	1574	184	399	3600
55	0	0	2200	1574	184	399	3600
56	0	0	2332	1573	184	399	3600
57	0	0	2411	1573	184	395	3600
58	0	0	2393	1570	184	395	3601
59	0	0	2342	1569	184	395	3601
60	0	0	2283	1569	184	395	3601
61	0	0	2203	1568	185	399	3600
62	0	0	2147	1569	185	399	3599
63	0	0	2059	1569	185	399	3600
64	0	0	1958	1568	184	400	3600
65	0	0	1897	1569	184	399	3600
66	0	0	1850	1569	184	399	3599
67	0	0	1816	1569	184	399	3601
68	0	0	1783	1570	184	399	3601
69	0	0	1784	1573	184	395	3601
70	0	0	1818	1574	183	395	3600
71	0	0	1867	1572	183	395	3599
72	0	0	1845	1573	183	399	3600
73	0	0	1945	1574	184	399	3600
74	0	0	2098	1573	184	399	3600
75	0	0	2205	1574	183	395	3601
76	0	0	2337	1573	183	395	3600
77	0	0	2407	1574	184	399	3600
78	0	0	2392	1570	184	399	3602
79	0	0	2340	1569	184	399	3601
80	0	0	2279	1569	184	399	3600
81	0	0	2201	1569	183	398	3600
82	0	0	2147	1569	185	399	3599
83	0	0	2056	1568	185	399	3599
84	0	0	1952	1568	184	399	3599
85	0	0	1892	1568	184	399	3599
86	0	0	1843	1569	183	395	3600
87	0	0	1805	1569	184	395	3600
88	0	0	1773	1570	184	395	3602
89	0	0	1775	1573	184	395	3601
90	0	0	1810	1573	183	399	3600
91	0	0	1860	1572	184	399	3599
92	0	0	1845	1572	183	399	3599
93	0	0	1944	1574	184	399	3599
94	0	0	2094	1574	183	399	3600
95	0	0	2198	1573	183	399	3599
96	0	0	2330	1573	184	399	3601
97	0	0	2405	1574	184	399	3601
98	0	0	2387	1570	183	399	3601
99	0	0	2340	1569	183	399	3600
100	0	0	2277	1568	184	400	3600
101	0	0	2204	1569	183	399	3599
102	0	0	2143	1569	184	399	3599
103	0	0	2055	1568	184	399	3600
104	0	0	1952	1568	184	395	3600
105	0	0	1893	1568	184	399	3599
106	0	0	1843	1569	183	399	3600
107	0	0	1804	1569	184	399	3600
108	0	0	1770	1570	183	395	3601
109	0	0	1772	1574	184	399	3600
110	0	0	1804	1573	184	399	3600
111	0	0	1854	1572	183	399	3599
112	0	0	1838	1574	183	399	3599
113	0	0	1938	1574	183	399	3599
114	0	0	2090	1573	184	399	3600
115	0	0	2197	1574	184	399	3599
116	0	0	2326	1574	184	399	3600
117	0	0	2404	1573	184	399	3600
118	0	0	2393	1571	183	399	3600
119	0	0	2340	1568	184	395	3601
120	0	0	2283	1568	184	395	3600
121	0	0	2208	1568	184	395	3599
122	0	0	2146	1568	184	395	3599
123	0	0	2054	1567	183	399	3599
124	0	0	1951	1568	184	399	3600
125	0	0	1891	1568	184	399	3599
126	0	0	1840	1568	184	399	3600
127	0	0	1805	1569	184	399	3600
0	0	0	1773	1570	184	400	3600
1	0	0	1774	1573	184	399	3600
2	0	0	1812	1573	184	399	3600
3	0	0	1857	1572	184	399	3599
4	0	0	1838	1574	183	399	3599
5	0	0	1935	1573	183	399	3599
6	0	0	2089	1573	183	399	3599
7	0	0	2196	1573	183	399	3599
8	0	0	2324	1573	183	399	3599
9	0	0	2400	1574	185	395	3600
10	0	0	2385	1570	184	395	3600
11	0	0	2335	1569	183	395	3601
12	0	0	2273	1568	185	395	3599
13	0	0	2194	1568	184	399	3599
14	0	0	2128	1568	184	399	3599
15	0	0	2041	1568	185	399	3600
16	0	0	1943	1568	184	399	3600
17	0	0	1886	1569	186	399	3599
18	0	0	1841	1569	184	399	3600
19	0	0	1814	1570	184	399	3600
20	0	0	1785	1571	183	399	3600
21	0	0	1791	1573	184	395	3601
22	0	0	1823	1573	183	395	3600
23	0	0	1866	1571	184	395	3599
24	0	0	1847	1574	182	399	3599
25	0	0	1946	1574	184	399	3599
26	0	0	2100	1573	184	398	3599
27	0	0	2211	1574	184	395	3600
28	0	0	2337	1574	183	395	3599
29	0	0	2408	1573	185	399	3600
30	0	0	2392	1570	184	399	3600
31	0	0	2334	1568	185	399	3600
32	0	0	2272	1568	183	399	3600
33	0	0	2199	1568	183	400	3599
34	0	0	2143	1567	184	399	3599
35	0	0	2057	1568	184	399	3599
36	0	0	1952	1568	184	399	3600
37	0	0	1893	1569	184	399	3599
38	0	0	1844	1568	183	395	3601
39	0	0	1808	1569	184	395	3600
40	0	0	1780	1570	184	396	3600
41	0	0	1783	1573	184	395	3600
42	0	0	1820	1573	183	399	3599
43	0	0	1870	1572	183	399	3599
44	0	0	1851	1574	184	398	3598
45	0	0	1949	1573	183	400	3598
46	0	0	2100	1573	184	399	3599
47	0	0	2205	1574	184	399	3600
48	0	0	2330	1574	184	400	3599
49	0	0	2402	1574	183	398	3600
50	0	0	2385	1570	184	399	3600
51	0	0	2333	1569	184	399	3601
52	0	0	2273	1568	184	399	3599
53	0	0	2198	1568	185	399	3599
54	0	0	2136	1568	184	399	3598
55	0	0	2045	1567	184	399	3598
56	0	0	1948	1567	184	395	3599
57	0	0	1888	1568	184	395	3599
58	0	0	1837	1568	184	395	3599
59	0	0	1802	1569	184	396	3599
60	0	0	1776	1570	184	399	3600
61	0	0	1783	1572	183	398	3600
62	0	0	1820	1572	183	399	3599
63	0	0	1878	1572	183	399	3599
64	0	0	1862	1574	184	399	3598
65	0	0	1958	1573	183	399	3599
66	0	0	2105	1573	183	399	3599
67	0	0	2206	1574	183	399	3600
68	0	0	2332	1573	184	399	3599
69	0	0	2401	1573	185	395	3600
70	0	0	2385	1570	184	395	3601
71	0	0	2334	1569	184	399	3600
72	0	0	2275	1569	184	399	3599
73	0	0	2198	1568	184	400	3598
74	0	0	2134	1569	184	395	3598
75	0	0	2045	1567	184	395	3598
76	0	0	1943	1567	184	395	3599
77	0	0	1888	1568	184	399	3599
78	0	0	1845	1568	183	399	3599
79	0	0	1810	1569	184	399	3599
80	0	0	1783	1569	184	399	3600
81	0	0	1792	1573	184	400	3600
82	0	0	1827	1573	183	399	3599
83	0	0	1883	1572	184	399	3599
84	0	0	1865	1573	184	399	3599
85	0	0	1960	1574	183	395	3598
86	0	0	2108	1573	183	395	3599
87	0	0	2207	1573	184	395	3598
88	0	0	2332	1572	183	395	3599
89	0	0	2403	1573	184	399	3599
90	0	0	2392	1570	183	399	3600
91	0	0	2339	1568	184	399	3600
92	0	0	2277	1568	185	399	3599
93	0	0	2202	1568	184	400	3598
94	0	0	2141	1568	184	399	3598
95	0	0	2052	1567	184	399	3598
96	0	0	1947	1567	184	399	3599
97	0	0	1889	1568	184	399	3598
98	0	0	1840	1569	184	399	3600
99	0	0	1810	1569	183	399	3600
100	0	0	1788	1570	183	399	3599
101	0	0	1792	1572	183	398	3600
102	0	0	1827	1573	183	399	3600
103	0	0	1887	1573	185	399	3598
104	0	0	1876	1574	182	399	3598
105	0	0	1974	1573	183	395	3598
106	0	0	2125	1573	183	395	3599
107	0	0	2227	1573	183	395	3599
108	0	0	2344	1573	183	396	3599
109	0	0	2417	1572	183	399	3599
110	0	0	2393	1569	185	399	3599
111	0	0	2340	1569	184	397	3600
112	0	0	2277	1568	184	400	3599
113	0	0	2196	1568	184	399	3598
114	0	0	2136	1568	185	400	3598
115	0	0	2048	1567	185	399	3597
116	0	0	1948	1568	184	399	3599
117	0	0	1892	1568	184	395	3598
118	0	0	1849	1568	184	395	3600
119	0	0	1820	1570	183	395	3599
120	0	0	1792	1570	183	399	3599
121	0	0	1799	1573	184	399	3600
122	0	0	1832	1572	184	399	3599
123	0	0	1878	1571	184	395	3598
124	0	0	1862	1574	183	395	3597
125	0	0	1961	1573	183	399	3598
126	0	0	2112	1573	183	398	3598
127	0	0	2218	1573	184	399	3598
0	0	0	2344	1573	184	399	3599
1	0	0	2417	1573	183	399	3599
2	0	0	2391	1569	184	399	3599
3	0	0	2336	1568	183	398	3599
4	0	0	2272	1568	185	399	3599
5	0	0	2190	1568	185	399	3598
6	0	0	2127	1568	184	395	3598
7	0	0	2044	1568	184	395	3599
8	0	0	1945	1567	185	394	3598
9	0	0	1891	1568	184	395	3598
10	0	0	1849	1569	184	399	3598
11	0	0	1820	1569	184	399	3599
12	0	0	1790	1569	184	399	3599
13	0	0	1792	1572	184	399	3599
14	0	0	1828	1572	183	399	3598
15	0	0	1880	1572	183	399	3598
16	0	0	1864	1573	183	399	3597
17	0	0	1964	1574	183	399	3597
18	0	0	2114	1572	184	398	3598
19	0	0	2208	1573	184	399	3599
20	0	0	2329	1573	182	399	3598
21	0	0	2398	1573	183	399	3599
22	0	0	2388	1570	183	399	3600
23	0	0	2334	1568	185	399	3599
24	0	0	2272	1568	184	395	3598
25	0	0	2202	1568	185	395	3599
26	0	0	2137	1569	184	395	3598
27	0	0	2050	1567	184	395	3598
28	0	0	1946	1567	185	398	3598
29	0	0	1890	1568	184	399	3598
30	0	0	1845	1568	185	399	3598
31	0	0	1813	1569	184	400	3598
32	0	0	1788	1570	184	399	3599
33	0	0	1794	1572	184	400	3599
34	0	0	1830	1572	185	399	3598
35	0	0	1885	1573	183	399	3598
36	0	0	1871	1573	183	399	3597
37	0	0	1964	1572	183	395	3597
38	0	0	2113	1573	184	395	3598
39	0	0	2213	1573	183	399	3599
40	0	0	2332	1573	184	399	3598
41	0	0	2405	1573	184	399	3599
42	0	0	2387	1570	184	395	3599
43	0	0	2334	1568	184	395	3599
44	0	0	2272	1567	184	395	3599
45	0	0	2195	1568	186	400	3597
46	0	0	2135	1568	183	399	3597
47	0	0	2046	1567	184	399	3597
48	0	0	1943	1567	184	399	3598
49	0	0	1887	1568	184	399	3598
50	0	0	1845	1568	185	399	3599
51	0	0	1815	1569	184	400	3598
52	0	0	1787	1569	183	399	3599
53	0	0	1793	1573	184	394	3599
54	0	0	1834	1572	183	395	3598
55	0	0	1892	1572	184	395	3597
56	0	0	1875	1573	184	395	3597
57	0	0	1968	1573	183	399	3598
58	0	0	2117	1572	184	399	3598
59	0	0	2212	1573	184	399	3599
60	0	0	2330	1573	183	395	3598
61	0	0	2403	1573	184	400	3598
62	0	0	2386	1568	184	400	3598
63	0	0	2329	1567	184	399	3599
64	0	0	2264	1568	184	399	3598
65	0	0	2190	1568	184	399	3598
66	0	0	2129	1568	185	399	3598
67	0	0	2040	1567	184	399	3597
68	0	0	1938	1566	184	400	3598
69	0	0	1885	1568	184	399	3599
70	0	0	1843	1568	184	399	3598
71	0	0	1813	1569	183	395	3598
72	0	0	1789	1569	184	395	3598
73	0	0	1797	1572	183	395	3599
74	0	0	1838	1572	184	395	3598
75	0	0	1898	1572	184	399	3598
76	0	0	1885	1573	183	395	3597
77	0	0	1976	1573	183	399	3597
78	0	0	2123	1573	183	399	3598
79	0	0	2219	1572	184	399	3597
80	0	0	2340	1572	185	399	3598
81	0	0	2405	1572	183	399	3598
82	0	0	2381	1569	184	399	3599
83	0	0	2324	1567	184	399	3598
84	0	0	2257	1567	185	399	3598
85	0	0	2183	1567	184	395	3597
86	0	0	2122	1568	184	395	3597
87	0	0	2038	1567	184	395	3597
88	0	0	1937	1567	184	399	3597
89	0	0	1880	1567	184	399	3597
90	0	0	1838	1568	183	399	3599
91	0	0	1812	1569	184	395	3599
92	0	0	1791	1569	184	395	3598
93	0	0	1798	1572	184	399	3598
94	0	0	1832	1571	183	399	3598
95	0	0	1892	1572	185	399	3598
96	0	0	1879	1573	184	400	3596
97	0	0	1974	1574	183	399	3597
98	0	0	2127	1572	183	399	3598
99	0	0	2222	1572	184	399	3597
100	0	0	2338	1573	184	399	3597
101	0	0	2401	1573	183	399	3598
102	0	0	2376	1568	183	396	3599
103	0	0	2320	1567	183	395	3599
104	0	0	2256	1567	183	395	3598
105	0	0	2179	1568	186	395	3597
106	0	0	2115	1568	185	399	3597
107	0	0	2034	1567	184	399	3597
108	0	0	1938	1567	184	399	3597
109	0	0	1887	1567	184	399	3598
110	0	0	1847	1569	184	399	3598
111	0	0	1827	1569	183	399	3598
112	0	0	1813	1571	183	399	3599
113	0	0	1823	1573	183	399	3598
114	0	0	1857	1572	183	399	3598
115	0	0	1907	1571	184	399	3598
116	0	0	1889	1573	183	399	3598
117	0	0	1975	1573	184	399	3597
118	0	0	2119	1573	183	399	3598
119	0	0	2218	1572	183	399	3597
120	0	0	2334	1572	184	395	3598
121	0	0	2402	1572	183	396	3598
122	0	0	2378	1569	184	395	3598
123	0	0	2319	1568	184	395	3598
124	0	0	2250	1567	184	399	3597
125	0	0	2172	1568	184	399	3597
126	0	0	2108	1568	183	399	3597
127	0	0	2026	1566	184	399	3598
0	0	0	1927	1567	184	399	3597
1	0	0	1870	1568	184	400	3597
2	0	0	1831	1568	184	399	3597
3	0	0	1810	1568	184	399	3599
4	0	0	1786	1570	183	399	3598
5	0	0	1799	1572	183	395	3599
