# bioPlux Text File Format
# Version: 1
# StartDateTime: 2011-07-18 10:26:32
# SamplingFrequency: 1000
# SampledChannels: 1 2 3 4
# SamplingResolution: 12
# AcquiringDevice: 00:07:80:42:0F:95
# EndOfHeader
0	0	0	2382	5	4041	0
1	0	0	2486	5	4042	0
2	0	0	2564	5	4043	0
3	0	0	2626	5	4042	0
4	0	0	2681	5	4042	0
5	0	0	2712	5	4042	0
6	0	0	2748	5	4042	0
7	0	0	2754	4	4042	0
8	0	0	2730	4	4042	0
9	0	0	2697	4	4042	0
10	0	0	2657	4	4042	0
11	0	0	2612	4	4042	0
12	0	0	2550	3	4042	0
13	0	0	2495	4	4042	0
14	0	0	2416	4	4042	0
15	0	0	2383	4	4042	0
16	0	0	2347	4	4042	0
17	0	0	2349	4	4043	0
18	0	0	2398	5	4044	1
19	0	0	2452	5	4042	0
20	0	0	2522	5	4042	0
21	0	0	2606	5	4043	0
22	0	0	2666	4	4043	0
23	0	0	2712	5	4043	0
24	0	0	2742	5	4042	0
25	0	0	2765	4	4042	0
26	0	0	2787	5	4042	0
27	0	0	2789	3	4043	0
28	0	0	2760	4	4042	0
29	0	0	2723	5	4042	0
30	0	0	2686	4	4042	0
31	0	0	2649	4	4043	0
32	0	0	2596	5	4044	0
33	0	0	2547	4	4042	0
34	0	0	2511	4	4043	0
35	0	0	2479	4	4043	0
36	0	0	2403	4	4042	0
37	0	0	2394	5	4043	0
38	0	0	2427	5	4042	0
39	0	0	2479	5	4042	0
40	0	0	2546	6	4043	0
41	0	0	2621	5	4043	0
42	0	0	2738	5	4043	0
43	0	0	2800	5	4042	0
44	0	0	2825	5	4042	0
45	0	0	2830	5	4042	0
46	0	0	2809	4	4042	0
47	0	0	2740	3	4042	0
48	0	0	2657	4	4042	0
49	0	0	2589	5	4042	0
50	0	0	2525	4	4042	0
51	0	0	2467	4	4042	0
52	0	0	2406	3	4043	0
53	0	0	2341	4	4042	0
54	0	0	2282	4	4043	0
55	0	0	2280	5	4043	0
56	0	0	2262	5	4043	0
57	0	0	2290	5	4044	0
58	0	0	2379	5	4042	0
59	0	0	2460	5	4043	0
60	0	0	2566	5	4042	0
61	0	0	2678	5	4042	0
62	0	0	2779	5	4043	0
63	0	0	2854	5	4042	0
64	0	0	2911	5	4042	0
65	0	0	2941	5	4042	0
66	0	0	2962	5	4043	0
67	0	0	2955	4	4043	0
68	0	0	2913	4	4042	0
69	0	0	2851	4	4042	0
70	0	0	2775	4	4041	0
71	0	0	2698	4	4041	0
72	0	0	2624	3	4042	0
73	0	0	2565	4	4043	0
74	0	0	2524	4	4042	0
75	0	0	2498	5	4042	0
76	0	0	2451	4	4042	0
77	0	0	2439	4	4042	0
78	0	0	2469	5	4042	0
79	0	0	2517	5	4043	0
80	0	0	2589	5	4042	0
81	0	0	2669	5	4042	0
82	0	0	2738	4	4043	0
83	0	0	2799	5	4042	0
84	0	0	2854	5	4042	0
85	0	0	2883	5	4041	0
86	0	0	2912	5	4042	0
87	0	0	2912	5	4043	0
88	0	0	2890	5	4043	0
89	0	0	2856	5	4042	0
90	0	0	2800	5	4042	0
91	0	0	2732	4	4041	0
92	0	0	2643	4	4042	0
93	0	0	2522	4	4042	0
94	0	0	2449	4	4043	0
95	0	0	2396	4	4043	0
96	0	0	2315	4	4042	0
97	0	0	2292	4	4043	0
98	0	0	2327	5	4042	0
99	0	0	2380	5	4042	0
100	0	0	2473	6	4042	0
101	0	0	2581	5	4042	0
102	0	0	2672	4	4043	0
103	0	0	2745	5	4042	0
104	0	0	2802	5	4042	0
105	0	0	2837	5	4043	0
106	0	0	2871	5	4042	0
107	0	0	2873	4	4043	0
108	0	0	2852	4	4043	0
109	0	0	2819	5	4042	0
110	0	0	2775	5	4042	0
111	0	0	2721	4	4042	0
112	0	0	2645	4	4043	0
113	0	0	2564	4	4042	0
114	0	0	2491	4	4043	0
115	0	0	2428	4	4043	0
116	0	0	2340	4	4041	0
117	0	0	2298	4	4042	0
118	0	0	2309	5	4042	0
119	0	0	2334	5	4042	0
120	0	0	2396	5	4043	0
121	0	0	2470	5	4042	0
122	0	0	2524	5	4043	0
123	0	0	2557	5	4042	0
124	0	0	2581	5	4043	0
125	0	0	2598	5	4043	0
126	0	0	2611	5	4043	0
127	0	0	2594	4	4043	0
0	0	0	2554	4	4042	0
1	0	0	2518	4	4043	0
2	0	0	2473	4	4043	0
3	0	0	2431	4	4042	0
4	0	0	2370	4	4043	0
5	0	0	2302	4	4042	0
6	0	0	2277	5	4043	0
7	0	0	2263	4	4043	0
8	0	0	2214	4	4043	0
9	0	0	2214	5	4043	0
10	0	0	2247	5	4042	0
11	0	0	2272	4	4042	0
12	0	0	2332	5	4042	0
13	0	0	2406	5	4042	0
14	0	0	2463	5	4042	0
15	0	0	2495	5	4042	0
16	0	0	2524	5	4044	0
17	0	0	2540	5	4043	0
18	0	0	2550	5	4042	0
19	0	0	2528	4	4043	0
20	0	0	2501	4	4043	0
21	0	0	2492	5	4044	0
22	0	0	2456	4	4042	0
23	0	0	2376	4	4042	0
24	0	0	2267	4	4043	0
25	0	0	2154	4	4042	0
26	0	0	2064	4	4042	0
27	0	0	2011	5	4042	0
28	0	0	1939	4	4043	0
29	0	0	1911	5	4043	0
30	0	0	1949	5	4043	0
31	0	0	2002	5	4042	0
32	0	0	2098	5	4042	0
33	0	0	2231	5	4042	0
34	0	0	2338	5	4043	0
35	0	0	2425	5	4042	0
36	0	0	2498	4	4042	0
37	0	0	2550	5	4042	0
38	0	0	2590	5	4043	0
39	0	0	2597	5	4043	0
40	0	0	2565	4	4043	0
41	0	0	2531	5	4041	0
42	0	0	2487	5	4042	0
43	0	0	2439	4	4042	0
44	0	0	2345	4	4043	0
45	0	0	2269	4	4042	0
46	0	0	2229	4	4042	0
47	0	0	2194	4	4043	0
48	0	0	2128	4	4043	0
49	0	0	2111	5	4043	0
50	0	0	2118	5	4042	0
51	0	0	2124	5	4042	0
52	0	0	2164	5	4042	0
53	0	0	2229	5	4043	0
54	0	0	2278	5	4044	0
55	0	0	2309	5	4042	0
56	0	0	2329	5	4044	0
57	0	0	2323	5	4044	0
58	0	0	2317	4	4043	0
59	0	0	2293	4	4043	0
60	0	0	2250	4	4042	0
61	0	0	2204	4	4042	0
62	0	0	2153	4	4042	0
63	0	0	2104	4	4042	0
64	0	0	2055	4	4043	0
65	0	0	2016	4	4043	0
66	0	0	2000	6	4042	0
67	0	0	2002	5	4042	0
68	0	0	1969	4	4043	0
69	0	0	1979	5	4044	0
70	0	0	2029	5	4041	0
71	0	0	2087	5	4043	0
72	0	0	2170	6	4042	0
73	0	0	2259	5	4042	0
74	0	0	2312	5	4043	0
75	0	0	2346	5	4042	0
76	0	0	2374	5	4042	0
77	0	0	2385	6	4042	0
78	0	0	2398	5	4042	0
79	0	0	2389	4	4043	0
80	0	0	2358	4	4042	0
81	0	0	2330	4	4042	0
82	0	0	2297	4	4043	0
83	0	0	2254	4	4044	0
84	0	0	2178	4	4043	0
85	0	0	2133	4	4044	0
86	0	0	2109	4	4042	0
87	0	0	2090	5	4042	0
88	0	0	2049	4	4043	0
89	0	0	2041	5	4042	0
90	0	0	2077	5	4042	0
91	0	0	2121	5	4042	0
92	0	0	2201	4	4042	0
93	0	0	2300	4	4043	0
94	0	0	2374	5	4042	0
95	0	0	2417	4	4042	0
96	0	0	2452	5	4042	0
97	0	0	2474	4	4042	0
98	0	0	2483	5	4043	0
99	0	0	2467	4	4043	0
100	0	0	2424	4	4042	0
101	0	0	2369	5	4043	0
102	0	0	2304	4	4043	0
103	0	0	2226	4	4043	0
104	0	0	2140	4	4043	0
105	0	0	2062	4	4042	0
106	0	0	1996	4	4042	0
107	0	0	1946	4	4042	0
108	0	0	1879	4	4043	0
109	0	0	1858	5	4043	0
110	0	0	1887	5	4042	0
111	0	0	1931	5	4042	0
112	0	0	2012	4	4042	0
113	0	0	2110	5	4042	0
114	0	0	2190	5	4043	0
115	0	0	2250	5	4044	0
116	0	0	2294	5	4043	0
117	0	0	2327	5	4043	0
118	0	0	2348	5	4043	0
119	0	0	2330	4	4043	0
120	0	0	2297	5	4042	0
121	0	0	2263	4	4042	0
122	0	0	2218	4	4042	0
123	0	0	2139	4	4043	0
124	0	0	2069	4	4043	0
125	0	0	2022	4	4042	0
126	0	0	1978	4	4042	0
127	0	0	1950	4	4043	0
0	0	0	1907	4	4043	0
1	0	0	1897	5	4043	0
2	0	0	1938	5	4043	0
3	0	0	1997	5	4044	0
4	0	0	2091	4	4044	0
5	0	0	2200	5	4043	0
6	0	0	2289	5	4044	0
7	0	0	2349	5	4042	0
8	0	0	2402	5	4042	0
9	0	0	2448	4	4043	0
10	0	0	2480	5	4043	0
11	0	0	2471	4	4043	0
12	0	0	2426	4	4042	0
13	0	0	2380	4	4043	0
14	0	0	2326	3	4043	0
15	0	0	2262	4	4043	0
16	0	0	2191	4	4043	0
17	0	0	2118	4	4042	0
18	0	0	2053	4	4044	0
19	0	0	2008	4	4044	0
20	0	0	1944	4	4043	0
21	0	0	1932	5	4044	0
22	0	0	1965	5	4042	0
23	0	0	2016	5	4042	0
24	0	0	2099	5	4043	0
25	0	0	2194	5	4043	0
26	0	0	2266	5	4043	0
27	0	0	2318	5	4043	0
28	0	0	2357	5	4043	0
29	0	0	2370	5	4043	0
30	0	0	2379	5	4043	0
31	0	0	2365	4	4043	0
32	0	0	2317	4	4043	0
33	0	0	2241	4	4043	0
34	0	0	2165	4	4043	0
35	0	0	2078	4	4044	0
36	0	0	2019	4	4043	0
37	0	0	1973	4	4044	0
38	0	0	1928	5	4042	0
39	0	0	1900	4	4043	0
40	0	0	1843	4	4044	0
41	0	0	1815	5	4043	0
42	0	0	1836	4	4042	0
43	0	0	1873	5	4042	0
44	0	0	1950	4	4043	0
45	0	0	2043	5	4043	0
46	0	0	2116	5	4043	0
47	0	0	2176	5	4042	0
48	0	0	2223	5	4042	0
49	0	0	2257	4	4043	0
50	0	0	2287	5	4043	0
51	0	0	2296	5	4044	0
52	0	0	2272	4	4042	0
53	0	0	2241	4	4044	0
54	0	0	2209	4	4044	0
55	0	0	2174	4	4043	0
56	0	0	2131	4	4043	0
57	0	0	2094	4	4043	0
58	0	0	2076	4	4042	0
59	0	0	2064	5	4042	0
60	0	0	2020	4	4043	0
61	0	0	2014	5	4043	0
62	0	0	2068	5	4042	0
63	0	0	2137	5	4042	0
64	0	0	2235	5	4042	0
65	0	0	2332	5	4043	0
66	0	0	2392	5	4043	0
67	0	0	2435	5	4042	0
68	0	0	2461	5	4042	0
69	0	0	2473	4	4043	0
70	0	0	2484	5	4043	0
71	0	0	2467	4	4044	0
72	0	0	2418	4	4042	0
73	0	0	2367	4	4042	0
74	0	0	2293	3	4043	0
75	0	0	2217	4	4043	0
76	0	0	2156	4	4044	0
77	0	0	2098	4	4043	0
78	0	0	2052	4	4044	0
79	0	0	2029	4	4044	0
80	0	0	1979	4	4043	0
81	0	0	1974	5	4044	0
82	0	0	2031	5	4043	0
83	0	0	2103	5	4043	0
84	0	0	2196	5	4042	0
85	0	0	2300	5	4042	0
86	0	0	2383	5	4043	0
87	0	0	2441	5	4042	0
88	0	0	2476	5	4042	0
89	0	0	2485	5	4043	0
90	0	0	2507	5	4044	0
91	0	0	2479	4	4043	0
92	0	0	2423	4	4044	0
93	0	0	2362	4	4043	0
94	0	0	2299	4	4042	0
95	0	0	2237	4	4043	0
96	0	0	2158	3	4043	0
97	0	0	2082	4	4042	0
98	0	0	2023	4	4044	0
99	0	0	1981	4	4043	0
100	0	0	1916	4	4042	0
101	0	0	1895	5	4043	0
102	0	0	1920	5	4042	0
103	0	0	1963	5	4043	0
104	0	0	2042	5	4043	0
105	0	0	2138	5	4044	0
106	0	0	2203	5	4043	0
107	0	0	2246	5	4043	0
108	0	0	2276	5	4042	0
109	0	0	2283	5	4043	0
110	0	0	2282	5	4043	0
111	0	0	2258	4	4044	0
112	0	0	2217	4	4043	0
113	0	0	2164	4	4043	0
114	0	0	2075	4	4043	0
115	0	0	2008	4	4043	0
116	0	0	1948	4	4043	0
117	0	0	1892	4	4043	0
118	0	0	1852	4	4043	0
119	0	0	1833	4	4043	0
120	0	0	1773	4	4044	0
121	0	0	1747	5	4044	0
122	0	0	1773	5	4044	0
123	0	0	1816	4	4043	0
124	0	0	1888	5	4043	0
125	0	0	1977	5	4044	0
126	0	0	2038	5	4043	0
127	0	0	2079	5	4044	0
0	0	0	2108	5	4042	0
1	0	0	2122	4	4043	0
2	0	0	2124	5	4044	0
3	0	0	2100	4	4043	0
4	0	0	2049	5	4043	0
5	0	0	1996	3	4043	0
6	0	0	1942	4	4043	0
7	0	0	1890	4	4043	0
8	0	0	1826	4	4043	0
9	0	0	1760	4	4043	0
10	0	0	1711	4	4044	0
11	0	0	1685	4	4044	0
12	0	0	1638	4	4044	0
13	0	0	1633	5	4043	0
14	0	0	1676	5	4044	0
15	0	0	1734	6	4043	0
16	0	0	1815	5	4043	0
17	0	0	1911	5	4044	0
18	0	0	1982	5	4043	0
19	0	0	2036	5	4043	0
20	0	0	2076	5	4043	0
21	0	0	2094	5	4043	0
22	0	0	2106	5	4044	0
23	0	0	2095	4	4043	0
24	0	0	2052	4	4043	0
25	0	0	1992	4	4042	0
26	0	0	1925	4	4042	0
27	0	0	1885	4	4043	0
28	0	0	1843	4	4044	0
29	0	0	1791	4	4043	0
30	0	0	1759	4	4043	0
31	0	0	1734	4	4043	0
32	0	0	1677	3	4044	0
33	0	0	1659	5	4043	0
34	0	0	1701	4	4044	0
35	0	0	1751	6	4043	0
36	0	0	1833	5	4042	0
37	0	0	1923	5	4044	0
38	0	0	1998	5	4044	0
39	0	0	2053	5	4043	0
40	0	0	2093	5	4044	0
41	0	0	2113	5	4043	0
42	0	0	2122	5	4043	0
43	0	0	2110	4	4043	0
44	0	0	2067	4	4043	0
45	0	0	2021	4	4043	0
46	0	0	1977	4	4043	0
47	0	0	1924	4	4044	0
48	0	0	1864	4	4043	0
49	0	0	1804	4	4043	0
50	0	0	1753	4	4043	0
51	0	0	1716	4	4043	0
52	0	0	1662	4	4044	0
53	0	0	1649	5	4043	0
54	0	0	1691	5	4044	0
55	0	0	1743	5	4043	0
56	0	0	1825	5	4043	0
57	0	0	1921	5	4044	0
58	0	0	1996	5	4043	0
59	0	0	2046	5	4042	0
60	0	0	2083	4	4043	0
61	0	0	2103	5	4042	0
62	0	0	2119	5	4044	0
63	0	0	2107	4	4043	0
64	0	0	2069	4	4043	0
65	0	0	1997	4	4043	0
66	0	0	1945	4	4043	0
67	0	0	1913	4	4044	0
68	0	0	1867	4	4044	0
69	0	0	1815	4	4043	0
70	0	0	1776	4	4043	0
71	0	0	1745	4	4043	0
72	0	0	1686	4	4044	0
73	0	0	1664	4	4043	0
74	0	0	1699	5	4043	0
75	0	0	1761	5	4043	0
76	0	0	1841	5	4043	0
77	0	0	1942	5	4043	0
78	0	0	2018	5	4043	0
79	0	0	2076	5	4044	0
80	0	0	2113	5	4043	0
81	0	0	2140	5	4042	0
82	0	0	2159	5	4044	0
83	0	0	2157	4	4044	0
84	0	0	2125	4	4043	0
85	0	0	2090	4	4043	0
86	0	0	2048	3	4043	0
87	0	0	2003	4	4044	0
88	0	0	1946	4	4043	0
89	0	0	1888	4	4043	0
90	0	0	1842	4	4043	0
91	0	0	1821	4	4043	0
92	0	0	1774	4	4044	0
93	0	0	1768	5	4043	0
94	0	0	1820	5	4044	0
95	0	0	1880	6	4042	0
96	0	0	1970	5	4043	0
97	0	0	2076	5	4044	0
98	0	0	2155	4	4043	0
99	0	0	2213	5	4043	0
100	0	0	2252	4	4043	0
101	0	0	2279	4	4044	0
102	0	0	2298	5	4043	0
103	0	0	2296	5	4043	0
104	0	0	2250	3	4043	0
105	0	0	2175	4	4043	0
106	0	0	2133	4	4044	0
107	0	0	2095	4	4044	0
108	0	0	2038	4	4043	0
109	0	0	1998	4	4043	0
110	0	0	1967	4	4043	0
111	0	0	1944	4	4044	0
112	0	0	1889	4	4044	0
113	0	0	1873	5	4044	0
114	0	0	1930	5	4043	0
115	0	0	2039	4	4044	0
116	0	0	2194	5	4044	0
117	0	0	2358	5	4044	0
118	0	0	2494	5	4044	0
119	0	0	2602	5	4043	0
120	0	0	2688	5	4043	0
121	0	0	2749	4	4042	0
122	0	0	2793	5	4043	0
123	0	0	2811	5	4043	0
124	0	0	2788	5	4043	0
125	0	0	2753	6	4043	0
126	0	0	2710	4	4042	0
127	0	0	2652	4	4043	0
0	0	0	2574	4	4043	0
1	0	0	2499	4	4043	0
2	0	0	2437	5	4043	0
3	0	0	2396	4	4043	0
4	0	0	2343	4	4044	0
5	0	0	2328	5	4043	0
6	0	0	2375	5	4044	0
7	0	0	2460	5	4043	0
8	0	0	2599	4	4043	0
9	0	0	2771	5	4043	0
10	0	0	2908	5	4043	0
11	0	0	2985	5	4043	0
12	0	0	2987	6	4043	0
13	0	0	2923	4	4044	0
14	0	0	2841	4	4043	0
15	0	0	2726	4	4043	0
16	0	0	2551	4	4042	0
17	0	0	2397	6	4043	0
18	0	0	2265	4	4043	0
19	0	0	2119	4	4043	0
20	0	0	1938	4	4043	0
21	0	0	1768	4	4043	0
22	0	0	1613	5	4043	0
23	0	0	1505	4	4043	0
24	0	0	1422	4	4044	0
25	0	0	1419	5	4043	0
26	0	0	1500	5	4043	0
27	0	0	1641	6	4043	0
28	0	0	1827	4	4044	0
29	0	0	2037	5	4044	0
30	0	0	2227	5	4042	0
31	0	0	2378	5	4044	0
32	0	0	2488	5	4043	0
33	0	0	2557	4	4043	0
34	0	0	2603	5	4044	0
35	0	0	2625	5	4043	0
36	0	0	2625	5	4043	0
37	0	0	2623	5	4044	0
38	0	0	2589	4	4044	0
39	0	0	2504	4	4044	0
40	0	0	2385	4	4042	0
41	0	0	2265	5	4043	0
42	0	0	2171	6	4043	0
43	0	0	2109	4	4043	0
44	0	0	2016	4	4044	0
45	0	0	1939	4	4043	0
46	0	0	1917	4	4044	0
47	0	0	1932	5	4044	0
48	0	0	2019	5	4043	0
49	0	0	2174	5	4044	0
50	0	0	2320	5	4044	0
51	0	0	2444	5	4043	0
52	0	0	2545	4	4043	0
53	0	0	2617	5	4043	0
54	0	0	2653	5	4044	0
55	0	0	2637	3	4043	0
56	0	0	2554	4	4043	0
57	0	0	2487	4	4044	0
58	0	0	2410	4	4044	0
59	0	0	2306	4	4043	0
60	0	0	2183	4	4044	0
61	0	0	2032	4	4043	0
62	0	0	1882	4	4043	0
63	0	0	1760	4	4043	0
64	0	0	1639	4	4043	0
65	0	0	1577	4	4042	0
66	0	0	1597	5	4043	0
67	0	0	1642	5	4043	0
68	0	0	1727	5	4043	0
69	0	0	1842	5	4043	0
70	0	0	1944	5	4043	0
71	0	0	2026	5	4042	0
72	0	0	2096	5	4043	0
73	0	0	2151	5	4043	0
74	0	0	2191	5	4043	0
75	0	0	2216	5	4043	0
76	0	0	2210	5	4044	0
77	0	0	2198	4	4043	0
78	0	0	2172	4	4043	0
79	0	0	2146	4	4044	0
80	0	0	2103	4	4043	0
81	0	0	2063	4	4043	0
82	0	0	2034	4	4043	0
83	0	0	2019	4	4043	0
84	0	0	1970	4	4043	0
85	0	0	1953	5	4043	0
86	0	0	1985	5	4043	0
87	0	0	2033	5	4044	0
88	0	0	2107	4	4044	0
89	0	0	2203	5	4043	0
90	0	0	2290	5	4042	0
91	0	0	2365	5	4043	0
92	0	0	2442	5	4042	0
93	0	0	2509	5	4043	0
94	0	0	2562	5	4043	0
95	0	0	2548	4	4043	0
96	0	0	2509	4	4044	0
97	0	0	2490	4	4043	0
98	0	0	2459	4	4043	0
99	0	0	2402	4	4043	0
100	0	0	2327	4	4044	0
101	0	0	2232	4	4043	0
102	0	0	2126	4	4043	0
103	0	0	2026	4	4044	0
104	0	0	1900	4	4043	0
105	0	0	1814	4	4043	0
106	0	0	1787	4	4042	0
107	0	0	1795	5	4042	0
108	0	0	1851	4	4043	0
109	0	0	1940	5	4043	0
110	0	0	2015	5	4042	0
111	0	0	2086	5	4044	0
112	0	0	2149	5	4043	0
113	0	0	2191	5	4043	0
114	0	0	2211	5	4044	0
115	0	0	2220	5	4043	0
116	0	0	2204	4	4043	0
117	0	0	2191	5	4043	0
118	0	0	2168	4	4043	0
119	0	0	2139	4	4043	0
120	0	0	2101	4	4044	0
121	0	0	2052	4	4042	0
122	0	0	2016	4	4043	0
123	0	0	2012	4	4043	0
124	0	0	1985	4	4043	0
125	0	0	1989	5	4043	0
126	0	0	2043	5	4044	0
127	0	0	2106	5	4042	0
0	0	0	2174	3	4043	0
1	0	0	2257	5	4043	0
2	0	0	2323	5	4043	0
3	0	0	2379	5	4043	0
4	0	0	2423	5	4042	0
5	0	0	2446	5	4043	0
6	0	0	2448	5	4044	0
7	0	0	2404	4	4043	0
8	0	0	2364	4	4043	0
9	0	0	2343	5	4043	0
10	0	0	2319	4	4044	0
11	0	0	2290	5	4043	0
12	0	0	2244	4	4043	0
13	0	0	2182	4	4044	0
14	0	0	2124	4	4043	0
15	0	0	2083	3	4043	0
16	0	0	2014	4	4044	0
17	0	0	1972	4	4042	0
18	0	0	1984	5	4043	0
19	0	0	2007	5	4042	0
20	0	0	2058	5	4043	0
21	0	0	2131	5	4043	0
22	0	0	2190	5	4043	0
23	0	0	2240	5	4042	0
24	0	0	2288	5	4043	0
25	0	0	2325	5	4043	0
26	0	0	2349	5	4044	0
27	0	0	2361	5	4044	0
28	0	0	2345	4	4043	0
29	0	0	2320	4	4043	0
30	0	0	2294	5	4044	0
31	0	0	2268	4	4043	0
32	0	0	2226	4	4042	0
33	0	0	2178	4	4043	0
34	0	0	2143	4	4043	0
35	0	0	2122	5	4043	0
36	0	0	2072	4	4043	0
37	0	0	2055	5	4043	0
38	0	0	2086	5	4043	0
39	0	0	2139	5	4043	0
40	0	0	2216	5	4043	0
41	0	0	2302	5	4043	0
42	0	0	2378	5	4044	0
43	0	0	2427	5	4043	0
44	0	0	2465	5	4043	0
45	0	0	2484	4	4043	0
46	0	0	2470	4	4044	0
47	0	0	2440	4	4043	0
48	0	0	2404	4	4043	0
49	0	0	2361	4	4043	0
50	0	0	2304	4	4043	0
51	0	0	2255	4	4044	0
52	0	0	2187	4	4043	0
53	0	0	2106	4	4042	0
54	0	0	2038	4	4043	0
55	0	0	1989	4	4043	0
56	0	0	1912	4	4044	0
57	0	0	1864	5	4043	0
58	0	0	1876	5	4042	0
59	0	0	1902	5	4044	0
60	0	0	1950	5	4044	0
61	0	0	2020	5	4043	0
62	0	0	2071	5	4044	0
63	0	0	2105	5	4043	0
64	0	0	2130	5	4043	0
65	0	0	2139	5	4043	0
66	0	0	2139	5	4044	0
67	0	0	2130	3	4043	0
68	0	0	2089	4	4043	0
69	0	0	2042	4	4043	0
70	0	0	1997	4	4043	0
71	0	0	1956	4	4044	0
72	0	0	1907	4	4043	0
73	0	0	1859	4	4044	0
74	0	0	1829	4	4044	0
75	0	0	1812	5	4043	0
76	0	0	1765	4	4044	0
77	0	0	1746	5	4044	0
78	0	0	1779	5	4043	0
79	0	0	1831	5	4043	0
80	0	0	1908	5	4043	0
81	0	0	2005	5	4044	0
82	0	0	2077	5	4043	0
83	0	0	2127	5	4043	0
84	0	0	2165	5	4043	0
85	0	0	2182	5	4043	0
86	0	0	2162	4	4044	0
87	0	0	2147	5	4043	0
88	0	0	2119	4	4043	0
89	0	0	2079	4	4043	0
90	0	0	2027	4	4043	0
91	0	0	1965	4	4044	0
92	0	0	1890	4	4043	0
93	0	0	1823	4	4044	0
94	0	0	1773	4	4044	0
95	0	0	1739	4	4044	0
96	0	0	1682	4	4044	0
97	0	0	1651	4	4043	0
98	0	0	1675	5	4043	0
99	0	0	1721	5	4044	0
100	0	0	1796	5	4044	0
101	0	0	1886	5	4044	0
102	0	0	1951	5	4043	0
103	0	0	1990	5	4043	0
104	0	0	2019	5	4043	0
105	0	0	2031	5	4044	0
106	0	0	2032	5	4044	0
107	0	0	2013	4	4045	0
108	0	0	1970	4	4043	0
109	0	0	1924	4	4044	0
110	0	0	1881	4	4044	0
111	0	0	1844	4	4044	0
112	0	0	1799	4	4043	0
113	0	0	1753	4	4043	0
114	0	0	1717	4	4043	0
115	0	0	1715	5	4043	0
116	0	0	1693	4	4044	0
117	0	0	1698	5	4044	0
118	0	0	1757	5	4045	0
119	0	0	1811	5	4043	0
120	0	0	1881	5	4043	0
121	0	0	1979	4	4044	0
122	0	0	2050	5	4043	0
123	0	0	2103	5	4043	0
124	0	0	2148	5	4044	0
125	0	0	2162	4	4044	0
126	0	0	2155	4	4044	0
127	0	0	2146	5	4043	0
0	0	0	2103	4	4044	0
1	0	0	2027	4	4043	0
2	0	0	1955	4	4044	0
3	0	0	1889	3	4044	0
4	0	0	1819	4	4045	0
5	0	0	1757	4	4043	0
6	0	0	1714	4	4044	0
7	0	0	1682	4	4045	0
8	0	0	1622	4	4044	0
9	0	0	1588	5	4043	0
10	0	0	1608	5	4043	0
11	0	0	1650	5	4043	0
12	0	0	1720	5	4044	0
13	0	0	1812	5	4044	0
14	0	0	1888	5	4043	0
15	0	0	1940	5	4043	0
16	0	0	1978	5	4043	0
17	0	0	1995	4	4044	0
18	0	0	2003	5	4044	0
19	0	0	1989	4	4043	0
20	0	0	1944	4	4045	0
21	0	0	1896	5	4044	0
22	0	0	1838	4	4044	0
23	0	0	1771	4	4044	0
24	0	0	1693	4	4043	0
25	0	0	1622	4	4043	0
26	0	0	1574	4	4044	0
27	0	0	1561	4	4045	0
28	0	0	1530	4	4044	0
29	0	0	1531	5	4043	0
30	0	0	1593	5	4043	0
31	0	0	1679	5	4043	0
32	0	0	1787	5	4044	0
33	0	0	1922	5	4045	0
34	0	0	2045	5	4043	0
35	0	0	2159	5	4043	0
36	0	0	2248	5	4043	0
37	0	0	2275	5	4044	0
38	0	0	2291	5	4044	0
39	0	0	2299	5	4045	0
40	0	0	2269	5	4043	0
41	0	0	2236	4	4043	0
42	0	0	2207	4	4044	0
43	0	0	2180	4	4044	0
44	0	0	2152	4	4043	0
45	0	0	2127	4	4043	0
46	0	0	2113	4	4043	0
47	0	0	2102	5	4044	0
48	0	0	2038	4	4044	0
49	0	0	1981	5	4043	0
50	0	0	1966	5	4043	0
51	0	0	1950	4	4043	0
52	0	0	1953	5	4044	0
53	0	0	1993	5	4045	0
54	0	0	2027	5	4043	0
55	0	0	2032	5	4045	0
56	0	0	2000	4	4044	0
57	0	0	1952	4	4044	0
58	0	0	1905	4	4044	0
59	0	0	1858	4	4043	0
60	0	0	1787	4	4044	0
61	0	0	1721	4	4044	0
62	0	0	1680	3	4044	0
63	0	0	1663	4	4044	0
64	0	0	1674	5	4043	0
65	0	0	1718	5	4043	0
66	0	0	1796	5	4044	0
67	0	0	1902	4	4044	0
68	0	0	1986	4	4044	0
69	0	0	2080	4	4045	0
70	0	0	2222	5	4043	0
71	0	0	2373	5	4044	0
72	0	0	2520	5	4045	1
73	0	0	2659	5	4044	0
74	0	0	2761	5	4043	0
75	0	0	2818	5	4043	0
76	0	0	2851	5	4043	0
77	0	0	2876	5	4044	0
78	0	0	2930	5	4044	0
79	0	0	2977	5	4043	0
80	0	0	2982	5	4044	0
81	0	0	2978	5	4044	0
82	0	0	2963	5	4044	0
83	0	0	2938	5	4044	0
84	0	0	2905	5	4044	0
85	0	0	2885	5	4045	0
86	0	0	2886	7	4044	0
87	0	0	2917	6	4044	0
88	0	0	2935	5	4044	0
89	0	0	2986	5	4045	0
90	0	0	3091	5	4043	0
91	0	0	3219	5	4044	0
92	0	0	3377	5	4044	0
93	0	0	3553	5	4044	0
94	0	0	3700	5	4043	0
95	0	0	3815	5	4043	0
96	0	0	3893	5	4044	0
97	0	0	3930	6	4044	0
98	0	0	3939	5	4045	0
99	0	0	3909	5	4044	0
100	0	0	3837	4	4044	0
101	0	0	3753	4	4044	0
102	0	0	3665	5	4045	0
103	0	0	3596	4	4044	0
104	0	0	3541	5	4043	0
105	0	0	3496	5	4044	0
106	0	0	3467	5	4044	0
107	0	0	3459	6	4044	0
108	0	0	3410	4	4044	0
109	0	0	3377	5	4043	0
110	0	0	3393	5	4043	0
111	0	0	3429	5	4044	0
112	0	0	3490	5	4044	0
113	0	0	3577	5	4044	0
114	0	0	3642	5	4043	0
115	0	0	3683	5	4043	0
116	0	0	3691	5	4044	0
117	0	0	3712	5	4044	0
118	0	0	3733	5	4045	0
119	0	0	3732	5	4043	0
120	0	0	3686	5	4045	0
121	0	0	3623	4	4044	0
122	0	0	3547	6	4044	0
123	0	0	3466	4	4045	0
124	0	0	3368	4	4044	0
125	0	0	3274	4	4045	0
126	0	0	3197	6	4044	0
127	0	0	3137	5	4044	0
0	0	0	3057	4	4044	0
1	0	0	3005	5	4043	0
2	0	0	3009	5	4044	0
3	0	0	3027	5	4044	0
4	0	0	3067	4	4043	0
5	0	0	3126	5	4045	0
6	0	0	3163	5	4043	0
7	0	0	3171	5	4044	0
8	0	0	3165	5	4044	0
9	0	0	3152	5	4045	0
10	0	0	3131	5	4044	0
11	0	0	3101	5	4044	0
12	0	0	3049	4	4043	0
13	0	0	2992	4	4044	0
14	0	0	2940	5	4044	0
15	0	0	2886	4	4045	0
16	0	0	2824	4	4043	0
17	0	0	2768	4	4045	0
18	0	0	2716	4	4044	0
19	0	0	2669	6	4044	0
20	0	0	2584	4	4044	0
21	0	0	2528	4	4045	0
22	0	0	2529	5	4043	0
23	0	0	2553	5	4043	0
24	0	0	2607	5	4044	0
25	0	0	2690	5	4044	0
26	0	0	2756	5	4043	0
27	0	0	2787	5	4044	0
28	0	0	2796	5	4043	0
29	0	0	2808	4	4043	0
30	0	0	2815	5	4044	0
31	0	0	2787	4	4043	0
32	0	0	2737	4	4044	0
33	0	0	2675	5	4043	0
34	0	0	2609	5	4043	0
35	0	0	2540	4	4044	0
36	0	0	2467	4	4044	0
37	0	0	2398	4	4045	0
38	0	0	2340	4	4044	0
39	0	0	2296	5	4044	0
40	0	0	2233	4	4045	0
41	0	0	2185	5	4043	0
42	0	0	2193	5	4044	0
43	0	0	2224	5	4044	0
44	0	0	2275	6	4044	0
45	0	0	2352	4	4044	0
46	0	0	2408	5	4043	0
47	0	0	2436	4	4045	0
48	0	0	2438	5	4044	0
49	0	0	2423	5	4044	0
50	0	0	2411	4	4044	0
51	0	0	2385	4	4043	0
52	0	0	2326	4	4043	0
53	0	0	2255	4	4044	0
54	0	0	2187	3	4043	0
55	0	0	2119	4	4044	0
56	0	0	2052	4	4045	0
57	0	0	1976	5	4043	0
58	0	0	1911	4	4043	0
59	0	0	1867	4	4044	0
60	0	0	1809	4	4044	0
61	0	0	1765	4	4043	0
62	0	0	1773	5	4043	0
63	0	0	1808	5	4043	0
64	0	0	1866	5	4044	0
65	0	0	1948	5	4044	0
66	0	0	2007	5	4043	0
67	0	0	2013	5	4043	0
68	0	0	2020	5	4043	0
69	0	0	2042	5	4043	0
70	0	0	2072	5	4045	0
71	0	0	2071	5	4043	0
72	0	0	2033	4	4043	0
73	0	0	1966	4	4043	0
74	0	0	1886	4	4044	0
75	0	0	1814	4	4044	0
76	0	0	1744	4	4043	0
77	0	0	1684	4	4043	0
78	0	0	1638	4	4043	0
79	0	0	1602	5	4043	0
80	0	0	1548	4	4044	0
81	0	0	1512	4	4043	0
82	0	0	1533	5	4043	0
83	0	0	1574	4	4043	0
84	0	0	1637	5	4042	0
85	0	0	1737	4	4043	0
86	0	0	1818	5	4043	0
87	0	0	1874	5	4042	0
88	0	0	1905	4	4043	0
89	0	0	1920	5	4043	0
90	0	0	1924	4	4043	0
91	0	0	1910	5	4043	0
92	0	0	1867	4	4043	0
93	0	0	1811	4	4043	0
94	0	0	1757	5	4042	0
95	0	0	1697	4	4044	0
96	0	0	1632	4	4044	0
97	0	0	1557	4	4044	0
98	0	0	1498	4	4044	0
99	0	0	1457	5	4043	0
100	0	0	1403	4	4044	0
101	0	0	1370	4	4043	0
102	0	0	1407	5	4043	0
103	0	0	1461	5	4043	0
104	0	0	1542	5	4044	0
105	0	0	1641	4	4043	0
106	0	0	1702	5	4044	0
107	0	0	1738	5	4042	0
108	0	0	1786	5	4042	0
109	0	0	1807	5	4042	0
110	0	0	1828	5	4044	0
111	0	0	1843	5	4041	0
112	0	0	1816	4	4042	0
113	0	0	1769	4	4042	0
114	0	0	1710	4	4043	0
115	0	0	1646	4	4043	0
116	0	0	1585	4	4042	0
117	0	0	1532	4	4042	0
118	0	0	1492	4	4042	0
119	0	0	1476	5	4042	0
120	0	0	1441	4	4043	0
121	0	0	1418	4	4044	0
122	0	0	1456	5	4041	0
123	0	0	1519	5	4042	0
124	0	0	1601	5	4042	0
125	0	0	1709	5	4043	0
126	0	0	1796	5	4041	0
127	0	0	1861	6	4042	0
0	0	0	1917	5	4042	0
1	0	0	1958	5	4042	0
2	0	0	1980	5	4043	0
3	0	0	1991	5	4041	0
4	0	0	1972	4	4041	0
5	0	0	1947	4	4041	0
6	0	0	1922	4	4041	0
7	0	0	1896	4	4042	0
8	0	0	1857	4	4041	0
9	0	0	1811	4	4041	0
10	0	0	1778	4	4042	0
11	0	0	1772	5	4043	0
12	0	0	1743	4	4042	0
13	0	0	1741	5	4043	0
14	0	0	1804	5	4041	0
15	0	0	1884	5	4041	0
16	0	0	1977	5	4041	0
17	0	0	2099	5	4042	0
18	0	0	2177	5	4041	0
19	0	0	2253	5	4041	0
20	0	0	2327	5	4041	0
21	0	0	2391	5	4040	0
22	0	0	2433	5	4042	0
23	0	0	2466	5	4041	0
24	0	0	2466	5	4041	0
25	0	0	2449	5	4041	0
26	0	0	2424	5	4041	0
27	0	0	2388	4	4041	0
28	0	0	2338	4	4040	0
29	0	0	2288	3	4042	0
30	0	0	2243	4	4042	0
31	0	0	2208	4	4040	0
32	0	0	2154	4	4042	0
33	0	0	2129	5	4040	0
34	0	0	2161	5	4040	0
35	0	0	2215	5	4041	0
36	0	0	2278	5	4040	0
37	0	0	2370	5	4041	0
38	0	0	2447	5	4040	0
39	0	0	2494	5	4040	0
40	0	0	2525	5	4040	0
41	0	0	2548	5	4042	0
42	0	0	2557	5	4041	0
43	0	0	2553	5	4040	0
44	0	0	2509	4	4040	0
45	0	0	2446	4	4040	0
46	0	0	2386	4	4040	0
47	0	0	2318	4	4041	0
48	0	0	2248	4	4040	0
49	0	0	2182	5	4040	0
50	0	0	2129	4	4040	0
51	0	0	2102	4	4040	0
52	0	0	2054	4	4040	0
53	0	0	2013	4	4039	0
54	0	0	2033	5	4040	0
55	0	0	2081	5	4039	0
56	0	0	2133	5	4039	0
57	0	0	2197	5	4040	0
58	0	0	2238	5	4041	0
59	0	0	2285	5	4039	0
60	0	0	2316	5	4039	0
61	0	0	2314	4	4039	0
62	0	0	2286	5	4041	0
63	0	0	2229	4	4039	0
64	0	0	2136	4	4039	0
65	0	0	2029	4	4039	0
66	0	0	1921	4	4039	0
67	0	0	1815	3	4030	0
68	0	0	1716	4	4025	0
69	0	0	1620	4	4021	0
70	0	0	1547	4	4018	0
71	0	0	1501	5	4014	0
72	0	0	1448	4	4012	0
73	0	0	1424	4	4006	0
74	0	0	1466	5	4003	0
75	0	0	1518	5	4000	0
76	0	0	1591	5	3998	0
77	0	0	1691	4	3993	0
78	0	0	1773	5	3990	0
79	0	0	1825	5	3984	0
80	0	0	1850	5	3980	0
81	0	0	1858	5	3977	0
82	0	0	1858	5	3974	0
83	0	0	1850	5	3970	0
84	0	0	1810	4	3967	0
85	0	0	1753	4	3963	0
86	0	0	1693	4	3959	0
87	0	0	1633	3	3957	0
88	0	0	1571	4	3952	0
89	0	0	1503	3	3950	0
90	0	0	1438	4	3946	0
91	0	0	1379	4	3941	0
92	0	0	1309	4	3937	0
93	0	0	1249	4	3935	0
94	0	0	1237	4	3929	0
95	0	0	1258	5	3924	0
96	0	0	1294	5	3921	0
97	0	0	1336	5	3918	0
98	0	0	1414	5	3912	0
99	0	0	1496	5	3910	0
100	0	0	1562	5	3905	0
101	0	0	1608	6	3901	0
102	0	0	1646	4	3899	0
103	0	0	1656	4	3894	0
104	0	0	1625	4	3891	0
105	0	0	1585	4	3888	0
106	0	0	1557	5	3883	0
107	0	0	1513	5	3880	0
108	0	0	1457	4	3877	0
109	0	0	1412	3	3876	0
110	0	0	1386	4	3870	0
111	0	0	1381	4	3867	0
112	0	0	1365	4	3864	0
113	0	0	1359	5	3858	0
114	0	0	1416	5	3854	0
115	0	0	1493	5	3849	0
116	0	0	1577	5	3847	0
117	0	0	1686	4	3844	0
118	0	0	1774	5	3839	0
119	0	0	1846	5	3834	0
120	0	0	1910	5	3830	0
121	0	0	1963	5	3826	0
122	0	0	2000	4	3823	0
123	0	0	2019	5	3820	0
124	0	0	1996	5	3815	0
125	0	0	1965	4	3812	0
126	0	0	1937	4	3809	0
127	0	0	1901	4	3808	0
0	0	0	1864	4	3803	0
1	0	0	1828	3	3801	0
2	0	0	1806	4	3797	0
3	0	0	1811	5	3792	0
4	0	0	1808	5	3790	0
5	0	0	1818	5	3787	0
6	0	0	1882	5	3782	0
7	0	0	1972	5	3777	0
8	0	0	2061	5	3774	0
9	0	0	2156	4	3774	0
10	0	0	2265	5	3768	0
11	0	0	2361	4	3765	0
12	0	0	2428	5	3762	0
13	0	0	2483	5	3759	0
14	0	0	2519	6	3757	0
15	0	0	2539	5	3751	0
16	0	0	2521	4	3748	0
17	0	0	2488	5	3746	0
18	0	0	2456	4	3744	0
19	0	0	2419	4	3744	0
20	0	0	2365	4	3737	0
21	0	0	2306	3	3737	0
22	0	0	2265	4	3734	0
23	0	0	2233	4	3730	0
24	0	0	2182	4	3727	0
25	0	0	2145	4	3724	0
26	0	0	2177	4	3720	0
27	0	0	2237	5	3719	0
28	0	0	2314	5	3715	0
29	0	0	2416	5	3714	0
30	0	0	2509	5	3709	0
31	0	0	2576	4	3707	0
32	0	0	2632	5	3705	0
33	0	0	2669	5	3702	0
34	0	0	2693	5	3700	0
35	0	0	2697	5	3696	0
36	0	0	2661	4	3693	0
37	0	0	2609	4	3690	0
38	0	0	2552	4	3687	0
39	0	0	2485	4	3686	0
40	0	0	2402	4	3684	0
41	0	0	2307	3	3679	0
42	0	0	2221	4	3678	0
43	0	0	2156	4	3676	0
44	0	0	2086	4	3672	0
45	0	0	2033	4	3669	0
46	0	0	2053	4	3667	0
47	0	0	2096	5	3665	0
48	0	0	2132	5	3660	0
49	0	0	2225	5	3660	0
50	0	0	2320	5	3655	0
51	0	0	2386	4	3655	0
52	0	0	2433	6	3651	0
53	0	0	2466	5	3647	0
54	0	0	2472	6	3647	0
55	0	0	2466	4	3644	0
56	0	0	2416	4	3640	0
57	0	0	2356	4	3639	0
58	0	0	2300	4	3637	0
59	0	0	2240	4	3635	0
60	0	0	2170	4	3630	0
61	0	0	2097	3	3629	0
62	0	0	2039	5	3628	0
63	0	0	2000	4	3625	0
64	0	0	1951	4	3623	0
65	0	0	1917	5	3619	0
66	0	0	1956	5	3618	0
67	0	0	2032	5	3615	0
68	0	0	2116	5	3611	0
69	0	0	2226	5	3612	0
70	0	0	2312	5	3608	0
71	0	0	2367	4	3608	0
72	0	0	2401	5	3603	0
73	0	0	2417	6	3604	0
74	0	0	2408	5	3601	0
75	0	0	2371	4	3600	0
76	0	0	2296	4	3596	0
77	0	0	2205	4	3593	0
78	0	0	2144	4	3591	0
79	0	0	2108	4	3591	0
80	0	0	2072	4	3588	0
81	0	0	2025	4	3589	0
82	0	0	1992	4	3588	0
83	0	0	1981	5	3585	0
84	0	0	1963	4	3582	0
85	0	0	1970	5	3584	0
86	0	0	2035	5	3580	0
87	0	0	2094	5	3579	0
88	0	0	2143	5	3575	0
89	0	0	2247	5	3576	0
90	0	0	2342	5	3574	0
91	0	0	2406	5	3574	0
92	0	0	2453	5	3575	0
93	0	0	2477	5	3573	0
94	0	0	2483	5	3575	0
95	0	0	2480	5	3572	0
96	0	0	2441	4	3573	0
97	0	0	2402	4	3573	0
98	0	0	2365	4	3572	0
99	0	0	2323	4	3573	0
100	0	0	2269	4	3573	0
101	0	0	2215	4	3573	0
102	0	0	2171	4	3573	0
103	0	0	2153	5	3572	0
104	0	0	2121	4	3575	0
105	0	0	2094	5	3575	0
106	0	0	2130	5	3574	0
107	0	0	2202	5	3575	0
108	0	0	2316	5	3576	0
109	0	0	2459	5	3578	0
110	0	0	2574	5	3577	0
111	0	0	2664	4	3580	0
112	0	0	2741	5	3581	0
113	0	0	2791	5	3582	0
114	0	0	2815	4	3586	0
115	0	0	2813	5	3589	0
116	0	0	2768	4	3595	1
117	0	0	2705	3	3598	0
118	0	0	2649	4	3604	0
119	0	0	2589	3	3609	0
120	0	0	2523	4	3613	0
121	0	0	2457	4	3618	0
122	0	0	2404	4	3623	0
123	0	0	2371	4	3631	0
124	0	0	2320	3	3636	0
125	0	0	2287	5	3642	0
126	0	0	2314	5	3650	0
127	0	0	2342	5	3658	0
0	0	0	2395	5	3664	0
1	0	0	2500	5	3674	0
2	0	0	2588	5	3683	0
3	0	0	2646	5	3695	0
4	0	0	2693	5	3706	0
5	0	0	2719	5	3717	0
6	0	0	2731	4	3731	0
7	0	0	2739	5	3745	0
8	0	0	2706	5	3757	0
9	0	0	2660	5	3768	0
10	0	0	2612	4	3781	0
11	0	0	2553	4	3794	0
12	0	0	2483	4	3811	0
13	0	0	2406	4	3829	0
14	0	0	2324	4	3850	0
15	0	0	2248	4	3873	0
16	0	0	2158	4	3898	0
17	0	0	2065	4	3922	0
18	0	0	2041	5	3948	0
19	0	0	2059	5	3975	0
20	0	0	2103	5	4003	0
21	0	0	2188	4	4031	0
22	0	0	2264	5	4039	0
23	0	0	2315	5	4040	0
24	0	0	2343	5	4040	0
25	0	0	2357	5	4040	0
26	0	0	2357	5	4041	0
27	0	0	2334	4	4042	0
28	0	0	2284	4	4040	0
29	0	0	2233	4	4042	0
30	0	0	2187	4	4042	0
31	0	0	2133	4	4042	0
32	0	0	2072	4	4041	0
33	0	0	2004	5	4042	0
34	0	0	1952	4	4042	0
35	0	0	1929	5	4042	0
36	0	0	1902	4	4042	0
37	0	0	1884	4	4042	0
38	0	0	1908	5	4042	0
39	0	0	1939	5	4042	0
40	0	0	2010	5	4043	0
41	0	0	2112	4	4043	0
42	0	0	2194	4	4042	0
43	0	0	2254	5	4043	0
44	0	0	2287	4	4043	0
45	0	0	2302	5	4043	0
46	0	0	2307	4	4044	0
47	0	0	2300	4	4042	0
48	0	0	2257	4	4043	0
49	0	0	2197	4	4043	0
50	0	0	2139	4	4043	0
51	0	0	2070	3	4044	0
52	0	0	1990	4	4045	0
53	0	0	1901	4	4043	0
54	0	0	1821	4	4043	0
55	0	0	1753	4	4044	0
56	0	0	1675	2	4044	0
57	0	0	1605	4	4044	0
58	0	0	1598	5	4043	0
59	0	0	1622	4	4043	0
60	0	0	1671	5	4044	0
61	0	0	1755	5	4044	0
62	0	0	1824	5	4043	0
63	0	0	1873	5	4043	0
64	0	0	1909	5	4044	0
65	0	0	1930	5	4045	0
66	0	0	1928	4	4044	0
67	0	0	1910	4	4043	0
68	0	0	1853	4	4043	0
69	0	0	1780	4	4043	0
70	0	0	1719	4	4044	0
71	0	0	1655	4	4044	0
72	0	0	1581	4	4043	0
73	0	0	1510	4	4043	0
74	0	0	1452	4	4043	0
75	0	0	1405	4	4043	0
76	0	0	1349	3	4044	0
77	0	0	1290	4	4043	0
78	0	0	1268	4	4043	0
79	0	0	1302	5	4044	0
80	0	0	1375	5	4045	0
81	0	0	1479	4	4044	0
82	0	0	1555	5	4043	0
83	0	0	1610	5	4043	0
84	0	0	1636	5	4043	0
85	0	0	1644	5	4044	0
86	0	0	1649	3	4044	0
87	0	0	1644	4	4043	0
88	0	0	1617	4	4043	0
89	0	0	1580	4	4043	0
90	0	0	1560	4	4043	0
91	0	0	1528	4	4044	0
92	0	0	1486	4	4045	0
93	0	0	1434	4	4043	0
94	0	0	1393	4	4044	0
95	0	0	1358	4	4045	0
96	0	0	1313	3	4044	0
97	0	0	1267	4	4043	0
98	0	0	1267	6	4043	0
99	0	0	1284	5	4043	0
100	0	0	1317	5	4044	0
101	0	0	1395	3	4044	0
102	0	0	1465	5	4043	0
103	0	0	1514	5	4045	0
104	0	0	1551	5	4044	0
105	0	0	1577	4	4043	0
106	0	0	1593	3	4044	0
107	0	0	1588	4	4043	0
108	0	0	1556	4	4043	0
109	0	0	1535	4	4044	0
110	0	0	1532	4	4043	0
111	0	0	1524	3	4044	0
112	0	0	1506	4	4043	0
113	0	0	1472	4	4043	0
114	0	0	1433	4	4043	0
115	0	0	1394	4	4043	0
116	0	0	1329	3	4044	0
117	0	0	1253	4	4045	0
118	0	0	1238	5	4043	0
119	0	0	1280	5	4044	0
120	0	0	1356	5	4045	0
121	0	0	1453	3	4044	0
122	0	0	1533	5	4043	0
123	0	0	1586	6	4043	0
124	0	0	1618	4	4043	0
125	0	0	1642	5	4044	0
126	0	0	1655	4	4044	0
127	0	0	1663	5	4044	0
0	0	0	1650	4	4045	0
1	0	0	1631	4	4045	0
2	0	0	1615	4	4043	0
3	0	0	1588	4	4044	0
4	0	0	1563	4	4043	0
5	0	0	1526	4	4043	0
6	0	0	1506	4	4044	0
7	0	0	1502	5	4044	0
8	0	0	1480	4	4044	0
9	0	0	1455	4	4043	0
10	0	0	1490	5	4045	0
11	0	0	1561	5	4045	0
12	0	0	1640	5	4043	0
13	0	0	1753	5	4045	0
14	0	0	1842	5	4043	0
15	0	0	1899	4	4044	0
16	0	0	1937	5	4043	0
17	0	0	1962	5	4044	0
18	0	0	1968	5	4044	0
19	0	0	1956	4	4043	0
20	0	0	1907	4	4043	0
21	0	0	1846	4	4043	0
22	0	0	1795	4	4044	0
23	0	0	1745	4	4044	0
24	0	0	1694	4	4043	0
25	0	0	1644	4	4043	0
26	0	0	1608	4	4044	0
27	0	0	1596	4	4045	0
28	0	0	1574	4	4044	0
29	0	0	1537	4	4045	0
30	0	0	1588	5	4043	0
31	0	0	1683	5	4043	0
32	0	0	1786	5	4043	0
33	0	0	1912	4	4044	0
34	0	0	2024	5	4043	0
35	0	0	2097	5	4043	0
36	0	0	2150	5	4043	0
37	0	0	2191	5	4043	0
38	0	0	2209	5	4044	0
39	0	0	2221	5	4043	0
40	0	0	2189	4	4043	0
41	0	0	2135	4	4043	0
42	0	0	2076	4	4044	0
43	0	0	2010	4	4045	0
44	0	0	1935	4	4043	0
45	0	0	1850	4	4045	0
46	0	0	1781	4	4044	0
47	0	0	1734	4	4043	0
48	0	0	1691	4	4044	0
49	0	0	1646	4	4043	0
50	0	0	1673	5	4043	0
51	0	0	1742	5	4044	0
52	0	0	1824	5	4044	0
53	0	0	1945	5	4044	0
54	0	0	2057	5	4043	0
55	0	0	2137	5	4043	0
56	0	0	2192	5	4043	0
57	0	0	2214	5	4043	0
58	0	0	2207	5	4045	0
59	0	0	2184	4	4043	0
60	0	0	2129	4	4045	0
61	0	0	2056	4	4044	0
62	0	0	1991	4	4044	0
63	0	0	1924	4	4044	0
64	0	0	1860	4	4043	0
65	0	0	1796	4	4043	0
66	0	0	1741	4	4043	0
67	0	0	1704	4	4044	0
68	0	0	1647	4	4044	0
69	0	0	1574	4	4043	0
70	0	0	1573	5	4043	0
71	0	0	1600	5	4043	0
72	0	0	1631	5	4044	0
73	0	0	1700	5	4044	0
74	0	0	1758	5	4045	0
75	0	0	1786	4	4043	0
76	0	0	1805	5	4043	0
77	0	0	1829	4	4044	0
78	0	0	1849	5	4044	0
79	0	0	1870	5	4043	0
80	0	0	1868	5	4043	0
81	0	0	1862	4	4043	0
82	0	0	1863	5	4044	0
83	0	0	1848	4	4045	0
84	0	0	1819	4	4043	0
85	0	0	1785	3	4044	0
86	0	0	1748	4	4043	0
87	0	0	1702	4	4044	0
88	0	0	1623	4	4044	0
89	0	0	1522	4	4043	0
90	0	0	1463	4	4043	0
91	0	0	1438	4	4043	0
92	0	0	1438	5	4044	0
93	0	0	1482	5	4044	0
94	0	0	1521	5	4043	0
95	0	0	1544	5	4043	0
96	0	0	1563	4	4044	0
97	0	0	1578	5	4043	0
98	0	0	1586	5	4044	0
99	0	0	1593	4	4043	0
100	0	0	1571	4	4043	0
101	0	0	1539	4	4044	0
102	0	0	1519	4	4044	0
103	0	0	1509	4	4044	0
104	0	0	1500	4	4043	0
105	0	0	1481	4	4043	0
106	0	0	1455	3	4044	0
107	0	0	1435	4	4044	0
108	0	0	1384	4	4044	0
109	0	0	1336	4	4045	0
110	0	0	1361	5	4044	0
111	0	0	1409	5	4044	0
112	0	0	1459	5	4044	0
113	0	0	1537	5	4045	0
114	0	0	1587	5	4043	0
115	0	0	1601	5	4043	0
116	0	0	1594	4	4043	0
117	0	0	1576	4	4043	0
118	0	0	1549	4	4044	0
119	0	0	1523	4	4043	0
120	0	0	1482	4	4043	0
121	0	0	1435	3	4044	0
122	0	0	1410	4	4044	0
123	0	0	1387	4	4044	0
124	0	0	1356	4	4043	0
125	0	0	1316	4	4044	0
126	0	0	1286	4	4044	0
127	0	0	1276	4	4044	0
0	0	0	1258	4	4045	0
1	0	0	1243	5	4043	0
2	0	0	1301	5	4043	0
3	0	0	1396	6	4043	0
4	0	0	1493	5	4044	0
5	0	0	1603	5	4044	0
6	0	0	1687	5	4043	0
7	0	0	1734	5	4043	0
8	0	0	1756	4	4044	0
9	0	0	1752	4	4044	0
10	0	0	1727	4	4044	0
11	0	0	1692	4	4044	0
12	0	0	1628	4	4043	0
13	0	0	1553	4	4044	0
14	0	0	1491	4	4044	0
15	0	0	1430	4	4043	0
16	0	0	1375	4	4043	0
17	0	0	1319	4	4043	0
18	0	0	1266	3	4044	0
19	0	0	1226	4	4044	0
20	0	0	1190	4	4044	0
21	0	0	1170	4	4043	0
22	0	0	1223	5	4043	0
23	0	0	1303	4	4044	0
24	0	0	1400	4	4043	0
25	0	0	1520	5	4044	0
26	0	0	1622	5	4043	0
27	0	0	1699	5	4044	0
28	0	0	1755	5	4044	0
29	0	0	1794	4	4044	0
30	0	0	1820	5	4044	0
31	0	0	1829	5	4044	0
32	0	0	1801	4	4043	0
33	0	0	1753	5	4043	0
34	0	0	1710	4	4044	0
35	0	0	1655	4	4044	0
36	0	0	1592	4	4043	0
37	0	0	1520	4	4043	0
38	0	0	1460	3	4044	0
39	0	0	1424	4	4044	0
40	0	0	1389	4	4044	0
41	0	0	1351	4	4045	0
42	0	0	1380	6	4044	0
43	0	0	1433	5	4043	0
44	0	0	1498	5	4044	0
45	0	0	1597	5	4044	0
46	0	0	1672	5	4043	0
47	0	0	1725	5	4045	0
48	0	0	1767	5	4044	0
49	0	0	1804	5	4044	0
50	0	0	1838	5	4044	0
51	0	0	1866	5	4044	0
52	0	0	1868	5	4043	0
53	0	0	1854	5	4043	0
54	0	0	1849	4	4044	0
55	0	0	1822	4	4044	0
56	0	0	1776	4	4043	0
57	0	0	1725	4	4043	0
58	0	0	1691	4	4044	0
59	0	0	1643	4	4044	0
60	0	0	1619	4	4044	0
61	0	0	1610	5	4045	0
62	0	0	1651	5	4043	0
63	0	0	1706	5	4044	0
64	0	0	1765	5	4045	0
65	0	0	1831	5	4044	0
66	0	0	1874	5	4043	0
67	0	0	1886	5	4043	0
68	0	0	1872	4	4044	0
69	0	0	1830	4	4044	0
70	0	0	1779	4	4043	0
71	0	0	1727	4	4045	0
72	0	0	1664	4	4043	0
73	0	0	1633	4	4043	0
74	0	0	1614	4	4044	0
75	0	0	1592	4	4044	0
76	0	0	1585	5	4043	0
77	0	0	1606	5	4043	0
78	0	0	1658	4	4043	0
79	0	0	1706	5	4044	0
80	0	0	1698	4	4045	0
81	0	0	1728	5	4043	0
82	0	0	1801	5	4043	0
83	0	0	1792	5	4044	0
84	0	0	1743	4	4043	0
85	0	0	1650	4	4044	0
86	0	0	1470	4	4043	0
87	0	0	1340	4	4043	0
88	0	0	1274	4	4044	0
89	0	0	1257	5	4045	0
90	0	0	1304	5	4044	0
91	0	0	1381	5	4043	0
92	0	0	1313	4	4044	0
93	0	0	1230	3	4043	0
94	0	0	1098	4	4044	0
95	0	0	977	4	4044	0
96	0	0	968	5	4043	0
97	0	0	1100	5	4044	0
98	0	0	1359	5	4043	0
99	0	0	1690	4	4044	0
100	0	0	1983	5	4044	0
101	0	0	2332	5	4043	0
102	0	0	2849	5	4043	0
103	0	0	3231	5	4043	0
104	0	0	3414	5	4043	0
105	0	0	3486	4	4044	0
106	0	0	3274	4	4045	0
107	0	0	2912	4	4043	0
108	0	0	2545	4	4044	0
109	0	0	2198	4	4044	0
110	0	0	1881	4	4045	0
111	0	0	1632	4	4043	0
112	0	0	1337	4	4044	0
113	0	0	1134	4	4043	0
114	0	0	1085	4	4043	0
115	0	0	1109	5	4044	0
116	0	0	1207	5	4043	0
117	0	0	1359	4	4043	0
118	0	0	1581	5	4043	0
119	0	0	1827	5	4043	0
120	0	0	1989	5	4044	0
121	0	0	2131	5	4043	0
122	0	0	2488	5	4043	0
123	0	0	2786	5	4044	0
124	0	0	2944	5	4045	0
125	0	0	3086	5	4044	0
126	0	0	3023	4	4045	0
127	0	0	2808	4	4043	0
0	0	0	2574	4	4043	0
1	0	0	2355	4	4044	0
2	0	0	2156	4	4044	0
3	0	0	2008	5	4044	0
4	0	0	1755	4	4043	0
5	0	0	1521	3	4044	0
6	0	0	1403	4	4044	0
7	0	0	1308	4	4044	0
8	0	0	1244	4	4043	0
9	0	0	1208	4	4045	0
10	0	0	1243	5	4044	0
11	0	0	1362	5	4044	0
12	0	0	1417	4	4044	0
13	0	0	1405	5	4045	0
14	0	0	1742	5	4043	0
15	0	0	2110	5	4043	0
16	0	0	2380	5	4044	0
17	0	0	2724	5	4044	0
18	0	0	2888	4	4043	0
19	0	0	2855	4	4043	0
20	0	0	2747	4	4043	0
21	0	0	2628	4	4044	0
22	0	0	2499	4	4044	0
23	0	0	2417	5	4043	0
24	0	0	2162	4	4043	0
25	0	0	1855	4	4044	0
26	0	0	1642	4	4044	0
27	0	0	1415	4	4044	0
28	0	0	1189	4	4043	0
29	0	0	977	3	4045	0
30	0	0	872	4	4044	0
31	0	0	867	5	4044	0
32	0	0	813	4	4044	0
33	0	0	693	4	4043	0
34	0	0	1026	5	4043	0
35	0	0	1472	5	4044	0
36	0	0	1844	5	4044	0
37	0	0	2365	5	4043	0
38	0	0	2725	5	4043	0
39	0	0	2847	5	4043	0
40	0	0	2845	4	4044	0
41	0	0	2781	4	4044	0
42	0	0	2654	4	4045	0
43	0	0	2577	4	4043	0
44	0	0	2284	4	4044	0
45	0	0	1903	4	4044	0
46	0	0	1622	4	4044	0
47	0	0	1333	4	4043	0
48	0	0	1043	4	4043	0
49	0	0	750	3	4043	0
50	0	0	578	4	4043	0
51	0	0	549	5	4044	0
52	0	0	506	4	4043	0
53	0	0	355	4	4043	0
54	0	0	673	4	4044	0
55	0	0	1217	5	4043	0
56	0	0	1679	5	4044	0
57	0	0	2311	5	4044	0
58	0	0	2770	5	4043	0
59	0	0	2985	5	4043	0
60	0	0	3063	5	4043	0
61	0	0	3065	4	4044	0
62	0	0	2995	5	4043	0
63	0	0	2947	3	4043	0
64	0	0	2640	4	4043	0
65	0	0	2215	4	4044	0
66	0	0	1881	4	4044	0
67	0	0	1528	4	4044	0
68	0	0	1195	4	4045	0
69	0	0	866	4	4043	0
70	0	0	669	4	4044	0
71	0	0	612	5	4045	0
72	0	0	559	3	4043	0
73	0	0	389	4	4045	0
74	0	0	686	5	4044	0
75	0	0	1256	5	4043	0
76	0	0	1756	5	4044	0
77	0	0	2446	5	4044	0
78	0	0	2951	5	4043	0
79	0	0	3205	5	4044	0
80	0	0	3299	5	4043	0
81	0	0	3304	4	4044	0
82	0	0	3230	5	4044	0
83	0	0	3188	4	4043	0
84	0	0	2880	4	4043	0
85	0	0	2464	4	4044	0
86	0	0	2132	4	4044	0
87	0	0	1773	4	4043	0
88	0	0	1418	4	4043	0
89	0	0	1053	4	4043	0
90	0	0	848	4	4044	0
91	0	0	795	5	4045	0
92	0	0	733	4	4044	0
93	0	0	537	4	4045	0
94	0	0	908	5	4043	0
95	0	0	1462	5	4043	0
96	0	0	1950	5	4044	0
97	0	0	2631	5	4044	0
98	0	0	3159	5	4044	0
99	0	0	3400	4	4044	0
100	0	0	3494	5	4044	0
101	0	0	3500	5	4044	0
102	0	0	3409	5	4043	0
103	0	0	3356	4	4043	0
104	0	0	3048	3	4043	0
105	0	0	2630	4	4044	0
106	0	0	2295	4	4044	0
107	0	0	1944	4	4043	0
108	0	0	1607	4	4043	0
109	0	0	1271	3	4045	0
110	0	0	1057	4	4044	0
111	0	0	975	4	4044	0
112	0	0	898	4	4045	0
113	0	0	692	4	4043	0
114	0	0	1036	5	4044	0
115	0	0	1574	5	4043	0
116	0	0	2042	5	4044	0
117	0	0	2703	5	4044	0
118	0	0	3201	5	4043	0
119	0	0	3428	5	4043	0
120	0	0	3502	5	4044	0
121	0	0	3492	5	4045	0
122	0	0	3381	5	4044	0
123	0	0	3319	4	4044	0
124	0	0	3012	3	4044	0
125	0	0	2600	4	4044	0
126	0	0	2285	4	4044	0
127	0	0	1945	4	4044	0
0	0	0	1612	4	4044	0
1	0	0	1279	4	4044	0
2	0	0	1099	4	4043	0
3	0	0	1039	4	4044	0
4	0	0	965	4	4044	0
5	0	0	790	5	4043	0
6	0	0	1129	4	4043	0
7	0	0	1648	5	4044	0
8	0	0	2098	5	4044	0
9	0	0	2716	5	4044	0
10	0	0	3176	5	4045	0
11	0	0	3377	4	4044	0
12	0	0	3435	5	4043	0
13	0	0	3406	4	4044	0
14	0	0	3304	5	4045	0
15	0	0	3232	4	4043	0
16	0	0	2931	4	4044	0
17	0	0	2525	4	4044	0
18	0	0	2212	4	4044	0
19	0	0	1896	4	4044	0
20	0	0	1590	4	4044	0
21	0	0	1299	4	4044	0
22	0	0	1131	4	4044	0
23	0	0	1083	5	4044	0
24	0	0	1036	4	4044	0
25	0	0	866	4	4043	0
26	0	0	1178	4	4043	0
27	0	0	1669	5	4044	0
28	0	0	2091	5	4045	0
29	0	0	2657	5	4044	0
30	0	0	3080	5	4045	0
31	0	0	3257	5	4044	0
32	0	0	3294	5	4044	0
33	0	0	3261	4	4044	0
34	0	0	3157	4	4045	0
35	0	0	3079	4	4043	0
36	0	0	2796	4	4044	0
37	0	0	2417	4	4044	0
38	0	0	2130	4	4045	0
39	0	0	1830	4	4043	0
40	0	0	1524	4	4043	0
41	0	0	1262	3	4044	0
42	0	0	1131	4	4044	0
43	0	0	1106	4	4044	0
44	0	0	1093	4	4044	0
45	0	0	941	4	4044	0
46	0	0	1239	4	4044	0
47	0	0	1706	4	4044	0
48	0	0	2106	5	4044	0
49	0	0	2641	5	4043	0
50	0	0	3035	5	4044	0
51	0	0	3181	4	4044	0
52	0	0	3197	5	4045	0
53	0	0	3154	4	4044	0
54	0	0	3031	4	4045	0
55	0	0	2962	4	4044	0
56	0	0	2703	4	4044	0
57	0	0	2361	4	4044	0
58	0	0	2105	4	4044	0
59	0	0	1836	4	4044	0
60	0	0	1598	4	4044	0
61	0	0	1360	4	4044	0
62	0	0	1230	3	4044	0
63	0	0	1208	5	4044	0
64	0	0	1177	3	4043	0
65	0	0	1041	5	4044	0
66	0	0	1342	5	4044	0
67	0	0	1797	4	4044	0
68	0	0	2173	5	4045	0
69	0	0	2668	5	4044	0
70	0	0	3025	5	4045	0
71	0	0	3153	5	4043	0
72	0	0	3160	5	4044	0
73	0	0	3106	4	4044	0
74	0	0	2969	4	4043	0
75	0	0	2905	4	4044	0
76	0	0	2662	4	4044	0
77	0	0	2343	3	4044	0
78	0	0	2105	4	4044	0
79	0	0	1842	4	4044	0
80	0	0	1612	4	4043	0
81	0	0	1416	4	4044	0
82	0	0	1326	3	4044	0
83	0	0	1327	5	4045	0
84	0	0	1335	4	4043	0
85	0	0	1202	4	4045	0
86	0	0	1486	5	4043	0
87	0	0	1905	4	4044	0
88	0	0	2257	5	4044	0
89	0	0	2719	5	4043	0
90	0	0	3026	5	4044	0
91	0	0	3129	5	4044	0
92	0	0	3120	5	4044	0
93	0	0	3052	4	4044	0
94	0	0	2936	4	4044	0
95	0	0	2868	4	4043	0
96	0	0	2628	4	4043	0
97	0	0	2319	4	4044	0
98	0	0	2098	4	4044	0
99	0	0	1880	4	4045	0
100	0	0	1686	4	4043	0
101	0	0	1510	4	4044	0
102	0	0	1420	4	4044	0
103	0	0	1418	5	4044	0
104	0	0	1423	4	4044	0
105	0	0	1304	5	4043	0
106	0	0	1573	5	4043	0
107	0	0	1969	4	4044	0
108	0	0	2292	5	4044	0
109	0	0	2720	5	4043	0
110	0	0	3003	5	4043	0
111	0	0	3083	5	4044	0
112	0	0	3050	4	4044	0
113	0	0	2982	4	4044	0
114	0	0	2857	4	4044	0
115	0	0	2785	4	4045	0
116	0	0	2548	6	4044	0
117	0	0	2241	3	4044	0
118	0	0	2028	4	4045	0
119	0	0	1781	4	4044	0
120	0	0	1595	4	4043	0
121	0	0	1441	4	4043	0
122	0	0	1380	4	4044	0
123	0	0	1402	5	4044	0
124	0	0	1418	3	4043	0
125	0	0	1298	5	4043	0
126	0	0	1564	5	4043	0
127	0	0	1962	5	4044	0
0	0	0	2277	5	4044	0
1	0	0	2694	5	4044	0
2	0	0	2972	5	4043	0
3	0	0	3043	5	4043	0
4	0	0	3011	4	4044	0
5	0	0	2946	4	4044	0
6	0	0	2828	4	4044	0
7	0	0	2759	4	4043	0
8	0	0	2536	4	4043	0
9	0	0	2237	4	4044	0
10	0	0	2033	4	4044	0
11	0	0	1827	4	4044	0
12	0	0	1641	4	4045	0
13	0	0	1470	3	4044	0
14	0	0	1394	4	4044	0
15	0	0	1405	4	4045	0
16	0	0	1426	4	4044	0
17	0	0	1313	5	4045	0
18	0	0	1574	5	4044	0
19	0	0	1963	5	4044	0
20	0	0	2272	5	4044	0
21	0	0	2681	5	4043	0
22	0	0	2953	5	4043	0
23	0	0	3017	5	4043	0
24	0	0	2976	4	4044	0
25	0	0	2903	4	4044	0
26	0	0	2779	4	4045	0
27	0	0	2701	4	4043	0
28	0	0	2474	4	4044	0
29	0	0	2177	4	4044	0
30	0	0	1935	4	4044	0
31	0	0	1719	4	4043	0
32	0	0	1552	4	4045	0
33	0	0	1402	4	4044	0
34	0	0	1335	3	4043	0
35	0	0	1352	4	4044	0
36	0	0	1375	4	4044	0
37	0	0	1255	5	4044	0
38	0	0	1501	5	4044	0
39	0	0	1886	5	4045	1
40	0	0	2195	5	4044	0
41	0	0	2601	5	4043	0
42	0	0	2882	5	4043	0
43	0	0	2955	5	4043	0
44	0	0	2919	3	4043	0
45	0	0	2847	4	4044	0
46	0	0	2713	4	4043	0
47	0	0	2641	4	4043	0
48	0	0	2429	3	4043	0
49	0	0	2135	3	4044	0
50	0	0	1929	4	4044	0
51	0	0	1728	4	4043	0
52	0	0	1553	4	4045	0
53	0	0	1377	3	4044	0
54	0	0	1295	3	4044	0
55	0	0	1306	5	4044	0
56	0	0	1322	4	4045	0
57	0	0	1212	5	4043	0
58	0	0	1475	5	4044	0
59	0	0	1873	3	4044	0
60	0	0	2192	5	4044	0
61	0	0	2605	5	4043	0
62	0	0	2893	5	4043	0
63	0	0	2971	5	4043	0
64	0	0	2940	4	4044	0
65	0	0	2875	4	4045	0
66	0	0	2740	4	4043	0
67	0	0	2672	4	4044	0
68	0	0	2457	4	4044	0
69	0	0	2154	3	4044	0
70	0	0	1919	4	4044	0
71	0	0	1708	4	4045	0
72	0	0	1542	3	4043	0
73	0	0	1383	4	4044	0
74	0	0	1312	3	4044	0
75	0	0	1323	5	4044	0
76	0	0	1346	4	4044	0
77	0	0	1223	5	4043	0
78	0	0	1471	4	4043	0
79	0	0	1869	4	4044	0
80	0	0	2184	5	4044	0
81	0	0	2600	5	4043	0
82	0	0	2875	6	4043	0
83	0	0	2944	5	4043	0
84	0	0	2917	3	4044	0
85	0	0	2871	4	4045	0
86	0	0	2772	4	4044	0
87	0	0	2726	4	4043	0
88	0	0	2520	4	4044	0
89	0	0	2241	4	4044	0
90	0	0	2038	4	4044	0
91	0	0	1842	4	4043	0
92	0	0	1673	3	4043	0
93	0	0	1510	4	4044	0
94	0	0	1437	4	4044	0
95	0	0	1440	5	4044	0
96	0	0	1452	4	4044	0
97	0	0	1307	4	4043	0
98	0	0	1533	5	4044	0
99	0	0	1921	5	4045	0
100	0	0	2225	5	4045	0
101	0	0	2632	5	4045	0
102	0	0	2907	5	4044	0
103	0	0	2988	5	4044	0
104	0	0	2963	4	4045	0
105	0	0	2906	4	4044	0
106	0	0	2792	4	4043	0
107	0	0	2736	4	4044	0
108	0	0	2515	4	4044	0
109	0	0	2198	4	4045	0
110	0	0	1977	4	4044	0
111	0	0	1787	3	4043	0
112	0	0	1622	4	4044	0
113	0	0	1452	4	4043	0
114	0	0	1372	4	4044	0
115	0	0	1368	5	4044	0
116	0	0	1388	4	4043	0
117	0	0	1244	4	4044	0
118	0	0	1485	5	4043	0
119	0	0	1880	5	4044	0
120	0	0	2207	5	4044	0
121	0	0	2643	5	4044	0
122	0	0	2960	5	4045	0
123	0	0	3058	6	4044	0
124	0	0	3043	5	4044	0
125	0	0	2987	4	4044	0
126	0	0	2870	4	4045	0
127	0	0	2820	4	4044	0
0	0	0	2607	4	4044	0
1	0	0	2305	4	4045	0
2	0	0	2085	4	4044	0
3	0	0	1869	4	4043	0
4	0	0	1680	4	4044	0
5	0	0	1501	4	4044	0
6	0	0	1409	4	4044	0
7	0	0	1400	5	4044	0
8	0	0	1419	3	4043	0
9	0	0	1266	4	4045	0
10	0	0	1497	4	4044	0
11	0	0	1896	5	4043	0
12	0	0	2224	5	4044	0
13	0	0	2668	5	4045	0
14	0	0	3002	5	4043	0
15	0	0	3116	5	4044	0
16	0	0	3183	5	4043	0
17	0	0	3111	4	4044	0
18	0	0	2802	4	4044	0
19	0	0	2489	4	4043	0
20	0	0	2171	3	4043	0
21	0	0	1932	4	4044	0
22	0	0	1876	4	4044	0
23	0	0	1877	5	4044	0
24	0	0	1896	4	4043	0
25	0	0	1904	5	4043	0
26	0	0	1902	5	4044	0
27	0	0	1901	4	4045	0
28	0	0	1886	4	4043	0
29	0	0	1829	4	4045	0
30	0	0	1888	4	4044	0
31	0	0	1974	5	4043	0
32	0	0	2040	5	4044	0
33	0	0	2160	5	4044	0
34	0	0	2242	5	4044	0
35	0	0	2271	5	4044	0
36	0	0	2282	5	4043	0
37	0	0	2286	5	4044	0
38	0	0	2266	5	4044	0
39	0	0	2258	4	4043	0
40	0	0	2199	4	4044	0
41	0	0	2122	4	4044	0
42	0	0	2068	4	4044	0
43	0	0	2011	4	4045	0
44	0	0	1957	4	4043	0
45	0	0	1906	4	4045	0
46	0	0	1874	4	4044	0
47	0	0	1855	4	4044	0
48	0	0	1833	4	4044	0
49	0	0	1794	4	4044	0
50	0	0	1832	5	4043	0
51	0	0	1896	5	4043	0
52	0	0	1947	5	4044	0
53	0	0	2033	5	4044	0
54	0	0	2104	5	4043	0
55	0	0	2147	5	4044	0
56	0	0	2170	5	4044	0
57	0	0	2181	4	4044	0
58	0	0	2181	5	4044	0
59	0	0	2183	4	4045	0
60	0	0	2125	4	4044	0
61	0	0	2064	4	4044	0
62	0	0	2042	4	4045	0
63	0	0	2015	4	4043	0
64	0	0	1981	4	4045	0
65	0	0	1943	5	4044	0
66	0	0	1897	3	4044	0
67	0	0	1858	4	4045	0
68	0	0	1829	4	4044	0
69	0	0	1783	4	4045	0
70	0	0	1807	6	4044	0
71	0	0	1870	5	4044	0
72	0	0	1934	5	4044	0
73	0	0	2034	5	4043	0
74	0	0	2127	5	4043	0
75	0	0	2192	5	4043	0
76	0	0	2242	5	4044	0
77	0	0	2279	4	4044	0
78	0	0	2294	5	4043	0
79	0	0	2311	5	4043	0
80	0	0	2289	4	4043	0
81	0	0	2247	4	4044	0
82	0	0	2208	4	4044	0
83	0	0	2164	4	4043	0
84	0	0	2111	4	4043	0
85	0	0	2055	4	4044	0
86	0	0	2009	4	4045	0
87	0	0	1975	4	4044	0
88	0	0	1954	4	4044	0
89	0	0	1908	4	4044	0
90	0	0	1925	5	4043	0
91	0	0	1980	5	4044	0
92	0	0	2039	4	4044	0
93	0	0	2134	5	4044	0
94	0	0	2218	5	4043	0
95	0	0	2276	5	4043	0
96	0	0	2319	5	4044	0
97	0	0	2350	5	4044	0
98	0	0	2365	5	4043	0
99	0	0	2367	4	4043	0
100	0	0	2310	4	4043	0
101	0	0	2270	4	4044	0
102	0	0	2245	4	4045	0
103	0	0	2204	5	4043	0
104	0	0	2160	4	4045	0
105	0	0	2102	4	4043	0
106	0	0	2049	4	4044	0
107	0	0	2008	4	4045	0
108	0	0	1974	4	4043	0
109	0	0	1925	4	4045	0
110	0	0	1938	6	4044	0
111	0	0	1986	5	4044	0
112	0	0	2040	5	4044	0
113	0	0	2135	5	4043	0
114	0	0	2217	5	4043	0
115	0	0	2275	5	4043	0
116	0	0	2320	5	4044	0
117	0	0	2349	5	4044	0
118	0	0	2364	5	4043	0
119	0	0	2379	5	4044	0
120	0	0	2353	4	4043	0
121	0	0	2311	4	4044	0
122	0	0	2274	4	4045	0
123	0	0	2229	4	4043	0
124	0	0	2182	5	4043	0
125	0	0	2129	4	4044	0
126	0	0	2087	4	4044	0
127	0	0	2051	4	4044	0
0	0	0	2024	4	4045	0
1	0	0	1970	3	4043	0
2	0	0	1980	5	4043	0
3	0	0	2030	6	4044	0
4	0	0	2083	4	4044	0
5	0	0	2169	5	4043	0
6	0	0	2250	5	4045	0
7	0	0	2306	6	4043	0
8	0	0	2341	5	4044	0
9	0	0	2368	4	4044	0
10	0	0	2379	5	4044	0
11	0	0	2355	4	4044	0
12	0	0	2324	4	4043	0
13	0	0	2306	6	4044	0
14	0	0	2295	5	4044	0
15	0	0	2260	4	4044	0
16	0	0	2221	4	4044	0
17	0	0	2158	4	4044	0
18	0	0	2098	4	4044	0
19	0	0	2048	4	4044	0
20	0	0	2012	4	4043	0
21	0	0	1956	4	4043	0
22	0	0	1959	5	4044	0
23	0	0	2011	4	4044	0
24	0	0	2065	5	4044	0
25	0	0	2148	5	4043	0
26	0	0	2228	5	4043	0
27	0	0	2286	5	4044	0
28	0	0	2328	5	4045	0
29	0	0	2351	5	4044	0
30	0	0	2362	5	4045	0
31	0	0	2370	5	4043	0
32	0	0	2339	4	4043	0
33	0	0	2289	5	4044	0
34	0	0	2239	4	4044	0
35	0	0	2177	4	4043	0
36	0	0	2116	4	4043	0
37	0	0	2054	4	4043	0
38	0	0	2005	6	4044	0
39	0	0	1979	4	4044	0
40	0	0	1966	4	4043	0
41	0	0	1932	4	4043	0
42	0	0	1950	5	4043	0
43	0	0	2005	6	4044	0
44	0	0	2059	5	4045	0
45	0	0	2142	5	4044	0
46	0	0	2223	5	4045	0
47	0	0	2272	4	4044	0
48	0	0	2302	6	4044	0
49	0	0	2316	5	4044	0
50	0	0	2307	4	4043	0
51	0	0	2280	5	4043	0
52	0	0	2251	5	4043	0
53	0	0	2213	5	4044	0
54	0	0	2174	4	4044	0
55	0	0	2132	4	4043	0
56	0	0	2083	4	4043	0
57	0	0	2018	4	4043	0
58	0	0	1959	5	4044	0
59	0	0	1916	4	4045	0
60	0	0	1886	4	4043	0
61	0	0	1835	4	4045	0
62	0	0	1840	5	4044	0
63	0	0	1882	5	4044	0
64	0	0	1931	5	4044	0
65	0	0	2013	5	4043	0
66	0	0	2088	5	4044	0
67	0	0	2132	5	4044	0
68	0	0	2150	4	4043	0
69	0	0	2151	5	4044	0
70	0	0	2132	4	4043	0
71	0	0	2117	4	4043	0
72	0	0	2084	4	4043	0
73	0	0	2029	4	4043	0
74	0	0	1946	3	4044	0
75	0	0	1788	4	4045	0
76	0	0	1663	4	4043	0
77	0	0	1563	4	4044	0
78	0	0	1487	4	4044	0
79	0	0	1429	5	4044	0
80	0	0	1390	5	4043	0
81	0	0	1329	4	4043	0
82	0	0	1321	5	4043	0
83	0	0	1351	5	4044	0
84	0	0	1391	5	4044	0
85	0	0	1455	5	4044	0
86	0	0	1509	5	4043	0
87	0	0	1529	5	4043	0
88	0	0	1525	4	4043	0
89	0	0	1519	4	4044	0
90	0	0	1478	4	4043	0
91	0	0	1455	4	4045	0
92	0	0	1421	4	4044	0
93	0	0	1364	3	4044	0
94	0	0	1301	4	4045	0
95	0	0	1233	4	4043	0
96	0	0	1153	5	4044	0
97	0	0	1074	4	4043	0
98	0	0	1000	4	4043	0
99	0	0	940	4	4044	0
100	0	0	894	4	4043	0
101	0	0	825	4	4043	0
102	0	0	819	4	4044	0
103	0	0	852	5	4043	0
104	0	0	893	4	4044	0
105	0	0	974	5	4043	0
106	0	0	1069	5	4043	0
107	0	0	1144	5	4044	0
108	0	0	1199	5	4045	0
109	0	0	1245	4	4044	0
110	0	0	1270	5	4045	0
111	0	0	1286	5	4043	0
112	0	0	1273	4	4044	0
113	0	0	1240	4	4044	0
114	0	0	1208	4	4044	0
115	0	0	1175	4	4043	0
116	0	0	1146	4	4043	0
117	0	0	1114	4	4043	0
118	0	0	1088	4	4044	0
119	0	0	1069	4	4044	0
120	0	0	1061	4	4043	0
121	0	0	1030	4	4043	0
122	0	0	1053	4	4043	0
123	0	0	1119	5	4044	0
124	0	0	1191	5	4045	0
125	0	0	1289	5	4044	0
126	0	0	1374	5	4045	0
127	0	0	1422	6	4043	0
0	0	0	1462	5	4044	0
1	0	0	1488	5	4044	0
2	0	0	1481	5	4043	0
3	0	0	1515	4	4043	0
4	0	0	1528	4	4044	0
5	0	0	1502	5	4043	0
6	0	0	1484	4	4044	0
7	0	0	1447	4	4044	0
8	0	0	1397	4	4043	0
9	0	0	1339	4	4043	0
10	0	0	1295	4	4043	0
11	0	0	1262	4	4044	0
12	0	0	1241	4	4045	0
13	0	0	1195	4	4043	0
14	0	0	1202	5	4044	0
15	0	0	1254	5	4044	0
16	0	0	1304	4	4044	0
17	0	0	1391	5	4044	0
18	0	0	1476	5	4043	0
19	0	0	1532	4	4044	0
20	0	0	1574	5	4043	0
21	0	0	1605	5	4044	0
22	0	0	1626	5	4044	0
23	0	0	1639	4	4043	0
24	0	0	1627	4	4043	0
25	0	0	1594	4	4043	0
26	0	0	1561	4	4044	0
27	0	0	1524	4	4043	0
28	0	0	1479	4	4043	0
29	0	0	1429	4	4044	0
30	0	0	1392	4	4044	0
31	0	0	1350	4	4044	0
32	0	0	1317	4	4045	0
33	0	0	1260	4	4043	0
34	0	0	1262	5	4044	0
35	0	0	1303	5	4043	0
36	0	0	1361	5	4044	0
37	0	0	1458	5	4043	0
38	0	0	1557	5	4043	0
39	0	0	1637	5	4043	0
40	0	0	1691	5	4044	0
41	0	0	1705	4	4045	0
42	0	0	1718	5	4043	0
43	0	0	1745	5	4043	0
44	0	0	1743	4	4043	0
45	0	0	1716	4	4043	0
46	0	0	1692	4	4044	0
47	0	0	1652	4	4043	0
48	0	0	1609	4	4045	0
49	0	0	1557	4	4044	0
50	0	0	1500	4	4044	0
51	0	0	1450	4	4045	0
52	0	0	1417	4	4043	0
53	0	0	1362	4	4043	0
54	0	0	1362	5	4044	0
55	0	0	1398	5	4044	0
56	0	0	1454	4	4044	0
57	0	0	1554	5	4043	0
58	0	0	1657	5	4043	0
59	0	0	1728	5	4043	0
60	0	0	1775	5	4044	0
61	0	0	1816	5	4044	0
62	0	0	1849	5	4043	0
63	0	0	1883	4	4045	0
64	0	0	1885	5	4044	0
65	0	0	1861	5	4044	0
66	0	0	1836	4	4044	0
67	0	0	1796	4	4043	0
68	0	0	1755	4	4043	0
69	0	0	1708	4	4044	0
70	0	0	1667	4	4043	0
71	0	0	1636	4	4044	0
72	0	0	1619	4	4045	0
73	0	0	1577	4	4043	0
74	0	0	1584	5	4043	0
75	0	0	1629	5	4044	0
76	0	0	1683	5	4044	0
77	0	0	1769	5	4043	0
78	0	0	1854	4	4045	0
79	0	0	1912	6	4044	0
80	0	0	1941	5	4044	0
81	0	0	1941	5	4044	0
82	0	0	1962	5	4043	0
83	0	0	1994	5	4043	0
84	0	0	1991	4	4043	0
85	0	0	1968	5	4043	0
86	0	0	1931	4	4044	0
87	0	0	1888	4	4043	0
88	0	0	1845	4	4043	0
89	0	0	1788	4	4043	0
90	0	0	1733	4	4044	0
91	0	0	1695	4	4044	0
92	0	0	1665	4	4045	0
93	0	0	1608	4	4043	0
94	0	0	1603	5	4044	0
95	0	0	1641	5	4044	0
96	0	0	1693	5	4044	0
97	0	0	1777	5	4043	0
98	0	0	1859	5	4043	0
99	0	0	1920	5	4044	0
100	0	0	1960	5	4044	0
101	0	0	1992	4	4044	0
102	0	0	2008	5	4043	0
103	0	0	2024	4	4045	0
104	0	0	2011	4	4043	0
105	0	0	1979	4	4044	0
106	0	0	1943	4	4044	0
107	0	0	1906	4	4044	0
108	0	0	1871	3	4044	0
109	0	0	1823	4	4043	0
110	0	0	1777	4	4044	0
111	0	0	1741	4	4044	0
112	0	0	1719	4	4043	0
113	0	0	1669	4	4043	0
114	0	0	1672	5	4044	0
115	0	0	1718	6	4044	0
116	0	0	1777	5	4044	0
117	0	0	1866	5	4043	0
118	0	0	1950	4	4044	0
119	0	0	2014	5	4044	0
120	0	0	2028	5	4045	0
121	0	0	2048	5	4044	0
122	0	0	2077	5	4043	0
123	0	0	2102	4	4045	0
124	0	0	2090	4	4044	0
125	0	0	2049	4	4044	0
126	0	0	1997	3	4044	0
127	0	0	1940	4	4043	0
0	0	0	1886	3	4044	0
1	0	0	1823	4	4044	0
2	0	0	1766	4	4045	0
3	0	0	1726	5	4044	0
4	0	0	1703	4	4043	0
5	0	0	1649	3	4045	0
6	0	0	1648	5	4044	0
7	0	0	1686	5	4044	0
8	0	0	1740	4	4044	0
9	0	0	1827	5	4043	0
10	0	0	1916	4	4045	0
11	0	0	1975	5	4043	0
12	0	0	2020	6	4044	0
13	0	0	2055	5	4044	0
14	0	0	2069	5	4043	0
15	0	0	2081	4	4044	0
16	0	0	2067	4	4043	0
17	0	0	2031	5	4044	0
18	0	0	1996	4	4044	0
19	0	0	1959	4	4043	0
20	0	0	1918	4	4043	0
21	0	0	1870	4	4044	0
22	0	0	1829	4	4045	0
23	0	0	1805	3	4044	0
24	0	0	1797	4	4043	0
25	0	0	1767	4	4045	0
26	0	0	1784	5	4045	0
27	0	0	1844	5	4043	0
28	0	0	1907	5	4044	0
29	0	0	1998	5	4043	0
30	0	0	2089	4	4044	0
31	0	0	2144	5	4044	0
32	0	0	2168	4	4045	0
33	0	0	2214	4	4044	0
34	0	0	2253	5	4043	0
35	0	0	2274	5	4043	0
36	0	0	2262	4	4044	0
37	0	0	2217	4	4044	0
38	0	0	2165	5	4044	0
39	0	0	2104	4	4043	0
40	0	0	2045	3	4045	0
41	0	0	1985	4	4044	0
42	0	0	1932	4	4043	0
43	0	0	1893	4	4044	0
44	0	0	1872	4	4044	0
45	0	0	1831	3	4045	0
46	0	0	1846	5	4044	0
47	0	0	1911	5	4045	0
48	0	0	1975	6	4044	0
49	0	0	2073	5	4043	0
50	0	0	2169	5	4043	0
51	0	0	2236	5	4044	0
52	0	0	2284	5	4043	0
53	0	0	2322	6	4044	0
54	0	0	2341	5	4044	0
55	0	0	2353	4	4043	0
56	0	0	2342	5	4044	0
57	0	0	2307	5	4044	0
58	0	0	2267	5	4044	0
59	0	0	2216	4	4043	0
60	0	0	2162	3	4045	0
61	0	0	2097	4	4043	0
62	0	0	2038	4	4043	0
63	0	0	1988	4	4044	0
64	0	0	1953	4	4043	0
65	0	0	1892	3	4045	0
66	0	0	1884	5	4045	0
67	0	0	1919	5	4043	0
68	0	0	1964	5	4044	0
69	0	0	2049	5	4045	0
70	0	0	2135	5	4043	0
71	0	0	2168	5	4043	0
72	0	0	2205	5	4044	0
73	0	0	2254	5	4044	0
74	0	0	2281	5	4043	0
75	0	0	2298	4	4043	0
76	0	0	2288	4	4044	0
77	0	0	2241	5	4044	0
78	0	0	2188	5	4044	0
79	0	0	2132	4	4043	0
80	0	0	2081	3	4043	0
81	0	0	2022	4	4044	0
82	0	0	1966	4	4044	0
83	0	0	1918	4	4044	0
84	0	0	1883	4	4043	0
85	0	0	1820	4	4045	0
86	0	0	1810	5	4044	0
87	0	0	1842	5	4044	0
88	0	0	1888	6	4044	0
89	0	0	1963	5	4043	0
90	0	0	2043	5	4043	0
91	0	0	2101	6	4043	0
92	0	0	2139	5	4043	0
93	0	0	2166	5	4044	0
94	0	0	2181	5	4043	0
95	0	0	2191	5	4043	0
96	0	0	2172	5	4043	0
97	0	0	2136	4	4044	0
98	0	0	2096	5	4044	0
99	0	0	2048	4	4043	0
100	0	0	1996	4	4043	0
101	0	0	1942	4	4043	0
102	0	0	1894	4	4043	0
103	0	0	1857	4	4044	0
104	0	0	1835	4	4043	0
105	0	0	1791	4	4043	0
106	0	0	1791	5	4043	0
107	0	0	1831	5	4043	0
108	0	0	1880	5	4044	0
109	0	0	1957	5	4045	0
110	0	0	2026	5	4045	0
111	0	0	2048	5	4043	0
112	0	0	2091	4	4044	0
113	0	0	2135	5	4045	0
114	0	0	2165	5	4043	0
115	0	0	2192	4	4045	0
116	0	0	2186	4	4044	0
117	0	0	2152	4	4044	0
118	0	0	2119	4	4044	0
119	0	0	2076	4	4043	0
120	0	0	2031	4	4045	0
121	0	0	1980	4	4043	0
122	0	0	1934	4	4043	0
123	0	0	1903	3	4044	0
124	0	0	1884	4	4043	0
125	0	0	1841	4	4043	0
126	0	0	1839	5	4043	0
127	0	0	1879	5	4043	0
0	0	0	1928	5	4044	0
1	0	0	2008	5	4043	0
2	0	0	2087	5	4043	0
3	0	0	2146	5	4044	0
4	0	0	2187	5	4045	0
5	0	0	2218	4	4044	0
6	0	0	2234	5	4045	0
7	0	0	2246	5	4043	0
8	0	0	2235	4	4043	0
9	0	0	2209	4	4044	0
10	0	0	2187	4	4044	0
11	0	0	2158	4	4043	0
12	0	0	2126	5	4043	0
13	0	0	2089	4	4043	0
14	0	0	2053	4	4044	0
15	0	0	2023	3	4044	0
16	0	0	2005	3	4044	0
17	0	0	1961	4	4044	0
18	0	0	1957	5	4044	0
19	0	0	1987	5	4044	0
20	0	0	2027	5	4045	0
21	0	0	2097	5	4043	0
22	0	0	2142	5	4045	0
23	0	0	2191	4	4043	0
24	0	0	2249	5	4044	0
25	0	0	2297	4	4044	0
26	0	0	2334	5	4044	0
27	0	0	2365	5	4043	0
28	0	0	2356	5	4043	0
29	0	0	2329	4	4044	0
30	0	0	2301	4	4044	0
31	0	0	2266	4	4043	0
32	0	0	2224	4	4044	0
33	0	0	2173	4	4043	0
34	0	0	2127	4	4044	0
35	0	0	2086	4	4045	0
36	0	0	2050	4	4043	0
37	0	0	1994	4	4045	0
38	0	0	1981	5	4044	0
39	0	0	1995	5	4044	0
40	0	0	2021	4	4044	0
41	0	0	2074	5	4043	0
42	0	0	2133	5	4043	0
43	0	0	2179	5	4043	0
44	0	0	2217	5	4043	0
45	0	0	2249	4	4044	0
46	0	0	2273	5	4043	0
47	0	0	2293	5	4043	0
48	0	0	2290	5	4043	0
49	0	0	2271	4	4043	0
50	0	0	2252	4	4044	0
51	0	0	2224	4	4045	0
52	0	0	2189	4	4043	0
53	0	0	2145	4	4044	0
54	0	0	2105	4	4044	0
55	0	0	2065	3	4044	0
56	0	0	2032	4	4045	0
57	0	0	1985	4	4044	0
58	0	0	1964	5	4044	0
59	0	0	1961	4	4044	0
60	0	0	1961	4	4044	0
61	0	0	1976	5	4044	0
62	0	0	1979	5	4043	0
63	0	0	2019	5	4043	0
64	0	0	2083	5	4043	0
65	0	0	2140	5	4045	0
66	0	0	2190	5	4043	0
67	0	0	2221	5	4043	0
68	0	0	2234	5	4043	0
69	0	0	2252	5	4043	0
70	0	0	2267	4	4044	0
71	0	0	2273	5	4045	0
72	0	0	2271	5	4043	0
73	0	0	2258	5	4043	0
74	0	0	2242	4	4043	0
75	0	0	2211	4	4044	0
76	0	0	2158	4	4044	0
77	0	0	2121	4	4045	0
78	0	0	2077	4	4044	0
79	0	0	1992	4	4043	0
80	0	0	1914	4	4044	0
81	0	0	1849	4	4043	0
82	0	0	1802	4	4045	0
83	0	0	1801	5	4043	0
84	0	0	1804	5	4043	0
85	0	0	1831	4	4044	0
86	0	0	1712	4	4043	0
87	0	0	1170	3	4044	0
88	0	0	789	3	4044	0
89	0	0	579	3	4045	0
90	0	0	464	3	4044	0
91	0	0	1010	4	4043	0
92	0	0	2250	5	4043	0
93	0	0	3111	5	4043	0
94	0	0	3615	5	4044	0
95	0	0	3917	5	4044	0
96	0	0	4089	5	4043	0
97	0	0	4091	5	4043	0
98	0	0	4091	5	4043	0
99	0	0	4092	5	4043	0
100	0	0	4091	3	4044	0
101	0	0	2761	4	4043	0
102	0	0	1697	4	4043	0
103	0	0	1088	4	4044	0
104	0	0	738	3	4045	0
105	0	0	536	4	4044	0
106	0	0	425	4	4043	0
107	0	0	366	4	4043	0
108	0	0	336	4	4043	0
109	0	0	322	4	4044	0
110	0	0	394	4	4044	0
111	0	0	1580	5	4043	0
112	0	0	2709	5	4045	0
113	0	0	3376	4	4044	0
114	0	0	3768	5	4044	0
115	0	0	4000	5	4044	0
116	0	0	4091	5	4043	0
117	0	0	4091	5	4045	0
118	0	0	4091	5	4044	0
119	0	0	4092	5	4045	0
120	0	0	4091	4	4044	0
121	0	0	2951	4	4044	0
122	0	0	1798	4	4043	0
123	0	0	1140	4	4044	0
124	0	0	762	4	4043	0
125	0	0	544	3	4044	0
126	0	0	422	4	4043	0
127	0	0	357	4	4043	0
0	0	0	324	4	4044	0
1	0	0	308	4	4044	0
2	0	0	490	4	4044	0
3	0	0	1719	4	4044	0
4	0	0	2774	5	4045	0
5	0	0	3407	5	4044	0
6	0	0	3784	5	4044	0
7	0	0	4003	5	4045	0
8	0	0	4091	5	4044	0
9	0	0	4091	5	4044	0
10	0	0	4091	6	4043	0
11	0	0	4092	5	4044	0
12	0	0	4091	5	4044	0
13	0	0	3227	4	4043	0
14	0	0	1949	3	4044	0
15	0	0	1220	4	4044	0
16	0	0	797	4	4044	0
17	0	0	559	2	4044	0
18	0	0	422	4	4044	0
19	0	0	350	4	4044	0
20	0	0	312	4	4044	0
21	0	0	293	4	4045	0
22	0	0	286	3	4044	0
23	0	0	285	4	4044	0
24	0	0	286	4	4045	0
25	0	0	1550	4	4045	1
26	0	0	2685	4	4044	0
27	0	0	3351	5	4044	0
28	0	0	3744	5	4044	0
29	0	0	3980	5	4044	0
30	0	0	4091	5	4044	0
31	0	0	4092	5	4043	0
32	0	0	4091	5	4044	0
33	0	0	4091	5	4044	0
34	0	0	4091	4	4044	0
35	0	0	2529	4	4044	0
36	0	0	1554	4	4044	0
37	0	0	990	3	4044	0
38	0	0	668	4	4043	0
39	0	0	484	4	4044	0
40	0	0	382	4	4044	0
41	0	0	328	4	4044	0
42	0	0	300	4	4044	0
43	0	0	287	4	4044	0
44	0	0	284	4	4045	0
45	0	0	1469	4	4044	0
46	0	0	2636	4	4044	0
47	0	0	3320	5	4045	0
48	0	0	3721	5	4044	0
49	0	0	3963	5	4045	0
50	0	0	4093	5	4045	0
51	0	0	4092	5	4044	0
52	0	0	4091	4	4044	0
53	0	0	4091	5	4044	0
54	0	0	4092	4	4045	0
55	0	0	2447	4	4044	0
56	0	0	1503	4	4045	0
57	0	0	957	2	4044	0
58	0	0	646	4	4043	0
59	0	0	467	5	4044	0
60	0	0	368	4	4044	0
61	0	0	317	4	4044	0
62	0	0	291	4	4044	0
63	0	0	279	4	4044	0
64	0	0	275	5	4043	0
65	0	0	1419	4	4044	0
66	0	0	2605	5	4044	0
67	0	0	3296	4	4044	0
68	0	0	3708	5	4044	0
69	0	0	3951	5	4045	0
70	0	0	4091	5	4044	0
71	0	0	4092	5	4043	0
72	0	0	4093	5	4045	0
73	0	0	4091	6	4044	0
74	0	0	4091	4	4044	0
75	0	0	2442	4	4043	0
76	0	0	1497	4	4044	0
77	0	0	951	4	4044	0
78	0	0	636	3	4044	0
79	0	0	460	4	4043	0
80	0	0	361	4	4044	0
81	0	0	310	4	4045	0
82	0	0	284	4	4044	0
83	0	0	273	4	4044	0
84	0	0	269	5	4044	0
85	0	0	1467	6	4044	0
86	0	0	2618	5	4044	0
87	0	0	3303	4	4045	0
88	0	0	3709	5	4043	0
89	0	0	3948	4	4044	0
90	0	0	4085	6	4043	0
91	0	0	4092	5	4044	0
92	0	0	4091	5	4044	0
93	0	0	4091	5	4044	0
94	0	0	4091	4	4044	0
95	0	0	2474	4	4044	0
96	0	0	1521	3	4045	0
97	0	0	962	3	4044	0
98	0	0	640	4	4043	0
99	0	0	458	4	4044	0
100	0	0	358	3	4043	0
101	0	0	304	4	4044	0
102	0	0	277	4	4044	0
103	0	0	266	4	4043	0
104	0	0	262	4	4045	0
105	0	0	1485	4	4044	0
106	0	0	2624	5	4044	0
107	0	0	3302	5	4044	0
108	0	0	3706	5	4043	0
109	0	0	3943	5	4043	0
110	0	0	4080	5	4044	0
111	0	0	4092	5	4044	0
112	0	0	4091	6	4044	0
113	0	0	4091	5	4043	0
114	0	0	4091	4	4043	0
115	0	0	2465	3	4043	0
116	0	0	1513	4	4044	0
117	0	0	954	4	4044	0
118	0	0	632	4	4043	0
119	0	0	449	3	4043	0
120	0	0	350	4	4043	0
121	0	0	297	4	4044	0
122	0	0	270	4	4044	0
123	0	0	259	4	4044	0
124	0	0	255	3	4043	0
125	0	0	1102	5	4044	0
126	0	0	2424	4	4044	0
127	0	0	3174	5	4043	0
0	0	0	3627	5	4043	0
1	0	0	3896	5	4043	0
2	0	0	4050	5	4044	0
3	0	0	4092	5	4044	0
4	0	0	4091	5	4044	0
5	0	0	4091	6	4044	0
6	0	0	4091	4	4044	0
7	0	0	2432	3	4043	0
8	0	0	1484	3	4044	0
9	0	0	941	4	4044	0
10	0	0	623	4	4043	0
11	0	0	442	4	4045	0
12	0	0	345	4	4044	0
13	0	0	293	4	4044	0
14	0	0	265	4	4045	0
15	0	0	254	4	4043	0
16	0	0	251	4	4044	0
17	0	0	991	4	4043	0
18	0	0	2357	5	4043	0
19	0	0	3132	5	4044	0
20	0	0	3603	6	4044	0
21	0	0	3880	5	4043	0
22	0	0	4039	4	4043	0
23	0	0	4092	5	4043	0
24	0	0	4091	6	4044	0
25	0	0	4091	6	4044	0
26	0	0	4091	4	4044	0
27	0	0	2562	4	4045	0
28	0	0	1556	4	4044	0
29	0	0	981	4	4045	0
30	0	0	645	4	4043	0
31	0	0	453	4	4044	0
32	0	0	347	4	4043	0
33	0	0	293	4	4043	0
34	0	0	265	4	4044	0
35	0	0	252	4	4043	0
36	0	0	248	4	4043	0
37	0	0	946	5	4043	0
38	0	0	2321	4	4043	0
39	0	0	3116	4	4043	0
40	0	0	3587	5	4043	0
41	0	0	3869	5	4043	0
42	0	0	4033	5	4044	0
43	0	0	4092	5	4045	0
44	0	0	4091	5	4044	0
45	0	0	4092	5	4045	0
46	0	0	3880	3	4043	0
47	0	0	2297	5	4043	0
48	0	0	1404	4	4044	0
49	0	0	887	4	4044	0
50	0	0	593	5	4044	0
51	0	0	423	4	4043	0
52	0	0	331	3	4044	0
53	0	0	283	3	4044	0
54	0	0	259	4	4044	0
55	0	0	248	4	4043	0
56	0	0	1020	5	4043	0
57	0	0	2284	4	4043	0
58	0	0	3093	5	4043	0
59	0	0	3573	5	4044	0
60	0	0	3856	5	4043	0
61	0	0	4023	5	4045	0
62	0	0	4092	5	4044	0
63	0	0	4091	5	4044	0
64	0	0	4092	5	4045	0
65	0	0	3428	4	4043	0
66	0	0	2076	4	4044	0
67	0	0	1280	5	4043	0
68	0	0	814	4	4044	0
69	0	0	546	4	4044	0
70	0	0	398	4	4043	0
71	0	0	315	4	4043	0
72	0	0	272	4	4044	0
73	0	0	252	3	4045	0
74	0	0	679	5	4044	0
75	0	0	1643	5	4043	0
76	0	0	2642	5	4043	0
77	0	0	3294	4	4044	0
78	0	0	3692	5	4044	0
79	0	0	3926	5	4044	0
80	0	0	4057	5	4043	0
81	0	0	4091	5	4043	0
82	0	0	4092	6	4043	0
83	0	0	4092	4	4044	0
84	0	0	3132	4	4044	0
85	0	0	1976	6	4044	0
86	0	0	1213	4	4043	0
87	0	0	775	3	4043	0
88	0	0	522	3	4044	0
89	0	0	379	4	4044	0
90	0	0	301	4	4043	0
91	0	0	262	4	4045	0
92	0	0	243	4	4044	0
93	0	0	476	4	4043	0
94	0	0	1436	4	4045	0
95	0	0	2440	5	4043	0
96	0	0	3179	5	4044	0
97	0	0	3622	5	4044	0
98	0	0	3879	5	4044	0
99	0	0	4029	5	4044	0
100	0	0	4091	5	4043	0
101	0	0	4091	5	4043	0
102	0	0	4091	4	4043	0
103	0	0	3283	4	4044	0
104	0	0	2163	3	4044	0
105	0	0	1318	4	4044	0
106	0	0	831	4	4043	0
107	0	0	553	3	4044	0
108	0	0	395	4	4044	0
109	0	0	308	4	4044	0
110	0	0	262	4	4043	0
111	0	0	240	4	4043	0
112	0	0	554	4	4044	0
113	0	0	1408	5	4044	0
114	0	0	2424	5	4044	0
115	0	0	3167	5	4043	0
116	0	0	3611	5	4045	0
117	0	0	3873	5	4044	0
118	0	0	4023	5	4044	0
119	0	0	4092	5	4045	0
120	0	0	4091	5	4043	0
121	0	0	4091	5	4045	0
122	0	0	3951	4	4045	0
123	0	0	3197	4	4044	0
124	0	0	2122	4	4044	0
125	0	0	1290	4	4045	0
126	0	0	809	4	4043	0
127	0	0	532	4	4043	0
0	0	0	379	4	4044	0
1	0	0	294	4	4044	0
2	0	0	250	4	4044	0
3	0	0	851	5	4043	0
4	0	0	1674	4	4044	0
5	0	0	2609	5	4044	0
6	0	0	3270	5	4044	0
7	0	0	3661	5	4043	0
8	0	0	3894	5	4043	0
9	0	0	4028	5	4044	0
10	0	0	4092	5	4044	0
11	0	0	4093	5	4045	0
12	0	0	4091	5	4044	0
13	0	0	4092	5	4045	0
14	0	0	4092	4	4045	0
15	0	0	3422	4	4044	0
16	0	0	2369	4	4044	0
17	0	0	1441	4	4043	0
18	0	0	885	3	4045	0
19	0	0	564	4	4044	0
20	0	0	385	4	4043	0
21	0	0	284	3	4044	0
22	0	0	597	5	4043	0
23	0	0	1430	5	4044	0
24	0	0	2293	5	4044	0
25	0	0	3062	5	4045	0
26	0	0	3527	5	4044	0
27	0	0	3800	4	4044	0
28	0	0	3959	5	4043	0
29	0	0	4049	4	4044	0
30	0	0	4092	5	4044	0
31	0	0	4092	5	4045	0
32	0	0	4091	5	4044	0
33	0	0	4092	5	4045	0
34	0	0	3969	4	4045	0
35	0	0	3229	4	4044	0
36	0	0	2189	4	4044	0
37	0	0	1313	4	4045	0
38	0	0	797	4	4044	0
39	0	0	499	3	4044	0
40	0	0	331	4	4045	0
41	0	0	240	4	4044	0
42	0	0	403	5	4043	0
43	0	0	1206	5	4043	0
44	0	0	2028	4	4044	0
45	0	0	2858	5	4044	0
46	0	0	3392	5	4044	0
47	0	0	3709	4	4043	0
48	0	0	3893	5	4045	0
49	0	0	4001	5	4044	0
50	0	0	4057	5	4044	0
51	0	0	4086	5	4044	0
52	0	0	4091	5	4044	0
53	0	0	4092	5	4045	0
54	0	0	3962	4	4044	0
55	0	0	3367	4	4045	0
56	0	0	2422	4	4044	0
57	0	0	1487	4	4044	0
58	0	0	890	4	4043	0
59	0	0	539	3	4044	0
60	0	0	340	4	4044	0
61	0	0	232	4	4044	0
62	0	0	173	4	4043	0
63	0	0	339	4	4045	0
64	0	0	761	4	4044	0
65	0	0	939	5	4044	0
66	0	0	1188	4	4044	0
67	0	0	1562	4	4043	0
68	0	0	2095	5	4043	0
69	0	0	2777	4	4043	0
70	0	0	3338	4	4043	0
71	0	0	3671	5	4044	0
72	0	0	3866	5	4045	0
73	0	0	3976	5	4044	0
74	0	0	4037	5	4044	0
75	0	0	4070	5	4045	0
76	0	0	4083	5	4044	0
77	0	0	4091	5	4045	0
78	0	0	3808	4	4043	0
79	0	0	2734	4	4043	0
80	0	0	1685	4	4044	0
81	0	0	993	3	4044	0
82	0	0	598	4	4043	0
83	0	0	368	3	4043	0
84	0	0	240	3	4044	0
85	0	0	172	4	4044	0
86	0	0	151	5	4044	0
87	0	0	733	4	4043	0
88	0	0	1441	4	4044	0
89	0	0	2197	5	4043	0
90	0	0	2947	4	4044	0
91	0	0	3431	5	4044	0
92	0	0	3717	5	4043	0
93	0	0	3884	5	4043	0
94	0	0	3977	5	4044	0
95	0	0	4030	5	4044	0
96	0	0	4056	5	4044	0
97	0	0	4068	5	4043	0
98	0	0	3098	4	4043	0
99	0	0	1826	4	4043	0
100	0	0	1072	4	4044	0
101	0	0	635	4	4044	0
102	0	0	387	4	4043	0
103	0	0	435	4	4044	0
104	0	0	1004	4	4045	0
105	0	0	1649	5	4043	0
106	0	0	2465	5	4043	0
107	0	0	3137	5	4045	0
108	0	0	3534	5	4043	0
109	0	0	3767	5	4044	0
110	0	0	3903	5	4045	0
111	0	0	3977	5	4043	0
112	0	0	4017	5	4044	0
113	0	0	3429	3	4044	0
114	0	0	2859	4	4043	0
115	0	0	2320	4	4044	0
116	0	0	1519	4	4043	0
117	0	0	886	4	4044	0
118	0	0	521	3	4044	0
119	0	0	315	4	4044	0
120	0	0	199	3	4044	0
121	0	0	138	4	4043	0
122	0	0	185	4	4043	0
123	0	0	875	4	4045	0
124	0	0	1609	5	4045	0
125	0	0	2304	5	4044	0
126	0	0	3005	5	4045	0
127	0	0	3455	5	4043	0
0	0	0	3723	4	4044	0
1	0	0	3875	5	4043	0
2	0	0	3963	5	4044	0
3	0	0	4008	5	4044	0
4	0	0	4032	5	4044	0
5	0	0	3344	4	4043	0
6	0	0	2658	4	4043	0
7	0	0	2014	3	4044	0
8	0	0	1235	4	4044	0
9	0	0	720	4	4044	0
10	0	0	423	4	4043	0
11	0	0	258	4	4044	0
12	0	0	167	4	4044	0
13	0	0	118	4	4044	0
14	0	0	505	5	4045	0
15	0	0	1269	6	4043	0
16	0	0	2060	5	4043	0
17	0	0	2787	5	4044	0
18	0	0	3318	5	4044	0
19	0	0	3639	5	4043	0
20	0	0	3826	4	4043	0
21	0	0	3932	5	4043	0
22	0	0	3989	5	4044	0
23	0	0	4020	5	4044	0
24	0	0	3783	4	4043	0
25	0	0	2871	4	4043	0
26	0	0	2022	4	4044	0
27	0	0	1273	4	4044	0
28	0	0	745	4	4044	0
29	0	0	436	4	4043	0
30	0	0	260	3	4045	0
31	0	0	165	4	4044	0
32	0	0	116	3	4044	0
33	0	0	229	5	4044	0
34	0	0	965	5	4044	0
35	0	0	1883	4	4044	0
36	0	0	2761	5	4044	0
37	0	0	3307	5	4044	0
38	0	0	3630	4	4044	0
39	0	0	3818	4	4043	0
40	0	0	3927	5	4043	0
41	0	0	3985	4	4044	0
42	0	0	4016	5	4044	0
43	0	0	4032	5	4045	0
44	0	0	3731	4	4043	0
45	0	0	2764	4	4044	0
46	0	0	1862	4	4043	0
47	0	0	1125	4	4044	0
48	0	0	650	4	4044	0
49	0	0	379	3	4043	0
50	0	0	226	5	4043	0
51	0	0	142	4	4044	0
52	0	0	99	4	4044	0
53	0	0	392	5	4044	0
54	0	0	1166	4	4043	0
55	0	0	2106	5	4043	0
56	0	0	2900	4	4044	0
57	0	0	3385	5	4044	0
58	0	0	3673	5	4044	0
59	0	0	3839	4	4043	0
60	0	0	3934	4	4044	0
61	0	0	3985	5	4045	0
62	0	0	4011	5	4044	0
63	0	0	4024	5	4045	0
64	0	0	3693	4	4044	0
65	0	0	2752	3	4045	0
66	0	0	1905	4	4045	0
67	0	0	1186	4	4044	0
68	0	0	681	4	4044	0
69	0	0	393	4	4044	0
70	0	0	228	4	4044	0
71	0	0	138	4	4044	0
72	0	0	91	4	4044	0
73	0	0	370	5	4045	0
74	0	0	1128	5	4043	0
75	0	0	2057	5	4043	0
76	0	0	2866	4	4043	0
77	0	0	3361	5	4044	0
78	0	0	3654	5	4044	0
79	0	0	3825	5	4043	0
80	0	0	3921	6	4043	0
81	0	0	3972	5	4044	0
82	0	0	4001	5	4045	0
83	0	0	4011	5	4044	0
84	0	0	3705	4	4045	0
85	0	0	2752	4	4043	0
86	0	0	1883	3	4044	0
87	0	0	1142	4	4044	0
88	0	0	651	3	4044	0
89	0	0	368	4	4045	0
90	0	0	212	4	4044	0
91	0	0	126	4	4044	0
92	0	0	81	4	4045	0
93	0	0	231	5	4043	0
94	0	0	972	5	4045	0
95	0	0	1896	5	4043	0
96	0	0	2763	5	4043	0
97	0	0	3291	4	4044	0
98	0	0	3609	5	4044	0
99	0	0	3795	4	4043	0
100	0	0	3900	7	4043	0
101	0	0	3958	4	4043	0
102	0	0	3989	5	4044	0
103	0	0	4002	5	4044	0
104	0	0	3694	4	4044	0
105	0	0	2735	4	4043	0
106	0	0	1843	3	4044	0
107	0	0	1108	4	4045	0
108	0	0	628	4	4043	0
109	0	0	353	4	4043	0
110	0	0	199	4	4044	0
111	0	0	116	4	4044	0
112	0	0	72	4	4044	0
113	0	0	144	5	4044	0
114	0	0	890	5	4043	0
115	0	0	1838	5	4044	0
116	0	0	2727	5	4045	0
117	0	0	3266	4	4044	0
118	0	0	3592	5	4043	0
119	0	0	3784	5	4045	0
120	0	0	3891	5	4043	0
121	0	0	3950	4	4044	0
122	0	0	3982	5	4044	0
123	0	0	3996	5	4043	0
124	0	0	3667	4	4044	0
125	0	0	2675	4	4044	0
126	0	0	1733	4	4044	0
127	0	0	1004	4	4044	0
0	0	0	567	4	4043	0
1	0	0	315	4	4043	0
2	0	0	176	4	4044	0
3	0	0	101	4	4045	0
4	0	0	62	4	4044	0
5	0	0	114	5	4043	0
6	0	0	869	5	4043	0
7	0	0	1836	7	4043	0
8	0	0	2729	4	4044	0
9	0	0	3272	5	4045	0
10	0	0	3590	5	4043	0
11	0	0	3780	5	4043	0
12	0	0	3888	4	4044	0
13	0	0	3947	5	4044	0
14	0	0	3978	5	4044	0
15	0	0	3994	5	4045	0
16	0	0	3466	4	4043	0
17	0	0	2451	4	4044	0
18	0	0	1464	4	4045	0
19	0	0	830	4	4044	0
20	0	0	468	4	4044	0
21	0	0	260	4	4044	0
22	0	0	144	3	4044	0
23	0	0	83	4	4043	0
24	0	0	52	4	4044	0
25	0	0	53	5	4043	0
26	0	0	787	5	4043	0
27	0	0	1723	4	4043	0
28	0	0	2643	5	4044	0
29	0	0	3220	5	4044	0
30	0	0	3559	5	4044	0
31	0	0	3762	5	4044	0
32	0	0	3879	4	4044	0
33	0	0	3943	5	4044	0
34	0	0	3975	5	4044	0
35	0	0	3747	4	4043	0
36	0	0	3006	4	4043	0
37	0	0	1962	3	4044	0
38	0	0	1121	4	4044	0
39	0	0	634	4	4044	0
40	0	0	356	3	4045	0
41	0	0	199	4	4043	0
42	0	0	113	4	4044	0
43	0	0	69	4	4044	0
44	0	0	48	4	4044	0
45	0	0	265	4	4044	0
46	0	0	1133	5	4043	0
47	0	0	2152	5	4043	0
48	0	0	2928	4	4044	0
49	0	0	3392	5	4044	0
50	0	0	3667	4	4044	0
51	0	0	3825	5	4043	0
52	0	0	3915	5	4043	0
53	0	0	3964	5	4044	0
54	0	0	3988	5	4044	0
55	0	0	4001	5	4044	0
56	0	0	3478	4	4043	0
57	0	0	2445	4	4044	0
58	0	0	1449	3	4044	0
59	0	0	829	4	4044	0
60	0	0	465	4	4044	0
61	0	0	258	4	4044	0
62	0	0	146	4	4044	0
63	0	0	85	4	4043	0
64	0	0	53	5	4044	0
65	0	0	351	5	4044	0
66	0	0	1205	5	4043	0
67	0	0	2200	5	4044	0
68	0	0	2954	4	4045	0
69	0	0	3401	4	4044	0
70	0	0	3672	5	4045	0
71	0	0	3825	4	4043	0
72	0	0	3914	5	4044	0
73	0	0	3961	5	4045	0
74	0	0	3984	5	4044	0
75	0	0	3930	4	4044	0
76	0	0	3199	4	4043	0
77	0	0	2129	4	4043	0
78	0	0	1217	3	4044	0
79	0	0	692	4	4044	0
80	0	0	385	4	4043	0
81	0	0	214	4	4043	0
82	0	0	118	4	4043	0
83	0	0	70	4	4043	0
84	0	0	45	4	4044	0
85	0	0	254	4	4044	0
86	0	0	1118	5	4043	0
87	0	0	2137	5	4044	0
88	0	0	2917	5	4045	0
89	0	0	3383	5	4044	0
90	0	0	3656	5	4043	0
91	0	0	3817	5	4043	0
92	0	0	3909	5	4044	0
93	0	0	3958	3	4044	0
94	0	0	3983	5	4044	0
95	0	0	3975	4	4044	0
96	0	0	3273	4	4043	0
97	0	0	2238	3	4043	0
98	0	0	1289	3	4044	0
99	0	0	729	3	4045	0
100	0	0	409	4	4043	0
101	0	0	225	4	4045	0
102	0	0	125	5	4044	0
103	0	0	73	2	4044	0
104	0	0	46	4	4044	0
105	0	0	367	5	4043	0
106	0	0	1286	5	4043	0
107	0	0	2306	5	4044	0
108	0	0	3017	5	4043	0
109	0	0	3442	4	4044	0
110	0	0	3690	5	4043	0
111	0	0	3836	5	4043	0
112	0	0	3918	5	4043	0
113	0	0	3961	5	4044	0
114	0	0	3984	5	4044	0
115	0	0	3994	5	4045	0
116	0	0	3484	4	4043	0
117	0	0	2452	4	4044	0
118	0	0	1441	4	4045	0
119	0	0	815	4	4044	0
120	0	0	456	4	4043	0
121	0	0	250	4	4043	0
122	0	0	136	4	4043	0
123	0	0	76	4	4043	0
124	0	0	45	4	4044	0
125	0	0	709	5	4043	0
126	0	0	1681	5	4042	0
127	0	0	2609	5	4043	0
0	0	0	3195	5	4043	0
1	0	0	3544	5	4044	0
2	0	0	3748	5	4043	0
3	0	0	3863	5	4043	0
4	0	0	3928	5	4043	0
5	0	0	3963	5	4044	0
6	0	0	3980	5	4045	0
7	0	0	3984	5	4043	0
8	0	0	3422	4	4045	0
9	0	0	2392	4	4043	0
10	0	0	1386	3	4043	0
11	0	0	779	4	4044	0
12	0	0	428	4	4043	0
13	0	0	231	4	4043	0
14	0	0	120	4	4044	0
15	0	0	62	4	4043	0
16	0	0	32	4	4044	0
17	0	0	477	5	4045	0
18	0	0	1425	5	4043	0
19	0	0	2427	5	4044	0
20	0	0	3077	5	4044	0
21	0	0	3472	5	4045	0
22	0	0	3701	5	4043	0
23	0	0	3835	5	4043	0
24	0	0	3908	5	4044	0
25	0	0	3949	5	4044	0
26	0	0	3968	5	4044	0
27	0	0	3976	5	4043	0
28	0	0	3538	4	4043	0
29	0	0	2492	4	4043	0
30	0	0	1475	4	4044	0
31	0	0	826	4	4044	0
32	0	0	453	4	4043	0
33	0	0	241	4	4043	0
34	0	0	124	4	4043	0
35	0	0	61	4	4044	0
36	0	0	28	4	4044	0
37	0	0	542	5	4043	0
38	0	0	1505	5	4042	0
39	0	0	2489	5	4043	0
40	0	0	3111	5	4044	0
41	0	0	3487	5	4044	0
42	0	0	3709	5	4043	0
43	0	0	3835	5	4043	0
44	0	0	3905	5	4043	0
45	0	0	3944	5	4044	0
46	0	0	3961	5	4044	0
47	0	0	3971	5	4045	0
48	0	0	3427	4	4043	0
49	0	0	2329	4	4044	0
50	0	0	1338	4	4044	0
51	0	0	744	4	4044	0
52	0	0	402	3	4045	0
53	0	0	210	4	4043	0
54	0	0	102	4	4044	0
55	0	0	46	4	4044	0
56	0	0	17	4	4044	0
57	0	0	329	5	4043	0
58	0	0	1264	4	4043	0
59	0	0	2289	5	4044	0
60	0	0	2987	5	4043	0
61	0	0	3413	5	4044	0
62	0	0	3663	5	4043	0
63	0	0	3807	5	4043	0
64	0	0	3888	5	4043	0
65	0	0	3931	5	4044	0
66	0	0	3955	5	4045	0
67	0	0	3915	4	4043	0
68	0	0	3122	4	4045	0
69	0	0	1993	3	4043	0
70	0	0	1131	4	4044	0
71	0	0	625	4	4044	0
72	0	0	332	4	4043	0
73	0	0	169	4	4043	0
74	0	0	81	4	4044	0
75	0	0	35	4	4044	0
76	0	0	11	4	4044	0
77	0	0	2	4	4043	0
78	0	0	692	5	4043	0
79	0	0	1646	5	4044	0
80	0	0	2578	4	4045	0
81	0	0	3163	4	4044	0
82	0	0	3518	5	4044	0
83	0	0	3726	5	4043	0
84	0	0	3844	5	4043	0
85	0	0	3911	5	4043	0
86	0	0	3947	4	4044	0
87	0	0	3961	5	4043	0
88	0	0	3423	4	4044	0
89	0	0	2385	5	4044	0
90	0	0	1374	4	4044	0
91	0	0	772	4	4044	0
92	0	0	421	4	4043	0
93	0	0	220	4	4044	0
94	0	0	112	4	4044	0
95	0	0	53	4	4044	0
96	0	0	24	4	4044	0
97	0	0	340	4	4043	0
98	0	0	1250	5	4043	0
99	0	0	2277	5	4043	0
100	0	0	2988	5	4043	0
101	0	0	3410	4	4044	0
102	0	0	3664	5	4043	0
103	0	0	3811	5	4043	0
104	0	0	3893	5	4043	0
105	0	0	3936	5	4044	0
106	0	0	3960	5	4045	0
107	0	0	3933	4	4043	0
108	0	0	3172	4	4045	0
109	0	0	2077	4	4043	0
110	0	0	1173	4	4044	0
111	0	0	655	3	4045	0
112	0	0	352	4	4043	0
113	0	0	181	5	4043	0
114	0	0	89	4	4044	0
115	0	0	41	4	4043	0
116	0	0	17	4	4044	0
117	0	0	156	5	4043	0
118	0	0	1035	5	4043	0
119	0	0	2086	5	4044	0
120	0	0	2876	4	4045	0
121	0	0	3348	4	4044	0
122	0	0	3625	5	4043	0
123	0	0	3788	5	4044	0
124	0	0	3879	5	4044	0
125	0	0	3931	5	4044	0
126	0	0	3955	4	4044	1
127	0	0	3940	4	4043	0
0	0	0	3191	4	4043	0
1	0	0	2124	4	4043	0
2	0	0	1200	3	4044	0
3	0	0	668	4	4044	0
4	0	0	363	4	4043	0
5	0	0	188	4	4045	0
6	0	0	93	4	4043	0
7	0	0	44	4	4044	0
8	0	0	20	4	4045	0
9	0	0	222	5	4043	0
10	0	0	1132	5	4043	0
11	0	0	2162	5	4044	0
12	0	0	2921	5	4044	0
13	0	0	3375	5	4044	0
14	0	0	3642	5	4044	0
15	0	0	3799	5	4043	0
16	0	0	3887	5	4044	0
17	0	0	3936	5	4045	0
18	0	0	3958	5	4044	0
19	0	0	3969	4	4043	0
20	0	0	3249	4	4043	0
21	0	0	2175	4	4043	0
22	0	0	1230	4	4044	0
23	0	0	684	4	4044	0
24	0	0	373	4	4043	0
25	0	0	194	3	4044	0
26	0	0	96	4	4044	0
27	0	0	47	4	4044	0
28	0	0	20	4	4044	0
29	0	0	229	5	4043	0
30	0	0	1147	5	4043	0
31	0	0	2181	5	4043	0
32	0	0	2932	5	4044	0
33	0	0	3382	4	4044	0
34	0	0	3646	5	4043	0
35	0	0	3801	5	4045	0
36	0	0	3889	6	4044	0
37	0	0	3935	5	4044	0
38	0	0	3961	5	4044	0
39	0	0	3950	4	4043	0
40	0	0	3187	3	4043	0
41	0	0	2096	4	4043	0
42	0	0	1184	4	4044	0
43	0	0	658	3	4044	0
44	0	0	357	4	4043	0
45	0	0	186	4	4043	0
46	0	0	92	4	4044	0
47	0	0	44	4	4043	0
48	0	0	19	4	4044	0
49	0	0	319	5	4043	0
50	0	0	1287	5	4043	0
51	0	0	2313	5	4044	0
52	0	0	3012	5	4045	0
53	0	0	3428	4	4044	0
54	0	0	3677	5	4045	0
55	0	0	3816	5	4043	0
56	0	0	3895	5	4043	0
57	0	0	3939	5	4044	0
58	0	0	3961	5	4044	0
59	0	0	3970	5	4044	0
60	0	0	3367	4	4044	0
61	0	0	2271	4	4043	0
62	0	0	1286	3	4044	0
63	0	0	716	3	4044	0
64	0	0	387	4	4043	0
65	0	0	203	4	4043	0
66	0	0	100	4	4044	0
67	0	0	47	4	4044	0
68	0	0	20	3	4044	0
69	0	0	280	4	4043	0
70	0	0	1205	5	4043	0
71	0	0	2234	5	4044	0
72	0	0	2956	3	4044	0
73	0	0	3394	5	4044	0
74	0	0	3655	4	4043	0
75	0	0	3803	4	4043	0
76	0	0	3888	5	4044	0
77	0	0	3935	5	4045	0
78	0	0	3956	5	4044	0
79	0	0	3905	4	4045	0
80	0	0	3118	4	4043	0
81	0	0	2019	4	4043	0
82	0	0	1147	5	4044	0
83	0	0	635	4	4044	0
84	0	0	341	4	4043	0
85	0	0	177	4	4043	0
86	0	0	85	4	4043	0
87	0	0	38	5	4044	0
88	0	0	16	4	4044	0
89	0	0	259	5	4043	0
90	0	0	1176	5	4043	0
91	0	0	2212	5	4044	0
92	0	0	2943	5	4044	0
93	0	0	3389	5	4045	0
94	0	0	3650	5	4043	0
95	0	0	3803	5	4043	0
96	0	0	3886	5	4043	0
97	0	0	3935	3	4044	0
98	0	0	3957	5	4044	0
99	0	0	3889	4	4043	0
100	0	0	3092	4	4043	0
101	0	0	1989	4	4043	0
102	0	0	1130	2	4044	0
103	0	0	627	4	4044	0
104	0	0	336	4	4043	0
105	0	0	173	4	4043	0
106	0	0	85	4	4043	0
107	0	0	39	2	4044	0
108	0	0	16	3	4044	0
109	0	0	26	5	4043	0
110	0	0	832	5	4043	0
111	0	0	1851	5	4044	0
112	0	0	2736	5	4045	0
113	0	0	3261	5	4045	0
114	0	0	3577	4	4043	0
115	0	0	3763	5	4043	0
116	0	0	3867	5	4044	0
117	0	0	3924	3	4044	0
118	0	0	3955	5	4044	0
119	0	0	3969	6	4043	0
120	0	0	3336	3	4045	0
121	0	0	2282	5	4044	0
122	0	0	1297	5	4044	0
123	0	0	731	4	4044	0
124	0	0	397	4	4043	0
125	0	0	209	4	4043	0
126	0	0	107	4	4044	0
127	0	0	52	4	4045	0
0	0	0	25	4	4044	0
1	0	0	13	4	4043	0
2	0	0	604	5	4043	0
3	0	0	1405	5	4044	0
4	0	0	1651	5	4044	0
5	0	0	1329	4	4045	0
6	0	0	1118	4	4043	0
7	0	0	1223	5	4043	0
8	0	0	1546	5	4043	0
9	0	0	1996	5	4043	0
10	0	0	2572	4	4044	0
11	0	0	3165	5	4044	0
12	0	0	3522	5	4043	0
13	0	0	3738	5	4044	0
14	0	0	3863	5	4045	0
15	0	0	3929	6	4044	0
16	0	0	3964	5	4044	0
17	0	0	3983	5	4045	0
18	0	0	3663	4	4044	0
19	0	0	2673	5	4043	0
20	0	0	1621	4	4044	0
21	0	0	917	4	4043	0
22	0	0	512	3	4044	0
23	0	0	282	3	4044	0
24	0	0	152	4	4043	0
25	0	0	83	4	4044	0
26	0	0	48	4	4045	0
27	0	0	114	4	4043	0
28	0	0	722	5	4043	0
29	0	0	1411	5	4044	0
30	0	0	2157	5	4045	0
31	0	0	2894	5	4044	0
32	0	0	3366	5	4044	0
33	0	0	3645	5	4044	0
34	0	0	3808	6	4044	0
35	0	0	3900	5	4044	0
36	0	0	3949	5	4044	0
37	0	0	3975	5	4044	0
38	0	0	3601	4	4044	0
39	0	0	2599	4	4043	0
40	0	0	1573	4	4044	0
41	0	0	892	4	4043	0
42	0	0	498	4	4044	0
43	0	0	276	4	4044	0
44	0	0	151	4	4045	0
45	0	0	83	4	4044	0
46	0	0	50	5	4044	0
47	0	0	159	4	4043	0
48	0	0	758	4	4044	0
49	0	0	1432	4	4045	0
50	0	0	2148	5	4044	0
51	0	0	2883	5	4044	0
52	0	0	3362	5	4045	0
53	0	0	3644	5	4044	0
54	0	0	3810	5	4043	0
55	0	0	3902	5	4044	0
56	0	0	3955	5	4045	0
57	0	0	3978	5	4044	0
58	0	0	3670	4	4044	0
59	0	0	2698	4	4044	0
60	0	0	1684	3	4044	0
61	0	0	957	4	4044	0
62	0	0	539	4	4043	0
63	0	0	299	4	4043	0
64	0	0	166	4	4044	0
65	0	0	93	4	4045	0
66	0	0	56	4	4043	0
67	0	0	200	5	4043	0
68	0	0	789	5	4044	0
69	0	0	1451	5	4044	0
70	0	0	2175	5	4044	0
71	0	0	2911	5	4045	0
72	0	0	3377	5	4043	0
73	0	0	3656	5	4044	0
74	0	0	3817	6	4044	0
75	0	0	3907	5	4044	0
76	0	0	3956	5	4044	0
77	0	0	3982	5	4045	0
78	0	0	3747	4	4044	0
79	0	0	2787	4	4043	0
80	0	0	1771	4	4044	0
81	0	0	1015	3	4043	0
82	0	0	572	4	4044	0
83	0	0	317	4	4044	0
84	0	0	177	3	4045	0
85	0	0	100	4	4044	0
86	0	0	60	4	4045	0
87	0	0	236	4	4043	0
88	0	0	842	4	4043	0
89	0	0	1518	5	4043	0
90	0	0	2249	4	4044	0
91	0	0	2954	5	4044	0
92	0	0	3405	5	4043	0
93	0	0	3673	5	4044	0
94	0	0	3826	5	4044	0
95	0	0	3911	5	4044	0
96	0	0	3959	5	4044	0
97	0	0	3983	5	4043	0
98	0	0	3682	4	4043	0
99	0	0	2741	4	4044	0
100	0	0	1757	4	4045	0
101	0	0	1017	4	4044	0
102	0	0	1029	4	4045	0
103	0	0	1701	6	4044	0
104	0	0	2608	5	4044	0
105	0	0	3190	5	4044	0
106	0	0	3533	5	4043	0
107	0	0	3733	5	4045	0
108	0	0	3843	5	4043	0
109	0	0	3905	5	4044	0
110	0	0	3938	4	4045	0
111	0	0	3952	5	4044	0
112	0	0	3384	4	4044	0
113	0	0	2342	4	4044	0
114	0	0	1327	4	4045	0
115	0	0	741	4	4044	0
116	0	0	398	4	4044	0
117	0	0	204	3	4045	0
118	0	0	98	5	4044	0
119	0	0	41	4	4043	0
120	0	0	12	4	4044	0
121	0	0	287	5	4043	0
122	0	0	1185	5	4044	0
123	0	0	2198	5	4044	0
124	0	0	2938	5	4044	0
125	0	0	3376	5	4044	0
126	0	0	3640	5	4044	0
127	0	0	3792	5	4044	0
0	0	0	3877	5	4043	0
1	0	0	3925	5	4043	0
2	0	0	3946	5	4044	0
3	0	0	3851	4	4045	0
4	0	0	3070	4	4043	0
5	0	0	1996	4	4044	0
6	0	0	1123	4	4044	0
7	0	0	622	3	4044	0
8	0	0	330	4	4043	0
9	0	0	165	4	4043	0
10	0	0	76	5	4043	0
11	0	0	30	4	4043	0
12	0	0	7	4	4044	0
13	0	0	223	5	4043	0
14	0	0	1127	5	4043	0
15	0	0	2143	5	4043	0
16	0	0	2905	5	4043	0
17	0	0	3358	4	4044	0
18	0	0	3631	5	4044	0
19	0	0	3788	5	4044	0
20	0	0	3876	5	4043	0
21	0	0	3925	5	4044	0
22	0	0	3950	5	4045	0
23	0	0	3745	4	4043	0
24	0	0	2929	3	4045	0
25	0	0	1869	4	4044	0
26	0	0	1052	4	4043	0
27	0	0	578	4	4044	0
28	0	0	309	4	4043	0
29	0	0	155	4	4043	0
30	0	0	72	4	4043	0
31	0	0	30	5	4043	0
32	0	0	10	4	4044	0
33	0	0	262	5	4045	0
34	0	0	1189	5	4043	0
35	0	0	2204	5	4043	0
36	0	0	2943	4	4044	0
37	0	0	3388	4	4045	0
38	0	0	3646	5	4043	0
39	0	0	3799	5	4043	0
40	0	0	3885	5	4044	0
41	0	0	3932	5	4044	0
42	0	0	3953	5	4044	0
43	0	0	3719	4	4043	0
44	0	0	2877	4	4043	0
45	0	0	1836	4	4043	0
46	0	0	1035	4	4043	0
47	0	0	570	4	4044	0
48	0	0	306	4	4043	0
49	0	0	156	4	4043	0
50	0	0	74	4	4043	0
51	0	0	32	4	4043	0
52	0	0	13	3	4044	0
53	0	0	302	5	4045	0
54	0	0	1248	5	4043	0
55	0	0	2248	5	4044	0
56	0	0	2972	4	4045	0
57	0	0	3404	5	4044	0
58	0	0	3658	5	4043	0
59	0	0	3808	5	4043	0
60	0	0	3890	5	4044	0
61	0	0	3937	5	4044	0
62	0	0	3958	5	4044	0
63	0	0	3753	4	4043	0
64	0	0	2904	3	4045	0
65	0	0	1853	4	4044	0
66	0	0	1045	4	4044	0
67	0	0	577	3	4044	0
68	0	0	308	4	4043	0
69	0	0	160	4	4043	0
70	0	0	78	4	4044	0
71	0	0	35	4	4044	0
72	0	0	16	4	4044	0
73	0	0	422	5	4043	0
74	0	0	1409	5	4043	0
75	0	0	2405	3	4044	0
76	0	0	3065	5	4043	0
77	0	0	3461	4	4044	0
78	0	0	3695	5	4043	0
79	0	0	3828	5	4043	0
80	0	0	3903	5	4043	0
81	0	0	3943	5	4044	0
82	0	0	3964	5	4045	0
83	0	0	3677	4	4043	0
84	0	0	2796	3	4045	0
85	0	0	1752	3	4044	0
86	0	0	993	4	4043	0
87	0	0	548	3	4044	0
88	0	0	292	4	4043	0
89	0	0	152	3	4043	0
90	0	0	75	4	4043	0
91	0	0	34	5	4043	0
92	0	0	16	3	4044	0
93	0	0	565	5	4043	0
94	0	0	1569	5	4043	0
95	0	0	2539	5	4044	0
96	0	0	3143	5	4045	0
97	0	0	3506	6	4044	0
98	0	0	3721	5	4043	0
99	0	0	3843	4	4044	0
100	0	0	3911	5	4043	0
101	0	0	3948	4	4043	0
102	0	0	3965	4	4044	0
103	0	0	3610	3	4043	0
104	0	0	2698	3	4045	0
105	0	0	1650	4	4043	0
106	0	0	934	4	4043	0
107	0	0	514	5	4044	0
108	0	0	274	4	4043	0
109	0	0	141	3	4045	0
110	0	0	69	4	4044	0
111	0	0	32	4	4044	0
112	0	0	15	4	4044	0
113	0	0	804	5	4043	0
114	0	0	1924	4	4043	0
115	0	0	2780	6	4044	0
116	0	0	3287	5	4044	0
117	0	0	3592	6	4044	0
118	0	0	3771	5	4043	0
119	0	0	3871	4	4045	0
120	0	0	3928	4	4044	0
121	0	0	3955	5	4044	0
122	0	0	3969	5	4045	0
123	0	0	3479	4	4044	0
124	0	0	2441	4	4044	0
125	0	0	1422	4	4044	0
126	0	0	801	4	4045	0
127	0	0	437	4	4044	0
0	0	0	230	4	4044	0
1	0	0	116	4	4043	0
2	0	0	55	4	4044	0
3	0	0	25	4	4044	0
4	0	0	124	5	4044	0
5	0	0	1147	5	4043	0
6	0	0	2279	4	4043	0
7	0	0	2991	5	4044	0
8	0	0	3413	5	4044	0
9	0	0	3666	5	4044	0
10	0	0	3811	5	4044	0
11	0	0	3895	3	4045	0
12	0	0	3938	5	4045	0
13	0	0	3959	5	4044	0
14	0	0	3970	5	4045	0
15	0	0	3597	4	4044	0
16	0	0	2544	2	4045	0
17	0	0	1499	4	4045	0
18	0	0	838	4	4044	0
19	0	0	459	3	4044	0
20	0	0	241	3	4043	0
21	0	0	119	3	4043	0
22	0	0	55	4	4044	0
23	0	0	22	4	4044	0
24	0	0	297	5	4045	0
25	0	0	1390	5	4044	0
26	0	0	2442	5	4044	0
27	0	0	3086	5	4044	0
28	0	0	3471	5	4045	0
29	0	0	3694	5	4044	0
30	0	0	3824	5	4043	0
31	0	0	3897	5	4044	0
32	0	0	3936	5	4044	0
33	0	0	3957	5	4045	0
34	0	0	3963	5	4044	0
35	0	0	3613	4	4043	0
36	0	0	2568	4	4044	0
37	0	0	1509	4	4044	0
38	0	0	840	4	4044	0
39	0	0	458	4	4045	0
40	0	0	236	4	4043	0
41	0	0	113	4	4043	0
42	0	0	47	4	4043	0
43	0	0	15	5	4044	0
44	0	0	321	4	4044	0
45	0	0	1412	4	4043	0
46	0	0	2453	5	4044	0
47	0	0	3091	5	4045	0
48	0	0	3469	5	4044	0
49	0	0	3691	4	4044	0
50	0	0	3818	5	4044	0
51	0	0	3891	4	4045	0
52	0	0	3930	5	4045	0
53	0	0	3948	5	4044	0
54	0	0	3957	5	4045	0
55	0	0	3645	4	4044	0
56	0	0	2600	4	4045	0
57	0	0	1531	4	4045	0
58	0	0	849	4	4044	0
59	0	0	456	4	4044	0
60	0	0	233	4	4043	0
61	0	0	109	4	4043	0
62	0	0	41	4	4044	0
63	0	0	7	4	4044	0
64	0	0	358	4	4044	0
65	0	0	1488	5	4045	0
66	0	0	2510	5	4043	0
67	0	0	3115	5	4044	0
68	0	0	3481	5	4044	0
69	0	0	3698	5	4045	0
70	0	0	3817	5	4043	0
71	0	0	3886	5	4044	0
72	0	0	3922	5	4044	0
73	0	0	3941	5	4044	0
74	0	0	3946	5	4044	0
75	0	0	3714	4	4043	0
76	0	0	2683	4	4043	0
77	0	0	1605	3	4044	0
78	0	0	889	5	4043	0
79	0	0	475	3	4044	0
80	0	0	240	4	4043	0
81	0	0	109	4	4044	0
82	0	0	37	3	4044	0
83	0	0	0	4	4044	0
84	0	0	366	4	4044	0
85	0	0	1482	5	4043	0
86	0	0	2504	5	4043	0
87	0	0	3108	5	4044	0
88	0	0	3473	5	4044	0
89	0	0	3687	5	4044	0
90	0	0	3808	4	4044	0
91	0	0	3877	5	4044	0
92	0	0	3912	5	4043	0
93	0	0	3932	5	4044	0
94	0	0	3940	5	4045	0
95	0	0	3666	4	4043	0
96	0	0	2587	4	4045	0
97	0	0	1508	4	4043	0
98	0	0	828	4	4043	0
99	0	0	436	4	4045	0
100	0	0	215	4	4043	0
101	0	0	90	4	4044	0
102	0	0	24	4	4043	0
103	0	0	0	5	4043	0
104	0	0	23	4	4044	0
105	0	0	1098	4	4044	0
106	0	0	2234	5	4043	0
107	0	0	2940	4	4043	0
108	0	0	3372	5	4043	0
109	0	0	3627	5	4045	0
110	0	0	3771	5	4043	0
111	0	0	3854	5	4045	0
112	0	0	3899	4	4043	0
113	0	0	3921	5	4043	0
114	0	0	3931	4	4044	0
115	0	0	3263	4	4043	0
116	0	0	2129	4	4043	0
117	0	0	1198	3	4043	0
118	0	0	650	3	4043	0
119	0	0	334	3	4044	0
120	0	0	155	4	4043	0
121	0	0	58	4	4043	0
122	0	0	7	4	4044	0
123	0	0	0	4	4045	0
124	0	0	0	4	4044	0
125	0	0	985	5	4045	0
126	0	0	2157	5	4043	0
127	0	0	2897	5	4043	0
0	0	0	3346	5	4044	0
1	0	0	3611	4	4044	0
2	0	0	3766	5	4043	0
3	0	0	3852	5	4044	0
4	0	0	3898	5	4044	0
5	0	0	3923	5	4043	0
6	0	0	3933	5	4044	0
7	0	0	3428	4	4043	0
8	0	0	2335	4	4043	0
9	0	0	1332	4	4043	0
10	0	0	733	3	4044	0
11	0	0	383	4	4045	0
12	0	0	182	4	4043	0
13	0	0	74	4	4044	0
14	0	0	16	4	4045	0
15	0	0	0	4	4044	0
16	0	0	93	4	4044	0
17	0	0	1110	5	4043	0
18	0	0	2241	5	4043	0
19	0	0	2953	5	4043	0
20	0	0	3377	5	4043	0
21	0	0	3630	3	4044	0
22	0	0	3776	5	4043	0
23	0	0	3857	5	4043	0
24	0	0	3901	5	4043	0
25	0	0	3924	5	4043	0
26	0	0	3933	4	4044	0
27	0	0	3485	4	4045	0
28	0	0	2410	4	4043	0
29	0	0	1388	3	4044	0
30	0	0	766	3	4044	0
31	0	0	400	5	4044	0
32	0	0	192	4	4043	0
33	0	0	78	4	4043	0
34	0	0	18	4	4043	0
35	0	0	0	4	4044	0
36	0	0	92	5	4044	0
37	0	0	1126	5	4043	0
38	0	0	2258	5	4043	0
39	0	0	2962	5	4043	0
40	0	0	3381	5	4043	0
41	0	0	3631	3	4044	0
42	0	0	3776	5	4043	0
43	0	0	3857	5	4045	0
44	0	0	3902	5	4043	0
45	0	0	3922	4	4044	0
46	0	0	3934	5	4045	0
47	0	0	3485	4	4043	0
48	0	0	2402	4	4045	0
49	0	0	1378	4	4043	0
50	0	0	753	3	4044	0
51	0	0	396	3	4044	0
52	0	0	189	4	4043	0
53	0	0	76	4	4043	0
54	0	0	15	4	4043	0
55	0	0	0	4	4043	0
56	0	0	244	3	4044	0
57	0	0	1087	5	4043	0
58	0	0	2211	5	4043	0
59	0	0	2934	5	4044	0
60	0	0	3368	5	4045	0
61	0	0	3620	4	4044	0
62	0	0	3772	5	4045	0
63	0	0	3853	5	4043	0
64	0	0	3896	5	4043	0
65	0	0	3920	5	4044	0
66	0	0	3930	5	4044	0
67	0	0	3423	4	4043	0
68	0	0	2349	4	4043	0
69	0	0	1339	3	4043	0
70	0	0	730	4	4044	0
71	0	0	382	4	4044	0
72	0	0	181	3	4043	0
73	0	0	70	4	4043	0
74	0	0	12	4	4044	0
75	0	0	0	4	4043	0
76	0	0	0	5	4045	0
77	0	0	1064	5	4043	0
78	0	0	2202	5	4045	0
79	0	0	2929	5	4043	0
80	0	0	3364	5	4044	0
81	0	0	3618	4	4044	0
82	0	0	3770	5	4044	0
83	0	0	3852	6	4043	0
84	0	0	3896	5	4044	0
85	0	0	3920	5	4043	0
86	0	0	3929	4	4044	0
87	0	0	3513	4	4043	0
88	0	0	2425	4	4043	0
89	0	0	1389	4	4043	0
90	0	0	759	4	4043	0
91	0	0	398	4	4044	0
92	0	0	190	4	4043	0
93	0	0	75	4	4043	0
94	0	0	14	4	4043	0
95	0	0	0	4	4043	0
96	0	0	0	5	4044	0
97	0	0	1067	5	4043	0
98	0	0	2204	4	4044	0
99	0	0	2929	5	4043	0
100	0	0	3364	5	4043	0
101	0	0	3618	5	4044	0
102	0	0	3767	5	4043	0
103	0	0	3850	5	4044	0
104	0	0	3896	5	4044	0
105	0	0	3920	5	4045	0
106	0	0	3928	4	4044	0
107	0	0	3289	4	4043	0
108	0	0	2151	4	4045	0
109	0	0	1200	4	4044	0
110	0	0	650	3	4043	0
111	0	0	332	2	4044	0
112	0	0	155	4	4045	0
113	0	0	56	4	4043	0
114	0	0	5	5	4044	0
115	0	0	0	4	4043	0
116	0	0	0	5	4044	0
117	0	0	1098	5	4043	0
118	0	0	2241	6	4043	0
119	0	0	2946	5	4043	0
120	0	0	3374	5	4043	0
121	0	0	3629	5	4045	0
122	0	0	3772	5	4043	0
123	0	0	3853	4	4044	0
124	0	0	3897	6	4043	0
125	0	0	3921	5	4044	0
126	0	0	3930	5	4044	0
127	0	0	3280	4	4044	0
0	0	0	2120	4	4043	0
1	0	0	1190	4	4043	0
2	0	0	646	4	4043	0
3	0	0	330	4	4044	0
4	0	0	154	4	4043	0
5	0	0	56	4	4043	0
6	0	0	6	4	4043	0
7	0	0	0	4	4043	0
8	0	0	86	4	4044	0
9	0	0	1151	5	4043	0
10	0	0	2280	4	4043	0
11	0	0	2969	5	4043	0
12	0	0	3389	5	4044	0
13	0	0	3636	4	4044	0
14	0	0	3779	5	4043	0
15	0	0	3859	5	4045	0
16	0	0	3903	4	4044	0
17	0	0	3923	5	4043	0
18	0	0	3931	5	4044	0
19	0	0	3200	4	4043	0
20	0	0	2022	3	4043	0
21	0	0	1134	4	4043	0
22	0	0	613	4	4044	0
23	0	0	312	4	4044	0
24	0	0	143	4	4045	0
25	0	0	53	4	4043	0
26	0	0	4	3	4043	0
27	0	0	0	4	4044	0
28	0	0	0	5	4044	0
29	0	0	963	5	4043	0
30	0	0	2142	5	4043	0
31	0	0	2887	4	4044	0
32	0	0	3342	5	4044	0
33	0	0	3609	4	4044	0
34	0	0	3765	5	4044	0
35	0	0	3852	5	4043	0
36	0	0	3899	5	4043	0
37	0	0	3923	5	4044	0
38	0	0	3936	5	4045	0
39	0	0	3181	4	4043	0
40	0	0	2005	4	4045	0
41	0	0	1119	4	4044	0
42	0	0	610	4	4044	0
43	0	0	312	4	4044	0
44	0	0	145	4	4043	0
45	0	0	56	4	4044	0
46	0	0	7	4	4043	0
47	0	0	0	4	4044	0
48	0	0	0	5	4044	0
49	0	0	924	5	4043	0
50	0	0	2105	5	4043	0
51	0	0	2874	5	4044	0
52	0	0	3332	5	4045	0
53	0	0	3605	5	4044	0
54	0	0	3766	5	4045	0
55	0	0	3853	4	4044	0
56	0	0	3902	6	4043	0
57	0	0	3927	5	4044	0
58	0	0	3937	4	4044	0
59	0	0	3093	4	4043	0
60	0	0	1914	4	4043	0
61	0	0	1068	3	4043	0
62	0	0	583	4	4044	0
63	0	0	298	3	4044	0
64	0	0	141	4	4043	0
65	0	0	54	4	4043	0
66	0	0	9	3	4044	0
67	0	0	0	4	4044	0
68	0	0	0	4	4045	0
69	0	0	839	5	4043	0
70	0	0	2038	4	4044	0
71	0	0	2838	5	4044	0
72	0	0	3311	5	4044	0
73	0	0	3596	5	4044	0
74	0	0	3761	5	4044	0
75	0	0	3855	5	4045	0
76	0	0	3905	6	4044	0
77	0	0	3932	5	4044	0
78	0	0	3943	4	4044	0
79	0	0	3061	4	4043	0
80	0	0	1886	4	4043	0
81	0	0	1053	4	4044	0
82	0	0	574	4	4045	0
83	0	0	299	4	4044	0
84	0	0	143	4	4043	0
85	0	0	59	4	4045	0
86	0	0	15	4	4045	0
87	0	0	0	4	4044	0
88	0	0	0	4	4044	0
89	0	0	793	5	4043	0
90	0	0	1977	5	4043	0
91	0	0	2805	6	4043	0
92	0	0	3300	5	4043	0
93	0	0	3589	5	4044	0
94	0	0	3760	5	4043	0
95	0	0	3857	5	4043	0
96	0	0	3910	4	4043	0
97	0	0	3937	5	4044	0
98	0	0	3949	5	4044	0
99	0	0	3131	4	4045	0
100	0	0	1968	5	4043	0
101	0	0	1103	4	4044	0
102	0	0	605	3	4044	0
103	0	0	320	4	4044	0
104	0	0	158	4	4043	0
105	0	0	69	4	4043	0
106	0	0	23	4	4043	0
107	0	0	1	4	4044	0
108	0	0	0	4	4044	0
109	0	0	785	5	4043	0
110	0	0	1970	5	4043	0
111	0	0	2802	4	4043	0
112	0	0	3300	5	4044	0
113	0	0	3593	5	4045	0
114	0	0	3764	5	4044	0
115	0	0	3862	5	4043	0
116	0	0	3915	6	4044	0
117	0	0	3943	5	4044	0
118	0	0	3955	5	4044	0
119	0	0	3189	4	4044	0
120	0	0	2039	4	4043	0
121	0	0	1146	4	4043	0
122	0	0	632	4	4044	0
123	0	0	335	4	4044	0
124	0	0	170	4	4043	0
125	0	0	78	4	4043	0
126	0	0	30	3	4044	0
127	0	0	7	4	4044	0
0	0	0	0	4	4045	0
1	0	0	730	5	4043	0
2	0	0	1932	5	4044	0
3	0	0	2773	5	4043	0
4	0	0	3286	5	4044	0
5	0	0	3588	5	4044	0
6	0	0	3763	5	4044	0
7	0	0	3863	5	4043	0
8	0	0	3918	5	4044	0
9	0	0	3948	4	4045	0
10	0	0	3960	5	4044	0
11	0	0	3237	4	4044	0
12	0	0	2063	3	4043	0
13	0	0	1170	3	4044	0
14	0	0	648	3	4044	0
15	0	0	346	4	4044	0
16	0	0	178	4	4043	0
17	0	0	85	4	4045	0
18	0	0	35	5	4043	0
19	0	0	13	4	4044	0
20	0	0	3	4	4044	0
21	0	0	788	5	4043	0
22	0	0	1994	5	4043	0
23	0	0	2812	4	4044	0
24	0	0	3310	5	4044	0
25	0	0	3604	5	4044	0
26	0	0	3777	5	4045	0
27	0	0	3872	5	4043	0
28	0	0	3923	5	4044	0
29	0	0	3954	5	4045	0
30	0	0	3964	5	4043	0
31	0	0	3258	4	4043	0
32	0	0	2091	4	4043	0
33	0	0	1188	3	4044	0
34	0	0	660	4	4044	0
35	0	0	354	4	4044	0
36	0	0	183	4	4043	0
37	0	0	90	4	4043	0
38	0	0	41	3	4044	0
39	0	0	17	4	4044	0
40	0	0	6	4	4044	0
41	0	0	862	5	4043	0
42	0	0	2071	5	4044	0
43	0	0	2860	4	4045	0
44	0	0	3339	5	4044	0
45	0	0	3624	5	4045	0
46	0	0	3788	5	4043	0
47	0	0	3880	5	4045	0
48	0	0	3931	5	4043	0
49	0	0	3957	5	4044	0
50	0	0	3967	5	4044	0
51	0	0	3198	4	4043	0
52	0	0	1997	3	4043	0
53	0	0	1128	4	4043	0
54	0	0	631	4	4043	0
55	0	0	339	4	4044	0
56	0	0	176	4	4043	0
57	0	0	87	4	4043	0
58	0	0	40	4	4044	0
59	0	0	18	4	4045	0
60	0	0	9	4	4044	0
61	0	0	911	4	4045	0
62	0	0	2109	5	4043	0
63	0	0	2892	5	4043	0
64	0	0	3359	5	4044	0
65	0	0	3634	5	4044	0
66	0	0	3795	5	4043	0
67	0	0	3886	5	4043	0
68	0	0	3935	5	4044	0
69	0	0	3960	5	4044	0
70	0	0	3971	4	4044	0
71	0	0	3145	4	4043	0
72	0	0	1940	4	4043	0
73	0	0	1096	3	4044	0
74	0	0	609	4	4044	0
75	0	0	328	4	4045	0
76	0	0	172	4	4043	0
77	0	0	87	4	4045	0
78	0	0	42	4	4044	0
79	0	0	21	4	4044	0
80	0	0	12	6	4044	0
81	0	0	1025	5	4043	0
82	0	0	2224	5	4043	0
83	0	0	2954	5	4043	0
84	0	0	3399	5	4043	0
85	0	0	3660	5	4043	0
86	0	0	3810	4	4043	0
87	0	0	3895	5	4043	0
88	0	0	3942	4	4044	0
89	0	0	3965	5	4044	0
90	0	0	3975	5	4043	0
91	0	0	3494	4	4045	0
92	0	0	2194	5	4044	0
93	0	0	1251	4	4044	0
94	0	0	699	4	4045	0
95	0	0	379	4	4044	0
96	0	0	202	4	4043	0
97	0	0	102	4	4043	0
98	0	0	50	4	4044	0
99	0	0	24	4	4043	0
100	0	0	13	4	4044	0
101	0	0	10	4	4044	0
102	0	0	11	4	4043	0
103	0	0	419	5	4043	0
104	0	0	1030	5	4043	0
105	0	0	1604	5	4044	0
106	0	0	2240	5	4043	0
107	0	0	2836	5	4043	0
108	0	0	3262	5	4044	0
109	0	0	3507	4	4044	0
110	0	0	3540	4	4044	0
111	0	0	3338	4	4043	0
112	0	0	2948	4	4045	0
113	0	0	2426	4	4045	0
114	0	0	1905	4	4044	0
115	0	0	1473	3	4044	0
116	0	0	930	4	4043	0
117	0	0	534	4	4043	0
118	0	0	305	4	4043	0
119	0	0	179	4	4043	0
120	0	0	112	4	4043	0
121	0	0	435	4	4045	0
122	0	0	998	5	4043	0
123	0	0	1610	5	4044	0
124	0	0	2260	4	4044	0
125	0	0	2830	5	4043	0
126	0	0	3327	5	4043	0
127	0	0	3629	4	4044	0
0	0	0	3809	5	4044	0
1	0	0	3908	5	4044	0
2	0	0	3799	4	4043	0
3	0	0	3384	4	4043	0
4	0	0	2862	4	4043	0
5	0	0	2261	3	4043	0
6	0	0	1595	4	4044	0
7	0	0	1005	3	4044	0
8	0	0	575	4	4044	0
9	0	0	331	4	4043	0
10	0	0	193	4	4043	0
11	0	0	119	4	4044	0
12	0	0	81	4	4044	0
13	0	0	491	5	4043	0
14	0	0	1111	4	4044	0
15	0	0	1786	4	4045	0
16	0	0	2537	5	4044	0
17	0	0	3149	5	4043	0
18	0	0	3527	5	4043	0
19	0	0	3750	5	4043	0
20	0	0	3879	5	4044	0
21	0	0	3951	5	4044	0
22	0	0	3769	4	4044	0
23	0	0	3223	4	4043	0
24	0	0	2578	4	4043	0
25	0	0	1835	4	4043	0
26	0	0	1067	4	4044	0
27	0	0	612	4	4043	0
28	0	0	351	4	4045	0
29	0	0	207	4	4043	0
30	0	0	128	4	4044	0
31	0	0	86	4	4044	0
32	0	0	68	4	4043	0
33	0	0	618	4	4043	0
34	0	0	1346	4	4044	0
35	0	0	2092	5	4043	0
36	0	0	2862	5	4044	0
37	0	0	3360	5	4044	0
38	0	0	3657	5	4043	0
39	0	0	3829	4	4044	0
40	0	0	3927	5	4045	0
41	0	0	3933	4	4044	0
42	0	0	3420	4	4043	0
43	0	0	2792	4	4043	0
44	0	0	2069	3	4045	0
45	0	0	1300	4	4043	0
46	0	0	755	4	4043	0
47	0	0	436	4	4043	0
48	0	0	256	4	4043	0
49	0	0	158	4	4043	0
50	0	0	108	4	4044	0
51	0	0	81	4	4045	0
52	0	0	70	4	4043	0
53	0	0	651	5	4044	0
54	0	0	1436	4	4044	0
55	0	0	2250	5	4043	0
56	0	0	2990	5	4044	0
57	0	0	3442	5	4043	0
58	0	0	3710	5	4043	0
59	0	0	3865	4	4044	0
60	0	0	3950	5	4044	0
61	0	0	3997	4	4044	0
62	0	0	3486	4	4044	0
63	0	0	2825	4	4043	0
64	0	0	2075	4	4043	0
65	0	0	1296	4	4043	0
66	0	0	753	4	4044	0
67	0	0	442	4	4045	0
68	0	0	264	4	4044	0
69	0	0	167	3	4045	0
70	0	0	116	4	4044	0
71	0	0	91	4	4044	0
72	0	0	126	4	4043	0
73	0	0	853	4	4044	0
74	0	0	1715	6	4044	0
75	0	0	2590	5	4043	0
76	0	0	3206	5	4044	0
77	0	0	3571	5	4045	0
78	0	0	3788	5	4043	0
79	0	0	3911	5	4044	0
80	0	0	3981	5	4043	0
81	0	0	4017	5	4044	0
82	0	0	4034	4	4044	0
83	0	0	3471	4	4043	0
84	0	0	2753	4	4043	0
85	0	0	1937	4	4043	0
86	0	0	1123	4	4044	0
87	0	0	656	3	4044	0
88	0	0	384	4	4043	0
89	0	0	232	4	4043	0
90	0	0	149	4	4044	0
91	0	0	158	4	4045	0
92	0	0	752	5	4044	0
93	0	0	1525	5	4045	0
94	0	0	2388	5	4043	0
95	0	0	3081	5	4043	0
96	0	0	3496	5	4044	0
97	0	0	3737	5	4044	0
98	0	0	3879	5	4043	0
99	0	0	3957	4	4044	0
100	0	0	3999	5	4044	0
101	0	0	4020	5	4044	0
102	0	0	4029	5	4044	0
103	0	0	3719	4	4043	0
104	0	0	3037	4	4043	0
105	0	0	2272	4	4044	0
106	0	0	1327	3	4044	0
107	0	0	763	3	4044	0
108	0	0	440	3	4043	0
109	0	0	254	4	4044	0
110	0	0	152	4	4044	0
111	0	0	548	4	4044	0
112	0	0	1216	5	4044	0
113	0	0	2022	5	4043	0
114	0	0	2831	5	4043	0
115	0	0	3332	5	4043	0
116	0	0	3634	5	4044	0
117	0	0	3808	5	4044	0
118	0	0	3908	5	4044	0
119	0	0	3961	5	4043	0
120	0	0	3989	5	4044	0
121	0	0	4003	5	4044	0
122	0	0	4007	5	4043	0
123	0	0	3716	4	4045	0
124	0	0	3009	6	4044	0
125	0	0	2203	3	4044	0
126	0	0	1262	4	4044	0
127	0	0	713	3	4043	0
0	0	0	400	4	4043	0
1	0	0	219	3	4043	0
2	0	0	120	5	4044	0
3	0	0	615	5	4044	0
4	0	0	1294	4	4043	0
5	0	0	2114	5	4043	0
6	0	0	2886	4	4043	0
7	0	0	3354	5	4044	0
8	0	0	3636	4	4044	0
9	0	0	3799	5	4044	0
10	0	0	3889	5	4044	0
11	0	0	3939	5	4043	0
12	0	0	3964	5	4044	0
13	0	0	3977	5	4044	0
14	0	0	3980	5	4043	0
15	0	0	3501	4	4043	0
16	0	0	2742	4	4044	0
17	0	0	1915	4	4045	1
18	0	0	1081	4	4044	0
19	0	0	598	4	4045	0
20	0	0	320	4	4043	0
21	0	0	166	3	4044	0
22	0	0	81	4	4044	0
23	0	0	36	3	4044	0
24	0	0	15	3	4043	0
25	0	0	6	3	4043	0
26	0	0	5	4	4043	0
27	0	0	9	3	4043	0
28	0	0	12	3	4044	0
29	0	0	17	3	4043	0
30	0	0	23	4	4043	0
31	0	0	29	4	4044	0
32	0	0	36	4	4044	0
33	0	0	42	3	4044	0
34	0	0	48	4	4044	0
35	0	0	56	4	4045	0
36	0	0	62	4	4043	0
37	0	0	69	4	4044	0
38	0	0	75	4	4044	0
39	0	0	82	4	4043	0
40	0	0	88	4	4043	0
41	0	0	94	3	4044	0
42	0	0	101	4	4044	0
43	0	0	107	4	4044	0
44	0	0	113	4	4043	0
45	0	0	119	4	4043	0
46	0	0	125	4	4043	0
47	0	0	132	4	4044	0
48	0	0	138	4	4044	0
49	0	0	143	4	4043	0
50	0	0	150	4	4043	0
51	0	0	155	4	4043	0
52	0	0	162	4	4043	0
53	0	0	167	4	4044	0
54	0	0	173	4	4044	0
55	0	0	179	4	4043	0
56	0	0	185	4	4043	0
57	0	0	190	4	4044	0
58	0	0	196	4	4044	0
59	0	0	202	4	4043	0
60	0	0	207	4	4043	0
61	0	0	213	4	4043	0
62	0	0	219	3	4043	0
63	0	0	225	5	4043	0
64	0	0	230	4	4043	0
65	0	0	236	4	4044	0
66	0	0	241	4	4043	0
67	0	0	246	3	4043	0
68	0	0	252	4	4043	0
69	0	0	257	4	4044	0
70	0	0	262	4	4042	0
71	0	0	268	4	4042	0
72	0	0	274	3	4042	0
73	0	0	279	4	4043	0
74	0	0	284	4	4042	0
75	0	0	289	4	4042	0
76	0	0	295	4	4041	0
77	0	0	300	4	4042	0
78	0	0	305	4	4042	0
79	0	0	310	4	4042	0
80	0	0	315	4	4041	0
81	0	0	320	4	4041	0
82	0	0	326	4	4041	0
83	0	0	330	4	4042	0
84	0	0	336	4	4041	0
85	0	0	341	4	4042	0
86	0	0	346	4	4041	0
87	0	0	351	4	4041	0
88	0	0	356	4	4042	0
89	0	0	360	4	4041	0
90	0	0	366	4	4040	0
91	0	0	370	4	4041	0
92	0	0	376	4	4040	0
93	0	0	380	3	4040	0
94	0	0	385	4	4040	0
95	0	0	390	4	4039	0
96	0	0	394	4	4039	0
97	0	0	399	4	4009	0
98	0	0	403	4	3986	0
99	0	0	408	4	3966	0
100	0	0	413	4	3949	0
101	0	0	418	4	3936	0
102	0	0	422	4	3926	0
103	0	0	427	4	3914	0
104	0	0	431	4	3906	0
105	0	0	436	4	3895	0
106	0	0	441	4	3887	0
107	0	0	446	4	3877	0
108	0	0	449	4	3866	0
109	0	0	454	4	3852	0
110	0	0	458	4	3836	0
111	0	0	463	4	3819	0
112	0	0	468	4	3801	0
113	0	0	473	4	3779	0
114	0	0	477	4	3755	0
115	0	0	481	4	3731	0
116	0	0	486	4	3706	0
117	0	0	490	4	3681	0
118	0	0	494	4	3656	0
119	0	0	499	4	3635	0
120	0	0	502	4	3616	0
121	0	0	507	5	3599	0
122	0	0	513	4	3585	0
123	0	0	516	4	3572	0
124	0	0	520	4	3559	0
125	0	0	525	4	3547	0
126	0	0	529	4	3538	0
127	0	0	533	4	3527	0
0	0	0	538	4	3514	0
1	0	0	542	4	3499	0
2	0	0	546	4	3483	0
3	0	0	551	4	3464	0
4	0	0	555	4	3446	0
5	0	0	559	4	3426	0
6	0	0	562	4	3405	0
7	0	0	566	4	3382	0
8	0	0	571	3	3360	0
9	0	0	575	3	3333	0
10	0	0	579	4	3310	0
11	0	0	583	4	3289	0
12	0	0	587	4	3270	0
13	0	0	590	4	3253	0
14	0	0	595	3	3242	0
15	0	0	599	4	3229	0
16	0	0	603	4	3217	0
17	0	0	607	4	3207	0
18	0	0	611	4	3196	0
19	0	0	615	2	3186	0
20	0	0	619	4	3177	0
21	0	0	623	4	3161	0
22	0	0	626	4	3148	0
23	0	0	632	4	3132	0
24	0	0	634	3	3115	0
25	0	0	639	4	3094	0
26	0	0	642	4	3073	0
27	0	0	646	4	3052	0
28	0	0	650	4	3029	0
29	0	0	653	4	3008	0
30	0	0	658	4	2986	0
31	0	0	661	4	2963	0
32	0	0	665	4	2947	0
33	0	0	669	4	2933	0
34	0	0	674	4	2923	0
35	0	0	677	4	2914	0
36	0	0	680	4	2906	0
37	0	0	684	3	2893	0
38	0	0	687	4	2885	0
39	0	0	692	5	2878	0
40	0	0	695	4	2872	0
41	0	0	699	4	2862	0
42	0	0	702	3	2850	0
43	0	0	706	4	2840	0
44	0	0	710	2	2829	0
45	0	0	714	4	2817	0
46	0	0	717	4	2802	0
47	0	0	721	4	2788	0
48	0	0	724	4	2772	0
49	0	0	728	3	2756	0
50	0	0	731	4	2739	0
51	0	0	735	4	2724	0
52	0	0	739	4	2715	0
53	0	0	742	4	2707	0
54	0	0	747	5	2704	0
55	0	0	749	4	2698	0
56	0	0	753	4	2695	0
57	0	0	757	4	2693	0
58	0	0	759	4	2692	0
59	0	0	763	3	2692	0
60	0	0	767	4	2693	0
61	0	0	770	4	2689	0
62	0	0	773	4	2688	0
63	0	0	777	4	2683	0
64	0	0	780	4	2679	0
65	0	0	783	4	2674	0
66	0	0	787	4	2666	0
67	0	0	790	5	2661	0
68	0	0	794	4	2655	0
69	0	0	798	4	2646	0
70	0	0	801	4	2639	0
71	0	0	804	4	2636	0
72	0	0	807	4	2633	0
73	0	0	810	4	2634	0
74	0	0	815	4	2641	0
75	0	0	816	4	2646	0
76	0	0	821	4	2654	0
77	0	0	824	3	2660	0
78	0	0	827	4	2668	0
79	0	0	831	4	2678	0
80	0	0	835	4	2685	0
81	0	0	837	4	2690	0
82	0	0	840	4	2696	0
83	0	0	843	4	2697	0
84	0	0	847	4	2699	0
85	0	0	851	4	2696	0
86	0	0	853	4	2694	0
87	0	0	856	4	2693	0
88	0	0	860	4	2695	0
89	0	0	863	5	2696	0
90	0	0	865	4	2696	0
91	0	0	869	4	2703	0
92	0	0	872	4	2711	0
93	0	0	875	4	2723	0
94	0	0	878	3	2740	0
95	0	0	882	4	2758	0
96	0	0	884	4	2778	0
97	0	0	888	4	2796	0
98	0	0	891	4	2816	0
99	0	0	894	4	2836	0
100	0	0	897	4	2857	0
101	0	0	900	4	2872	0
102	0	0	902	4	2889	0
103	0	0	906	4	2903	0
104	0	0	909	4	2913	0
105	0	0	912	4	2924	0
106	0	0	915	4	2931	0
107	0	0	918	4	2938	0
108	0	0	921	4	2949	0
109	0	0	924	4	2954	0
110	0	0	926	4	2960	0
111	0	0	930	4	2969	0
112	0	0	932	5	2981	0
113	0	0	936	4	2996	0
114	0	0	939	5	3016	0
115	0	0	942	4	3036	0
116	0	0	944	4	3058	0
117	0	0	947	5	3079	0
118	0	0	950	4	3102	0
119	0	0	954	3	3125	0
120	0	0	957	4	3147	0
121	0	0	959	4	3165	0
122	0	0	962	4	3183	0
123	0	0	965	4	3199	0
124	0	0	968	4	3213	0
125	0	0	971	4	3227	0
126	0	0	973	4	3236	0
127	0	0	976	4	3249	0
0	0	0	980	5	3256	0
1	0	0	982	4	3262	0
2	0	0	985	4	3270	0
3	0	0	987	4	3279	0
4	0	0	991	4	3293	0
5	0	0	993	4	3311	0
6	0	0	997	4	3332	0
7	0	0	998	4	3354	0
8	0	0	1002	4	3376	0
9	0	0	1004	4	3397	0
10	0	0	1007	4	3420	0
11	0	0	1010	4	3444	0
12	0	0	1013	3	3467	0
13	0	0	1015	4	3486	0
14	0	0	1018	4	3506	0
15	0	0	1021	4	3524	0
16	0	0	1025	4	3540	1
17	0	0	1027	4	3551	0
18	0	0	1030	4	3562	0
19	0	0	1032	4	3572	0
20	0	0	1035	4	3584	0
21	0	0	1038	4	3588	0
22	0	0	1041	4	3599	0
23	0	0	1043	4	3611	0
24	0	0	1045	4	3630	0
25	0	0	1049	6	3647	0
26	0	0	1052	4	3668	0
27	0	0	1055	4	3692	0
28	0	0	1057	4	3714	0
29	0	0	1059	4	3738	0
30	0	0	1062	4	3763	0
31	0	0	1065	4	3789	0
32	0	0	1068	4	3815	0
33	0	0	1070	4	3835	0
34	0	0	1073	4	3853	0
35	0	0	1075	4	3871	0
36	0	0	1077	4	3888	0
37	0	0	1081	4	3903	0
38	0	0	1083	4	3914	0
39	0	0	1084	4	3928	0
40	0	0	1088	5	3937	0
41	0	0	1091	4	3949	0
42	0	0	1092	4	3957	0
43	0	0	1095	4	3972	0
44	0	0	1098	4	3992	0
45	0	0	1101	4	4014	0
46	0	0	1103	4	4038	0
47	0	0	1106	4	4040	0
48	0	0	1108	4	4040	0
49	0	0	1110	4	4040	0
50	0	0	1115	5	4040	0
51	0	0	1117	5	4041	0
52	0	0	1119	5	4042	0
53	0	0	1120	5	4041	0
54	0	0	2422	5	4043	0
55	0	0	3525	5	4041	0
56	0	0	4091	5	4042	0
57	0	0	4091	5	4042	0
58	0	0	4091	5	4041	0
59	0	0	4091	5	4042	0
60	0	0	4091	5	4043	0
61	0	0	4092	5	4042	0
62	0	0	4091	5	4043	0
63	0	0	4091	5	4042	0
64	0	0	4091	5	4042	0
65	0	0	4093	5	4042	0
66	0	0	4091	5	4042	0
67	0	0	4091	5	4043	0
68	0	0	4094	5	4044	0
69	0	0	4091	5	4042	0
70	0	0	4092	5	4043	0
71	0	0	4092	5	4044	1
72	0	0	4091	4	4044	0
73	0	0	4091	5	4043	0
74	0	0	4092	5	4043	0
75	0	0	4091	5	4043	0
76	0	0	4092	5	4043	0
77	0	0	4091	5	4044	0
78	0	0	4092	5	4043	0
79	0	0	4091	5	4043	0
80	0	0	4092	5	4043	0
81	0	0	4092	5	4043	0
82	0	0	4093	5	4044	0
83	0	0	4091	5	4043	0
84	0	0	4091	5	4043	0
85	0	0	4092	6	4044	0
86	0	0	4092	5	4044	0
87	0	0	4091	4	4044	0
88	0	0	4092	5	4044	0
89	0	0	4091	5	4043	0
90	0	0	4091	5	4044	0
91	0	0	4093	5	4044	0
92	0	0	4091	4	4044	0
93	0	0	4093	5	4044	0
94	0	0	4091	4	4043	0
95	0	0	4092	5	4044	0
96	0	0	4092	5	4045	0
97	0	0	4092	5	4044	0
98	0	0	4091	5	4043	0
99	0	0	4092	5	4043	0
100	0	0	4092	5	4043	0
101	0	0	4092	6	4044	0
102	0	0	4091	5	4044	0
103	0	0	4091	5	4043	0
104	0	0	4092	5	4045	0
105	0	0	4092	5	4043	0
106	0	0	4092	6	4044	0
107	0	0	4092	4	4044	0
108	0	0	4091	5	4044	0
109	0	0	4091	5	4044	0
110	0	0	4091	5	4044	0
111	0	0	4093	5	4045	0
112	0	0	4091	5	4044	0
113	0	0	4091	5	4043	0
114	0	0	4092	5	4043	0
115	0	0	4092	5	4043	0
116	0	0	4092	6	4044	0
117	0	0	4091	5	4044	0
118	0	0	4091	5	4043	0
119	0	0	4091	5	4043	0
120	0	0	4091	5	4043	0
121	0	0	4092	5	4043	0
122	0	0	4091	5	4044	0
123	0	0	4091	5	4043	0
124	0	0	4092	5	4045	0
125	0	0	4092	7	4044	0
126	0	0	4091	6	4044	0
127	0	0	4093	5	4045	0
0	0	0	4091	5	4043	0
1	0	0	4091	5	4043	0
2	0	0	4091	5	4044	0
3	0	0	4092	5	4043	0
4	0	0	4091	5	4044	0
5	0	0	4091	5	4043	0
6	0	0	4091	5	4043	0
7	0	0	4091	5	4044	0
8	0	0	4092	5	4045	0
9	0	0	4091	4	4044	0
10	0	0	4091	5	4043	0
11	0	0	4091	5	4043	0
12	0	0	4091	5	4044	0
13	0	0	4092	6	4044	0
14	0	0	4092	5	4044	0
15	0	0	4091	5	4043	0
16	0	0	4091	5	4043	0
17	0	0	4092	5	4043	0
18	0	0	4092	6	4044	0
19	0	0	4092	5	4045	0
20	0	0	4091	5	4043	0
21	0	0	4092	5	4045	0
22	0	0	4092	5	4044	0
23	0	0	4092	6	4044	0
24	0	0	4091	5	4044	0
25	0	0	4091	5	4043	0
26	0	0	4091	5	4043	0
27	0	0	4091	5	4043	0
28	0	0	4092	5	4044	0
29	0	0	4082	5	4044	0
30	0	0	4076	5	4043	0
31	0	0	4070	5	4043	0
32	0	0	4065	5	4043	0
33	0	0	4060	5	4043	0
34	0	0	4053	5	4044	0
35	0	0	4049	5	4045	0
36	0	0	4042	5	4043	0
37	0	0	4036	5	4044	0
38	0	0	4032	5	4044	0
39	0	0	4024	6	4044	0
40	0	0	4019	5	4043	0
41	0	0	4014	5	4043	0
42	0	0	4008	5	4044	0
43	0	0	4003	5	4043	0
44	0	0	3996	5	4044	0
45	0	0	3992	5	4043	0
46	0	0	3987	5	4043	0
47	0	0	3981	5	4043	0
48	0	0	3975	5	4044	0
49	0	0	3971	5	4045	0
50	0	0	3964	5	4043	0
51	0	0	3958	5	4043	0
52	0	0	3952	5	4044	0
53	0	0	3948	5	4043	0
54	0	0	3944	5	4044	0
55	0	0	3938	5	4044	0
56	0	0	3931	5	4043	0
57	0	0	3926	5	4043	0
58	0	0	3921	5	4043	0
59	0	0	3915	5	4044	0
60	0	0	3910	5	4043	0
61	0	0	3905	5	4043	0
62	0	0	3900	4	4043	0
63	0	0	3895	5	4043	0
64	0	0	3889	5	4044	0
65	0	0	3884	5	4043	0
66	0	0	3879	5	4043	0
67	0	0	3875	4	4043	0
68	0	0	3869	5	4044	0
69	0	0	3865	5	4044	0
70	0	0	3858	5	4043	0
71	0	0	3854	5	4045	0
72	0	0	3850	5	4043	0
73	0	0	3844	5	4044	0
74	0	0	3839	5	4044	0
75	0	0	3833	5	4043	0
76	0	0	3828	5	4043	0
77	0	0	3824	5	4044	0
78	0	0	3820	5	4044	0
79	0	0	3814	5	4044	0
80	0	0	3809	5	4043	0
81	0	0	3803	5	4043	0
82	0	0	3799	4	4043	0
83	0	0	3795	5	4044	0
84	0	0	3790	5	4044	0
85	0	0	3784	5	4043	0
86	0	0	3780	5	4045	0
87	0	0	3777	5	4043	0
88	0	0	3771	5	4044	0
89	0	0	3766	5	4044	0
90	0	0	3760	5	4043	0
91	0	0	3756	5	4043	0
92	0	0	3752	5	4043	0
93	0	0	3747	5	4043	0
94	0	0	3742	5	4044	0
95	0	0	3736	5	4043	0
96	0	0	3732	5	4043	0
97	0	0	3728	5	4043	0
98	0	0	3724	6	4043	0
99	0	0	3720	5	4044	0
100	0	0	3715	5	4045	0
101	0	0	3709	5	4043	0
102	0	0	3705	5	4044	0
103	0	0	3702	5	4044	0
104	0	0	3695	4	4044	0
105	0	0	3692	5	4043	0
106	0	0	3687	5	4044	0
107	0	0	3683	4	4044	0
108	0	0	3679	5	4043	0
109	0	0	3674	5	4044	0
110	0	0	3670	5	4043	0
111	0	0	3665	5	4043	0
112	0	0	3661	5	4043	0
113	0	0	3657	5	4044	0
114	0	0	3654	5	4045	0
115	0	0	3647	5	4043	0
116	0	0	3643	6	4043	0
117	0	0	3638	5	4044	0
118	0	0	3635	5	4044	0
119	0	0	3630	4	4044	0
120	0	0	3626	5	4043	0
121	0	0	3622	5	4043	0
122	0	0	3618	5	4043	0
123	0	0	3614	5	4044	0
124	0	0	3608	5	4044	0
125	0	0	3604	5	4043	0
126	0	0	3600	5	4044	0
127	0	0	3596	5	4043	0
0	0	0	3593	5	4043	0
1	0	0	3588	5	4044	0
2	0	0	3584	5	4043	0
3	0	0	3580	4	4045	0
4	0	0	3577	6	4044	0
5	0	0	3572	5	4043	0
6	0	0	3568	5	4045	0
7	0	0	3563	5	4043	0
8	0	0	3559	6	4043	0
9	0	0	3553	5	4044	0
10	0	0	3552	5	4044	0
11	0	0	3546	5	4044	0
12	0	0	3542	5	4043	0
13	0	0	3538	5	4043	0
14	0	0	3535	5	4043	0
15	0	0	3531	5	4043	0
16	0	0	3527	5	4044	0
17	0	0	3524	5	4044	0
18	0	0	3518	5	4043	0
19	0	0	3515	5	4044	0
20	0	0	3512	5	4045	0
21	0	0	3506	5	4044	0
22	0	0	3505	5	4045	0
23	0	0	3499	5	4043	0
24	0	0	3495	5	4043	0
25	0	0	3492	6	4043	0
26	0	0	3487	5	4044	0
27	0	0	3483	5	4043	0
28	0	0	3479	5	4043	0
29	0	0	3476	5	4043	0
30	0	0	3472	5	4044	0
31	0	0	3468	5	4044	0
32	0	0	3464	5	4043	0
33	0	0	3460	5	4043	0
34	0	0	3456	5	4043	0
35	0	0	3454	5	4044	0
36	0	0	3451	5	4045	0
37	0	0	3446	5	4043	0
38	0	0	3442	4	4045	0
39	0	0	3439	6	4044	0
40	0	0	3435	5	4043	0
41	0	0	3431	5	4044	0
42	0	0	3427	5	4043	0
43	0	0	3423	5	4043	0
44	0	0	3421	4	4044	0
45	0	0	3416	5	4044	0
46	0	0	3412	5	4044	0
47	0	0	3410	5	4043	0
48	0	0	3406	5	4043	0
49	0	0	3401	6	4043	0
50	0	0	3399	5	4043	0
51	0	0	3396	5	4045	0
52	0	0	3391	5	4043	0
53	0	0	3388	4	4044	0
54	0	0	3385	6	4044	0
55	0	0	3381	5	4044	0
56	0	0	3376	5	4044	0
57	0	0	3372	5	4043	0
58	0	0	3369	5	4043	0
59	0	0	3367	5	4044	0
60	0	0	3363	5	4043	0
61	0	0	3359	5	4044	0
62	0	0	3355	5	4043	0
63	0	0	3352	5	4043	0
64	0	0	3349	5	4043	0
65	0	0	3346	5	4043	0
66	0	0	3342	6	4044	0
67	0	0	3340	5	4045	0
68	0	0	3335	5	4043	0
69	0	0	3332	5	4043	0
70	0	0	3330	5	4045	0
71	0	0	3324	5	4044	0
72	0	0	3322	5	4043	0
73	0	0	3318	5	4043	0
74	0	0	3315	4	4044	0
75	0	0	3312	5	4044	0
76	0	0	3308	5	4044	0
77	0	0	3305	5	4043	0
78	0	0	3302	5	4044	0
79	0	0	3299	5	4043	0
80	0	0	3295	5	4044	0
81	0	0	3292	4	4044	0
82	0	0	3288	5	4043	0
83	0	0	3285	4	4043	0
84	0	0	3283	5	4044	0
85	0	0	3279	5	4044	0
86	0	0	3277	5	4045	0
87	0	0	3272	5	4043	0
88	0	0	3268	5	4043	0
89	0	0	3266	5	4043	0
90	0	0	3263	6	4044	0
91	0	0	3259	4	4044	0
92	0	0	3255	5	4043	0
93	0	0	3253	4	4043	0
94	0	0	3250	5	4044	0
95	0	0	3247	6	4044	0
96	0	0	3243	5	4044	0
97	0	0	3240	5	4043	0
98	0	0	3237	4	4044	0
99	0	0	3234	5	4044	0
100	0	0	3231	5	4044	0
101	0	0	3228	5	4044	0
102	0	0	3224	5	4043	0
103	0	0	3222	5	4043	0
104	0	0	3219	5	4043	0
105	0	0	3216	5	4044	0
106	0	0	3213	4	4044	0
107	0	0	3209	5	4043	0
108	0	0	3207	5	4043	0
109	0	0	3203	5	4044	0
110	0	0	3201	6	4044	0
111	0	0	3197	4	4044	0
112	0	0	3194	5	4043	0
113	0	0	3191	5	4043	0
114	0	0	3189	5	4044	0
115	0	0	3186	6	4044	0
116	0	0	3182	5	4044	0
117	0	0	3179	5	4043	0
118	0	0	3177	3	4045	0
119	0	0	3175	5	4045	0
120	0	0	3171	5	4045	0
121	0	0	3167	4	4044	0
122	0	0	3166	5	4044	0
123	0	0	3160	5	4043	0
124	0	0	3158	5	4043	0
125	0	0	3156	5	4043	0
126	0	0	3154	5	4044	0
127	0	0	3149	5	4043	0
0	0	0	3147	4	4045	0
1	0	0	3145	5	4043	0
2	0	0	3142	7	4044	0
3	0	0	3139	5	4044	0
4	0	0	3135	5	4043	0
5	0	0	3132	5	4043	0
6	0	0	3130	5	4044	0
7	0	0	3128	5	4044	0
8	0	0	3124	6	4044	0
9	0	0	3121	5	4043	0
10	0	0	3118	4	4043	0
11	0	0	3116	6	4044	0
12	0	0	3114	5	4043	0
13	0	0	3110	4	4044	0
14	0	0	3107	5	4043	0
15	0	0	3105	5	4044	0
16	0	0	3102	5	4043	0
17	0	0	3099	6	4043	0
18	0	0	3096	6	4044	0
19	0	0	3093	5	4043	0
20	0	0	3090	5	4043	0
21	0	0	3088	5	4043	0
22	0	0	3087	5	4045	0
23	0	0	3082	5	4044	0
24	0	0	3081	5	4044	0
25	0	0	3077	5	4043	0
26	0	0	3074	5	4044	0
27	0	0	3073	5	4044	0
28	0	0	3067	5	4044	0
29	0	0	3066	5	4045	0
30	0	0	3062	5	4043	0
31	0	0	3060	4	4044	0
32	0	0	3058	5	4044	0
33	0	0	3054	6	4044	0
34	0	0	3051	4	4043	0
35	0	0	3049	4	4043	0
36	0	0	3047	6	4043	0
37	0	0	3045	5	4043	0
38	0	0	3041	5	4044	0
39	0	0	3038	5	4043	0
40	0	0	3036	5	4043	0
41	0	0	3033	6	4043	0
42	0	0	3031	5	4044	0
43	0	0	3029	5	4045	0
44	0	0	3025	5	4043	0
45	0	0	3023	4	4045	0
46	0	0	3022	5	4044	0
47	0	0	3018	5	4043	0
48	0	0	3017	5	4045	0
49	0	0	3012	5	4043	0
50	0	0	3009	5	4043	0
51	0	0	3008	5	4043	0
52	0	0	3006	5	4043	0
53	0	0	3003	5	4044	0
54	0	0	3000	5	4043	0
55	0	0	2998	5	4043	0
56	0	0	2995	5	4044	0
57	0	0	2993	5	4044	0
58	0	0	2990	6	4044	0
59	0	0	2987	5	4043	0
60	0	0	2986	4	4043	0
61	0	0	2984	3	4044	0
62	0	0	2981	5	4044	0
63	0	0	2979	5	4044	0
64	0	0	2975	5	4043	0
65	0	0	2973	5	4043	0
66	0	0	2971	5	4043	0
67	0	0	2968	5	4043	0
68	0	0	2965	5	4044	0
69	0	0	2963	5	4043	0
70	0	0	2960	5	4043	0
71	0	0	2959	5	4044	0
72	0	0	2957	5	4045	0
73	0	0	2953	4	4044	0
74	0	0	2951	5	4043	0
75	0	0	2949	4	4043	0
76	0	0	2946	5	4043	0
77	0	0	2945	5	4044	0
78	0	0	2942	6	4044	0
79	0	0	2939	5	4043	0
80	0	0	2937	4	4045	0
81	0	0	2936	5	4043	0
82	0	0	2933	5	4044	0
83	0	0	2930	4	4044	0
84	0	0	2928	5	4043	0
85	0	0	2925	5	4043	0
86	0	0	2923	5	4044	0
87	0	0	2922	5	4044	0
88	0	0	2918	5	4044	0
89	0	0	2916	5	4043	0
90	0	0	2914	5	4043	0
91	0	0	2912	5	4044	0
92	0	0	2910	5	4044	0
93	0	0	2907	5	4044	0
94	0	0	2904	5	4043	0
95	0	0	2902	5	4043	0
96	0	0	2900	5	4043	0
97	0	0	2899	5	4044	0
98	0	0	2897	5	4045	0
99	0	0	2893	5	4043	0
100	0	0	2891	5	4043	0
101	0	0	2889	5	4044	0
102	0	0	2887	5	4044	0
103	0	0	2884	5	4044	0
104	0	0	2882	5	4043	0
105	0	0	2881	5	4043	0
106	0	0	2878	5	4043	0
107	0	0	2877	5	4043	0
108	0	0	2874	5	4044	0
109	0	0	2872	5	4043	0
110	0	0	2869	5	4043	0
111	0	0	2867	5	4043	0
112	0	0	2866	5	4043	0
113	0	0	2863	4	4044	0
114	0	0	2860	5	4043	0
115	0	0	2859	4	4045	0
116	0	0	2858	5	4043	0
117	0	0	2855	6	4043	0
118	0	0	2853	5	4045	0
119	0	0	2850	5	4043	0
120	0	0	2847	5	4043	0
121	0	0	2846	5	4043	0
122	0	0	2843	5	4044	0
123	0	0	2842	5	4044	0
124	0	0	2839	5	4043	0
125	0	0	2837	5	4043	0
126	0	0	2835	5	4043	0
127	0	0	2833	5	4043	0
0	0	0	2831	4	4044	0
1	0	0	2830	5	4045	0
2	0	0	2827	5	4043	0
3	0	0	2826	4	4043	0
4	0	0	2823	5	4043	0
5	0	0	2821	5	4044	0
6	0	0	2819	4	4044	0
7	0	0	2817	5	4045	0
8	0	0	2815	5	4044	0
9	0	0	2813	5	4043	0
10	0	0	2811	5	4045	0
11	0	0	2807	5	4044	0
12	0	0	2807	5	4043	0
13	0	0	2805	5	4044	0
14	0	0	2803	5	4044	0
15	0	0	2800	5	4043	0
16	0	0	2798	5	4043	0
17	0	0	2797	5	4043	0
18	0	0	2794	5	4044	0
19	0	0	2794	5	4043	0
20	0	0	2791	4	4044	0
21	0	0	2789	5	4043	0
22	0	0	2787	5	4043	0
23	0	0	2784	5	4043	0
24	0	0	2784	5	4043	0
25	0	0	2780	4	4044	0
26	0	0	2779	5	4044	0
27	0	0	2777	5	4045	0
28	0	0	2776	5	4044	0
29	0	0	2774	4	4044	0
30	0	0	2772	5	4044	0
31	0	0	2769	5	4043	0
32	0	0	2767	5	4043	0
33	0	0	2766	5	4044	0
34	0	0	2764	5	4043	0
35	0	0	2762	5	4044	0
36	0	0	2760	5	4043	0
37	0	0	2758	5	4043	0
38	0	0	2756	5	4043	0
39	0	0	2755	5	4043	0
40	0	0	2752	3	4044	0
41	0	0	2750	4	4043	0
42	0	0	2748	5	4045	0
43	0	0	2748	5	4044	0
44	0	0	2745	5	4044	0
45	0	0	2744	5	4045	0
46	0	0	2741	5	4043	0
47	0	0	2739	5	4045	0
48	0	0	2738	5	4043	0
49	0	0	2736	4	4043	0
50	0	0	2735	5	4044	0
51	0	0	2731	5	4043	0
52	0	0	2730	5	4043	0
53	0	0	2729	5	4044	0
54	0	0	2727	5	4044	0
55	0	0	2724	4	4044	0
56	0	0	2724	5	4045	0
57	0	0	2722	5	4044	0
58	0	0	2720	4	4043	0
59	0	0	2718	6	4044	0
60	0	0	2715	4	4044	0
61	0	0	2714	4	4043	0
62	0	0	2713	5	4045	0
63	0	0	2711	5	4044	0
64	0	0	2709	5	4044	0
65	0	0	2707	4	4044	0
66	0	0	2705	5	4043	0
67	0	0	2703	5	4043	0
68	0	0	2703	5	4043	0
69	0	0	2701	5	4043	0
70	0	0	2698	4	4044	0
71	0	0	2695	5	4043	0
72	0	0	2695	5	4043	0
73	0	0	2693	5	4043	0
74	0	0	2692	5	4043	0
75	0	0	2690	5	4044	0
76	0	0	2689	5	4045	0
77	0	0	2686	5	4043	0
78	0	0	2685	5	4043	0
79	0	0	2683	5	4043	0
80	0	0	2681	3	4044	0
81	0	0	2680	5	4043	0
82	0	0	2678	5	4043	0
83	0	0	2676	5	4043	0
84	0	0	2676	5	4043	0
85	0	0	2673	4	4044	0
86	0	0	2671	5	4043	0
87	0	0	2670	5	4043	0
88	0	0	2668	5	4043	0
89	0	0	2667	5	4043	0
90	0	0	2666	5	4045	0
91	0	0	2662	5	4043	0
92	0	0	2661	5	4044	0
93	0	0	2660	5	4044	0
94	0	0	2659	5	4044	0
95	0	0	2657	5	4045	0
96	0	0	2654	5	4043	0
97	0	0	2653	4	4044	0
98	0	0	2652	5	4044	0
99	0	0	2651	4	4043	0
100	0	0	2648	4	4044	0
101	0	0	2646	5	4043	0
102	0	0	2645	5	4043	0
103	0	0	2643	5	4043	0
104	0	0	2643	5	4043	0
105	0	0	2641	5	4044	0
106	0	0	2639	5	4043	0
107	0	0	2638	5	4045	0
108	0	0	2637	5	4044	0
109	0	0	2635	5	4044	0
110	0	0	2634	5	4044	0
111	0	0	2631	5	4043	0
112	0	0	2629	5	4043	0
113	0	0	2628	5	4043	0
114	0	0	2627	5	4043	0
115	0	0	2625	5	4044	0
116	0	0	2623	5	4043	0
117	0	0	2622	5	4043	0
118	0	0	2621	5	4043	0
119	0	0	2619	5	4043	0
120	0	0	2617	4	4044	0
121	0	0	2616	5	4043	0
122	0	0	2614	5	4043	0
123	0	0	2613	5	4043	0
124	0	0	2612	5	4045	0
125	0	0	2610	4	4044	0
126	0	0	2609	5	4045	0
127	0	0	2607	5	4043	0
0	0	0	2606	6	4044	0
1	0	0	2604	5	4044	0
2	0	0	2602	4	4044	0
3	0	0	2601	5	4043	0
4	0	0	2600	6	4043	0
5	0	0	2598	5	4043	0
6	0	0	2597	5	4043	0
7	0	0	2595	4	4044	0
8	0	0	2594	5	4043	0
9	0	0	2592	5	4043	0
10	0	0	2591	5	4043	0
11	0	0	2590	5	4043	0
12	0	0	2589	5	4044	0
13	0	0	2586	5	4043	0
14	0	0	2586	5	4044	0
15	0	0	2585	5	4043	0
16	0	0	2583	5	4043	0
17	0	0	2581	4	4044	0
18	0	0	2579	5	4043	0
19	0	0	2578	5	4043	0
20	0	0	2577	5	4043	0
21	0	0	2576	5	4043	0
22	0	0	2574	4	4044	0
23	0	0	2572	5	4043	0
24	0	0	2571	5	4043	0
25	0	0	2569	5	4043	0
26	0	0	2569	5	4044	0
27	0	0	2566	4	4044	0
28	0	0	2567	5	4045	0
29	0	0	2562	5	4043	0
30	0	0	2562	5	4044	0
31	0	0	2562	4	4044	0
32	0	0	2559	4	4044	0
33	0	0	2560	5	4043	0
34	0	0	2556	5	4043	0
35	0	0	2555	5	4043	0
36	0	0	2554	5	4044	0
37	0	0	2553	5	4044	0
38	0	0	2551	5	4043	0
39	0	0	2551	6	4043	0
40	0	0	2549	5	4043	0
41	0	0	2548	5	4044	0
42	0	0	2547	4	4044	0
43	0	0	2545	5	4044	0
44	0	0	2543	5	4045	0
45	0	0	2542	5	4044	0
46	0	0	2541	5	4043	0
47	0	0	2541	5	4045	0
48	0	0	2538	5	4043	0
49	0	0	2536	4	4044	0
50	0	0	2535	5	4043	0
51	0	0	2535	5	4044	0
52	0	0	2533	4	4044	0
53	0	0	2531	5	4043	0
54	0	0	2531	5	4044	0
55	0	0	2529	5	4044	0
56	0	0	2528	4	4045	0
57	0	0	2527	5	4044	0
58	0	0	2525	5	4043	0
59	0	0	2524	5	4043	0
60	0	0	2523	6	4044	0
61	0	0	2522	5	4044	0
62	0	0	2520	5	4044	0
63	0	0	2518	5	4043	0
64	0	0	2517	5	4044	0
65	0	0	2516	5	4043	0
66	0	0	2516	5	4043	0
67	0	0	2515	5	4045	0
68	0	0	2513	5	4044	0
69	0	0	2512	5	4045	0
70	0	0	2511	5	4044	0
71	0	0	2509	5	4044	0
72	0	0	2508	5	4044	0
73	0	0	2506	5	4043	0
74	0	0	2505	5	4043	0
75	0	0	2504	5	4044	0
76	0	0	2504	5	4044	0
77	0	0	2502	5	4044	0
78	0	0	2501	5	4043	0
79	0	0	2499	5	4043	0
80	0	0	2498	5	4043	0
81	0	0	2497	5	4044	0
82	0	0	2496	5	4044	0
83	0	0	2496	5	4045	0
84	0	0	2493	5	4044	0
85	0	0	2492	5	4044	0
86	0	0	2492	6	4044	0
87	0	0	2490	4	4044	0
