# bioPlux Text File Format
# Version: 1
# StartDateTime: 2011-07-19 10:52:12
# SamplingFrequency: 1000
# SampledChannels: 1 2 3 4 5
# SamplingResolution: 12
# AcquiringDevice: 00:07:80:42:0F:95
# EndOfHeader
0	0	0	2881	958	184	901	2789
1	0	0	2571	958	183	900	2792
2	0	0	2288	957	183	901	2796
3	0	0	2002	957	184	901	2799
4	0	0	1724	957	183	900	2801
5	0	0	1469	957	185	900	2802
6	0	0	1282	957	183	901	2801
7	0	0	1177	958	182	901	2797
8	0	0	1054	957	183	901	2791
9	0	0	874	959	185	901	2788
10	0	0	1038	963	183	901	2789
11	0	0	1368	963	183	902	2792
12	0	0	1706	963	184	901	2795
13	0	0	2140	963	183	901	2800
14	0	0	2526	963	183	901	2802
15	0	0	2784	963	183	901	2803
16	0	0	2927	963	183	901	2801
17	0	0	2982	963	183	901	2797
18	0	0	3008	963	183	901	2791
19	0	0	3038	959	184	901	2788
20	0	0	2839	957	182	901	2789
21	0	0	2534	957	183	900	2792
22	0	0	2253	957	183	901	2795
23	0	0	1970	957	183	901	2799
24	0	0	1697	957	184	901	2802
25	0	0	1449	957	183	901	2802
26	0	0	1276	958	184	900	2801
27	0	0	1173	958	184	901	2797
28	0	0	1051	956	183	902	2791
29	0	0	871	959	183	901	2788
30	0	0	1035	963	182	901	2789
31	0	0	1378	963	184	901	2792
32	0	0	1721	963	183	901	2797
33	0	0	2152	963	183	901	2800
34	0	0	2536	963	184	901	2803
35	0	0	2795	963	184	901	2803
36	0	0	2937	964	183	901	2801
37	0	0	2994	963	183	901	2798
38	0	0	3028	963	183	901	2792
39	0	0	3060	959	184	901	2788
40	0	0	2858	957	183	901	2789
41	0	0	2548	958	183	901	2792
42	0	0	2270	957	184	901	2796
43	0	0	1991	957	183	900	2800
44	0	0	1720	957	183	900	2802
45	0	0	1468	957	184	901	2803
46	0	0	1291	958	183	901	2801
47	0	0	1189	958	183	901	2798
48	0	0	1065	957	184	900	2792
49	0	0	880	959	183	901	2789
50	0	0	1043	963	183	901	2790
51	0	0	1378	964	183	901	2792
52	0	0	1724	963	184	901	2796
53	0	0	2156	963	184	901	2800
54	0	0	2544	963	184	901	2802
55	0	0	2803	963	183	901	2802
56	0	0	2949	962	184	901	2801
57	0	0	2998	963	182	901	2798
58	0	0	3014	963	184	901	2791
59	0	0	3045	958	183	901	2788
60	0	0	2847	957	184	900	2790
61	0	0	2539	957	183	901	2793
62	0	0	2260	957	183	901	2796
63	0	0	1975	957	183	901	2800
64	0	0	1701	956	184	901	2802
65	0	0	1448	957	182	900	2804
66	0	0	1270	958	183	901	2802
67	0	0	1169	959	184	901	2798
68	0	0	1055	957	183	900	2792
69	0	0	875	960	184	901	2789
70	0	0	1041	963	183	901	2789
71	0	0	1382	963	183	900	2792
72	0	0	1718	963	183	901	2796
73	0	0	2147	963	183	901	2800
74	0	0	2528	963	183	901	2802
75	0	0	2790	963	183	901	2803
76	0	0	2938	962	182	901	2801
77	0	0	2993	964	183	901	2798
78	0	0	3026	963	183	900	2791
79	0	0	3064	959	184	900	2788
80	0	0	2858	957	183	901	2790
81	0	0	2543	957	184	901	2792
82	0	0	2259	957	184	901	2796
83	0	0	1973	957	183	901	2800
84	0	0	1697	957	183	901	2802
85	0	0	1443	957	184	901	2803
86	0	0	1268	956	184	901	2801
87	0	0	1165	959	184	901	2798
88	0	0	1046	957	184	900	2791
89	0	0	861	959	184	901	2788
90	0	0	1027	963	184	901	2789
91	0	0	1372	963	184	901	2792
92	0	0	1714	963	183	901	2796
93	0	0	2147	963	184	901	2800
94	0	0	2535	963	184	901	2802
95	0	0	2803	963	183	901	2803
96	0	0	2953	964	184	901	2802
97	0	0	3012	963	183	901	2799
98	0	0	3042	964	184	901	2792
99	0	0	3075	959	183	901	2789
100	0	0	2874	957	183	901	2790
101	0	0	2564	958	183	901	2792
102	0	0	2282	957	184	901	2797
103	0	0	1995	957	184	900	2800
104	0	0	1720	957	183	901	2803
105	0	0	1469	957	184	900	2803
106	0	0	1287	958	183	901	2802
107	0	0	1184	959	185	901	2799
108	0	0	1072	957	184	900	2791
109	0	0	891	960	184	901	2788
110	0	0	1053	963	183	901	2790
111	0	0	1394	962	184	901	2792
112	0	0	1727	963	184	901	2796
113	0	0	2150	963	184	900	2800
114	0	0	2541	963	183	901	2802
115	0	0	2805	963	182	901	2803
116	0	0	2955	964	184	901	2802
117	0	0	3016	963	184	901	2798
118	0	0	3046	963	183	900	2791
119	0	0	3077	958	183	901	2788
120	0	0	2872	957	184	901	2790
121	0	0	2562	957	184	901	2793
122	0	0	2282	957	184	901	2796
123	0	0	2006	957	184	901	2800
124	0	0	1735	956	183	900	2802
125	0	0	1489	957	183	901	2803
126	0	0	1304	957	182	901	2802
127	0	0	1197	958	183	901	2798
0	0	0	1087	957	183	900	2792
1	0	0	908	959	183	901	2789
2	0	0	1064	963	183	901	2790
3	0	0	1397	963	183	901	2793
4	0	0	1728	963	184	901	2796
5	0	0	2150	963	183	901	2800
6	0	0	2532	963	183	901	2803
7	0	0	2794	964	184	900	2803
8	0	0	2938	964	184	901	2802
9	0	0	2997	963	183	901	2798
10	0	0	3024	963	183	900	2791
11	0	0	3052	959	183	901	2788
12	0	0	2860	957	183	901	2789
13	0	0	2563	957	183	900	2792
14	0	0	2283	957	184	901	2796
15	0	0	2002	957	183	901	2800
16	0	0	1732	957	185	901	2802
17	0	0	1483	957	183	901	2804
18	0	0	1306	958	183	901	2803
19	0	0	1204	959	183	901	2799
20	0	0	1092	957	183	900	2792
21	0	0	917	959	184	901	2789
22	0	0	1073	962	184	901	2790
23	0	0	1400	964	184	901	2792
24	0	0	1732	963	184	901	2796
25	0	0	2159	963	184	901	2800
26	0	0	2547	963	184	902	2803
27	0	0	2813	963	183	901	2803
28	0	0	2960	964	184	901	2802
29	0	0	3012	963	183	901	2798
30	0	0	3026	963	183	900	2791
31	0	0	3041	960	183	901	2789
32	0	0	2849	957	183	901	2790
33	0	0	2556	958	183	901	2792
34	0	0	2285	957	183	901	2796
35	0	0	2013	957	183	900	2800
36	0	0	1741	957	184	901	2802
37	0	0	1488	957	183	901	2804
38	0	0	1312	958	183	901	2802
39	0	0	1210	958	183	901	2798
40	0	0	1100	957	184	901	2792
41	0	0	927	960	184	901	2789
42	0	0	1080	963	183	901	2789
43	0	0	1406	963	184	900	2792
44	0	0	1733	963	184	901	2796
45	0	0	2159	963	183	901	2800
46	0	0	2536	964	184	901	2803
47	0	0	2792	964	184	901	2803
48	0	0	2936	964	183	900	2801
49	0	0	2991	964	184	901	2798
50	0	0	3017	963	184	900	2791
51	0	0	3045	959	182	900	2788
52	0	0	2845	957	184	901	2790
53	0	0	2545	957	184	901	2792
54	0	0	2271	958	183	901	2797
55	0	0	1994	957	184	901	2800
56	0	0	1719	956	184	901	2802
57	0	0	1473	957	183	900	2804
58	0	0	1298	958	185	901	2802
59	0	0	1196	958	184	901	2798
60	0	0	1084	957	183	901	2792
61	0	0	902	959	184	901	2788
62	0	0	1053	963	183	901	2790
63	0	0	1389	963	183	901	2792
64	0	0	1721	963	182	901	2796
65	0	0	2148	963	183	901	2800
66	0	0	2535	964	184	901	2803
67	0	0	2794	964	184	901	2803
68	0	0	2939	963	183	901	2802
69	0	0	2994	963	183	901	2799
70	0	0	3010	963	183	901	2792
71	0	0	3030	959	183	900	2789
72	0	0	2840	957	184	901	2791
73	0	0	2541	957	183	901	2793
74	0	0	2269	957	184	901	2796
75	0	0	1991	957	184	901	2800
76	0	0	1724	956	184	901	2802
77	0	0	1467	957	184	901	2803
78	0	0	1284	957	184	900	2802
79	0	0	1181	958	184	901	2798
80	0	0	1071	957	183	900	2792
81	0	0	905	960	183	901	2789
82	0	0	1064	964	183	902	2790
83	0	0	1390	963	183	901	2793
84	0	0	1725	963	183	901	2797
85	0	0	2149	963	184	901	2800
86	0	0	2528	964	183	901	2803
87	0	0	2789	963	183	901	2803
88	0	0	2937	963	183	901	2802
89	0	0	2990	963	184	901	2799
90	0	0	3007	964	184	900	2792
91	0	0	3032	959	183	901	2789
92	0	0	2839	957	182	901	2791
93	0	0	2545	957	183	901	2793
94	0	0	2276	957	183	901	2797
95	0	0	2000	957	184	901	2801
96	0	0	1726	957	183	900	2802
97	0	0	1478	957	184	900	2803
98	0	0	1296	958	182	901	2802
99	0	0	1190	958	183	901	2799
100	0	0	1074	957	183	900	2792
101	0	0	897	960	183	901	2789
102	0	0	1051	963	182	901	2790
103	0	0	1385	963	184	901	2793
104	0	0	1721	964	184	901	2796
105	0	0	2151	963	184	900	2800
106	0	0	2532	963	184	901	2803
107	0	0	2794	963	184	901	2804
108	0	0	2943	963	184	901	2803
109	0	0	3000	964	184	901	2799
110	0	0	3022	964	183	901	2792
111	0	0	3041	958	183	900	2789
112	0	0	2850	957	183	901	2790
113	0	0	2551	957	184	901	2793
114	0	0	2270	957	183	901	2796
115	0	0	1993	957	183	901	2800
116	0	0	1724	957	183	901	2802
117	0	0	1472	957	184	901	2804
118	0	0	1296	958	183	901	2803
119	0	0	1193	959	183	901	2799
120	0	0	1084	957	183	901	2793
121	0	0	906	960	183	900	2789
122	0	0	1065	964	183	901	2791
123	0	0	1395	964	184	901	2794
124	0	0	1725	963	184	901	2797
125	0	0	2152	964	184	900	2800
126	0	0	2538	963	183	901	2803
127	0	0	2805	963	182	902	2803
0	0	0	2954	964	183	901	2802
1	0	0	3011	963	183	901	2799
2	0	0	3025	963	184	900	2792
3	0	0	3046	958	182	900	2789
4	0	0	2851	957	183	901	2790
5	0	0	2555	957	183	901	2793
6	0	0	2285	957	183	901	2796
7	0	0	2012	957	184	900	2800
8	0	0	1745	957	184	901	2803
9	0	0	1492	957	185	901	2804
10	0	0	1305	958	183	901	2803
11	0	0	1200	959	183	901	2799
12	0	0	1082	957	183	901	2793
13	0	0	905	959	184	901	2789
14	0	0	1054	963	183	900	2790
15	0	0	1384	964	183	901	2793
16	0	0	1712	964	184	901	2797
17	0	0	2133	964	183	901	2800
18	0	0	2525	964	183	901	2802
19	0	0	2785	964	182	901	2803
20	0	0	2932	963	184	901	2802
21	0	0	2993	963	183	901	2799
22	0	0	3015	964	184	901	2792
23	0	0	3044	959	183	900	2789
24	0	0	2848	957	183	900	2790
25	0	0	2545	958	184	901	2793
26	0	0	2267	958	183	901	2797
27	0	0	1989	957	183	901	2801
28	0	0	1724	957	184	901	2803
29	0	0	1475	957	183	900	2804
30	0	0	1306	958	185	901	2803
31	0	0	1209	958	184	900	2799
32	0	0	1099	957	184	900	2792
33	0	0	921	959	184	901	2789
34	0	0	1075	964	185	901	2790
35	0	0	1398	964	185	901	2793
36	0	0	1737	964	184	901	2796
37	0	0	2162	963	183	901	2800
38	0	0	2542	963	184	901	2803
39	0	0	2799	964	185	902	2804
40	0	0	2942	964	184	901	2803
41	0	0	2994	963	183	901	2799
42	0	0	3012	964	183	901	2793
43	0	0	3036	959	182	900	2789
44	0	0	2844	958	184	900	2791
45	0	0	2550	957	183	901	2793
46	0	0	2279	958	183	901	2797
47	0	0	1996	957	183	900	2800
48	0	0	1728	957	184	901	2803
49	0	0	1478	958	184	901	2803
50	0	0	1300	958	184	901	2802
51	0	0	1198	959	183	901	2799
52	0	0	1088	957	185	901	2792
53	0	0	913	960	183	901	2789
54	0	0	1066	963	184	901	2791
55	0	0	1389	963	183	901	2793
56	0	0	1715	964	183	901	2797
57	0	0	2127	963	183	901	2800
58	0	0	2511	964	184	901	2803
59	0	0	2773	964	183	901	2804
60	0	0	2918	965	183	901	2803
61	0	0	2973	964	184	901	2799
62	0	0	3002	964	183	901	2792
63	0	0	3025	959	184	901	2790
64	0	0	2830	958	183	901	2790
65	0	0	2528	957	183	900	2793
66	0	0	2254	958	184	901	2797
67	0	0	1975	957	184	901	2800
68	0	0	1708	957	184	900	2803
69	0	0	1454	957	182	901	2803
70	0	0	1270	959	184	901	2802
71	0	0	1165	959	184	901	2799
72	0	0	1057	957	183	900	2792
73	0	0	887	960	184	901	2789
74	0	0	1044	963	184	901	2791
75	0	0	1375	964	184	901	2794
76	0	0	1716	963	184	901	2797
77	0	0	2139	963	183	901	2801
78	0	0	2518	963	184	901	2804
79	0	0	2782	964	183	902	2804
80	0	0	2928	965	183	901	2803
81	0	0	2981	965	184	901	2799
82	0	0	2999	964	182	901	2792
83	0	0	3028	959	183	901	2789
84	0	0	2840	958	182	900	2790
85	0	0	2547	957	183	901	2793
86	0	0	2272	958	183	901	2796
87	0	0	1998	958	184	901	2801
88	0	0	1727	958	183	901	2803
89	0	0	1478	957	183	901	2803
90	0	0	1298	958	183	901	2802
91	0	0	1195	959	183	901	2799
92	0	0	1086	957	183	901	2792
93	0	0	912	960	183	901	2790
94	0	0	1073	963	184	901	2790
95	0	0	1403	963	183	901	2793
96	0	0	1734	964	184	901	2797
97	0	0	2163	964	184	901	2801
98	0	0	2545	964	184	901	2803
99	0	0	2805	964	184	901	2803
100	0	0	2954	964	182	901	2803
101	0	0	3016	965	183	901	2799
102	0	0	3037	964	184	901	2793
103	0	0	3056	960	183	901	2789
104	0	0	2863	958	183	900	2790
105	0	0	2557	958	183	901	2793
106	0	0	2283	957	183	901	2797
107	0	0	2003	957	184	900	2800
108	0	0	1734	957	183	902	2803
109	0	0	1480	958	183	901	2805
110	0	0	1299	958	183	901	2803
111	0	0	1193	959	183	901	2799
112	0	0	1074	957	183	901	2793
113	0	0	903	960	183	901	2789
114	0	0	1061	964	183	901	2790
115	0	0	1389	964	184	901	2793
116	0	0	1723	964	184	901	2797
117	0	0	2147	963	183	901	2801
118	0	0	2538	964	184	901	2804
119	0	0	2800	963	184	901	2803
120	0	0	2943	964	183	901	2802
121	0	0	3000	963	183	901	2799
122	0	0	3008	965	183	901	2793
123	0	0	3027	958	183	901	2789
124	0	0	2837	958	184	901	2791
125	0	0	2541	958	183	901	2793
126	0	0	2270	958	183	900	2797
127	0	0	1998	957	184	900	2801
0	0	0	1732	957	184	901	2804
1	0	0	1486	958	184	901	2804
2	0	0	1300	958	183	901	2803
3	0	0	1190	958	184	901	2799
4	0	0	1075	957	184	901	2792
5	0	0	897	960	184	901	2789
6	0	0	1048	964	183	901	2791
7	0	0	1373	963	184	901	2794
8	0	0	1708	963	184	901	2797
9	0	0	2140	963	183	901	2800
10	0	0	2523	963	183	901	2803
11	0	0	2782	964	183	901	2803
12	0	0	2932	964	184	901	2803
13	0	0	2997	964	184	901	2800
14	0	0	3023	964	183	901	2792
15	0	0	3062	959	183	901	2789
16	0	0	2870	958	183	900	2791
17	0	0	2569	958	184	900	2794
18	0	0	2290	958	183	901	2797
19	0	0	2007	958	184	901	2801
20	0	0	1729	957	184	901	2803
21	0	0	1478	958	183	901	2803
22	0	0	1297	958	184	900	2802
23	0	0	1193	959	184	901	2799
24	0	0	1085	958	184	901	2792
25	0	0	913	960	184	901	2789
26	0	0	1067	964	183	901	2791
27	0	0	1398	964	184	901	2794
28	0	0	1734	964	183	901	2797
29	0	0	2160	964	183	901	2801
30	0	0	2543	965	183	900	2803
31	0	0	2803	964	184	901	2804
32	0	0	2949	964	182	901	2803
33	0	0	3008	964	182	901	2800
34	0	0	3026	963	183	900	2792
35	0	0	3043	959	184	901	2789
36	0	0	2853	958	183	901	2790
37	0	0	2554	958	183	900	2793
38	0	0	2277	957	183	901	2797
39	0	0	2005	958	183	901	2801
40	0	0	1733	958	184	900	2803
41	0	0	1482	957	184	901	2804
42	0	0	1299	958	182	901	2802
43	0	0	1195	958	184	901	2799
44	0	0	1089	957	183	901	2792
45	0	0	911	960	184	901	2790
46	0	0	1066	964	186	901	2791
47	0	0	1394	964	184	901	2793
48	0	0	1730	964	183	901	2798
49	0	0	2158	963	184	901	2801
50	0	0	2536	963	183	901	2803
51	0	0	2788	964	183	901	2804
52	0	0	2935	964	184	900	2803
53	0	0	2992	963	183	901	2800
54	0	0	3015	964	183	901	2793
55	0	0	3041	959	182	901	2789
56	0	0	2850	958	183	901	2791
57	0	0	2555	958	183	901	2794
58	0	0	2287	957	184	901	2797
59	0	0	2013	958	183	900	2800
60	0	0	1740	957	184	901	2803
61	0	0	1487	957	183	901	2804
62	0	0	1311	958	184	901	2803
63	0	0	1212	958	183	901	2799
64	0	0	1104	957	183	900	2793
65	0	0	929	960	183	900	2790
66	0	0	1085	963	184	901	2791
67	0	0	1414	964	184	900	2793
68	0	0	1743	963	184	901	2797
69	0	0	2168	963	183	901	2801
70	0	0	2556	964	183	901	2803
71	0	0	2815	964	183	901	2803
72	0	0	2957	964	183	901	2803
73	0	0	3007	963	183	901	2799
74	0	0	3027	963	182	901	2792
75	0	0	3044	959	182	901	2790
76	0	0	2853	957	182	901	2790
77	0	0	2552	958	183	901	2793
78	0	0	2273	957	184	901	2797
79	0	0	1997	957	184	901	2801
80	0	0	1728	957	182	901	2803
81	0	0	1473	958	184	901	2804
82	0	0	1290	958	184	901	2803
83	0	0	1188	958	183	900	2799
84	0	0	1084	957	184	900	2792
85	0	0	910	960	184	901	2789
86	0	0	1063	963	184	901	2790
87	0	0	1387	963	184	901	2793
88	0	0	1718	963	184	901	2797
89	0	0	2145	963	182	901	2800
90	0	0	2531	963	183	901	2803
91	0	0	2789	964	184	901	2803
92	0	0	2937	964	185	901	2802
93	0	0	2994	963	183	901	2799
94	0	0	3006	963	183	901	2792
95	0	0	3025	959	183	900	2789
96	0	0	2830	957	183	900	2790
97	0	0	2531	957	184	900	2793
98	0	0	2259	956	182	901	2797
99	0	0	1979	957	184	901	2801
100	0	0	1715	957	183	900	2803
101	0	0	1466	957	183	900	2804
102	0	0	1283	958	184	900	2803
103	0	0	1174	958	184	901	2799
104	0	0	1060	957	184	900	2792
105	0	0	886	960	184	901	2789
106	0	0	1043	963	183	901	2790
107	0	0	1375	964	183	901	2793
108	0	0	1710	962	183	901	2796
109	0	0	2138	963	183	901	2800
110	0	0	2527	963	183	901	2803
111	0	0	2792	963	183	901	2803
112	0	0	2942	963	183	901	2802
113	0	0	3003	964	184	901	2800
114	0	0	3027	963	183	901	2792
115	0	0	3052	959	183	901	2790
116	0	0	2858	957	184	901	2790
117	0	0	2550	957	184	900	2793
118	0	0	2276	957	184	901	2798
119	0	0	2000	957	184	901	2800
120	0	0	1733	956	183	900	2803
121	0	0	1484	957	183	901	2804
122	0	0	1307	958	183	901	2803
123	0	0	1205	958	183	901	2799
124	0	0	1102	957	183	900	2792
125	0	0	930	960	184	901	2789
126	0	0	1085	963	183	901	2790
127	0	0	1408	963	184	901	2793
0	0	0	1744	963	184	901	2797
1	0	0	2167	963	183	901	2800
2	0	0	2546	963	182	901	2803
3	0	0	2805	963	184	900	2803
4	0	0	2951	964	182	901	2803
5	0	0	3008	962	182	901	2799
6	0	0	3029	963	184	901	2793
7	0	0	3060	958	183	900	2789
8	0	0	2867	957	184	901	2790
9	0	0	2570	957	183	901	2793
10	0	0	2301	957	183	901	2796
11	0	0	2020	956	184	901	2800
12	0	0	1749	956	184	901	2803
13	0	0	1500	957	183	900	2804
14	0	0	1315	957	184	901	2803
15	0	0	1206	958	183	901	2799
16	0	0	1097	956	184	900	2792
17	0	0	917	959	183	901	2790
18	0	0	1075	963	186	901	2790
19	0	0	1404	963	183	901	2793
20	0	0	1734	962	183	901	2797
21	0	0	2159	963	183	901	2801
22	0	0	2543	963	183	901	2803
23	0	0	2803	963	183	901	2804
24	0	0	2946	963	184	901	2802
25	0	0	3003	962	183	901	2799
26	0	0	3029	962	183	901	2792
27	0	0	3055	959	182	900	2789
28	0	0	2866	957	182	901	2790
29	0	0	2566	957	182	901	2793
30	0	0	2291	957	183	900	2796
31	0	0	2013	957	184	900	2800
32	0	0	1741	957	184	901	2803
33	0	0	1485	957	183	901	2803
34	0	0	1305	957	185	901	2802
35	0	0	1208	957	184	901	2799
36	0	0	1104	957	184	901	2793
37	0	0	924	959	185	901	2789
38	0	0	1070	962	183	901	2790
39	0	0	1397	962	184	901	2793
40	0	0	1734	962	184	901	2797
41	0	0	2165	962	183	901	2800
42	0	0	2547	964	183	901	2803
43	0	0	2804	963	183	901	2803
44	0	0	2948	963	183	901	2802
45	0	0	2996	962	182	901	2798
46	0	0	3008	962	184	901	2791
47	0	0	3031	958	184	901	2789
48	0	0	2842	957	184	901	2790
49	0	0	2546	957	184	901	2793
50	0	0	2275	956	184	901	2797
51	0	0	1998	956	182	900	2800
52	0	0	1726	956	183	901	2803
53	0	0	1472	956	184	901	2804
54	0	0	1290	957	185	901	2802
55	0	0	1185	957	183	901	2799
56	0	0	1079	957	184	900	2792
57	0	0	899	958	183	901	2789
58	0	0	1052	963	183	901	2791
59	0	0	1384	962	183	901	2793
60	0	0	1723	962	183	901	2797
61	0	0	2148	962	183	901	2800
62	0	0	2523	962	183	901	2802
63	0	0	2778	963	184	901	2803
64	0	0	2920	963	183	901	2802
65	0	0	2973	962	183	901	2799
66	0	0	2990	962	183	901	2792
67	0	0	3015	958	183	901	2790
68	0	0	2819	957	184	900	2790
69	0	0	2513	956	184	901	2793
70	0	0	2238	956	183	901	2797
71	0	0	1958	956	184	901	2801
72	0	0	1687	956	184	901	2803
73	0	0	1436	956	183	901	2804
74	0	0	1257	957	185	901	2802
75	0	0	1148	956	183	901	2799
76	0	0	1027	955	184	901	2792
77	0	0	847	959	184	901	2789
78	0	0	1006	962	184	901	2790
79	0	0	1344	962	184	901	2793
80	0	0	1688	962	183	901	2797
81	0	0	2115	962	184	901	2800
82	0	0	2504	962	183	901	2803
83	0	0	2766	962	183	901	2803
84	0	0	2913	962	183	901	2802
85	0	0	2967	961	182	901	2799
86	0	0	2983	962	182	901	2792
87	0	0	3002	958	184	901	2789
88	0	0	2814	956	183	901	2790
89	0	0	2512	955	184	901	2793
90	0	0	2239	955	183	901	2797
91	0	0	1962	956	183	900	2800
92	0	0	1691	955	184	900	2802
93	0	0	1438	956	183	901	2803
94	0	0	1256	955	184	901	2802
95	0	0	1157	956	183	901	2799
96	0	0	1048	955	184	901	2791
97	0	0	873	958	184	901	2788
98	0	0	1030	962	183	901	2790
99	0	0	1363	961	185	901	2793
100	0	0	1708	962	183	901	2797
101	0	0	2135	961	182	901	2800
102	0	0	2517	962	184	901	2803
103	0	0	2778	961	184	901	2804
104	0	0	2924	962	184	901	2802
105	0	0	2980	962	183	901	2798
106	0	0	3002	961	183	901	2791
107	0	0	3034	957	183	901	2788
108	0	0	2845	955	183	900	2790
109	0	0	2547	955	183	901	2792
110	0	0	2273	955	184	901	2796
111	0	0	1988	955	183	901	2800
112	0	0	1713	954	184	901	2802
113	0	0	1463	955	183	900	2803
114	0	0	1283	955	182	901	2802
115	0	0	1186	956	183	901	2798
116	0	0	1077	955	183	900	2791
117	0	0	895	957	183	900	2788
118	0	0	1050	961	184	901	2790
119	0	0	1378	961	183	901	2793
120	0	0	1716	961	183	901	2796
121	0	0	2144	961	182	901	2800
122	0	0	2530	961	184	901	2802
123	0	0	2788	960	184	901	2803
124	0	0	2932	961	183	901	2802
125	0	0	2987	961	184	901	2798
126	0	0	3010	961	183	901	2792
127	0	0	3038	956	183	900	2788
0	0	0	2852	955	184	901	2790
1	0	0	2550	954	184	901	2793
2	0	0	2275	954	184	901	2796
3	0	0	1999	954	183	901	2799
4	0	0	1730	955	184	901	2802
5	0	0	1478	955	184	901	2802
6	0	0	1299	955	183	901	2801
7	0	0	1195	955	184	901	2798
8	0	0	1080	954	183	901	2792
9	0	0	903	958	183	901	2788
10	0	0	1052	961	184	901	2790
11	0	0	1382	961	184	900	2792
12	0	0	1718	960	183	901	2796
13	0	0	2137	960	184	901	2799
14	0	0	2520	961	183	901	2802
15	0	0	2787	960	184	901	2803
16	0	0	2936	960	183	901	2801
17	0	0	2992	960	183	901	2798
18	0	0	3017	960	184	901	2791
19	0	0	3048	955	183	901	2788
20	0	0	2857	954	182	900	2789
21	0	0	2556	954	184	901	2792
22	0	0	2279	953	183	901	2796
23	0	0	1999	953	184	901	2799
24	0	0	1732	953	184	901	2802
25	0	0	1484	954	182	901	2802
26	0	0	1301	954	184	901	2801
27	0	0	1195	955	183	901	2798
28	0	0	1081	953	184	901	2791
29	0	0	892	955	185	901	2789
30	0	0	1041	960	185	901	2789
31	0	0	1365	959	183	901	2792
32	0	0	1704	959	184	901	2796
33	0	0	2133	959	183	900	2799
34	0	0	2511	960	182	901	2801
35	0	0	2771	959	184	902	2802
36	0	0	2919	960	184	901	2801
37	0	0	2976	959	183	900	2797
38	0	0	2994	959	183	900	2790
39	0	0	3018	955	184	901	2787
40	0	0	2826	953	182	900	2788
41	0	0	2530	953	185	901	2792
42	0	0	2252	953	183	901	2795
43	0	0	1971	953	183	901	2799
44	0	0	1704	952	184	901	2801
45	0	0	1453	952	183	901	2802
46	0	0	1276	953	184	901	2801
47	0	0	1172	953	184	901	2798
48	0	0	1066	953	184	900	2790
49	0	0	890	954	183	901	2787
50	0	0	1034	958	184	901	2788
51	0	0	1355	959	184	900	2791
52	0	0	1691	958	184	901	2795
53	0	0	2118	959	183	901	2798
54	0	0	2500	959	183	900	2801
55	0	0	2762	958	183	900	2801
56	0	0	2905	959	184	900	2801
57	0	0	2962	959	183	901	2797
58	0	0	2977	958	183	901	2790
59	0	0	3007	954	184	901	2788
60	0	0	2828	952	182	901	2788
61	0	0	2534	953	183	901	2791
62	0	0	2264	952	183	901	2796
63	0	0	1990	952	183	901	2798
64	0	0	1726	952	184	901	2801
65	0	0	1475	952	183	901	2802
66	0	0	1296	952	184	901	2801
67	0	0	1194	953	183	901	2797
68	0	0	1079	952	184	901	2790
69	0	0	907	954	184	901	2787
70	0	0	1060	957	183	900	2788
71	0	0	1384	958	183	901	2791
72	0	0	1724	958	184	901	2795
73	0	0	2145	958	184	901	2799
74	0	0	2522	958	183	901	2801
75	0	0	2782	958	183	901	2802
76	0	0	2931	958	183	901	2801
77	0	0	2991	958	183	901	2797
78	0	0	3015	958	183	900	2790
79	0	0	3046	953	183	900	2787
80	0	0	2860	951	183	901	2788
81	0	0	2566	952	184	901	2791
82	0	0	2285	951	184	901	2795
83	0	0	2006	951	183	900	2798
84	0	0	1744	951	183	901	2801
85	0	0	1497	951	185	901	2801
86	0	0	1317	952	184	901	2800
87	0	0	1215	953	184	901	2797
88	0	0	1106	951	183	901	2790
89	0	0	930	954	184	901	2787
90	0	0	1082	957	182	901	2788
91	0	0	1402	957	183	901	2792
92	0	0	1741	958	183	901	2795
93	0	0	2165	957	184	901	2798
94	0	0	2539	957	182	901	2801
95	0	0	2800	957	183	900	2802
96	0	0	2945	957	183	900	2800
97	0	0	3003	957	183	901	2797
98	0	0	3029	957	183	901	2790
99	0	0	3056	953	182	901	2787
100	0	0	2869	951	184	900	2788
101	0	0	2578	951	183	900	2791
102	0	0	2307	951	184	901	2795
103	0	0	2036	950	185	901	2798
104	0	0	1769	950	184	901	2800
105	0	0	1518	951	183	901	2801
106	0	0	1339	951	183	901	2800
107	0	0	1233	952	184	901	2797
108	0	0	1123	952	184	901	2789
109	0	0	950	953	184	901	2787
110	0	0	1099	956	184	901	2788
111	0	0	1423	957	183	900	2791
112	0	0	1755	957	183	900	2795
113	0	0	2174	957	184	900	2798
114	0	0	2551	956	183	900	2800
115	0	0	2810	957	183	900	2801
116	0	0	2955	957	183	900	2800
117	0	0	3012	956	183	901	2796
118	0	0	3037	957	184	901	2790
119	0	0	3066	952	184	901	2786
120	0	0	2876	951	184	901	2787
121	0	0	2584	950	184	901	2790
122	0	0	2308	950	183	901	2794
123	0	0	2029	950	184	901	2797
124	0	0	1761	950	183	901	2800
125	0	0	1510	950	183	901	2801
126	0	0	1323	950	183	901	2800
127	0	0	1218	951	185	901	2797
0	0	0	1115	950	184	901	2790
1	0	0	944	953	184	901	2786
2	0	0	1092	955	183	900	2787
3	0	0	1407	956	184	900	2790
4	0	0	1733	956	183	901	2794
5	0	0	2156	957	183	900	2797
6	0	0	2528	956	183	901	2800
7	0	0	2784	956	184	901	2801
8	0	0	2937	957	182	900	2800
9	0	0	2994	956	183	901	2796
10	0	0	3015	956	183	900	2789
11	0	0	3046	952	183	901	2786
12	0	0	2860	950	184	900	2787
13	0	0	2568	950	183	901	2790
14	0	0	2295	950	184	901	2794
15	0	0	2019	950	184	901	2798
16	0	0	1746	949	183	901	2800
17	0	0	1493	949	183	901	2801
18	0	0	1312	950	184	901	2800
19	0	0	1204	951	184	901	2796
20	0	0	1093	949	183	901	2789
21	0	0	920	951	183	901	2786
22	0	0	1066	955	183	901	2787
23	0	0	1384	955	183	900	2790
24	0	0	1725	955	184	901	2794
25	0	0	2141	955	184	900	2797
26	0	0	2507	955	182	901	2800
27	0	0	2754	955	183	901	2800
28	0	0	2903	955	183	901	2799
29	0	0	2966	955	183	901	2796
30	0	0	2989	955	184	901	2789
31	0	0	3021	951	183	901	2786
32	0	0	2834	949	184	901	2787
33	0	0	2540	949	184	901	2790
34	0	0	2267	949	184	901	2794
35	0	0	1993	948	183	900	2797
36	0	0	1732	949	184	900	2800
37	0	0	1488	948	184	901	2800
38	0	0	1302	950	183	900	2799
39	0	0	1197	950	184	901	2796
40	0	0	1074	949	185	901	2789
41	0	0	890	951	183	901	2786
42	0	0	1040	955	184	901	2787
43	0	0	1362	955	183	900	2790
44	0	0	1690	954	183	901	2793
45	0	0	2114	955	184	901	2798
46	0	0	2488	955	183	900	2799
47	0	0	2745	955	183	900	2800
48	0	0	2895	955	184	900	2799
49	0	0	2953	954	184	901	2796
50	0	0	2972	954	182	901	2789
51	0	0	3007	950	183	901	2785
52	0	0	2820	949	183	901	2787
53	0	0	2529	948	183	900	2790
54	0	0	2260	948	184	901	2794
55	0	0	1984	948	184	901	2796
56	0	0	1722	948	183	901	2800
57	0	0	1478	949	183	901	2800
58	0	0	1294	948	183	901	2799
59	0	0	1190	949	183	901	2795
60	0	0	1074	947	184	901	2788
61	0	0	902	950	184	901	2785
62	0	0	1053	954	184	901	2787
63	0	0	1375	954	184	900	2789
64	0	0	1704	954	182	900	2793
65	0	0	2126	954	183	901	2796
66	0	0	2501	954	183	900	2799
67	0	0	2759	954	183	900	2800
68	0	0	2912	954	184	901	2799
69	0	0	2974	953	182	901	2795
70	0	0	3001	954	184	901	2788
71	0	0	3027	949	183	901	2785
72	0	0	2844	948	185	901	2786
73	0	0	2548	948	182	901	2789
74	0	0	2268	947	184	901	2793
75	0	0	1989	947	183	901	2796
76	0	0	1728	947	183	901	2798
77	0	0	1485	948	184	901	2799
78	0	0	1302	948	184	900	2798
79	0	0	1197	949	182	901	2795
80	0	0	1089	948	184	900	2788
81	0	0	914	950	183	901	2785
82	0	0	1070	953	184	900	2786
83	0	0	1393	953	186	901	2789
84	0	0	1726	953	185	901	2793
85	0	0	2161	953	183	901	2796
86	0	0	2537	954	182	901	2799
87	0	0	2791	954	183	901	2800
88	0	0	2936	953	184	901	2798
89	0	0	2998	953	183	901	2794
90	0	0	3022	953	183	901	2788
91	0	0	3057	949	184	901	2784
92	0	0	2867	947	183	901	2785
93	0	0	2577	947	183	900	2788
94	0	0	2303	947	184	901	2792
95	0	0	2019	946	184	901	2796
96	0	0	1749	947	184	901	2798
97	0	0	1505	947	183	901	2799
98	0	0	1324	947	183	901	2798
99	0	0	1220	949	182	901	2795
100	0	0	1110	947	184	901	2788
101	0	0	930	949	183	901	2785
102	0	0	1072	953	184	900	2786
103	0	0	1396	953	184	901	2789
104	0	0	1725	953	184	901	2792
105	0	0	2152	953	184	900	2796
106	0	0	2536	954	185	901	2798
107	0	0	2799	953	183	901	2799
108	0	0	2955	953	183	901	2798
109	0	0	3018	952	184	901	2794
110	0	0	3044	953	183	901	2788
111	0	0	3073	948	184	900	2784
112	0	0	2885	947	183	901	2785
113	0	0	2594	947	184	901	2789
114	0	0	2319	947	184	901	2792
115	0	0	2040	946	183	901	2796
116	0	0	1775	947	182	901	2798
117	0	0	1521	946	183	901	2799
118	0	0	1333	946	185	901	2798
119	0	0	1230	947	185	901	2794
120	0	0	1119	946	183	901	2787
121	0	0	947	949	183	901	2784
122	0	0	1095	952	184	901	2785
123	0	0	1418	952	184	900	2788
124	0	0	1750	952	183	901	2792
125	0	0	2182	952	183	901	2795
126	0	0	2556	952	182	901	2797
127	0	0	2805	952	183	901	2798
0	0	0	2952	952	184	900	2797
1	0	0	3014	953	183	901	2794
2	0	0	3035	952	183	900	2787
3	0	0	3072	948	182	901	2785
4	0	0	2882	946	183	902	2785
5	0	0	2580	946	184	901	2788
6	0	0	2307	946	183	901	2792
7	0	0	2025	945	184	901	2795
8	0	0	1750	945	183	901	2798
9	0	0	1501	946	183	900	2798
10	0	0	1323	946	184	901	2797
11	0	0	1219	947	184	901	2794
12	0	0	1103	945	184	901	2786
13	0	0	924	948	183	902	2784
14	0	0	1072	952	183	901	2785
15	0	0	1398	952	185	901	2788
16	0	0	1730	951	184	900	2792
17	0	0	2158	951	182	901	2796
18	0	0	2542	952	183	901	2797
19	0	0	2800	951	184	901	2799
20	0	0	2941	951	183	901	2798
21	0	0	2995	951	184	900	2794
22	0	0	3013	952	183	901	2787
23	0	0	3038	946	184	901	2783
24	0	0	2847	945	183	901	2785
25	0	0	2546	945	184	901	2787
26	0	0	2267	945	183	901	2791
27	0	0	1981	945	184	901	2794
28	0	0	1716	945	184	901	2797
29	0	0	1473	945	183	901	2798
30	0	0	1286	945	183	900	2797
31	0	0	1175	946	185	901	2793
32	0	0	1050	945	184	901	2787
33	0	0	872	947	185	901	2783
34	0	0	1026	951	183	900	2784
35	0	0	1350	951	183	901	2787
36	0	0	1684	950	183	900	2791
37	0	0	2120	951	183	901	2795
38	0	0	2499	950	182	901	2798
39	0	0	2753	951	184	902	2798
40	0	0	2898	951	184	901	2797
41	0	0	2958	950	183	901	2793
42	0	0	2981	950	184	901	2786
43	0	0	3008	946	183	901	2783
44	0	0	2811	944	184	901	2785
45	0	0	2512	945	183	900	2787
46	0	0	2241	944	183	900	2791
47	0	0	1962	944	184	901	2794
48	0	0	1689	944	182	901	2797
49	0	0	1444	944	184	901	2797
50	0	0	1270	944	185	900	2797
51	0	0	1163	945	183	901	2793
52	0	0	1050	944	183	901	2787
53	0	0	878	946	184	901	2783
54	0	0	1031	950	184	901	2784
55	0	0	1359	949	184	901	2788
56	0	0	1693	950	183	900	2791
57	0	0	2120	949	184	901	2794
58	0	0	2501	949	182	901	2798
59	0	0	2759	950	183	902	2798
60	0	0	2904	949	184	901	2796
61	0	0	2960	949	183	901	2793
62	0	0	2980	949	183	900	2785
63	0	0	3008	946	182	900	2783
64	0	0	2817	943	184	901	2784
65	0	0	2517	944	184	901	2787
66	0	0	2237	943	184	901	2791
67	0	0	1957	943	184	901	2794
68	0	0	1687	944	184	901	2797
69	0	0	1435	943	183	901	2797
70	0	0	1259	943	184	901	2796
71	0	0	1156	944	184	901	2793
72	0	0	1044	942	183	901	2786
73	0	0	871	945	184	901	2784
74	0	0	1025	948	184	902	2784
75	0	0	1351	949	183	901	2787
76	0	0	1686	948	184	901	2791
77	0	0	2118	949	184	901	2794
78	0	0	2498	949	184	901	2796
79	0	0	2751	949	184	901	2797
80	0	0	2897	949	183	900	2796
81	0	0	2957	948	183	900	2792
82	0	0	2985	948	183	901	2785
83	0	0	3015	944	183	901	2782
84	0	0	2825	942	183	901	2784
85	0	0	2530	942	183	901	2787
86	0	0	2257	942	183	901	2791
87	0	0	1975	942	183	901	2794
88	0	0	1700	942	183	901	2796
89	0	0	1452	942	185	901	2797
90	0	0	1274	942	185	901	2796
91	0	0	1171	943	184	901	2793
92	0	0	1062	942	184	901	2786
93	0	0	888	944	184	901	2783
94	0	0	1039	948	184	901	2784
95	0	0	1372	948	184	901	2786
96	0	0	1714	948	183	901	2790
97	0	0	2143	948	183	901	2793
98	0	0	2526	947	183	900	2796
99	0	0	2782	947	183	901	2797
100	0	0	2927	948	184	901	2796
101	0	0	2987	947	182	900	2792
102	0	0	3015	948	184	901	2786
103	0	0	3040	943	184	901	2782
104	0	0	2847	941	183	901	2784
105	0	0	2550	941	182	901	2787
106	0	0	2273	941	182	901	2790
107	0	0	1994	941	184	901	2794
108	0	0	1730	941	185	901	2795
109	0	0	1482	941	184	901	2796
110	0	0	1301	941	184	901	2795
111	0	0	1203	942	184	901	2792
112	0	0	1088	941	184	901	2785
113	0	0	913	943	184	901	2782
114	0	0	1067	947	183	901	2783
115	0	0	1392	947	184	902	2786
116	0	0	1730	946	183	900	2790
117	0	0	2154	946	183	901	2793
118	0	0	2537	947	184	900	2796
119	0	0	2792	946	184	901	2796
120	0	0	2943	947	183	901	2795
121	0	0	3000	946	182	901	2792
122	0	0	3025	946	184	900	2784
123	0	0	3049	942	182	901	2782
124	0	0	2857	941	184	901	2783
125	0	0	2559	940	183	901	2786
126	0	0	2286	940	184	901	2790
127	0	0	2009	941	184	901	2793
0	0	0	1741	940	184	901	2796
1	0	0	1493	940	184	901	2796
2	0	0	1309	940	184	901	2795
3	0	0	1203	942	183	901	2791
4	0	0	1080	940	184	901	2784
5	0	0	904	942	183	901	2782
6	0	0	1056	946	184	901	2783
7	0	0	1389	946	185	901	2786
8	0	0	1729	946	183	900	2790
9	0	0	2158	946	184	901	2793
10	0	0	2543	946	182	901	2795
11	0	0	2798	945	184	901	2796
12	0	0	2940	946	183	901	2796
13	0	0	2995	946	182	901	2792
14	0	0	3006	946	183	901	2784
15	0	0	3028	940	185	901	2781
16	0	0	2839	940	183	901	2782
17	0	0	2547	939	183	902	2785
18	0	0	2273	939	184	901	2789
19	0	0	1995	939	184	901	2792
20	0	0	1727	939	184	901	2796
21	0	0	1473	940	184	902	2796
22	0	0	1290	940	184	902	2795
23	0	0	1184	940	182	901	2791
24	0	0	1071	939	184	901	2785
25	0	0	892	941	184	901	2781
26	0	0	1046	946	184	901	2783
27	0	0	1369	945	184	902	2785
28	0	0	1705	945	183	901	2789
29	0	0	2135	945	184	901	2792
30	0	0	2515	945	183	901	2795
31	0	0	2772	945	183	901	2795
32	0	0	2919	946	183	901	2795
33	0	0	2981	945	184	901	2791
34	0	0	3003	945	183	900	2784
35	0	0	3026	940	184	901	2781
36	0	0	2831	939	183	901	2782
37	0	0	2534	939	183	902	2785
38	0	0	2266	939	183	901	2789
39	0	0	1986	939	184	901	2792
40	0	0	1720	938	184	901	2795
41	0	0	1475	940	184	903	2796
42	0	0	1295	939	183	901	2795
43	0	0	1186	940	184	901	2791
44	0	0	1068	938	183	901	2784
45	0	0	894	940	183	901	2781
46	0	0	1046	944	185	901	2782
47	0	0	1370	945	183	901	2785
48	0	0	1699	945	182	900	2789
49	0	0	2120	944	183	901	2792
50	0	0	2502	945	183	900	2794
51	0	0	2757	944	184	901	2795
52	0	0	2899	945	183	901	2794
53	0	0	2949	945	183	900	2791
54	0	0	2971	944	184	901	2784
55	0	0	2991	941	183	900	2780
56	0	0	2804	938	184	901	2782
57	0	0	2512	938	182	901	2785
58	0	0	2238	938	183	901	2788
59	0	0	1960	938	183	901	2792
60	0	0	1690	938	182	901	2794
61	0	0	1442	937	183	901	2795
62	0	0	1262	938	184	901	2794
63	0	0	1163	939	183	901	2791
64	0	0	1058	937	184	901	2784
65	0	0	892	940	184	901	2781
66	0	0	1045	943	184	901	2782
67	0	0	1366	943	185	901	2784
68	0	0	1700	944	183	900	2788
69	0	0	2122	943	184	901	2791
70	0	0	2500	942	183	900	2794
71	0	0	2753	943	184	901	2795
72	0	0	2899	943	183	902	2794
73	0	0	2955	944	184	901	2791
74	0	0	2966	943	183	901	2783
75	0	0	2983	939	183	901	2781
76	0	1	2800	937	183	901	2781
77	0	1	2515	938	183	901	2784
78	0	1	2255	937	184	901	2788
79	0	1	1980	937	183	901	2791
80	0	1	1715	936	183	901	2794
81	0	1	1476	937	184	901	2795
82	0	1	1302	937	183	901	2794
83	0	1	1198	938	182	901	2790
84	0	1	1091	937	184	901	2783
85	0	1	915	939	185	901	2780
86	0	1	1070	943	183	901	2781
87	0	1	1389	943	184	901	2784
88	0	1	1723	942	183	901	2788
89	0	1	2147	942	183	901	2791
90	0	1	2528	943	183	900	2794
91	0	1	2781	942	183	900	2794
92	0	1	2926	943	183	901	2793
93	0	1	2986	943	184	901	2790
94	0	1	3012	943	184	901	2784
95	0	1	3039	939	183	901	2780
96	0	1	2856	936	183	901	2781
97	0	1	2558	936	184	901	2784
98	0	1	2286	936	183	901	2788
99	0	1	2014	936	183	901	2791
100	1	1	1746	937	184	901	2793
101	1	1	1525	936	185	901	2794
102	1	1	1368	937	184	901	2793
103	1	1	1272	937	184	901	2790
104	1	1	1157	936	183	901	2782
105	1	1	975	939	185	902	2780
106	1	1	1110	942	184	901	2781
107	1	1	1421	943	183	901	2784
108	1	1	1749	943	183	901	2787
109	1	1	2168	943	183	901	2791
110	1	1	2547	943	185	901	2793
111	1	1	2799	943	184	901	2794
112	1	1	2944	942	183	901	2793
113	1	1	3001	942	184	901	2790
114	1	1	3008	942	183	901	2782
115	1	1	3023	938	183	901	2779
116	1	1	2835	936	183	901	2781
117	1	1	2544	936	185	902	2784
118	1	1	2269	935	183	901	2787
119	1	1	1995	936	184	901	2790
120	1	1	1737	935	183	901	2793
121	1	1	1493	935	184	901	2794
122	1	1	1309	936	184	901	2793
123	1	1	1204	937	182	901	2789
124	1	1	1089	935	184	901	2782
125	1	1	918	938	184	901	2780
126	1	1	1077	942	183	901	2781
127	1	1	1401	941	183	901	2783
0	1	1	1737	942	183	901	2788
1	1	1	2170	942	184	901	2790
2	1	1	2553	941	183	901	2793
3	1	1	2807	941	184	901	2794
4	1	1	2951	942	183	901	2793
5	1	1	3009	941	184	901	2789
6	1	1	3032	942	183	901	2782
7	1	1	3069	938	183	901	2779
8	1	1	2884	935	184	901	2780
9	1	1	2588	935	184	901	2783
10	1	1	2319	935	182	901	2787
11	1	1	2040	936	183	901	2791
12	1	1	1768	936	183	901	2793
13	1	1	1522	934	184	901	2793
14	1	1	1342	936	184	901	2793
15	1	1	1240	936	183	901	2789
16	1	1	1126	935	184	901	2782
17	1	1	949	937	183	901	2779
18	1	1	1096	940	184	901	2780
19	1	1	1424	941	184	901	2783
20	1	1	1761	941	183	901	2787
21	1	1	2188	941	183	901	2790
22	1	1	2568	941	183	901	2792
23	1	1	2824	940	183	901	2793
24	1	1	2965	941	184	901	2793
25	1	1	3018	941	183	901	2788
26	1	1	3040	941	183	901	2782
27	1	1	3062	936	183	902	2778
28	1	1	2873	933	185	901	2779
29	1	1	2577	935	183	901	2782
30	1	1	2300	935	182	901	2787
31	1	1	2021	934	184	901	2790
32	1	1	1749	934	183	901	2793
33	1	1	1502	935	184	902	2793
34	1	1	1316	935	184	901	2792
35	1	1	1204	935	184	901	2789
36	1	1	1089	934	184	901	2781
37	1	1	906	936	184	902	2779
38	1	1	1050	939	184	901	2780
39	1	1	1369	940	183	901	2783
40	1	1	1703	940	184	901	2786
41	1	1	2131	940	183	901	2789
42	1	1	2510	940	185	901	2792
43	1	1	2761	940	183	901	2792
44	1	1	2903	940	183	901	2791
45	1	1	2958	940	183	901	2788
46	1	1	2974	940	183	901	2781
47	1	1	3001	935	183	901	2778
48	1	1	2807	934	183	901	2779
49	1	1	2508	934	184	901	2782
50	1	1	2235	934	183	901	2786
51	1	1	1952	934	184	901	2789
52	1	1	1682	934	184	901	2793
53	1	1	1434	934	184	901	2793
54	1	1	1250	934	184	901	2791
55	1	1	1145	935	183	901	2788
56	1	1	1026	933	184	901	2781
57	1	1	854	936	183	902	2778
58	1	1	1008	939	184	901	2779
59	1	1	1339	939	184	901	2782
60	1	1	1677	939	183	901	2786
61	1	1	2103	938	183	901	2789
62	1	1	2483	939	184	901	2792
63	1	1	2739	939	184	901	2792
64	1	1	2878	939	183	901	2792
65	1	1	2934	939	183	901	2788
66	1	1	2955	939	183	901	2781
67	1	1	2983	935	182	901	2778
68	1	1	2793	934	183	901	2779
69	1	1	2500	933	183	902	2782
70	1	1	2229	933	184	901	2786
71	1	1	1956	933	183	901	2789
72	1	1	1688	932	184	901	2791
73	1	1	1449	933	183	901	2792
74	1	1	1276	934	184	901	2791
75	1	1	1179	934	184	901	2788
76	1	1	1071	932	184	901	2781
77	1	1	905	936	183	901	2777
78	1	1	1066	938	184	901	2778
79	1	1	1393	939	183	901	2782
80	1	1	1727	939	184	901	2786
81	1	1	2154	938	184	901	2789
82	1	1	2536	938	184	901	2791
83	1	1	2792	938	182	901	2792
84	1	1	2941	938	184	901	2791
85	1	1	3000	939	184	901	2788
86	1	1	3018	938	184	901	2780
87	1	1	3044	934	183	901	2778
88	1	1	2851	932	184	901	2779
89	1	1	2552	932	183	901	2781
90	1	1	2281	932	183	901	2785
91	1	1	2006	932	182	901	2788
92	1	1	1746	932	184	901	2791
93	1	1	1501	932	185	901	2792
94	1	1	1317	932	184	902	2791
95	1	1	1210	933	184	901	2787
96	1	1	1097	932	183	901	2780
97	1	1	932	934	184	901	2777
98	1	1	1089	937	183	901	2778
99	1	1	1415	938	184	902	2781
100	1	1	1747	938	183	901	2785
101	1	1	2175	938	184	902	2789
102	1	1	2554	938	183	901	2791
103	1	1	2803	939	184	901	2792
104	1	1	2947	938	183	901	2791
105	1	1	3004	939	183	901	2787
106	1	1	3022	938	183	901	2780
107	1	1	3049	933	183	901	2777
108	1	1	2865	932	183	901	2778
109	1	1	2572	932	183	901	2781
110	1	1	2307	931	184	901	2785
111	1	1	2036	931	184	901	2788
112	1	1	1776	931	184	901	2791
113	1	1	1532	932	185	901	2792
114	1	1	1355	932	183	901	2791
115	1	1	1251	932	184	901	2787
116	1	1	1140	931	186	901	2780
117	1	1	972	933	184	901	2777
118	1	1	1129	936	184	902	2778
119	1	1	1455	937	184	902	2781
120	1	1	1793	937	183	901	2785
121	1	1	2213	937	184	901	2788
122	1	1	2590	937	183	901	2790
123	1	1	2846	937	183	901	2791
124	1	1	2997	937	184	902	2790
125	1	1	3054	936	183	901	2786
126	1	1	3069	936	183	901	2779
127	1	1	3095	932	184	901	2777
0	1	1	2904	931	183	901	2777
1	1	1	2610	930	184	901	2780
2	1	1	2343	931	184	902	2785
3	1	1	2068	930	183	901	2788
4	1	1	1804	930	184	901	2790
5	1	1	1560	930	183	901	2791
6	1	1	1380	931	184	901	2790
7	1	1	1275	931	183	901	2786
8	1	1	1163	930	184	901	2779
9	1	1	990	932	183	901	2776
10	1	1	1146	936	183	901	2777
11	1	1	1470	936	184	902	2780
12	1	1	1803	936	184	900	2784
13	1	1	2232	936	183	901	2787
14	1	1	2612	936	183	901	2790
15	1	1	2850	936	184	901	2790
16	1	1	2977	936	184	901	2789
17	1	1	3022	936	183	901	2786
18	1	1	3021	936	184	901	2779
19	1	1	3029	931	185	901	2777
20	1	1	2838	930	184	901	2778
21	1	1	2540	930	184	901	2780
22	1	1	2276	930	183	901	2784
23	1	1	2006	930	184	901	2787
24	1	1	1745	930	183	901	2790
25	1	1	1501	930	184	902	2791
26	1	1	1327	930	184	901	2789
27	1	1	1226	930	183	902	2786
28	1	1	1108	929	183	901	2779
29	1	1	933	931	184	901	2776
30	1	1	1080	935	185	901	2777
31	1	1	1399	935	183	901	2779
32	1	1	1734	935	184	901	2784
33	1	1	2152	935	184	901	2787
34	1	1	2520	935	184	901	2789
35	1	1	2764	936	183	901	2790
36	1	1	2900	935	184	901	2789
37	1	1	2955	935	184	902	2786
38	1	1	2970	934	184	901	2779
39	1	1	2991	931	184	901	2776
40	1	1	2809	929	183	901	2777
41	1	1	2521	929	183	901	2779
42	1	1	2259	929	183	901	2783
43	1	1	1984	929	184	901	2787
44	1	1	1719	928	184	901	2789
45	1	1	1474	929	184	901	2790
46	1	1	1293	929	184	902	2789
47	1	1	1187	930	185	901	2785
48	1	1	1080	928	184	901	2778
49	1	1	909	931	183	901	2775
50	1	1	1053	934	184	901	2777
51	1	1	1371	935	184	901	2780
52	1	1	1699	934	184	901	2783
53	1	1	2116	934	184	901	2787
54	1	1	2493	935	183	902	2789
55	1	1	2742	935	184	901	2790
56	1	1	2882	934	184	901	2789
57	1	1	2938	934	183	901	2785
58	1	1	2957	934	184	901	2778
59	1	1	2975	929	183	901	2775
60	1	1	2789	928	183	902	2776
61	1	1	2495	928	183	901	2779
62	1	1	2224	928	184	902	2783
63	1	1	1952	928	184	901	2786
64	1	1	1690	928	184	900	2789
65	1	1	1449	929	183	902	2790
66	1	1	1276	928	183	902	2789
67	1	1	1174	929	183	901	2785
68	1	1	1066	927	185	901	2778
69	1	1	896	929	183	901	2775
70	1	1	1045	934	183	901	2776
71	1	1	1365	933	185	901	2779
72	1	1	1697	933	184	902	2783
73	1	1	2117	934	183	902	2787
74	1	1	2494	934	184	901	2789
75	1	1	2746	934	183	901	2790
76	1	1	2883	933	183	901	2789
77	1	1	2934	934	183	901	2785
78	1	1	2950	934	183	901	2777
79	1	1	2967	929	183	901	2775
80	1	1	2784	927	183	902	2776
81	1	1	2495	927	183	901	2778
82	1	1	2229	927	183	900	2782
83	1	1	1960	927	183	901	2786
84	1	1	1698	927	184	900	2789
85	1	1	1454	928	183	901	2790
86	1	1	1273	927	184	901	2788
87	1	1	1172	928	184	901	2785
88	1	1	1058	927	184	901	2778
89	1	1	885	929	184	901	2775
90	1	1	1037	933	184	900	2776
91	1	1	1356	933	184	901	2779
92	1	1	1689	932	183	901	2782
93	1	1	2117	933	184	901	2786
94	1	1	2497	933	184	900	2788
95	1	1	2750	932	183	902	2789
96	1	1	2895	933	184	901	2788
97	1	1	2951	933	183	901	2784
98	1	1	2960	932	183	901	2777
99	1	1	2980	928	183	901	2774
100	1	1	2795	926	182	901	2775
101	1	1	2503	926	184	901	2778
102	1	1	2234	926	182	901	2783
103	1	1	1957	927	183	901	2786
104	1	1	1692	926	183	900	2789
105	1	1	1452	926	184	901	2789
106	1	1	1274	926	183	901	2788
107	1	1	1171	927	184	901	2785
108	1	1	1065	926	184	901	2777
109	1	1	897	928	185	902	2774
110	1	1	1047	933	183	901	2775
111	1	1	1361	932	183	901	2778
112	1	1	1691	932	184	901	2782
113	1	1	2109	932	183	901	2785
114	1	1	2487	931	183	901	2788
115	1	1	2736	932	182	902	2788
116	1	1	2875	932	184	901	2787
117	1	1	2932	932	184	901	2784
118	1	1	2950	931	183	901	2777
119	1	1	2974	928	183	901	2774
120	1	1	2792	926	183	901	2775
121	1	1	2501	926	184	901	2779
122	1	1	2233	925	183	901	2782
123	1	1	1964	925	184	901	2785
124	1	1	1703	925	184	901	2788
125	1	1	1464	925	183	901	2788
126	1	1	1288	926	183	901	2787
127	1	1	1185	926	183	901	2784
0	1	1	1074	924	183	901	2777
1	1	1	904	927	183	901	2774
2	1	1	1059	931	184	902	2775
3	1	1	1376	930	183	901	2778
4	1	1	1704	930	183	901	2781
5	1	1	2123	931	183	901	2786
6	1	1	2493	931	184	901	2787
7	1	1	2743	931	184	901	2788
8	1	1	2888	930	183	901	2787
9	1	1	2948	931	182	901	2784
10	1	1	2971	930	185	901	2777
11	1	1	2993	926	183	901	2774
12	1	1	2808	924	184	901	2775
13	1	1	2519	924	182	901	2777
14	1	1	2255	923	184	901	2781
15	1	1	1986	924	183	901	2785
16	1	1	1721	924	183	901	2788
17	1	1	1481	924	183	901	2788
18	1	1	1301	924	184	901	2787
19	1	1	1199	925	183	901	2784
20	1	1	1095	924	184	901	2776
21	1	1	927	925	184	901	2773
22	1	1	1072	929	183	901	2774
23	1	1	1381	929	183	901	2777
24	1	1	1698	929	184	900	2781
25	1	1	2110	929	183	901	2784
26	1	1	2478	929	183	901	2787
27	1	1	2731	931	183	901	2788
28	1	1	2874	930	183	902	2787
29	1	1	2932	929	183	901	2783
30	1	1	2953	929	183	901	2777
31	1	1	2977	925	183	901	2773
32	1	1	2787	923	182	901	2774
33	1	1	2500	923	183	901	2777
34	1	1	2233	923	183	901	2781
35	1	1	1962	923	183	901	2784
36	1	1	1703	923	183	901	2787
37	1	1	1463	923	183	901	2787
38	1	1	1280	923	184	901	2786
39	1	1	1179	924	184	901	2783
40	1	1	1071	923	184	901	2776
41	1	1	905	924	184	901	2774
42	1	1	1054	928	183	901	2775
43	1	1	1366	929	183	901	2777
44	1	1	1687	928	184	901	2781
45	1	1	2101	928	183	901	2785
46	1	1	2468	930	183	901	2787
47	1	1	2712	929	183	901	2787
48	1	1	2849	929	184	901	2786
49	1	1	2907	928	183	901	2783
50	1	1	2932	929	183	901	2776
51	1	1	2958	924	183	901	2773
52	1	1	2772	922	182	901	2774
53	1	1	2487	922	183	901	2777
54	1	1	2231	923	184	901	2781
55	1	1	1960	922	184	901	2784
56	1	1	1700	922	184	901	2787
57	1	1	1464	922	183	902	2788
58	1	1	1292	922	184	901	2786
59	1	1	1195	923	184	901	2783
60	1	1	1087	921	184	901	2776
61	1	1	925	923	184	901	2773
62	1	1	1077	927	183	901	2774
63	1	1	1396	928	183	901	2777
64	1	1	1728	927	183	901	2780
65	1	1	2144	928	183	902	2784
66	1	1	2519	927	183	901	2786
67	1	1	2767	927	183	901	2787
68	1	1	2909	928	184	901	2786
69	1	1	2964	928	184	901	2783
70	1	1	2972	928	184	901	2775
71	1	1	2993	923	182	901	2772
72	1	1	2817	922	184	901	2773
73	1	1	2538	921	184	901	2776
74	1	1	2282	921	184	901	2780
75	1	1	2014	921	184	901	2784
76	1	1	1759	921	183	901	2786
77	1	1	1525	921	183	901	2787
78	1	1	1347	922	184	901	2786
79	1	1	1247	922	184	901	2783
80	1	1	1146	921	184	901	2775
81	1	1	985	923	183	901	2772
82	1	1	1132	927	183	901	2773
83	1	1	1444	928	184	901	2776
84	1	1	1769	927	184	901	2780
85	1	1	2189	926	184	901	2783
86	1	1	2557	926	183	901	2786
87	1	1	2805	927	183	901	2787
88	1	1	2947	927	183	901	2786
89	1	1	3009	927	185	901	2782
90	1	1	3031	928	183	901	2775
91	1	1	3050	922	182	901	2773
92	1	1	2860	921	183	901	2774
93	1	1	2568	920	183	901	2776
94	1	1	2300	921	183	901	2780
95	1	1	2029	921	184	901	2784
96	1	1	1766	920	183	901	2787
97	1	1	1524	920	184	901	2787
98	1	1	1344	921	185	901	2786
99	1	1	1240	922	184	901	2782
100	1	1	1126	919	183	901	2775
101	1	1	958	922	184	902	2772
102	1	1	1098	927	184	901	2774
103	1	1	1411	926	183	901	2776
104	1	1	1735	926	183	901	2780
105	1	1	2146	926	184	901	2783
106	1	1	2515	927	183	901	2785
107	1	1	2761	926	184	901	2786
108	1	1	2901	926	183	901	2785
109	1	1	2962	926	183	901	2782
110	1	1	2987	926	183	901	2775
111	1	1	3008	921	183	901	2772
112	1	1	2829	920	183	901	2773
113	1	1	2547	920	183	901	2776
114	1	1	2283	919	183	901	2780
115	1	1	2014	919	184	901	2784
116	1	1	1755	920	184	901	2785
117	1	1	1513	919	184	901	2787
118	1	1	1334	920	184	902	2786
119	1	1	1228	921	183	901	2782
120	1	1	1119	919	183	901	2775
121	1	1	946	921	184	901	2772
122	1	1	1089	926	185	901	2773
123	1	1	1399	925	183	901	2776
124	1	1	1725	925	184	900	2780
125	1	1	2144	925	184	901	2783
126	1	1	2512	926	183	901	2786
127	1	1	2762	926	184	901	2786
0	1	1	2905	926	184	901	2785
1	1	1	2969	925	184	901	2782
2	1	1	2995	925	184	901	2775
3	1	1	3028	922	183	901	2771
4	1	1	2849	919	184	901	2773
5	1	1	2567	919	184	902	2776
6	1	1	2304	919	184	901	2779
7	1	1	2038	918	184	901	2783
8	1	1	1773	919	184	902	2785
9	1	1	1532	919	182	901	2786
10	1	1	1352	920	184	901	2785
11	1	1	1248	920	183	901	2781
12	1	1	1140	919	184	901	2775
13	1	1	977	921	183	901	2772
14	1	1	1113	924	184	901	2773
15	1	1	1422	925	184	901	2776
16	1	1	1743	925	184	901	2779
17	1	1	2149	924	183	901	2783
18	1	1	2509	925	184	901	2785
19	1	1	2752	924	184	901	2786
20	1	1	2892	925	183	901	2785
21	1	1	2951	924	183	901	2781
22	1	1	2972	925	183	901	2774
23	1	1	2996	920	182	901	2771
24	1	1	2822	919	183	901	2772
25	1	1	2540	919	184	901	2775
26	1	1	2276	918	184	901	2779
27	1	1	2006	918	183	901	2782
28	1	1	1744	918	183	901	2785
29	1	1	1505	918	183	901	2786
30	1	1	1333	919	183	901	2785
31	1	1	1233	919	183	900	2781
32	1	1	1126	918	184	902	2775
33	1	1	959	921	183	902	2771
34	1	1	1105	924	183	901	2772
35	1	1	1410	925	184	901	2775
36	1	1	1729	924	183	901	2779
37	1	1	2140	924	183	901	2782
38	1	1	2508	924	183	901	2784
39	1	1	2759	924	183	901	2785
40	1	1	2903	924	183	901	2784
41	1	1	2960	924	184	901	2781
42	1	1	2973	923	183	901	2773
43	1	1	3000	920	184	901	2771
44	1	1	2821	919	184	902	2772
45	1	1	2538	918	183	901	2775
46	1	1	2277	918	183	901	2778
47	1	1	2010	918	184	901	2782
48	1	1	1752	918	184	901	2784
49	1	1	1519	918	183	902	2785
50	1	1	1346	918	183	901	2784
51	1	1	1243	918	184	901	2781
52	1	1	1132	917	184	902	2773
53	1	1	963	920	184	901	2771
54	1	1	1109	924	184	901	2771
55	1	1	1420	923	184	901	2774
56	1	1	1741	923	183	901	2778
57	1	1	2161	923	183	901	2782
58	1	1	2535	924	183	901	2784
59	1	1	2783	924	183	901	2785
60	1	1	2922	923	184	901	2784
61	1	1	2975	923	184	900	2780
62	1	1	2987	923	184	901	2774
63	1	1	3011	919	181	902	2770
64	1	1	2832	918	183	901	2771
65	1	1	2545	917	184	901	2774
66	1	1	2285	917	184	901	2778
67	1	1	2019	917	183	901	2781
68	1	1	1756	917	182	902	2784
69	1	1	1517	917	184	901	2785
70	1	1	1341	917	183	901	2784
71	1	1	1236	918	183	900	2780
72	1	1	1133	917	185	901	2773
73	1	1	964	919	183	902	2771
74	1	1	1104	923	183	901	2771
75	1	1	1416	923	184	901	2774
76	1	1	1737	923	184	901	2777
77	1	1	2147	922	183	902	2782
78	1	1	2521	923	183	901	2784
79	1	1	2762	923	183	902	2784
80	1	1	2902	922	184	901	2784
81	1	1	2964	923	184	901	2780
82	1	1	2984	922	184	901	2773
83	1	1	3013	919	183	901	2770
84	1	1	2836	917	183	901	2771
85	1	1	2550	917	183	901	2774
86	1	1	2288	916	184	901	2777
87	1	1	2022	916	184	901	2781
88	1	1	1761	917	183	901	2783
89	1	1	1520	916	183	901	2784
90	1	1	1346	917	184	901	2784
91	1	1	1246	917	184	901	2779
92	1	1	1142	916	184	901	2772
93	1	1	978	919	184	901	2769
94	1	1	1121	922	184	901	2771
95	1	1	1428	921	184	901	2774
96	1	1	1748	922	184	901	2777
97	1	1	2165	922	184	901	2780
98	1	1	2531	922	184	901	2784
99	1	1	2779	923	184	902	2784
100	1	1	2925	922	183	901	2783
101	1	1	2983	922	183	901	2779
102	1	1	3008	922	182	901	2772
103	1	1	3031	918	184	901	2769
104	1	1	2849	916	182	901	2770
105	1	1	2567	916	183	902	2774
106	1	1	2307	915	184	901	2777
107	1	1	2033	916	184	901	2780
108	1	1	1773	915	184	901	2783
109	1	1	1536	916	184	901	2784
110	1	1	1362	917	183	901	2783
111	1	1	1257	917	183	901	2779
112	1	1	1144	916	183	901	2772
113	1	1	978	917	183	901	2769
114	1	1	1109	921	184	901	2771
115	1	1	1417	921	183	901	2773
116	1	1	1734	921	184	901	2777
117	1	1	2138	921	183	901	2780
118	1	1	2507	922	184	901	2784
119	1	1	2751	922	184	901	2784
120	1	1	2887	923	184	901	2782
121	1	1	2950	922	184	901	2779
122	1	1	2969	921	182	901	2771
123	1	1	2995	917	182	901	2769
124	1	1	2820	916	184	902	2770
125	1	1	2539	915	183	901	2773
126	1	1	2285	916	182	901	2777
127	1	1	2018	915	183	901	2780
0	1	1	1763	914	183	901	2783
1	1	1	1521	915	183	902	2784
2	1	1	1340	916	184	901	2783
3	1	1	1233	916	184	901	2779
4	1	1	1127	915	183	901	2772
5	1	1	957	917	184	902	2769
6	1	1	1096	922	183	902	2770
7	1	1	1404	922	183	901	2772
8	1	1	1732	921	184	901	2776
9	1	1	2142	920	184	901	2780
10	1	1	2514	922	183	901	2782
11	1	1	2765	921	182	901	2784
12	1	1	2915	922	183	901	2782
13	1	1	2977	921	184	901	2778
14	1	1	2991	920	182	901	2771
15	1	1	3020	918	183	901	2768
16	1	1	2848	915	183	901	2770
17	1	1	2575	915	183	902	2772
18	1	1	2323	915	183	901	2776
19	1	1	2062	915	183	902	2780
20	1	1	1813	915	184	902	2783
21	1	1	1582	915	183	901	2784
22	1	1	1409	916	183	901	2782
23	1	1	1307	917	184	901	2778
24	1	1	1196	915	184	901	2771
25	1	1	1031	917	183	901	2768
26	1	1	1170	921	183	901	2770
27	1	1	1474	922	184	901	2772
28	1	1	1792	920	183	901	2776
29	1	1	2195	920	184	901	2779
30	1	1	2569	922	184	901	2782
31	1	1	2813	921	183	901	2783
32	1	1	2955	921	182	901	2782
33	1	1	3013	922	182	901	2778
34	1	1	3023	921	183	901	2771
35	1	1	3039	916	184	900	2769
36	1	1	2857	915	183	902	2770
37	1	1	2579	915	184	901	2772
38	1	1	2322	915	184	902	2776
39	1	1	2056	915	184	901	2779
40	1	1	1801	915	183	901	2782
41	1	1	1563	915	183	901	2783
42	1	1	1378	915	184	901	2782
43	1	1	1271	916	183	901	2778
44	1	1	1166	914	182	901	2771
45	1	1	994	917	184	901	2768
46	1	1	1128	921	183	901	2769
47	1	1	1426	921	184	901	2772
48	1	1	1738	920	184	901	2775
49	1	1	2138	920	183	902	2780
50	1	1	2500	921	184	901	2781
51	1	1	2740	920	183	901	2782
52	1	1	2876	921	184	901	2782
53	1	1	2931	921	184	901	2778
54	1	1	2945	921	182	902	2771
55	1	1	2968	916	182	901	2768
56	1	1	2791	915	184	901	2769
57	1	1	2506	915	184	901	2772
58	1	1	2248	914	184	901	2775
59	1	1	1979	914	183	901	2779
60	1	1	1721	914	183	901	2782
61	1	1	1482	915	183	902	2783
62	1	1	1308	914	183	901	2781
63	1	1	1208	916	184	901	2778
64	1	1	1102	915	184	901	2770
65	1	1	936	917	184	902	2767
66	1	1	1077	920	183	902	2768
67	1	1	1381	919	183	901	2772
68	1	1	1705	920	184	901	2775
69	1	1	2110	920	183	901	2779
70	1	1	2468	921	184	901	2781
71	1	1	2714	920	184	901	2782
72	1	1	2860	921	184	901	2782
73	1	1	2919	920	183	901	2777
74	1	1	2938	921	183	901	2771
75	1	1	2959	916	183	901	2767
76	1	1	2785	915	182	901	2768
77	1	1	2510	914	184	901	2771
78	1	1	2255	914	183	901	2775
79	1	1	1988	914	182	901	2778
80	1	1	1731	915	183	901	2781
81	1	1	1497	915	184	901	2782
82	1	1	1324	914	184	901	2781
83	1	1	1221	915	184	901	2777
84	1	1	1116	914	183	902	2770
85	1	1	948	916	183	901	2767
86	1	1	1083	920	181	901	2769
87	1	1	1387	920	184	902	2772
88	1	1	1700	920	183	901	2775
89	1	1	2099	920	183	901	2779
90	1	1	2466	921	185	901	2781
91	1	1	2709	920	184	901	2782
92	1	1	2852	919	183	901	2781
93	1	1	2912	920	183	901	2777
94	1	1	2934	920	184	901	2770
95	1	1	2959	916	183	901	2767
96	1	1	2787	915	183	901	2768
97	1	1	2504	914	182	901	2771
98	1	1	2248	914	183	901	2775
99	1	1	1977	914	184	901	2778
100	1	1	1722	914	183	901	2781
101	1	1	1482	914	184	902	2782
102	1	1	1304	914	183	902	2781
103	1	1	1203	915	184	901	2777
104	1	1	1095	914	183	901	2770
105	1	1	932	916	184	901	2767
106	1	1	1066	920	184	901	2768
107	1	1	1361	920	183	901	2771
108	1	1	1682	920	183	901	2775
109	1	1	2087	921	183	901	2778
110	1	1	2450	920	184	901	2781
111	1	1	2698	920	182	901	2782
112	1	1	2844	920	184	901	2781
113	1	1	2905	920	184	901	2777
114	1	1	2929	921	183	901	2771
115	1	1	2955	917	184	901	2767
116	1	1	2782	914	184	901	2768
117	1	1	2502	914	183	901	2771
118	1	1	2250	914	183	901	2775
119	1	1	1990	914	184	901	2778
120	1	1	1743	914	183	901	2781
121	1	1	1511	914	184	901	2782
122	1	1	1334	914	183	901	2781
123	1	1	1231	916	183	901	2777
124	1	1	1121	914	184	901	2770
125	1	1	958	916	184	901	2767
126	1	1	1096	920	183	901	2768
127	1	1	1403	920	184	901	2771
0	1	1	1727	920	183	901	2774
1	1	1	2132	920	184	901	2778
2	1	1	2502	920	183	901	2780
3	1	1	2747	920	183	901	2781
4	1	1	2886	920	184	901	2780
5	1	1	2949	920	183	901	2777
6	1	1	2967	920	183	901	2770
7	1	1	2999	916	183	901	2767
8	1	1	2830	915	183	901	2768
9	1	1	2552	914	183	901	2771
10	1	1	2298	914	184	901	2775
11	1	1	2031	914	184	901	2778
12	1	1	1774	914	184	901	2781
13	1	1	1542	914	184	901	2782
14	1	1	1367	914	184	901	2781
15	1	1	1258	915	183	901	2777
16	1	1	1142	914	184	901	2770
17	1	1	966	916	183	901	2767
18	1	1	1102	920	183	901	2768
19	1	1	1407	919	184	901	2771
20	1	1	1732	920	185	901	2774
21	1	1	2137	920	183	901	2778
22	1	1	2500	920	183	901	2781
23	1	1	2743	920	183	901	2781
24	1	1	2882	920	183	901	2780
25	1	1	2941	920	184	902	2776
26	1	1	2966	920	182	901	2770
27	1	1	2994	916	183	901	2767
28	1	1	2818	914	183	901	2768
29	1	1	2537	914	184	901	2771
30	1	1	2275	913	183	901	2775
31	1	1	1998	914	183	901	2778
32	1	1	1743	914	184	901	2781
33	1	1	1511	914	183	901	2782
34	1	1	1337	914	184	901	2780
35	1	1	1233	915	184	901	2776
36	1	1	1129	914	184	902	2769
37	1	1	962	916	184	902	2766
38	1	1	1096	920	184	901	2768
39	1	1	1398	920	183	901	2771
40	1	1	1717	919	183	901	2775
41	1	1	2119	919	183	901	2778
42	1	1	2482	919	183	901	2780
43	1	1	2725	920	183	901	2781
44	1	1	2869	919	183	901	2780
45	1	1	2935	920	184	901	2777
46	1	1	2961	920	183	901	2769
47	1	1	2985	916	184	902	2767
48	1	1	2811	914	184	901	2767
49	1	1	2529	913	182	901	2771
50	1	1	2278	913	183	901	2774
51	1	1	2017	914	183	901	2778
52	1	1	1761	914	185	901	2780
53	1	1	1522	914	183	901	2781
54	1	1	1348	914	183	902	2780
55	1	1	1247	915	184	901	2777
56	1	1	1140	914	185	901	2769
57	1	1	972	915	184	901	2766
58	1	1	1111	920	183	901	2767
59	1	1	1416	919	183	901	2771
60	1	1	1733	920	183	901	2775
61	1	1	2134	920	183	901	2777
62	1	1	2498	920	184	901	2781
63	1	1	2741	920	183	901	2782
64	1	1	2881	919	183	901	2780
65	1	1	2944	920	184	902	2777
66	1	1	2967	920	184	901	2769
67	1	1	2995	915	184	901	2766
68	1	1	2826	914	184	901	2767
69	1	1	2546	913	184	902	2770
70	1	1	2291	914	183	901	2773
71	1	1	2020	914	184	902	2778
72	1	1	1764	914	185	901	2780
73	1	1	1528	914	184	901	2781
74	1	1	1352	914	183	901	2780
75	1	1	1251	915	184	901	2777
76	1	1	1143	914	184	901	2769
77	1	1	971	917	183	901	2767
78	1	1	1096	920	184	901	2767
79	1	1	1399	919	183	901	2770
80	1	1	1715	920	182	901	2774
81	1	1	2112	920	183	901	2777
82	1	1	2472	920	183	902	2780
83	1	1	2710	920	184	901	2780
84	1	1	2845	920	183	901	2780
85	1	1	2901	921	182	901	2776
86	1	1	2928	920	183	901	2769
87	1	1	2959	915	184	902	2766
88	1	1	2779	914	184	901	2767
89	1	1	2492	914	183	901	2771
90	1	1	2234	914	183	901	2774
91	1	1	1966	914	183	902	2778
92	1	1	1704	915	183	901	2780
93	1	1	1464	914	184	901	2781
94	1	1	1286	914	184	901	2780
95	1	1	1186	916	183	901	2776
96	1	1	1085	914	183	901	2769
97	1	1	925	916	183	902	2766
98	1	1	1053	921	182	901	2768
99	1	1	1352	920	183	901	2770
100	1	1	1665	920	183	901	2774
101	1	1	2062	920	184	901	2777
102	1	1	2427	920	183	901	2780
103	1	1	2677	920	183	901	2781
104	1	1	2819	920	183	901	2780
105	1	1	2879	920	184	901	2776
106	1	1	2897	919	183	901	2769
107	1	1	2924	917	184	901	2766
108	1	1	2759	915	183	902	2768
109	1	1	2483	914	183	901	2770
110	1	1	2227	915	183	901	2774
111	1	1	1964	916	183	901	2777
112	1	1	1718	915	183	901	2780
113	1	1	1494	914	184	902	2781
114	1	1	1323	915	183	901	2780
115	1	1	1224	916	183	901	2776
116	1	1	1122	914	184	901	2769
117	1	1	955	917	183	901	2766
118	1	1	1092	921	184	901	2767
119	1	1	1393	920	183	901	2770
120	1	1	1709	920	184	901	2773
121	1	1	2117	920	183	901	2777
122	1	1	2478	920	183	901	2780
123	1	1	2724	921	184	901	2781
124	1	1	2865	920	183	901	2780
125	1	1	2926	921	183	901	2776
126	1	1	2947	921	183	901	2769
127	1	1	2983	918	184	902	2766
0	1	1	2815	915	185	901	2767
1	1	1	2533	915	183	902	2770
2	1	1	2276	914	183	901	2773
3	1	1	2015	914	183	901	2777
4	1	1	1759	915	183	901	2780
5	1	1	1525	915	183	901	2781
6	1	1	1352	915	183	901	2780
7	1	1	1252	916	184	902	2776
8	1	1	1148	915	184	901	2769
9	1	1	976	917	184	901	2766
10	1	1	1107	921	185	901	2767
11	1	1	1412	920	184	901	2770
12	1	1	1734	921	183	901	2773
13	1	1	2139	921	183	902	2778
14	1	1	2500	921	183	901	2780
15	1	1	2746	921	185	901	2780
16	1	1	2892	920	183	901	2780
17	1	1	2953	921	183	901	2776
18	1	1	2976	920	183	901	2769
19	1	1	3001	917	183	901	2766
20	1	1	2831	915	181	901	2767
21	1	1	2558	915	183	901	2770
22	1	1	2305	915	183	901	2774
23	1	1	2034	915	183	901	2776
24	1	1	1773	915	184	901	2779
25	1	1	1541	915	183	901	2780
26	1	1	1366	916	184	901	2779
27	1	1	1265	916	184	901	2775
28	1	1	1166	914	184	901	2768
29	1	1	998	917	184	901	2766
30	1	1	1129	921	183	901	2767
31	1	1	1427	920	183	901	2770
32	1	1	1744	921	183	901	2774
33	1	1	2145	922	184	901	2777
34	1	1	2509	921	184	901	2780
35	1	1	2757	921	185	902	2780
36	1	1	2899	921	184	901	2780
37	1	1	2959	921	183	901	2775
38	1	1	2978	921	184	901	2768
39	1	1	3005	917	184	901	2765
40	1	1	2832	916	185	901	2767
41	1	1	2555	916	184	902	2770
42	1	1	2300	915	184	901	2773
43	1	1	2038	914	183	901	2776
44	1	1	1780	915	183	901	2780
45	1	1	1547	916	183	901	2780
46	1	1	1375	915	184	901	2779
47	1	1	1275	916	184	902	2776
48	1	1	1174	915	185	901	2768
49	1	1	1006	918	183	901	2766
50	1	1	1137	921	185	901	2767
51	1	1	1432	921	184	901	2770
52	1	1	1748	922	184	901	2773
53	1	1	2151	921	184	901	2777
54	1	1	2510	921	183	901	2779
55	1	1	2758	922	183	901	2780
56	1	1	2899	922	183	901	2779
57	1	1	2961	921	183	901	2775
58	1	1	2981	921	184	901	2769
59	1	1	3008	917	183	901	2766
60	1	1	2835	916	183	901	2766
61	1	1	2554	915	184	901	2769
62	1	1	2298	915	183	901	2773
63	1	1	2034	916	184	901	2776
64	1	1	1773	916	183	901	2780
65	1	1	1529	916	184	902	2781
66	1	1	1344	916	184	901	2780
67	1	1	1235	916	183	901	2776
68	1	1	1137	915	183	901	2769
69	1	1	967	917	183	901	2766
70	1	1	1091	922	182	901	2767
71	1	1	1383	921	183	901	2770
72	1	1	1695	922	184	902	2774
73	1	1	2102	922	184	901	2776
74	1	1	2462	922	183	901	2779
75	1	1	2704	922	183	901	2780
76	1	1	2847	922	183	901	2779
77	1	1	2912	922	183	901	2775
78	1	1	2939	922	183	901	2768
79	1	1	2972	917	183	901	2765
80	1	1	2795	916	183	901	2767
81	1	1	2511	915	184	902	2770
82	1	1	2253	916	184	902	2773
83	1	1	1984	915	183	901	2777
84	1	1	1729	915	183	901	2779
85	1	1	1494	916	184	901	2780
86	1	1	1316	916	184	901	2780
87	1	1	1210	917	184	901	2775
88	1	1	1100	915	184	902	2769
89	1	1	932	918	184	902	2766
90	1	1	1065	922	185	901	2767
91	1	1	1372	922	184	901	2770
92	1	1	1691	922	184	901	2773
93	1	1	2101	921	184	901	2776
94	1	1	2473	922	184	901	2779
95	1	1	2731	922	183	901	2780
96	1	1	2882	922	183	901	2779
97	1	1	2947	922	183	901	2775
98	1	1	2969	922	183	901	2769
99	1	1	3008	919	183	902	2766
100	1	1	2832	916	183	901	2767
101	1	1	2547	916	184	902	2770
102	1	1	2284	916	183	901	2773
103	1	1	2016	916	184	901	2776
104	1	1	1764	916	184	901	2779
105	1	1	1533	916	183	901	2780
106	1	1	1352	917	183	901	2779
107	1	1	1250	918	184	901	2776
108	1	1	1145	917	184	901	2768
109	1	1	979	919	183	901	2766
110	1	1	1109	922	183	901	2767
111	1	1	1412	922	183	902	2769
112	1	1	1736	924	184	901	2772
113	1	1	2150	923	185	902	2777
114	1	1	2514	923	184	902	2779
115	1	1	2764	923	184	901	2780
116	1	1	2913	922	184	901	2779
117	1	1	2979	922	185	901	2775
118	1	1	3000	923	183	901	2768
119	1	1	3029	919	183	901	2766
120	1	1	2847	917	184	901	2767
121	1	1	2561	916	184	901	2769
122	1	1	2305	916	183	901	2773
123	1	1	2035	917	182	901	2776
124	1	1	1771	916	182	901	2779
125	1	1	1532	917	183	901	2780
126	1	1	1349	917	184	901	2779
127	1	1	1244	918	183	901	2776
0	1	1	1139	918	183	901	2768
1	1	1	969	919	184	901	2766
2	1	1	1102	922	183	901	2767
3	1	1	1406	923	183	901	2770
4	1	1	1732	923	184	901	2773
5	1	1	2142	922	183	901	2776
6	1	1	2510	923	183	901	2780
7	1	1	2763	923	184	901	2780
8	1	1	2919	923	184	901	2779
9	1	1	2983	923	184	901	2775
10	1	1	3009	923	183	901	2768
11	1	1	3046	921	183	901	2765
12	1	1	2876	917	183	901	2766
13	1	1	2594	917	183	901	2769
14	1	1	2332	917	183	901	2773
15	1	1	2062	917	184	901	2776
16	1	1	1805	917	184	902	2779
17	1	1	1568	917	183	902	2780
18	1	1	1380	918	183	901	2779
19	1	1	1279	919	183	901	2776
20	1	1	1174	917	183	901	2768
21	1	1	1004	919	184	901	2766
22	1	1	1140	923	184	901	2767
23	1	1	1445	923	184	901	2769
24	1	1	1767	923	184	901	2773
25	1	1	2182	923	183	901	2776
26	1	1	2551	923	183	901	2779
27	1	1	2805	923	184	901	2780
28	1	1	2962	924	183	901	2779
29	1	1	3023	923	183	901	2775
30	1	1	3049	924	183	901	2768
31	1	1	3085	921	183	902	2765
32	1	1	2906	918	183	900	2766
33	1	1	2614	917	183	901	2769
34	1	1	2347	919	184	901	2772
35	1	1	2072	918	184	901	2776
36	1	1	1804	917	185	901	2779
37	1	1	1565	917	183	901	2780
38	1	1	1383	918	183	901	2779
39	1	1	1279	919	184	901	2775
40	1	1	1175	918	184	901	2768
41	1	1	999	919	184	901	2765
42	1	1	1128	924	184	901	2766
43	1	1	1437	923	184	901	2769
44	1	1	1753	924	184	901	2772
45	1	1	2159	924	183	901	2776
46	1	1	2521	923	183	901	2779
47	1	1	2769	924	184	901	2780
48	1	1	2914	924	183	901	2779
49	1	1	2969	924	183	901	2775
50	1	1	2979	924	184	901	2768
51	1	1	3008	921	184	901	2765
52	1	1	2833	918	183	902	2766
53	1	1	2542	918	184	901	2769
54	1	1	2280	918	185	901	2773
55	1	1	2011	918	183	901	2776
56	1	1	1749	918	184	901	2779
57	1	1	1510	918	183	901	2780
58	1	1	1323	918	184	901	2779
59	1	1	1219	921	183	901	2775
60	1	1	1117	918	184	901	2768
61	1	1	944	919	184	901	2765
62	1	1	1074	924	185	901	2766
63	1	1	1373	924	184	902	2769
64	1	1	1690	924	183	901	2772
65	1	1	2103	925	183	901	2776
66	1	1	2475	924	184	901	2779
67	1	1	2721	924	184	901	2780
68	1	1	2870	925	183	901	2779
69	1	1	2936	924	183	901	2775
70	1	1	2950	925	182	901	2769
71	1	1	2975	921	185	901	2765
72	1	1	2797	919	183	901	2766
73	1	1	2515	918	183	901	2770
74	1	1	2251	918	183	901	2773
75	1	1	1984	918	183	901	2777
76	1	1	1730	919	184	902	2779
77	1	1	1501	918	184	901	2780
78	1	1	1322	919	184	901	2779
79	1	1	1221	920	184	901	2775
80	1	1	1110	918	183	902	2768
81	1	1	941	921	183	901	2765
82	1	1	1075	924	184	901	2766
83	1	1	1383	924	184	901	2769
84	1	1	1703	925	183	901	2773
85	1	1	2109	925	183	901	2776
86	1	1	2469	925	184	901	2779
87	1	1	2719	925	184	901	2780
88	1	1	2872	925	183	901	2779
89	1	1	2936	925	183	901	2776
90	1	1	2965	925	183	901	2768
91	1	1	2997	922	184	901	2766
92	1	1	2826	920	183	901	2767
93	1	1	2536	919	183	901	2769
94	1	1	2269	919	183	902	2773
95	1	1	2001	919	184	901	2776
96	1	1	1747	919	184	901	2779
97	1	1	1514	919	184	900	2780
98	1	1	1331	920	184	902	2779
99	1	1	1235	920	184	901	2775
100	1	1	1136	920	184	901	2768
101	1	1	971	921	183	901	2765
102	1	1	1101	925	184	900	2766
103	1	1	1402	925	183	901	2769
104	1	1	1724	925	184	901	2773
105	1	1	2133	925	184	901	2776
106	1	1	2495	925	184	901	2779
107	1	1	2739	926	183	900	2780
108	1	1	2886	926	183	901	2779
109	1	1	2941	925	183	901	2775
110	1	1	2962	926	182	901	2769
111	1	1	2999	923	183	902	2765
112	1	1	2822	920	182	900	2766
113	1	1	2537	920	182	901	2769
114	1	1	2277	920	184	902	2773
115	1	1	2010	919	183	901	2776
116	1	1	1759	919	183	901	2779
117	1	1	1524	919	183	900	2780
118	1	1	1346	920	184	901	2779
119	1	1	1245	921	184	901	2775
120	1	1	1137	919	184	901	2768
121	1	1	969	921	184	901	2765
122	1	1	1099	926	183	900	2766
123	1	1	1403	925	183	901	2769
124	1	1	1722	926	183	901	2773
125	1	1	2119	926	183	901	2776
126	1	1	2484	926	184	901	2779
127	1	1	2729	926	183	900	2780
0	1	1	2876	926	183	901	2779
1	1	1	2937	926	184	901	2775
2	1	1	2968	926	182	902	2768
3	1	1	3004	924	183	902	2764
4	1	1	2827	921	183	901	2766
5	1	1	2544	920	183	901	2769
6	1	1	2281	920	183	901	2772
7	1	1	2021	920	182	901	2776
8	1	1	1770	920	183	901	2779
9	1	1	1539	921	184	901	2780
10	1	1	1363	921	184	901	2779
11	1	1	1262	922	183	901	2775
12	1	1	1162	920	184	901	2768
13	1	1	1003	922	184	901	2765
14	1	1	1123	926	185	901	2766
15	1	1	1418	925	185	901	2769
16	1	1	1738	927	182	901	2772
17	1	1	2134	927	183	901	2776
18	1	1	2489	927	184	901	2779
19	1	1	2734	927	184	901	2780
20	1	1	2879	927	183	901	2778
21	1	1	2936	927	184	902	2775
22	1	1	2950	926	183	901	2767
23	1	1	2977	924	183	901	2765
24	1	1	2813	921	183	900	2766
25	1	1	2541	921	184	901	2769
26	1	1	2279	921	184	901	2772
27	1	1	2019	921	184	901	2776
28	1	1	1770	920	184	901	2779
29	1	1	1541	921	183	901	2780
30	1	1	1367	921	183	901	2779
31	1	1	1272	923	184	901	2774
32	1	1	1169	920	183	901	2768
33	1	1	1007	923	184	901	2765
34	1	1	1136	927	185	901	2766
35	1	1	1436	927	184	901	2769
36	1	1	1751	927	184	901	2772
37	1	1	2144	927	181	901	2776
38	1	1	2499	928	183	902	2778
39	1	1	2742	927	183	901	2779
40	1	1	2888	928	183	901	2779
41	1	1	2944	928	183	901	2774
42	1	1	2968	927	184	901	2767
43	1	1	2999	926	183	901	2765
44	1	1	2831	921	183	901	2766
45	1	1	2544	922	184	902	2769
46	1	1	2282	922	183	901	2773
47	1	1	2022	921	183	901	2776
48	1	1	1778	921	184	901	2779
49	1	1	1548	922	184	901	2779
50	1	1	1378	922	185	901	2778
51	1	1	1282	923	183	901	2774
52	1	1	1180	921	183	901	2767
53	1	1	1028	923	182	901	2765
54	1	1	1154	928	184	902	2765
55	1	1	1448	928	184	901	2768
56	1	1	1770	927	183	901	2772
57	1	1	2163	927	184	901	2776
58	1	1	2519	928	184	901	2778
59	1	1	2763	928	184	901	2779
60	1	1	2908	929	183	901	2779
61	1	1	2967	928	184	901	2774
62	1	1	2987	928	184	901	2767
63	1	1	3011	925	183	901	2765
64	1	1	2837	922	183	901	2766
65	1	1	2560	922	184	901	2769
66	1	1	2298	922	183	901	2772
67	1	1	2042	922	183	901	2775
68	1	1	1803	922	184	901	2778
69	1	1	1578	922	183	902	2779
70	1	1	1405	922	185	901	2778
71	1	1	1305	923	183	901	2774
72	1	1	1198	922	182	901	2768
73	1	1	1039	924	184	901	2764
74	1	1	1160	928	184	902	2765
75	1	1	1457	928	184	901	2769
76	1	1	1777	929	184	902	2772
77	1	1	2177	929	184	901	2775
78	1	1	2530	929	183	901	2778
79	1	1	2770	928	184	902	2779
80	1	1	2911	929	183	901	2778
81	1	1	2968	929	183	901	2774
82	1	1	2989	929	184	901	2767
83	1	1	3016	926	184	901	2764
84	1	1	2846	924	183	900	2766
85	1	1	2563	923	183	901	2768
86	1	1	2300	923	184	901	2771
87	1	1	2043	923	183	901	2776
88	1	1	1794	923	183	901	2778
89	1	1	1565	924	184	901	2779
90	1	1	1396	923	183	901	2778
91	1	1	1297	925	183	901	2775
92	1	1	1195	924	184	901	2767
93	1	1	1042	925	183	901	2764
94	1	1	1155	930	184	901	2765
95	1	1	1442	929	184	901	2769
96	1	1	1760	929	184	901	2771
97	1	1	2144	929	184	901	2775
98	1	1	2491	930	184	901	2778
99	1	0	2737	930	184	901	2779
100	1	0	2875	930	182	901	2778
101	1	0	2931	930	183	901	2774
102	1	0	2943	930	183	901	2767
103	1	0	2968	928	184	901	2764
104	1	0	2806	924	184	901	2765
105	1	0	2536	924	183	901	2768
106	1	0	2283	924	183	901	2771
107	1	0	2034	923	182	901	2776
108	1	0	1789	924	183	901	2778
109	1	0	1556	925	183	900	2779
110	1	0	1377	924	183	901	2778
111	1	0	1281	926	184	901	2774
112	1	0	1191	925	184	901	2767
113	1	0	1033	926	184	901	2765
114	1	0	1147	930	184	901	2766
115	1	0	1434	931	183	901	2768
116	1	0	1745	929	183	901	2772
117	1	0	2136	931	184	901	2775
118	1	0	2480	931	183	901	2778
119	1	0	2711	931	184	900	2779
120	1	0	2848	931	183	901	2778
121	1	0	2909	931	184	901	2775
122	1	0	2914	931	183	901	2767
123	1	0	2920	927	182	901	2764
124	1	0	2759	926	184	901	2766
125	1	0	2510	925	183	901	2768
126	1	0	2281	925	184	901	2772
127	1	0	2049	925	183	901	2776
0	1	0	1815	926	184	901	2778
1	1	0	1597	925	184	901	2779
2	1	0	1434	926	184	901	2778
3	1	0	1337	926	184	901	2774
4	1	0	1253	926	184	901	2767
5	1	0	1109	927	183	901	2764
6	1	0	1216	931	184	901	2766
7	1	0	1486	932	183	901	2769
8	1	0	1776	932	184	901	2772
9	1	0	2140	931	184	901	2775
10	1	0	2471	932	182	901	2778
11	1	0	2706	932	183	901	2779
12	1	0	2845	932	183	901	2778
13	1	0	2903	932	183	901	2774
14	1	0	2910	932	183	901	2768
15	1	0	2919	930	183	903	2765
16	1	0	2763	926	183	901	2766
17	1	0	2520	926	183	901	2769
18	1	0	2293	926	183	901	2772
19	0	0	2058	927	183	901	2775
20	0	0	1804	926	184	901	2778
21	0	0	1572	926	184	900	2779
22	0	0	1407	927	183	901	2778
23	0	0	1319	928	184	901	2774
24	0	0	1245	927	184	901	2767
25	0	0	1106	928	184	901	2764
26	0	0	1219	932	184	901	2765
27	0	0	1484	933	184	901	2769
28	0	0	1775	933	183	901	2772
29	0	0	2141	933	184	902	2775
30	0	0	2473	933	183	901	2778
31	0	0	2705	933	184	901	2779
32	0	0	2841	933	184	901	2779
33	0	0	2891	933	183	901	2774
34	0	0	2881	933	183	901	2768
35	0	0	2876	929	183	901	2765
36	0	0	2729	928	183	901	2766
37	0	0	2487	928	184	901	2769
38	0	0	2267	927	183	901	2772
39	0	0	2044	927	184	901	2775
40	0	0	1821	927	184	901	2778
41	0	0	1598	928	183	902	2779
42	0	0	1425	928	184	901	2778
43	0	0	1326	929	183	901	2774
44	0	0	1240	928	183	901	2768
45	0	0	1092	930	183	903	2765
46	0	0	1201	934	183	901	2766
47	0	0	1477	934	184	901	2769
48	0	0	1764	933	183	901	2772
49	0	0	2131	934	183	901	2776
50	0	0	2467	933	182	901	2778
51	0	0	2700	934	184	901	2779
52	0	0	2837	933	182	900	2779
53	0	0	2891	934	184	901	2775
54	0	0	2879	933	184	901	2768
55	0	0	2869	930	183	901	2765
56	0	0	2719	929	184	901	2766
57	0	0	2474	927	184	901	2769
58	0	0	2255	928	184	902	2772
59	0	0	2031	928	183	901	2776
60	0	0	1805	928	183	901	2778
61	0	0	1589	928	183	902	2779
62	0	0	1423	929	183	901	2779
63	0	0	1332	929	184	901	2775
64	0	0	1267	928	184	901	2768
65	0	0	1134	930	184	901	2765
66	0	0	1245	934	184	902	2766
67	0	0	1519	934	183	901	2769
68	0	0	1803	934	184	901	2772
69	0	0	2169	934	183	901	2776
70	0	0	2503	934	183	901	2779
71	0	0	2733	934	184	901	2780
72	0	0	2864	934	184	901	2778
73	0	0	2916	935	183	901	2774
74	0	0	2900	935	184	901	2768
75	0	0	2891	930	183	901	2764
76	0	0	2738	929	183	902	2766
77	0	0	2491	929	183	901	2769
78	0	0	2268	929	184	901	2773
79	0	0	2041	930	185	901	2776
80	0	0	1811	928	183	901	2779
81	0	0	1588	929	184	902	2780
82	0	0	1415	930	184	901	2779
83	0	0	1319	930	183	901	2775
84	0	0	1250	929	185	901	2768
85	0	0	1114	931	183	901	2765
86	0	0	1225	935	183	902	2766
87	0	0	1495	936	184	901	2769
88	0	0	1776	935	184	901	2772
89	0	0	2135	935	183	901	2777
90	0	0	2474	936	183	901	2778
91	0	0	2693	936	183	902	2780
92	0	0	2817	936	183	901	2778
93	0	0	2863	936	185	901	2775
94	0	0	2835	935	183	901	2768
95	0	0	2823	931	183	901	2765
96	0	0	2671	929	183	901	2766
97	0	0	2428	930	184	901	2769
98	0	0	2208	930	184	901	2773
99	0	0	1980	930	183	901	2776
100	0	0	1751	929	184	901	2779
101	0	0	1536	930	184	901	2780
102	0	0	1374	930	183	901	2779
103	0	0	1277	932	183	902	2775
104	0	0	1206	930	184	901	2768
105	0	0	1071	932	184	901	2765
106	0	0	1180	936	184	901	2766
107	0	0	1452	936	184	901	2769
108	0	0	1737	936	184	901	2772
109	0	0	2100	936	184	901	2776
110	0	0	2436	936	183	901	2778
111	0	0	2667	936	183	900	2779
112	0	0	2794	936	183	901	2779
113	0	0	2843	937	183	901	2775
114	0	0	2828	936	183	901	2769
115	0	0	2823	932	183	901	2765
116	0	0	2669	930	183	902	2766
117	0	0	2426	931	184	902	2770
118	0	0	2206	931	183	901	2772
119	0	0	1988	931	183	901	2776
120	0	0	1769	931	184	901	2779
121	0	0	1558	931	184	901	2780
122	0	0	1394	931	183	901	2779
123	0	0	1304	932	184	901	2775
124	0	0	1245	931	184	901	2768
125	0	0	1113	933	185	901	2766
126	0	0	1228	937	184	901	2766
127	0	0	1494	937	183	901	2769
0	0	0	1778	937	184	901	2772
1	0	0	2142	937	183	901	2776
2	0	0	2469	937	184	901	2779
3	0	0	2687	937	183	901	2780
4	0	0	2820	937	183	901	2780
5	0	0	2871	937	183	901	2775
6	0	0	2861	937	184	901	2769
7	0	0	2856	933	184	901	2766
8	0	0	2703	932	184	901	2766
9	0	0	2464	931	183	901	2769
10	0	0	2250	931	182	901	2772
11	0	0	2031	931	184	901	2776
12	0	0	1813	932	183	901	2779
13	0	0	1602	931	183	901	2780
14	0	0	1436	931	182	901	2779
15	0	0	1338	933	184	901	2776
16	0	0	1265	933	183	901	2768
17	0	0	1131	934	183	901	2766
18	0	0	1247	938	184	901	2767
19	0	0	1516	938	183	901	2770
20	0	0	1796	937	184	901	2773
21	0	0	2154	938	183	901	2776
22	0	0	2485	938	183	901	2780
23	0	0	2702	937	183	901	2780
24	0	0	2827	938	182	901	2779
25	0	0	2872	938	184	901	2775
26	0	0	2848	938	183	901	2768
27	0	0	2831	933	183	901	2765
28	0	0	2682	933	184	901	2766
29	0	0	2447	933	183	901	2769
30	0	0	2229	932	184	901	2772
31	0	0	2010	932	182	901	2776
32	0	0	1796	931	183	901	2779
33	0	0	1586	932	184	901	2780
34	0	0	1419	932	184	901	2779
35	0	0	1323	933	184	901	2775
36	0	0	1253	932	185	901	2768
37	0	0	1115	934	183	901	2765
38	0	0	1228	939	183	901	2767
39	0	0	1498	939	184	901	2770
40	0	0	1779	938	183	901	2773
41	0	0	2144	938	182	901	2776
42	0	0	2472	938	184	901	2779
43	0	0	2693	938	183	901	2780
44	0	0	2819	939	184	901	2779
45	0	0	2865	939	184	901	2775
46	0	0	2848	938	183	901	2768
47	0	0	2839	933	183	901	2766
48	0	0	2686	933	184	901	2767
49	0	0	2446	933	182	901	2769
50	0	0	2230	933	183	901	2773
51	0	0	2011	933	184	901	2776
52	0	0	1781	932	185	901	2779
53	0	0	1565	933	184	902	2780
54	0	0	1401	933	183	901	2779
55	0	0	1307	934	183	901	2775
56	0	0	1252	933	184	901	2768
57	0	0	1117	935	183	901	2766
58	0	0	1225	939	184	901	2766
59	0	0	1501	939	184	901	2770
60	0	0	1783	939	184	901	2772
61	0	0	2144	939	183	901	2776
62	0	0	2475	939	183	901	2779
63	0	0	2703	939	183	902	2780
64	0	0	2833	939	184	901	2779
65	0	0	2881	940	184	901	2776
66	0	0	2857	940	183	901	2768
67	0	0	2840	935	184	901	2765
68	0	0	2689	934	183	901	2767
69	0	0	2446	933	184	901	2769
70	0	0	2223	933	184	901	2773
71	0	0	1995	933	184	901	2776
72	0	0	1769	932	184	901	2779
73	0	0	1554	933	183	901	2780
74	0	0	1387	933	182	901	2779
75	0	0	1293	935	183	901	2775
76	0	0	1230	934	183	901	2768
77	0	0	1098	936	183	902	2765
78	0	0	1207	939	184	902	2766
79	0	0	1477	940	184	901	2769
80	0	0	1761	940	182	901	2772
81	0	0	2124	940	183	901	2776
82	0	0	2451	940	183	901	2779
83	0	0	2669	940	183	901	2780
84	0	0	2796	940	183	901	2779
85	0	0	2850	940	184	901	2775
86	0	0	2835	940	184	901	2768
87	0	0	2824	936	183	901	2765
88	0	0	2671	934	184	901	2767
89	0	0	2426	934	183	901	2770
90	0	0	2209	934	184	901	2773
91	0	0	1992	934	184	901	2776
92	0	0	1759	934	184	901	2779
93	0	0	1538	934	184	901	2780
94	0	0	1370	934	184	901	2779
95	0	0	1275	936	183	901	2775
96	0	0	1217	934	184	901	2768
97	0	0	1078	936	183	902	2765
98	0	0	1182	941	183	901	2766
99	0	0	1458	940	183	901	2769
100	0	0	1745	940	183	901	2772
101	0	0	2111	940	184	901	2776
102	0	0	2450	941	183	901	2779
103	0	0	2684	941	183	901	2780
104	0	0	2817	940	184	901	2779
105	0	0	2868	941	184	901	2775
106	0	0	2849	940	183	901	2769
107	0	0	2842	936	184	902	2766
108	0	0	2693	935	184	902	2767
109	0	0	2456	935	184	902	2770
110	0	0	2229	935	184	901	2773
111	0	0	1999	935	183	901	2777
112	0	0	1772	935	183	901	2779
113	0	0	1555	935	183	901	2780
114	0	0	1386	935	182	901	2779
115	0	0	1294	937	183	901	2776
116	0	0	1234	935	184	901	2768
117	0	0	1098	936	183	901	2766
118	0	0	1207	942	183	901	2767
119	0	0	1475	941	183	902	2770
120	0	0	1762	941	184	901	2774
121	0	0	2131	942	183	901	2776
122	0	0	2467	942	184	901	2779
123	0	0	2691	941	184	901	2781
124	0	0	2816	941	182	901	2779
125	0	0	2864	942	184	901	2776
126	0	0	2846	941	183	901	2768
127	0	0	2835	937	184	901	2766
0	0	0	2675	936	184	901	2767
1	0	0	2428	935	183	901	2769
2	0	0	2205	936	182	901	2773
3	0	0	1981	935	185	901	2776
4	0	0	1761	936	184	901	2779
5	0	0	1550	936	184	901	2780
6	0	0	1386	936	184	901	2779
7	0	0	1289	937	183	901	2775
8	0	0	1218	936	183	901	2769
9	0	0	1077	938	183	902	2766
10	0	0	1189	942	184	901	2767
11	0	0	1469	942	184	901	2770
12	0	0	1757	942	184	901	2773
13	0	0	2125	942	184	901	2777
14	0	0	2461	942	183	901	2779
15	0	0	2689	943	183	901	2780
16	0	0	2819	942	183	901	2779
17	0	0	2870	942	184	901	2775
18	0	0	2851	942	183	901	2768
19	0	0	2841	937	183	901	2765
20	0	0	2681	936	183	901	2766
21	0	0	2433	937	184	901	2770
22	0	0	2214	936	183	901	2772
23	0	0	1988	936	183	901	2776
24	0	0	1762	936	183	901	2779
25	0	0	1546	936	184	901	2781
26	0	0	1380	937	183	901	2779
27	0	0	1291	938	184	901	2776
28	0	0	1236	936	184	901	2769
29	0	0	1103	938	183	901	2766
30	0	0	1216	942	183	901	2767
31	0	0	1482	942	183	901	2770
32	0	0	1766	942	184	901	2773
33	0	0	2135	942	183	901	2777
34	0	0	2469	943	183	902	2779
35	0	0	2693	942	182	901	2780
36	0	0	2821	942	184	901	2779
37	0	0	2863	942	183	901	2775
38	0	0	2838	942	184	900	2769
39	0	0	2827	938	184	901	2766
40	0	0	2673	937	183	901	2767
41	0	0	2430	937	184	901	2770
42	0	0	2206	937	184	901	2773
43	0	0	1976	936	184	901	2777
44	0	0	1749	937	185	901	2779
45	0	0	1537	937	185	902	2780
46	0	0	1373	938	184	901	2780
47	0	0	1278	938	183	901	2776
48	0	0	1220	937	184	901	2769
49	0	0	1090	938	182	901	2766
50	0	0	1202	942	183	902	2766
51	0	0	1477	942	183	900	2769
52	0	0	1764	943	183	901	2773
53	0	0	2133	943	183	901	2776
54	0	0	2466	943	184	901	2779
55	0	0	2687	943	183	901	2780
56	0	0	2809	943	183	901	2779
57	0	0	2862	943	183	901	2776
58	0	0	2839	943	183	900	2768
59	0	0	2822	938	183	901	2766
60	0	0	2667	937	184	901	2767
61	0	0	2425	937	182	901	2770
62	0	0	2204	937	185	901	2773
63	0	0	1977	937	183	900	2776
64	0	0	1747	937	182	901	2779
65	0	0	1530	937	183	902	2780
66	0	0	1370	938	184	902	2779
67	0	0	1278	939	183	901	2775
68	0	0	1223	937	184	900	2769
69	0	0	1095	939	184	901	2766
70	0	0	1211	943	184	901	2766
71	0	0	1493	943	183	901	2770
72	0	0	1777	943	183	901	2773
73	0	0	2143	943	183	901	2776
74	0	0	2479	944	184	901	2779
75	0	0	2708	943	184	902	2780
76	0	0	2843	943	183	901	2780
77	0	0	2892	943	183	901	2776
78	0	0	2871	943	184	901	2769
79	0	0	2855	939	183	901	2766
80	0	0	2695	938	184	901	2767
81	0	0	2449	937	183	901	2769
82	0	0	2224	938	183	901	2773
83	0	0	1999	939	184	901	2776
84	0	0	1769	938	183	901	2779
85	0	0	1546	937	184	901	2780
86	0	0	1380	938	184	901	2779
87	0	0	1287	939	185	901	2776
88	0	0	1223	938	184	901	2769
89	0	0	1091	939	183	901	2766
90	0	0	1207	943	183	901	2767
91	0	0	1481	944	184	902	2770
92	0	0	1765	944	183	901	2773
93	0	0	2135	944	184	901	2777
94	0	0	2471	944	183	901	2780
95	0	0	2691	943	183	901	2780
96	0	0	2821	944	183	901	2780
97	0	0	2871	943	183	901	2776
98	0	0	2857	943	183	901	2769
99	0	0	2850	940	184	901	2766
100	0	0	2694	938	184	901	2766
101	0	0	2448	938	184	902	2769
102	0	0	2224	938	184	901	2772
103	0	0	1997	938	184	901	2776
104	0	0	1769	939	184	901	2779
105	0	0	1553	939	185	902	2781
106	0	0	1386	939	183	901	2779
107	0	0	1294	940	183	901	2776
108	0	0	1232	939	183	901	2769
109	0	0	1097	940	184	901	2766
110	0	0	1211	944	184	901	2767
111	0	0	1490	944	183	902	2770
112	0	0	1775	944	186	901	2773
113	0	0	2140	945	183	900	2777
114	0	0	2484	945	183	901	2779
115	0	0	2715	944	183	901	2780
116	0	0	2851	945	183	901	2780
117	0	0	2897	945	183	900	2775
118	0	0	2874	945	183	901	2769
119	0	0	2857	940	184	901	2766
120	0	0	2702	939	184	901	2766
121	0	0	2464	939	184	901	2770
122	0	0	2237	939	183	901	2772
123	0	0	2015	939	183	901	2776
124	0	0	1797	939	182	902	2779
125	0	0	1577	939	183	901	2780
126	0	0	1415	939	183	901	2780
127	0	0	1323	940	184	901	2776
0	0	0	1265	939	184	901	2769
1	0	0	1129	941	184	902	2766
2	0	0	1235	945	183	901	2767
3	0	0	1506	945	183	900	2770
4	0	0	1796	945	183	901	2773
5	0	0	2160	945	183	900	2776
6	0	0	2488	944	182	901	2779
7	0	0	2711	945	183	901	2780
8	0	0	2840	945	183	901	2780
9	0	0	2884	945	184	901	2775
10	0	0	2864	945	183	900	2769
11	0	0	2852	941	183	901	2766
12	0	0	2700	939	183	901	2766
13	0	0	2463	939	183	901	2770
14	0	0	2239	939	183	901	2773
15	0	0	2007	940	183	900	2777
16	0	0	1779	940	184	901	2779
17	0	0	1562	939	184	901	2780
18	0	0	1398	940	183	901	2779
19	0	0	1307	941	184	901	2775
20	0	0	1253	940	184	901	2769
21	0	0	1119	942	183	901	2766
22	0	0	1221	946	183	901	2767
23	0	0	1492	945	183	901	2769
24	0	0	1775	946	184	901	2772
25	0	0	2131	946	183	901	2777
26	0	0	2466	946	183	901	2779
27	0	0	2685	946	183	901	2780
28	0	0	2812	945	183	901	2779
29	0	0	2860	945	183	900	2775
30	0	0	2840	945	184	901	2768
31	0	0	2826	942	182	901	2765
32	0	0	2674	940	184	902	2766
33	0	0	2429	939	183	901	2770
34	0	0	2208	940	183	901	2773
35	0	0	1982	940	183	904	2776
36	0	0	1755	941	183	901	2779
37	0	0	1534	940	183	901	2780
38	0	0	1368	940	184	900	2779
39	0	0	1278	941	184	901	2775
40	0	0	1223	940	183	901	2769
41	0	0	1095	941	183	901	2765
42	0	0	1203	946	184	901	2767
43	0	0	1478	946	183	900	2769
44	0	0	1765	946	183	901	2772
45	0	0	2125	946	182	901	2776
46	0	0	2462	946	184	901	2779
47	0	0	2682	946	184	901	2780
48	0	0	2809	946	184	901	2779
49	0	0	2858	946	184	901	2775
50	0	0	2840	946	183	900	2769
51	0	0	2827	942	184	901	2766
52	0	0	2676	941	183	901	2767
53	0	0	2431	940	184	900	2770
54	0	0	2206	940	183	901	2773
55	0	0	1978	941	184	901	2776
56	0	0	1753	941	184	901	2779
57	0	0	1533	940	183	901	2780
58	0	0	1374	940	183	900	2779
59	0	0	1284	942	184	901	2775
60	0	0	1231	940	183	901	2769
61	0	0	1102	941	183	901	2766
62	0	0	1210	946	185	901	2766
63	0	0	1487	947	183	901	2770
64	0	0	1780	946	184	901	2772
65	0	0	2147	946	183	901	2776
66	0	0	2477	947	183	901	2779
67	0	0	2702	947	184	901	2781
68	0	0	2831	946	184	901	2779
69	0	0	2876	947	183	901	2776
70	0	0	2852	946	183	901	2768
71	0	0	2831	942	183	901	2766
72	0	0	2673	941	184	901	2766
73	0	0	2430	940	184	901	2769
74	0	0	2206	941	184	901	2772
75	0	0	1976	941	182	901	2777
76	0	0	1748	941	184	901	2779
77	0	0	1528	941	183	901	2780
78	0	0	1360	941	184	900	2779
79	0	0	1270	942	183	901	2775
80	0	0	1219	942	181	900	2769
81	0	0	1092	944	183	901	2766
82	0	0	1207	947	184	901	2767
83	0	0	1485	947	183	900	2769
84	0	0	1779	947	183	900	2772
85	0	0	2144	946	183	901	2776
86	0	0	2488	946	183	901	2779
87	0	0	2715	947	184	901	2780
88	0	0	2845	947	184	901	2779
89	0	0	2888	947	184	900	2775
90	0	0	2857	947	183	901	2768
91	0	0	2836	943	183	901	2765
92	0	0	2684	942	183	901	2766
93	0	0	2443	941	184	901	2769
94	0	0	2218	942	183	900	2772
95	0	0	1996	941	183	901	2776
96	0	0	1776	941	183	901	2779
97	0	0	1556	941	183	901	2779
98	0	0	1389	941	183	901	2779
99	0	0	1292	942	184	901	2775
100	0	0	1229	942	183	901	2768
101	0	0	1096	942	184	901	2766
102	0	0	1205	948	184	901	2766
103	0	0	1485	947	184	901	2769
104	0	0	1782	948	183	900	2772
105	0	0	2149	948	182	901	2776
106	0	0	2484	948	183	901	2779
107	0	0	2710	947	182	901	2779
108	0	0	2838	947	183	900	2778
109	0	0	2889	948	185	901	2775
110	0	0	2866	948	184	901	2768
111	0	0	2843	944	182	901	2765
112	0	0	2693	942	183	901	2766
113	0	0	2454	942	183	901	2769
114	0	0	2233	941	184	901	2772
115	0	0	2005	941	183	901	2776
116	0	0	1779	942	184	901	2779
117	0	0	1560	941	184	901	2780
118	0	0	1394	942	183	900	2779
119	0	0	1297	943	184	901	2775
120	0	0	1241	943	185	901	2769
121	0	0	1107	943	183	901	2765
122	0	0	1213	948	184	901	2766
123	0	0	1486	948	184	900	2769
124	0	0	1775	948	184	900	2772
125	0	0	2144	948	182	901	2776
126	0	0	2484	948	184	901	2779
127	0	0	2709	947	183	901	2779
0	0	0	2838	948	184	901	2779
1	0	0	2884	948	182	901	2775
2	0	0	2863	948	183	901	2768
3	0	0	2850	944	183	901	2766
4	0	0	2696	942	183	901	2766
5	0	0	2448	942	184	900	2768
6	0	0	2225	942	182	901	2773
7	0	0	1997	942	183	901	2776
8	0	0	1765	942	184	901	2778
9	0	0	1533	942	184	901	2779
10	0	0	1366	943	183	901	2779
11	0	0	1270	944	184	901	2775
12	0	0	1211	942	183	901	2768
13	0	0	1075	944	184	901	2765
14	0	0	1184	949	184	901	2766
15	0	0	1459	948	183	901	2768
16	0	0	1757	949	183	901	2771
17	0	0	2132	948	184	901	2776
18	0	0	2477	949	184	901	2778
19	0	0	2710	948	183	901	2780
20	0	0	2844	948	184	901	2779
21	0	0	2893	948	184	901	2775
22	0	0	2869	948	182	901	2769
23	0	0	2845	944	183	901	2765
24	0	0	2693	942	184	901	2766
25	0	0	2452	943	183	901	2768
26	0	0	2224	942	184	901	2772
27	0	0	1992	943	184	901	2775
28	0	0	1755	943	183	901	2778
29	0	0	1527	942	183	901	2779
30	0	0	1351	943	185	900	2778
31	0	0	1245	944	183	900	2775
32	0	0	1184	943	183	901	2767
33	0	0	1046	944	184	901	2764
34	0	0	1160	948	183	901	2765
35	0	0	1445	948	183	901	2768
36	0	0	1748	948	183	901	2772
37	0	0	2134	948	182	901	2776
38	0	0	2496	949	182	901	2779
39	0	0	2736	949	183	901	2780
40	0	0	2875	949	182	901	2779
41	0	0	2926	949	184	901	2775
42	0	0	2895	948	181	901	2768
43	0	0	2860	945	183	901	2765
44	0	0	2689	943	183	901	2765
45	0	0	2437	943	184	901	2769
46	0	0	2205	943	183	901	2771
47	0	0	1973	943	184	900	2775
48	0	0	1735	942	183	901	2778
49	0	0	1492	943	184	901	2779
50	0	0	1308	943	183	900	2778
51	0	0	1205	944	184	901	2774
52	0	0	1146	944	184	901	2768
53	0	0	1007	945	183	901	2765
54	0	0	1126	949	184	901	2766
55	0	0	1420	948	184	900	2768
56	0	0	1733	949	184	901	2772
57	0	0	2142	949	183	901	2775
58	0	0	2523	949	183	901	2778
59	0	0	2782	950	183	901	2779
60	0	0	2930	949	183	901	2778
61	0	0	2985	949	184	901	2774
62	0	0	2949	947	184	901	2767
63	0	0	2902	944	184	901	2764
64	0	0	2728	943	183	901	2765
65	0	0	2467	943	184	900	2768
66	0	0	2225	943	183	901	2771
67	0	0	1978	943	183	901	2775
68	0	0	1736	943	184	901	2778
69	0	0	1482	943	183	901	2778
70	0	0	1281	944	183	901	2778
71	0	0	1165	944	185	901	2774
72	0	0	1093	944	183	901	2768
73	0	0	944	945	184	901	2764
74	0	0	1067	950	183	901	2765
75	0	0	1380	949	184	900	2768
76	0	0	1713	949	184	900	2771
77	0	0	2146	950	183	901	2775
78	0	0	2565	950	183	901	2778
79	0	0	2840	950	183	901	2779
80	0	0	2991	950	184	900	2778
81	0	0	3053	949	183	901	2775
82	0	0	3014	946	183	901	2767
83	0	0	2953	944	183	901	2764
84	0	0	2764	943	183	901	2766
85	0	0	2492	943	183	900	2768
86	0	0	2247	943	184	901	2772
87	0	0	2002	944	185	901	2775
88	0	0	1748	943	184	901	2778
89	0	0	1478	944	183	901	2779
90	0	0	1269	944	184	900	2778
91	0	0	1147	944	184	901	2774
92	0	0	1072	944	184	901	2767
93	0	0	913	945	183	901	2764
94	0	0	1044	950	184	901	2765
95	0	0	1368	949	183	901	2768
96	0	0	1718	949	183	901	2771
97	0	0	2168	950	184	901	2775
98	0	0	2591	950	184	901	2777
99	0	0	2875	950	184	901	2778
100	0	0	3031	950	183	900	2778
101	0	0	3089	950	183	900	2774
102	0	0	3044	946	184	901	2768
103	0	0	2982	945	183	901	2764
104	0	0	2789	944	183	901	2765
105	0	0	2517	944	184	901	2768
106	0	0	2268	944	184	900	2771
107	0	0	2018	944	183	901	2776
108	0	0	1758	944	184	901	2778
109	0	0	1486	943	183	901	2779
110	0	0	1264	944	183	900	2778
111	0	0	1134	944	184	901	2774
112	0	0	1060	944	183	901	2767
113	0	0	906	946	184	900	2764
114	0	0	1031	950	182	901	2765
115	0	0	1353	950	183	900	2767
116	0	0	1699	949	183	901	2771
117	0	0	2155	950	183	901	2775
118	0	0	2582	950	183	901	2777
119	0	0	2870	950	184	901	2778
120	0	0	3040	949	182	901	2778
121	0	0	3103	950	184	901	2774
122	0	0	3057	946	183	901	2768
123	0	0	2983	945	184	901	2765
124	0	0	2787	944	184	901	2765
125	0	0	2510	943	183	901	2768
126	0	0	2255	944	184	901	2771
127	0	0	2002	944	183	901	2774
0	0	0	1736	943	183	901	2777
1	0	0	1459	943	183	901	2779
2	0	0	1238	944	184	901	2777
3	0	0	1109	945	184	901	2774
4	0	0	1034	944	182	901	2767
5	0	0	879	945	183	901	2764
6	0	0	1013	950	184	901	2765
7	0	0	1347	950	183	901	2767
8	0	0	1700	949	183	901	2771
9	0	0	2163	949	183	901	2774
10	0	0	2590	951	184	900	2777
11	0	0	2878	951	184	901	2779
12	0	0	3042	950	183	901	2777
13	0	0	3108	950	183	901	2774
14	0	0	3064	946	183	901	2768
15	0	0	2989	945	183	901	2764
16	0	0	2790	944	183	901	2764
17	0	0	2508	944	183	900	2767
18	0	0	2255	943	182	901	2770
19	0	0	1989	944	184	901	2774
20	0	0	1716	944	183	901	2777
21	0	0	1423	944	184	901	2778
22	0	0	1188	944	183	900	2777
23	0	0	1056	944	184	901	2774
24	0	0	987	944	185	901	2767
25	0	0	831	945	184	901	2764
26	0	0	975	949	183	901	2765
27	0	0	1322	950	184	900	2767
28	0	0	1692	950	183	901	2771
29	0	0	2179	950	184	901	2774
30	0	0	2642	951	184	901	2777
31	0	0	2943	950	183	901	2778
32	0	0	3116	950	183	900	2777
33	0	0	3180	950	183	901	2773
34	0	0	3124	946	183	901	2767
35	0	0	3015	945	184	901	2764
36	0	0	2792	945	183	901	2764
37	0	0	2496	945	184	901	2767
38	0	0	2234	944	184	901	2770
39	0	0	1971	945	183	901	2774
40	0	0	1703	944	183	901	2777
41	0	0	1402	944	183	901	2778
42	0	0	1165	944	184	901	2777
43	0	0	1030	945	183	901	2774
44	0	0	952	945	185	901	2767
45	0	0	794	946	184	901	2764
46	0	0	947	951	184	901	2765
47	0	0	1314	950	185	901	2767
48	0	0	1698	950	183	901	2770
49	0	0	2201	950	184	901	2774
50	0	0	2675	951	183	900	2777
51	0	0	2982	951	183	901	2778
52	0	0	3149	951	183	901	2777
53	0	0	3207	951	183	900	2773
54	0	0	3139	945	184	900	2767
55	0	0	3028	946	184	901	2763
56	0	0	2805	945	182	901	2764
57	0	0	2508	944	183	901	2767
58	0	0	2246	944	183	901	2771
59	0	0	1982	944	185	901	2774
60	0	0	1714	944	183	902	2777
61	0	0	1418	944	184	901	2778
62	0	0	1173	944	184	900	2777
63	0	0	1036	945	183	900	2773
64	0	0	954	944	184	901	2766
65	0	0	793	946	185	900	2764
66	0	0	946	951	184	901	2764
67	0	0	1318	950	183	901	2767
68	0	0	1708	950	184	901	2770
69	0	0	2220	951	183	900	2774
70	0	0	2695	951	183	901	2777
71	0	0	3003	950	183	901	2778
72	0	0	3169	951	184	901	2776
73	0	0	3225	951	184	900	2773
74	0	0	3153	947	183	900	2766
75	0	0	3042	945	182	901	2763
76	0	0	2819	944	183	901	2764
77	0	0	2522	944	184	901	2767
78	0	0	2258	944	183	901	2770
79	0	0	1996	945	184	901	2774
80	0	0	1716	944	184	900	2776
81	0	0	1409	944	184	901	2778
82	0	0	1166	944	183	901	2777
83	0	0	1028	945	183	901	2773
84	0	0	952	945	184	901	2766
85	0	0	796	946	184	901	2763
86	0	0	950	950	184	901	2764
87	0	0	1318	950	183	901	2766
88	0	0	1706	950	184	901	2771
89	0	0	2214	952	184	901	2773
90	0	0	2686	951	184	901	2776
91	0	0	3003	951	184	901	2778
92	0	0	3176	950	184	900	2777
93	0	0	3239	950	183	902	2773
94	0	0	3176	946	184	901	2767
95	0	0	3060	945	183	901	2764
96	0	0	2832	944	184	901	2764
97	0	0	2534	944	184	901	2767
98	0	0	2266	944	183	901	2770
99	0	0	1998	945	183	901	2773
100	0	0	1711	944	182	901	2776
101	0	0	1405	943	184	901	2777
102	0	0	1157	944	183	901	2776
103	0	0	1014	944	183	901	2773
104	0	0	945	945	185	901	2766
105	0	0	785	946	184	901	2763
106	0	0	943	950	184	901	2764
107	0	0	1316	951	183	901	2767
108	0	0	1707	950	184	901	2770
109	0	0	2222	950	183	900	2774
110	0	0	2693	951	182	901	2776
111	0	0	3006	951	183	901	2778
112	0	0	3177	950	183	900	2776
113	0	0	3236	951	184	901	2773
114	0	0	3175	946	182	901	2766
115	0	0	3062	946	183	901	2763
116	0	0	2831	945	183	900	2764
117	0	0	2531	945	183	901	2767
118	0	0	2255	944	184	901	2769
119	0	0	1981	944	184	901	2773
120	0	0	1703	944	181	901	2776
121	0	0	1399	944	184	901	2777
122	0	0	1154	944	184	901	2776
123	0	0	1005	945	184	901	2773
124	0	0	917	945	185	900	2766
125	0	0	741	946	184	901	2763
126	0	0	883	950	183	900	2764
127	0	0	1263	951	183	901	2767
0	0	0	1660	951	184	901	2770
1	0	0	2185	951	183	901	2774
2	0	0	2679	951	181	901	2776
3	0	0	3002	950	183	901	2778
4	0	0	3194	951	183	900	2777
5	0	0	3273	951	183	902	2773
6	0	0	3228	947	183	901	2766
7	0	0	3114	946	184	900	2763
8	0	0	2877	945	182	901	2764
9	0	0	2561	944	184	901	2766
10	0	0	2276	945	183	901	2769
11	0	0	2001	945	183	901	2774
12	0	0	1708	944	183	901	2777
13	0	0	1384	944	184	901	2777
14	0	0	1124	944	184	901	2777
15	0	0	971	946	184	901	2773
16	0	0	890	945	184	901	2766
17	0	0	706	946	184	900	2763
18	0	0	854	950	183	901	2764
19	0	0	1238	950	183	901	2767
20	0	0	1643	951	184	901	2770
21	0	0	2178	951	183	900	2773
22	0	0	2687	951	183	900	2776
23	0	0	3024	950	183	901	2777
24	0	0	3220	950	182	901	2776
25	0	0	3289	951	183	901	2773
26	0	0	3216	946	184	901	2766
27	0	0	3087	945	183	901	2763
28	0	0	2849	946	183	901	2764
29	0	0	2546	944	184	901	2766
30	0	0	2276	945	183	901	2770
31	0	0	2001	945	185	901	2773
32	0	0	1717	944	184	901	2776
33	0	0	1393	944	184	901	2778
34	0	0	1124	944	183	900	2776
35	0	0	957	945	184	902	2773
36	0	0	863	944	184	901	2766
37	0	0	680	946	183	901	2763
38	0	0	837	950	184	901	2764
39	0	0	1230	950	184	901	2766
40	0	0	1647	951	184	901	2769
41	0	0	2190	951	184	901	2773
42	0	0	2712	951	184	901	2776
43	0	0	3049	951	182	901	2777
44	0	0	3238	952	183	901	2777
45	0	0	3307	951	184	901	2772
46	0	0	3233	947	184	901	2766
47	0	0	3108	946	184	901	2762
48	0	0	2867	944	183	901	2763
49	0	0	2554	945	184	901	2766
50	0	0	2272	945	184	901	2769
51	0	0	1996	945	183	900	2773
52	0	0	1701	945	183	901	2776
53	0	0	1372	945	185	901	2778
54	0	0	1103	945	183	901	2776
55	0	0	939	946	184	901	2773
56	0	0	852	945	184	901	2766
57	0	0	677	946	184	901	2762
58	0	0	830	949	184	901	2764
59	0	0	1220	950	184	901	2766
60	0	0	1638	951	184	900	2769
61	0	0	2180	951	184	900	2773
62	0	0	2696	951	183	901	2776
63	0	0	3041	950	183	901	2777
64	0	0	3243	951	183	901	2776
65	0	0	3315	951	183	901	2772
66	0	0	3260	947	184	901	2766
67	0	0	3135	946	183	900	2763
68	0	0	2891	945	184	901	2764
69	0	0	2574	945	184	901	2766
70	0	0	2290	945	184	901	2770
71	0	0	2011	945	183	901	2773
72	0	0	1713	945	183	901	2776
73	0	0	1382	943	184	901	2777
74	0	0	1111	945	183	901	2776
75	0	0	949	946	183	901	2772
76	0	0	868	944	184	901	2765
77	0	0	684	946	183	901	2762
78	0	0	838	950	183	901	2763
79	0	0	1228	951	184	901	2767
80	0	0	1641	951	183	900	2769
81	0	0	2191	950	184	901	2774
82	0	0	2712	951	184	901	2776
83	0	0	3055	950	184	901	2777
84	0	0	3252	951	183	901	2776
85	0	0	3325	951	183	901	2773
86	0	0	3270	946	182	901	2766
87	0	0	3146	946	184	901	2763
88	0	0	2895	945	183	901	2763
89	0	0	2575	945	183	901	2766
90	0	0	2288	944	183	901	2769
91	0	0	2010	945	183	901	2773
92	0	0	1720	944	183	901	2775
93	0	0	1392	944	184	901	2777
94	0	0	1128	945	184	901	2776
95	0	0	963	946	183	901	2772
96	0	0	877	944	184	901	2766
97	0	0	697	946	184	901	2763
98	0	0	842	950	184	901	2764
99	0	0	1235	951	183	900	2766
100	0	0	1655	951	183	900	2769
101	0	0	2202	951	183	901	2773
102	0	0	2716	951	184	901	2776
103	0	0	3059	950	183	901	2777
104	0	0	3254	951	183	901	2776
105	0	0	3327	951	183	901	2773
106	0	0	3278	946	183	901	2766
107	0	0	3147	945	183	901	2762
108	0	0	2894	945	182	901	2763
109	0	0	2579	944	183	901	2766
110	0	0	2296	944	183	901	2769
111	0	0	2015	945	183	901	2773
112	0	0	1716	944	184	901	2776
113	0	0	1387	943	184	901	2776
114	0	0	1114	944	184	901	2776
115	0	0	953	945	183	900	2772
116	0	0	874	945	184	901	2766
117	0	0	690	946	184	901	2762
118	0	0	840	950	183	901	2763
119	0	0	1227	950	184	901	2766
120	0	0	1645	950	183	901	2769
121	0	0	2190	951	184	901	2773
122	0	0	2710	951	184	901	2776
123	0	0	3054	951	184	901	2777
124	0	0	3249	951	182	900	2775
125	0	0	3322	950	183	901	2772
126	0	0	3263	947	183	900	2765
127	0	0	3137	945	184	901	2762
0	0	0	2888	944	183	901	2763
1	0	0	2565	944	183	901	2766
2	0	0	2280	945	184	901	2769
3	0	0	2003	944	183	901	2773
4	0	0	1715	944	183	901	2776
5	0	0	1391	945	183	901	2777
6	0	0	1122	944	183	901	2776
7	0	0	957	945	184	901	2773
8	0	0	863	944	185	901	2765
9	0	0	679	945	184	901	2762
10	0	0	827	950	183	901	2763
11	0	0	1219	951	184	901	2766
12	0	0	1646	951	183	901	2769
13	0	0	2198	951	184	901	2773
14	0	0	2721	951	184	901	2775
15	0	0	3067	951	184	901	2777
16	0	0	3256	951	183	901	2775
17	0	0	3321	951	183	901	2772
18	0	0	3250	946	183	900	2766
19	0	0	3113	945	183	901	2762
20	0	0	2862	944	183	901	2763
21	0	0	2549	944	183	901	2766
22	0	0	2268	945	183	900	2769
23	0	0	1993	945	183	901	2773
24	0	0	1708	944	184	901	2776
25	0	0	1383	944	183	901	2777
26	0	0	1116	944	183	901	2776
27	0	0	955	946	183	900	2772
28	0	0	860	945	184	901	2765
29	0	0	669	945	184	901	2762
30	0	0	817	950	185	901	2763
31	0	0	1218	950	184	901	2765
32	0	0	1644	950	183	901	2769
33	0	0	2210	950	183	901	2773
34	0	0	2737	950	183	901	2776
35	0	0	3084	950	184	901	2777
36	0	0	3282	950	184	900	2776
37	0	0	3350	951	183	901	2772
38	0	0	3279	946	183	901	2766
39	0	0	3141	946	184	901	2762
40	0	0	2890	944	183	901	2763
41	0	0	2565	944	183	901	2765
42	0	0	2283	944	184	901	2769
43	0	0	2001	944	183	900	2773
44	0	0	1696	944	184	901	2775
45	0	0	1364	943	184	901	2777
46	0	0	1089	944	184	901	2775
47	0	0	923	945	183	900	2772
48	0	0	844	944	184	901	2766
49	0	0	666	946	184	901	2762
50	0	0	825	950	184	901	2763
51	0	0	1231	950	184	900	2765
52	0	0	1652	951	183	900	2769
53	0	0	2207	951	184	901	2772
54	0	0	2729	951	184	900	2775
55	0	0	3083	950	183	901	2777
56	0	0	3275	950	183	901	2776
57	0	0	3344	951	183	901	2773
58	0	0	3289	946	184	900	2765
59	0	0	3145	945	184	901	2762
60	0	0	2886	944	184	901	2763
61	0	0	2561	944	184	901	2765
62	0	0	2265	944	183	901	2768
63	0	0	1982	944	183	901	2773
64	0	0	1683	944	184	901	2776
65	0	0	1349	944	183	901	2776
66	0	0	1069	944	184	901	2775
67	0	0	903	945	184	901	2772
68	0	0	822	944	184	901	2765
69	0	0	641	945	184	901	2762
70	0	0	803	949	183	901	2763
71	0	0	1215	950	184	901	2765
72	0	0	1638	950	182	901	2769
73	0	0	2199	950	185	900	2772
74	0	0	2722	950	183	900	2775
75	0	0	3068	950	183	901	2776
76	0	0	3267	950	182	901	2776
77	0	0	3336	950	184	901	2772
78	0	0	3276	946	183	901	2765
79	0	0	3139	945	185	901	2761
80	0	0	2878	943	182	901	2763
81	0	0	2552	944	183	901	2765
82	0	0	2268	944	183	901	2768
83	0	0	1992	944	183	902	2772
84	0	0	1690	943	182	901	2776
85	0	0	1357	944	183	901	2776
86	0	0	1077	943	183	901	2775
87	0	0	909	945	184	900	2772
88	0	0	833	944	184	901	2765
89	0	0	654	945	183	901	2762
90	0	0	808	950	184	901	2763
91	0	0	1215	950	184	901	2765
92	0	0	1640	950	184	901	2769
93	0	0	2197	950	183	901	2772
94	0	0	2725	950	183	901	2775
95	0	0	3082	950	183	901	2776
96	0	0	3281	950	182	901	2776
97	0	0	3349	951	183	900	2772
98	0	0	3284	945	183	900	2765
99	0	0	3146	945	184	901	2762
100	0	0	2889	944	183	901	2763
101	0	0	2572	944	184	901	2766
102	0	0	2281	945	183	901	2769
103	0	0	2001	944	183	901	2772
104	0	0	1704	944	184	901	2775
105	0	0	1367	944	182	901	2777
106	0	0	1084	944	183	900	2775
107	0	0	915	945	183	901	2773
108	0	0	832	944	183	901	2765
109	0	0	644	945	184	901	2762
110	0	0	801	950	185	901	2763
111	0	0	1208	950	184	901	2765
112	0	0	1638	950	185	901	2768
113	0	0	2208	951	183	900	2772
114	0	0	2749	951	183	900	2775
115	0	0	3101	951	183	901	2776
116	0	0	3296	951	184	900	2775
117	0	0	3367	950	183	901	2772
118	0	0	3294	946	183	901	2765
119	0	0	3150	944	183	901	2762
120	0	0	2890	944	183	901	2763
121	0	0	2560	944	184	901	2766
122	0	0	2269	944	183	901	2768
123	0	0	1985	944	184	901	2772
124	0	0	1691	944	184	901	2776
125	0	0	1362	944	183	901	2776
126	0	0	1085	944	184	901	2776
127	0	0	914	944	183	901	2772
0	0	0	819	944	185	901	2765
1	0	0	632	945	184	901	2761
2	0	0	790	949	184	901	2763
3	0	0	1202	950	183	900	2765
4	0	0	1633	950	184	900	2768
5	0	0	2191	949	183	901	2772
6	0	0	2735	950	183	900	2775
7	0	0	3095	950	184	901	2776
8	0	0	3293	950	182	901	2775
9	0	0	3360	950	183	900	2772
10	0	0	3277	945	183	901	2765
11	0	0	3126	945	183	901	2761
12	0	0	2870	944	184	901	2763
13	0	0	2547	944	183	901	2765
14	0	0	2259	944	184	901	2769
15	0	0	1984	944	186	901	2772
16	0	0	1687	943	184	900	2775
17	0	0	1350	943	184	901	2776
18	0	0	1066	944	183	901	2776
19	0	0	895	945	184	901	2771
20	0	0	811	945	184	901	2765
21	0	0	628	946	184	901	2761
22	0	0	786	950	183	901	2762
23	0	0	1195	950	184	901	2764
24	0	0	1628	950	184	901	2768
25	0	0	2201	950	183	901	2772
26	0	0	2737	950	183	900	2775
27	0	0	3092	950	183	901	2776
28	0	0	3284	950	184	901	2775
29	0	0	3352	950	182	900	2771
30	0	0	3281	945	183	901	2765
31	0	0	3139	945	182	900	2761
32	0	0	2885	944	183	901	2763
33	0	0	2561	944	183	900	2765
34	0	0	2272	944	183	901	2769
35	0	0	1993	944	183	901	2771
36	0	0	1692	943	182	901	2775
37	0	0	1362	944	184	901	2776
38	0	0	1086	943	183	901	2775
39	0	0	920	945	184	901	2772
40	0	0	844	944	184	901	2765
41	0	0	663	945	184	901	2762
42	0	0	811	949	183	901	2762
43	0	0	1221	950	184	901	2765
44	0	0	1650	950	183	901	2768
45	0	0	2208	951	183	901	2772
46	0	0	2742	950	183	900	2775
47	0	0	3098	950	183	901	2776
48	0	0	3295	950	184	901	2775
49	0	0	3363	951	183	901	2771
50	0	0	3297	945	182	900	2764
51	0	0	3155	944	184	900	2761
52	0	0	2899	944	183	901	2762
53	0	0	2581	944	184	901	2764
54	0	0	2292	944	183	901	2768
55	0	0	2009	943	184	901	2771
56	0	0	1710	944	184	901	2775
57	0	0	1378	943	183	901	2776
58	0	0	1095	944	183	901	2775
59	0	0	927	945	184	901	2772
60	0	0	851	944	184	901	2765
61	0	0	674	945	184	901	2761
62	0	0	832	949	184	901	2763
63	0	0	1234	949	183	900	2764
64	0	0	1665	950	183	901	2768
65	0	0	2234	950	183	901	2772
66	0	0	2762	950	182	901	2775
67	0	0	3118	949	184	901	2776
68	0	0	3317	950	183	901	2775
69	0	0	3385	951	183	900	2771
70	0	0	3321	945	183	900	2765
71	0	0	3177	944	184	901	2761
72	0	0	2910	943	184	901	2762
73	0	0	2580	943	184	901	2764
74	0	0	2294	943	184	901	2768
75	0	0	2013	943	183	901	2772
76	0	0	1714	944	183	901	2775
77	0	0	1372	943	183	901	2776
78	0	0	1083	944	184	901	2775
79	0	0	912	945	183	900	2771
80	0	0	824	943	183	901	2765
81	0	0	639	945	184	901	2761
82	0	0	788	949	185	901	2762
83	0	0	1195	949	184	900	2764
84	0	0	1622	950	183	901	2768
85	0	0	2192	950	184	900	2771
86	0	0	2727	950	183	900	2774
87	0	0	3085	950	183	901	2776
88	0	0	3283	951	183	901	2775
89	0	0	3350	950	183	901	2771
90	0	0	3279	945	183	901	2764
91	0	0	3129	944	184	901	2761
92	0	0	2867	943	184	901	2762
93	0	0	2539	943	183	901	2764
94	0	0	2246	943	183	901	2768
95	0	0	1962	943	184	901	2771
96	0	0	1676	943	184	901	2774
97	0	0	1345	943	185	901	2776
98	0	0	1060	942	184	901	2774
99	0	0	888	944	183	901	2771
100	0	0	798	943	183	901	2764
101	0	0	608	945	184	901	2761
102	0	0	773	949	184	901	2762
103	0	0	1180	949	183	901	2764
104	0	0	1611	949	183	901	2768
105	0	0	2187	950	184	900	2771
106	0	0	2726	950	183	901	2774
107	0	0	3084	950	183	901	2776
108	0	0	3284	950	183	901	2774
109	0	0	3353	950	184	900	2771
110	0	0	3281	945	184	901	2764
111	0	0	3140	944	183	901	2761
112	0	0	2884	944	184	901	2762
113	0	0	2568	943	184	900	2764
114	0	0	2282	943	183	901	2767
115	0	0	2002	943	185	901	2771
116	0	0	1709	943	183	901	2774
117	0	0	1371	943	184	901	2776
118	0	0	1091	944	184	901	2775
119	0	0	921	944	184	901	2771
120	0	0	830	943	184	901	2764
121	0	0	644	945	184	901	2761
122	0	0	797	950	183	901	2762
123	0	0	1202	949	184	901	2764
124	0	0	1630	949	183	900	2767
125	0	0	2197	949	184	901	2771
126	0	0	2730	950	184	901	2774
127	0	0	3089	949	183	900	2776
0	0	0	3295	949	183	901	2775
1	0	0	3370	950	183	901	2771
2	0	0	3303	945	184	901	2764
3	0	0	3153	944	183	900	2761
4	0	0	2895	943	183	901	2762
5	0	0	2574	943	183	901	2764
6	0	0	2282	943	183	901	2768
7	0	0	1994	943	183	901	2771
8	0	0	1704	943	183	900	2774
9	0	0	1362	943	182	901	2775
10	0	0	1072	943	183	901	2774
11	0	0	902	944	183	901	2771
12	0	0	814	943	183	901	2764
13	0	0	626	945	183	901	2761
14	0	0	776	949	183	901	2762
15	0	0	1188	949	183	901	2764
16	0	0	1619	949	183	900	2767
17	0	0	2190	949	183	901	2771
18	0	0	2721	949	184	900	2774
19	0	0	3075	949	181	901	2775
20	0	0	3281	949	183	900	2774
21	0	0	3357	950	182	901	2771
22	0	0	3294	945	184	901	2764
23	0	0	3144	944	184	900	2760
24	0	0	2881	944	183	901	2761
25	0	0	2552	943	184	901	2763
26	0	0	2265	943	183	901	2767
27	0	0	1977	943	183	901	2771
28	0	0	1669	943	184	901	2773
29	0	0	1330	943	182	901	2775
30	0	0	1046	943	183	901	2774
31	0	0	876	943	185	901	2771
32	0	0	805	943	185	901	2764
33	0	0	631	944	186	901	2760
34	0	0	783	949	185	901	2761
35	0	0	1192	949	184	901	2764
36	0	0	1621	949	183	901	2767
37	0	0	2190	948	183	901	2771
38	0	0	2730	949	184	900	2774
39	0	0	3087	950	182	901	2775
40	0	0	3291	950	184	901	2774
41	0	0	3369	949	183	901	2771
42	0	0	3305	944	183	901	2764
43	0	0	3155	944	183	900	2760
44	0	0	2898	943	184	901	2761
45	0	0	2572	943	183	901	2764
46	0	0	2274	942	182	901	2767
47	0	0	1985	942	182	901	2771
48	0	0	1682	942	184	901	2774
49	0	0	1335	943	183	901	2775
50	0	0	1054	943	183	901	2774
51	0	0	885	943	183	901	2771
52	0	0	815	943	184	901	2764
53	0	0	639	944	184	900	2760
54	0	0	787	949	185	901	2761
55	0	0	1199	949	184	901	2763
56	0	0	1634	949	183	901	2767
57	0	0	2206	949	184	901	2771
58	0	0	2737	949	184	901	2774
59	0	0	3092	949	185	901	2775
60	0	0	3298	949	183	901	2774
61	0	0	3373	948	184	901	2770
62	0	0	3311	945	183	901	2764
63	0	0	3162	943	182	901	2760
64	0	0	2895	943	183	901	2761
65	0	0	2563	942	182	901	2763
66	0	0	2269	942	183	901	2767
67	0	0	1984	943	183	901	2771
68	0	0	1676	944	182	901	2774
69	0	0	1343	942	184	901	2775
70	0	0	1064	943	184	901	2774
71	0	0	900	943	182	901	2770
72	0	0	826	943	182	901	2764
73	0	0	647	944	184	901	2760
74	0	0	804	948	185	901	2761
75	0	0	1211	948	183	900	2763
76	0	0	1638	948	183	901	2767
77	0	0	2185	949	183	901	2770
78	0	0	2715	949	184	901	2773
79	0	0	3066	949	183	901	2775
80	0	0	3254	948	182	901	2774
81	0	0	3323	949	184	901	2770
82	0	0	3253	944	184	901	2764
83	0	0	3115	943	185	901	2760
84	0	0	2865	943	184	901	2761
85	0	0	2541	942	184	901	2763
86	0	0	2252	943	183	901	2767
87	0	0	1975	943	183	901	2771
88	0	0	1681	942	183	900	2774
89	0	0	1346	942	184	901	2775
90	0	0	1065	942	183	901	2773
91	0	0	902	944	184	901	2770
92	0	0	816	942	184	901	2764
93	0	0	631	943	185	901	2760
94	0	0	781	948	186	901	2761
95	0	0	1176	948	184	900	2763
96	0	0	1603	948	184	901	2767
97	0	0	2161	949	184	901	2770
98	0	0	2699	948	183	900	2774
99	0	0	3055	948	185	901	2775
100	0	0	3254	949	183	900	2774
101	0	0	3327	950	182	901	2770
102	0	0	3259	944	183	901	2764
103	0	0	3120	943	183	901	2760
104	0	0	2873	942	184	901	2761
105	0	0	2551	942	183	901	2763
106	0	0	2265	943	183	901	2766
107	0	0	1986	942	183	901	2770
108	0	0	1691	942	185	901	2773
109	0	0	1361	941	184	901	2774
110	0	0	1085	942	183	901	2773
111	0	0	916	943	184	901	2770
112	0	0	818	942	183	901	2763
113	0	0	630	943	184	900	2760
114	0	0	776	948	184	900	2760
115	0	0	1186	948	183	900	2763
116	0	0	1617	948	184	901	2767
117	0	0	2172	948	184	901	2771
118	0	0	2714	948	183	900	2773
119	0	0	3077	948	184	901	2774
120	0	0	3285	948	183	900	2773
121	0	0	3355	948	183	901	2770
122	0	0	3292	943	184	901	2763
123	0	0	3145	943	183	901	2759
124	0	0	2892	942	183	901	2760
125	0	0	2573	942	183	900	2762
126	0	0	2275	942	184	901	2766
127	0	0	1990	942	185	901	2770
0	0	0	1690	942	184	901	2773
1	0	0	1349	941	184	901	2774
2	0	0	1067	941	183	901	2773
3	0	0	895	942	184	901	2770
4	0	0	812	942	185	901	2763
5	0	0	624	943	183	901	2760
6	0	0	772	947	184	901	2761
7	0	0	1178	948	184	901	2763
8	0	0	1613	947	184	901	2767
9	0	0	2183	948	183	901	2770
10	0	0	2715	948	184	901	2773
11	0	0	3072	947	182	901	2774
12	0	0	3275	948	182	901	2774
13	0	0	3353	948	183	901	2770
14	0	0	3300	943	183	902	2763
15	0	0	3146	942	182	901	2759
16	0	0	2890	942	184	901	2760
17	0	0	2567	942	184	901	2763
18	0	0	2275	942	183	901	2766
19	0	0	1994	942	184	901	2770
20	0	0	1688	942	183	901	2773
21	0	0	1344	941	184	901	2774
22	0	0	1059	941	183	901	2774
23	0	0	888	941	183	901	2770
24	0	0	812	941	184	901	2763
25	0	0	627	942	184	901	2760
26	0	0	767	947	184	900	2760
27	0	0	1174	947	185	901	2763
28	0	0	1602	947	184	901	2766
29	0	0	2158	947	183	901	2770
30	0	0	2701	948	184	901	2773
31	0	0	3056	947	183	901	2774
32	0	0	3264	947	183	901	2774
33	0	0	3340	948	184	901	2769
34	0	0	3285	943	184	901	2763
35	0	0	3154	942	184	901	2760
36	0	0	2907	941	183	901	2760
37	0	0	2583	941	184	901	2763
38	0	0	2291	941	182	901	2767
39	0	0	2003	941	183	901	2770
40	0	0	1701	941	183	901	2773
41	0	0	1357	941	184	901	2774
42	0	0	1070	941	183	901	2773
43	0	0	902	941	184	901	2769
44	0	0	823	941	184	901	2763
45	0	0	641	942	184	901	2759
46	0	0	787	947	184	901	2760
47	0	0	1191	947	185	901	2762
48	0	0	1629	947	183	901	2766
49	0	0	2188	947	183	901	2769
50	0	0	2725	947	184	900	2772
51	0	0	3081	946	183	900	2774
52	0	0	3281	947	183	901	2773
53	0	0	3355	947	183	901	2769
54	0	0	3297	942	183	901	2763
55	0	0	3160	942	184	901	2760
56	0	0	2902	940	183	900	2760
57	0	0	2573	941	183	901	2763
58	0	0	2270	939	184	901	2766
59	0	0	1988	941	184	901	2770
60	0	0	1700	940	183	901	2772
61	0	0	1357	940	183	901	2774
62	0	0	1074	940	184	901	2772
63	0	0	904	941	184	901	2769
64	0	0	818	941	184	901	2763
65	0	0	625	942	184	901	2759
66	0	0	768	946	184	901	2760
67	0	0	1174	947	184	901	2762
68	0	0	1615	946	184	901	2766
69	0	0	2177	947	183	901	2769
70	0	0	2725	946	183	901	2773
71	0	0	3093	947	184	901	2774
72	0	0	3294	947	183	901	2773
73	0	0	3364	947	184	901	2769
74	0	0	3291	941	182	901	2763
75	0	0	3141	941	183	901	2759
76	0	0	2883	941	183	901	2760
77	0	0	2561	940	184	901	2762
78	0	0	2272	940	184	901	2765
79	0	0	1991	940	183	901	2769
80	0	0	1702	940	183	901	2773
81	0	0	1368	940	183	901	2774
82	0	0	1080	940	184	901	2773
83	0	0	903	941	184	901	2769
84	0	0	813	940	184	901	2763
85	0	0	615	941	185	901	2759
86	0	0	760	946	183	900	2760
87	0	0	1171	946	184	901	2762
88	0	0	1605	946	184	901	2765
89	0	0	2172	946	183	901	2769
90	0	0	2718	946	183	901	2772
91	0	0	3084	947	182	901	2774
92	0	0	3290	947	183	901	2772
93	0	0	3367	947	182	901	2769
94	0	0	3313	942	183	901	2762
95	0	0	3166	941	183	901	2759
96	0	0	2912	940	182	901	2760
97	0	0	2584	940	183	901	2763
98	0	0	2283	941	184	901	2765
99	0	0	1997	940	182	901	2769
100	0	0	1696	940	184	902	2772
101	0	0	1346	940	184	901	2774
102	0	0	1057	939	184	901	2772
103	0	0	883	940	184	901	2769
104	0	0	807	940	184	901	2763
105	0	0	623	941	185	901	2759
106	0	0	770	945	184	901	2760
107	0	0	1175	946	184	901	2762
108	0	0	1614	945	184	901	2765
109	0	0	2176	946	184	901	2769
110	0	0	2716	946	184	900	2772
111	0	0	3086	946	183	900	2774
112	0	0	3297	946	183	901	2772
113	0	0	3377	946	183	901	2770
114	0	0	3329	941	183	902	2763
115	0	0	3180	940	183	901	2759
116	0	0	2923	940	183	901	2760
117	0	0	2595	940	183	901	2761
118	0	0	2300	939	184	901	2766
119	0	0	2018	939	183	901	2769
120	0	0	1712	939	184	902	2772
121	0	0	1366	939	183	901	2774
122	0	0	1075	939	183	900	2772
123	0	0	899	940	184	901	2769
124	0	0	828	939	184	901	2762
125	0	0	642	940	183	901	2759
126	0	0	783	945	184	901	2760
127	0	0	1190	946	184	900	2762
0	0	0	1618	945	184	901	2765
1	0	0	2186	945	183	901	2769
2	0	0	2742	946	184	901	2773
3	0	0	3110	945	183	901	2773
4	0	0	3320	945	182	901	2772
5	0	0	3400	945	183	901	2770
6	0	0	3336	941	184	901	2763
7	0	0	3183	940	182	901	2759
8	0	0	2925	939	183	901	2759
9	0	0	2597	939	184	901	2762
10	0	0	2300	939	184	901	2765
11	0	0	2013	939	184	901	2769
12	0	0	1709	939	184	901	2772
13	0	0	1358	939	182	901	2773
14	0	0	1068	939	183	901	2772
15	0	0	890	940	183	901	2769
16	0	0	811	939	184	901	2762
17	0	0	622	939	184	900	2759
18	0	0	761	945	183	901	2760
19	0	0	1169	945	183	901	2762
20	0	0	1612	946	185	901	2765
21	0	0	2183	945	183	901	2769
22	0	0	2726	946	183	901	2772
23	0	0	3099	945	183	901	2773
24	0	0	3316	945	183	901	2773
25	0	0	3393	945	183	901	2769
26	0	0	3338	940	182	901	2763
27	0	0	3182	939	184	902	2759
28	0	0	2918	939	183	901	2760
29	0	0	2586	938	183	901	2762
30	0	0	2291	939	184	901	2766
31	0	0	2000	938	183	901	2769
32	0	0	1696	939	184	901	2772
33	0	0	1351	938	183	901	2774
34	0	0	1060	938	182	900	2772
35	0	0	888	939	183	903	2769
36	0	0	810	939	183	901	2763
37	0	0	630	940	183	901	2759
38	0	0	766	945	183	900	2759
39	0	0	1172	945	184	901	2762
40	0	0	1616	944	184	901	2765
41	0	0	2185	944	183	901	2769
42	0	0	2742	945	183	901	2773
43	0	0	3112	945	182	900	2774
44	0	0	3330	945	183	901	2773
45	0	0	3406	945	183	901	2769
46	0	0	3336	940	183	901	2762
47	0	0	3176	940	184	901	2759
48	0	0	2912	939	183	901	2760
49	0	0	2578	938	183	901	2762
50	0	0	2284	938	185	900	2765
51	0	0	1999	938	184	901	2769
52	0	0	1709	938	183	901	2772
53	0	0	1368	938	184	901	2774
54	0	0	1071	938	183	901	2772
55	0	0	894	939	184	901	2770
56	0	0	804	938	184	901	2763
57	0	0	612	939	184	901	2759
58	0	0	757	944	183	901	2760
59	0	0	1172	944	184	901	2762
60	0	0	1610	944	183	901	2766
61	0	0	2181	943	184	901	2769
62	0	0	2748	945	184	901	2772
63	0	0	3122	945	182	901	2774
64	0	0	3328	945	184	901	2772
65	0	0	3404	944	183	901	2769
66	0	0	3332	940	183	901	2763
67	0	0	3179	939	184	901	2759
68	0	0	2919	938	183	901	2760
69	0	0	2581	938	183	901	2762
70	0	0	2280	938	184	902	2766
71	0	0	1991	938	183	901	2769
72	0	0	1697	937	183	901	2772
73	0	0	1349	938	184	901	2773
74	0	0	1054	938	183	901	2772
75	0	0	876	939	184	901	2769
76	0	0	784	938	183	901	2763
77	0	0	597	939	184	901	2760
78	0	0	743	944	184	901	2760
79	0	0	1160	944	183	900	2762
80	0	0	1603	944	184	901	2766
81	0	0	2176	944	183	901	2770
82	0	0	2736	944	184	901	2772
83	0	0	3116	945	183	901	2774
84	0	0	3327	944	184	900	2772
85	0	0	3404	944	182	901	2769
86	0	0	3338	939	183	901	2763
87	0	0	3182	939	183	901	2759
88	0	0	2915	938	182	901	2759
89	0	0	2582	938	184	901	2762
90	0	0	2286	938	183	901	2765
91	0	0	1997	938	184	901	2769
92	0	0	1699	937	184	901	2773
93	0	0	1354	937	183	901	2774
94	0	0	1057	938	184	901	2773
95	0	0	879	940	183	901	2769
96	0	0	798	937	184	901	2763
97	0	0	614	939	184	901	2759
98	0	0	754	943	182	901	2760
99	0	0	1167	943	183	901	2762
100	0	0	1605	943	183	901	2766
101	0	0	2180	944	183	900	2769
102	0	0	2734	944	183	901	2772
103	0	0	3105	944	184	901	2774
104	0	0	3317	944	183	900	2772
105	0	0	3399	943	184	900	2769
106	0	0	3338	939	183	901	2763
107	0	0	3187	939	182	901	2759
108	0	0	2929	938	183	901	2760
109	0	0	2593	938	184	901	2762
110	0	0	2298	938	183	901	2766
111	0	0	2006	938	183	901	2770
112	0	0	1693	937	184	901	2773
113	0	0	1343	937	184	901	2774
114	0	0	1054	937	184	901	2773
115	0	0	882	938	182	901	2769
116	0	0	810	937	184	901	2763
117	0	0	632	939	184	902	2759
118	0	0	775	943	184	901	2760
119	0	0	1186	943	184	901	2762
120	0	0	1625	943	185	901	2765
121	0	0	2190	943	184	901	2769
122	0	0	2738	944	184	901	2772
123	0	0	3117	944	183	901	2774
124	0	0	3328	943	183	901	2773
125	0	0	3407	944	184	900	2770
126	0	0	3348	939	184	901	2763
127	0	0	3188	938	183	901	2759
0	0	0	2927	937	183	901	2760
1	0	0	2595	937	183	901	2762
2	0	0	2294	937	184	901	2767
3	0	0	2013	936	184	901	2769
4	0	0	1710	937	183	901	2772
5	0	0	1361	937	183	901	2774
6	0	0	1062	937	184	901	2773
7	0	0	889	938	184	901	2769
8	0	0	813	937	184	901	2763
9	0	0	633	938	183	901	2760
10	0	0	784	943	184	901	2760
11	0	0	1196	942	183	901	2762
12	0	0	1630	943	183	901	2766
13	0	0	2209	943	183	901	2769
14	0	0	2760	944	183	901	2772
15	0	0	3130	943	183	901	2774
16	0	0	3341	943	183	901	2773
17	0	0	3416	943	183	901	2770
18	0	0	3353	938	184	901	2763
19	0	0	3202	938	183	901	2760
20	0	0	2926	937	184	901	2760
21	0	0	2586	937	183	901	2762
22	0	0	2283	937	183	901	2766
23	0	0	1995	937	183	901	2769
24	0	0	1697	937	184	901	2772
25	0	0	1344	936	183	901	2774
26	0	0	1048	937	183	901	2772
27	0	0	870	937	183	901	2770
28	0	0	778	937	185	901	2763
29	0	0	584	938	184	901	2759
30	0	0	729	943	184	901	2760
31	0	0	1145	943	183	901	2762
32	0	0	1596	943	183	901	2767
33	0	0	2170	943	184	901	2769
34	0	0	2735	943	183	901	2773
35	0	0	3116	942	183	901	2774
36	0	0	3325	942	184	901	2773
37	0	0	3398	943	183	900	2770
38	0	0	3321	939	183	901	2763
39	0	0	3161	938	183	901	2759
40	0	0	2892	937	183	901	2760
41	0	0	2562	936	184	901	2762
42	0	0	2262	936	184	901	2765
43	0	0	1972	936	184	901	2769
44	0	0	1681	936	183	901	2773
45	0	0	1337	936	184	901	2774
46	0	0	1039	936	184	901	2773
47	0	0	858	936	184	901	2769
48	0	0	761	936	184	901	2763
49	0	0	573	937	183	902	2759
50	0	0	723	942	183	901	2760
51	0	0	1143	942	182	901	2762
52	0	0	1586	942	184	901	2766
53	0	0	2163	942	183	901	2769
54	0	0	2718	943	184	901	2772
55	0	0	3094	942	184	901	2774
56	0	0	3307	943	183	901	2772
57	0	0	3387	943	183	900	2770
58	0	0	3326	937	183	901	2763
59	0	0	3168	937	183	901	2759
60	0	0	2908	937	184	901	2760
61	0	0	2577	936	183	901	2762
62	0	0	2282	936	183	901	2766
63	0	0	1997	937	184	901	2770
64	0	0	1688	935	184	901	2773
65	0	0	1341	936	183	901	2774
66	0	0	1043	936	184	901	2773
67	0	0	868	937	183	900	2770
68	0	0	800	937	184	901	2763
69	0	0	613	937	183	902	2759
70	0	0	748	942	184	901	2760
71	0	0	1158	942	183	901	2762
72	0	0	1605	942	184	901	2766
73	0	0	2177	942	184	901	2770
74	0	0	2750	942	183	901	2773
75	0	0	3138	943	184	901	2774
76	0	0	3355	943	184	901	2773
77	0	0	3424	942	185	900	2770
78	0	0	3350	938	184	901	2763
79	0	0	3187	937	183	901	2759
80	0	0	2930	937	182	901	2760
81	0	0	2601	936	183	901	2762
82	0	0	2295	936	183	900	2766
83	0	0	2007	936	184	901	2770
84	0	0	1705	935	183	901	2773
85	0	0	1356	936	183	901	2774
86	0	0	1056	935	183	901	2773
87	0	0	878	936	184	901	2770
88	0	0	794	936	185	901	2763
89	0	0	604	936	184	902	2759
90	0	0	744	942	183	901	2760
91	0	0	1155	942	184	901	2762
92	0	0	1596	941	185	901	2766
93	0	0	2177	941	183	901	2769
94	0	0	2738	942	182	902	2772
95	0	0	3108	942	183	900	2774
96	0	0	3317	942	184	901	2773
97	0	0	3396	942	184	901	2770
98	0	0	3330	937	183	901	2763
99	0	0	3177	937	183	901	2760
100	0	0	2909	936	183	901	2760
101	0	0	2578	936	182	901	2763
102	0	0	2277	936	183	901	2766
103	0	0	1986	936	184	901	2769
104	0	0	1677	935	183	901	2772
105	0	0	1326	935	183	900	2774
106	0	0	1028	935	183	901	2773
107	0	0	851	936	183	901	2770
108	0	0	782	936	185	901	2763
109	0	0	601	936	183	902	2759
110	0	0	737	941	184	901	2760
111	0	0	1152	941	183	901	2762
112	0	0	1590	942	184	901	2766
113	0	0	2165	942	184	901	2770
114	0	0	2728	942	184	901	2773
115	0	0	3109	942	183	900	2774
116	0	0	3325	943	183	901	2774
117	0	0	3406	942	184	901	2770
118	0	0	3346	937	184	901	2763
119	0	0	3199	935	183	901	2759
120	0	0	2937	935	183	901	2760
121	0	0	2596	935	183	901	2762
122	0	0	2290	935	184	901	2766
123	0	0	2006	935	184	901	2770
124	0	0	1704	935	184	901	2772
125	0	0	1351	934	183	901	2774
126	0	0	1048	935	183	901	2773
127	0	0	862	937	184	901	2770
0	0	0	779	936	184	901	2763
1	0	0	592	936	183	901	2759
2	0	0	741	941	184	901	2760
3	0	0	1160	941	183	901	2762
4	0	0	1608	941	183	900	2767
5	0	0	2191	941	183	901	2770
6	0	0	2756	941	184	902	2773
7	0	0	3137	941	183	901	2774
8	0	0	3354	942	183	901	2773
9	0	0	3430	941	183	901	2770
10	0	0	3360	937	184	901	2763
11	0	0	3195	936	183	901	2760
12	0	0	2919	935	183	901	2760
13	0	0	2583	935	183	901	2763
14	0	0	2283	935	183	901	2766
15	0	0	1996	935	183	901	2769
