# bioPlux Text File Format
# Version: 1
# StartDateTime: 2011-07-19 08:52:09
# SamplingFrequency: 1000
# SampledChannels: 1 2 3 4 5
# SamplingResolution: 12
# AcquiringDevice: 00:07:80:42:0F:95
# EndOfHeader
0	0	0	2313	5	191	1897	3197
1	0	0	2299	5	193	1898	3195
2	0	0	2291	6	193	1898	3196
3	0	0	2299	5	192	1897	3197
4	0	0	2315	5	191	1898	3199
5	0	0	2356	5	188	1898	3201
6	0	0	2430	5	184	1897	3202
7	0	0	2497	4	183	1898	3203
8	0	0	2524	5	179	1897	3203
9	0	0	2522	5	178	1897	3201
10	0	0	2524	5	177	1897	3198
11	0	0	2524	4	174	1897	3196
12	0	0	2541	4	176	1898	3196
13	0	0	2552	5	176	1898	3197
14	0	0	2556	4	177	1897	3199
15	0	0	2549	4	180	1897	3201
16	0	0	2518	4	180	1897	3203
17	0	0	2458	4	183	1898	3204
18	0	0	2377	4	185	1897	3203
19	0	0	2305	4	187	1898	3202
20	0	0	2286	5	189	1898	3197
21	0	0	2309	5	193	1898	3196
22	0	0	2339	5	193	1898	3196
23	0	0	2382	5	193	1897	3197
24	0	0	2414	6	190	1898	3200
25	0	0	2419	6	188	1898	3201
26	0	0	2406	5	185	1898	3202
27	0	0	2452	5	182	1898	3204
28	0	0	2548	5	180	1897	3203
29	0	0	2613	5	177	1897	3201
30	0	0	2654	5	175	1897	3198
31	0	0	2670	5	175	1898	3196
32	0	0	2663	5	176	1898	3196
33	0	0	2658	4	176	1898	3198
34	0	0	2639	4	177	1897	3199
35	0	0	2596	3	179	1897	3201
36	0	0	2566	4	181	1898	3202
37	0	0	2576	3	185	1898	3203
38	0	0	2620	5	185	1898	3202
39	0	0	2652	5	189	1898	3202
40	0	0	2621	4	191	1898	3197
41	0	0	2524	4	192	1898	3195
42	0	0	2434	4	192	1898	3196
43	0	0	2401	5	192	1897	3197
44	0	0	2446	5	189	1898	3199
45	0	0	2529	5	187	1898	3200
46	0	0	2590	5	183	1897	3202
47	0	0	2621	5	181	1898	3203
48	0	0	2634	5	179	1898	3203
49	0	0	2651	5	178	1897	3201
50	0	0	2681	5	176	1898	3199
51	0	0	2705	4	175	1898	3197
52	0	0	2697	3	177	1898	3196
53	0	0	2657	4	177	1898	3198
54	0	0	2617	4	179	1897	3199
55	0	0	2601	5	180	1897	3201
56	0	0	2600	5	182	1898	3202
57	0	0	2597	5	184	1898	3203
58	0	0	2567	4	186	1897	3202
59	0	0	2531	4	188	1898	3201
60	0	0	2501	5	190	1897	3197
61	0	0	2478	5	191	1897	3195
62	0	0	2467	5	191	1898	3196
63	0	0	2456	5	191	1897	3197
64	0	0	2441	5	189	1898	3199
65	0	0	2456	6	185	1898	3201
66	0	0	2496	5	184	1898	3203
67	0	0	2524	4	181	1898	3203
68	0	0	2535	5	180	1898	3203
69	0	0	2540	5	177	1898	3201
70	0	0	2556	5	176	1898	3199
71	0	0	2586	5	176	1898	3197
72	0	0	2604	5	176	1898	3196
73	0	0	2587	5	177	1897	3197
74	0	0	2539	5	178	1897	3199
75	0	0	2466	4	179	1898	3201
76	0	0	2393	4	181	1898	3202
77	0	0	2337	4	184	1898	3203
78	0	0	2303	4	187	1897	3202
79	0	0	2279	4	187	1898	3202
80	0	0	2253	4	189	1898	3198
81	0	0	2210	4	194	1898	3195
82	0	0	2190	5	191	1898	3196
83	0	0	2197	5	190	1897	3197
84	0	0	2212	5	189	1897	3199
85	0	0	2227	6	187	1897	3201
86	0	0	2251	5	183	1898	3202
87	0	0	2275	4	181	1898	3203
88	0	0	2309	5	179	1898	3203
89	0	0	2329	5	177	1898	3201
90	0	0	2354	5	176	1898	3198
91	0	0	2375	5	174	1898	3196
92	0	0	2360	4	175	1898	3196
93	0	0	2329	4	177	1898	3198
94	0	0	2295	3	178	1897	3198
95	0	0	2291	5	179	1898	3201
96	0	0	2297	5	182	1898	3203
97	0	0	2287	4	184	1898	3203
98	0	0	2272	5	185	1898	3203
99	0	0	2243	4	187	1898	3200
100	0	0	2203	4	190	1898	3198
101	0	0	2164	4	193	1898	3196
102	0	0	2154	4	192	1898	3196
103	0	0	2166	5	191	1897	3197
104	0	0	2196	5	190	1898	3200
105	0	0	2240	5	188	1897	3200
106	0	0	2303	5	184	1897	3202
107	0	0	2357	5	181	1898	3203
108	0	0	2380	5	180	1898	3202
109	0	0	2380	5	179	1898	3202
110	0	0	2359	4	176	1898	3198
111	0	0	2342	5	175	1898	3196
112	0	0	2318	4	176	1898	3196
113	0	0	2319	5	177	1897	3197
114	0	0	2333	4	177	1898	3199
115	0	0	2332	5	178	1897	3201
116	0	0	2289	4	180	1898	3202
117	0	0	2231	4	185	1898	3203
118	0	0	2199	4	185	1898	3203
119	0	0	2193	5	188	1897	3200
120	0	0	2184	4	190	1898	3197
121	0	0	2150	4	191	1898	3195
122	0	0	2123	4	191	1898	3196
123	0	0	2094	4	191	1897	3197
124	0	0	2077	5	189	1897	3198
125	0	0	2081	5	186	1898	3200
126	0	0	2098	5	183	1898	3203
127	0	0	2120	5	182	1898	3203
0	0	0	2162	5	179	1897	3202
1	0	0	2209	5	178	1897	3201
2	0	0	2249	5	177	1898	3198
3	0	0	2254	5	175	1898	3196
4	0	0	2245	4	176	1898	3197
5	0	0	2242	4	176	1897	3197
6	0	0	2259	4	177	1897	3199
7	0	0	2228	4	179	1897	3201
8	0	0	2149	4	181	1898	3203
9	0	0	2075	4	184	1898	3203
10	0	0	2009	4	185	1897	3202
11	0	0	1984	5	188	1897	3200
12	0	0	1977	4	190	1898	3198
13	0	0	1961	4	193	1898	3196
14	0	0	1963	5	192	1898	3196
15	0	0	1961	5	191	1897	3197
16	0	0	1950	5	189	1898	3199
17	0	0	1958	5	187	1897	3200
18	0	0	1991	5	186	1898	3202
19	0	0	2014	5	183	1898	3203
20	0	0	2031	5	180	1898	3203
21	0	0	2034	5	178	1898	3201
22	0	0	2007	4	177	1897	3198
23	0	0	1993	5	173	1898	3196
24	0	0	1991	5	175	1898	3196
25	0	0	1993	5	177	1897	3197
26	0	0	2035	5	178	1897	3199
27	0	0	2067	4	178	1898	3200
28	0	0	2077	4	179	1898	3202
29	0	0	2078	5	183	1898	3203
30	0	0	2075	5	185	1898	3203
31	0	0	2063	4	187	1897	3201
32	0	0	2040	4	190	1897	3197
33	0	0	2002	4	193	1897	3195
34	0	0	1966	4	192	1898	3196
35	0	0	1934	5	191	1898	3196
36	0	0	1908	4	190	1897	3198
37	0	0	1911	6	187	1897	3200
38	0	0	1964	5	185	1898	3202
39	0	0	2029	5	183	1898	3203
40	0	0	2066	5	179	1898	3203
41	0	0	2056	5	177	1897	3201
42	0	0	2022	4	177	1897	3198
43	0	0	2028	5	175	1897	3195
44	0	0	2040	5	175	1898	3196
45	0	0	2028	4	176	1898	3197
46	0	0	2022	5	177	1897	3198
47	0	0	2014	5	178	1898	3200
48	0	0	2000	5	182	1897	3202
49	0	0	2001	5	184	1898	3203
50	0	0	1973	4	186	1898	3202
51	0	0	1908	4	189	1897	3200
52	0	0	1861	5	192	1897	3197
53	0	0	1847	5	192	1897	3195
54	0	0	1865	5	192	1898	3195
55	0	0	1910	5	192	1898	3197
56	0	0	1937	5	189	1897	3198
57	0	0	1919	4	186	1898	3201
58	0	0	1920	5	186	1898	3203
59	0	0	1970	5	181	1898	3203
60	0	0	1997	5	180	1897	3202
61	0	0	1970	5	178	1897	3201
62	0	0	1973	5	175	1898	3198
63	0	0	1988	5	175	1898	3195
64	0	0	1987	4	175	1898	3196
65	0	0	1964	4	176	1897	3197
66	0	0	1956	5	176	1897	3198
67	0	0	1940	4	178	1897	3200
68	0	0	1908	4	181	1897	3202
69	0	0	1871	4	183	1898	3203
70	0	0	1872	5	185	1898	3202
71	0	0	1886	5	188	1898	3201
72	0	0	1872	4	191	1897	3197
73	0	0	1846	4	193	1897	3195
74	0	0	1823	4	193	1898	3195
75	0	0	1839	5	193	1897	3196
76	0	0	1856	6	192	1898	3198
77	0	0	1857	5	187	1898	3201
78	0	0	1865	5	184	1898	3203
79	0	0	1880	5	183	1898	3203
80	0	0	1896	5	179	1897	3202
81	0	0	1927	5	177	1898	3202
82	0	0	1966	5	177	1898	3197
83	0	0	1976	5	176	1897	3196
84	0	0	1934	4	176	1898	3196
85	0	0	1915	5	176	1897	3197
86	0	0	1939	4	177	1898	3198
87	0	0	1963	5	179	1897	3200
88	0	0	1975	5	182	1897	3202
89	0	0	1968	4	183	1898	3203
90	0	0	1942	4	185	1898	3202
91	0	0	1909	4	188	1898	3200
92	0	0	1886	4	189	1898	3197
93	0	0	1859	5	194	1898	3196
94	0	0	1832	5	193	1898	3195
95	0	0	1816	5	192	1898	3196
96	0	0	1814	5	191	1898	3198
97	0	0	1819	6	188	1898	3201
98	0	0	1836	5	185	1898	3203
99	0	0	1865	5	181	1898	3203
100	0	0	1909	5	180	1898	3203
101	0	0	1946	5	179	1897	3201
102	0	0	1958	5	175	1898	3198
103	0	0	1954	5	175	1898	3196
104	0	0	1947	4	176	1898	3196
105	0	0	1933	4	175	1898	3197
106	0	0	1917	4	177	1898	3199
107	0	0	1907	4	179	1898	3200
108	0	0	1908	4	181	1898	3202
109	0	0	1903	5	182	1898	3203
110	0	0	1909	5	186	1897	3202
111	0	0	1910	5	187	1898	3201
112	0	0	1901	5	190	1898	3197
113	0	0	1855	4	194	1898	3195
114	0	0	1810	4	192	1898	3195
115	0	0	1802	4	192	1897	3196
116	0	0	1816	6	190	1898	3199
117	0	0	1829	5	187	1898	3200
118	0	0	1840	5	186	1897	3202
119	0	0	1872	5	183	1898	3203
120	0	0	1881	5	179	1898	3203
121	0	0	1885	5	178	1898	3202
122	0	0	1912	5	176	1898	3198
123	0	0	1946	5	176	1898	3195
124	0	0	1964	5	175	1898	3196
125	0	0	1926	4	175	1897	3197
126	0	0	1875	4	178	1897	3198
127	0	0	1857	5	179	1897	3200
0	0	0	1857	5	180	1897	3202
1	0	0	1861	4	183	1898	3202
2	0	0	1870	4	186	1898	3203
3	0	0	1870	4	187	1897	3200
4	0	0	1843	5	191	1897	3197
5	0	0	1806	4	193	1898	3195
6	0	0	1783	5	192	1898	3196
7	0	0	1776	5	192	1897	3196
8	0	0	1774	6	190	1898	3199
9	0	0	1805	5	188	1898	3200
10	0	0	1836	5	186	1898	3202
11	0	0	1857	5	182	1898	3203
12	0	0	1889	5	180	1898	3202
13	0	0	1925	5	177	1898	3201
14	0	0	1932	5	177	1898	3198
15	0	0	1908	4	175	1898	3196
16	0	0	1878	4	174	1898	3196
17	0	0	1860	4	177	1898	3197
18	0	0	1881	5	176	1898	3198
19	0	0	1898	4	179	1897	3200
20	0	0	1874	4	180	1897	3202
21	0	0	1846	4	183	1898	3203
22	0	0	1828	4	185	1897	3202
23	0	0	1807	4	186	1898	3201
24	0	0	1780	4	190	1898	3197
25	0	0	1751	4	194	1898	3195
26	0	0	1727	4	193	1898	3196
27	0	0	1728	5	193	1898	3197
28	0	0	1749	6	191	1898	3198
29	0	0	1777	6	187	1897	3200
30	0	0	1806	5	185	1898	3202
31	0	0	1843	5	183	1898	3203
32	0	0	1870	5	180	1897	3202
33	0	0	1892	5	177	1897	3201
34	0	0	1892	5	177	1898	3198
35	0	0	1895	5	174	1898	3196
36	0	0	1913	5	175	1898	3196
37	0	0	1918	4	176	1898	3197
38	0	0	1890	5	177	1897	3198
39	0	0	1855	4	179	1897	3200
40	0	0	1818	4	180	1898	3203
41	0	0	1766	4	185	1898	3203
42	0	0	1753	5	186	1898	3202
43	0	0	1766	5	187	1898	3201
44	0	0	1776	5	190	1898	3197
45	0	0	1770	4	192	1898	3195
46	0	0	1722	4	192	1898	3195
47	0	0	1654	4	193	1897	3197
48	0	0	1618	4	190	1897	3198
49	0	0	1622	5	188	1898	3200
50	0	0	1629	5	186	1898	3202
51	0	0	1656	5	181	1898	3203
52	0	0	1699	5	180	1897	3202
53	0	0	1744	5	179	1898	3201
54	0	0	1758	4	176	1898	3197
55	0	0	1742	4	176	1898	3195
56	0	0	1754	5	176	1898	3196
57	0	0	1773	4	177	1898	3197
58	0	0	1780	5	177	1898	3198
59	0	0	1762	4	178	1898	3201
60	0	0	1717	4	181	1898	3203
61	0	0	1657	4	184	1898	3203
62	0	0	1577	4	186	1898	3203
63	0	0	1510	4	187	1897	3200
64	0	0	1482	4	191	1897	3197
65	0	0	1469	4	193	1897	3195
66	0	0	1458	5	192	1898	3195
67	0	0	1458	4	193	1897	3196
68	0	0	1446	5	190	1898	3198
69	0	0	1444	4	188	1897	3200
70	0	0	1468	5	184	1897	3201
71	0	0	1506	5	181	1898	3203
72	0	0	1550	5	180	1897	3202
73	0	0	1578	5	177	1897	3200
74	0	0	1592	5	177	1898	3198
75	0	0	1578	4	175	1898	3196
76	0	0	1558	4	175	1898	3196
77	0	0	1541	4	176	1898	3197
78	0	0	1519	4	177	1897	3198
79	0	0	1515	5	178	1897	3200
80	0	0	1554	4	180	1897	3201
81	0	0	1584	5	183	1898	3203
82	0	0	1567	4	185	1897	3202
83	0	0	1492	4	188	1897	3200
84	0	0	1420	4	190	1897	3197
85	0	0	1377	4	192	1897	3195
86	0	0	1332	4	192	1898	3196
87	0	0	1276	4	191	1897	3196
88	0	0	1220	4	189	1898	3199
89	0	0	1183	4	187	1898	3200
90	0	0	1173	4	183	1898	3202
91	0	0	1191	5	180	1898	3202
92	0	0	1224	5	180	1897	3202
93	0	0	1272	5	179	1898	3200
94	0	0	1325	5	177	1898	3197
95	0	0	1343	5	177	1898	3195
96	0	0	1309	4	176	1898	3196
97	0	0	1250	4	177	1898	3196
98	0	0	1216	4	178	1897	3198
99	0	0	1187	4	180	1898	3200
100	0	0	1127	4	181	1897	3201
101	0	0	1097	4	182	1898	3202
102	0	0	1113	4	186	1898	3202
103	0	0	1163	5	188	1897	3200
104	0	0	1193	4	189	1898	3197
105	0	0	1176	4	191	1898	3195
106	0	0	1158	4	193	1898	3195
107	0	0	1170	5	192	1898	3197
108	0	0	1194	5	190	1898	3198
109	0	0	1229	5	186	1897	3200
110	0	0	1263	5	185	1897	3202
111	0	0	1296	5	181	1898	3203
112	0	0	1308	5	179	1897	3202
113	0	0	1312	4	177	1898	3201
114	0	0	1318	4	177	1897	3198
115	0	0	1314	4	175	1897	3195
116	0	0	1322	4	177	1898	3196
117	0	0	1317	4	177	1897	3196
118	0	0	1283	4	177	1897	3198
119	0	0	1233	4	180	1898	3200
120	0	0	1187	3	181	1898	3202
121	0	0	1147	4	185	1898	3203
122	0	0	1125	4	186	1898	3202
123	0	0	1115	5	187	1897	3200
124	0	0	1117	4	189	1897	3197
125	0	0	1106	4	191	1898	3195
126	0	0	1092	4	191	1898	3195
127	0	0	1062	4	191	1898	3196
0	0	0	1025	4	187	1897	3198
1	0	0	1021	4	186	1898	3200
2	0	0	1054	5	184	1898	3201
3	0	0	1108	5	181	1898	3203
4	0	0	1167	5	179	1897	3202
5	0	0	1186	4	178	1898	3201
6	0	0	1180	4	177	1898	3197
7	0	0	1165	4	176	1898	3195
8	0	0	1164	4	177	1897	3195
9	0	0	1159	4	178	1897	3196
10	0	0	1140	4	179	1898	3198
11	0	0	1088	4	180	1897	3200
12	0	0	1027	4	182	1898	3202
13	0	0	980	4	185	1898	3202
14	0	0	972	4	186	1897	3201
15	0	0	987	5	186	1898	3200
16	0	0	978	4	189	1897	3197
17	0	0	935	4	192	1898	3195
18	0	0	908	4	191	1898	3195
19	0	0	910	5	189	1897	3196
20	0	0	924	5	187	1898	3198
21	0	0	963	5	185	1898	3200
22	0	0	1043	5	183	1898	3202
23	0	0	1123	5	181	1898	3202
24	0	0	1186	5	179	1897	3202
25	0	0	1230	5	179	1898	3201
26	0	0	1243	4	178	1898	3198
27	0	0	1230	3	177	1897	3195
28	0	0	1202	4	178	1898	3195
29	0	0	1172	4	178	1898	3197
30	0	0	1151	4	179	1898	3198
31	0	0	1117	4	180	1897	3200
32	0	0	1076	4	182	1898	3201
33	0	0	1042	4	185	1898	3202
34	0	0	997	4	186	1897	3201
35	0	0	935	4	187	1897	3200
36	0	0	880	4	189	1897	3197
37	0	0	829	4	190	1897	3195
38	0	0	797	4	190	1898	3195
39	0	0	761	4	188	1898	3196
40	0	0	729	4	187	1897	3198
41	0	0	758	5	184	1897	3199
42	0	0	828	5	183	1898	3201
43	0	0	923	5	181	1898	3202
44	0	0	1033	5	180	1897	3202
45	0	0	1118	4	178	1898	3201
46	0	0	1189	5	178	1899	3197
47	0	0	1267	5	178	1898	3195
48	0	0	1309	5	179	1898	3195
49	0	0	1266	4	179	1897	3196
50	0	0	1202	4	178	1898	3198
51	0	0	1132	4	181	1897	3200
52	0	0	1057	3	183	1898	3202
53	0	0	1004	4	184	1897	3202
54	0	0	951	4	185	1897	3201
55	0	0	928	5	188	1897	3200
56	0	0	917	3	189	1898	3197
57	0	0	878	4	189	1897	3195
58	0	0	844	4	189	1898	3195
59	0	0	842	4	188	1898	3197
60	0	0	871	3	186	1897	3198
61	0	0	952	5	186	1898	3200
62	0	0	1017	5	183	1898	3202
63	0	0	1051	5	182	1898	3202
64	0	0	1058	5	179	1897	3201
65	0	0	1073	5	178	1898	3201
66	0	0	1104	5	178	1898	3197
67	0	0	1143	5	178	1898	3195
68	0	0	1149	4	178	1897	3195
69	0	0	1121	4	178	1897	3196
70	0	0	1071	4	180	1898	3198
71	0	0	1032	4	183	1898	3200
72	0	0	1008	4	184	1897	3201
73	0	0	983	4	185	1897	3202
74	0	0	952	4	186	1897	3201
75	0	0	923	5	186	1897	3200
76	0	0	869	4	188	1898	3196
77	0	0	794	4	190	1897	3195
78	0	0	766	4	188	1898	3195
79	0	0	776	4	188	1897	3196
80	0	0	777	5	187	1898	3198
81	0	0	807	5	183	1898	3199
82	0	0	855	5	182	1897	3201
83	0	0	906	5	180	1898	3202
84	0	0	962	5	181	1898	3203
85	0	0	1021	5	180	1898	3201
86	0	0	1053	4	178	1898	3198
87	0	0	1053	4	178	1897	3195
88	0	0	1047	4	179	1898	3196
89	0	0	1017	4	178	1897	3196
90	0	0	992	3	180	1898	3198
91	0	0	960	4	182	1898	3200
92	0	0	927	4	182	1897	3201
93	0	0	897	4	184	1898	3202
94	0	0	865	4	185	1898	3202
95	0	0	820	4	187	1898	3201
96	0	0	779	4	189	1898	3196
97	0	0	732	4	190	1897	3194
98	0	0	697	4	190	1898	3195
99	0	0	689	4	189	1898	3196
100	0	0	699	5	186	1897	3197
101	0	0	732	5	184	1898	3200
102	0	0	793	5	182	1898	3202
103	0	0	868	5	180	1898	3202
104	0	0	936	5	180	1898	3203
105	0	0	974	6	178	1897	3200
106	0	0	983	4	176	1897	3197
107	0	0	993	4	176	1898	3195
108	0	0	999	4	177	1898	3196
109	0	0	999	4	178	1897	3196
110	0	0	992	3	180	1898	3197
111	0	0	964	4	181	1897	3199
112	0	0	923	4	183	1898	3201
113	0	0	872	4	185	1898	3202
114	0	0	809	4	187	1897	3201
115	0	0	756	4	187	1897	3200
116	0	0	695	4	189	1898	3196
117	0	0	644	4	191	1897	3195
118	0	0	614	4	190	1897	3195
119	0	0	626	4	189	1898	3196
120	0	0	664	5	188	1897	3198
121	0	0	716	5	184	1897	3199
122	0	0	801	5	182	1897	3201
123	0	0	883	5	180	1898	3202
124	0	0	940	4	180	1897	3202
125	0	0	980	4	180	1898	3201
126	0	0	998	4	179	1898	3197
127	0	0	991	4	179	1898	3195
0	0	0	979	4	178	1897	3195
1	0	0	982	4	178	1897	3196
2	0	0	972	5	180	1898	3198
3	0	0	965	3	181	1897	3199
4	0	0	952	4	182	1898	3202
5	0	0	897	4	183	1898	3202
6	0	0	837	4	184	1897	3201
7	0	0	789	4	188	1897	3200
8	0	0	740	4	188	1897	3197
9	0	0	697	4	189	1898	3194
10	0	0	695	4	187	1898	3195
11	0	0	730	5	187	1897	3196
12	0	0	742	4	187	1897	3198
13	0	0	770	5	184	1897	3199
14	0	0	807	5	183	1897	3201
15	0	0	816	4	182	1898	3202
16	0	0	832	5	180	1897	3201
17	0	0	875	5	179	1897	3200
18	0	0	956	4	178	1897	3197
19	0	0	1052	5	179	1898	3195
20	0	0	1131	5	179	1898	3195
21	0	0	1176	4	181	1898	3197
22	0	0	1164	3	182	1897	3197
23	0	0	1099	4	181	1898	3200
24	0	0	1047	4	183	1898	3202
25	0	0	1017	4	184	1898	3202
26	0	0	991	4	187	1898	3202
27	0	0	925	4	187	1897	3200
28	0	0	848	4	188	1898	3197
29	0	0	792	4	187	1898	3195
30	0	0	797	5	188	1897	3195
31	0	0	862	5	187	1898	3196
32	0	0	945	4	186	1897	3197
33	0	0	1039	5	183	1898	3200
34	0	0	1126	5	183	1898	3202
35	0	0	1205	5	181	1898	3202
36	0	0	1262	5	181	1897	3201
37	0	0	1292	5	180	1898	3201
38	0	0	1300	4	180	1898	3198
39	0	0	1292	4	179	1898	3195
40	0	0	1307	4	179	1898	3196
41	0	0	1322	4	181	1897	3196
42	0	0	1308	4	181	1898	3198
43	0	0	1264	4	182	1898	3200
44	0	0	1203	4	184	1898	3201
45	0	0	1144	4	184	1898	3202
46	0	0	1098	4	187	1897	3201
47	0	0	1080	4	187	1898	3200
48	0	0	1062	4	188	1897	3196
49	0	0	1035	4	188	1897	3194
50	0	0	1039	4	188	1898	3195
51	0	0	1061	5	187	1897	3195
52	0	0	1081	5	185	1897	3197
53	0	0	1132	5	184	1898	3199
54	0	0	1195	5	182	1898	3202
55	0	0	1265	5	182	1897	3202
56	0	0	1321	5	181	1898	3202
57	0	0	1350	4	180	1897	3200
58	0	0	1396	4	179	1898	3196
59	0	0	1433	5	181	1898	3194
60	0	0	1431	4	180	1898	3195
61	0	0	1408	4	179	1897	3195
62	0	0	1399	4	181	1898	3198
63	0	0	1405	4	182	1897	3199
64	0	0	1430	5	183	1897	3201
65	0	0	1438	4	184	1898	3202
66	0	0	1411	4	186	1897	3201
67	0	0	1362	4	185	1897	3199
68	0	0	1334	4	188	1898	3196
69	0	0	1290	4	188	1898	3195
70	0	0	1236	4	185	1897	3195
71	0	0	1184	4	186	1898	3196
72	0	0	1173	4	186	1897	3197
73	0	0	1223	5	185	1898	3199
74	0	0	1312	5	183	1898	3201
75	0	0	1406	5	181	1898	3202
76	0	0	1481	5	180	1898	3201
77	0	0	1520	5	180	1898	3201
78	0	0	1545	5	181	1898	3197
79	0	0	1560	5	179	1898	3195
80	0	0	1578	5	179	1898	3195
81	0	0	1594	5	181	1897	3195
82	0	0	1609	4	182	1897	3197
83	0	0	1586	4	182	1898	3199
84	0	0	1513	4	185	1898	3201
85	0	0	1401	4	184	1898	3202
86	0	0	1328	4	185	1897	3201
87	0	0	1331	5	186	1897	3200
88	0	0	1365	5	188	1897	3197
89	0	0	1400	5	188	1898	3194
90	0	0	1433	5	186	1898	3195
91	0	0	1415	4	186	1897	3195
92	0	0	1377	4	185	1898	3197
93	0	0	1404	5	183	1897	3199
94	0	0	1474	5	182	1897	3201
95	0	0	1520	5	180	1898	3202
96	0	0	1558	5	182	1897	3201
97	0	0	1617	5	180	1897	3200
98	0	0	1693	5	179	1897	3197
99	0	0	1778	5	180	1898	3195
100	0	0	1848	4	179	1897	3195
101	0	0	1852	4	182	1898	3196
102	0	0	1812	4	180	1897	3197
103	0	0	1764	4	183	1898	3199
104	0	0	1744	4	184	1898	3202
105	0	0	1745	5	183	1898	3201
106	0	0	1741	4	184	1897	3201
107	0	0	1717	4	186	1898	3201
108	0	0	1703	5	187	1898	3196
109	0	0	1697	5	187	1898	3194
110	0	0	1725	5	186	1898	3195
111	0	0	1788	5	186	1898	3195
112	0	0	1853	5	184	1898	3198
113	0	0	1929	5	184	1897	3199
114	0	0	2024	5	182	1898	3200
115	0	0	2108	5	181	1898	3202
116	0	0	2161	5	181	1897	3201
117	0	0	2196	5	179	1897	3200
118	0	0	2236	5	180	1897	3197
119	0	0	2294	5	179	1898	3195
120	0	0	2323	5	180	1898	3195
121	0	0	2297	4	181	1897	3195
122	0	0	2244	4	182	1897	3197
123	0	0	2192	4	183	1898	3199
124	0	0	2114	4	183	1898	3202
125	0	0	2043	4	183	1897	3202
126	0	0	2005	4	185	1898	3202
127	0	0	1982	5	187	1897	3199
0	0	0	1938	3	186	1898	3196
1	0	0	1837	4	187	1898	3195
2	0	0	1739	4	185	1898	3194
3	0	0	1684	4	186	1897	3195
4	0	0	1665	4	186	1897	3197
5	0	0	1675	5	184	1897	3199
6	0	0	1685	4	184	1898	3201
7	0	0	1703	5	182	1897	3202
8	0	0	1726	5	181	1897	3201
9	0	0	1743	5	180	1898	3201
10	0	0	1762	5	179	1898	3198
11	0	0	1791	4	180	1898	3194
12	0	0	1808	5	180	1898	3195
13	0	0	1786	4	180	1897	3195
14	0	0	1780	4	182	1898	3198
15	0	0	1784	4	182	1897	3199
16	0	0	1796	5	183	1898	3200
17	0	0	1800	4	184	1898	3201
18	0	0	1778	4	186	1897	3201
19	0	0	1740	4	187	1897	3199
20	0	0	1703	4	186	1898	3196
21	0	0	1651	4	188	1898	3195
22	0	0	1626	4	188	1897	3194
23	0	0	1638	5	186	1897	3195
24	0	0	1660	5	186	1897	3197
25	0	0	1747	5	184	1897	3199
26	0	0	1848	5	183	1898	3201
27	0	0	1899	4	182	1898	3202
28	0	0	1899	4	180	1897	3201
29	0	0	1907	5	180	1897	3200
30	0	0	1948	4	180	1898	3197
31	0	0	1997	5	180	1898	3195
32	0	0	2033	5	179	1897	3194
33	0	0	2049	5	180	1897	3195
34	0	0	2019	4	182	1897	3197
35	0	0	1957	4	183	1897	3199
36	0	0	1914	4	184	1898	3200
37	0	0	1896	4	185	1898	3202
38	0	0	1907	5	186	1897	3201
39	0	0	1934	5	185	1897	3199
40	0	0	1966	5	187	1898	3197
41	0	0	1932	4	187	1898	3194
42	0	0	1831	4	186	1898	3195
43	0	0	1690	4	185	1897	3195
44	0	0	1630	5	185	1898	3197
45	0	0	1733	4	184	1897	3199
46	0	0	1892	5	182	1898	3201
47	0	0	2037	5	181	1897	3202
48	0	0	2136	5	181	1897	3201
49	0	0	2187	5	180	1897	3199
50	0	0	2200	3	181	1898	3197
51	0	0	2192	4	180	1898	3195
52	0	0	2173	4	178	1897	3195
53	0	0	2141	4	181	1897	3195
54	0	0	2086	4	182	1897	3197
55	0	0	2041	5	182	1898	3199
56	0	0	1999	4	185	1898	3201
57	0	0	1953	4	184	1898	3202
58	0	0	1929	4	186	1897	3201
59	0	0	1915	4	185	1898	3200
60	0	0	1892	4	185	1898	3196
61	0	0	1840	4	187	1898	3194
62	0	0	1816	4	187	1898	3195
63	0	0	1812	4	185	1897	3195
64	0	0	1824	5	185	1898	3198
65	0	0	1894	5	184	1898	3199
66	0	0	1971	5	183	1898	3201
67	0	0	2044	5	182	1898	3202
68	0	0	2098	5	181	1897	3201
69	0	0	2126	5	179	1897	3200
70	0	0	2132	4	181	1898	3197
71	0	0	2108	4	180	1898	3194
72	0	0	2061	4	180	1897	3194
73	0	0	1986	4	182	1897	3195
74	0	0	1933	4	183	1897	3197
75	0	0	1923	4	183	1897	3199
76	0	0	1936	5	184	1897	3201
77	0	0	1948	5	185	1897	3202
78	0	0	1928	4	185	1897	3201
79	0	0	1893	4	186	1897	3200
80	0	0	1852	5	186	1898	3197
81	0	0	1775	4	186	1897	3195
82	0	0	1730	4	186	1898	3194
83	0	0	1724	6	184	1897	3195
84	0	0	1742	5	185	1897	3197
85	0	0	1799	5	184	1898	3199
86	0	0	1883	5	182	1897	3201
87	0	0	1946	5	182	1898	3202
88	0	0	2001	5	180	1897	3201
89	0	0	2038	5	180	1897	3200
90	0	0	2051	6	181	1898	3197
91	0	0	2035	4	180	1898	3194
92	0	0	2013	4	181	1898	3195
93	0	0	1978	4	181	1897	3195
94	0	0	1912	4	180	1898	3198
95	0	0	1856	4	184	1898	3200
96	0	0	1823	4	185	1898	3200
97	0	0	1812	4	185	1898	3202
98	0	0	1792	4	187	1897	3201
99	0	0	1765	4	187	1898	3200
100	0	0	1742	4	187	1897	3197
101	0	0	1684	4	188	1898	3195
102	0	0	1612	4	188	1898	3195
103	0	0	1578	4	187	1897	3195
104	0	0	1581	5	184	1897	3197
105	0	0	1627	5	185	1898	3200
106	0	0	1690	5	184	1898	3200
107	0	0	1746	5	180	1898	3202
108	0	0	1839	5	181	1897	3201
109	0	0	1913	5	180	1897	3200
110	0	0	1919	3	179	1898	3197
111	0	0	1898	4	179	1898	3195
112	0	0	1854	4	179	1898	3195
113	0	0	1808	4	180	1897	3195
114	0	0	1790	4	180	1898	3198
115	0	0	1784	4	182	1898	3199
116	0	0	1755	4	184	1897	3200
117	0	0	1681	4	184	1898	3202
118	0	0	1608	4	186	1898	3202
119	0	0	1531	4	187	1897	3199
120	0	0	1467	5	187	1897	3196
121	0	0	1400	4	189	1898	3195
122	0	0	1370	4	188	1898	3194
123	0	0	1373	4	188	1898	3195
124	0	0	1400	5	185	1898	3197
125	0	0	1447	5	185	1898	3199
126	0	0	1498	5	182	1898	3201
127	0	0	1525	5	182	1898	3202
0	0	0	1539	5	180	1897	3201
1	0	0	1558	4	181	1897	3200
2	0	0	1534	3	179	1898	3197
3	0	0	1514	4	179	1898	3195
4	0	0	1508	4	180	1898	3194
5	0	0	1511	4	181	1897	3195
6	0	0	1485	4	182	1897	3198
7	0	0	1431	4	182	1898	3199
8	0	0	1330	3	183	1898	3200
9	0	0	1194	4	184	1898	3201
10	0	0	1067	4	185	1897	3201
11	0	0	1004	4	186	1898	3199
12	0	0	1006	4	188	1898	3196
13	0	0	985	4	189	1898	3195
14	0	0	953	4	188	1898	3194
15	0	0	938	4	186	1897	3195
16	0	0	928	4	185	1897	3198
17	0	0	952	5	184	1898	3199
18	0	0	987	4	183	1898	3201
19	0	0	966	4	182	1898	3202
20	0	0	957	4	180	1897	3201
21	0	0	974	4	181	1898	3201
22	0	0	992	4	180	1898	3196
23	0	0	1039	4	179	1897	3195
24	0	0	1085	4	180	1898	3195
25	0	0	1072	4	181	1897	3195
26	0	0	1043	4	180	1897	3197
27	0	0	1012	4	183	1897	3199
28	0	0	984	4	183	1898	3200
29	0	0	941	4	184	1898	3202
30	0	0	920	4	185	1897	3201
31	0	0	913	4	186	1897	3199
32	0	0	909	4	187	1898	3196
33	0	0	909	4	189	1898	3194
34	0	0	909	4	188	1897	3194
35	0	0	911	4	188	1897	3195
36	0	0	914	4	185	1897	3197
37	0	0	916	5	184	1898	3199
38	0	0	918	4	182	1898	3201
39	0	0	991	4	181	1898	3202
40	0	0	1034	4	180	1898	3202
41	0	0	1026	4	180	1897	3200
42	0	0	1002	4	178	1898	3197
43	0	0	997	4	178	1898	3195
44	0	0	974	4	180	1898	3194
45	0	0	956	4	181	1897	3195
46	0	0	950	4	181	1897	3198
47	0	0	949	4	183	1898	3199
48	0	0	949	4	184	1898	3200
49	0	0	951	4	185	1898	3201
50	0	0	953	4	186	1897	3201
51	0	0	957	4	186	1897	3199
52	0	0	959	4	188	1898	3196
53	0	0	961	4	189	1898	3194
54	0	0	965	4	187	1898	3195
55	0	0	967	4	187	1897	3195
56	0	0	970	4	185	1898	3197
57	0	0	973	5	184	1898	3199
58	0	0	976	4	182	1898	3200
59	0	0	979	4	182	1897	3201
60	0	0	982	4	181	1898	3202
61	0	0	985	3	181	1897	3199
62	0	0	988	4	179	1897	3196
63	0	0	990	4	179	1898	3194
64	0	0	993	4	179	1898	3195
65	0	0	996	4	181	1897	3195
66	0	0	999	4	182	1898	3198
67	0	0	1002	4	181	1898	3199
68	0	0	1004	3	183	1898	3200
69	0	0	1008	4	185	1898	3202
70	0	0	1010	4	186	1897	3201
71	0	0	1013	4	187	1898	3200
72	0	0	1016	4	188	1898	3196
73	0	0	1018	4	186	1898	3194
74	0	0	1020	5	187	1898	3194
75	0	0	1025	4	187	1898	3196
76	0	0	1028	4	185	1898	3197
77	0	0	1031	4	183	1897	3199
78	0	0	1033	4	182	1898	3200
79	0	0	1036	4	182	1898	3201
80	0	0	1039	4	181	1897	3201
81	0	0	1041	4	180	1897	3199
82	0	0	1045	4	179	1898	3196
83	0	0	1046	4	179	1898	3194
84	0	0	1049	4	180	1898	3194
85	0	0	1052	4	180	1897	3195
86	0	0	1055	4	180	1897	3197
87	0	0	1058	4	182	1898	3199
88	0	0	1060	4	183	1898	3200
89	0	0	1064	4	184	1898	3202
90	0	0	1066	4	186	1897	3200
91	0	0	1068	4	185	1898	3200
92	0	0	1071	4	186	1898	3197
93	0	0	1073	4	187	1898	3194
94	0	0	1076	4	187	1898	3194
95	0	0	1079	4	186	1898	3196
96	0	0	1082	5	186	1898	3197
97	0	0	1084	4	183	1897	3199
98	0	0	1086	4	182	1898	3201
99	0	0	1089	4	181	1898	3202
100	0	0	1092	4	181	1897	3201
101	0	0	1094	4	180	1897	3200
102	0	0	1097	5	180	1897	3196
103	0	0	1099	4	180	1898	3194
104	0	0	1102	4	180	1897	3195
105	0	0	1104	4	181	1897	3195
106	0	0	1107	4	181	1897	3197
107	0	0	1110	4	183	1898	3199
108	0	0	1113	4	183	1898	3201
109	0	0	1115	4	183	1898	3201
110	0	0	1117	4	185	1898	3201
111	0	0	1120	5	187	1897	3199
112	0	0	1122	4	187	1897	3196
113	0	0	1125	4	188	1898	3194
114	0	0	1127	4	186	1897	3194
115	0	0	1130	4	186	1898	3196
116	0	0	1132	5	186	1897	3197
117	0	0	1135	4	182	1897	3199
118	0	0	1137	4	183	1898	3201
119	0	0	1140	4	181	1897	3202
120	0	0	1141	4	180	1897	3201
121	0	0	1144	4	180	1898	3201
122	0	0	1147	5	180	1898	3197
123	0	0	1150	4	179	1898	3195
124	0	0	1151	4	181	1897	3194
125	0	0	1154	5	179	1897	3195
126	0	0	1156	4	181	1897	3197
127	0	0	1159	4	183	1898	3199
0	0	0	1161	4	184	1898	3200
1	0	0	1164	4	185	1897	3201
2	0	0	1166	4	185	1897	3200
3	0	0	1169	4	187	1897	3199
4	0	0	1171	4	186	1897	3196
5	0	0	1173	3	187	1898	3194
6	0	0	1175	4	187	1898	3194
7	0	0	1178	4	186	1897	3195
8	0	0	1180	4	186	1898	3198
9	0	0	1183	4	184	1898	3200
10	0	0	1185	5	182	1898	3200
11	0	0	1186	4	181	1898	3201
12	0	0	1190	4	180	1898	3202
13	0	0	1192	4	180	1898	3200
14	0	0	1194	5	180	1897	3196
15	0	0	1196	4	179	1898	3194
16	0	0	1199	4	180	1897	3194
17	0	0	1201	4	180	1897	3195
18	0	0	1203	4	182	1898	3197
19	0	0	1206	3	182	1897	3198
20	0	0	1207	4	183	1898	3200
21	0	0	1210	4	184	1898	3202
22	0	0	1213	4	185	1897	3200
23	0	0	1215	4	187	1898	3200
24	0	0	1218	4	188	1898	3197
25	0	0	1219	5	188	1897	3194
26	0	0	1221	5	188	1897	3194
27	0	0	1224	4	187	1897	3195
28	0	0	1226	4	186	1897	3197
29	0	0	1228	4	185	1898	3199
30	0	0	1230	4	183	1898	3200
31	0	0	1265	4	182	1898	3201
32	0	0	1381	5	179	1897	3201
33	0	0	1458	5	180	1897	3199
34	0	0	1517	5	177	1898	3196
35	0	0	1570	4	178	1897	3194
36	0	0	1611	5	178	1898	3195
37	0	0	1616	4	179	1897	3195
38	0	0	1608	4	181	1898	3198
39	0	0	1590	4	182	1898	3199
40	0	0	1580	4	183	1898	3201
41	0	0	1565	4	183	1897	3201
42	0	0	1537	4	186	1897	3201
43	0	0	1487	4	186	1897	3199
44	0	0	1426	5	189	1897	3196
45	0	0	1381	4	190	1898	3194
46	0	0	1391	5	189	1897	3194
47	0	0	1459	5	189	1898	3196
48	0	0	1551	5	189	1898	3196
49	0	0	1643	5	185	1897	3199
50	0	0	1730	5	183	1898	3201
51	0	0	1819	5	182	1897	3201
52	0	0	1931	5	181	1897	3201
53	0	0	2042	5	179	1898	3200
54	0	0	2102	5	178	1898	3196
55	0	0	2121	5	178	1897	3194
56	0	0	2147	5	178	1897	3194
57	0	0	2173	5	179	1897	3195
58	0	0	2186	5	181	1897	3197
59	0	0	2178	4	181	1898	3199
60	0	0	2181	5	182	1898	3200
61	0	0	2169	4	184	1897	3201
62	0	0	2139	4	186	1897	3200
63	0	0	2094	3	186	1897	3199
64	0	0	2046	3	188	1898	3196
65	0	0	2015	4	189	1898	3193
66	0	0	2039	5	189	1897	3194
67	0	0	2112	6	188	1898	3196
68	0	0	2178	5	186	1898	3196
69	0	0	2206	5	184	1897	3198
70	0	0	2230	5	182	1897	3200
71	0	0	2278	5	182	1897	3201
72	0	0	2347	5	181	1897	3201
73	0	0	2430	5	180	1898	3199
74	0	0	2503	5	179	1897	3196
75	0	0	2571	5	179	1898	3194
76	0	0	2631	5	179	1898	3195
77	0	0	2652	5	179	1898	3196
78	0	0	2650	5	180	1897	3197
79	0	0	2666	5	182	1898	3199
80	0	0	2675	5	182	1898	3201
81	0	0	2664	5	184	1897	3201
82	0	0	2651	4	185	1898	3202
83	0	0	2634	5	186	1897	3199
84	0	0	2601	4	188	1897	3196
85	0	0	2524	4	189	1898	3195
86	0	0	2457	4	189	1897	3194
87	0	0	2476	5	188	1898	3196
88	0	0	2542	5	188	1897	3197
89	0	0	2644	5	186	1897	3199
90	0	0	2743	5	184	1898	3201
91	0	0	2801	5	181	1897	3201
92	0	0	2847	5	181	1898	3201
93	0	0	2906	5	181	1898	3199
94	0	0	2951	5	179	1898	3196
95	0	0	3000	5	179	1898	3194
96	0	0	3049	5	180	1897	3194
97	0	0	3061	5	179	1897	3195
98	0	0	3056	5	181	1898	3198
99	0	0	3036	4	181	1898	3199
100	0	0	3021	5	183	1898	3200
101	0	0	3022	5	185	1898	3202
102	0	0	2986	4	185	1897	3200
103	0	0	2933	4	185	1897	3200
104	0	0	2895	4	187	1898	3197
105	0	0	2854	4	187	1898	3193
106	0	0	2829	5	187	1897	3194
107	0	0	2843	5	186	1898	3196
108	0	0	2877	5	185	1898	3196
109	0	0	2927	5	185	1898	3199
110	0	0	2984	5	183	1898	3201
111	0	0	3049	5	182	1897	3201
112	0	0	3108	6	180	1898	3202
113	0	0	3145	5	179	1898	3199
114	0	0	3167	5	179	1897	3196
115	0	0	3194	5	179	1898	3195
116	0	0	3214	5	180	1897	3194
117	0	0	3216	5	180	1897	3195
118	0	0	3204	5	180	1898	3196
119	0	0	3189	5	181	1898	3198
120	0	0	3168	4	183	1898	3200
121	0	0	3127	4	185	1897	3201
122	0	0	3093	4	185	1897	3201
123	0	0	3081	5	187	1898	3200
124	0	0	3077	5	188	1898	3197
125	0	0	3060	5	189	1898	3194
126	0	0	3031	5	188	1898	3195
127	0	0	3015	5	188	1898	3195
0	0	0	3018	5	187	1897	3196
1	0	0	3048	5	186	1898	3198
2	0	0	3089	5	184	1898	3200
3	0	0	3133	5	183	1898	3201
4	0	0	3192	5	180	1897	3200
5	0	0	3251	5	180	1897	3199
6	0	0	3295	5	179	1898	3196
7	0	0	3327	5	179	1898	3194
8	0	0	3331	5	178	1897	3194
9	0	0	3297	5	181	1898	3196
10	0	0	3264	4	180	1898	3196
11	0	0	3242	5	180	1898	3198
12	0	0	3231	5	184	1898	3200
13	0	0	3210	4	184	1898	3202
14	0	0	3164	4	185	1897	3200
15	0	0	3127	4	186	1897	3200
16	0	0	3088	4	186	1897	3196
17	0	0	3037	4	189	1898	3193
18	0	0	3014	5	187	1897	3194
19	0	0	3020	5	187	1897	3195
20	0	0	3032	5	186	1897	3196
21	0	0	3052	6	183	1897	3199
22	0	0	3099	5	184	1898	3201
23	0	0	3143	5	183	1897	3201
24	0	0	3187	4	180	1898	3202
25	0	0	3272	5	179	1898	3199
26	0	0	3357	5	179	1898	3196
27	0	0	3391	5	179	1898	3194
28	0	0	3399	5	179	1897	3194
29	0	0	3416	5	180	1898	3195
30	0	0	3417	4	181	1898	3198
31	0	0	3385	5	181	1898	3198
32	0	0	3331	4	184	1898	3200
33	0	0	3278	4	184	1897	3201
34	0	0	3227	4	184	1897	3200
35	0	0	3174	5	185	1897	3199
36	0	0	3104	4	186	1898	3196
37	0	0	3023	4	188	1898	3194
38	0	0	2968	4	187	1897	3194
39	0	0	2964	4	188	1898	3196
40	0	0	2999	5	185	1897	3196
41	0	0	3062	6	185	1898	3198
42	0	0	3133	5	184	1898	3201
43	0	0	3189	5	181	1897	3201
44	0	0	3227	5	181	1897	3200
45	0	0	3258	5	178	1897	3200
46	0	0	3281	5	180	1898	3197
47	0	0	3289	5	179	1898	3194
48	0	0	3292	5	179	1898	3194
49	0	0	3268	5	181	1897	3194
50	0	0	3250	5	181	1897	3196
51	0	0	3239	5	181	1897	3199
52	0	0	3222	5	183	1898	3200
53	0	0	3195	5	185	1897	3201
54	0	0	3154	3	185	1898	3201
55	0	0	3104	4	186	1897	3199
56	0	0	3052	4	186	1898	3196
57	0	0	2995	4	187	1898	3194
58	0	0	2972	5	187	1897	3194
59	0	0	2982	4	186	1898	3195
60	0	0	2996	5	187	1897	3196
61	0	0	3012	5	183	1898	3199
62	0	0	3044	5	183	1898	3201
63	0	0	3089	5	182	1897	3201
64	0	0	3135	5	182	1898	3202
65	0	0	3171	5	180	1897	3199
66	0	0	3184	5	180	1898	3196
67	0	0	3199	5	179	1898	3195
68	0	0	3232	5	179	1897	3194
69	0	0	3247	4	179	1898	3195
70	0	0	3221	4	180	1897	3196
71	0	0	3162	4	181	1897	3198
72	0	0	3100	4	184	1898	3200
73	0	0	3086	5	183	1898	3201
74	0	0	3082	5	185	1897	3200
75	0	0	3047	4	185	1898	3200
76	0	0	3001	4	187	1898	3197
77	0	0	2922	4	188	1898	3194
78	0	0	2817	4	188	1898	3194
79	0	0	2779	5	187	1897	3195
80	0	0	2805	5	187	1898	3197
81	0	0	2848	5	183	1898	3199
82	0	0	2914	5	182	1898	3200
83	0	0	2983	5	181	1898	3202
84	0	0	3012	5	180	1897	3200
85	0	0	3025	5	180	1898	3200
86	0	0	3045	5	180	1898	3196
87	0	0	3037	5	179	1898	3194
88	0	0	3053	5	179	1898	3195
89	0	0	3088	4	179	1897	3195
90	0	0	3105	5	181	1897	3196
91	0	0	3118	5	181	1897	3198
92	0	0	3123	5	183	1898	3200
93	0	0	3086	4	185	1897	3201
94	0	0	3013	4	185	1897	3200
95	0	0	2963	5	188	1897	3199
96	0	0	2940	6	188	1897	3196
97	0	0	2907	4	189	1898	3193
98	0	0	2895	5	190	1897	3194
99	0	0	2903	5	189	1897	3194
100	0	0	2923	6	188	1897	3196
101	0	0	2946	6	187	1897	3198
102	0	0	2955	6	185	1898	3200
103	0	0	2961	5	181	1897	3201
104	0	0	2982	5	181	1897	3201
105	0	0	3001	5	180	1897	3199
106	0	0	3005	6	178	1898	3196
107	0	0	3009	5	176	1898	3194
108	0	0	3025	5	175	1898	3194
109	0	0	3028	5	177	1897	3195
110	0	0	3029	5	178	1898	3197
111	0	0	3029	5	179	1898	3199
112	0	0	2997	4	181	1898	3200
113	0	0	2972	5	183	1898	3201
114	0	0	2970	5	186	1897	3200
115	0	0	2959	4	186	1898	3200
116	0	0	2922	4	188	1898	3196
117	0	0	2878	4	192	1898	3193
118	0	0	2865	5	191	1897	3194
119	0	0	2853	5	191	1897	3194
120	0	0	2839	6	189	1897	3196
121	0	0	2820	5	186	1898	3198
122	0	0	2800	4	184	1898	3200
123	0	0	2802	5	182	1897	3201
124	0	0	2855	5	181	1897	3200
125	0	0	2922	5	178	1897	3199
126	0	0	2967	6	176	1897	3196
127	0	0	2995	5	177	1898	3194
0	0	0	3000	5	176	1897	3194
1	0	0	2981	4	177	1898	3196
2	0	0	2973	4	176	1898	3196
3	0	0	2990	5	179	1898	3199
4	0	0	2993	4	181	1898	3201
5	0	0	2975	4	182	1897	3201
6	0	0	2936	3	186	1898	3201
7	0	0	2886	4	186	1898	3199
8	0	0	2836	4	189	1898	3196
9	0	0	2798	4	192	1898	3194
10	0	0	2758	4	193	1897	3193
11	0	0	2721	4	192	1898	3195
12	0	0	2721	5	190	1898	3196
13	0	0	2784	5	187	1898	3198
14	0	0	2863	6	185	1898	3201
15	0	0	2920	5	184	1897	3201
16	0	0	2961	4	181	1898	3201
17	0	0	2966	5	178	1897	3199
18	0	0	2946	5	178	1898	3197
19	0	0	2944	4	175	1898	3195
20	0	0	2958	5	176	1897	3194
21	0	0	2978	4	176	1898	3196
22	0	0	2995	5	180	1897	3196
23	0	0	2988	5	177	1898	3199
24	0	0	2956	4	179	1898	3201
25	0	0	2922	4	182	1897	3201
26	0	0	2892	3	185	1898	3201
27	0	0	2852	4	189	1898	3199
28	0	0	2807	4	187	1898	3196
29	0	0	2771	4	190	1898	3194
30	0	0	2742	5	193	1898	3193
31	0	0	2736	4	191	1898	3195
32	0	0	2727	5	190	1898	3196
33	0	0	2702	4	188	1898	3198
34	0	0	2695	5	185	1898	3201
35	0	0	2734	5	183	1897	3201
36	0	0	2809	5	180	1897	3201
37	0	0	2876	5	179	1898	3199
38	0	0	2912	5	177	1898	3197
39	0	0	2900	5	176	1898	3194
40	0	0	2864	4	175	1898	3194
41	0	0	2847	5	177	1897	3195
42	0	0	2851	4	178	1897	3197
43	0	0	2852	5	179	1898	3198
44	0	0	2836	5	180	1897	3199
45	0	0	2818	5	183	1897	3201
46	0	0	2827	5	184	1897	3200
47	0	0	2832	5	186	1897	3199
48	0	0	2797	5	188	1898	3196
49	0	0	2749	4	191	1898	3194
50	0	0	2704	5	192	1897	3193
51	0	0	2691	5	192	1897	3194
52	0	0	2696	5	189	1898	3197
53	0	0	2712	5	188	1898	3199
54	0	0	2741	6	184	1898	3200
55	0	0	2766	5	183	1898	3201
56	0	0	2771	5	181	1898	3200
57	0	0	2794	5	180	1898	3200
58	0	0	2833	5	178	1898	3197
59	0	0	2838	5	177	1898	3194
60	0	0	2815	4	177	1898	3194
61	0	0	2809	5	176	1897	3195
62	0	0	2839	5	177	1897	3197
63	0	0	2855	5	178	1898	3199
64	0	0	2833	4	181	1897	3200
65	0	0	2814	5	182	1898	3201
66	0	0	2803	5	184	1897	3200
67	0	0	2779	4	186	1897	3199
68	0	0	2751	4	188	1897	3196
69	0	0	2728	4	190	1898	3194
70	0	0	2716	5	193	1897	3193
71	0	0	2715	5	189	1897	3194
72	0	0	2703	5	189	1898	3196
73	0	0	2698	5	188	1898	3199
74	0	0	2698	5	186	1898	3200
75	0	0	2694	5	184	1897	3201
76	0	0	2704	5	181	1897	3200
77	0	0	2734	5	180	1898	3199
78	0	0	2766	5	179	1898	3197
79	0	0	2790	5	176	1898	3193
80	0	0	2810	5	176	1897	3194
81	0	0	2828	4	177	1897	3194
82	0	0	2829	5	178	1898	3197
83	0	0	2785	4	179	1898	3199
84	0	0	2730	4	181	1898	3200
85	0	0	2685	4	182	1898	3201
86	0	0	2667	5	185	1897	3200
87	0	0	2673	4	186	1898	3199
88	0	0	2683	5	189	1898	3196
89	0	0	2670	4	191	1898	3193
90	0	0	2627	4	190	1897	3193
91	0	0	2609	5	191	1898	3194
92	0	0	2608	5	189	1898	3196
93	0	0	2633	5	187	1898	3199
94	0	0	2676	5	185	1898	3200
95	0	0	2721	5	183	1897	3200
96	0	0	2754	6	180	1897	3200
97	0	0	2771	5	179	1897	3199
98	0	0	2775	5	176	1898	3196
99	0	0	2772	4	176	1898	3194
100	0	0	2779	5	175	1897	3193
101	0	0	2787	4	176	1898	3195
102	0	0	2787	5	177	1897	3196
103	0	0	2759	4	180	1898	3198
104	0	0	2728	4	180	1897	3200
105	0	0	2706	5	182	1898	3201
106	0	0	2694	5	185	1897	3200
107	0	0	2686	5	186	1897	3199
108	0	0	2674	5	188	1898	3195
109	0	0	2648	4	190	1897	3193
110	0	0	2633	4	190	1897	3193
111	0	0	2605	4	190	1898	3195
112	0	0	2568	5	190	1898	3196
113	0	0	2569	6	187	1898	3198
114	0	0	2582	5	185	1898	3200
115	0	0	2608	5	183	1897	3201
116	0	0	2650	5	182	1897	3200
117	0	0	2705	5	179	1897	3199
118	0	0	2729	5	178	1898	3196
119	0	0	2745	5	177	1898	3194
120	0	0	2762	5	176	1898	3194
121	0	0	2763	5	176	1897	3194
122	0	0	2740	4	177	1897	3196
123	0	0	2716	4	179	1898	3198
124	0	0	2710	4	181	1898	3200
125	0	0	2708	4	182	1897	3200
126	0	0	2693	4	185	1898	3201
127	0	0	2691	5	189	1898	3199
0	0	0	2685	5	189	1897	3195
1	0	0	2648	4	190	1898	3193
2	0	0	2596	4	191	1897	3193
3	0	0	2536	4	189	1897	3194
4	0	0	2502	5	188	1898	3196
5	0	0	2512	5	186	1898	3199
6	0	0	2547	5	183	1898	3200
7	0	0	2606	5	182	1897	3201
8	0	0	2670	5	180	1898	3201
9	0	0	2722	5	181	1897	3199
10	0	0	2752	5	178	1898	3196
11	0	0	2768	5	177	1898	3194
12	0	0	2771	5	177	1897	3193
13	0	0	2790	5	178	1898	3195
14	0	0	2810	5	179	1897	3196
15	0	0	2796	4	181	1898	3198
16	0	0	2754	4	181	1898	3200
17	0	0	2707	4	184	1897	3200
18	0	0	2664	4	185	1897	3200
19	0	0	2627	4	186	1898	3200
20	0	0	2601	4	188	1898	3196
21	0	0	2565	4	191	1898	3193
22	0	0	2536	4	190	1898	3194
23	0	0	2519	5	189	1897	3194
24	0	0	2511	5	189	1897	3196
25	0	0	2512	5	187	1898	3198
26	0	0	2518	4	183	1898	3200
27	0	0	2537	5	182	1897	3201
28	0	0	2548	6	181	1897	3200
29	0	0	2560	5	180	1897	3200
30	0	0	2580	5	178	1897	3196
31	0	0	2603	5	177	1898	3193
32	0	0	2609	5	178	1897	3193
33	0	0	2600	5	177	1897	3194
34	0	0	2603	5	179	1897	3196
35	0	0	2634	5	180	1897	3198
36	0	0	2655	5	182	1898	3200
37	0	0	2664	5	184	1897	3200
38	0	0	2637	4	185	1897	3200
39	0	0	2577	4	187	1898	3199
40	0	0	2508	4	187	1898	3196
41	0	0	2457	4	189	1898	3193
42	0	0	2432	4	190	1897	3193
43	0	0	2429	6	189	1897	3194
44	0	0	2440	5	188	1898	3196
45	0	0	2447	5	186	1897	3198
46	0	0	2451	5	184	1897	3200
47	0	0	2481	5	182	1897	3200
48	0	0	2527	5	181	1897	3200
49	0	0	2558	5	180	1897	3199
50	0	0	2572	5	178	1897	3196
51	0	0	2584	4	176	1898	3193
52	0	0	2608	5	176	1898	3194
53	0	0	2636	4	176	1897	3194
54	0	0	2629	4	178	1897	3197
55	0	0	2592	4	179	1898	3199
56	0	0	2540	4	181	1898	3200
57	0	0	2502	3	183	1898	3201
58	0	0	2456	4	186	1897	3200
59	0	0	2410	4	186	1898	3199
60	0	0	2394	5	188	1898	3197
61	0	0	2383	5	190	1897	3193
62	0	0	2372	5	190	1897	3193
63	0	0	2371	5	191	1898	3195
64	0	0	2388	5	188	1898	3197
65	0	0	2397	5	186	1897	3198
66	0	0	2410	5	185	1898	3200
67	0	0	2444	5	182	1898	3201
68	0	0	2495	5	182	1898	3200
69	0	0	2536	5	178	1897	3199
70	0	0	2555	5	178	1898	3197
71	0	0	2555	4	177	1898	3193
72	0	0	2535	4	176	1897	3194
73	0	0	2514	5	179	1898	3195
74	0	0	2517	4	179	1897	3196
75	0	0	2535	5	178	1898	3198
76	0	0	2544	5	181	1898	3200
77	0	0	2526	4	183	1897	3201
78	0	0	2499	4	185	1898	3201
79	0	0	2472	4	187	1897	3199
80	0	0	2430	4	188	1898	3196
81	0	0	2394	4	190	1898	3194
82	0	0	2388	5	190	1897	3193
83	0	0	2400	5	189	1898	3195
84	0	0	2405	5	189	1897	3196
85	0	0	2404	5	187	1898	3198
86	0	0	2405	6	185	1898	3200
87	0	0	2418	5	182	1897	3201
88	0	0	2439	5	180	1897	3200
89	0	0	2476	5	180	1898	3200
90	0	0	2505	5	177	1898	3196
91	0	0	2516	5	177	1898	3194
92	0	0	2526	5	177	1897	3193
93	0	0	2531	4	179	1898	3194
94	0	0	2539	5	178	1897	3196
95	0	0	2541	4	182	1898	3198
96	0	0	2530	5	181	1898	3200
97	0	0	2496	4	184	1897	3201
98	0	0	2452	4	186	1898	3201
99	0	0	2408	4	186	1898	3199
100	0	0	2375	4	187	1898	3196
101	0	0	2363	5	189	1898	3194
102	0	0	2353	5	190	1897	3192
103	0	0	2341	5	189	1897	3194
104	0	0	2312	4	188	1897	3196
105	0	0	2268	4	186	1898	3199
106	0	0	2213	3	183	1898	3200
107	0	0	2206	5	182	1898	3201
108	0	0	2260	6	181	1897	3200
109	0	0	2353	5	180	1897	3199
110	0	0	2426	5	178	1898	3197
111	0	0	2474	3	178	1898	3194
112	0	0	2501	5	177	1897	3193
113	0	0	2511	6	177	1897	3194
114	0	0	2499	4	179	1898	3196
115	0	0	2447	4	180	1898	3198
116	0	0	2386	4	182	1898	3200
117	0	0	2355	4	184	1897	3200
118	0	0	2351	4	186	1897	3200
119	0	0	2339	5	187	1897	3199
120	0	0	2315	4	188	1897	3196
121	0	0	2283	4	191	1898	3193
122	0	0	2259	5	191	1897	3193
123	0	0	2261	5	190	1898	3194
124	0	0	2271	5	188	1898	3197
125	0	0	2292	5	187	1898	3199
126	0	0	2340	4	184	1898	3200
127	0	0	2432	5	182	1897	3200
0	0	0	2516	5	181	1898	3201
1	0	0	2569	5	179	1897	3199
2	0	0	2614	5	179	1897	3196
3	0	0	2646	4	176	1898	3194
4	0	0	2683	5	177	1897	3193
5	0	0	2719	5	179	1897	3194
6	0	0	2727	5	178	1897	3196
7	0	0	2691	4	180	1897	3198
8	0	0	2667	3	181	1898	3200
9	0	0	2662	5	184	1898	3201
10	0	0	2660	5	184	1897	3200
11	0	0	2636	5	187	1897	3199
12	0	0	2602	4	187	1897	3196
13	0	0	2586	4	189	1898	3193
14	0	0	2592	5	190	1898	3194
15	0	0	2594	6	188	1898	3194
16	0	0	2594	5	188	1898	3196
17	0	0	2615	5	186	1898	3199
18	0	0	2628	4	185	1898	3200
19	0	0	2625	5	182	1898	3201
20	0	0	2593	4	180	1897	3200
21	0	0	2573	5	179	1897	3199
22	0	0	2569	5	178	1898	3196
23	0	0	2552	4	178	1898	3194
24	0	0	2523	4	177	1897	3193
25	0	0	2489	4	179	1897	3194
26	0	0	2447	4	180	1897	3196
27	0	0	2401	4	181	1897	3198
28	0	0	2329	4	181	1898	3200
29	0	0	2247	4	184	1897	3200
30	0	0	2161	4	185	1897	3200
31	0	0	2097	4	187	1897	3199
32	0	0	2048	4	190	1898	3196
33	0	0	1989	4	189	1898	3194
34	0	0	1935	4	189	1897	3193
35	0	0	1914	5	188	1898	3195
36	0	0	1923	5	187	1898	3196
37	0	0	1946	5	188	1898	3198
38	0	0	1995	5	184	1898	3200
39	0	0	2044	5	182	1897	3200
40	0	0	2091	5	180	1898	3201
41	0	0	2147	5	178	1898	3199
42	0	0	2190	5	178	1898	3196
43	0	0	2209	5	176	1898	3194
44	0	0	2224	4	179	1897	3193
45	0	0	2236	5	177	1897	3194
46	0	0	2234	5	180	1897	3196
47	0	0	2221	5	181	1897	3198
48	0	0	2229	4	182	1898	3200
49	0	0	2233	4	183	1898	3201
50	0	0	2212	5	186	1897	3200
51	0	0	2187	5	187	1897	3199
52	0	0	2164	4	189	1898	3196
53	0	0	2126	4	189	1898	3194
54	0	0	2071	4	189	1897	3193
55	0	0	2040	4	189	1897	3194
56	0	0	2048	6	189	1897	3196
57	0	0	2074	5	185	1897	3198
58	0	0	2134	5	184	1898	3200
59	0	0	2198	5	182	1897	3200
60	0	0	2247	5	180	1897	3200
61	0	0	2289	5	179	1897	3199
62	0	0	2329	5	179	1897	3196
63	0	0	2342	5	177	1898	3194
64	0	0	2339	5	177	1897	3193
65	0	0	2348	4	179	1897	3194
66	0	0	2354	4	179	1897	3196
67	0	0	2358	5	180	1898	3198
68	0	0	2339	4	181	1898	3199
69	0	0	2296	4	184	1897	3200
70	0	0	2260	4	185	1897	3200
71	0	0	2252	5	185	1897	3199
72	0	0	2254	4	187	1898	3196
73	0	0	2235	4	189	1898	3193
74	0	0	2184	4	190	1898	3194
75	0	0	2147	4	189	1898	3195
76	0	0	2138	5	188	1897	3195
77	0	0	2152	5	185	1898	3198
78	0	0	2178	5	183	1898	3200
79	0	0	2186	5	182	1897	3200
80	0	0	2203	5	182	1898	3201
81	0	0	2247	5	179	1897	3199
82	0	0	2306	5	179	1897	3196
83	0	0	2349	5	177	1898	3194
84	0	0	2354	4	178	1897	3193
85	0	0	2330	4	178	1898	3195
86	0	0	2305	4	180	1897	3195
87	0	0	2285	5	182	1897	3198
88	0	0	2276	4	183	1898	3200
89	0	0	2271	5	184	1897	3200
90	0	0	2268	5	187	1898	3201
91	0	0	2238	4	187	1898	3199
92	0	0	2205	4	189	1897	3196
93	0	0	2175	4	189	1898	3193
94	0	0	2167	5	189	1898	3194
95	0	0	2177	6	190	1897	3194
96	0	0	2204	5	188	1897	3196
97	0	0	2234	5	186	1897	3197
98	0	0	2265	5	184	1897	3200
99	0	0	2300	5	183	1897	3200
100	0	0	2326	5	180	1897	3200
101	0	0	2311	3	180	1897	3199
102	0	0	2295	5	179	1897	3196
103	0	0	2333	4	178	1898	3193
104	0	0	2387	5	178	1897	3193
105	0	0	2410	5	179	1897	3194
106	0	0	2405	5	180	1897	3196
107	0	0	2387	4	180	1897	3198
108	0	0	2352	4	183	1898	3200
109	0	0	2296	4	183	1897	3200
110	0	0	2233	4	186	1898	3201
111	0	0	2192	4	186	1898	3199
112	0	0	2180	5	188	1897	3196
113	0	0	2160	5	189	1898	3193
114	0	0	2142	4	190	1897	3193
115	0	0	2139	5	188	1897	3194
116	0	0	2142	5	186	1897	3196
117	0	0	2162	5	185	1897	3198
118	0	0	2186	5	183	1898	3199
119	0	0	2212	5	181	1897	3200
120	0	0	2235	5	181	1897	3200
121	0	0	2244	4	178	1897	3199
122	0	0	2260	5	178	1897	3196
123	0	0	2278	5	178	1898	3194
124	0	0	2293	4	179	1897	3193
125	0	0	2295	5	180	1898	3195
126	0	0	2286	5	181	1897	3196
127	0	0	2286	4	182	1897	3198
0	0	0	2291	5	182	1898	3200
1	0	0	2294	5	184	1897	3200
2	0	0	2299	5	185	1898	3201
3	0	0	2285	5	186	1897	3199
4	0	0	2265	4	188	1898	3196
5	0	0	2228	4	188	1898	3194
6	0	0	2201	5	188	1897	3193
7	0	0	2181	4	189	1897	3194
8	0	0	2159	5	188	1897	3196
9	0	0	2176	5	186	1897	3198
10	0	0	2222	5	184	1898	3200
11	0	0	2259	5	181	1897	3200
12	0	0	2273	5	181	1898	3200
13	0	0	2305	5	179	1897	3199
14	0	0	2351	5	180	1897	3196
15	0	0	2385	5	178	1898	3194
16	0	0	2396	5	178	1897	3193
17	0	0	2371	4	180	1897	3194
18	0	0	2341	4	180	1897	3196
19	0	0	2304	4	181	1898	3198
20	0	0	2290	5	182	1898	3199
21	0	0	2293	5	183	1898	3201
22	0	0	2290	5	185	1897	3200
23	0	0	2277	5	187	1898	3199
24	0	0	2256	4	187	1897	3196
25	0	0	2230	4	189	1898	3194
26	0	0	2198	4	187	1897	3193
27	0	0	2180	5	188	1897	3193
28	0	0	2194	5	187	1897	3195
29	0	0	2235	5	186	1897	3198
30	0	0	2282	5	183	1898	3199
31	0	0	2338	5	182	1897	3200
32	0	0	2379	5	181	1897	3200
33	0	0	2396	5	180	1897	3199
34	0	0	2397	5	178	1897	3196
35	0	0	2395	5	179	1898	3194
36	0	0	2397	4	178	1897	3193
37	0	0	2409	5	179	1897	3194
38	0	0	2411	5	180	1898	3196
39	0	0	2397	4	181	1898	3198
40	0	0	2373	4	181	1898	3200
41	0	0	2360	5	183	1898	3201
42	0	0	2357	3	187	1897	3200
43	0	0	2339	4	185	1897	3199
44	0	0	2306	4	188	1898	3196
45	0	0	2267	4	187	1898	3193
46	0	0	2243	4	188	1898	3193
47	0	0	2233	5	186	1897	3194
48	0	0	2235	5	186	1897	3196
49	0	0	2250	5	184	1897	3198
50	0	0	2264	5	184	1898	3200
51	0	0	2291	5	182	1897	3200
52	0	0	2322	5	180	1897	3200
53	0	0	2346	5	179	1897	3199
54	0	0	2406	5	178	1897	3196
55	0	0	2476	5	179	1897	3194
56	0	0	2512	5	179	1897	3193
57	0	0	2500	4	180	1897	3194
58	0	0	2476	4	180	1897	3195
59	0	0	2449	4	181	1897	3198
60	0	0	2426	4	182	1898	3200
61	0	0	2415	4	183	1897	3200
62	0	0	2397	5	185	1897	3200
63	0	0	2372	4	186	1897	3199
64	0	0	2349	4	186	1898	3197
65	0	0	2312	4	190	1898	3193
66	0	0	2274	4	187	1898	3193
67	0	0	2267	5	187	1897	3194
68	0	0	2280	5	185	1897	3196
69	0	0	2318	5	185	1898	3198
70	0	0	2370	5	183	1898	3200
71	0	0	2420	5	182	1898	3201
72	0	0	2466	5	182	1897	3200
73	0	0	2482	5	179	1898	3199
74	0	0	2483	5	180	1898	3197
75	0	0	2482	5	180	1897	3194
76	0	0	2469	5	180	1898	3194
77	0	0	2461	4	181	1897	3194
78	0	0	2467	4	180	1897	3195
79	0	0	2465	5	181	1897	3198
80	0	0	2431	4	182	1898	3200
81	0	0	2372	4	184	1897	3200
82	0	0	2343	4	185	1898	3201
83	0	0	2342	5	187	1898	3199
84	0	0	2344	5	186	1897	3196
85	0	0	2333	4	187	1898	3193
86	0	0	2316	5	188	1897	3193
87	0	0	2305	5	188	1897	3194
88	0	0	2308	5	186	1897	3195
89	0	0	2337	5	185	1897	3198
90	0	0	2375	5	185	1898	3200
91	0	0	2421	5	182	1898	3201
92	0	0	2459	6	181	1897	3200
93	0	0	2497	5	181	1897	3199
94	0	0	2528	5	180	1897	3196
95	0	0	2538	5	178	1898	3194
96	0	0	2525	5	179	1897	3193
97	0	0	2502	4	180	1898	3195
98	0	0	2469	4	181	1897	3196
99	0	0	2435	4	183	1897	3198
100	0	0	2406	4	182	1898	3200
101	0	0	2381	4	185	1897	3200
102	0	0	2345	4	185	1897	3200
103	0	0	2305	4	186	1897	3199
104	0	0	2297	5	186	1898	3197
105	0	0	2267	4	187	1898	3193
106	0	0	2229	5	188	1898	3193
107	0	0	2235	5	186	1897	3194
108	0	0	2270	5	186	1898	3196
109	0	0	2302	5	185	1898	3198
110	0	0	2326	5	183	1898	3199
111	0	0	2352	5	182	1897	3200
112	0	0	2374	5	181	1897	3200
113	0	0	2386	5	181	1897	3198
114	0	0	2395	5	181	1898	3196
115	0	0	2398	5	181	1898	3193
116	0	0	2408	5	180	1897	3193
117	0	0	2392	4	180	1898	3195
118	0	0	2341	4	181	1898	3196
119	0	0	2309	4	181	1897	3198
120	0	0	2304	4	182	1898	3200
121	0	0	2293	5	184	1897	3199
122	0	0	2257	4	185	1897	3200
123	0	0	2227	5	187	1897	3199
124	0	0	2225	5	186	1897	3196
125	0	0	2207	4	188	1898	3193
126	0	0	2187	5	188	1897	3193
127	0	0	2192	5	188	1897	3193
0	0	0	2211	5	186	1897	3195
1	0	0	2245	5	185	1897	3197
2	0	0	2261	5	182	1897	3199
3	0	0	2267	5	180	1897	3200
4	0	0	2284	5	180	1898	3201
5	0	0	2317	5	180	1898	3199
6	0	0	2351	4	180	1897	3196
7	0	0	2374	5	179	1898	3194
8	0	0	2378	5	180	1897	3193
9	0	0	2371	5	182	1897	3194
10	0	0	2347	4	181	1897	3196
11	0	0	2305	4	184	1897	3197
12	0	0	2256	4	182	1898	3199
13	0	0	2228	4	184	1897	3200
14	0	0	2229	5	185	1897	3199
15	0	0	2211	4	185	1898	3199
16	0	0	2174	4	186	1898	3197
17	0	0	2125	4	188	1898	3193
18	0	0	2102	5	186	1898	3193
19	0	0	2109	5	187	1897	3193
20	0	0	2134	5	186	1898	3196
21	0	0	2189	5	185	1898	3198
22	0	0	2246	5	183	1898	3199
23	0	0	2272	5	183	1898	3201
24	0	0	2273	4	180	1897	3200
25	0	0	2270	5	179	1898	3199
26	0	0	2292	5	180	1898	3197
27	0	0	2327	5	180	1898	3193
28	0	0	2347	4	179	1898	3193
29	0	0	2332	4	180	1897	3193
30	0	0	2316	5	180	1897	3196
31	0	0	2301	4	181	1898	3198
32	0	0	2249	4	184	1898	3199
33	0	0	2201	4	183	1898	3200
34	0	0	2162	4	184	1898	3199
35	0	0	2127	4	186	1898	3199
36	0	0	2116	4	188	1898	3196
37	0	0	2097	4	187	1898	3193
38	0	0	2081	5	187	1898	3193
39	0	0	2088	4	185	1897	3193
40	0	0	2100	5	187	1898	3196
41	0	0	2127	5	184	1898	3198
42	0	0	2160	5	184	1898	3199
43	0	0	2206	5	181	1898	3201
44	0	0	2251	5	180	1897	3200
45	0	0	2291	5	180	1898	3199
46	0	0	2312	4	180	1898	3197
47	0	0	2322	5	181	1898	3193
48	0	0	2339	6	180	1897	3192
49	0	0	2343	4	180	1898	3195
50	0	0	2333	5	181	1898	3195
51	0	0	2319	5	181	1897	3197
52	0	0	2292	4	183	1898	3199
53	0	0	2242	4	184	1897	3199
54	0	0	2190	4	185	1897	3199
55	0	0	2173	5	187	1897	3199
56	0	0	2168	4	187	1897	3196
57	0	0	2139	4	189	1898	3193
58	0	0	2108	4	186	1897	3192
59	0	0	2105	5	187	1897	3193
60	0	0	2129	5	186	1897	3195
61	0	0	2175	5	185	1897	3197
62	0	0	2216	5	184	1898	3199
63	0	0	2222	5	182	1897	3199
64	0	0	2211	5	181	1897	3199
65	0	0	2217	5	183	1897	3199
66	0	0	2236	5	181	1897	3196
67	0	0	2259	4	181	1898	3193
68	0	0	2300	5	180	1898	3193
69	0	0	2330	5	181	1898	3193
70	0	0	2335	5	181	1898	3196
71	0	0	2316	4	182	1898	3198
72	0	0	2268	4	183	1898	3199
73	0	0	2212	4	184	1898	3201
74	0	0	2162	4	184	1897	3200
75	0	0	2137	4	184	1898	3199
76	0	0	2136	5	186	1898	3197
77	0	0	2108	4	189	1898	3193
78	0	0	2084	5	187	1898	3193
79	0	0	2086	4	187	1897	3193
80	0	0	2100	5	185	1897	3195
81	0	0	2115	5	184	1898	3197
82	0	0	2153	5	184	1898	3199
83	0	0	2189	5	183	1897	3199
84	0	0	2194	5	182	1898	3200
85	0	0	2186	5	181	1897	3199
86	0	0	2184	5	180	1898	3196
87	0	0	2215	5	180	1898	3194
88	0	0	2254	4	179	1897	3192
89	0	0	2280	5	179	1898	3194
90	0	0	2283	5	182	1898	3195
91	0	0	2256	4	181	1897	3197
92	0	0	2208	3	182	1898	3200
93	0	0	2141	4	183	1897	3199
94	0	0	2079	3	184	1898	3201
95	0	0	2041	4	187	1897	3199
96	0	0	2029	4	187	1898	3196
97	0	0	2001	4	187	1898	3194
98	0	0	1990	5	187	1897	3192
99	0	0	2015	5	185	1898	3194
100	0	0	2051	5	187	1898	3195
101	0	0	2088	5	184	1898	3198
102	0	0	2127	5	184	1898	3200
103	0	0	2152	5	183	1897	3199
104	0	0	2181	5	181	1898	3200
105	0	0	2213	5	181	1897	3199
106	0	0	2224	5	181	1897	3196
107	0	0	2245	5	180	1898	3193
108	0	0	2261	5	178	1897	3192
109	0	0	2259	5	180	1897	3193
110	0	0	2239	4	180	1897	3195
111	0	0	2216	5	183	1897	3197
112	0	0	2211	5	183	1897	3199
113	0	0	2203	4	184	1897	3200
114	0	0	2182	4	185	1897	3199
115	0	0	2152	4	185	1898	3199
116	0	0	2127	4	187	1898	3196
117	0	0	2109	4	187	1897	3193
118	0	0	2089	4	189	1898	3193
119	0	0	2054	3	188	1897	3193
120	0	0	2037	5	186	1897	3196
121	0	0	2053	5	185	1898	3198
122	0	0	2085	5	183	1898	3199
123	0	0	2125	5	183	1898	3201
124	0	0	2169	5	182	1897	3200
125	0	0	2201	5	181	1897	3199
126	0	0	2209	5	180	1897	3196
127	0	0	2242	5	179	1898	3194
0	0	0	2288	5	180	1897	3192
1	0	0	2314	5	181	1897	3193
2	0	0	2325	5	181	1897	3195
3	0	0	2313	4	183	1897	3198
4	0	0	2271	4	183	1897	3199
5	0	0	2197	4	183	1897	3199
6	0	0	2109	4	184	1898	3199
7	0	0	2035	4	186	1897	3199
8	0	0	1995	4	186	1897	3196
9	0	0	1978	5	187	1897	3193
10	0	0	1985	5	188	1897	3192
11	0	0	2003	6	188	1898	3193
12	0	0	2015	5	186	1897	3195
13	0	0	2044	5	185	1898	3198
14	0	0	2099	5	184	1898	3199
15	0	0	2161	5	182	1898	3201
16	0	0	2201	7	180	1897	3199
17	0	0	2228	4	180	1898	3199
18	0	0	2247	5	180	1898	3197
19	0	0	2247	5	179	1898	3193
20	0	0	2240	4	179	1898	3193
21	0	0	2234	5	181	1897	3193
22	0	0	2210	5	180	1897	3195
23	0	0	2193	5	182	1898	3198
24	0	0	2182	4	182	1898	3199
25	0	0	2161	4	183	1898	3200
26	0	0	2132	3	185	1897	3200
27	0	0	2110	4	185	1898	3199
28	0	0	2099	5	186	1898	3196
29	0	0	2072	4	187	1898	3193
30	0	0	2024	3	187	1897	3192
31	0	0	1981	4	188	1897	3193
32	0	0	1973	5	186	1898	3195
33	0	0	2010	5	186	1897	3197
34	0	0	2082	5	182	1898	3200
35	0	0	2144	5	182	1897	3199
36	0	0	2181	5	181	1897	3200
37	0	0	2203	5	180	1897	3199
38	0	0	2218	5	181	1898	3196
39	0	0	2217	5	180	1898	3193
40	0	0	2198	4	179	1897	3192
41	0	0	2174	6	180	1898	3193
42	0	0	2178	4	181	1898	3195
43	0	0	2201	5	183	1898	3198
44	0	0	2206	5	183	1898	3199
45	0	0	2192	4	185	1897	3199
46	0	0	2155	4	186	1898	3200
47	0	0	2104	4	186	1898	3199
48	0	0	2074	5	187	1898	3196
49	0	0	2041	4	187	1897	3193
50	0	0	1995	4	188	1897	3192
51	0	0	1987	6	187	1897	3193
52	0	0	2006	5	185	1897	3195
53	0	0	2031	5	185	1897	3197
54	0	0	2076	5	183	1898	3199
55	0	0	2139	5	181	1898	3201
56	0	0	2182	4	182	1897	3199
57	0	0	2203	4	180	1897	3198
58	0	0	2227	5	180	1898	3196
59	0	0	2262	5	178	1897	3193
60	0	0	2263	5	180	1897	3192
61	0	0	2216	4	180	1898	3194
62	0	0	2196	5	181	1898	3196
63	0	0	2206	5	181	1898	3197
64	0	0	2201	4	182	1897	3199
65	0	0	2163	4	184	1897	3200
66	0	0	2111	5	186	1898	3200
67	0	0	2052	4	184	1897	3199
68	0	0	2006	4	187	1897	3196
69	0	0	1979	4	186	1897	3193
70	0	0	1955	4	187	1898	3193
71	0	0	1944	4	187	1897	3193
72	0	0	1951	5	186	1897	3195
73	0	0	1985	5	184	1898	3197
74	0	0	2037	5	183	1898	3200
75	0	0	2086	5	182	1897	3200
76	0	0	2124	5	180	1898	3201
77	0	0	2150	5	179	1898	3199
78	0	0	2183	5	179	1898	3196
79	0	0	2232	5	179	1898	3194
80	0	0	2263	5	179	1897	3192
81	0	0	2267	5	181	1898	3193
82	0	0	2250	4	181	1897	3195
83	0	0	2216	4	181	1897	3197
84	0	0	2186	4	182	1897	3199
85	0	0	2161	4	184	1898	3201
86	0	0	2115	4	186	1897	3199
87	0	0	2065	3	185	1897	3198
88	0	0	2027	4	186	1898	3196
89	0	0	1987	4	187	1898	3193
90	0	0	1951	4	187	1897	3192
91	0	0	1942	4	187	1897	3193
92	0	0	1966	5	187	1898	3195
93	0	0	2008	5	185	1898	3197
94	0	0	2058	5	183	1898	3200
95	0	0	2108	5	183	1897	3199
96	0	0	2158	5	181	1898	3201
97	0	0	2208	5	181	1898	3199
98	0	0	2238	5	179	1898	3196
99	0	0	2268	5	179	1898	3194
100	0	0	2290	5	180	1897	3192
101	0	0	2270	4	181	1898	3194
102	0	0	2230	4	181	1898	3195
103	0	0	2175	4	181	1898	3197
104	0	0	2119	4	183	1898	3199
105	0	0	2056	4	184	1897	3199
106	0	0	2020	5	185	1897	3199
107	0	0	2010	5	186	1897	3199
108	0	0	1999	5	186	1898	3196
109	0	0	1967	4	188	1897	3193
110	0	0	1950	5	187	1898	3193
111	0	0	1965	5	188	1897	3193
112	0	0	1992	5	186	1898	3195
113	0	0	2026	5	184	1898	3198
114	0	0	2082	4	182	1898	3199
115	0	0	2139	5	182	1898	3201
116	0	0	2182	5	181	1897	3200
117	0	0	2222	5	180	1897	3199
118	0	0	2259	5	180	1898	3197
119	0	0	2279	5	180	1897	3193
120	0	0	2275	4	180	1898	3193
121	0	0	2257	5	181	1897	3193
122	0	0	2226	4	182	1898	3195
123	0	0	2186	4	182	1898	3197
124	0	0	2129	4	183	1898	3199
125	0	0	2067	4	185	1897	3199
126	0	0	2049	4	186	1898	3199
127	0	0	2053	5	185	1898	3199
0	0	0	2060	5	186	1897	3196
1	0	0	2032	4	186	1898	3193
2	0	0	2007	5	187	1897	3192
3	0	0	2006	5	186	1898	3193
4	0	0	2010	5	186	1898	3195
5	0	0	2025	5	184	1897	3197
6	0	0	2076	5	183	1897	3199
7	0	0	2138	5	182	1897	3200
8	0	0	2179	5	181	1898	3199
9	0	0	2195	5	182	1897	3198
10	0	0	2198	5	181	1897	3196
11	0	0	2195	5	179	1898	3193
12	0	0	2223	5	180	1898	3193
13	0	0	2246	6	179	1897	3193
14	0	0	2245	4	181	1898	3195
15	0	0	2211	4	183	1898	3198
16	0	0	2160	4	183	1898	3199
17	0	0	2103	4	184	1897	3199
18	0	0	2028	4	186	1898	3200
19	0	0	1964	4	186	1898	3199
20	0	0	1949	5	186	1897	3196
21	0	0	1958	5	187	1898	3193
22	0	0	1989	5	186	1897	3192
23	0	0	2038	5	187	1897	3193
24	0	0	2077	5	186	1897	3195
25	0	0	2094	5	185	1898	3197
26	0	0	2106	5	181	1897	3199
27	0	0	2117	5	182	1897	3199
28	0	0	2126	5	181	1897	3199
29	0	0	2137	5	181	1897	3199
30	0	0	2147	5	181	1898	3196
31	0	0	2171	5	179	1898	3194
32	0	0	2206	5	180	1897	3192
33	0	0	2224	5	181	1898	3194
34	0	0	2234	4	182	1898	3195
35	0	0	2228	5	182	1898	3197
36	0	0	2203	4	183	1898	3199
37	0	0	2169	4	183	1897	3199
38	0	0	2130	4	184	1898	3200
39	0	0	2095	4	185	1898	3199
40	0	0	2050	4	185	1898	3196
41	0	0	1996	4	186	1897	3193
42	0	0	1957	4	188	1898	3193
43	0	0	1959	4	185	1898	3193
44	0	0	1972	4	186	1898	3196
45	0	0	2006	5	185	1898	3198
46	0	0	2088	5	184	1898	3199
47	0	0	2166	5	182	1898	3201
48	0	0	2212	5	182	1897	3199
49	0	0	2232	5	181	1898	3199
50	0	0	2253	5	179	1898	3197
51	0	0	2280	5	180	1898	3193
52	0	0	2298	5	180	1898	3193
53	0	0	2279	5	180	1897	3193
54	0	0	2249	4	183	1898	3196
55	0	0	2225	4	183	1898	3197
56	0	0	2205	4	183	1898	3199
57	0	0	2184	4	184	1897	3199
58	0	0	2158	4	184	1897	3199
59	0	0	2130	3	186	1897	3198
60	0	0	2119	4	187	1898	3196
61	0	0	2098	4	186	1898	3193
62	0	0	2068	4	186	1897	3192
63	0	0	2042	4	185	1897	3193
64	0	0	2034	5	187	1897	3195
65	0	0	2056	5	184	1898	3196
66	0	0	2089	5	183	1898	3199
67	0	0	2126	5	182	1897	3199
68	0	0	2177	5	180	1897	3200
69	0	0	2199	3	180	1897	3199
70	0	0	2192	5	180	1898	3196
71	0	0	2175	5	180	1898	3193
72	0	0	2177	5	181	1897	3192
73	0	0	2201	5	181	1897	3193
74	0	0	2219	4	181	1897	3195
75	0	0	2199	4	182	1898	3197
76	0	0	2180	5	183	1898	3199
77	0	0	2171	5	183	1897	3199
78	0	0	2146	4	184	1897	3199
79	0	0	2109	4	185	1897	3198
80	0	0	2070	4	186	1898	3196
81	0	0	2019	4	185	1898	3193
82	0	0	1985	4	186	1897	3192
83	0	0	1993	5	185	1897	3193
84	0	0	2026	4	185	1898	3195
85	0	0	2069	5	183	1898	3198
86	0	0	2114	5	182	1898	3199
87	0	0	2151	5	183	1898	3200
88	0	0	2182	5	181	1898	3200
89	0	0	2211	5	181	1898	3199
90	0	0	2222	5	181	1898	3196
91	0	0	2227	5	179	1897	3193
92	0	0	2229	5	181	1898	3193
93	0	0	2223	5	182	1897	3193
94	0	0	2210	4	182	1897	3195
95	0	0	2178	4	181	1898	3198
96	0	0	2152	4	183	1898	3199
97	0	0	2146	5	184	1898	3200
98	0	0	2131	6	185	1897	3199
99	0	0	2100	3	185	1897	3198
100	0	0	2060	4	187	1898	3196
101	0	0	2013	4	186	1897	3193
102	0	0	1981	4	186	1897	3192
103	0	0	1983	5	187	1898	3193
104	0	0	2010	5	184	1898	3195
105	0	0	2059	5	185	1898	3197
106	0	0	2125	5	183	1898	3199
107	0	0	2198	5	181	1897	3200
108	0	0	2250	5	182	1898	3200
109	0	0	2264	5	182	1898	3199
110	0	0	2256	5	182	1898	3196
111	0	0	2240	5	179	1898	3193
112	0	0	2224	5	181	1898	3193
113	0	0	2219	6	181	1897	3193
114	0	0	2215	4	182	1898	3195
115	0	0	2201	4	183	1898	3198
116	0	0	2176	4	184	1898	3199
117	0	0	2149	4	183	1898	3201
118	0	0	2123	5	183	1898	3200
119	0	0	2089	4	184	1898	3199
120	0	0	2053	4	186	1898	3197
121	0	0	2001	4	185	1897	3193
122	0	0	1963	4	186	1898	3193
123	0	0	1973	6	187	1897	3193
124	0	0	2017	4	185	1897	3195
125	0	0	2067	5	185	1898	3197
126	0	0	2124	5	183	1897	3199
127	0	0	2165	5	183	1897	3200
0	0	0	2196	5	182	1897	3200
1	0	0	2218	5	181	1898	3199
2	0	0	2216	5	180	1898	3196
3	0	0	2213	5	179	1898	3194
4	0	0	2224	5	181	1897	3192
5	0	0	2223	5	180	1898	3193
6	0	0	2214	5	181	1898	3195
7	0	0	2204	5	182	1898	3198
8	0	0	2191	5	183	1898	3199
9	0	0	2161	4	183	1897	3200
10	0	0	2114	4	184	1897	3200
11	0	0	2062	4	184	1897	3199
12	0	0	2020	4	185	1898	3196
13	0	0	1998	4	187	1898	3194
14	0	0	1990	5	186	1897	3192
15	0	0	2007	5	184	1897	3193
16	0	0	2028	5	184	1897	3195
17	0	0	2061	5	183	1898	3197
18	0	0	2119	5	183	1898	3199
19	0	0	2171	5	182	1897	3199
20	0	0	2206	5	181	1897	3200
21	0	0	2227	4	181	1898	3199
22	0	0	2233	5	182	1898	3197
23	0	0	2232	5	181	1898	3194
24	0	0	2240	5	181	1898	3193
25	0	0	2246	6	182	1897	3193
26	0	0	2238	5	181	1897	3195
27	0	0	2207	4	183	1898	3197
28	0	0	2188	5	183	1897	3199
29	0	0	2175	5	184	1897	3199
30	0	0	2150	4	184	1897	3199
31	0	0	2130	4	185	1897	3198
32	0	0	2125	5	186	1898	3196
33	0	0	2098	4	186	1898	3194
34	0	0	2060	4	186	1897	3192
35	0	0	2062	5	187	1898	3193
36	0	0	2099	5	185	1898	3195
37	0	0	2156	5	184	1898	3197
38	0	0	2216	5	184	1898	3200
39	0	0	2255	5	182	1897	3200
40	0	0	2267	5	181	1898	3200
41	0	0	2275	5	182	1898	3199
42	0	0	2284	5	181	1898	3196
43	0	0	2299	5	181	1898	3193
44	0	0	2320	5	182	1898	3193
45	0	0	2320	5	180	1898	3193
46	0	0	2297	4	181	1898	3195
47	0	0	2257	4	182	1898	3197
48	0	0	2195	4	183	1898	3199
49	0	0	2141	4	185	1898	3200
50	0	0	2102	6	184	1897	3200
51	0	0	2078	5	187	1898	3199
52	0	0	2057	4	185	1898	3197
53	0	0	2003	4	186	1897	3193
54	0	0	1944	4	185	1897	3192
55	0	0	1942	5	185	1897	3193
56	0	0	1992	4	185	1898	3195
57	0	0	2063	5	185	1898	3197
58	0	0	2127	5	183	1898	3199
59	0	0	2179	5	182	1897	3199
60	0	0	2228	5	182	1898	3201
61	0	0	2274	5	181	1898	3200
62	0	0	2304	5	181	1898	3196
63	0	0	2313	5	180	1897	3193
64	0	0	2314	5	181	1898	3193
65	0	0	2318	6	181	1898	3193
66	0	0	2326	5	183	1898	3195
67	0	0	2333	5	181	1898	3197
68	0	0	2328	5	183	1898	3199
69	0	0	2298	4	185	1897	3199
70	0	0	2270	5	184	1898	3199
71	0	0	2243	4	186	1898	3199
72	0	0	2230	5	186	1898	3196
73	0	0	2228	5	186	1897	3193
74	0	0	2211	5	186	1898	3192
75	0	0	2221	5	185	1898	3193
76	0	0	2255	4	186	1898	3195
77	0	0	2316	5	183	1898	3197
78	0	0	2392	5	184	1898	3199
79	0	0	2455	5	183	1898	3199
80	0	0	2510	5	183	1897	3200
81	0	0	2557	4	182	1898	3199
82	0	0	2567	4	181	1898	3196
83	0	0	2527	4	180	1897	3193
84	0	0	2476	4	181	1898	3193
85	0	0	2417	6	182	1898	3193
86	0	0	2381	5	181	1898	3195
87	0	0	2363	4	183	1898	3198
88	0	0	2332	4	183	1898	3199
89	0	0	2276	4	184	1898	3201
90	0	0	2209	4	185	1898	3200
91	0	0	2127	4	185	1897	3199
92	0	0	2035	4	185	1898	3196
93	0	0	1941	4	186	1898	3193
94	0	0	1855	4	186	1898	3193
95	0	0	1806	6	186	1898	3193
96	0	0	1783	4	185	1897	3195
97	0	0	1782	5	185	1898	3198
98	0	0	1811	5	183	1897	3199
99	0	0	1847	4	182	1898	3199
100	0	0	1875	5	182	1897	3199
101	0	0	1905	4	182	1898	3199
102	0	0	1939	5	181	1898	3196
103	0	0	1985	5	181	1898	3193
104	0	0	2025	5	181	1897	3192
105	0	0	2052	5	182	1897	3193
106	0	0	2061	4	183	1898	3195
107	0	0	2037	4	182	1898	3197
108	0	0	2000	4	183	1897	3199
109	0	0	1950	4	184	1897	3199
110	0	0	1916	4	185	1898	3200
111	0	0	1900	4	186	1898	3199
112	0	0	1882	4	186	1898	3196
113	0	0	1843	4	186	1898	3194
114	0	0	1795	4	186	1897	3192
115	0	0	1770	4	186	1898	3194
116	0	0	1778	5	185	1898	3196
117	0	0	1835	5	184	1898	3197
118	0	0	1906	5	183	1898	3199
119	0	0	1970	5	182	1897	3199
120	0	0	2045	5	182	1897	3200
121	0	0	2138	5	181	1898	3199
122	0	0	2185	4	181	1898	3196
123	0	0	2183	5	181	1898	3193
124	0	0	2175	5	181	1897	3192
125	0	0	2164	5	181	1897	3193
126	0	0	2147	4	181	1898	3195
127	0	0	2119	4	181	1898	3197
0	0	0	2105	4	182	1898	3199
1	0	0	2085	4	184	1897	3199
2	0	0	2041	4	184	1897	3200
3	0	0	2004	4	185	1898	3199
4	0	0	1978	4	184	1898	3196
5	0	0	1941	4	186	1898	3193
6	0	0	1912	4	186	1898	3193
7	0	0	1913	5	186	1897	3193
8	0	0	1942	6	185	1897	3195
9	0	0	1971	5	183	1898	3197
10	0	0	2002	5	184	1897	3199
11	0	0	2048	5	182	1897	3199
12	0	0	2098	5	183	1897	3199
13	0	0	2140	4	181	1898	3199
14	0	0	2168	4	181	1898	3196
15	0	0	2202	5	181	1898	3194
16	0	0	2215	5	181	1898	3193
17	0	0	2204	5	182	1897	3192
18	0	0	2173	4	182	1898	3195
19	0	0	2134	4	182	1898	3197
20	0	0	2085	4	184	1898	3199
21	0	0	2056	3	184	1898	3199
22	0	0	2034	4	183	1897	3199
23	0	0	2036	5	185	1897	3199
24	0	0	2034	4	185	1898	3196
25	0	0	2012	4	186	1897	3193
26	0	0	1998	4	186	1897	3192
27	0	0	1987	4	184	1897	3193
28	0	0	1966	5	185	1898	3195
29	0	0	1968	4	184	1898	3197
30	0	0	2001	5	183	1898	3199
31	0	0	2055	5	182	1897	3199
32	0	0	2131	5	182	1898	3200
33	0	0	2198	5	182	1898	3199
34	0	0	2231	5	182	1898	3196
35	0	0	2238	5	180	1897	3193
36	0	0	2240	5	181	1898	3193
37	0	0	2223	4	181	1898	3193
38	0	0	2183	4	183	1898	3195
39	0	0	2156	4	183	1898	3197
40	0	0	2128	4	184	1897	3199
41	0	0	2087	4	185	1898	3200
42	0	0	2039	4	186	1897	3199
43	0	0	2024	6	185	1898	3199
44	0	0	2027	5	186	1898	3197
45	0	0	2009	4	187	1898	3193
46	0	0	1997	5	186	1897	3192
47	0	0	1996	5	186	1898	3193
48	0	0	2008	5	186	1898	3195
49	0	0	2020	5	185	1898	3197
50	0	0	2045	5	182	1897	3199
51	0	0	2078	5	183	1897	3199
52	0	0	2110	5	181	1897	3199
53	0	0	2155	6	181	1898	3199
54	0	0	2213	5	181	1898	3197
55	0	0	2250	5	180	1897	3193
56	0	0	2253	5	180	1897	3192
57	0	0	2207	4	181	1898	3193
58	0	0	2169	3	182	1898	3195
59	0	0	2149	4	183	1898	3197
60	0	0	2122	4	182	1897	3199
61	0	0	2078	4	183	1897	3199
62	0	0	2040	4	183	1898	3199
63	0	0	2028	4	184	1898	3199
64	0	0	2032	5	186	1898	3196
65	0	0	2014	4	186	1897	3193
66	0	0	1986	4	185	1897	3192
67	0	0	1981	5	185	1898	3194
68	0	0	2004	5	185	1898	3195
69	0	0	2030	5	184	1898	3197
70	0	0	2034	5	184	1898	3199
71	0	0	2037	5	183	1897	3199
72	0	0	2061	5	181	1898	3200
73	0	0	2105	5	181	1898	3199
74	0	0	2154	5	181	1898	3196
75	0	0	2208	5	181	1897	3193
76	0	0	2245	4	180	1898	3193
77	0	0	2242	5	181	1898	3193
78	0	0	2218	4	181	1898	3195
79	0	0	2177	4	182	1898	3197
80	0	0	2128	4	184	1897	3199
81	0	0	2088	4	184	1897	3199
82	0	0	2053	4	186	1898	3199
83	0	0	2015	4	186	1897	3198
84	0	0	1992	4	188	1898	3196
85	0	0	1980	4	188	1898	3193
86	0	0	1968	4	188	1897	3192
87	0	0	1973	5	188	1898	3193
88	0	0	2011	5	187	1897	3194
89	0	0	2038	5	185	1898	3196
90	0	0	2043	5	184	1897	3199
91	0	0	2062	5	182	1898	3200
92	0	0	2082	5	181	1897	3199
93	0	0	2104	6	179	1898	3199
94	0	0	2132	5	179	1898	3197
95	0	0	2164	5	178	1897	3193
96	0	0	2176	5	179	1897	3192
97	0	0	2169	5	178	1898	3193
98	0	0	2160	5	181	1898	3195
99	0	0	2148	5	181	1898	3197
100	0	0	2150	5	182	1898	3199
101	0	0	2155	5	183	1897	3199
102	0	0	2134	3	186	1897	3199
103	0	0	2109	4	185	1897	3198
104	0	0	2074	4	185	1898	3196
105	0	0	2016	4	187	1898	3194
106	0	0	1971	5	188	1897	3192
107	0	0	1981	5	186	1898	3193
108	0	0	2012	5	186	1897	3195
109	0	0	2040	5	185	1898	3197
110	0	0	2069	5	183	1897	3199
111	0	0	2080	5	182	1897	3199
112	0	0	2102	5	181	1898	3199
113	0	0	2148	5	181	1898	3199
114	0	0	2196	4	179	1898	3197
115	0	0	2222	5	180	1897	3193
116	0	0	2222	5	179	1897	3192
117	0	0	2228	5	179	1898	3194
118	0	0	2210	4	181	1898	3195
119	0	0	2170	4	182	1898	3197
120	0	0	2161	5	183	1898	3199
121	0	0	2153	5	183	1897	3199
122	0	0	2138	5	184	1897	3199
123	0	0	2115	4	186	1897	3198
124	0	0	2092	4	186	1898	3196
125	0	0	2062	5	187	1897	3193
126	0	0	2022	4	187	1898	3192
127	0	0	1983	4	187	1897	3193
0	0	0	1977	5	185	1897	3194
1	0	0	1990	5	183	1898	3196
2	0	0	2012	5	182	1897	3199
3	0	0	2046	5	182	1898	3200
4	0	0	2081	5	180	1898	3199
5	0	0	2105	5	180	1898	3199
6	0	0	2128	5	180	1898	3196
7	0	0	2177	5	181	1898	3193
8	0	0	2233	5	180	1898	3193
9	0	0	2246	5	180	1898	3193
10	0	0	2217	4	182	1898	3195
11	0	0	2179	4	183	1898	3197
12	0	0	2164	5	182	1897	3198
13	0	0	2163	5	183	1898	3200
14	0	0	2149	5	185	1897	3199
15	0	0	2131	5	186	1898	3198
16	0	0	2118	5	188	1898	3196
17	0	0	2089	4	187	1897	3193
18	0	0	2066	4	187	1897	3192
19	0	0	2068	4	186	1897	3193
20	0	0	2078	6	186	1898	3195
21	0	0	2097	5	185	1898	3196
22	0	0	2115	5	182	1897	3199
23	0	0	2122	5	182	1897	3199
24	0	0	2156	5	182	1898	3199
25	0	0	2206	5	181	1898	3198
26	0	0	2250	5	181	1898	3196
27	0	0	2290	5	181	1898	3194
28	0	0	2324	5	180	1897	3192
29	0	0	2321	4	180	1898	3194
30	0	0	2285	4	181	1898	3195
31	0	0	2241	4	183	1898	3196
32	0	0	2186	4	182	1898	3199
33	0	0	2141	4	183	1897	3199
34	0	0	2121	5	185	1897	3199
35	0	0	2120	5	185	1897	3198
36	0	0	2119	5	185	1898	3196
37	0	0	2083	4	186	1898	3193
38	0	0	2023	4	188	1897	3192
39	0	0	1993	5	186	1897	3193
40	0	0	1996	5	186	1897	3195
41	0	0	2031	5	184	1898	3196
42	0	0	2090	5	183	1897	3198
43	0	0	2130	5	183	1897	3199
44	0	0	2155	4	181	1897	3199
45	0	0	2172	5	181	1898	3199
46	0	0	2185	5	180	1898	3197
47	0	0	2197	5	180	1897	3193
48	0	0	2197	5	181	1898	3193
49	0	0	2195	5	181	1897	3193
50	0	0	2190	5	181	1898	3195
51	0	0	2172	4	181	1898	3197
52	0	0	2143	4	182	1897	3199
53	0	0	2120	4	184	1898	3200
54	0	0	2112	5	183	1898	3199
55	0	0	2112	5	185	1898	3199
56	0	0	2080	5	187	1898	3197
57	0	0	2028	4	187	1897	3193
58	0	0	1978	3	186	1898	3193
59	0	0	1965	5	185	1898	3193
60	0	0	1971	6	186	1898	3194
61	0	0	1997	5	184	1898	3197
62	0	0	2049	5	183	1897	3199
63	0	0	2081	5	182	1897	3199
64	0	0	2098	5	181	1898	3200
65	0	0	2125	5	182	1898	3199
66	0	0	2162	5	180	1898	3196
67	0	0	2197	5	179	1898	3194
68	0	0	2204	5	180	1897	3192
69	0	0	2200	5	181	1898	3194
70	0	0	2200	5	181	1898	3196
71	0	0	2183	4	182	1898	3197
72	0	0	2143	4	183	1897	3198
73	0	0	2091	4	183	1897	3199
74	0	0	2035	4	184	1897	3199
75	0	0	1987	4	184	1898	3199
76	0	0	1955	4	185	1898	3196
77	0	0	1928	4	187	1897	3193
78	0	0	1916	5	187	1897	3192
79	0	0	1924	6	186	1897	3193
80	0	0	1948	5	185	1897	3194
81	0	0	1983	5	184	1898	3196
82	0	0	2015	5	182	1898	3199
83	0	0	2019	5	181	1897	3199
84	0	0	2026	5	181	1898	3200
85	0	0	2035	5	181	1898	3200
86	0	0	2039	5	179	1898	3196
87	0	0	2048	5	178	1897	3193
88	0	0	2062	4	178	1898	3193
89	0	0	2057	4	178	1897	3193
90	0	0	2045	5	180	1897	3194
91	0	0	2039	5	180	1897	3196
92	0	0	2033	4	182	1897	3198
93	0	0	2014	4	184	1897	3199
94	0	0	2000	5	185	1898	3199
95	0	0	2002	5	187	1897	3198
96	0	0	2003	5	187	1898	3196
97	0	0	1980	4	188	1898	3193
98	0	0	1944	4	189	1897	3192
99	0	0	1922	4	188	1897	3193
100	0	0	1936	5	188	1897	3195
101	0	0	1960	5	187	1898	3197
102	0	0	1972	5	185	1897	3199
103	0	0	1979	5	182	1897	3199
104	0	0	1998	5	181	1897	3199
105	0	0	2012	6	180	1898	3199
106	0	0	2021	5	180	1898	3197
107	0	0	2037	5	179	1897	3193
108	0	0	2075	4	179	1897	3192
109	0	0	2109	5	177	1897	3192
110	0	0	2099	5	178	1897	3195
111	0	0	2089	5	181	1897	3196
112	0	0	2089	5	181	1897	3198
113	0	0	2056	3	183	1897	3199
114	0	0	1993	4	185	1898	3200
115	0	0	1925	4	186	1898	3199
116	0	0	1889	4	188	1898	3196
117	0	0	1889	5	189	1897	3193
118	0	0	1894	5	189	1897	3192
119	0	0	1896	5	189	1897	3193
120	0	0	1904	5	187	1897	3194
121	0	0	1929	5	186	1897	3196
122	0	0	1961	5	183	1897	3198
123	0	0	1988	5	183	1897	3199
124	0	0	2020	5	182	1897	3199
125	0	0	2036	5	181	1898	3199
126	0	0	2039	4	180	1898	3196
127	0	0	2032	5	179	1897	3193
0	0	0	2039	4	178	1898	3193
1	0	0	2049	5	180	1898	3193
2	0	0	2051	4	180	1897	3194
3	0	0	2034	4	181	1898	3197
4	0	0	2009	4	181	1897	3198
5	0	0	1970	4	182	1897	3199
6	0	0	1927	4	184	1897	3199
7	0	0	1919	5	187	1898	3199
8	0	0	1907	4	188	1898	3196
9	0	0	1867	4	189	1897	3193
10	0	0	1818	4	190	1897	3192
11	0	0	1796	4	188	1897	3193
12	0	0	1788	6	187	1898	3195
13	0	0	1769	4	185	1898	3196
14	0	0	1806	5	183	1898	3199
15	0	0	1856	5	183	1897	3199
16	0	0	1896	5	180	1898	3200
17	0	0	1932	5	180	1898	3199
18	0	0	1945	5	181	1898	3196
19	0	0	1951	5	181	1897	3193
20	0	0	1957	5	180	1897	3192
21	0	0	1935	4	183	1897	3193
22	0	0	1928	5	182	1897	3194
23	0	0	1931	5	182	1898	3197
24	0	0	1911	4	184	1898	3199
25	0	0	1879	4	184	1897	3199
26	0	0	1833	4	186	1898	3200
27	0	0	1780	4	186	1898	3199
28	0	0	1726	4	186	1898	3196
29	0	0	1682	4	185	1897	3193
30	0	0	1669	5	184	1897	3192
31	0	0	1708	5	184	1897	3192
32	0	0	1758	5	184	1898	3194
33	0	0	1782	5	183	1898	3197
34	0	0	1799	5	182	1897	3198
35	0	0	1848	5	182	1897	3199
36	0	0	1895	5	181	1897	3199
37	0	0	1921	6	182	1898	3199
38	0	0	1955	5	182	1898	3196
39	0	0	1988	5	182	1897	3193
40	0	0	2004	4	183	1897	3192
41	0	0	2002	5	183	1897	3193
42	0	0	1997	5	183	1898	3195
43	0	0	1980	4	185	1898	3196
44	0	0	1954	4	183	1897	3198
45	0	0	1916	4	184	1897	3199
46	0	0	1863	4	185	1897	3200
47	0	0	1807	4	185	1898	3199
48	0	0	1789	5	185	1898	3196
49	0	0	1772	4	185	1897	3193
50	0	0	1730	4	185	1897	3192
51	0	0	1698	4	186	1897	3193
52	0	0	1705	5	184	1898	3194
53	0	0	1742	4	184	1898	3197
54	0	0	1803	5	183	1897	3198
55	0	0	1854	5	182	1897	3199
56	0	0	1885	5	182	1898	3200
57	0	0	1910	5	181	1898	3199
58	0	0	1910	4	180	1898	3196
59	0	0	1931	5	181	1897	3193
60	0	0	1989	5	182	1897	3192
61	0	0	2034	4	181	1897	3193
62	0	0	2039	5	181	1898	3194
63	0	0	2012	4	182	1898	3196
64	0	0	1976	4	184	1897	3198
65	0	0	1936	4	184	1897	3199
66	0	0	1885	4	186	1897	3199
67	0	0	1833	5	186	1898	3199
68	0	0	1783	5	185	1898	3196
69	0	0	1731	4	186	1898	3193
70	0	0	1697	4	185	1897	3192
71	0	0	1707	5	184	1897	3193
72	0	0	1749	5	183	1897	3194
73	0	0	1795	6	182	1897	3196
74	0	0	1851	4	183	1897	3198
75	0	0	1905	5	181	1897	3199
76	0	0	1938	5	182	1897	3199
77	0	0	1965	5	179	1897	3198
78	0	0	2004	5	180	1898	3197
79	0	0	2044	5	180	1897	3193
80	0	0	2077	5	180	1897	3192
81	0	0	2087	5	181	1897	3192
82	0	0	2070	5	182	1898	3195
83	0	0	2026	5	183	1898	3196
84	0	0	1973	4	182	1897	3198
85	0	0	1924	4	184	1897	3199
86	0	0	1879	4	185	1897	3199
87	0	0	1840	4	185	1897	3198
88	0	0	1804	5	185	1898	3196
89	0	0	1770	4	186	1897	3193
90	0	0	1759	5	185	1897	3191
91	0	0	1782	5	185	1897	3192
92	0	0	1806	5	184	1897	3194
93	0	0	1839	6	182	1898	3196
94	0	0	1904	5	181	1897	3198
95	0	0	1953	5	182	1897	3199
96	0	0	1975	5	181	1897	3199
97	0	0	2002	5	181	1897	3198
98	0	0	2028	5	181	1898	3196
99	0	0	2045	5	181	1897	3193
100	0	0	2061	4	180	1898	3192
101	0	0	2053	4	182	1898	3193
102	0	0	2035	4	182	1898	3195
103	0	0	2012	5	182	1898	3196
104	0	0	1980	4	184	1898	3199
105	0	0	1937	4	185	1897	3199
106	0	0	1882	4	185	1898	3200
107	0	0	1839	4	185	1898	3199
108	0	0	1800	4	185	1898	3196
109	0	0	1769	4	186	1898	3193
110	0	0	1772	5	184	1897	3192
111	0	0	1806	5	184	1898	3193
112	0	0	1855	5	183	1898	3195
113	0	0	1902	4	184	1898	3196
114	0	0	1966	5	182	1897	3198
115	0	0	2011	5	182	1897	3199
116	0	0	2033	5	183	1897	3199
117	0	0	2050	5	182	1898	3198
118	0	0	2053	5	181	1898	3196
119	0	0	2067	5	181	1897	3193
120	0	0	2080	4	181	1898	3192
121	0	0	2098	5	181	1898	3193
122	0	0	2104	5	181	1898	3194
123	0	0	2088	4	183	1898	3197
124	0	0	2065	4	183	1897	3198
125	0	0	2035	4	185	1897	3199
126	0	0	1981	5	184	1897	3199
127	0	0	1920	4	184	1898	3198
0	0	0	1886	4	185	1898	3196
1	0	0	1855	4	185	1898	3193
2	0	0	1829	3	185	1898	3192
3	0	0	1844	5	185	1897	3192
4	0	0	1864	5	182	1898	3194
5	0	0	1878	4	183	1898	3196
6	0	0	1905	5	183	1897	3198
7	0	0	1930	4	182	1897	3199
8	0	0	1950	6	182	1897	3199
9	0	0	1987	5	179	1897	3198
10	0	0	2023	5	181	1898	3197
11	0	0	2055	5	181	1897	3193
12	0	0	2099	4	181	1898	3192
13	0	0	2134	4	181	1898	3193
14	0	0	2133	5	182	1897	3194
15	0	0	2120	5	184	1898	3197
16	0	0	2109	4	184	1897	3198
17	0	0	2083	4	184	1898	3200
18	0	0	2045	4	185	1897	3199
19	0	0	1985	4	184	1898	3198
20	0	0	1934	4	184	1898	3197
21	0	0	1899	4	185	1897	3193
22	0	0	1872	4	185	1897	3192
23	0	0	1859	5	185	1898	3192
24	0	0	1875	5	184	1897	3194
25	0	0	1921	5	182	1898	3196
26	0	0	1977	5	182	1897	3198
27	0	0	2019	5	182	1897	3198
28	0	0	2042	5	181	1897	3199
29	0	0	2074	5	182	1897	3198
30	0	0	2108	4	182	1897	3196
31	0	0	2141	4	182	1897	3193
32	0	0	2179	5	181	1897	3191
33	0	0	2161	4	182	1898	3193
34	0	0	2124	4	184	1898	3195
35	0	0	2093	3	183	1898	3196
36	0	0	2052	4	184	1898	3198
37	0	0	2016	4	184	1897	3199
38	0	0	2000	5	184	1898	3199
39	0	0	1984	4	184	1898	3199
40	0	0	1942	4	185	1898	3196
41	0	0	1884	4	185	1897	3193
42	0	0	1844	5	186	1897	3191
43	0	0	1860	5	184	1897	3192
44	0	0	1921	5	183	1898	3194
45	0	0	1997	4	184	1898	3196
46	0	0	2081	5	183	1898	3198
47	0	0	2145	5	183	1897	3199
48	0	0	2188	4	182	1897	3199
49	0	0	2231	5	181	1897	3198
50	0	0	2280	4	182	1898	3196
51	0	0	2328	5	182	1897	3193
52	0	0	2356	5	182	1897	3192
53	0	0	2363	5	182	1897	3192
54	0	0	2372	5	182	1897	3194
55	0	0	2376	5	182	1898	3197
56	0	0	2356	4	185	1897	3198
57	0	0	2331	5	184	1897	3199
58	0	0	2301	4	185	1898	3200
59	0	0	2260	4	185	1898	3199
60	0	0	2203	4	185	1898	3196
61	0	0	2141	4	186	1897	3193
62	0	0	2099	5	185	1897	3192
63	0	0	2115	5	184	1897	3192
64	0	0	2163	5	184	1897	3194
65	0	0	2209	5	182	1898	3197
66	0	0	2270	5	183	1897	3198
67	0	0	2329	5	182	1897	3199
68	0	0	2359	5	182	1897	3199
69	0	0	2388	5	183	1898	3198
70	0	0	2420	4	181	1898	3196
71	0	0	2467	5	181	1898	3193
72	0	0	2513	4	181	1897	3191
73	0	0	2519	4	181	1897	3192
74	0	0	2484	4	183	1897	3194
75	0	0	2451	3	183	1898	3196
76	0	0	2420	4	184	1897	3197
77	0	0	2405	5	184	1897	3199
78	0	0	2392	5	185	1897	3199
79	0	0	2372	4	186	1897	3198
80	0	0	2337	4	185	1898	3197
81	0	0	2292	4	184	1897	3193
82	0	0	2268	5	185	1898	3193
83	0	0	2293	5	183	1897	3192
84	0	0	2337	5	183	1897	3194
85	0	0	2373	5	183	1898	3196
86	0	0	2413	5	182	1897	3198
87	0	0	2460	5	182	1897	3199
88	0	0	2505	5	181	1897	3199
89	0	0	2547	5	182	1897	3198
90	0	0	2591	4	181	1897	3196
91	0	0	2627	5	182	1898	3193
92	0	0	2657	4	182	1897	3191
93	0	0	2653	5	182	1897	3193
94	0	0	2619	5	182	1898	3195
95	0	0	2581	4	182	1898	3196
96	0	0	2538	4	185	1897	3198
97	0	0	2500	5	184	1897	3199
98	0	0	2460	4	185	1897	3199
99	0	0	2416	4	185	1897	3198
100	0	0	2362	3	184	1897	3196
101	0	0	2319	4	185	1898	3193
102	0	0	2302	5	184	1897	3192
103	0	0	2322	5	184	1897	3192
104	0	0	2376	5	183	1897	3194
105	0	0	2428	4	182	1898	3196
106	0	0	2496	5	183	1897	3198
107	0	0	2567	5	183	1898	3200
108	0	0	2615	5	182	1898	3199
109	0	0	2648	5	181	1897	3198
110	0	0	2670	5	181	1898	3197
111	0	0	2678	5	182	1897	3192
112	0	0	2681	5	183	1898	3193
113	0	0	2682	3	182	1898	3192
114	0	0	2692	5	183	1897	3194
115	0	0	2697	5	183	1898	3197
116	0	0	2670	5	184	1897	3198
117	0	0	2626	4	183	1897	3199
118	0	0	2574	3	184	1897	3199
119	0	0	2502	4	186	1898	3198
120	0	0	2444	3	184	1898	3196
121	0	0	2422	5	185	1897	3193
122	0	0	2417	5	185	1897	3191
123	0	0	2422	5	184	1897	3192
124	0	0	2411	5	185	1897	3194
125	0	0	2425	4	182	1898	3196
126	0	0	2493	5	183	1898	3199
127	0	0	2554	6	182	1897	3199
0	0	0	2607	5	182	1897	3199
1	0	0	2659	5	183	1898	3199
2	0	0	2677	5	182	1898	3196
3	0	0	2671	5	183	1897	3193
4	0	0	2654	5	182	1897	3192
5	0	0	2622	5	182	1897	3192
6	0	0	2600	5	183	1897	3194
7	0	0	2579	5	183	1898	3196
8	0	0	2570	4	183	1897	3198
9	0	0	2570	5	184	1898	3200
10	0	0	2554	5	184	1898	3199
11	0	0	2535	5	185	1897	3198
12	0	0	2508	5	185	1898	3197
13	0	0	2448	4	185	1897	3193
14	0	0	2378	4	185	1897	3191
15	0	0	2331	4	184	1898	3192
16	0	0	2318	5	184	1898	3194
17	0	0	2327	5	182	1898	3196
18	0	0	2384	5	182	1897	3198
19	0	0	2431	5	181	1897	3199
20	0	0	2480	5	182	1897	3199
21	0	0	2549	5	183	1897	3198
22	0	0	2606	5	181	1898	3196
23	0	0	2648	5	182	1898	3193
24	0	0	2658	4	181	1897	3191
25	0	0	2620	4	182	1897	3193
26	0	0	2570	4	182	1898	3195
27	0	0	2532	3	182	1897	3196
28	0	0	2507	5	182	1897	3197
29	0	0	2500	5	184	1897	3198
30	0	0	2454	4	184	1897	3199
31	0	0	2398	5	184	1897	3198
32	0	0	2342	3	184	1897	3196
33	0	0	2286	4	185	1897	3192
34	0	0	2231	4	185	1897	3192
35	0	0	2230	5	184	1897	3192
36	0	0	2276	5	183	1897	3193
37	0	0	2337	5	184	1898	3196
38	0	0	2406	5	183	1897	3198
39	0	0	2463	5	182	1897	3199
40	0	0	2503	5	181	1897	3199
41	0	0	2540	5	183	1897	3198
42	0	0	2580	3	182	1898	3196
43	0	0	2615	5	182	1898	3193
44	0	0	2622	5	183	1897	3191
45	0	0	2586	4	182	1898	3192
46	0	0	2534	4	183	1898	3195
47	0	0	2476	4	183	1898	3196
48	0	0	2425	4	183	1898	3198
49	0	0	2374	4	184	1897	3199
50	0	0	2314	4	185	1898	3199
51	0	0	2272	4	183	1898	3199
52	0	0	2243	3	184	1898	3196
53	0	0	2203	4	185	1898	3192
54	0	0	2158	5	184	1897	3191
55	0	0	2154	5	185	1897	3192
56	0	0	2178	5	184	1898	3194
57	0	0	2234	4	183	1898	3196
58	0	0	2308	5	182	1897	3197
59	0	0	2367	6	183	1897	3198
60	0	0	2411	5	182	1897	3199
61	0	0	2442	5	182	1897	3198
62	0	0	2461	4	182	1897	3196
63	0	0	2481	5	182	1897	3192
64	0	0	2492	5	183	1898	3192
65	0	0	2471	4	183	1897	3192
66	0	0	2417	4	182	1897	3194
67	0	0	2362	4	183	1898	3196
68	0	0	2322	4	185	1897	3198
69	0	0	2293	4	184	1898	3200
70	0	0	2255	4	185	1897	3199
71	0	0	2216	4	185	1898	3199
72	0	0	2184	4	185	1898	3196
73	0	0	2137	4	185	1897	3192
74	0	0	2091	4	184	1897	3191
75	0	0	2091	5	183	1897	3192
76	0	0	2111	5	182	1897	3194
77	0	0	2139	4	182	1898	3196
78	0	0	2187	5	182	1897	3197
79	0	0	2241	5	184	1897	3198
80	0	0	2298	5	183	1897	3199
81	0	0	2352	5	183	1897	3198
82	0	0	2390	4	183	1898	3196
83	0	0	2423	5	181	1898	3193
84	0	0	2444	5	182	1897	3192
85	0	0	2437	4	183	1897	3193
86	0	0	2397	4	183	1898	3195
87	0	0	2349	4	184	1898	3196
88	0	0	2311	4	184	1897	3198
89	0	0	2274	4	183	1898	3199
90	0	0	2223	4	186	1897	3199
91	0	0	2182	4	185	1897	3198
92	0	0	2152	4	184	1898	3197
93	0	0	2106	4	185	1897	3193
94	0	0	2062	4	184	1898	3192
95	0	0	2061	5	183	1897	3192
96	0	0	2101	5	184	1898	3194
97	0	0	2165	5	183	1898	3196
98	0	0	2234	5	182	1897	3197
99	0	0	2295	5	183	1897	3199
100	0	0	2326	5	182	1897	3199
101	0	0	2326	5	182	1897	3198
102	0	0	2321	4	181	1897	3196
103	0	0	2330	5	181	1897	3193
104	0	0	2336	5	182	1897	3191
105	0	0	2331	4	182	1897	3192
106	0	0	2318	5	181	1897	3194
107	0	0	2290	4	182	1898	3196
108	0	0	2255	4	184	1898	3198
109	0	0	2197	4	184	1897	3199
110	0	0	2108	4	184	1897	3199
111	0	0	2026	4	185	1898	3199
112	0	0	1995	5	185	1897	3196
113	0	0	1992	5	184	1897	3192
114	0	0	1987	5	184	1898	3192
115	0	0	1999	5	184	1898	3192
116	0	0	2038	5	183	1897	3194
117	0	0	2096	5	184	1898	3196
118	0	0	2170	5	183	1897	3198
119	0	0	2232	5	183	1897	3199
120	0	0	2283	5	181	1898	3199
121	0	0	2316	5	183	1898	3198
122	0	0	2346	5	181	1898	3196
123	0	0	2394	5	182	1897	3192
124	0	0	2437	5	182	1897	3191
125	0	0	2441	5	182	1897	3192
126	0	0	2431	4	183	1897	3194
127	0	0	2430	4	183	1898	3196
0	0	0	2408	5	184	1897	3197
1	0	0	2385	5	183	1898	3199
2	0	0	2376	5	186	1898	3199
3	0	0	2341	4	185	1898	3198
4	0	0	2278	4	184	1898	3196
5	0	0	2206	4	185	1897	3192
6	0	0	2176	5	185	1897	3191
7	0	0	2211	5	185	1898	3193
8	0	0	2280	5	183	1898	3195
9	0	0	2366	5	184	1898	3196
10	0	0	2459	5	184	1897	3198
11	0	0	2522	5	181	1898	3199
12	0	0	2575	5	183	1898	3199
13	0	0	2621	5	182	1897	3198
14	0	0	2634	5	182	1898	3196
15	0	0	2600	4	182	1897	3192
16	0	0	2550	4	183	1898	3191
17	0	0	2515	5	183	1897	3192
18	0	0	2469	4	183	1897	3194
19	0	0	2402	4	183	1897	3196
20	0	0	2332	4	184	1897	3198
21	0	0	2264	4	184	1897	3199
22	0	0	2192	4	184	1898	3199
23	0	0	2116	4	184	1898	3199
24	0	0	2044	4	183	1898	3196
25	0	0	1973	4	185	1898	3193
26	0	0	1885	4	185	1897	3191
27	0	0	1831	4	185	1897	3192
28	0	0	1803	4	184	1897	3194
29	0	0	1798	5	183	1898	3196
30	0	0	1816	5	184	1897	3197
31	0	0	1864	5	183	1897	3198
32	0	0	1910	4	181	1897	3199
33	0	0	1956	5	183	1898	3198
34	0	0	1986	5	183	1898	3197
35	0	0	2023	5	183	1897	3193
36	0	0	2081	5	182	1898	3192
37	0	0	2118	5	182	1898	3193
38	0	0	2111	4	182	1897	3194
39	0	0	2078	4	184	1897	3196
40	0	0	2027	4	183	1897	3197
41	0	0	1973	4	183	1897	3199
42	0	0	1925	5	183	1897	3199
43	0	0	1881	4	185	1897	3198
44	0	0	1838	4	185	1898	3196
45	0	0	1797	4	185	1897	3193
46	0	0	1753	4	185	1897	3191
47	0	0	1749	4	183	1897	3192
48	0	0	1788	5	184	1897	3194
49	0	0	1848	4	184	1898	3196
50	0	0	1918	5	183	1897	3197
51	0	0	1983	4	183	1898	3199
52	0	0	2034	5	184	1897	3199
53	0	0	2061	5	182	1897	3198
54	0	0	2097	5	182	1898	3196
55	0	0	2137	5	182	1897	3193
56	0	0	2167	5	181	1897	3191
57	0	0	2153	5	182	1897	3192
58	0	0	2120	5	184	1898	3194
59	0	0	2104	5	183	1898	3196
60	0	0	2097	5	183	1898	3198
61	0	0	2074	4	185	1898	3198
62	0	0	2016	5	185	1897	3199
63	0	0	1953	4	184	1897	3198
64	0	0	1889	4	184	1898	3197
65	0	0	1826	4	186	1897	3193
66	0	0	1799	4	185	1897	3191
67	0	0	1827	6	184	1897	3192
68	0	0	1862	5	183	1898	3194
69	0	0	1881	5	183	1898	3196
70	0	0	1909	5	184	1897	3197
71	0	0	1936	5	183	1898	3198
72	0	0	1972	5	183	1898	3199
73	0	0	2020	5	182	1898	3198
74	0	0	2062	5	182	1898	3196
75	0	0	2094	5	181	1898	3193
76	0	0	2118	6	182	1897	3191
77	0	0	2099	5	182	1897	3192
78	0	0	2059	4	183	1897	3194
79	0	0	2013	4	184	1898	3196
80	0	0	1990	4	183	1897	3197
81	0	0	1974	4	184	1897	3198
82	0	0	1934	5	185	1897	3199
83	0	0	1891	4	185	1898	3199
84	0	0	1848	4	185	1898	3196
85	0	0	1833	5	184	1897	3192
86	0	0	1832	5	185	1897	3191
87	0	0	1836	5	184	1898	3192
88	0	0	1847	5	185	1898	3194
89	0	0	1864	5	183	1898	3196
90	0	0	1906	5	182	1897	3198
91	0	0	1977	5	182	1898	3199
92	0	0	2041	5	183	1898	3199
93	0	0	2092	5	183	1897	3198
94	0	0	2118	5	182	1898	3196
95	0	0	2095	4	181	1897	3192
96	0	0	2080	5	181	1898	3191
97	0	0	2045	4	182	1897	3192
98	0	0	2014	4	183	1897	3194
99	0	0	2011	5	183	1898	3196
100	0	0	2028	5	183	1897	3198
101	0	0	2048	5	184	1898	3198
102	0	0	2030	5	183	1897	3199
103	0	0	1972	4	185	1898	3199
104	0	0	1897	4	184	1898	3196
105	0	0	1814	4	185	1897	3192
106	0	0	1743	4	184	1897	3191
107	0	0	1734	5	185	1898	3192
108	0	0	1764	5	184	1897	3194
109	0	0	1821	5	184	1898	3196
110	0	0	1885	5	182	1897	3198
111	0	0	1932	4	181	1897	3198
112	0	0	1976	5	181	1898	3199
113	0	0	2033	5	183	1898	3198
114	0	0	2088	5	183	1898	3196
115	0	0	2124	4	181	1898	3193
116	0	0	2144	5	183	1897	3191
117	0	0	2127	4	182	1898	3192
118	0	0	2077	4	181	1898	3194
119	0	0	2003	4	184	1897	3195
120	0	0	1942	5	185	1897	3197
121	0	0	1911	4	184	1898	3199
122	0	0	1892	4	184	1898	3199
123	0	0	1881	4	186	1897	3198
124	0	0	1865	4	185	1897	3196
125	0	0	1827	4	186	1897	3193
126	0	0	1783	4	184	1898	3192
127	0	0	1762	4	184	1897	3192
0	0	0	1764	5	184	1898	3194
1	0	0	1797	5	183	1898	3196
2	0	0	1872	5	184	1897	3198
3	0	0	1932	5	181	1898	3198
4	0	0	1982	5	182	1898	3199
5	0	0	2040	5	181	1898	3199
6	0	0	2086	5	182	1898	3196
7	0	0	2121	5	182	1898	3193
8	0	0	2142	5	181	1897	3191
9	0	0	2117	4	182	1898	3192
10	0	0	2087	4	183	1898	3194
11	0	0	2058	4	184	1898	3196
12	0	0	2018	4	183	1897	3198
13	0	0	1969	3	184	1898	3199
14	0	0	1913	4	183	1898	3199
15	0	0	1863	4	185	1897	3198
16	0	0	1826	4	184	1898	3197
17	0	0	1813	4	185	1897	3193
18	0	0	1801	4	185	1898	3192
19	0	0	1779	4	184	1898	3192
20	0	0	1759	5	184	1897	3194
21	0	0	1785	4	184	1898	3196
22	0	0	1855	5	182	1898	3197
23	0	0	1955	5	183	1897	3198
24	0	0	2034	5	182	1898	3199
25	0	0	2070	5	182	1898	3199
26	0	0	2071	5	183	1898	3196
27	0	0	2076	7	183	1897	3193
28	0	0	2085	5	182	1897	3191
29	0	0	2080	4	181	1898	3192
30	0	0	2058	4	183	1897	3193
31	0	0	2039	4	183	1898	3196
32	0	0	2022	5	183	1897	3197
33	0	0	1999	4	185	1897	3198
34	0	0	1965	4	185	1898	3199
35	0	0	1931	4	185	1898	3199
36	0	0	1909	4	184	1898	3197
37	0	0	1865	4	184	1897	3192
38	0	0	1817	4	184	1898	3192
39	0	0	1810	5	188	1898	3192
40	0	0	1828	5	183	1897	3194
41	0	0	1857	5	183	1898	3196
42	0	0	1903	5	182	1897	3197
43	0	0	1965	4	181	1898	3198
44	0	0	2019	5	183	1897	3199
45	0	0	2057	5	184	1898	3199
46	0	0	2092	5	182	1898	3196
47	0	0	2116	5	181	1898	3194
48	0	0	2131	5	181	1898	3192
49	0	0	2116	4	182	1897	3192
50	0	0	2070	4	183	1897	3194
51	0	0	2038	4	183	1898	3196
52	0	0	2031	4	182	1897	3197
53	0	0	2015	3	184	1898	3198
54	0	0	2004	5	185	1898	3199
55	0	0	1998	5	185	1898	3199
56	0	0	1968	4	185	1898	3196
57	0	0	1919	4	185	1898	3194
58	0	0	1862	4	184	1897	3191
59	0	0	1846	5	184	1897	3192
60	0	0	1869	4	184	1897	3194
61	0	0	1916	5	182	1898	3196
62	0	0	1973	5	183	1897	3197
63	0	0	2035	5	182	1898	3198
64	0	0	2077	4	182	1897	3199
65	0	0	2114	5	183	1897	3198
66	0	0	2145	5	182	1898	3196
67	0	0	2172	5	183	1897	3192
68	0	0	2207	5	182	1897	3191
69	0	0	2232	5	182	1897	3192
70	0	0	2224	4	184	1897	3194
71	0	0	2174	4	184	1898	3196
72	0	0	2100	4	184	1897	3197
73	0	0	2030	4	182	1898	3199
74	0	0	1974	4	183	1898	3199
75	0	0	1949	4	185	1897	3198
76	0	0	1935	4	185	1898	3196
77	0	0	1916	4	184	1898	3192
78	0	0	1888	4	184	1897	3191
79	0	0	1883	5	185	1897	3192
80	0	0	1901	5	185	1897	3194
81	0	0	1936	5	182	1898	3196
82	0	0	1986	4	182	1897	3197
83	0	0	2046	5	182	1897	3198
84	0	0	2092	5	182	1897	3199
85	0	0	2117	5	183	1897	3198
86	0	0	2142	5	183	1898	3196
87	0	0	2174	5	182	1897	3192
88	0	0	2208	5	181	1897	3191
89	0	0	2211	4	182	1897	3192
90	0	0	2180	4	183	1897	3193
91	0	0	2136	4	183	1898	3196
92	0	0	2093	4	184	1898	3198
93	0	0	2062	4	185	1898	3198
94	0	0	2033	4	183	1898	3199
95	0	0	1992	4	184	1898	3199
96	0	0	1954	4	185	1898	3196
97	0	0	1926	4	185	1898	3194
98	0	0	1886	3	185	1897	3191
99	0	0	1852	4	184	1897	3192
100	0	0	1840	4	184	1898	3194
101	0	0	1851	5	185	1898	3196
102	0	0	1916	5	183	1898	3198
103	0	0	2010	4	182	1897	3198
104	0	0	2090	5	183	1898	3199
105	0	0	2138	5	182	1898	3199
106	0	0	2162	5	181	1898	3196
107	0	0	2179	5	182	1898	3192
108	0	0	2185	4	181	1897	3191
109	0	0	2153	4	183	1898	3192
110	0	0	2103	4	182	1898	3194
111	0	0	2058	4	183	1898	3196
112	0	0	2035	4	184	1898	3198
113	0	0	2025	4	184	1898	3198
114	0	0	1996	4	185	1898	3199
115	0	0	1960	4	185	1898	3198
116	0	0	1925	4	184	1898	3197
117	0	0	1875	4	185	1897	3192
118	0	0	1831	4	185	1898	3191
119	0	0	1836	5	184	1897	3192
120	0	0	1864	5	184	1897	3193
121	0	0	1904	5	186	1898	3196
122	0	0	1967	5	182	1897	3197
123	0	0	2031	5	182	1897	3198
124	0	0	2065	5	181	1898	3199
125	0	0	2088	4	182	1898	3199
126	0	0	2114	5	181	1897	3196
127	0	0	2135	5	181	1898	3193
0	0	0	2154	3	181	1897	3191
1	0	0	2157	5	183	1897	3192
2	0	0	2129	4	181	1898	3193
3	0	0	2077	4	182	1897	3196
4	0	0	2022	5	183	1897	3197
5	0	0	1987	4	183	1897	3198
6	0	0	1960	4	186	1897	3198
7	0	0	1947	5	187	1897	3198
8	0	0	1941	5	187	1897	3196
9	0	0	1928	4	189	1897	3192
10	0	0	1899	3	186	1898	3192
11	0	0	1887	5	187	1898	3192
12	0	0	1885	5	186	1898	3193
13	0	0	1881	5	185	1898	3196
14	0	0	1896	5	182	1897	3197
15	0	0	1929	5	181	1898	3198
16	0	0	1958	5	181	1897	3199
17	0	0	1979	4	181	1897	3198
18	0	0	1991	5	179	1897	3196
19	0	0	2015	5	178	1897	3193
20	0	0	2038	4	178	1897	3191
21	0	0	2042	5	179	1898	3192
22	0	0	2041	5	179	1898	3194
23	0	0	2048	4	180	1898	3196
24	0	0	2038	4	182	1898	3198
25	0	0	2002	3	184	1897	3198
26	0	0	1961	4	185	1897	3198
27	0	0	1920	4	185	1898	3198
28	0	0	1887	5	186	1897	3196
29	0	0	1867	4	188	1898	3192
30	0	0	1832	4	188	1898	3191
31	0	0	1801	4	187	1897	3191
32	0	0	1799	5	187	1897	3193
33	0	0	1834	5	184	1898	3196
34	0	0	1891	5	184	1897	3197
35	0	0	1932	4	182	1898	3199
36	0	0	1947	5	181	1898	3199
37	0	0	1965	5	181	1897	3198
38	0	0	1978	5	180	1897	3196
39	0	0	1978	5	179	1897	3192
40	0	0	1997	5	180	1898	3192
41	0	0	2030	5	180	1898	3192
42	0	0	2054	5	181	1897	3193
43	0	0	2045	5	182	1898	3196
44	0	0	2043	5	183	1897	3196
45	0	0	2018	4	184	1898	3199
46	0	0	1977	4	184	1898	3198
47	0	0	1944	4	186	1897	3198
48	0	0	1943	5	186	1898	3196
49	0	0	1937	4	188	1897	3192
50	0	0	1899	4	187	1897	3191
51	0	0	1868	5	187	1897	3192
52	0	0	1865	5	188	1897	3193
53	0	0	1882	5	185	1898	3195
54	0	0	1921	5	183	1897	3197
55	0	0	1960	5	181	1897	3198
56	0	0	1992	5	182	1897	3199
57	0	0	2021	5	182	1898	3198
58	0	0	2039	5	180	1898	3196
59	0	0	2063	4	180	1898	3193
60	0	0	2082	5	180	1897	3191
61	0	0	2090	5	179	1898	3192
62	0	0	2099	4	181	1898	3194
63	0	0	2111	5	182	1897	3195
64	0	0	2110	4	183	1898	3198
65	0	0	2077	4	184	1897	3198
66	0	0	2031	4	184	1897	3198
67	0	0	1984	4	185	1897	3198
68	0	0	1956	4	184	1897	3196
69	0	0	1923	4	186	1897	3192
70	0	0	1870	4	188	1897	3191
71	0	0	1840	4	186	1897	3192
72	0	0	1851	5	186	1897	3193
73	0	0	1875	5	185	1897	3195
74	0	0	1926	5	183	1897	3197
75	0	0	1976	5	181	1897	3198
76	0	0	2002	5	181	1897	3198
77	0	0	2019	5	181	1898	3198
78	0	0	2042	5	180	1898	3197
79	0	0	2069	5	179	1897	3192
80	0	0	2084	4	180	1898	3192
81	0	0	2085	5	180	1898	3192
82	0	0	2082	5	182	1898	3193
83	0	0	2073	5	182	1898	3196
84	0	0	2059	4	182	1897	3197
85	0	0	2045	5	183	1898	3199
86	0	0	2022	4	184	1898	3198
87	0	0	1974	4	186	1898	3198
88	0	0	1920	4	187	1898	3196
89	0	0	1870	4	186	1897	3192
90	0	0	1824	4	188	1897	3191
91	0	0	1826	5	188	1897	3192
92	0	0	1866	5	187	1897	3194
93	0	0	1908	5	184	1897	3196
94	0	0	1943	5	183	1897	3197
95	0	0	1976	6	181	1898	3198
96	0	0	2005	4	181	1897	3198
97	0	0	2018	5	180	1897	3198
98	0	0	2018	5	180	1898	3196
99	0	0	2017	5	180	1897	3192
100	0	0	2017	6	180	1898	3191
101	0	0	2012	5	180	1898	3192
102	0	0	2018	5	182	1898	3194
103	0	0	2025	5	181	1897	3196
104	0	0	2027	5	183	1898	3198
105	0	0	2026	5	184	1898	3198
106	0	0	2018	4	184	1897	3198
107	0	0	1992	4	186	1898	3198
108	0	0	1942	4	185	1898	3196
109	0	0	1888	4	187	1898	3192
110	0	0	1836	4	187	1898	3192
111	0	0	1830	5	187	1898	3192
112	0	0	1848	5	186	1898	3193
113	0	0	1872	5	185	1898	3195
114	0	0	1901	5	183	1897	3197
115	0	0	1946	7	182	1898	3198
116	0	0	1985	5	182	1897	3199
117	0	0	2014	5	181	1898	3199
118	0	0	2021	5	181	1898	3196
119	0	0	2022	5	179	1898	3193
120	0	0	2031	5	181	1897	3191
121	0	0	2034	4	180	1897	3192
122	0	0	2036	5	181	1898	3193
123	0	0	2040	5	180	1898	3195
124	0	0	2041	4	182	1897	3197
125	0	0	2024	4	184	1898	3199
126	0	0	2002	4	185	1898	3199
127	0	0	1981	4	185	1898	3198
0	0	0	1955	4	185	1898	3196
1	0	0	1915	4	187	1897	3192
2	0	0	1885	5	187	1898	3191
3	0	0	1878	5	185	1897	3192
4	0	0	1896	5	186	1898	3194
5	0	0	1927	5	183	1897	3195
6	0	0	1970	5	184	1897	3197
7	0	0	2003	5	181	1898	3199
8	0	0	2028	5	181	1898	3199
9	0	0	2056	5	181	1898	3198
10	0	0	2084	5	180	1898	3196
11	0	0	2096	5	179	1897	3192
12	0	0	2103	7	181	1898	3191
13	0	0	2098	4	181	1897	3192
14	0	0	2078	4	182	1897	3194
15	0	0	2048	4	182	1898	3195
16	0	0	2021	4	183	1898	3198
17	0	0	2006	5	183	1897	3198
18	0	0	1993	4	185	1897	3198
19	0	0	1982	5	184	1898	3198
20	0	0	1951	4	185	1898	3196
21	0	0	1907	5	186	1898	3192
22	0	0	1874	4	187	1897	3191
23	0	0	1867	5	186	1898	3192
24	0	0	1882	5	185	1898	3193
25	0	0	1925	5	184	1898	3196
26	0	0	1957	5	183	1897	3197
27	0	0	1969	5	183	1898	3198
28	0	0	1984	4	182	1898	3198
29	0	0	2016	5	180	1897	3198
30	0	0	2030	5	179	1898	3196
31	0	0	2054	4	181	1898	3192
32	0	0	2080	7	181	1897	3191
33	0	0	2089	5	180	1898	3192
34	0	0	2068	4	181	1898	3194
35	0	0	2025	4	182	1898	3195
36	0	0	1987	4	183	1898	3198
37	0	0	1969	5	184	1898	3198
38	0	0	1969	5	184	1898	3199
39	0	0	1961	4	186	1898	3199
40	0	0	1934	4	185	1898	3196
41	0	0	1894	4	188	1898	3193
42	0	0	1860	4	188	1898	3191
43	0	0	1870	5	186	1897	3192
44	0	0	1885	5	185	1898	3193
45	0	0	1878	5	185	1898	3195
46	0	0	1895	5	184	1898	3197
47	0	0	1934	5	182	1897	3198
48	0	0	1968	5	183	1898	3199
49	0	0	2025	5	181	1898	3198
50	0	0	2088	5	181	1898	3196
51	0	0	2111	5	181	1897	3192
52	0	0	2112	5	179	1898	3191
53	0	0	2119	4	181	1898	3192
54	0	0	2109	5	181	1897	3193
55	0	0	2096	5	181	1898	3195
56	0	0	2085	4	182	1897	3197
57	0	0	2049	5	184	1897	3198
58	0	0	2018	4	184	1898	3199
59	0	0	1988	4	186	1898	3199
60	0	0	1959	4	186	1898	3196
61	0	0	1922	5	186	1897	3192
62	0	0	1884	5	187	1898	3191
63	0	0	1871	4	187	1898	3192
64	0	0	1870	5	186	1898	3194
65	0	0	1879	5	183	1897	3195
66	0	0	1925	5	183	1898	3198
67	0	0	1984	6	183	1897	3198
68	0	0	2029	5	183	1898	3199
69	0	0	2062	5	180	1898	3199
70	0	0	2093	5	180	1898	3196
71	0	0	2133	4	179	1898	3192
72	0	0	2139	5	180	1898	3192
73	0	0	2113	4	181	1898	3192
74	0	0	2117	5	181	1898	3193
75	0	0	2142	5	183	1898	3195
76	0	0	2133	4	183	1897	3197
77	0	0	2088	4	184	1898	3198
78	0	0	2039	4	185	1898	3198
79	0	0	1994	4	185	1898	3198
80	0	0	1949	4	184	1898	3196
81	0	0	1913	4	187	1898	3192
82	0	0	1884	4	187	1898	3191
83	0	0	1884	5	187	1898	3192
84	0	0	1908	5	186	1898	3194
85	0	0	1938	5	184	1898	3195
86	0	0	1978	5	184	1898	3198
87	0	0	2017	6	183	1897	3198
88	0	0	2043	4	181	1898	3198
89	0	0	2066	5	182	1898	3199
90	0	0	2084	5	179	1898	3196
91	0	0	2086	5	180	1898	3193
92	0	0	2065	4	180	1898	3192
93	0	0	2058	5	180	1898	3191
94	0	0	2074	5	180	1898	3193
95	0	0	2102	5	182	1898	3196
96	0	0	2091	4	182	1897	3196
97	0	0	2050	4	184	1898	3199
98	0	0	2013	4	186	1897	3198
99	0	0	1999	5	185	1898	3197
100	0	0	1998	5	187	1898	3196
101	0	0	1977	4	187	1897	3192
102	0	0	1932	4	185	1897	3191
103	0	0	1909	3	187	1898	3192
104	0	0	1895	4	184	1898	3193
105	0	0	1902	5	184	1898	3195
106	0	0	1933	4	182	1898	3197
107	0	0	1974	5	182	1897	3198
108	0	0	2031	4	180	1898	3199
109	0	0	2087	4	179	1898	3199
110	0	0	2110	5	180	1898	3196
111	0	0	2112	5	181	1898	3193
112	0	0	2124	5	180	1898	3191
113	0	0	2128	3	181	1898	3192
114	0	0	2115	5	181	1898	3194
115	0	0	2101	5	181	1898	3195
116	0	0	2084	4	182	1898	3196
117	0	0	2052	4	185	1897	3198
118	0	0	2018	4	185	1897	3198
119	0	0	1981	4	185	1898	3197
120	0	0	1947	4	186	1898	3196
121	0	0	1908	4	188	1898	3192
122	0	0	1852	4	187	1897	3190
123	0	0	1836	4	185	1897	3191
124	0	0	1851	5	186	1898	3193
125	0	0	1876	5	183	1897	3195
126	0	0	1922	5	182	1897	3196
127	0	0	1984	5	182	1897	3198
0	0	0	2043	5	180	1898	3198
1	0	0	2083	5	181	1897	3198
2	0	0	2107	5	180	1897	3196
3	0	0	2134	4	180	1898	3193
4	0	0	2145	6	180	1897	3191
5	0	0	2141	4	181	1897	3192
6	0	0	2123	5	182	1898	3194
7	0	0	2108	5	183	1897	3195
8	0	0	2094	4	183	1898	3197
9	0	0	2080	4	185	1898	3198
10	0	0	2060	3	185	1898	3198
11	0	0	2030	4	184	1898	3198
12	0	0	2006	4	187	1898	3197
13	0	0	1975	4	186	1897	3192
14	0	0	1916	3	186	1897	3191
15	0	0	1856	4	185	1897	3192
16	0	0	1825	4	185	1898	3194
17	0	0	1851	5	184	1897	3195
18	0	0	1924	5	184	1898	3198
19	0	0	2001	6	182	1897	3198
20	0	0	2062	4	182	1897	3198
21	0	0	2103	5	181	1898	3198
22	0	0	2123	5	181	1898	3196
23	0	0	2143	5	181	1897	3192
24	0	0	2163	5	181	1897	3191
25	0	0	2163	5	180	1897	3191
26	0	0	2127	4	181	1898	3193
27	0	0	2077	4	182	1898	3196
28	0	0	2026	4	182	1897	3196
29	0	0	1996	4	184	1898	3198
30	0	0	1978	3	186	1898	3199
31	0	0	1952	4	185	1898	3198
32	0	0	1911	4	185	1897	3196
33	0	0	1877	4	185	1897	3192
34	0	0	1846	4	187	1897	3191
35	0	0	1860	5	185	1898	3191
36	0	0	1900	5	186	1898	3193
37	0	0	1942	5	183	1898	3195
38	0	0	1976	5	183	1897	3196
39	0	0	2010	5	183	1897	3198
40	0	0	2051	5	182	1898	3198
41	0	0	2093	5	182	1897	3198
42	0	0	2125	4	181	1898	3196
43	0	0	2159	5	181	1898	3193
44	0	0	2202	5	180	1897	3191
45	0	0	2224	5	182	1898	3191
46	0	0	2199	4	183	1897	3193
47	0	0	2125	4	182	1898	3195
48	0	0	2052	4	184	1898	3198
49	0	0	2001	5	184	1897	3198
50	0	0	1983	5	184	1897	3199
51	0	0	1981	5	185	1898	3199
52	0	0	1962	4	184	1898	3196
53	0	0	1928	4	187	1898	3193
54	0	0	1870	6	185	1897	3191
55	0	0	1858	5	186	1897	3191
56	0	0	1884	5	184	1898	3193
57	0	0	1917	5	184	1898	3196
58	0	0	1960	5	183	1897	3196
59	0	0	2027	5	182	1898	3198
60	0	0	2092	4	182	1897	3198
61	0	0	2145	5	181	1898	3198
62	0	0	2164	5	182	1897	3196
63	0	0	2154	5	181	1897	3192
64	0	0	2150	5	181	1897	3191
65	0	0	2134	4	182	1898	3191
66	0	0	2136	4	182	1898	3193
67	0	0	2157	5	182	1898	3195
68	0	0	2147	4	183	1898	3197
69	0	0	2091	6	184	1897	3198
70	0	0	2029	4	185	1898	3199
71	0	0	2017	5	185	1898	3198
72	0	0	2016	5	185	1898	3196
73	0	0	2003	4	185	1897	3192
74	0	0	1970	4	184	1897	3191
75	0	0	1969	5	183	1897	3191
76	0	0	1995	5	183	1898	3193
77	0	0	2037	5	183	1897	3195
78	0	0	2097	5	184	1897	3196
79	0	0	2150	5	182	1898	3199
80	0	0	2178	5	182	1898	3198
81	0	0	2171	5	182	1898	3198
82	0	0	2174	5	182	1898	3197
83	0	0	2194	5	181	1897	3192
84	0	0	2211	5	183	1898	3191
85	0	0	2218	5	182	1897	3192
86	0	0	2209	4	184	1898	3193
87	0	0	2172	5	184	1897	3195
88	0	0	2135	4	184	1897	3196
89	0	0	2098	4	184	1897	3198
90	0	0	2050	4	184	1898	3198
91	0	0	2006	4	184	1898	3197
92	0	0	1973	4	184	1898	3196
93	0	0	1938	4	184	1898	3193
94	0	0	1884	6	184	1897	3191
95	0	0	1856	5	185	1897	3192
96	0	0	1877	5	184	1898	3194
97	0	0	1916	5	183	1897	3195
98	0	0	1961	5	182	1898	3198
99	0	0	2013	7	182	1897	3198
100	0	0	2057	6	183	1898	3198
101	0	0	2078	4	182	1898	3198
102	0	0	2084	5	181	1897	3196
103	0	0	2094	5	182	1898	3193
104	0	0	2104	6	181	1897	3191
105	0	0	2106	5	183	1897	3191
106	0	0	2101	4	183	1898	3193
107	0	0	2092	4	184	1898	3195
108	0	0	2070	4	183	1897	3196
109	0	0	2054	4	185	1898	3199
110	0	0	2034	4	185	1898	3199
111	0	0	2007	4	184	1898	3198
112	0	0	1973	4	185	1897	3196
113	0	0	1925	4	185	1897	3192
114	0	0	1871	4	184	1898	3192
115	0	0	1846	5	185	1898	3192
116	0	0	1862	5	184	1898	3194
117	0	0	1900	5	183	1898	3195
118	0	0	1968	5	184	1898	3197
119	0	0	2033	4	181	1897	3198
120	0	0	2061	5	182	1897	3198
121	0	0	2087	5	182	1898	3198
122	0	0	2137	5	182	1898	3196
123	0	0	2177	5	182	1897	3192
124	0	0	2188	5	182	1897	3191
125	0	0	2163	4	182	1897	3191
126	0	0	2136	4	182	1898	3192
127	0	0	2120	4	183	1898	3195
0	0	0	2088	4	183	1898	3197
1	0	0	2050	4	184	1897	3198
2	0	0	2014	3	184	1898	3198
3	0	0	1972	4	185	1898	3198
4	0	0	1933	4	183	1897	3196
5	0	0	1904	4	186	1897	3192
6	0	0	1873	4	185	1898	3192
7	0	0	1857	4	185	1898	3192
8	0	0	1863	4	185	1898	3193
9	0	0	1885	5	184	1897	3195
10	0	0	1937	5	182	1897	3196
11	0	0	2003	5	184	1898	3199
12	0	0	2062	5	182	1898	3198
13	0	0	2104	4	182	1898	3198
14	0	0	2126	5	182	1898	3196
15	0	0	2145	4	182	1897	3192
16	0	0	2164	5	182	1898	3191
17	0	0	2166	4	181	1898	3192
18	0	0	2153	4	182	1898	3192
19	0	0	2139	4	184	1897	3195
20	0	0	2111	5	184	1897	3196
21	0	0	2071	4	184	1898	3199
22	0	0	2023	4	184	1898	3198
23	0	0	1978	4	185	1898	3198
24	0	0	1947	4	185	1898	3196
25	0	0	1934	4	186	1898	3192
26	0	0	1907	4	185	1897	3191
27	0	0	1908	5	184	1897	3191
28	0	0	1932	4	185	1898	3193
29	0	0	1947	5	184	1897	3195
30	0	0	1965	5	184	1898	3197
31	0	0	2007	5	184	1897	3198
32	0	0	2068	6	182	1898	3198
33	0	0	2123	4	184	1898	3198
34	0	0	2155	5	181	1898	3197
35	0	0	2160	5	183	1897	3192
36	0	0	2167	5	181	1898	3191
37	0	0	2168	5	181	1897	3191
38	0	0	2157	4	183	1898	3193
39	0	0	2125	4	183	1898	3195
40	0	0	2082	4	184	1898	3198
41	0	0	2028	4	183	1897	3198
42	0	0	1989	4	184	1897	3198
43	0	0	1972	4	184	1898	3198
44	0	0	1957	4	185	1898	3196
45	0	0	1923	4	184	1897	3192
46	0	0	1873	4	185	1898	3191
47	0	0	1850	4	184	1898	3192
48	0	0	1872	5	184	1898	3192
49	0	0	1924	5	184	1898	3195
50	0	0	1975	5	182	1898	3196
51	0	0	2015	5	183	1898	3198
52	0	0	2051	4	182	1898	3199
53	0	0	2090	5	182	1897	3198
54	0	0	2117	4	183	1897	3196
55	0	0	2148	5	181	1898	3193
56	0	0	2193	5	181	1898	3191
57	0	0	2200	6	182	1897	3191
58	0	0	2157	4	183	1898	3193
59	0	0	2110	4	183	1897	3195
60	0	0	2073	4	184	1897	3196
61	0	0	2034	4	185	1898	3199
62	0	0	1985	3	183	1898	3198
63	0	0	1924	4	184	1898	3198
64	0	0	1876	4	185	1898	3196
65	0	0	1856	4	185	1897	3192
66	0	0	1832	4	185	1897	3191
67	0	0	1830	3	185	1898	3192
68	0	0	1857	5	184	1898	3193
69	0	0	1896	5	184	1897	3195
70	0	0	1945	5	182	1897	3196
71	0	0	1997	5	182	1897	3198
72	0	0	2049	5	181	1898	3199
73	0	0	2108	5	183	1898	3198
74	0	0	2173	5	181	1897	3196
75	0	0	2223	5	182	1897	3192
76	0	0	2272	5	181	1898	3192
77	0	0	2311	5	182	1898	3191
78	0	0	2319	4	183	1898	3192
79	0	0	2299	4	184	1898	3195
80	0	0	2267	4	184	1897	3196
81	0	0	2234	4	185	1897	3198
82	0	0	2203	5	185	1897	3198
83	0	0	2197	5	185	1898	3198
84	0	0	2185	4	184	1897	3196
85	0	0	2160	4	185	1897	3192
86	0	0	2131	5	184	1898	3191
87	0	0	2135	3	184	1898	3192
88	0	0	2173	4	184	1898	3193
89	0	0	2232	5	183	1898	3195
90	0	0	2321	5	182	1898	3197
91	0	0	2426	5	182	1898	3199
92	0	0	2502	5	182	1897	3198
93	0	0	2556	5	181	1898	3198
94	0	0	2590	5	182	1897	3196
95	0	0	2617	5	181	1897	3192
96	0	0	2623	5	180	1897	3191
97	0	0	2561	4	182	1897	3191
98	0	0	2470	4	183	1898	3193
99	0	0	2394	4	182	1897	3195
100	0	0	2326	4	184	1897	3196
101	0	0	2256	4	185	1897	3198
102	0	0	2174	3	185	1898	3199
103	0	0	2093	4	184	1898	3197
104	0	0	2030	4	184	1897	3196
105	0	0	1959	4	184	1897	3192
106	0	0	1855	4	185	1897	3191
107	0	0	1779	4	184	1898	3191
108	0	0	1746	4	183	1898	3192
109	0	0	1734	5	184	1897	3195
110	0	0	1752	4	183	1898	3197
111	0	0	1785	5	183	1898	3199
112	0	0	1816	4	183	1898	3199
113	0	0	1855	4	183	1898	3198
114	0	0	1890	5	182	1898	3197
115	0	0	1931	5	181	1897	3192
116	0	0	1968	5	181	1898	3192
117	0	0	1978	5	181	1898	3192
118	0	0	1966	4	182	1898	3193
119	0	0	1972	5	184	1898	3195
120	0	0	1970	5	184	1897	3196
121	0	0	1941	4	184	1898	3199
122	0	0	1888	4	184	1898	3199
123	0	0	1836	4	185	1898	3198
124	0	0	1785	4	185	1898	3197
125	0	0	1730	4	184	1897	3192
126	0	0	1682	4	184	1898	3192
127	0	0	1694	5	183	1898	3192
0	0	0	1754	5	183	1898	3193
1	0	0	1820	5	184	1898	3196
2	0	0	1880	5	182	1897	3196
3	0	0	1928	5	183	1898	3198
4	0	0	1965	5	183	1897	3198
5	0	0	1998	4	182	1898	3198
6	0	0	2027	5	183	1897	3196
7	0	0	2073	5	182	1898	3193
8	0	0	2136	5	182	1897	3191
9	0	0	2166	6	182	1897	3191
10	0	0	2160	4	182	1898	3193
11	0	0	2135	4	182	1897	3195
12	0	0	2098	4	185	1897	3197
13	0	0	2042	4	183	1898	3199
14	0	0	1982	4	184	1898	3198
15	0	0	1931	4	185	1898	3198
16	0	0	1919	5	184	1897	3196
17	0	0	1920	4	185	1897	3192
18	0	0	1885	3	184	1897	3191
19	0	0	1862	5	184	1897	3191
20	0	0	1868	5	184	1898	3193
21	0	0	1893	5	182	1897	3195
22	0	0	1955	6	181	1898	3197
23	0	0	2025	5	183	1897	3198
24	0	0	2064	5	183	1898	3198
25	0	0	2079	5	182	1898	3199
26	0	0	2089	5	183	1897	3196
27	0	0	2089	5	182	1897	3192
28	0	0	2099	5	180	1898	3191
29	0	0	2109	5	182	1898	3191
30	0	0	2118	4	183	1898	3193
31	0	0	2122	5	182	1897	3195
32	0	0	2123	5	184	1897	3196
33	0	0	2130	5	183	1898	3199
34	0	0	2097	4	184	1898	3198
35	0	0	2039	4	184	1898	3197
36	0	0	1993	4	184	1898	3196
37	0	0	1947	4	185	1898	3193
38	0	0	1901	4	184	1898	3191
39	0	0	1891	5	184	1898	3191
40	0	0	1893	4	183	1898	3193
41	0	0	1909	5	184	1897	3195
42	0	0	1954	5	184	1897	3196
43	0	0	2017	5	183	1898	3198
44	0	0	2070	5	183	1899	3198
45	0	0	2107	5	183	1898	3198
46	0	0	2153	5	183	1897	3196
47	0	0	2206	5	181	1897	3192
48	0	0	2238	4	182	1897	3190
49	0	0	2239	5	181	1898	3191
50	0	0	2210	4	182	1898	3193
51	0	0	2173	4	184	1898	3195
52	0	0	2131	5	184	1897	3196
53	0	0	2079	4	184	1898	3199
54	0	0	2017	4	185	1898	3198
55	0	0	1967	4	184	1898	3198
56	0	0	1954	5	185	1897	3196
57	0	0	1942	4	184	1898	3193
58	0	0	1902	4	185	1898	3191
59	0	0	1876	4	185	1897	3191
60	0	0	1883	5	184	1898	3193
61	0	0	1914	5	184	1898	3195
62	0	0	1982	5	183	1897	3196
63	0	0	2059	5	182	1898	3198
64	0	0	2118	5	182	1898	3198
65	0	0	2147	5	181	1898	3197
66	0	0	2156	5	183	1897	3196
67	0	0	2165	5	183	1897	3192
68	0	0	2179	5	182	1898	3192
69	0	0	2182	5	182	1898	3192
70	0	0	2151	4	183	1898	3193
71	0	0	2133	4	182	1898	3195
72	0	0	2126	5	184	1897	3196
73	0	0	2102	4	183	1897	3198
74	0	0	2061	4	185	1898	3198
75	0	0	2015	4	183	1898	3198
76	0	0	1989	4	184	1898	3196
77	0	0	1955	4	183	1897	3192
78	0	0	1912	5	184	1897	3191
79	0	0	1892	4	184	1898	3192
80	0	0	1896	5	184	1898	3194
81	0	0	1919	5	184	1897	3195
82	0	0	1976	4	183	1898	3197
83	0	0	2063	5	183	1897	3198
84	0	0	2152	5	184	1898	3198
85	0	0	2212	5	183	1898	3198
86	0	0	2224	5	183	1897	3196
87	0	0	2226	5	183	1897	3192
88	0	0	2248	5	182	1898	3191
89	0	0	2251	5	181	1897	3191
90	0	0	2204	4	184	1898	3192
91	0	0	2144	4	182	1897	3195
92	0	0	2089	4	183	1898	3196
93	0	0	2030	4	183	1898	3199
94	0	0	1971	4	184	1898	3199
95	0	0	1929	4	183	1898	3198
96	0	0	1933	5	185	1898	3197
97	0	0	1941	5	185	1897	3192
98	0	0	1925	5	183	1897	3191
99	0	0	1924	5	183	1898	3191
100	0	0	1949	5	183	1898	3192
101	0	0	1982	5	183	1897	3195
102	0	0	2030	5	183	1897	3196
103	0	0	2081	6	182	1897	3198
104	0	0	2127	5	184	1898	3198
105	0	0	2168	5	182	1898	3199
106	0	0	2202	5	182	1897	3196
107	0	0	2240	4	182	1898	3193
108	0	0	2269	5	181	1898	3190
109	0	0	2276	5	183	1897	3191
110	0	0	2261	4	182	1898	3193
111	0	0	2210	4	182	1897	3195
112	0	0	2145	3	184	1897	3196
113	0	0	2096	4	183	1898	3198
114	0	0	2062	4	184	1898	3198
115	0	0	2024	4	184	1898	3198
116	0	0	1984	4	184	1897	3196
117	0	0	1947	4	185	1897	3192
118	0	0	1915	4	184	1898	3192
119	0	0	1913	5	184	1898	3192
120	0	0	1941	5	184	1898	3193
121	0	0	1994	5	184	1898	3195
122	0	0	2066	5	183	1897	3196
123	0	0	2137	5	183	1897	3198
124	0	0	2209	5	182	1898	3198
125	0	0	2265	5	182	1898	3197
126	0	0	2293	4	182	1897	3196
127	0	0	2304	5	182	1897	3192
0	0	0	2325	5	182	1898	3190
1	0	0	2341	5	182	1898	3191
2	0	0	2318	5	183	1898	3193
3	0	0	2273	4	184	1897	3195
4	0	0	2223	3	185	1898	3197
5	0	0	2180	4	183	1897	3198
6	0	0	2149	4	183	1898	3198
7	0	0	2127	5	183	1898	3197
8	0	0	2110	5	185	1897	3196
9	0	0	2074	4	185	1898	3192
10	0	0	2014	4	184	1897	3191
11	0	0	1993	5	183	1897	3191
12	0	0	2016	5	184	1898	3192
13	0	0	2063	5	182	1897	3195
14	0	0	2133	5	182	1897	3196
15	0	0	2200	5	183	1897	3198
16	0	0	2238	5	183	1897	3198
17	0	0	2259	5	182	1898	3197
18	0	0	2277	5	183	1897	3196
19	0	0	2303	4	181	1898	3193
20	0	0	2332	5	182	1898	3190
21	0	0	2311	4	182	1898	3191
22	0	0	2277	4	182	1898	3193
23	0	0	2258	5	184	1897	3195
24	0	0	2238	5	184	1897	3196
25	0	0	2207	4	184	1898	3198
26	0	0	2165	4	183	1897	3198
27	0	0	2128	4	185	1898	3198
28	0	0	2105	4	183	1897	3196
29	0	0	2096	5	185	1897	3192
30	0	0	2070	4	183	1898	3192
31	0	0	2061	5	183	1897	3191
32	0	0	2073	5	184	1898	3193
33	0	0	2096	5	182	1897	3195
34	0	0	2137	4	182	1898	3197
35	0	0	2179	5	183	1898	3199
36	0	0	2210	5	182	1898	3199
37	0	0	2245	5	183	1898	3198
38	0	0	2287	5	183	1898	3196
39	0	0	2321	5	181	1897	3192
40	0	0	2343	5	183	1897	3191
41	0	0	2341	5	182	1897	3191
42	0	0	2303	4	183	1898	3193
43	0	0	2250	4	184	1898	3195
44	0	0	2205	4	184	1897	3196
45	0	0	2163	5	185	1897	3197
46	0	0	2142	5	184	1898	3198
47	0	0	2135	4	183	1898	3198
48	0	0	2114	4	185	1897	3196
49	0	0	2093	3	185	1898	3193
50	0	0	2080	5	185	1898	3191
51	0	0	2093	5	184	1898	3191
52	0	0	2111	5	184	1898	3193
53	0	0	2118	5	184	1897	3195
54	0	0	2139	5	183	1897	3196
55	0	0	2165	5	183	1897	3197
56	0	0	2189	5	182	1898	3198
57	0	0	2227	5	182	1898	3198
58	0	0	2264	5	181	1897	3196
59	0	0	2285	5	182	1897	3192
60	0	0	2298	5	182	1898	3192
61	0	0	2299	5	183	1898	3192
62	0	0	2272	4	183	1898	3192
63	0	0	2235	4	184	1898	3195
64	0	0	2184	4	183	1897	3196
65	0	0	2129	4	185	1898	3199
66	0	0	2091	4	185	1898	3199
67	0	0	2068	5	184	1898	3197
68	0	0	2037	4	184	1897	3196
69	0	0	2002	4	184	1897	3192
70	0	0	1959	3	184	1898	3192
71	0	0	1930	4	183	1898	3191
72	0	0	1926	4	184	1898	3193
73	0	0	1942	5	183	1897	3195
74	0	0	1969	5	184	1898	3196
75	0	0	2010	5	183	1897	3198
76	0	0	2058	5	182	1898	3198
77	0	0	2114	5	183	1898	3198
78	0	0	2158	5	182	1897	3196
79	0	0	2184	5	181	1897	3192
80	0	0	2215	5	183	1897	3191
81	0	0	2224	5	183	1897	3191
82	0	0	2209	4	182	1898	3193
83	0	0	2165	4	183	1898	3195
84	0	0	2108	3	182	1898	3197
85	0	0	2063	6	183	1897	3197
86	0	0	2035	4	183	1898	3198
87	0	0	2020	4	184	1898	3198
88	0	0	2001	4	185	1897	3196
89	0	0	1959	4	186	1898	3192
90	0	0	1877	4	184	1898	3190
91	0	0	1834	5	183	1897	3191
92	0	0	1850	4	184	1898	3192
93	0	0	1902	4	183	1898	3195
94	0	0	1987	5	183	1897	3196
95	0	0	2078	5	182	1898	3198
96	0	0	2134	5	182	1898	3199
97	0	0	2147	5	181	1898	3198
98	0	0	2137	5	183	1897	3196
99	0	0	2126	4	181	1897	3192
100	0	0	2129	5	183	1897	3191
101	0	0	2146	5	182	1898	3191
102	0	0	2127	5	182	1898	3192
103	0	0	2094	4	183	1897	3195
104	0	0	2067	3	183	1897	3196
105	0	0	2039	5	183	1897	3197
106	0	0	2005	4	184	1897	3198
107	0	0	1953	4	185	1898	3198
108	0	0	1911	4	184	1897	3196
109	0	0	1885	3	185	1898	3193
110	0	0	1848	4	183	1898	3190
111	0	0	1835	5	184	1898	3191
112	0	0	1860	5	184	1898	3193
113	0	0	1913	5	183	1897	3195
114	0	0	1996	4	182	1898	3197
115	0	0	2056	5	182	1898	3197
116	0	0	2068	5	182	1897	3198
117	0	0	2071	5	182	1898	3198
118	0	0	2097	5	181	1898	3197
119	0	0	2123	5	181	1897	3192
120	0	0	2154	5	182	1898	3191
121	0	0	2158	5	184	1898	3192
122	0	0	2137	5	183	1898	3193
123	0	0	2113	4	183	1897	3194
124	0	0	2074	4	183	1897	3196
125	0	0	2043	5	184	1897	3197
126	0	0	2004	4	183	1898	3198
127	0	0	1958	4	184	1898	3197
0	0	0	1939	5	184	1897	3196
1	0	0	1909	4	185	1897	3192
2	0	0	1849	5	185	1897	3191
3	0	0	1834	5	185	1897	3191
4	0	0	1869	6	185	1898	3192
5	0	0	1914	5	184	1897	3195
6	0	0	1967	4	184	1898	3197
7	0	0	2008	5	182	1898	3198
8	0	0	2032	5	182	1898	3198
9	0	0	2053	5	183	1898	3198
10	0	0	2075	5	182	1897	3196
11	0	0	2096	3	182	1898	3193
12	0	0	2115	5	183	1898	3190
13	0	0	2109	4	181	1898	3191
14	0	0	2090	5	182	1898	3193
15	0	0	2090	5	184	1897	3195
16	0	0	2066	3	183	1898	3197
17	0	0	2025	4	185	1898	3198
18	0	0	2002	4	183	1898	3198
19	0	0	1981	4	184	1898	3199
20	0	0	1958	4	185	1897	3196
21	0	0	1929	4	185	1898	3193
22	0	0	1876	4	186	1898	3190
23	0	0	1837	4	182	1898	3191
24	0	0	1829	4	184	1898	3193
25	0	0	1847	5	184	1898	3196
26	0	0	1895	5	182	1898	3196
27	0	0	1964	5	182	1897	3198
28	0	0	2022	5	181	1898	3198
29	0	0	2056	5	182	1898	3198
30	0	0	2091	5	182	1897	3196
31	0	0	2129	5	182	1897	3192
32	0	0	2156	5	183	1897	3190
33	0	0	2158	5	182	1898	3191
34	0	0	2162	5	183	1898	3193
35	0	0	2155	4	183	1897	3195
36	0	0	2106	3	183	1898	3197
37	0	0	2022	4	183	1897	3198
38	0	0	1952	4	182	1898	3198
39	0	0	1917	4	184	1898	3199
40	0	0	1898	4	184	1897	3196
41	0	0	1868	4	185	1897	3192
42	0	0	1827	4	186	1898	3191
43	0	0	1816	5	184	1897	3191
44	0	0	1846	4	185	1898	3193
45	0	0	1897	5	183	1898	3195
46	0	0	1947	5	183	1898	3197
47	0	0	1994	5	182	1898	3198
48	0	0	2029	5	181	1898	3198
49	0	0	2057	5	183	1898	3198
50	0	0	2077	5	182	1897	3196
51	0	0	2090	5	182	1897	3192
52	0	0	2121	5	183	1898	3191
53	0	0	2149	5	182	1897	3191
54	0	0	2145	4	182	1898	3193
55	0	0	2116	4	182	1897	3195
56	0	0	2073	4	183	1898	3196
57	0	0	2037	4	184	1897	3198
58	0	0	1998	4	184	1897	3198
59	0	0	1967	4	184	1898	3198
60	0	0	1948	4	185	1898	3197
61	0	0	1927	4	184	1897	3192
62	0	0	1889	4	183	1898	3191
63	0	0	1880	5	184	1898	3192
64	0	0	1878	4	184	1898	3193
65	0	0	1901	5	182	1898	3195
66	0	0	1964	5	184	1897	3196
67	0	0	2044	5	182	1898	3198
68	0	0	2097	5	183	1898	3199
69	0	0	2130	5	182	1898	3198
70	0	0	2157	5	182	1898	3197
71	0	0	2162	5	183	1897	3192
72	0	0	2162	5	181	1898	3191
73	0	0	2153	4	182	1898	3191
74	0	0	2119	4	182	1898	3193
75	0	0	2065	4	183	1897	3194
76	0	0	2017	5	183	1898	3196
77	0	0	2001	5	183	1898	3198
78	0	0	1987	4	185	1898	3198
79	0	0	1973	4	184	1898	3199
80	0	0	1967	5	184	1897	3196
81	0	0	1936	4	184	1897	3192
82	0	0	1868	4	184	1897	3191
83	0	0	1822	4	183	1897	3191
84	0	0	1807	4	183	1898	3193
85	0	0	1807	4	183	1898	3195
86	0	0	1835	5	183	1897	3196
87	0	0	1901	5	184	1897	3198
88	0	0	1997	5	182	1897	3198
89	0	0	2091	4	182	1898	3198
90	0	0	2152	5	182	1898	3196
91	0	0	2156	5	181	1897	3192
92	0	0	2140	4	182	1898	3191
93	0	0	2129	4	181	1898	3192
94	0	0	2120	4	183	1898	3193
95	0	0	2116	5	184	1898	3195
96	0	0	2103	4	181	1897	3196
97	0	0	2070	4	184	1898	3198
98	0	0	2018	4	183	1898	3198
99	0	0	1970	3	184	1898	3198
100	0	0	1929	4	185	1897	3196
101	0	0	1895	4	185	1898	3193
102	0	0	1889	5	183	1898	3191
103	0	0	1882	5	184	1898	3191
104	0	0	1874	4	183	1898	3193
105	0	0	1889	5	183	1897	3195
106	0	0	1931	5	183	1898	3196
107	0	0	1974	5	183	1898	3198
108	0	0	2020	6	182	1897	3198
109	0	0	2069	4	182	1898	3198
110	0	0	2104	5	181	1898	3196
111	0	0	2127	5	182	1898	3192
112	0	0	2162	4	183	1897	3190
113	0	0	2176	5	184	1898	3191
114	0	0	2146	4	182	1898	3193
115	0	0	2111	4	182	1898	3195
116	0	0	2070	4	183	1897	3196
117	0	0	2023	4	183	1898	3198
118	0	0	1969	4	182	1898	3199
119	0	0	1931	4	184	1898	3198
120	0	0	1909	4	184	1898	3197
121	0	0	1883	5	185	1898	3192
122	0	0	1843	5	185	1898	3192
123	0	0	1832	5	184	1898	3191
124	0	0	1852	4	185	1898	3193
125	0	0	1889	5	183	1898	3195
126	0	0	1941	5	183	1898	3196
127	0	0	2003	5	182	1897	3198
0	0	0	2058	5	181	1898	3198
1	0	0	2096	4	183	1898	3198
2	0	0	2119	5	182	1897	3196
3	0	0	2150	5	181	1897	3192
4	0	0	2205	5	181	1897	3190
5	0	0	2237	4	184	1898	3191
6	0	0	2231	5	183	1898	3193
7	0	0	2188	4	182	1897	3195
8	0	0	2123	4	183	1898	3197
9	0	0	2060	4	185	1898	3198
10	0	0	2012	4	184	1898	3198
11	0	0	1978	4	184	1898	3198
12	0	0	1940	4	183	1898	3197
13	0	0	1892	4	185	1898	3192
14	0	0	1846	4	185	1897	3191
15	0	0	1837	5	183	1897	3191
16	0	0	1849	4	185	1898	3193
17	0	0	1873	4	183	1897	3195
18	0	0	1942	5	184	1897	3196
19	0	0	2007	5	182	1897	3198
20	0	0	2043	5	183	1897	3198
21	0	0	2061	4	182	1898	3197
22	0	0	2087	5	182	1897	3196
23	0	0	2122	5	182	1898	3193
24	0	0	2171	5	182	1897	3191
25	0	0	2199	5	182	1898	3191
26	0	0	2193	5	183	1898	3193
27	0	0	2157	4	183	1897	3195
28	0	0	2105	4	184	1897	3196
29	0	0	2046	4	184	1898	3198
30	0	0	1990	4	185	1897	3198
31	0	0	1941	4	184	1898	3198
32	0	0	1909	4	184	1897	3196
33	0	0	1876	4	185	1897	3192
34	0	0	1836	4	183	1898	3191
35	0	0	1839	5	185	1898	3192
36	0	0	1865	5	182	1898	3193
37	0	0	1914	5	183	1898	3195
38	0	0	1971	5	183	1897	3196
39	0	0	2025	5	182	1897	3198
40	0	0	2065	5	183	1897	3198
41	0	0	2082	4	181	1898	3198
42	0	0	2107	4	182	1897	3196
43	0	0	2149	5	182	1897	3192
44	0	0	2187	5	183	1897	3191
45	0	0	2210	5	183	1897	3191
46	0	0	2204	3	183	1898	3192
47	0	0	2155	4	183	1897	3195
48	0	0	2096	4	183	1898	3197
49	0	0	2052	4	184	1897	3198
50	0	0	2008	4	185	1898	3198
51	0	0	1957	4	185	1898	3198
52	0	0	1921	4	184	1897	3196
53	0	0	1894	4	185	1898	3193
54	0	0	1856	4	186	1898	3190
55	0	0	1832	5	184	1898	3191
56	0	0	1855	5	183	1898	3193
57	0	0	1906	5	183	1898	3195
58	0	0	1954	4	183	1898	3196
59	0	0	1993	4	182	1897	3197
60	0	0	2008	5	183	1897	3198
61	0	0	2024	3	181	1898	3198
62	0	0	2056	5	183	1897	3196
63	0	0	2099	5	183	1898	3192
64	0	0	2145	5	182	1898	3192
65	0	0	2171	5	184	1898	3192
66	0	0	2189	4	182	1898	3193
67	0	0	2195	5	184	1897	3194
68	0	0	2157	4	183	1897	3196
69	0	0	2090	5	184	1898	3198
70	0	0	2014	4	184	1898	3198
71	0	0	1967	4	184	1898	3198
72	0	0	1937	4	185	1897	3196
73	0	0	1894	3	185	1897	3192
74	0	0	1820	4	184	1897	3191
75	0	0	1794	5	185	1898	3191
76	0	0	1821	4	184	1898	3193
77	0	0	1870	5	184	1898	3195
78	0	0	1923	5	184	1898	3196
79	0	0	1982	4	184	1898	3198
80	0	0	2033	5	184	1898	3199
81	0	0	2076	3	182	1898	3198
82	0	0	2114	5	183	1897	3196
83	0	0	2154	6	183	1897	3192
84	0	0	2178	5	182	1898	3191
85	0	0	2181	5	184	1898	3191
86	0	0	2172	4	182	1898	3193
87	0	0	2159	4	183	1897	3194
88	0	0	2129	4	182	1898	3197
89	0	0	2079	4	183	1898	3198
90	0	0	2022	4	185	1898	3198
91	0	0	1971	4	183	1898	3198
92	0	0	1927	4	185	1898	3196
93	0	0	1899	4	185	1898	3192
94	0	0	1865	4	185	1897	3191
95	0	0	1855	5	182	1898	3192
96	0	0	1882	4	184	1898	3193
97	0	0	1926	5	183	1897	3194
98	0	0	1966	5	184	1898	3196
99	0	0	2004	5	183	1898	3198
100	0	0	2053	5	181	1898	3198
101	0	0	2100	4	183	1898	3198
102	0	0	2126	5	182	1897	3196
103	0	0	2137	5	182	1897	3192
104	0	0	2143	4	182	1898	3191
105	0	0	2126	4	180	1898	3191
106	0	0	2102	3	182	1898	3193
107	0	0	2076	4	185	1898	3195
108	0	0	2045	4	184	1898	3197
109	0	0	2025	4	184	1898	3197
110	0	0	2006	4	184	1898	3198
111	0	0	1987	4	184	1898	3199
112	0	0	1961	4	185	1898	3197
113	0	0	1927	4	184	1897	3192
114	0	0	1882	5	184	1898	3191
115	0	0	1870	5	184	1898	3192
116	0	0	1879	5	184	1898	3193
117	0	0	1889	5	184	1897	3194
118	0	0	1921	6	183	1897	3196
119	0	0	1962	5	184	1898	3197
120	0	0	1991	5	183	1898	3198
121	0	0	2042	4	182	1898	3198
122	0	0	2111	5	182	1898	3196
123	0	0	2168	5	183	1898	3192
124	0	0	2196	5	182	1898	3191
125	0	0	2173	4	182	1898	3192
126	0	0	2129	4	183	1898	3193
127	0	0	2093	4	182	1898	3195
0	0	0	2059	4	184	1898	3197
1	0	0	2037	4	184	1898	3198
2	0	0	2011	4	184	1898	3198
3	0	0	1979	4	184	1898	3198
4	0	0	1971	5	184	1897	3196
5	0	0	1962	4	185	1898	3192
6	0	0	1933	4	183	1897	3191
7	0	0	1935	5	181	1898	3192
8	0	0	1958	4	184	1898	3193
9	0	0	1977	5	183	1898	3195
10	0	0	1998	6	182	1897	3196
11	0	0	2026	5	183	1898	3198
12	0	0	2073	5	182	1898	3199
13	0	0	2114	5	181	1898	3198
14	0	0	2132	5	182	1898	3196
15	0	0	2125	5	182	1898	3193
16	0	0	2129	5	183	1898	3191
17	0	0	2144	5	183	1898	3191
18	0	0	2154	5	182	1898	3193
19	0	0	2134	4	184	1898	3194
