# bioPlux Text File Format
# Version: 1
# StartDateTime: 2011-07-19 09:25:14
# SamplingFrequency: 1000
# SampledChannels: 1 2 3 4
# SamplingResolution: 12
# AcquiringDevice: 00:07:80:42:0F:8B
# EndOfHeader
0	0	0	1595	9	3840	73
1	0	0	1730	10	3842	72
2	0	0	1863	7	3840	72
3	0	0	2002	9	3840	72
4	0	0	2143	10	3839	74
5	0	0	2286	9	3840	72
6	0	0	2396	10	3839	74
7	0	0	2458	7	3840	71
8	0	0	2592	10	3839	74
9	0	0	2676	10	3838	74
10	0	0	2591	7	3838	73
11	0	0	2446	6	3839	72
12	0	0	2265	1	3841	72
13	0	0	2042	4	3842	74
14	0	0	1863	8	3840	72
15	0	0	1741	5	3840	72
16	0	0	1657	6	3840	73
17	0	0	1609	3	3840	72
18	0	0	1539	6	3839	73
19	0	0	1513	14	3839	73
20	0	0	1604	11	3838	73
21	0	0	1740	9	3841	73
22	0	0	1874	8	3840	72
23	0	0	2013	10	3839	72
24	0	0	2150	10	3839	74
25	0	0	2283	11	3838	73
26	0	0	2387	9	3837	74
27	0	0	2460	10	3841	71
28	0	0	2595	10	3840	72
29	0	0	2680	10	3839	73
30	0	0	2595	7	3839	73
31	0	0	2447	7	3840	72
32	0	0	2270	3	3841	73
33	0	0	2053	6	3840	72
34	0	0	1865	6	3840	73
35	0	0	1744	6	3840	72
36	0	0	1662	6	3840	71
37	0	0	1612	4	3840	71
38	0	0	1547	6	3841	71
39	0	0	1518	8	3838	73
40	0	0	1605	11	3838	73
41	0	0	1741	10	3840	72
42	0	0	1867	7	3840	71
43	0	0	2007	10	3840	73
44	0	0	2149	10	3840	72
45	0	0	2285	11	3839	73
46	0	0	2395	10	3841	73
47	0	0	2461	4	3840	72
48	0	0	2593	11	3839	73
49	0	0	2680	10	3840	72
50	0	0	2594	8	3839	73
51	0	0	2449	6	3840	73
52	0	0	2274	1	3841	72
53	0	0	2055	4	3837	74
54	0	0	1866	6	3839	77
55	0	0	1740	7	3838	73
56	0	0	1652	5	3840	72
57	0	0	1606	4	3839	74
58	0	0	1540	5	3839	74
59	0	0	1510	10	3838	74
60	0	0	1596	11	3839	73
61	0	0	1734	7	3841	72
62	0	0	1868	5	3842	72
63	0	0	2010	10	3842	71
64	0	0	2154	6	3839	73
65	0	0	2292	9	3841	71
66	0	0	2394	10	3842	71
67	0	0	2457	10	3840	71
68	0	0	2596	9	3841	71
69	0	0	2684	11	3839	74
70	0	0	2599	8	3840	72
71	0	0	2443	6	3840	73
72	0	0	2267	4	3840	71
73	0	0	2044	6	3839	74
74	0	0	1861	7	3841	72
75	0	0	1743	6	3840	71
76	0	0	1656	5	3837	74
77	0	0	1608	6	3841	72
78	0	0	1550	6	3841	71
79	0	0	1524	11	3841	71
80	0	0	1606	9	3840	72
81	0	0	1736	10	3839	74
82	0	0	1863	8	3840	71
83	0	0	2003	10	3840	71
84	0	0	2148	11	3840	72
85	0	0	2289	11	3839	73
86	0	0	2397	11	3838	74
87	0	0	2465	10	3841	71
88	0	0	2599	10	3839	74
89	0	0	2690	10	3840	72
90	0	0	2611	6	3840	72
91	0	0	2460	6	3840	73
92	0	0	2281	4	3840	71
93	0	0	2062	6	3840	74
94	0	0	1876	5	3843	72
95	0	0	1746	6	3841	71
96	0	0	1661	5	3840	72
97	0	0	1607	7	3841	71
98	0	0	1537	6	3840	71
99	0	0	1515	7	3839	74
100	0	0	1608	8	3840	71
101	0	0	1740	8	3842	72
102	0	0	1873	10	3841	71
103	0	0	2011	10	3840	72
104	0	0	2153	11	3839	75
105	0	0	2290	10	3840	70
106	0	0	2398	10	3840	71
107	0	0	2468	10	3839	74
108	0	0	2606	10	3839	74
109	0	0	2703	11	3839	74
110	0	0	2626	6	3840	72
111	0	0	2476	6	3840	72
112	0	0	2292	6	3842	72
113	0	0	2066	6	3840	72
114	0	0	1876	4	3839	73
115	0	0	1745	8	3840	71
116	0	0	1655	6	3844	72
117	0	0	1604	7	3841	71
118	0	0	1540	6	3840	71
119	0	0	1505	11	3839	75
120	0	0	1587	8	3839	73
121	0	0	1719	11	3839	74
122	0	0	1852	10	3840	71
123	0	0	2001	11	3839	73
124	0	0	2145	13	3840	71
125	0	0	2285	10	3840	70
126	0	0	2397	9	3840	71
127	0	0	2462	10	3842	72
0	0	0	2592	10	3841	71
1	0	0	2690	7	3840	72
2	0	0	2615	7	3840	72
3	0	0	2463	7	3841	71
4	0	0	2280	6	3840	72
5	0	0	2057	6	3842	72
6	0	0	1867	4	3840	72
7	0	0	1737	10	3839	74
8	0	0	1642	6	3840	72
9	0	0	1585	7	3840	71
10	0	0	1518	8	3840	73
11	0	0	1494	9	3840	72
12	0	0	1581	11	3840	75
13	0	0	1721	9	3842	72
14	0	0	1855	10	3839	74
15	0	0	2001	11	3840	72
16	0	0	2149	10	3840	72
17	0	0	2283	11	3841	75
18	0	0	2398	10	3839	74
19	0	0	2466	10	3841	71
20	0	0	2600	10	3840	72
21	0	0	2702	10	3840	71
22	0	0	2630	6	3841	68
23	0	0	2476	7	3840	72
24	0	0	2291	6	3839	73
25	0	0	2057	6	3840	73
26	0	0	1867	9	3839	75
27	0	0	1740	7	3840	72
28	0	0	1656	5	3841	71
29	0	0	1601	7	3839	74
30	0	0	1531	6	3840	71
31	0	0	1499	12	3840	70
32	0	0	1573	10	3839	74
33	0	0	1712	10	3841	71
34	0	0	1847	10	3840	71
35	0	0	1991	10	3840	72
36	0	0	2143	9	3841	72
37	0	0	2281	11	3841	73
38	0	0	2395	9	3840	71
39	0	0	2470	10	3839	73
40	0	0	2609	11	3840	72
41	0	0	2712	12	3839	73
42	0	0	2638	6	3841	72
43	0	0	2483	7	3839	73
44	0	0	2308	7	3839	73
45	0	0	2078	6	3840	71
46	0	0	1874	5	3840	72
47	0	0	1741	6	3838	74
48	0	0	1639	6	3840	70
49	0	0	1580	7	3839	74
50	0	0	1508	8	3840	72
51	0	0	1478	11	3839	74
52	0	0	1561	11	3841	75
53	0	0	1703	10	3841	71
54	0	0	1838	10	3841	72
55	0	0	1985	10	3840	72
56	0	0	2137	12	3840	71
57	0	0	2286	10	3840	73
58	0	0	2400	12	3840	70
59	0	0	2477	11	3839	73
60	0	0	2612	10	3839	74
61	0	0	2714	10	3840	69
62	0	0	2639	7	3840	73
63	0	0	2487	6	3839	73
64	0	0	2304	6	3840	71
65	0	0	2072	6	3839	74
66	0	0	1871	6	3837	75
67	0	0	1732	7	3840	72
68	0	0	1637	6	3842	72
69	0	0	1578	6	3839	74
70	0	0	1503	7	3840	72
71	0	0	1466	11	3839	73
72	0	0	1555	10	3840	73
73	0	0	1701	11	3840	70
74	0	0	1839	10	3841	71
75	0	0	1983	10	3840	71
76	0	0	2129	10	3837	75
77	0	0	2273	10	3839	74
78	0	0	2401	10	3841	72
79	0	0	2482	10	3840	72
80	0	0	2622	14	3839	72
81	0	0	2728	12	3838	73
82	0	0	2653	6	3840	72
83	0	0	2494	5	3840	70
84	0	0	2305	6	3839	74
85	0	0	2069	6	3840	72
86	0	0	1864	7	3839	73
87	0	0	1727	5	3839	74
88	0	0	1637	6	3840	73
89	0	0	1579	6	3841	73
90	0	0	1511	7	3839	73
91	0	0	1484	13	3839	73
92	0	0	1564	9	3840	72
93	0	0	1698	9	3838	71
94	0	0	1838	10	3840	72
95	0	0	1983	10	3839	72
96	0	0	2135	10	3841	71
97	0	0	2289	10	3839	74
98	0	0	2408	9	3840	70
99	0	0	2478	10	3841	71
100	0	0	2613	10	3840	72
101	0	0	2722	10	3840	72
102	0	0	2647	6	3841	71
103	0	0	2489	6	3841	71
104	0	0	2302	6	3841	72
105	0	0	2075	6	3840	72
106	0	0	1866	7	3839	73
107	0	0	1723	7	3838	74
108	0	0	1625	6	3840	69
109	0	0	1574	8	3840	74
110	0	0	1509	6	3839	74
111	0	0	1474	10	3839	74
112	0	0	1559	8	3839	73
113	0	0	1700	9	3837	73
114	0	0	1842	10	3840	71
115	0	0	1990	10	3839	74
116	0	0	2145	9	3840	72
117	0	0	2296	7	3839	72
118	0	0	2418	10	3842	72
119	0	0	2493	10	3840	73
120	0	0	2623	10	3839	73
121	0	0	2726	10	3840	72
122	0	0	2653	4	3839	73
123	0	0	2499	7	3840	73
124	0	0	2305	6	3841	72
125	0	0	2066	6	3838	74
126	0	0	1858	6	3840	72
127	0	0	1720	3	3839	73
0	0	0	1631	5	3840	74
1	0	0	1572	7	3841	72
2	0	0	1496	7	3838	74
3	0	0	1464	10	3838	74
4	0	0	1550	7	3839	73
5	0	0	1701	10	3840	73
6	0	0	1841	10	3840	73
7	0	0	1993	10	3842	72
8	0	0	2136	11	3840	72
9	0	0	2292	10	3841	72
10	0	0	2412	10	3841	71
11	0	0	2484	10	3840	72
12	0	0	2616	9	3839	74
13	0	0	2726	9	3840	71
14	0	0	2655	6	3840	71
15	0	0	2502	7	3839	73
16	0	0	2323	6	3840	71
17	0	0	2083	6	3839	73
18	0	0	1874	6	3840	71
19	0	0	1731	6	3840	74
20	0	0	1631	7	3839	72
21	0	0	1570	6	3841	71
22	0	0	1496	7	3840	72
23	0	0	1460	8	3841	71
24	0	0	1555	9	3839	74
25	0	0	1692	10	3841	71
26	0	0	1831	11	3841	72
27	0	0	1983	10	3840	72
28	0	0	2139	11	3840	72
29	0	0	2288	10	3840	72
30	0	0	2409	10	3838	74
31	0	0	2485	11	3839	74
32	0	0	2619	10	3839	74
33	0	0	2723	10	3839	74
34	0	0	2656	4	3839	73
35	0	0	2505	6	3837	75
36	0	0	2314	6	3840	71
37	0	0	2073	5	3840	72
38	0	0	1863	7	3841	73
39	0	0	1718	6	3840	71
40	0	0	1623	7	3842	71
41	0	0	1567	7	3841	72
42	0	0	1507	6	3841	71
43	0	0	1474	7	3840	74
44	0	0	1549	9	3840	72
45	0	0	1689	9	3839	73
46	0	0	1835	5	3842	73
47	0	0	1976	9	3839	73
48	0	0	2129	11	3840	71
49	0	0	2280	10	3839	74
50	0	0	2400	11	3837	75
51	0	0	2477	10	3840	72
52	0	0	2614	10	3839	74
53	0	0	2725	11	3839	74
54	0	0	2657	6	3840	72
55	0	0	2503	6	3840	72
56	0	0	2319	6	3839	74
57	0	0	2081	6	3840	72
58	0	0	1871	6	3840	72
59	0	0	1734	6	3840	73
60	0	0	1637	5	3838	75
61	0	0	1572	8	3840	72
62	0	0	1500	6	3841	71
63	0	0	1460	8	3840	73
64	0	0	1548	10	3839	73
65	0	0	1695	11	3840	70
66	0	0	1833	11	3837	73
67	0	0	1981	9	3839	73
68	0	0	2131	10	3840	72
69	0	0	2283	10	3836	75
70	0	0	2411	11	3839	71
71	0	0	2492	16	3841	71
72	0	0	2628	10	3839	73
73	0	0	2745	11	3840	71
74	0	0	2669	8	3842	71
75	0	0	2501	6	3840	71
76	0	0	2317	6	3841	70
77	0	0	2079	6	3840	74
78	0	0	1871	6	3841	70
79	0	0	1732	6	3842	72
80	0	0	1624	6	3840	70
81	0	0	1566	6	3838	73
82	0	0	1503	5	3839	75
83	0	0	1460	8	3840	73
84	0	0	1540	10	3837	75
85	0	0	1680	9	3838	75
86	0	0	1817	11	3838	72
87	0	0	1967	10	3839	73
88	0	0	2121	10	3841	73
89	0	0	2277	10	3840	74
90	0	0	2411	9	3841	71
91	0	0	2491	10	3838	71
92	0	0	2623	9	3840	71
93	0	0	2738	7	3842	72
94	0	0	2672	6	3840	71
95	0	0	2510	6	3840	71
96	0	0	2328	6	3841	71
97	0	0	2090	7	3839	74
98	0	0	1878	6	3840	69
99	0	0	1732	6	3839	74
100	0	0	1626	7	3840	71
101	0	0	1562	7	3838	73
102	0	0	1493	7	3838	74
103	0	0	1460	9	3839	74
104	0	0	1538	10	3839	74
105	0	0	1682	9	3841	71
106	0	0	1823	10	3841	71
107	0	0	1972	10	3840	72
108	0	0	2132	10	3840	72
109	0	0	2278	10	3841	72
110	0	0	2406	10	3839	73
111	0	0	2493	11	3839	72
112	0	0	2633	10	3840	71
113	0	0	2748	10	3838	72
114	0	0	2683	6	3838	73
115	0	0	2520	6	3840	69
116	0	0	2329	6	3837	72
117	0	0	2087	6	3839	75
118	0	0	1871	6	3840	73
119	0	0	1727	6	3836	75
120	0	0	1630	6	3840	72
121	0	0	1567	7	3840	71
122	0	0	1497	6	3840	72
123	0	0	1456	9	3841	69
124	0	0	1539	10	3839	73
125	0	0	1683	10	3841	70
126	0	0	1821	10	3839	74
127	0	0	1971	10	3841	71
0	0	0	2128	10	3840	72
1	0	0	2279	10	3839	73
2	0	0	2402	10	3840	72
3	0	0	2487	11	3840	71
4	0	0	2619	10	3839	72
5	0	0	2738	10	3840	73
6	0	0	2669	6	3839	73
7	0	0	2513	7	3839	72
8	0	0	2335	5	3840	71
9	0	0	2097	5	3839	74
10	0	0	1879	6	3839	73
11	0	0	1731	6	3839	73
12	0	0	1622	6	3841	71
13	0	0	1562	6	3841	71
14	0	0	1491	5	3840	72
15	0	0	1451	9	3840	72
16	0	0	1524	10	3837	75
17	0	0	1668	10	3840	70
18	0	0	1811	9	3839	73
19	0	0	1971	10	3841	71
20	0	0	2127	11	3839	73
21	0	0	2282	10	3840	72
22	0	0	2406	9	3840	71
23	0	0	2488	10	3840	71
24	0	0	2621	11	3839	74
25	0	0	2737	11	3840	72
26	0	0	2676	6	3840	70
27	0	0	2521	5	3841	72
28	0	0	2332	8	3840	71
29	0	0	2089	6	3840	72
30	0	0	1873	3	3839	73
31	0	0	1721	6	3840	71
32	0	0	1622	4	3840	70
33	0	0	1562	7	3841	71
34	0	0	1493	7	3838	74
35	0	0	1449	7	3841	72
36	0	0	1523	10	3840	76
37	0	0	1669	9	3838	76
38	0	0	1823	9	3841	71
39	0	0	1970	10	3839	75
40	0	0	2121	10	3838	75
41	0	0	2270	10	3839	73
42	0	0	2396	10	3840	71
43	0	0	2482	10	3840	71
44	0	0	2612	10	3840	72
45	0	0	2731	10	3840	72
46	0	0	2678	7	3841	70
47	0	0	2524	5	3840	72
48	0	0	2331	6	3841	72
49	0	0	2091	6	3841	72
50	0	0	1876	6	3841	74
51	0	0	1725	7	3841	72
52	0	0	1627	6	3840	72
53	0	0	1568	7	3840	71
54	0	0	1493	6	3839	71
55	0	0	1449	8	3839	74
56	0	0	1526	9	3838	74
57	0	0	1678	8	3838	74
58	0	0	1823	9	3840	71
59	0	0	1971	11	3839	72
60	0	0	2128	11	3840	72
61	0	0	2286	11	3841	70
62	0	0	2407	11	3840	70
63	0	0	2485	10	3840	71
64	0	0	2617	10	3840	71
65	0	0	2742	10	3840	72
66	0	0	2682	7	3840	71
67	0	0	2528	6	3840	73
68	0	0	2342	6	3840	71
69	0	0	2099	6	3839	75
70	0	0	1878	5	3839	74
71	0	0	1733	7	3840	69
72	0	0	1631	6	3840	72
73	0	0	1569	6	3840	71
74	0	0	1502	6	3838	73
75	0	0	1458	7	3839	74
76	0	0	1533	10	3840	71
77	0	0	1679	10	3841	75
78	0	0	1828	10	3841	71
79	0	0	1977	10	3840	72
80	0	0	2128	10	3841	72
81	0	0	2290	9	3841	71
82	0	0	2412	10	3841	74
83	0	0	2496	10	3839	74
84	0	0	2621	14	3839	73
85	0	0	2748	10	3840	71
86	0	0	2689	6	3840	71
87	0	0	2533	7	3840	72
88	0	0	2347	7	3838	73
89	0	0	2101	6	3839	74
90	0	0	1884	5	3839	74
91	0	0	1738	8	3840	73
92	0	0	1634	4	3840	73
93	0	0	1566	7	3840	71
94	0	0	1495	7	3839	73
95	0	0	1449	9	3840	72
96	0	0	1536	10	3841	69
97	0	0	1680	10	3840	72
98	0	0	1822	10	3840	71
99	0	0	1982	9	3841	71
100	0	0	2136	8	3840	74
101	0	0	2288	11	3840	72
102	0	0	2412	9	3840	71
103	0	0	2495	12	3840	71
104	0	0	2627	10	3840	71
105	0	0	2749	7	3837	74
106	0	0	2694	8	3840	73
107	0	0	2536	5	3840	74
108	0	0	2353	6	3838	73
109	0	0	2107	5	3839	74
110	0	0	1885	6	3841	71
111	0	0	1734	7	3841	72
112	0	0	1628	6	3841	71
113	0	0	1563	7	3840	71
114	0	0	1500	6	3841	71
115	0	0	1448	8	3839	74
116	0	0	1525	10	3840	73
117	0	0	1677	10	3841	72
118	0	0	1819	11	3839	72
119	0	0	1975	9	3839	73
120	0	0	2135	8	3840	72
121	0	0	2283	10	3839	74
122	0	0	2410	10	3840	71
123	0	0	2495	10	3839	73
124	0	0	2623	10	3838	70
125	0	0	2749	10	3837	74
126	0	0	2694	8	3839	73
127	0	0	2535	5	3840	74
0	0	0	2353	7	3839	73
1	0	0	2113	6	3839	74
2	0	0	1897	6	3842	72
3	0	0	1746	5	3842	71
4	0	0	1638	6	3841	73
5	0	0	1565	3	3840	72
6	0	0	1496	8	3840	72
7	0	0	1447	8	3839	74
8	0	0	1524	9	3840	70
9	0	0	1672	9	3840	71
10	0	0	1815	10	3839	74
11	0	0	1972	10	3839	74
12	0	0	2130	10	3840	72
13	0	0	2287	7	3839	73
14	0	0	2405	10	3839	69
15	0	0	2487	10	3839	72
16	0	0	2619	10	3841	71
17	0	0	2745	8	3840	73
18	0	0	2696	5	3839	73
19	0	0	2538	5	3841	75
20	0	0	2352	5	3843	72
21	0	0	2109	4	3840	72
22	0	0	1892	6	3840	73
23	0	0	1740	6	3841	71
24	0	0	1633	6	3840	72
25	0	0	1567	7	3839	73
26	0	0	1501	7	3839	74
27	0	0	1453	8	3840	72
28	0	0	1527	8	3839	73
29	0	0	1668	9	3839	69
30	0	0	1806	10	3839	73
31	0	0	1964	10	3839	73
32	0	0	2119	10	3841	71
33	0	0	2276	9	3841	72
34	0	0	2400	10	3840	70
35	0	0	2483	10	3843	71
36	0	0	2611	10	3841	71
37	0	0	2739	7	3840	72
38	0	0	2685	2	3839	73
39	0	0	2529	6	3840	72
40	0	0	2349	7	3841	71
41	0	0	2109	4	3839	74
42	0	0	1882	6	3840	72
43	0	0	1727	5	3839	73
44	0	0	1611	6	3840	69
45	0	0	1545	7	3839	73
46	0	0	1485	6	3840	71
47	0	0	1436	9	3839	74
48	0	0	1507	6	3839	73
49	0	0	1651	10	3840	72
50	0	0	1797	10	3842	71
51	0	0	1953	10	3842	72
52	0	0	2113	10	3840	74
53	0	0	2272	8	3841	72
54	0	0	2394	9	3841	69
55	0	0	2478	10	3840	69
56	0	0	2605	8	3839	74
57	0	0	2731	10	3836	75
58	0	0	2685	6	3841	71
59	0	0	2530	5	3840	69
60	0	0	2346	6	3842	72
61	0	0	2106	8	3839	74
62	0	0	1885	6	3839	73
63	0	0	1733	7	3840	72
64	0	0	1625	7	3840	72
65	0	0	1558	6	3840	71
66	0	0	1486	6	3840	72
67	0	0	1435	8	3840	72
68	0	0	1506	6	3839	73
69	0	0	1645	8	3841	70
70	0	0	1792	10	3843	71
71	0	0	1948	9	3840	72
72	0	0	2113	10	3840	72
73	0	0	2272	6	3840	71
74	0	0	2399	10	3841	72
75	0	0	2482	10	3840	71
76	0	0	2604	11	3839	74
77	0	0	2731	11	3839	73
78	0	0	2689	8	3840	72
79	0	0	2534	7	3839	73
80	0	0	2348	6	3839	73
81	0	0	2105	6	3839	74
82	0	0	1882	6	3839	74
83	0	0	1730	6	3840	72
84	0	0	1622	6	3841	74
85	0	0	1553	7	3840	72
86	0	0	1485	10	3839	74
87	0	0	1435	8	3840	72
88	0	0	1504	8	3841	72
89	0	0	1647	10	3840	74
90	0	0	1799	9	3841	71
91	0	0	1954	10	3840	72
92	0	0	2113	10	3841	75
93	0	0	2277	7	3839	73
94	0	0	2400	11	3839	72
95	0	0	2486	10	3839	73
96	0	0	2603	10	3838	74
97	0	0	2733	10	3838	74
98	0	0	2688	3	3840	72
99	0	0	2538	7	3841	71
100	0	0	2353	6	3840	72
101	0	0	2109	7	3841	72
102	0	0	1891	6	3841	71
103	0	0	1741	10	3841	71
104	0	0	1633	6	3840	74
105	0	0	1568	6	3841	71
106	0	0	1501	6	3839	74
107	0	0	1448	8	3841	71
108	0	0	1517	9	3840	71
109	0	0	1659	11	3839	74
110	0	0	1803	10	3840	72
111	0	0	1957	10	3839	74
112	0	0	2115	10	3839	75
113	0	0	2274	10	3840	72
114	0	0	2401	11	3840	72
115	0	0	2488	7	3839	73
116	0	0	2609	10	3840	71
117	0	0	2741	10	3839	74
118	0	0	2695	8	3841	72
119	0	0	2541	6	3840	72
120	0	0	2360	6	3840	72
121	0	0	2119	6	3840	73
122	0	0	1904	5	3840	72
123	0	0	1751	6	3840	70
124	0	0	1642	6	3837	74
125	0	0	1573	8	3840	71
126	0	0	1509	6	3840	72
127	0	0	1459	8	3839	74
0	0	0	1524	9	3840	71
1	0	0	1674	8	3840	74
2	0	0	1819	10	3839	74
3	0	0	1974	10	3839	71
4	0	0	2128	9	3840	72
5	0	0	2283	11	3840	69
6	0	0	2405	13	3841	72
7	0	0	2498	9	3842	74
8	0	0	2617	10	3840	71
9	0	0	2743	10	3840	72
10	0	0	2694	6	3840	71
11	0	0	2547	5	3840	74
12	0	0	2362	6	3839	74
13	0	0	2123	6	3839	74
14	0	0	1900	6	3839	74
15	0	0	1749	7	3840	72
16	0	0	1641	9	3840	72
17	0	0	1577	7	3838	73
18	0	0	1510	6	3839	74
19	0	0	1460	7	3838	74
20	0	0	1531	10	3840	70
21	0	0	1675	11	3839	74
22	0	0	1814	10	3840	71
23	0	0	1966	9	3842	71
24	0	0	2123	7	3840	72
25	0	0	2278	8	3840	71
26	0	0	2401	10	3841	72
27	0	0	2483	10	3840	72
28	0	0	2601	10	3841	71
29	0	0	2736	12	3840	73
30	0	0	2694	5	3839	74
31	0	0	2544	6	3840	71
32	0	0	2371	6	3839	76
33	0	0	2131	5	3840	72
34	0	0	1909	7	3839	73
35	0	0	1751	4	3838	75
36	0	0	1645	6	3840	73
37	0	0	1575	7	3839	75
38	0	0	1511	6	3839	74
39	0	0	1460	8	3840	72
40	0	0	1525	12	3841	76
41	0	0	1672	11	3840	71
42	0	0	1806	9	3841	71
43	0	0	1958	10	3840	72
44	0	0	2111	10	3841	71
45	0	0	2262	8	3840	72
46	0	0	2395	8	3841	72
47	0	0	2480	10	3840	75
48	0	0	2601	12	3839	74
49	0	0	2738	10	3839	72
50	0	0	2697	7	3840	69
51	0	0	2550	6	3840	71
52	0	0	2369	6	3839	75
53	0	0	2127	6	3840	72
54	0	0	1906	5	3840	72
55	0	0	1752	7	3840	72
56	0	0	1646	6	3841	71
57	0	0	1579	6	3841	71
58	0	0	1509	6	3840	72
59	0	0	1453	8	3840	72
60	0	0	1520	8	3840	73
61	0	0	1664	10	3841	75
62	0	0	1810	11	3839	75
63	0	0	1964	10	3841	71
64	0	0	2117	7	3839	73
65	0	0	2271	8	3840	73
66	0	0	2387	10	3840	73
67	0	0	2474	10	3840	74
68	0	0	2600	10	3838	73
69	0	0	2738	10	3838	74
70	0	0	2697	8	3839	76
71	0	0	2547	6	3838	74
72	0	0	2371	5	3841	72
73	0	0	2136	8	3840	72
74	0	0	1915	6	3839	74
75	0	0	1763	6	3841	71
76	0	0	1654	5	3841	72
77	0	0	1584	6	3841	72
78	0	0	1517	7	3839	74
79	0	0	1458	8	3839	73
80	0	0	1515	12	3840	72
81	0	0	1658	9	3840	72
82	0	0	1806	7	3840	73
83	0	0	1960	11	3839	74
84	0	0	2106	11	3840	72
85	0	0	2261	12	3839	76
86	0	0	2386	10	3840	72
87	0	0	2475	10	3840	71
88	0	0	2593	11	3840	72
89	0	0	2729	11	3840	72
90	0	0	2694	8	3842	76
91	0	0	2544	6	3842	71
92	0	0	2369	6	3840	74
93	0	0	2137	7	3841	71
94	0	0	1913	6	3840	73
95	0	0	1753	8	3840	72
96	0	0	1647	6	3841	72
97	0	0	1582	7	3840	71
98	0	0	1521	5	3839	74
99	0	0	1462	7	3838	72
100	0	0	1526	10	3839	77
101	0	0	1664	8	3839	74
102	0	0	1800	10	3839	74
103	0	0	1952	10	3839	74
104	0	0	2107	10	3840	69
105	0	0	2264	10	3842	72
106	0	0	2390	10	3840	72
107	0	0	2476	10	3840	71
108	0	0	2595	12	3840	72
109	0	0	2735	11	3840	71
110	0	0	2700	4	3840	71
111	0	0	2546	6	3841	71
112	0	0	2365	6	3839	73
113	0	0	2129	4	3839	74
114	0	0	1904	6	3839	75
115	0	0	1750	6	3841	71
116	0	0	1646	6	3840	71
117	0	0	1575	7	3840	71
118	0	0	1517	6	3839	74
119	0	0	1464	9	3839	74
120	0	0	1525	10	3839	76
121	0	0	1671	11	3840	71
122	0	0	1813	10	3841	71
123	0	0	1965	10	3840	72
124	0	0	2108	10	3840	73
125	0	0	2265	14	3841	71
126	0	0	2395	10	3844	72
127	0	0	2480	10	3839	72
0	0	0	2596	11	3840	72
1	0	0	2734	10	3839	75
2	0	0	2701	8	3839	77
3	0	0	2556	5	3840	72
4	0	0	2379	6	3839	72
5	0	0	2139	6	3839	74
6	0	0	1915	5	3839	76
7	0	0	1753	4	3839	75
8	0	0	1644	4	3840	72
9	0	0	1578	7	3839	73
10	0	0	1512	6	3840	72
11	0	0	1457	8	3841	69
12	0	0	1518	10	3841	70
13	0	0	1657	11	3841	71
14	0	0	1800	10	3842	71
15	0	0	1959	10	3840	72
16	0	0	2115	10	3838	74
17	0	0	2276	14	3840	70
18	0	0	2409	9	3841	72
19	0	0	2489	12	3839	73
20	0	0	2595	10	3840	72
21	0	0	2729	10	3839	74
22	0	0	2696	5	3839	75
23	0	0	2548	6	3839	73
24	0	0	2372	6	3839	72
25	0	0	2133	5	3840	71
26	0	0	1909	6	3840	72
27	0	0	1759	7	3841	70
28	0	0	1652	5	3841	72
29	0	0	1586	7	3842	71
30	0	0	1524	7	3840	72
31	0	0	1465	7	3841	70
32	0	0	1529	9	3841	73
33	0	0	1676	8	3840	73
34	0	0	1809	9	3840	246
35	0	0	1948	10	3839	812
36	0	0	2086	10	3841	1530
37	0	0	2234	11	3840	2166
38	0	0	2357	11	3840	2652
39	0	0	2454	10	3839	2994
40	0	0	2575	12	3839	3230
41	0	0	2725	10	3838	3393
42	0	0	2705	7	3840	3511
43	0	0	2567	5	3840	3599
44	0	0	2396	6	3840	3661
45	0	0	2161	6	3840	3711
46	0	0	1942	6	3841	3750
47	0	0	1785	1	3841	3781
48	0	0	1677	5	3841	3805
49	0	0	1613	7	3840	3827
50	0	0	1553	5	3841	3844
51	0	0	1494	7	3839	3857
52	0	0	1551	11	3840	3870
53	0	0	1685	8	3840	3880
54	0	0	1821	10	3839	3889
55	0	0	1978	11	3838	3897
56	0	0	2133	11	3840	3905
57	0	0	2285	10	3840	3912
58	0	0	2413	8	3839	3916
59	0	0	2503	10	3840	3921
60	0	0	2610	10	3840	3925
61	0	0	2746	10	3839	3928
62	0	0	2713	7	3840	3933
63	0	0	2565	4	3841	3936
64	0	0	2391	6	3840	3939
65	0	0	2154	6	3840	3942
66	0	0	1930	5	3841	3946
67	0	0	1773	1	3840	3947
68	0	0	1664	5	3840	3948
69	0	0	1596	6	3839	3951
70	0	0	1534	4	3840	3954
71	0	0	1475	6	3840	3953
72	0	0	1532	8	3839	3957
73	0	0	1674	9	3840	3956
74	0	0	1816	10	3839	3959
75	0	0	1970	11	3838	3960
76	0	0	2120	10	3839	3960
77	0	0	2274	3	3840	3963
78	0	0	2402	10	3841	3964
79	0	0	2493	10	3840	3968
80	0	0	2610	12	3839	3966
81	0	0	2749	10	3839	3966
82	0	0	2714	4	3840	3969
83	0	0	2561	6	3841	3968
84	0	0	2381	6	3839	3970
85	0	0	2144	6	3839	3971
86	0	0	1925	6	3839	3970
87	0	0	1769	1	3840	3972
88	0	0	1662	5	3840	3972
89	0	0	1593	6	3839	3972
90	0	0	1534	7	3838	3974
91	0	0	1475	7	3839	3973
92	0	0	1533	8	3840	3976
93	0	0	1673	10	3840	3976
94	0	0	1813	10	3839	3975
95	0	0	1964	12	3842	3979
96	0	0	2110	11	3841	3978
97	0	0	2262	9	3840	3978
98	0	0	2394	9	3841	3979
99	0	0	2483	10	3840	3978
100	0	0	2596	12	3841	3980
101	0	0	2741	11	3839	3980
102	0	0	2709	6	3840	3979
103	0	0	2564	6	3840	3981
104	0	0	2381	6	3839	3980
105	0	0	2140	6	3840	3983
106	0	0	1920	2	3837	3982
107	0	0	1760	6	3839	3982
108	0	0	1650	6	3841	3983
109	0	0	1578	7	3840	3984
110	0	0	1524	7	3841	3984
111	0	0	1465	3	3840	3984
112	0	0	1521	9	3840	3984
113	0	0	1656	11	3841	3984
114	0	0	1795	10	3840	3984
115	0	0	1951	11	3840	3984
116	0	0	2098	10	3840	3983
117	0	0	2253	9	3840	3985
118	0	0	2389	11	3840	3986
119	0	0	2480	10	3840	3985
120	0	0	2583	10	3839	3985
121	0	0	2725	11	3839	3987
122	0	0	2700	7	3840	3987
123	0	0	2555	6	3839	3986
124	0	0	2384	6	3839	3986
125	0	0	2147	8	3840	3988
126	0	0	1924	8	3840	3988
127	0	0	1763	6	3841	3988
0	0	0	1652	7	3841	3988
1	0	0	1582	7	3840	3987
2	0	0	1523	6	3840	3986
3	0	0	1462	8	3840	3989
4	0	0	1520	8	3840	3990
5	0	0	1662	8	3840	3989
6	0	0	1803	10	3839	3988
7	0	0	1952	10	3839	3987
8	0	0	2102	9	3840	3988
9	0	0	2259	8	3840	3989
10	0	0	2387	11	3840	3989
11	0	0	2480	10	3840	3991
12	0	0	2584	9	3839	3989
13	0	0	2727	10	3839	3991
14	0	0	2697	7	3840	3991
15	0	0	2548	6	3840	3990
16	0	0	2375	6	3840	3992
17	0	0	2142	5	3840	3990
18	0	0	1922	5	3840	3990
19	0	0	1759	7	3840	3989
20	0	0	1647	7	3841	3991
21	0	0	1574	7	3839	3992
22	0	0	1518	6	3839	3991
23	0	0	1460	7	3840	3991
24	0	0	1514	8	3840	3992
25	0	0	1650	11	3840	3992
26	0	0	1792	9	3840	3992
27	0	0	1945	10	3839	3991
28	0	0	2094	10	3839	3991
29	0	0	2246	11	3839	3992
30	0	0	2378	8	3839	3993
31	0	0	2467	10	3839	3993
32	0	0	2569	15	3839	3992
33	0	0	2711	10	3840	3991
34	0	0	2685	4	3840	3992
35	0	0	2538	6	3841	3993
36	0	0	2371	6	3840	3995
37	0	0	2135	6	3840	3992
38	0	0	1916	6	3840	3991
39	0	0	1766	8	3839	3992
40	0	0	1653	8	3840	3993
41	0	0	1582	7	3840	3996
42	0	0	1521	6	3839	3993
43	0	0	1463	7	3839	3993
44	0	0	1516	10	3840	3995
45	0	0	1654	10	3840	3994
46	0	0	1790	10	3840	3994
47	0	0	1940	9	3839	3993
48	0	0	2090	10	3840	3993
49	0	0	2244	9	3840	3995
50	0	0	2372	8	3841	3994
51	0	0	2460	11	3841	3996
52	0	0	2568	11	3840	3994
53	0	0	2708	8	3840	3994
54	0	0	2690	8	3839	3993
55	0	0	2545	6	3841	3995
56	0	0	2376	6	3839	3995
57	0	0	2141	5	3840	3996
58	0	0	1925	6	3841	3996
59	0	0	1763	7	3839	3996
60	0	0	1654	5	3840	3995
61	0	0	1579	7	3839	3998
62	0	0	1520	6	3838	3995
63	0	0	1462	6	3839	3992
64	0	0	1512	14	3838	3995
65	0	0	1649	8	3840	3995
66	0	0	1789	10	3841	3996
67	0	0	1940	10	3840	3995
68	0	0	2089	10	3840	3995
69	0	0	2244	11	3840	3996
70	0	0	2373	7	3841	3996
71	0	0	2468	10	3840	3998
72	0	0	2572	11	3840	3995
73	0	0	2715	8	3840	3996
74	0	0	2691	7	3838	3996
75	0	0	2542	3	3839	3997
76	0	0	2376	6	3839	3998
77	0	0	2142	6	3839	3995
78	0	0	1915	4	3840	3996
79	0	0	1755	7	3840	3996
80	0	0	1643	6	3840	3997
81	0	0	1573	7	3840	3999
82	0	0	1519	7	3839	3996
83	0	0	1458	6	3841	3996
84	0	0	1510	12	3839	3995
85	0	0	1652	8	3841	3997
86	0	0	1790	10	3838	3997
87	0	0	1940	10	3840	3996
88	0	0	2086	10	3841	3996
89	0	0	2243	10	3841	3998
90	0	0	2371	10	3840	3998
91	0	0	2460	10	3841	3998
92	0	0	2558	11	3839	3996
93	0	0	2704	10	3839	3998
94	0	0	2686	6	3840	3996
95	0	0	2546	6	3840	3998
96	0	0	2374	6	3839	3999
97	0	0	2138	5	3840	3997
98	0	0	1912	5	3839	3996
99	0	0	1758	8	3840	3996
100	0	0	1651	6	3841	3997
101	0	0	1579	6	3840	3997
102	0	0	1520	6	3840	3997
103	0	0	1464	6	3841	3996
104	0	0	1513	11	3839	3997
105	0	0	1651	8	3841	3998
106	0	0	1795	11	3840	3999
107	0	0	1941	10	3840	3997
108	0	0	2092	10	3840	3998
109	0	0	2244	10	3840	3997
110	0	0	2375	8	3840	3998
111	0	0	2466	10	3840	3999
112	0	0	2566	14	3838	3997
113	0	0	2714	10	3838	3998
114	0	0	2694	7	3839	3998
115	0	0	2547	6	3841	3998
116	0	0	2379	7	3839	3999
117	0	0	2147	4	3840	3998
118	0	0	1924	8	3841	3998
119	0	0	1768	10	3840	3997
120	0	0	1659	4	3841	3998
121	0	0	1587	6	3839	3998
122	0	0	1529	6	3841	3999
123	0	0	1462	7	3839	3998
124	0	0	1510	10	3840	3997
125	0	0	1652	10	3840	3999
126	0	0	1796	11	3840	3999
127	0	0	1940	10	3839	3998
0	0	0	2092	10	3839	3999
1	0	0	2246	11	3838	3999
2	0	0	2376	10	3840	3999
3	0	0	2466	11	3839	3998
4	0	0	2567	8	3839	3998
5	0	0	2715	12	3839	3998
6	0	0	2699	7	3842	3996
7	0	0	2552	7	3841	3999
8	0	0	2383	8	3839	3998
9	0	0	2149	6	3840	3998
10	0	0	1927	8	3839	3998
11	0	0	1771	6	3840	3999
12	0	0	1662	5	3841	4000
13	0	0	1586	6	3840	3998
14	0	0	1529	6	3840	4000
15	0	0	1461	8	3839	3999
16	0	0	1509	11	3839	3999
17	0	0	1641	13	3838	3999
18	0	0	1782	11	3839	3998
19	0	0	1934	10	3839	3998
20	0	0	2083	14	3839	3998
21	0	0	2238	11	3840	4000
22	0	0	2368	5	3841	3999
23	0	0	2459	9	3840	3998
24	0	0	2555	10	3840	3999
25	0	0	2705	12	3839	3999
26	0	0	2691	7	3839	3999
27	0	0	2547	11	3840	3999
28	0	0	2378	5	3839	3998
29	0	0	2141	6	3840	3999
30	0	0	1924	6	3841	4000
31	0	0	1767	7	3839	4000
32	0	0	1654	7	3840	3999
33	0	0	1585	7	3839	3999
34	0	0	1525	6	3839	3999
35	0	0	1457	10	3838	3999
36	0	0	1507	9	3840	4000
37	0	0	1648	9	3839	4000
38	0	0	1786	9	3840	3999
39	0	0	1938	7	3842	4000
40	0	0	2082	11	3841	4000
41	0	0	2235	11	3843	4000
42	0	0	2370	10	3841	4001
43	0	0	2464	10	3840	3999
44	0	0	2567	8	3841	4001
45	0	0	2717	11	3840	4000
46	0	0	2705	6	3842	3999
47	0	0	2566	7	3840	4001
48	0	0	2390	6	3839	3999
49	0	0	2156	3	3840	4001
50	0	0	1931	6	3841	4000
51	0	0	1772	7	3841	4000
52	0	0	1661	6	3840	4001
53	0	0	1589	7	3838	4002
54	0	0	1544	4	3841	4001
55	0	0	1480	7	3841	3999
56	0	0	1519	10	3842	4000
57	0	0	1653	9	3841	4001
58	0	0	1783	10	3839	3999
59	0	0	1939	11	3839	3999
60	0	0	2087	9	3840	3998
61	0	0	2248	10	3842	4000
62	0	0	2380	13	3840	4000
63	0	0	2473	11	3838	4000
64	0	0	2575	7	3839	3999
65	0	0	2715	15	3838	3999
66	0	0	2698	8	3840	4000
67	0	0	2556	4	3839	4001
68	0	0	2387	6	3838	4000
69	0	0	2158	4	3839	4000
70	0	0	1930	10	3839	3999
71	0	0	1773	8	3840	4000
72	0	0	1658	11	3841	4001
73	0	0	1590	6	3841	4000
74	0	0	1540	4	3841	4001
75	0	0	1476	7	3841	4001
76	0	0	1521	12	3841	4000
77	0	0	1652	14	3841	4000
78	0	0	1785	10	3840	4001
79	0	0	1934	9	3839	3999
80	0	0	2082	12	3840	4001
81	0	0	2240	9	3841	4000
82	0	0	2372	9	3839	4000
83	0	0	2463	10	3839	4000
84	0	0	2563	9	3840	4000
85	0	0	2711	11	3839	4000
86	0	0	2699	7	3841	4000
87	0	0	2551	4	3839	4000
88	0	0	2382	10	3839	4001
89	0	0	2152	6	3840	4000
90	0	0	1927	7	3840	4000
91	0	0	1766	5	3841	4000
92	0	0	1651	6	3841	4002
93	0	0	1579	6	3840	4000
94	0	0	1528	4	3840	4002
95	0	0	1466	7	3840	4000
96	0	0	1510	9	3840	4000
97	0	0	1647	9	3840	4001
98	0	0	1783	10	3839	4000
99	0	0	1935	10	3839	4000
100	0	0	2085	12	3839	4000
101	0	0	2237	11	3839	4002
102	0	0	2371	9	3839	4001
103	0	0	2463	10	3839	4000
104	0	0	2562	10	3840	4000
105	0	0	2710	10	3840	4001
106	0	0	2701	6	3841	4002
107	0	0	2561	5	3840	4001
108	0	0	2391	6	3840	4000
109	0	0	2161	5	3840	4000
110	0	0	1933	7	3840	4000
111	0	0	1773	6	3842	4000
112	0	0	1659	8	3840	4001
113	0	0	1591	7	3838	4000
114	0	0	1540	4	3840	4002
115	0	0	1475	6	3840	4002
116	0	0	1515	9	3839	4001
117	0	0	1649	10	3840	4000
118	0	0	1781	10	3838	4002
119	0	0	1932	11	3838	4000
120	0	0	2080	10	3840	4000
121	0	0	2237	11	3840	4000
122	0	0	2372	12	3840	4001
123	0	0	2465	10	3840	4000
124	0	0	2563	10	3840	4001
125	0	0	2709	10	3840	4000
126	0	0	2703	7	3839	4002
127	0	0	2564	8	3840	4001
0	0	0	2397	6	3839	4000
1	0	0	2168	6	3839	4001
2	0	0	1940	5	3840	4001
3	0	0	1777	7	3839	4001
4	0	0	1667	7	3839	4001
5	0	0	1594	6	3840	4002
6	0	0	1541	7	3840	4001
7	0	0	1472	7	3839	4000
8	0	0	1513	8	3840	4001
9	0	0	1650	8	3840	4001
10	0	0	1785	10	3840	4001
11	0	0	1934	8	3841	4001
12	0	0	2081	10	3840	4000
13	0	0	2238	9	3841	4000
14	0	0	2364	10	3841	4001
15	0	0	2458	14	3840	4000
16	0	0	2556	9	3840	4002
17	0	0	2708	10	3839	4001
18	0	0	2701	7	3839	4001
19	0	0	2562	6	3838	4001
20	0	0	2392	6	3839	4001
21	0	0	2161	6	3839	4001
22	0	0	1941	6	3839	4002
23	0	0	1782	6	3840	4002
24	0	0	1663	4	3840	4001
25	0	0	1587	6	3839	4001
26	0	0	1532	4	3840	4001
27	0	0	1466	6	3840	4001
28	0	0	1508	8	3842	4002
29	0	0	1641	11	3841	4002
30	0	0	1780	10	3840	4001
31	0	0	1928	10	3840	4001
32	0	0	2075	9	3840	4001
33	0	0	2228	9	3839	4003
34	0	0	2363	10	3840	4002
35	0	0	2455	10	3841	4002
36	0	0	2549	8	3839	4001
37	0	0	2703	11	3839	4002
38	0	0	2704	8	3840	4002
39	0	0	2565	6	3839	4001
40	0	0	2397	6	3839	4001
41	0	0	2165	3	3840	4001
42	0	0	1939	6	3840	4000
43	0	0	1774	7	3839	4002
44	0	0	1659	8	3840	4003
45	0	0	1585	6	3840	4001
46	0	0	1533	4	3840	4001
47	0	0	1464	7	3840	4001
48	0	0	1504	9	3839	4003
49	0	0	1637	10	3838	4002
50	0	0	1775	11	3840	4001
51	0	0	1930	9	3841	4002
52	0	0	2079	10	3842	4000
53	0	0	2233	11	3839	4001
54	0	0	2369	10	3840	4003
55	0	0	2461	10	3839	4000
56	0	0	2555	11	3840	4001
57	0	0	2706	7	3839	4001
58	0	0	2703	7	3840	4002
59	0	0	2567	7	3840	4002
60	0	0	2401	6	3840	4001
61	0	0	2168	6	3840	4001
62	0	0	1941	6	3840	4001
63	0	0	1773	6	3839	4003
64	0	0	1662	3	3841	4002
65	0	0	1586	6	3840	4003
66	0	0	1529	7	3840	4001
67	0	0	1460	7	3838	4001
68	0	0	1499	10	3838	4001
69	0	0	1636	11	3840	4002
70	0	0	1773	10	3843	4002
71	0	0	1916	14	3838	4001
72	0	0	2067	10	3839	4001
73	0	0	2227	10	3841	4003
74	0	0	2361	7	3839	4002
75	0	0	2458	11	3839	4001
76	0	0	2552	12	3839	4001
77	0	0	2706	11	3839	4001
78	0	0	2704	7	3841	4002
79	0	0	2564	7	3841	4002
80	0	0	2398	10	3839	4002
81	0	0	2177	6	3840	4003
82	0	0	1955	7	3841	4001
83	0	0	1783	6	3841	4002
84	0	0	1664	6	3841	4003
85	0	0	1588	6	3838	3999
86	0	0	1537	6	3840	4002
87	0	0	1465	5	3839	4001
88	0	0	1501	9	3838	4001
89	0	0	1637	7	3838	4003
90	0	0	1782	9	3839	4001
91	0	0	1934	10	3839	4001
92	0	0	2079	11	3839	4001
93	0	0	2235	10	3840	4001
94	0	0	2365	5	3840	4003
95	0	0	2460	8	3838	4002
96	0	0	2554	10	3840	4002
97	0	0	2706	11	3839	4001
98	0	0	2710	7	3840	4001
99	0	0	2569	3	3841	4002
100	0	0	2405	6	3840	4001
101	0	0	2172	6	3840	4001
102	0	0	1940	7	3838	4001
103	0	0	1775	6	3839	4001
104	0	0	1662	7	3840	4003
105	0	0	1589	6	3839	4001
106	0	0	1532	6	3839	4002
107	0	0	1465	7	3838	4002
108	0	0	1503	10	3840	4001
109	0	0	1638	8	3841	4001
110	0	0	1777	16	3840	4001
111	0	0	1926	11	3842	4003
112	0	0	2073	9	3841	4003
113	0	0	2233	10	3840	4002
114	0	0	2371	9	3842	4003
115	0	0	2462	10	3840	4002
116	0	0	2550	11	3840	4003
117	0	0	2707	11	3840	4001
118	0	0	2711	7	3837	4002
119	0	0	2574	5	3840	4003
120	0	0	2404	6	3839	4002
121	0	0	2170	6	3839	4003
122	0	0	1946	6	3840	4000
123	0	0	1779	7	3837	4002
124	0	0	1662	3	3839	4003
125	0	0	1587	6	3840	4003
126	0	0	1536	6	3838	4001
127	0	0	1468	11	3840	4002
0	0	0	1508	10	3841	4002
1	0	0	1640	8	3841	4003
2	0	0	1778	9	3840	4002
3	0	0	1931	14	3839	4002
4	0	0	2076	11	3839	4002
5	0	0	2230	10	3840	4002
6	0	0	2366	8	3841	4002
7	0	0	2463	10	3839	4002
8	0	0	2552	10	3839	4002
9	0	0	2708	12	3838	4002
10	0	0	2705	5	3839	4002
11	0	0	2570	6	3840	4003
12	0	0	2405	6	3839	4001
13	0	0	2175	7	3840	4003
14	0	0	1948	6	3840	3999
15	0	0	1779	6	3840	4003
16	0	0	1664	4	3841	4003
17	0	0	1591	6	3840	4002
18	0	0	1545	6	3840	4001
19	0	0	1477	5	3840	4002
20	0	0	1508	9	3840	4002
21	0	0	1638	10	3841	4002
22	0	0	1780	10	3839	4002
23	0	0	1932	10	3839	4000
24	0	0	2078	10	3840	4002
25	0	0	2229	10	3840	4002
26	0	0	2359	8	3840	4003
27	0	0	2459	10	3840	4004
28	0	0	2548	15	3838	4002
29	0	0	2711	10	3839	4004
30	0	0	2716	7	3842	4003
31	0	0	2581	4	3840	4003
32	0	0	2413	3	3840	4002
33	0	0	2181	5	3841	4002
34	0	0	1948	8	3841	4002
35	0	0	1774	6	3840	4002
36	0	0	1662	6	3842	4003
37	0	0	1589	7	3839	4002
38	0	0	1542	7	3840	4002
39	0	0	1469	8	3839	4002
40	0	0	1501	9	3840	4002
41	0	0	1633	10	3840	4003
42	0	0	1772	10	3839	4003
43	0	0	1921	9	3841	4003
44	0	0	2068	10	3840	4004
45	0	0	2223	10	3837	4002
46	0	0	2363	10	3840	4003
47	0	0	2461	8	3837	4002
48	0	0	2552	7	3839	4001
49	0	0	2711	8	3840	4002
50	0	0	2716	6	3840	4002
51	0	0	2582	6	3842	4003
52	0	0	2414	6	3840	4001
53	0	0	2186	6	3840	4002
54	0	0	1958	8	3839	4003
55	0	0	1789	6	3840	4002
56	0	0	1672	8	3840	4003
57	0	0	1595	7	3840	4003
58	0	0	1542	6	3839	4002
59	0	0	1474	6	3839	4004
60	0	0	1503	11	3840	4003
61	0	0	1630	10	3839	4002
62	0	0	1771	10	3840	4003
63	0	0	1921	9	3839	4002
64	0	0	2072	12	3839	4002
65	0	0	2225	11	3841	4004
66	0	0	2363	10	3842	4003
67	0	0	2458	11	3840	4002
68	0	0	2545	10	3840	4002
69	0	0	2703	10	3839	4004
70	0	0	2702	6	3839	4002
71	0	0	2569	6	3841	4004
72	0	0	2406	7	3840	4002
73	0	0	2179	6	3839	4001
74	0	0	1951	6	3840	4003
75	0	0	1782	5	3840	4004
76	0	0	1663	6	3840	4004
77	0	0	1587	6	3840	4003
78	0	0	1537	6	3839	4002
79	0	0	1462	8	3838	4002
80	0	0	1493	10	3837	4002
81	0	0	1625	11	3839	4003
82	0	0	1770	10	3840	4002
83	0	0	1921	11	3840	4003
84	0	0	2065	10	3841	4002
85	0	0	2221	9	3841	4001
86	0	0	2357	11	3841	4003
87	0	0	2452	16	3839	4002
88	0	0	2537	10	3840	4003
89	0	0	2694	10	3840	4003
90	0	0	2708	6	3838	4002
91	0	0	2575	6	3840	4004
92	0	0	2408	6	3839	4002
93	0	0	2183	4	3840	4003
94	0	0	1954	6	3840	4001
95	0	0	1782	6	3839	4003
96	0	0	1664	6	3840	4003
97	0	0	1586	7	3839	4002
98	0	0	1532	6	3840	4002
99	0	0	1459	10	3839	4003
100	0	0	1489	10	3839	4002
101	0	0	1618	10	3839	4003
102	0	0	1757	10	3840	4003
103	0	0	1908	10	3840	4002
104	0	0	2049	11	3840	4003
105	0	0	2211	10	3839	4002
106	0	0	2349	10	3839	4003
107	0	0	2449	10	3839	4002
108	0	0	2536	10	3839	4002
109	0	0	2691	10	3839	4003
110	0	0	2705	7	3840	4004
111	0	0	2570	8	3840	4003
112	0	0	2409	6	3840	4004
113	0	0	2180	8	3840	4001
114	0	0	1949	8	3839	4002
115	0	0	1781	6	3840	4001
116	0	0	1663	6	3840	4003
117	0	0	1586	6	3840	4003
118	0	0	1538	7	3839	4002
119	0	0	1462	7	3840	4003
120	0	0	1493	9	3840	4001
121	0	0	1629	10	3841	4004
122	0	0	1764	10	3839	4003
123	0	0	1916	8	3840	4003
124	0	0	2063	12	3839	4004
125	0	0	2217	11	3840	4003
126	0	0	2355	9	3839	4003
127	0	0	2457	10	3840	4004
0	0	0	2542	10	3840	4003
1	0	0	2702	11	3839	4002
2	0	0	2715	5	3839	4001
3	0	0	2580	6	3839	4003
4	0	0	2416	6	3840	4003
5	0	0	2186	5	3841	4003
6	0	0	1957	6	3841	4003
7	0	0	1792	4	3840	4002
8	0	0	1679	5	3841	4003
9	0	0	1599	6	3840	4003
10	0	0	1545	4	3841	4002
11	0	0	1462	7	3840	4003
12	0	0	1492	10	3839	4002
13	0	0	1626	9	3839	4004
14	0	0	1761	10	3839	4003
15	0	0	1913	10	3839	4003
16	0	0	2053	10	3840	4005
17	0	0	2214	10	3840	4004
18	0	0	2353	10	3839	4003
19	0	0	2454	11	3840	4003
20	0	0	2536	11	3839	4002
21	0	0	2688	9	3839	4002
22	0	0	2704	7	3839	4001
23	0	0	2572	6	3841	4004
24	0	0	2407	7	3840	4003
25	0	0	2186	6	3840	4004
26	0	0	1954	7	3839	4003
27	0	0	1791	6	3840	4003
28	0	0	1669	6	3840	4003
29	0	0	1590	6	3839	4004
30	0	0	1542	7	3839	4002
31	0	0	1465	5	3839	4002
32	0	0	1495	10	3839	4003
33	0	0	1624	10	3838	4003
34	0	0	1759	10	3839	4003
35	0	0	1917	10	3839	4003
36	0	0	2060	7	3839	4003
37	0	0	2215	9	3841	4003
38	0	0	2351	14	3839	4004
39	0	0	2452	8	3838	4003
40	0	0	2537	10	3840	4003
41	0	0	2688	7	3839	4002
42	0	0	2707	7	3841	4003
43	0	0	2580	5	3839	4002
44	0	0	2419	6	3839	4003
45	0	0	2195	5	3839	4003
46	0	0	1963	3	3839	4003
47	0	0	1795	6	3839	4002
48	0	0	1676	7	3840	4004
49	0	0	1595	7	3839	4002
50	0	0	1542	6	3838	4003
51	0	0	1465	5	3839	4002
52	0	0	1491	8	3840	4003
53	0	0	1618	10	3840	4002
54	0	0	1758	11	3840	4002
55	0	0	1905	9	3842	4004
56	0	0	2050	9	3841	4005
57	0	0	2204	9	3840	4003
58	0	0	2342	11	3841	4004
59	0	0	2444	10	3840	4003
60	0	0	2536	11	3841	4004
61	0	0	2699	10	3840	4004
62	0	0	2718	6	3840	4005
63	0	0	2589	7	3841	4004
64	0	0	2422	6	3839	4003
65	0	0	2199	6	3838	4002
66	0	0	1965	5	3840	4003
67	0	0	1792	5	3839	4004
68	0	0	1673	7	3840	4003
69	0	0	1592	6	3839	4003
70	0	0	1538	6	3840	4003
71	0	0	1464	5	3839	4002
72	0	0	1491	8	3840	4003
73	0	0	1615	10	3841	4005
74	0	0	1759	10	3841	4005
75	0	0	1904	9	3841	4004
76	0	0	2048	10	3840	4003
77	0	0	2208	10	3840	4005
78	0	0	2347	9	3841	4004
79	0	0	2449	10	3839	4005
80	0	0	2536	10	3837	4002
81	0	0	2693	11	3840	4003
82	0	0	2711	6	3837	4004
83	0	0	2584	6	3840	4005
84	0	0	2421	6	3839	4003
85	0	0	2198	6	3839	4003
86	0	0	1967	6	3840	4003
87	0	0	1796	6	3840	4003
88	0	0	1677	8	3841	4004
89	0	0	1601	7	3840	4003
90	0	0	1547	6	3840	4003
91	0	0	1469	6	3840	4003
92	0	0	1492	10	3841	4005
93	0	0	1616	10	3840	4002
94	0	0	1756	10	3841	4004
95	0	0	1907	8	3839	4003
96	0	0	2049	10	3840	4003
97	0	0	2208	10	3840	4006
98	0	0	2349	8	3841	4004
99	0	0	2450	12	3839	4004
100	0	0	2532	11	3839	4003
101	0	0	2689	8	3839	4002
102	0	0	2709	8	3840	4004
103	0	0	2586	6	3840	4003
104	0	0	2426	6	3841	4002
105	0	0	2203	5	3842	4004
106	0	0	1975	6	3842	4005
107	0	0	1802	6	3840	4006
108	0	0	1682	7	3841	4004
109	0	0	1608	6	3841	4004
110	0	0	1555	4	3840	4003
111	0	0	1474	6	3840	4003
112	0	0	1491	10	3840	4006
113	0	0	1612	10	3838	4003
114	0	0	1753	10	3840	4003
115	0	0	1904	12	3839	4003
116	0	0	2050	10	3840	4003
117	0	0	2202	9	3840	4005
118	0	0	2341	11	3840	4003
119	0	0	2443	7	3839	4002
120	0	0	2530	11	3840	4003
121	0	0	2698	8	3841	4003
122	0	0	2718	6	3841	4006
123	0	0	2596	6	3841	4005
124	0	0	2427	7	3840	4003
125	0	0	2199	5	3841	4004
126	0	0	1971	6	3841	4004
127	0	0	1799	6	3840	4005
0	0	0	1678	6	3840	4003
1	0	0	1598	6	3839	4003
2	0	0	1543	7	3839	4003
3	0	0	1464	7	3840	4003
4	0	0	1487	10	3840	4006
5	0	0	1614	10	3837	4003
6	0	0	1753	10	3839	4003
7	0	0	1901	11	3839	4003
8	0	0	2049	11	3840	4004
9	0	0	2207	9	3841	4004
10	0	0	2350	10	3842	4004
11	0	0	2451	10	3840	4003
12	0	0	2537	10	3841	4002
13	0	0	2701	10	3840	4003
14	0	0	2726	6	3838	4001
15	0	0	2600	6	3838	4003
16	0	0	2439	6	3840	4004
17	0	0	2217	7	3840	4004
18	0	0	1984	6	3838	4003
19	0	0	1807	4	3840	4004
20	0	0	1682	6	3838	4003
21	0	0	1601	7	3840	4003
22	0	0	1547	7	3839	4005
23	0	0	1463	6	3840	4003
24	0	0	1482	9	3839	4004
25	0	0	1607	10	3838	4004
26	0	0	1747	10	3840	4003
27	0	0	1901	7	3842	4000
28	0	0	2048	10	3839	4003
29	0	0	2207	13	3840	4002
30	0	0	2351	10	3838	4003
31	0	0	2457	10	3840	4003
32	0	0	2539	8	3841	4002
33	0	0	2699	11	3840	4004
34	0	0	2721	5	3838	4001
35	0	0	2598	6	3839	4004
36	0	0	2440	7	3840	4003
37	0	0	2220	8	3840	4006
38	0	0	1988	7	3840	4004
39	0	0	1808	7	3839	4002
40	0	0	1679	6	3838	4003
41	0	0	1587	6	3840	4004
42	0	0	1525	7	3841	4003
43	0	0	1440	7	3840	4004
44	0	0	1455	10	3840	4004
45	0	0	1576	10	3839	4003
46	0	0	1722	10	3841	4005
47	0	0	1874	11	3840	4003
48	0	0	2029	10	3839	4003
49	0	0	2197	10	3841	4005
50	0	0	2348	10	3838	4002
51	0	0	2459	12	3839	4003
52	0	0	2550	11	3840	4004
53	0	0	2718	9	3839	4004
54	0	0	2751	6	3840	4005
55	0	0	2626	6	3836	4003
56	0	0	2465	8	3838	4003
57	0	0	2238	2	3841	4002
58	0	0	1994	6	3840	4004
59	0	0	1810	6	3841	4006
60	0	0	1674	6	3841	4004
61	0	0	1576	6	3840	4003
62	0	0	1524	7	3842	4005
63	0	0	1437	5	3841	4002
64	0	0	1439	8	3840	4005
65	0	0	1567	10	3838	4003
66	0	0	1712	10	3840	4003
67	0	0	1873	8	3841	4004
68	0	0	2036	10	3841	4003
69	0	0	2206	10	3840	4005
70	0	0	2359	9	3839	4003
71	0	0	2473	11	3839	4003
72	0	0	2558	8	3841	4002
73	0	0	2722	8	3839	4004
74	0	0	2767	8	3839	4005
75	0	0	2644	6	3841	4004
76	0	0	2471	6	3840	4003
77	0	0	2232	5	3840	4003
78	0	0	1983	6	3839	4003
79	0	0	1790	6	3841	4004
80	0	0	1652	6	3841	4004
81	0	0	1558	6	3841	4005
82	0	0	1505	6	3838	4004
83	0	0	1434	7	3840	4003
84	0	0	1447	10	3840	4006
85	0	0	1572	9	3839	4004
86	0	0	1718	8	3839	4003
87	0	0	1879	7	3839	4003
88	0	0	2036	8	3840	4004
89	0	0	2209	10	3840	4006
90	0	0	2364	10	3840	4005
91	0	0	2479	10	3839	4003
92	0	0	2561	10	3839	4003
93	0	0	2724	11	3840	4003
94	0	0	2767	6	3840	4003
95	0	0	2641	6	3841	4004
96	0	0	2476	6	3841	4004
97	0	0	2241	7	3840	4004
98	0	0	1983	6	3840	4003
99	0	0	1782	7	3840	4006
100	0	0	1645	6	3840	4003
101	0	0	1555	7	3838	4005
102	0	0	1510	5	3841	4004
103	0	0	1435	7	3840	4002
104	0	0	1446	10	3840	4003
105	0	0	1573	10	3840	4003
106	0	0	1724	8	3838	4003
107	0	0	1883	10	3839	4003
108	0	0	2040	10	3840	4002
109	0	0	2213	10	3840	4002
110	0	0	2369	10	3840	4004
111	0	0	2490	11	3840	3983
112	0	0	2575	10	3840	3963
113	0	0	2734	10	3840	3942
114	0	0	2776	7	3840	3921
115	0	0	2645	8	3840	3900
116	0	0	2475	6	3839	3879
117	0	0	2242	5	3840	3858
118	0	0	1989	6	3840	3836
119	0	0	1795	6	3839	3815
120	0	0	1654	8	3840	3795
121	0	0	1557	7	3839	3774
122	0	0	1504	6	3839	3753
123	0	0	1429	6	3838	3732
124	0	0	1444	11	3840	3713
125	0	0	1569	10	3840	3691
126	0	0	1717	10	3839	3670
127	0	0	1883	8	3841	3650
0	0	0	2054	8	3842	3629
1	0	0	2223	8	3841	3609
2	0	0	2381	10	3841	3590
3	0	0	2490	11	3840	3568
4	0	0	2573	10	3840	3550
5	0	0	2738	10	3840	3531
6	0	0	2778	7	3840	3510
7	0	0	2652	6	3841	3491
8	0	0	2482	6	3839	3471
9	0	0	2244	6	3839	3452
10	0	0	1994	6	3841	3433
11	0	0	1791	6	3840	3413
12	0	0	1650	6	3840	3396
13	0	0	1555	6	3839	3377
14	0	0	1504	5	3839	3358
15	0	0	1429	6	3841	3340
16	0	0	1447	11	3840	3322
17	0	0	1573	11	3840	3306
18	0	0	1719	10	3840	3287
19	0	0	1881	8	3841	3270
20	0	0	2044	12	3841	3252
21	0	0	2220	10	3839	3233
22	0	0	2378	9	3841	3218
23	0	0	2493	11	3840	3200
24	0	0	2575	11	3839	3184
25	0	0	2735	12	3840	3167
26	0	0	2780	8	3840	3150
27	0	0	2654	6	3838	3134
28	0	0	2484	6	3839	3117
29	0	0	2244	6	3839	3101
30	0	0	1998	7	3840	3085
31	0	0	1798	5	3841	3069
32	0	0	1651	8	3840	3054
33	0	0	1559	6	3839	3038
34	0	0	1506	6	3840	3023
35	0	0	1434	8	3840	3007
36	0	0	1445	10	3841	2992
37	0	0	1568	10	3840	2976
38	0	0	1715	9	3841	2963
39	0	0	1874	10	3840	2947
40	0	0	2041	11	3840	2932
41	0	0	2212	10	3840	2918
42	0	0	2368	10	3838	2904
43	0	0	2483	10	3839	2889
44	0	0	2561	9	3839	2875
45	0	0	2731	13	3840	2861
46	0	0	2772	7	3839	2847
47	0	0	2646	6	3840	2834
48	0	0	2475	6	3840	2819
49	0	0	2243	6	3840	2806
50	0	0	1993	7	3841	2793
51	0	0	1792	6	3841	2780
52	0	0	1648	6	3840	2767
53	0	0	1555	6	3842	2754
54	0	0	1496	7	3840	2740
55	0	0	1416	9	3840	2727
56	0	0	1428	9	3840	2714
57	0	0	1558	11	3840	2702
58	0	0	1706	10	3840	2689
59	0	0	1870	8	3839	2676
60	0	0	2036	10	3840	2664
61	0	0	2210	9	3839	2652
62	0	0	2369	10	3838	2641
63	0	0	2486	13	3837	2628
64	0	0	2566	10	3840	2616
65	0	0	2730	11	3840	2604
66	0	0	2783	9	3840	2592
67	0	0	2659	8	3842	2581
68	0	0	2487	6	3840	2569
69	0	0	2251	6	3841	2558
70	0	0	1994	6	3841	2546
71	0	0	1790	5	3840	2534
72	0	0	1644	8	3840	2523
73	0	0	1545	7	3840	2512
74	0	0	1487	6	3839	2501
75	0	0	1419	7	3839	2490
76	0	0	1428	8	3840	2480
77	0	0	1553	11	3838	2469
78	0	0	1705	11	3839	2458
79	0	0	1868	11	3839	2447
80	0	0	2035	10	3840	2437
81	0	0	2213	10	3841	2427
82	0	0	2371	11	3843	2417
83	0	0	2497	10	3842	2407
84	0	0	2573	15	3840	2395
85	0	0	2730	9	3840	2386
86	0	0	2780	8	3840	2376
87	0	0	2652	9	3837	2365
88	0	0	2480	5	3839	2356
89	0	0	2242	6	3840	2346
90	0	0	1984	6	3839	2337
91	0	0	1783	7	3840	2327
92	0	0	1643	3	3842	2318
93	0	0	1548	6	3839	2309
94	0	0	1501	6	3837	2299
95	0	0	1429	6	3840	2290
96	0	0	1440	9	3840	2280
97	0	0	1562	10	3839	2272
98	0	0	1708	10	3840	2262
99	0	0	1872	11	3841	2254
100	0	0	2037	9	3842	2245
101	0	0	2212	10	3838	2235
102	0	0	2369	10	3841	2227
103	0	0	2486	10	3840	2217
104	0	0	2566	10	3840	2208
105	0	0	2728	10	3837	2200
106	0	0	2777	9	3840	2191
107	0	0	2651	6	3839	2183
108	0	0	2487	7	3839	2174
109	0	0	2258	6	3836	2167
110	0	0	2003	6	3839	2158
111	0	0	1798	6	3840	2149
112	0	0	1652	6	3839	2141
113	0	0	1552	6	3839	2132
114	0	0	1502	7	3840	2126
115	0	0	1432	6	3841	2117
116	0	0	1433	10	3841	2109
117	0	0	1559	10	3841	2101
118	0	0	1705	9	3840	2093
119	0	0	1862	10	3840	2086
120	0	0	2029	7	3839	2077
121	0	0	2204	10	3841	2069
122	0	0	2367	10	3840	2062
123	0	0	2488	10	3839	2055
124	0	0	2571	12	3839	2046
125	0	0	2736	9	3839	2039
126	0	0	2788	10	3840	2032
127	0	0	2660	8	3839	2024
0	0	0	2489	6	3839	2017
1	0	0	2257	8	3839	2010
2	0	0	2001	2	3840	2002
3	0	0	1799	6	3842	1995
4	0	0	1654	6	3842	1988
5	0	0	1557	7	3841	1981
6	0	0	1506	6	3839	1974
7	0	0	1433	4	3839	1967
8	0	0	1437	10	3840	1959
9	0	0	1562	9	3839	1952
10	0	0	1706	10	3841	1946
11	0	0	1871	11	3840	1939
12	0	0	2036	9	3839	1933
13	0	0	2214	9	3840	1925
14	0	0	2375	10	3839	1920
15	0	0	2493	10	3839	1912
16	0	0	2575	10	3839	1906
17	0	0	2736	10	3840	1899
18	0	0	2784	8	3840	1892
19	0	0	2661	6	3840	1886
20	0	0	2489	6	3840	1880
21	0	0	2249	8	3840	1874
22	0	0	1994	2	3841	1867
23	0	0	1790	6	3841	1861
24	0	0	1642	6	3843	1854
25	0	0	1548	7	3840	1848
26	0	0	1495	7	3838	1843
27	0	0	1430	6	3839	1837
28	0	0	1436	9	3840	1830
29	0	0	1562	10	3839	1824
30	0	0	1713	10	3839	1818
31	0	0	1873	10	3836	1812
32	0	0	2035	9	3839	1805
33	0	0	2210	9	3840	1800
34	0	0	2374	9	3839	1794
35	0	0	2496	10	3839	1789
36	0	0	2574	10	3841	1782
37	0	0	2733	10	3839	1777
38	0	0	2782	8	3840	1771
39	0	0	2665	6	3841	1765
40	0	0	2493	5	3840	1760
41	0	0	2261	6	3840	1754
42	0	0	2008	6	3841	1748
43	0	0	1798	6	3841	1743
44	0	0	1650	6	3840	1737
45	0	0	1548	7	3840	1731
46	0	0	1492	7	3840	1726
47	0	0	1421	5	3840	1721
48	0	0	1424	11	3840	1714
49	0	0	1548	11	3839	1710
50	0	0	1703	10	3839	1705
51	0	0	1868	10	3839	1699
52	0	0	2037	9	3839	1695
53	0	0	2212	12	3841	1689
54	0	0	2369	11	3843	1684
55	0	0	2490	10	3844	1678
56	0	0	2570	10	3840	1673
57	0	0	2728	10	3840	1667
58	0	0	2779	9	3840	1664
59	0	0	2657	8	3839	1657
60	0	0	2490	6	3840	1653
61	0	0	2255	6	3839	1647
62	0	0	1998	5	3839	1643
63	0	0	1790	9	3839	1638
64	0	0	1642	8	3839	1633
65	0	0	1545	6	3838	1628
66	0	0	1496	6	3839	1623
67	0	0	1427	7	3839	1618
68	0	0	1428	10	3839	1614
69	0	0	1552	10	3840	1608
70	0	0	1702	10	3840	1605
71	0	0	1869	10	3841	1598
72	0	0	2033	9	3842	1594
73	0	0	2207	11	3841	1589
74	0	0	2369	10	3841	1585
75	0	0	2492	10	3840	1580
76	0	0	2571	10	3841	1575
77	0	0	2729	9	3840	1571
78	0	0	2786	11	3839	1567
79	0	0	2668	6	3840	1562
80	0	0	2497	8	3839	1558
81	0	0	2263	5	3841	1552
82	0	0	2005	5	3840	1550
83	0	0	1802	7	3839	1544
84	0	0	1652	7	3840	1540
85	0	0	1550	6	3840	1536
86	0	0	1500	6	3841	1529
87	0	0	1424	6	3841	1520
88	0	0	1427	10	3841	1521
89	0	0	1551	10	3840	1517
90	0	0	1698	9	3840	1513
91	0	0	1868	10	3840	1509
92	0	0	2032	9	3840	1504
93	0	0	2208	11	3840	1500
94	0	0	2370	10	3840	1496
95	0	0	2494	9	3841	1492
96	0	0	2572	11	3840	1488
97	0	0	2730	11	3837	1484
98	0	0	2788	10	3839	1480
99	0	0	2673	6	3839	1477
100	0	0	2504	5	3839	1472
101	0	0	2265	6	3840	1467
102	0	0	2009	7	3840	1464
103	0	0	1802	6	3841	1460
104	0	0	1650	7	3840	1456
105	0	0	1549	6	3840	1451
106	0	0	1492	6	3841	1447
107	0	0	1424	7	3841	1444
108	0	0	1432	11	3841	1439
109	0	0	1552	10	3841	1436
110	0	0	1702	9	3839	1432
111	0	0	1867	10	3841	1429
112	0	0	2030	9	3837	1425
113	0	0	2210	9	3840	1421
114	0	0	2366	10	3839	1418
115	0	0	2482	10	3839	1413
116	0	0	2567	10	3839	1409
117	0	0	2728	9	3837	1406
118	0	0	2789	8	3839	1403
119	0	0	2664	1	3839	1401
120	0	0	2491	6	3840	1394
121	0	0	2264	5	3840	1390
122	0	0	2009	4	3841	1387
123	0	0	1801	7	3841	1383
124	0	0	1653	6	3840	1381
125	0	0	1549	6	3841	1376
126	0	0	1499	9	3840	1373
127	0	0	1431	4	3840	1370
0	0	0	1435	10	3840	1365
1	0	0	1554	10	3839	1364
2	0	0	1704	10	3839	1359
3	0	0	1863	10	3840	1354
4	0	0	2027	11	3840	1351
5	0	0	2208	10	3840	1349
6	0	0	2370	10	3839	1347
7	0	0	2494	10	3840	1341
8	0	0	2573	10	3839	1338
9	0	0	2729	10	3841	1335
10	0	0	2792	10	3840	1331
11	0	0	2672	6	3840	1328
12	0	0	2503	7	3840	1324
13	0	0	2275	5	3840	1321
14	0	0	2010	5	3840	1318
15	0	0	1801	6	3841	1315
16	0	0	1649	6	3839	1313
17	0	0	1548	6	3839	1309
18	0	0	1494	6	3839	1305
19	0	0	1422	8	3839	1304
20	0	0	1422	10	3840	1298
21	0	0	1542	10	3839	1297
22	0	0	1695	10	3839	1292
23	0	0	1863	10	3838	1290
24	0	0	2033	9	3841	1286
25	0	0	2206	9	3840	1283
26	0	0	2369	10	3840	1280
27	0	0	2498	10	3842	1276
28	0	0	2580	7	3841	1273
29	0	0	2737	8	3840	1270
30	0	0	2792	9	3841	1268
31	0	0	2668	7	3840	1265
32	0	0	2494	5	3839	1262
33	0	0	2259	6	3839	1258
34	0	0	1998	8	3840	1256
35	0	0	1791	5	3840	1253
36	0	0	1647	8	3840	1250
37	0	0	1547	6	3839	1247
38	0	0	1495	7	3839	1244
39	0	0	1426	8	3839	1243
40	0	0	1424	10	3840	1239
41	0	0	1548	10	3840	1235
42	0	0	1700	11	3841	1231
43	0	0	1867	10	3840	1229
44	0	0	2028	8	3840	1226
45	0	0	2201	9	3842	1223
46	0	0	2359	10	3840	1219
47	0	0	2486	9	3841	1218
48	0	0	2573	10	3839	1215
49	0	0	2735	10	3841	1212
50	0	0	2803	10	3840	1209
51	0	0	2681	6	3840	1206
52	0	0	2512	7	3840	1203
53	0	0	2277	6	3841	1200
54	0	0	2014	4	3840	1198
55	0	0	1801	6	3840	1194
56	0	0	1650	6	3839	1192
57	0	0	1552	5	3839	1190
58	0	0	1504	7	3839	1188
59	0	0	1435	6	3841	1184
60	0	0	1426	10	3840	1181
61	0	0	1545	10	3840	1179
62	0	0	1698	9	3841	1176
63	0	0	1857	10	3839	1175
64	0	0	2027	10	3841	1171
65	0	0	2205	10	3841	1169
66	0	0	2370	10	3840	1165
67	0	0	2490	10	3840	1163
68	0	0	2566	10	3839	1162
69	0	0	2724	12	3840	1158
70	0	0	2791	10	3840	1156
71	0	0	2678	6	3839	1153
72	0	0	2507	6	3840	1151
73	0	0	2278	6	3839	1147
74	0	0	2018	6	3840	1145
75	0	0	1806	6	3841	1143
76	0	0	1658	6	3840	1139
77	0	0	1554	8	3840	1138
78	0	0	1502	7	3841	1135
79	0	0	1433	7	3840	1131
80	0	0	1428	9	3840	1130
81	0	0	1545	10	3840	1127
82	0	0	1696	10	3840	1126
83	0	0	1861	11	3840	1123
84	0	0	2028	7	3841	1120
85	0	0	2204	9	3840	1118
86	0	0	2364	10	3839	1116
87	0	0	2492	11	3839	1114
88	0	0	2570	11	3840	1110
89	0	0	2728	10	3840	1108
90	0	0	2796	9	3840	1107
91	0	0	2682	7	3839	1104
92	0	0	2507	4	3839	1102
93	0	0	2273	6	3840	1099
94	0	0	2014	3	3841	1097
95	0	0	1802	5	3841	1094
96	0	0	1654	6	3840	1092
97	0	0	1556	7	3839	1090
98	0	0	1497	7	3841	1088
99	0	0	1431	6	3840	1085
100	0	0	1427	9	3840	1083
101	0	0	1545	10	3840	1080
102	0	0	1700	10	3840	1078
103	0	0	1858	10	3839	1077
104	0	0	2028	7	3839	1074
105	0	0	2207	9	3840	1072
106	0	0	2372	10	3839	1069
107	0	0	2491	10	3840	1067
108	0	0	2569	10	3839	1066
109	0	0	2725	9	3839	1063
110	0	0	2792	8	3841	1060
111	0	0	2680	6	3840	1058
112	0	0	2507	6	3840	1056
113	0	0	2281	4	3839	1055
114	0	0	2020	5	3841	1051
115	0	0	1807	3	3840	1050
116	0	0	1657	5	3840	1047
117	0	0	1555	6	3839	1046
118	0	0	1499	8	3839	1044
119	0	0	1431	4	3839	1043
120	0	0	1421	8	3839	1039
121	0	0	1540	8	3839	1038
122	0	0	1696	10	3839	1036
123	0	0	1859	10	3839	1034
124	0	0	2028	7	3840	1031
125	0	0	2201	9	3843	1029
126	0	0	2365	7	3840	1027
127	0	0	2486	10	3839	1023
0	0	0	2566	9	3839	1023
1	0	0	2720	14	3840	1020
2	0	0	2792	10	3841	1019
3	0	0	2680	7	3840	1017
4	0	0	2508	6	3840	1014
5	0	0	2281	6	3840	1013
6	0	0	2022	5	3840	1010
7	0	0	1801	7	3840	1009
8	0	0	1647	8	3839	1008
9	0	0	1552	6	3839	1005
10	0	0	1495	6	3838	1003
11	0	0	1428	5	3839	1001
12	0	0	1418	8	3840	999
13	0	0	1529	11	3842	996
14	0	0	1686	8	3841	995
15	0	0	1849	10	3841	993
16	0	0	2017	9	3840	991
17	0	0	2199	10	3841	989
18	0	0	2370	10	3840	987
19	0	0	2496	9	3841	985
20	0	0	2574	11	3839	984
21	0	0	2723	11	3840	982
22	0	0	2789	9	3840	980
23	0	0	2679	8	3837	980
24	0	0	2507	6	3840	976
25	0	0	2275	7	3840	975
26	0	0	2017	6	3840	972
27	0	0	1809	6	3840	970
28	0	0	1657	6	3839	970
29	0	0	1553	4	3840	966
30	0	0	1496	3	3840	965
31	0	0	1432	7	3840	963
32	0	0	1423	10	3841	961
33	0	0	1534	10	3840	959
34	0	0	1688	11	3841	957
35	0	0	1849	11	3842	953
36	0	0	2017	11	3840	954
37	0	0	2195	10	3841	952
38	0	0	2363	10	3839	952
39	0	0	2487	9	3840	948
40	0	0	2566	13	3839	946
41	0	0	2717	12	3839	946
42	0	0	2790	10	3839	943
43	0	0	2673	7	3838	942
44	0	0	2505	5	3839	941
45	0	0	2274	4	3839	939
46	0	0	2014	7	3840	936
47	0	0	1806	6	3841	934
48	0	0	1657	7	3840	934
49	0	0	1556	6	3840	932
50	0	0	1504	7	3840	929
51	0	0	1436	8	3840	927
52	0	0	1427	9	3841	925
53	0	0	1543	10	3840	924
54	0	0	1695	13	3841	922
55	0	0	1850	7	3840	922
56	0	0	2017	10	3839	919
57	0	0	2192	11	3840	917
58	0	0	2359	10	3838	917
59	0	0	2487	10	3838	915
60	0	0	2564	10	3840	912
61	0	0	2717	9	3839	913
62	0	0	2790	10	3840	910
63	0	0	2680	6	3840	908
64	0	0	2508	6	3840	906
65	0	0	2284	5	3840	905
66	0	0	2022	5	3840	904
67	0	0	1816	7	3840	901
68	0	0	1665	6	3842	900
69	0	0	1558	6	3840	899
70	0	0	1500	6	3842	898
71	0	0	1432	9	3840	895
72	0	0	1423	9	3840	893
73	0	0	1537	11	3839	893
74	0	0	1695	11	3839	891
75	0	0	1861	7	3839	890
76	0	0	2022	8	3839	889
77	0	0	2196	10	3840	885
78	0	0	2359	10	3838	887
79	0	0	2487	12	3841	884
80	0	0	2563	8	3840	881
81	0	0	2713	13	3840	879
82	0	0	2784	9	3841	877
83	0	0	2678	6	3840	875
84	0	0	2508	7	3841	875
85	0	0	2283	6	3840	874
86	0	0	2023	8	3840	873
87	0	0	1812	6	3841	870
88	0	0	1664	6	3840	867
89	0	0	1559	6	3839	869
90	0	0	1499	8	3840	866
91	0	0	1435	4	3839	867
92	0	0	1422	9	3839	865
93	0	0	1537	10	3839	863
94	0	0	1685	10	3838	861
95	0	0	1855	11	3840	859
96	0	0	2025	8	3840	859
97	0	0	2198	11	3840	856
98	0	0	2363	11	3842	854
99	0	0	2480	11	3840	853
100	0	0	2557	10	3841	852
101	0	0	2706	9	3841	850
102	0	0	2782	9	3840	849
103	0	0	2675	6	3840	847
104	0	0	2507	6	3840	846
105	0	0	2287	6	3839	846
106	0	0	2028	6	3841	844
107	0	0	1812	6	3840	842
108	0	0	1664	6	3839	840
109	0	0	1561	6	3839	840
110	0	0	1508	8	3839	840
111	0	0	1446	8	3838	837
112	0	0	1429	9	3840	834
113	0	0	1538	11	3839	833
114	0	0	1688	10	3840	832
115	0	0	1850	10	3841	830
116	0	0	2018	10	3841	828
117	0	0	2192	12	3841	827
118	0	0	2356	10	3841	826
119	0	0	2482	10	3840	825
120	0	0	2562	10	3842	823
121	0	0	2713	10	3840	822
122	0	0	2790	9	3841	820
123	0	0	2685	6	3839	819
124	0	0	2518	5	3839	819
125	0	0	2304	5	3840	817
126	0	0	2042	5	3839	816
127	0	0	1825	6	3840	814
0	0	0	1669	6	3839	812
1	0	0	1561	7	3839	812
2	0	0	1498	6	3840	812
3	0	0	1430	4	3840	810
4	0	0	1420	8	3841	807
5	0	0	1528	10	3840	805
6	0	0	1689	12	3840	806
7	0	0	1847	8	3840	804
8	0	0	2016	12	3839	803
9	0	0	2190	10	3841	802
10	0	0	2353	10	3840	799
11	0	0	2481	8	3841	799
12	0	0	2565	11	3838	797
13	0	0	2719	11	3839	797
14	0	0	2800	11	3840	793
15	0	0	2693	7	3839	792
16	0	0	2523	7	3838	793
17	0	0	2303	5	3839	793
18	0	0	2040	8	3839	790
19	0	0	1816	5	3841	788
20	0	0	1668	6	3840	785
21	0	0	1566	6	3840	786
22	0	0	1508	6	3842	787
23	0	0	1441	8	3839	785
24	0	0	1424	8	3840	782
25	0	0	1532	10	3840	780
26	0	0	1689	10	3840	780
27	0	0	1856	10	3841	779
28	0	0	2020	11	3840	777
29	0	0	2191	8	3839	777
30	0	0	2354	10	3840	775
31	0	0	2474	10	3839	775
32	0	0	2557	10	3838	773
33	0	0	2704	11	3838	771
34	0	0	2782	10	3839	771
35	0	0	2681	6	3839	770
36	0	0	2511	8	3840	768
37	0	0	2291	4	3840	767
38	0	0	2039	10	3839	767
39	0	0	1822	4	3841	765
40	0	0	1668	7	3840	762
41	0	0	1563	6	3841	762
42	0	0	1506	6	3841	760
43	0	0	1439	5	3839	762
44	0	0	1425	9	3840	759
45	0	0	1531	9	3841	758
46	0	0	1678	10	3839	758
47	0	0	1841	9	3839	755
48	0	0	2004	10	3837	754
49	0	0	2178	8	3840	752
50	0	0	2345	10	3839	753
51	0	0	2469	12	3839	752
52	0	0	2554	8	3840	750
53	0	0	2704	11	3840	748
54	0	0	2786	9	3841	748
55	0	0	2682	4	3840	744
56	0	0	2511	6	3840	745
57	0	0	2293	8	3840	745
58	0	0	2039	5	3839	744
59	0	0	1820	5	3841	742
60	0	0	1667	6	3840	741
61	0	0	1562	6	3841	740
62	0	0	1500	9	3839	740
63	0	0	1434	7	3838	740
64	0	0	1421	13	3839	738
65	0	0	1529	8	3839	736
66	0	0	1685	10	3839	735
67	0	0	1844	12	3839	735
68	0	0	2014	14	3839	732
69	0	0	2186	8	3840	731
70	0	0	2350	3	3839	730
71	0	0	2479	10	3840	731
72	0	0	2555	8	3840	728
73	0	0	2703	14	3841	725
74	0	0	2788	11	3841	725
75	0	0	2689	8	3839	726
76	0	0	2524	6	3840	724
77	0	0	2307	10	3839	724
78	0	0	2045	7	3839	722
79	0	0	1821	1	3839	722
80	0	0	1666	7	3839	720
81	0	0	1563	6	3839	720
82	0	0	1510	8	3839	719
83	0	0	1443	10	3838	716
84	0	0	1422	13	3839	716
85	0	0	1527	9	3839	714
86	0	0	1678	10	3840	715
87	0	0	1837	5	3841	713
88	0	0	2010	9	3841	712
89	0	0	2188	11	3841	711
90	0	0	2358	10	3841	709
91	0	0	2485	10	3840	709
92	0	0	2564	10	3840	708
93	0	0	2709	10	3841	706
94	0	0	2794	14	3840	705
95	0	0	2694	6	3840	704
96	0	0	2517	7	3840	703
97	0	0	2298	6	3840	703
98	0	0	2039	5	3840	701
99	0	0	1819	7	3838	701
100	0	0	1665	6	3839	701
101	0	0	1562	3	3841	698
102	0	0	1502	7	3840	695
103	0	0	1441	6	3840	696
104	0	0	1430	11	3841	695
105	0	0	1536	10	3840	694
106	0	0	1684	10	3840	693
107	0	0	1850	9	3840	693
108	0	0	2009	9	3840	692
109	0	0	2183	13	3841	690
110	0	0	2350	10	3840	689
111	0	0	2476	10	3840	688
112	0	0	2560	15	3839	688
113	0	0	2700	11	3840	687
114	0	0	2786	11	3839	687
115	0	0	2690	6	3840	684
116	0	0	2523	5	3838	685
117	0	0	2303	6	3840	683
118	0	0	2044	10	3841	682
119	0	0	1828	10	3842	681
120	0	0	1676	6	3840	680
121	0	0	1571	5	3840	679
122	0	0	1506	11	3839	679
123	0	0	1440	7	3841	678
124	0	0	1420	11	3839	677
125	0	0	1521	10	3839	677
126	0	0	1682	7	3840	675
127	0	0	1841	14	3839	675
0	0	0	2012	12	3840	671
1	0	0	2182	11	3841	671
2	0	0	2347	12	3840	671
3	0	0	2481	7	3840	670
4	0	0	2562	11	3839	672
5	0	0	2708	6	3841	669
6	0	0	2799	10	3840	667
7	0	0	2699	7	3839	665
8	0	0	2523	3	3841	665
9	0	0	2305	7	3841	662
10	0	0	2045	6	3843	665
11	0	0	1826	5	3841	663
12	0	0	1673	6	3840	662
13	0	0	1565	6	3840	662
14	0	0	1505	8	3840	662
15	0	0	1446	8	3840	659
16	0	0	1427	13	3840	658
17	0	0	1531	10	3839	659
18	0	0	1682	10	3839	658
19	0	0	1843	15	3838	656
20	0	0	2011	11	3840	655
21	0	0	2181	9	3840	654
22	0	0	2348	10	3840	653
23	0	0	2477	7	3840	653
24	0	0	2561	10	3840	651
25	0	0	2708	10	3841	651
26	0	0	2796	11	3841	649
27	0	0	2695	6	3840	649
28	0	0	2532	5	3840	648
29	0	0	2308	7	3840	648
30	0	0	2043	6	3842	620
31	0	0	1824	10	3841	646
32	0	0	1663	10	3839	645
33	0	0	1562	4	3840	644
34	0	0	1502	8	3841	642
35	0	0	1440	6	3841	643
36	0	0	1422	10	3840	641
37	0	0	1525	10	3839	639
38	0	0	1677	8	3840	642
39	0	0	1833	10	3839	641
40	0	0	2000	12	3839	640
41	0	0	2172	9	3840	637
42	0	0	2342	10	3840	636
43	0	0	2476	10	3840	635
44	0	0	2562	12	3840	636
45	0	0	2706	10	3840	634
46	0	0	2797	10	3841	633
47	0	0	2701	7	3839	633
48	0	0	2529	6	3839	633
49	0	0	2315	6	3840	630
50	0	0	2055	6	3841	630
51	0	0	1833	4	3839	630
52	0	0	1680	6	3840	629
53	0	0	1575	5	3839	629
54	0	0	1511	8	3839	628
55	0	0	1445	6	3841	627
56	0	0	1424	8	3840	625
57	0	0	1524	10	3838	625
58	0	0	1675	7	3840	623
59	0	0	1834	11	3840	623
60	0	0	2003	10	3839	623
61	0	0	2183	8	3841	621
62	0	0	2350	11	3845	621
63	0	0	2475	10	3840	620
64	0	0	2558	10	3840	620
65	0	0	2703	11	3841	618
66	0	0	2793	10	3840	616
67	0	0	2691	6	3839	618
68	0	0	2525	6	3841	615
69	0	0	2313	4	3840	616
70	0	0	2057	6	3839	616
71	0	0	1830	6	3839	614
72	0	0	1670	8	3840	614
73	0	0	1556	4	3840	612
74	0	0	1492	6	3840	612
75	0	0	1432	6	3839	611
76	0	0	1411	8	3840	610
77	0	0	1514	10	3840	609
78	0	0	1675	10	3840	609
79	0	0	1837	9	3840	607
80	0	0	2005	10	3839	608
81	0	0	2175	10	3839	607
82	0	0	2336	10	3840	606
83	0	0	2469	10	3840	605
84	0	0	2552	10	3840	604
85	0	0	2703	11	3839	604
86	0	0	2800	9	3840	602
87	0	0	2702	6	3839	602
88	0	0	2532	6	3841	601
89	0	0	2313	6	3838	599
90	0	0	2055	6	3839	601
91	0	0	1831	7	3840	599
92	0	0	1679	6	3840	598
93	0	0	1570	6	3840	598
94	0	0	1503	5	3840	596
95	0	0	1447	7	3839	595
96	0	0	1427	8	3840	595
97	0	0	1524	10	3840	594
98	0	0	1680	12	3840	595
99	0	0	1836	8	3839	594
100	0	0	2005	10	3839	593
101	0	0	2176	10	3841	592
102	0	0	2353	10	3838	592
103	0	0	2486	10	3841	593
104	0	0	2569	7	3839	590
105	0	0	2710	11	3838	588
106	0	0	2807	10	3839	589
107	0	0	2713	6	3839	588
108	0	0	2541	6	3840	587
109	0	0	2323	4	3840	585
110	0	0	2059	7	3839	585
111	0	0	1830	7	3840	583
112	0	0	1669	6	3840	584
113	0	0	1561	6	3840	583
114	0	0	1499	7	3840	582
115	0	0	1440	6	3840	582
116	0	0	1419	11	3840	581
117	0	0	1521	10	3840	580
118	0	0	1678	8	3839	581
119	0	0	1840	7	3839	580
120	0	0	2009	10	3839	579
121	0	0	2185	7	3839	579
122	0	0	2349	10	3839	578
123	0	0	2476	8	3840	577
124	0	0	2553	10	3840	575
125	0	0	2692	11	3843	575
126	0	0	2794	11	3840	573
127	0	0	2698	6	3844	574
0	0	0	2528	6	3840	573
1	0	0	2314	6	3840	573
2	0	0	2051	7	3839	573
3	0	0	1827	7	3841	571
4	0	0	1673	6	3840	570
5	0	0	1562	5	3841	569
6	0	0	1494	7	3840	567
7	0	0	1428	6	3839	570
8	0	0	1404	7	3839	568
9	0	0	1508	10	3839	569
10	0	0	1665	10	3838	567
11	0	0	1826	10	3840	567
12	0	0	1996	11	3840	565
13	0	0	2171	11	3841	564
14	0	0	2341	9	3840	564
15	0	0	2478	10	3841	563
16	0	0	2561	10	3841	560
17	0	0	2696	8	3841	562
18	0	0	2795	7	3840	561
19	0	0	2705	6	3839	562
20	0	0	2539	6	3841	558
21	0	0	2326	6	3841	559
22	0	0	2060	6	3840	559
23	0	0	1834	3	3840	557
24	0	0	1676	6	3839	559
25	0	0	1568	8	3840	556
26	0	0	1500	6	3840	559
27	0	0	1447	7	3840	555
28	0	0	1419	7	3839	556
29	0	0	1520	10	3839	555
30	0	0	1674	8	3841	552
31	0	0	1827	10	3841	551
32	0	0	1995	10	3841	552
33	0	0	2170	10	3842	552
34	0	0	2337	10	3840	550
35	0	0	2472	10	3840	550
36	0	0	2560	10	3841	553
37	0	0	2695	9	3840	549
38	0	0	2796	10	3840	548
39	0	0	2705	6	3839	548
40	0	0	2534	7	3840	547
41	0	0	2325	6	3840	547
42	0	0	2062	5	3841	546
43	0	0	1834	5	3840	545
44	0	0	1677	6	3839	546
45	0	0	1568	6	3840	545
46	0	0	1496	7	3840	543
47	0	0	1436	6	3842	543
48	0	0	1414	8	3840	542
49	0	0	1511	10	3840	542
50	0	0	1666	12	3839	543
51	0	0	1827	10	3841	537
52	0	0	1996	9	3841	541
53	0	0	2170	7	3840	539
54	0	0	2339	11	3840	539
55	0	0	2477	15	3839	540
56	0	0	2560	11	3840	535
57	0	0	2693	10	3840	537
58	0	0	2795	8	3840	537
59	0	0	2706	5	3839	537
60	0	0	2539	6	3839	536
61	0	0	2325	6	3837	536
62	0	0	2056	6	3840	534
63	0	0	1829	6	3842	533
64	0	0	1668	6	3840	533
65	0	0	1558	5	3839	534
66	0	0	1493	7	3840	532
67	0	0	1438	6	3840	531
68	0	0	1411	8	3841	530
69	0	0	1510	7	3839	530
70	0	0	1661	14	3839	531
71	0	0	1820	9	3840	528
72	0	0	1991	11	3840	528
73	0	0	2164	8	3840	528
74	0	0	2331	9	3839	529
75	0	0	2471	11	3840	526
76	0	0	2560	10	3837	528
77	0	0	2693	10	3840	526
78	0	0	2790	10	3840	526
79	0	0	2707	6	3840	525
80	0	0	2538	8	3840	522
81	0	0	2330	6	3841	523
82	0	0	2068	6	3842	523
83	0	0	1833	4	3841	522
84	0	0	1674	6	3840	522
85	0	0	1561	7	3839	522
86	0	0	1495	6	3840	521
87	0	0	1438	6	3840	521
88	0	0	1408	10	3840	519
89	0	0	1505	10	3839	521
90	0	0	1663	15	3838	519
91	0	0	1821	11	3838	519
92	0	0	1987	10	3840	518
93	0	0	2163	8	3840	517
94	0	0	2335	10	3839	518
95	0	0	2469	11	3840	516
96	0	0	2550	12	3839	516
97	0	0	2686	10	3841	515
98	0	0	2788	8	3840	514
99	0	0	2706	6	3841	513
100	0	0	2536	7	3842	513
101	0	0	2325	6	3843	513
102	0	0	2062	7	3841	513
103	0	0	1831	0	3839	513
104	0	0	1674	6	3841	510
105	0	0	1566	4	3840	509
106	0	0	1493	8	3839	510
107	0	0	1436	6	3838	509
108	0	0	1408	8	3840	507
109	0	0	1507	6	3836	510
110	0	0	1668	10	3840	507
111	0	0	1824	12	3838	507
112	0	0	1993	10	3840	506
113	0	0	2169	10	3842	505
114	0	0	2341	10	3841	505
115	0	0	2475	10	3842	503
116	0	0	2555	10	3843	504
117	0	0	2683	8	3840	504
118	0	0	2792	10	3841	502
119	0	0	2707	6	3840	503
120	0	0	2535	3	3839	502
121	0	0	2323	4	3840	501
122	0	0	2063	6	3840	501
123	0	0	1836	6	3841	500
124	0	0	1679	6	3839	502
125	0	0	1566	6	3839	500
126	0	0	1502	8	3838	499
127	0	0	1444	6	3840	499
0	0	0	1413	12	3840	496
1	0	0	1505	10	3840	498
2	0	0	1663	10	3840	496
3	0	0	1823	10	3841	496
4	0	0	1991	11	3842	495
5	0	0	2160	10	3839	497
6	0	0	2333	10	3842	494
7	0	0	2469	12	3840	494
8	0	0	2549	8	3840	493
9	0	0	2686	10	3840	493
10	0	0	2794	10	3840	493
11	0	0	2713	4	3837	494
12	0	0	2545	6	3840	492
13	0	0	2335	6	3840	491
14	0	0	2070	5	3840	491
15	0	0	1840	6	3840	490
16	0	0	1680	6	3839	491
17	0	0	1567	5	3842	489
18	0	0	1499	7	3841	489
19	0	0	1439	7	3840	488
20	0	0	1402	10	3841	488
21	0	0	1501	10	3841	487
22	0	0	1660	8	3840	487
23	0	0	1821	12	3839	487
24	0	0	1992	10	3840	486
25	0	0	2169	10	3841	485
26	0	0	2335	10	3839	485
27	0	0	2470	10	3840	484
28	0	0	2561	10	3840	484
29	0	0	2690	9	3840	483
30	0	0	2797	11	3839	484
31	0	0	2716	6	3838	484
32	0	0	2549	7	3839	483
33	0	0	2335	6	3840	482
34	0	0	2071	6	3840	481
35	0	0	1842	5	3842	479
36	0	0	1685	6	3840	480
37	0	0	1574	5	3841	479
38	0	0	1510	6	3841	482
39	0	0	1452	6	3841	479
40	0	0	1419	11	3840	478
41	0	0	1510	10	3840	478
42	0	0	1664	9	3842	477
43	0	0	1819	12	3839	476
44	0	0	1991	9	3839	478
45	0	0	2164	10	3840	476
46	0	0	2330	10	3839	476
47	0	0	2468	10	3839	476
48	0	0	2552	11	3839	474
49	0	0	2690	9	3840	473
50	0	0	2797	11	3839	474
51	0	0	2713	7	3840	473
52	0	0	2542	6	3840	473
53	0	0	2339	6	3841	473
54	0	0	2078	6	3840	472
55	0	0	1843	6	3842	471
56	0	0	1682	6	3840	471
57	0	0	1567	4	3841	470
58	0	0	1501	8	3839	469
59	0	0	1447	6	3839	471
60	0	0	1410	9	3839	470
61	0	0	1501	10	3839	470
62	0	0	1658	10	3839	469
63	0	0	1811	10	3839	469
64	0	0	1980	9	3840	467
65	0	0	2158	9	3839	468
66	0	0	2328	10	3839	467
67	0	0	2466	10	3840	466
68	0	0	2553	10	3840	466
69	0	0	2684	10	3841	465
70	0	0	2792	10	3840	465
71	0	0	2718	6	3840	464
72	0	0	2551	5	3840	463
73	0	0	2350	5	3840	464
74	0	0	2085	4	3840	462
75	0	0	1847	6	3840	462
76	0	0	1689	6	3840	462
77	0	0	1573	7	3839	462
78	0	0	1497	7	3839	462
79	0	0	1447	6	3841	461
80	0	0	1414	10	3840	460
81	0	0	1498	10	3839	460
82	0	0	1661	10	3839	460
83	0	0	1822	10	3840	459
84	0	0	1993	9	3839	459
85	0	0	2167	10	3840	455
86	0	0	2335	12	3840	458
87	0	0	2476	10	3840	459
88	0	0	2561	9	3840	457
89	0	0	2686	10	3839	457
90	0	0	2793	10	3840	455
91	0	0	2719	6	3839	457
92	0	0	2544	6	3840	455
93	0	0	2335	6	3840	455
94	0	0	2068	5	3839	455
95	0	0	1837	6	3840	453
96	0	0	1682	11	3839	454
97	0	0	1571	6	3839	454
98	0	0	1500	5	3838	454
99	0	0	1451	5	3839	453
100	0	0	1413	10	3839	453
101	0	0	1505	11	3844	451
102	0	0	1666	10	3840	451
103	0	0	1815	10	3840	450
104	0	0	1988	10	3842	449
105	0	0	2159	11	3841	449
106	0	0	2327	10	3841	449
107	0	0	2463	8	3840	450
108	0	0	2544	10	3840	448
109	0	0	2675	9	3841	447
110	0	0	2789	11	3840	447
111	0	0	2716	6	3840	447
112	0	0	2549	6	3838	448
113	0	0	2342	7	3839	447
114	0	0	2084	6	3840	446
115	0	0	1843	6	3840	445
116	0	0	1686	6	3839	446
117	0	0	1575	6	3839	446
118	0	0	1502	7	3840	444
119	0	0	1454	7	3842	443
120	0	0	1415	10	3840	443
121	0	0	1504	10	3839	444
122	0	0	1667	9	3840	443
123	0	0	1822	10	3840	442
124	0	0	1993	9	3841	441
125	0	0	2157	10	3844	439
126	0	0	2327	10	3840	440
127	0	0	2462	7	3839	442
0	0	0	2545	10	3840	440
1	0	0	2676	10	3840	437
2	0	0	2795	8	3840	439
3	0	0	2715	7	3839	440
4	0	0	2548	7	3838	439
5	0	0	2344	3	3839	439
6	0	0	2085	6	3839	437
7	0	0	1854	7	3841	437
8	0	0	1690	5	3840	437
9	0	0	1571	8	3840	435
10	0	0	1505	6	3841	436
11	0	0	1449	6	3840	435
12	0	0	1414	9	3841	434
13	0	0	1506	10	3839	436
14	0	0	1656	9	3840	434
15	0	0	1812	10	3840	433
16	0	0	1983	9	3840	432
17	0	0	2155	11	3841	433
18	0	0	2327	13	3839	432
19	0	0	2459	11	3838	433
20	0	0	2556	10	3840	432
21	0	0	2680	10	3839	432
22	0	0	2791	11	3840	431
23	0	0	2718	7	3840	431
24	0	0	2554	3	3840	432
25	0	0	2346	5	3842	431
26	0	0	2078	6	3840	428
27	0	0	1846	6	3841	429
28	0	0	1682	6	3840	429
29	0	0	1572	6	3840	429
30	0	0	1502	7	3840	428
31	0	0	1455	6	3840	430
32	0	0	1419	10	3840	427
33	0	0	1505	10	3839	429
34	0	0	1662	7	3839	430
35	0	0	1814	10	3840	426
36	0	0	1984	11	3840	426
37	0	0	2157	10	3839	427
38	0	0	2324	9	3839	427
39	0	0	2462	9	3841	425
40	0	0	2552	10	3840	426
41	0	0	2681	11	3840	424
42	0	0	2798	11	3841	424
43	0	0	2724	6	3840	424
44	0	0	2558	6	3841	422
45	0	0	2358	6	3840	423
46	0	0	2094	6	3840	424
47	0	0	1856	6	3841	424
48	0	0	1695	7	3840	422
49	0	0	1580	3	3839	424
50	0	0	1507	6	3840	421
51	0	0	1450	7	3840	420
52	0	0	1406	8	3840	420
53	0	0	1496	10	3838	422
54	0	0	1656	12	3837	421
55	0	0	1813	10	3840	419
56	0	0	1983	10	3840	419
57	0	0	2157	9	3841	419
58	0	0	2325	10	3840	418
59	0	0	2462	10	3841	417
60	0	0	2551	9	3841	418
61	0	0	2676	11	3840	415
62	0	0	2794	10	3841	416
63	0	0	2717	6	3839	416
64	0	0	2550	6	3840	417
65	0	0	2346	6	3839	418
66	0	0	2083	6	3838	419
67	0	0	1846	6	3840	415
68	0	0	1681	6	3839	416
69	0	0	1566	3	3839	418
70	0	0	1497	6	3840	415
71	0	0	1435	7	3837	417
72	0	0	1398	10	3837	414
73	0	0	1494	11	3840	413
74	0	0	1652	7	3841	415
75	0	0	1806	10	3840	412
76	0	0	1978	10	3842	411
77	0	0	2146	10	3841	412
78	0	0	2314	10	3841	411
79	0	0	2443	14	3840	411
80	0	0	2538	10	3840	411
81	0	0	2667	10	3840	410
82	0	0	2785	10	3837	411
83	0	0	2719	7	3839	413
84	0	0	2551	6	3836	411
85	0	0	2352	7	3839	410
86	0	0	2091	6	3839	409
87	0	0	1848	6	3838	409
88	0	0	1690	7	3840	408
89	0	0	1578	6	3840	407
90	0	0	1502	6	3841	407
91	0	0	1448	4	3841	406
92	0	0	1409	9	3841	406
93	0	0	1494	10	3840	406
94	0	0	1658	10	3840	405
95	0	0	1808	10	3841	405
96	0	0	1975	9	3840	403
97	0	0	2153	10	3839	407
98	0	0	2322	10	3840	405
99	0	0	2457	8	3841	407
100	0	0	2544	10	3839	405
101	0	0	2672	9	3838	405
102	0	0	2793	11	3838	403
103	0	0	2726	7	3839	404
104	0	0	2558	7	3839	406
105	0	0	2362	6	3839	403
106	0	0	2098	6	3840	402
107	0	0	1856	6	3838	403
108	0	0	1691	6	3842	401
109	0	0	1576	8	3840	401
110	0	0	1506	7	3839	402
111	0	0	1454	7	3840	399
112	0	0	1405	8	3841	399
113	0	0	1488	10	3840	400
114	0	0	1648	10	3840	399
115	0	0	1806	10	3839	401
116	0	0	1977	9	3840	397
117	0	0	2150	10	3838	399
118	0	0	2318	11	3839	399
119	0	0	2459	8	3840	397
120	0	0	2551	11	3839	399
121	0	0	2676	11	3839	398
122	0	0	2797	12	3837	398
123	0	0	2725	6	3839	398
124	0	0	2563	6	3841	397
125	0	0	2359	6	3840	397
126	0	0	2100	7	3841	393
127	0	0	1862	6	3839	395
0	0	0	1695	7	3840	394
1	0	0	1582	5	3843	395
2	0	0	1506	7	3840	394
3	0	0	1448	7	3840	393
4	0	0	1400	8	3840	393
5	0	0	1485	9	3839	395
6	0	0	1641	7	3840	393
7	0	0	1801	10	3840	394
8	0	0	1975	8	3840	392
9	0	0	2151	10	3839	394
10	0	0	2321	11	3839	393
11	0	0	2457	11	3840	391
12	0	0	2551	10	3839	392
13	0	0	2670	10	3840	391
14	0	0	2795	11	3839	391
15	0	0	2728	6	3840	390
16	0	0	2558	6	3840	390
17	0	0	2353	7	3840	390
18	0	0	2086	6	3841	389
19	0	0	1846	6	3839	390
20	0	0	1685	7	3840	389
21	0	0	1572	7	3840	388
22	0	0	1505	2	3840	388
23	0	0	1455	6	3839	388
24	0	0	1415	11	3838	388
25	0	0	1497	10	3840	387
26	0	0	1656	10	3839	389
27	0	0	1804	10	3836	389
28	0	0	1974	11	3840	387
29	0	0	2143	10	3838	388
30	0	0	2313	13	3841	386
31	0	0	2456	11	3840	386
32	0	0	2541	10	3840	386
33	0	0	2665	11	3840	384
34	0	0	2789	10	3841	383
35	0	0	2726	6	3838	387
36	0	0	2561	6	3840	384
37	0	0	2353	6	3838	387
38	0	0	2087	5	3840	384
39	0	0	1854	6	3838	382
40	0	0	1689	3	3840	382
41	0	0	1576	6	3839	384
42	0	0	1500	6	3840	383
43	0	0	1444	7	3840	380
44	0	0	1400	8	3839	383
45	0	0	1489	7	3839	382
46	0	0	1647	8	3841	381
47	0	0	1802	10	3841	379
48	0	0	1971	8	3841	378
49	0	0	2147	11	3841	379
50	0	0	2321	9	3840	379
51	0	0	2458	9	3842	379
52	0	0	2552	8	3840	379
53	0	0	2675	10	3841	378
54	0	0	2806	11	3841	378
55	0	0	2737	6	3839	382
56	0	0	2571	4	3840	377
57	0	0	2363	6	3840	381
58	0	0	2091	5	3840	376
59	0	0	1852	6	3840	376
60	0	0	1688	6	3839	378
61	0	0	1572	6	3839	378
62	0	0	1500	6	3839	377
63	0	0	1446	7	3840	376
64	0	0	1402	9	3841	375
65	0	0	1491	10	3840	375
66	0	0	1646	10	3840	375
67	0	0	1802	10	3842	375
68	0	0	1975	8	3840	372
69	0	0	2149	10	3839	375
70	0	0	2317	10	3841	371
71	0	0	2458	10	3839	376
72	0	0	2549	10	3840	373
73	0	0	2670	11	3840	371
74	0	0	2798	10	3840	372
75	0	0	2735	8	3839	374
76	0	0	2571	4	3839	373
77	0	0	2366	6	3840	371
78	0	0	2102	5	3840	374
79	0	0	1861	5	3841	370
80	0	0	1695	6	3842	371
81	0	0	1581	6	3841	372
82	0	0	1507	7	3841	370
83	0	0	1449	6	3841	373
84	0	0	1403	8	3840	369
85	0	0	1489	11	3839	371
86	0	0	1645	9	3839	371
87	0	0	1797	10	3840	349
88	0	0	1970	10	3840	372
89	0	0	2145	9	3840	367
90	0	0	2317	10	3839	370
91	0	0	2456	10	3838	370
92	0	0	2548	13	3840	369
93	0	0	2665	11	3838	368
94	0	0	2791	11	3840	367
95	0	0	2731	6	3840	365
96	0	0	2564	5	3839	368
97	0	0	2363	7	3841	367
98	0	0	2104	6	3841	367
99	0	0	1859	7	3840	365
100	0	0	1692	6	3839	367
101	0	0	1572	4	3839	366
102	0	0	1497	7	3840	362
103	0	0	1445	7	3840	367
104	0	0	1397	8	3840	364
105	0	0	1478	12	3839	365
106	0	0	1641	10	3839	367
107	0	0	1799	11	3840	364
108	0	0	1973	11	3840	362
109	0	0	2142	10	3838	363
110	0	0	2311	10	3839	364
111	0	0	2456	10	3840	362
112	0	0	2551	10	3841	361
113	0	0	2658	10	3841	365
114	0	0	2791	10	3840	361
115	0	0	2732	6	3840	362
116	0	0	2565	5	3840	361
117	0	0	2373	6	3841	360
118	0	0	2100	4	3839	362
119	0	0	1863	6	3839	361
120	0	0	1699	6	3840	360
121	0	0	1577	3	3839	361
122	0	0	1500	7	3839	361
123	0	0	1450	7	3838	363
124	0	0	1402	8	3838	360
125	0	0	1485	10	3838	362
126	0	0	1641	10	3840	358
127	0	0	1796	10	3839	359
0	0	0	1972	10	3840	360
1	0	0	2141	10	3840	357
2	0	0	2310	11	3840	358
3	0	0	2448	9	3840	357
4	0	0	2542	12	3841	358
5	0	0	2658	10	3840	358
6	0	0	2794	10	3838	358
7	0	0	2735	7	3841	354
8	0	0	2571	2	3839	357
9	0	0	2374	8	3840	357
10	0	0	2106	6	3840	358
11	0	0	1868	6	3840	355
12	0	0	1702	5	3841	358
13	0	0	1581	4	3839	356
14	0	0	1511	7	3840	352
15	0	0	1460	6	3840	355
16	0	0	1401	7	3838	355
17	0	0	1480	10	3839	354
18	0	0	1641	10	3840	355
19	0	0	1797	10	3841	352
20	0	0	1967	8	3841	355
21	0	0	2142	10	3841	352
22	0	0	2312	10	3840	354
23	0	0	2453	11	3840	352
24	0	0	2549	13	3840	353
25	0	0	2668	10	3840	351
26	0	0	2801	11	3840	351
27	0	0	2737	7	3839	352
28	0	0	2576	7	3839	353
29	0	0	2376	6	3839	353
30	0	0	2104	5	3840	351
31	0	0	1864	5	3840	349
32	0	0	1698	6	3838	351
33	0	0	1575	6	3839	351
34	0	0	1501	8	3840	350
35	0	0	1449	5	3840	349
36	0	0	1396	8	3840	348
37	0	0	1487	9	3841	348
38	0	0	1643	10	3840	349
39	0	0	1798	9	3839	350
40	0	0	1973	10	3840	347
41	0	0	2143	11	3839	349
42	0	0	2317	10	3841	347
43	0	0	2456	10	3837	350
44	0	0	2548	10	3839	348
45	0	0	2661	11	3840	348
46	0	0	2790	11	3839	348
47	0	0	2730	6	3838	349
48	0	0	2571	6	3837	348
49	0	0	2375	6	3838	349
50	0	0	2110	6	3840	343
51	0	0	1872	6	3840	345
52	0	0	1700	6	3840	346
53	0	0	1576	6	3840	346
54	0	0	1505	6	3841	344
55	0	0	1456	6	3840	347
56	0	0	1401	7	3841	344
57	0	0	1477	10	3839	346
58	0	0	1640	10	3840	342
59	0	0	1790	7	3839	344
60	0	0	1962	9	3839	343
61	0	0	2137	10	3842	342
62	0	0	2313	11	3839	344
63	0	0	2455	12	3838	344
64	0	0	2546	9	3839	344
65	0	0	2656	11	3839	343
66	0	0	2792	10	3839	343
67	0	0	2743	6	3839	343
68	0	0	2576	6	3837	343
69	0	0	2379	6	3839	343
70	0	0	2110	6	3840	341
71	0	0	1866	6	3841	340
72	0	0	1695	8	3840	341
73	0	0	1580	6	3840	344
74	0	0	1507	4	3839	341
75	0	0	1459	7	3840	339
76	0	0	1402	7	3839	340
77	0	0	1475	10	3839	341
78	0	0	1632	10	3836	342
79	0	0	1786	9	3838	341
80	0	0	1960	10	3839	337
81	0	0	2136	10	3839	340
82	0	0	2311	10	3838	340
83	0	0	2452	10	3839	339
84	0	0	2548	10	3840	337
85	0	0	2664	10	3840	337
86	0	0	2802	10	3841	336
87	0	0	2754	6	3840	337
88	0	0	2580	8	3840	337
89	0	0	2381	2	3839	338
90	0	0	2109	6	3840	336
91	0	0	1864	7	3839	338
92	0	0	1692	6	3839	338
93	0	0	1570	8	3839	337
94	0	0	1496	6	3838	335
95	0	0	1452	6	3838	335
96	0	0	1399	8	3838	336
97	0	0	1472	10	3838	336
98	0	0	1633	11	3838	336
99	0	0	1787	10	3838	335
100	0	0	1961	10	3840	332
101	0	0	2137	10	3839	334
102	0	0	2309	10	3839	334
103	0	0	2453	10	3840	333
104	0	0	2548	9	3839	335
105	0	0	2654	11	3840	331
106	0	0	2794	10	3839	334
107	0	0	2744	6	3839	334
108	0	0	2575	8	3839	334
109	0	0	2375	5	3840	331
110	0	0	2108	7	3840	330
111	0	0	1865	6	3839	336
112	0	0	1696	6	3839	333
113	0	0	1569	6	3838	333
114	0	0	1494	5	3838	333
115	0	0	1442	7	3839	330
116	0	0	1388	8	3839	332
117	0	0	1468	9	3840	331
118	0	0	1631	10	3840	330
119	0	0	1789	10	3840	330
120	0	0	1955	12	3840	331
121	0	0	2135	10	3841	329
122	0	0	2308	11	3840	329
123	0	0	2455	10	3839	330
124	0	0	2558	10	3840	329
125	0	0	2663	10	3840	331
126	0	0	2800	10	3840	328
127	0	0	2743	6	3838	331
0	0	0	2576	7	3840	327
1	0	0	2382	6	3840	327
2	0	0	2115	7	3839	329
3	0	0	1870	6	3839	329
4	0	0	1697	6	3838	329
5	0	0	1573	8	3839	329
6	0	0	1507	7	3840	325
7	0	0	1457	7	3840	328
8	0	0	1401	7	3839	327
9	0	0	1478	9	3840	326
10	0	0	1640	10	3839	327
11	0	0	1799	9	3840	323
12	0	0	1970	11	3840	324
13	0	0	2140	10	3839	327
14	0	0	2314	10	3840	325
15	0	0	2454	10	3839	327
16	0	0	2549	9	3839	326
17	0	0	2657	10	3840	324
18	0	0	2800	10	3839	325
19	0	0	2746	7	3838	326
20	0	0	2580	6	3839	323
21	0	0	2387	10	3840	323
22	0	0	2116	6	3839	324
23	0	0	1871	5	3840	324
24	0	0	1698	6	3841	323
25	0	0	1576	5	3839	325
26	0	0	1499	5	3840	324
27	0	0	1446	7	3840	323
28	0	0	1392	8	3840	321
29	0	0	1471	14	3839	323
30	0	0	1637	11	3840	320
31	0	0	1801	15	3840	321
32	0	0	1976	10	3840	323
33	0	0	2148	10	3839	324
34	0	0	2323	11	3838	322
35	0	0	2465	10	3837	321
36	0	0	2560	13	3840	320
37	0	0	2667	11	3839	321
38	0	0	2806	10	3840	320
39	0	0	2754	6	3839	322
40	0	0	2589	6	3841	318
41	0	0	2390	5	3841	319
42	0	0	2120	5	3840	319
43	0	0	1867	6	3840	319
44	0	0	1693	7	3840	319
45	0	0	1570	6	3838	319
46	0	0	1496	6	3840	319
47	0	0	1454	6	3840	319
48	0	0	1388	8	3839	320
49	0	0	1462	10	3840	317
50	0	0	1622	11	3837	320
51	0	0	1781	9	3837	319
52	0	0	1959	10	3840	317
53	0	0	2128	10	3838	318
54	0	0	2301	10	3839	318
55	0	0	2450	10	3840	316
56	0	0	2551	9	3841	319
57	0	0	2656	11	3840	316
58	0	0	2804	10	3841	316
59	0	0	2754	6	3840	316
60	0	0	2594	6	3840	316
61	0	0	2394	5	3840	316
62	0	0	2118	6	3841	314
63	0	0	1867	6	3840	319
64	0	0	1695	5	3839	316
65	0	0	1580	6	3840	312
66	0	0	1502	9	3840	314
67	0	0	1454	4	3839	315
68	0	0	1403	8	3839	318
69	0	0	1468	11	3838	315
70	0	0	1630	10	3839	314
71	0	0	1782	9	3838	314
72	0	0	1961	11	3840	316
73	0	0	2134	10	3840	314
74	0	0	2312	11	3840	313
75	0	0	2458	10	3840	312
76	0	0	2556	11	3841	311
77	0	0	2657	10	3840	311
78	0	0	2798	11	3839	315
79	0	0	2754	6	3840	311
80	0	0	2585	8	3840	312
81	0	0	2386	4	3840	313
82	0	0	2121	5	3840	311
83	0	0	1862	5	3838	314
84	0	0	1693	6	3837	312
85	0	0	1572	6	3840	308
86	0	0	1488	7	3839	312
87	0	0	1442	6	3839	311
88	0	0	1394	8	3839	314
89	0	0	1461	9	3840	310
90	0	0	1624	10	3840	308
91	0	0	1783	9	3841	309
92	0	0	1953	10	3841	310
93	0	0	2124	10	3840	312
94	0	0	2299	11	3840	309
95	0	0	2447	9	3840	307
96	0	0	2552	8	3840	309
97	0	0	2668	11	3840	308
98	0	0	2813	10	3839	310
99	0	0	2766	6	3838	309
100	0	0	2596	6	3840	306
101	0	0	2396	8	3840	308
102	0	0	2126	5	3839	308
103	0	0	1872	5	3840	307
104	0	0	1695	8	3839	309
105	0	0	1572	6	3839	309
106	0	0	1495	4	3840	307
107	0	0	1445	5	3840	310
108	0	0	1380	7	3840	307
109	0	0	1455	10	3840	306
110	0	0	1629	9	3840	304
111	0	0	1785	10	3840	305
112	0	0	1961	10	3840	307
113	0	0	2136	10	3839	309
114	0	0	2310	9	3840	306
115	0	0	2452	10	3841	304
116	0	0	2549	8	3839	306
117	0	0	2656	11	3840	304
118	0	0	2801	10	3837	305
119	0	0	2761	7	3840	304
120	0	0	2599	7	3840	305
121	0	0	2404	8	3839	304
122	0	0	2129	6	3840	304
123	0	0	1877	4	3840	305
124	0	0	1691	6	3840	303
125	0	0	1573	6	3841	304
126	0	0	1494	8	3840	303
127	0	0	1446	5	3840	303
0	0	0	1385	7	3839	303
1	0	0	1452	10	3840	303
2	0	0	1610	12	3839	304
3	0	0	1769	8	3839	304
4	0	0	1945	11	3840	301
5	0	0	2123	10	3839	303
6	0	0	2310	9	3839	303
7	0	0	2453	10	3839	301
8	0	0	2549	9	3840	301
9	0	0	2660	10	3840	301
10	0	0	2811	11	3838	303
11	0	0	2773	8	3839	303
12	0	0	2608	7	3840	301
13	0	0	2408	8	3840	300
14	0	0	2137	6	3841	300
15	0	0	1875	10	3840	302
16	0	0	1692	7	3841	299
17	0	0	1565	8	3840	301
18	0	0	1488	10	3840	298
19	0	0	1446	5	3839	302
20	0	0	1388	8	3839	301
21	0	0	1458	9	3840	299
22	0	0	1622	10	3839	299
23	0	0	1780	9	3840	298
24	0	0	1951	10	3839	299
25	0	0	2126	10	3839	299
26	0	0	2305	12	3839	300
27	0	0	2455	11	3840	298
28	0	0	2552	14	3840	296
29	0	0	2652	10	3839	298
30	0	0	2802	11	3839	299
31	0	0	2769	6	3841	295
32	0	0	2600	10	3840	296
33	0	0	2403	8	3840	296
34	0	0	2128	5	3840	296
35	0	0	1871	6	3840	296
36	0	0	1690	6	3839	298
37	0	0	1570	6	3838	299
38	0	0	1495	4	3839	299
39	0	0	1448	5	3840	297
40	0	0	1385	7	3838	297
41	0	0	1452	10	3838	297
42	0	0	1613	11	3838	297
43	0	0	1776	9	3839	299
44	0	0	1952	10	3840	296
45	0	0	2130	11	3839	295
46	0	0	2305	10	3838	296
47	0	0	2453	12	3840	295
48	0	0	2556	9	3839	299
49	0	0	2658	8	3840	293
50	0	0	2810	11	3839	296
51	0	0	2772	7	3839	295
52	0	0	2603	8	3839	295
53	0	0	2407	5	3839	295
54	0	0	2122	4	3839	296
55	0	0	1863	10	3838	295
56	0	0	1690	6	3839	295
57	0	0	1562	8	3838	295
58	0	0	1485	5	3839	295
59	0	0	1439	5	3839	294
60	0	0	1377	6	3838	293
61	0	0	1450	9	3840	291
62	0	0	1622	10	3840	292
63	0	0	1778	11	3840	292
64	0	0	1953	9	3841	291
65	0	0	2125	11	3840	290
66	0	0	2303	9	3841	291
67	0	0	2451	9	3840	289
68	0	0	2552	15	3840	291
69	0	0	2664	10	3841	291
70	0	0	2812	8	3837	291
71	0	0	2773	4	3840	290
72	0	0	2606	7	3839	293
73	0	0	2407	5	3839	292
74	0	0	2135	3	3840	290
75	0	0	1875	6	3839	290
76	0	0	1688	6	3839	292
77	0	0	1558	7	3840	289
78	0	0	1480	5	3839	291
79	0	0	1438	4	3840	289
80	0	0	1376	7	3840	288
81	0	0	1445	10	3840	291
82	0	0	1608	10	3839	290
83	0	0	1774	9	3839	291
84	0	0	1952	8	3839	290
85	0	0	2131	9	3840	288
86	0	0	2304	14	3839	290
87	0	0	2451	10	3840	288
88	0	0	2553	9	3840	287
89	0	0	2656	8	3840	287
90	0	0	2812	10	3838	288
91	0	0	2779	6	3840	285
92	0	0	2604	7	3839	288
93	0	0	2408	4	3839	289
94	0	0	2132	4	3839	288
95	0	0	1868	6	3839	288
96	0	0	1683	6	3840	286
97	0	0	1560	4	3839	288
98	0	0	1483	7	3840	286
99	0	0	1443	5	3840	286
100	0	0	1383	7	3840	286
101	0	0	1448	9	3838	287
102	0	0	1618	10	3840	284
103	0	0	1778	8	3839	286
104	0	0	1951	8	3839	286
105	0	0	2131	10	3839	286
106	0	0	2309	10	3838	286
107	0	0	2460	10	3838	286
108	0	0	2557	9	3838	287
109	0	0	2660	10	3838	287
110	0	0	2817	11	3838	285
111	0	0	2786	8	3840	285
112	0	0	2613	5	3838	283
113	0	0	2413	7	3839	285
114	0	0	2135	6	3840	284
115	0	0	1875	6	3840	284
116	0	0	1689	5	3840	281
117	0	0	1559	7	3840	281
118	0	0	1484	6	3839	286
119	0	0	1443	7	3839	283
120	0	0	1384	7	3838	284
121	0	0	1454	10	3837	285
122	0	0	1624	10	3838	284
123	0	0	1789	9	3840	282
124	0	0	1965	8	3839	284
125	0	0	2133	10	3838	284
126	0	0	2318	11	3839	283
127	0	0	2474	7	3837	283
0	0	0	2575	12	3839	283
1	0	0	2676	10	3839	282
2	0	0	2822	10	3839	284
3	0	0	2786	6	3838	283
4	0	0	2617	7	3840	280
5	0	0	2412	7	3839	283
6	0	0	2132	5	3839	282
7	0	0	1868	6	3838	284
8	0	0	1689	6	3838	282
9	0	0	1563	4	3838	282
10	0	0	1481	4	3838	283
11	0	0	1436	8	3840	279
12	0	0	1382	7	3839	281
13	0	0	1438	11	3837	281
14	0	0	1605	10	3838	280
15	0	0	1777	8	3838	280
16	0	0	1959	8	3838	281
17	0	0	2132	10	3838	279
18	0	0	2316	9	3839	280
19	0	0	2468	11	3840	278
20	0	0	2573	10	3839	280
21	0	0	2661	11	3839	279
22	0	0	2815	11	3838	279
23	0	0	2780	7	3838	279
24	0	0	2607	7	3838	279
25	0	0	2403	8	3838	279
26	0	0	2126	7	3839	278
27	0	0	1865	6	3837	279
28	0	0	1684	8	3837	279
29	0	0	1558	7	3838	279
30	0	0	1483	6	3839	240
31	0	0	1435	8	3838	278
32	0	0	1377	7	3837	275
33	0	0	1439	9	3838	278
34	0	0	1608	7	3838	278
35	0	0	1769	10	3839	278
36	0	0	1954	8	3839	278
37	0	0	2135	10	3840	275
38	0	0	2318	12	3839	277
39	0	0	2472	11	3838	277
40	0	0	2578	8	3838	279
41	0	0	2667	11	3838	276
42	0	0	2813	10	3838	278
43	0	0	2782	7	3838	276
44	0	0	2604	9	3838	276
45	0	0	2405	8	3837	276
46	0	0	2131	5	3838	276
47	0	0	1866	6	3837	275
48	0	0	1679	8	3837	276
49	0	0	1550	6	3838	278
50	0	0	1469	4	3838	277
51	0	0	1434	6	3838	275
52	0	0	1373	6	3840	271
53	0	0	1440	11	3838	275
54	0	0	1616	9	3838	275
55	0	0	1778	8	3838	276
56	0	0	1955	9	3839	275
57	0	0	2130	11	3837	273
58	0	0	2309	11	3839	274
59	0	0	2464	10	3838	276
60	0	0	2570	11	3836	274
61	0	0	2659	9	3837	274
62	0	0	2813	13	3834	271
63	0	0	2782	11	3835	273
64	0	0	2606	6	3836	276
65	0	0	2405	4	3836	275
66	0	0	2131	6	3838	273
67	0	0	1869	6	3838	272
68	0	0	1686	6	3837	272
69	0	0	1563	6	3838	272
70	0	0	1488	8	3838	273
71	0	0	1444	10	3838	272
72	0	0	1379	7	3837	271
73	0	0	1441	10	3837	272
74	0	0	1609	10	3839	272
75	0	0	1781	9	3838	272
76	0	0	1966	10	3837	271
77	0	0	2141	10	3838	271
78	0	0	2319	10	3836	271
79	0	0	2466	10	3836	271
80	0	0	2567	11	3835	269
81	0	0	2653	8	3837	271
82	0	0	2809	11	3836	267
83	0	0	2780	7	3838	269
84	0	0	2612	6	3838	271
85	0	0	2411	4	3837	271
86	0	0	2133	6	3838	271
87	0	0	1869	7	3836	268
88	0	0	1686	6	3837	270
89	0	0	1559	6	3839	270
90	0	0	1483	6	3837	270
91	0	0	1442	6	3838	269
92	0	0	1384	7	3836	265
93	0	0	1446	9	3837	269
94	0	0	1614	12	3837	268
95	0	0	1780	10	3835	267
96	0	0	1960	9	3837	269
97	0	0	2132	10	3836	268
98	0	0	2314	10	3836	269
99	0	0	2469	10	3838	271
100	0	0	2577	8	3837	269
101	0	0	2665	8	3838	269
102	0	0	2821	10	3837	264
103	0	0	2788	6	3835	267
104	0	0	2610	4	3838	268
105	0	0	2406	8	3837	267
106	0	0	2123	4	3838	267
107	0	0	1865	6	3838	267
108	0	0	1681	6	3837	267
109	0	0	1551	6	3837	269
110	0	0	1471	7	3838	267
111	0	0	1438	3	3836	267
112	0	0	1381	7	3836	264
113	0	0	1442	10	3836	267
114	0	0	1608	8	3836	267
115	0	0	1773	14	3835	265
116	0	0	1952	8	3838	267
117	0	0	2133	11	3837	264
118	0	0	2315	10	3837	264
119	0	0	2464	8	3838	266
120	0	0	2565	12	3837	265
121	0	0	2654	10	3839	265
122	0	0	2810	12	3837	264
123	0	0	2781	6	3836	266
124	0	0	2611	8	3836	265
125	0	0	2412	7	3836	264
126	0	0	2135	7	3835	265
127	0	0	1863	6	3835	264
0	0	0	1680	6	3836	264
1	0	0	1554	5	3836	266
2	0	0	1474	8	3835	264
3	0	0	1436	9	3836	264
4	0	0	1379	6	3836	264
5	0	0	1448	9	3836	264
6	0	0	1618	9	3833	266
7	0	0	1782	10	3838	264
8	0	0	1964	10	3838	263
9	0	0	2144	10	3840	260
10	0	0	2323	10	3838	263
11	0	0	2468	9	3837	260
12	0	0	2572	10	3835	263
13	0	0	2656	10	3837	263
14	0	0	2807	10	3836	263
15	0	0	2784	6	3837	262
16	0	0	2610	5	3835	264
17	0	0	2409	5	3836	264
18	0	0	2129	6	3836	263
19	0	0	1864	6	3836	262
20	0	0	1676	6	3837	261
21	0	0	1553	5	3835	262
22	0	0	1474	7	3836	262
23	0	0	1437	4	3837	262
24	0	0	1378	6	3837	262
25	0	0	1448	9	3837	262
26	0	0	1612	10	3837	261
27	0	0	1778	11	3837	261
28	0	0	1961	11	3837	261
29	0	0	2137	10	3836	260
30	0	0	2319	11	3836	261
31	0	0	2474	10	3837	259
32	0	0	2576	9	3836	260
33	0	0	2664	10	3837	260
34	0	0	2817	10	3836	261
35	0	0	2789	6	3836	261
36	0	0	2614	5	3835	260
37	0	0	2414	10	3835	260
38	0	0	2138	7	3836	259
39	0	0	1870	6	3836	260
40	0	0	1684	5	3837	259
41	0	0	1554	7	3837	260
42	0	0	1476	7	3838	259
43	0	0	1436	7	3838	259
44	0	0	1372	7	3836	259
45	0	0	1440	7	3838	259
46	0	0	1615	10	3837	258
47	0	0	1777	10	3834	260
48	0	0	1958	13	3836	258
49	0	0	2138	10	3836	259
50	0	0	2324	11	3837	257
51	0	0	2474	11	3835	259
52	0	0	2573	11	3838	258
53	0	0	2658	13	3836	257
54	0	0	2817	10	3835	258
55	0	0	2788	4	3837	257
56	0	0	2616	7	3836	258
57	0	0	2410	7	3839	258
58	0	0	2131	6	3838	257
59	0	0	1858	6	3836	257
60	0	0	1672	4	3839	257
61	0	0	1548	6	3837	257
62	0	0	1471	6	3838	256
63	0	0	1436	9	3837	257
64	0	0	1375	7	3836	257
65	0	0	1440	8	3836	255
66	0	0	1610	10	3837	256
67	0	0	1778	10	3836	258
68	0	0	1958	9	3836	256
69	0	0	2138	10	3835	256
70	0	0	2319	8	3835	255
71	0	0	2477	11	3835	255
72	0	0	2576	12	3838	256
73	0	0	2661	13	3837	254
74	0	0	2826	10	3837	255
75	0	0	2795	8	3837	255
76	0	0	2620	8	3836	254
77	0	0	2411	6	3838	255
78	0	0	2123	7	3837	255
79	0	0	1859	6	3836	255
80	0	0	1675	5	3836	255
81	0	0	1546	7	3836	256
82	0	0	1472	6	3838	255
83	0	0	1435	7	3836	253
84	0	0	1370	7	3835	254
85	0	0	1436	8	3837	254
86	0	0	1611	10	3836	250
87	0	0	1780	9	3838	254
88	0	0	1966	10	3837	253
89	0	0	2138	10	3836	254
90	0	0	2323	11	3836	253
91	0	0	2477	11	3837	254
92	0	0	2579	12	3836	253
93	0	0	2661	10	3837	253
94	0	0	2828	11	3837	253
95	0	0	2801	7	3836	253
96	0	0	2622	6	3836	249
97	0	0	2416	8	3837	253
98	0	0	2130	8	3836	253
99	0	0	1862	6	3835	253
100	0	0	1679	5	3834	252
101	0	0	1545	7	3835	252
102	0	0	1466	6	3835	252
103	0	0	1432	5	3835	252
104	0	0	1369	7	3835	252
105	0	0	1438	7	3836	251
106	0	0	1611	9	3837	251
107	0	0	1773	10	3836	252
108	0	0	1956	10	3838	251
109	0	0	2132	10	3838	251
110	0	0	2320	13	3837	252
111	0	0	2481	10	3836	251
112	0	0	2593	9	3837	250
113	0	0	2675	12	3836	250
114	0	0	2840	10	3836	250
115	0	0	2814	7	3835	250
116	0	0	2635	6	3836	250
117	0	0	2421	6	3837	250
118	0	0	2130	9	3835	250
119	0	0	1854	6	3835	251
120	0	0	1667	6	3836	251
121	0	0	1541	5	3836	250
122	0	0	1463	6	3838	251
123	0	0	1433	8	3836	249
124	0	0	1374	6	3836	250
125	0	0	1432	10	3836	250
126	0	0	1601	9	3837	249
127	0	0	1778	10	3837	249
0	0	0	1963	8	3836	249
1	0	0	2142	11	3836	248
2	0	0	2322	10	3836	249
3	0	0	2479	11	3835	248
4	0	0	2591	11	3838	248
5	0	0	2673	9	3836	250
6	0	0	2835	11	3835	248
7	0	0	2808	4	3836	248
8	0	0	2622	7	3834	247
9	0	0	2418	5	3836	248
10	0	0	2131	4	3836	248
11	0	0	1854	6	3835	248
12	0	0	1664	6	3836	247
13	0	0	1533	8	3836	248
14	0	0	1457	7	3836	247
15	0	0	1417	8	3836	247
16	0	0	1356	7	3837	247
17	0	0	1418	11	3835	247
18	0	0	1595	10	3835	246
19	0	0	1766	10	3836	247
20	0	0	1957	10	3835	246
21	0	0	2143	9	3836	247
22	0	0	2327	10	3837	246
23	0	0	2486	10	3834	245
24	0	0	2589	10	3836	247
25	0	0	2667	9	3835	246
26	0	0	2828	10	3834	247
27	0	0	2811	6	3837	248
28	0	0	2632	8	3836	247
29	0	0	2433	7	3836	243
30	0	0	2147	4	3836	245
31	0	0	1868	5	3836	245
32	0	0	1672	6	3836	246
33	0	0	1543	6	3836	244
34	0	0	1462	6	3837	245
35	0	0	1428	6	3834	244
36	0	0	1364	6	3835	245
37	0	0	1427	8	3836	245
38	0	0	1606	10	3837	242
39	0	0	1774	10	3836	245
40	0	0	1965	10	3835	244
41	0	0	2147	10	3835	244
42	0	0	2330	10	3835	244
43	0	0	2483	9	3835	243
44	0	0	2591	11	3835	241
45	0	0	2671	10	3836	244
46	0	0	2827	10	3836	244
47	0	0	2808	7	3836	247
48	0	0	2633	5	3836	245
49	0	0	2421	7	3836	242
50	0	0	2136	6	3836	243
51	0	0	1865	5	3836	241
52	0	0	1668	5	3835	243
53	0	0	1536	6	3836	242
54	0	0	1461	8	3836	243
55	0	0	1429	4	3835	243
56	0	0	1366	7	3835	243
57	0	0	1426	10	3835	243
58	0	0	1601	9	3835	243
59	0	0	1777	11	3834	240
60	0	0	1960	11	3835	242
61	0	0	2134	9	3836	242
62	0	0	2320	10	3836	242
63	0	0	2473	10	3836	242
64	0	0	2580	9	3835	240
65	0	0	2662	11	3836	242
66	0	0	2830	10	3836	242
67	0	0	2818	6	3835	241
68	0	0	2642	5	3836	242
69	0	0	2430	8	3836	240
70	0	0	2147	7	3836	241
71	0	0	1868	7	3835	241
72	0	0	1673	6	3835	241
73	0	0	1546	5	3836	242
74	0	0	1470	6	3834	240
75	0	0	1432	6	3834	240
76	0	0	1368	7	3835	241
77	0	0	1417	10	3835	241
78	0	0	1594	9	3836	241
79	0	0	1771	10	3837	240
80	0	0	1956	10	3838	239
81	0	0	2136	10	3836	240
82	0	0	2322	9	3838	240
83	0	0	2477	9	3838	243
84	0	0	2585	9	3838	240
85	0	0	2665	10	3837	239
86	0	0	2820	10	3835	240
87	0	0	2808	6	3836	239
88	0	0	2633	5	3836	240
89	0	0	2430	7	3837	239
90	0	0	2148	5	3835	238
91	0	0	1866	6	3835	239
92	0	0	1663	6	3835	239
93	0	0	1531	6	3835	240
94	0	0	1455	7	3837	239
95	0	0	1424	7	3837	239
96	0	0	1366	4	3838	239
97	0	0	1423	8	3836	239
98	0	0	1601	11	3836	238
99	0	0	1776	9	3838	239
100	0	0	1955	11	3835	237
101	0	0	2131	10	3837	238
102	0	0	2315	12	3836	238
103	0	0	2475	10	3836	238
104	0	0	2585	10	3835	238
105	0	0	2662	9	3835	237
106	0	0	2823	11	3835	237
107	0	0	2810	6	3836	237
108	0	0	2632	4	3836	237
109	0	0	2423	6	3836	238
110	0	0	2142	6	3836	237
111	0	0	1868	6	3836	236
112	0	0	1673	6	3840	237
113	0	0	1545	5	3836	236
114	0	0	1464	6	3835	236
115	0	0	1432	4	3837	237
116	0	0	1374	7	3835	238
117	0	0	1431	10	3836	237
118	0	0	1602	9	3836	236
119	0	0	1771	10	3835	236
120	0	0	1953	9	3836	235
121	0	0	2131	10	3835	236
122	0	0	2315	10	3835	236
123	0	0	2470	10	3836	236
124	0	0	2575	9	3836	235
125	0	0	2655	5	3837	235
126	0	0	2820	10	3836	235
127	0	0	2804	5	3835	236
0	0	0	2631	5	3836	235
1	0	0	2426	6	3837	236
2	0	0	2141	3	3837	235
3	0	0	1870	6	3836	235
4	0	0	1673	6	3836	235
5	0	0	1547	7	3836	234
6	0	0	1469	6	3835	234
7	0	0	1442	4	3836	234
8	0	0	1379	7	3835	234
9	0	0	1436	10	3835	234
10	0	0	1604	10	3835	235
11	0	0	1770	9	3836	234
12	0	0	1954	8	3836	235
13	0	0	2133	10	3836	234
14	0	0	2308	11	3835	234
15	0	0	2464	9	3835	234
16	0	0	2570	11	3835	233
17	0	0	2648	8	3837	234
18	0	0	2813	12	3836	234
19	0	0	2802	10	3836	234
20	0	0	2629	8	3835	233
21	0	0	2423	4	3835	234
22	0	0	2143	3	3836	232
23	0	0	1870	7	3836	233
24	0	0	1672	6	3836	233
25	0	0	1544	7	3834	233
26	0	0	1472	7	3835	233
27	0	0	1446	7	3836	232
28	0	0	1380	6	3835	233
29	0	0	1436	11	3836	232
30	0	0	1607	10	3836	236
31	0	0	1779	10	3833	232
32	0	0	1959	8	3836	232
33	0	0	2133	7	3837	232
34	0	0	2304	11	3836	232
35	0	0	2458	11	3835	232
36	0	0	2567	10	3835	232
37	0	0	2640	12	3837	233
38	0	0	2801	10	3836	232
39	0	0	2792	6	3836	232
40	0	0	2617	7	3834	231
41	0	0	2423	6	3833	232
42	0	0	2157	6	3838	232
43	0	0	1886	6	3835	232
44	0	0	1696	3	3836	231
45	0	0	1570	6	3835	229
46	0	0	1492	6	3836	230
47	0	0	1457	1	3836	230
48	0	0	1399	7	3835	231
49	0	0	1450	13	3835	230
50	0	0	1617	11	3835	230
51	0	0	1783	10	3835	231
52	0	0	1962	8	3837	230
53	0	0	2135	10	3836	231
54	0	0	2305	9	3837	230
55	0	0	2452	11	3836	230
56	0	0	2554	10	3837	230
57	0	0	2625	8	3835	229
58	0	0	2781	10	3835	230
59	0	0	2774	7	3837	229
60	0	0	2606	7	3833	230
61	0	0	2408	6	3832	230
62	0	0	2142	6	3836	229
63	0	0	1877	6	3834	229
64	0	0	1692	6	3836	229
65	0	0	1571	6	3835	229
66	0	0	1497	7	3834	229
67	0	0	1469	4	3836	229
68	0	0	1408	7	3836	228
69	0	0	1451	10	3836	228
70	0	0	1614	8	3836	229
71	0	0	1781	9	3836	229
72	0	0	1961	9	3837	228
73	0	0	2128	10	3836	227
74	0	0	2301	10	3836	229
75	0	0	2448	10	3837	229
76	0	0	2548	10	3836	229
77	0	0	2625	10	3837	228
78	0	0	2783	10	3836	228
79	0	0	2776	8	3833	229
80	0	0	2616	6	3835	225
81	0	0	2417	5	3836	227
82	0	0	2150	4	3837	228
83	0	0	1887	5	3836	228
84	0	0	1698	7	3835	227
85	0	0	1575	6	3840	226
86	0	0	1499	6	3836	228
87	0	0	1469	8	3836	228
88	0	0	1411	6	3835	226
89	0	0	1456	8	3837	226
90	0	0	1619	11	3837	226
91	0	0	1784	10	3833	227
92	0	0	1961	9	3836	225
93	0	0	2129	10	3835	226
94	0	0	2305	10	3838	226
95	0	0	2453	14	3835	224
96	0	0	2557	10	3834	226
97	0	0	2627	10	3836	227
98	0	0	2785	11	3835	227
99	0	0	2779	7	3835	226
100	0	0	2611	8	3836	225
101	0	0	2411	4	3836	227
102	0	0	2143	6	3837	225
103	0	0	1879	5	3836	226
104	0	0	1684	6	3836	226
105	0	0	1560	6	3836	224
106	0	0	1488	8	3837	225
107	0	0	1457	6	3836	225
108	0	0	1406	7	3836	225
109	0	0	1457	10	3836	225
110	0	0	1615	12	3834	225
111	0	0	1777	9	3833	225
112	0	0	1953	14	3835	225
113	0	0	2122	10	3834	224
114	0	0	2300	9	3835	225
115	0	0	2448	10	3836	225
116	0	0	2552	10	3835	223
117	0	0	2624	10	3836	225
118	0	0	2777	10	3834	224
119	0	0	2771	7	3836	224
120	0	0	2583	6	3840	223
121	0	0	2379	6	3836	225
122	0	0	2128	5	3837	223
123	0	0	1867	6	3835	224
124	0	0	1683	4	3836	223
125	0	0	1561	4	3836	223
126	0	0	1486	7	3835	223
127	0	0	1463	6	3836	223
0	0	0	1399	7	3834	223
1	0	0	1448	10	3834	223
2	0	0	1619	10	3835	223
3	0	0	1786	9	3834	223
4	0	0	1962	10	3835	223
5	0	0	2127	10	3836	223
6	0	0	2298	10	3836	224
7	0	0	2425	10	3840	222
8	0	0	2522	9	3838	222
9	0	0	2596	10	3836	222
10	0	0	2759	11	3835	223
11	0	0	2759	7	3836	222
12	0	0	2594	6	3836	223
13	0	0	2398	5	3836	223
14	0	0	2131	4	3837	223
15	0	0	1873	10	3834	222
16	0	0	1690	6	3835	222
17	0	0	1568	6	3836	223
18	0	0	1495	6	3837	221
19	0	0	1466	6	3834	221
20	0	0	1409	7	3835	223
21	0	0	1448	10	3835	223
22	0	0	1610	9	3836	222
23	0	0	1759	10	3837	221
24	0	0	1933	10	3837	221
25	0	0	2110	10	3836	220
26	0	0	2290	12	3836	220
27	0	0	2440	10	3835	221
28	0	0	2543	10	3835	219
29	0	0	2620	10	3840	220
30	0	0	2778	10	3835	221
31	0	0	2774	6	3835	220
32	0	0	2611	5	3836	218
33	0	0	2412	6	3835	219
34	0	0	2148	6	3835	220
35	0	0	1881	10	3835	219
36	0	0	1685	6	3834	220
37	0	0	1566	6	3836	221
38	0	0	1492	7	3835	219
39	0	0	1459	7	3836	221
40	0	0	1398	6	3836	221
41	0	0	1443	10	3836	222
42	0	0	1610	7	3836	219
43	0	0	1778	9	3835	218
44	0	0	1952	10	3836	220
45	0	0	2120	10	3835	219
46	0	0	2294	13	3837	219
47	0	0	2446	10	3836	220
48	0	0	2548	10	3835	218
49	0	0	2613	10	3836	219
50	0	0	2770	10	3834	219
51	0	0	2772	7	3835	219
52	0	0	2609	7	3835	218
53	0	0	2420	6	3837	218
54	0	0	2157	7	3836	218
55	0	0	1891	6	3836	219
56	0	0	1702	5	3836	219
57	0	0	1570	5	3836	219
58	0	0	1492	7	3839	218
59	0	0	1463	7	3837	218
60	0	0	1397	6	3837	217
61	0	0	1444	10	3836	219
62	0	0	1604	9	3836	218
63	0	0	1775	10	3835	217
64	0	0	1951	7	3836	218
65	0	0	2124	14	3836	217
66	0	0	2292	11	3834	217
67	0	0	2443	7	3836	217
68	0	0	2549	10	3833	215
69	0	0	2615	10	3835	217
70	0	0	2769	10	3834	217
71	0	0	2772	7	3834	217
72	0	0	2607	5	3836	218
73	0	0	2413	6	3835	217
74	0	0	2152	6	3838	218
75	0	0	1886	6	3836	219
76	0	0	1699	5	3838	217
77	0	0	1577	2	3838	214
78	0	0	1503	6	3836	215
79	0	0	1478	7	3837	216
80	0	0	1416	6	3835	217
81	0	0	1453	10	3832	218
82	0	0	1613	11	3835	216
83	0	0	1780	10	3833	217
84	0	0	1955	10	3835	217
85	0	0	2121	10	3835	216
86	0	0	2288	10	3835	216
87	0	0	2432	9	3836	194
88	0	0	2534	10	3837	215
89	0	0	2603	10	3837	216
90	0	0	2770	10	3836	216
91	0	0	2773	7	3834	217
92	0	0	2612	6	3835	215
93	0	0	2420	6	3836	213
94	0	0	2154	7	3836	216
95	0	0	1892	6	3836	216
96	0	0	1703	6	3836	215
97	0	0	1583	5	3836	215
98	0	0	1511	7	3835	214
99	0	0	1488	7	3837	215
100	0	0	1427	8	3834	212
101	0	0	1467	9	3835	215
102	0	0	1620	8	3837	214
103	0	0	1780	9	3836	213
104	0	0	1955	10	3836	214
105	0	0	2123	10	3836	215
106	0	0	2294	9	3837	214
107	0	0	2445	9	3838	215
108	0	0	2541	10	3836	213
109	0	0	2606	10	3839	213
110	0	0	2758	10	3836	215
111	0	0	2767	7	3833	215
112	0	0	2610	6	3836	215
113	0	0	2419	6	3835	215
114	0	0	2159	6	3836	214
115	0	0	1899	6	3835	214
116	0	0	1708	6	3835	214
117	0	0	1587	6	3835	214
118	0	0	1510	7	3835	214
119	0	0	1478	7	3838	215
120	0	0	1422	7	3834	212
121	0	0	1458	9	3835	213
122	0	0	1618	10	3836	213
123	0	0	1788	10	3837	213
124	0	0	1959	10	3837	212
125	0	0	2121	10	3836	212
126	0	0	2291	8	3836	213
127	0	0	2436	10	3836	213
0	0	0	2535	11	3836	213
1	0	0	2596	11	3836	213
2	0	0	2748	10	3835	214
3	0	0	2754	7	3835	213
4	0	0	2597	6	3835	213
5	0	0	2402	4	3833	214
6	0	0	2150	6	3836	211
7	0	0	1899	6	3835	212
8	0	0	1718	7	3835	212
9	0	0	1596	6	3835	212
10	0	0	1521	6	3836	211
11	0	0	1488	7	3835	213
12	0	0	1434	6	3836	212
13	0	0	1473	9	3837	212
14	0	0	1624	10	3837	211
15	0	0	1789	10	3836	211
16	0	0	1955	10	3836	211
17	0	0	2114	10	3836	212
18	0	0	2279	11	3836	211
19	0	0	2422	10	3836	211
20	0	0	2526	10	3833	213
21	0	0	2591	10	3834	211
22	0	0	2744	10	3835	211
23	0	0	2754	7	3835	211
24	0	0	2599	4	3835	210
25	0	0	2412	6	3833	211
26	0	0	2159	6	3836	211
27	0	0	1904	6	3837	210
28	0	0	1719	6	3836	211
29	0	0	1600	6	3837	210
30	0	0	1520	6	3836	210
31	0	0	1490	6	3838	213
32	0	0	1433	7	3835	209
33	0	0	1463	10	3837	211
34	0	0	1616	8	3835	210
35	0	0	1773	9	3836	209
36	0	0	1936	9	3834	208
37	0	0	2103	11	3836	210
38	0	0	2274	10	3836	211
39	0	0	2424	10	3833	210
40	0	0	2525	11	3833	211
41	0	0	2594	12	3834	209
42	0	0	2749	10	3835	209
43	0	0	2770	8	3836	209
44	0	0	2615	5	3836	212
45	0	0	2423	7	3836	209
46	0	0	2171	6	3837	209
47	0	0	1908	6	3836	210
48	0	0	1718	6	3837	208
49	0	0	1590	6	3836	209
50	0	0	1516	7	3836	210
51	0	0	1485	7	3835	210
52	0	0	1424	7	3835	211
53	0	0	1456	10	3835	209
54	0	0	1608	10	3835	209
55	0	0	1769	9	3835	208
56	0	0	1942	12	3832	208
57	0	0	2109	10	3834	208
58	0	0	2277	11	3835	208
59	0	0	2422	10	3836	208
60	0	0	2529	10	3837	207
61	0	0	2594	10	3835	207
62	0	0	2741	10	3837	207
63	0	0	2752	10	3836	208
64	0	0	2601	7	3835	208
65	0	0	2419	7	3836	207
66	0	0	2173	6	3836	207
67	0	0	1915	6	3836	208
68	0	0	1729	7	3836	208
69	0	0	1605	6	3834	207
70	0	0	1525	6	3836	207
71	0	0	1489	5	3833	207
72	0	0	1426	6	3835	208
73	0	0	1457	10	3835	207
74	0	0	1613	10	3833	207
75	0	0	1773	10	3835	206
76	0	0	1942	10	3834	207
77	0	0	2107	10	3835	205
78	0	0	2273	11	3836	207
79	0	0	2413	10	3834	207
80	0	0	2515	9	3837	207
81	0	0	2578	10	3835	207
82	0	0	2734	10	3836	207
83	0	0	2758	8	3836	207
84	0	0	2605	6	3833	207
85	0	0	2418	6	3836	207
86	0	0	2172	6	3836	206
87	0	0	1919	6	3836	207
88	0	0	1734	7	3835	206
89	0	0	1609	6	3832	207
90	0	0	1530	6	3835	205
91	0	0	1499	6	3834	205
92	0	0	1439	7	3834	207
93	0	0	1470	10	3836	207
94	0	0	1616	10	3836	206
95	0	0	1776	10	3837	204
96	0	0	1939	10	3837	205
97	0	0	2104	9	3838	205
98	0	0	2269	14	3836	205
99	0	0	2417	11	3836	205
100	0	0	2519	9	3837	204
101	0	0	2580	10	3836	205
102	0	0	2732	10	3836	205
103	0	0	2749	12	3835	204
104	0	0	2602	6	3836	205
105	0	0	2422	6	3836	204
106	0	0	2180	7	3835	204
107	0	0	1924	6	3835	205
108	0	0	1733	6	3836	205
109	0	0	1608	6	3833	206
110	0	0	1531	6	3836	204
111	0	0	1500	7	3837	203
112	0	0	1439	7	3836	204
113	0	0	1468	7	3837	204
114	0	0	1616	9	3836	205
115	0	0	1775	9	3835	203
116	0	0	1941	10	3836	203
117	0	0	2098	10	3837	205
118	0	0	2261	9	3839	204
119	0	0	2406	10	3837	206
120	0	0	2509	9	3836	204
121	0	0	2572	10	3836	203
122	0	0	2722	10	3835	204
123	0	0	2745	4	3836	203
124	0	0	2604	7	3836	203
125	0	0	2422	6	3835	202
126	0	0	2186	6	3836	203
127	0	0	1932	6	3836	203
0	0	0	1743	4	3839	204
1	0	0	1621	6	3835	203
2	0	0	1545	6	3836	202
3	0	0	1513	7	3840	202
4	0	0	1451	6	3836	204
5	0	0	1476	10	3836	203
6	0	0	1615	10	3835	203
7	0	0	1772	7	3835	201
8	0	0	1935	10	3836	202
9	0	0	2092	11	3835	202
10	0	0	2261	10	3835	203
11	0	0	2410	11	3835	203
12	0	0	2515	10	3836	201
13	0	0	2571	10	3835	202
14	0	0	2713	10	3836	202
15	0	0	2736	11	3835	202
16	0	0	2602	7	3837	203
17	0	0	2420	6	3837	204
18	0	0	2184	6	3835	202
19	0	0	1935	6	3837	202
20	0	0	1739	3	3837	202
21	0	0	1607	6	3836	201
22	0	0	1527	7	3837	200
23	0	0	1493	8	3832	202
24	0	0	1441	7	3835	202
25	0	0	1462	10	3835	202
26	0	0	1607	10	3836	200
27	0	0	1769	9	3836	204
28	0	0	1938	9	3836	202
29	0	0	2092	11	3834	202
30	0	0	2253	10	3836	200
31	0	0	2403	10	3837	198
32	0	0	2507	9	3836	200
33	0	0	2566	10	3836	200
34	0	0	2715	11	3836	200
35	0	0	2743	5	3836	201
36	0	0	2605	7	3837	200
37	0	0	2425	6	3837	204
38	0	0	2182	8	3835	201
39	0	0	1928	6	3836	201
40	0	0	1736	6	3836	201
41	0	0	1610	6	3837	199
42	0	0	1536	6	3836	202
43	0	0	1499	7	3837	199
44	0	0	1433	6	3835	201
45	0	0	1463	8	3836	199
46	0	0	1604	9	3836	200
47	0	0	1760	10	3835	204
48	0	0	1931	10	3835	200
49	0	0	2090	10	3836	201
50	0	0	2250	9	3836	200
51	0	0	2401	12	3840	199
52	0	0	2504	10	3836	200
53	0	0	2571	11	3836	199
54	0	0	2716	10	3836	200
55	0	0	2741	6	3836	200
56	0	0	2605	6	3837	199
57	0	0	2427	5	3836	200
58	0	0	2192	7	3835	199
59	0	0	1937	6	3836	199
60	0	0	1750	7	3836	201
61	0	0	1619	9	3836	200
62	0	0	1536	6	3838	199
63	0	0	1500	7	3833	199
64	0	0	1441	6	3837	203
65	0	0	1468	8	3837	198
66	0	0	1616	10	3836	196
67	0	0	1777	9	3837	202
68	0	0	1935	10	3836	199
69	0	0	2090	10	3836	198
70	0	0	2248	8	3837	198
71	0	0	2393	11	3837	197
72	0	0	2495	11	3836	199
73	0	0	2563	10	3836	199
74	0	0	2714	9	3835	198
75	0	0	2745	6	3836	197
76	0	0	2607	6	3836	199
77	0	0	2429	3	3834	199
78	0	0	2193	6	3836	198
79	0	0	1941	6	3835	195
80	0	0	1753	6	3835	196
81	0	0	1624	8	3836	199
82	0	0	1545	7	3836	199
83	0	0	1510	7	3835	198
84	0	0	1451	7	3836	198
85	0	0	1468	11	3836	198
86	0	0	1616	12	3837	199
87	0	0	1769	13	3836	199
88	0	0	1930	12	3836	197
89	0	0	2087	10	3834	197
90	0	0	2253	10	3836	198
91	0	0	2401	11	3836	197
92	0	0	2503	10	3836	195
93	0	0	2558	10	3833	199
94	0	0	2704	10	3836	196
95	0	0	2733	7	3836	197
96	0	0	2596	9	3836	198
97	0	0	2423	6	3835	196
98	0	0	2195	8	3836	197
99	0	0	1945	6	3836	197
100	0	0	1754	5	3836	197
101	0	0	1632	7	3837	197
102	0	0	1552	7	3837	199
103	0	0	1520	7	3836	197
104	0	0	1463	6	3836	197
105	0	0	1483	10	3836	196
106	0	0	1624	11	3836	196
107	0	0	1774	8	3836	197
108	0	0	1923	10	3836	196
109	0	0	2081	9	3837	195
110	0	0	2235	10	3836	196
111	0	0	2381	9	3836	196
112	0	0	2488	10	3836	195
113	0	0	2547	11	3834	196
114	0	0	2693	11	3835	196
115	0	0	2738	8	3835	196
116	0	0	2599	6	3836	196
117	0	0	2421	5	3836	199
118	0	0	2187	6	3838	196
119	0	0	1941	7	3836	196
120	0	0	1755	5	3836	196
121	0	0	1634	6	3836	197
122	0	0	1554	6	3836	195
123	0	0	1521	7	3836	194
124	0	0	1464	6	3835	195
125	0	0	1484	10	3833	196
126	0	0	1614	9	3836	195
127	0	0	1757	10	3836	199
0	0	0	1916	10	3838	195
1	0	0	2083	10	3838	198
2	0	0	2244	10	3835	195
3	0	0	2384	10	3835	195
4	0	0	2486	10	3837	194
5	0	0	2544	10	3838	194
6	0	0	2694	10	3836	194
7	0	0	2736	8	3836	195
8	0	0	2597	6	3836	196
9	0	0	2423	5	3837	195
10	0	0	2198	6	3837	194
11	0	0	1948	6	3836	195
12	0	0	1760	6	3836	192
13	0	0	1642	7	3834	195
14	0	0	1567	4	3836	194
15	0	0	1527	7	3838	192
16	0	0	1467	6	3835	195
17	0	0	1480	10	3835	194
18	0	0	1612	10	3834	191
19	0	0	1768	10	3835	193
20	0	0	1923	10	3837	194
21	0	0	2083	10	3836	194
22	0	0	2245	10	3836	194
23	0	0	2387	10	3836	191
24	0	0	2487	8	3837	192
25	0	0	2551	13	3837	193
26	0	0	2698	10	3836	193
27	0	0	2738	8	3836	194
28	0	0	2602	6	3835	191
29	0	0	2430	5	3832	193
30	0	0	2203	6	3836	192
31	0	0	1954	6	3838	194
32	0	0	1766	8	3835	194
33	0	0	1640	6	3835	191
34	0	0	1561	6	3836	192
35	0	0	1525	8	3837	192
36	0	0	1460	7	3835	193
37	0	0	1473	10	3836	193
38	0	0	1608	6	3836	192
39	0	0	1765	9	3838	192
40	0	0	1928	7	3839	192
41	0	0	2083	10	3838	192
42	0	0	2244	7	3835	191
43	0	0	2384	9	3836	193
44	0	0	2490	10	3837	191
45	0	0	2549	10	3837	191
46	0	0	2692	11	3837	191
47	0	0	2738	10	3840	191
48	0	0	2608	2	3835	192
49	0	0	2433	5	3835	191
50	0	0	2207	6	3837	192
51	0	0	1959	6	3835	192
52	0	0	1765	6	3832	191
53	0	0	1640	5	3835	191
54	0	0	1558	7	3836	191
55	0	0	1518	7	3836	192
56	0	0	1457	7	3836	192
57	0	0	1468	11	3836	191
58	0	0	1608	9	3836	191
59	0	0	1760	10	3837	191
60	0	0	1920	10	3836	189
61	0	0	2081	7	3837	191
62	0	0	2241	10	3837	190
63	0	0	2387	10	3837	192
64	0	0	2485	12	3836	191
65	0	0	2547	10	3835	190
66	0	0	2691	11	3838	191
67	0	0	2736	7	3832	191
68	0	0	2609	5	3835	189
69	0	0	2432	7	3836	191
70	0	0	2204	5	3835	189
71	0	0	1952	6	3836	191
72	0	0	1760	6	3836	190
73	0	0	1640	5	3836	191
74	0	0	1558	6	3836	191
75	0	0	1521	5	3837	191
76	0	0	1462	7	3835	190
77	0	0	1472	10	3836	189
78	0	0	1603	10	3837	190
79	0	0	1761	12	3836	190
80	0	0	1916	10	3836	189
81	0	0	2068	10	3835	190
82	0	0	2233	10	3835	190
83	0	0	2385	7	3835	189
84	0	0	2490	10	3836	192
85	0	0	2551	10	3835	190
86	0	0	2692	10	3835	190
87	0	0	2739	8	3836	190
88	0	0	2609	6	3836	192
89	0	0	2437	6	3837	192
90	0	0	2211	6	3836	189
91	0	0	1960	6	3838	189
92	0	0	1770	3	3835	190
93	0	0	1644	5	3835	189
94	0	0	1557	6	3837	189
95	0	0	1512	7	3833	191
96	0	0	1462	6	3835	190
97	0	0	1474	10	3836	187
98	0	0	1607	11	3835	192
99	0	0	1763	10	3836	189
100	0	0	1918	9	3835	188
101	0	0	2076	10	3835	188
102	0	0	2236	10	3836	187
103	0	0	2386	10	3835	187
104	0	0	2487	11	3837	188
105	0	0	2550	10	3836	190
106	0	0	2702	10	3837	189
107	0	0	2755	8	3838	187
108	0	0	2620	6	3837	188
109	0	0	2446	6	3839	188
110	0	0	2215	6	3837	188
111	0	0	1959	6	3836	189
112	0	0	1766	6	3837	189
113	0	0	1639	6	3835	189
114	0	0	1559	6	3836	188
115	0	0	1522	7	3835	187
116	0	0	1461	6	3835	188
117	0	0	1471	9	3835	188
118	0	0	1601	8	3835	188
119	0	0	1764	10	3836	190
120	0	0	1915	12	3835	188
121	0	0	2075	10	3837	188
122	0	0	2237	9	3837	188
123	0	0	2384	9	3837	188
124	0	0	2493	10	3838	187
125	0	0	2556	10	3836	188
126	0	0	2699	10	3838	187
127	0	0	2748	9	3837	188
0	0	0	2615	5	3836	187
1	0	0	2440	6	3837	187
2	0	0	2216	5	3836	188
3	0	0	1965	5	3837	187
4	0	0	1765	6	3836	185
5	0	0	1633	8	3836	188
6	0	0	1552	7	3836	187
7	0	0	1511	6	3836	188
8	0	0	1451	6	3835	187
9	0	0	1460	10	3836	186
10	0	0	1602	10	3838	186
11	0	0	1760	9	3837	185
12	0	0	1921	10	3837	188
13	0	0	2079	9	3840	184
14	0	0	2234	11	3837	187
15	0	0	2378	8	3836	187
16	0	0	2487	11	3837	187
17	0	0	2546	10	3835	187
18	0	0	2694	11	3835	186
19	0	0	2753	8	3836	184
20	0	0	2614	7	3835	184
21	0	0	2440	7	3835	186
22	0	0	2218	6	3835	187
23	0	0	1960	6	3833	185
24	0	0	1762	5	3835	186
25	0	0	1630	8	3836	188
26	0	0	1551	5	3836	186
27	0	0	1519	7	3837	185
28	0	0	1453	7	3836	186
29	0	0	1460	10	3833	186
30	0	0	1596	12	3838	185
31	0	0	1754	11	3837	185
32	0	0	1910	10	3836	187
33	0	0	2073	10	3835	185
34	0	0	2236	10	3837	184
35	0	0	2383	11	3836	185
36	0	0	2494	9	3836	185
37	0	0	2551	10	3836	187
38	0	0	2691	11	3835	185
39	0	0	2752	8	3835	183
40	0	0	2623	8	3836	184
41	0	0	2444	6	3836	185
42	0	0	2221	5	3836	184
43	0	0	1970	6	3836	186
44	0	0	1777	6	3837	185
45	0	0	1641	4	3833	187
46	0	0	1550	7	3837	187
47	0	0	1508	7	3836	187
48	0	0	1446	5	3836	185
49	0	0	1455	9	3835	183
50	0	0	1587	8	3836	185
51	0	0	1749	11	3837	184
52	0	0	1915	10	3836	186
53	0	0	2072	8	3836	184
54	0	0	2233	10	3834	183
55	0	0	2393	11	3836	184
56	0	0	2508	8	3836	184
57	0	0	2563	11	3835	185
58	0	0	2698	10	3835	184
59	0	0	2753	8	3835	184
60	0	0	2627	4	3836	185
61	0	0	2451	6	3840	183
62	0	0	2218	6	3837	186
63	0	0	1968	5	3837	184
64	0	0	1767	6	3840	180
65	0	0	1631	4	3836	184
66	0	0	1545	5	3838	183
67	0	0	1498	7	3836	183
68	0	0	1444	7	3837	184
69	0	0	1451	7	3835	184
70	0	0	1580	12	3836	183
71	0	0	1743	10	3837	181
72	0	0	1905	10	3835	185
73	0	0	2070	7	3835	183
74	0	0	2232	10	3835	184
75	0	0	2385	12	3836	183
76	0	0	2497	10	3837	182
77	0	0	2560	11	3836	183
78	0	0	2696	10	3838	183
79	0	0	2759	9	3835	183
80	0	0	2637	5	3838	183
81	0	0	2461	6	3837	183
82	0	0	2240	6	3836	183
83	0	0	1978	5	3837	183
84	0	0	1773	6	3837	179
85	0	0	1636	7	3837	183
86	0	0	1548	5	3836	183
87	0	0	1499	7	3835	181
88	0	0	1440	7	3836	182
89	0	0	1444	10	3834	182
90	0	0	1575	7	3836	182
91	0	0	1739	9	3836	184
92	0	0	1904	10	3836	181
93	0	0	2063	9	3838	182
94	0	0	2227	11	3840	180
95	0	0	2384	10	3838	182
96	0	0	2497	10	3838	183
97	0	0	2563	10	3836	181
98	0	0	2710	10	3836	183
99	0	0	2767	9	3840	180
100	0	0	2639	8	3836	182
101	0	0	2458	6	3837	182
102	0	0	2230	6	3836	181
103	0	0	1973	6	3836	182
104	0	0	1765	7	3840	180
105	0	0	1629	4	3837	183
106	0	0	1544	6	3836	182
107	0	0	1505	6	3835	182
108	0	0	1449	7	3835	181
109	0	0	1448	11	3838	181
110	0	0	1580	10	3837	184
111	0	0	1738	9	3837	181
112	0	0	1903	10	3838	181
113	0	0	2060	11	3837	181
114	0	0	2224	10	3837	180
115	0	0	2387	10	3838	181
116	0	0	2502	11	3837	180
117	0	0	2571	9	3837	180
118	0	0	2711	14	3835	181
119	0	0	2777	8	3837	178
120	0	0	2643	6	3836	181
121	0	0	2464	5	3836	180
122	0	0	2235	6	3835	179
123	0	0	1974	8	3836	181
124	0	0	1764	6	3836	179
125	0	0	1630	7	3838	180
126	0	0	1540	6	3837	181
127	0	0	1502	8	3836	179
0	0	0	1448	6	3836	181
1	0	0	1448	10	3836	181
2	0	0	1582	14	3837	180
3	0	0	1741	11	3837	178
4	0	0	1902	10	3836	179
5	0	0	2065	9	3837	180
6	0	0	2233	10	3834	178
7	0	0	2380	14	3836	178
8	0	0	2498	9	3836	180
9	0	0	2569	10	3835	178
10	0	0	2708	10	3835	179
11	0	0	2775	9	3835	179
12	0	0	2657	5	3836	183
13	0	0	2471	6	3836	179
14	0	0	2241	6	3836	176
15	0	0	1972	6	3836	182
16	0	0	1756	7	3837	180
17	0	0	1616	5	3837	179
18	0	0	1526	5	3837	179
19	0	0	1487	7	3838	179
20	0	0	1441	7	3836	180
21	0	0	1442	10	3836	178
22	0	0	1572	9	3837	179
23	0	0	1736	7	3836	179
24	0	0	1888	10	3836	180
25	0	0	2056	10	3836	179
26	0	0	2227	10	3835	176
27	0	0	2383	11	3836	178
28	0	0	2500	9	3836	181
29	0	0	2572	10	3836	178
30	0	0	2718	11	3835	178
31	0	0	2786	8	3835	179
32	0	0	2658	7	3836	179
33	0	0	2471	6	3836	179
34	0	0	2248	6	3836	180
35	0	0	1982	3	3837	179
36	0	0	1758	6	3837	179
37	0	0	1622	4	3837	179
38	0	0	1533	4	3837	180
39	0	0	1491	4	3837	178
40	0	0	1440	5	3836	179
41	0	0	1435	11	3835	177
42	0	0	1569	11	3836	177
43	0	0	1735	8	3836	180
44	0	0	1900	10	3835	176
45	0	0	2067	10	3836	179
46	0	0	2232	9	3834	178
47	0	0	2385	14	3836	178
48	0	0	2503	9	3837	178
49	0	0	2573	10	3836	178
50	0	0	2712	9	3836	178
51	0	0	2788	11	3836	176
52	0	0	2665	7	3836	178
53	0	0	2476	6	3837	177
54	0	0	2247	6	3836	177
55	0	0	1987	6	3836	178
56	0	0	1771	6	3836	176
57	0	0	1626	6	3837	177
58	0	0	1531	6	3836	177
59	0	0	1490	7	3835	178
60	0	0	1434	6	3835	177
61	0	0	1436	10	3833	176
62	0	0	1564	9	3835	177
63	0	0	1732	10	3836	177
64	0	0	1891	10	3835	176
65	0	0	2053	8	3836	177
66	0	0	2225	11	3837	176
67	0	0	2382	7	3837	177
68	0	0	2498	10	3837	178
69	0	0	2570	10	3835	177
70	0	0	2708	10	3836	177
71	0	0	2788	10	3836	176
72	0	0	2663	7	3836	178
73	0	0	2474	6	3836	177
74	0	0	2249	6	3835	176
75	0	0	1986	6	3835	177
76	0	0	1773	6	3836	176
77	0	0	1626	7	3835	175
78	0	0	1526	6	3836	176
79	0	0	1487	7	3835	175
80	0	0	1435	5	3835	177
81	0	0	1425	8	3835	177
82	0	0	1552	12	3836	175
83	0	0	1717	10	3836	177
84	0	0	1884	11	3836	176
85	0	0	2053	10	3837	177
86	0	0	2225	7	3836	176
87	0	0	2385	11	3836	177
88	0	0	2504	10	3836	177
89	0	0	2571	10	3835	175
90	0	0	2713	9	3835	176
91	0	0	2794	8	3835	176
92	0	0	2668	4	3835	179
93	0	0	2479	7	3837	177
94	0	0	2252	6	3836	175
95	0	0	1984	6	3836	175
96	0	0	1772	5	3836	175
97	0	0	1628	5	3836	176
98	0	0	1529	7	3836	176
99	0	0	1489	7	3837	175
100	0	0	1431	6	3836	176
101	0	0	1427	10	3836	176
102	0	0	1556	10	3837	175
103	0	0	1716	10	3837	175
104	0	0	1885	10	3836	175
105	0	0	2062	12	3836	173
106	0	0	2226	10	3836	178
107	0	0	2383	8	3836	177
108	0	0	2506	10	3836	176
109	0	0	2573	11	3836	175
110	0	0	2712	10	3834	175
111	0	0	2791	7	3835	175
112	0	0	2666	5	3835	176
113	0	0	2478	7	3836	175
114	0	0	2250	6	3835	174
115	0	0	1982	4	3835	175
116	0	0	1771	6	3839	175
117	0	0	1626	7	3837	175
118	0	0	1527	8	3837	175
119	0	0	1484	7	3836	175
120	0	0	1431	7	3836	175
121	0	0	1429	7	3835	175
122	0	0	1564	12	3836	175
123	0	0	1730	10	3836	175
124	0	0	1895	11	3835	175
125	0	0	2070	9	3833	175
126	0	0	2239	8	3836	175
127	0	0	2404	8	3835	175
0	0	0	2524	10	3836	174
1	0	0	2599	11	3835	175
2	0	0	2748	11	3836	174
3	0	0	2836	11	3834	172
4	0	0	2708	8	3836	175
5	0	0	2512	6	3837	175
6	0	0	2270	6	3840	171
7	0	0	1942	7	3838	172
8	0	0	1718	5	3838	175
9	0	0	1579	4	3836	175
10	0	0	1486	7	3837	174
11	0	0	1443	7	3836	175
12	0	0	1390	6	3835	174
13	0	0	1389	10	3835	176
14	0	0	1528	8	3835	175
15	0	0	1706	10	3836	175
16	0	0	1881	10	3835	171
17	0	0	2061	10	3835	172
18	0	0	2239	10	3836	173
19	0	0	2406	9	3836	173
20	0	0	2525	10	3836	172
21	0	0	2594	10	3837	173
22	0	0	2727	10	3836	174
23	0	0	2754	8	3836	174
24	0	0	2630	7	3836	175
25	0	0	2454	5	3837	173
26	0	0	2229	6	3836	169
27	0	0	1956	5	3836	173
28	0	0	1739	7	3835	174
29	0	0	1596	7	3835	173
30	0	0	1500	5	3837	173
31	0	0	1458	1	3835	171
32	0	0	1410	6	3835	173
33	0	0	1407	9	3835	173
34	0	0	1548	8	3835	174
35	0	0	1723	8	3835	172
36	0	0	1900	11	3835	168
37	0	0	2077	10	3836	176
38	0	0	2240	11	3836	172
39	0	0	2321	12	3836	172
40	0	0	2449	10	3837	172
41	0	0	2545	10	3836	169
42	0	0	2698	11	3836	172
43	0	0	2795	10	3833	174
44	0	0	2673	8	3836	171
45	0	0	2483	6	3836	171
46	0	0	2259	6	3835	172
47	0	0	1984	7	3836	173
48	0	0	1752	6	3833	173
49	0	0	1609	8	3835	172
50	0	0	1519	4	3836	171
51	0	0	1480	7	3835	169
52	0	0	1430	7	3836	173
53	0	0	1423	9	3832	174
54	0	0	1550	9	3835	171
55	0	0	1716	10	3837	171
56	0	0	1884	10	3836	172
57	0	0	2060	9	3838	171
58	0	0	2240	12	3836	172
59	0	0	2402	10	3837	171
60	0	0	2520	11	3838	171
61	0	0	2587	10	3836	168
62	0	0	2710	9	3836	171
63	0	0	2788	10	3836	170
64	0	0	2665	9	3834	171
65	0	0	2475	7	3836	171
66	0	0	2257	6	3835	170
67	0	0	1990	7	3835	171
68	0	0	1772	6	3836	175
69	0	0	1634	5	3835	174
70	0	0	1544	4	3836	171
71	0	0	1497	7	3836	168
72	0	0	1446	7	3836	171
73	0	0	1433	10	3839	170
74	0	0	1561	14	3836	170
75	0	0	1733	8	3837	171
76	0	0	1901	10	3836	170
77	0	0	2064	12	3835	172
78	0	0	2232	10	3836	170
79	0	0	2390	10	3836	170
80	0	0	2510	13	3836	171
81	0	0	2585	10	3836	170
82	0	0	2715	11	3835	171
83	0	0	2799	10	3835	169
84	0	0	2680	7	3833	169
85	0	0	2492	5	3835	171
86	0	0	2270	6	3835	170
87	0	0	2006	6	3837	170
88	0	0	1789	9	3837	168
89	0	0	1640	7	3835	169
90	0	0	1549	7	3837	170
91	0	0	1505	7	3836	170
92	0	0	1452	5	3836	172
93	0	0	1436	10	3839	175
94	0	0	1558	14	3836	170
95	0	0	1724	8	3836	169
96	0	0	1890	10	3836	168
97	0	0	2057	8	3838	170
98	0	0	2227	8	3832	171
99	0	0	2383	14	3835	169
100	0	0	2501	13	3836	169
101	0	0	2571	9	3836	168
102	0	0	2700	11	3835	170
103	0	0	2788	10	3836	169
104	0	0	2675	8	3837	169
105	0	0	2489	4	3837	170
106	0	0	2269	6	3837	170
107	0	0	2010	7	3838	169
108	0	0	1789	5	3837	169
109	0	0	1638	7	3834	170
110	0	0	1542	5	3837	170
111	0	0	1496	7	3836	170
112	0	0	1444	5	3836	169
113	0	0	1430	9	3832	171
114	0	0	1546	11	3837	170
115	0	0	1713	11	3836	169
116	0	0	1882	10	3836	168
117	0	0	2044	12	3835	169
118	0	0	2212	11	3835	167
119	0	0	2369	10	3834	168
120	0	0	2483	13	3836	169
121	0	0	2548	10	3836	169
122	0	0	2679	11	3838	168
123	0	0	2764	10	3837	168
124	0	0	2657	6	3837	170
125	0	0	2480	7	3839	170
126	0	0	2269	6	3837	168
127	0	0	2013	7	3836	169
0	0	0	1805	6	3836	169
1	0	0	1656	7	3837	168
2	0	0	1566	6	3836	168
3	0	0	1517	7	3835	169
4	0	0	1463	6	3835	168
5	0	0	1446	7	3835	168
6	0	0	1565	10	3837	169
7	0	0	1729	11	3836	167
8	0	0	1882	10	3835	168
9	0	0	2044	10	3836	169
10	0	0	2215	11	3836	169
11	0	0	2376	11	3839	168
12	0	0	2500	13	3836	168
13	0	0	2564	10	3836	171
14	0	0	2683	8	3839	168
15	0	0	2776	10	3836	169
16	0	0	2673	8	3840	167
17	0	0	2494	9	3837	168
18	0	0	2279	6	3836	168
19	0	0	2018	6	3836	168
20	0	0	1810	6	3836	169
21	0	0	1665	5	3837	167
22	0	0	1561	9	3836	168
23	0	0	1516	7	3837	167
24	0	0	1470	7	3835	168
25	0	0	1455	11	3836	168
26	0	0	1560	10	3840	167
27	0	0	1718	11	3838	167
28	0	0	1875	9	3837	163
29	0	0	2034	8	3839	169
30	0	0	2197	11	3836	167
31	0	0	2347	10	3840	166
32	0	0	2464	9	3838	167
33	0	0	2531	11	3836	167
34	0	0	2655	11	3836	167
35	0	0	2745	11	3836	168
36	0	0	2641	6	3836	168
37	0	0	2471	6	3836	167
38	0	0	2267	6	3835	167
39	0	0	2009	6	3836	166
40	0	0	1798	7	3835	167
41	0	0	1661	8	3836	167
42	0	0	1572	9	3838	167
43	0	0	1522	6	3838	167
44	0	0	1472	7	3837	167
45	0	0	1448	10	3837	167
46	0	0	1563	6	3838	167
47	0	0	1721	10	3836	167
48	0	0	1873	10	3837	167
49	0	0	2041	7	3837	167
50	0	0	2200	11	3837	167
51	0	0	2352	11	3839	167
52	0	0	2471	13	3837	167
53	0	0	2544	10	3836	166
54	0	0	2673	11	3836	167
55	0	0	2771	15	3835	166
56	0	0	2673	8	3836	167
57	0	0	2511	5	3835	167
58	0	0	2311	5	3836	166
59	0	0	2049	3	3838	166
60	0	0	1831	5	3836	168
61	0	0	1685	7	3840	166
62	0	0	1585	7	3839	166
63	0	0	1533	7	3837	163
64	0	0	1480	7	3836	165
65	0	0	1456	12	3837	167
66	0	0	1563	10	3837	167
67	0	0	1717	10	3836	166
68	0	0	1871	13	3840	165
69	0	0	2029	8	3838	168
70	0	0	2190	10	3837	167
71	0	0	2343	10	3838	165
72	0	0	2461	9	3837	165
73	0	0	2527	10	3836	166
74	0	0	2648	9	3836	166
75	0	0	2743	10	3837	166
76	0	0	2646	6	3840	167
77	0	0	2478	6	3836	165
78	0	0	2276	6	3840	165
79	0	0	2023	4	3839	166
80	0	0	1813	7	3837	163
81	0	0	1671	5	3838	166
82	0	0	1574	5	3838	165
83	0	0	1520	7	3837	165
84	0	0	1472	6	3837	166
85	0	0	1449	10	3836	166
86	0	0	1555	12	3836	163
87	0	0	1716	8	3836	165
88	0	0	1873	10	3838	164
89	0	0	2034	11	3837	165
90	0	0	2195	10	3836	165
91	0	0	2346	10	3837	165
92	0	0	2467	11	3838	165
93	0	0	2540	10	3838	167
94	0	0	2651	8	3839	165
95	0	0	2750	10	3837	163
96	0	0	2659	6	3839	165
97	0	0	2491	5	3838	165
98	0	0	2301	6	3836	165
99	0	0	2053	6	3837	165
100	0	0	1836	5	3838	165
101	0	0	1694	6	3838	165
102	0	0	1602	8	3838	164
103	0	0	1548	8	3836	165
104	0	0	1490	6	3836	165
105	0	0	1466	9	3837	165
106	0	0	1571	11	3836	163
107	0	0	1723	9	3837	164
108	0	0	1867	11	3837	164
109	0	0	2030	10	3838	164
110	0	0	2187	9	3840	163
111	0	0	2336	10	3838	162
112	0	0	2452	12	3839	164
113	0	0	2520	10	3838	165
114	0	0	2641	10	3838	164
115	0	0	2734	10	3840	163
116	0	0	2643	7	3837	163
117	0	0	2478	8	3837	164
118	0	0	2287	10	3836	165
119	0	0	2035	6	3837	167
120	0	0	1820	5	3837	165
121	0	0	1677	7	3837	163
122	0	0	1584	7	3837	164
123	0	0	1532	7	3838	163
124	0	0	1484	6	3836	164
125	0	0	1459	9	3838	165
126	0	0	1560	11	3837	161
127	0	0	1707	9	3836	164
