# bioPlux Text File Format
# Version: 1
# StartDateTime: 2011-07-19 17:10:36
# SamplingFrequency: 1000
# SampledChannels: 1 2 3 4 5
# SamplingResolution: 12
# AcquiringDevice: 00:07:80:42:0F:95
# EndOfHeader
0	0	0	263	4	557	824	3958
1	0	0	121	4	552	825	3958
2	0	0	44	4	557	825	3959
3	0	0	5	4	564	824	3959
4	0	0	0	4	577	824	3959
5	0	0	381	5	588	825	3959
6	0	0	1639	6	603	825	3960
7	0	0	2597	5	618	825	3960
8	0	0	3169	5	632	825	3959
9	0	0	3513	5	645	825	3959
10	0	0	3718	5	651	825	3959
11	0	0	3832	5	657	825	3959
12	0	0	3894	4	654	825	3959
13	0	0	3927	5	651	825	3959
14	0	0	3942	5	642	825	3959
15	0	0	3948	4	629	824	3959
16	0	0	2942	4	617	825	3959
17	0	0	1737	3	604	825	3959
18	0	0	970	4	583	824	3959
19	0	0	524	4	566	825	3959
20	0	0	264	4	559	825	3959
21	0	0	121	4	554	825	3959
22	0	0	44	3	558	825	3959
23	0	0	5	4	566	825	3959
24	0	0	0	5	575	825	3959
25	0	0	341	5	586	824	3959
26	0	0	1537	5	601	825	3958
27	0	0	2534	4	615	825	3959
28	0	0	3137	5	630	825	3959
29	0	0	3494	5	640	825	3958
30	0	0	3704	5	649	825	3959
31	0	0	3826	5	652	825	3959
32	0	0	3892	4	653	825	3960
33	0	0	3924	5	649	825	3959
34	0	0	3941	5	642	825	3960
35	0	0	3949	4	631	825	3959
36	0	0	2982	4	619	825	3958
37	0	0	1805	4	606	825	3959
38	0	0	1002	4	584	825	3959
39	0	0	543	4	571	825	3959
40	0	0	277	3	561	825	3959
41	0	0	129	4	557	825	3959
42	0	0	47	3	560	825	3959
43	0	0	7	4	566	824	3959
44	0	0	0	4	575	825	3959
45	0	0	263	5	587	825	3959
46	0	0	1409	5	597	825	3959
47	0	0	2451	5	612	825	3959
48	0	0	3081	5	628	825	3959
49	0	0	3460	5	641	825	3958
50	0	0	3688	5	649	825	3959
51	0	0	3815	5	651	825	3959
52	0	0	3884	4	652	825	3959
53	0	0	3924	5	648	825	3960
54	0	0	3942	5	641	825	3960
55	0	0	3916	4	631	825	3960
56	0	0	2978	4	622	825	3959
57	0	0	1875	3	610	825	3960
58	0	0	1206	4	590	825	3959
59	0	0	661	4	576	824	3959
60	0	0	345	4	567	824	3960
61	0	0	166	4	565	825	3959
62	0	0	69	4	566	825	3960
63	0	0	19	4	572	825	3959
64	0	0	0	4	578	824	3958
65	0	0	273	5	588	825	3958
66	0	0	1309	5	599	824	3958
67	0	0	2348	5	611	825	3959
68	0	0	3025	5	626	825	3959
69	0	0	3427	5	637	825	3959
70	0	0	3666	4	645	825	3959
71	0	0	3804	5	649	825	3964
72	0	0	3879	4	648	825	3959
73	0	0	3920	5	644	825	3960
74	0	0	3939	5	640	825	3959
75	0	0	3923	4	630	825	3960
76	0	0	3019	4	619	825	3960
77	0	0	1940	4	609	825	3959
78	0	0	1303	4	590	825	3960
79	0	0	716	4	575	825	3958
80	0	0	377	3	567	825	3959
81	0	0	184	4	563	825	3958
82	0	0	80	3	565	825	3959
83	0	0	24	4	571	825	3959
84	0	0	0	4	578	824	3959
85	0	0	220	5	588	825	3959
86	0	0	1256	5	598	825	3959
87	0	0	2304	5	609	825	3958
88	0	0	2991	5	626	825	3959
89	0	0	3407	5	635	825	3959
90	0	0	3656	5	643	825	3959
91	0	0	3799	5	645	825	3959
92	0	0	3878	5	647	825	3960
93	0	0	3916	5	646	825	3958
94	0	0	3939	5	640	825	3960
95	0	0	3916	4	630	825	3958
96	0	0	3022	4	620	825	3958
97	0	0	1943	4	607	825	3959
98	0	0	1316	3	590	825	3959
99	0	0	730	4	578	825	3958
100	0	0	385	4	568	824	3958
101	0	0	188	4	563	825	3959
102	0	0	82	4	566	825	3960
103	0	0	26	4	572	825	3959
104	0	0	0	4	579	825	3959
105	0	0	192	5	587	824	3959
106	0	0	1195	5	598	825	3959
107	0	0	2248	5	610	824	3960
108	0	0	2964	5	626	825	3960
109	0	0	3391	5	638	825	3958
110	0	0	3645	5	644	825	3960
111	0	0	3793	4	647	825	3960
112	0	0	3873	5	650	825	3959
113	0	0	3918	5	649	825	3959
114	0	0	3936	6	643	825	3958
115	0	0	3948	4	634	825	3959
116	0	0	3113	4	623	825	3959
117	0	0	2060	3	611	825	3959
118	0	0	1428	4	591	825	3959
119	0	0	796	4	578	825	3958
120	0	0	423	4	570	825	3959
121	0	0	211	4	564	824	3959
122	0	0	94	4	566	824	3959
123	0	0	32	4	572	825	3959
124	0	0	0	4	579	825	3960
125	0	0	175	5	589	824	3959
126	0	0	1182	5	600	825	3959
127	0	0	2237	5	611	825	3960
0	0	0	2950	5	624	825	3958
1	0	0	3382	5	636	825	3958
2	0	0	3642	5	643	825	3958
3	0	0	3790	5	650	825	3958
4	0	0	3871	4	649	825	3959
5	0	0	3916	5	645	825	3959
6	0	0	3937	5	640	825	3959
7	0	0	3947	4	632	825	3960
8	0	0	3104	3	623	825	3960
9	0	0	2046	3	612	825	3959
10	0	0	1422	4	593	825	3960
11	0	0	799	4	580	824	3959
12	0	0	425	4	570	824	3959
13	0	0	210	4	566	824	3959
14	0	0	93	4	567	825	3959
15	0	0	31	4	571	824	3959
16	0	0	1	4	579	825	3959
17	0	0	186	5	588	825	3959
18	0	0	1181	5	599	825	3958
19	0	0	2188	5	611	825	3959
20	0	0	2928	5	628	825	3958
21	0	0	3369	5	639	825	3959
22	0	0	3631	5	646	825	3954
23	0	0	3784	5	648	826	3960
24	0	0	3868	4	649	825	3959
25	0	0	3916	5	646	825	3960
26	0	0	3937	6	641	825	3959
27	0	0	3946	4	632	825	3959
28	0	0	3116	4	621	825	3959
29	0	0	2071	4	613	825	3959
30	0	0	1437	4	591	825	3959
31	0	0	804	5	579	825	3958
32	0	0	428	4	572	825	3958
33	0	0	213	4	568	825	3959
34	0	0	95	4	567	825	3960
35	0	0	32	4	572	825	3959
36	0	0	0	4	580	825	3960
37	0	0	166	5	591	825	3958
38	0	0	1170	5	602	825	3958
39	0	0	2232	5	615	825	3959
40	0	0	2955	5	630	825	3958
41	0	0	3384	5	641	825	3958
42	0	0	3640	5	646	825	3959
43	0	0	3790	5	652	825	3959
44	0	0	3873	5	648	825	3960
45	0	0	3914	5	648	825	3959
46	0	0	3937	5	642	825	3959
47	0	0	3946	5	633	825	3959
48	0	0	3142	4	624	825	3958
49	0	0	2096	4	611	825	3959
50	0	0	1437	4	596	825	3958
51	0	0	812	4	581	824	3958
52	0	0	432	4	572	824	3959
53	0	0	216	4	567	825	3960
54	0	0	94	4	568	825	3958
55	0	0	32	4	573	825	3959
56	0	0	2	4	581	825	3958
57	0	0	160	5	590	824	3959
58	0	0	1151	5	602	825	3960
59	0	0	2155	5	611	825	3959
60	0	0	2903	5	626	825	3960
61	0	0	3357	5	640	825	3959
62	0	0	3623	5	648	825	3959
63	0	0	3779	5	650	825	3958
64	0	0	3865	4	652	825	3959
65	0	0	3914	6	649	825	3959
66	0	0	3935	5	642	824	3958
67	0	0	3944	5	635	825	3958
68	0	0	3151	4	623	825	3959
69	0	0	2122	4	614	825	3959
70	0	0	1483	4	596	825	3958
71	0	0	844	4	583	825	3959
72	0	0	447	3	575	825	3958
73	0	0	224	4	569	825	3958
74	0	0	101	4	568	825	3959
75	0	0	34	4	575	825	3960
76	0	0	1	5	581	825	3959
77	0	0	164	5	592	824	3959
78	0	0	1148	5	601	825	3960
79	0	0	2213	4	611	825	3959
80	0	0	2938	5	629	825	3960
81	0	0	3372	6	640	825	3958
82	0	0	3633	5	647	825	3958
83	0	0	3785	5	654	825	3958
84	0	0	3867	5	652	825	3958
85	0	0	3912	5	651	825	3959
86	0	0	3935	6	644	825	3958
87	0	0	3944	5	636	825	3958
88	0	0	3182	4	626	824	3959
89	0	0	2151	4	614	825	3959
90	0	0	1493	4	596	825	3959
91	0	0	851	4	583	825	3960
92	0	0	454	4	574	826	3959
93	0	0	227	4	568	824	3959
94	0	0	101	4	568	825	3960
95	0	0	35	4	575	825	3959
96	0	0	1	4	583	824	3959
97	0	0	156	5	591	824	3959
98	0	0	1075	5	603	825	3958
99	0	0	2121	5	613	825	3959
100	0	0	2881	5	627	825	3959
101	0	0	3344	5	638	825	3959
102	0	0	3617	5	647	824	3958
103	0	0	3775	5	650	825	3958
104	0	0	3861	5	652	825	3959
105	0	0	3909	5	649	825	3958
106	0	0	3932	5	642	825	3958
107	0	0	3943	5	635	825	3959
108	0	0	3181	4	625	825	3960
109	0	0	2152	4	613	825	3959
110	0	0	1502	4	597	825	3959
111	0	0	864	3	582	824	3959
112	0	0	457	4	572	825	3958
113	0	0	230	4	569	824	3959
114	0	0	103	4	568	825	3960
115	0	0	35	4	573	825	3959
116	0	0	1	4	581	825	3958
117	0	0	155	5	590	825	3959
118	0	0	1150	5	600	825	3959
119	0	0	2222	5	611	825	3959
120	0	0	2942	5	629	825	3959
121	0	0	3374	5	640	825	3958
122	0	0	3633	6	648	825	3959
123	0	0	3785	5	651	824	3958
124	0	0	3867	5	651	825	3959
125	0	0	3911	5	649	825	3959
126	0	0	3934	5	643	825	3959
127	0	0	3943	5	635	825	3959
0	0	0	3201	4	627	824	3959
1	0	0	2173	4	616	825	3960
2	0	0	1495	4	598	825	3959
3	0	0	860	4	584	824	3958
4	0	0	458	4	577	824	3959
5	0	0	227	4	569	825	3960
6	0	0	101	4	570	825	3959
7	0	0	34	4	576	824	3959
8	0	0	0	4	583	824	3958
9	0	0	162	5	591	825	3958
10	0	0	1076	5	600	825	3959
11	0	0	2151	4	613	825	3960
12	0	0	2897	5	629	825	3958
13	0	0	3352	4	640	825	3958
14	0	0	3621	6	648	824	3959
15	0	0	3775	5	652	825	3959
16	0	0	3862	5	652	825	3959
17	0	0	3907	5	652	825	3959
18	0	0	3931	5	645	825	3959
19	0	0	3942	4	637	825	3959
20	0	0	3225	4	627	825	3959
21	0	0	2200	4	618	825	3959
22	0	0	1541	4	599	825	3960
23	0	0	887	5	586	824	3958
24	0	0	471	4	577	824	3959
25	0	0	236	4	570	825	3960
26	0	0	105	4	571	825	3959
27	0	0	35	4	576	824	3958
28	0	0	0	4	584	824	3958
29	0	0	145	5	592	824	3959
30	0	0	1119	5	602	824	3959
31	0	0	2189	5	613	825	3960
32	0	0	2919	5	628	825	3959
33	0	0	3361	5	641	825	3959
34	0	0	3623	5	647	824	3959
35	0	0	3779	5	650	825	3959
36	0	0	3863	5	652	825	3959
37	0	0	3910	5	651	825	3960
38	0	0	3932	5	644	825	3959
39	0	0	3941	6	637	825	3959
40	0	0	3205	4	627	824	3959
41	0	0	2184	4	615	825	3959
42	0	0	1504	4	600	825	3959
43	0	0	870	4	585	825	3960
44	0	0	463	4	577	824	3959
45	0	0	231	4	569	824	3959
46	0	0	100	4	570	825	3959
47	0	0	32	4	574	825	3960
48	0	0	0	4	582	824	3959
49	0	0	0	6	591	824	3959
50	0	0	992	5	602	825	3959
51	0	0	2076	5	610	825	3959
52	0	0	2854	5	627	825	3959
53	0	0	3324	5	640	825	3959
54	0	0	3603	5	648	825	3958
55	0	0	3766	5	651	825	3959
56	0	0	3855	5	652	825	3959
57	0	0	3907	5	650	825	3960
58	0	0	3929	4	646	825	3958
59	0	0	3939	5	637	825	3959
60	0	0	3213	4	629	825	3960
61	0	0	2191	4	618	825	3959
62	0	0	1523	4	600	825	3960
63	0	0	882	5	584	824	3958
64	0	0	467	5	576	825	3959
65	0	0	233	4	569	824	3959
66	0	0	103	4	570	825	3960
67	0	0	33	5	575	825	3959
68	0	0	0	4	583	825	3959
69	0	0	95	4	593	825	3959
70	0	0	1065	5	602	824	3959
71	0	0	2139	5	613	825	3959
72	0	0	2890	5	628	825	3958
73	0	0	3344	5	640	825	3960
74	0	0	3615	5	648	826	3958
75	0	0	3772	5	652	825	3959
76	0	0	3860	5	653	825	3960
77	0	0	3905	5	650	825	3959
78	0	0	3929	5	644	824	3959
79	0	0	3939	5	637	825	3959
80	0	0	3231	4	629	825	3959
81	0	0	2215	4	618	825	3959
82	0	0	1527	4	601	825	3959
83	0	0	888	4	585	825	3959
84	0	0	473	3	578	824	3959
85	0	0	234	4	569	824	3959
86	0	0	103	4	572	825	3959
87	0	0	34	4	575	825	3959
88	0	0	0	4	584	825	3958
89	0	0	0	4	592	825	3958
90	0	0	996	5	602	825	3959
91	0	0	2085	5	612	825	3959
92	0	0	2858	5	628	825	3958
93	0	0	3328	5	641	825	3960
94	0	0	3606	5	648	825	3959
95	0	0	3766	5	651	825	3959
96	0	0	3858	5	653	825	3960
97	0	0	3904	5	651	825	3959
98	0	0	3928	5	645	825	3960
99	0	0	3941	5	637	827	3959
100	0	0	3228	4	629	825	3959
101	0	0	2211	4	618	825	3960
102	0	0	1524	4	601	825	3959
103	0	0	887	4	586	825	3959
104	0	0	468	4	578	825	3958
105	0	0	234	4	570	825	3959
106	0	0	103	4	571	825	3959
107	0	0	33	4	576	824	3959
108	0	0	0	4	583	825	3958
109	0	0	226	5	591	825	3958
110	0	0	1025	5	602	825	3959
111	0	0	2097	5	613	825	3959
112	0	0	2864	5	629	825	3959
113	0	0	3328	5	639	825	3958
114	0	0	3607	5	648	825	3959
115	0	0	3767	5	653	825	3960
116	0	0	3855	5	652	825	3960
117	0	0	3905	5	651	825	3960
118	0	0	3929	5	645	825	3959
119	0	0	3939	5	638	825	3959
120	0	0	3239	4	629	825	3960
121	0	0	2222	4	617	825	3959
122	0	0	1525	5	599	825	3959
123	0	0	889	4	584	825	3959
124	0	0	474	4	576	825	3958
125	0	0	234	4	573	825	3959
126	0	0	103	4	570	825	3959
127	0	0	35	4	574	825	3959
0	0	0	0	4	582	824	3958
1	0	0	0	5	590	825	3958
2	0	0	932	5	600	824	3959
3	0	0	2018	5	612	825	3959
4	0	0	2819	5	627	825	3959
5	0	0	3305	5	637	825	3960
6	0	0	3592	5	648	826	3959
7	0	0	3758	5	653	824	3959
8	0	0	3851	5	653	825	3959
9	0	0	3902	5	651	825	3959
10	0	0	3928	4	644	825	3958
11	0	0	3939	5	638	825	3959
12	0	0	3265	4	628	826	3959
13	0	0	2246	4	618	825	3959
14	0	0	1554	4	599	825	3960
15	0	0	917	3	585	825	3958
16	0	0	486	4	575	825	3959
17	0	0	243	4	571	825	3960
18	0	0	108	4	571	825	3959
19	0	0	36	4	574	825	3960
20	0	0	0	4	580	825	3959
21	0	0	0	5	591	825	3959
22	0	0	955	5	602	825	3960
23	0	0	2033	5	610	825	3959
24	0	0	2828	5	627	825	3960
25	0	0	3307	5	639	825	3958
26	0	0	3591	5	647	825	3958
27	0	0	3759	5	651	824	3958
28	0	0	3852	5	654	825	3959
29	0	0	3902	5	650	825	3958
30	0	0	3927	5	646	825	3958
31	0	0	3939	5	638	825	3958
32	0	0	3274	4	628	824	3959
33	0	0	2265	4	619	825	3960
34	0	0	1567	4	600	825	3958
35	0	0	926	4	585	824	3958
36	0	0	496	4	577	824	3959
37	0	0	247	4	571	825	3959
38	0	0	110	4	571	825	3959
39	0	0	37	4	575	825	3960
40	0	0	0	3	581	824	3959
41	0	0	0	5	592	825	3959
42	0	0	975	5	600	824	3959
43	0	0	2055	5	612	825	3960
44	0	0	2840	5	628	825	3958
45	0	0	3316	5	640	825	3959
46	0	0	3599	5	647	825	3958
47	0	0	3762	5	653	825	3959
48	0	0	3856	5	654	825	3960
49	0	0	3902	5	653	825	3958
50	0	0	3927	5	647	825	3959
51	0	0	3939	5	639	826	3959
52	0	0	3277	4	630	825	3959
53	0	0	2264	4	621	825	3959
54	0	0	1577	4	603	825	3959
55	0	0	941	5	587	825	3959
56	0	0	501	4	577	824	3959
57	0	0	251	4	574	825	3959
58	0	0	112	4	572	825	3959
59	0	0	37	4	576	824	3958
60	0	0	0	5	583	825	3958
61	0	0	0	5	591	825	3959
62	0	0	1012	5	601	825	3960
63	0	0	2092	5	612	825	3959
64	0	0	2863	5	630	825	3959
65	0	0	3327	5	642	825	3958
66	0	0	3605	5	651	825	3959
67	0	0	3766	5	656	825	3959
68	0	0	3854	5	656	825	3959
69	0	0	3904	5	652	825	3960
70	0	0	3928	4	646	825	3959
71	0	0	3938	5	638	825	3959
72	0	0	3265	4	631	825	3959
73	0	0	2254	4	622	825	3959
74	0	0	1546	4	603	825	3959
75	0	0	917	4	586	825	3958
76	0	0	490	4	578	824	3958
77	0	0	242	4	573	825	3959
78	0	0	108	4	573	825	3959
79	0	0	35	4	577	824	3958
80	0	0	0	5	582	825	3958
81	0	0	0	5	592	824	3958
82	0	0	970	5	601	825	3959
83	0	0	2036	5	612	825	3959
84	0	0	2836	5	628	825	3958
85	0	0	3311	6	640	825	3958
86	0	0	3594	5	651	825	3958
87	0	0	3759	5	653	825	3958
88	0	0	3851	5	656	825	3959
89	0	0	3901	5	653	825	3959
90	0	0	3927	6	646	825	3959
91	0	0	3938	5	640	824	3958
92	0	0	3303	4	630	824	3959
93	0	0	2291	4	620	825	3959
94	0	0	1580	4	603	825	3958
95	0	0	941	4	587	825	3958
96	0	0	503	4	579	824	3958
97	0	0	252	4	571	825	3958
98	0	0	113	4	572	825	3959
99	0	0	37	5	575	825	3958
100	0	0	0	4	582	825	3960
101	0	0	0	5	591	825	3959
102	0	0	1011	5	603	825	3959
103	0	0	2067	5	612	825	3960
104	0	0	2847	5	628	825	3960
105	0	0	3317	5	641	824	3958
106	0	0	3599	5	649	825	3959
107	0	0	3761	5	654	825	3959
108	0	0	3851	5	654	825	3959
109	0	0	3899	5	654	825	3959
110	0	0	3926	5	648	825	3960
111	0	0	3938	5	640	824	3958
112	0	0	3310	4	631	825	3958
113	0	0	2299	4	623	825	3959
114	0	0	1596	4	602	825	3960
115	0	0	958	4	586	824	3958
116	0	0	513	4	580	825	3958
117	0	0	255	4	575	825	3959
118	0	0	114	4	572	825	3959
119	0	0	38	4	578	824	3959
120	0	0	0	4	584	825	3958
121	0	0	0	5	593	825	3960
122	0	0	1007	5	604	825	3958
123	0	0	2054	5	612	824	3959
124	0	0	2844	5	627	825	3958
125	0	0	3315	5	643	825	3958
126	0	0	3594	5	649	825	3958
127	0	0	3759	5	653	825	3959
0	0	0	3850	5	655	825	3959
1	0	0	3899	5	655	825	3958
2	0	0	3924	4	649	825	3959
3	0	0	3936	5	641	825	3959
4	0	0	3291	4	633	825	3959
5	0	0	2284	4	621	825	3960
6	0	0	1557	4	604	825	3958
7	0	0	928	4	588	825	3958
8	0	0	496	4	579	824	3959
9	0	0	247	4	575	825	3959
10	0	0	109	4	571	824	3959
11	0	0	34	4	577	824	3959
12	0	0	0	4	584	824	3958
13	0	0	0	5	592	824	3958
14	0	0	996	5	603	825	3959
15	0	0	2064	5	612	825	3959
16	0	0	2844	5	629	825	3960
17	0	0	3314	5	642	825	3958
18	0	0	3597	5	649	825	3959
19	0	0	3760	5	653	825	3959
20	0	0	3849	5	655	824	3959
21	0	0	3898	5	653	825	3958
22	0	0	3923	5	648	825	3960
23	0	0	3936	5	641	825	3959
24	0	0	3291	4	632	825	3959
25	0	0	2273	4	620	825	3960
26	0	0	1531	5	604	825	3959
27	0	0	922	4	587	824	3958
28	0	0	491	4	579	824	3958
29	0	0	242	4	572	825	3959
30	0	0	105	4	570	825	3959
31	0	0	32	4	575	824	3958
32	0	0	0	4	583	825	3958
33	0	0	0	5	592	825	3958
34	0	0	926	5	602	825	3959
35	0	0	2012	5	611	825	3959
36	0	0	2820	4	629	825	3958
37	0	0	3300	5	642	825	3958
38	0	0	3586	5	650	825	3959
39	0	0	3754	5	655	825	3960
40	0	0	3847	5	657	824	3959
41	0	0	3898	5	654	825	3960
42	0	0	3924	4	650	825	3958
43	0	0	3935	5	642	825	3959
44	0	0	3343	4	632	825	3960
45	0	0	2332	4	619	825	3959
46	0	0	1594	4	603	825	3958
47	0	0	957	3	590	825	3958
48	0	0	512	4	577	824	3958
49	0	0	256	4	571	825	3959
50	0	0	111	4	572	825	3959
51	0	0	36	4	574	825	3958
52	0	0	0	3	583	824	3958
53	0	0	0	5	592	825	3958
54	0	0	949	5	602	825	3958
55	0	0	2019	5	612	824	3959
56	0	0	2816	5	628	825	3958
57	0	0	3297	5	643	825	3960
58	0	0	3588	5	650	826	3959
59	0	0	3753	5	653	825	3959
60	0	0	3847	5	656	825	3960
61	0	0	3897	5	655	825	3958
62	0	0	3922	4	650	825	3960
63	0	0	3935	5	642	826	3959
64	0	0	3347	4	632	825	3959
65	0	0	2332	4	623	825	3959
66	0	0	1585	4	603	825	3958
67	0	0	965	4	589	825	3958
68	0	0	514	4	581	825	3959
69	0	0	256	4	574	825	3958
70	0	0	112	4	573	825	3959
71	0	0	36	4	578	825	3959
72	0	0	0	6	586	824	3958
73	0	0	0	5	592	825	3959
74	0	0	945	5	604	825	3960
75	0	0	2092	5	614	824	3959
76	0	0	2867	5	629	825	3960
77	0	0	3328	5	643	825	3958
78	0	0	3601	5	649	825	3959
79	0	0	3762	5	656	825	3959
80	0	0	3850	5	657	825	3959
81	0	0	3898	5	655	825	3958
82	0	0	3923	5	652	825	3960
83	0	0	3935	5	643	825	3959
84	0	0	3341	4	634	825	3959
85	0	0	2349	4	622	825	3960
86	0	0	1591	4	606	825	3958
87	0	0	974	4	590	825	3959
88	0	0	522	4	581	825	3959
89	0	0	260	4	576	824	3959
90	0	0	114	4	573	824	3959
91	0	0	35	4	578	825	3959
92	0	0	0	4	585	825	3959
93	0	0	0	4	594	824	3959
94	0	0	935	5	604	825	3959
95	0	0	1998	5	613	825	3959
96	0	0	2806	5	632	825	3960
97	0	0	3294	5	643	825	3959
98	0	0	3581	5	651	825	3958
99	0	0	3749	5	657	826	3959
100	0	0	3843	5	657	825	3960
101	0	0	3893	5	657	825	3958
102	0	0	3919	5	649	825	3959
103	0	0	3933	5	642	825	3958
104	0	0	3353	4	633	826	3959
105	0	0	2345	4	623	825	3960
106	0	0	1582	4	604	825	3958
107	0	0	968	4	589	825	3960
108	0	0	517	4	581	824	3959
109	0	0	255	4	575	826	3959
110	0	0	111	4	572	824	3959
111	0	0	34	4	577	824	3959
112	0	0	0	4	584	825	3959
113	0	0	0	5	592	825	3959
114	0	0	941	5	602	825	3959
115	0	0	2039	5	613	824	3959
116	0	0	2837	5	630	825	3959
117	0	0	3308	5	641	825	3958
118	0	0	3588	5	650	825	3959
119	0	0	3754	5	655	825	3959
120	0	0	3845	5	655	825	3959
121	0	0	3896	5	654	825	3960
122	0	0	3921	4	651	825	3958
123	0	0	3931	4	641	825	3959
124	0	0	3341	4	633	826	3959
125	0	0	2334	4	622	825	3959
126	0	0	1547	4	605	825	3959
127	0	0	945	4	591	825	3960
0	0	0	503	4	579	826	3959
1	0	0	250	4	576	825	3959
2	0	0	106	4	572	825	3959
3	0	0	32	4	576	825	3960
4	0	0	0	4	584	824	3959
5	0	0	0	5	593	825	3958
6	0	0	889	5	601	826	3959
7	0	0	1955	5	612	824	3959
8	0	0	2778	6	626	825	3958
9	0	0	3272	5	640	825	3959
10	0	0	3571	5	651	825	3958
11	0	0	3742	5	655	825	3958
12	0	0	3839	5	656	825	3959
13	0	0	3891	5	654	825	3958
14	0	0	3918	5	650	825	3959
15	0	0	3930	5	639	825	3959
16	0	0	3329	4	633	825	3960
17	0	0	2305	4	622	825	3959
18	0	0	1504	4	606	825	3960
19	0	0	919	4	588	825	3958
20	0	0	485	4	578	824	3958
21	0	0	239	4	572	825	3958
22	0	0	102	4	572	825	3959
23	0	0	30	4	576	824	3959
24	0	0	0	4	584	825	3959
25	0	0	0	4	593	825	3959
26	0	0	926	5	602	825	3959
27	0	0	1994	5	613	825	3959
28	0	0	2808	5	627	824	3958
29	0	0	3291	5	642	825	3958
30	0	0	3579	5	650	825	3959
31	0	0	3751	5	653	825	3960
32	0	0	3843	5	655	825	3959
33	0	0	3893	5	653	825	3959
34	0	0	3919	5	648	825	3959
35	0	0	3932	5	642	825	3959
36	0	0	3357	4	632	825	3959
37	0	0	2349	4	622	825	3960
38	0	0	1537	4	603	825	3958
39	0	0	941	4	588	825	3958
40	0	0	502	4	578	824	3959
41	0	0	248	4	571	825	3958
42	0	0	106	4	571	825	3959
43	0	0	31	4	575	825	3958
44	0	0	0	4	582	825	3958
45	0	0	0	5	591	825	3959
46	0	0	837	5	601	825	3959
47	0	0	1898	5	611	825	3959
48	0	0	2744	5	627	825	3960
49	0	0	3258	6	640	824	3958
50	0	0	3559	5	651	825	3959
51	0	0	3736	5	653	825	3959
52	0	0	3835	4	653	825	3959
53	0	0	3890	5	654	825	3958
54	0	0	3918	5	649	825	3958
55	0	0	3931	5	640	824	3958
56	0	0	3344	4	629	825	3958
57	0	0	2327	4	620	825	3960
58	0	0	1508	4	602	825	3958
59	0	0	929	4	586	825	3958
60	0	0	491	3	579	825	3959
61	0	0	244	4	573	825	3959
62	0	0	105	4	568	825	3959
63	0	0	31	4	573	825	3958
64	0	0	0	4	582	825	3958
65	0	0	0	5	590	824	3959
66	0	0	872	5	600	825	3959
67	0	0	1915	5	609	825	3959
68	0	0	2753	5	625	825	3958
69	0	0	3258	5	639	825	3958
70	0	0	3561	5	647	825	3958
71	0	0	3739	5	654	825	3958
72	0	0	3837	5	654	825	3959
73	0	0	3892	5	651	825	3958
74	0	0	3919	5	647	825	3959
75	0	0	3933	5	641	825	3958
76	0	0	3355	4	629	825	3959
77	0	0	2340	4	621	825	3960
78	0	0	1501	4	601	825	3958
79	0	0	921	4	586	825	3958
80	0	0	490	3	577	825	3959
81	0	0	244	4	572	825	3960
82	0	0	104	4	568	825	3959
83	0	0	33	4	573	824	3959
84	0	0	0	4	579	824	3959
85	0	0	0	4	590	825	3960
86	0	0	746	5	598	824	3959
87	0	0	1800	5	608	824	3959
88	0	0	2684	5	624	825	3958
89	0	0	3223	5	639	825	3958
90	0	0	3541	4	648	825	3959
91	0	0	3728	5	651	825	3958
92	0	0	3834	5	655	825	3959
93	0	0	3889	5	652	825	3958
94	0	0	3918	5	647	825	3958
95	0	0	3933	4	640	825	3959
96	0	0	3364	4	629	825	3960
97	0	0	2339	4	620	825	3959
98	0	0	1503	4	605	825	3958
99	0	0	928	4	589	824	3959
100	0	0	492	4	579	825	3959
101	0	0	245	4	572	825	3959
102	0	0	108	4	571	825	3959
103	0	0	34	5	574	824	3958
104	0	0	0	4	580	824	3958
105	0	0	0	5	590	825	3959
106	0	0	809	5	599	825	3959
107	0	0	1840	5	610	825	3959
108	0	0	2718	5	624	824	3958
109	0	0	3238	5	639	825	3959
110	0	0	3552	5	648	825	3958
111	0	0	3735	5	652	825	3959
112	0	0	3837	5	653	825	3959
113	0	0	3893	4	653	825	3958
114	0	0	3922	5	648	824	3959
115	0	0	3936	4	639	825	3959
116	0	0	3347	4	629	825	3960
117	0	0	2334	4	621	825	3959
118	0	0	1476	4	602	825	3958
119	0	0	912	4	587	825	3960
120	0	0	487	3	579	825	3959
121	0	0	243	4	569	825	3959
122	0	0	106	4	567	825	3959
123	0	0	34	4	573	825	3958
124	0	0	0	4	580	824	3959
125	0	0	0	4	590	825	3959
126	0	0	744	5	599	824	3959
127	0	0	1801	5	609	824	3959
0	0	0	2687	5	623	825	3960
1	0	0	3226	4	638	825	3958
2	0	0	3543	4	648	825	3959
3	0	0	3729	5	650	825	3959
4	0	0	3835	5	654	825	3959
5	0	0	3893	6	652	825	3959
6	0	0	3922	5	648	825	3960
7	0	0	3939	5	641	825	3959
8	0	0	3375	4	632	825	3959
9	0	0	2345	4	620	825	3959
10	0	0	1488	4	605	824	3958
11	0	0	926	4	588	824	3959
12	0	0	492	3	578	825	3958
13	0	0	247	4	573	825	3959
14	0	0	110	4	570	825	3959
15	0	0	37	4	571	825	3959
16	0	0	0	4	580	824	3958
17	0	0	0	4	589	825	3959
18	0	0	718	5	600	825	3960
19	0	0	1772	5	610	825	3959
20	0	0	2669	5	625	825	3958
21	0	0	3209	5	641	824	3960
22	0	0	3535	6	652	825	3959
23	0	0	3727	5	656	825	3959
24	0	0	3836	5	655	825	3959
25	0	0	3895	5	653	825	3960
26	0	0	3926	5	650	825	3958
27	0	0	3939	5	640	825	3958
28	0	0	3401	4	631	825	3958
29	0	0	2396	4	622	825	3959
30	0	0	1542	4	606	825	3958
31	0	0	973	4	588	824	3959
32	0	0	525	4	578	825	3958
33	0	0	267	3	573	825	3958
34	0	0	121	4	569	825	3959
35	0	0	44	4	575	825	3958
36	0	0	5	4	582	824	3959
37	0	0	0	4	590	824	3959
38	0	0	722	5	601	825	3959
39	0	0	1777	5	611	825	3959
40	0	0	2673	5	626	825	3960
41	0	0	3219	7	640	825	3958
42	0	0	3541	6	650	825	3958
43	0	0	3731	5	654	825	3959
44	0	0	3839	5	657	825	3959
45	0	0	3895	5	655	825	3958
46	0	0	3926	5	649	824	3959
47	0	0	3940	5	643	825	3958
48	0	0	3339	4	635	825	3959
49	0	0	2343	4	624	825	3959
50	0	0	1495	4	609	824	3958
51	0	0	953	4	593	824	3958
52	0	0	509	4	582	825	3959
53	0	0	258	4	575	825	3960
54	0	0	118	4	571	824	3959
55	0	0	44	4	574	825	3959
56	0	0	5	4	580	824	3960
57	0	0	0	4	591	825	3959
58	0	0	770	5	600	825	3958
59	0	0	1813	5	612	825	3959
60	0	0	2693	5	626	825	3958
61	0	0	3226	5	643	825	3958
62	0	0	3547	5	651	825	3958
63	0	0	3738	5	655	825	3959
64	0	0	3841	5	654	825	3959
65	0	0	3899	5	654	825	3958
66	0	0	3928	5	650	825	3958
67	0	0	3943	5	645	825	3959
68	0	0	3369	3	633	825	3959
69	0	0	2374	4	624	825	3960
70	0	0	1503	4	608	824	3959
71	0	0	957	4	591	825	3958
72	0	0	516	4	581	824	3959
73	0	0	263	3	574	825	3959
74	0	0	120	4	571	824	3959
75	0	0	45	4	576	824	3958
76	0	0	7	4	583	824	3959
77	0	0	0	4	592	825	3958
78	0	0	728	5	600	825	3959
79	0	0	1773	5	612	824	3959
80	0	0	2671	4	628	825	3958
81	0	0	3219	5	641	824	3959
82	0	0	3544	5	652	825	3958
83	0	0	3732	5	654	825	3959
84	0	0	3840	5	657	825	3959
85	0	0	3899	5	657	825	3958
86	0	0	3930	5	652	825	3959
87	0	0	3944	5	644	825	3958
88	0	0	3419	4	633	825	3959
89	0	0	2414	4	623	824	3959
90	0	0	1547	4	607	825	3960
91	0	0	962	4	591	825	3958
92	0	0	516	5	581	825	3958
93	0	0	263	4	572	825	3960
94	0	0	122	4	571	825	3958
95	0	0	46	4	578	825	3958
96	0	0	9	4	583	824	3959
97	0	0	0	4	591	825	3959
98	0	0	756	5	601	825	3958
99	0	0	1810	5	611	825	3959
100	0	0	2694	5	627	825	3958
101	0	0	3228	5	638	825	3958
102	0	0	3550	5	649	825	3958
103	0	0	3739	5	656	826	3958
104	0	0	3843	5	658	824	3959
105	0	0	3902	5	655	825	3960
106	0	0	3932	5	652	825	3958
107	0	0	3945	5	643	825	3959
108	0	0	3432	4	634	825	3960
109	0	0	2431	4	624	825	3959
110	0	0	1544	4	606	825	3958
111	0	0	994	4	593	825	3958
112	0	0	539	4	580	824	3959
113	0	0	276	4	575	825	3959
114	0	0	129	4	571	824	3959
115	0	0	51	4	575	825	3958
116	0	0	11	4	582	825	3958
117	0	0	0	4	591	825	3958
118	0	0	732	5	601	825	3958
119	0	0	1784	5	612	825	3959
120	0	0	2679	5	628	824	3958
121	0	0	3225	5	642	824	3960
122	0	0	3548	5	649	825	3959
123	0	0	3735	5	656	825	3958
124	0	0	3841	5	657	825	3959
125	0	0	3903	5	657	825	3960
126	0	0	3932	4	653	825	3958
127	0	0	3945	5	643	824	3958
0	0	0	3425	4	635	825	3958
1	0	0	2430	4	625	826	3959
2	0	0	1504	4	609	825	3958
3	0	0	936	4	591	824	3958
4	0	0	502	4	581	825	3958
5	0	0	255	4	574	825	3958
6	0	0	119	4	574	825	3960
7	0	0	46	5	577	825	3958
8	0	0	9	4	584	824	3958
9	0	0	0	4	592	825	3959
10	0	0	760	5	603	825	3960
11	0	0	1818	5	613	825	3959
12	0	0	2701	5	629	825	3958
13	0	0	3233	5	643	824	3958
14	0	0	3552	5	652	826	3958
15	0	0	3741	4	656	825	3958
16	0	0	3845	5	661	825	3959
17	0	0	3903	5	659	825	3958
18	0	0	3933	5	653	825	3958
19	0	0	3947	5	643	826	3958
20	0	0	3474	4	637	825	3958
21	0	0	2487	4	626	825	3959
22	0	0	1599	4	609	825	3958
23	0	0	1043	4	593	824	3960
24	0	0	567	4	583	825	3959
25	0	0	293	4	577	825	3959
26	0	0	138	4	572	825	3960
27	0	0	57	4	576	824	3958
28	0	0	14	4	582	824	3960
29	0	0	0	4	591	825	3959
30	0	0	727	4	602	825	3958
31	0	0	1781	5	613	825	3959
32	0	0	2678	5	628	825	3958
33	0	0	3224	5	641	825	3958
34	0	0	3547	5	652	824	3958
35	0	0	3735	5	657	825	3959
36	0	0	3843	5	659	826	3959
37	0	0	3902	5	658	825	3958
38	0	0	3932	5	655	825	3958
39	0	0	3947	5	645	825	3958
40	0	0	3484	4	637	825	3959
41	0	0	2494	3	629	825	3960
42	0	0	1513	4	613	825	3958
43	0	0	974	4	596	824	3958
44	0	0	524	4	583	825	3959
45	0	0	268	4	578	824	3960
46	0	0	126	4	575	824	3959
47	0	0	50	4	578	824	3958
48	0	0	10	4	585	825	3958
49	0	0	0	4	593	825	3958
50	0	0	751	5	602	825	3958
51	0	0	1823	5	613	825	3959
52	0	0	2704	5	630	825	3958
53	0	0	3235	5	643	825	3958
54	0	0	3557	4	653	825	3958
55	0	0	3743	5	657	825	3959
56	0	0	3846	5	661	824	3959
57	0	0	3904	5	660	825	3959
58	0	0	3934	5	657	825	3958
59	0	0	3947	6	647	825	3959
60	0	0	3487	4	638	825	3960
61	0	0	2488	4	629	825	3960
62	0	0	1576	4	613	825	3960
63	0	0	1043	5	597	824	3959
64	0	0	567	4	585	825	3959
65	0	0	290	4	580	825	3959
66	0	0	138	4	576	824	3959
67	0	0	56	4	579	824	3958
68	0	0	15	4	586	825	3958
69	0	0	0	4	593	825	3958
70	0	0	717	5	605	825	3959
71	0	0	1770	5	616	825	3960
72	0	0	2679	5	630	825	3959
73	0	0	3220	5	645	825	3960
74	0	0	3545	5	656	825	3959
75	0	0	3734	5	660	825	3959
76	0	0	3843	5	664	825	3959
77	0	0	3901	5	661	825	3959
78	0	0	3932	5	658	825	3959
79	0	0	3947	5	650	825	3959
80	0	0	3515	4	640	825	3959
81	0	0	2508	4	631	825	3959
82	0	0	1538	4	613	825	3960
83	0	0	998	6	599	825	3958
84	0	0	542	5	588	825	3958
85	0	0	278	4	578	825	3958
86	0	0	132	4	577	824	3959
87	0	0	52	4	582	824	3958
88	0	0	12	4	588	825	3960
89	0	0	0	4	597	825	3958
90	0	0	706	5	606	825	3959
91	0	0	1763	5	618	825	3959
92	0	0	2667	5	631	825	3959
93	0	0	3212	4	647	825	3959
94	0	0	3543	6	656	825	3959
95	0	0	3733	5	662	825	3959
96	0	0	3842	5	664	825	3959
97	0	0	3902	5	661	825	3958
98	0	0	3933	5	657	825	3959
99	0	0	3947	5	650	825	3958
100	0	0	3524	4	643	825	3959
101	0	0	2532	4	631	825	3959
102	0	0	1625	4	615	825	3958
103	0	0	1084	4	597	825	3958
104	0	0	591	4	585	825	3958
105	0	0	303	4	581	825	3959
106	0	0	146	4	578	824	3959
107	0	0	60	4	582	825	3960
108	0	0	15	4	585	825	3959
109	0	0	0	5	595	825	3959
110	0	0	700	5	608	825	3960
111	0	0	1757	5	615	824	3959
112	0	0	2672	5	631	825	3959
113	0	0	3216	5	644	825	3958
114	0	0	3542	5	658	825	3958
115	0	0	3733	5	661	825	3959
116	0	0	3844	5	664	825	3959
117	0	0	3900	5	663	825	3958
118	0	0	3932	5	659	825	3960
119	0	0	3947	5	651	825	3959
120	0	0	3542	4	643	825	3959
121	0	0	2487	5	632	824	3959
122	0	0	1547	5	618	825	3960
123	0	0	1017	3	597	825	3959
124	0	0	553	4	587	824	3958
125	0	0	284	4	579	825	3958
126	0	0	134	4	577	824	3959
127	0	0	54	4	581	825	3959
0	0	0	13	4	587	825	3959
1	0	0	0	5	597	825	3959
2	0	0	710	5	606	825	3959
3	0	0	1768	5	617	825	3960
4	0	0	2668	5	630	825	3958
5	0	0	3214	5	646	825	3958
6	0	0	3544	5	655	825	3959
7	0	0	3736	5	662	825	3960
8	0	0	3842	5	664	825	3959
9	0	0	3901	5	663	825	3959
10	0	0	3932	5	660	825	3959
11	0	0	3947	5	652	825	3959
12	0	0	3566	4	642	825	3959
13	0	0	2578	4	632	825	3960
14	0	0	1650	4	616	825	3959
15	0	0	1103	4	599	824	3958
16	0	0	602	4	588	825	3959
17	0	0	309	4	582	825	3959
18	0	0	148	4	577	824	3959
19	0	0	62	4	580	824	3959
20	0	0	16	4	588	825	3958
21	0	0	0	4	596	827	3959
22	0	0	655	5	606	825	3960
23	0	0	1703	5	617	825	3959
24	0	0	2637	5	633	825	3959
25	0	0	3194	5	647	824	3958
26	0	0	3528	5	659	825	3958
27	0	0	3726	4	663	825	3958
28	0	0	3837	5	664	825	3959
29	0	0	3898	5	661	825	3959
30	0	0	3930	5	658	825	3959
31	0	0	3944	6	651	825	3959
32	0	0	3505	4	642	825	3959
33	0	0	2472	4	633	825	3960
34	0	0	1537	4	615	824	3959
35	0	0	1036	4	599	825	3960
36	0	0	563	4	589	825	3959
37	0	0	290	4	580	825	3959
38	0	0	136	4	578	824	3959
39	0	0	55	4	581	825	3958
40	0	0	14	5	587	825	3958
41	0	0	0	5	595	825	3958
42	0	0	628	5	605	824	3959
43	0	0	1678	5	616	824	3959
44	0	0	2612	5	631	825	3959
45	0	0	3185	4	648	825	3958
46	0	0	3523	6	657	825	3958
47	0	0	3723	5	662	825	3958
48	0	0	3836	5	665	825	3959
49	0	0	3898	5	664	825	3960
50	0	0	3932	6	661	825	3959
51	0	0	3946	5	653	825	3959
52	0	0	3592	4	644	825	3960
53	0	0	2616	4	633	825	3959
54	0	0	1665	5	617	825	3960
55	0	0	1126	4	599	825	3958
56	0	0	615	4	589	825	3958
57	0	0	320	4	582	825	3958
58	0	0	153	4	580	824	3959
59	0	0	65	3	581	824	3958
60	0	0	19	4	588	825	3958
61	0	0	0	5	596	825	3958
62	0	0	617	5	607	825	3958
63	0	0	1663	5	618	825	3959
64	0	0	2600	5	632	825	3958
65	0	0	3177	5	648	825	3960
66	0	0	3520	5	657	825	3960
67	0	0	3719	4	664	825	3959
68	0	0	3836	5	666	825	3960
69	0	0	3896	5	665	825	3958
70	0	0	3929	5	661	825	3958
71	0	0	3945	5	654	825	3958
72	0	0	3485	4	645	825	3958
73	0	0	2516	4	633	825	3959
74	0	0	1603	4	620	825	3958
75	0	0	1093	4	600	825	3956
76	0	0	592	4	591	825	3959
77	0	0	307	4	581	825	3960
78	0	0	148	4	579	824	3959
79	0	0	61	5	582	825	3958
80	0	0	17	4	588	825	3960
81	0	0	0	4	596	826	3960
82	0	0	637	5	606	825	3959
83	0	0	1701	5	616	825	3959
84	0	0	2627	5	633	825	3959
85	0	0	3188	6	649	825	3958
86	0	0	3525	5	657	826	3959
87	0	0	3725	5	664	825	3959
88	0	0	3837	5	667	824	3959
89	0	0	3898	5	665	826	3958
90	0	0	3931	5	660	825	3958
91	0	0	3946	5	653	825	3958
92	0	0	3604	4	643	825	3959
93	0	0	2637	4	634	826	3960
94	0	0	1666	4	619	825	3958
95	0	0	1135	4	600	825	3960
96	0	0	621	4	589	825	3960
97	0	0	323	4	584	825	3959
98	0	0	154	4	579	825	3959
99	0	0	65	3	582	825	3960
100	0	0	19	4	589	825	3958
101	0	0	0	4	597	825	3958
102	0	0	607	5	609	825	3959
103	0	0	1655	5	619	824	3959
104	0	0	2596	5	632	825	3958
105	0	0	3174	5	648	825	3958
106	0	0	3517	5	657	825	3958
107	0	0	3719	5	664	825	3958
108	0	0	3836	5	667	825	3959
109	0	0	3896	5	664	825	3958
110	0	0	3929	5	661	825	3959
111	0	0	3945	5	655	825	3959
112	0	0	3516	4	644	825	3960
113	0	0	2579	4	635	824	3959
114	0	0	1651	3	621	825	3959
115	0	0	1119	4	601	825	3958
116	0	0	607	4	591	825	3958
117	0	0	315	4	581	825	3958
118	0	0	152	4	579	824	3959
119	0	0	62	4	581	824	3958
120	0	0	17	5	588	824	3958
121	0	0	0	5	597	825	3958
122	0	0	609	5	606	825	3958
123	0	0	1673	5	617	824	3959
124	0	0	2608	5	630	825	3958
125	0	0	3177	5	647	825	3958
126	0	0	3521	5	660	825	3958
127	0	0	3723	5	663	825	3960
0	0	0	3834	5	667	824	3959
1	0	0	3897	4	666	825	3960
2	0	0	3931	5	663	825	3958
3	0	0	3945	5	656	825	3959
4	0	0	3628	4	645	825	3960
5	0	0	2658	3	636	825	3959
6	0	0	1671	5	619	825	3958
7	0	0	1138	4	602	825	3958
8	0	0	623	4	589	825	3959
9	0	0	321	4	581	825	3959
10	0	0	155	4	578	824	3959
11	0	0	65	4	582	825	3958
12	0	0	18	4	589	825	3959
13	0	0	0	5	595	825	3959
14	0	0	559	5	606	825	3958
15	0	0	1611	5	617	825	3960
16	0	0	2564	5	631	825	3958
17	0	0	3156	5	649	825	3958
18	0	0	3506	5	657	825	3958
19	0	0	3712	6	664	825	3960
20	0	0	3830	5	666	824	3959
21	0	0	3894	4	667	825	3960
22	0	0	3929	5	662	826	3959
23	0	0	3944	5	654	825	3958
24	0	0	3558	4	646	825	3958
25	0	0	2620	4	637	825	3959
26	0	0	1663	4	620	825	3956
27	0	0	1110	4	601	825	3959
28	0	0	606	4	592	825	3958
29	0	0	314	3	582	825	3958
30	0	0	152	4	579	824	3959
31	0	0	62	4	582	825	3958
32	0	0	16	4	591	825	3959
33	0	0	0	4	598	825	3959
34	0	0	542	5	607	825	3960
35	0	0	1583	5	618	825	3959
36	0	0	2544	5	633	825	3959
37	0	0	3143	5	647	825	3960
38	0	0	3499	5	659	825	3960
39	0	0	3708	4	666	825	3959
40	0	0	3829	5	667	824	3959
41	0	0	3894	5	667	825	3958
42	0	0	3928	5	663	825	3959
43	0	0	3944	5	655	826	3958
44	0	0	3622	3	646	825	3960
45	0	0	2657	4	635	825	3959
46	0	0	1667	3	622	825	3960
47	0	0	1153	4	606	824	3958
48	0	0	626	4	592	825	3958
49	0	0	326	4	584	825	3959
50	0	0	158	4	581	825	3959
51	0	0	66	3	582	825	3958
52	0	0	19	4	589	825	3960
53	0	0	0	4	598	825	3959
54	0	0	544	6	608	825	3959
55	0	0	1596	5	620	825	3960
56	0	0	2554	5	632	825	3959
57	0	0	3144	5	649	825	3959
58	0	0	3503	5	659	825	3958
59	0	0	3710	4	667	825	3959
60	0	0	3828	5	667	825	3959
61	0	0	3895	3	668	825	3959
62	0	0	3930	5	663	826	3959
63	0	0	3945	5	655	825	3958
64	0	0	3615	5	648	825	3959
65	0	0	2668	4	636	825	3959
66	0	0	1681	3	622	825	3958
67	0	0	1177	3	605	825	3960
68	0	0	645	3	593	825	3959
69	0	0	334	3	586	825	3958
70	0	0	163	4	580	825	3959
71	0	0	70	4	583	825	3959
72	0	0	20	4	589	825	3959
73	0	0	0	4	598	824	3959
74	0	0	521	5	609	825	3960
75	0	0	1556	5	618	825	3959
76	0	0	2535	5	633	825	3958
77	0	0	3132	5	648	825	3958
78	0	0	3492	5	659	826	3959
79	0	0	3704	5	663	826	3959
80	0	0	3826	5	668	825	3959
81	0	0	3893	4	669	825	3958
82	0	0	3928	5	663	825	3960
83	0	0	3946	5	656	825	3958
84	0	0	3660	4	648	825	3959
85	0	0	2711	4	637	825	3959
86	0	0	1721	3	622	825	3959
87	0	0	1184	4	606	825	3959
88	0	0	649	4	591	825	3959
89	0	0	340	4	585	825	3960
90	0	0	165	4	580	824	3959
91	0	0	70	4	584	824	3959
92	0	0	21	4	590	824	3959
93	0	0	0	4	600	825	3960
94	0	0	535	5	608	825	3959
95	0	0	1578	5	619	825	3959
96	0	0	2541	3	630	825	3959
97	0	0	3137	5	647	825	3958
98	0	0	3497	5	658	825	3958
99	0	0	3707	6	665	825	3959
100	0	0	3827	5	669	825	3959
101	0	0	3891	5	668	825	3959
102	0	0	3928	5	663	825	3959
103	0	0	3945	5	655	825	3959
104	0	0	3655	4	647	825	3959
105	0	0	2713	3	637	825	3959
106	0	0	1709	4	623	825	3958
107	0	0	1265	4	604	825	3959
108	0	0	696	4	591	825	3959
109	0	0	363	5	585	825	3959
110	0	0	178	4	580	825	3960
111	0	0	77	5	584	824	3958
112	0	0	24	4	591	825	3958
113	0	0	0	4	595	825	3958
114	0	0	553	5	607	825	3960
115	0	0	1601	5	618	825	3960
116	0	0	2568	5	631	825	3959
117	0	0	3152	5	647	825	3959
118	0	0	3504	5	659	825	3959
119	0	0	3708	6	663	825	3959
120	0	0	3829	4	665	825	3959
121	0	0	3894	5	669	825	3959
122	0	0	3928	5	663	825	3959
123	0	0	3943	5	654	826	3958
124	0	0	3704	3	647	825	3958
125	0	0	2759	4	636	825	3959
126	0	0	1770	4	622	825	3958
127	0	0	1240	4	605	825	3958
0	0	0	681	4	590	825	3959
1	0	0	357	4	585	825	3958
2	0	0	174	4	582	825	3959
3	0	0	73	3	582	824	3958
4	0	0	21	4	590	825	3959
5	0	0	0	5	597	824	3958
6	0	0	562	5	606	825	3958
7	0	0	1612	5	616	825	3959
8	0	0	2567	6	630	825	3959
9	0	0	3151	5	647	825	3959
10	0	0	3505	5	657	825	3959
11	0	0	3710	5	661	825	3959
12	0	0	3827	5	666	825	3959
13	0	0	3892	5	667	825	3958
14	0	0	3926	5	661	825	3958
15	0	0	3942	5	655	824	3958
16	0	0	3732	3	647	825	3959
17	0	0	2784	3	636	825	3959
18	0	0	1825	4	623	825	3959
19	0	0	1334	4	603	826	3958
20	0	0	735	4	588	825	3958
21	0	0	384	4	582	825	3960
22	0	0	188	4	580	824	3959
23	0	0	81	4	581	825	3960
24	0	0	24	4	587	825	3958
25	0	0	0	4	593	825	3959
26	0	0	540	5	604	825	3960
27	0	0	1586	5	615	825	3959
28	0	0	2557	4	628	825	3960
29	0	0	3146	5	644	825	3958
30	0	0	3496	5	655	825	3958
31	0	0	3705	5	660	825	3960
32	0	0	3823	5	665	825	3958
33	0	0	3887	5	663	825	3958
34	0	0	3922	5	659	825	3958
35	0	0	3939	5	654	824	3958
36	0	0	3735	4	643	825	3958
37	0	0	2792	4	634	825	3959
38	0	0	1788	4	621	825	3958
39	0	0	1257	4	602	825	3959
40	0	0	689	4	589	825	3960
41	0	0	360	3	583	825	3958
42	0	0	174	4	577	825	3960
43	0	0	71	3	580	824	3959
44	0	0	18	4	584	825	3958
45	0	0	0	4	594	824	3959
46	0	0	552	5	603	825	3959
47	0	0	1596	5	614	825	3959
48	0	0	2553	5	627	825	3958
49	0	0	3141	5	643	825	3958
50	0	0	3498	6	655	824	3958
51	0	0	3704	5	660	825	3959
52	0	0	3821	5	661	825	3958
53	0	0	3886	5	662	825	3958
54	0	0	3921	5	658	825	3959
55	0	0	3938	5	651	825	3960
56	0	0	3689	3	642	825	3959
57	0	0	2709	4	633	825	3960
58	0	0	1792	4	621	825	3958
59	0	0	1278	4	601	824	3958
60	0	0	701	4	588	824	3959
61	0	0	362	3	582	825	3958
62	0	0	175	4	579	825	3959
63	0	0	72	4	579	825	3958
64	0	0	18	4	586	825	3958
65	0	0	0	5	594	825	3958
66	0	0	514	5	604	825	3958
67	0	0	1553	5	614	825	3958
68	0	0	2531	5	628	825	3958
69	0	0	3126	5	643	825	3958
70	0	0	3485	5	654	825	3958
71	0	0	3697	5	659	825	3959
72	0	0	3817	5	664	825	3959
73	0	0	3884	5	664	825	3960
74	0	0	3920	5	660	825	3958
75	0	0	3935	5	654	825	3959
76	0	0	3711	4	646	825	3959
77	0	0	2761	4	635	825	3959
78	0	0	1743	3	620	825	3959
79	0	0	1193	4	605	825	3958
80	0	0	651	4	588	824	3958
81	0	0	337	4	583	825	3959
82	0	0	160	4	578	824	3959
83	0	0	62	4	580	825	3958
84	0	0	13	4	586	825	3959
85	0	0	0	4	593	825	3959
86	0	0	412	5	603	825	3959
87	0	0	1433	5	614	825	3959
88	0	0	2433	5	629	825	3958
89	0	0	3067	4	642	825	3959
90	0	0	3453	5	654	825	3958
91	0	0	3677	4	661	825	3959
92	0	0	3809	4	663	825	3959
93	0	0	3879	5	664	825	3959
94	0	0	3916	5	661	825	3958
95	0	0	3934	5	653	825	3959
96	0	0	3714	4	645	825	3958
97	0	0	2793	3	635	825	3959
98	0	0	1817	4	625	825	3959
99	0	0	1273	4	605	824	3958
100	0	0	697	4	590	825	3958
101	0	0	361	4	582	825	3959
102	0	0	173	4	578	824	3959
103	0	0	71	4	582	824	3958
104	0	0	18	4	587	825	3958
105	0	0	0	4	594	824	3959
106	0	0	418	4	604	825	3959
107	0	0	1432	5	614	825	3959
108	0	0	2436	5	630	825	3959
109	0	0	3068	5	644	825	3959
110	0	0	3452	5	654	825	3960
111	0	0	3676	4	661	825	3959
112	0	0	3809	5	664	826	3960
113	0	0	3879	5	664	825	3958
114	0	0	3916	5	661	825	3959
115	0	0	3935	5	654	825	3958
116	0	0	3723	4	643	825	3959
117	0	0	2794	3	637	825	3959
118	0	0	1778	4	624	825	3958
119	0	0	1233	4	604	825	3958
120	0	0	674	4	590	824	3958
121	0	0	350	3	587	825	3958
122	0	0	167	4	579	824	3959
123	0	0	67	4	582	825	3960
124	0	0	16	4	590	825	3959
125	0	0	0	4	597	825	3959
126	0	0	426	5	606	825	3960
127	0	0	1441	5	615	825	3959
0	0	0	2435	5	627	825	3958
1	0	0	3068	5	644	824	3959
2	0	0	3455	5	657	825	3958
3	0	0	3679	5	662	825	3959
4	0	0	3808	5	667	825	3959
5	0	0	3879	5	664	825	3958
6	0	0	3918	5	662	825	3959
7	0	0	3937	5	656	825	3960
8	0	0	3684	3	646	825	3959
9	0	0	2837	4	636	825	3959
10	0	0	1809	4	624	825	3959
11	0	0	1246	4	607	825	3958
12	0	0	682	4	592	825	3958
13	0	0	353	4	586	825	3959
14	0	0	169	4	581	824	3959
15	0	0	68	4	583	825	3959
16	0	0	17	5	589	824	3959
17	0	0	0	4	596	824	3959
18	0	0	356	3	607	825	3958
19	0	0	1367	5	617	825	3958
20	0	0	2390	5	628	825	3958
21	0	0	3042	5	645	825	3960
22	0	0	3436	5	658	825	3959
23	0	0	3669	4	662	825	3959
24	0	0	3805	5	668	825	3959
25	0	0	3877	5	664	825	3958
26	0	0	3916	5	662	825	3959
27	0	0	3936	5	654	825	3958
28	0	0	3751	3	647	825	3958
29	0	0	2828	4	638	825	3958
30	0	0	1802	5	626	825	3958
31	0	0	1247	4	605	825	3958
32	0	0	683	4	593	825	3959
33	0	0	357	4	584	825	3960
34	0	0	172	4	580	824	3958
35	0	0	69	4	583	825	3960
36	0	0	17	4	589	824	3958
37	0	0	0	4	597	825	3958
38	0	0	335	5	605	825	3958
39	0	0	1343	5	617	825	3958
40	0	0	2361	5	629	825	3958
41	0	0	3023	5	644	825	3959
42	0	0	3429	5	656	825	3958
43	0	0	3665	4	660	825	3958
44	0	0	3800	5	667	825	3958
45	0	0	3876	5	666	825	3958
46	0	0	3917	5	663	825	3960
47	0	0	3937	5	656	825	3960
48	0	0	3808	4	648	825	3959
49	0	0	2927	4	638	825	3959
50	0	0	1892	4	625	825	3959
51	0	0	1335	4	605	825	3958
52	0	0	735	4	594	825	3958
53	0	0	383	3	585	825	3958
54	0	0	187	4	581	824	3958
55	0	0	79	5	585	825	3958
56	0	0	22	4	589	825	3958
57	0	0	0	4	599	825	3958
58	0	0	356	4	605	825	3959
59	0	0	1359	5	616	825	3958
60	0	0	2380	5	630	825	3959
61	0	0	3036	5	646	824	3958
62	0	0	3432	5	658	825	3959
63	0	0	3669	5	664	825	3960
64	0	0	3802	5	668	825	3958
65	0	0	3877	5	666	825	3960
66	0	0	3918	5	663	825	3959
67	0	0	3936	5	657	825	3959
68	0	0	3782	4	649	825	3960
69	0	0	2869	4	638	825	3959
70	0	0	1847	4	625	825	3959
71	0	0	1306	4	606	825	3958
72	0	0	718	3	592	825	3958
73	0	0	377	4	586	825	3959
74	0	0	181	4	581	825	3958
75	0	0	77	4	584	824	3958
76	0	0	21	4	587	825	3959
77	0	0	0	4	595	825	3960
78	0	0	345	4	605	825	3959
79	0	0	1349	5	616	825	3959
80	0	0	2363	5	629	825	3958
81	0	0	3026	5	647	825	3959
82	0	0	3431	5	656	825	3959
83	0	0	3667	5	661	825	3960
84	0	0	3800	5	666	825	3958
85	0	0	3877	5	666	825	3960
86	0	0	3919	5	664	824	3958
87	0	0	3936	5	658	825	3958
88	0	0	3880	4	649	825	3959
89	0	0	2951	4	637	825	3958
90	0	0	1901	4	625	825	3958
91	0	0	1339	4	606	824	3958
92	0	0	732	4	596	825	3958
93	0	0	386	4	587	825	3959
94	0	0	187	4	580	824	3958
95	0	0	79	4	584	825	3958
96	0	0	22	4	588	824	3959
97	0	0	0	4	595	825	3958
98	0	0	346	5	605	825	3959
99	0	0	1357	5	618	824	3959
100	0	0	2380	5	629	825	3959
101	0	0	3035	5	644	824	3958
102	0	0	3432	5	656	825	3958
103	0	0	3669	4	662	825	3959
104	0	0	3803	5	666	825	3958
105	0	0	3876	5	666	825	3958
106	0	0	3916	5	663	825	3958
107	0	0	3937	5	655	825	3958
108	0	0	3817	4	647	825	3959
109	0	0	2910	4	638	825	3959
110	0	0	1873	4	626	825	3958
111	0	0	1336	4	607	825	3959
112	0	0	735	4	595	825	3960
113	0	0	386	4	585	825	3959
114	0	0	187	4	580	825	3960
115	0	0	79	4	584	825	3960
116	0	0	22	4	588	824	3959
117	0	0	0	4	597	824	3959
118	0	0	314	5	606	825	3960
119	0	0	1306	5	616	825	3958
120	0	0	2330	5	630	825	3959
121	0	0	3013	5	646	825	3958
122	0	0	3418	5	657	825	3958
123	0	0	3658	5	663	825	3959
124	0	0	3796	5	667	825	3959
125	0	0	3875	5	668	825	3958
126	0	0	3915	5	665	824	3958
127	0	0	3936	5	658	825	3960
0	0	0	3878	4	651	825	3959
1	0	0	2953	4	639	825	3959
2	0	0	1902	4	628	825	3959
3	0	0	1342	3	610	825	3959
4	0	0	734	4	595	824	3959
5	0	0	386	4	585	824	3959
6	0	0	188	4	583	824	3959
7	0	0	79	4	583	825	3958
8	0	0	22	4	589	825	3958
9	0	0	0	4	596	825	3959
10	0	0	286	5	606	825	3959
11	0	0	1293	5	616	825	3958
12	0	0	2315	5	629	825	3958
13	0	0	2996	5	645	825	3958
14	0	0	3410	5	657	825	3959
15	0	0	3657	4	663	825	3960
16	0	0	3794	5	665	825	3958
17	0	0	3873	5	668	825	3960
18	0	0	3916	5	666	825	3958
19	0	0	3936	5	658	825	3959
20	0	0	3801	4	650	825	3960
21	0	0	2895	4	638	825	3959
22	0	0	1852	4	626	825	3960
23	0	0	1317	4	610	826	3959
24	0	0	725	4	596	824	3958
25	0	0	381	4	587	825	3959
26	0	0	185	4	583	824	3958
27	0	0	79	4	584	825	3958
28	0	0	22	4	587	825	3958
29	0	0	0	4	598	825	3959
30	0	0	314	5	608	825	3959
31	0	0	1315	5	617	825	3959
32	0	0	2336	5	629	825	3958
33	0	0	3015	5	645	825	3958
34	0	0	3421	5	657	825	3959
35	0	0	3660	5	663	825	3959
36	0	0	3800	5	668	825	3960
37	0	0	3875	5	667	825	3959
38	0	0	3916	5	664	825	3959
39	0	0	3937	5	659	825	3960
40	0	0	3873	4	649	825	3959
41	0	0	2971	4	638	826	3960
42	0	0	1929	4	627	825	3958
43	0	0	1367	5	609	824	3958
44	0	0	752	4	597	824	3958
45	0	0	396	4	586	825	3959
46	0	0	195	6	584	825	3959
47	0	0	83	4	585	825	3958
48	0	0	24	4	588	825	3958
49	0	0	0	4	597	825	3959
50	0	0	258	5	606	825	3959
51	0	0	1258	5	618	825	3959
52	0	0	2287	5	629	825	3960
53	0	0	2980	5	645	825	3959
54	0	0	3398	5	655	825	3959
55	0	0	3650	5	664	825	3959
56	0	0	3794	5	667	825	3960
57	0	0	3871	5	668	825	3958
58	0	0	3914	5	664	825	3959
59	0	0	3936	5	658	824	3958
60	0	0	3852	4	649	825	3959
61	0	0	2965	4	641	825	3958
62	0	0	1928	3	627	825	3959
63	0	0	1379	4	609	824	3958
64	0	0	764	4	597	824	3959
65	0	0	404	4	588	825	3959
66	0	0	197	4	582	825	3959
67	0	0	85	4	585	825	3959
68	0	0	25	4	589	825	3959
69	0	0	0	4	597	825	3960
70	0	0	285	5	605	825	3959
71	0	0	1277	5	617	825	3959
72	0	0	2303	5	629	825	3959
73	0	0	2995	4	645	825	3958
74	0	0	3409	4	656	825	3959
75	0	0	3655	5	664	825	3959
76	0	0	3796	5	668	825	3959
77	0	0	3873	5	666	825	3958
78	0	0	3914	5	666	825	3958
79	0	0	3935	5	659	825	3959
80	0	0	3868	4	650	825	3959
81	0	0	2959	4	642	825	3958
82	0	0	1926	4	627	825	3958
83	0	0	1369	4	610	824	3958
84	0	0	758	4	598	824	3959
85	0	0	400	4	588	825	3959
86	0	0	197	4	584	825	3958
87	0	0	84	4	584	825	3959
88	0	0	25	4	590	825	3959
89	0	0	0	4	596	825	3960
90	0	0	259	5	606	825	3959
91	0	0	1267	5	617	825	3960
92	0	0	2299	5	628	825	3958
93	0	0	2986	5	647	825	3958
94	0	0	3407	5	657	825	3959
95	0	0	3653	5	664	825	3959
96	0	0	3794	5	669	825	3958
97	0	0	3873	5	669	825	3958
98	0	0	3915	4	667	825	3958
99	0	0	3936	5	659	825	3959
100	0	0	3876	4	650	825	3959
101	0	0	2994	4	643	825	3959
102	0	0	1953	4	628	825	3959
103	0	0	1395	3	612	825	3959
104	0	0	777	4	597	825	3959
105	0	0	410	4	589	825	3959
106	0	0	201	4	583	825	3960
107	0	0	89	4	584	824	3958
108	0	0	26	4	591	825	3959
109	0	0	0	4	597	825	3959
110	0	0	257	5	607	825	3959
111	0	0	1247	5	619	825	3958
112	0	0	2277	5	629	824	3958
113	0	0	2980	5	647	825	3958
114	0	0	3399	5	657	825	3959
115	0	0	3649	5	664	825	3960
116	0	0	3791	5	669	825	3959
117	0	0	3872	6	669	826	3960
118	0	0	3916	5	666	825	3959
119	0	0	3936	5	661	825	3959
120	0	0	3897	4	651	825	3959
121	0	0	3021	4	641	825	3958
122	0	0	2008	4	629	825	3959
123	0	0	1447	4	610	825	3958
124	0	0	803	4	597	825	3959
125	0	0	426	4	589	825	3959
126	0	0	211	4	584	825	3959
127	0	0	93	4	584	825	3958
0	0	0	28	4	589	825	3959
1	0	0	0	4	597	825	3960
2	0	0	271	5	607	825	3959
3	0	0	1275	5	617	825	3958
4	0	0	2303	5	630	825	3960
5	0	0	2991	5	644	825	3958
6	0	0	3405	5	657	825	3959
7	0	0	3652	5	664	825	3959
8	0	0	3793	5	668	825	3959
9	0	0	3871	5	668	825	3959
10	0	0	3914	5	666	825	3959
11	0	0	3935	5	658	825	3959
12	0	0	3899	5	651	825	3959
13	0	0	3033	4	642	825	3959
14	0	0	2003	4	630	825	3958
15	0	0	1440	4	611	824	3959
16	0	0	808	4	596	825	3959
17	0	0	428	4	589	825	3959
18	0	0	210	4	584	825	3959
19	0	0	92	4	584	825	3958
20	0	0	29	4	589	825	3958
21	0	0	0	4	597	825	3958
22	0	0	230	5	607	825	3959
23	0	0	1223	5	615	825	3959
24	0	0	2258	5	628	825	3958
25	0	0	2956	4	646	825	3958
26	0	0	3384	5	656	825	3959
27	0	0	3638	5	662	825	3959
28	0	0	3788	5	669	825	3958
29	0	0	3868	5	668	825	3958
30	0	0	3911	5	667	825	3959
31	0	0	3935	5	661	825	3959
32	0	0	3910	4	652	825	3959
33	0	0	3047	4	641	825	3959
34	0	0	2022	4	629	825	3958
35	0	0	1456	4	611	825	3958
36	0	0	812	4	597	824	3958
37	0	0	430	4	589	825	3959
38	0	0	213	4	582	824	3958
39	0	0	92	4	582	825	3960
40	0	0	29	4	590	825	3959
41	0	0	0	4	597	824	3959
42	0	0	227	5	605	825	3959
43	0	0	1216	5	617	825	3959
44	0	0	2251	5	629	825	3958
45	0	0	2958	5	647	825	3958
46	0	0	3390	5	656	825	3958
47	0	0	3640	5	663	825	3959
48	0	0	3786	5	668	825	3958
49	0	0	3868	5	669	825	3958
50	0	0	3912	4	665	825	3958
51	0	0	3933	5	660	825	3958
52	0	0	3891	4	649	825	3959
53	0	0	3020	4	641	825	3960
54	0	0	1982	4	630	825	3959
55	0	0	1401	4	610	825	3959
56	0	0	788	3	597	825	3959
57	0	0	413	4	591	825	3959
58	0	0	203	4	582	825	3959
59	0	0	87	4	586	825	3959
60	0	0	26	4	589	825	3959
61	0	0	0	4	598	824	3959
62	0	0	206	5	606	825	3959
63	0	0	1183	5	616	825	3958
64	0	0	2225	4	628	825	3959
65	0	0	2903	5	644	826	3959
66	0	0	3352	5	655	824	3959
67	0	0	3621	5	663	825	3960
68	0	0	3775	5	668	825	3959
69	0	0	3861	5	669	825	3958
70	0	0	3908	4	666	825	3958
71	0	0	3932	5	660	825	3959
72	0	0	3916	4	651	825	3959
73	0	0	3068	4	641	825	3959
74	0	0	2055	4	629	825	3959
75	0	0	1464	3	612	825	3959
76	0	0	826	3	599	825	3959
77	0	0	439	4	590	825	3959
78	0	0	218	4	583	824	3958
79	0	0	94	4	585	825	3959
80	0	0	30	4	592	825	3958
81	0	0	0	4	598	825	3959
82	0	0	221	5	609	824	3959
83	0	0	1217	5	619	825	3958
84	0	0	2248	5	628	825	3958
85	0	0	2955	5	646	825	3958
86	0	0	3388	5	655	824	3959
87	0	0	3642	5	662	825	3959
88	0	0	3786	5	668	825	3958
89	0	0	3868	4	668	825	3959
90	0	0	3913	5	667	825	3959
91	0	0	3934	4	661	824	3959
92	0	0	3928	4	653	825	3960
93	0	0	3082	4	640	825	3959
94	0	0	2051	3	629	825	3960
95	0	0	1473	4	613	824	3959
96	0	0	838	4	597	825	3959
97	0	0	445	4	590	825	3959
98	0	0	219	4	582	825	3958
99	0	0	96	4	585	825	3959
100	0	0	32	4	588	825	3959
101	0	0	0	4	597	825	3959
102	0	0	238	5	606	825	3959
103	0	0	1245	5	616	825	3958
104	0	0	2252	5	626	825	3959
105	0	0	2964	5	641	825	3959
106	0	0	3389	5	657	825	3959
107	0	0	3640	5	665	825	3959
108	0	0	3787	5	667	825	3959
109	0	0	3867	5	669	825	3959
110	0	0	3910	5	665	825	3960
111	0	0	3933	5	659	825	3960
112	0	0	3929	4	651	825	3960
113	0	0	3089	4	642	825	3960
114	0	0	2067	4	631	825	3958
115	0	0	1462	4	611	825	3959
116	0	0	825	4	599	825	3959
117	0	0	437	4	590	825	3959
118	0	0	217	4	585	825	3958
119	0	0	93	4	585	825	3958
120	0	0	29	4	588	825	3958
121	0	0	0	4	596	825	3959
122	0	0	228	5	606	825	3960
123	0	0	1234	5	616	825	3959
124	0	0	2273	4	627	825	3960
125	0	0	2971	5	643	825	3959
126	0	0	3395	5	656	825	3959
127	0	0	3644	5	663	825	3959
0	0	0	3787	5	668	825	3959
1	0	0	3867	5	668	825	3958
2	0	0	3910	5	665	825	3959
3	0	0	3932	5	660	825	3959
4	0	0	3937	4	653	825	3959
5	0	0	3091	4	643	825	3958
6	0	0	2058	4	629	825	3958
7	0	0	1449	4	611	825	3958
8	0	0	823	4	599	824	3958
9	0	0	433	4	591	825	3959
10	0	0	213	4	583	825	3960
11	0	0	93	4	584	825	3959
12	0	0	28	4	589	825	3959
13	0	0	0	4	595	825	3960
14	0	0	189	5	605	825	3959
15	0	0	1157	5	615	825	3959
16	0	0	2142	5	626	825	3960
17	0	0	2900	5	645	825	3958
18	0	0	3348	5	656	826	3958
19	0	0	3615	5	663	825	3959
20	0	0	3772	5	667	825	3958
21	0	0	3859	5	667	825	3958
22	0	0	3907	5	665	825	3959
23	0	0	3929	5	661	825	3959
24	0	0	3905	4	652	825	3959
25	0	0	3042	4	642	825	3958
26	0	0	2025	3	630	825	3959
27	0	0	1395	4	612	825	3959
28	0	0	792	4	599	825	3960
29	0	0	419	4	588	825	3959
30	0	0	205	4	582	825	3960
31	0	0	87	4	584	824	3959
32	0	0	26	4	589	825	3959
33	0	0	0	4	596	825	3958
34	0	0	166	5	606	825	3960
35	0	0	1157	5	614	824	3958
36	0	0	2203	5	628	825	3959
37	0	0	2928	5	644	825	3958
38	0	0	3371	5	656	826	3959
39	0	0	3632	5	666	825	3960
40	0	0	3779	5	668	825	3958
41	0	0	3864	4	668	825	3960
42	0	0	3911	5	666	825	3958
43	0	0	3930	5	661	825	3958
44	0	0	3937	4	650	825	3959
45	0	0	3086	3	641	825	3959
46	0	0	2062	3	630	825	3959
47	0	0	1435	4	614	825	3959
48	0	0	819	4	598	825	3958
49	0	0	431	3	589	824	3959
50	0	0	213	4	582	825	3959
51	0	0	92	4	583	825	3958
52	0	0	27	4	589	825	3958
53	0	0	0	4	594	825	3959
54	0	0	171	5	605	825	3959
55	0	0	1087	5	615	824	3958
56	0	0	2122	5	627	825	3958
57	0	0	2881	5	643	825	3959
58	0	0	3338	5	656	824	3959
59	0	0	3610	5	662	825	3959
60	0	0	3772	5	668	825	3960
61	0	0	3860	4	668	825	3958
62	0	0	3905	5	666	825	3958
63	0	0	3930	5	661	825	3959
64	0	0	3939	4	653	825	3959
65	0	0	3104	4	643	825	3959
66	0	0	2085	3	632	825	3958
67	0	0	1454	4	613	825	3958
68	0	0	832	4	598	824	3959
69	0	0	442	4	588	825	3959
70	0	0	220	4	585	825	3958
71	0	0	95	4	585	824	3958
72	0	0	31	4	590	825	3959
73	0	0	0	4	597	825	3959
74	0	0	184	5	606	825	3959
75	0	0	1157	5	615	825	3960
76	0	0	2205	5	627	825	3958
77	0	0	2935	5	643	825	3959
78	0	0	3372	5	656	825	3959
79	0	0	3632	5	663	825	3960
80	0	0	3779	5	667	825	3959
81	0	0	3865	5	669	825	3959
82	0	0	3910	5	666	825	3959
83	0	0	3932	5	661	825	3960
84	0	0	3940	4	652	825	3959
85	0	0	3116	4	643	825	3958
86	0	0	2094	3	632	825	3958
87	0	0	1442	4	614	825	3958
88	0	0	823	4	600	825	3958
89	0	0	436	4	590	824	3959
90	0	0	215	3	584	824	3958
91	0	0	94	3	584	825	3958
92	0	0	27	4	589	825	3958
93	0	0	0	4	595	824	3959
94	0	0	117	5	604	824	3959
95	0	0	992	5	614	825	3959
96	0	0	2071	4	626	825	3960
97	0	0	2850	5	644	825	3959
98	0	0	3320	5	654	825	3959
99	0	0	3603	5	663	825	3959
100	0	0	3767	5	668	825	3960
101	0	0	3856	5	669	825	3958
102	0	0	3906	5	665	825	3959
103	0	0	3931	5	660	825	3959
104	0	0	3941	3	652	825	3959
105	0	0	3129	4	642	825	3958
106	0	0	2091	3	631	825	3958
107	0	0	1445	4	614	825	3958
108	0	0	831	4	597	823	3959
109	0	0	442	4	590	825	3959
110	0	0	218	4	584	824	3958
111	0	0	95	4	584	825	3960
112	0	0	30	4	588	825	3959
113	0	0	0	4	595	826	3959
114	0	0	124	5	605	825	3960
115	0	0	1086	5	615	824	3959
116	0	0	2138	5	626	825	3960
117	0	0	2898	5	644	826	3959
118	0	0	3349	5	656	825	3959
119	0	0	3619	5	663	826	3960
120	0	0	3774	5	667	825	3958
121	0	0	3861	5	670	825	3958
122	0	0	3909	5	666	825	3958
123	0	0	3933	5	661	824	3959
124	0	0	3942	4	651	825	3959
125	0	0	3136	4	643	825	3958
126	0	0	2121	6	630	825	3958
127	0	0	1463	3	613	824	3959
0	0	0	843	4	598	825	3960
1	0	0	449	3	592	825	3959
2	0	0	224	4	586	824	3959
3	0	0	99	4	584	825	3960
4	0	0	32	4	589	825	3959
5	0	0	0	4	594	825	3959
6	0	0	0	5	604	825	3959
7	0	0	989	5	616	825	3960
8	0	0	2078	5	626	825	3959
9	0	0	2855	5	643	825	3959
10	0	0	3324	5	656	826	3959
11	0	0	3606	5	663	825	3959
12	0	0	3768	4	668	825	3958
13	0	0	3858	4	669	825	3958
14	0	0	3907	5	667	825	3959
15	0	0	3932	5	660	825	3959
16	0	0	3942	4	652	825	3959
17	0	0	3163	4	641	825	3958
18	0	0	2132	5	632	825	3959
19	0	0	1466	4	612	825	3959
20	0	0	853	4	599	823	3960
21	0	0	455	4	589	825	3959
22	0	0	226	4	583	824	3958
23	0	0	101	5	585	825	3958
24	0	0	34	4	589	825	3959
25	0	0	1	4	595	825	3959
26	0	0	112	5	604	825	3959
27	0	0	1067	5	616	825	3958
28	0	0	2117	5	626	825	3958
29	0	0	2886	4	642	825	3959
30	0	0	3344	5	655	825	3959
31	0	0	3615	5	663	825	3959
32	0	0	3774	5	668	825	3960
33	0	0	3863	5	668	825	3958
34	0	0	3909	5	667	825	3959
35	0	0	3934	5	658	825	3960
36	0	0	3943	4	652	825	3960
37	0	0	3134	4	642	825	3960
38	0	0	2114	3	633	825	3959
39	0	0	1436	3	613	825	3959
40	0	0	838	4	598	825	3959
41	0	0	446	4	589	825	3959
42	0	0	223	4	584	825	3960
43	0	0	98	4	584	825	3958
44	0	0	33	4	587	825	3959
45	0	0	0	4	595	825	3960
46	0	0	0	5	603	825	3959
47	0	0	986	5	616	825	3958
48	0	0	2064	5	627	825	3959
49	0	0	2848	5	640	825	3959
50	0	0	3320	5	656	825	3959
51	0	0	3605	5	662	825	3959
52	0	0	3770	5	667	825	3960
53	0	0	3860	5	669	825	3959
54	0	0	3909	5	667	825	3960
55	0	0	3935	5	660	825	3960
56	0	0	3943	5	651	825	3959
57	0	0	3199	4	644	825	3960
58	0	0	2169	4	631	825	3958
59	0	0	1488	4	615	825	3954
60	0	0	870	4	597	825	3958
61	0	0	462	4	591	825	3959
62	0	0	232	4	581	824	3958
63	0	0	104	4	583	825	3958
64	0	0	38	4	587	824	3959
65	0	0	2	4	595	824	3959
66	0	0	91	5	603	824	3959
67	0	0	1041	5	615	825	3959
68	0	0	2092	5	626	824	3959
69	0	0	2871	5	643	825	3959
70	0	0	3335	5	656	825	3960
71	0	0	3610	5	661	825	3959
72	0	0	3772	5	666	825	3959
73	0	0	3862	5	668	825	3960
74	0	0	3910	5	667	825	3959
75	0	0	3933	5	661	825	3959
76	0	0	3945	5	653	825	3959
77	0	0	3172	4	644	824	3958
78	0	0	2164	4	631	825	3958
79	0	0	1470	3	612	825	3958
80	0	0	865	4	599	824	3958
81	0	0	462	4	588	825	3959
82	0	0	232	4	585	824	3959
83	0	0	104	4	582	824	3959
84	0	0	37	4	588	825	3959
85	0	0	2	4	595	825	3960
86	0	0	0	5	602	825	3959
87	0	0	990	5	612	825	3960
88	0	0	2064	6	626	825	3959
89	0	0	2847	5	643	825	3958
90	0	0	3324	5	655	825	3959
91	0	0	3604	5	661	825	3959
92	0	0	3767	5	666	825	3958
93	0	0	3858	5	667	825	3958
94	0	0	3908	5	666	825	3958
95	0	0	3934	5	660	825	3959
96	0	0	3946	5	654	825	3959
97	0	0	3195	4	643	825	3959
98	0	0	2169	4	633	825	3958
99	0	0	1475	4	614	825	3958
100	0	0	875	4	599	825	3959
101	0	0	465	4	589	825	3959
102	0	0	234	4	583	825	3958
103	0	0	106	4	584	825	3959
104	0	0	40	4	587	825	3959
105	0	0	3	4	595	825	3959
106	0	0	0	5	603	825	3959
107	0	0	991	5	613	825	3959
108	0	0	2058	5	625	825	3958
109	0	0	2844	5	643	825	3958
110	0	0	3318	5	653	825	3958
111	0	0	3601	5	662	825	3959
112	0	0	3767	5	666	825	3959
113	0	0	3859	5	670	825	3958
114	0	0	3909	5	665	825	3958
115	0	0	3934	5	662	826	3958
116	0	0	3945	5	652	825	3959
117	0	0	3245	4	643	824	3958
118	0	0	2241	4	631	825	3959
119	0	0	1539	4	613	824	3959
120	0	0	917	4	599	825	3959
121	0	0	493	4	588	825	3959
122	0	0	250	4	585	825	3958
123	0	0	113	4	582	824	3958
124	0	0	42	4	587	824	3958
125	0	0	6	4	595	825	3958
126	0	0	0	5	601	825	3959
127	0	0	969	5	614	825	3958
0	0	0	2038	5	626	825	3958
1	0	0	2832	5	641	825	3958
2	0	0	3316	5	654	825	3958
3	0	0	3600	5	660	825	3959
4	0	0	3764	5	667	824	3959
5	0	0	3857	5	668	825	3959
6	0	0	3908	5	665	825	3958
7	0	0	3935	5	662	825	3959
8	0	0	3946	5	654	825	3960
9	0	0	3254	4	645	825	3960
10	0	0	2250	4	635	825	3960
11	0	0	1534	2	617	825	3959
12	0	0	924	4	597	825	3958
13	0	0	493	4	588	825	3959
14	0	0	249	4	585	825	3959
15	0	0	114	5	582	824	3958
16	0	0	42	4	586	825	3959
17	0	0	5	4	595	825	3960
18	0	0	0	5	603	825	3959
19	0	0	986	5	613	825	3960
20	0	0	2061	5	625	825	3959
21	0	0	2845	4	642	825	3959
22	0	0	3320	5	653	825	3960
23	0	0	3601	4	662	825	3959
24	0	0	3768	5	666	825	3958
25	0	0	3858	5	667	825	3959
26	0	0	3908	5	666	825	3959
27	0	0	3933	5	660	825	3959
28	0	0	3944	5	653	825	3959
29	0	0	3263	4	644	825	3959
30	0	0	2262	4	632	825	3958
31	0	0	1538	4	614	825	3958
32	0	0	931	4	599	825	3958
33	0	0	501	4	589	825	3959
34	0	0	254	4	583	824	3958
35	0	0	115	4	584	824	3959
36	0	0	42	4	588	825	3959
37	0	0	5	4	595	825	3959
38	0	0	0	5	605	825	3960
39	0	0	1006	5	613	825	3959
40	0	0	2062	5	623	825	3959
41	0	0	2847	5	640	824	3959
42	0	0	3324	5	653	825	3959
43	0	0	3603	4	661	825	3959
44	0	0	3768	5	666	825	3960
45	0	0	3860	4	668	825	3958
46	0	0	3908	4	668	825	3959
47	0	0	3933	5	662	825	3959
48	0	0	3943	5	653	825	3959
49	0	0	3277	4	644	825	3959
50	0	0	2278	4	632	825	3958
51	0	0	1534	4	615	825	3958
52	0	1	935	4	599	825	3958
53	0	1	503	4	592	825	3959
54	0	1	255	4	585	825	3958
55	0	1	115	4	583	824	3960
56	0	1	42	4	586	826	3958
57	0	1	5	4	594	825	3959
58	0	1	0	5	603	825	3960
59	0	1	989	5	614	825	3959
60	0	1	2046	5	625	825	3959
61	0	1	2837	5	641	825	3959
62	0	1	3317	5	655	825	3958
63	0	1	3600	5	663	825	3959
64	0	1	3765	5	667	825	3960
65	0	1	3857	5	667	825	3958
66	0	1	3908	4	668	825	3959
67	0	1	3933	5	661	825	3960
68	0	1	3942	5	653	823	3959
69	0	1	3312	4	644	825	3958
70	0	1	2311	4	632	825	3959
71	0	1	1579	4	613	825	3959
72	0	1	967	4	600	825	3959
73	0	1	517	4	592	824	3959
74	0	1	261	4	584	824	3959
75	0	1	120	4	582	825	3959
76	0	1	44	4	586	825	3959
77	0	1	5	4	593	825	3959
78	0	1	0	5	602	825	3959
79	0	1	969	5	613	825	3960
80	0	1	2033	5	623	825	3960
81	0	1	2829	5	639	826	3959
82	0	1	3308	5	652	825	3959
83	0	1	3594	5	661	825	3960
84	0	1	3761	5	667	825	3958
85	0	1	3854	5	668	825	3958
86	0	1	3905	6	667	825	3959
87	0	1	3931	5	661	825	3960
88	0	1	3941	5	653	826	3959
89	0	1	3302	4	644	825	3959
90	0	1	2303	4	634	825	3959
91	0	1	1541	4	616	825	3959
92	0	1	942	4	600	825	3959
93	0	1	506	4	590	825	3960
94	0	1	253	4	585	825	3959
95	0	1	115	4	585	824	3959
96	0	1	41	4	587	825	3958
97	0	1	3	4	595	825	3958
98	0	1	0	5	603	825	3959
99	0	1	969	5	614	825	3958
100	0	1	2027	5	625	825	3959
101	0	1	2824	4	641	825	3958
102	0	1	3310	5	656	825	3959
103	0	1	3595	5	663	825	3960
104	0	1	3759	5	669	825	3959
105	0	1	3854	5	668	825	3960
106	0	1	3905	5	667	825	3959
107	0	1	3930	5	661	825	3959
108	0	1	3943	5	655	826	3960
109	0	1	3271	4	643	825	3959
110	0	1	2266	4	634	825	3959
111	0	1	1497	4	614	825	3959
112	0	1	918	3	598	826	3960
113	0	1	488	4	588	825	3959
114	0	1	245	4	583	824	3959
115	0	1	110	4	583	824	3959
116	0	1	37	5	586	825	3959
117	0	1	1	4	595	825	3960
118	0	1	0	5	602	826	3960
119	0	1	900	5	614	825	3959
120	0	1	2027	5	624	824	3960
121	0	1	2825	5	639	826	3959
122	0	1	3304	5	654	825	3960
123	0	1	3595	5	663	825	3960
124	0	1	3762	5	666	825	3961
125	0	1	3854	5	669	825	3959
126	0	1	3905	5	666	825	3959
127	0	1	3930	5	661	825	3959
0	0	1	3940	5	653	825	3960
1	0	1	3304	4	643	825	3959
2	0	1	2309	4	634	825	3959
3	0	1	1534	3	615	825	3958
4	0	1	941	4	600	825	3959
5	0	1	505	4	588	825	3960
6	0	1	252	5	583	825	3959
7	0	1	114	4	584	824	3959
8	0	1	40	3	587	825	3959
9	0	1	2	4	595	825	3959
10	0	1	0	5	605	825	3960
11	0	1	918	5	614	825	3959
12	0	1	1960	5	625	825	3959
13	0	1	2793	5	640	825	3959
14	0	1	3286	5	654	825	3960
15	0	1	3579	5	661	825	3960
16	0	1	3753	5	667	825	3959
17	0	1	3849	5	669	825	3959
18	0	1	3902	4	668	825	3960
19	0	1	3928	5	661	825	3959
20	0	1	3942	5	652	826	3960
21	0	1	3284	4	644	825	3959
22	0	1	2290	4	632	825	3959
23	0	1	1516	4	615	825	3959
24	0	1	931	3	600	826	3960
25	0	1	499	4	589	825	3960
26	0	1	252	4	584	825	3959
27	0	1	114	4	581	824	3960
28	0	1	39	4	585	825	3959
29	0	1	2	4	594	825	3960
30	0	1	0	5	602	826	3959
31	1	1	864	5	611	825	3959
32	1	1	2006	5	624	824	3959
33	1	1	2809	4	640	825	3960
34	1	1	3300	5	657	825	3960
35	1	1	3588	5	667	825	3959
36	1	1	3757	5	670	825	3959
37	1	1	3852	5	670	825	3959
38	1	1	3904	4	671	825	3959
39	1	1	3929	5	665	825	3959
40	1	1	3940	5	658	826	3959
41	1	1	3284	4	648	825	3959
42	1	1	2290	4	639	825	3959
43	1	1	1490	3	619	825	3960
44	1	1	923	4	603	825	3960
45	1	1	492	4	594	825	3960
46	1	1	247	4	588	825	3960
47	1	1	112	4	585	824	3960
48	1	1	39	4	590	825	3960
49	1	1	2	4	597	825	3959
50	1	1	0	5	604	825	3960
51	1	1	851	5	615	824	3959
52	1	1	1902	5	626	824	3959
53	1	1	2750	4	643	825	3960
54	1	1	3260	5	656	825	3960
55	1	1	3564	5	665	825	3960
56	1	1	3745	5	668	825	3959
57	1	1	3846	5	671	825	3960
58	1	1	3901	4	670	825	3959
59	1	1	3929	5	663	825	3960
60	1	1	3943	5	657	824	3961
61	1	1	3318	4	646	825	3959
62	1	1	2323	4	635	825	3959
63	1	1	1522	4	617	825	3960
64	1	1	946	4	601	825	3960
65	1	1	508	4	592	825	3960
66	1	1	257	4	584	825	3961
67	1	1	116	4	584	825	3960
68	1	1	43	4	587	825	3959
69	1	1	4	4	594	825	3960
70	1	1	0	4	604	825	3960
71	1	1	900	5	614	825	3960
72	1	1	1956	5	624	825	3959
73	1	1	2783	6	639	825	3960
74	1	1	3285	5	654	825	3960
75	1	1	3579	5	664	825	3960
76	1	1	3753	5	667	825	3960
77	1	1	3852	4	669	825	3959
78	1	1	3903	5	668	825	3959
79	1	1	3930	5	662	825	3960
80	1	1	3941	5	654	823	3960
81	1	1	3318	4	645	825	3959
82	1	1	2321	4	635	825	3959
83	1	1	1511	3	618	825	3960
84	1	1	940	4	601	825	3959
85	1	1	502	4	592	825	3960
86	1	1	254	4	586	824	3959
87	1	1	114	4	583	825	3959
88	1	1	40	4	588	825	3959
89	1	1	4	4	594	825	3960
90	1	1	0	6	602	824	3960
91	1	1	821	5	613	825	3959
92	1	1	1878	5	623	824	3959
93	1	1	2736	5	640	826	3959
94	1	1	3251	5	652	825	3960
95	1	1	3560	6	662	825	3960
96	1	1	3744	5	666	825	3960
97	1	1	3847	6	669	825	3959
98	1	1	3900	6	667	825	3959
99	1	1	3928	5	661	825	3960
100	1	1	3942	5	653	824	3960
101	1	1	3338	4	645	825	3959
102	1	1	2346	4	635	825	3959
103	1	1	1527	4	617	825	3959
104	1	1	952	4	602	825	3960
105	1	1	513	4	591	825	3960
106	1	1	259	4	583	824	3959
107	1	1	118	4	581	824	3960
108	1	1	44	4	586	825	3960
109	1	1	4	4	593	825	3961
110	1	1	0	5	602	825	3960
111	1	1	908	5	611	824	3959
112	1	1	1933	5	622	825	3959
113	1	1	2769	5	639	825	3959
114	1	1	3277	5	653	825	3959
115	1	1	3575	5	660	825	3960
116	1	1	3751	5	666	825	3960
117	1	1	3851	5	670	825	3959
118	1	1	3903	6	664	825	3959
119	1	1	3932	5	662	826	3960
120	1	1	3942	5	655	825	3959
121	1	1	3389	4	647	824	3959
122	1	1	2397	4	635	825	3959
123	1	1	1584	3	618	825	3959
124	1	1	989	4	599	825	3960
125	1	1	535	4	590	825	3960
126	1	1	272	4	585	824	3959
127	1	1	126	4	581	825	3959
0	1	1	47	3	586	824	3960
1	1	1	6	4	594	825	3959
2	1	1	0	4	601	824	3960
3	1	1	789	5	611	825	3959
4	1	1	1852	5	622	824	3960
5	1	1	2720	5	638	826	3959
6	1	1	3242	5	654	825	3959
7	1	1	3559	5	662	825	3960
8	1	1	3740	5	667	825	3959
9	1	1	3843	5	668	825	3960
10	1	1	3901	5	668	825	3959
11	1	1	3928	5	661	825	3959
12	1	1	3943	5	653	825	3960
13	1	1	3397	4	646	825	3959
14	1	1	2397	4	633	825	3959
15	1	1	1561	5	616	825	3959
16	1	1	985	4	602	825	3959
17	1	1	531	5	593	824	3959
18	1	1	271	4	585	825	3960
19	1	1	124	5	584	824	3959
20	1	1	46	5	586	824	3959
21	1	1	5	4	592	825	3959
22	1	1	0	5	603	824	3960
23	1	1	874	5	610	825	3959
24	1	1	1901	5	622	825	3959
25	1	1	2750	5	637	825	3958
26	1	1	3265	5	651	825	3959
27	1	1	3570	5	661	825	3960
28	1	1	3746	5	665	825	3959
29	1	1	3847	5	668	825	3960
30	1	1	3903	5	666	825	3959
31	1	1	3928	5	662	825	3959
32	1	1	3941	5	654	824	3960
33	1	1	3397	4	643	825	3959
34	1	1	2405	4	634	825	3959
35	1	1	1557	4	619	825	3959
36	1	1	989	4	603	825	3959
37	1	1	531	4	589	824	3959
38	1	1	270	4	584	825	3959
39	1	1	125	4	583	825	3959
40	1	1	45	3	584	825	3958
41	1	1	7	4	593	825	3959
42	1	1	0	5	603	824	3959
43	1	1	807	5	611	825	3959
44	1	1	1871	5	623	825	3959
45	1	1	2732	5	639	825	3959
46	1	1	3249	5	652	825	3959
47	1	1	3561	5	662	825	3960
48	1	1	3742	5	666	825	3958
49	1	1	3844	5	670	825	3960
50	1	1	3901	5	668	825	3960
51	1	1	3928	5	662	825	3960
52	1	1	3943	5	655	825	3960
53	1	1	3424	4	645	825	3959
54	1	1	2436	4	635	825	3959
55	1	1	1579	5	617	825	3959
56	1	1	1001	4	601	825	3960
57	1	1	542	4	589	824	3959
58	1	1	273	4	584	824	3959
59	1	1	127	4	582	825	3959
60	1	1	48	5	586	825	3960
61	1	1	6	4	594	825	3959
62	1	1	0	5	603	824	3959
63	1	1	835	5	609	825	3958
64	1	1	1867	4	621	825	3959
65	1	1	2729	5	636	825	3959
66	1	1	3252	4	651	825	3959
67	1	1	3561	5	661	825	3959
68	1	1	3742	5	664	825	3959
69	1	1	3844	4	667	825	3959
70	1	1	3900	5	667	825	3959
71	1	1	3929	5	662	825	3959
72	1	1	3941	5	655	825	3960
73	1	1	3412	4	645	825	3959
74	1	1	2426	4	635	825	3960
75	1	1	1572	3	616	825	3959
76	1	1	997	4	602	825	3958
77	1	1	538	4	592	825	3960
78	1	1	274	4	585	824	3958
79	1	1	128	4	581	825	3960
80	1	1	47	4	586	825	3959
81	1	1	5	4	593	825	3959
82	1	1	0	4	601	825	3960
83	1	1	784	5	612	825	3959
84	1	1	1845	5	622	825	3958
85	1	1	2716	6	637	825	3959
86	1	1	3239	5	653	825	3959
87	1	1	3556	5	662	824	3960
88	1	1	3740	5	668	825	3959
89	1	1	3843	5	668	825	3959
90	1	1	3899	6	666	825	3959
91	1	1	3929	5	660	825	3960
92	1	1	3940	5	655	825	3959
93	1	1	3416	3	645	825	3960
94	1	1	2425	4	635	825	3959
95	1	1	1554	4	618	824	3958
96	1	1	995	4	603	825	3959
97	1	1	538	4	590	825	3959
98	1	1	271	4	583	825	3959
99	1	1	125	4	581	824	3959
100	1	1	46	5	585	825	3959
101	1	1	7	4	592	825	3959
102	1	1	0	6	602	824	3959
103	1	1	837	5	611	825	3959
104	1	1	1873	5	623	825	3959
105	1	1	2741	5	637	825	3959
106	1	1	3255	5	652	825	3960
107	1	1	3561	5	659	825	3959
108	1	1	3743	4	667	825	3960
109	1	1	3846	5	669	825	3959
110	1	1	3900	6	667	825	3959
111	1	1	3928	5	663	825	3959
112	1	1	3940	5	653	824	3959
113	1	1	3455	4	644	825	3959
114	1	1	2473	4	633	825	3960
115	1	1	1604	4	619	825	3959
116	1	1	1022	4	602	825	3959
117	1	1	553	4	592	825	3959
118	1	1	283	3	585	825	3960
119	1	1	130	4	583	825	3959
120	1	1	49	4	586	825	3959
121	1	1	7	4	592	825	3959
122	1	1	0	4	601	824	3959
123	1	1	772	5	610	825	3959
124	1	1	1817	5	619	825	3959
125	1	1	2698	5	634	825	3959
126	1	1	3228	5	649	825	3959
127	1	1	3549	5	661	825	3959
0	1	1	3734	5	665	825	3958
1	1	1	3840	5	667	825	3958
2	1	1	3897	5	667	825	3959
3	1	1	3926	5	660	825	3959
4	1	1	3942	5	653	825	3960
5	1	1	3462	4	644	825	3959
6	1	1	2481	4	634	825	3960
7	1	1	1595	4	619	825	3960
8	1	1	1014	4	600	825	3959
9	1	1	548	4	589	825	3960
10	1	1	278	4	581	825	3959
11	1	1	128	4	580	824	3958
12	1	1	48	4	585	825	3959
13	1	1	7	5	590	825	3959
14	1	1	0	5	601	825	3959
15	1	1	815	5	610	824	3959
16	1	1	1850	5	620	825	3959
17	1	1	2718	5	634	825	3959
18	1	1	3245	5	650	825	3959
19	1	1	3556	5	659	824	3959
20	1	1	3739	5	666	825	3959
21	1	1	3842	5	668	825	3959
22	1	1	3899	5	666	825	3960
23	1	1	3926	5	659	825	3959
24	1	1	3939	5	653	824	3960
25	1	1	3443	3	643	825	3960
26	1	1	2477	4	634	826	3959
27	1	1	1602	4	617	825	3959
28	1	1	1038	4	601	825	3959
29	1	1	561	4	589	824	3959
30	1	1	287	4	582	825	3959
31	1	1	133	4	582	825	3960
32	1	1	49	4	585	825	3960
33	1	1	7	4	591	825	3959
34	1	1	0	4	598	824	3959
35	1	1	788	4	609	825	3960
36	1	1	1854	5	619	825	3959
37	1	1	2720	5	636	825	3959
38	1	1	3241	5	649	825	3958
39	1	1	3557	5	658	824	3959
40	1	1	3738	5	664	825	3959
41	1	1	3841	5	665	826	3959
42	1	1	3898	6	665	825	3960
43	1	1	3926	5	661	825	3959
44	1	1	3939	5	652	824	3960
45	1	1	3443	3	644	825	3959
46	1	1	2458	4	633	825	3959
47	1	1	1552	4	618	825	3959
48	1	1	961	3	601	825	3958
49	1	1	517	4	590	825	3959
50	1	1	259	4	584	825	3958
51	1	1	117	4	580	824	3960
52	1	1	41	4	585	825	3960
53	1	1	3	4	591	825	3959
54	1	1	0	5	597	824	3959
55	1	1	814	4	609	825	3960
56	1	1	1867	5	617	825	3959
57	1	1	2736	5	634	825	3959
58	1	1	3250	5	651	825	3959
59	1	1	3559	5	657	825	3959
60	1	1	3739	5	665	825	3959
61	1	1	3843	5	665	825	3959
62	1	1	3899	6	666	825	3959
63	1	1	3926	4	662	825	3958
64	1	1	3939	5	653	825	3959
65	1	1	3466	4	644	825	3958
66	1	1	2488	4	635	825	3959
67	1	1	1585	5	619	825	3959
68	1	1	1025	4	600	825	3959
69	1	1	553	4	591	825	3960
70	1	1	282	4	585	825	3959
71	1	1	130	4	581	825	3960
72	1	1	47	4	585	825	3960
73	1	1	6	4	590	825	3959
74	1	1	0	4	598	825	3959
75	1	1	772	5	610	825	3959
76	1	1	1823	5	621	825	3959
77	1	1	2701	5	635	825	3959
78	1	1	3230	5	650	825	3959
79	1	1	3551	5	658	825	3960
80	1	1	3734	5	663	825	3959
81	1	1	3838	5	667	825	3959
82	1	1	3896	4	666	825	3959
83	1	1	3925	5	660	825	3960
84	1	1	3939	5	653	825	3959
85	1	1	3475	3	645	825	3960
86	1	1	2485	4	636	825	3959
87	1	1	1527	4	617	825	3959
88	1	1	959	3	600	825	3958
89	1	1	516	4	590	825	3959
90	1	1	258	4	582	825	3959
91	1	1	117	4	579	825	3959
92	1	1	41	5	584	825	3960
93	1	1	2	4	590	825	3959
94	1	1	0	5	599	825	3960
95	1	1	706	4	609	825	3959
96	1	1	1744	5	619	824	3959
97	1	1	2660	5	633	825	3958
98	1	1	3204	4	649	826	3959
99	1	1	3532	5	657	825	3959
100	1	1	3725	4	663	825	3959
101	1	1	3835	5	667	825	3959
102	1	1	3894	5	663	825	3959
103	1	1	3926	5	661	825	3960
104	1	1	3939	5	651	825	3959
105	1	1	3462	4	643	825	3959
106	1	1	2478	4	633	825	3960
107	1	1	1541	4	616	825	3960
108	1	1	993	3	600	825	3960
109	1	1	536	4	589	825	3959
110	1	1	272	4	582	825	3959
111	1	1	126	4	579	825	3959
112	1	1	46	5	581	825	3959
113	1	1	6	5	588	825	3959
114	1	1	0	4	595	824	3959
115	1	1	730	5	606	825	3959
116	1	1	1780	5	617	825	3958
117	1	1	2676	5	632	824	3959
118	1	1	3215	5	645	825	3959
119	1	1	3543	5	655	825	3960
120	1	1	3731	5	662	825	3959
121	1	1	3837	6	665	825	3959
122	1	1	3897	5	664	825	3959
123	1	1	3928	5	660	825	3960
124	1	1	3940	5	651	825	3960
125	1	1	3548	3	643	825	3960
126	1	1	2552	4	633	825	3959
127	1	1	1537	4	617	825	3959
0	1	1	985	5	602	825	3959
1	1	1	531	4	589	825	3959
2	1	1	268	4	583	825	3959
3	1	1	123	4	579	825	3959
4	1	1	45	4	581	824	3959
5	1	1	5	4	590	825	3959
6	1	1	0	4	597	825	3959
7	1	1	687	5	607	825	3959
8	1	1	1736	6	618	825	3959
9	1	1	2657	5	635	825	3959
10	1	1	3203	6	647	825	3959
11	1	1	3533	5	657	825	3960
12	1	1	3729	5	665	826	3960
13	1	1	3835	5	665	825	3959
14	1	1	3896	5	664	825	3959
15	1	1	3928	5	661	825	3960
16	1	1	3940	5	654	825	3959
17	1	1	3528	3	644	825	3960
18	1	1	2554	4	632	825	3958
19	1	1	1620	4	619	825	3959
20	1	1	1067	4	602	825	3960
21	1	1	579	4	589	824	3959
22	1	1	297	4	584	824	3958
23	1	1	138	4	579	825	3959
24	1	1	54	4	583	824	3959
25	1	1	9	4	589	825	3959
26	1	1	0	4	598	824	3959
27	1	1	676	5	607	825	3959
28	1	1	1726	5	620	825	3959
29	1	1	2643	5	635	825	3960
30	1	1	3200	6	648	825	3959
31	1	1	3531	5	658	825	3960
32	1	1	3724	5	663	825	3959
33	1	1	3834	5	666	826	3960
34	1	1	3896	5	666	825	3958
35	1	1	3925	5	660	825	3959
36	1	1	3942	5	653	825	3960
37	1	1	3559	4	644	825	3959
38	1	1	2521	4	633	824	3959
39	1	1	1541	4	616	826	3958
40	1	1	1016	3	601	825	3958
41	1	1	546	4	590	825	3959
42	1	1	279	3	582	825	3959
43	1	1	129	5	580	824	3959
44	1	1	49	4	584	825	3959
45	1	1	8	4	588	825	3959
46	1	1	0	4	596	825	3959
47	1	1	704	5	607	825	3959
48	1	1	1750	5	616	825	3959
49	1	1	2666	5	629	825	3959
50	1	1	3211	5	647	825	3960
51	1	1	3535	5	655	825	3959
52	1	1	3730	3	661	825	3960
53	1	1	3838	5	666	826	3959
54	1	1	3897	5	662	825	3959
55	1	1	3928	5	661	825	3960
56	1	1	3940	5	653	825	3959
57	1	1	3559	4	645	826	3959
58	1	1	2579	4	632	825	3959
59	1	1	1616	4	617	825	3959
60	1	1	1061	3	603	825	3959
61	1	1	575	4	588	825	3959
62	1	1	296	4	582	825	3959
63	1	1	137	4	578	825	3959
64	1	1	53	4	581	824	3959
65	1	1	11	4	589	825	3960
66	1	1	0	4	597	825	3959
67	1	1	712	5	606	825	3958
68	1	1	1776	5	617	825	3960
69	1	1	2675	4	632	825	3960
70	1	1	3219	5	646	825	3959
71	1	1	3544	5	656	825	3959
72	1	1	3731	5	661	825	3958
73	1	1	3839	5	665	825	3960
74	1	1	3898	5	663	825	3960
75	1	1	3926	5	659	825	3959
76	1	1	3940	5	652	825	3959
77	1	1	3552	4	642	825	3959
78	1	1	2489	4	632	825	3960
79	1	1	1538	4	618	825	3959
80	1	1	1008	3	598	824	3959
81	1	1	541	4	586	825	3959
82	1	1	276	4	582	824	3959
83	1	1	128	4	579	825	3959
84	1	1	48	4	582	825	3959
85	1	1	7	4	588	825	3960
86	1	1	0	4	596	823	3959
87	1	1	652	4	606	825	3960
88	1	1	1713	5	616	825	3958
89	1	1	2632	5	630	825	3959
90	1	1	3189	5	646	825	3959
91	1	1	3524	5	655	825	3959
92	1	1	3722	5	660	825	3959
93	1	1	3833	5	664	825	3958
94	1	1	3895	5	663	825	3959
95	1	1	3926	4	659	825	3960
96	1	1	3943	5	652	825	3960
97	1	1	3555	4	642	825	3959
98	1	1	2576	3	633	825	3959
99	1	1	1594	4	616	825	3959
100	1	1	1045	4	598	825	3960
101	1	1	566	4	587	824	3959
102	1	1	290	4	581	825	3960
103	1	1	135	4	579	825	3958
104	1	1	52	4	582	825	3958
105	1	1	9	3	586	825	3959
106	1	1	0	4	595	826	3960
107	1	1	650	5	604	825	3959
108	1	1	1706	5	615	825	3960
109	1	1	2629	5	632	825	3959
110	1	1	3193	5	646	825	3959
111	1	1	3526	5	652	825	3959
112	1	1	3722	5	661	825	3959
113	1	1	3833	5	664	825	3959
114	1	1	3895	5	660	825	3959
115	1	1	3926	5	657	825	3959
116	1	1	3941	5	651	825	3959
117	1	1	3541	4	643	825	3959
118	1	1	2520	4	632	825	3958
119	1	1	1577	4	618	825	3959
120	1	1	1043	4	601	825	3959
121	1	1	561	4	587	825	3959
122	1	1	288	4	579	825	3960
123	1	1	135	4	579	825	3959
124	1	1	53	4	581	825	3959
125	1	1	10	4	586	825	3960
126	1	1	0	4	595	826	3959
127	1	1	631	5	605	825	3959
0	1	1	1679	4	617	825	3959
1	1	1	2622	5	628	825	3959
2	1	1	3183	5	645	825	3960
3	1	1	3522	4	655	825	3959
4	1	1	3721	5	659	825	3958
5	1	1	3833	5	661	825	3959
6	1	1	3895	5	662	825	3959
7	1	1	3926	4	656	825	3959
8	1	1	3942	5	649	825	3959
9	1	1	3570	4	641	825	3960
10	1	1	2607	4	632	825	3958
11	1	1	1611	4	616	825	3959
12	1	1	1067	4	601	825	3960
13	1	1	578	4	588	825	3959
14	1	1	298	4	580	824	3959
15	1	1	139	4	577	824	3959
16	1	1	55	4	580	824	3959
17	1	1	12	4	587	825	3960
18	1	1	0	4	594	825	3960
19	1	1	626	5	605	825	3959
20	1	1	1672	4	613	825	3959
21	1	1	2607	4	628	825	3958
22	1	1	3180	5	644	825	3959
23	1	1	3519	5	653	825	3959
24	1	1	3718	5	661	825	3960
25	1	1	3833	5	662	825	3959
26	1	1	3895	5	663	825	3958
27	1	1	3927	4	658	825	3959
28	1	1	3941	5	651	825	3959
29	1	1	3494	4	642	826	3959
30	1	1	2541	4	631	825	3960
31	1	1	1598	4	618	825	3960
32	1	1	1065	3	598	825	3960
33	1	1	574	4	587	824	3959
34	1	1	295	4	580	824	3959
35	1	1	140	5	577	825	3959
36	1	1	56	4	579	825	3959
37	1	1	12	4	585	825	3959
38	1	1	0	4	594	825	3960
39	1	1	623	5	605	825	3960
40	1	1	1686	5	614	826	3959
41	1	1	2616	5	628	825	3959
42	1	1	3182	5	644	825	3960
43	1	1	3519	5	654	825	3959
44	1	1	3720	5	657	825	3958
45	1	1	3834	4	661	825	3958
46	1	1	3896	5	661	825	3959
47	1	1	3927	5	657	825	3959
48	1	1	3942	5	650	825	3959
49	1	1	3603	4	641	825	3959
50	1	1	2635	4	632	825	3959
51	1	1	1648	4	616	824	3959
52	1	1	1094	4	599	825	3958
53	1	1	596	4	588	825	3959
54	1	1	308	4	580	825	3958
55	1	1	145	4	576	825	3959
56	1	1	58	4	581	824	3959
57	1	1	14	3	585	825	3958
58	1	1	0	4	594	824	3959
59	1	1	592	5	605	825	3958
60	1	1	1636	5	616	825	3958
61	1	1	2584	5	628	825	3959
62	1	1	3167	5	643	825	3960
63	1	1	3512	5	651	825	3960
64	1	1	3715	5	657	825	3960
65	1	1	3831	5	664	825	3958
66	1	1	3895	5	660	824	3959
67	1	1	3928	5	656	825	3960
68	1	1	3941	5	650	825	3959
69	1	1	3507	4	640	825	3960
70	1	1	2570	4	630	824	3959
71	1	1	1600	4	616	825	3959
72	1	1	1069	3	596	825	3959
73	1	1	577	4	586	824	3959
74	1	1	298	4	579	824	3958
75	1	1	141	4	576	824	3959
76	1	1	56	4	578	824	3959
77	1	1	13	3	584	825	3959
78	1	1	0	4	594	825	3960
79	1	1	562	5	602	825	3959
80	1	1	1619	5	612	825	3960
81	1	1	2572	5	627	825	3960
82	1	1	3154	4	641	825	3959
83	1	1	3506	5	652	825	3959
84	1	1	3713	5	656	825	3959
85	1	1	3829	5	660	825	3959
86	1	1	3894	5	660	825	3959
87	1	1	3927	4	655	825	3959
88	1	1	3943	5	649	825	3959
89	1	1	3649	5	639	825	3959
90	1	1	2684	4	631	825	3959
91	1	1	1677	4	616	825	3959
92	1	1	1117	3	598	825	3959
93	1	1	609	4	586	825	3959
94	1	1	313	3	580	825	3960
95	1	1	150	5	577	824	3959
96	1	1	62	4	578	825	3959
97	1	1	16	4	584	825	3960
98	1	1	0	4	592	825	3959
99	1	1	567	5	603	825	3960
100	1	1	1615	5	613	825	3959
101	1	1	2578	5	627	825	3959
102	1	1	3157	4	640	825	3960
103	1	1	3507	5	650	825	3959
104	1	1	3712	5	658	826	3959
105	1	1	3831	5	660	825	3959
106	1	1	3894	5	659	825	3959
107	1	1	3927	4	655	825	3959
108	1	1	3943	5	648	825	3959
109	1	1	3607	4	640	825	3959
110	1	1	2662	4	630	825	3960
111	1	1	1670	4	617	825	3960
112	1	1	1114	3	598	825	3959
113	1	1	607	4	587	825	3959
114	1	1	315	4	577	825	3960
115	1	1	151	4	575	825	3959
116	1	1	61	4	578	825	3959
117	1	1	16	4	584	825	3960
118	1	1	0	4	592	825	3959
119	1	1	583	5	602	825	3959
120	1	1	1634	5	613	825	3959
121	1	1	2582	5	625	825	3960
122	1	1	3159	5	638	825	3959
123	1	1	3513	5	651	825	3960
124	1	1	3715	5	658	825	3959
125	1	1	3831	5	658	825	3959
126	1	1	3895	5	659	825	3959
127	1	1	3929	5	655	826	3960
0	1	1	3943	5	648	825	3959
1	1	1	3640	4	640	825	3959
2	1	1	2666	4	629	824	3959
3	1	1	1662	4	614	825	3960
4	1	1	1118	4	598	825	3960
5	1	1	611	4	586	825	3960
6	1	1	315	3	579	825	3959
7	1	1	150	4	575	825	3959
8	1	1	62	4	580	825	3959
9	1	1	16	4	583	825	3960
10	1	1	0	4	592	825	3959
11	1	1	558	6	600	825	3959
12	1	1	1600	5	611	825	3959
13	1	1	2567	5	626	825	3959
14	1	1	3151	4	641	825	3959
15	1	1	3503	5	650	825	3959
16	1	1	3710	5	655	824	3959
17	1	1	3829	5	660	826	3959
18	1	1	3894	5	660	825	3959
19	1	1	3928	5	657	825	3960
20	1	1	3942	5	648	825	3959
21	1	1	3656	4	639	825	3959
22	1	1	2713	4	629	825	3960
23	1	1	1704	4	618	825	3960
24	1	1	1198	4	599	825	3960
25	1	1	657	4	586	825	3960
26	1	1	343	5	577	824	3959
27	1	1	166	4	573	825	3959
28	1	1	70	4	576	825	3959
29	1	1	20	4	583	825	3960
30	1	1	0	4	590	825	3959
31	1	1	562	5	600	825	3959
32	1	1	1612	5	611	825	3959
33	1	1	2567	5	624	825	3959
34	1	1	3150	5	638	825	3959
35	1	1	3505	5	652	825	3959
36	1	1	3711	5	655	825	3960
37	1	1	3829	5	659	825	3959
38	1	1	3895	5	660	825	3959
39	1	1	3928	5	657	825	3960
40	1	1	3942	5	649	825	3960
41	1	1	3671	4	640	825	3959
42	1	1	2694	4	629	825	3960
43	1	1	1691	4	613	825	3960
44	1	1	1137	4	597	825	3960
45	1	1	620	4	586	825	3959
46	1	1	321	4	578	824	3959
47	1	1	152	4	575	824	3960
48	1	1	62	4	576	825	3959
49	1	1	16	4	584	825	3959
50	1	1	0	4	592	825	3959
51	1	1	526	5	600	825	3959
52	1	1	1572	5	609	825	3959
53	1	1	2549	5	625	825	3959
54	1	1	3141	5	642	825	3960
55	1	1	3495	5	650	825	3959
56	1	1	3705	5	656	825	3959
57	1	1	3826	5	659	825	3960
58	1	1	3893	5	658	825	3960
59	1	1	3925	5	654	825	3960
60	1	1	3943	5	650	825	3959
61	1	1	3663	4	640	825	3959
62	1	1	2702	4	631	826	3959
63	1	1	1700	4	616	825	3959
64	1	1	1193	4	597	825	3960
65	1	1	654	4	585	824	3959
66	1	1	341	4	580	825	3960
67	1	1	163	4	574	825	3959
68	1	1	68	4	577	825	3959
69	1	1	18	4	583	825	3959
70	1	1	0	4	592	825	3959
71	1	1	523	5	602	824	3959
72	1	1	1566	5	611	824	3960
73	1	1	2535	5	623	825	3960
74	1	1	3131	5	640	825	3960
75	1	1	3495	5	649	825	3960
76	1	1	3705	5	654	825	3959
77	1	1	3824	5	659	825	3959
78	1	1	3892	5	658	825	3960
79	1	1	3924	4	656	826	3960
80	1	1	3940	5	648	825	3959
81	1	1	3696	3	639	826	3960
82	1	1	2729	4	629	825	3958
83	1	1	1707	4	616	825	3959
84	1	1	1148	4	600	825	3959
85	1	1	622	4	585	825	3959
86	1	1	323	4	577	824	3959
87	1	1	154	5	573	824	3959
88	1	1	63	4	576	825	3959
89	1	1	15	4	582	825	3960
90	1	1	0	4	589	825	3960
91	1	1	493	5	598	825	3959
92	1	1	1537	5	610	825	3959
93	1	1	2526	5	625	824	3959
94	1	1	3126	5	639	826	3959
95	1	1	3487	5	651	825	3959
96	1	1	3702	5	656	824	3959
97	1	1	3824	5	659	826	3958
98	1	1	3890	5	658	825	3959
99	1	1	3926	5	655	825	3960
100	1	1	3941	5	648	825	3959
101	1	1	3699	4	639	825	3959
102	1	1	2736	4	630	825	3959
103	1	1	1800	4	616	825	3960
104	1	1	1242	4	597	825	3959
105	1	1	682	4	587	825	3959
106	1	1	357	4	578	824	3959
107	1	1	172	4	572	825	3960
108	1	1	73	4	576	824	3959
109	1	1	21	4	582	825	3960
110	1	1	0	4	591	825	3960
111	1	1	499	4	601	825	3959
112	1	1	1536	6	610	824	3959
113	1	1	2513	5	622	825	3959
114	1	1	3123	5	638	825	3959
115	1	1	3485	5	650	825	3959
116	1	1	3699	5	656	825	3959
117	1	1	3821	5	659	825	3959
118	1	1	3891	5	660	825	3960
119	1	1	3923	5	653	825	3959
120	1	1	3940	5	648	825	3959
121	1	1	3705	4	641	825	3959
122	1	1	2735	4	629	826	3959
123	1	1	1716	4	618	825	3960
124	1	1	1156	4	598	825	3960
125	1	1	626	4	586	825	3959
126	1	1	325	4	579	825	3959
127	1	1	156	3	574	825	3959
0	1	1	64	4	576	825	3959
1	1	1	15	4	580	825	3959
2	1	1	0	4	590	825	3959
3	1	1	484	5	600	825	3959
4	1	1	1551	5	610	824	3959
5	1	1	2526	5	623	825	3959
6	1	1	3126	5	640	825	3959
7	1	1	3488	5	650	825	3960
8	1	1	3702	5	657	825	3959
9	1	1	3822	5	661	825	3959
10	1	1	3890	5	660	825	3960
11	1	1	3924	4	657	825	3960
12	1	1	3942	5	649	826	3960
13	1	1	3731	4	642	825	3959
14	1	1	2784	4	630	825	3960
15	1	1	1826	4	617	825	3960
16	1	1	1260	3	598	825	3959
17	1	1	692	4	588	825	3960
18	1	1	362	4	581	825	3958
19	1	1	174	4	574	825	3959
20	1	1	73	4	577	825	3960
21	1	1	21	4	582	825	3959
22	1	1	0	4	589	825	3959
23	1	1	478	5	601	825	3959
24	1	1	1519	5	611	825	3959
25	1	1	2502	5	625	825	3959
26	1	1	3116	5	640	825	3959
27	1	1	3480	5	650	825	3960
28	1	1	3696	5	657	825	3960
29	1	1	3820	5	662	826	3959
30	1	1	3887	5	661	825	3959
31	1	1	3923	5	657	825	3960
32	1	1	3939	5	649	825	3959
33	1	1	3735	4	641	825	3959
34	1	1	2779	4	631	825	3959
35	1	1	1747	4	618	825	3959
36	1	1	1178	4	599	825	3959
37	1	1	639	4	586	825	3958
38	1	1	331	4	580	824	3959
39	1	1	158	4	574	825	3959
40	1	1	64	4	577	825	3960
41	1	1	16	4	583	825	3959
42	1	1	0	4	591	825	3960
43	1	1	460	5	602	825	3959
44	1	1	1513	5	612	825	3959
45	1	1	2500	5	623	825	3959
46	1	1	3109	5	641	825	3959
47	1	1	3476	5	650	825	3959
48	1	1	3695	5	656	825	3959
49	1	1	3818	4	660	825	3959
50	1	1	3887	5	661	825	3959
51	1	1	3923	5	659	825	3960
52	1	1	3938	5	651	825	3959
53	1	1	3760	4	643	825	3959
54	1	1	2891	4	631	825	3959
55	1	1	1872	5	620	825	3959
56	1	1	1286	4	601	825	3959
57	1	1	707	5	589	825	3959
58	1	1	370	4	581	825	3959
59	1	1	178	3	576	824	3959
60	1	1	75	4	579	824	3959
61	1	1	20	4	585	825	3960
62	1	1	0	4	590	825	3959
63	1	1	481	5	600	825	3959
64	1	1	1524	5	612	825	3959
65	1	1	2506	5	625	825	3959
66	1	1	3118	4	640	825	3960
67	1	1	3481	5	652	825	3959
68	1	1	3696	5	657	825	3960
69	1	1	3819	5	661	824	3959
70	1	1	3886	5	660	825	3959
71	1	1	3922	4	659	825	3960
72	1	1	3936	5	651	825	3959
73	1	1	3741	3	640	825	3960
74	1	1	2789	4	631	825	3959
75	1	1	1748	3	619	824	3959
76	1	1	1188	4	601	825	3959
77	1	1	643	4	589	825	3959
78	1	1	334	4	580	825	3959
79	1	1	159	4	577	825	3960
80	1	1	64	4	578	825	3959
81	1	1	14	4	584	825	3960
82	1	1	0	4	590	825	3959
83	1	1	461	5	601	825	3959
84	1	1	1515	5	612	825	3959
85	1	1	2501	5	626	825	3960
86	1	1	3108	5	641	825	3959
87	1	1	3475	5	650	825	3959
88	1	1	3694	5	657	825	3960
89	1	1	3819	5	662	826	3959
90	1	1	3885	5	661	824	3959
91	1	1	3920	5	657	825	3960
92	1	1	3937	5	650	825	3958
93	1	1	3767	4	643	825	3959
94	1	1	2933	4	632	825	3959
95	1	1	1869	4	620	825	3960
96	1	1	1270	4	601	825	3960
97	1	1	697	4	590	825	3960
98	1	1	363	4	579	825	3959
99	1	1	174	4	574	825	3960
100	1	1	72	4	577	825	3960
101	1	1	18	4	582	825	3959
102	1	1	0	4	590	825	3959
103	1	1	454	5	601	825	3959
104	1	1	1496	5	612	825	3959
105	1	1	2486	5	623	825	3959
106	1	1	3104	5	639	825	3959
107	1	1	3472	5	648	825	3959
108	1	1	3689	5	655	825	3959
109	1	1	3813	5	661	825	3959
110	1	1	3884	5	661	825	3959
111	1	1	3918	5	656	825	3960
112	1	1	3938	5	650	825	3960
113	1	1	3791	4	639	825	3959
114	1	1	2869	4	631	825	3960
115	1	1	1835	3	617	824	3959
116	1	1	1265	4	601	825	3960
117	1	1	687	4	586	824	3959
118	1	1	358	3	578	825	3960
119	1	1	172	4	573	825	3959
120	1	1	70	4	574	825	3959
121	1	1	16	4	579	825	3959
122	1	1	0	4	588	825	3959
123	1	1	474	5	598	825	3959
124	1	1	1544	5	608	825	3959
125	1	1	2519	5	622	825	3959
126	1	1	3119	5	637	825	3960
127	1	1	3480	5	647	825	3959
0	1	1	3695	5	657	825	3959
1	1	1	3816	4	659	825	3959
2	1	1	3883	5	658	825	3960
3	1	1	3918	5	654	825	3960
4	1	1	3935	5	648	825	3959
5	1	1	3838	4	638	825	3959
6	1	1	2916	4	629	825	3959
7	1	1	1835	4	618	825	3959
8	1	1	1246	4	597	825	3959
9	1	1	681	4	585	825	3960
10	1	1	354	4	577	825	3959
11	1	1	167	4	573	825	3959
12	1	1	66	4	574	825	3959
13	1	1	14	4	580	825	3960
14	1	1	0	4	587	825	3960
15	1	1	469	4	597	825	3959
16	1	1	1523	5	608	825	3959
17	1	1	2506	5	621	825	3960
18	1	1	3115	5	635	825	3960
19	1	1	3479	6	650	825	3959
20	1	1	3691	5	654	825	3959
21	1	1	3814	5	658	825	3959
22	1	1	3881	5	658	825	3959
23	1	1	3916	5	654	825	3959
24	1	1	3932	5	648	825	3959
25	1	1	3791	4	639	825	3959
26	1	1	2853	4	628	825	3959
27	1	1	1814	4	617	825	3959
28	1	1	1226	4	599	825	3959
29	1	1	664	4	586	825	3959
30	1	1	343	4	575	825	3960
31	1	1	162	4	572	824	3959
32	1	1	62	4	574	824	3959
33	1	1	11	4	578	825	3960
34	1	1	0	4	585	825	3959
35	1	1	414	5	595	825	3960
36	1	1	1472	5	606	825	3959
37	1	1	2468	5	619	825	3959
38	1	1	3087	5	634	825	3959
39	1	1	3460	5	646	825	3959
40	1	1	3684	5	654	825	3959
41	1	1	3808	5	656	825	3959
42	1	1	3879	5	658	825	3959
43	1	1	3915	5	654	825	3960
44	1	1	3932	5	648	825	3959
45	1	1	3875	4	640	825	3959
46	1	1	2928	4	628	825	3959
47	1	1	1839	4	617	825	3960
48	1	1	1232	4	598	825	3959
49	1	1	667	4	583	825	3960
50	1	1	346	4	573	825	3959
51	1	1	163	4	571	825	3959
52	1	1	63	4	572	825	3959
53	1	1	11	4	579	825	3959
54	1	1	0	4	584	825	3959
55	1	1	392	4	597	825	3959
56	1	1	1439	5	607	825	3959
57	1	1	2441	5	618	825	3959
58	1	1	3072	5	633	825	3960
59	1	1	3451	5	645	825	3958
60	1	1	3677	5	653	825	3958
61	1	1	3805	5	657	825	3959
62	1	1	3877	5	658	825	3960
63	1	1	3913	5	655	825	3959
64	1	1	3933	5	648	825	3960
65	1	1	3775	2	639	825	3959
66	1	1	2831	4	629	825	3959
67	1	1	1763	4	616	825	3959
68	1	1	1178	4	598	825	3959
69	1	1	641	4	584	825	3959
70	1	1	327	5	575	825	3959
71	1	1	152	4	571	825	3959
72	1	1	58	4	572	824	3959
73	1	1	9	4	578	824	3959
74	1	1	0	4	585	825	3958
75	1	1	371	5	593	825	3958
76	1	1	1408	5	605	825	3958
77	1	1	2418	5	620	825	3959
78	1	1	3062	5	635	825	3959
79	1	1	3448	5	646	825	3960
80	1	1	3675	5	655	825	3959
81	1	1	3805	5	657	825	3959
82	1	1	3877	5	657	825	3960
83	1	1	3913	5	652	825	3960
84	1	1	3934	5	648	825	3960
85	1	1	3854	6	639	825	3959
86	1	1	2910	4	628	825	3959
87	1	1	1849	5	615	825	3960
88	1	1	1254	4	598	825	3959
89	1	1	680	4	583	825	3960
90	1	1	354	4	577	824	3958
91	1	1	168	4	572	825	3958
92	1	1	65	4	571	825	3958
93	1	1	13	4	576	824	3959
94	1	1	0	4	585	825	3958
95	1	1	375	4	596	825	3960
96	1	1	1428	5	607	826	3959
97	1	1	2437	5	620	825	3958
98	1	1	3067	5	633	825	3959
99	1	1	3453	5	646	825	3959
100	1	1	3678	4	653	826	3959
101	1	1	3805	5	656	825	3959
102	1	1	3877	5	659	824	3960
103	1	1	3914	5	654	825	3960
104	1	1	3934	5	649	825	3960
105	1	1	3816	6	639	825	3959
106	1	1	2880	4	629	825	3958
107	1	1	1820	4	616	825	3958
108	1	1	1231	4	597	825	3959
109	1	1	672	3	583	824	3958
110	1	1	346	3	576	825	3960
111	1	1	163	4	570	825	3959
112	1	1	64	4	572	825	3959
113	1	1	13	4	577	824	3959
114	1	1	0	4	587	825	3960
115	1	1	362	5	596	825	3959
116	1	1	1399	5	607	825	3959
117	1	1	2424	5	617	825	3959
118	1	1	3059	5	632	825	3959
119	1	1	3447	5	647	825	3959
120	1	1	3672	5	652	825	3959
121	1	1	3804	5	657	825	3958
122	1	1	3877	5	658	824	3959
123	1	1	3914	5	655	825	3959
124	1	1	3933	5	649	825	3958
125	1	1	3848	4	640	825	3960
126	1	1	2909	4	628	826	3958
127	1	1	1844	4	616	825	3959
0	1	1	1225	4	596	825	3960
1	1	1	669	4	585	825	3958
2	1	1	346	4	576	825	3960
3	1	1	164	3	569	825	3960
4	1	1	64	4	572	825	3959
5	1	1	12	4	578	825	3960
6	1	1	0	4	585	825	3959
7	1	1	318	5	594	825	3959
8	1	1	1356	5	606	825	3959
9	1	1	2377	5	619	825	3959
10	1	1	3032	5	632	825	3959
11	1	1	3431	5	648	825	3958
12	1	1	3666	5	654	825	3958
13	1	1	3800	4	657	825	3959
14	1	1	3874	5	656	825	3960
15	1	1	3913	5	654	825	3959
16	1	1	3932	5	647	825	3958
17	1	1	3809	4	638	826	3960
18	1	1	2867	4	629	825	3959
19	1	1	1814	4	615	825	3959
20	1	1	1207	4	598	824	3959
21	1	1	658	4	585	825	3958
22	1	1	338	5	577	825	3959
23	1	1	161	3	569	825	3959
24	1	1	63	4	570	825	3960
25	1	1	12	4	576	825	3960
26	1	1	0	4	586	825	3960
27	1	1	321	5	595	825	3959
28	1	1	1347	5	604	825	3959
29	1	1	2382	5	618	825	3959
30	1	1	3035	5	631	825	3959
31	1	1	3431	5	645	825	3959
32	1	1	3666	5	653	825	3960
33	1	1	3803	5	657	826	3959
34	1	1	3876	5	658	826	3960
35	1	1	3915	5	654	825	3959
36	1	1	3934	5	648	825	3959
37	1	1	3850	3	638	825	3959
38	1	1	2915	4	628	825	3959
39	1	1	1854	4	617	825	3960
40	1	1	1244	4	597	825	3959
41	1	1	681	4	585	825	3960
42	1	1	351	3	577	824	3959
43	1	1	169	3	571	825	3959
44	1	1	67	4	573	825	3960
45	1	1	16	4	578	824	3959
46	1	1	0	4	586	825	3960
47	1	1	305	4	594	825	3958
48	1	1	1327	5	605	825	3959
49	1	1	2365	5	618	825	3960
50	1	1	3025	5	632	825	3959
51	1	1	3425	5	646	825	3958
52	1	1	3662	4	654	825	3958
53	1	1	3799	5	656	825	3959
54	1	1	3875	4	656	826	3959
55	1	1	3914	5	652	825	3960
56	1	1	3934	5	649	825	3959
57	1	1	3836	3	640	825	3959
58	1	1	2909	4	630	825	3960
59	1	1	1860	4	617	823	3959
60	1	1	1246	4	597	825	3959
61	1	1	682	4	585	825	3959
62	1	1	356	4	577	825	3960
63	1	1	170	4	572	824	3958
64	1	1	69	4	571	826	3959
65	1	1	17	4	578	825	3959
66	1	1	0	4	586	825	3958
67	1	1	304	5	594	824	3959
68	1	1	1324	5	602	825	3959
69	1	1	2353	5	616	823	3959
70	1	1	3018	5	631	825	3959
71	1	1	3427	5	646	825	3960
72	1	1	3664	5	653	825	3959
73	1	1	3799	5	657	825	3959
74	1	1	3877	4	657	825	3960
75	1	1	3915	5	653	825	3960
76	1	1	3935	5	648	825	3959
77	1	1	3864	4	639	825	3960
78	1	1	2938	3	629	824	3959
79	1	1	1886	4	616	826	3959
80	1	1	1285	4	597	825	3960
81	1	1	706	3	586	825	3958
82	1	1	367	4	576	825	3958
83	1	1	177	4	570	825	3959
84	1	1	74	4	571	824	3959
85	1	1	19	4	578	825	3959
86	1	1	0	4	586	825	3960
87	1	1	343	4	596	825	3959
88	1	1	1371	5	605	825	3959
89	1	1	2400	5	619	826	3959
90	1	1	3047	5	633	825	3959
91	1	1	3438	5	647	825	3958
92	1	1	3671	5	654	825	3960
93	1	1	3807	4	657	825	3959
94	1	1	3878	5	658	826	3959
95	1	1	3918	5	656	825	3960
96	1	1	3935	5	650	825	3958
97	1	1	3844	4	641	825	3959
98	1	1	2922	3	629	825	3958
99	1	1	1869	4	617	825	3958
100	1	1	1251	4	599	825	3959
101	1	1	685	4	586	825	3958
102	1	1	358	4	577	824	3958
103	1	1	173	4	570	825	3959
104	1	1	70	4	572	825	3960
105	1	1	18	4	576	824	3959
106	1	1	0	4	584	825	3960
107	1	1	302	5	594	824	3959
108	1	1	1334	5	603	825	3959
109	1	1	2361	5	617	825	3959
110	1	1	3023	5	633	825	3959
111	1	1	3429	5	645	825	3958
112	1	1	3665	5	652	825	3959
113	1	1	3800	5	656	825	3962
114	1	1	3877	5	658	825	3959
115	1	1	3917	5	654	825	3958
116	1	1	3935	5	649	825	3958
117	1	1	3860	4	639	825	3958
118	1	1	2928	4	630	825	3958
119	1	1	1865	4	617	825	3959
120	1	1	1242	4	599	825	3960
121	1	1	681	4	585	825	3959
122	1	1	353	4	576	825	3959
123	1	1	170	4	573	825	3959
124	1	1	70	4	570	825	3959
125	1	1	17	4	577	824	3959
126	1	1	0	4	584	825	3959
127	1	1	269	5	595	825	3960
0	1	1	1298	5	605	825	3960
1	1	1	2345	5	619	825	3959
2	1	1	3014	5	633	825	3959
3	1	1	3420	5	644	825	3958
4	1	1	3662	5	654	825	3958
5	1	1	3800	5	655	825	3959
6	1	1	3877	5	659	825	3959
7	1	1	3916	4	654	825	3959
8	1	1	3937	5	648	825	3959
9	1	1	3847	4	642	825	3959
10	1	1	2931	4	630	825	3959
11	1	1	1875	4	618	825	3959
12	1	1	1242	3	600	825	3960
13	1	1	683	4	586	825	3959
14	1	1	357	4	577	825	3959
15	1	1	171	4	573	825	3958
16	1	1	71	4	575	825	3959
17	1	1	19	4	578	825	3959
18	1	1	0	4	587	825	3958
19	1	1	270	5	595	825	3958
20	1	1	1286	5	607	825	3959
21	1	1	2322	5	620	825	3958
22	1	1	3000	5	634	825	3959
23	1	1	3418	5	647	825	3959
24	1	1	3660	5	653	826	3958
25	1	1	3798	4	658	825	3959
26	1	1	3876	5	660	825	3960
27	1	1	3916	5	656	825	3959
28	1	1	3938	5	650	825	3960
29	1	1	3891	5	642	825	3958
30	1	1	2979	4	631	825	3959
31	1	1	1925	4	619	825	3960
32	1	1	1304	4	600	825	3959
33	1	1	720	4	588	825	3960
34	1	1	376	6	577	825	3958
35	1	1	183	3	573	825	3958
36	1	1	78	4	574	825	3958
37	1	1	23	4	577	825	3959
38	1	1	0	4	586	825	3958
39	1	1	270	5	595	825	3958
40	1	1	1285	5	607	825	3958
41	1	1	2331	5	617	825	3959
42	1	1	3009	5	634	825	3960
43	1	1	3415	5	647	825	3959
44	1	1	3659	5	653	825	3960
45	1	1	3800	5	659	826	3959
46	1	1	3877	4	660	825	3959
47	1	1	3916	5	656	825	3959
48	1	1	3939	5	652	825	3959
49	1	1	3891	4	643	825	3959
50	1	1	2994	4	631	824	3959
51	1	1	1941	4	621	825	3958
52	1	1	1309	4	601	825	3959
53	1	1	724	4	587	824	3958
54	1	1	381	4	580	826	3958
55	1	1	186	3	572	825	3959
56	1	1	78	4	574	825	3960
57	1	1	23	4	578	825	3959
58	1	1	0	4	586	825	3959
59	1	1	273	5	598	825	3959
60	1	1	1295	5	607	825	3959
61	1	1	2299	5	619	826	3959
62	1	1	2988	5	634	825	3959
63	1	1	3408	5	647	825	3959
64	1	1	3654	5	656	825	3959
65	1	1	3797	5	659	826	3959
66	1	1	3875	5	660	825	3959
67	1	1	3918	5	658	825	3959
68	1	1	3936	5	650	825	3958
69	1	1	3903	4	642	825	3960
70	1	1	2991	3	633	825	3959
71	1	1	1936	4	621	825	3958
72	1	1	1301	4	602	825	3959
73	1	1	720	4	589	825	3958
74	1	1	376	4	579	824	3959
75	1	1	184	3	573	825	3959
76	1	1	78	4	574	825	3959
77	1	1	23	4	577	825	3959
78	1	1	0	4	586	824	3959
79	1	1	251	5	596	825	3958
80	1	1	1266	5	606	825	3959
81	1	1	2320	5	621	825	3960
82	1	1	3000	5	637	825	3959
83	1	1	3413	5	649	825	3960
84	1	1	3660	5	656	825	3958
85	1	1	3799	4	658	825	3958
86	1	1	3876	5	659	825	3959
87	1	1	3919	5	656	825	3960
88	1	1	3937	5	652	825	3958
89	1	1	3900	4	643	825	3958
90	1	1	3007	4	632	825	3959
91	1	1	1957	4	622	825	3958
92	1	1	1308	3	601	825	3959
93	1	1	725	4	589	825	3958
94	1	1	382	4	579	825	3959
95	1	1	186	4	573	825	3959
96	1	1	79	4	575	825	3959
97	1	1	24	4	578	825	3959
98	1	1	0	5	586	825	3959
99	1	1	233	5	595	824	3960
100	1	1	1210	5	607	825	3959
101	1	1	2220	5	618	825	3959
102	1	1	2948	5	635	825	3959
103	1	1	3381	5	646	825	3958
104	1	1	3637	5	653	826	3958
105	1	1	3788	5	658	825	3959
106	1	1	3871	5	659	825	3959
107	1	1	3914	5	657	825	3959
108	1	1	3937	5	652	825	3959
109	1	1	3913	4	644	824	3959
110	1	1	3017	4	632	825	3959
111	1	1	1972	3	622	825	3960
112	1	1	1338	4	601	825	3959
113	1	1	740	4	589	825	3959
114	1	1	391	4	580	825	3960
115	1	1	193	4	576	825	3959
116	1	1	85	4	575	825	3959
117	1	1	27	4	579	825	3959
118	1	1	0	4	586	825	3958
119	1	1	201	5	596	825	3960
120	1	1	1196	6	605	825	3958
121	1	1	2258	5	619	825	3959
122	1	1	2963	5	634	825	3959
123	1	1	3390	5	647	825	3958
124	1	1	3646	5	654	825	3959
125	1	1	3792	5	661	825	3959
126	1	1	3874	5	658	825	3959
127	1	1	3917	5	657	825	3959
0	1	1	3937	6	651	824	3959
1	1	1	3913	4	643	825	3959
2	1	1	3028	3	635	825	3958
3	1	1	1969	4	624	825	3959
4	1	1	1331	4	605	825	3959
5	1	1	744	5	588	825	3958
6	1	1	393	4	578	824	3960
7	1	1	194	4	575	825	3959
8	1	1	84	4	574	825	3959
9	1	1	27	4	580	825	3960
10	1	1	0	4	587	825	3958
11	1	1	206	5	596	825	3958
12	1	1	1126	5	606	825	3959
13	1	1	2180	5	617	825	3959
14	1	1	2916	5	634	825	3959
15	1	1	3368	5	648	825	3961
16	1	1	3631	5	655	825	3959
17	1	1	3784	5	659	825	3959
18	1	1	3870	5	661	825	3959
19	1	1	3915	5	658	825	3959
20	1	1	3938	6	651	825	3958
21	1	1	3925	4	644	824	3959
22	1	1	3044	3	635	825	3958
23	1	1	1999	4	624	825	3959
24	1	1	1367	3	605	825	3960
25	1	1	768	4	590	825	3958
26	1	1	404	4	582	824	3959
27	1	1	201	4	573	825	3958
28	1	1	89	4	574	825	3958
29	1	1	30	4	580	825	3959
30	1	1	1	4	588	825	3959
31	1	1	210	5	598	824	3959
32	1	1	1210	5	607	825	3959
33	1	1	2270	4	619	825	3959
34	1	1	2971	5	634	824	3959
35	1	1	3397	5	646	825	3960
36	1	1	3651	4	657	825	3958
37	1	1	3795	5	660	825	3958
38	1	1	3875	5	660	825	3959
39	1	1	3919	5	659	826	3960
40	1	1	3939	5	651	825	3958
41	1	1	3927	4	645	825	3958
42	1	1	3065	4	634	825	3958
43	1	1	2025	4	625	826	3959
44	1	1	1368	4	602	825	3959
45	1	1	768	4	589	825	3959
46	1	1	408	4	581	825	3958
47	1	1	202	3	576	824	3958
48	1	1	90	3	575	825	3959
49	1	1	30	4	581	825	3960
50	1	1	2	4	588	825	3959
51	1	1	181	5	598	824	3960
52	1	1	1117	5	608	825	3959
53	1	1	2191	5	619	825	3959
54	1	1	2932	5	636	825	3959
55	1	1	3371	5	646	825	3958
56	1	1	3635	5	658	825	3958
57	1	1	3787	5	660	825	3958
58	1	1	3872	5	662	826	3959
59	1	1	3916	5	659	825	3959
60	1	1	3941	5	654	825	3959
61	1	1	3929	5	644	824	3958
62	1	1	3044	4	635	825	3959
63	1	1	1993	4	625	825	3960
64	1	1	1340	4	605	825	3959
65	1	1	749	4	590	825	3959
66	1	1	397	4	582	825	3958
67	1	1	197	3	577	824	3959
68	1	1	87	4	576	825	3959
69	1	1	29	4	580	825	3959
70	1	1	1	4	589	825	3959
71	1	1	170	5	597	824	3958
72	1	1	1160	4	606	825	3959
73	1	1	2227	5	619	825	3958
74	1	1	2947	5	636	826	3959
75	1	1	3381	5	649	825	3958
76	1	1	3643	5	655	825	3959
77	1	1	3792	5	662	825	3959
78	1	1	3874	4	662	825	3959
79	1	1	3918	5	660	826	3959
80	1	1	3940	5	655	825	3958
81	1	1	3941	4	647	824	3959
82	1	1	3087	4	635	825	3959
83	1	1	2029	4	624	826	3959
84	1	1	1383	4	605	825	3959
85	1	1	784	4	590	825	3959
86	1	1	418	4	578	824	3959
87	1	1	207	3	577	825	3959
88	1	1	93	4	576	825	3959
89	1	1	33	4	580	825	3959
90	1	1	3	4	587	825	3959
91	1	1	93	5	598	825	3958
92	1	1	1086	5	610	825	3958
93	1	1	2171	5	620	825	3958
94	1	1	2922	4	638	825	3964
95	1	1	3366	5	647	825	3958
96	1	1	3632	5	657	825	3960
97	1	1	3786	5	661	825	3959
98	1	1	3871	5	662	825	3959
99	1	1	3919	5	660	825	3960
100	1	1	3940	5	654	825	3959
101	1	1	3935	4	645	825	3960
102	1	1	3077	4	636	825	3959
103	1	1	2034	4	625	825	3960
104	1	1	1369	4	606	825	3959
105	1	1	771	4	593	825	3960
106	1	1	410	5	583	825	3958
107	1	1	206	5	575	825	3958
108	1	1	92	4	577	825	3959
109	1	1	32	4	582	825	3960
110	1	1	4	4	589	825	3958
111	1	1	162	5	597	825	3958
112	1	1	1162	5	608	825	3958
113	1	1	2221	5	619	825	3958
114	1	1	2943	5	637	825	3959
115	1	1	3380	5	649	825	3959
116	1	1	3643	5	658	825	3959
117	1	1	3791	5	661	825	3959
118	1	1	3875	4	662	825	3959
119	1	1	3919	5	660	825	3959
120	1	1	3941	5	657	825	3959
121	1	1	3951	4	646	825	3959
122	1	1	3101	5	636	825	3958
123	1	1	2048	3	628	825	3958
124	1	1	1384	4	606	825	3959
125	1	1	787	4	592	825	3958
126	1	1	420	4	583	825	3958
127	1	1	209	4	578	825	3959
0	1	1	95	4	577	825	3959
1	1	1	34	4	580	825	3959
2	1	1	4	4	588	825	3959
3	1	1	105	5	599	824	3960
4	1	1	1105	5	608	825	3959
5	1	1	2183	5	620	825	3959
6	1	1	2930	5	639	825	3960
7	1	1	3370	5	650	825	3959
8	1	1	3634	5	656	825	3958
9	1	1	3788	6	662	825	3959
10	1	1	3873	4	663	825	3958
11	1	1	3917	5	662	825	3959
12	1	1	3941	5	656	825	3958
13	1	1	3950	4	647	825	3958
14	1	1	3099	4	637	825	3958
15	1	1	2064	4	627	825	3959
16	1	1	1394	4	607	825	3959
17	1	1	792	4	593	825	3960
18	1	1	424	6	584	825	3958
19	1	1	213	5	577	825	3959
20	1	1	96	4	578	825	3960
21	1	1	35	4	582	825	3959
22	1	1	5	4	591	825	3960
23	1	1	186	5	598	825	3959
24	1	1	1193	5	609	824	3959
25	1	1	2247	5	621	825	3959
26	1	1	2959	5	638	825	3959
27	1	1	3389	5	649	825	3958
28	1	1	3647	5	658	825	3958
29	1	1	3795	4	662	826	3958
30	1	1	3875	5	664	825	3959
31	1	1	3920	5	660	825	3959
32	1	1	3941	5	655	825	3958
33	1	1	3950	4	647	825	3958
34	1	1	3097	3	637	825	3958
35	1	1	2043	4	627	825	3959
36	1	1	1362	3	608	825	3960
37	1	1	775	4	593	825	3958
38	1	1	409	4	586	824	3960
39	1	1	205	4	578	825	3959
40	1	1	92	4	579	824	3959
41	1	1	33	4	582	825	3960
42	1	1	4	4	588	825	3958
43	1	1	101	5	598	825	3958
44	1	1	1091	6	609	825	3958
45	1	1	2161	5	621	825	3958
46	1	1	2915	5	637	825	3959
47	1	1	3364	5	650	824	3958
48	1	1	3630	5	657	825	3958
49	1	1	3787	4	661	825	3958
50	1	1	3872	5	664	826	3958
51	1	1	3918	5	662	825	3959
52	1	1	3940	5	655	825	3958
53	1	1	3951	4	647	825	3960
54	1	1	3121	4	638	825	3960
55	1	1	2075	4	628	825	3959
56	1	1	1352	4	610	825	3960
57	1	1	753	4	594	825	3958
58	1	1	401	4	584	825	3958
59	1	1	201	5	578	825	3958
60	1	1	88	4	578	825	3958
61	1	1	32	4	582	824	3959
62	1	1	4	4	590	825	3958
63	1	1	134	4	598	825	3958
64	1	1	1123	6	609	825	3959
65	1	1	2184	5	620	825	3959
66	1	1	2921	5	635	825	3958
67	1	1	3371	4	651	825	3959
68	1	1	3636	5	660	826	3958
69	1	1	3788	5	663	825	3958
70	1	1	3874	5	664	825	3958
71	1	1	3919	5	662	825	3959
72	1	1	3943	5	657	825	3959
73	1	1	3952	4	647	825	3959
74	1	1	3140	4	638	825	3959
75	1	1	2089	3	628	825	3959
76	1	1	1385	4	607	825	3959
77	1	1	794	4	593	825	3958
78	1	1	421	4	583	824	3959
79	1	1	212	4	578	825	3958
80	1	1	97	4	579	825	3958
81	1	1	36	4	582	825	3959
82	1	1	6	4	590	825	3958
83	1	1	83	5	599	825	3958
84	1	1	1045	5	609	824	3958
85	1	1	2126	5	620	825	3958
86	1	1	2887	5	636	825	3959
87	1	1	3347	5	648	825	3958
88	1	1	3622	4	656	825	3958
89	1	1	3783	5	664	825	3959
90	1	1	3871	4	665	825	3960
91	1	1	3917	5	663	824	3959
92	1	1	3943	5	657	825	3960
93	1	1	3953	4	648	826	3959
94	1	1	3124	4	638	825	3958
95	1	1	2085	4	629	825	3958
96	1	1	1368	4	609	825	3959
97	1	1	784	4	595	825	3958
98	1	1	419	4	586	825	3958
99	1	1	211	4	577	825	3958
100	1	1	96	4	578	825	3958
101	1	1	36	4	584	824	3959
102	1	1	6	4	589	825	3959
103	1	1	90	5	599	825	3960
104	1	1	1052	5	610	825	3960
105	1	1	2110	5	621	825	3959
106	1	1	2878	5	638	825	3959
107	1	1	3347	5	649	825	3960
108	1	1	3623	7	659	825	3958
109	1	1	3781	5	663	825	3958
110	1	1	3871	5	665	825	3958
111	1	1	3918	5	662	825	3959
112	1	1	3943	5	657	825	3958
113	1	1	3953	4	649	825	3960
114	1	1	3118	4	640	825	3958
115	1	1	2088	4	630	825	3958
116	1	1	1381	4	610	824	3959
117	1	1	790	4	594	825	3958
118	1	1	422	3	584	824	3958
119	1	1	213	4	581	824	3959
120	1	1	99	4	578	825	3960
121	1	1	37	4	583	824	3959
122	1	1	7	4	590	825	3958
123	1	1	115	5	600	825	3959
124	1	1	1090	5	610	825	3959
125	1	1	2154	5	621	825	3958
126	1	1	2906	5	638	825	3959
127	1	1	3359	5	651	825	3958
0	1	1	3632	5	658	825	3958
1	1	1	3788	5	665	825	3958
2	1	1	3874	5	665	825	3958
3	1	1	3920	5	662	825	3959
4	1	1	3944	5	658	825	3958
5	1	1	3955	5	650	825	3958
6	1	1	3184	4	641	825	3959
7	1	1	2151	3	629	825	3959
8	1	1	1433	4	612	824	3959
9	1	1	831	4	597	825	3958
10	1	1	447	4	587	825	3960
11	1	1	225	4	581	825	3959
12	1	1	104	4	579	825	3959
13	1	1	41	4	584	825	3959
14	1	1	10	4	592	825	3959
15	1	1	111	5	600	825	3958
16	1	1	1073	6	612	824	3958
17	1	1	2130	5	622	825	3958
18	1	1	2897	5	639	824	3959
19	1	1	3353	5	652	826	3959
20	1	1	3627	5	659	826	3958
21	1	1	3783	5	665	825	3959
22	1	1	3875	5	667	825	3959
23	1	1	3918	5	664	825	3959
24	1	1	3943	4	659	825	3960
25	1	1	3955	4	651	824	3959
26	1	1	3156	4	640	825	3959
27	1	1	2129	4	630	825	3959
28	1	1	1414	4	612	824	3959
29	1	1	818	4	595	825	3958
30	1	1	439	4	587	825	3958
31	1	1	223	4	582	825	3958
32	1	1	104	4	582	825	3958
33	1	1	40	4	584	824	3959
34	1	1	9	4	590	825	3958
35	1	1	86	5	602	825	3958
36	1	1	1059	5	612	825	3956
37	1	1	2103	5	621	825	3958
38	1	0	2875	5	637	825	3959
39	1	0	3341	4	653	825	3959
40	1	0	3622	5	661	825	3958
41	1	0	3781	5	665	825	3959
42	1	0	3872	5	666	825	3959
43	1	0	3918	5	664	824	3959
44	1	0	3944	4	658	825	3960
45	1	0	3955	4	649	825	3958
46	1	0	3177	4	641	825	3959
47	1	0	2142	4	630	825	3959
48	1	0	1415	4	611	825	3959
49	1	0	830	3	598	824	3958
50	1	0	446	4	587	826	3958
51	1	0	225	4	581	825	3958
52	1	0	105	4	582	825	3958
53	1	0	41	4	584	824	3959
54	1	0	10	4	591	825	3958
55	1	0	115	5	601	825	3958
56	1	0	1076	5	612	825	3958
57	1	0	2137	5	623	825	3958
58	1	0	2902	5	638	825	3959
59	1	0	3356	5	650	825	3958
60	1	0	3628	5	659	825	3960
61	1	0	3786	5	667	825	3959
62	1	0	3872	5	667	825	3959
63	1	0	3921	5	665	826	3960
64	1	0	3943	5	659	825	3958
65	1	0	3955	5	652	825	3959
66	1	0	3190	4	641	825	3959
67	1	0	2165	4	630	825	3959
68	1	0	1427	4	611	824	3959
69	1	0	830	3	597	825	3959
70	1	0	446	4	588	825	3958
71	1	0	227	4	581	825	3958
72	1	0	105	4	581	825	3958
73	1	0	41	4	586	824	3959
74	1	0	9	4	592	825	3958
75	1	0	78	5	601	825	3959
76	1	0	1030	5	611	825	3958
77	1	0	2131	5	622	825	3959
78	1	0	2891	5	639	824	3959
79	1	0	3350	5	652	825	3958
80	1	0	3627	5	657	825	3958
81	1	0	3784	5	665	825	3958
82	1	0	3871	5	665	825	3958
83	1	0	3920	5	662	825	3959
84	1	0	3945	4	659	825	3959
85	1	0	3955	5	652	826	3958
86	1	0	3185	5	641	825	3958
87	1	0	2142	4	630	825	3958
88	1	0	1400	4	612	825	3959
89	1	0	821	4	598	824	3958
90	1	0	440	4	588	825	3959
91	1	0	221	4	580	825	3959
92	1	0	103	5	581	824	3958
93	1	0	40	4	586	825	3959
94	1	0	9	4	590	825	3959
95	1	0	77	5	600	824	3959
96	1	0	1017	5	609	825	3958
97	1	0	2081	4	620	825	3959
98	1	0	2869	5	639	824	3959
99	1	0	3336	5	652	825	3958
100	1	0	3615	5	660	825	3958
101	1	0	3780	5	663	825	3958
102	1	0	3868	5	666	825	3958
103	1	0	3918	5	664	825	3958
104	1	0	3942	5	660	824	3958
105	1	0	3953	5	651	825	3958
106	1	0	3211	4	641	825	3959
107	1	0	2184	4	632	825	3959
108	1	0	1422	4	612	824	3959
109	1	0	837	3	599	825	3959
110	0	0	449	4	587	825	3958
111	0	0	228	4	580	825	3958
112	0	0	106	4	580	825	3958
113	0	0	43	4	584	825	3959
114	0	0	11	4	592	825	3958
115	0	0	70	5	600	824	3958
116	0	0	1010	5	612	825	3958
117	0	0	2144	4	622	825	3959
118	0	0	2906	5	637	825	3958
119	0	0	3360	5	651	825	3958
120	0	0	3628	5	660	825	3958
121	0	0	3785	5	665	825	3959
122	0	0	3875	4	665	825	3959
123	0	0	3920	5	665	825	3959
124	0	0	3945	4	661	825	3959
125	0	0	3955	4	653	826	3959
126	0	0	3214	4	642	825	3959
127	0	0	2188	4	631	825	3960
0	0	0	1423	4	612	825	3959
1	0	0	833	3	595	825	3959
2	0	0	448	4	585	826	3959
3	0	0	228	4	578	825	3958
4	0	0	106	4	579	825	3959
5	0	0	42	4	583	824	3958
6	0	0	9	4	590	825	3959
7	0	0	36	6	599	825	3958
8	0	0	957	5	609	825	3958
9	0	0	2016	5	620	825	3959
10	0	0	2822	5	635	825	3959
11	0	0	3310	4	649	825	3959
12	0	0	3603	7	656	825	3958
13	0	0	3771	5	661	825	3958
14	0	0	3864	5	665	825	3958
15	0	0	3916	5	663	825	3959
16	0	0	3942	4	658	825	3958
17	0	0	3954	5	649	825	3958
18	0	0	3177	5	639	825	3958
19	0	0	2136	3	628	825	3959
20	0	0	1359	4	611	825	3959
21	0	0	800	4	596	825	3958
22	0	0	430	4	584	824	3959
23	0	0	216	4	578	825	3959
24	0	0	101	5	577	825	3958
25	0	0	39	4	582	825	3959
26	0	0	9	4	589	825	3958
27	0	0	0	5	596	825	3958
28	0	0	952	5	606	825	3958
29	0	0	2033	6	618	825	3958
30	0	0	2842	5	634	825	3959
31	0	0	3321	5	648	825	3958
32	0	0	3608	5	655	825	3958
33	0	0	3776	5	660	826	3958
34	0	0	3868	5	664	825	3959
35	0	0	3918	5	660	825	3959
36	0	0	3943	5	657	825	3958
37	0	0	3956	5	649	825	3958
38	0	0	3194	4	637	825	3958
39	0	0	2159	3	628	825	3959
40	0	0	1350	4	610	825	3958
41	0	0	787	3	593	825	3959
42	0	0	421	4	584	825	3958
43	0	0	215	4	578	825	3958
44	0	0	100	4	577	825	3959
45	0	0	40	4	580	824	3959
46	0	0	11	3	587	826	3958
47	0	0	0	6	596	825	3958
48	0	0	876	6	606	825	3958
49	0	0	1920	6	617	825	3959
50	0	0	2766	5	633	825	3959
51	0	0	3276	5	646	825	3958
52	0	0	3585	5	655	825	3960
53	0	0	3764	5	661	825	3960
54	0	0	3861	5	662	825	3959
55	0	0	3917	5	661	825	3959
56	0	0	3944	4	655	825	3958
57	0	0	3957	5	647	825	3958
58	0	0	3198	4	635	826	3958
59	0	0	2156	4	628	825	3958
60	0	0	1346	4	609	825	3959
61	0	0	796	3	593	825	3958
62	0	0	425	4	584	825	3958
63	0	0	218	4	578	825	3958
64	0	0	104	4	575	825	3960
65	0	0	43	4	580	825	3959
66	0	0	14	3	585	825	3960
67	0	0	0	4	594	824	3958
68	0	0	885	5	604	825	3959
69	0	0	1901	5	613	825	3959
70	0	0	2746	5	631	825	3959
71	0	0	3261	5	644	825	3958
72	0	0	3574	5	653	825	3958
73	0	0	3759	5	658	825	3958
74	0	0	3861	5	660	825	3958
75	0	0	3917	5	659	825	3958
76	0	0	3946	5	653	825	3958
77	0	0	3959	4	645	825	3958
78	0	0	3155	4	636	825	3959
79	0	0	2116	4	626	825	3959
80	0	0	1271	4	609	825	3960
81	0	0	736	4	592	825	3958
82	0	0	396	4	583	825	3959
83	0	0	202	4	574	825	3959
84	0	0	97	4	574	825	3959
85	0	0	40	4	577	824	3959
86	0	0	14	4	582	825	3958
87	0	0	2	5	590	825	3958
88	0	0	761	5	600	825	3959
89	0	0	1787	5	613	825	3959
90	0	0	2635	5	628	825	3959
91	0	0	3193	5	642	825	3958
92	0	0	3538	5	649	825	3959
93	0	0	3740	5	653	825	3958
94	0	0	3851	5	657	825	3959
95	0	0	3916	4	653	825	3959
96	0	0	3947	5	650	825	3958
97	0	0	3962	4	643	825	3958
98	0	0	3157	4	633	824	3958
99	0	0	2118	4	623	825	3959
100	0	0	1290	4	606	825	3959
101	0	0	757	4	591	825	3958
102	0	0	410	4	580	825	3958
103	0	0	212	4	574	824	3959
104	0	0	104	4	571	825	3958
105	0	0	47	4	576	824	3959
106	0	0	20	4	583	824	3958
107	0	0	33	5	592	824	3958
108	0	0	889	5	601	824	3958
109	0	0	1896	5	613	825	3958
110	0	0	2760	5	629	825	3958
111	0	0	3275	5	641	825	3958
112	0	0	3587	5	649	825	3959
113	0	0	3769	5	655	825	3959
114	0	0	3871	5	658	825	3959
115	0	0	3928	5	657	825	3960
116	0	0	3955	5	652	825	3959
117	0	0	3968	5	644	825	3960
118	0	0	3204	4	634	825	3960
119	0	0	2171	3	626	825	3959
120	0	0	1317	4	609	825	3959
121	0	0	772	4	592	824	3958
122	0	0	420	5	581	825	3959
123	0	0	220	4	576	825	3958
124	0	0	109	4	574	825	3959
125	0	0	52	4	578	825	3959
126	0	0	23	4	584	824	3958
127	0	0	10	4	594	825	3958
0	0	0	778	5	601	825	3958
1	0	0	1817	5	615	825	3959
2	0	0	2709	5	630	825	3958
3	0	0	3246	5	643	825	3958
4	0	0	3573	5	653	825	3958
5	0	0	3763	5	659	825	3959
6	0	0	3870	5	661	825	3960
7	0	0	3926	5	659	825	3959
8	0	0	3958	4	655	825	3960
9	0	0	3972	5	647	825	3958
10	0	0	3278	4	638	825	3958
11	0	0	2252	3	629	825	3958
12	0	0	1404	4	611	825	3958
13	0	0	846	4	594	826	3958
14	0	0	460	4	585	825	3958
15	0	0	244	4	579	824	3958
16	0	0	124	3	579	825	3958
17	0	0	61	4	581	825	3959
18	0	0	30	5	589	825	3958
19	0	0	29	5	596	824	3959
20	0	0	870	5	608	825	3959
21	0	0	1877	4	618	825	3959
22	0	0	2752	5	635	825	3959
23	0	0	3275	5	649	825	3959
24	0	0	3588	5	658	825	3958
25	0	0	3772	5	661	825	3958
26	0	0	3874	5	662	825	3958
27	0	0	3930	5	663	825	3958
28	0	0	3959	5	656	825	3958
29	0	0	3972	5	649	825	3958
30	0	0	3264	5	640	824	3958
31	0	0	2240	3	630	825	3959
32	0	0	1370	4	615	825	3960
33	0	0	819	4	596	825	3958
34	0	0	449	4	586	825	3959
35	0	0	238	4	581	825	3959
36	0	0	120	3	577	824	3959
37	0	0	60	4	583	825	3960
38	0	0	30	4	586	825	3958
39	0	0	15	4	596	825	3959
40	0	0	731	5	605	825	3958
41	0	0	1728	5	616	825	3958
42	0	0	2586	5	632	825	3959
43	0	0	3161	5	644	826	3959
44	0	0	3521	5	655	825	3959
45	0	0	3734	5	658	825	3959
46	0	0	3854	5	659	825	3959
47	0	0	3921	5	660	825	3959
48	0	0	3956	5	654	825	3958
49	0	0	3972	4	649	825	3958
50	0	0	3205	4	638	825	3958
51	0	0	2189	3	629	825	3959
52	0	0	1331	4	611	825	3958
53	0	0	812	4	596	825	3960
54	0	0	443	4	583	825	3958
55	0	0	237	4	579	825	3959
56	0	0	123	4	578	825	3959
57	0	0	63	4	583	825	3960
58	0	0	33	4	589	825	3958
59	0	0	20	5	599	825	3958
60	0	0	849	5	609	824	3958
61	0	0	1865	4	619	825	3958
62	0	0	2747	5	635	825	3958
63	0	0	3274	5	648	825	3958
64	0	0	3591	5	657	825	3959
65	0	0	3776	5	661	825	3959
66	0	0	3880	4	665	825	3959
67	0	0	3938	5	666	825	3959
68	0	0	3965	6	660	825	3958
69	0	0	3978	5	652	826	3959
70	0	0	3354	4	644	825	3958
71	0	0	2363	4	636	825	3958
72	0	0	1513	4	618	825	3959
73	0	0	939	4	604	825	3958
74	0	0	521	4	593	824	3958
75	0	0	281	4	585	825	3958
76	0	0	147	4	584	825	3958
77	0	0	75	4	589	825	3958
78	0	0	40	4	595	825	3958
79	0	0	24	6	605	825	3958
80	0	0	896	5	615	825	3958
81	0	0	1942	5	627	825	3959
82	0	0	2790	5	641	825	3959
83	0	0	3298	5	655	825	3959
84	0	0	3608	4	665	825	3958
85	0	0	3784	5	668	825	3958
86	0	0	3885	5	673	825	3959
87	0	0	3937	5	672	824	3958
88	0	0	3966	5	670	825	3959
89	0	0	3980	5	663	825	3958
90	0	0	3477	4	652	825	3958
91	0	0	2494	4	643	825	3959
92	0	0	1663	4	623	825	3959
93	0	0	1044	4	610	825	3959
94	0	0	576	4	600	825	3958
95	0	0	311	4	593	825	3958
96	0	0	163	3	590	825	3959
97	0	0	83	4	594	825	3958
98	0	0	42	4	601	825	3958
99	0	0	46	5	610	825	3958
100	0	0	926	5	620	825	3959
101	0	0	1968	3	631	825	3959
102	0	0	2811	5	645	825	3959
103	0	0	3311	5	659	825	3958
104	0	0	3610	5	670	826	3958
105	0	0	3786	5	675	825	3959
106	0	0	3882	5	678	825	3959
107	0	0	3937	5	676	825	3960
108	0	0	3964	4	673	825	3958
109	0	0	3974	5	663	825	3958
110	0	0	3505	4	656	825	3958
111	0	0	2533	3	646	825	3958
112	0	0	1686	4	629	825	3958
113	0	0	1070	4	614	825	3958
114	0	0	594	4	605	825	3958
115	0	0	319	4	598	825	3958
116	0	0	164	4	594	825	3958
117	0	0	82	4	598	825	3958
118	0	0	40	4	603	825	3958
119	0	0	21	5	612	825	3959
120	0	0	909	5	622	825	3958
121	0	0	1961	5	634	825	3960
122	0	0	2799	5	649	825	3959
123	0	0	3305	5	661	825	3958
124	0	0	3605	5	670	825	3958
125	0	0	3780	5	677	825	3958
126	0	0	3877	4	679	825	3958
127	0	0	3931	5	680	825	3959
0	0	0	3958	5	674	825	3958
1	0	0	3971	5	668	826	3958
2	0	0	3539	4	658	825	3958
3	0	0	2573	3	648	825	3958
4	0	0	1733	4	631	825	3958
5	0	0	1080	4	614	825	3958
6	0	0	592	4	606	825	3958
7	0	0	316	4	599	825	3958
8	0	0	162	4	596	825	3959
9	0	0	78	4	600	825	3959
10	0	0	35	4	605	825	3958
11	0	0	40	5	614	825	3960
12	0	0	912	5	623	825	3960
13	0	0	1959	5	633	825	3958
14	0	0	2793	5	649	825	3958
15	0	0	3297	5	662	825	3959
16	0	0	3599	5	671	825	3958
17	0	0	3775	5	677	825	3958
18	0	0	3875	5	681	825	3959
19	0	0	3926	5	679	825	3958
20	0	0	3954	5	673	825	3959
21	0	0	3967	5	666	825	3958
22	0	0	3510	4	657	825	3958
23	0	0	2550	4	647	825	3959
24	0	0	1702	4	630	825	3958
25	0	0	1090	4	616	825	3958
26	0	0	601	4	605	825	3959
27	0	0	321	4	598	825	3959
28	0	0	160	3	594	825	3959
29	0	0	76	4	597	825	3958
30	0	0	32	5	604	825	3958
31	0	0	26	5	613	824	3959
32	0	0	921	5	623	825	3958
33	0	0	1973	5	634	825	3959
34	0	0	2800	5	647	825	3958
35	0	0	3303	5	663	825	3959
36	0	0	3602	5	672	825	3958
37	0	0	3773	5	676	825	3958
38	0	0	3871	5	681	826	3959
39	0	0	3922	5	679	825	3958
40	0	0	3948	4	674	825	3958
41	0	0	3962	5	667	824	3959
42	0	0	3510	3	657	825	3958
43	0	0	2544	4	647	825	3959
44	0	0	1631	4	631	825	3958
45	0	0	1012	4	615	825	3958
46	0	0	550	4	605	825	3959
47	0	0	289	4	597	825	3959
48	0	0	142	4	593	825	3959
49	0	0	64	4	597	825	3958
50	0	0	26	4	603	825	3958
51	0	0	19	5	613	825	3958
52	0	0	906	5	622	825	3959
53	0	0	1946	4	633	825	3958
54	0	0	2784	5	648	825	3958
55	0	0	3293	5	663	825	3959
56	0	0	3593	5	670	825	3958
57	0	0	3767	5	675	825	3958
58	0	0	3866	5	678	825	3959
59	0	0	3918	5	678	825	3958
60	0	0	3946	5	674	825	3959
61	0	0	3959	5	669	825	3959
62	0	0	3510	4	657	825	3958
63	0	0	2551	4	647	825	3959
64	0	0	1695	4	631	825	3958
65	0	0	1082	4	614	825	3958
66	0	0	589	4	603	825	3958
67	0	0	310	4	598	825	3958
68	0	0	153	4	593	825	3958
69	0	0	69	4	595	825	3958
70	0	0	25	4	602	825	3959
71	0	0	4	4	611	826	3958
72	0	0	784	5	621	825	3958
73	0	0	1847	4	631	825	3959
74	0	0	2724	5	646	825	3959
75	0	0	3249	5	660	825	3958
76	0	0	3565	5	671	825	3959
77	0	0	3753	5	678	825	3958
78	0	0	3855	5	679	825	3958
79	0	0	3912	5	677	825	3958
80	0	0	3941	5	675	825	3958
81	0	0	3955	5	666	825	3958
82	0	0	3523	4	655	825	3958
83	0	0	2550	4	646	825	3959
84	0	0	1566	4	630	825	3958
85	0	0	1001	3	613	824	3958
86	0	0	547	4	603	824	3959
87	0	0	284	3	593	825	3957
88	0	0	137	4	591	825	3959
89	0	0	59	4	596	825	3958
90	0	0	19	4	601	825	3958
91	0	0	1	4	612	825	3958
92	0	0	766	5	625	825	3958
93	0	0	1900	5	638	825	3958
94	0	0	2755	5	653	825	3959
95	0	0	3274	5	673	825	3958
96	0	0	3578	4	679	825	3958
97	0	0	3759	5	690	825	3959
98	0	0	3858	5	690	825	3959
99	0	0	3913	5	690	825	3958
100	0	0	3942	5	684	825	3959
101	0	0	3956	5	675	825	3958
102	0	0	3694	4	663	825	3958
103	0	0	2640	4	651	825	3959
104	0	0	1622	4	632	825	3958
105	0	0	1057	3	613	825	3959
106	0	0	574	4	601	825	3958
107	0	0	299	4	594	824	3958
108	0	0	145	4	589	825	3959
109	0	0	62	4	593	825	3958
110	0	0	20	4	601	825	3958
111	0	0	0	4	612	825	3958
112	0	0	675	5	625	824	3958
113	0	0	1849	5	635	825	3958
114	0	0	2723	5	655	825	3958
115	0	0	3249	5	671	825	3958
116	0	0	3564	5	679	825	3958
117	0	0	3751	5	688	825	3959
118	0	0	3852	5	689	825	3958
119	0	0	3908	5	688	825	3958
120	0	0	3939	5	680	825	3959
121	0	0	3953	5	674	824	3958
122	0	0	3683	4	660	825	3958
123	0	0	2597	4	648	825	3959
124	0	0	1528	4	631	825	3958
125	0	0	990	4	611	825	3958
126	0	0	538	4	599	825	3959
127	0	0	278	4	593	825	3959
0	0	0	131	4	588	825	3959
1	0	0	54	4	593	825	3959
2	0	0	17	4	600	825	3958
3	0	0	0	4	611	824	3959
4	0	0	671	4	623	825	3959
5	0	0	1824	5	636	825	3958
6	0	0	2708	5	653	825	3958
7	0	0	3244	5	667	825	3958
8	0	0	3561	6	679	825	3958
9	0	0	3746	5	685	825	3958
10	0	0	3851	5	689	826	3958
11	0	0	3907	5	686	825	3958
12	0	0	3936	5	680	825	3958
13	0	0	3949	4	671	825	3958
14	0	0	3696	4	660	825	3959
15	0	0	2639	4	650	825	3960
16	0	0	1603	4	630	825	3958
17	0	0	1052	4	611	825	3959
18	0	0	570	4	596	824	3958
19	0	0	295	4	590	825	3958
20	0	0	142	4	588	825	3958
21	0	0	59	4	591	825	3958
22	0	0	17	4	599	825	3958
23	0	0	0	5	609	824	3958
24	0	0	623	5	621	825	3958
25	0	0	1793	5	635	825	3958
26	0	0	2691	5	650	825	3959
27	0	0	3228	4	668	825	3958
28	0	0	3552	5	679	825	3959
29	0	0	3742	5	685	826	3959
30	0	0	3846	5	689	825	3959
31	0	0	3904	5	687	825	3958
32	0	0	3935	5	682	825	3958
33	0	0	3949	5	672	825	3959
34	0	0	3723	4	663	825	3958
35	0	0	2590	4	650	825	3959
36	0	0	1568	4	631	825	3958
37	0	0	1021	4	612	825	3958
38	0	0	552	3	599	825	3957
39	0	0	284	4	590	824	3958
40	0	0	136	4	589	825	3959
41	0	0	55	4	592	825	3958
42	0	0	14	4	600	825	3958
43	0	0	0	4	610	825	3959
44	0	0	653	5	624	825	3959
45	0	0	1826	5	636	825	3958
46	0	0	2709	5	653	824	3958
47	0	0	3238	5	671	825	3958
48	0	0	3555	4	681	825	3958
49	0	0	3744	5	688	825	3959
50	0	0	3850	5	690	825	3959
51	0	0	3905	5	689	825	3959
52	0	0	3934	4	684	825	3958
53	0	0	3948	6	675	824	3958
54	0	0	3726	4	663	825	3958
55	0	0	2677	4	652	825	3958
56	0	0	1636	4	632	825	3959
57	0	0	1063	4	611	825	3958
58	0	0	578	4	600	825	3958
59	0	0	297	4	592	824	3958
60	0	0	142	4	589	825	3958
61	0	0	58	4	593	825	3958
62	0	0	15	4	602	825	3959
63	0	0	0	4	611	824	3958
64	0	0	653	5	624	825	3958
65	0	0	1815	5	634	825	3959
66	0	0	2702	5	654	825	3959
67	0	0	3238	5	668	825	3958
68	0	0	3554	5	680	825	3958
69	0	0	3741	5	689	825	3958
70	0	0	3846	5	691	825	3958
71	0	0	3903	5	689	825	3958
72	0	0	3932	5	683	825	3958
73	0	0	3945	4	673	825	3958
74	0	0	3647	4	662	825	3958
75	0	0	2544	4	649	825	3958
76	0	0	1491	4	632	825	3959
77	0	0	971	3	613	825	3958
78	0	0	524	4	602	825	3958
79	0	0	269	3	591	825	3959
80	0	0	125	4	588	825	3958
81	0	0	48	4	592	825	3959
82	0	0	8	5	600	825	3958
83	0	0	0	4	611	825	3958
84	0	0	594	5	623	825	3958
85	0	0	1767	5	635	825	3959
86	0	0	2673	5	652	825	3958
87	0	0	3216	5	669	825	3959
88	0	0	3544	5	680	825	3958
89	0	0	3737	5	688	826	3959
90	0	0	3843	5	692	825	3958
91	0	0	3901	5	688	825	3959
92	0	0	3932	5	684	825	3958
93	0	0	3945	4	674	825	3958
94	0	0	3735	4	663	825	3958
95	0	0	2677	4	651	825	3958
96	0	0	1598	4	633	825	3958
97	0	0	1038	4	613	825	3959
98	0	0	564	4	601	826	3958
99	0	0	288	4	594	825	3959
100	0	0	136	4	588	825	3959
101	0	0	54	4	591	825	3959
102	0	0	12	4	602	825	3958
103	0	0	0	5	611	825	3958
104	0	0	553	5	622	825	3958
105	0	0	1717	5	634	825	3958
106	0	0	2651	5	652	825	3958
107	0	0	3203	5	668	825	3958
108	0	0	3534	5	681	826	3958
109	0	0	3730	4	688	826	3959
110	0	0	3839	5	690	826	3958
111	0	0	3899	5	689	825	3959
112	0	0	3931	5	681	825	3959
113	0	0	3946	5	675	825	3958
114	0	0	3639	4	663	825	3958
115	0	0	2586	4	652	825	3959
116	0	0	1533	4	633	825	3959
117	0	0	1004	4	612	825	3959
118	0	0	544	3	599	825	3958
119	0	0	280	4	592	825	3958
120	0	0	132	4	589	825	3958
121	0	0	52	4	593	825	3958
