# bioPlux Text File Format
# Version: 1
# StartDateTime: 2011-07-18 11:17:55
# SamplingFrequency: 1000
# SampledChannels: 1 2 3 4
# SamplingResolution: 12
# AcquiringDevice: 00:07:80:42:0F:8B
# EndOfHeader
0	0	0	2083	1183	1460	31
1	0	0	2087	1185	1458	31
2	0	0	2083	1183	1462	31
3	0	0	2079	1184	1469	32
4	0	0	2076	1184	1477	31
5	0	0	2076	1183	1484	31
6	0	0	2075	1184	1485	33
7	0	0	2074	1183	1485	31
8	0	0	2076	1184	1480	32
9	0	0	2078	1184	1468	32
10	0	0	2079	1183	1461	31
11	0	0	2081	1185	1457	31
12	0	0	2083	1183	1462	32
13	0	0	2082	1184	1468	32
14	0	0	2084	1184	1476	31
15	0	0	2088	1185	1483	32
16	0	0	2106	1184	1485	33
17	0	0	2104	1185	1485	32
18	0	0	2103	1184	1480	32
19	0	0	2111	1183	1468	31
20	0	0	2114	1183	1459	29
21	0	0	2114	1184	1458	28
22	0	0	2111	1184	1461	31
23	0	0	2113	1184	1468	31
24	0	0	2113	1184	1475	31
25	0	0	2115	1182	1481	32
26	0	0	2115	1183	1484	32
27	0	0	2106	1183	1485	32
28	0	0	2095	1184	1479	31
29	0	0	2092	1183	1467	31
30	0	0	2094	1183	1459	30
31	0	0	2084	1184	1459	31
32	0	0	2083	1181	1461	31
33	0	0	2104	1184	1468	32
34	0	0	2122	1183	1476	31
35	0	0	2117	1184	1483	31
36	0	0	2118	1183	1486	32
37	0	0	2137	1183	1483	31
38	0	0	2145	1183	1479	31
39	0	0	2148	1183	1467	31
40	0	0	2153	1184	1457	30
41	0	0	2149	1185	1456	30
42	0	0	2140	1183	1461	31
43	0	0	2138	1183	1468	31
44	0	0	2137	1183	1475	30
45	0	0	2133	1183	1482	31
46	0	0	2130	1183	1484	31
47	0	0	2127	1183	1484	31
48	0	0	2128	1182	1479	31
49	0	0	2125	1183	1466	31
50	0	0	2119	1182	1460	30
51	0	0	2122	1184	1456	30
52	0	0	2124	1183	1460	31
53	0	0	2130	1183	1467	31
54	0	0	2134	1183	1475	31
55	0	0	2142	1183	1481	31
56	0	0	2160	1183	1484	31
57	0	0	2172	1181	1483	31
58	0	0	2177	1183	1479	31
59	0	0	2188	1183	1466	31
60	0	0	2195	1185	1457	30
61	0	0	2186	1182	1456	31
62	0	0	2174	1183	1461	30
63	0	0	2168	1182	1468	31
64	0	0	2151	1184	1475	31
65	0	0	2139	1182	1480	31
66	0	0	2130	1183	1484	31
67	0	0	2124	1180	1483	31
68	0	0	2116	1183	1478	31
69	0	0	2100	1183	1465	31
70	0	0	2102	1183	1458	31
71	0	0	2106	1183	1458	31
72	0	0	2118	1181	1460	31
73	0	0	2129	1183	1467	31
74	0	0	2142	1185	1473	30
75	0	0	2153	1182	1480	31
76	0	0	2162	1182	1484	32
77	0	0	2169	1183	1483	31
78	0	0	2173	1183	1477	31
79	0	0	2186	1183	1466	31
80	0	0	2194	1183	1458	29
81	0	0	2182	1182	1457	31
82	0	0	2169	1181	1459	30
83	0	0	2162	1180	1466	32
84	0	0	2155	1183	1472	30
85	0	0	2153	1184	1478	32
86	0	0	2139	1182	1484	32
87	0	0	2133	1182	1482	32
88	0	0	2136	1182	1476	31
89	0	0	2139	1183	1465	31
90	0	0	2138	1183	1457	28
91	0	0	2144	1182	1458	32
92	0	0	2158	1184	1459	31
93	0	0	2168	1183	1466	31
94	0	0	2177	1182	1473	31
95	0	0	2179	1183	1480	31
96	0	0	2163	1182	1483	31
97	0	0	2159	1182	1482	32
98	0	0	2171	1182	1477	31
99	0	0	2198	1183	1464	30
100	0	0	2217	1184	1456	30
101	0	0	2223	1181	1457	32
102	0	0	2224	1182	1460	31
103	0	0	2219	1182	1465	30
104	0	0	2211	1182	1474	31
105	0	0	2190	1181	1480	28
106	0	0	2177	1182	1484	32
107	0	0	2167	1180	1482	32
108	0	0	2159	1182	1476	31
109	0	0	2152	1182	1464	31
110	0	0	2148	1181	1458	31
111	0	0	2149	1181	1457	31
112	0	0	2154	1182	1459	30
113	0	0	2156	1181	1466	31
114	0	0	2164	1182	1473	31
115	0	0	2181	1182	1480	29
116	0	0	2193	1183	1483	31
117	0	0	2201	1180	1482	32
118	0	0	2206	1182	1477	31
119	0	0	2197	1181	1464	31
120	0	0	2183	1180	1457	31
121	0	0	2170	1182	1457	31
122	0	0	2171	1181	1460	31
123	0	0	2173	1182	1466	31
124	0	0	2168	1183	1472	30
125	0	0	2161	1182	1478	31
126	0	0	2166	1181	1483	32
127	0	0	2170	1184	1482	31
0	0	0	2170	1182	1475	32
1	0	0	2167	1182	1464	31
2	0	0	2178	1184	1456	30
3	0	0	2173	1182	1457	31
4	0	0	2173	1182	1460	31
5	0	0	2177	1181	1466	31
6	0	0	2193	1181	1473	30
7	0	0	2220	1181	1480	30
8	0	0	2240	1182	1483	32
9	0	0	2244	1181	1482	31
10	0	0	2243	1181	1476	31
11	0	0	2241	1180	1466	31
12	0	0	2253	1180	1457	31
13	0	0	2236	1182	1457	31
14	0	0	2223	1181	1460	30
15	0	0	2216	1181	1466	31
16	0	0	2205	1181	1473	31
17	0	0	2196	1181	1479	30
18	0	0	2189	1181	1483	31
19	0	0	2177	1180	1482	31
20	0	0	2171	1181	1476	31
21	0	0	2167	1180	1466	31
22	0	0	2170	1180	1457	27
23	0	0	2180	1181	1457	31
24	0	0	2195	1181	1460	31
25	0	0	2204	1181	1466	31
26	0	0	2210	1181	1473	32
27	0	0	2216	1182	1479	28
28	0	0	2228	1181	1481	31
29	0	0	2237	1181	1482	31
30	0	0	2239	1181	1476	30
31	0	0	2241	1181	1464	31
32	0	0	2244	1181	1456	31
33	0	0	2226	1181	1455	31
34	0	0	2214	1181	1459	30
35	0	0	2205	1180	1465	32
36	0	0	2189	1181	1473	31
37	0	0	2179	1181	1478	28
38	0	0	2167	1182	1482	31
39	0	0	2151	1180	1480	31
40	0	0	2147	1181	1475	31
41	0	0	2146	1180	1464	31
42	0	0	2148	1180	1457	31
43	0	0	2155	1180	1456	31
44	0	0	2158	1181	1458	31
45	0	0	2161	1180	1464	31
46	0	0	2175	1180	1471	32
47	0	0	2196	1180	1476	31
48	0	0	2208	1181	1478	30
49	0	0	2216	1181	1479	31
50	0	0	2225	1181	1473	31
51	0	0	2239	1181	1461	31
52	0	0	2240	1182	1453	31
53	0	0	2235	1181	1453	31
54	0	0	2226	1181	1456	30
55	0	0	2216	1180	1462	32
56	0	0	2206	1178	1468	32
57	0	0	2195	1180	1474	29
58	0	0	2180	1180	1475	31
59	0	0	2170	1180	1476	31
60	0	0	2166	1180	1470	32
61	0	0	2168	1180	1458	29
62	0	0	2173	1182	1450	28
63	0	0	2189	1180	1448	31
64	0	0	2194	1180	1453	31
65	0	0	2200	1180	1458	31
66	0	0	2215	1178	1465	32
67	0	0	2222	1180	1470	32
68	0	0	2231	1180	1473	31
69	0	0	2222	1179	1469	31
70	0	0	2216	1180	1465	31
71	0	0	2228	1179	1455	31
72	0	0	2242	1180	1447	31
73	0	0	2237	1180	1446	30
74	0	0	2225	1180	1449	32
75	0	0	2207	1179	1453	31
76	0	0	2199	1180	1460	29
77	0	0	2188	1181	1465	31
78	0	0	2180	1180	1467	31
79	0	0	2174	1177	1464	31
80	0	0	2165	1179	1459	30
81	0	0	2158	1184	1448	31
82	0	0	2162	1180	1442	31
83	0	0	2165	1179	1441	28
84	0	0	2165	1180	1443	29
85	0	0	2169	1179	1448	31
86	0	0	2175	1180	1454	31
87	0	0	2187	1182	1457	28
88	0	0	2186	1180	1458	31
89	0	0	2195	1179	1457	31
90	0	0	2207	1179	1453	31
91	0	0	2229	1180	1442	27
92	0	0	2226	1179	1435	31
93	0	0	2220	1179	1434	31
94	0	0	2208	1179	1435	30
95	0	0	2198	1179	1440	31
96	0	0	2192	1181	1445	30
97	0	0	2178	1180	1450	31
98	0	0	2173	1179	1452	30
99	0	0	2173	1179	1449	30
100	0	0	2174	1179	1445	31
101	0	0	2178	1180	1434	27
102	0	0	2167	1179	1427	30
103	0	0	2172	1180	1426	29
104	0	0	2172	1179	1429	30
105	0	0	2188	1179	1432	30
106	0	0	2196	1180	1436	31
107	0	0	2213	1180	1440	30
108	0	0	2226	1179	1442	29
109	0	0	2220	1179	1440	30
110	0	0	2217	1181	1435	19
111	0	0	2218	1180	1424	30
112	0	0	2220	1180	1418	31
113	0	0	2212	1179	1416	29
114	0	0	2202	1178	1419	31
115	0	0	2182	1175	1422	30
116	0	0	2172	1178	1427	27
117	0	0	2158	1179	1430	31
118	0	0	2152	1179	1432	32
119	0	0	2146	1179	1429	30
120	0	0	2146	1178	1424	30
121	0	0	2140	1177	1414	32
122	0	0	2132	1179	1408	29
123	0	0	2134	1178	1406	29
124	0	0	2136	1178	1407	31
125	0	0	2148	1179	1411	29
126	0	0	2158	1176	1415	27
127	0	0	2166	1179	1419	31
0	0	0	2170	1179	1420	32
1	0	0	2172	1178	1416	30
2	0	0	2185	1178	1411	29
3	0	0	2202	1178	1402	31
4	0	0	2202	1177	1395	28
5	0	0	2195	1178	1394	28
6	0	0	2187	1178	1394	31
7	0	0	2173	1178	1399	31
8	0	0	2157	1178	1402	30
9	0	0	2149	1178	1405	31
10	0	0	2147	1177	1405	30
11	0	0	2149	1178	1404	29
12	0	0	2152	1178	1398	29
13	0	0	2146	1176	1388	29
14	0	0	2140	1178	1383	29
15	0	0	2139	1178	1381	29
16	0	0	2139	1173	1382	28
17	0	0	2148	1179	1385	28
18	0	0	2165	1180	1386	28
19	0	0	2175	1177	1389	29
20	0	0	2173	1178	1390	29
21	0	0	2174	1178	1389	30
22	0	0	2192	1177	1382	28
23	0	0	2207	1179	1373	29
24	0	0	2209	1177	1368	28
25	0	0	2207	1179	1368	29
26	0	0	2198	1178	1366	29
27	0	0	2184	1177	1369	30
28	0	0	2171	1177	1372	29
29	0	0	2168	1178	1374	32
30	0	0	2164	1178	1374	28
31	0	0	2151	1177	1372	29
32	0	0	2137	1178	1367	31
33	0	0	2137	1178	1359	31
34	0	0	2132	1178	1354	29
35	0	0	2140	1177	1353	30
36	0	0	2157	1177	1352	29
37	0	0	2171	1177	1353	29
38	0	0	2172	1177	1355	29
39	0	0	2174	1177	1358	29
40	0	0	2178	1177	1358	29
41	0	0	2188	1177	1357	29
42	0	0	2198	1176	1351	28
43	0	0	2205	1179	1341	28
44	0	0	2204	1176	1338	28
45	0	0	2192	1177	1336	28
46	0	0	2179	1177	1337	29
47	0	0	2178	1177	1338	29
48	0	0	2177	1178	1341	29
49	0	0	2184	1176	1344	27
50	0	0	2174	1177	1343	30
51	0	0	2163	1177	1343	29
52	0	0	2165	1177	1337	28
53	0	0	2167	1178	1328	28
54	0	0	2165	1177	1326	28
55	0	0	2172	1177	1323	28
56	0	0	2181	1176	1327	31
57	0	0	2193	1177	1327	29
58	0	0	2193	1177	1328	28
59	0	0	2191	1176	1332	28
60	0	0	2194	1177	1333	27
61	0	0	2200	1179	1333	30
62	0	0	2210	1177	1328	27
63	0	0	2232	1177	1320	28
64	0	0	2233	1176	1316	26
65	0	0	2228	1176	1318	29
66	0	0	2223	1176	1320	28
67	0	0	2217	1176	1320	25
68	0	0	2198	1176	1323	27
69	0	0	2183	1176	1326	28
70	0	0	2178	1177	1327	28
71	0	0	2176	1176	1326	28
72	0	0	2171	1176	1323	31
73	0	0	2159	1176	1316	27
74	0	0	2155	1176	1314	29
75	0	0	2159	1176	1313	28
76	0	0	2164	1177	1316	28
77	0	0	2167	1177	1317	27
78	0	0	2171	1177	1321	28
79	0	0	2187	1176	1324	29
80	0	0	2200	1177	1325	30
81	0	0	2214	1176	1326	27
82	0	0	2225	1176	1321	27
83	0	0	2229	1177	1315	28
84	0	0	2224	1176	1312	27
85	0	0	2223	1176	1311	26
86	0	0	2215	1176	1313	27
87	0	0	2196	1176	1315	28
88	0	0	2189	1176	1317	27
89	0	0	2184	1176	1319	27
90	0	0	2189	1177	1319	29
91	0	0	2187	1176	1319	28
92	0	0	2188	1176	1314	29
93	0	0	2184	1177	1308	28
94	0	0	2189	1176	1304	27
95	0	0	2204	1176	1302	27
96	0	0	2207	1176	1303	30
97	0	0	2207	1176	1302	29
98	0	0	2192	1176	1302	27
99	0	0	2186	1176	1302	27
100	0	0	2181	1176	1302	27
101	0	0	2172	1176	1299	27
102	0	0	2172	1176	1295	28
103	0	0	2180	1173	1289	27
104	0	0	2179	1176	1287	27
105	0	0	2180	1176	1285	26
106	0	0	2183	1175	1283	26
107	0	0	2182	1177	1286	27
108	0	0	2182	1176	1286	26
109	0	0	2190	1176	1288	26
110	0	0	2189	1175	1288	27
111	0	0	2174	1175	1286	26
112	0	0	2161	1176	1282	26
113	0	0	2151	1175	1277	27
114	0	0	2145	1176	1276	28
115	0	0	2154	1175	1274	27
116	0	0	2151	1175	1275	27
117	0	0	2159	1176	1277	27
118	0	0	2164	1177	1279	29
119	0	0	2177	1176	1281	27
120	0	0	2185	1175	1281	25
121	0	0	2178	1175	1280	27
122	0	0	2170	1176	1278	29
123	0	0	2174	1175	1274	28
124	0	0	2162	1175	1272	29
125	0	0	2151	1175	1271	23
126	0	0	2148	1175	1273	27
127	0	0	2148	1174	1272	27
0	0	0	2153	1175	1276	28
1	0	0	2153	1176	1279	28
2	0	0	2146	1175	1279	25
3	0	0	2135	1175	1279	28
4	0	0	2125	1174	1276	28
5	0	0	2111	1175	1270	28
6	0	0	2105	1174	1269	31
7	0	0	2095	1175	1269	25
8	0	0	2098	1175	1269	27
9	0	0	2101	1174	1272	27
10	0	0	2108	1175	1275	28
11	0	0	2125	1175	1277	27
12	0	0	2135	1174	1278	26
13	0	0	2138	1174	1276	27
14	0	0	2149	1175	1275	27
15	0	0	2169	1174	1271	27
16	0	0	2178	1174	1267	26
17	0	0	2188	1174	1268	26
18	0	0	2179	1174	1269	27
19	0	0	2166	1174	1272	26
20	0	0	2162	1174	1275	27
21	0	0	2159	1174	1277	27
22	0	0	2154	1174	1279	28
23	0	0	2139	1175	1275	24
24	0	0	2135	1174	1276	27
25	0	0	2121	1174	1271	27
26	0	0	2125	1174	1266	26
27	0	0	2129	1175	1269	24
28	0	0	2133	1174	1269	26
29	0	0	2123	1174	1272	27
30	0	0	2115	1174	1275	27
31	0	0	2118	1173	1279	30
32	0	0	2135	1174	1279	27
33	0	0	2152	1174	1280	26
34	0	0	2164	1174	1276	27
35	0	0	2175	1173	1273	24
36	0	0	2180	1174	1268	26
37	0	0	2173	1174	1270	25
38	0	0	2170	1173	1269	27
39	0	0	2158	1174	1275	27
40	0	0	2142	1171	1275	27
41	0	0	2136	1173	1277	27
42	0	0	2136	1174	1280	24
43	0	0	2135	1174	1279	28
44	0	0	2124	1174	1278	25
45	0	0	2111	1174	1274	29
46	0	0	2108	1173	1270	25
47	0	0	2107	1173	1271	25
48	0	0	2103	1173	1271	28
49	0	0	2102	1173	1274	27
50	0	0	2112	1172	1276	28
51	0	0	2111	1173	1280	30
52	0	0	2124	1174	1282	24
53	0	0	2133	1173	1279	28
54	0	0	2133	1173	1279	28
55	0	0	2138	1170	1273	27
56	0	0	2136	1174	1271	29
57	0	0	2130	1174	1271	24
58	0	0	2125	1173	1272	27
59	0	0	2125	1173	1274	26
60	0	0	2120	1172	1277	28
61	0	0	2111	1172	1279	27
62	0	0	2103	1173	1281	24
63	0	0	2097	1172	1280	24
64	0	0	2102	1172	1278	28
65	0	0	2102	1173	1273	28
66	0	0	2092	1172	1271	29
67	0	0	2087	1173	1271	25
68	0	0	2087	1173	1270	26
69	0	0	2095	1173	1273	27
70	0	0	2112	1172	1276	28
71	0	0	2141	1172	1278	27
72	0	0	2179	1172	1281	24
73	0	0	2191	1172	1279	28
74	0	0	2181	1173	1277	28
75	0	0	2172	1172	1272	28
76	0	0	2162	1172	1269	29
77	0	0	2158	1173	1269	26
78	0	0	2152	1172	1269	26
79	0	0	2135	1172	1272	27
80	0	0	2127	1174	1275	28
81	0	0	2124	1173	1277	27
82	0	0	2115	1173	1278	28
83	0	0	2110	1172	1277	27
84	0	0	2106	1173	1275	28
85	0	0	2107	1168	1269	26
86	0	0	2109	1173	1267	27
87	0	0	2118	1172	1267	28
88	0	0	2120	1172	1268	30
89	0	0	2123	1173	1269	24
90	0	0	2128	1171	1272	27
91	0	0	2143	1172	1276	24
92	0	0	2151	1173	1277	30
93	0	0	2146	1172	1276	27
94	0	0	2142	1171	1274	29
95	0	0	2143	1171	1267	26
96	0	0	2146	1173	1265	25
97	0	0	2161	1172	1265	24
98	0	0	2155	1172	1267	26
99	0	0	2143	1172	1268	27
100	0	0	2140	1170	1270	27
101	0	0	2138	1172	1272	27
102	0	0	2130	1173	1274	30
103	0	0	2116	1172	1274	28
104	0	0	2104	1171	1271	28
105	0	0	2103	1173	1265	27
106	0	0	2109	1173	1262	28
107	0	0	2126	1172	1263	28
108	0	0	2133	1172	1263	27
109	0	0	2134	1171	1265	27
110	0	0	2134	1171	1268	27
111	0	0	2147	1173	1272	24
112	0	0	2161	1171	1271	29
113	0	0	2172	1171	1271	26
114	0	0	2178	1173	1268	27
115	0	0	2196	1169	1264	27
116	0	0	2199	1173	1261	27
117	0	0	2185	1172	1260	30
118	0	0	2175	1171	1261	27
119	0	0	2167	1172	1262	27
120	0	0	2164	1171	1264	27
121	0	0	2162	1172	1266	27
122	0	0	2154	1171	1268	29
123	0	0	2143	1171	1267	27
124	0	0	2139	1171	1264	26
125	0	0	2139	1171	1259	27
126	0	0	2144	1172	1257	27
127	0	0	2159	1171	1256	27
0	0	0	2164	1172	1255	25
1	0	0	2162	1171	1258	27
2	0	0	2146	1170	1260	27
3	0	0	2137	1173	1263	27
4	0	0	2128	1172	1264	27
5	0	0	2117	1171	1263	27
6	0	0	2116	1171	1260	27
7	0	0	2094	1173	1255	24
8	0	0	2094	1173	1253	27
9	0	0	2097	1170	1252	30
10	0	0	2108	1171	1255	26
11	0	0	2137	1171	1253	30
12	0	0	2218	1170	1256	26
13	0	0	2312	1171	1259	24
14	0	0	2390	1171	1259	27
15	0	0	2535	1170	1255	26
16	0	0	2677	1170	1254	25
17	0	0	2815	1170	1249	26
18	0	0	2915	1171	1246	27
19	0	0	2876	1167	1245	31
20	0	0	2788	1166	1247	26
21	0	0	2655	1165	1249	26
22	0	0	2474	1167	1250	27
23	0	0	2267	1167	1255	26
24	0	0	2060	1165	1256	27
25	0	0	1873	1165	1255	26
26	0	0	1720	1165	1253	26
27	0	0	1518	1164	1248	25
28	0	0	1354	1167	1247	27
29	0	0	1360	1171	1247	27
30	0	0	1445	1170	1247	26
31	0	0	1623	1169	1249	26
32	0	0	1891	1170	1250	26
33	0	0	2162	1170	1251	26
34	0	0	2394	1170	1252	29
35	0	0	2585	1169	1249	26
36	0	0	2723	1169	1247	27
37	0	0	2855	1171	1241	27
38	0	0	2950	1168	1241	26
39	0	0	2910	1167	1241	26
40	0	0	2790	1166	1241	23
41	0	0	2648	1163	1243	27
42	0	0	2472	1164	1247	28
43	0	0	2274	1165	1249	26
44	0	0	2066	1164	1250	27
45	0	0	1872	1165	1249	26
46	0	0	1711	1165	1248	26
47	0	0	1497	1167	1244	27
48	0	0	1326	1164	1243	27
49	0	0	1331	1170	1242	21
50	0	0	1417	1169	1243	26
51	0	0	1600	1169	1245	26
52	0	0	1866	1168	1247	27
53	0	0	2154	1169	1247	27
54	0	0	2406	1169	1248	27
55	0	0	2611	1169	1244	27
56	0	0	2767	1168	1245	27
57	0	0	2897	1168	1240	27
58	0	0	2993	1166	1238	26
59	0	0	2950	1164	1238	26
60	0	0	2841	1165	1240	27
61	0	0	2706	1163	1242	27
62	0	0	2539	1163	1245	28
63	0	0	2343	1162	1247	27
64	0	0	2133	1163	1249	28
65	0	0	1927	1163	1248	27
66	0	0	1647	1163	1247	27
67	0	0	1394	1164	1246	28
68	0	0	1386	1166	1241	26
69	0	0	1505	1168	1241	26
70	0	0	1667	1168	1241	28
71	0	0	1835	1168	1244	27
72	0	0	1965	1169	1245	27
73	0	0	2045	1169	1248	26
74	0	0	2090	1169	1249	27
75	0	0	2110	1168	1248	25
76	0	0	2120	1168	1246	27
77	0	0	2130	1168	1243	28
78	0	0	2132	1166	1241	26
79	0	0	2133	1168	1242	27
80	0	0	2133	1168	1240	27
81	0	0	2147	1167	1244	27
82	0	0	2156	1169	1247	29
83	0	0	2166	1168	1248	26
84	0	0	2179	1168	1250	26
85	0	0	2190	1168	1248	25
86	0	0	2204	1168	1248	27
87	0	0	2216	1168	1245	28
88	0	0	2202	1167	1242	26
89	0	0	2190	1168	1242	24
90	0	0	2187	1168	1242	26
91	0	0	2175	1168	1246	27
92	0	0	2172	1168	1248	27
93	0	0	2190	1168	1251	26
94	0	0	2195	1168	1251	28
95	0	0	2186	1168	1251	26
96	0	0	2181	1168	1249	26
97	0	0	2184	1168	1245	28
98	0	0	2183	1166	1243	27
99	0	0	2180	1169	1245	24
100	0	0	2161	1168	1246	26
101	0	0	2146	1168	1248	26
102	0	0	2129	1168	1253	28
103	0	0	2119	1166	1252	26
104	0	0	2118	1169	1254	23
105	0	0	2126	1168	1252	26
106	0	0	2135	1169	1251	27
107	0	0	2142	1168	1250	28
108	0	0	2150	1165	1246	27
109	0	0	2159	1168	1247	27
110	0	0	2156	1167	1248	25
111	0	0	2161	1169	1250	26
112	0	0	2158	1168	1253	23
113	0	0	2171	1165	1254	26
114	0	0	2179	1167	1255	26
115	0	0	2180	1168	1254	26
116	0	0	2176	1168	1253	27
117	0	0	2179	1167	1251	28
118	0	0	2198	1165	1248	25
119	0	0	2211	1168	1248	24
120	0	0	2209	1167	1248	25
121	0	0	2209	1168	1251	27
122	0	0	2217	1168	1255	26
123	0	0	2224	1166	1255	26
124	0	0	2219	1168	1256	27
125	0	0	2207	1167	1256	27
126	0	0	2203	1169	1254	27
127	0	0	2209	1167	1249	27
0	0	0	2211	1166	1248	26
1	0	0	2201	1168	1248	23
2	0	0	2199	1167	1248	24
3	0	0	2204	1168	1251	27
4	0	0	2213	1169	1253	27
5	0	0	2212	1167	1254	23
6	0	0	2212	1168	1256	24
7	0	0	2212	1168	1253	28
8	0	0	2225	1167	1254	27
9	0	0	2236	1168	1249	26
10	0	0	2229	1166	1246	27
11	0	0	2213	1167	1248	24
12	0	0	2208	1167	1249	25
13	0	0	2215	1167	1251	27
14	0	0	2218	1168	1253	27
15	0	0	2226	1167	1254	25
16	0	0	2224	1170	1256	28
17	0	0	2231	1167	1254	25
18	0	0	2229	1168	1253	28
19	0	0	2232	1168	1249	26
20	0	0	2234	1166	1246	27
21	0	0	2228	1167	1247	30
22	0	0	2219	1167	1247	25
23	0	0	2199	1166	1250	25
24	0	0	2189	1167	1252	25
25	0	0	2179	1167	1253	26
26	0	0	2178	1167	1254	27
27	0	0	2189	1167	1253	26
28	0	0	2197	1166	1251	26
29	0	0	2200	1166	1248	24
30	0	0	2206	1167	1246	27
31	0	0	2208	1169	1245	27
32	0	0	2219	1167	1247	27
33	0	0	2221	1167	1248	26
34	0	0	2228	1166	1250	25
35	0	0	2234	1166	1252	26
36	0	0	2229	1166	1252	27
37	0	0	2226	1166	1252	26
38	0	0	2228	1166	1250	27
39	0	0	2231	1165	1245	27
40	0	0	2217	1167	1245	27
41	0	0	2211	1168	1243	28
42	0	0	2211	1166	1244	25
43	0	0	2211	1166	1247	26
44	0	0	2215	1170	1249	24
45	0	0	2215	1167	1250	26
46	0	0	2207	1167	1251	23
47	0	0	2203	1167	1251	27
48	0	0	2220	1167	1248	27
49	0	0	2225	1167	1245	24
50	0	0	2225	1167	1242	24
51	0	0	2229	1167	1242	27
52	0	0	2232	1166	1243	26
53	0	0	2240	1166	1245	27
54	0	0	2261	1167	1247	24
55	0	0	2281	1167	1248	24
56	0	0	2283	1166	1249	30
57	0	0	2277	1166	1251	28
58	0	0	2285	1166	1247	27
59	0	0	2291	1165	1244	28
60	0	0	2288	1167	1240	26
61	0	0	2283	1166	1240	28
62	0	0	2275	1166	1242	25
63	0	0	2272	1167	1243	27
64	0	0	2274	1167	1244	27
65	0	0	2265	1165	1248	26
66	0	0	2259	1166	1248	29
67	0	0	2252	1166	1247	29
68	0	0	2252	1165	1244	27
69	0	0	2261	1165	1240	26
70	0	0	2270	1164	1239	27
71	0	0	2298	1166	1239	30
72	0	0	2301	1165	1240	27
73	0	0	2305	1166	1242	26
74	0	0	2311	1165	1244	27
75	0	0	2307	1165	1246	26
76	0	0	2314	1167	1247	27
77	0	0	2302	1166	1246	30
78	0	0	2306	1166	1243	27
79	0	0	2314	1166	1240	25
80	0	0	2304	1164	1239	27
81	0	0	2288	1167	1238	27
82	0	0	2276	1166	1238	28
83	0	0	2270	1166	1241	26
84	0	0	2280	1165	1242	26
85	0	0	2261	1165	1246	29
86	0	0	2250	1166	1246	28
87	0	0	2237	1165	1245	30
88	0	0	2245	1166	1243	27
89	0	0	2255	1165	1238	26
90	0	0	2249	1164	1236	26
91	0	0	2253	1167	1236	26
92	0	0	2249	1166	1238	28
93	0	0	2250	1167	1240	26
94	0	0	2245	1167	1242	28
95	0	0	2244	1164	1245	27
96	0	0	2255	1166	1244	28
97	0	0	2261	1165	1244	27
98	0	0	2256	1165	1241	25
99	0	0	2266	1165	1239	24
100	0	0	2275	1166	1235	28
101	0	0	2275	1166	1235	26
102	0	0	2265	1165	1237	29
103	0	0	2255	1165	1239	26
104	0	0	2250	1166	1241	27
105	0	0	2256	1165	1243	28
106	0	0	2261	1165	1243	27
107	0	0	2262	1165	1243	26
108	0	0	2265	1163	1240	26
109	0	0	2267	1165	1237	26
110	0	0	2264	1164	1234	26
111	0	0	2266	1162	1235	26
112	0	0	2264	1163	1236	29
113	0	0	2268	1165	1237	26
114	0	0	2274	1166	1240	26
115	0	0	2280	1164	1243	27
116	0	0	2286	1165	1243	27
117	0	0	2283	1164	1242	25
118	0	0	2290	1166	1239	26
119	0	0	2304	1165	1235	26
120	0	0	2293	1165	1234	28
121	0	0	2291	1165	1234	25
122	0	0	2290	1164	1234	27
123	0	0	2287	1164	1237	26
124	0	0	2273	1167	1240	27
125	0	0	2268	1164	1241	26
126	0	0	2270	1164	1242	28
127	0	0	2281	1163	1240	25
0	0	0	2282	1163	1237	26
1	0	0	2286	1164	1235	26
2	0	0	2062	1158	1231	28
3	0	0	1110	1157	1233	25
4	0	0	533	1157	1235	27
5	0	0	203	1158	1236	26
6	0	0	20	1158	1237	27
7	0	0	1	1158	1239	30
8	0	0	0	1158	1241	27
9	0	0	0	1159	1240	29
10	0	0	0	1159	1237	25
11	0	0	0	1160	1233	23
12	0	0	0	1160	1232	26
13	0	0	0	1159	1232	23
14	0	0	0	1160	1233	26
15	0	0	0	1160	1235	26
16	0	0	0	1159	1237	27
17	0	0	0	1161	1239	24
18	0	0	0	1160	1239	25
19	0	0	0	1160	1239	27
20	0	0	0	1160	1237	27
21	0	0	0	1161	1233	26
22	0	0	0	1160	1231	26
23	0	0	0	1159	1232	26
24	0	0	0	1160	1232	25
25	0	0	0	1160	1234	27
26	0	0	0	1160	1236	26
27	0	0	0	1162	1238	26
28	0	0	0	1159	1238	26
29	0	0	0	1159	1238	27
30	0	0	0	1160	1236	26
31	0	0	1	1161	1231	27
32	0	0	0	1160	1230	25
33	0	0	0	1160	1230	27
34	0	0	0	1159	1232	24
35	0	0	0	1159	1233	26
36	0	0	0	1159	1235	28
37	0	0	0	1157	1236	25
38	0	0	0	1159	1238	26
39	0	0	6	1159	1237	25
40	0	0	13	1159	1234	27
41	0	0	18	1160	1231	27
42	0	0	27	1160	1228	30
43	0	0	31	1159	1229	27
44	0	0	38	1159	1230	26
45	0	0	42	1160	1232	26
46	0	0	51	1160	1234	25
47	0	0	56	1160	1236	26
48	0	0	64	1159	1237	26
49	0	0	70	1160	1237	25
50	0	0	79	1159	1233	26
51	0	0	80	1160	1230	27
52	0	0	87	1162	1228	24
53	0	0	92	1160	1229	26
54	0	0	99	1159	1229	25
55	0	0	101	1161	1232	26
56	0	0	108	1161	1233	26
57	0	0	115	1159	1234	25
58	0	0	120	1159	1236	28
59	0	0	125	1160	1235	25
60	0	0	130	1161	1233	26
61	0	0	137	1160	1229	24
62	0	0	143	1162	1227	26
63	0	0	146	1160	1228	27
64	0	0	152	1159	1229	24
65	0	0	157	1159	1230	27
66	0	0	162	1159	1232	24
67	0	0	168	1159	1233	25
68	0	0	175	1159	1235	26
69	0	0	178	1160	1234	24
70	0	0	184	1160	1232	27
71	0	0	188	1160	1228	27
72	0	0	194	1159	1224	27
73	0	0	200	1159	1226	28
74	0	0	203	1160	1227	26
75	0	0	208	1160	1229	27
76	0	0	213	1160	1231	27
77	0	0	219	1158	1232	27
78	0	0	223	1161	1233	26
79	0	0	230	1160	1232	25
80	0	0	233	1160	1231	25
81	0	0	238	1160	1226	26
82	0	0	245	1159	1224	25
83	0	0	250	1159	1226	26
84	0	0	253	1160	1226	28
85	0	0	258	1160	1228	25
86	0	0	262	1160	1230	27
87	0	0	267	1159	1232	27
88	0	0	271	1160	1232	27
89	0	0	277	1160	1231	28
90	0	0	282	1160	1229	27
91	0	0	287	1160	1225	26
92	0	0	290	1159	1224	25
93	0	0	297	1160	1224	26
94	0	0	300	1160	1223	26
95	0	0	308	1159	1226	26
96	0	0	310	1160	1229	25
97	0	0	315	1161	1230	26
98	0	0	315	1160	1231	26
99	0	0	325	1160	1230	26
100	0	0	332	1159	1227	26
101	0	0	333	1161	1223	25
102	0	0	337	1161	1223	26
103	0	0	343	1160	1222	25
104	0	0	347	1160	1224	26
105	0	0	355	1159	1225	26
106	0	0	355	1161	1227	26
107	0	0	361	1161	1229	24
108	0	0	361	1161	1230	26
109	0	0	366	1161	1227	28
110	0	0	376	1160	1225	26
111	0	0	378	1160	1222	26
112	0	0	384	1160	1219	25
113	0	0	387	1160	1220	27
114	0	0	392	1160	1221	26
115	0	0	397	1162	1223	26
116	0	0	402	1161	1223	28
117	0	0	405	1161	1227	26
118	0	0	407	1160	1227	27
119	0	0	415	1160	1226	27
120	0	0	418	1160	1221	25
121	0	0	423	1160	1220	24
122	0	0	427	1161	1219	25
123	0	0	427	1160	1219	26
124	0	0	436	1161	1220	26
125	0	0	444	1159	1221	26
126	0	0	445	1160	1221	24
127	0	0	449	1160	1225	26
0	0	0	453	1161	1225	26
1	0	0	457	1160	1224	27
2	0	0	462	1160	1223	26
3	0	0	463	1160	1218	23
4	0	0	470	1158	1216	26
5	0	0	472	1160	1216	25
6	0	0	478	1159	1217	26
7	0	0	482	1160	1217	24
8	0	0	487	1160	1221	26
9	0	0	491	1160	1223	26
10	0	0	492	1159	1224	25
11	0	0	498	1159	1223	28
12	0	0	504	1159	1220	26
13	0	0	510	1160	1217	25
14	0	0	513	1160	1216	26
15	0	0	516	1160	1215	27
16	0	0	520	1159	1215	30
17	0	0	526	1160	1219	25
18	0	0	528	1160	1219	24
19	0	0	535	1158	1221	26
20	0	0	535	1159	1221	25
21	0	0	541	1159	1220	23
22	0	0	543	1160	1217	26
23	0	0	547	1160	1215	26
24	0	0	553	1158	1213	26
25	0	0	554	1160	1213	27
26	0	0	559	1159	1214	27
27	0	0	564	1160	1216	24
28	0	0	568	1159	1217	26
29	0	0	573	1159	1220	25
30	0	0	576	1159	1220	25
31	0	0	580	1159	1219	23
32	0	0	587	1158	1216	25
33	0	0	588	1159	1216	24
34	0	0	592	1159	1212	27
35	0	0	596	1159	1211	27
36	0	0	601	1159	1213	27
37	0	0	607	1158	1214	27
38	0	0	608	1159	1218	24
39	0	0	611	1157	1218	26
40	0	0	612	1159	1218	26
41	0	0	619	1159	1218	21
42	0	0	623	1159	1216	25
43	0	0	627	1159	1211	27
44	0	0	631	1158	1211	27
45	0	0	634	1159	1211	25
46	0	0	637	1159	1212	23
47	0	0	641	1160	1213	26
48	0	0	646	1159	1216	25
49	0	0	650	1159	1218	25
50	0	0	652	1159	1218	25
51	0	0	655	1158	1217	27
52	0	0	661	1159	1215	27
53	0	0	664	1159	1212	25
54	0	0	668	1160	1210	27
55	0	0	670	1158	1211	26
56	0	0	675	1158	1211	23
57	0	0	679	1161	1213	26
58	0	0	682	1159	1216	24
59	0	0	686	1159	1217	23
60	0	0	688	1159	1218	25
61	0	0	693	1158	1217	23
62	0	0	697	1158	1214	25
63	0	0	700	1158	1209	27
64	0	0	705	1159	1210	26
65	0	0	707	1157	1210	26
66	0	0	710	1157	1211	23
67	0	0	715	1159	1213	27
68	0	0	718	1158	1216	24
69	0	0	723	1159	1217	23
70	0	0	724	1158	1218	24
71	0	0	729	1158	1217	23
72	0	0	732	1158	1214	27
73	0	0	1275	1159	1212	28
74	0	0	2032	1156	1210	26
75	0	0	2523	1158	1210	27
76	0	0	3094	1159	1211	24
77	0	0	3708	1159	1213	26
78	0	0	4093	1159	1216	24
79	0	0	4091	1158	1218	25
80	0	0	4091	1158	1217	24
81	0	0	4091	1159	1217	23
82	0	0	4092	1160	1214	27
83	0	0	4093	1157	1211	26
84	0	0	4092	1156	1210	27
85	0	0	4091	1157	1209	26
86	0	0	4091	1158	1211	24
87	0	0	4091	1157	1212	27
88	0	0	4091	1157	1214	26
89	0	0	4091	1158	1216	24
90	0	0	4091	1156	1217	26
91	0	0	4091	1158	1216	21
92	0	0	4092	1157	1214	26
93	0	0	4093	1157	1211	26
94	0	0	4092	1157	1210	26
95	0	0	4093	1156	1209	26
96	0	0	4091	1156	1211	26
97	0	0	4093	1156	1213	26
98	0	0	4092	1159	1215	24
99	0	0	4093	1156	1217	27
100	0	0	4091	1154	1218	25
101	0	0	4091	1156	1216	21
102	0	0	4091	1156	1214	26
103	0	0	4091	1155	1210	26
104	0	0	4094	1155	1210	26
105	0	0	4091	1154	1210	26
106	0	0	4090	1155	1211	24
107	0	0	4093	1156	1214	27
108	0	0	4091	1153	1215	27
109	0	0	4091	1155	1218	23
110	0	0	4091	1154	1218	27
111	0	0	4091	1154	1218	19
112	0	0	4093	1154	1215	26
113	0	0	4091	1154	1210	27
114	0	0	4092	1155	1209	24
115	0	0	4091	1152	1211	26
116	0	0	4091	1154	1212	26
117	0	0	4093	1154	1213	23
118	0	0	4089	1153	1216	27
119	0	0	4092	1153	1218	25
120	0	0	4091	1151	1218	24
121	0	0	4091	1153	1218	24
122	0	0	4091	1154	1215	26
123	0	0	4091	1153	1212	25
124	0	0	4093	1155	1211	26
125	0	0	4091	1151	1211	24
126	0	0	4093	1154	1213	27
127	0	0	4090	1151	1214	26
0	0	0	4089	1153	1216	23
1	0	0	4092	1153	1218	24
2	0	0	4094	1155	1219	25
3	0	0	4091	1153	1219	26
4	0	0	4093	1153	1217	25
5	0	0	4092	1153	1213	26
6	0	0	4092	1153	1210	26
7	0	0	4089	1150	1212	26
8	0	0	4089	1152	1213	21
9	0	0	4091	1152	1216	25
10	0	0	4091	1152	1219	25
11	0	0	4092	1151	1219	25
12	0	0	4092	1151	1221	25
13	0	0	4091	1152	1220	26
14	0	0	4093	1151	1217	24
15	0	0	4092	1152	1216	27
16	0	0	4092	1154	1212	24
17	0	0	4091	1150	1214	25
18	0	0	4091	1153	1215	24
19	0	0	4091	1152	1217	25
20	0	0	4091	1152	1219	25
21	0	0	4092	1153	1220	24
22	0	0	4091	1150	1221	25
23	0	0	4087	1150	1221	24
24	0	0	3951	1144	1219	23
25	0	0	2520	1145	1216	25
26	0	0	1492	1147	1213	24
27	0	0	910	1144	1213	27
28	0	0	575	1145	1216	24
29	0	0	388	1144	1218	25
30	0	0	285	1144	1221	25
31	0	0	230	1147	1222	24
32	0	0	204	1146	1224	25
33	0	0	190	1144	1223	25
34	0	0	186	1145	1220	26
35	0	0	186	1145	1217	24
36	0	0	189	1145	1215	26
37	0	0	193	1145	1218	24
38	0	0	200	1138	1218	20
39	0	0	206	1143	1220	25
40	0	0	210	1143	1222	26
41	0	0	215	1143	1223	25
42	0	0	220	1143	1225	26
43	0	0	226	1143	1224	25
44	0	0	235	1143	1222	25
45	0	0	238	1143	1217	26
46	0	0	245	1142	1215	26
47	0	0	249	1143	1218	23
48	0	0	255	1141	1221	20
49	0	0	261	1141	1223	25
50	0	0	267	1141	1224	26
51	0	0	271	1142	1225	25
52	0	0	279	1141	1227	25
53	0	0	285	1141	1224	25
54	0	0	290	1139	1222	25
55	0	0	295	1140	1220	25
56	0	0	300	1140	1218	26
57	0	0	305	1142	1220	26
58	0	0	311	1140	1221	25
59	0	0	318	1141	1224	25
60	0	0	322	1139	1225	26
61	0	0	326	1140	1226	26
62	0	0	333	1139	1228	23
63	0	0	338	1139	1229	24
64	0	0	344	1138	1227	26
65	0	0	351	1138	1221	25
66	0	0	354	1138	1221	27
67	0	0	359	1141	1221	26
68	0	0	364	1138	1221	24
69	0	0	370	1138	1225	25
70	0	0	375	1139	1228	27
71	0	0	380	1137	1229	26
72	0	0	386	1137	1230	26
73	0	0	390	1137	1229	26
74	0	0	395	1137	1226	26
75	0	0	400	1137	1223	26
76	0	0	405	1137	1222	25
77	0	0	410	1138	1222	26
78	0	0	415	1137	1224	25
79	0	0	420	1135	1226	26
80	0	0	425	1138	1229	26
81	0	0	430	1137	1230	30
82	0	0	432	1139	1232	25
83	0	0	442	1136	1229	25
84	0	0	446	1135	1228	26
85	0	0	449	1139	1224	25
86	0	0	454	1136	1224	26
87	0	0	460	1136	1225	25
88	0	0	463	1136	1226	25
89	0	0	470	1135	1229	26
90	0	0	474	1136	1232	26
91	0	0	478	1136	1232	27
92	0	0	482	1137	1233	27
93	0	0	487	1135	1232	26
94	0	0	491	1135	1230	26
95	0	0	496	1135	1227	27
96	0	0	501	1135	1226	25
97	0	0	505	1133	1227	25
98	0	0	510	1135	1228	23
99	0	0	517	1134	1229	26
100	0	0	519	1135	1232	25
101	0	0	525	1134	1235	27
102	0	0	529	1135	1235	26
103	0	0	534	1134	1235	26
104	0	0	538	1133	1232	25
105	0	0	543	1134	1230	26
106	0	0	547	1134	1227	29
107	0	0	552	1134	1228	26
108	0	0	556	1134	1230	27
109	0	0	560	1134	1232	26
110	0	0	565	1134	1235	27
111	0	0	570	1133	1238	23
112	0	0	573	1136	1239	26
113	0	0	578	1133	1237	26
114	0	0	584	1132	1234	26
115	0	0	587	1133	1230	27
116	0	0	591	1133	1230	25
117	0	0	595	1135	1231	23
118	0	0	599	1133	1232	25
119	0	0	605	1132	1235	26
120	0	0	608	1131	1237	27
121	0	0	612	1133	1238	27
122	0	0	616	1132	1240	25
123	0	0	620	1132	1238	25
124	0	0	625	1131	1234	25
125	0	0	626	1133	1232	26
126	0	0	632	1133	1231	27
127	0	0	637	1133	1232	25
0	0	0	641	1133	1234	25
1	0	0	645	1132	1236	26
2	0	0	648	1135	1238	25
3	0	0	653	1132	1241	27
4	0	0	657	1134	1242	26
5	0	0	661	1132	1241	27
6	0	0	664	1131	1238	26
7	0	0	669	1132	1234	27
8	0	0	673	1132	1234	27
9	0	0	677	1132	1235	25
10	0	0	680	1131	1236	26
11	0	0	685	1131	1239	26
12	0	0	688	1132	1242	28
13	0	0	693	1134	1244	27
14	0	0	696	1132	1245	25
15	0	0	700	1132	1243	27
16	0	0	703	1131	1240	24
17	0	0	708	1130	1237	27
18	0	0	711	1131	1237	23
19	0	0	715	1130	1237	26
20	0	0	720	1132	1239	26
21	0	0	725	1129	1242	27
22	0	0	726	1132	1244	26
23	0	0	731	1131	1246	27
24	0	0	734	1132	1245	27
25	0	0	739	1132	1247	27
26	0	0	741	1131	1243	27
27	0	0	744	1130	1241	27
28	0	0	748	1131	1237	27
29	0	0	751	1130	1238	26
30	0	0	755	1130	1241	27
31	0	0	758	1129	1244	27
32	0	0	762	1130	1247	27
33	0	0	765	1132	1249	23
34	0	0	767	1130	1249	27
35	0	0	772	1130	1248	26
36	0	0	776	1130	1245	27
37	0	0	780	1131	1243	27
38	0	0	782	1130	1239	26
39	0	0	786	1130	1242	26
40	0	0	789	1130	1243	24
41	0	0	794	1129	1246	26
42	0	0	796	1130	1251	27
43	0	0	801	1130	1250	26
44	0	0	803	1131	1251	26
45	0	0	806	1129	1251	26
46	0	0	810	1129	1247	27
47	0	0	813	1130	1244	27
48	0	0	816	1130	1243	26
49	0	0	819	1130	1244	26
50	0	0	821	1129	1245	24
51	0	0	826	1128	1249	26
52	0	0	829	1128	1251	24
53	0	0	832	1129	1251	26
54	0	0	836	1128	1254	26
55	0	0	839	1129	1253	27
56	0	0	843	1129	1249	27
57	0	0	844	1129	1247	28
58	0	0	849	1131	1244	27
59	0	0	852	1130	1246	27
60	0	0	855	1129	1248	26
61	0	0	858	1129	1251	27
62	0	0	861	1127	1252	24
63	0	0	866	1128	1255	24
64	0	0	867	1128	1256	27
65	0	0	871	1128	1255	26
66	0	0	875	1128	1252	26
67	0	0	877	1127	1248	26
68	0	0	880	1129	1248	25
69	0	0	883	1127	1248	25
70	0	0	886	1128	1249	26
71	0	0	890	1127	1253	26
72	0	0	892	1128	1256	25
73	0	0	894	1129	1256	27
74	0	0	898	1127	1257	27
75	0	0	902	1128	1257	27
76	0	0	904	1128	1254	26
77	0	0	907	1127	1250	24
78	0	0	911	1128	1248	24
79	0	0	914	1127	1251	26
80	0	0	917	1129	1253	26
81	0	0	920	1127	1255	27
82	0	0	923	1127	1257	26
83	0	0	926	1128	1257	27
84	0	0	929	1127	1260	27
85	0	0	932	1124	1258	25
86	0	0	935	1128	1255	26
87	0	0	938	1125	1253	27
88	0	0	941	1127	1251	24
89	0	0	944	1126	1252	26
90	0	0	946	1125	1254	27
91	0	0	950	1126	1257	27
92	0	0	951	1127	1260	27
93	0	0	954	1127	1260	26
94	0	0	959	1130	1264	27
95	0	0	962	1128	1262	27
96	0	0	964	1127	1259	27
97	0	0	966	1127	1257	27
98	0	0	970	1127	1253	24
99	0	0	972	1127	1253	27
100	0	0	975	1127	1257	26
101	0	0	978	1127	1259	26
102	0	0	980	1127	1262	27
103	0	0	984	1126	1262	26
104	0	0	987	1127	1264	26
105	0	0	990	1125	1263	27
106	0	0	992	1125	1259	26
107	0	0	994	1125	1257	27
108	0	0	999	1125	1254	24
109	0	0	1001	1123	1256	25
110	0	0	1004	1125	1259	25
111	0	0	1005	1125	1262	27
112	0	0	1010	1126	1266	26
113	0	0	1012	1126	1266	28
114	0	0	1014	1126	1268	28
115	0	0	1018	1126	1267	26
116	0	0	1019	1127	1264	27
117	0	0	1024	1127	1262	27
118	0	0	1025	1126	1260	27
119	0	0	1029	1126	1261	27
120	0	0	1032	1126	1262	28
121	0	0	1035	1124	1266	27
122	0	0	1037	1126	1269	25
123	0	0	1041	1125	1269	27
124	0	0	1041	1125	1269	27
125	0	0	1044	1124	1268	26
126	0	0	1045	1124	1264	26
127	0	0	1050	1124	1262	27
0	0	0	1054	1124	1262	27
1	0	0	1055	1121	1261	27
2	0	0	1058	1124	1264	27
3	0	0	1061	1124	1267	28
4	0	0	1063	1123	1270	28
5	0	0	1065	1125	1272	28
6	0	0	1068	1123	1273	28
7	0	0	1071	1125	1273	28
8	0	0	1074	1125	1270	31
9	0	0	1076	1126	1267	27
10	0	0	1078	1126	1264	26
11	0	0	1082	1124	1268	25
12	0	0	1084	1125	1269	26
13	0	0	1085	1127	1271	26
14	0	0	1090	1125	1273	27
15	0	0	1092	1124	1275	27
16	0	0	1094	1123	1274	27
17	0	0	1098	1124	1274	27
18	0	0	1099	1125	1268	25
19	0	0	1102	1123	1266	27
20	0	0	1105	1123	1265	27
21	0	0	1107	1120	1265	27
22	0	0	1110	1122	1269	25
23	0	0	1112	1122	1272	28
24	0	0	1115	1124	1274	28
25	0	0	1117	1124	1280	27
26	0	0	1119	1122	1280	27
27	0	0	1122	1124	1281	28
28	0	0	1124	1124	1277	29
29	0	0	1126	1126	1272	27
30	0	0	1129	1125	1274	29
31	0	0	1132	1125	1274	28
32	0	0	1135	1126	1276	27
33	0	0	1136	1126	1277	27
34	0	0	1140	1125	1279	29
35	0	0	1141	1124	1283	25
36	0	0	1144	1122	1281	24
37	0	0	1147	1123	1279	27
38	0	0	1147	1121	1274	26
39	0	0	1153	1120	1270	23
40	0	0	1155	1121	1270	26
41	0	0	1156	1120	1271	26
42	0	0	1160	1120	1274	29
43	0	0	1160	1123	1277	28
44	0	0	1163	1123	1280	26
45	0	0	1165	1122	1286	29
46	0	0	1168	1120	1286	28
47	0	0	1170	1123	1286	28
48	0	0	1173	1124	1284	28
49	0	0	1175	1125	1281	24
50	0	0	1177	1126	1281	27
51	0	0	1180	1124	1280	28
52	0	0	1181	1125	1282	27
53	0	0	1184	1126	1284	26
54	0	0	1187	1124	1286	23
55	0	0	1188	1125	1288	26
56	0	0	1191	1124	1287	25
57	0	0	1192	1122	1285	25
58	0	0	1195	1123	1280	23
59	0	0	1200	1120	1273	25
60	0	0	1202	1119	1275	27
61	0	0	1203	1118	1275	25
62	0	0	1205	1119	1277	27
63	0	0	1206	1119	1280	26
64	0	0	1209	1120	1284	27
65	0	0	1212	1120	1290	29
66	0	0	1214	1120	1291	29
67	0	0	1216	1121	1289	28
68	0	0	1218	1124	1289	29
69	0	0	1223	1123	1286	31
70	0	0	1225	1125	1287	29
71	0	0	1226	1125	1288	27
72	0	0	1227	1125	1290	27
73	0	0	1230	1124	1291	27
74	0	0	1234	1124	1293	27
75	0	0	1235	1124	1294	27
76	0	0	1236	1122	1293	27
77	0	0	1239	1122	1291	25
78	0	0	1239	1119	1285	21
79	0	0	1246	1119	1281	24
80	0	0	1246	1118	1279	26
81	0	0	1247	1116	1280	24
82	0	0	1247	1118	1282	25
83	0	0	1251	1118	1286	28
84	0	0	1254	1117	1291	25
85	0	0	1256	1119	1295	29
86	0	0	1258	1117	1296	27
87	0	0	1260	1120	1296	29
88	0	0	1261	1122	1294	30
89	0	0	1264	1122	1292	30
90	0	0	1267	1124	1293	29
91	0	0	1269	1125	1293	28
92	0	0	1270	1124	1294	28
93	0	0	1272	1123	1296	26
94	0	0	1277	1124	1298	24
95	0	0	1278	1123	1299	25
96	0	0	1279	1118	1299	26
97	0	0	1279	1120	1295	26
98	0	0	1281	1119	1289	24
99	0	0	1286	1118	1286	23
100	0	0	1289	1118	1284	25
101	0	0	1287	1117	1285	24
102	0	0	1292	1117	1286	27
103	0	0	1292	1116	1292	28
104	0	0	1294	1117	1295	29
105	0	0	1297	1118	1299	29
106	0	0	1299	1119	1300	29
107	0	0	1301	1120	1300	28
108	0	0	1304	1121	1300	29
109	0	0	1305	1121	1296	31
110	0	0	1305	1123	1295	29
111	0	0	1310	1124	1296	28
112	0	0	1311	1123	1299	25
113	0	0	1313	1122	1300	26
114	0	0	1315	1124	1301	25
115	0	0	1317	1122	1302	27
116	0	0	1318	1121	1302	27
117	0	0	1321	1120	1299	27
118	0	0	1322	1117	1294	25
119	0	0	1326	1117	1288	25
120	0	0	1328	1116	1285	24
121	0	0	1329	1116	1288	26
122	0	0	1332	1116	1290	27
123	0	0	1333	1116	1295	28
124	0	0	1335	1116	1298	26
125	0	0	1337	1118	1302	28
126	0	0	1338	1119	1304	29
127	0	0	1340	1119	1304	30
0	0	0	1342	1120	1301	28
1	0	0	1344	1122	1299	27
2	0	0	1346	1122	1297	28
3	0	0	1348	1123	1299	27
4	0	0	1351	1123	1301	28
5	0	0	1353	1122	1303	27
6	0	0	1352	1123	1304	26
7	0	0	1357	1121	1303	26
8	0	0	1357	1120	1304	27
9	0	0	1360	1119	1302	25
10	0	0	1362	1118	1296	23
11	0	0	1364	1117	1291	24
12	0	0	1366	1116	1291	26
13	0	0	1368	1115	1290	26
14	0	0	1370	1117	1294	27
15	0	0	1372	1115	1296	27
16	0	0	1369	1117	1300	27
17	0	0	1375	1116	1304	28
18	0	0	1376	1115	1305	30
19	0	0	1379	1120	1307	28
20	0	0	1380	1119	1306	30
21	0	0	1381	1119	1303	29
22	0	0	1383	1121	1301	27
23	0	0	1386	1122	1302	29
24	0	0	1387	1122	1304	28
25	0	0	1390	1122	1308	28
26	0	0	1391	1122	1308	25
27	0	0	1393	1121	1308	25
28	0	0	1394	1120	1308	25
29	0	0	1396	1119	1305	27
30	0	0	1397	1119	1299	24
31	0	0	1400	1116	1295	23
32	0	0	1400	1116	1293	25
33	0	0	1403	1114	1294	27
34	0	0	1405	1115	1297	26
35	0	0	1408	1115	1301	27
36	0	0	1406	1114	1303	28
37	0	0	1410	1116	1308	29
38	0	0	1411	1117	1310	29
39	0	0	1413	1120	1310	30
40	0	0	1416	1119	1308	31
41	0	0	1416	1119	1307	29
42	0	0	1419	1121	1304	27
43	0	0	1421	1121	1306	27
44	0	0	1421	1121	1308	27
45	0	0	1425	1122	1310	28
46	0	0	1424	1119	1311	27
47	0	0	1427	1120	1312	24
48	0	0	1429	1119	1311	25
49	0	0	1430	1118	1309	27
50	0	0	1432	1115	1303	24
51	0	0	1433	1115	1299	25
52	0	0	1436	1115	1296	24
53	0	0	1437	1114	1298	27
54	0	0	1439	1112	1301	27
55	0	0	1441	1115	1305	28
56	0	0	1441	1115	1309	27
57	0	0	1445	1115	1311	27
58	0	0	1446	1116	1313	28
59	0	0	1447	1116	1313	28
60	0	0	1449	1119	1312	30
61	0	0	1450	1119	1309	32
62	0	0	1452	1120	1309	27
63	0	0	1454	1120	1310	29
64	0	0	1454	1120	1311	29
65	0	0	1457	1123	1313	27
66	0	0	1455	1121	1314	26
67	0	0	1461	1118	1316	26
68	0	0	1461	1118	1313	26
69	0	0	1463	1117	1311	26
70	0	0	1465	1115	1305	24
71	0	0	1465	1115	1301	24
72	0	0	1469	1114	1300	24
73	0	0	1470	1113	1300	27
74	0	0	1471	1113	1303	28
75	0	0	1472	1113	1307	29
76	0	0	1470	1115	1310	28
77	0	0	1476	1114	1314	30
78	0	0	1477	1114	1316	29
79	0	0	1478	1116	1314	29
80	0	0	1481	1118	1313	30
81	0	0	1481	1118	1311	30
82	0	0	1484	1119	1312	26
83	0	0	1485	1119	1312	28
84	0	0	1486	1119	1314	26
85	0	0	1489	1120	1315	27
86	0	0	1488	1119	1317	26
87	0	0	1492	1117	1318	26
88	0	0	1491	1118	1315	27
89	0	0	1494	1116	1314	26
90	0	0	1497	1114	1308	26
91	0	0	1498	1114	1304	25
92	0	0	1500	1114	1303	26
93	0	0	1500	1112	1302	26
94	0	0	1503	1113	1306	27
95	0	0	1505	1112	1308	28
96	0	0	1502	1112	1313	28
97	0	0	1507	1113	1317	29
98	0	0	1508	1115	1319	29
99	0	0	1510	1118	1319	26
100	0	0	1511	1118	1314	29
101	0	0	1511	1116	1312	28
102	0	0	1513	1118	1314	26
103	0	0	1515	1120	1314	27
104	0	0	1517	1119	1317	29
105	0	0	1518	1118	1317	27
106	0	0	1520	1119	1319	26
107	0	0	1522	1118	1319	25
108	0	0	1522	1116	1320	26
109	0	0	1523	1115	1316	26
110	0	0	1525	1113	1310	26
111	0	0	1527	1112	1306	25
112	0	0	1529	1112	1305	25
113	0	0	1529	1111	1307	25
114	0	0	1532	1112	1309	28
115	0	0	1532	1113	1312	27
116	0	0	1533	1110	1315	27
117	0	0	1537	1112	1319	27
118	0	0	1537	1113	1322	29
119	0	0	1539	1114	1321	29
120	0	0	1540	1116	1317	30
121	0	0	1542	1116	1317	31
122	0	0	1543	1117	1316	28
123	0	0	1545	1118	1317	27
124	0	0	1545	1117	1318	28
125	0	0	1548	1117	1320	27
126	0	0	1549	1117	1322	27
127	0	0	1550	1118	1322	26
0	0	0	1552	1115	1323	26
1	0	0	1553	1114	1318	25
2	0	0	1555	1114	1312	22
3	0	0	1558	1112	1308	24
4	0	0	1558	1112	1307	27
5	0	0	1558	1110	1309	27
6	0	0	1561	1111	1311	27
7	0	0	1561	1110	1313	28
8	0	0	1563	1110	1317	27
9	0	0	1563	1111	1322	30
10	0	0	1564	1113	1324	30
11	0	0	1566	1113	1323	30
12	0	0	1568	1114	1320	31
13	0	0	1570	1115	1318	28
14	0	0	1570	1117	1317	29
15	0	0	1572	1117	1319	29
16	0	0	1573	1117	1320	28
17	0	0	1575	1117	1322	25
18	0	0	1574	1117	1324	28
19	0	0	1576	1116	1325	28
20	0	0	1578	1114	1323	28
21	0	0	1581	1114	1320	26
22	0	0	1579	1111	1314	23
23	0	0	1583	1110	1310	25
24	0	0	1584	1111	1309	26
25	0	0	1584	1109	1311	26
26	0	0	1586	1110	1312	27
27	0	0	1587	1110	1316	28
28	0	0	1588	1110	1318	28
29	0	0	1590	1111	1322	29
30	0	0	1590	1109	1324	30
31	0	0	1591	1114	1323	30
32	0	0	1593	1111	1319	31
33	0	0	1596	1115	1319	29
34	0	0	1596	1115	1319	27
35	0	0	1598	1116	1320	28
36	0	0	1599	1115	1321	28
37	0	0	1601	1116	1323	27
38	0	0	1600	1115	1325	27
39	0	0	1602	1114	1325	30
40	0	0	1604	1114	1325	26
41	0	0	1605	1113	1321	26
42	0	0	1606	1109	1314	23
43	0	0	1606	1110	1311	25
44	0	0	1610	1110	1310	26
45	0	0	1609	1108	1311	27
46	0	0	1610	1109	1313	27
47	0	0	1612	1109	1317	27
48	0	0	1615	1109	1320	28
49	0	0	1615	1110	1323	27
50	0	0	1615	1111	1325	31
51	0	0	1618	1111	1324	29
52	0	0	1618	1112	1321	31
53	0	0	1617	1114	1321	30
54	0	0	1622	1115	1319	31
55	0	0	1621	1115	1319	29
56	0	0	1623	1115	1322	29
57	0	0	1624	1115	1322	31
58	0	0	1625	1114	1325	27
59	0	0	1627	1114	1325	27
60	0	0	1628	1112	1323	27
61	0	0	1629	1112	1322	25
62	0	0	1627	1110	1317	25
63	0	0	1629	1109	1311	27
64	0	0	1634	1109	1311	24
65	0	0	1633	1107	1310	26
66	0	0	1638	1109	1314	27
67	0	0	1635	1108	1317	28
68	0	0	1636	1108	1321	29
69	0	0	1638	1109	1323	27
70	0	0	1638	1109	1325	30
71	0	0	1640	1110	1325	30
72	0	0	1641	1112	1323	30
73	0	0	1642	1113	1320	29
74	0	0	1644	1113	1321	31
75	0	0	1645	1114	1320	30
76	0	0	1645	1114	1323	28
77	0	0	1647	1115	1323	27
78	0	0	1649	1114	1325	29
79	0	0	1650	1113	1325	24
80	0	0	1650	1112	1323	25
81	0	0	1652	1111	1321	26
82	0	0	1652	1106	1315	27
83	0	0	1654	1108	1311	26
84	0	0	1656	1108	1311	27
85	0	0	1655	1106	1310	28
86	0	0	1655	1107	1313	27
87	0	0	1657	1107	1317	29
88	0	0	1655	1106	1320	29
89	0	0	1659	1108	1323	27
90	0	0	1661	1108	1324	30
91	0	0	1664	1109	1324	29
92	0	0	1662	1111	1322	31
93	0	0	1665	1112	1319	30
94	0	0	1665	1112	1319	28
95	0	0	1667	1112	1319	26
96	0	0	1669	1113	1322	27
97	0	0	1668	1113	1323	29
98	0	0	1670	1113	1324	27
99	0	0	1671	1111	1324	24
100	0	0	1672	1111	1322	26
101	0	0	1672	1110	1320	26
102	0	0	1673	1107	1314	25
103	0	0	1674	1106	1310	26
104	0	0	1676	1107	1309	25
105	0	0	1677	1105	1310	26
106	0	0	1679	1106	1312	26
107	0	0	1679	1104	1316	29
108	0	0	1679	1106	1319	29
109	0	0	1680	1107	1322	28
110	0	0	1682	1108	1322	29
111	0	0	1683	1109	1322	30
112	0	0	1685	1112	1320	31
113	0	0	1683	1110	1319	31
114	0	0	1686	1112	1318	27
115	0	0	1686	1111	1317	27
116	0	0	1688	1112	1319	28
117	0	0	1691	1112	1321	28
118	0	0	1689	1111	1323	29
119	0	0	1691	1110	1322	24
120	0	0	1692	1110	1320	23
121	0	0	1693	1109	1318	25
122	0	0	1696	1107	1312	25
123	0	0	1694	1106	1309	27
124	0	0	1696	1107	1308	24
125	0	0	1696	1106	1307	28
126	0	0	1698	1105	1311	23
127	0	0	1699	1104	1312	28
0	0	0	1699	1105	1318	31
1	0	0	1700	1107	1320	30
2	0	0	1702	1109	1321	29
3	0	0	1701	1107	1320	30
4	0	0	1704	1109	1318	31
5	0	0	1705	1109	1316	30
6	0	0	1704	1111	1318	32
7	0	0	1706	1112	1317	28
8	0	0	1708	1111	1319	27
9	0	0	1708	1110	1319	27
10	0	0	1710	1111	1321	28
11	0	0	1710	1109	1320	24
12	0	0	1712	1110	1320	26
13	0	0	1712	1108	1317	26
14	0	0	1713	1105	1310	26
15	0	0	1715	1106	1307	27
16	0	0	1715	1104	1307	26
17	0	0	1716	1104	1307	27
18	0	0	1718	1105	1309	29
19	0	0	1717	1104	1312	27
20	0	0	1718	1105	1316	31
21	0	0	1719	1106	1319	32
22	0	0	1720	1106	1320	30
23	0	0	1719	1107	1319	29
24	0	0	1722	1108	1316	31
25	0	0	1723	1111	1314	30
26	0	0	1724	1110	1315	28
27	0	0	1725	1110	1316	28
28	0	0	1726	1110	1316	25
29	0	0	1728	1109	1317	26
30	0	0	1726	1110	1318	25
31	0	0	1729	1110	1320	24
32	0	0	1729	1108	1317	26
33	0	0	1731	1108	1314	24
34	0	0	1731	1104	1308	25
35	0	0	1733	1105	1305	25
36	0	0	1735	1104	1304	28
37	0	0	1734	1104	1304	26
38	0	0	1735	1105	1307	29
39	0	0	1736	1104	1311	31
40	0	0	1737	1106	1313	29
41	0	0	1736	1105	1315	30
42	0	0	1738	1106	1315	29
43	0	0	1739	1107	1316	30
44	0	0	1741	1107	1312	28
45	0	0	1738	1109	1312	28
46	0	0	1742	1111	1311	31
47	0	0	1743	1111	1312	27
48	0	0	1743	1110	1313	27
49	0	0	1742	1109	1314	27
50	0	0	1745	1110	1315	24
51	0	0	1745	1109	1314	28
52	0	0	1747	1109	1313	25
53	0	0	1748	1107	1310	26
54	0	0	1749	1104	1304	25
55	0	0	1753	1105	1301	24
56	0	0	1750	1106	1300	30
57	0	0	1752	1104	1301	26
58	0	0	1751	1104	1302	28
59	0	0	1753	1105	1305	27
60	0	0	1753	1106	1309	30
61	0	0	1754	1105	1311	28
62	0	0	1755	1105	1311	30
63	0	0	1758	1107	1312	30
64	0	0	1758	1107	1309	31
65	0	0	1757	1110	1308	31
66	0	0	1759	1110	1308	31
67	0	0	1759	1110	1308	29
68	0	0	1759	1110	1309	28
69	0	0	1762	1110	1312	26
70	0	0	1763	1110	1311	24
71	0	0	1762	1109	1311	30
72	0	0	1760	1109	1309	26
73	0	0	1763	1107	1306	24
74	0	0	1766	1105	1300	23
75	0	0	1767	1106	1297	25
76	0	0	1770	1106	1297	26
77	0	0	1767	1103	1295	27
78	0	0	1767	1104	1299	28
79	0	0	1769	1105	1302	28
80	0	0	1769	1106	1305	29
81	0	0	1770	1106	1308	29
82	0	0	1770	1106	1309	29
83	0	0	1772	1106	1308	29
84	0	0	1774	1108	1306	30
85	0	0	1774	1109	1306	28
86	0	0	1776	1111	1304	27
87	0	0	1777	1110	1305	29
88	0	0	1775	1111	1306	29
89	0	0	1777	1111	1306	27
90	0	0	1778	1111	1309	27
91	0	0	1779	1110	1308	27
92	0	0	1778	1108	1306	26
93	0	0	1782	1107	1302	27
94	0	0	1781	1105	1300	24
95	0	0	1783	1105	1295	24
96	0	0	1783	1105	1294	23
97	0	0	1783	1104	1293	27
98	0	0	1784	1106	1294	27
99	0	0	1784	1104	1300	27
100	0	0	1785	1104	1302	27
101	0	0	1787	1105	1304	31
102	0	0	1786	1106	1305	29
103	0	0	1789	1107	1305	29
104	0	0	1788	1109	1303	26
105	0	0	1789	1110	1302	30
106	0	0	1790	1110	1301	30
107	0	0	1790	1111	1300	27
108	0	0	1789	1111	1302	27
109	0	0	1789	1111	1303	27
110	0	0	1793	1109	1303	25
111	0	0	1795	1109	1304	27
112	0	0	1788	1109	1303	23
113	0	0	1794	1108	1299	25
114	0	0	1795	1105	1293	24
115	0	0	1796	1106	1290	25
116	0	0	1799	1104	1289	26
117	0	0	1797	1103	1289	24
118	0	0	1801	1105	1292	27
119	0	0	1798	1105	1295	28
120	0	0	1798	1103	1297	27
121	0	0	1800	1106	1300	29
122	0	0	1800	1106	1298	29
123	0	0	1804	1107	1299	31
124	0	0	1801	1108	1300	31
125	0	0	1800	1109	1298	30
126	0	0	1804	1111	1298	29
127	0	0	1804	1110	1296	28
0	0	0	1804	1111	1299	26
1	0	0	1805	1111	1300	28
2	0	0	1806	1111	1300	27
3	0	0	1807	1109	1299	26
4	0	0	1808	1109	1298	26
5	0	0	1806	1107	1295	26
6	0	0	1808	1105	1289	25
7	0	0	1813	1106	1286	25
8	0	0	1812	1104	1285	27
9	0	0	1811	1103	1284	24
10	0	0	1814	1106	1288	27
11	0	0	1812	1106	1291	28
12	0	0	1812	1104	1294	29
13	0	0	1812	1105	1295	27
14	0	0	1813	1106	1296	28
15	0	0	1815	1108	1297	29
16	0	0	1815	1109	1295	29
17	0	0	1814	1108	1292	29
18	0	0	1818	1110	1293	27
19	0	0	1817	1110	1293	28
20	0	0	1818	1111	1295	27
21	0	0	1819	1113	1296	26
22	0	0	1820	1109	1296	26
23	0	0	1821	1109	1295	25
24	0	0	1821	1108	1291	24
25	0	0	1822	1108	1291	24
26	0	0	1822	1103	1284	23
27	0	0	1823	1103	1281	24
28	0	0	1824	1105	1282	24
29	0	0	1823	1103	1281	26
30	0	0	1826	1106	1283	26
31	0	0	1823	1104	1287	29
32	0	0	1824	1104	1290	30
33	0	0	1824	1104	1292	26
34	0	0	1826	1106	1292	29
35	0	0	1827	1107	1292	28
36	0	0	1828	1109	1291	30
37	0	0	1829	1110	1289	29
38	0	0	1828	1110	1289	27
39	0	0	1831	1110	1291	27
40	0	0	1832	1110	1291	27
41	0	0	1831	1110	1291	27
42	0	0	1833	1110	1293	26
43	0	0	1831	1108	1292	26
44	0	0	1833	1108	1289	24
45	0	0	1834	1108	1287	25
46	0	0	1835	1104	1283	26
47	0	0	1836	1103	1278	23
48	0	0	1837	1103	1278	23
49	0	0	1836	1104	1277	28
50	0	0	1838	1105	1281	26
51	0	0	1836	1105	1283	27
52	0	0	1836	1103	1285	27
53	0	0	1837	1105	1288	28
54	0	0	1842	1105	1288	30
55	0	0	1840	1107	1287	28
56	0	0	1840	1109	1287	30
57	0	0	1842	1107	1284	27
58	0	0	1840	1110	1286	24
59	0	0	1841	1110	1286	27
60	0	0	1842	1110	1287	27
61	0	0	1842	1111	1288	27
62	0	0	1844	1109	1288	27
63	0	0	1845	1108	1288	23
64	0	0	1843	1108	1284	26
65	0	0	1846	1107	1283	24
66	0	0	1845	1105	1278	26
67	0	0	1847	1103	1274	23
68	0	0	1846	1104	1274	24
69	0	0	1847	1103	1274	26
70	0	0	1850	1104	1277	27
71	0	0	1849	1106	1280	25
72	0	0	1848	1101	1282	27
73	0	0	1850	1105	1284	28
74	0	0	1850	1105	1285	28
75	0	0	1851	1107	1285	29
76	0	0	1852	1110	1284	31
77	0	0	1852	1107	1282	28
78	0	0	1853	1110	1282	27
79	0	0	1853	1110	1283	25
80	0	0	1855	1109	1284	26
81	0	0	1853	1109	1284	25
82	0	0	1855	1109	1284	23
83	0	0	1854	1108	1284	28
84	0	0	1856	1107	1282	24
85	0	0	1856	1107	1279	27
86	0	0	1856	1104	1274	25
87	0	0	1860	1103	1272	23
88	0	0	1855	1106	1271	24
89	0	0	1858	1103	1271	27
90	0	0	1860	1104	1274	28
91	0	0	1860	1103	1277	26
92	0	0	1861	1104	1279	28
93	0	0	1859	1104	1280	27
94	0	0	1862	1106	1282	28
95	0	0	1860	1106	1282	28
96	0	0	1862	1108	1280	27
97	0	0	1863	1106	1278	29
98	0	0	1865	1109	1280	30
99	0	0	1864	1109	1279	28
100	0	0	1866	1110	1281	27
101	0	0	1866	1109	1281	26
102	0	0	1865	1108	1282	26
103	0	0	1865	1108	1280	24
104	0	0	1867	1107	1279	26
105	0	0	1867	1106	1277	24
106	0	0	1868	1103	1271	24
107	0	0	1868	1103	1269	25
108	0	0	1871	1103	1269	25
109	0	0	1869	1103	1269	24
110	0	0	1870	1104	1271	27
111	0	0	1870	1103	1274	26
112	0	0	1870	1103	1278	30
113	0	0	1871	1104	1279	31
114	0	0	1872	1105	1281	28
115	0	0	1872	1106	1279	30
116	0	0	1873	1108	1278	28
117	0	0	1874	1107	1276	27
118	0	0	1878	1110	1277	29
119	0	0	1874	1109	1278	32
120	0	0	1875	1110	1279	28
121	0	0	1875	1110	1279	28
122	0	0	1874	1110	1279	28
123	0	0	1879	1109	1279	27
124	0	0	1878	1108	1277	26
125	0	0	1875	1106	1274	25
126	0	0	1878	1105	1271	24
127	0	0	1879	1105	1269	25
0	0	0	1881	1104	1266	25
1	0	0	1879	1103	1267	28
2	0	0	1879	1104	1269	27
3	0	0	1879	1104	1272	27
4	0	0	1880	1105	1275	32
5	0	0	1883	1105	1276	29
6	0	0	1881	1105	1276	29
7	0	0	1882	1106	1276	29
8	0	0	1883	1106	1273	28
9	0	0	1883	1108	1273	25
10	0	0	1885	1108	1272	27
11	0	0	1884	1108	1272	29
12	0	0	1886	1108	1273	27
13	0	0	1885	1108	1275	26
14	0	0	1886	1107	1275	27
15	0	0	1890	1108	1275	27
16	0	0	1886	1107	1274	28
17	0	0	1885	1106	1272	26
18	0	0	1889	1105	1269	26
19	0	0	1887	1106	1268	27
20	0	0	1891	1106	1267	30
21	0	0	1887	1106	1268	29
22	0	0	1886	1106	1269	27
23	0	0	1890	1106	1271	27
24	0	0	1889	1108	1273	30
25	0	0	1893	1107	1274	30
26	0	0	1890	1107	1273	29
27	0	0	1891	1108	1272	27
28	0	0	1892	1109	1269	28
29	0	0	1892	1108	1267	27
30	0	0	1893	1108	1267	26
31	0	0	1892	1108	1266	27
32	0	0	1893	1108	1270	27
33	0	0	1895	1108	1271	24
34	0	0	1894	1108	1271	28
35	0	0	1896	1108	1272	27
36	0	0	1895	1107	1271	30
37	0	0	1896	1108	1270	27
38	0	0	1898	1108	1268	26
39	0	0	1898	1109	1265	28
40	0	0	1900	1106	1265	30
41	0	0	1897	1108	1267	29
42	0	0	1897	1108	1267	27
43	0	0	1899	1107	1269	28
44	0	0	1899	1108	1269	28
45	0	0	1899	1107	1270	27
46	0	0	1900	1108	1270	27
47	0	0	1897	1109	1268	27
48	0	0	1901	1108	1265	28
49	0	0	1900	1106	1265	27
50	0	0	1901	1109	1263	31
51	0	0	1902	1108	1264	27
52	0	0	1900	1108	1265	26
53	0	0	1903	1109	1267	27
54	0	0	1902	1108	1268	25
55	0	0	1904	1111	1269	27
56	0	0	1898	1109	1268	29
57	0	0	1903	1108	1267	26
58	0	0	1905	1109	1264	27
59	0	0	1905	1108	1262	27
60	0	0	1906	1108	1262	27
61	0	0	1905	1108	1262	27
62	0	0	1906	1110	1264	26
63	0	0	1907	1110	1265	28
64	0	0	1907	1106	1267	27
65	0	0	1906	1109	1267	26
66	0	0	1909	1107	1267	27
67	0	0	1906	1109	1265	27
68	0	0	1908	1110	1263	27
69	0	0	1909	1108	1261	27
70	0	0	1909	1109	1260	27
71	0	0	1909	1109	1261	30
72	0	0	1910	1109	1262	27
73	0	0	1911	1109	1264	27
74	0	0	1911	1108	1266	27
75	0	0	1910	1109	1266	27
76	0	0	1911	1109	1265	27
77	0	0	1912	1109	1263	27
78	0	0	1914	1109	1260	27
79	0	0	1913	1110	1259	26
80	0	0	1913	1110	1258	27
81	0	0	1913	1109	1260	29
82	0	0	1914	1109	1260	27
83	0	0	1914	1110	1262	27
84	0	0	1914	1109	1263	30
85	0	0	1915	1109	1263	26
86	0	0	1916	1110	1264	26
87	0	0	1916	1109	1263	28
88	0	0	1917	1109	1259	27
89	0	0	1917	1110	1257	26
90	0	0	1916	1110	1258	26
91	0	0	1918	1109	1259	27
92	0	0	1918	1109	1258	27
93	0	0	1918	1109	1260	27
94	0	0	1918	1110	1262	27
95	0	0	1921	1108	1263	27
96	0	0	1920	1110	1262	28
97	0	0	1920	1110	1260	27
98	0	0	1920	1109	1257	28
99	0	0	1920	1111	1256	24
100	0	0	1919	1110	1256	26
101	0	0	1920	1111	1257	27
102	0	0	1921	1109	1259	27
103	0	0	1919	1109	1258	27
104	0	0	1922	1110	1260	27
105	0	0	1922	1110	1261	27
106	0	0	1923	1110	1261	25
107	0	0	1925	1111	1261	27
108	0	0	1924	1110	1256	23
109	0	0	1925	1110	1254	27
110	0	0	1924	1111	1255	26
111	0	0	1925	1111	1255	25
112	0	0	1925	1111	1256	27
113	0	0	1926	1110	1258	23
114	0	0	1926	1112	1259	24
115	0	0	1926	1111	1260	26
116	0	0	1926	1110	1257	24
117	0	0	1929	1111	1258	27
118	0	0	1925	1109	1253	27
119	0	0	1928	1107	1253	26
120	0	0	1927	1108	1252	26
121	0	0	1927	1110	1253	25
122	0	0	1930	1111	1255	27
123	0	0	1929	1111	1255	27
124	0	0	1929	1109	1258	26
125	0	0	1929	1110	1258	26
126	0	0	1928	1110	1257	26
127	0	0	1931	1111	1257	27
0	0	0	1930	1110	1251	25
1	0	0	1931	1110	1252	26
2	0	0	1931	1109	1251	28
3	0	0	1931	1111	1252	25
4	0	0	1934	1111	1255	27
5	0	0	1932	1111	1255	27
6	0	0	1931	1107	1256	26
7	0	0	1932	1110	1256	28
8	0	0	1933	1111	1256	25
9	0	0	1934	1111	1255	26
10	0	0	1934	1112	1253	26
11	0	0	1934	1107	1251	26
12	0	0	1934	1110	1250	28
13	0	0	1934	1111	1251	24
14	0	0	1936	1111	1253	27
15	0	0	1935	1111	1253	24
16	0	0	1936	1112	1255	26
17	0	0	1935	1110	1255	27
18	0	0	1937	1112	1255	26
19	0	0	1937	1111	1253	26
20	0	0	1937	1112	1250	24
21	0	0	1938	1111	1248	25
22	0	0	1938	1111	1248	26
23	0	0	1938	1112	1249	25
24	0	0	1938	1111	1250	26
25	0	0	1938	1112	1252	26
26	0	0	1939	1112	1252	26
27	0	0	1938	1111	1253	26
28	0	0	1939	1112	1252	25
29	0	0	1940	1112	1251	26
30	0	0	1939	1112	1247	27
31	0	0	1940	1113	1247	24
32	0	0	1940	1111	1245	29
33	0	0	1940	1112	1247	28
34	0	0	1940	1111	1248	25
35	0	0	1942	1113	1247	28
36	0	0	1941	1114	1249	26
37	0	0	1941	1111	1251	26
38	0	0	1944	1113	1250	26
39	0	0	1944	1110	1249	26
40	0	0	1943	1112	1246	26
41	0	0	1943	1114	1244	24
42	0	0	1943	1112	1244	27
43	0	0	1943	1112	1244	28
44	0	0	1943	1112	1245	27
45	0	0	1944	1113	1247	27
46	0	0	1945	1113	1248	26
47	0	0	1945	1111	1249	27
48	0	0	1945	1113	1248	24
49	0	0	1945	1112	1247	29
50	0	0	1946	1111	1243	26
51	0	0	1947	1113	1243	26
52	0	0	1945	1113	1242	27
53	0	0	1946	1113	1242	26
54	0	0	1947	1113	1243	26
55	0	0	1946	1112	1245	27
56	0	0	1948	1113	1246	27
57	0	0	1948	1114	1247	26
58	0	0	1948	1113	1246	28
59	0	0	1950	1116	1245	26
60	0	0	1949	1115	1243	24
61	0	0	1952	1113	1240	26
62	0	0	1950	1114	1241	30
63	0	0	1949	1113	1240	30
64	0	0	1949	1114	1242	26
65	0	0	1950	1114	1242	24
66	0	0	1950	1114	1245	27
67	0	0	1950	1114	1245	26
68	0	0	1950	1114	1244	28
69	0	0	1951	1112	1243	25
70	0	0	1951	1114	1241	24
71	0	0	1952	1114	1238	26
72	0	0	1951	1113	1238	27
73	0	0	1952	1114	1239	27
74	0	0	1952	1114	1240	25
75	0	0	1953	1115	1242	25
76	0	0	1954	1114	1243	27
77	0	0	1952	1115	1243	28
78	0	0	1954	1115	1243	25
79	0	0	1955	1113	1241	26
80	0	0	1954	1114	1239	25
81	0	0	1954	1115	1238	26
82	0	0	1956	1115	1237	27
83	0	0	1954	1114	1237	23
84	0	0	1956	1113	1238	26
85	0	0	1957	1113	1240	26
86	0	0	1956	1114	1242	27
87	0	0	1960	1119	1242	26
88	0	0	1956	1111	1241	28
89	0	0	1956	1114	1240	26
90	0	0	1959	1113	1236	26
91	0	0	1957	1114	1236	26
92	0	0	1957	1115	1236	25
93	0	0	1957	1115	1236	23
94	0	0	1960	1117	1238	26
95	0	0	1958	1115	1236	28
96	0	0	1958	1115	1240	27
97	0	0	1958	1116	1240	25
98	0	0	1958	1115	1240	23
99	0	0	1961	1117	1239	23
100	0	0	1959	1116	1235	28
101	0	0	1959	1114	1235	28
102	0	0	1957	1116	1234	26
103	0	0	1959	1115	1236	26
104	0	0	1960	1116	1236	26
105	0	0	1961	1116	1237	26
106	0	0	1961	1116	1239	26
107	0	0	1961	1116	1239	26
108	0	0	1961	1115	1239	23
109	0	0	1963	1118	1237	25
110	0	0	1963	1115	1232	28
111	0	0	1962	1116	1234	23
112	0	0	1962	1117	1233	25
113	0	0	1962	1115	1234	27
114	0	0	1962	1115	1235	27
115	0	0	1962	1116	1237	24
116	0	0	1964	1115	1238	28
117	0	0	1963	1114	1238	27
118	0	0	1964	1115	1238	23
119	0	0	1964	1116	1236	26
120	0	0	1967	1115	1232	26
121	0	0	1965	1114	1233	27
122	0	0	1964	1117	1232	26
123	0	0	1966	1116	1233	26
124	0	0	1965	1115	1233	26
125	0	0	1965	1116	1234	26
126	0	0	1966	1117	1237	25
127	0	0	1968	1116	1238	25
0	0	0	1966	1116	1237	27
1	0	0	1967	1117	1236	26
2	0	0	1967	1117	1232	26
3	0	0	1967	1117	1232	27
4	0	0	1966	1116	1232	26
5	0	0	1967	1117	1232	23
6	0	0	1966	1116	1233	24
7	0	0	1968	1115	1235	26
8	0	0	1969	1118	1237	23
9	0	0	1968	1118	1237	27
10	0	0	1969	1116	1237	23
11	0	0	1968	1116	1235	26
12	0	0	1970	1117	1232	25
13	0	0	1970	1118	1232	26
14	0	0	1971	1117	1232	25
15	0	0	1970	1117	1231	23
16	0	0	1970	1117	1234	25
17	0	0	1970	1117	1233	28
18	0	0	1969	1117	1237	23
19	0	0	1970	1117	1237	25
20	0	0	1970	1117	1236	23
21	0	0	1970	1117	1235	25
22	0	0	1971	1116	1232	29
23	0	0	1971	1116	1231	27
24	0	0	1971	1119	1231	26
25	0	0	1972	1117	1232	26
26	0	0	1971	1119	1233	25
27	0	0	1972	1118	1234	26
28	0	0	1973	1117	1235	24
29	0	0	1972	1117	1236	26
30	0	0	1973	1118	1236	23
31	0	0	1972	1117	1235	26
32	0	0	1973	1118	1232	27
33	0	0	1973	1119	1232	23
34	0	0	1973	1120	1230	26
35	0	0	1973	1118	1231	24
36	0	0	1973	1117	1233	24
37	0	0	1974	1118	1233	28
38	0	0	1975	1118	1235	25
39	0	0	1975	1117	1235	26
40	0	0	1975	1118	1235	23
41	0	0	1974	1118	1234	25
42	0	0	1975	1118	1231	26
43	0	0	1976	1118	1230	25
44	0	0	1974	1116	1229	27
45	0	0	1975	1118	1230	24
46	0	0	1975	1117	1232	25
47	0	0	2014	1120	1232	27
48	0	0	2048	1120	1233	24
49	0	0	2053	1118	1235	26
50	0	0	2056	1118	1234	24
51	0	0	2057	1118	1232	25
52	0	0	2060	1118	1229	27
53	0	0	2061	1119	1228	25
54	0	0	2051	1117	1229	25
55	0	0	2042	1118	1229	24
56	0	0	2031	1118	1230	30
57	0	0	2030	1117	1231	26
58	0	0	2025	1116	1233	26
59	0	0	2024	1118	1234	25
60	0	0	2031	1120	1233	26
61	0	0	2039	1120	1231	26
62	0	0	2043	1119	1229	25
63	0	0	2046	1119	1226	26
64	0	0	2058	1119	1227	26
65	0	0	2079	1120	1227	26
66	0	0	2094	1121	1229	27
67	0	0	2113	1120	1231	27
68	0	0	2129	1120	1231	27
69	0	0	2136	1119	1232	24
70	0	0	2128	1121	1231	21
71	0	0	2132	1119	1230	26
72	0	0	2131	1120	1227	26
73	0	0	2135	1119	1225	24
74	0	0	2129	1118	1226	25
75	0	0	2130	1120	1227	24
76	0	0	2133	1120	1227	26
77	0	0	2132	1120	1229	26
78	0	0	2130	1120	1230	26
79	0	0	2130	1117	1229	26
80	0	0	2136	1119	1229	24
81	0	0	2141	1121	1228	26
82	0	0	2144	1120	1226	26
83	0	0	2147	1123	1224	24
84	0	0	2159	1120	1225	26
85	0	0	2171	1122	1225	24
86	0	0	2182	1121	1227	23
87	0	0	2193	1121	1227	25
88	0	0	2204	1121	1229	26
89	0	0	2204	1121	1229	26
90	0	0	2206	1121	1229	26
91	0	0	2206	1120	1227	26
92	0	0	2205	1120	1224	25
93	0	0	2209	1121	1224	24
94	0	0	2207	1119	1223	24
95	0	0	2209	1121	1224	26
96	0	0	2209	1119	1225	25
97	0	0	2213	1121	1226	24
98	0	0	2217	1121	1226	24
99	0	0	2215	1119	1228	26
100	0	0	2216	1120	1228	26
101	0	0	2223	1122	1226	25
102	0	0	2228	1119	1222	25
103	0	0	2233	1123	1221	25
104	0	0	2247	1122	1222	26
105	0	0	2257	1122	1223	26
106	0	0	2263	1120	1224	24
107	0	0	2269	1122	1225	25
108	0	0	2275	1123	1226	25
109	0	0	2275	1119	1227	25
110	0	0	2279	1122	1226	21
111	0	0	2281	1121	1225	26
112	0	0	2285	1121	1221	23
113	0	0	2291	1122	1219	26
114	0	0	2290	1119	1222	25
115	0	0	2287	1120	1221	26
116	0	0	2288	1120	1221	24
117	0	0	2286	1119	1224	25
118	0	0	2286	1123	1224	26
119	0	0	2286	1123	1226	26
120	0	0	2288	1121	1225	25
121	0	0	2295	1121	1223	24
122	0	0	2301	1123	1221	22
123	0	0	2307	1123	1218	26
124	0	0	2315	1123	1219	26
125	0	0	2325	1122	1220	25
126	0	0	2332	1122	1222	26
127	0	0	2335	1122	1223	25
0	0	0	2342	1122	1224	26
1	0	0	2342	1125	1224	26
2	0	0	2341	1121	1224	27
3	0	0	2344	1121	1222	25
4	0	0	2341	1119	1219	26
5	0	0	2348	1123	1217	28
6	0	0	2353	1123	1218	25
7	0	0	2351	1122	1219	25
8	0	0	2355	1120	1220	24
9	0	0	2360	1123	1221	23
10	0	0	2356	1121	1220	25
11	0	0	2355	1122	1223	25
12	0	0	2360	1123	1222	25
13	0	0	2370	1123	1222	26
14	0	0	2378	1121	1217	25
15	0	0	2378	1122	1218	25
16	0	0	2380	1125	1217	25
17	0	0	2385	1124	1217	25
18	0	0	2387	1121	1218	25
19	0	0	2392	1123	1220	24
20	0	0	2394	1123	1219	28
21	0	0	2395	1123	1221	26
22	0	0	2398	1122	1221	25
23	0	0	2403	1119	1218	24
24	0	0	2407	1123	1217	23
25	0	0	2406	1122	1215	27
26	0	0	2408	1123	1215	27
27	0	0	2413	1123	1216	24
28	0	0	2417	1124	1216	24
29	0	0	2419	1123	1218	27
30	0	0	2424	1124	1220	25
31	0	0	2418	1123	1220	25
32	0	0	2421	1122	1219	25
33	0	0	2424	1119	1217	25
34	0	0	2425	1121	1215	28
35	0	0	2424	1123	1213	29
36	0	0	2428	1125	1214	26
37	0	0	2434	1123	1214	26
38	0	0	2435	1122	1217	26
39	0	0	2451	1123	1217	24
40	0	0	2459	1124	1217	28
41	0	0	2458	1125	1219	25
42	0	0	2460	1123	1218	25
43	0	0	2454	1121	1217	25
44	0	0	2465	1124	1214	24
45	0	0	2470	1124	1213	26
46	0	0	2477	1124	1213	26
47	0	0	2479	1123	1213	26
48	0	0	2485	1123	1215	26
49	0	0	2489	1124	1216	26
50	0	0	2495	1124	1216	25
51	0	0	2500	1126	1217	25
52	0	0	2509	1123	1217	25
53	0	0	2520	1122	1214	26
54	0	0	2522	1124	1213	24
55	0	0	3639	1125	1212	27
56	0	0	4090	1123	1212	26
57	0	0	4090	1125	1212	26
58	0	0	4092	1123	1213	26
59	0	0	4092	1124	1216	25
60	0	0	4092	1125	1215	27
61	0	0	4091	1127	1216	24
62	0	0	4092	1125	1215	25
63	0	0	4091	1126	1213	26
64	0	0	4092	1128	1211	26
65	0	0	4092	1125	1209	28
66	0	0	4091	1125	1212	25
67	0	0	4092	1127	1211	25
68	0	0	4092	1125	1212	28
69	0	0	4092	1126	1213	27
70	0	0	4093	1127	1215	26
71	0	0	4091	1125	1213	26
72	0	0	4091	1127	1214	26
73	0	0	4092	1128	1214	27
74	0	0	4092	1128	1209	27
75	0	0	4092	1128	1209	26
76	0	0	4091	1128	1208	26
77	0	0	4091	1127	1209	25
78	0	0	4090	1127	1210	25
79	0	0	4091	1128	1212	28
80	0	0	4091	1128	1212	27
81	0	0	4091	1128	1213	25
82	0	0	4090	1127	1212	27
83	0	0	4093	1128	1211	26
84	0	0	4092	1130	1210	26
85	0	0	4092	1128	1207	25
86	0	0	4092	1129	1207	25
87	0	0	4091	1129	1208	24
88	0	0	4091	1131	1209	25
89	0	0	4092	1130	1211	27
90	0	0	4092	1131	1212	23
91	0	0	4091	1130	1212	25
92	0	0	4091	1130	1210	25
93	0	0	4091	1130	1209	26
94	0	0	4092	1129	1206	24
95	0	0	4092	1132	1207	23
96	0	0	4091	1134	1207	25
97	0	0	4091	1131	1207	25
98	0	0	4091	1131	1207	25
99	0	0	4092	1131	1209	25
100	0	0	4094	1132	1209	25
101	0	0	4092	1132	1210	26
102	0	0	4093	1132	1210	25
103	0	0	4089	1132	1209	25
104	0	0	4092	1131	1206	23
105	0	0	4092	1132	1205	25
106	0	0	4091	1132	1205	25
107	0	0	4092	1133	1205	24
108	0	0	4091	1131	1207	25
109	0	0	4093	1133	1208	25
110	0	0	4092	1133	1207	26
111	0	0	4091	1129	1209	25
112	0	0	4091	1131	1209	25
113	0	0	4090	1130	1208	25
114	0	0	4091	1131	1205	25
115	0	0	4092	1132	1203	25
116	0	0	4092	1134	1205	25
117	0	0	4091	1134	1205	26
118	0	0	4091	1135	1206	25
119	0	0	4093	1135	1208	26
120	0	0	4089	1134	1207	25
121	0	0	4091	1136	1209	26
122	0	0	4092	1135	1208	24
123	0	0	4091	1136	1207	25
124	0	0	4091	1135	1204	25
125	0	0	4093	1137	1203	23
126	0	0	4091	1136	1204	23
127	0	0	4091	1136	1205	24
0	0	0	4090	1137	1205	24
1	0	0	4091	1137	1207	26
2	0	0	4093	1137	1207	24
3	0	0	4091	1138	1207	26
4	0	0	4092	1138	1208	25
5	0	0	4090	1136	1207	25
6	0	0	4092	1139	1204	24
7	0	0	4093	1136	1203	25
8	0	0	4090	1140	1203	25
9	0	0	4091	1139	1204	25
10	0	0	4091	1140	1205	25
11	0	0	4091	1138	1207	26
12	0	0	4091	1140	1206	24
13	0	0	4092	1141	1207	25
14	0	0	4091	1137	1208	25
15	0	0	4091	1140	1206	28
16	0	0	4091	1140	1205	26
17	0	0	4093	1141	1202	22
18	0	0	4091	1141	1202	25
19	0	0	4091	1141	1203	24
20	0	0	4091	1141	1204	25
21	0	0	4091	1140	1206	26
22	0	0	4092	1142	1207	23
23	0	0	4091	1142	1205	25
24	0	0	4094	1142	1206	25
25	0	0	4090	1142	1205	25
26	0	0	4091	1142	1204	26
27	0	0	4092	1142	1201	22
28	0	0	4091	1142	1202	24
29	0	0	4092	1142	1203	25
30	0	0	4091	1143	1204	29
31	0	0	4092	1142	1204	24
32	0	0	4092	1143	1206	24
33	0	0	4092	1143	1206	26
34	0	0	4093	1143	1206	25
35	0	0	4090	1144	1205	25
36	0	0	4091	1143	1202	26
37	0	0	4092	1142	1201	24
38	0	0	4092	1143	1201	24
39	0	0	4093	1144	1202	24
40	0	0	4083	1146	1203	25
41	0	0	4079	1144	1205	24
42	0	0	4074	1144	1204	26
43	0	0	4068	1143	1206	25
44	0	0	4063	1143	1206	25
45	0	0	4056	1144	1205	25
46	0	0	4051	1143	1203	24
47	0	0	4047	1144	1200	25
48	0	0	4040	1143	1201	24
49	0	0	4036	1144	1202	25
50	0	0	4031	1144	1203	25
51	0	0	4024	1145	1205	26
52	0	0	4021	1145	1204	25
53	0	0	4017	1145	1206	24
54	0	0	4008	1145	1205	28
55	0	0	4004	1145	1205	25
56	0	0	4000	1145	1203	26
57	0	0	3995	1145	1201	25
58	0	0	3988	1147	1200	24
59	0	0	3984	1145	1202	24
60	0	0	3977	1145	1203	24
61	0	0	3975	1145	1204	24
62	0	0	3969	1145	1204	24
63	0	0	3962	1147	1206	24
64	0	0	3957	1145	1206	24
65	0	0	3953	1146	1205	24
66	0	0	3946	1147	1203	25
67	0	0	3943	1146	1200	24
68	0	0	3937	1145	1202	24
69	0	0	3934	1146	1203	25
70	0	0	3925	1147	1203	25
71	0	0	3923	1145	1205	25
72	0	0	3918	1147	1208	26
73	0	0	3911	1147	1206	26
74	0	0	3907	1145	1207	24
75	0	0	3903	1146	1206	27
76	0	0	3898	1145	1202	24
77	0	0	3893	1146	1202	24
78	0	0	3884	1145	1202	24
79	0	0	3883	1146	1204	25
80	0	0	3877	1146	1205	24
81	0	0	3873	1145	1207	26
82	0	0	3868	1147	1206	24
83	0	0	3862	1147	1208	25
84	0	0	3858	1146	1207	25
85	0	0	3851	1146	1206	25
86	0	0	3849	1146	1204	26
87	0	0	3845	1147	1204	25
88	0	0	3838	1145	1203	23
89	0	0	3835	1147	1205	25
90	0	0	3826	1147	1205	25
91	0	0	3826	1145	1208	25
92	0	0	3820	1147	1209	26
93	0	0	3816	1147	1209	26
94	0	0	3809	1147	1209	25
95	0	0	3806	1147	1207	26
96	0	0	3803	1147	1205	25
97	0	0	3797	1147	1204	25
98	0	0	3792	1145	1205	25
99	0	0	3788	1147	1206	24
100	0	0	3783	1147	1207	25
101	0	0	3779	1147	1208	23
102	0	0	3774	1146	1210	28
103	0	0	3762	1147	1210	25
104	0	0	3765	1147	1209	25
105	0	0	3759	1147	1207	25
106	0	0	3756	1145	1206	26
107	0	0	3751	1147	1205	26
108	0	0	3745	1144	1205	24
109	0	0	3740	1147	1206	25
110	0	0	3736	1146	1207	25
111	0	0	3734	1148	1208	24
112	0	0	3727	1147	1210	26
113	0	0	3723	1144	1211	25
114	0	0	3720	1147	1210	26
115	0	0	3712	1147	1208	26
116	0	0	3712	1146	1206	23
117	0	0	3707	1147	1206	25
118	0	0	3703	1141	1207	26
119	0	0	3697	1145	1207	25
120	0	0	3693	1149	1208	25
121	0	0	3689	1148	1208	24
122	0	0	3684	1146	1212	26
123	0	0	3680	1144	1211	25
124	0	0	3675	1146	1211	25
125	0	0	3673	1147	1208	25
126	0	0	3668	1148	1205	24
127	0	0	3664	1147	1206	26
0	0	0	3659	1144	1207	26
1	0	0	3654	1146	1208	25
2	0	0	3651	1146	1209	25
3	0	0	3648	1145	1210	23
4	0	0	3642	1145	1213	26
5	0	0	3638	1147	1213	26
6	0	0	3632	1145	1212	23
7	0	0	3629	1145	1211	26
8	0	0	3627	1145	1208	23
9	0	0	3621	1146	1207	26
10	0	0	3617	1145	1208	24
11	0	0	3613	1145	1208	25
12	0	0	3608	1145	1210	25
13	0	0	3606	1144	1212	27
14	0	0	3601	1146	1213	27
15	0	0	3596	1144	1213	27
16	0	0	3592	1145	1213	26
17	0	0	3588	1145	1211	25
18	0	0	3586	1145	1209	24
19	0	0	3581	1145	1209	24
20	0	0	3574	1145	1209	26
21	0	0	3572	1145	1210	25
22	0	0	3564	1144	1211	25
23	0	0	3565	1144	1213	26
24	0	0	3559	1145	1215	27
25	0	0	3555	1144	1214	26
26	0	0	3551	1146	1214	26
27	0	0	3547	1144	1212	26
28	0	0	3545	1144	1208	26
29	0	0	3540	1146	1211	26
30	0	0	3536	1144	1210	25
31	0	0	3530	1148	1210	26
32	0	0	3526	1145	1212	24
33	0	0	3526	1145	1212	26
34	0	0	3522	1144	1215	27
35	0	0	3517	1145	1215	26
36	0	0	3513	1145	1214	26
37	0	0	3508	1143	1213	25
38	0	0	3507	1144	1211	24
39	0	0	3503	1144	1211	27
40	0	0	3497	1144	1211	25
41	0	0	3495	1142	1213	27
42	0	0	3490	1143	1212	26
43	0	0	3487	1144	1212	26
44	0	0	3483	1144	1216	25
45	0	0	3476	1143	1216	24
46	0	0	3474	1143	1215	26
47	0	0	3470	1143	1213	27
48	0	0	3469	1144	1212	26
49	0	0	3464	1145	1211	26
50	0	0	3460	1143	1211	26
51	0	0	3456	1143	1212	25
52	0	0	3454	1143	1214	26
53	0	0	3450	1142	1214	26
54	0	0	2562	1136	1219	25
55	0	0	1231	1136	1217	25
56	0	0	452	1136	1217	21
57	0	0	8	1136	1216	25
58	0	0	0	1137	1213	23
59	0	0	0	1137	1212	26
60	0	0	0	1135	1213	26
61	0	0	0	1137	1213	26
62	0	0	0	1137	1215	26
63	0	0	0	1137	1217	24
64	0	0	0	1137	1218	25
65	0	0	0	1137	1219	25
66	0	0	0	1136	1218	25
67	0	0	0	1136	1217	26
68	0	0	0	1136	1216	24
69	0	0	0	1136	1214	26
70	0	0	0	1136	1214	26
71	0	0	0	1136	1216	26
72	0	0	0	1136	1218	25
73	0	0	0	1135	1220	26
74	0	0	0	1136	1221	26
75	0	0	0	1136	1221	25
76	0	0	0	1135	1221	25
77	0	0	0	1133	1218	24
78	0	0	0	1135	1217	24
79	0	0	0	1137	1217	25
80	0	0	1	1130	1216	25
81	0	0	0	1134	1219	24
82	0	0	0	1135	1221	25
83	0	0	0	1134	1223	27
84	0	0	0	1134	1223	25
85	0	0	0	1134	1224	25
86	0	0	0	1134	1224	26
87	0	0	0	1134	1223	25
88	0	0	0	1133	1222	25
89	0	0	0	1133	1219	24
90	0	0	0	1133	1221	25
91	0	0	0	1133	1223	26
92	0	0	0	1133	1224	25
93	0	0	0	1133	1227	27
94	0	0	0	1133	1227	25
95	0	0	0	1133	1228	25
96	0	0	0	1136	1227	26
97	0	0	0	1133	1226	26
98	0	0	0	1132	1225	27
99	0	0	0	1132	1222	24
100	0	0	0	1133	1224	25
101	0	0	0	1132	1226	26
102	0	0	0	1132	1227	27
103	0	0	0	1132	1229	26
104	0	0	0	1133	1232	25
105	0	0	0	1132	1230	26
106	0	0	0	1132	1231	26
107	0	0	0	1132	1229	27
108	0	0	0	1132	1227	26
109	0	0	0	1132	1227	26
110	0	0	0	1132	1227	26
111	0	0	0	1133	1229	26
112	0	0	0	1131	1230	25
113	0	0	0	1132	1233	26
114	0	0	0	1132	1234	25
115	0	0	0	1131	1234	25
116	0	0	0	1131	1233	25
117	0	0	0	1131	1234	26
118	0	0	0	1133	1231	31
119	0	0	0	1132	1231	24
120	0	0	0	1131	1231	26
121	0	0	0	1131	1232	25
122	0	0	0	1130	1234	24
123	0	0	0	1131	1236	27
124	0	0	0	1131	1238	24
125	0	0	0	1131	1238	26
126	0	0	0	1131	1238	26
127	0	0	0	1130	1238	27
0	0	0	0	1132	1234	25
1	0	0	0	1131	1235	24
2	0	0	0	1131	1234	26
3	0	0	3	1131	1237	25
4	0	0	10	1130	1239	27
5	0	0	15	1131	1239	26
6	0	0	22	1131	1242	24
7	0	0	28	1132	1241	27
8	0	0	36	1130	1241	26
9	0	0	39	1132	1241	24
10	0	0	44	1132	1239	27
11	0	0	50	1131	1239	24
12	0	0	57	1131	1239	26
13	0	0	62	1131	1240	26
14	0	0	68	1131	1244	28
15	0	0	71	1131	1244	26
16	0	0	81	1132	1245	25
17	0	0	86	1131	1245	26
18	0	0	91	1131	1246	27
19	0	0	100	1131	1242	26
20	0	0	99	1131	1242	26
21	0	0	108	1131	1243	24
22	0	0	113	1132	1244	25
23	0	0	120	1131	1244	26
24	0	0	125	1131	1247	29
25	0	0	130	1131	1247	27
26	0	0	138	1131	1250	25
27	0	0	142	1131	1249	25
28	0	0	148	1131	1249	26
29	0	0	154	1129	1247	26
30	0	0	156	1131	1246	27
31	0	0	164	1130	1248	25
32	0	0	170	1131	1247	26
33	0	0	176	1131	1247	27
34	0	0	181	1130	1249	24
35	0	0	186	1131	1251	26
36	0	0	190	1132	1252	26
37	0	0	197	1131	1252	25
38	0	0	203	1132	1253	26
39	0	0	207	1131	1250	26
40	0	0	213	1132	1249	25
41	0	0	218	1131	1249	25
42	0	0	223	1132	1250	26
43	0	0	227	1131	1250	25
44	0	0	234	1130	1251	24
45	0	0	235	1133	1253	26
46	0	0	244	1131	1256	28
47	0	0	249	1132	1256	27
48	0	0	254	1131	1254	26
49	0	0	259	1127	1251	28
50	0	0	267	1132	1251	26
51	0	0	270	1132	1250	25
52	0	0	275	1132	1253	26
53	0	0	279	1132	1253	26
54	0	0	285	1131	1253	26
55	0	0	288	1132	1257	27
56	0	0	295	1133	1256	25
57	0	0	299	1132	1257	27
58	0	0	308	1131	1256	26
59	0	0	309	1132	1254	26
60	0	0	315	1132	1253	28
61	0	0	321	1132	1253	24
62	0	0	324	1132	1255	25
63	0	0	328	1133	1254	26
64	0	0	337	1132	1253	25
65	0	0	337	1133	1257	27
66	0	0	343	1133	1258	26
67	0	0	348	1133	1259	27
68	0	0	356	1131	1257	26
69	0	0	358	1132	1256	27
70	0	0	361	1133	1255	27
71	0	0	367	1133	1256	28
72	0	0	372	1133	1255	28
73	0	0	379	1133	1255	26
74	0	0	381	1131	1255	28
75	0	0	385	1133	1258	27
76	0	0	390	1134	1259	27
77	0	0	396	1133	1260	27
78	0	0	402	1133	1258	26
79	0	0	405	1134	1258	26
80	0	0	409	1134	1255	26
81	0	0	414	1135	1254	25
82	0	0	418	1134	1256	25
83	0	0	423	1134	1256	26
84	0	0	427	1131	1257	25
85	0	0	431	1134	1259	27
86	0	0	438	1134	1261	29
87	0	0	440	1134	1262	27
88	0	0	445	1134	1259	27
89	0	0	450	1132	1257	28
90	0	0	455	1134	1256	26
91	0	0	460	1134	1257	28
92	0	0	463	1135	1257	25
93	0	0	467	1135	1257	26
94	0	0	474	1133	1259	26
95	0	0	475	1135	1260	26
96	0	0	481	1136	1262	27
97	0	0	484	1135	1262	27
98	0	0	488	1134	1260	27
99	0	0	494	1136	1256	26
100	0	0	498	1135	1256	26
101	0	0	503	1135	1257	26
102	0	0	507	1137	1259	27
103	0	0	510	1135	1258	27
104	0	0	515	1135	1259	26
105	0	0	521	1136	1261	26
106	0	0	523	1135	1262	25
107	0	0	528	1136	1263	27
108	0	0	533	1136	1262	27
109	0	0	537	1136	1260	27
110	0	0	541	1136	1257	31
111	0	0	544	1137	1257	26
112	0	0	550	1136	1260	27
113	0	0	553	1136	1259	27
114	0	0	558	1137	1260	27
115	0	0	560	1137	1263	27
116	0	0	566	1137	1263	29
117	0	0	570	1137	1263	27
118	0	0	574	1136	1263	27
119	0	0	577	1137	1261	27
120	0	0	584	1137	1261	29
121	0	0	587	1137	1259	27
122	0	0	590	1137	1261	26
123	0	0	593	1138	1260	26
124	0	0	598	1136	1263	29
125	0	0	600	1137	1263	27
126	0	0	606	1138	1266	26
127	0	0	612	1133	1266	24
0	0	0	612	1137	1263	27
1	0	0	618	1138	1260	27
2	0	0	623	1137	1258	26
3	0	0	626	1138	1259	23
4	0	0	629	1138	1259	26
5	0	0	633	1138	1260	27
6	0	0	640	1138	1262	27
7	0	0	639	1137	1263	25
8	0	0	644	1138	1264	23
9	0	0	649	1138	1265	26
10	0	0	653	1139	1264	26
11	0	0	657	1138	1263	24
12	0	0	658	1138	1261	27
13	0	0	664	1138	1260	26
14	0	0	668	1138	1259	27
15	0	0	672	1139	1261	27
16	0	0	675	1139	1263	27
17	0	0	680	1139	1263	26
18	0	0	684	1139	1265	23
19	0	0	686	1139	1266	26
20	0	0	690	1139	1264	26
21	0	0	694	1139	1262	27
22	0	0	699	1140	1262	28
23	0	0	702	1140	1260	24
24	0	0	704	1139	1261	26
25	0	0	709	1139	1261	27
26	0	0	714	1140	1262	27
27	0	0	716	1139	1263	29
28	0	0	722	1141	1264	26
29	0	0	724	1140	1265	26
30	0	0	727	1140	1265	26
31	0	0	732	1140	1262	27
32	0	0	736	1140	1262	29
33	0	0	738	1142	1260	24
34	0	0	741	1140	1259	27
35	0	0	745	1140	1261	23
36	0	0	749	1141	1262	27
37	0	0	750	1139	1263	29
38	0	0	757	1140	1264	25
39	0	0	759	1141	1266	23
40	0	0	763	1141	1263	27
41	0	0	768	1140	1262	27
42	0	0	770	1140	1262	28
43	0	0	773	1141	1260	24
44	0	0	775	1141	1259	26
45	0	0	780	1140	1262	27
46	0	0	783	1140	1261	27
47	0	0	787	1141	1264	29
48	0	0	788	1141	1265	24
49	0	0	794	1142	1265	26
50	0	0	800	1141	1264	26
51	0	0	800	1141	1261	27
52	0	0	804	1142	1261	30
53	0	0	807	1141	1259	24
54	0	0	811	1141	1261	26
55	0	0	814	1141	1261	26
56	0	0	817	1143	1263	26
57	0	0	821	1142	1264	29
58	0	0	823	1142	1265	24
59	0	0	828	1142	1265	26
60	0	0	830	1141	1265	26
61	0	0	834	1142	1263	28
62	0	0	840	1142	1260	26
63	0	0	840	1142	1262	26
64	0	0	844	1143	1260	27
65	0	0	849	1143	1262	27
66	0	0	851	1142	1263	27
67	0	0	855	1143	1264	26
68	0	0	855	1143	1266	28
69	0	0	860	1142	1265	26
70	0	0	864	1143	1265	27
71	0	0	867	1142	1262	27
72	0	0	870	1145	1261	27
73	0	0	873	1143	1261	24
74	0	0	876	1143	1261	25
75	0	0	880	1142	1262	27
76	0	0	884	1143	1263	27
77	0	0	887	1144	1264	26
78	0	0	888	1144	1267	24
79	0	0	892	1143	1266	25
80	0	0	897	1144	1265	26
81	0	0	900	1144	1263	27
82	0	0	903	1144	1260	26
83	0	0	905	1144	1261	24
84	0	0	907	1144	1261	24
85	0	0	911	1143	1262	27
86	0	0	914	1143	1263	26
87	0	0	915	1143	1264	24
88	0	0	919	1144	1266	28
89	0	0	924	1144	1266	26
90	0	0	926	1144	1265	26
91	0	0	930	1144	1263	29
92	0	0	931	1145	1260	27
93	0	0	935	1144	1262	25
94	0	0	939	1145	1262	26
95	0	0	940	1144	1262	27
96	0	0	944	1142	1263	26
97	0	0	950	1145	1264	25
98	0	0	951	1144	1265	28
99	0	0	953	1144	1265	26
100	0	0	956	1145	1265	26
101	0	0	960	1144	1263	27
102	0	0	963	1146	1261	27
103	0	0	964	1144	1261	24
104	0	0	968	1145	1262	26
105	0	0	971	1145	1262	26
106	0	0	974	1145	1263	27
107	0	0	979	1146	1264	26
108	0	0	980	1144	1265	26
109	0	0	983	1145	1266	26
110	0	0	984	1146	1265	26
111	0	0	988	1144	1263	29
112	0	0	993	1146	1261	27
113	0	0	993	1145	1261	28
114	0	0	997	1145	1261	28
115	0	0	1000	1145	1263	27
116	0	0	1003	1145	1262	26
117	0	0	1003	1146	1264	25
118	0	0	1009	1147	1266	30
119	0	0	1011	1145	1266	26
120	0	0	1014	1146	1265	26
121	0	0	1016	1146	1262	27
122	0	0	1019	1146	1262	24
123	0	0	1022	1147	1261	28
124	0	0	1026	1147	1261	26
125	0	0	1029	1146	1262	26
126	0	0	1031	1146	1263	26
127	0	0	1032	1147	1265	27
0	0	0	1036	1147	1265	30
1	0	0	1039	1147	1266	26
2	0	0	1042	1146	1265	26
3	0	0	1045	1146	1262	27
4	0	0	1048	1148	1262	27
5	0	0	1050	1147	1261	26
6	0	0	1052	1148	1260	26
7	0	0	1055	1147	1262	26
8	0	0	1055	1147	1263	27
9	0	0	1061	1149	1265	25
10	0	0	1064	1148	1266	26
11	0	0	1067	1148	1267	25
12	0	0	1576	1151	1265	26
13	0	0	3087	1150	1263	27
14	0	0	3908	1150	1261	27
15	0	0	4093	1153	1261	30
16	0	0	4091	1152	1262	27
17	0	0	4092	1153	1262	27
18	0	0	4092	1151	1263	26
19	0	0	4094	1156	1265	27
20	0	0	4092	1152	1265	26
21	0	0	4090	1153	1263	27
22	0	0	4092	1153	1264	27
23	0	0	4092	1155	1262	27
24	0	0	4094	1155	1262	26
25	0	0	4091	1155	1260	28
26	0	0	4092	1155	1262	27
27	0	0	4090	1155	1262	27
28	0	0	4093	1154	1264	26
29	0	0	4092	1159	1264	26
30	0	0	4093	1157	1264	27
31	0	0	4091	1158	1263	23
32	0	0	4091	1155	1264	26
33	0	0	4090	1156	1264	25
34	0	0	4092	1158	1262	28
35	0	0	4091	1158	1260	31
36	0	0	4091	1158	1261	26
37	0	0	4091	1158	1262	27
38	0	0	4092	1159	1262	27
39	0	0	4092	1159	1265	24
40	0	0	4092	1159	1264	31
41	0	0	4092	1159	1264	25
42	0	0	4092	1159	1263	27
43	0	0	4091	1160	1260	23
44	0	0	4091	1160	1259	27
45	0	0	4091	1161	1259	27
46	0	0	4091	1160	1259	26
47	0	0	4091	1161	1261	27
48	0	0	4092	1158	1263	28
49	0	0	4091	1163	1263	27
50	0	0	4090	1162	1264	29
51	0	0	4091	1162	1261	27
52	0	0	4091	1161	1263	27
53	0	0	4091	1162	1260	26
54	0	0	4093	1163	1259	26
55	0	0	4091	1163	1258	27
56	0	0	4091	1162	1258	27
57	0	0	4091	1163	1259	27
58	0	0	4092	1163	1261	26
59	0	0	4095	1163	1262	27
60	0	0	4091	1163	1263	29
61	0	0	4093	1164	1263	27
62	0	0	4090	1164	1262	27
63	0	0	4091	1164	1260	25
64	0	0	4091	1166	1259	27
65	0	0	4091	1164	1258	24
66	0	0	4091	1165	1257	26
67	0	0	4092	1166	1259	26
68	0	0	4092	1165	1262	26
69	0	0	4090	1165	1262	27
70	0	0	4091	1165	1263	23
71	0	0	4091	1165	1263	27
72	0	0	4090	1164	1263	27
73	0	0	4092	1166	1260	26
74	0	0	4091	1167	1259	27
75	0	0	4092	1166	1258	22
76	0	0	4091	1166	1256	26
77	0	0	4091	1165	1259	27
78	0	0	4092	1166	1262	27
79	0	0	4091	1165	1261	27
80	0	0	4092	1167	1263	24
81	0	0	4091	1167	1263	27
82	0	0	4090	1168	1263	27
83	0	0	4092	1167	1261	26
84	0	0	4094	1167	1258	27
85	0	0	4093	1168	1258	22
86	0	0	4091	1168	1257	26
87	0	0	4091	1168	1260	27
88	0	0	4092	1169	1260	26
89	0	0	4092	1167	1261	27
90	0	0	4093	1170	1263	27
91	0	0	4093	1169	1262	27
92	0	0	4091	1169	1262	27
93	0	0	4092	1169	1259	27
94	0	0	4092	1170	1258	26
95	0	0	4093	1170	1255	27
96	0	0	4093	1169	1258	26
97	0	0	4092	1170	1259	27
98	0	0	4091	1170	1259	26
99	0	0	4091	1168	1261	27
100	0	0	4093	1170	1263	24
101	0	0	4091	1170	1261	26
102	0	0	4092	1172	1261	27
103	0	0	4092	1170	1261	28
104	0	0	4093	1168	1257	26
105	0	0	4091	1171	1257	21
106	0	0	4091	1170	1256	24
107	0	0	4090	1172	1259	27
108	0	0	4092	1172	1260	27
109	0	0	4091	1170	1260	27
110	0	0	4093	1171	1262	24
111	0	0	4092	1172	1260	27
112	0	0	4091	1171	1259	26
113	0	0	4094	1172	1259	27
114	0	0	4085	1171	1256	27
115	0	0	4079	1172	1258	23
116	0	0	4074	1172	1256	25
117	0	0	4068	1172	1257	27
118	0	0	4063	1172	1259	27
119	0	0	4057	1167	1260	26
120	0	0	4053	1172	1261	28
121	0	0	4046	1172	1260	26
122	0	0	4043	1173	1260	27
123	0	0	4036	1174	1258	25
124	0	0	4030	1171	1256	26
125	0	0	4024	1172	1256	26
126	0	0	4017	1173	1256	26
127	0	0	4015	1175	1257	26
0	0	0	4007	1172	1259	27
1	0	0	4000	1171	1261	27
2	0	0	3997	1171	1260	27
3	0	0	3989	1172	1258	26
4	0	0	3984	1170	1260	27
5	0	0	3979	1175	1257	25
6	0	0	3973	1171	1254	23
7	0	0	3617	1168	1254	28
8	0	0	2155	1169	1256	27
9	0	0	1198	1168	1256	27
10	0	0	655	1170	1257	27
11	0	0	343	1170	1259	27
12	0	0	170	1172	1260	27
13	0	0	74	1172	1260	27
14	0	0	24	1172	1258	27
15	0	0	0	1173	1255	28
16	0	0	0	1171	1256	26
17	0	0	0	1175	1254	24
18	0	0	0	1174	1254	25
19	0	0	0	1175	1256	27
20	0	0	0	1174	1257	27
21	0	0	0	1174	1257	27
22	0	0	7	1176	1259	28
23	0	0	14	1175	1258	26
24	0	0	20	1176	1257	27
25	0	0	27	1176	1255	27
26	0	0	35	1177	1255	26
27	0	0	39	1177	1253	27
28	0	0	46	1177	1254	27
29	0	0	54	1178	1256	27
30	0	0	60	1180	1257	25
31	0	0	66	1175	1258	26
32	0	0	72	1179	1259	27
33	0	0	79	1179	1258	25
34	0	0	86	1179	1256	26
35	0	0	91	1179	1255	27
36	0	0	99	1179	1254	23
37	0	0	103	1180	1254	29
38	0	0	110	1180	1253	25
39	0	0	116	1180	1254	27
40	0	0	124	1180	1256	27
41	0	0	132	1179	1257	23
42	0	0	134	1181	1258	28
43	0	0	142	1182	1258	28
44	0	0	147	1182	1257	26
45	0	0	154	1181	1256	25
46	0	0	160	1182	1253	26
47	0	0	161	1183	1253	27
48	0	0	171	1182	1253	24
49	0	0	177	1182	1255	27
50	0	0	180	1183	1257	24
51	0	0	188	1182	1256	26
52	0	0	191	1183	1258	24
53	0	0	200	1183	1258	28
54	0	0	206	1183	1256	28
55	0	0	212	1183	1254	26
56	0	0	217	1182	1252	26
57	0	0	223	1184	1252	28
58	0	0	228	1184	1252	26
59	0	0	234	1185	1254	27
60	0	0	242	1183	1255	26
61	0	0	246	1185	1256	26
62	0	0	250	1186	1257	27
63	0	0	256	1185	1257	27
64	0	0	261	1185	1256	26
65	0	0	266	1187	1254	24
66	0	0	271	1183	1252	26
67	0	0	279	1187	1252	24
68	0	0	283	1186	1252	26
69	0	0	288	1186	1253	27
70	0	0	294	1186	1255	24
71	0	0	299	1187	1256	24
72	0	0	300	1189	1256	27
73	0	0	309	1187	1256	27
74	0	0	311	1187	1255	26
75	0	0	320	1187	1252	27
76	0	0	323	1187	1252	26
77	0	0	333	1187	1252	28
78	0	0	334	1188	1252	26
79	0	0	341	1188	1253	24
80	0	0	345	1190	1254	25
81	0	0	350	1187	1255	27
82	0	0	355	1188	1256	26
83	0	0	360	1189	1256	24
84	0	0	365	1189	1255	26
85	0	0	370	1189	1254	24
86	0	0	373	1188	1251	26
87	0	0	384	1188	1251	26
88	0	0	384	1189	1251	28
89	0	0	388	1189	1252	26
90	0	0	396	1189	1253	26
91	0	0	399	1189	1257	27
92	0	0	407	1189	1256	30
93	0	0	409	1190	1256	28
94	0	0	412	1189	1255	26
95	0	0	422	1189	1253	26
96	0	0	422	1192	1251	28
97	0	0	427	1191	1251	27
98	0	0	432	1191	1251	28
99	0	0	435	1191	1253	26
100	0	0	441	1193	1254	24
101	0	0	447	1192	1255	26
102	0	0	452	1192	1256	24
103	0	0	456	1191	1257	27
104	0	0	461	1190	1255	26
105	0	0	466	1192	1252	30
106	0	0	469	1193	1251	24
107	0	0	477	1192	1251	27
108	0	0	479	1192	1252	27
109	0	0	483	1192	1252	26
110	0	0	489	1193	1255	24
111	0	0	492	1194	1255	28
112	0	0	501	1192	1255	30
113	0	0	501	1193	1255	28
114	0	0	506	1193	1255	28
115	0	0	512	1193	1253	27
116	0	0	516	1194	1251	27
117	0	0	523	1194	1251	24
118	0	0	524	1194	1251	25
119	0	0	527	1194	1252	26
120	0	0	530	1193	1255	26
121	0	0	537	1192	1255	26
122	0	0	541	1194	1256	27
123	0	0	546	1194	1255	29
124	0	0	549	1193	1254	26
125	0	0	555	1195	1253	26
126	0	0	560	1196	1250	28
127	0	0	563	1195	1250	29
0	0	0	567	1194	1250	28
1	0	0	572	1195	1251	25
2	0	0	579	1195	1252	26
3	0	0	580	1193	1254	27
4	0	0	584	1196	1254	26
5	0	0	588	1196	1254	27
6	0	0	592	1196	1253	26
7	0	0	599	1196	1249	25
8	0	0	601	1196	1249	25
9	0	0	604	1197	1249	25
10	0	0	609	1196	1248	27
11	0	0	614	1196	1250	26
12	0	0	618	1196	1253	26
13	0	0	621	1196	1251	30
14	0	0	624	1196	1253	26
15	0	0	629	1196	1251	23
16	0	0	633	1197	1250	23
17	0	0	639	1197	1249	26
18	0	0	644	1196	1248	30
19	0	0	644	1198	1248	26
20	0	0	649	1198	1249	26
21	0	0	652	1197	1249	26
22	0	0	657	1197	1250	23
23	0	0	663	1197	1251	26
24	0	0	669	1196	1252	26
25	0	0	669	1197	1252	25
26	0	0	672	1199	1253	26
27	0	0	677	1198	1248	28
28	0	0	681	1198	1246	31
29	0	0	684	1198	1247	25
30	0	0	689	1198	1248	27
31	0	0	692	1198	1248	26
32	0	0	696	1200	1250	26
33	0	0	700	1200	1250	30
34	0	0	704	1199	1252	26
35	0	0	708	1199	1252	25
36	0	0	711	1199	1250	26
37	0	0	716	1198	1248	26
38	0	0	718	1200	1247	25
39	0	0	722	1199	1247	26
40	0	0	726	1200	1247	27
41	0	0	730	1199	1248	26
42	0	0	732	1200	1249	26
43	0	0	739	1200	1249	30
44	0	0	738	1200	1251	27
45	0	0	744	1199	1250	24
46	0	0	748	1200	1250	23
47	0	0	752	1201	1248	26
48	0	0	756	1201	1246	30
49	0	0	760	1200	1246	28
50	0	0	763	1199	1247	27
51	0	0	766	1201	1247	27
52	0	0	768	1201	1249	26
53	0	0	775	1199	1248	25
54	0	0	777	1202	1251	25
55	0	0	775	1204	1250	25
56	0	0	784	1200	1247	26
57	0	0	787	1202	1248	26
58	0	0	791	1201	1245	30
59	0	0	796	1201	1246	26
60	0	0	800	1202	1246	24
61	0	0	802	1201	1247	26
62	0	0	804	1202	1249	26
63	0	0	809	1204	1250	25
64	0	0	813	1202	1250	26
65	0	0	815	1201	1250	25
66	0	0	818	1201	1249	26
67	0	0	823	1202	1248	23
68	0	0	824	1204	1246	26
69	0	0	830	1202	1246	27
70	0	0	833	1202	1246	24
71	0	0	836	1203	1247	26
72	0	0	840	1203	1247	24
73	0	0	842	1202	1249	23
74	0	0	847	1203	1250	26
75	0	0	849	1202	1249	23
76	0	0	853	1202	1249	26
77	0	0	855	1203	1245	27
78	0	0	861	1202	1244	26
79	0	0	863	1202	1245	25
80	0	0	866	1203	1244	25
81	0	0	870	1203	1246	27
82	0	0	872	1203	1248	23
83	0	0	876	1204	1248	26
84	0	0	879	1203	1249	25
85	0	0	883	1204	1249	25
86	0	0	888	1203	1248	26
87	0	0	888	1204	1246	24
88	0	0	892	1206	1244	24
89	0	0	895	1203	1244	29
90	0	0	900	1204	1244	24
91	0	0	900	1205	1245	26
92	0	0	904	1205	1247	27
93	0	0	908	1203	1248	24
94	0	0	911	1205	1249	26
95	0	0	915	1204	1248	24
96	0	0	917	1204	1247	26
97	0	0	921	1204	1245	26
98	0	0	925	1207	1244	26
99	0	0	926	1205	1243	26
100	0	0	930	1206	1244	26
101	0	0	932	1205	1245	26
102	0	0	937	1205	1247	23
103	0	0	940	1207	1247	26
104	0	0	943	1205	1248	25
105	0	0	946	1205	1248	24
106	0	0	949	1205	1245	25
107	0	0	951	1206	1244	23
108	0	0	954	1204	1242	25
109	0	0	959	1205	1244	27
110	0	0	961	1206	1243	16
111	0	0	964	1207	1243	25
112	0	0	967	1206	1246	27
113	0	0	970	1205	1246	26
114	0	0	974	1206	1248	25
115	0	0	976	1207	1248	26
116	0	0	979	1208	1247	27
117	0	0	982	1207	1244	24
118	0	0	987	1206	1243	26
119	0	0	990	1208	1243	26
120	0	0	991	1208	1243	26
121	0	0	994	1207	1246	27
122	0	0	997	1208	1246	24
123	0	0	1000	1207	1246	26
124	0	0	1003	1207	1248	25
125	0	0	1006	1208	1248	27
126	0	0	1008	1208	1247	25
127	0	0	1011	1208	1245	27
0	0	0	1014	1207	1242	25
1	0	0	1015	1208	1243	26
2	0	0	1021	1209	1244	26
3	0	0	1024	1208	1245	27
4	0	0	1025	1209	1246	25
5	0	0	1030	1209	1248	25
6	0	0	1033	1209	1248	25
7	0	0	1034	1210	1247	28
8	0	0	1038	1208	1247	27
9	0	0	1039	1210	1244	23
10	0	0	1043	1209	1242	25
11	0	0	1043	1210	1242	26
12	0	0	1048	1210	1242	25
13	0	0	1050	1210	1244	26
14	0	0	1053	1210	1246	24
15	0	0	1057	1210	1247	28
16	0	0	1059	1208	1248	27
17	0	0	1062	1210	1247	28
18	0	0	1065	1211	1247	27
19	0	0	1068	1211	1245	26
20	0	0	1071	1212	1243	26
21	0	0	1072	1212	1243	26
22	0	0	1076	1212	1243	26
23	0	0	1080	1210	1244	26
24	0	0	1083	1211	1245	26
25	0	0	1084	1212	1246	27
26	0	0	1085	1212	1247	27
27	0	0	1087	1211	1247	28
28	0	0	1095	1211	1245	26
29	0	0	1095	1211	1243	26
30	0	0	1097	1213	1242	26
31	0	0	1100	1214	1242	25
32	0	0	1102	1212	1241	27
33	0	0	1105	1213	1243	25
34	0	0	1108	1212	1244	26
35	0	0	1111	1212	1246	27
36	0	0	1113	1213	1246	27
37	0	0	1115	1213	1246	28
38	0	0	1118	1215	1245	26
39	0	0	1120	1214	1243	24
40	0	0	1123	1214	1241	27
41	0	0	1124	1215	1241	25
42	0	0	1127	1214	1242	23
43	0	0	1130	1214	1243	26
44	0	0	1133	1215	1244	24
45	0	0	1135	1213	1245	27
46	0	0	1136	1216	1245	27
47	0	0	1140	1215	1246	31
48	0	0	1142	1215	1245	24
49	0	0	1147	1215	1242	26
50	0	0	1148	1216	1241	28
51	0	0	1149	1216	1241	26
52	0	0	1153	1216	1241	26
53	0	0	1155	1216	1242	26
54	0	0	1158	1216	1243	26
55	0	0	1160	1217	1245	26
56	0	0	1160	1216	1246	27
57	0	0	1165	1216	1245	27
58	0	0	1168	1219	1244	24
59	0	0	1169	1217	1242	28
60	0	0	1173	1216	1240	28
61	0	0	1172	1218	1241	25
62	0	0	1177	1217	1240	23
63	0	0	1179	1218	1242	26
64	0	0	1184	1215	1242	25
65	0	0	1184	1216	1245	27
66	0	0	1186	1219	1246	27
67	0	0	1189	1218	1245	26
68	0	0	1192	1219	1243	26
69	0	0	1193	1218	1240	26
70	0	0	1196	1220	1240	26
71	0	0	1195	1218	1240	26
72	0	0	1200	1219	1240	23
73	0	0	1205	1219	1241	26
74	0	0	1207	1219	1241	26
75	0	0	1208	1220	1244	28
76	0	0	1209	1219	1245	27
77	0	0	1211	1220	1244	23
78	0	0	1215	1219	1243	26
79	0	0	1216	1220	1242	26
80	0	0	1219	1218	1240	26
81	0	0	1220	1221	1239	26
82	0	0	1224	1221	1239	24
83	0	0	1226	1221	1240	26
84	0	0	1228	1221	1240	28
85	0	0	1230	1220	1243	27
86	0	0	1232	1220	1243	27
87	0	0	1235	1221	1243	25
88	0	0	1237	1220	1241	26
89	0	0	1240	1223	1238	25
90	0	0	1241	1223	1238	23
91	0	0	1244	1223	1237	25
92	0	0	1245	1222	1237	23
93	0	0	1249	1223	1239	26
94	0	0	1250	1223	1240	26
95	0	0	1253	1224	1241	27
96	0	0	1254	1223	1241	25
97	0	0	1257	1223	1241	23
98	0	0	1257	1223	1240	27
99	0	0	1261	1223	1239	27
100	0	0	1263	1224	1236	26
101	0	0	1266	1223	1235	24
102	0	0	1268	1223	1236	24
103	0	0	1268	1226	1236	25
104	0	0	1272	1224	1237	28
105	0	0	1274	1222	1240	26
106	0	0	1276	1224	1240	25
107	0	0	1278	1225	1239	26
108	0	0	1279	1226	1237	26
109	0	0	1282	1225	1236	25
110	0	0	1285	1224	1234	25
111	0	0	1286	1224	1236	24
112	0	0	1289	1225	1234	23
113	0	0	1291	1226	1236	27
114	0	0	1292	1225	1238	28
115	0	0	1295	1224	1238	26
116	0	0	1296	1224	1238	26
117	0	0	1300	1226	1237	24
118	0	0	1301	1226	1237	27
119	0	0	1302	1226	1236	26
120	0	0	1307	1228	1232	24
121	0	0	1306	1225	1232	25
122	0	0	1310	1226	1232	21
123	0	0	1314	1226	1231	26
124	0	0	1313	1226	1233	24
125	0	0	1315	1226	1236	25
126	0	0	1317	1226	1235	27
127	0	0	1320	1227	1235	24
0	0	0	1323	1227	1235	26
1	0	0	1323	1227	1233	26
2	0	0	1324	1229	1229	25
3	0	0	1327	1226	1228	26
4	0	0	1330	1228	1229	24
5	0	0	1331	1227	1230	27
6	0	0	1333	1226	1231	26
7	0	0	1335	1228	1233	26
8	0	0	1338	1228	1233	25
9	0	0	1338	1228	1232	24
10	0	0	1339	1228	1231	26
11	0	0	1344	1231	1228	24
12	0	0	1346	1228	1225	25
13	0	0	1347	1229	1226	25
14	0	0	1349	1228	1226	24
15	0	0	1351	1230	1227	26
16	0	0	1352	1229	1228	26
17	0	0	1355	1229	1230	27
18	0	0	1357	1230	1230	25
19	0	0	1358	1229	1229	24
20	0	0	1359	1230	1228	25
21	0	0	1362	1230	1224	28
22	0	0	1363	1230	1223	25
23	0	0	1366	1230	1224	25
24	0	0	1367	1229	1224	20
25	0	0	1368	1230	1225	25
26	0	0	1373	1229	1225	26
27	0	0	1373	1230	1228	27
28	0	0	1375	1229	1228	25
29	0	0	1376	1230	1228	26
30	0	0	1378	1230	1226	25
31	0	0	1382	1229	1224	25
32	0	0	1383	1230	1221	24
33	0	0	1384	1230	1222	25
34	0	0	1387	1231	1222	25
35	0	0	1389	1232	1223	25
36	0	0	1391	1231	1224	23
37	0	0	1392	1232	1224	25
38	0	0	1394	1233	1227	25
39	0	0	1395	1234	1227	22
40	0	0	1397	1234	1226	26
41	0	0	1400	1235	1221	25
42	0	0	1401	1238	1220	24
43	0	0	1402	1238	1220	25
44	0	0	1404	1238	1219	24
45	0	0	1405	1239	1222	24
46	0	0	1409	1240	1223	25
47	0	0	1409	1239	1224	24
48	0	0	1411	1237	1224	25
49	0	0	1413	1239	1225	24
50	0	0	1414	1238	1224	25
51	0	0	1417	1238	1222	24
52	0	0	1419	1238	1220	23
53	0	0	1420	1239	1220	25
54	0	0	1423	1238	1221	25
55	0	0	1424	1238	1221	25
56	0	0	1425	1235	1223	26
57	0	0	1428	1240	1225	25
58	0	0	1428	1241	1225	24
59	0	0	1431	1242	1225	24
60	0	0	1433	1244	1223	25
61	0	0	1433	1246	1221	24
62	0	0	1436	1249	1218	24
63	0	0	1437	1251	1219	24
64	0	0	1438	1250	1220	25
65	0	0	1440	1250	1221	25
66	0	0	1442	1250	1223	25
67	0	0	1442	1251	1224	26
68	0	0	1446	1251	1225	25
69	0	0	1447	1248	1224	26
70	0	0	1450	1246	1223	25
71	0	0	1449	1247	1221	24
72	0	0	1452	1245	1219	24
73	0	0	1455	1246	1220	24
74	0	0	1456	1244	1220	25
75	0	0	1459	1245	1222	24
76	0	0	1459	1245	1223	24
77	0	0	1460	1248	1224	25
78	0	0	1462	1249	1226	25
79	0	0	1464	1251	1226	25
80	0	0	1466	1253	1224	25
81	0	0	1467	1258	1222	24
82	0	0	1469	1259	1219	24
83	0	0	1470	1262	1220	25
84	0	0	1472	1262	1221	24
85	0	0	1475	1259	1222	25
86	0	0	1475	1260	1224	25
87	0	0	1478	1260	1224	25
88	0	0	1479	1258	1226	25
89	0	0	1480	1257	1226	26
90	0	0	1482	1254	1226	25
91	0	0	1483	1253	1222	26
92	0	0	1485	1250	1220	26
93	0	0	1486	1250	1221	25
94	0	0	1487	1249	1221	25
95	0	0	1488	1249	1223	25
96	0	0	1491	1252	1224	25
97	0	0	1493	1252	1226	27
98	0	0	1497	1257	1227	25
99	0	0	1496	1258	1227	25
100	0	0	1498	1259	1226	25
101	0	0	1498	1266	1223	26
102	0	0	1500	1270	1224	25
103	0	0	1504	1272	1222	24
104	0	0	1504	1273	1223	25
105	0	0	1506	1271	1223	24
106	0	0	1506	1272	1225	24
107	0	0	1507	1268	1227	27
108	0	0	1510	1267	1228	24
109	0	0	1511	1262	1228	25
110	0	0	1513	1258	1226	25
111	0	0	1513	1255	1223	24
112	0	0	1515	1251	1222	26
113	0	0	1516	1253	1223	25
114	0	0	1518	1249	1224	26
115	0	0	1520	1249	1225	25
116	0	0	1522	1250	1227	26
117	0	0	1522	1254	1230	26
118	0	0	1524	1257	1229	26
119	0	0	1525	1262	1229	24
120	0	0	1527	1265	1229	26
121	0	0	1528	1274	1225	27
122	0	0	1530	1278	1223	26
123	0	0	1532	1283	1224	26
124	0	0	1532	1282	1224	25
125	0	0	1533	1280	1226	24
126	0	0	1537	1279	1227	25
127	0	0	1538	1275	1229	26
0	0	0	1540	1272	1230	25
1	0	0	1542	1268	1230	25
2	0	0	1543	1263	1228	25
3	0	0	1544	1260	1226	25
4	0	0	1544	1256	1224	27
5	0	0	1548	1255	1225	25
6	0	0	1548	1254	1224	24
7	0	0	1550	1253	1227	25
8	0	0	1551	1256	1231	27
9	0	0	1553	1259	1230	26
10	0	0	1554	1263	1231	25
11	0	0	1555	1267	1231	27
12	0	0	1557	1273	1231	25
13	0	0	1558	1279	1227	23
14	0	0	1560	1286	1226	26
15	0	0	1560	1289	1228	26
16	0	0	1562	1288	1226	26
17	0	0	1564	1287	1228	26
18	0	0	1564	1287	1229	26
19	0	0	1566	1282	1231	30
20	0	0	1567	1278	1233	24
21	0	0	1568	1275	1232	24
22	0	0	1572	1271	1230	26
23	0	0	1571	1269	1226	25
24	0	0	1573	1263	1227	23
25	0	0	1574	1261	1225	25
26	0	0	1575	1260	1228	26
27	0	0	1577	1262	1229	25
28	0	0	1579	1262	1233	25
29	0	0	1580	1264	1233	24
30	0	0	1582	1270	1233	25
31	0	0	1582	1274	1233	24
32	0	0	1583	1280	1230	26
33	0	0	1584	1285	1229	27
34	0	0	1586	1291	1226	26
35	0	0	1587	1292	1228	25
36	0	0	1588	1294	1228	26
37	0	0	1590	1293	1230	27
38	0	0	1592	1291	1231	27
39	0	0	1593	1291	1234	23
40	0	0	1593	1286	1234	26
41	0	0	1595	1283	1234	27
42	0	0	1596	1280	1233	26
43	0	0	1598	1276	1231	26
44	0	0	1600	1274	1227	26
45	0	0	1600	1272	1228	25
46	0	0	1602	1272	1229	25
47	0	0	1605	1272	1231	26
48	0	0	1604	1273	1232	25
49	0	0	1606	1277	1234	25
50	0	0	1606	1278	1236	25
51	0	0	1608	1285	1235	26
52	0	0	1609	1289	1234	26
53	0	0	1609	1297	1230	26
54	0	0	1612	1301	1227	26
55	0	0	1612	1304	1229	26
56	0	0	1615	1302	1230	26
57	0	0	1616	1306	1232	25
58	0	0	1616	1302	1234	26
59	0	0	1618	1301	1236	23
60	0	0	1618	1296	1236	26
61	0	0	1619	1294	1234	26
62	0	0	1622	1290	1234	30
63	0	0	1622	1285	1231	27
64	0	0	1624	1283	1231	25
65	0	0	1625	1282	1230	26
66	0	0	1625	1281	1231	27
67	0	0	1627	1282	1232	26
68	0	0	1628	1283	1235	27
69	0	0	1631	1287	1234	24
70	0	0	1631	1290	1236	26
71	0	0	1632	1291	1238	26
72	0	0	1633	1296	1235	30
73	0	0	1634	1300	1232	26
74	0	0	1635	1300	1229	24
75	0	0	1637	1299	1230	27
76	0	0	1637	1298	1231	26
77	0	0	1639	1297	1232	24
78	0	0	1639	1296	1236	27
79	0	0	1641	1296	1235	26
80	0	0	1643	1295	1238	25
81	0	0	1643	1294	1237	27
82	0	0	1645	1293	1236	26
83	0	0	1646	1294	1234	26
84	0	0	1647	1292	1230	26
85	0	0	1648	1292	1231	27
86	0	0	1649	1291	1231	21
87	0	0	1651	1291	1233	26
88	0	0	1652	1290	1237	26
89	0	0	1653	1289	1235	26
90	0	0	1654	1290	1238	25
91	0	0	1655	1288	1238	26
92	0	0	1655	1288	1236	26
93	0	0	1658	1286	1232	24
94	0	0	1659	1286	1231	27
95	0	0	1658	1286	1232	26
96	0	0	1660	1286	1232	27
97	0	0	1662	1285	1234	26
98	0	0	1661	1284	1237	27
99	0	0	1664	1284	1237	24
100	0	0	1664	1284	1239	26
101	0	0	1666	1283	1239	24
102	0	0	1666	1284	1237	25
103	0	0	1668	1282	1233	24
104	0	0	1669	1280	1232	26
105	0	0	1669	1281	1232	26
106	0	0	1671	1281	1233	26
107	0	0	1672	1280	1235	26
108	0	0	1672	1280	1237	25
109	0	0	1674	1280	1238	26
110	0	0	1675	1279	1239	25
111	0	0	1676	1279	1240	27
112	0	0	1677	1279	1238	24
113	0	0	1679	1278	1236	24
114	0	0	1679	1278	1232	25
115	0	0	1680	1277	1232	24
116	0	0	1681	1277	1233	25
117	0	0	1683	1277	1235	25
118	0	0	1683	1276	1238	24
119	0	0	1685	1276	1239	25
120	0	0	1683	1278	1240	25
121	0	0	1687	1275	1240	25
122	0	0	1687	1276	1238	25
123	0	0	1690	1276	1235	26
124	0	0	1690	1274	1232	25
125	0	0	1691	1273	1233	24
126	0	0	1692	1274	1235	23
127	0	0	1692	1273	1236	25
0	0	0	1694	1273	1239	26
1	0	0	1694	1273	1240	26
2	0	0	1696	1273	1241	25
3	0	0	1696	1273	1241	26
4	0	0	1698	1273	1239	26
5	0	0	1700	1273	1235	26
6	0	0	1700	1271	1234	25
7	0	0	1697	1271	1232	25
8	0	0	1703	1272	1235	25
9	0	0	1702	1272	1237	25
10	0	0	1703	1271	1239	25
11	0	0	1705	1271	1241	26
12	0	0	1772	1273	1241	26
13	0	0	1852	1274	1241	25
14	0	0	1881	1272	1239	26
15	0	0	1873	1271	1235	24
16	0	0	1807	1269	1232	24
17	0	0	1773	1270	1234	25
18	0	0	1775	1270	1236	25
19	0	0	1784	1271	1237	25
20	0	0	1793	1269	1241	25
21	0	0	1774	1269	1242	26
22	0	0	1742	1269	1241	26
23	0	0	1726	1268	1241	30
24	0	0	1720	1268	1239	25
25	0	0	1719	1269	1237	22
26	0	0	1718	1269	1234	25
27	0	0	1744	1271	1233	25
28	0	0	1774	1270	1235	23
29	0	0	1780	1269	1236	25
30	0	0	1803	1272	1239	27
31	0	0	1839	1270	1240	26
32	0	0	1889	1271	1241	25
33	0	0	1930	1270	1241	26
34	0	0	1958	1270	1239	27
35	0	0	1991	1269	1236	26
36	0	0	1993	1267	1232	26
37	0	0	1966	1265	1233	25
38	0	0	1937	1267	1235	25
39	0	0	1939	1268	1237	25
40	0	0	1934	1267	1238	26
41	0	0	1897	1266	1241	25
42	0	0	1865	1264	1241	25
43	0	0	1852	1266	1241	26
44	0	0	1828	1268	1238	24
45	0	0	1780	1266	1232	24
46	0	0	1752	1265	1234	25
47	0	0	1739	1264	1233	25
48	0	0	1807	1269	1235	26
49	0	0	1886	1270	1235	25
50	0	0	1971	1269	1239	22
51	0	0	2019	1269	1240	26
52	0	0	2038	1269	1240	26
53	0	0	2078	1269	1240	25
54	0	0	2132	1269	1238	27
55	0	0	2175	1269	1234	23
56	0	0	2180	1267	1233	24
57	0	0	2168	1265	1232	25
58	0	0	2190	1268	1234	25
59	0	0	2191	1267	1234	25
60	0	0	2185	1267	1238	23
61	0	0	2154	1265	1240	26
62	0	0	2082	1262	1240	25
63	0	0	1987	1264	1240	26
64	0	0	1863	1263	1237	26
65	0	0	1795	1265	1232	24
66	0	0	1760	1265	1234	26
67	0	0	1784	1268	1232	24
68	0	0	1903	1268	1233	24
69	0	0	2028	1267	1234	24
70	0	0	2154	1267	1238	27
71	0	0	2248	1267	1238	26
72	0	0	2300	1268	1240	25
73	0	0	2354	1267	1239	25
74	0	0	2411	1268	1237	25
75	0	0	2461	1267	1233	26
76	0	0	2474	1267	1231	27
77	0	0	2440	1264	1231	26
78	0	0	2435	1268	1232	23
79	0	0	2453	1268	1234	23
80	0	0	2450	1264	1237	23
81	0	0	2388	1265	1239	25
82	0	0	2300	1264	1240	26
83	0	0	2210	1264	1239	25
84	0	0	2092	1264	1236	26
85	0	0	1952	1263	1233	23
86	0	0	1918	1268	1229	25
87	0	0	1971	1268	1231	26
88	0	0	2055	1267	1232	25
89	0	0	2180	1266	1234	26
90	0	0	2327	1267	1237	24
91	0	0	2425	1268	1239	26
92	0	0	2478	1265	1239	26
93	0	0	2521	1267	1238	25
94	0	0	2567	1267	1236	25
95	0	0	2618	1269	1230	25
96	0	0	2601	1266	1231	27
97	0	0	2572	1264	1230	25
98	0	0	2530	1264	1232	25
99	0	0	2476	1264	1233	25
100	0	0	2415	1264	1236	26
101	0	0	2344	1264	1239	26
102	0	0	2287	1265	1239	25
103	0	0	2227	1264	1238	21
104	0	0	2178	1264	1236	25
105	0	0	2110	1264	1232	22
106	0	0	2096	1268	1229	26
107	0	0	2137	1267	1230	26
108	0	0	2197	1268	1231	26
109	0	0	2267	1267	1233	25
110	0	0	2355	1268	1234	23
111	0	0	2439	1268	1238	26
112	0	0	2503	1266	1238	26
113	0	0	2570	1268	1237	26
114	0	0	2636	1268	1235	25
115	0	0	2688	1268	1231	25
116	0	0	2632	1264	1231	27
117	0	0	2553	1264	1229	26
118	0	0	2480	1264	1230	25
119	0	0	2427	1265	1233	25
120	0	0	2386	1265	1235	28
121	0	0	2314	1264	1237	26
122	0	0	2206	1264	1237	25
123	0	0	2084	1264	1237	25
124	0	0	1974	1264	1234	25
125	0	0	1875	1264	1231	24
126	0	0	1847	1266	1230	27
127	0	0	1869	1267	1229	26
0	0	0	1902	1268	1230	24
1	0	0	1997	1268	1232	24
2	0	0	2136	1267	1235	26
3	0	0	2255	1268	1235	25
4	0	0	2317	1269	1237	24
5	0	0	2321	1267	1236	25
6	0	0	2319	1269	1233	25
7	0	0	2361	1268	1230	26
8	0	0	2394	1269	1229	27
9	0	0	2363	1265	1228	24
10	0	0	2271	1264	1229	26
11	0	0	2182	1265	1231	26
12	0	0	2156	1265	1235	26
13	0	0	2099	1265	1235	25
14	0	0	2008	1264	1235	26
15	0	0	1907	1264	1235	25
16	0	0	1833	1265	1233	27
17	0	0	1768	1265	1230	27
18	0	0	1758	1268	1227	25
19	0	0	1779	1268	1225	26
20	0	0	1796	1269	1228	25
21	0	0	1853	1269	1231	25
22	0	0	1969	1269	1232	25
23	0	0	2103	1268	1235	25
24	0	0	2193	1269	1236	25
25	0	0	2245	1269	1235	25
26	0	0	2287	1270	1233	25
27	0	0	2317	1270	1229	23
28	0	0	2288	1265	1226	25
29	0	0	2221	1265	1227	26
30	0	0	2155	1265	1228	24
31	0	0	2127	1266	1231	25
32	0	0	2107	1266	1233	23
33	0	0	2065	1266	1236	23
34	0	0	2006	1266	1236	25
35	0	0	1936	1265	1235	25
36	0	0	1879	1265	1234	26
37	0	0	1788	1267	1229	25
38	0	0	1729	1266	1227	24
39	0	0	1747	1270	1227	25
40	0	0	1788	1270	1228	25
41	0	0	1842	1269	1231	27
42	0	0	1941	1269	1234	26
43	0	0	2019	1270	1236	23
44	0	0	2064	1270	1235	24
45	0	0	2095	1270	1235	26
46	0	0	2161	1271	1233	25
47	0	0	2260	1269	1229	25
48	0	0	2314	1270	1225	24
49	0	0	2306	1266	1227	26
50	0	0	2273	1267	1228	25
51	0	0	2200	1266	1231	26
52	0	0	2099	1267	1234	23
53	0	0	2018	1267	1237	23
54	0	0	1961	1267	1237	24
55	0	0	1922	1266	1236	26
56	0	0	1897	1267	1235	27
57	0	0	1839	1267	1228	24
58	0	0	1828	1270	1227	24
59	0	0	1884	1270	1227	25
60	0	0	1952	1270	1229	26
61	0	0	2022	1270	1231	26
62	0	0	2066	1271	1235	26
63	0	0	2097	1270	1234	24
64	0	0	2148	1270	1235	25
65	0	0	2208	1271	1236	24
66	0	0	2229	1271	1234	25
67	0	0	2252	1271	1228	25
68	0	0	2285	1270	1227	23
69	0	0	2284	1269	1228	25
70	0	0	2278	1270	1229	24
71	0	0	2261	1269	1232	24
72	0	0	2218	1267	1235	29
73	0	0	2142	1266	1237	23
74	0	0	2055	1267	1237	25
75	0	0	1979	1267	1238	25
76	0	0	1934	1268	1235	25
77	0	0	1881	1269	1231	24
78	0	0	1866	1271	1230	24
79	0	0	1876	1271	1229	24
80	0	0	1922	1272	1232	26
81	0	0	1986	1271	1234	25
82	0	0	2059	1273	1234	25
83	0	0	2126	1271	1238	24
84	0	0	2176	1271	1236	26
85	0	0	2216	1271	1237	25
86	0	0	2227	1273	1235	25
87	0	0	2258	1271	1229	24
88	0	0	2312	1272	1229	23
89	0	0	2336	1273	1230	25
90	0	0	2336	1270	1231	26
91	0	0	2310	1269	1234	24
92	0	0	2267	1269	1236	24
93	0	0	2245	1269	1239	26
94	0	0	2206	1269	1240	25
95	0	0	2185	1270	1240	25
96	0	0	2170	1269	1236	25
97	0	0	2085	1268	1234	26
98	0	0	1983	1269	1231	23
99	0	0	1975	1273	1231	26
100	0	0	2044	1273	1232	25
101	0	0	2132	1274	1233	24
102	0	0	2199	1271	1235	24
103	0	0	2218	1272	1241	24
104	0	0	2237	1269	1239	26
105	0	0	2318	1272	1239	24
106	0	0	2407	1272	1236	26
107	0	0	2469	1273	1231	25
108	0	0	2506	1273	1231	24
109	0	0	2458	1269	1232	25
110	0	0	2367	1269	1233	28
111	0	0	2304	1269	1236	25
112	0	0	2288	1272	1238	28
113	0	0	2295	1272	1241	23
114	0	0	2254	1270	1240	25
115	0	0	2219	1270	1240	26
116	0	0	2147	1268	1237	26
117	0	0	2021	1269	1234	25
118	0	0	1964	1272	1232	26
119	0	0	2021	1273	1232	21
120	0	0	2109	1274	1232	25
121	0	0	2168	1274	1234	24
122	0	0	2212	1273	1238	26
123	0	0	2261	1274	1239	23
124	0	0	2310	1273	1238	26
125	0	0	2369	1274	1239	25
126	0	0	2428	1273	1236	25
127	0	0	2462	1274	1232	25
0	0	0	2441	1270	1231	25
1	0	0	2359	1270	1232	24
2	0	0	2281	1270	1232	25
3	0	0	2233	1272	1232	25
4	0	0	2175	1270	1236	24
5	0	0	2118	1270	1239	26
6	0	0	2114	1275	1240	24
7	0	0	2156	1275	1239	26
8	0	0	2192	1274	1236	25
9	0	0	2204	1274	1232	24
10	0	0	2208	1274	1230	25
11	0	0	2181	1271	1231	25
12	0	0	2164	1275	1231	26
13	0	0	2195	1274	1233	25
14	0	0	2213	1275	1235	25
15	0	0	2278	1275	1237	25
16	0	0	2372	1277	1239	26
17	0	0	2437	1274	1237	25
18	0	0	2488	1276	1232	24
19	0	0	2541	1274	1229	24
20	0	0	2554	1274	1229	23
21	0	0	2502	1270	1230	24
22	0	0	2446	1273	1230	26
23	0	0	2462	1275	1232	26
24	0	0	2483	1274	1236	24
25	0	0	2444	1273	1238	26
26	0	0	2376	1272	1238	25
27	0	0	2285	1272	1237	27
28	0	0	2207	1272	1234	25
29	0	0	2144	1273	1229	25
30	0	0	2137	1277	1227	24
31	0	0	2171	1276	1228	25
32	0	0	2210	1275	1228	28
33	0	0	2261	1276	1229	27
34	0	0	2307	1276	1231	25
35	0	0	2368	1276	1234	23
36	0	0	2470	1276	1236	25
37	0	0	2552	1275	1233	24
38	0	0	2611	1276	1229	24
39	0	0	2660	1276	1228	24
40	0	0	2651	1274	1227	26
41	0	0	2617	1273	1226	25
42	0	0	2553	1272	1226	25
43	0	0	2420	1272	1228	25
44	0	0	2352	1274	1231	28
45	0	0	2368	1277	1232	23
46	0	0	2325	1273	1233	24
47	0	0	2220	1272	1231	26
48	0	0	2124	1272	1230	24
49	0	0	2071	1277	1225	25
50	0	0	2176	1276	1223	26
51	0	0	2292	1276	1224	25
52	0	0	2345	1277	1224	24
53	0	0	2397	1278	1225	24
54	0	0	2490	1277	1228	25
55	0	0	2611	1277	1229	27
56	0	0	2702	1278	1231	24
57	0	0	2746	1277	1228	25
58	0	0	2754	1277	1225	24
59	0	0	2768	1278	1221	25
60	0	0	2775	1277	1220	24
61	0	0	2781	1277	1221	24
62	0	0	2773	1273	1221	24
63	0	0	2700	1274	1222	24
64	0	0	2607	1274	1223	24
65	0	0	2577	1277	1226	23
66	0	0	2599	1278	1226	25
67	0	0	2615	1277	1225	23
68	0	0	2618	1277	1222	24
69	0	0	2603	1278	1220	25
70	0	0	2643	1278	1216	23
71	0	0	2725	1277	1218	24
72	0	0	2830	1277	1217	24
73	0	0	2950	1279	1219	24
74	0	0	3068	1278	1222	24
75	0	0	3151	1279	1223	26
76	0	0	3216	1280	1222	25
77	0	0	3289	1278	1222	25
78	0	0	3337	1280	1218	25
79	0	0	3375	1278	1215	27
80	0	0	3393	1279	1213	25
81	0	0	3386	1278	1215	25
82	0	0	3401	1278	1213	25
83	0	0	3382	1276	1216	24
84	0	0	3311	1274	1220	24
85	0	0	3191	1274	1219	25
86	0	0	3036	1274	1218	24
87	0	0	2876	1274	1217	23
88	0	0	2745	1275	1214	25
89	0	0	2635	1275	1213	27
90	0	0	2600	1277	1209	25
91	0	0	2591	1279	1207	26
92	0	0	2593	1279	1210	25
93	0	0	2614	1279	1212	25
94	0	0	2623	1279	1215	26
95	0	0	2633	1279	1215	23
96	0	0	2607	1275	1215	25
97	0	0	2553	1276	1214	25
98	0	0	2531	1278	1211	24
99	0	0	2544	1279	1208	24
100	0	0	2558	1279	1206	21
101	0	0	2549	1277	1206	23
102	0	0	2509	1276	1207	25
103	0	0	2438	1275	1208	25
104	0	0	2285	1275	1211	29
105	0	0	2111	1275	1212	23
106	0	0	2070	1279	1212	25
107	0	0	2256	1280	1211	26
108	0	0	2453	1279	1207	24
109	0	0	2501	1279	1205	27
110	0	0	2450	1276	1203	21
111	0	0	2387	1276	1204	24
112	0	0	2340	1277	1204	24
113	0	0	2300	1276	1207	24
114	0	0	2265	1276	1206	24
115	0	0	2290	1280	1209	29
116	0	0	2410	1280	1209	29
117	0	0	2482	1280	1209	26
118	0	0	2502	1281	1206	26
119	0	0	2515	1281	1202	26
120	0	0	2535	1280	1201	28
121	0	0	2494	1276	1200	23
122	0	0	2417	1276	1202	24
123	0	0	2408	1281	1203	25
124	0	0	2431	1281	1205	25
125	0	0	2455	1280	1207	24
126	0	0	2416	1276	1207	23
127	0	0	2380	1278	1207	24
0	0	0	2366	1278	1204	24
1	0	0	2347	1279	1202	26
2	0	0	2362	1282	1199	24
3	0	0	2419	1282	1200	28
4	0	0	2489	1281	1200	28
5	0	0	2501	1280	1203	26
6	0	0	2498	1282	1204	25
7	0	0	2520	1283	1206	25
8	0	0	2561	1282	1203	22
9	0	0	2567	1280	1205	29
10	0	0	2510	1277	1203	25
11	0	0	2432	1278	1199	27
12	0	0	2439	1282	1198	27
13	0	0	2581	1283	1198	26
14	0	0	2643	1281	1199	27
15	0	0	2601	1278	1201	23
16	0	0	2547	1278	1203	23
17	0	0	2483	1277	1205	22
18	0	0	2400	1278	1204	23
19	0	0	2356	1278	1204	24
20	0	0	2351	1281	1200	25
21	0	0	2345	1280	1198	26
22	0	0	2321	1280	1197	24
23	0	0	2343	1282	1197	25
24	0	0	2437	1282	1199	24
25	0	0	2546	1282	1201	24
26	0	0	2645	1284	1201	28
27	0	0	2678	1282	1204	29
28	0	0	2635	1278	1204	23
29	0	0	2571	1280	1204	29
30	0	0	2570	1284	1200	26
31	0	0	2634	1281	1198	26
32	0	0	2717	1282	1198	24
33	0	0	2705	1279	1198	24
34	0	0	2629	1279	1199	25
35	0	0	2552	1278	1200	24
36	0	0	2500	1281	1203	26
37	0	0	2498	1284	1205	26
38	0	0	2503	1281	1205	24
39	0	0	2473	1279	1204	24
40	0	0	2508	1283	1200	24
41	0	0	2546	1283	1198	26
42	0	0	2562	1283	1198	24
43	0	0	2530	1280	1198	28
44	0	0	2474	1280	1199	29
45	0	0	2450	1281	1202	30
46	0	0	2448	1284	1204	28
47	0	0	2518	1283	1205	25
48	0	0	2636	1284	1206	25
49	0	0	2705	1285	1206	26
50	0	0	2719	1283	1201	26
51	0	0	2722	1284	1200	28
52	0	0	2712	1281	1199	32
53	0	0	2665	1281	1199	25
54	0	0	2633	1279	1200	24
55	0	0	2582	1280	1202	24
56	0	0	2533	1279	1205	24
57	0	0	2499	1281	1207	23
58	0	0	2456	1281	1208	25
59	0	0	2449	1283	1206	25
60	0	0	2496	1284	1205	25
61	0	0	2490	1283	1201	26
62	0	0	2468	1282	1201	28
63	0	0	2447	1282	1202	27
64	0	0	2420	1283	1203	24
65	0	0	2455	1285	1205	27
66	0	0	2503	1285	1206	26
67	0	0	2512	1282	1209	31
68	0	0	2447	1281	1210	29
69	0	0	2376	1279	1208	24
70	0	0	2331	1283	1205	28
71	0	0	2392	1287	1204	25
72	0	0	2462	1285	1203	26
73	0	0	2453	1282	1204	24
74	0	0	2456	1285	1205	25
75	0	0	2468	1284	1208	25
76	0	0	2430	1282	1210	27
77	0	0	2382	1283	1213	30
78	0	0	2363	1285	1213	25
79	0	0	2367	1285	1212	26
80	0	0	2329	1284	1208	27
81	0	0	2248	1282	1206	25
82	0	0	2169	1281	1206	25
83	0	0	2125	1284	1206	26
84	0	0	2161	1285	1208	29
85	0	0	2261	1284	1209	28
86	0	0	2322	1287	1213	29
87	0	0	2373	1286	1215	31
88	0	0	2412	1286	1216	23
89	0	0	2421	1285	1215	26
90	0	0	2401	1286	1211	27
91	0	0	2427	1287	1210	29
92	0	0	2463	1287	1209	27
93	0	0	2426	1281	1210	25
94	0	0	2330	1283	1211	26
95	0	0	2277	1287	1212	27
96	0	0	2272	1286	1216	25
97	0	0	2243	1283	1219	26
98	0	0	2224	1284	1219	25
99	0	0	2203	1284	1219	25
100	0	0	2174	1281	1216	24
101	0	0	2157	1285	1213	27
102	0	0	2154	1286	1212	27
103	0	0	2171	1287	1213	29
104	0	0	2228	1287	1214	29
105	0	0	2307	1287	1218	25
106	0	0	2349	1287	1221	25
107	0	0	2365	1287	1222	28
108	0	0	2359	1284	1223	28
109	0	0	2310	1283	1222	28
110	0	0	2246	1286	1218	29
111	0	0	2173	1285	1216	28
112	0	0	2131	1285	1216	25
113	0	0	2129	1285	1215	25
114	0	0	2112	1284	1218	25
115	0	0	2112	1286	1222	26
116	0	0	2093	1286	1224	25
117	0	0	2029	1283	1226	27
118	0	0	1900	1282	1227	25
119	0	0	1782	1281	1227	26
120	0	0	1789	1286	1224	26
121	0	0	1848	1290	1221	25
122	0	0	1888	1288	1220	19
123	0	0	1856	1283	1219	25
124	0	0	1785	1283	1222	26
125	0	0	1784	1287	1226	30
126	0	0	1802	1288	1228	30
127	0	0	1835	1288	1229	31
0	0	0	1859	1288	1231	29
1	0	0	1888	1288	1230	26
2	0	0	1910	1288	1228	23
3	0	0	1924	1287	1224	26
4	0	0	1916	1285	1224	29
5	0	0	1883	1283	1223	26
6	0	0	1848	1284	1227	26
7	0	0	1800	1284	1231	28
8	0	0	1721	1283	1233	26
9	0	0	1648	1284	1234	27
10	0	0	1609	1284	1235	25
11	0	0	1609	1287	1234	26
12	0	0	1623	1285	1232	26
13	0	0	1590	1285	1229	25
14	0	0	1594	1291	1228	26
15	0	0	1623	1288	1229	29
16	0	0	1615	1285	1231	29
17	0	0	1629	1288	1233	28
18	0	0	1676	1288	1236	28
19	0	0	1740	1288	1238	27
20	0	0	1800	1287	1239	25
21	0	0	1824	1285	1238	29
22	0	0	1792	1285	1235	28
23	0	0	1797	1288	1234	28
24	0	0	1784	1285	1232	31
25	0	0	1762	1284	1232	28
26	0	0	1751	1285	1234	25
27	0	0	1743	1285	1237	26
28	0	0	1738	1285	1241	28
29	0	0	1711	1285	1243	23
30	0	0	1667	1284	1243	23
31	0	0	1600	1284	1243	26
32	0	0	1539	1285	1239	26
33	0	0	1530	1288	1237	26
34	0	0	1604	1288	1236	27
35	0	0	1612	1285	1234	26
36	0	0	1587	1287	1239	26
37	0	0	1662	1288	1242	26
38	0	0	1745	1286	1245	31
39	0	0	1816	1286	1247	29
40	0	0	1876	1288	1248	29
41	0	0	1898	1288	1247	30
42	0	0	1921	1288	1243	27
43	0	0	1946	1288	1241	25
44	0	0	1931	1284	1239	26
45	0	0	1899	1284	1241	26
46	0	0	1886	1284	1243	26
47	0	0	1817	1283	1246	28
48	0	0	1735	1284	1247	27
49	0	0	1744	1286	1251	26
50	0	0	1745	1284	1248	26
51	0	0	1701	1283	1251	26
52	0	0	1639	1284	1247	27
53	0	0	1574	1281	1244	26
54	0	0	1620	1288	1244	25
55	0	0	1716	1287	1242	31
56	0	0	1771	1287	1247	31
57	0	0	1794	1286	1251	30
58	0	0	1827	1286	1252	29
59	0	0	1887	1287	1254	28
60	0	0	1935	1287	1252	26
61	0	0	1956	1287	1254	26
62	0	0	2008	1287	1251	29
63	0	0	2094	1284	1248	29
64	0	0	2122	1285	1248	28
65	0	0	2064	1283	1248	24
66	0	0	1997	1283	1250	26
67	0	0	1926	1283	1255	28
68	0	0	1880	1283	1257	28
69	0	0	1829	1284	1259	28
70	0	0	1747	1283	1258	27
71	0	0	1662	1283	1259	27
72	0	0	1623	1283	1255	26
73	0	0	1609	1284	1252	27
74	0	0	1622	1287	1252	28
75	0	0	1688	1286	1251	28
76	0	0	1802	1286	1254	26
77	0	0	1896	1288	1258	27
78	0	0	1959	1284	1260	27
79	0	0	1978	1287	1263	30
80	0	0	1987	1287	1260	32
81	0	0	2007	1285	1262	30
82	0	0	2034	1286	1261	31
83	0	0	2072	1285	1254	23
84	0	0	2034	1283	1255	28
85	0	0	1946	1281	1256	26
86	0	0	1865	1282	1258	26
87	0	0	1800	1282	1261	25
88	0	0	1738	1281	1264	27
89	0	0	1670	1282	1266	26
90	0	0	1630	1282	1267	26
91	0	0	1621	1283	1266	27
92	0	0	1605	1282	1262	27
93	0	0	1557	1279	1259	25
94	0	0	1559	1286	1258	27
95	0	0	1617	1285	1259	26
96	0	0	1686	1285	1261	30
97	0	0	1798	1285	1263	31
98	0	0	1920	1286	1267	31
99	0	0	1984	1286	1269	30
100	0	0	2004	1285	1270	26
101	0	0	1980	1282	1269	26
102	0	0	1966	1286	1265	27
103	0	0	2013	1285	1261	27
104	0	0	2025	1282	1261	32
105	0	0	1965	1281	1262	26
106	0	0	1904	1282	1264	26
107	0	0	1870	1281	1267	25
108	0	0	1822	1282	1270	27
109	0	0	1736	1280	1272	28
110	0	0	1663	1281	1273	17
111	0	0	1653	1283	1272	27
112	0	0	1678	1284	1267	27
113	0	0	1676	1280	1264	26
114	0	0	1657	1280	1263	24
115	0	0	1589	1280	1264	26
116	0	0	1534	1282	1266	27
117	0	0	1632	1284	1269	27
118	0	0	1805	1284	1274	31
119	0	0	1959	1284	1275	32
120	0	0	2063	1284	1276	30
121	0	0	2133	1284	1274	31
122	0	0	2156	1283	1270	26
123	0	0	2176	1283	1267	26
124	0	0	2187	1283	1266	26
125	0	0	2181	1282	1266	27
126	0	0	2170	1280	1269	27
127	0	0	2135	1281	1272	28
0	0	0	2094	1280	1274	25
1	0	0	2044	1280	1276	29
2	0	0	1995	1279	1277	26
3	0	0	1966	1280	1276	28
4	0	0	1942	1280	1272	24
5	0	0	1923	1281	1268	24
6	0	0	1948	1284	1267	27
7	0	0	2016	1283	1268	30
8	0	0	2096	1283	1269	30
9	0	0	2150	1283	1273	30
10	0	0	2211	1282	1276	27
11	0	0	2276	1284	1278	29
12	0	0	2343	1283	1278	28
13	0	0	2385	1281	1276	28
14	0	0	2385	1283	1275	29
15	0	0	2401	1282	1269	31
16	0	0	2413	1285	1268	30
17	0	0	2455	1282	1269	29
18	0	0	2448	1278	1271	26
19	0	0	2405	1278	1274	26
20	0	0	2367	1280	1277	28
21	0	0	2372	1283	1279	31
22	0	0	2383	1282	1279	28
23	0	0	2383	1279	1278	27
24	0	0	2341	1278	1272	24
25	0	0	2268	1280	1271	27
26	0	0	2263	1283	1270	28
27	0	0	2330	1282	1271	29
28	0	0	2424	1282	1273	27
29	0	0	2491	1282	1276	25
30	0	0	2526	1281	1278	28
31	0	0	2539	1282	1280	28
32	0	0	2570	1282	1279	31
33	0	0	2588	1282	1280	29
34	0	0	2562	1279	1276	24
35	0	0	2535	1280	1273	29
36	0	0	2534	1283	1271	30
37	0	0	2523	1281	1272	26
38	0	0	2495	1279	1274	26
39	0	0	2460	1279	1276	24
40	0	0	2444	1283	1280	26
41	0	0	2433	1280	1281	27
42	0	0	2416	1280	1281	28
43	0	0	2398	1279	1281	25
44	0	0	2392	1283	1277	26
45	0	0	2409	1280	1274	29
46	0	0	2444	1282	1271	27
47	0	0	2495	1282	1273	30
48	0	0	2565	1281	1275	31
49	0	0	2620	1282	1279	28
50	0	0	2670	1283	1281	28
51	0	0	2708	1283	1282	29
52	0	0	2703	1282	1283	26
53	0	0	2698	1283	1281	26
54	0	0	2718	1282	1276	27
55	0	0	2730	1281	1274	31
56	0	0	2746	1283	1271	29
57	0	0	2772	1283	1273	28
58	0	0	2791	1279	1275	26
59	0	0	2747	1278	1280	24
60	0	0	2652	1279	1282	23
61	0	0	2596	1279	1283	26
62	0	0	2584	1282	1283	27
63	0	0	2607	1281	1282	27
64	0	0	2644	1282	1276	25
65	0	0	2647	1282	1274	27
66	0	0	2654	1283	1273	27
67	0	0	2672	1283	1275	30
68	0	0	2686	1283	1277	31
69	0	0	2710	1282	1280	26
70	0	0	2720	1281	1283	27
71	0	0	2724	1283	1284	30
72	0	0	2727	1283	1285	31
73	0	0	2735	1284	1284	29
74	0	0	2717	1281	1280	28
75	0	0	2703	1281	1277	31
76	0	0	2735	1286	1275	28
77	0	0	2816	1283	1276	30
78	0	0	2859	1283	1277	28
79	0	0	2863	1283	1281	23
80	0	0	2816	1279	1284	25
81	0	0	2704	1278	1285	25
82	0	0	2573	1279	1286	23
83	0	0	2497	1281	1285	26
84	0	0	2523	1284	1279	26
85	0	0	2576	1281	1279	29
86	0	0	2606	1284	1276	27
87	0	0	2637	1283	1277	30
88	0	0	2663	1283	1279	28
89	0	0	2664	1283	1279	30
90	0	0	2684	1284	1285	30
91	0	0	2697	1283	1287	31
92	0	0	2663	1280	1288	31
93	0	0	2624	1281	1287	27
94	0	0	2607	1282	1279	26
95	0	0	2611	1284	1279	28
96	0	0	2633	1284	1278	31
97	0	0	2652	1284	1279	29
98	0	0	2648	1283	1281	26
99	0	0	2641	1284	1284	25
100	0	0	2630	1284	1287	27
101	0	0	2618	1282	1288	27
102	0	0	2576	1281	1289	25
103	0	0	2514	1281	1288	27
104	0	0	2494	1283	1284	27
105	0	0	2468	1282	1281	28
106	0	0	2446	1279	1279	27
107	0	0	2430	1283	1280	27
108	0	0	2455	1284	1283	27
109	0	0	2515	1286	1287	30
110	0	0	2558	1286	1289	29
111	0	0	2556	1285	1291	30
112	0	0	2554	1284	1292	32
113	0	0	2533	1283	1291	26
114	0	0	2497	1283	1286	27
115	0	0	2478	1282	1283	25
116	0	0	2484	1285	1282	28
117	0	0	2509	1285	1283	25
118	0	0	2503	1283	1286	26
119	0	0	2462	1281	1289	27
120	0	0	2458	1287	1291	27
121	0	0	2510	1285	1293	27
122	0	0	2514	1283	1293	27
123	0	0	2477	1281	1292	27
124	0	0	2401	1280	1288	29
125	0	0	2358	1284	1285	26
126	0	0	2379	1285	1284	26
127	0	0	2408	1285	1285	27
0	0	0	2457	1286	1287	29
1	0	0	2499	1286	1291	30
2	0	0	2499	1284	1292	27
3	0	0	2472	1282	1296	27
4	0	0	2461	1286	1297	26
5	0	0	2515	1286	1295	30
6	0	0	2603	1286	1290	28
7	0	0	2656	1285	1287	30
8	0	0	2655	1279	1287	25
9	0	0	2563	1282	1287	25
10	0	0	2467	1284	1290	27
11	0	0	2412	1284	1294	27
12	0	0	2383	1285	1296	24
13	0	0	2371	1284	1299	28
14	0	0	2348	1283	1298	24
15	0	0	2317	1284	1297	27
16	0	0	2284	1284	1294	27
17	0	0	2218	1282	1288	31
18	0	0	2152	1285	1289	27
19	0	0	2213	1287	1291	25
20	0	0	2314	1287	1293	27
21	0	0	2368	1287	1294	30
22	0	0	2365	1287	1299	29
23	0	0	2360	1289	1301	27
24	0	0	2392	1287	1301	30
25	0	0	2417	1287	1300	29
26	0	0	2424	1287	1294	27
27	0	0	2457	1288	1292	25
28	0	0	2454	1286	1291	27
29	0	0	2414	1285	1292	26
30	0	0	2370	1285	1295	27
31	0	0	2350	1288	1299	27
32	0	0	2337	1285	1300	27
33	0	0	2314	1285	1304	27
34	0	0	2275	1285	1305	27
35	0	0	2221	1285	1303	27
36	0	0	2151	1285	1298	27
37	0	0	2100	1287	1295	27
38	0	0	2115	1289	1293	27
39	0	0	2187	1290	1295	32
40	0	0	2235	1289	1298	30
41	0	0	2219	1285	1300	31
42	0	0	2181	1286	1304	31
43	0	0	2204	1289	1307	28
44	0	0	2221	1289	1308	26
45	0	0	2226	1290	1305	27
46	0	0	2238	1291	1300	27
47	0	0	2251	1287	1296	29
48	0	0	2257	1291	1295	30
49	0	0	2248	1288	1296	28
50	0	0	2211	1287	1300	27
51	0	0	2158	1287	1304	24
52	0	0	2108	1288	1307	27
53	0	0	2095	1290	1309	27
54	0	0	2116	1291	1310	28
55	0	0	2128	1291	1308	27
56	0	0	2110	1286	1302	27
57	0	0	2048	1289	1299	24
58	0	0	1973	1286	1298	28
59	0	0	1893	1288	1299	28
60	0	0	1893	1290	1302	26
61	0	0	2023	1292	1305	25
62	0	0	2132	1293	1309	26
63	0	0	2166	1292	1311	31
64	0	0	2189	1292	1311	32
65	0	0	2231	1292	1310	31
66	0	0	2288	1292	1304	28
67	0	0	2351	1293	1301	26
68	0	0	2341	1290	1300	29
69	0	0	2335	1293	1302	26
70	0	0	2351	1293	1305	28
71	0	0	2348	1290	1308	27
72	0	0	2303	1290	1312	25
73	0	0	2217	1290	1314	27
74	0	0	2108	1289	1314	28
75	0	0	2014	1290	1313	27
76	0	0	1963	1290	1308	27
77	0	0	1906	1290	1304	27
78	0	0	1911	1294	1302	27
79	0	0	1925	1291	1304	28
80	0	0	1922	1295	1307	30
81	0	0	1985	1294	1309	32
82	0	0	2036	1295	1314	26
83	0	0	2138	1295	1315	28
84	0	0	2288	1294	1317	31
85	0	0	2401	1294	1314	29
86	0	0	2443	1295	1309	27
87	0	0	2482	1295	1305	28
88	0	0	2483	1292	1305	26
89	0	0	2430	1291	1306	27
90	0	0	2370	1291	1309	28
91	0	0	2302	1291	1313	26
92	0	0	2221	1291	1317	27
93	0	0	2102	1291	1318	28
94	0	0	1966	1291	1319	27
95	0	0	1864	1292	1317	27
96	0	0	1793	1291	1311	26
97	0	0	1745	1293	1308	27
98	0	0	1751	1296	1307	27
99	0	0	1814	1295	1308	28
100	0	0	1903	1295	1311	30
101	0	0	2018	1293	1314	30
102	0	0	2141	1296	1319	30
103	0	0	2211	1296	1321	31
104	0	0	2229	1295	1322	29
105	0	0	2192	1294	1320	27
106	0	0	2197	1297	1314	27
107	0	0	2295	1296	1310	31
108	0	0	2358	1296	1309	29
109	0	0	2342	1292	1310	29
110	0	0	2274	1292	1313	28
111	0	0	2213	1293	1317	27
112	0	0	2154	1293	1321	27
113	0	0	2080	1293	1323	27
114	0	0	2045	1294	1323	27
115	0	0	2025	1292	1321	28
116	0	0	1957	1291	1315	27
117	0	0	1869	1295	1312	27
118	0	0	1843	1295	1311	27
119	0	0	1848	1295	1313	31
120	0	0	1851	1298	1316	31
121	0	0	1887	1299	1319	26
122	0	0	1959	1297	1324	29
123	0	0	2072	1298	1325	28
124	0	0	2221	1298	1326	29
125	0	0	2318	1297	1324	31
126	0	0	2390	1298	1319	30
127	0	0	2439	1298	1314	30
0	0	0	2412	1292	1313	26
1	0	0	2296	1293	1314	27
2	0	0	2203	1292	1318	27
3	0	0	2172	1298	1321	30
4	0	0	2200	1296	1326	30
5	0	0	2193	1297	1329	27
6	0	0	2151	1294	1328	23
7	0	0	2083	1295	1326	27
8	0	0	2033	1294	1319	28
9	0	0	2025	1298	1316	27
10	0	0	2062	1298	1315	28
11	0	0	2144	1298	1317	23
12	0	0	2217	1298	1320	28
13	0	0	2272	1298	1324	31
14	0	0	2301	1301	1328	30
15	0	0	2320	1298	1330	30
16	0	0	2352	1298	1331	30
17	0	0	2395	1300	1328	27
18	0	0	2443	1298	1323	32
19	0	0	2457	1296	1318	30
20	0	0	2434	1299	1317	31
21	0	0	2453	1298	1319	23
