# bioPlux Text File Format
# Version: 1
# StartDateTime: 2011-07-19 14:42:56
# SamplingFrequency: 1000
# SampledChannels: 1 2 3 4
# SamplingResolution: 12
# AcquiringDevice: 00:07:80:42:0F:8B
# EndOfHeader
0	0	0	1839	1194	3778	74
1	0	0	1759	1194	3779	74
2	0	0	1655	1194	3778	75
3	0	0	1589	1196	3777	73
4	0	0	1600	1198	3778	73
5	0	0	1636	1198	3779	74
6	0	0	1733	1198	3778	71
7	0	0	1875	1198	3777	75
8	0	0	2014	1197	3779	74
9	0	0	2150	1197	3778	74
10	0	0	2270	1198	3778	73
11	0	0	2365	1198	3777	73
12	0	0	2431	1197	3778	74
13	0	0	2455	1197	3776	73
14	0	0	2405	1194	3777	74
15	0	0	2359	1195	3778	73
16	0	0	2298	1194	3777	75
17	0	0	2214	1194	3777	75
18	0	0	2113	1194	3779	74
19	0	0	1998	1193	3779	74
20	0	0	1903	1194	3779	74
21	0	0	1811	1193	3777	74
22	0	0	1687	1194	3778	73
23	0	0	1603	1195	3775	75
24	0	0	1616	1198	3777	73
25	0	0	1655	1199	3777	73
26	0	0	1751	1198	3776	74
27	0	0	1902	1199	3778	74
28	0	0	2049	1198	3777	73
29	0	0	2178	1198	3777	75
30	0	0	2288	1197	3780	73
31	0	0	2363	1197	3776	74
32	0	0	2437	1197	3778	71
33	0	0	2470	1195	3778	73
34	0	0	2437	1195	3779	73
35	0	0	2378	1195	3780	73
36	0	0	2303	1197	3777	72
37	0	0	2207	1194	3780	71
38	0	0	2101	1194	3780	73
39	0	0	1980	1193	3778	74
40	0	0	1874	1194	3780	74
41	0	0	1791	1194	3779	73
42	0	0	1674	1194	3778	71
43	0	0	1604	1196	3779	73
44	0	0	1614	1199	3777	74
45	0	0	1649	1198	3780	73
46	0	0	1730	1198	3779	75
47	0	0	1866	1198	3778	73
48	0	0	2033	1198	3777	73
49	0	0	2168	1198	3778	73
50	0	0	2272	1198	3778	74
51	0	0	2334	1199	3777	73
52	0	0	2395	1199	3778	74
53	0	0	2444	1198	3779	73
54	0	0	2420	1194	3779	73
55	0	0	2372	1194	3778	74
56	0	0	2298	1194	3776	75
57	0	0	2208	1193	3778	72
58	0	0	2093	1194	3778	73
59	0	0	1980	1194	3779	73
60	0	0	1880	1195	3779	74
61	0	0	1794	1195	3778	74
62	0	0	1681	1194	3779	73
63	0	0	1595	1196	3774	73
64	0	0	1610	1199	3777	73
65	0	0	1653	1197	3778	73
66	0	0	1747	1199	3780	73
67	0	0	1885	1198	3779	72
68	0	0	2035	1197	3779	73
69	0	0	2162	1198	3779	74
70	0	0	2290	1197	3779	74
71	0	0	2393	1197	3777	75
72	0	0	2489	1198	3778	72
73	0	0	2544	1198	3779	73
74	0	0	2502	1194	3777	74
75	0	0	2423	1193	3778	72
76	0	0	2315	1194	3777	74
77	0	0	2185	1193	3777	72
78	0	0	2045	1193	3779	73
79	0	0	1921	1194	3780	74
80	0	0	1822	1196	3778	75
81	0	0	1756	1194	3777	57
82	0	0	1652	1194	3778	76
83	0	0	1572	1195	3778	73
84	0	0	1587	1198	3778	74
85	0	0	1639	1198	3779	74
86	0	0	1733	1198	3779	73
87	0	0	1885	1196	3779	72
88	0	0	2035	1198	3780	73
89	0	0	2146	1197	3778	74
90	0	0	2247	1198	3777	75
91	0	0	2335	1198	3775	74
92	0	0	2421	1198	3777	72
93	0	0	2484	1197	3777	71
94	0	0	2458	1194	3777	74
95	0	0	2396	1194	3777	74
96	0	0	2312	1193	3778	74
97	0	0	2204	1194	3779	73
98	0	0	2098	1193	3779	73
99	0	0	1995	1194	3778	74
100	0	0	1895	1193	3780	73
101	0	0	1808	1193	3779	74
102	0	0	1692	1194	3778	72
103	0	0	1608	1196	3779	74
104	0	0	1602	1198	3778	74
105	0	0	1624	1198	3778	74
106	0	0	1707	1199	3779	73
107	0	0	1854	1199	3778	72
108	0	0	2018	1199	3779	72
109	0	0	2157	1197	3778	73
110	0	0	2271	1197	3777	74
111	0	0	2344	1199	3777	73
112	0	0	2397	1198	3778	73
113	0	0	2434	1198	3777	73
114	0	0	2414	1195	3777	73
115	0	0	2359	1193	3778	74
116	0	0	2277	1193	3778	75
117	0	0	2191	1193	3779	76
118	0	0	2097	1193	3779	74
119	0	0	1999	1194	3778	73
120	0	0	1908	1194	3779	73
121	0	0	1831	1195	3779	75
122	0	0	1711	1194	3778	76
123	0	0	1635	1195	3776	73
124	0	0	1639	1198	3777	73
125	0	0	1680	1197	3777	73
126	0	0	1775	1197	3778	73
127	0	0	1919	1198	3779	73
0	0	0	2065	1198	3778	75
1	0	0	2205	1200	3778	74
2	0	0	2316	1197	3779	73
3	0	0	2382	1197	3779	74
4	0	0	2412	1198	3778	76
5	0	0	2425	1197	3778	72
6	0	0	2376	1194	3780	73
7	0	0	2318	1194	3778	74
8	0	0	2262	1193	3779	73
9	0	0	2178	1193	3779	78
10	0	0	2069	1193	3779	73
11	0	0	1956	1193	3778	74
12	0	0	1852	1194	3778	75
13	0	0	1766	1194	3778	74
14	0	0	1648	1194	3780	74
15	0	0	1558	1195	3778	74
16	0	0	1578	1198	3777	74
17	0	0	1624	1197	3779	72
18	0	0	1711	1198	3779	72
19	0	0	1858	1199	3778	75
20	0	0	2017	1195	3778	73
21	0	0	2158	1197	3778	73
22	0	0	2272	1197	3780	72
23	0	0	2355	1198	3779	72
24	0	0	2419	1198	3778	73
25	0	0	2452	1197	3778	72
26	0	0	2419	1194	3778	74
27	0	0	2374	1194	3778	73
28	0	0	2299	1193	3779	78
29	0	0	2187	1194	3779	76
30	0	0	2082	1194	3779	73
31	0	0	1966	1194	3778	74
32	0	0	1866	1194	3777	75
33	0	0	1787	1195	3778	75
34	0	0	1674	1194	3777	74
35	0	0	1594	1194	3776	73
36	0	0	1598	1198	3777	73
37	0	0	1627	1197	3777	73
38	0	0	1707	1199	3779	72
39	0	0	1852	1198	3778	73
40	0	0	2011	1197	3780	73
41	0	0	2159	1198	3780	74
42	0	0	2269	1195	3779	74
43	0	0	2351	1198	3778	73
44	0	0	2425	1199	3778	75
45	0	0	2463	1197	3777	73
46	0	0	2428	1195	3778	74
47	0	0	2384	1194	3778	74
48	0	0	2315	1194	3778	78
49	0	0	2221	1194	3779	76
50	0	0	2116	1193	3780	73
51	0	0	2005	1194	3778	73
52	0	0	1903	1193	3778	74
53	0	0	1815	1193	3778	75
54	0	0	1692	1193	3778	75
55	0	0	1604	1194	3776	73
56	0	0	1627	1198	3779	74
57	0	0	1669	1199	3779	75
58	0	0	1759	1199	3780	73
59	0	0	1908	1198	3779	75
60	0	0	2071	1198	3780	74
61	0	0	2211	1197	3778	73
62	0	0	2296	1197	3777	74
63	0	0	2341	1198	3778	72
64	0	0	2385	1197	3778	75
65	0	0	2420	1198	3778	73
66	0	0	2360	1194	3777	73
67	0	0	2297	1194	3777	72
68	0	0	2234	1194	3778	75
69	0	0	2144	1194	3779	75
70	0	0	2031	1194	3780	73
71	0	0	1925	1193	3779	73
72	0	0	1817	1196	3779	75
73	0	0	1738	1193	3780	74
74	0	0	1641	1194	3779	75
75	0	0	1582	1195	3780	74
76	0	0	1599	1198	3778	74
77	0	0	1632	1198	3777	74
78	0	0	1713	1198	3778	72
79	0	0	1855	1199	3781	75
80	0	0	2006	1197	3780	72
81	0	0	2145	1197	3778	73
82	0	0	2258	1197	3777	73
83	0	0	2325	1198	3778	72
84	0	0	2383	1197	3778	71
85	0	0	2416	1196	3780	73
86	0	0	2390	1195	3777	74
87	0	0	2354	1194	3777	74
88	0	0	2300	1193	3778	74
89	0	0	2218	1194	3779	75
90	0	0	2100	1193	3780	73
91	0	0	1976	1193	3779	74
92	0	0	1865	1194	3779	74
93	0	0	1778	1194	3779	72
94	0	0	1671	1194	3779	71
95	0	0	1583	1195	3780	72
96	0	0	1595	1198	3778	74
97	0	0	1632	1199	3778	73
98	0	0	1713	1197	3777	74
99	0	0	1862	1196	3779	71
100	0	0	2016	1197	3780	72
101	0	0	2149	1198	3778	73
102	0	0	2257	1198	3778	74
103	0	0	2323	1198	3779	73
104	0	0	2376	1196	3778	73
105	0	0	2424	1198	3779	73
106	0	0	2381	1195	3778	75
107	0	0	2344	1193	3779	74
108	0	0	2280	1193	3780	73
109	0	0	2191	1193	3780	73
110	0	0	2091	1194	3781	74
111	0	0	1971	1193	3778	74
112	0	0	1869	1194	3778	74
113	0	0	1782	1193	3779	74
114	0	0	1675	1193	3778	72
115	0	0	1601	1194	3779	73
116	0	0	1608	1198	3777	73
117	0	0	1634	1198	3778	72
118	0	0	1705	1194	3779	73
119	0	0	1842	1198	3779	70
120	0	0	1996	1197	3779	72
121	0	0	2142	1198	3780	73
122	0	0	2266	1195	3777	73
123	0	0	2351	1195	3780	73
124	0	0	2442	1196	3779	73
125	0	0	2511	1197	3779	73
126	0	0	2504	1194	3779	74
127	0	0	2434	1194	3779	74
0	0	0	2334	1195	3779	73
1	0	0	2209	1193	3779	74
2	0	0	2075	1193	3779	73
3	0	0	1954	1193	3778	73
4	0	0	1855	1194	3778	74
5	0	0	1766	1193	3776	74
6	0	0	1647	1194	3778	73
7	0	0	1572	1194	3777	73
8	0	0	1591	1200	3778	73
9	0	0	1630	1198	3779	72
10	0	0	1700	1198	3779	73
11	0	0	1821	1198	3779	74
12	0	0	1968	1199	3780	73
13	0	0	2096	1197	3779	73
14	0	0	2211	1197	3780	76
15	0	0	2300	1194	3780	73
16	0	0	2389	1197	3779	70
17	0	0	2452	1197	3777	73
18	0	0	2418	1195	3779	73
19	0	0	2374	1194	3778	75
20	0	0	2314	1191	3779	73
21	0	0	2227	1195	3778	75
22	0	0	2118	1193	3779	73
23	0	0	1998	1192	3778	74
24	0	0	1899	1193	3779	73
25	0	0	1810	1194	3779	74
26	0	0	1688	1193	3779	76
27	0	0	1604	1194	3778	72
28	0	0	1614	1198	3778	73
29	0	0	1642	1198	3780	73
30	0	0	1718	1194	3779	73
31	0	0	1850	1199	3780	73
32	0	0	1992	1195	3782	76
33	0	0	2133	1198	3779	73
34	0	0	2239	1198	3779	73
35	0	0	2322	1197	3779	73
36	0	0	2409	1198	3778	74
37	0	0	2472	1197	3775	74
38	0	0	2434	1196	3776	73
39	0	0	2372	1194	3778	74
40	0	0	2303	1193	3779	73
41	0	0	2213	1194	3779	75
42	0	0	2102	1194	3780	73
43	0	0	1968	1193	3778	74
44	0	0	1868	1193	3779	76
45	0	0	1785	1191	3779	74
46	0	0	1677	1194	3778	72
47	0	0	1602	1194	3778	74
48	0	0	1606	1198	3778	73
49	0	0	1630	1198	3778	74
50	0	0	1690	1195	3779	73
51	0	0	1831	1197	3779	73
52	0	0	2002	1198	3779	72
53	0	0	2170	1199	3777	74
54	0	0	2289	1197	3779	72
55	0	0	2357	1198	3779	72
56	0	0	2417	1199	3777	73
57	0	0	2473	1197	3777	73
58	0	0	2459	1193	3777	74
59	0	0	2401	1194	3776	74
60	0	0	2317	1191	3779	74
61	0	0	2215	1193	3779	76
62	0	0	2091	1193	3778	74
63	0	0	1972	1192	3779	74
64	0	0	1854	1193	3780	74
65	0	0	1757	1195	3779	73
66	0	0	1634	1194	3779	72
67	0	0	1550	1194	3777	72
68	0	0	1563	1198	3779	73
69	0	0	1588	1199	3780	77
70	0	0	1663	1197	3777	74
71	0	0	1811	1198	3779	73
72	0	0	1981	1199	3778	72
73	0	0	2122	1197	3778	73
74	0	0	2232	1197	3779	71
75	0	0	2310	1197	3776	74
76	0	0	2394	1199	3777	76
77	0	0	2439	1197	3777	73
78	0	0	2400	1193	3777	74
79	0	0	2357	1194	3775	73
80	0	0	2285	1193	3777	74
81	0	0	2183	1193	3779	74
82	0	0	2074	1193	3779	75
83	0	0	1967	1195	3778	73
84	0	0	1876	1194	3777	74
85	0	0	1798	1193	3778	74
86	0	0	1680	1194	3778	73
87	0	0	1575	1194	3777	74
88	0	0	1576	1198	3778	72
89	0	0	1605	1198	3779	76
90	0	0	1684	1198	3776	74
91	0	0	1836	1199	3778	73
92	0	0	1992	1197	3777	75
93	0	0	2125	1199	3778	74
94	0	0	2228	1197	3779	72
95	0	0	2306	1198	3778	72
96	0	0	2375	1197	3779	73
97	0	0	2430	1197	3778	72
98	0	0	2391	1194	3778	74
99	0	0	2342	1194	3779	73
100	0	0	2266	1193	3777	75
101	0	0	2167	1194	3779	73
102	0	0	2051	1193	3778	75
103	0	0	1944	1193	3779	73
104	0	0	1854	1194	3778	76
105	0	0	1776	1192	3776	75
106	0	0	1676	1193	3778	74
107	0	0	1586	1194	3777	74
108	0	0	1593	1197	3777	73
109	0	0	1644	1197	3778	72
110	0	0	1737	1200	3778	72
111	0	0	1887	1197	3779	72
112	0	0	2033	1198	3778	75
113	0	0	2170	1197	3779	73
114	0	0	2283	1196	3779	73
115	0	0	2354	1198	3778	72
116	0	0	2435	1198	3777	72
117	0	0	2496	1198	3778	73
118	0	0	2454	1194	3777	74
119	0	0	2395	1194	3776	74
120	0	0	2320	1193	3778	73
121	0	0	2224	1192	3778	73
122	0	0	2111	1192	3778	74
123	0	0	1994	1193	3778	74
124	0	0	1897	1193	3778	74
125	0	0	1816	1193	3776	75
126	0	0	1722	1192	3778	75
127	0	0	1623	1194	3779	75
0	0	0	1615	1197	3779	72
1	0	0	1636	1199	3780	75
2	0	0	1703	1196	3778	74
3	0	0	1845	1198	3780	72
4	0	0	2000	1197	3779	75
5	0	0	2148	1197	3778	73
6	0	0	2269	1197	3777	74
7	0	0	2364	1198	3779	73
8	0	0	2434	1197	3778	73
9	0	0	2490	1197	3777	75
10	0	0	2455	1193	3777	74
11	0	0	2398	1193	3777	74
12	0	0	2332	1192	3776	75
13	0	0	2224	1193	3779	78
14	0	0	2083	1192	3778	76
15	0	0	1937	1193	3778	74
16	0	0	1821	1194	3779	74
17	0	0	1738	1194	3778	76
18	0	0	1636	1193	3779	73
19	0	0	1557	1194	3780	75
20	0	0	1569	1198	3779	73
21	0	0	1610	1197	3780	73
22	0	0	1690	1197	3779	73
23	0	0	1843	1198	3779	73
24	0	0	1994	1198	3778	75
25	0	0	2118	1197	3777	73
26	0	0	2227	1199	3778	73
27	0	0	2295	1198	3778	76
28	0	0	2378	1197	3777	75
29	0	0	2448	1197	3776	73
30	0	0	2456	1195	3775	75
31	0	0	2407	1193	3778	74
32	0	0	2332	1192	3780	78
33	0	0	2234	1193	3779	75
34	0	0	2127	1192	3778	75
35	0	0	2021	1193	3779	74
36	0	0	1921	1194	3779	74
37	0	0	1823	1194	3780	78
38	0	0	1703	1193	3779	75
39	0	0	1597	1194	3777	76
40	0	0	1610	1198	3775	75
41	0	0	1646	1198	3777	73
42	0	0	1729	1197	3779	77
43	0	0	1872	1199	3777	73
44	0	0	2017	1198	3777	75
45	0	0	2147	1198	3778	73
46	0	0	2248	1199	3778	73
47	0	0	2325	1196	3778	73
48	0	0	2391	1198	3779	71
49	0	0	2434	1197	3777	73
50	0	0	2428	1195	3779	73
51	0	0	2373	1194	3780	75
52	0	0	2308	1194	3780	73
53	0	0	2218	1193	3780	73
54	0	0	2103	1192	3779	74
55	0	0	1997	1194	3780	73
56	0	0	1894	1193	3778	75
57	0	0	1810	1194	3778	73
58	0	0	1706	1192	3778	74
59	0	0	1613	1194	3777	72
60	0	0	1616	1198	3777	73
61	0	0	1645	1197	3776	75
62	0	0	1721	1195	3779	75
63	0	0	1859	1197	3778	72
64	0	0	2009	1197	3777	74
65	0	0	2136	1197	3778	74
66	0	0	2244	1198	3778	74
67	0	0	2325	1196	3780	77
68	0	0	2397	1198	3779	73
69	0	0	2474	1198	3778	73
70	0	0	2454	1193	3778	74
71	0	0	2396	1193	3778	75
72	0	0	2331	1192	3778	73
73	0	0	2234	1193	3778	73
74	0	0	2122	1194	3777	73
75	0	0	2014	1194	3777	74
76	0	0	1940	1194	3777	74
77	0	0	1891	1192	3779	75
78	0	0	1791	1193	3777	73
79	0	0	1699	1194	3777	72
80	0	0	1679	1195	3777	73
81	0	0	1677	1198	3778	73
82	0	0	1698	1197	3780	77
83	0	0	1766	1197	3778	76
84	0	0	1883	1200	3780	72
85	0	0	2024	1198	3780	72
86	0	0	2160	1199	3779	72
87	0	0	2274	1199	3779	73
88	0	0	2378	1198	3780	73
89	0	0	2463	1197	3777	73
90	0	0	2456	1192	3778	73
91	0	0	2388	1195	3778	75
92	0	0	2303	1194	3778	72
93	0	0	2216	1193	3779	73
94	0	0	2118	1194	3778	72
95	0	0	2003	1194	3778	74
96	0	0	1905	1192	3778	75
97	0	0	1824	1195	3778	72
98	0	0	1724	1192	3778	73
99	0	0	1634	1196	3777	72
100	0	0	1632	1198	3778	74
101	0	0	1664	1197	3778	74
102	0	0	1738	1196	3779	75
103	0	0	1871	1196	3779	74
104	0	0	2024	1198	3779	72
105	0	0	2159	1197	3780	72
106	0	0	2266	1198	3780	74
107	0	0	2334	1199	3778	72
108	0	0	2407	1196	3778	73
109	0	0	2454	1197	3777	72
110	0	0	2442	1194	3776	73
111	0	0	2386	1194	3777	72
112	0	0	2311	1193	3779	73
113	0	0	2212	1192	3779	74
114	0	0	2116	1193	3778	73
115	0	0	2009	1193	3778	74
116	0	0	1907	1194	3778	74
117	0	0	1826	1195	3779	72
118	0	0	1714	1193	3779	75
119	0	0	1623	1194	3778	68
120	0	0	1623	1198	3779	74
121	0	0	1644	1197	3781	74
122	0	0	1704	1199	3779	72
123	0	0	1841	1197	3779	73
124	0	0	2007	1197	3778	72
125	0	0	2155	1197	3778	74
126	0	0	2263	1197	3779	72
127	0	0	2333	1198	3778	73
0	0	0	2373	1198	3777	73
1	0	0	2420	1197	3777	72
2	0	0	2403	1193	3777	74
3	0	0	2348	1192	3777	74
4	0	0	2285	1194	3779	71
5	0	0	2215	1193	3779	74
6	0	0	2143	1193	3778	74
7	0	0	2050	1193	3778	75
8	0	0	1962	1192	3778	74
9	0	0	1881	1193	3778	75
10	0	0	1769	1193	3779	73
11	0	0	1660	1195	3779	72
12	0	0	1655	1197	3777	73
13	0	0	1687	1199	3777	72
14	0	0	1754	1198	3778	73
15	0	0	1870	1199	3778	73
16	0	0	2004	1197	3778	71
17	0	0	2142	1196	3778	73
18	0	0	2258	1196	3777	73
19	0	0	2330	1199	3778	72
20	0	0	2400	1198	3778	73
21	0	0	2470	1197	3777	74
22	0	0	2446	1193	3778	74
23	0	0	2385	1191	3778	73
24	0	0	2311	1193	3779	74
25	0	0	2214	1192	3780	75
26	0	0	2114	1192	3779	75
27	0	0	2008	1194	3780	73
28	0	0	1907	1194	3778	75
29	0	0	1823	1192	3778	74
30	0	0	1717	1193	3778	76
31	0	0	1609	1194	3776	76
32	0	0	1623	1197	3777	73
33	0	0	1669	1198	3777	72
34	0	0	1742	1199	3779	72
35	0	0	1865	1198	3779	73
36	0	0	1999	1197	3778	71
37	0	0	2131	1197	3779	72
38	0	0	2257	1195	3778	73
39	0	0	2351	1197	3778	72
40	0	0	2428	1198	3779	73
41	0	0	2489	1198	3779	73
42	0	0	2450	1194	3778	74
43	0	0	2385	1194	3778	73
44	0	0	2316	1194	3778	75
45	0	0	2224	1193	3779	75
46	0	0	2110	1193	3777	74
47	0	0	2000	1196	3779	74
48	0	0	1890	1194	3780	75
49	0	0	1797	1194	3777	74
50	0	0	1686	1193	3778	73
51	0	0	1595	1194	3777	75
52	0	0	1601	1197	3777	74
53	0	0	1639	1198	3777	73
54	0	0	1726	1197	3778	75
55	0	0	1868	1198	3779	73
56	0	0	2027	1199	3780	72
57	0	0	2156	1199	3778	73
58	0	0	2271	1198	3779	74
59	0	0	2352	1197	3779	74
60	0	0	2422	1198	3778	73
61	0	0	2474	1197	3777	71
62	0	0	2417	1193	3777	74
63	0	0	2369	1194	3775	74
64	0	0	2308	1194	3777	74
65	0	0	2213	1194	3779	74
66	0	0	2107	1193	3778	75
67	0	0	2004	1194	3777	73
68	0	0	1927	1194	3778	76
69	0	0	1874	1194	3778	74
70	0	0	1790	1194	3778	74
71	0	0	1710	1194	3779	73
72	0	0	1682	1195	3778	73
73	0	0	1693	1198	3778	72
74	0	0	1745	1199	3778	71
75	0	0	1872	1198	3780	72
76	0	0	2011	1197	3779	71
77	0	0	2149	1198	3779	74
78	0	0	2284	1198	3775	74
79	0	0	2377	1198	3778	75
80	0	0	2453	1198	3778	74
81	0	0	2504	1197	3777	71
82	0	0	2470	1194	3778	74
83	0	0	2415	1194	3775	74
84	0	0	2354	1195	3777	73
85	0	0	2262	1194	3778	73
86	0	0	2147	1193	3778	71
87	0	0	2016	1195	3780	73
88	0	0	1884	1193	3777	73
89	0	0	1782	1195	3778	75
90	0	0	1685	1195	3779	73
91	0	0	1604	1194	3778	71
92	0	0	1606	1199	3779	75
93	0	0	1648	1198	3778	74
94	0	0	1730	1196	3779	73
95	0	0	1866	1198	3779	73
96	0	0	2016	1198	3778	71
97	0	0	2146	1198	3779	73
98	0	0	2251	1198	3777	74
99	0	0	2323	1196	3779	73
100	0	0	2391	1199	3777	72
101	0	0	2463	1197	3777	69
102	0	0	2448	1194	3778	75
103	0	0	2405	1195	3775	74
104	0	0	2337	1192	3779	73
105	0	0	2236	1193	3779	73
106	0	0	2119	1193	3778	71
107	0	0	2012	1194	3779	74
108	0	0	1920	1194	3777	75
109	0	0	1823	1192	3780	73
110	0	0	1710	1194	3779	73
111	0	0	1606	1194	3777	72
112	0	0	1605	1198	3778	74
113	0	0	1642	1198	3777	74
114	0	0	1728	1196	3779	73
115	0	0	1886	1196	3778	73
116	0	0	2058	1198	3777	69
117	0	0	2217	1199	3778	74
118	0	0	2320	1197	3779	73
119	0	0	2382	1197	3779	73
120	0	0	2433	1197	3778	73
121	0	0	2492	1198	3779	73
122	0	0	2462	1193	3778	74
123	0	0	2402	1195	3779	73
124	0	0	2325	1194	3780	73
125	0	0	2224	1193	3779	74
126	0	0	2126	1194	3780	73
127	0	0	2002	1192	3778	74
0	0	0	1888	1194	3781	74
1	0	0	1805	1195	3779	73
2	0	0	1704	1193	3778	73
3	0	0	1616	1195	3778	73
4	0	0	1616	1200	3776	73
5	0	0	1647	1198	3777	73
6	0	0	1730	1198	3779	73
7	0	0	1857	1195	3778	73
8	0	0	2009	1201	3779	73
9	0	0	2154	1200	3778	73
10	0	0	2267	1197	3779	74
11	0	0	2350	1198	3779	72
12	0	0	2425	1197	3778	72
13	0	0	2492	1198	3779	73
14	0	0	2449	1193	3778	74
15	0	0	2395	1194	3779	73
16	0	0	2323	1192	3779	73
17	0	0	2232	1193	3778	73
18	0	0	2135	1194	3779	73
19	0	0	2028	1193	3778	74
20	0	0	1951	1194	3777	74
21	0	0	1898	1194	3776	72
22	0	0	1813	1193	3778	74
23	0	0	1706	1194	3777	72
24	0	0	1669	1196	3779	73
25	0	0	1689	1198	3779	73
26	0	0	1748	1199	3777	72
27	0	0	1869	1196	3779	74
28	0	0	2003	1198	3780	72
29	0	0	2127	1197	3779	74
30	0	0	2231	1197	3781	75
31	0	0	2307	1199	3778	72
32	0	0	2383	1195	3778	73
33	0	0	2459	1198	3779	73
34	0	0	2435	1192	3777	73
35	0	0	2381	1195	3777	73
36	0	0	2311	1194	3778	73
37	0	0	2203	1193	3778	71
38	0	0	2097	1194	3779	72
39	0	0	1968	1196	3777	74
40	0	0	1867	1193	3778	73
41	0	0	1784	1195	3778	73
42	0	0	1684	1193	3778	74
43	0	0	1579	1194	3777	72
44	0	0	1577	1198	3778	73
45	0	0	1615	1198	3779	73
46	0	0	1703	1199	3778	72
47	0	0	1849	1197	3780	71
48	0	0	2005	1198	3779	74
49	0	0	2145	1198	3779	72
50	0	0	2263	1198	3779	73
51	0	0	2343	1197	3778	73
52	0	0	2427	1198	3778	74
53	0	0	2523	1198	3778	72
54	0	0	2507	1193	3777	74
55	0	0	2440	1194	3777	72
56	0	0	2357	1194	3776	72
57	0	0	2249	1193	3778	74
58	0	0	2134	1194	3778	73
59	0	0	2015	1192	3778	73
60	0	0	1912	1193	3779	74
61	0	0	1831	1195	3779	76
62	0	0	1739	1194	3779	73
63	0	0	1643	1192	3777	72
64	0	0	1643	1198	3778	74
65	0	0	1673	1200	3778	73
66	0	0	1738	1198	3777	73
67	0	0	1858	1199	3779	72
68	0	0	1996	1197	3778	74
69	0	0	2132	1198	3779	73
70	0	0	2236	1198	3776	72
71	0	0	2321	1198	3778	75
72	0	0	2379	1199	3778	73
73	0	0	2437	1197	3777	73
74	0	0	2426	1194	3777	75
75	0	0	2378	1195	3777	74
76	0	0	2324	1195	3778	74
77	0	0	2242	1194	3779	74
78	0	0	2135	1193	3778	74
79	0	0	2016	1193	3779	73
80	0	0	1903	1194	3778	73
81	0	0	1816	1195	3778	72
82	0	0	1720	1197	3779	74
83	0	0	1621	1195	3779	73
84	0	0	1595	1197	3777	73
85	0	0	1632	1199	3777	74
86	0	0	1704	1198	3778	72
87	0	0	1825	1200	3779	73
88	0	0	1990	1199	3778	73
89	0	0	2144	1196	3778	74
90	0	0	2259	1199	3777	73
91	0	0	2349	1198	3777	72
92	0	0	2428	1198	3778	73
93	0	0	2510	1198	3777	74
94	0	0	2484	1192	3777	74
95	0	0	2408	1196	3778	74
96	0	0	2344	1195	3779	74
97	0	0	2256	1196	3779	74
98	0	0	2157	1195	3779	74
99	0	0	2052	1193	3779	73
100	0	0	1928	1194	3780	76
101	0	0	1820	1195	3778	74
102	0	0	1725	1194	3779	75
103	0	0	1628	1194	3777	71
104	0	0	1628	1198	3778	74
105	0	0	1659	1196	3777	74
106	0	0	1713	1198	3780	76
107	0	0	1836	1201	3779	74
108	0	0	1984	1198	3778	73
109	0	0	2126	1195	3778	73
110	0	0	2244	1199	3778	73
111	0	0	2337	1197	3778	74
112	0	0	2410	1199	3779	73
113	0	0	2480	1198	3777	74
114	0	0	2471	1195	3779	73
115	0	0	2407	1194	3781	75
116	0	0	2329	1194	3780	74
117	0	0	2236	1194	3779	73
118	0	0	2124	1193	3776	72
119	0	0	2011	1193	3778	74
120	0	0	1904	1195	3778	75
121	0	0	1811	1194	3777	75
122	0	0	1716	1196	3778	73
123	0	0	1629	1195	3777	73
124	0	0	1632	1198	3777	73
125	0	0	1666	1199	3777	72
126	0	0	1738	1199	3778	71
127	0	0	1874	1203	3778	73
0	0	0	2039	1198	3781	74
1	0	0	2180	1198	3779	73
2	0	0	2268	1198	3779	74
3	0	0	2315	1198	3780	72
4	0	0	2343	1201	3777	73
5	0	0	2396	1198	3778	73
6	0	0	2376	1197	3777	74
7	0	0	2349	1197	3777	72
8	0	0	2308	1195	3779	73
9	0	0	2233	1194	3778	73
10	0	0	2119	1194	3778	74
11	0	0	2005	1194	3777	74
12	0	0	1912	1195	3778	75
13	0	0	1842	1195	3778	75
14	0	0	1767	1195	3779	72
15	0	0	1669	1194	3779	73
16	0	0	1655	1197	3778	73
17	0	0	1675	1200	3778	75
18	0	0	1718	1198	3779	71
19	0	0	1831	1198	3779	74
20	0	0	1988	1198	3779	73
21	0	0	2132	1198	3778	71
22	0	0	2261	1198	3779	73
23	0	0	2347	1198	3779	73
24	0	0	2405	1200	3778	73
25	0	0	2470	1198	3778	73
26	0	0	2430	1195	3777	74
27	0	0	2384	1196	3777	72
28	0	0	2318	1193	3780	77
29	0	0	2219	1193	3778	74
30	0	0	2107	1193	3778	74
31	0	0	2004	1193	3779	73
32	0	0	1915	1194	3777	74
33	0	0	1827	1194	3780	75
34	0	0	1744	1192	3779	74
35	0	0	1660	1195	3778	72
36	0	0	1673	1198	3778	73
37	0	0	1714	1198	3779	73
38	0	0	1772	1198	3780	75
39	0	0	1883	1198	3778	73
40	0	0	2021	1197	3778	73
41	0	0	2145	1198	3778	73
42	0	0	2261	1197	3778	74
43	0	0	2352	1199	3778	71
44	0	0	2412	1198	3777	72
45	0	0	2479	1197	3777	73
46	0	0	2451	1195	3777	73
47	0	0	2396	1195	3777	74
48	0	0	2333	1194	3779	73
49	0	0	2247	1193	3779	73
50	0	0	2145	1194	3778	74
51	0	0	2031	1194	3779	74
52	0	0	1928	1195	3778	73
53	0	0	1836	1195	3779	71
54	0	0	1738	1194	3778	73
55	0	0	1643	1195	3777	73
56	0	0	1641	1198	3777	74
57	0	0	1668	1198	3778	73
58	0	0	1723	1199	3778	71
59	0	0	1832	1197	3779	71
60	0	0	1977	1198	3778	73
61	0	0	2119	1197	3778	74
62	0	0	2244	1199	3777	73
63	0	0	2332	1198	3779	73
64	0	0	2404	1198	3778	73
65	0	0	2456	1197	3777	71
66	0	0	2444	1194	3779	73
67	0	0	2394	1194	3780	74
68	0	0	2326	1194	3779	73
69	0	0	2224	1194	3780	74
70	0	0	2113	1193	3779	72
71	0	0	2004	1194	3780	73
72	0	0	1895	1194	3780	75
73	0	0	1808	1194	3779	74
74	0	0	1722	1194	3779	73
75	0	0	1610	1194	3777	74
76	0	0	1611	1197	3779	73
77	0	0	1646	1198	3776	73
78	0	0	1711	1198	3778	73
79	0	0	1854	1198	3779	72
80	0	0	1999	1198	3778	73
81	0	0	2133	1200	3778	73
82	0	0	2253	1198	3778	74
83	0	0	2348	1198	3777	72
84	0	0	2418	1198	3779	73
85	0	0	2485	1198	3778	74
86	0	0	2461	1194	3778	74
87	0	0	2400	1193	3778	73
88	0	0	2330	1195	3778	72
89	0	0	2236	1194	3779	74
90	0	0	2135	1193	3778	74
91	0	0	2027	1193	3778	74
92	0	0	1907	1193	3778	73
93	0	0	1806	1194	3780	74
94	0	0	1700	1194	3777	74
95	0	0	1616	1195	3778	73
96	0	0	1622	1199	3778	73
97	0	0	1659	1195	3778	73
98	0	0	1743	1199	3779	73
99	0	0	1903	1199	3778	73
100	0	0	2084	1196	3780	73
101	0	0	2223	1196	3780	74
102	0	0	2319	1197	3781	73
103	0	0	2368	1199	3778	71
104	0	0	2415	1198	3779	74
105	0	0	2492	1197	3777	74
106	0	0	2499	1194	3779	73
107	0	0	2428	1194	3777	74
108	0	0	2357	1194	3779	74
109	0	0	2253	1194	3778	74
110	0	0	2139	1194	3779	75
111	0	0	1995	1196	3777	74
112	0	0	1877	1192	3778	74
113	0	0	1798	1195	3779	74
114	0	0	1710	1195	3778	73
115	0	0	1604	1193	3778	73
116	0	0	1589	1198	3778	73
117	0	0	1633	1197	3779	73
118	0	0	1714	1199	3781	74
119	0	0	1868	1196	3779	73
120	0	0	2042	1201	3778	73
121	0	0	2194	1198	3778	73
122	0	0	2302	1197	3778	74
123	0	0	2377	1198	3780	74
124	0	0	2457	1198	3779	72
125	0	0	2516	1197	3777	73
126	0	0	2475	1194	3778	73
127	0	0	2415	1194	3779	74
0	0	0	2351	1194	3779	74
1	0	0	2247	1194	3779	73
2	0	0	2103	1193	3778	74
3	0	0	1972	1194	3778	73
4	0	0	1858	1193	3778	73
5	0	0	1764	1194	3779	75
6	0	0	1657	1194	3778	73
7	0	0	1551	1195	3779	73
8	0	0	1552	1199	3777	74
9	0	0	1594	1197	3778	74
10	0	0	1675	1198	3779	73
11	0	0	1833	1197	3778	72
12	0	0	2022	1198	3776	73
13	0	0	2194	1197	3778	73
14	0	0	2323	1199	3777	73
15	0	0	2417	1198	3775	75
16	0	0	2496	1198	3778	72
17	0	0	2548	1198	3777	70
18	0	0	2517	1194	3778	74
19	0	0	2452	1193	3778	72
20	0	0	2373	1195	3777	72
21	0	0	2275	1193	3779	73
22	0	0	2152	1193	3779	74
23	0	0	2014	1193	3779	74
24	0	0	1894	1193	3779	74
25	0	0	1784	1195	3780	74
26	0	0	1659	1191	3779	74
27	0	0	1547	1194	3777	74
28	0	0	1557	1200	3777	73
29	0	0	1605	1199	3777	73
30	0	0	1687	1198	3779	74
31	0	0	1845	1197	3779	72
32	0	0	2030	1197	3778	73
33	0	0	2214	1198	3779	72
34	0	0	2358	1199	3779	74
35	0	0	2463	1197	3779	74
36	0	0	2525	1195	3779	73
37	0	0	2569	1198	3779	73
38	0	0	2515	1193	3778	74
39	0	0	2452	1196	3779	75
40	0	0	2376	1194	3779	75
41	0	0	2261	1192	3779	73
42	0	0	2126	1193	3779	74
43	0	0	1984	1196	3778	73
44	0	0	1854	1194	3778	74
45	0	0	1760	1194	3778	74
46	0	0	1651	1193	3777	73
47	0	0	1530	1194	3777	74
48	0	0	1520	1198	3777	73
49	0	0	1560	1200	3775	74
50	0	0	1649	1199	3779	74
51	0	0	1811	1197	3779	72
52	0	0	1989	1198	3778	73
53	0	0	2157	1199	3779	72
54	0	0	2297	1198	3779	73
55	0	0	2395	1198	3777	73
56	0	0	2471	1196	3779	73
57	0	0	2548	1198	3778	74
58	0	0	2533	1194	3778	74
59	0	0	2481	1194	3778	74
60	0	0	2406	1194	3779	74
61	0	0	2305	1191	3779	74
62	0	0	2195	1193	3778	74
63	0	0	2067	1193	3778	73
64	0	0	1927	1195	3777	73
65	0	0	1804	1194	3778	75
66	0	0	1665	1192	3778	73
67	0	0	1536	1194	3777	74
68	0	0	1524	1197	3777	73
69	0	0	1565	1200	3775	74
70	0	0	1649	1198	3779	74
71	0	0	1818	1197	3779	72
72	0	0	2002	1197	3779	73
73	0	0	2176	1198	3779	75
74	0	0	2334	1198	3778	73
75	0	0	2445	1197	3780	74
76	0	0	2508	1196	3778	73
77	0	0	2560	1197	3778	73
78	0	0	2543	1194	3777	74
79	0	0	2477	1195	3775	74
80	0	0	2401	1193	3778	74
81	0	0	2284	1192	3777	74
82	0	0	2152	1194	3779	74
83	0	0	2011	1193	3778	74
84	0	0	1885	1193	3779	71
85	0	0	1778	1194	3780	73
86	0	0	1670	1192	3778	74
87	0	0	1557	1195	3779	72
88	0	0	1532	1197	3778	73
89	0	0	1571	1198	3779	72
90	0	0	1646	1199	3780	72
91	0	0	1811	1196	3780	73
92	0	0	2001	1198	3780	73
93	0	0	2163	1199	3779	74
94	0	0	2307	1198	3779	71
95	0	0	2418	1198	3779	73
96	0	0	2482	1196	3776	74
97	0	0	2542	1197	3778	73
98	0	0	2518	1195	3777	73
99	0	0	2464	1195	3778	72
100	0	0	2391	1193	3779	74
101	0	0	2278	1192	3779	74
102	0	0	2153	1194	3779	74
103	0	0	2002	1193	3778	74
104	0	0	1865	1192	3778	73
105	0	0	1751	1194	3779	75
106	0	0	1635	1193	3779	74
107	0	0	1500	1194	3778	74
108	0	0	1493	1195	3778	72
109	0	0	1529	1200	3778	71
110	0	0	1614	1199	3780	73
111	0	0	1783	1198	3780	72
112	0	0	1985	1198	3778	73
113	0	0	2163	1199	3778	74
114	0	0	2315	1198	3778	76
115	0	0	2411	1198	3780	73
116	0	0	2466	1197	3777	71
117	0	0	2548	1198	3777	73
118	0	0	2548	1193	3777	74
119	0	0	2487	1194	3778	72
120	0	0	2423	1194	3782	74
121	0	0	2321	1193	3780	74
122	0	0	2177	1193	3778	74
123	0	0	2023	1194	3779	75
124	0	0	1861	1193	3780	76
125	0	0	1705	1194	3780	73
126	0	0	1564	1193	3779	74
127	0	0	1450	1194	3777	74
0	0	0	1461	1197	3777	74
1	0	0	1520	1198	3777	72
2	0	0	1627	1198	3779	73
3	0	0	1813	1197	3779	73
4	0	0	2017	1198	3777	73
5	0	0	2179	1201	3777	75
6	0	0	2315	1198	3778	72
7	0	0	2434	1197	3779	73
8	0	0	2500	1198	3779	73
9	0	0	2580	1198	3779	72
10	0	0	2538	1195	3777	74
11	0	0	2465	1194	3778	72
12	0	0	2386	1194	3780	74
13	0	0	2263	1193	3779	73
14	0	0	2128	1194	3780	74
15	0	0	1987	1193	3779	73
16	0	0	1863	1194	3778	74
17	0	0	1769	1193	3778	74
18	0	0	1659	1194	3778	73
19	0	0	1517	1194	3778	73
20	0	0	1485	1199	3778	74
21	0	0	1532	1199	3778	69
22	0	0	1616	1198	3778	72
23	0	0	1792	1198	3779	72
24	0	0	1979	1198	3779	73
25	0	0	2147	1198	3778	71
26	0	0	2303	1198	3778	74
27	0	0	2429	1197	3779	73
28	0	0	2507	1198	3779	77
29	0	0	2561	1198	3778	74
30	0	0	2544	1193	3779	73
31	0	0	2476	1194	3777	74
32	0	0	2402	1194	3776	74
33	0	0	2292	1193	3779	73
34	0	0	2156	1193	3778	74
35	0	0	2009	1192	3779	73
36	0	0	1869	1194	3779	71
37	0	0	1755	1194	3778	73
38	0	0	1651	1193	3778	73
39	0	0	1518	1194	3777	74
40	0	0	1508	1198	3777	74
41	0	0	1564	1199	3777	72
42	0	0	1659	1198	3778	72
43	0	0	1828	1197	3779	73
44	0	0	2042	1200	3778	73
45	0	0	2215	1196	3780	74
46	0	0	2354	1199	3779	75
47	0	0	2454	1199	3779	73
48	0	0	2501	1197	3778	73
49	0	0	2563	1198	3778	73
50	0	0	2553	1196	3777	75
51	0	0	2486	1194	3778	79
52	0	0	2392	1193	3779	74
53	0	0	2271	1193	3778	75
54	0	0	2142	1193	3778	74
55	0	0	1998	1193	3778	73
56	0	0	1862	1193	3779	75
57	0	0	1751	1194	3777	73
58	0	0	1644	1193	3779	73
59	0	0	1503	1193	3777	75
60	0	0	1485	1199	3778	72
61	0	0	1515	1199	3778	71
62	0	0	1592	1199	3778	73
63	0	0	1771	1198	3780	72
64	0	0	1963	1197	3779	73
65	0	0	2144	1197	3778	73
66	0	0	2307	1197	3779	74
67	0	0	2424	1197	3779	73
68	0	0	2491	1197	3778	73
69	0	0	2550	1198	3778	72
70	0	0	2527	1195	3777	74
71	0	0	2467	1195	3777	74
72	0	0	2396	1193	3778	73
73	0	0	2274	1193	3778	74
74	0	0	2153	1196	3778	72
75	0	0	2011	1192	3778	74
76	0	0	1864	1193	3778	74
77	0	0	1754	1193	3777	71
78	0	0	1650	1192	3779	73
79	0	0	1523	1194	3778	72
80	0	0	1515	1198	3778	74
81	0	0	1546	1197	3778	53
82	0	0	1625	1198	3778	71
83	0	0	1779	1199	3779	73
84	0	0	1951	1198	3778	73
85	0	0	2131	1199	3779	72
86	0	0	2289	1197	3779	70
87	0	0	2393	1197	3778	71
88	0	0	2472	1197	3777	72
89	0	0	2529	1197	3777	74
90	0	0	2502	1194	3777	74
91	0	0	2433	1195	3777	72
92	0	0	2365	1194	3779	73
93	0	0	2261	1192	3779	72
94	0	0	2125	1193	3779	74
95	0	0	1992	1193	3779	75
96	0	0	1861	1191	3780	74
97	0	0	1750	1194	3781	74
98	0	0	1632	1193	3778	74
99	0	0	1495	1194	3779	74
100	0	0	1459	1197	3775	74
101	0	0	1491	1198	3778	73
102	0	0	1590	1198	3779	72
103	0	0	1768	1197	3779	73
104	0	0	1971	1198	3778	73
105	0	0	2159	1197	3778	74
106	0	0	2320	1196	3780	73
107	0	0	2447	1198	3779	73
108	0	0	2522	1197	3778	73
109	0	0	2587	1197	3778	74
110	0	0	2572	1193	3778	74
111	0	0	2486	1191	3778	73
112	0	0	2410	1193	3781	73
113	0	0	2302	1193	3781	74
114	0	0	2166	1193	3779	74
115	0	0	2011	1192	3779	74
116	0	0	1860	1192	3780	73
117	0	0	1739	1194	3779	74
118	0	0	1627	1192	3777	73
119	0	0	1504	1194	3779	71
120	0	0	1483	1198	3778	74
121	0	0	1533	1198	3778	73
122	0	0	1624	1197	3779	72
123	0	0	1794	1198	3779	72
124	0	0	2006	1197	3778	73
125	0	0	2182	1199	3780	73
126	0	0	2324	1199	3780	72
127	0	0	2422	1197	3779	70
0	0	0	2493	1198	3779	73
1	0	0	2552	1197	3778	74
2	0	0	2507	1193	3778	74
3	0	0	2448	1194	3779	74
4	0	0	2391	1192	3779	73
5	0	0	2305	1193	3779	74
6	0	0	2200	1193	3778	74
7	0	0	2067	1192	3778	75
8	0	0	1922	1191	3778	74
9	0	0	1790	1193	3777	74
10	0	0	1655	1192	3779	73
11	0	0	1509	1194	3778	73
12	0	0	1464	1197	3777	73
13	0	0	1501	1198	3778	73
14	0	0	1580	1198	3777	73
15	0	0	1745	1198	3780	75
16	0	0	1942	1199	3779	72
17	0	0	2116	1200	3778	72
18	0	0	2280	1196	3780	73
19	0	0	2408	1197	3779	72
20	0	0	2496	1197	3779	72
21	0	0	2564	1197	3777	73
22	0	0	2536	1195	3775	74
23	0	0	2465	1194	3777	74
24	0	0	2391	1192	3777	74
25	0	0	2271	1192	3778	73
26	0	0	2149	1193	3777	74
27	0	0	2025	1192	3779	74
28	0	0	1868	1193	3778	72
29	0	0	1727	1193	3779	71
30	0	0	1609	1193	3779	72
31	0	0	1473	1193	3778	75
32	0	0	1456	1197	3779	71
33	0	0	1497	1197	3779	74
34	0	0	1589	1197	3777	74
35	0	0	1769	1197	3781	72
36	0	0	1955	1197	3779	74
37	0	0	2127	1197	3779	74
38	0	0	2288	1197	3779	74
39	0	0	2427	1198	3776	74
40	0	0	2498	1196	3780	75
41	0	0	2567	1197	3777	73
42	0	0	2556	1193	3777	74
43	0	0	2494	1193	3778	74
44	0	0	2403	1193	3779	73
45	0	0	2287	1193	3779	75
46	0	0	2179	1193	3779	74
47	0	0	2032	1193	3779	74
48	0	0	1881	1193	3779	74
49	0	0	1748	1193	3779	73
50	0	0	1629	1193	3779	74
51	0	0	1483	1193	3778	73
52	0	0	1459	1197	3778	73
53	0	0	1507	1197	3778	73
54	0	0	1596	1197	3777	74
55	0	0	1770	1198	3779	72
56	0	0	1969	1197	3778	73
57	0	0	2157	1197	3778	73
58	0	0	2308	1196	3779	72
59	0	0	2414	1197	3777	74
60	0	0	2484	1197	3778	74
61	0	0	2561	1197	3777	74
62	0	0	2553	1193	3777	74
63	0	0	2483	1193	3777	74
64	0	0	2398	1193	3776	75
65	0	0	2287	1193	3779	72
66	0	0	2148	1192	3778	74
67	0	0	2006	1193	3779	74
68	0	0	1863	1192	3779	74
69	0	0	1745	1193	3779	73
70	0	0	1623	1192	3778	73
71	0	0	1490	1194	3777	74
72	0	0	1469	1198	3777	73
73	0	0	1520	1197	3777	72
74	0	0	1611	1198	3776	75
75	0	0	1776	1197	3778	73
76	0	0	1965	1197	3779	73
77	0	0	2152	1198	3777	73
78	0	0	2309	1197	3778	73
79	0	0	2424	1197	3779	73
80	0	0	2482	1198	3775	73
81	0	0	2544	1197	3779	73
82	0	0	2519	1194	3778	74
83	0	0	2461	1194	3778	73
84	0	0	2398	1194	3780	73
85	0	0	2290	1192	3777	75
86	0	0	2153	1192	3780	73
87	0	0	1988	1193	3777	74
88	0	0	1846	1193	3778	73
89	0	0	1716	1193	3779	73
90	0	0	1581	1192	3775	74
91	0	0	1438	1195	3777	71
92	0	0	1407	1198	3777	75
93	0	0	1450	1197	3776	75
94	0	0	1549	1197	3779	71
95	0	0	1752	1198	3777	73
96	0	0	1981	1196	3778	72
97	0	0	2187	1198	3780	72
98	0	0	2357	1198	3779	72
99	0	0	2467	1197	3779	71
100	0	0	2528	1196	3779	73
101	0	0	2595	1197	3778	74
102	0	0	2568	1194	3778	74
103	0	0	2494	1193	3778	74
104	0	0	2396	1193	3779	73
105	0	0	2262	1192	3775	75
106	0	0	2126	1191	3778	74
107	0	0	1983	1191	3778	75
108	0	0	1842	1192	3776	75
109	0	0	1719	1193	3777	73
110	0	0	1610	1192	3777	73
111	0	0	1482	1193	3777	73
112	0	0	1462	1198	3777	73
113	0	0	1506	1198	3776	74
114	0	0	1591	1197	3778	72
115	0	0	1762	1197	3778	71
116	0	0	1969	1197	3781	73
117	0	0	2157	1195	3780	73
118	0	0	2325	1197	3779	73
119	0	0	2453	1197	3779	72
120	0	0	2531	1197	3779	71
121	0	0	2592	1197	3777	74
122	0	0	2562	1193	3778	75
123	0	0	2499	1193	3776	75
124	0	0	2425	1194	3779	72
125	0	0	2309	1192	3777	73
126	0	0	2185	1192	3777	74
127	0	0	2044	1192	3780	73
0	0	0	1892	1193	3779	77
1	0	0	1747	1193	3778	72
2	0	0	1627	1193	3775	75
3	0	0	1494	1193	3777	74
4	0	0	1470	1198	3778	73
5	0	0	1504	1197	3777	72
6	0	0	1578	1198	3777	72
7	0	0	1761	1197	3779	72
8	0	0	1975	1198	3779	71
9	0	0	2160	1196	3778	73
10	0	0	2296	1197	3777	72
11	0	0	2394	1197	3778	72
12	0	0	2462	1197	3775	74
13	0	0	2533	1197	3776	72
14	0	0	2498	1193	3777	73
15	0	0	2429	1192	3776	75
16	0	0	2354	1193	3778	73
17	0	0	2249	1192	3779	72
18	0	0	2116	1192	3778	74
19	0	0	1974	1191	3780	74
20	0	0	1831	1193	3779	76
21	0	0	1707	1193	3777	72
22	0	0	1595	1193	3779	73
23	0	0	1448	1193	3778	74
24	0	0	1437	1197	3778	74
25	0	0	1491	1197	3777	73
26	0	0	1574	1198	3779	72
27	0	0	1732	1197	3778	72
28	0	0	1928	1197	3778	75
29	0	0	2112	1196	3778	73
30	0	0	2265	1197	3778	73
31	0	0	2375	1197	3777	72
32	0	0	2458	1196	3774	72
33	0	0	2545	1197	3777	73
34	0	0	2556	1194	3777	73
35	0	0	2484	1193	3776	73
36	0	0	2398	1193	3779	72
37	0	0	2283	1192	3779	73
38	0	0	2147	1193	3780	73
39	0	0	1999	1193	3778	73
40	0	0	1851	1193	3778	74
41	0	0	1732	1193	3780	74
42	0	0	1621	1193	3779	73
43	0	0	1487	1193	3776	71
44	0	0	1459	1197	3778	72
45	0	0	1505	1197	3778	73
46	0	0	1590	1198	3777	72
47	0	0	1759	1197	3777	72
48	0	0	1974	1197	3778	73
49	0	0	2179	1196	3779	72
50	0	0	2350	1197	3779	72
51	0	0	2455	1197	3776	72
52	0	0	2500	1197	3778	73
53	0	0	2566	1196	3778	75
54	0	0	2576	1193	3779	73
55	0	0	2512	1194	3779	73
56	0	0	2422	1193	3779	72
57	0	0	2306	1193	3780	74
58	0	0	2166	1192	3779	75
59	0	0	2023	1192	3778	75
60	0	0	1898	1193	3777	74
61	0	0	1781	1193	3777	72
62	0	0	1667	1192	3777	72
63	0	0	1518	1192	3777	74
64	0	0	1488	1196	3777	74
65	0	0	1531	1198	3777	73
66	0	0	1611	1197	3778	72
67	0	0	1772	1197	3777	71
68	0	0	1981	1197	3779	72
69	0	0	2167	1199	3778	72
70	0	0	2312	1197	3779	73
71	0	0	2417	1197	3778	73
72	0	0	2481	1196	3779	74
73	0	0	2566	1198	3778	74
74	0	0	2567	1192	3779	73
75	0	0	2492	1193	3779	72
76	0	0	2405	1192	3779	73
77	0	0	2289	1191	3778	73
78	0	0	2135	1192	3778	75
79	0	0	1969	1191	3778	74
80	0	0	1829	1192	3779	73
81	0	0	1713	1193	3778	74
82	0	0	1607	1192	3777	71
83	0	0	1478	1193	3778	72
84	0	0	1448	1196	3777	73
85	0	0	1483	1198	3778	73
86	0	0	1560	1197	3779	72
87	0	0	1716	1197	3779	74
88	0	0	1914	1197	3779	73
89	0	0	2105	1195	3780	72
90	0	0	2273	1197	3779	72
91	0	0	2409	1196	3779	77
92	0	0	2491	1195	3777	73
93	0	0	2557	1196	3777	74
94	0	0	2557	1192	3779	73
95	0	0	2491	1193	3778	72
96	0	0	2407	1193	3778	73
97	0	0	2293	1191	3777	72
98	0	0	2163	1192	3778	73
99	0	0	2024	1192	3779	73
100	0	0	1879	1192	3779	78
101	0	0	1743	1194	3779	73
102	0	0	1629	1193	3779	74
103	0	0	1489	1193	3777	74
104	0	0	1479	1198	3777	75
105	0	0	1523	1198	3779	75
106	0	0	1603	1197	3779	73
107	0	0	1780	1196	3778	73
108	0	0	1977	1197	3779	73
109	0	0	2148	1197	3778	73
110	0	0	2300	1197	3779	72
111	0	0	2429	1197	3776	72
112	0	0	2513	1195	3776	73
113	0	0	2583	1197	3778	73
114	0	0	2563	1191	3775	74
115	0	0	2486	1191	3778	73
116	0	0	2404	1192	3778	77
117	0	0	2300	1192	3777	73
118	0	0	2181	1192	3779	74
119	0	0	2040	1192	3779	73
120	0	0	1880	1193	3779	78
121	0	0	1721	1193	3779	76
122	0	0	1596	1192	3780	73
123	0	0	1465	1193	3778	73
124	0	0	1458	1196	3778	73
125	0	0	1509	1197	3778	73
126	0	0	1583	1198	3778	74
127	0	0	1745	1196	3776	72
0	0	0	1946	1197	3775	75
1	0	0	2132	1196	3777	73
2	0	0	2300	1197	3778	72
3	0	0	2433	1196	3779	75
4	0	0	2523	1196	3780	72
5	0	0	2600	1196	3776	73
6	0	0	2577	1192	3777	74
7	0	0	2503	1193	3778	72
8	0	0	2403	1192	3778	75
9	0	0	2288	1191	3778	73
10	0	0	2160	1192	3779	74
11	0	0	2009	1192	3779	74
12	0	0	1856	1192	3779	72
13	0	0	1727	1192	3779	75
14	0	0	1618	1191	3780	74
15	0	0	1498	1193	3775	76
16	0	0	1483	1197	3777	73
17	0	0	1521	1197	3778	72
18	0	0	1585	1197	3777	71
19	0	0	1738	1200	3780	73
20	0	0	1927	1197	3777	74
21	0	0	2110	1197	3778	73
22	0	0	2266	1196	3778	73
23	0	0	2396	1196	3779	73
24	0	0	2473	1196	3776	71
25	0	0	2556	1196	3779	73
26	0	0	2546	1191	3778	73
27	0	0	2474	1193	3778	74
28	0	0	2395	1193	3779	73
29	0	0	2274	1192	3780	74
30	0	0	2152	1192	3780	73
31	0	0	2019	1188	3780	74
32	0	0	1890	1191	3779	73
33	0	0	1772	1193	3779	73
34	0	0	1643	1192	3777	73
35	0	0	1499	1191	3777	73
36	0	0	1471	1197	3776	75
37	0	0	1504	1197	3777	74
38	0	0	1578	1198	3778	72
39	0	0	1745	1197	3784	74
40	0	0	1946	1196	3775	75
41	0	0	2132	1197	3779	73
42	0	0	2293	1196	3780	73
43	0	0	2401	1196	3779	73
44	0	0	2470	1196	3780	72
45	0	0	2548	1196	3779	73
46	0	0	2543	1191	3780	73
47	0	0	2488	1193	3777	73
48	0	0	2421	1192	3779	74
49	0	0	2316	1192	3780	73
50	0	0	2183	1191	3778	74
51	0	0	2028	1192	3777	74
52	0	0	1886	1191	3777	75
53	0	0	1769	1192	3778	73
54	0	0	1666	1191	3780	73
55	0	0	1536	1192	3778	73
56	0	0	1510	1197	3777	73
57	0	0	1532	1195	3777	71
58	0	0	1590	1198	3778	74
59	0	0	1761	1196	3779	72
60	0	0	1972	1196	3779	72
61	0	0	2168	1196	3779	73
62	0	0	2323	1194	3778	75
63	0	0	2438	1196	3779	73
64	0	0	2516	1196	3778	73
65	0	0	2583	1194	3777	73
66	0	0	2585	1194	3777	76
67	0	0	2514	1191	3778	73
68	0	0	2438	1193	3778	71
69	0	0	2332	1191	3779	73
70	0	0	2198	1192	3777	74
71	0	0	2046	1192	3778	74
72	0	0	1907	1189	3779	73
73	0	0	1790	1193	3779	71
74	0	0	1685	1191	3779	73
75	0	0	1548	1192	3777	73
76	0	0	1510	1197	3778	73
77	0	0	1545	1194	3779	73
78	0	0	1597	1197	3779	72
79	0	0	1729	1197	3780	73
80	0	0	1918	1196	3778	73
81	0	0	2108	1197	3779	73
82	0	0	2273	1196	3779	72
83	0	0	2402	1196	3778	76
84	0	0	2466	1196	3779	74
85	0	0	2536	1197	3778	72
86	0	0	2527	1189	3775	74
87	0	0	2471	1193	3776	74
88	0	0	2406	1192	3778	74
89	0	0	2311	1192	3777	73
90	0	0	2189	1191	3778	74
91	0	0	2039	1191	3776	75
92	0	0	1896	1192	3778	75
93	0	0	1768	1192	3779	74
94	0	0	1653	1191	3779	73
95	0	0	1506	1192	3778	74
96	0	0	1472	1197	3778	73
97	0	0	1512	1196	3778	71
98	0	0	1587	1196	3779	74
99	0	0	1750	1197	3777	72
100	0	0	1941	1195	3778	73
101	0	0	2121	1197	3778	73
102	0	0	2266	1196	3779	77
103	0	0	2347	1199	3778	74
104	0	0	2415	1196	3777	72
105	0	0	2487	1196	3776	74
106	0	0	2508	1195	3777	73
107	0	0	2463	1190	3779	74
108	0	0	2405	1192	3779	72
109	0	0	2305	1192	3779	72
110	0	0	2188	1191	3779	74
111	0	0	2059	1192	3779	74
112	0	0	1927	1191	3778	75
113	0	0	1802	1193	3779	74
114	0	0	1697	1192	3778	73
115	0	0	1545	1193	3779	73
116	0	0	1494	1199	3777	72
117	0	0	1525	1195	3778	73
118	0	0	1599	1198	3778	71
119	0	0	1743	1197	3779	72
120	0	0	1934	1197	3780	74
121	0	0	2126	1197	3779	72
122	0	0	2291	1195	3778	71
123	0	0	2415	1197	3779	73
124	0	0	2504	1196	3778	73
125	0	0	2583	1196	3778	74
126	0	0	2585	1193	3776	75
127	0	0	2528	1192	3778	71
0	0	0	2462	1193	3779	74
1	0	0	2349	1191	3779	73
2	0	0	2218	1191	3779	74
3	0	0	2078	1192	3780	72
4	0	0	1928	1192	3779	73
5	0	0	1793	1192	3778	73
6	0	0	1677	1192	3778	74
7	0	0	1523	1192	3777	76
8	0	0	1494	1197	3778	77
9	0	0	1537	1196	3777	74
10	0	0	1615	1198	3778	74
11	0	0	1757	1196	3777	73
12	0	0	1935	1195	3778	73
13	0	0	2118	1194	3779	74
14	0	0	2285	1196	3777	74
15	0	0	2416	1197	3779	72
16	0	0	2494	1197	3777	75
17	0	0	2586	1196	3778	73
18	0	0	2586	1192	3778	73
19	0	0	2504	1192	3778	74
20	0	0	2417	1192	3779	73
21	0	0	2285	1191	3778	73
22	0	0	2159	1192	3779	74
23	0	0	2019	1189	3776	75
24	0	0	1880	1191	3777	74
25	0	0	1763	1193	3778	74
26	0	0	1649	1191	3777	76
27	0	0	1509	1191	3777	74
28	0	0	1482	1196	3777	74
29	0	0	1524	1196	3776	74
30	0	0	1606	1197	3778	76
31	0	0	1768	1196	3778	73
32	0	0	1958	1196	3778	74
33	0	0	2140	1194	3779	73
34	0	0	2300	1196	3779	73
35	0	0	2422	1195	3779	72
36	0	0	2492	1196	3777	74
37	0	0	2569	1196	3779	73
38	0	0	2563	1191	3776	74
39	0	0	2498	1192	3776	75
40	0	0	2422	1192	3778	76
41	0	0	2299	1191	3777	74
42	0	0	2163	1191	3777	74
43	0	0	2023	1191	3778	72
44	0	0	1897	1192	3778	72
45	0	0	1783	1193	3778	73
46	0	0	1689	1192	3777	75
47	0	0	1560	1193	3777	75
48	0	0	1538	1195	3777	74
49	0	0	1573	1198	3778	74
50	0	0	1657	1197	3779	72
51	0	0	1811	1197	3780	72
52	0	0	1995	1195	3779	73
53	0	0	2172	1196	3777	74
54	0	0	2326	1197	3779	73
55	0	0	2447	1198	3778	73
56	0	0	2522	1196	3779	72
57	0	0	2583	1195	3777	73
58	0	0	2607	1195	3778	73
59	0	0	2541	1192	3777	71
60	0	0	2468	1192	3778	74
61	0	0	2355	1192	3778	76
62	0	0	2220	1191	3778	74
63	0	0	2075	1191	3777	74
64	0	0	1919	1192	3779	73
65	0	0	1783	1193	3779	75
66	0	0	1671	1191	3778	75
67	0	0	1534	1191	3778	74
68	0	0	1513	1196	3778	73
69	0	0	1556	1196	3776	75
70	0	0	1629	1196	3778	75
71	0	0	1780	1197	3778	75
72	0	0	1969	1196	3779	71
73	0	0	2157	1197	3778	73
74	0	0	2311	1197	3778	76
75	0	0	2429	1196	3777	75
76	0	0	2505	1196	3776	75
77	0	0	2587	1195	3777	73
78	0	0	2600	1193	3777	73
79	0	0	2537	1193	3777	72
80	0	0	2465	1190	3779	75
81	0	0	2346	1191	3778	75
82	0	0	2220	1191	3779	72
83	0	0	2079	1191	3779	74
84	0	0	1936	1192	3780	76
85	0	0	1808	1192	3779	77
86	0	0	1691	1192	3778	76
87	0	0	1560	1192	3777	71
88	0	0	1525	1197	3777	74
89	0	0	1562	1197	3777	72
90	0	0	1629	1196	3778	73
91	0	0	1780	1194	3777	75
92	0	0	1972	1196	3778	73
93	0	0	2157	1195	3777	73
94	0	0	2306	1194	3778	73
95	0	0	2413	1196	3779	73
96	0	0	2475	1196	3780	75
97	0	0	2558	1197	3779	73
98	0	0	2592	1196	3778	73
99	0	0	2529	1190	3778	74
100	0	0	2446	1192	3779	73
101	0	0	2340	1191	3778	74
102	0	0	2227	1192	3780	73
103	0	0	2095	1191	3781	78
104	0	0	1963	1192	3779	73
105	0	0	1845	1192	3779	73
106	0	0	1722	1191	3777	76
107	0	0	1577	1193	3778	72
108	0	0	1511	1196	3777	72
109	0	0	1547	1196	3778	73
110	0	0	1599	1197	3779	71
111	0	0	1720	1196	3781	74
112	0	0	1914	1198	3779	72
113	0	0	2098	1196	3781	75
114	0	0	2254	1197	3779	72
115	0	0	2376	1196	3779	74
116	0	0	2456	1196	3777	74
117	0	0	2543	1197	3777	73
118	0	0	2534	1192	3779	71
119	0	0	2466	1192	3779	74
120	0	0	2383	1192	3779	74
121	0	0	2257	1191	3778	72
122	0	0	2131	1190	3778	74
123	0	0	2008	1190	3778	74
124	0	0	1909	1192	3778	76
125	0	0	1814	1191	3779	74
126	0	0	1721	1191	3778	73
127	0	0	1585	1192	3776	71
0	0	0	1536	1195	3778	71
1	0	0	1555	1197	3779	73
2	0	0	1614	1196	3778	72
3	0	0	1771	1196	3778	72
4	0	0	1978	1196	3779	73
5	0	0	2172	1198	3779	73
6	0	0	2320	1196	3779	74
7	0	0	2433	1196	3780	73
8	0	0	2496	1195	3777	72
9	0	0	2590	1194	3777	73
10	0	0	2596	1193	3775	77
11	0	0	2524	1192	3779	78
12	0	0	2447	1192	3778	74
13	0	0	2344	1191	3778	72
14	0	0	2216	1191	3778	75
15	0	0	2071	1191	3779	71
16	0	0	1910	1193	3779	73
17	0	0	1780	1191	3778	73
18	0	0	1670	1191	3777	72
19	0	0	1536	1192	3777	74
20	0	0	1499	1197	3777	74
21	0	0	1544	1196	3779	73
22	0	0	1617	1196	3779	72
23	0	0	1777	1196	3778	72
24	0	0	1976	1196	3778	74
25	0	0	2156	1196	3778	74
26	0	0	2314	1196	3780	78
27	0	0	2418	1194	3778	74
28	0	0	2495	1196	3779	73
29	0	0	2556	1195	3777	73
30	0	0	2581	1196	3777	72
31	0	0	2519	1192	3778	73
32	0	0	2447	1190	3778	74
33	0	0	2327	1192	3779	73
34	0	0	2176	1189	3778	74
35	0	0	2022	1192	3778	74
36	0	0	1883	1193	3779	73
37	0	0	1763	1193	3779	71
38	0	0	1653	1191	3777	72
39	0	0	1516	1192	3779	72
40	0	0	1470	1197	3780	74
41	0	0	1515	1199	3779	72
42	0	0	1615	1196	3779	72
43	0	0	1786	1196	3778	70
44	0	0	1994	1194	3779	72
45	0	0	2164	1199	3778	72
46	0	0	2300	1198	3778	73
47	0	0	2423	1196	3778	71
48	0	0	2488	1196	3776	72
49	0	0	2570	1195	3777	73
50	0	0	2590	1195	3779	72
51	0	0	2526	1193	3778	73
52	0	0	2447	1190	3778	74
53	0	0	2338	1191	3779	74
54	0	0	2198	1190	3779	74
55	0	0	2037	1191	3779	72
56	0	0	1882	1192	3780	73
57	0	0	1755	1192	3779	75
58	0	0	1645	1193	3777	73
59	0	0	1508	1192	3777	73
60	0	0	1459	1196	3777	73
61	0	0	1501	1197	3777	72
62	0	0	1573	1196	3779	74
63	0	0	1724	1196	3777	72
64	0	0	1927	1194	3777	74
65	0	0	2124	1194	3777	74
66	0	0	2284	1194	3778	74
67	0	0	2399	1196	3778	74
68	0	0	2492	1195	3777	74
69	0	0	2578	1194	3778	72
70	0	0	2562	1193	3780	75
71	0	0	2500	1191	3778	74
72	0	0	2437	1193	3779	74
73	0	0	2331	1191	3778	72
74	0	0	2195	1191	3780	73
75	0	0	2049	1191	3779	74
76	0	0	1891	1191	3779	72
77	0	0	1768	1192	3779	73
78	0	0	1667	1191	3778	72
79	0	0	1528	1192	3778	73
80	0	0	1469	1195	3779	74
81	0	0	1501	1196	3777	73
82	0	0	1564	1197	3779	73
83	0	0	1710	1196	3778	72
84	0	0	1922	1195	3778	73
85	0	0	2114	1196	3778	72
86	0	0	2276	1194	3779	73
87	0	0	2403	1197	3778	73
88	0	0	2486	1197	3778	74
89	0	0	2577	1194	3778	73
90	0	0	2612	1194	3778	73
91	0	0	2531	1191	3779	72
92	0	0	2448	1192	3779	75
93	0	0	2345	1192	3778	74
94	0	0	2228	1191	3778	74
95	0	0	2068	1192	3775	74
96	0	0	1902	1189	3778	73
97	0	0	1771	1191	3778	75
98	0	0	1659	1191	3777	71
99	0	0	1512	1193	3778	73
100	0	0	1459	1195	3776	72
101	0	0	1491	1197	3778	72
102	0	0	1569	1196	3779	72
103	0	0	1736	1195	3778	74
104	0	0	1947	1197	3778	72
105	0	0	2137	1196	3780	73
106	0	0	2294	1196	3779	72
107	0	0	2421	1195	3780	73
108	0	0	2517	1195	3778	72
109	0	0	2603	1195	3777	73
110	0	0	2599	1192	3775	73
111	0	0	2525	1193	3777	74
112	0	0	2452	1192	3778	73
113	0	0	2319	1191	3777	75
114	0	0	2186	1192	3778	74
115	0	0	2051	1191	3778	71
116	0	0	1908	1190	3779	74
117	0	0	1777	1191	3778	73
118	0	0	1654	1191	3777	74
119	0	0	1507	1191	3778	74
120	0	0	1458	1197	3775	73
121	0	0	1501	1196	3779	73
122	0	0	1578	1197	3779	72
123	0	0	1749	1196	3779	71
124	0	0	1951	1198	3780	73
125	0	0	2130	1198	3779	74
126	0	0	2288	1196	3779	75
127	0	0	2428	1197	3779	73
0	0	0	2520	1197	3778	72
1	0	0	2590	1194	3777	73
2	0	0	2590	1193	3778	73
3	0	0	2535	1193	3778	73
4	0	0	2457	1192	3779	74
5	0	0	2351	1191	3779	73
6	0	0	2218	1192	3778	74
7	0	0	2073	1191	3779	73
8	0	0	1925	1192	3779	75
9	0	0	1806	1193	3780	73
10	0	0	1713	1191	3778	71
11	0	0	1576	1191	3778	73
12	0	0	1513	1194	3779	72
13	0	0	1529	1197	3778	74
14	0	0	1581	1196	3778	74
15	0	0	1745	1196	3778	71
16	0	0	1950	1196	3779	73
17	0	0	2148	1196	3780	72
18	0	0	2316	1196	3779	73
19	0	0	2453	1196	3779	72
20	0	0	2538	1195	3777	71
21	0	0	2615	1196	3777	73
22	0	0	2631	1194	3776	74
23	0	0	2562	1190	3779	73
24	0	0	2483	1192	3779	73
25	0	0	2378	1191	3778	71
26	0	0	2246	1191	3779	74
27	0	0	2098	1191	3779	72
28	0	0	1952	1190	3780	73
29	0	0	1828	1193	3780	74
30	0	0	1722	1191	3778	71
31	0	0	1596	1192	3778	74
32	0	0	1576	1196	3778	74
33	0	0	1612	1194	3779	73
34	0	0	1670	1197	3779	72
35	0	0	1815	1194	3778	71
36	0	0	1999	1195	3778	73
37	0	0	2167	1195	3778	73
38	0	0	2308	1196	3778	73
39	0	0	2419	1196	3779	73
40	0	0	2495	1195	3778	71
41	0	0	2585	1197	3779	72
42	0	0	2602	1194	3780	75
43	0	0	2529	1193	3778	73
44	0	0	2453	1192	3779	73
45	0	0	2335	1191	3779	71
46	0	0	2203	1192	3780	73
47	0	0	2046	1191	3778	73
48	0	0	1894	1192	3778	73
49	0	0	1763	1191	3779	74
50	0	0	1655	1191	3776	73
51	0	0	1521	1192	3778	74
52	0	0	1466	1196	3778	72
53	0	0	1495	1197	3777	73
54	0	0	1557	1197	3779	72
55	0	0	1703	1196	3779	71
56	0	0	1916	1196	3779	73
57	0	0	2128	1197	3777	71
58	0	0	2311	1197	3778	73
59	0	0	2454	1196	3780	73
60	0	0	2535	1196	3778	69
61	0	0	2609	1196	3779	72
62	0	0	2607	1192	3777	72
63	0	0	2523	1192	3778	72
64	0	0	2408	1191	3779	73
65	0	0	2282	1191	3778	71
66	0	0	2161	1192	3778	72
67	0	0	2028	1190	3780	76
68	0	0	1899	1192	3778	74
69	0	0	1798	1192	3779	74
70	0	0	1712	1192	3777	72
71	0	0	1573	1192	3776	75
72	0	0	1522	1197	3777	74
73	0	0	1553	1198	3777	72
74	0	0	1617	1195	3779	72
75	0	0	1762	1197	3780	72
76	0	0	1938	1195	3779	74
77	0	0	2121	1196	3779	73
78	0	0	2282	1194	3780	73
79	0	0	2411	1198	3779	73
80	0	0	2505	1195	3778	72
81	0	0	2596	1197	3778	74
82	0	0	2602	1192	3778	73
83	0	0	2531	1192	3778	75
84	0	0	2464	1191	3778	73
85	0	0	2364	1191	3778	72
86	0	0	2243	1191	3778	73
87	0	0	2106	1192	3778	74
88	0	0	1953	1192	3778	74
89	0	0	1811	1190	3779	72
90	0	0	1709	1192	3779	74
91	0	0	1559	1193	3778	74
92	0	0	1490	1194	3777	74
93	0	0	1527	1197	3778	73
94	0	0	1594	1196	3777	73
95	0	0	1734	1196	3779	72
96	0	0	1933	1197	3778	73
97	0	0	2127	1195	3779	73
98	0	0	2286	1198	3778	72
99	0	0	2418	1194	3778	73
100	0	0	2498	1196	3778	73
101	0	0	2587	1195	3777	73
102	0	0	2614	1194	3779	75
103	0	0	2539	1192	3777	74
104	0	0	2443	1189	3778	74
105	0	0	2323	1192	3778	72
106	0	0	2196	1191	3778	74
107	0	0	2060	1191	3779	73
108	0	0	1911	1192	3779	73
109	0	0	1775	1191	3779	73
110	0	0	1669	1192	3779	72
111	0	0	1513	1190	3778	73
112	0	0	1454	1195	3778	72
113	0	0	1486	1197	3779	73
114	0	0	1549	1197	3778	72
115	0	0	1710	1196	3778	72
116	0	0	1916	1198	3778	73
117	0	0	2101	1194	3778	73
118	0	0	2254	1196	3778	73
119	0	0	2379	1195	3779	72
120	0	0	2466	1196	3777	72
121	0	0	2562	1195	3777	74
122	0	0	2592	1194	3779	75
123	0	0	2526	1194	3777	72
124	0	0	2442	1193	3779	75
125	0	0	2323	1191	3779	73
126	0	0	2180	1191	3778	73
127	0	0	2025	1190	3779	75
0	0	0	1872	1193	3779	73
1	0	0	1757	1191	3779	74
2	0	0	1659	1193	3778	72
3	0	0	1540	1192	3777	73
4	0	0	1515	1197	3777	73
5	0	0	1549	1197	3776	72
6	0	0	1586	1195	3777	73
7	0	0	1712	1197	3779	73
8	0	0	1902	1198	3777	74
9	0	0	2101	1195	3778	71
10	0	0	2277	1196	3778	74
11	0	0	2410	1197	3778	73
12	0	0	2495	1196	3778	72
13	0	0	2570	1194	3777	73
14	0	0	2570	1196	3777	74
15	0	0	2501	1192	3778	74
16	0	0	2419	1192	3779	73
17	0	0	2307	1191	3779	73
18	0	0	2184	1191	3780	74
19	0	0	2045	1190	3779	73
20	0	0	1894	1193	3778	74
21	0	0	1757	1193	3778	73
22	0	0	1648	1192	3775	74
23	0	0	1502	1192	3776	74
24	0	0	1437	1196	3777	73
25	0	0	1470	1197	3777	74
26	0	0	1527	1196	3778	72
27	0	0	1675	1196	3778	74
28	0	0	1889	1195	3779	73
29	0	0	2084	1198	3779	76
30	0	0	2244	1197	3777	73
31	0	0	2365	1197	3779	73
32	0	0	2445	1196	3777	72
33	0	0	2532	1196	3780	72
34	0	0	2552	1195	3779	71
35	0	0	2479	1192	3779	74
36	0	0	2406	1192	3779	73
37	0	0	2298	1191	3778	74
38	0	0	2173	1191	3779	73
39	0	0	2019	1192	3779	76
40	0	0	1863	1192	3777	76
41	0	0	1741	1194	3778	73
42	0	0	1638	1192	3777	71
43	0	0	1493	1192	3777	74
44	0	0	1429	1196	3777	74
45	0	0	1470	1197	3777	73
46	0	0	1549	1199	3779	71
47	0	0	1702	1196	3778	72
48	0	0	1896	1196	3778	76
49	0	0	2083	1199	3778	73
50	0	0	2247	1197	3779	72
51	0	0	2368	1200	3780	72
52	0	0	2458	1197	3779	72
53	0	0	2532	1197	3777	74
54	0	0	2561	1196	3777	74
55	0	0	2490	1192	3779	73
56	0	0	2411	1195	3778	73
57	0	0	2300	1192	3775	75
58	0	0	2165	1192	3778	74
59	0	0	2035	1194	3777	73
60	0	0	1903	1192	3779	76
61	0	0	1789	1192	3779	73
62	0	0	1676	1192	3777	74
63	0	0	1536	1192	3778	74
64	0	0	1471	1197	3777	73
65	0	0	1499	1197	3778	71
66	0	0	1553	1198	3779	73
67	0	0	1701	1196	3779	73
68	0	0	1904	1195	3779	74
69	0	0	2096	1199	3778	73
70	0	0	2263	1197	3779	74
71	0	0	2405	1195	3778	71
72	0	0	2489	1196	3777	73
73	0	0	2572	1194	3777	73
74	0	0	2609	1198	3775	74
75	0	0	2543	1193	3778	74
76	0	0	2464	1193	3778	74
77	0	0	2350	1192	3777	74
78	0	0	2225	1191	3778	73
79	0	0	2083	1194	3777	74
80	0	0	1934	1192	3779	74
81	0	0	1794	1195	3779	73
82	0	0	1692	1192	3780	74
83	0	0	1554	1192	3779	73
84	0	0	1490	1195	3779	73
85	0	0	1508	1197	3779	72
86	0	0	1554	1196	3779	72
87	0	0	1693	1196	3779	73
88	0	0	1882	1197	3778	73
89	0	0	2082	1197	3778	73
90	0	0	2266	1196	3778	71
91	0	0	2401	1197	3778	72
92	0	0	2475	1197	3777	73
93	0	0	2567	1196	3777	73
94	0	0	2606	1197	3777	73
95	0	0	2542	1193	3778	71
96	0	0	2471	1193	3777	73
97	0	0	2379	1191	3778	74
98	0	0	2252	1191	3779	74
99	0	0	2103	1191	3779	73
100	0	0	1929	1192	3780	73
101	0	0	1784	1192	3779	73
102	0	0	1671	1192	3778	74
103	0	0	1519	1192	3777	72
104	0	0	1445	1195	3777	73
105	0	0	1490	1196	3778	74
106	0	0	1568	1196	3777	72
107	0	0	1711	1197	3777	74
108	0	0	1913	1196	3778	72
109	0	0	2104	1196	3778	73
110	0	0	2275	1196	3779	71
111	0	0	2405	1199	3778	72
112	0	0	2497	1197	3779	72
113	0	0	2578	1195	3778	73
114	0	0	2608	1197	3778	71
115	0	0	2552	1193	3779	73
116	0	0	2470	1192	3778	75
117	0	0	2365	1192	3780	73
118	0	0	2224	1191	3779	74
119	0	0	2085	1191	3779	72
120	0	0	1932	1192	3780	73
121	0	0	1773	1192	3779	73
122	0	0	1666	1191	3777	74
123	0	0	1530	1191	3777	74
124	0	0	1466	1195	3777	73
125	0	0	1506	1197	3779	75
126	0	0	1567	1197	3777	72
127	0	0	1709	1196	3777	72
0	0	0	1924	1196	3779	72
1	0	0	2114	1198	3777	73
2	0	0	2254	1197	3779	73
3	0	0	2369	1196	3777	72
4	0	0	2457	1195	3779	73
5	0	0	2545	1196	3780	75
6	0	0	2563	1194	3779	71
7	0	0	2481	1193	3780	72
8	0	0	2411	1193	3778	71
9	0	0	2319	1191	3779	73
10	0	0	2209	1190	3779	74
11	0	0	2071	1192	3778	74
12	0	0	1925	1192	3778	74
13	0	0	1797	1193	3778	74
14	0	0	1700	1192	3778	75
15	0	0	1560	1192	3777	74
16	0	0	1489	1194	3778	74
17	0	0	1523	1197	3778	71
18	0	0	1597	1196	3778	74
19	0	0	1741	1197	3779	72
20	0	0	1954	1196	3780	73
21	0	0	2150	1196	3777	73
22	0	0	2291	1196	3778	72
23	0	0	2398	1196	3778	73
24	0	0	2480	1198	3778	73
25	0	0	2570	1195	3779	72
26	0	0	2599	1195	3776	74
27	0	0	2509	1192	3778	74
28	0	0	2428	1193	3779	73
29	0	0	2319	1191	3778	72
30	0	0	2190	1191	3779	73
31	0	0	2047	1192	3779	73
32	0	0	1904	1192	3780	74
33	0	0	1777	1192	3779	73
34	0	0	1669	1191	3778	73
35	0	0	1528	1192	3777	74
36	0	0	1461	1193	3778	72
37	0	0	1490	1197	3777	71
38	0	0	1562	1197	3779	72
39	0	0	1703	1195	3780	73
40	0	0	1893	1196	3781	73
41	0	0	2082	1197	3780	71
42	0	0	2258	1197	3779	73
43	0	0	2408	1196	3779	72
44	0	0	2512	1196	3777	73
45	0	0	2603	1196	3777	74
46	0	0	2626	1194	3777	72
47	0	0	2550	1193	3776	72
48	0	0	2486	1192	3779	74
49	0	0	2400	1192	3779	72
50	0	0	2270	1190	3778	74
51	0	0	2097	1189	3778	74
52	0	0	1930	1192	3779	74
53	0	0	1793	1191	3778	73
54	0	0	1688	1192	3778	73
55	0	0	1547	1192	3780	73
56	0	0	1475	1195	3777	73
57	0	0	1505	1198	3780	74
58	0	0	1554	1198	3778	72
59	0	0	1685	1197	3778	72
60	0	0	1880	1196	3778	75
61	0	0	2074	1195	3778	73
62	0	0	2253	1197	3777	72
63	0	0	2399	1195	3778	72
64	0	0	2494	1197	3779	72
65	0	0	2571	1197	3776	73
66	0	0	2589	1194	3777	74
67	0	0	2512	1193	3779	74
68	0	0	2446	1193	3778	73
69	0	0	2364	1191	3780	74
70	0	0	2237	1192	3779	74
71	0	0	2072	1191	3780	71
72	0	0	1914	1192	3779	74
73	0	0	1795	1191	3780	74
74	0	0	1686	1191	3778	74
75	0	0	1550	1192	3779	73
76	0	0	1463	1194	3780	74
77	0	0	1491	1197	3779	74
78	0	0	1556	1199	3778	72
79	0	0	1705	1196	3778	74
80	0	0	1908	1196	3779	72
81	0	0	2094	1196	3778	50
82	0	0	2256	1196	3780	72
83	0	0	2377	1195	3778	72
84	0	0	2463	1196	3778	72
85	0	0	2538	1196	3778	72
86	0	0	2576	1194	3776	74
87	0	0	2514	1193	3781	75
88	0	0	2444	1191	3779	74
89	0	0	2334	1192	3779	75
90	0	0	2207	1192	3779	72
91	0	0	2045	1189	3779	73
92	0	0	1895	1192	3779	73
93	0	0	1760	1191	3778	71
94	0	0	1658	1192	3777	74
95	0	0	1516	1191	3777	72
96	0	0	1438	1195	3778	71
97	0	0	1477	1197	3777	74
98	0	0	1553	1197	3776	73
99	0	0	1710	1197	3779	72
100	0	0	1909	1195	3778	73
101	0	0	2108	1196	3779	71
102	0	0	2282	1196	3779	73
103	0	0	2421	1195	3779	74
104	0	0	2489	1197	3780	72
105	0	0	2553	1195	3779	73
106	0	0	2594	1196	3778	71
107	0	0	2535	1193	3779	74
108	0	0	2457	1191	3779	73
109	0	0	2349	1192	3779	74
110	0	0	2219	1191	3778	74
111	0	0	2070	1191	3778	74
112	0	0	1913	1192	3777	74
113	0	0	1787	1190	3778	73
114	0	0	1690	1191	3777	73
115	0	0	1563	1192	3777	74
116	0	0	1488	1194	3778	72
117	0	0	1519	1196	3777	74
118	0	0	1585	1195	3778	72
119	0	0	1715	1196	3778	73
120	0	0	1912	1194	3779	72
121	0	0	2104	1197	3779	69
122	0	0	2285	1196	3781	72
123	0	0	2422	1194	3778	73
124	0	0	2515	1195	3778	73
125	0	0	2601	1194	3778	72
126	0	0	2624	1196	3778	72
127	0	0	2552	1192	3777	74
0	0	0	2457	1191	3779	73
1	0	0	2326	1192	3778	74
2	0	0	2188	1193	3779	73
3	0	0	2061	1192	3778	71
4	0	0	1929	1191	3779	74
5	0	0	1804	1192	3779	73
6	0	0	1718	1193	3779	73
7	0	0	1592	1191	3778	73
8	0	0	1514	1195	3778	71
9	0	0	1534	1196	3777	73
10	0	0	1583	1196	3779	72
11	0	0	1706	1195	3779	73
12	0	0	1904	1197	3779	73
13	0	0	2114	1196	3779	72
14	0	0	2299	1195	3777	74
15	0	0	2425	1196	3779	73
16	0	0	2499	1196	3777	73
17	0	0	2574	1193	3777	72
18	0	0	2601	1194	3777	76
19	0	0	2523	1192	3776	74
20	0	0	2444	1190	3778	72
21	0	0	2345	1191	3778	73
22	0	0	2233	1191	3778	74
23	0	0	2081	1192	3778	73
24	0	0	1926	1192	3777	75
25	0	0	1795	1192	3779	73
26	0	0	1688	1191	3778	74
27	0	0	1542	1191	3778	73
28	0	0	1481	1197	3777	73
29	0	0	1522	1199	3776	74
30	0	0	1591	1197	3779	73
31	0	0	1710	1196	3778	73
32	0	0	1894	1196	3778	72
33	0	0	2094	1198	3778	72
34	0	0	2277	1196	3779	74
35	0	0	2420	1196	3778	72
36	0	0	2506	1196	3777	74
37	0	0	2577	1196	3777	73
38	0	0	2601	1197	3775	74
39	0	0	2541	1192	3778	75
40	0	0	2461	1188	3778	74
41	0	0	2365	1191	3778	74
42	0	0	2249	1191	3779	73
43	0	0	2110	1192	3779	74
44	0	0	1960	1192	3779	75
45	0	0	1826	1189	3779	73
46	0	0	1726	1188	3777	74
47	0	0	1588	1192	3777	72
48	0	0	1519	1196	3775	75
49	0	0	1553	1196	3777	74
50	0	0	1606	1196	3779	73
51	0	0	1719	1195	3777	74
52	0	0	1897	1196	3778	73
53	0	0	2079	1196	3778	74
54	0	0	2246	1196	3776	74
55	0	0	2381	1196	3779	73
56	0	0	2468	1196	3777	73
57	0	0	2552	1195	3779	72
58	0	0	2568	1195	3777	73
59	0	0	2499	1193	3778	73
60	0	0	2424	1192	3779	73
61	0	0	2316	1191	3779	73
62	0	0	2193	1191	3779	74
63	0	0	2062	1191	3779	72
64	0	0	1906	1192	3779	73
65	0	0	1761	1192	3779	73
66	0	0	1660	1192	3779	74
67	0	0	1525	1192	3776	74
68	0	0	1464	1196	3777	72
69	0	0	1502	1197	3779	72
70	0	0	1561	1196	3778	72
71	0	0	1702	1197	3779	72
72	0	0	1905	1198	3779	74
73	0	0	2099	1196	3778	72
74	0	0	2274	1196	3780	72
75	0	0	2412	1196	3780	73
76	0	0	2508	1196	3779	73
77	0	0	2589	1197	3778	73
78	0	0	2607	1193	3779	72
79	0	0	2528	1191	3779	75
80	0	0	2440	1191	3775	75
81	0	0	2340	1189	3776	75
82	0	0	2211	1191	3780	73
83	0	0	2064	1192	3777	72
84	0	0	1913	1191	3778	73
85	0	0	1771	1191	3779	73
86	0	0	1669	1191	3777	72
87	0	0	1527	1191	3777	74
88	0	0	1453	1194	3778	75
89	0	0	1480	1197	3778	74
90	0	0	1541	1195	3779	73
91	0	0	1681	1196	3780	73
92	0	0	1880	1197	3778	73
93	0	0	2082	1197	3779	73
94	0	0	2269	1196	3779	73
95	0	0	2397	1195	3775	75
96	0	0	2482	1196	3778	73
97	0	0	2555	1195	3778	74
98	0	0	2570	1194	3778	74
99	0	0	2519	1192	3777	73
100	0	0	2454	1193	3777	74
101	0	0	2361	1192	3778	73
102	0	0	2230	1191	3779	73
103	0	0	2088	1192	3777	71
104	0	0	1931	1191	3779	73
105	0	0	1793	1192	3778	73
106	0	0	1699	1192	3778	73
107	0	0	1564	1192	3777	73
108	0	0	1489	1196	3777	73
109	0	0	1519	1196	3778	73
110	0	0	1572	1196	3778	71
111	0	0	1696	1196	3779	73
112	0	0	1886	1196	3779	76
113	0	0	2073	1195	3779	74
114	0	0	2244	1196	3780	73
115	0	0	2386	1195	3778	74
116	0	0	2475	1196	3779	74
117	0	0	2552	1193	3778	73
118	0	0	2577	1196	3777	73
119	0	0	2523	1193	3779	73
120	0	0	2461	1194	3777	73
121	0	0	2373	1192	3777	74
122	0	0	2255	1191	3778	74
123	0	0	2108	1191	3779	75
124	0	0	1939	1190	3778	72
125	0	0	1791	1190	3778	74
126	0	0	1691	1192	3778	74
127	0	0	1568	1192	3777	73
0	0	0	1497	1194	3778	73
1	0	0	1531	1196	3778	73
2	0	0	1601	1196	3778	73
3	0	0	1734	1196	3780	72
4	0	0	1939	1196	3777	72
5	0	0	2127	1196	3779	71
6	0	0	2300	1195	3778	71
7	0	0	2448	1196	3779	72
8	0	0	2532	1195	3777	73
9	0	0	2611	1198	3778	73
10	0	0	2640	1197	3777	72
11	0	0	2583	1192	3779	73
12	0	0	2507	1191	3778	74
13	0	0	2408	1191	3778	74
14	0	0	2277	1191	3779	74
15	0	0	2134	1191	3778	72
16	0	0	1992	1191	3781	73
17	0	0	1860	1192	3779	74
18	0	0	1757	1191	3779	73
19	0	0	1627	1191	3777	73
20	0	0	1549	1193	3778	73
21	0	0	1574	1197	3778	73
22	0	0	1623	1198	3775	73
23	0	0	1748	1196	3779	72
24	0	0	1930	1192	3779	73
25	0	0	2110	1197	3778	73
26	0	0	2289	1196	3778	72
27	0	0	2441	1194	3778	73
28	0	0	2542	1196	3777	73
29	0	0	2625	1195	3778	73
30	0	0	2669	1195	3778	72
31	0	0	2623	1192	3778	71
32	0	0	2549	1192	3779	73
33	0	0	2429	1191	3779	74
34	0	0	2292	1192	3780	73
35	0	0	2136	1191	3779	71
36	0	0	1972	1191	3778	72
37	0	0	1838	1191	3779	72
38	0	0	1727	1191	3777	71
39	0	0	1585	1193	3777	73
40	0	0	1501	1193	3776	73
41	0	0	1527	1196	3776	71
42	0	0	1587	1196	3778	72
43	0	0	1726	1195	3778	72
44	0	0	1936	1197	3777	73
45	0	0	2136	1195	3780	73
46	0	0	2311	1196	3781	72
47	0	0	2433	1196	3779	73
48	0	0	2509	1194	3779	73
49	0	0	2584	1196	3777	73
50	0	0	2621	1194	3780	72
51	0	0	2574	1191	3779	73
52	0	0	2494	1191	3778	73
53	0	0	2383	1190	3777	73
54	0	0	2252	1191	3779	73
55	0	0	2116	1192	3779	73
56	0	0	1975	1191	3778	71
57	0	0	1849	1192	3778	73
58	0	0	1738	1191	3777	74
59	0	0	1599	1193	3778	73
60	0	0	1521	1193	3778	71
61	0	0	1560	1196	3778	71
62	0	0	1642	1197	3779	72
63	0	0	1784	1196	3778	75
64	0	0	1977	1196	3779	73
65	0	0	2173	1195	3780	73
66	0	0	2339	1196	3778	71
67	0	0	2481	1196	3779	72
68	0	0	2591	1195	3778	73
69	0	0	2690	1196	3779	73
70	0	0	2724	1195	3780	75
71	0	0	2671	1192	3777	74
72	0	0	2580	1191	3778	74
73	0	0	2468	1191	3777	73
74	0	0	2335	1190	3778	74
75	0	0	2185	1190	3778	73
76	0	0	2019	1191	3779	72
77	0	0	1868	1190	3779	74
78	0	0	1755	1191	3779	73
79	0	0	1605	1190	3778	74
80	0	0	1514	1193	3777	74
81	0	0	1548	1196	3778	73
82	0	0	1605	1196	3779	75
83	0	0	1747	1196	3779	73
84	0	0	1968	1198	3778	73
85	0	0	2191	1194	3781	73
86	0	0	2384	1196	3778	71
87	0	0	2539	1195	3778	71
88	0	0	2632	1196	3776	73
89	0	0	2701	1195	3777	73
90	0	0	2726	1193	3778	73
91	0	0	2657	1190	3778	73
92	0	0	2576	1192	3779	72
93	0	0	2449	1190	3777	74
94	0	0	2331	1190	3779	73
95	0	0	2180	1191	3779	71
96	0	0	2016	1190	3779	71
97	0	0	1878	1191	3779	73
98	0	0	1777	1191	3778	75
99	0	0	1641	1192	3779	73
100	0	0	1572	1194	3778	74
101	0	0	1609	1196	3776	75
102	0	0	1671	1195	3779	72
103	0	0	1822	1195	3778	73
104	0	0	2049	1196	3778	74
105	0	0	2267	1195	3779	73
106	0	0	2431	1194	3777	74
107	0	0	2556	1195	3779	73
108	0	0	2651	1197	3778	72
109	0	0	2736	1191	3778	76
110	0	0	2788	1194	3778	73
111	0	0	2729	1191	3776	75
112	0	0	2659	1191	3778	73
113	0	0	2560	1190	3778	74
114	0	0	2423	1187	3778	72
115	0	0	2257	1190	3779	73
116	0	0	2075	1190	3777	76
117	0	0	1905	1190	3780	75
118	0	0	1766	1191	3778	74
119	0	0	1610	1187	3778	76
120	0	0	1507	1192	3779	78
121	0	0	1524	1195	3777	74
122	0	0	1581	1195	3776	72
123	0	0	1706	1196	3778	73
124	0	0	1900	1191	3778	74
125	0	0	2088	1195	3778	73
126	0	0	2260	1195	3778	73
127	0	0	2402	1195	3779	74
0	0	0	2512	1195	3779	71
1	0	0	2591	1195	3775	74
2	0	0	2600	1192	3778	73
3	0	0	2519	1191	3779	73
4	0	0	2433	1191	3778	73
5	0	0	2333	1191	3778	74
6	0	0	2214	1190	3779	73
7	0	0	2082	1191	3780	73
8	0	0	1917	1191	3779	71
9	0	0	1773	1191	3778	74
10	0	0	1657	1191	3777	74
11	0	0	1506	1191	3778	73
12	0	0	1409	1192	3779	74
13	0	0	1425	1196	3778	73
14	0	0	1460	1195	3775	75
15	0	0	1573	1194	3777	73
16	0	0	1784	1195	3778	73
17	0	0	1986	1196	3779	73
18	0	0	2150	1195	3779	71
19	0	0	2281	1195	3779	73
20	0	0	2365	1195	3778	73
21	0	0	2439	1195	3779	72
22	0	0	2494	1195	3778	73
23	0	0	2459	1191	3776	75
24	0	0	2381	1191	3776	73
25	0	0	2279	1191	3778	74
26	0	0	2137	1189	3780	77
27	0	0	1980	1191	3778	74
28	0	0	1817	1191	3779	73
29	0	0	1655	1191	3776	73
30	0	0	1539	1191	3779	72
31	0	0	1388	1191	3775	74
32	0	0	1288	1193	3775	75
33	0	0	1317	1196	3778	71
34	0	0	1379	1197	3777	73
35	0	0	1510	1196	3777	71
36	0	0	1698	1196	3779	74
37	0	0	1892	1196	3779	73
38	0	0	2066	1195	3779	71
39	0	0	2211	1195	3777	71
40	0	0	2317	1197	3778	73
41	0	0	2396	1195	3778	73
42	0	0	2438	1195	3778	73
43	0	0	2383	1192	3776	74
44	0	0	2315	1191	3778	73
45	0	0	2231	1191	3777	74
46	0	0	2115	1191	3780	73
47	0	0	1975	1192	3779	73
48	0	0	1847	1191	3779	71
49	0	0	1738	1192	3779	73
50	0	0	1630	1192	3778	74
51	0	0	1492	1191	3778	72
52	0	0	1412	1194	3777	73
53	0	0	1445	1197	3778	73
54	0	0	1508	1196	3777	73
55	0	0	1643	1195	3778	74
56	0	0	1846	1196	3779	73
57	0	0	2033	1196	3779	73
58	0	0	2197	1196	3779	72
59	0	0	2317	1195	3777	73
60	0	0	2417	1196	3779	72
61	0	0	2493	1197	3775	74
62	0	0	2528	1195	3775	74
63	0	0	2461	1192	3777	71
64	0	0	2370	1191	3775	75
65	0	0	2251	1191	3776	71
66	0	0	2103	1191	3778	75
67	0	0	1956	1190	3776	75
68	0	0	1826	1191	3778	72
69	0	0	1709	1191	3779	73
70	0	0	1611	1191	3777	74
71	0	0	1471	1191	3779	75
72	0	0	1367	1192	3776	75
73	0	0	1387	1196	3778	72
74	0	0	1458	1196	3777	72
75	0	0	1592	1195	3778	73
76	0	0	1802	1195	3778	74
77	0	0	2022	1195	3776	75
78	0	0	2214	1195	3778	73
79	0	0	2356	1194	3779	71
80	0	0	2444	1197	3777	71
81	0	0	2523	1195	3777	73
82	0	0	2573	1195	3776	75
83	0	0	2515	1192	3777	72
84	0	0	2436	1191	3775	75
85	0	0	2338	1191	3778	73
86	0	0	2194	1189	3781	74
87	0	0	2032	1191	3780	73
88	0	0	1869	1191	3779	75
89	0	0	1736	1191	3779	73
90	0	0	1620	1192	3779	74
91	0	0	1466	1192	3775	75
92	0	0	1379	1193	3777	73
93	0	0	1400	1197	3779	72
94	0	0	1442	1196	3775	72
95	0	0	1570	1196	3779	72
96	0	0	1764	1198	3778	72
97	0	0	1966	1196	3777	73
98	0	0	2159	1195	3779	72
99	0	0	2335	1195	3778	72
100	0	0	2454	1195	3778	73
101	0	0	2529	1195	3778	73
102	0	0	2568	1195	3779	72
103	0	0	2509	1192	3778	74
104	0	0	2424	1191	3779	74
105	0	0	2304	1190	3779	74
106	0	0	2164	1191	3779	74
107	0	0	2015	1192	3778	73
108	0	0	1867	1191	3778	72
109	0	0	1748	1191	3777	71
110	0	0	1644	1191	3776	72
111	0	0	1509	1190	3775	74
112	0	0	1423	1192	3776	75
113	0	0	1454	1196	3777	72
114	0	0	1520	1195	3778	72
115	0	0	1647	1196	3777	73
116	0	0	1833	1194	3779	72
117	0	0	2009	1196	3779	76
118	0	0	2150	1196	3779	72
119	0	0	2262	1195	3780	72
120	0	0	2323	1195	3778	73
121	0	0	2388	1193	3779	73
122	0	0	2447	1195	3780	73
123	0	0	2410	1192	3779	76
124	0	0	2363	1192	3778	73
125	0	0	2291	1192	3779	74
126	0	0	2191	1192	3779	74
127	0	0	2054	1191	3778	74
0	0	0	1890	1191	3778	72
1	0	0	1736	1191	3778	72
2	0	0	1598	1191	3778	74
3	0	0	1438	1191	3778	73
4	0	0	1333	1192	3776	74
5	0	0	1361	1196	3777	76
6	0	0	1431	1195	3779	72
7	0	0	1582	1196	3777	71
8	0	0	1810	1195	3778	73
9	0	0	2023	1195	3779	72
10	0	0	2202	1196	3779	76
11	0	0	2327	1197	3780	72
12	0	0	2403	1196	3779	73
13	0	0	2479	1194	3779	73
14	0	0	2527	1195	3778	72
15	0	0	2480	1192	3777	78
16	0	0	2401	1191	3776	73
17	0	0	2300	1191	3778	74
18	0	0	2165	1190	3779	73
19	0	0	2011	1192	3779	74
20	0	0	1858	1191	3777	72
21	0	0	1746	1191	3778	73
22	0	0	1646	1191	3777	73
23	0	0	1502	1191	3777	74
24	0	0	1405	1193	3778	73
25	0	0	1411	1196	3778	72
26	0	0	1456	1197	3777	73
27	0	0	1576	1197	3779	73
28	0	0	1787	1196	3779	72
29	0	0	2010	1196	3779	72
30	0	0	2207	1196	3779	76
31	0	0	2344	1196	3779	72
32	0	0	2427	1196	3777	73
33	0	0	2506	1196	3777	71
34	0	0	2567	1196	3777	74
35	0	0	2517	1192	3778	75
36	0	0	2439	1191	3776	73
37	0	0	2323	1190	3777	74
38	0	0	2179	1190	3778	74
39	0	0	2018	1192	3778	74
40	0	0	1840	1191	3779	73
41	0	0	1678	1191	3778	73
42	0	0	1573	1191	3778	74
43	0	0	1454	1190	3779	74
44	0	0	1385	1193	3779	72
45	0	0	1409	1196	3779	71
46	0	0	1457	1197	3778	73
47	0	0	1567	1196	3778	73
48	0	0	1761	1195	3778	73
49	0	0	1965	1196	3778	72
50	0	0	2153	1195	3779	74
51	0	0	2306	1195	3777	71
52	0	0	2409	1195	3777	72
53	0	0	2493	1195	3777	73
54	0	0	2552	1196	3778	72
55	0	0	2508	1193	3778	74
56	0	0	2445	1192	3776	71
57	0	0	2363	1191	3778	73
58	0	0	2235	1190	3778	74
59	0	0	2103	1191	3779	72
60	0	0	1959	1191	3779	74
61	0	0	1829	1191	3778	73
62	0	0	1726	1192	3775	76
63	0	0	1591	1191	3777	73
64	0	0	1482	1193	3778	72
65	0	0	1481	1195	3778	74
66	0	0	1519	1196	3778	73
67	0	0	1626	1195	3777	75
68	0	0	1810	1195	3777	73
69	0	0	2016	1196	3777	72
70	0	0	2202	1195	3778	74
71	0	0	2356	1194	3776	71
72	0	0	2465	1195	3779	71
73	0	0	2535	1192	3776	75
74	0	0	2573	1195	3778	73
75	0	0	2518	1192	3779	73
76	0	0	2442	1191	3780	73
77	0	0	2347	1191	3780	73
78	0	0	2210	1189	3777	74
79	0	0	2075	1192	3779	73
80	0	0	1927	1191	3779	73
81	0	0	1779	1191	3778	73
82	0	0	1676	1191	3779	73
83	0	0	1534	1189	3778	73
84	0	0	1427	1193	3777	73
85	0	0	1445	1196	3777	72
86	0	0	1504	1196	3778	72
87	0	0	1619	1196	3777	73
88	0	0	1834	1195	3778	72
89	0	0	2068	1197	3779	74
90	0	0	2265	1195	3779	71
91	0	0	2430	1194	3780	74
92	0	0	2552	1195	3779	73
93	0	0	2646	1196	3778	73
94	0	0	2685	1194	3780	73
95	0	0	2619	1191	3778	75
96	0	0	2543	1190	3776	71
97	0	0	2441	1191	3777	74
98	0	0	2314	1190	3778	74
99	0	0	2164	1191	3778	74
100	0	0	2019	1191	3779	73
101	0	0	1871	1190	3780	74
102	0	0	1725	1191	3779	74
103	0	0	1565	1191	3777	74
104	0	0	1470	1192	3777	73
105	0	0	1500	1196	3779	72
106	0	0	1544	1195	3778	73
107	0	0	1665	1194	3778	73
108	0	0	1872	1195	3777	74
109	0	0	2082	1195	3778	74
110	0	0	2263	1196	3777	73
111	0	0	2404	1195	3780	72
112	0	0	2493	1194	3778	72
113	0	0	2562	1194	3777	72
114	0	0	2595	1192	3778	73
115	0	0	2535	1192	3779	71
116	0	0	2473	1191	3780	73
117	0	0	2387	1190	3777	73
118	0	0	2263	1190	3778	73
119	0	0	2117	1190	3779	73
120	0	0	1966	1190	3778	75
121	0	0	1827	1190	3779	74
122	0	0	1720	1191	3777	73
123	0	0	1583	1191	3777	74
124	0	0	1473	1189	3778	73
125	0	0	1490	1196	3779	74
126	0	0	1552	1196	3780	72
127	0	0	1679	1195	3780	72
0	0	0	1854	1197	3779	74
1	0	0	2057	1193	3779	73
2	0	0	2259	1196	3779	72
3	0	0	2415	1194	3779	73
4	0	0	2552	1193	3777	73
5	0	0	2645	1195	3777	74
6	0	0	2685	1193	3777	73
7	0	0	2616	1191	3777	73
8	0	0	2542	1191	3779	73
9	0	0	2443	1191	3778	73
10	0	0	2308	1190	3779	73
11	0	0	2146	1188	3779	72
12	0	0	1988	1191	3779	71
13	0	0	1839	1190	3780	73
14	0	0	1718	1191	3778	74
15	0	0	1583	1190	3778	74
16	0	0	1471	1190	3780	74
17	0	0	1478	1196	3779	70
18	0	0	1531	1195	3779	72
19	0	0	1647	1195	3777	74
20	0	0	1827	1196	3778	73
21	0	0	2027	1192	3778	73
22	0	0	2224	1195	3779	72
23	0	0	2387	1195	3780	72
24	0	0	2511	1196	3779	72
25	0	0	2598	1195	3776	71
26	0	0	2650	1193	3778	72
27	0	0	2607	1192	3778	74
28	0	0	2536	1191	3777	73
29	0	0	2451	1191	3778	73
30	0	0	2320	1190	3777	75
31	0	0	2170	1190	3779	71
32	0	0	2019	1190	3779	73
33	0	0	1879	1191	3780	73
34	0	0	1740	1190	3778	75
35	0	0	1587	1190	3779	73
36	0	0	1466	1192	3779	75
37	0	0	1477	1196	3776	72
38	0	0	1530	1197	3779	72
39	0	0	1637	1194	3777	73
40	0	0	1835	1195	3778	76
41	0	0	2054	1193	3779	73
42	0	0	2235	1195	3779	72
43	0	0	2380	1195	3779	73
44	0	0	2480	1195	3780	74
45	0	0	2544	1194	3779	71
46	0	0	2598	1192	3779	73
47	0	0	2561	1191	3779	71
48	0	0	2487	1191	3778	73
49	0	0	2402	1191	3779	74
50	0	0	2271	1190	3777	75
51	0	0	2121	1190	3779	71
52	0	0	1954	1191	3779	75
53	0	0	1812	1191	3779	73
54	0	0	1714	1191	3777	74
55	0	0	1609	1191	3778	73
56	0	0	1517	1191	3777	71
57	0	0	1534	1197	3777	72
58	0	0	1575	1196	3777	72
59	0	0	1663	1195	3778	73
60	0	0	1859	1195	3779	71
61	0	0	2076	1195	3779	73
62	0	0	2254	1197	3779	72
63	0	0	2416	1195	3779	76
64	0	0	2533	1195	3780	73
65	0	0	2611	1195	3779	72
66	0	0	2636	1194	3779	74
67	0	0	2556	1192	3779	75
68	0	0	2492	1191	3780	73
69	0	0	2396	1189	3777	74
70	0	0	2272	1190	3779	73
71	0	0	2120	1191	3779	73
72	0	0	1950	1193	3778	74
73	0	0	1806	1191	3779	73
74	0	0	1679	1191	3777	74
75	0	0	1548	1190	3778	73
76	0	0	1450	1191	3777	73
77	0	0	1479	1197	3778	72
78	0	0	1550	1194	3779	73
79	0	0	1670	1195	3779	72
80	0	0	1861	1195	3777	72
81	0	0	2060	1195	3778	74
82	0	0	2247	1197	3778	73
83	0	0	2404	1196	3780	72
84	0	0	2500	1194	3778	73
85	0	0	2580	1195	3779	72
86	0	0	2644	1196	3778	73
87	0	0	2592	1194	3777	73
88	0	0	2516	1191	3778	73
89	0	0	2391	1190	3777	74
90	0	0	2256	1191	3779	72
91	0	0	2112	1191	3779	73
92	0	0	1943	1190	3778	73
93	0	0	1789	1191	3778	71
94	0	0	1661	1191	3778	73
95	0	0	1545	1191	3779	72
96	0	0	1448	1192	3779	73
97	0	0	1467	1196	3779	75
98	0	0	1523	1196	3779	73
99	0	0	1626	1195	3779	73
100	0	0	1827	1196	3779	73
101	0	0	2052	1196	3779	73
102	0	0	2251	1197	3779	72
103	0	0	2390	1194	3778	73
104	0	0	2495	1195	3779	70
105	0	0	2557	1194	3776	72
106	0	0	2606	1194	3777	73
107	0	0	2554	1192	3778	73
108	0	0	2478	1191	3777	72
109	0	0	2390	1191	3779	73
110	0	0	2261	1189	3776	75
111	0	0	2105	1191	3779	74
112	0	0	1934	1191	3779	73
113	0	0	1780	1190	3779	76
114	0	0	1665	1192	3779	75
115	0	0	1530	1191	3779	72
116	0	0	1417	1193	3778	74
117	0	0	1441	1196	3779	72
118	0	0	1508	1195	3779	73
119	0	0	1632	1195	3779	73
120	0	0	1827	1194	3778	73
121	0	0	2031	1196	3778	72
122	0	0	2216	1196	3778	76
123	0	0	2374	1195	3779	75
124	0	0	2483	1195	3777	73
125	0	0	2563	1194	3777	73
126	0	0	2616	1196	3777	76
127	0	0	2575	1190	3778	76
0	0	0	2493	1190	3777	75
1	0	0	2384	1190	3778	73
2	0	0	2255	1191	3779	74
3	0	0	2108	1192	3779	72
4	0	0	1954	1191	3779	76
5	0	0	1806	1191	3778	75
6	0	0	1692	1191	3781	74
7	0	0	1565	1190	3777	74
8	0	0	1447	1192	3777	72
9	0	0	1456	1195	3778	75
10	0	0	1508	1195	3777	75
11	0	0	1628	1196	3777	73
12	0	0	1831	1195	3778	73
13	0	0	2025	1197	3778	72
14	0	0	2213	1195	3779	74
15	0	0	2365	1192	3779	73
16	0	0	2471	1196	3777	73
17	0	0	2552	1194	3777	74
18	0	0	2602	1196	3777	74
19	0	0	2571	1191	3778	72
20	0	0	2505	1192	3779	72
21	0	0	2401	1191	3779	74
22	0	0	2270	1191	3778	71
23	0	0	2103	1190	3779	73
24	0	0	1935	1190	3777	72
25	0	0	1790	1192	3779	73
26	0	0	1673	1191	3777	74
27	0	0	1539	1191	3776	74
28	0	0	1410	1192	3778	74
29	0	0	1419	1196	3777	74
30	0	0	1488	1195	3779	72
31	0	0	1608	1195	3777	73
32	0	0	1814	1195	3777	72
33	0	0	2026	1196	3779	73
34	0	0	2208	1195	3778	73
35	0	0	2363	1196	3780	72
36	0	0	2460	1196	3778	73
37	0	0	2537	1195	3777	71
38	0	0	2584	1196	3779	73
39	0	0	2523	1190	3778	73
40	0	0	2446	1192	3779	73
41	0	0	2352	1190	3778	74
42	0	0	2232	1191	3776	74
43	0	0	2084	1191	3779	73
44	0	0	1908	1190	3779	73
45	0	0	1756	1192	3779	73
46	0	0	1636	1191	3777	74
47	0	0	1509	1191	3776	71
48	0	0	1390	1192	3776	73
49	0	0	1403	1196	3778	75
50	0	0	1456	1196	3777	72
51	0	0	1573	1196	3778	73
52	0	0	1785	1195	3778	71
53	0	0	2005	1196	3779	72
54	0	0	2203	1195	3779	73
55	0	0	2362	1195	3779	75
56	0	0	2463	1196	3778	73
57	0	0	2539	1195	3779	72
58	0	0	2597	1194	3776	73
59	0	0	2556	1192	3778	75
60	0	0	2477	1191	3777	72
61	0	0	2371	1190	3778	74
62	0	0	2232	1190	3778	72
63	0	0	2086	1192	3778	73
64	0	0	1947	1191	3778	73
65	0	0	1804	1191	3777	74
66	0	0	1696	1190	3777	74
67	0	0	1567	1191	3779	73
68	0	0	1442	1193	3779	73
69	0	0	1436	1196	3779	74
70	0	0	1486	1196	3779	72
71	0	0	1596	1195	3778	73
72	0	0	1794	1196	3780	71
73	0	0	1998	1194	3779	73
74	0	0	2186	1196	3779	73
75	0	0	2342	1195	3778	72
76	0	0	2465	1196	3777	73
77	0	0	2542	1196	3778	69
78	0	0	2598	1196	3777	72
79	0	0	2542	1192	3778	73
80	0	0	2473	1191	3777	72
81	0	0	2377	1191	3777	74
82	0	0	2248	1190	3780	74
83	0	0	2097	1192	3779	74
84	0	0	1921	1191	3779	72
85	0	0	1756	1191	3777	72
86	0	0	1635	1189	3778	74
87	0	0	1497	1191	3777	75
88	0	0	1387	1191	3779	73
89	0	0	1392	1196	3778	73
90	0	0	1450	1197	3779	72
91	0	0	1550	1195	3778	73
92	0	0	1758	1195	3777	74
93	0	0	1984	1196	3778	73
94	0	0	2174	1195	3780	73
95	0	0	2310	1195	3776	72
96	0	0	2422	1195	3777	73
97	0	0	2520	1195	3777	71
98	0	0	2612	1191	3777	73
99	0	0	2605	1193	3779	73
100	0	0	2528	1191	3778	72
101	0	0	2433	1191	3777	73
102	0	0	2302	1190	3778	75
103	0	0	2157	1187	3779	74
104	0	0	2007	1191	3779	76
105	0	0	1849	1191	3779	72
106	0	0	1691	1192	3778	74
107	0	0	1522	1191	3778	71
108	0	0	1379	1191	3779	73
109	0	0	1360	1195	3777	74
110	0	0	1412	1196	3777	72
111	0	0	1536	1194	3779	72
112	0	0	1742	1196	3776	73
113	0	0	1959	1196	3779	71
114	0	0	2157	1195	3779	73
115	0	0	2324	1195	3778	72
116	0	0	2451	1196	3777	73
117	0	0	2533	1195	3777	71
118	0	0	2602	1191	3778	72
119	0	0	2560	1191	3780	73
120	0	0	2487	1191	3777	72
121	0	0	2392	1192	3778	73
122	0	0	2260	1191	3780	74
123	0	0	2106	1187	3779	73
124	0	0	1930	1190	3779	73
125	0	0	1772	1191	3779	73
126	0	0	1639	1191	3777	74
127	0	0	1492	1190	3777	74
0	0	0	1370	1191	3777	72
1	0	0	1378	1195	3778	75
2	0	0	1442	1195	3777	72
3	0	0	1566	1195	3777	73
4	0	0	1776	1196	3780	73
5	0	0	2001	1197	3779	72
6	0	0	2210	1196	3780	72
7	0	0	2374	1195	3779	72
8	0	0	2485	1194	3779	72
9	0	0	2541	1196	3780	74
10	0	0	2560	1195	3778	72
11	0	0	2505	1191	3778	73
12	0	0	2431	1192	3778	73
13	0	0	2340	1192	3778	71
14	0	0	2216	1191	3778	72
15	0	0	2069	1187	3778	73
16	0	0	1925	1191	3777	74
17	0	0	1791	1190	3777	74
18	0	0	1674	1192	3775	75
19	0	0	1532	1191	3777	72
20	0	0	1395	1192	3778	73
21	0	0	1387	1196	3778	73
22	0	0	1447	1197	3779	73
23	0	0	1551	1195	3778	73
24	0	0	1763	1196	3778	72
25	0	0	1992	1196	3780	73
26	0	0	2194	1195	3780	73
27	0	0	2359	1195	3779	73
28	0	0	2485	1194	3778	73
29	0	0	2579	1194	3777	73
30	0	0	2653	1196	3777	74
31	0	0	2610	1190	3778	74
32	0	0	2521	1191	3777	72
33	0	0	2421	1190	3779	73
34	0	0	2280	1192	3776	75
35	0	0	2117	1191	3779	74
36	0	0	1942	1191	3779	73
37	0	0	1793	1191	3779	73
38	0	0	1653	1191	3778	74
39	0	0	1505	1191	3777	73
40	0	0	1374	1191	3778	72
41	0	0	1377	1196	3778	73
42	0	0	1437	1195	3778	74
43	0	0	1555	1195	3778	71
44	0	0	1759	1196	3779	72
45	0	0	1984	1197	3779	74
46	0	0	2203	1195	3778	75
47	0	0	2371	1195	3778	71
48	0	0	2491	1195	3777	72
49	0	0	2581	1195	3777	72
50	0	0	2652	1195	3778	72
51	0	0	2607	1191	3777	74
52	0	0	2518	1192	3779	73
53	0	0	2392	1190	3778	74
54	0	0	2235	1190	3780	73
55	0	0	2080	1190	3779	73
56	0	0	1911	1189	3779	73
57	0	0	1772	1191	3778	74
58	0	0	1663	1191	3778	75
59	0	0	1533	1189	3778	74
60	0	0	1400	1192	3778	74
61	0	0	1404	1196	3779	72
62	0	0	1468	1197	3778	74
63	0	0	1598	1194	3778	73
64	0	0	1833	1192	3778	73
65	0	0	2071	1195	3778	74
66	0	0	2261	1195	3778	73
67	0	0	2415	1195	3778	74
68	0	0	2530	1195	3777	73
69	0	0	2613	1193	3777	73
70	0	0	2665	1195	3777	74
71	0	0	2613	1192	3778	73
72	0	0	2520	1191	3777	71
73	0	0	2404	1190	3778	74
74	0	0	2263	1188	3778	74
75	0	0	2105	1189	3779	75
76	0	0	1934	1191	3779	73
77	0	0	1773	1191	3778	74
78	0	0	1640	1190	3778	74
79	0	0	1499	1189	3778	73
80	0	0	1371	1191	3777	75
81	0	0	1376	1197	3778	73
82	0	0	1444	1196	3777	71
83	0	0	1575	1195	3777	73
84	0	0	1785	1193	3777	73
85	0	0	2007	1193	3778	74
86	0	0	2212	1197	3778	73
87	0	0	2389	1194	3777	76
88	0	0	2529	1196	3779	72
89	0	0	2634	1194	3777	73
90	0	0	2703	1196	3778	73
91	0	0	2663	1191	3779	73
92	0	0	2563	1191	3777	71
93	0	0	2460	1192	3780	73
94	0	0	2304	1191	3777	72
95	0	0	2135	1190	3779	74
96	0	0	1958	1190	3779	73
97	0	0	1773	1190	3778	71
98	0	0	1624	1194	3779	73
99	0	0	1465	1191	3776	71
100	0	0	1314	1193	3776	71
101	0	0	1314	1197	3777	73
102	0	0	1396	1196	3777	71
103	0	0	1542	1195	3778	73
104	0	0	1785	1195	3779	73
105	0	0	2039	1194	3778	74
106	0	0	2267	1195	3778	72
107	0	0	2460	1195	3778	71
108	0	0	2575	1198	3779	73
109	0	0	2652	1194	3779	73
110	0	0	2717	1196	3778	73
111	0	0	2669	1191	3779	73
112	0	0	2590	1190	3778	72
113	0	0	2488	1191	3779	73
114	0	0	2341	1191	3780	78
115	0	0	2170	1191	3779	76
116	0	0	1987	1190	3778	73
117	0	0	1815	1191	3779	73
118	0	0	1669	1192	3777	74
119	0	0	1518	1190	3776	73
120	0	0	1374	1191	3776	71
121	0	0	1380	1195	3778	72
122	0	0	1450	1195	3778	71
123	0	0	1576	1198	3778	73
124	0	0	1804	1195	3778	73
125	0	0	2041	1196	3778	71
126	0	0	2247	1194	3779	73
127	0	0	2419	1194	3778	67
0	0	0	2543	1195	3777	71
1	0	0	2643	1193	3778	73
2	0	0	2729	1196	3776	73
3	0	0	2700	1193	3778	73
4	0	0	2612	1191	3777	71
5	0	0	2510	1190	3778	73
6	0	0	2358	1190	3776	73
7	0	0	2167	1190	3777	74
8	0	0	1972	1191	3779	73
9	0	0	1786	1190	3777	69
10	0	0	1638	1193	3777	73
11	0	0	1477	1190	3778	76
12	0	0	1325	1192	3777	73
13	0	0	1321	1195	3778	73
14	0	0	1384	1196	3778	71
15	0	0	1514	1196	3777	72
16	0	0	1754	1194	3779	73
17	0	0	2012	1194	3778	73
18	0	0	2233	1195	3779	73
19	0	0	2421	1194	3778	72
20	0	0	2555	1194	3779	73
21	0	0	2649	1196	3779	77
22	0	0	2700	1195	3775	74
23	0	0	2649	1193	3778	71
24	0	0	2572	1191	3776	65
25	0	0	2487	1191	3777	73
26	0	0	2339	1189	3779	78
27	0	0	2164	1190	3777	72
28	0	0	1982	1189	3778	75
29	0	0	1817	1190	3778	72
30	0	0	1665	1190	3778	76
31	0	0	1504	1190	3779	74
32	0	0	1345	1192	3779	74
33	0	0	1340	1195	3779	73
34	0	0	1414	1196	3777	72
35	0	0	1551	1197	3778	73
36	0	0	1797	1194	3778	73
37	0	0	2072	1195	3776	70
38	0	0	2300	1193	3778	73
39	0	0	2487	1195	3777	74
40	0	0	2642	1196	3777	73
41	0	0	2759	1193	3777	73
42	0	0	2836	1197	3776	72
43	0	0	2784	1190	3779	73
44	0	0	2680	1191	3778	72
45	0	0	2569	1190	3779	73
46	0	0	2415	1190	3780	74
47	0	0	2242	1191	3777	74
48	0	0	2060	1191	3780	71
49	0	0	1884	1190	3779	72
50	0	0	1759	1191	3779	73
51	0	0	1616	1189	3779	75
52	0	0	1458	1192	3777	72
53	0	0	1463	1195	3779	73
54	0	0	1543	1195	3777	72
55	0	0	1681	1195	3777	73
56	0	0	1914	1195	3778	72
57	0	0	2156	1196	3779	71
58	0	0	2399	1192	3778	72
59	0	0	2627	1194	3777	73
60	0	0	2799	1195	3777	73
61	0	0	2913	1193	3778	73
62	0	0	2990	1192	3776	73
63	0	0	2934	1190	3778	73
64	0	0	2816	1190	3778	74
65	0	0	2694	1191	3778	73
66	0	0	2532	1189	3779	73
67	0	0	2345	1191	3778	72
68	0	0	2136	1188	3779	75
69	0	0	1943	1189	3778	72
70	0	0	1779	1190	3777	74
71	0	0	1594	1189	3777	73
72	0	0	1401	1190	3778	73
73	0	0	1380	1197	3777	73
74	0	0	1446	1195	3777	74
75	0	0	1570	1195	3777	73
76	0	0	1817	1195	3778	72
77	0	0	2078	1195	3777	74
78	0	0	2317	1194	3779	72
79	0	0	2512	1194	3780	72
80	0	0	2664	1194	3778	73
81	0	0	2765	1194	3778	52
82	0	0	2847	1194	3778	74
83	0	0	2821	1191	3779	74
84	0	0	2692	1189	3777	72
85	0	0	2555	1189	3778	74
86	0	0	2372	1189	3777	73
87	0	0	2171	1191	3778	73
88	0	0	1957	1190	3779	73
89	0	0	1756	1190	3777	74
90	0	0	1607	1190	3776	74
91	0	0	1450	1189	3777	74
92	0	0	1290	1191	3777	74
93	0	0	1294	1196	3778	72
94	0	0	1365	1195	3777	72
95	0	0	1494	1194	3778	73
96	0	0	1753	1196	3778	73
97	0	0	2033	1198	3778	72
98	0	0	2291	1194	3779	73
99	0	0	2512	1194	3778	72
100	0	0	2684	1195	3779	72
101	0	0	2800	1193	3780	73
102	0	0	2886	1194	3778	74
103	0	0	2851	1190	3778	74
104	0	0	2727	1190	3776	74
105	0	0	2588	1189	3777	74
106	0	0	2413	1190	3777	74
107	0	0	2227	1191	3777	74
108	0	0	2010	1190	3778	74
109	0	0	1820	1191	3777	74
110	0	0	1658	1188	3777	74
111	0	0	1485	1190	3776	75
112	0	0	1289	1190	3779	73
113	0	0	1262	1198	3778	72
114	0	0	1345	1195	3778	73
115	0	0	1503	1195	3779	72
116	0	0	1767	1195	3780	75
117	0	0	2060	1196	3779	76
118	0	0	2317	1196	3778	72
119	0	0	2508	1195	3778	72
120	0	0	2655	1194	3778	73
121	0	0	2760	1194	3777	72
122	0	0	2864	1194	3777	73
123	0	0	2831	1192	3776	72
124	0	0	2756	1190	3776	73
125	0	0	2652	1190	3778	73
126	0	0	2472	1190	3780	74
127	0	0	2266	1189	3779	73
0	0	0	2048	1190	3779	73
1	0	0	1838	1189	3777	74
2	0	0	1671	1191	3777	74
3	0	0	1502	1190	3777	75
4	0	0	1336	1191	3779	73
5	0	0	1333	1195	3778	73
6	0	0	1416	1195	3777	73
7	0	0	1566	1192	3775	74
8	0	0	1835	1195	3778	72
9	0	0	2123	1196	3779	73
10	0	0	2386	1197	3778	72
11	0	0	2598	1195	3777	72
12	0	0	2721	1193	3777	73
13	0	0	2822	1195	3777	70
14	0	0	2929	1195	3779	74
15	0	0	2913	1190	3776	72
16	0	0	2812	1190	3777	73
17	0	0	2681	1188	3775	75
18	0	0	2502	1189	3778	72
19	0	0	2284	1190	3779	74
20	0	0	2064	1191	3779	73
21	0	0	1858	1190	3778	74
22	0	0	1691	1190	3777	74
23	0	0	1528	1190	3777	72
24	0	0	1338	1190	3779	73
25	0	0	1330	1194	3776	73
26	0	0	1423	1195	3776	72
27	0	0	1578	1192	3775	74
28	0	0	1861	1195	3777	69
29	0	0	2171	1196	3776	73
30	0	0	2447	1195	3777	73
31	0	0	2684	1194	3778	71
32	0	0	2838	1194	3776	73
33	0	0	2925	1193	3776	74
34	0	0	2968	1194	3777	73
35	0	0	2896	1189	3776	75
36	0	0	2796	1189	3778	72
37	0	0	2671	1187	3777	73
38	0	0	2508	1189	3777	74
39	0	0	2318	1189	3778	73
40	0	0	2116	1188	3777	73
41	0	0	1958	1190	3778	73
42	0	0	1812	1189	3776	73
43	0	0	1651	1189	3776	73
44	0	0	1485	1190	3778	75
45	0	0	1467	1195	3776	73
46	0	0	1531	1194	3776	73
47	0	0	1681	1194	3777	76
48	0	0	1967	1196	3776	75
49	0	0	2282	1195	3776	72
50	0	0	2554	1193	3777	72
51	0	0	2784	1194	3777	73
52	0	0	2943	1195	3776	74
53	0	0	3024	1193	3777	71
54	0	0	3089	1193	3779	73
55	0	0	3037	1188	3777	74
56	0	0	2937	1189	3776	73
57	0	0	2817	1188	3777	73
58	0	0	2643	1188	3777	71
59	0	0	2447	1188	3775	75
60	0	0	2238	1188	3777	74
61	0	0	2051	1188	3776	74
62	0	0	1891	1189	3776	74
63	0	0	1726	1188	3775	75
64	0	0	1531	1191	3776	71
65	0	0	1501	1193	3776	73
66	0	0	1573	1194	3777	72
67	0	0	1701	1193	3776	73
68	0	0	1975	1194	3776	73
69	0	0	2277	1194	3778	72
70	0	0	2540	1194	3776	72
71	0	0	2739	1193	3777	69
72	0	0	2904	1194	3775	74
73	0	0	3028	1192	3776	73
74	0	0	3125	1194	3776	71
75	0	0	3058	1188	3776	73
76	0	0	2910	1189	3776	74
77	0	0	2735	1187	3776	74
78	0	0	2537	1188	3776	74
79	0	0	2322	1189	3775	72
80	0	0	2082	1188	3776	75
81	0	0	1864	1188	3776	74
82	0	0	1654	1188	3777	74
83	0	0	1441	1188	3774	76
84	0	0	1209	1190	3775	75
85	0	0	1166	1194	3776	73
86	0	0	1236	1194	3778	73
87	0	0	1367	1193	3776	73
88	0	0	1627	1193	3776	73
89	0	0	1928	1194	3778	75
90	0	0	2174	1197	3776	72
91	0	0	2357	1193	3776	73
92	0	0	2494	1193	3776	73
93	0	0	2590	1192	3776	73
94	0	0	2688	1193	3775	75
95	0	0	2643	1188	3775	73
96	0	0	2507	1189	3776	73
97	0	0	2361	1189	3775	75
98	0	0	2170	1188	3776	74
99	0	0	1952	1188	3777	73
100	0	0	1714	1189	3777	73
101	0	0	1487	1189	3776	75
102	0	0	1305	1189	3777	73
103	0	0	1137	1189	3775	75
104	0	0	953	1190	3775	75
105	0	0	952	1194	3776	74
106	0	0	1039	1194	3776	74
107	0	0	1185	1195	3777	75
108	0	0	1464	1192	3775	74
109	0	0	1776	1195	3775	71
110	0	0	2049	1195	3775	74
111	0	0	2288	1193	3776	71
112	0	0	2479	1193	3775	74
113	0	0	2594	1193	3775	74
114	0	0	2691	1194	3776	72
115	0	0	2644	1189	3776	74
116	0	0	2532	1189	3776	73
117	0	0	2382	1189	3777	72
118	0	0	2172	1189	3775	75
119	0	0	1951	1189	3775	75
120	0	0	1722	1187	3776	74
121	0	0	1520	1189	3776	75
122	0	0	1354	1190	3776	75
123	0	0	1185	1188	3775	75
124	0	0	988	1190	3774	72
125	0	0	969	1196	3775	73
126	0	0	1096	1195	3774	74
127	0	0	1285	1195	3775	71
0	0	0	1572	1194	3776	74
1	0	0	1867	1195	3774	72
2	0	0	2145	1194	3776	72
3	0	0	2379	1195	3776	72
4	0	0	2535	1196	3775	74
5	0	0	2625	1194	3776	72
6	0	0	2722	1196	3776	74
7	0	0	2689	1191	3775	74
8	0	0	2592	1190	3776	73
9	0	0	2455	1190	3775	74
10	0	0	2262	1189	3777	74
11	0	0	2034	1189	3775	75
12	0	0	1785	1189	3776	75
13	0	0	1556	1190	3775	77
14	0	0	1365	1189	3775	75
15	0	0	1189	1189	3774	76
16	0	0	1010	1191	3775	75
17	0	0	1008	1195	3776	71
18	0	0	1130	1195	3775	73
19	0	0	1357	1194	3777	71
20	0	0	1685	1194	3775	74
21	0	0	2018	1195	3775	74
22	0	0	2294	1194	3777	72
23	0	0	2502	1194	3776	75
24	0	0	2637	1193	3776	73
25	0	0	2720	1191	3775	73
26	0	0	2801	1194	3775	74
27	0	0	2733	1187	3777	73
28	0	0	2591	1189	3776	72
29	0	0	2418	1188	3775	75
30	0	0	2186	1189	3776	74
31	0	0	1924	1190	3774	74
32	0	0	1652	1190	3775	75
33	0	0	1423	1190	3775	75
34	0	0	1229	1190	3774	76
35	0	0	1035	1190	3775	76
36	0	0	819	1191	3776	73
37	0	0	810	1195	3775	74
38	0	0	936	1196	3776	73
39	0	0	1121	1196	3774	74
40	0	0	1450	1194	3776	73
41	0	0	1818	1196	3775	74
42	0	0	2128	1197	3777	72
43	0	0	2367	1195	3776	72
44	0	0	2549	1195	3776	75
45	0	0	2662	1194	3776	74
46	0	0	2781	1195	3774	74
47	0	0	2790	1188	3776	72
48	0	0	2682	1189	3774	75
49	0	0	2547	1189	3774	75
50	0	0	2344	1189	3775	75
51	0	0	2088	1189	3776	74
52	0	0	1790	1187	3776	75
53	0	0	1531	1190	3777	73
54	0	0	1308	1189	3776	74
55	0	0	1107	1189	3775	75
56	0	0	892	1191	3775	75
57	0	0	884	1193	3776	73
58	0	0	1007	1197	3775	74
59	0	0	1213	1196	3775	74
60	0	0	1551	1197	3775	73
61	0	0	1926	1196	3776	72
62	0	0	2245	1193	3776	72
63	0	0	2499	1194	3776	73
64	0	0	2680	1194	3775	72
65	0	0	2797	1195	3773	73
66	0	0	2910	1194	3775	76
67	0	0	2884	1190	3776	72
68	0	0	2752	1190	3774	74
69	0	0	2599	1190	3776	72
70	0	0	2381	1189	3773	76
71	0	0	2126	1189	3773	76
72	0	0	1843	1188	3776	73
73	0	0	1582	1189	3776	75
74	0	0	1378	1191	3777	72
75	0	0	1182	1189	3776	74
76	0	0	955	1192	3777	72
77	0	0	942	1196	3777	74
78	0	0	1070	1195	3775	75
79	0	0	1273	1195	3775	73
80	0	0	1629	1196	3774	73
81	0	0	2037	1195	3776	73
82	0	0	2416	1192	3776	73
83	0	0	2701	1194	3776	71
84	0	0	2887	1193	3774	74
85	0	0	3010	1196	3773	74
86	0	0	3098	1194	3774	74
87	0	0	3048	1188	3774	74
88	0	0	2913	1185	3774	74
89	0	0	2764	1189	3775	74
90	0	0	2542	1191	3774	74
91	0	0	2259	1188	3777	75
92	0	0	1954	1188	3777	73
93	0	0	1664	1189	3776	74
94	0	0	1423	1190	3776	74
95	0	0	1197	1191	3774	73
96	0	0	950	1190	3776	73
97	0	0	917	1193	3775	75
98	0	0	1031	1195	3773	75
99	0	0	1240	1195	3774	74
100	0	0	1614	1195	3775	71
101	0	0	2021	1196	3776	71
102	0	0	2374	1191	3776	73
103	0	0	2672	1190	3774	74
104	0	0	2879	1194	3775	76
105	0	0	3009	1194	3775	72
106	0	0	3107	1194	3776	73
107	0	0	3032	1188	3776	73
108	0	0	2894	1190	3777	72
109	0	0	2706	1190	3776	75
110	0	0	2468	1189	3776	71
111	0	0	2188	1189	3777	74
112	0	0	1859	1188	3774	75
113	0	0	1551	1190	3776	74
114	0	0	1291	1191	3775	77
115	0	0	1058	1190	3774	72
116	0	0	794	1191	3775	74
117	0	0	767	1194	3775	73
118	0	0	925	1196	3776	73
119	0	0	1173	1195	3776	73
120	0	0	1568	1194	3774	74
121	0	0	1969	1195	3776	73
122	0	0	2316	1194	3776	72
123	0	0	2630	1194	3774	73
124	0	0	2895	1197	3774	73
125	0	0	3083	1194	3776	72
126	0	0	3261	1193	3774	74
127	0	0	3296	1190	3776	72
0	0	0	3158	1185	3775	74
1	0	0	2990	1188	3775	75
2	0	0	2734	1188	3775	75
3	0	0	2420	1189	3772	76
4	0	0	2088	1189	3776	74
5	0	0	1746	1189	3774	75
6	0	0	1455	1190	3777	74
7	0	0	1195	1190	3776	75
8	0	0	904	1190	3772	76
9	0	0	850	1195	3776	74
10	0	0	967	1195	3774	75
11	0	0	1170	1194	3776	72
12	0	0	1538	1196	3775	71
13	0	0	1955	1195	3776	74
14	0	0	2308	1193	3777	73
15	0	0	2599	1194	3776	72
16	0	0	2825	1194	3775	75
17	0	0	2968	1194	3775	74
18	0	0	3093	1194	3775	73
19	0	0	3025	1190	3774	75
20	0	0	2875	1189	3776	75
21	0	0	2689	1189	3776	75
22	0	0	2461	1189	3775	76
23	0	0	2199	1189	3776	74
24	0	0	1910	1189	3775	75
25	0	0	1638	1189	3776	72
26	0	0	1412	1191	3776	75
27	0	0	1206	1190	3775	76
28	0	0	956	1191	3776	74
29	0	0	925	1195	3775	75
30	0	0	1069	1196	3776	73
31	0	0	1299	1195	3776	71
32	0	0	1689	1195	3776	72
33	0	0	2126	1195	3777	71
34	0	0	2485	1195	3776	71
35	0	0	2785	1195	3776	72
36	0	0	3010	1194	3776	73
37	0	0	3156	1193	3774	72
38	0	0	3259	1194	3775	74
39	0	0	3183	1189	3775	75
40	0	0	3023	1189	3774	74
41	0	0	2831	1188	3776	74
42	0	0	2573	1190	3776	79
43	0	0	2277	1189	3776	74
44	0	0	1964	1188	3775	76
45	0	0	1646	1189	3775	75
46	0	0	1379	1192	3775	77
47	0	0	1143	1190	3776	76
48	0	0	866	1191	3775	75
49	0	0	815	1195	3775	75
50	0	0	940	1196	3776	72
51	0	0	1143	1197	3774	73
52	0	0	1531	1197	3774	73
53	0	0	1963	1195	3775	74
54	0	0	2349	1192	3775	72
55	0	0	2661	1194	3774	74
56	0	0	2893	1193	3776	74
57	0	0	3031	1195	3775	78
58	0	0	3148	1194	3773	73
59	0	0	3118	1190	3776	73
60	0	0	2941	1189	3774	74
61	0	0	2745	1188	3773	76
62	0	0	2496	1191	3775	74
63	0	0	2221	1189	3775	77
64	0	0	1925	1189	3775	76
65	0	0	1638	1189	3776	74
66	0	0	1402	1192	3775	75
67	0	0	1183	1192	3774	72
68	0	0	915	1191	3775	73
69	0	0	839	1196	3775	75
70	0	0	928	1196	3774	74
71	0	0	1093	1198	3774	75
72	0	0	1409	1197	3774	72
73	0	0	1804	1195	3775	73
74	0	0	2207	1195	3775	74
75	0	0	2572	1194	3775	74
76	0	0	2844	1196	3775	71
77	0	0	3002	1196	3774	72
78	0	0	3159	1195	3775	72
79	0	0	3134	1189	3774	74
80	0	0	2959	1190	3775	75
81	0	0	2769	1192	3775	75
82	0	0	2521	1189	3776	75
83	0	0	2220	1189	3775	74
84	0	0	1904	1189	3775	75
85	0	0	1628	1189	3775	75
86	0	0	1400	1190	3774	73
87	0	0	1193	1190	3774	75
88	0	0	921	1191	3774	72
89	0	0	864	1197	3773	74
90	0	0	1000	1195	3774	75
91	0	0	1234	1196	3774	73
92	0	0	1627	1196	3775	75
93	0	0	2057	1194	3776	70
94	0	0	2436	1194	3776	72
95	0	0	2752	1193	3775	74
96	0	0	3012	1196	3775	73
97	0	0	3169	1194	3775	74
98	0	0	3304	1194	3776	72
99	0	0	3262	1189	3775	72
100	0	0	3097	1190	3776	73
101	0	0	2874	1190	3774	75
102	0	0	2599	1189	3776	75
103	0	0	2283	1188	3775	76
104	0	0	1958	1189	3774	75
105	0	0	1652	1189	3774	75
106	0	0	1416	1188	3773	73
107	0	0	1203	1190	3774	75
108	0	0	951	1191	3776	73
109	0	0	906	1195	3775	73
110	0	0	1035	1196	3776	72
111	0	0	1240	1198	3774	72
112	0	0	1613	1195	3775	73
113	0	0	2054	1194	3776	72
114	0	0	2450	1195	3775	73
115	0	0	2779	1194	3776	72
116	0	0	3021	1195	3774	74
117	0	0	3169	1195	3773	75
118	0	0	3289	1194	3773	72
119	0	0	3255	1189	3776	72
120	0	0	3102	1187	3774	73
121	0	0	2914	1188	3776	72
122	0	0	2644	1187	3774	75
123	0	0	2339	1188	3774	73
124	0	0	2016	1189	3776	74
125	0	0	1701	1188	3774	75
126	0	0	1437	1190	3774	74
127	0	0	1188	1189	3775	75
0	0	0	866	1190	3775	75
1	0	0	777	1195	3775	76
2	0	0	886	1195	3776	74
3	0	0	1096	1195	3776	73
4	0	0	1481	1194	3776	72
5	0	0	1915	1194	3776	70
6	0	0	2306	1195	3776	72
7	0	0	2624	1193	3775	72
8	0	0	2862	1193	3772	75
9	0	0	3019	1193	3774	75
10	0	0	3178	1193	3775	74
11	0	0	3157	1189	3775	73
12	0	0	2998	1189	3774	74
13	0	0	2788	1189	3774	76
14	0	0	2530	1189	3776	75
15	0	0	2252	1189	3776	75
16	0	0	1937	1188	3776	75
17	0	0	1612	1189	3775	75
18	0	0	1322	1188	3774	75
19	0	0	1072	1189	3776	73
20	0	0	768	1190	3776	72
21	0	0	702	1195	3776	73
22	0	0	828	1196	3776	73
23	0	0	1019	1195	3776	72
24	0	0	1373	1195	3776	73
25	0	0	1789	1195	3775	74
26	0	0	2143	1194	3776	73
27	0	0	2464	1195	3774	75
28	0	0	2743	1194	3774	74
29	0	0	2933	1192	3775	74
30	0	0	3090	1195	3773	74
31	0	0	3086	1189	3775	75
32	0	0	2945	1188	3773	75
33	0	0	2753	1189	3775	75
34	0	0	2501	1188	3775	75
35	0	0	2198	1188	3775	76
36	0	0	1850	1189	3776	73
37	0	0	1523	1190	3776	73
38	0	0	1283	1189	3775	75
39	0	0	1103	1189	3775	74
40	0	0	861	1191	3773	75
41	0	0	823	1196	3776	71
42	0	0	950	1195	3774	74
43	0	0	1175	1195	3774	73
44	0	0	1594	1193	3775	73
45	0	0	2089	1195	3776	74
46	0	0	2531	1193	3777	73
47	0	0	2898	1194	3773	75
48	0	0	3166	1193	3776	73
49	0	0	3321	1193	3776	73
50	0	0	3444	1193	3775	72
51	0	0	3407	1189	3776	72
52	0	0	3227	1189	3775	75
53	0	0	3040	1188	3776	73
54	0	0	2782	1189	3777	73
55	0	0	2491	1188	3776	74
56	0	0	2170	1185	3777	75
57	0	0	1867	1189	3776	73
58	0	0	1597	1187	3773	75
59	0	0	1371	1188	3774	75
60	0	0	1093	1190	3776	73
61	0	0	1049	1193	3776	72
62	0	0	1198	1195	3775	73
63	0	0	1426	1195	3774	73
64	0	0	1788	1194	3774	74
65	0	0	2200	1194	3776	70
66	0	0	2596	1193	3776	72
67	0	0	2901	1192	3776	73
68	0	0	3152	1194	3775	74
69	0	0	3307	1192	3775	73
70	0	0	3533	1193	3776	69
71	0	0	3667	1192	3776	72
72	0	0	3640	1187	3775	73
73	0	0	3557	1188	3774	75
74	0	0	3376	1188	3773	76
75	0	0	3117	1187	3775	75
76	0	0	2783	1188	3776	74
77	0	0	2443	1187	3774	75
78	0	0	2129	1188	3776	72
79	0	0	1858	1188	3775	73
80	0	0	1649	1189	3774	71
81	0	0	1724	1193	3773	74
82	0	0	1893	1192	3774	75
83	0	0	1982	1193	3776	72
84	0	0	2120	1193	3775	73
85	0	0	2434	1193	3774	74
86	0	0	2810	1193	3776	72
87	0	0	3168	1192	3776	74
88	0	0	3424	1193	3775	76
89	0	0	3515	1192	3775	75
90	0	0	3591	1192	3776	73
91	0	0	3510	1187	3771	73
92	0	0	3328	1187	3774	74
93	0	0	3135	1188	3776	72
94	0	0	2865	1187	3775	75
95	0	0	2544	1187	3775	75
96	0	0	2208	1187	3773	75
97	0	0	1872	1187	3774	73
98	0	0	1562	1188	3774	74
99	0	0	1302	1187	3774	75
100	0	0	960	1189	3772	75
101	0	0	844	1195	3773	75
102	0	0	961	1195	3775	75
103	0	0	1135	1194	3775	73
104	0	0	1453	1194	3773	74
105	0	0	1820	1194	3775	75
106	0	0	2101	1194	3773	74
107	0	0	2206	1194	3776	71
108	0	0	2362	1194	3776	73
109	0	0	2635	1193	3774	74
110	0	0	3046	1193	3773	72
111	0	0	3318	1193	3771	69
112	0	0	3354	1191	3773	73
113	0	0	3228	1188	3776	74
114	0	0	2994	1188	3773	76
115	0	0	2661	1188	3775	74
116	0	0	2249	1188	3773	75
117	0	0	1892	1187	3775	74
118	0	0	1638	1188	3775	74
119	0	0	1412	1188	3772	76
120	0	0	1068	1189	3774	75
121	0	0	910	1191	3775	73
122	0	0	945	1195	3776	72
123	0	0	1078	1195	3773	73
124	0	0	1476	1195	3774	73
125	0	0	1999	1194	3774	72
126	0	0	2472	1194	3776	74
127	0	0	2832	1193	3774	74
0	0	0	3055	1193	3774	74
1	0	0	3170	1193	3773	74
2	0	0	3294	1193	3774	75
3	0	0	3234	1189	3772	74
4	0	0	3037	1188	3774	77
5	0	0	2735	1187	3774	75
6	0	0	2406	1189	3774	75
7	0	0	2218	1189	3776	72
8	0	0	2065	1188	3772	72
9	0	0	1891	1189	3775	74
10	0	0	1722	1189	3775	75
11	0	0	1526	1189	3775	75
12	0	0	1179	1189	3775	76
13	0	0	1018	1191	3772	75
14	0	0	1097	1194	3775	74
15	0	0	1279	1194	3772	73
16	0	0	1656	1194	3773	72
17	0	0	2134	1194	3776	72
18	0	0	2568	1193	3775	72
19	0	0	2920	1193	3773	71
20	0	0	3173	1192	3776	74
21	0	0	3340	1192	3772	74
22	0	0	3533	1192	3774	72
23	0	0	3551	1188	3773	74
24	0	0	3374	1188	3774	75
25	0	0	3177	1187	3775	76
26	0	0	2918	1188	3776	74
27	0	0	2611	1186	3776	71
28	0	0	2255	1187	3775	73
29	0	0	1902	1188	3776	72
30	0	0	1582	1188	3772	74
31	0	0	1306	1188	3773	75
32	0	0	933	1189	3774	74
33	0	0	799	1194	3774	75
34	0	0	914	1195	3772	73
35	0	0	1125	1193	3774	72
36	0	0	1522	1193	3772	75
37	0	0	2012	1194	3775	71
38	0	0	2445	1193	3775	75
39	0	0	2794	1193	3774	75
40	0	0	3059	1193	3774	74
41	0	0	3218	1192	3775	73
42	0	0	3397	1193	3776	72
43	0	0	3381	1189	3776	70
44	0	0	3197	1187	3774	74
45	0	0	2990	1187	3775	75
46	0	0	2723	1188	3775	80
47	0	0	2387	1187	3775	74
48	0	0	2007	1188	3776	74
49	0	0	1612	1187	3774	76
50	0	0	1268	1187	3775	76
51	0	0	958	1189	3773	77
52	0	0	593	1189	3772	74
53	0	0	485	1196	3775	73
54	0	0	626	1195	3773	75
55	0	0	852	1194	3774	72
56	0	0	1286	1195	3774	72
57	0	0	1803	1194	3775	72
58	0	0	2267	1194	3774	74
59	0	0	2658	1193	3774	75
60	0	0	2953	1193	3774	74
61	0	0	3144	1193	3774	75
62	0	0	3343	1194	3774	74
63	0	0	3359	1187	3772	72
64	0	0	3210	1189	3776	73
65	0	0	3016	1185	3775	75
66	0	0	2724	1189	3774	76
67	0	0	2363	1189	3775	77
68	0	0	1941	1188	3775	76
69	0	0	1533	1190	3775	74
70	0	0	1189	1190	3774	75
71	0	0	879	1190	3773	74
72	0	0	497	1190	3774	76
73	0	0	366	1195	3773	75
74	0	0	509	1195	3774	74
75	0	0	765	1194	3775	72
76	0	0	1227	1195	3776	70
77	0	0	1792	1194	3775	74
78	0	0	2323	1194	3775	72
79	0	0	2755	1194	3776	73
80	0	0	3116	1193	3773	73
81	0	0	3368	1193	3773	73
82	0	0	3592	1192	3773	76
83	0	0	3625	1189	3774	75
84	0	0	3408	1187	3773	75
85	0	0	3167	1186	3774	75
86	0	0	2807	1188	3774	78
87	0	0	2409	1188	3774	80
88	0	0	1990	1187	3776	73
89	0	0	1592	1188	3775	76
90	0	0	1245	1188	3775	75
91	0	0	938	1189	3775	73
92	0	0	548	1190	3775	76
93	0	0	392	1193	3776	71
94	0	0	508	1194	3773	73
95	0	0	742	1194	3773	73
96	0	0	1201	1195	3774	72
97	0	0	1770	1194	3774	74
98	0	0	2293	1194	3773	72
99	0	0	2734	1193	3773	74
100	0	0	3078	1193	3773	74
101	0	0	3304	1193	3774	72
102	0	0	3490	1194	3772	73
103	0	0	3494	1188	3776	75
104	0	0	3305	1189	3771	76
105	0	0	3067	1187	3774	75
106	0	0	2749	1188	3776	72
107	0	0	2348	1186	3775	76
108	0	0	1911	1188	3776	71
109	0	0	1474	1188	3774	75
110	0	0	1093	1188	3774	76
111	0	0	771	1189	3774	73
112	0	0	384	1190	3773	74
113	0	0	197	1196	3772	73
114	0	0	350	1195	3773	77
115	0	0	610	1194	3773	73
116	0	0	1078	1195	3773	72
117	0	0	1640	1194	3774	77
118	0	0	2182	1194	3774	73
119	0	0	2652	1193	3773	75
120	0	0	3020	1193	3774	72
121	0	0	3267	1195	3774	71
122	0	0	3484	1193	3774	76
123	0	0	3501	1189	3775	75
124	0	0	3290	1188	3774	76
125	0	0	3031	1188	3775	75
126	0	0	2691	1188	3775	74
127	0	0	2285	1188	3774	79
0	0	0	1843	1188	3775	74
1	0	0	1410	1188	3773	77
2	0	0	1030	1189	3774	76
3	0	0	689	1190	3776	77
4	0	0	333	1190	3773	76
5	0	0	136	1191	3772	72
6	0	0	261	1196	3772	73
7	0	0	526	1194	3773	72
8	0	0	1011	1195	3774	74
9	0	0	1587	1196	3775	73
10	0	0	2104	1194	3773	73
11	0	0	2560	1194	3774	73
12	0	0	2917	1193	3774	73
13	0	0	3153	1194	3774	72
14	0	0	3381	1194	3774	78
15	0	0	3389	1189	3774	74
16	0	0	3153	1188	3773	74
17	0	0	2868	1188	3773	75
18	0	0	2470	1189	3776	77
19	0	0	1968	1188	3774	77
20	0	0	1394	1188	3772	75
21	0	0	979	1190	3775	78
22	0	0	654	1190	3772	77
23	0	0	406	1190	3772	74
24	0	0	181	1191	3773	76
25	0	0	59	1191	3774	73
26	0	0	285	1196	3773	74
27	0	0	620	1195	3774	72
28	0	0	1129	1196	3774	71
29	0	0	1710	1195	3775	72
30	0	0	2261	1194	3776	72
31	0	0	2727	1194	3774	74
32	0	0	3105	1193	3774	72
33	0	0	3363	1194	3773	73
34	0	0	3593	1194	3774	75
35	0	0	3629	1189	3772	75
36	0	0	3432	1189	3772	74
37	0	0	3154	1188	3772	75
38	0	0	2779	1188	3773	76
39	0	0	2345	1187	3776	71
40	0	0	1855	1189	3772	73
41	0	0	1382	1188	3773	76
42	0	0	983	1189	3773	76
43	0	0	623	1188	3773	77
44	0	0	306	1190	3774	76
45	0	0	130	1191	3774	73
46	0	0	170	1196	3775	73
47	0	0	466	1194	3774	74
48	0	0	984	1196	3774	73
49	0	0	1599	1195	3774	73
50	0	0	2172	1194	3775	72
51	0	0	2665	1194	3773	73
52	0	0	3068	1194	3773	73
53	0	0	3334	1190	3774	73
54	0	0	3585	1193	3773	75
55	0	0	3627	1188	3772	74
56	0	0	3387	1188	3772	76
57	0	0	3093	1188	3772	75
58	0	0	2730	1187	3773	75
59	0	0	2323	1189	3774	74
60	0	0	1856	1188	3775	76
61	0	0	1386	1188	3774	75
62	0	0	975	1188	3773	76
63	0	0	629	1186	3774	76
64	0	0	310	1190	3774	74
65	0	0	137	1190	3774	74
66	0	0	232	1195	3771	75
67	0	0	527	1195	3770	73
68	0	0	1030	1195	3772	74
69	0	0	1635	1194	3773	73
70	0	0	2181	1193	3775	72
71	0	0	2676	1193	3776	73
72	0	0	3071	1194	3772	74
73	0	0	3317	1192	3771	75
74	0	0	3537	1193	3772	74
75	0	0	3563	1189	3774	75
76	0	0	3339	1188	3772	73
77	0	0	3069	1188	3773	75
78	0	0	2698	1188	3774	79
79	0	0	2268	1186	3774	75
80	0	0	1803	1188	3775	75
81	0	0	1328	1188	3773	76
82	0	0	924	1189	3773	77
83	0	0	590	1187	3774	77
84	0	0	292	1191	3773	74
85	0	0	130	1190	3775	74
86	0	0	193	1195	3771	73
87	0	0	492	1196	3772	74
88	0	0	1009	1191	3773	73
89	0	0	1615	1195	3773	71
90	0	0	2161	1193	3773	73
91	0	0	2638	1193	3772	74
92	0	0	3022	1194	3772	72
93	0	0	3298	1190	3773	72
94	0	0	3530	1193	3773	73
95	0	0	3556	1190	3775	72
96	0	0	3358	1188	3774	74
97	0	0	3102	1188	3772	73
98	0	0	2742	1184	3775	74
99	0	0	2320	1187	3774	76
100	0	0	1867	1186	3775	74
101	0	0	1417	1188	3772	77
102	0	0	1029	1189	3772	77
103	0	0	704	1188	3771	78
104	0	0	367	1191	3772	75
105	0	0	175	1191	3772	74
106	0	0	254	1194	3772	75
107	0	0	539	1195	3773	75
108	0	0	1016	1191	3773	73
109	0	0	1598	1194	3773	71
110	0	0	2144	1193	3772	72
111	0	0	2626	1194	3774	73
112	0	0	2997	1193	3771	72
113	0	0	3256	1190	3774	74
114	0	0	3481	1194	3773	79
115	0	0	3552	1191	3772	74
116	0	0	3357	1188	3774	75
117	0	0	3120	1187	3773	73
118	0	0	2822	1187	3772	75
119	0	0	2473	1188	3772	73
120	0	0	2108	1188	3773	75
121	0	0	1777	1188	3772	75
122	0	0	1593	1191	3772	73
123	0	0	2041	1195	3772	71
124	0	0	2874	1195	3772	75
125	0	0	3340	1194	3773	71
126	0	0	3606	1193	3772	74
127	0	0	3660	1186	3774	74
0	0	0	1980	1187	3773	76
1	0	0	1073	1189	3773	75
2	0	0	569	1189	3773	76
3	0	0	284	1189	3772	77
4	0	0	124	1191	3772	75
5	0	0	39	1189	3773	74
6	0	0	0	1194	3772	76
7	0	0	0	1195	3774	75
8	0	0	0	1196	3772	73
9	0	0	0	1198	3770	72
10	0	0	993	1197	3771	74
11	0	0	2257	1198	3771	73
12	0	0	2983	1196	3771	70
13	0	0	3405	1194	3772	71
14	0	0	3656	1194	3773	68
15	0	0	3797	1192	3772	69
16	0	0	3877	1192	3772	73
17	0	0	3913	1185	3772	74
18	0	0	3935	1183	3772	74
19	0	0	3941	1183	3773	71
20	0	0	3366	1182	3771	76
21	0	0	1825	1183	3773	80
22	0	0	996	1185	3771	77
23	0	0	534	1186	3772	78
24	0	0	270	1187	3771	77
25	0	0	121	1189	3771	78
26	0	0	44	1192	3771	74
27	0	0	6	1196	3771	76
28	0	0	0	1201	3771	74
29	0	0	0	1197	3772	73
30	0	0	0	1199	3772	77
31	0	0	1577	1199	3772	72
32	0	0	2591	1196	3771	72
33	0	0	3172	1194	3772	71
34	0	0	3524	1191	3772	71
35	0	0	3728	1191	3771	71
36	0	0	3840	1190	3773	72
37	0	0	3899	1189	3772	74
38	0	0	3929	1187	3771	71
39	0	0	3943	1182	3771	75
40	0	0	3375	1183	3771	76
41	0	0	1839	1184	3772	80
42	0	0	1008	1185	3771	78
43	0	0	541	1186	3771	79
44	0	0	283	1187	3771	78
45	0	0	133	1191	3771	80
46	0	0	54	1193	3771	80
47	0	0	11	1197	3770	77
48	0	0	0	1197	3767	77
49	0	0	0	1197	3771	73
50	0	0	1	1197	3771	71
51	0	0	1616	1197	3773	75
52	0	0	2617	1196	3773	71
53	0	0	3201	1195	3773	70
54	0	0	3540	1192	3772	72
55	0	0	3740	1193	3771	68
56	0	0	3856	1190	3772	72
57	0	0	3908	1188	3770	73
58	0	0	3942	1185	3771	73
59	0	0	3955	1183	3770	75
60	0	0	3327	1185	3771	75
61	0	0	1833	1183	3771	79
62	0	0	1011	1185	3771	77
63	0	0	547	1187	3772	78
64	0	0	288	1190	3771	78
65	0	0	142	1188	3771	79
66	0	0	65	1193	3772	76
67	0	0	29	1197	3771	78
68	0	0	5	1199	3772	77
69	0	0	0	1196	3769	75
70	0	0	0	1198	3770	74
71	0	0	1598	1198	3773	72
72	0	0	2612	1195	3771	73
73	0	0	3200	1195	3771	70
74	0	0	3547	1193	3771	68
75	0	0	3750	1190	3771	69
76	0	0	3863	1192	3771	69
77	0	0	3923	1191	3771	69
78	0	0	3950	1187	3771	73
79	0	0	3967	1185	3770	78
80	0	0	3327	1182	3772	76
81	0	0	1834	1184	3771	77
82	0	0	1018	1185	3772	79
83	0	0	555	1186	3771	77
84	0	0	295	1188	3770	77
85	0	0	152	1188	3770	77
86	0	0	75	1192	3772	79
87	0	0	39	1196	3771	76
88	0	0	23	1199	3771	75
89	0	0	12	1198	3771	73
90	0	0	20	1200	3771	72
91	0	0	1691	1198	3771	74
92	0	0	2660	1196	3770	71
93	0	0	3238	1196	3772	71
94	0	0	3571	1195	3770	69
95	0	0	3767	1192	3771	67
96	0	0	3875	1191	3771	70
97	0	0	3932	1191	3771	74
98	0	0	3965	1189	3768	70
99	0	0	3975	1185	3770	74
100	0	0	3369	1184	3772	76
101	0	0	1849	1184	3772	76
102	0	0	1038	1185	3772	79
103	0	0	571	1186	3772	79
104	0	0	308	1189	3772	77
105	0	0	164	1190	3771	79
106	0	0	84	1191	3771	77
107	0	0	49	1197	3770	78
108	0	0	26	1199	3770	74
109	0	0	20	1199	3770	71
110	0	0	18	1199	3771	71
111	0	0	1692	1199	3771	71
112	0	0	2665	1197	3771	70
113	0	0	3243	1197	3772	71
114	0	0	3582	1195	3773	71
115	0	0	3775	1194	3771	66
116	0	0	3883	1191	3771	72
117	0	0	3942	1190	3771	71
118	0	0	3971	1192	3772	74
119	0	0	3984	1186	3772	75
120	0	0	3371	1183	3772	75
121	0	0	1854	1184	3772	76
122	0	0	1045	1186	3772	76
123	0	0	580	1186	3770	77
124	0	0	314	1189	3770	75
125	0	0	168	1192	3771	79
126	0	0	96	1191	3770	77
127	0	0	55	1196	3771	77
0	0	0	36	1197	3770	77
1	0	0	26	1199	3771	71
2	0	0	27	1198	3771	73
3	0	0	1643	1198	3771	71
4	0	0	2650	1197	3771	71
5	0	0	3232	1197	3771	71
6	0	0	3579	1195	3776	70
7	0	0	3777	1192	3770	65
8	0	0	3889	1191	3772	68
9	0	0	3949	1189	3771	71
10	0	0	3980	1187	3772	72
11	0	0	3993	1186	3776	74
12	0	0	3514	1183	3771	75
13	0	0	1927	1184	3771	77
14	0	0	1080	1185	3770	79
15	0	0	610	1186	3770	78
16	0	0	336	1188	3770	78
17	0	0	186	1190	3771	76
18	0	0	106	1193	3770	78
19	0	0	65	1197	3771	77
20	0	0	45	1193	3770	78
21	0	0	37	1197	3770	75
22	0	0	36	1199	3771	72
23	0	0	1680	1198	3773	70
24	0	0	2673	1196	3770	72
25	0	0	3251	1195	3771	71
26	0	0	3589	1194	3770	71
27	0	0	3789	1193	3772	67
28	0	0	3896	1190	3771	66
29	0	0	3960	1188	3770	69
30	0	0	3991	1189	3770	71
31	0	0	4003	1187	3771	73
32	0	0	3526	1179	3771	76
33	0	0	1935	1182	3771	77
34	0	0	1090	1185	3771	78
35	0	0	613	1186	3770	78
36	0	0	342	1189	3776	76
37	0	0	193	1189	3771	77
38	0	0	111	1194	3770	75
39	0	0	72	1198	3772	78
40	0	0	53	1197	3770	76
41	0	0	44	1198	3772	73
42	0	0	43	1198	3772	72
43	0	0	1638	1197	3771	71
44	0	0	2654	1196	3770	70
45	0	0	3240	1195	3771	70
46	0	0	3590	1196	3770	72
47	0	0	3791	1194	3770	66
48	0	0	3901	1191	3770	69
49	0	0	3963	1188	3769	72
50	0	0	3998	1189	3769	71
51	0	0	4006	1185	3769	71
52	0	0	3561	1177	3770	76
53	0	0	1954	1182	3771	76
54	0	0	1103	1185	3770	77
55	0	0	622	1186	3771	78
56	0	0	351	1188	3770	76
57	0	0	201	1188	3771	75
58	0	0	120	1193	3771	72
59	0	0	77	1200	3772	75
60	0	0	56	1197	3770	75
61	0	0	50	1199	3771	72
62	0	0	48	1199	3771	74
63	0	0	1630	1199	3770	70
64	0	0	2652	1196	3771	71
65	0	0	3247	1195	3769	69
66	0	0	3591	1194	3769	72
67	0	0	3796	1194	3770	69
68	0	0	3908	1190	3770	70
69	0	0	3969	1186	3769	68
70	0	0	4002	1188	3771	69
71	0	0	4015	1187	3770	75
72	0	0	3503	1183	3771	73
73	0	0	1945	1183	3772	76
74	0	0	1101	1185	3769	80
75	0	0	624	1186	3771	78
76	0	0	351	1189	3771	75
77	0	0	206	1189	3770	77
78	0	0	127	1191	3769	75
79	0	0	87	1197	3767	73
80	0	0	65	1199	3767	76
81	0	0	57	1197	3768	53
82	0	0	55	1199	3769	74
83	0	0	1625	1197	3770	72
84	0	0	2651	1197	3771	72
85	0	0	3242	1195	3770	70
86	0	0	3596	1195	3770	68
87	0	0	3799	1194	3771	67
88	0	0	3912	1192	3770	71
89	0	0	3977	1188	3771	71
90	0	0	4004	1185	3770	73
91	0	0	4024	1185	3771	73
92	0	0	3543	1184	3771	73
93	0	0	1953	1183	3771	78
94	0	0	1107	1186	3769	76
95	0	0	636	1188	3771	77
96	0	0	362	1189	3771	79
97	0	0	212	1191	3770	80
98	0	0	131	1192	3770	78
99	0	0	94	1197	3769	76
100	0	0	71	1197	3768	74
101	0	0	63	1198	3769	71
102	0	0	61	1199	3769	74
103	0	0	1585	1197	3770	71
104	0	0	2630	1196	3768	70
105	0	0	3234	1196	3770	70
106	0	0	3596	1192	3770	70
107	0	0	3804	1191	3770	68
108	0	0	3919	1192	3771	69
109	0	0	3982	1191	3772	71
110	0	0	4011	1188	3770	76
111	0	0	4028	1183	3769	74
112	0	0	3530	1181	3770	75
113	0	0	1951	1184	3770	79
114	0	0	1110	1185	3769	76
115	0	0	639	1186	3769	79
116	0	0	369	1187	3769	77
117	0	0	217	1189	3769	81
118	0	0	135	1190	3770	79
119	0	0	106	1195	3769	76
120	0	0	79	1198	3772	74
121	0	0	74	1196	3769	71
122	0	0	69	1197	3770	73
123	0	0	1649	1199	3770	72
124	0	0	2670	1197	3769	73
125	0	0	3259	1195	3771	69
126	0	0	3614	1191	3770	70
127	0	0	3815	1191	3769	66
0	0	0	3928	1190	3770	71
1	0	0	3985	1189	3769	71
2	0	0	4018	1186	3769	75
3	0	0	4036	1183	3768	78
4	0	0	3681	1180	3769	77
5	0	0	2021	1184	3770	77
6	0	0	1150	1184	3768	76
7	0	0	661	1186	3768	77
8	0	0	384	1188	3770	78
9	0	0	229	1190	3770	78
10	0	0	144	1193	3770	78
11	0	0	106	1197	3770	72
12	0	0	81	1198	3770	75
13	0	0	78	1198	3770	73
14	0	0	73	1198	3771	71
15	0	0	1558	1198	3771	72
16	0	0	2622	1197	3771	72
17	0	0	3237	1194	3769	71
18	0	0	3598	1194	3769	70
19	0	0	3808	1192	3769	69
20	0	0	3930	1191	3769	71
21	0	0	3988	1190	3769	67
22	0	0	4020	1187	3769	75
23	0	0	4040	1183	3769	75
24	0	0	3590	1182	3769	78
25	0	0	1999	1184	3771	76
26	0	0	1141	1184	3769	79
27	0	0	657	1188	3770	78
28	0	0	384	1188	3770	80
29	0	0	231	1190	3770	80
30	0	0	148	1192	3770	79
31	0	0	111	1196	3771	77
32	0	0	91	1196	3769	76
33	0	0	80	1198	3769	74
34	0	0	79	1199	3769	74
35	0	0	1533	1198	3769	72
36	0	0	2609	1197	3769	71
37	0	0	3233	1195	3769	70
38	0	0	3597	1194	3769	69
39	0	0	3811	1195	3768	63
40	0	0	3930	1192	3769	70
41	0	0	3995	1190	3769	71
42	0	0	4029	1188	3769	72
43	0	0	4043	1185	3769	74
44	0	0	3646	1183	3769	75
45	0	0	2028	1184	3771	75
46	0	0	1159	1185	3772	71
47	0	0	671	1188	3771	77
48	0	0	392	1189	3771	80
49	0	0	238	1191	3768	77
50	0	0	156	1192	3769	78
51	0	0	117	1197	3769	79
52	0	0	96	1197	3768	74
53	0	0	88	1198	3769	76
54	0	0	85	1196	3768	73
55	0	0	1588	1199	3769	70
56	0	0	2635	1196	3769	70
57	0	0	3249	1198	3768	70
58	0	0	3613	1194	3768	70
59	0	0	3820	1193	3768	67
60	0	0	3935	1190	3770	69
61	0	0	4001	1189	3769	67
62	0	0	4032	1192	3770	69
63	0	0	4047	1186	3771	74
64	0	0	3709	1183	3769	75
65	0	0	2042	1184	3769	77
66	0	0	1178	1184	3768	73
67	0	0	683	1187	3768	79
68	0	0	401	1187	3767	79
69	0	0	245	1191	3767	79
70	0	0	162	1193	3768	77
71	0	0	122	1195	3767	71
72	0	0	99	1197	3768	75
73	0	0	91	1197	3765	66
74	0	0	89	1197	3767	71
75	0	0	1600	1195	3768	72
76	0	0	2641	1194	3767	72
77	0	0	3256	1193	3768	72
78	0	0	3618	1193	3770	73
79	0	0	3825	1193	3769	70
80	0	0	3943	1191	3768	71
81	0	0	4005	1189	3768	71
82	0	0	4038	1190	3767	74
83	0	0	4051	1186	3768	73
84	0	0	3500	1182	3766	71
85	0	0	1949	1183	3767	74
86	0	0	1129	1186	3766	76
87	0	0	655	1188	3766	78
88	0	0	388	1189	3766	77
89	0	0	241	1192	3766	75
90	0	0	161	1193	3766	74
91	0	0	122	1197	3765	72
92	0	0	102	1196	3767	76
93	0	0	97	1199	3767	71
94	0	0	93	1199	3765	72
95	0	0	1498	1199	3768	71
96	0	0	2584	1196	3765	64
97	0	0	3224	1196	3768	69
98	0	0	3599	1193	3767	71
99	0	0	3817	1195	3765	67
100	0	0	3941	1189	3766	69
101	0	0	4007	1188	3765	72
102	0	0	4043	1188	3765	72
103	0	0	4056	1185	3765	75
104	0	0	3747	1183	3764	74
105	0	0	2066	1182	3765	75
106	0	0	1195	1185	3764	78
107	0	0	697	1186	3765	80
108	0	0	413	1188	3765	78
109	0	0	256	1191	3765	76
110	0	0	171	1191	3764	75
111	0	0	131	1199	3765	72
112	0	0	111	1200	3764	73
113	0	0	103	1198	3765	71
114	0	0	98	1198	3763	72
115	0	0	1558	1196	3765	71
116	0	0	2630	1197	3764	69
117	0	0	3247	1197	3764	69
118	0	0	3616	1193	3764	71
119	0	0	3831	1194	3762	65
120	0	0	3949	1191	3764	70
121	0	0	4012	1186	3763	71
122	0	0	4053	1187	3762	73
123	0	0	4064	1187	3763	74
124	0	0	3861	1182	3763	73
125	0	0	2119	1181	3763	75
126	0	0	1219	1184	3763	76
127	0	0	716	1186	3763	79
0	0	0	425	1188	3764	78
1	0	0	264	1191	3763	77
2	0	0	180	1191	3764	72
3	0	0	135	1198	3764	71
4	0	0	116	1198	3762	75
5	0	0	106	1197	3762	75
6	0	0	101	1199	3761	74
7	0	0	1572	1198	3762	69
8	0	0	2639	1197	3761	68
9	0	0	3255	1195	3762	69
10	0	0	3619	1192	3763	69
11	0	0	3836	1195	3761	68
12	0	0	3951	1193	3762	68
13	0	0	4016	1186	3761	71
14	0	0	4049	1188	3761	75
15	0	0	4065	1183	3762	72
16	0	0	3843	1182	3762	73
17	0	0	2112	1183	3762	75
18	0	0	1217	1184	3761	76
19	0	0	717	1184	3761	79
20	0	0	426	1188	3761	77
21	0	0	265	1189	3760	76
22	0	0	180	1191	3761	78
23	0	0	139	1196	3760	72
24	0	0	116	1198	3761	73
25	0	0	106	1197	3762	72
26	0	0	103	1198	3760	76
27	0	0	1611	1199	3761	69
28	0	0	2663	1196	3760	70
29	0	0	3274	1195	3761	72
30	0	0	3632	1194	3760	70
31	0	0	3842	1192	3761	69
32	0	0	3957	1190	3761	71
33	0	0	4018	1187	3760	71
34	0	0	4054	1183	3760	72
35	0	0	4072	1182	3761	74
36	0	0	3889	1181	3762	76
37	0	0	2138	1185	3761	75
38	0	0	1231	1184	3759	78
39	0	0	721	1185	3760	77
40	0	0	431	1190	3759	77
41	0	0	270	1191	3759	78
42	0	0	184	1193	3762	77
43	0	0	143	1197	3759	77
44	0	0	121	1198	3760	73
45	0	0	108	1199	3762	73
46	0	0	106	1198	3758	74
47	0	0	1498	1198	3760	71
48	0	0	2599	1196	3760	71
49	0	0	3240	1195	3760	70
50	0	0	3612	1195	3760	70
51	0	0	3831	1192	3761	63
52	0	0	3952	1194	3761	66
53	0	0	4017	1190	3760	68
54	0	0	4054	1187	3760	71
55	0	0	4072	1183	3760	74
56	0	0	3924	1181	3760	75
57	0	0	2159	1186	3760	77
58	0	0	1246	1184	3759	78
59	0	0	730	1186	3759	79
60	0	0	437	1190	3758	78
61	0	0	276	1189	3759	79
62	0	0	181	1194	3760	76
63	0	0	148	1191	3759	76
64	0	0	124	1197	3759	72
65	0	0	113	1199	3759	75
66	0	0	110	1199	3759	72
67	0	0	1531	1199	3760	70
68	0	0	2620	1196	3760	69
69	0	0	3252	1195	3760	70
70	0	0	3622	1195	3759	71
71	0	0	3837	1193	3760	69
72	0	0	3956	1194	3760	71
73	0	0	4020	1189	3759	69
74	0	0	4055	1187	3758	71
75	0	0	4074	1187	3758	74
76	0	0	3874	1181	3759	75
77	0	0	2148	1183	3759	76
78	0	0	1239	1187	3758	78
79	0	0	728	1186	3758	80
80	0	0	439	1188	3759	77
81	0	0	278	1190	3760	78
82	0	0	190	1193	3759	76
83	0	0	147	1198	3760	74
84	0	0	124	1198	3759	77
85	0	0	114	1196	3760	74
86	0	0	112	1198	3760	72
87	0	0	1468	1196	3759	71
88	0	0	2587	1197	3760	68
89	0	0	3232	1195	3759	69
90	0	0	3610	1194	3759	71
91	0	0	3833	1192	3760	68
92	0	0	3954	1192	3758	69
93	0	0	4024	1192	3758	74
94	0	0	4055	1188	3759	71
95	0	0	4072	1186	3759	75
96	0	0	3918	1181	3761	75
97	0	0	2174	1183	3760	74
98	0	0	1255	1184	3758	80
99	0	0	737	1185	3760	80
100	0	0	444	1185	3760	78
101	0	0	281	1189	3761	77
102	0	0	193	1192	3759	77
103	0	0	151	1194	3759	75
104	0	0	127	1196	3760	77
105	0	0	118	1197	3760	73
106	0	0	114	1198	3760	75
107	0	0	1506	1199	3759	71
108	0	0	2597	1196	3759	69
109	0	0	3241	1195	3758	70
110	0	0	3620	1196	3758	71
111	0	0	3837	1192	3760	65
112	0	0	3959	1193	3757	69
113	0	0	4032	1189	3759	72
114	0	0	4064	1185	3758	73
115	0	0	4075	1184	3758	75
116	0	0	3962	1180	3761	75
117	0	0	2181	1184	3759	76
118	0	0	1268	1184	3760	77
119	0	0	747	1184	3760	77
120	0	0	450	1187	3759	77
121	0	0	287	1189	3760	80
122	0	0	200	1190	3758	77
123	0	0	155	1196	3758	75
124	0	0	128	1194	3758	80
125	0	0	119	1197	3757	74
126	0	0	117	1198	3758	75
127	0	0	1532	1198	3758	71
0	0	0	2614	1196	3758	71
1	0	0	3253	1195	3758	71
2	0	0	3627	1194	3759	70
3	0	0	3843	1192	3759	67
4	0	0	3963	1192	3758	65
5	0	0	4035	1189	3760	66
6	0	0	4064	1189	3759	71
7	0	0	4080	1186	3759	74
8	0	0	4024	1181	3760	73
9	0	0	2223	1182	3759	74
10	0	0	1296	1184	3758	77
11	0	0	762	1185	3758	78
12	0	0	459	1187	3758	76
13	0	0	290	1190	3760	79
14	0	0	202	1192	3757	76
15	0	0	155	1195	3757	74
16	0	0	131	1198	3757	73
17	0	0	123	1197	3758	75
18	0	0	118	1198	3758	72
19	0	0	1487	1197	3759	71
20	0	0	2599	1195	3758	71
21	0	0	3237	1197	3757	71
22	0	0	3619	1194	3759	70
23	0	0	3842	1192	3759	68
24	0	0	3955	1192	3758	69
25	0	0	4026	1189	3759	71
26	0	0	4067	1189	3759	73
27	0	0	4082	1186	3758	72
28	0	0	4015	1180	3758	74
29	0	0	2214	1182	3758	76
30	0	0	1284	1184	3758	77
31	0	0	759	1186	3756	77
32	0	0	459	1187	3758	79
33	0	0	292	1189	3758	77
34	0	0	202	1193	3758	75
35	0	0	154	1197	3758	77
36	0	0	131	1197	3756	78
37	0	0	123	1197	3759	74
38	0	0	120	1197	3759	74
39	0	0	1502	1197	3760	70
40	0	0	2607	1195	3759	72
41	0	0	3243	1195	3759	69
42	0	0	3624	1193	3759	68
43	0	0	3844	1192	3760	68
44	0	0	3965	1190	3759	71
45	0	0	4032	1185	3758	74
46	0	0	4069	1186	3758	73
47	0	0	4084	1185	3758	76
48	0	0	4003	1182	3759	76
49	0	0	2210	1182	3759	76
50	0	0	1279	1183	3758	78
51	0	0	756	1186	3757	78
52	0	0	460	1186	3758	75
53	0	0	292	1189	3758	76
54	0	0	203	1191	3758	73
55	0	0	158	1196	3758	76
56	0	0	133	1197	3758	75
57	0	0	124	1198	3759	75
58	0	0	122	1199	3757	73
59	0	0	1292	1195	3759	73
60	0	0	2493	1194	3758	74
61	0	0	3184	1195	3756	75
62	0	0	3586	1191	3758	73
63	0	0	3823	1191	3758	73
64	0	0	3955	1191	3757	74
65	0	0	4027	1186	3758	74
66	0	0	4071	1185	3757	72
67	0	0	4088	1186	3758	73
68	0	0	3802	1182	3757	73
69	0	0	2120	1183	3759	75
70	0	0	1232	1184	3758	76
71	0	0	728	1185	3759	75
72	0	0	445	1187	3760	75
73	0	0	286	1188	3759	76
74	0	0	203	1190	3759	75
75	0	0	162	1194	3759	77
76	0	0	136	1194	3759	75
77	0	0	128	1195	3758	74
78	0	0	125	1196	3759	74
79	0	0	1756	1196	3759	77
80	0	0	2755	1194	3758	74
81	0	0	3337	1194	3759	74
82	0	0	3678	1191	3758	73
83	0	0	3875	1193	3758	73
84	0	0	3985	1191	3758	74
85	0	0	4047	1189	3758	74
86	0	0	4078	1190	3759	73
87	0	0	4088	1186	3758	74
88	0	0	3766	1182	3759	75
89	0	0	2104	1183	3759	75
90	0	0	1223	1185	3760	75
91	0	0	724	1183	3759	75
92	0	0	441	1185	3758	76
93	0	0	284	1188	3759	76
94	0	0	200	1191	3759	75
95	0	0	160	1195	3757	75
96	0	0	136	1196	3758	75
97	0	0	126	1196	3759	78
98	0	0	128	1196	3759	75
99	0	0	1718	1195	3758	75
100	0	0	2725	1195	3758	74
101	0	0	3320	1194	3758	74
102	0	0	3671	1193	3758	72
103	0	0	3871	1193	3759	72
104	0	0	3976	1191	3759	74
105	0	0	4041	1190	3758	74
106	0	0	4076	1188	3758	74
107	0	0	4092	1186	3759	75
108	0	0	3811	1182	3759	75
109	0	0	2109	1183	3760	74
110	0	0	1233	1185	3760	76
111	0	0	730	1185	3758	76
112	0	0	444	1187	3756	76
113	0	0	287	1188	3757	75
114	0	0	203	1190	3759	75
115	0	0	163	1194	3757	75
116	0	0	139	1195	3758	75
117	0	0	130	1195	3758	77
118	0	0	126	1196	3758	74
