# bioPlux Text File Format
# Version: 1
# StartDateTime: 2011-07-19 13:22:24
# SamplingFrequency: 1000
# SampledChannels: 1 2 3 4 5
# SamplingResolution: 12
# AcquiringDevice: 00:07:80:42:0F:95
# EndOfHeader
0	0	0	3567	1466	183	374	3456
1	0	0	3258	1465	185	374	3455
2	0	0	2969	1466	186	373	3454
3	0	0	2871	1461	188	374	3453
4	0	0	2173	1460	188	373	3452
5	0	0	1373	1460	190	373	3453
6	0	0	799	1460	190	377	3454
7	0	0	442	1461	187	377	3456
8	0	0	238	1461	186	378	3456
9	0	0	126	1463	185	377	3456
10	0	0	417	1469	184	373	3456
11	0	0	829	1470	182	373	3456
12	0	0	1261	1470	181	373	3454
13	0	0	1519	1473	180	377	3453
14	0	0	2093	1472	179	373	3453
15	0	0	2748	1473	178	374	3454
16	0	0	3183	1473	179	373	3454
17	0	0	3517	1473	179	374	3456
18	0	0	3697	1473	181	374	3456
19	0	0	3723	1472	182	374	3456
20	0	0	3559	1466	183	373	3456
21	0	0	3253	1464	184	373	3456
22	0	0	2961	1466	187	374	3455
23	0	0	2864	1462	188	373	3452
24	0	0	2169	1460	189	378	3453
25	0	0	1377	1459	190	377	3453
26	0	0	813	1459	190	377	3454
27	0	0	449	1460	188	378	3456
28	0	0	241	1461	186	373	3457
29	0	0	128	1464	185	373	3456
30	0	0	420	1468	183	373	3457
31	0	0	831	1470	182	373	3457
32	0	0	1258	1470	181	373	3454
33	0	0	1515	1471	179	373	3453
34	0	0	2084	1472	179	373	3453
35	0	0	2744	1472	179	374	3454
36	0	0	3179	1472	180	374	3455
37	0	0	3508	1472	179	374	3456
38	0	0	3680	1472	181	374	3457
39	0	0	3700	1470	182	373	3458
40	0	0	3541	1465	183	375	3456
41	0	0	3243	1464	186	374	3456
42	0	0	2948	1465	186	378	3455
43	0	0	2849	1461	188	377	3453
44	0	0	2170	1459	188	378	3453
45	0	0	1375	1459	189	377	3455
46	0	0	803	1459	189	374	3456
47	0	0	444	1459	188	373	3456
48	0	0	241	1460	186	374	3456
49	0	0	127	1470	185	373	3456
50	0	0	438	1467	184	373	3456
51	0	0	844	1468	182	373	3456
52	0	0	1278	1469	180	373	3454
53	0	0	1534	1470	179	373	3453
54	0	0	2094	1471	179	377	3454
55	0	0	2744	1472	179	378	3454
56	0	0	3173	1473	180	378	3455
57	0	0	3503	1472	180	374	3456
58	0	0	3678	1471	181	373	3456
59	0	0	3705	1471	182	373	3457
60	0	0	3551	1464	183	377	3457
61	0	0	3245	1463	184	377	3456
62	0	0	2952	1464	186	373	3454
63	0	0	2860	1460	188	373	3454
64	0	0	2174	1459	189	374	3453
65	0	0	1379	1459	189	374	3454
66	0	0	813	1458	189	374	3456
67	0	0	447	1459	188	374	3456
68	0	0	242	1460	186	373	3456
69	0	0	129	1468	185	373	3456
70	0	0	436	1467	185	373	3456
71	0	0	854	1468	182	377	3456
72	0	0	1285	1469	180	378	3455
73	0	0	1538	1470	180	377	3453
74	0	0	2095	1470	178	377	3454
75	0	0	2748	1472	179	373	3454
76	0	0	3179	1471	179	374	3455
77	0	0	3509	1472	180	374	3457
78	0	0	3682	1471	181	373	3456
79	0	0	3705	1470	182	373	3457
80	0	0	3546	1465	183	373	3456
81	0	0	3240	1463	186	379	3456
82	0	0	2943	1464	186	374	3455
83	0	0	2845	1460	189	373	3453
84	0	0	2170	1458	189	374	3453
85	0	0	1379	1458	189	373	3454
86	0	0	820	1458	188	378	3455
87	0	0	454	1459	188	378	3456
88	0	0	245	1460	187	373	3456
89	0	0	131	1465	185	373	3457
90	0	0	428	1467	184	374	3457
91	0	0	842	1467	182	377	3456
92	0	0	1276	1467	180	377	3455
93	0	0	1531	1470	180	377	3453
94	0	0	2085	1470	180	373	3453
95	0	0	2737	1471	179	373	3454
96	0	0	3165	1471	178	373	3455
97	0	0	3495	1470	179	374	3456
98	0	0	3677	1470	181	373	3456
99	0	0	3708	1469	182	373	3456
100	0	0	3555	1463	183	373	3457
101	0	0	3254	1463	184	373	3456
102	0	0	2953	1463	187	377	3455
103	0	0	2860	1459	188	378	3454
104	0	0	2190	1458	189	377	3453
105	0	0	1387	1457	189	377	3455
106	0	0	812	1458	190	373	3456
107	0	0	450	1458	189	374	3456
108	0	0	244	1460	187	374	3458
109	0	0	130	1468	185	377	3457
110	0	0	434	1466	184	373	3457
111	0	0	841	1467	182	373	3457
112	0	0	1278	1467	181	374	3455
113	0	0	1533	1469	179	374	3454
114	0	0	2085	1470	180	374	3453
115	0	0	2734	1470	178	373	3455
116	0	0	3171	1470	180	373	3455
117	0	0	3498	1470	179	373	3456
118	0	0	3670	1470	181	373	3457
119	0	0	3702	1469	182	373	3457
120	0	0	3548	1463	184	377	3457
121	0	0	3250	1462	185	377	3456
122	0	0	2956	1463	186	378	3455
123	0	0	2862	1458	188	378	3454
124	0	0	2187	1457	188	374	3454
125	0	0	1393	1456	189	373	3454
126	0	0	827	1457	189	374	3456
127	0	0	455	1458	189	373	3457
0	0	0	248	1459	186	373	3457
1	0	0	133	1467	186	373	3458
2	0	0	439	1466	184	373	3457
3	0	0	849	1467	183	374	3456
4	0	0	1282	1467	181	374	3456
5	0	0	1538	1469	179	374	3454
6	0	0	2098	1470	179	373	3454
7	0	0	2746	1470	178	373	3455
8	0	0	3179	1470	178	374	3456
9	0	0	3507	1469	179	373	3457
10	0	0	3681	1470	180	377	3458
11	0	0	3693	1467	181	377	3457
12	0	0	3536	1462	184	377	3458
13	0	0	3234	1462	184	377	3457
14	0	0	2927	1462	186	374	3456
15	0	0	2839	1458	188	374	3454
16	0	0	2188	1457	189	374	3454
17	0	0	1389	1456	190	373	3454
18	0	0	830	1456	191	373	3455
19	0	0	461	1457	188	373	3456
20	0	0	251	1458	186	373	3457
21	0	0	134	1466	186	374	3458
22	0	0	440	1465	184	377	3457
23	0	0	848	1466	183	377	3457
24	0	0	1287	1467	180	378	3456
25	0	0	1541	1467	180	373	3454
26	0	0	2082	1469	180	373	3455
27	0	0	2728	1470	179	373	3455
28	0	0	3165	1470	179	377	3456
29	0	0	3492	1469	180	377	3457
30	0	0	3667	1468	180	373	3457
31	0	0	3701	1468	181	373	3458
32	0	0	3548	1462	183	373	3458
33	0	0	3248	1462	184	374	3458
34	0	0	2944	1461	187	374	3456
35	0	0	2851	1458	188	373	3454
36	0	0	2190	1456	188	373	3454
37	0	0	1395	1456	189	374	3455
38	0	0	824	1456	189	373	3456
39	0	0	454	1458	187	377	3458
40	0	0	247	1458	186	378	3458
41	0	0	134	1466	185	377	3458
42	0	0	439	1465	184	377	3458
43	0	0	851	1466	183	373	3457
44	0	0	1288	1466	181	374	3456
45	0	0	1541	1467	179	373	3455
46	0	0	2089	1468	179	373	3454
47	0	0	2733	1469	178	373	3456
48	0	0	3162	1469	179	373	3457
49	0	0	3490	1469	180	373	3457
50	0	0	3665	1469	181	374	3459
51	0	0	3693	1468	182	373	3458
52	0	0	3547	1462	182	374	3458
53	0	0	3246	1460	185	373	3457
54	0	0	2946	1460	186	374	3456
55	0	0	2854	1457	188	374	3454
56	0	0	2199	1456	189	374	3455
57	0	0	1393	1455	189	378	3455
58	0	0	823	1456	189	377	3456
59	0	0	458	1456	188	378	3458
60	0	0	250	1457	187	377	3458
61	0	0	134	1463	185	373	3458
62	0	0	433	1464	184	374	3459
63	0	0	843	1465	182	374	3458
64	0	0	1285	1465	180	373	3457
65	0	0	1543	1468	179	373	3455
66	0	0	2089	1468	178	373	3455
67	0	0	2742	1468	179	374	3455
68	0	0	3184	1469	179	373	3456
69	0	0	3511	1469	180	373	3457
70	0	0	3681	1468	180	374	3458
71	0	0	3709	1467	182	373	3458
72	0	0	3553	1461	181	377	3458
73	0	0	3250	1460	185	378	3458
74	0	0	2935	1460	186	377	3456
75	0	0	2845	1457	188	377	3454
76	0	0	2198	1456	190	374	3456
77	0	0	1402	1456	189	373	3455
78	0	0	830	1455	190	374	3457
79	0	0	458	1456	187	374	3458
80	0	0	250	1457	187	373	3458
81	0	0	136	1459	185	373	3460
82	0	0	420	1465	184	374	3459
83	0	0	835	1465	182	373	3458
84	0	0	1276	1465	182	374	3457
85	0	0	1529	1466	179	374	3454
86	0	0	2085	1467	180	374	3455
87	0	0	2739	1468	178	373	3456
88	0	0	3179	1468	178	373	3457
89	0	0	3503	1468	179	374	3458
90	0	0	3679	1468	180	377	3459
91	0	0	3709	1467	182	377	3459
92	0	0	3554	1461	182	378	3459
93	0	0	3249	1460	185	378	3459
94	0	0	2937	1460	186	374	3457
95	0	0	2842	1457	188	374	3455
96	0	0	2193	1455	188	374	3456
97	0	0	1383	1455	190	373	3456
98	0	0	809	1455	190	373	3457
99	0	0	449	1456	188	373	3458
100	0	0	245	1456	186	374	3459
101	0	0	132	1463	184	374	3459
102	0	0	439	1463	183	377	3459
103	0	0	854	1465	182	377	3459
104	0	0	1297	1465	181	378	3457
105	0	0	1562	1466	179	373	3456
106	0	0	2100	1467	179	374	3455
107	0	0	2746	1468	179	373	3456
108	0	0	3190	1468	180	377	3457
109	0	0	3506	1468	180	378	3459
110	0	0	3668	1467	181	373	3459
111	0	0	3690	1465	183	373	3459
112	0	0	3534	1460	183	374	3459
113	0	0	3232	1459	184	374	3459
114	0	0	2912	1459	188	374	3457
115	0	0	2814	1457	188	373	3456
116	0	0	2171	1455	189	373	3455
117	0	0	1373	1454	189	373	3456
118	0	0	810	1454	189	373	3457
119	0	0	446	1455	187	378	3458
120	0	0	244	1456	187	378	3459
121	0	0	132	1461	185	378	3459
122	0	0	433	1463	184	377	3459
123	0	0	851	1464	183	373	3458
124	0	0	1295	1465	182	373	3457
125	0	0	1560	1466	180	374	3456
126	0	0	2106	1466	179	374	3456
127	0	0	2759	1468	179	373	3456
0	0	0	3198	1467	179	373	3457
1	0	0	3516	1467	179	373	3459
2	0	0	3676	1466	180	373	3460
3	0	0	3696	1465	182	374	3459
4	0	0	3539	1460	183	374	3459
5	0	0	3225	1459	184	374	3459
6	0	0	2905	1459	187	374	3457
7	0	0	2815	1456	189	374	3456
8	0	0	2184	1454	189	374	3456
9	0	0	1372	1454	189	378	3457
10	0	0	802	1454	190	378	3458
11	0	0	446	1454	189	378	3459
12	0	0	244	1456	187	377	3460
13	0	0	132	1463	185	373	3459
14	0	0	443	1463	183	374	3460
15	0	0	861	1463	182	374	3459
16	0	0	1312	1463	182	373	3457
17	0	0	1576	1466	180	373	3456
18	0	0	2109	1466	178	373	3457
19	0	0	2759	1467	179	375	3457
20	0	0	3202	1466	179	373	3458
21	0	0	3516	1466	179	373	3459
22	0	0	3685	1466	180	377	3459
23	0	0	3712	1464	182	378	3459
24	0	0	3555	1459	183	374	3459
25	0	0	3244	1459	185	373	3459
26	0	0	2923	1459	184	374	3458
27	0	0	2826	1455	188	378	3456
28	0	0	2188	1453	188	378	3456
29	0	0	1385	1453	189	378	3456
30	0	0	811	1454	190	374	3458
31	0	0	447	1454	188	374	3459
32	0	0	245	1456	187	374	3460
33	0	0	133	1458	186	374	3459
34	0	0	436	1462	182	373	3459
35	0	0	852	1463	182	373	3459
36	0	0	1308	1464	180	373	3458
37	0	0	1574	1465	179	373	3456
38	0	0	2112	1464	179	378	3456
39	0	0	2764	1466	179	377	3457
40	0	0	3200	1467	180	377	3458
41	0	0	3518	1466	179	377	3459
42	0	0	3683	1466	181	373	3459
43	0	0	3704	1462	181	374	3459
44	0	0	3548	1459	183	373	3459
45	0	0	3232	1458	185	377	3459
46	0	0	2906	1458	185	374	3458
47	0	0	2819	1455	188	373	3457
48	0	0	2197	1454	189	374	3456
49	0	0	1388	1453	189	374	3457
50	0	0	811	1453	189	374	3459
51	0	0	451	1454	186	374	3459
52	0	0	245	1456	187	374	3459
53	0	0	134	1457	184	374	3461
54	0	0	423	1463	184	373	3460
55	0	0	833	1463	181	372	3459
56	0	0	1282	1463	181	374	3458
57	0	0	1548	1465	179	373	3457
58	0	0	2077	1465	179	373	3456
59	0	0	2739	1466	180	373	3457
60	0	0	3187	1466	179	372	3458
61	0	0	3514	1466	179	373	3459
62	0	0	3671	1465	181	374	3460
63	0	0	3691	1463	182	374	3460
64	0	0	3540	1459	183	374	3460
65	0	0	3232	1457	184	373	3459
66	0	0	2907	1457	187	374	3459
67	0	0	2804	1455	188	373	3456
68	0	0	2188	1453	188	374	3457
69	0	0	1395	1453	189	374	3457
70	0	0	819	1452	189	373	3459
71	0	0	456	1453	186	373	3459
72	0	0	250	1455	186	373	3461
73	0	0	137	1462	185	373	3460
74	0	0	452	1462	184	373	3460
75	0	0	865	1462	182	373	3459
76	0	0	1310	1463	182	373	3458
77	0	0	1577	1464	179	373	3457
78	0	0	2100	1464	179	374	3457
79	0	0	2747	1465	179	373	3457
80	0	0	3184	1466	179	374	3458
81	0	0	3507	1466	179	374	3460
82	0	0	3675	1464	180	374	3460
83	0	0	3699	1462	182	374	3460
84	0	0	3546	1458	184	373	3460
85	0	0	3238	1458	185	373	3460
86	0	0	2914	1457	186	374	3458
87	0	0	2815	1454	187	374	3457
88	0	0	2193	1452	190	373	3457
89	0	0	1400	1452	189	373	3457
90	0	0	833	1452	189	373	3458
91	0	0	465	1453	188	373	3460
92	0	0	254	1454	186	374	3460
93	0	0	138	1460	185	374	3461
94	0	0	449	1461	184	375	3460
95	0	0	870	1462	183	372	3460
96	0	0	1319	1463	181	374	3459
97	0	0	1587	1464	179	373	3457
98	0	0	2105	1464	178	374	3457
99	0	0	2755	1465	178	374	3458
100	0	0	3195	1465	179	374	3459
101	0	0	3510	1464	181	374	3460
102	0	0	3671	1464	180	374	3460
103	0	0	3690	1460	181	374	3460
104	0	0	3536	1457	183	373	3460
105	0	0	3227	1457	184	374	3461
106	0	0	2895	1457	185	373	3459
107	0	0	2794	1453	189	373	3457
108	0	0	2190	1452	188	373	3458
109	0	0	1398	1452	190	374	3458
110	0	0	821	1452	189	374	3459
111	0	0	457	1453	189	374	3460
112	0	0	251	1454	186	374	3460
113	0	0	136	1459	185	373	3460
114	0	0	460	1460	184	374	3461
115	0	0	872	1461	183	373	3460
116	0	0	1325	1462	181	373	3459
117	0	0	1598	1463	180	374	3458
118	0	0	2106	1463	180	373	3457
119	0	0	2745	1465	179	373	3458
120	0	0	3186	1465	179	373	3459
121	0	0	3503	1464	180	374	3459
122	0	0	3666	1464	181	374	3460
123	0	0	3687	1461	181	373	3460
124	0	0	3531	1456	184	373	3460
125	0	0	3221	1457	185	373	3459
126	0	0	2892	1455	187	373	3459
127	0	0	2795	1453	187	374	3457
0	0	0	2187	1452	189	374	3457
1	0	0	1392	1451	190	374	3457
2	0	0	820	1451	190	374	3458
3	0	0	454	1451	189	374	3460
4	0	0	249	1453	186	374	3460
5	0	0	137	1461	185	373	3462
6	0	0	451	1460	185	373	3461
7	0	0	872	1462	183	373	3460
8	0	0	1325	1462	181	373	3459
9	0	0	1595	1463	180	373	3457
10	0	0	2103	1463	178	373	3458
11	0	0	2754	1464	179	373	3458
12	0	0	3188	1464	179	374	3459
13	0	0	3501	1464	181	373	3460
14	0	0	3661	1463	182	373	3460
15	0	0	3682	1460	182	373	3460
16	0	0	3530	1457	183	373	3461
17	0	0	3224	1456	185	374	3460
18	0	0	2891	1455	187	374	3459
19	0	0	2795	1453	188	374	3457
20	0	0	2196	1451	188	374	3458
21	0	0	1392	1451	189	373	3458
22	0	0	824	1451	189	374	3458
23	0	0	460	1452	187	374	3460
24	0	0	253	1452	187	374	3460
25	0	0	138	1460	185	373	3461
26	0	0	460	1459	184	373	3461
27	0	0	871	1460	182	373	3460
28	0	0	1319	1461	181	373	3459
29	0	0	1591	1462	180	374	3458
30	0	0	2103	1463	180	373	3457
31	0	0	2743	1463	179	374	3458
32	0	0	3188	1464	179	373	3460
33	0	0	3496	1463	179	373	3460
34	0	0	3653	1463	180	373	3460
35	0	0	3678	1460	182	373	3460
36	0	0	3525	1456	183	374	3461
37	0	0	3213	1455	184	374	3460
38	0	0	2884	1455	185	373	3459
39	0	0	2788	1453	188	373	3457
40	0	0	2192	1451	187	374	3458
41	0	0	1401	1451	188	374	3458
42	0	0	826	1451	189	374	3459
43	0	0	458	1451	187	373	3460
44	0	0	252	1451	186	373	3460
45	0	0	143	1457	184	373	3461
46	0	0	476	1459	185	373	3461
47	0	0	891	1459	184	374	3460
48	0	0	1342	1461	181	374	3459
49	0	0	1609	1461	179	374	3457
50	0	0	2116	1462	179	373	3457
51	0	0	2751	1463	179	373	3458
52	0	0	3182	1464	178	373	3459
53	0	0	3487	1463	179	373	3460
54	0	0	3641	1462	180	373	3460
55	0	0	3656	1458	181	373	3461
56	0	0	3507	1456	183	373	3461
57	0	0	3200	1455	184	373	3461
58	0	0	2867	1454	186	374	3459
59	0	0	2773	1452	188	374	3458
60	0	0	2193	1451	188	374	3457
61	0	0	1391	1450	189	373	3458
62	0	0	828	1450	189	374	3459
63	0	0	464	1451	187	374	3460
64	0	0	255	1451	187	374	3460
65	0	0	141	1457	186	374	3461
66	0	0	472	1458	184	374	3460
67	0	0	885	1459	182	374	3460
68	0	0	1334	1460	181	373	3459
69	0	0	1602	1461	180	373	3457
70	0	0	2103	1461	180	373	3457
71	0	0	2741	1462	180	373	3458
72	0	0	3186	1462	179	373	3459
73	0	0	3498	1462	180	373	3461
74	0	0	3645	1462	181	373	3460
75	0	0	3660	1458	182	373	3461
76	0	0	3507	1456	184	374	3461
77	0	0	3203	1454	185	374	3461
78	0	0	2866	1454	186	374	3459
79	0	0	2766	1452	188	374	3457
80	0	0	2194	1449	190	374	3457
81	0	0	1408	1449	188	374	3458
82	0	0	840	1450	190	374	3459
83	0	0	469	1450	187	374	3460
84	0	0	258	1451	186	374	3461
85	0	0	142	1457	184	374	3462
86	0	0	473	1458	185	374	3461
87	0	0	883	1459	182	373	3460
88	0	0	1330	1459	181	374	3459
89	0	0	1598	1461	180	374	3459
90	0	0	2107	1461	179	373	3458
91	0	0	2745	1462	179	372	3458
92	0	0	3182	1462	179	373	3459
93	0	0	3487	1462	179	373	3460
94	0	0	3647	1462	180	374	3461
95	0	0	3670	1458	182	374	3461
96	0	0	3519	1455	183	374	3461
97	0	0	3207	1454	184	373	3461
98	0	0	2871	1454	186	373	3460
99	0	0	2771	1451	187	374	3458
100	0	0	2202	1449	188	374	3458
101	0	0	1403	1449	189	374	3459
102	0	0	835	1449	188	373	3460
103	0	0	467	1449	188	373	3460
104	0	0	257	1451	187	373	3461
105	0	0	149	1457	185	374	3461
106	0	0	479	1457	184	374	3461
107	0	0	896	1458	182	373	3461
108	0	0	1348	1459	181	372	3460
109	0	0	1616	1460	180	373	3458
110	0	0	2109	1461	180	373	3458
111	0	0	2744	1461	179	373	3458
112	0	0	3178	1461	179	374	3459
113	0	0	3480	1461	179	374	3461
114	0	0	3630	1461	181	374	3461
115	0	0	3650	1457	181	373	3461
116	0	0	3496	1455	182	373	3461
117	0	0	3191	1453	185	373	3461
118	0	0	2857	1453	185	374	3459
119	0	0	2757	1452	188	373	3459
120	0	0	2195	1449	188	373	3457
121	0	0	1411	1448	189	373	3459
122	0	0	843	1449	189	373	3460
123	0	0	472	1449	187	374	3460
124	0	0	260	1450	187	374	3462
125	0	0	146	1455	186	374	3461
126	0	0	483	1456	184	374	3462
127	0	0	893	1458	183	374	3462
0	0	0	1337	1458	180	373	3460
1	0	0	1605	1460	179	374	3458
2	0	0	2096	1460	180	374	3458
3	0	0	2735	1461	179	374	3459
4	0	0	3173	1461	179	375	3459
5	0	0	3473	1461	179	373	3461
6	0	0	3630	1460	180	374	3461
7	0	0	3659	1457	183	374	3461
8	0	0	3513	1453	184	374	3461
9	0	0	3203	1453	185	373	3461
10	0	0	2867	1452	186	373	3460
11	0	0	2767	1450	187	373	3458
12	0	0	2211	1448	189	373	3459
13	0	0	1417	1449	189	375	3459
14	0	0	844	1448	189	375	3460
15	0	0	474	1449	188	374	3462
16	0	0	260	1449	186	374	3461
17	0	0	156	1456	185	374	3462
18	0	0	490	1457	184	374	3462
19	0	0	902	1458	182	374	3461
20	0	0	1360	1459	181	374	3460
21	0	0	1631	1459	180	374	3458
22	0	0	2109	1460	179	373	3458
23	0	0	2734	1460	179	373	3459
24	0	0	3174	1461	179	377	3460
25	0	0	3474	1460	181	373	3461
26	0	0	3632	1460	181	374	3461
27	0	0	3655	1456	182	374	3463
28	0	0	3505	1454	183	374	3462
29	0	0	3190	1452	185	374	3461
30	0	0	2851	1452	185	374	3460
31	0	0	2753	1450	188	374	3458
32	0	0	2206	1448	188	374	3458
33	0	0	1415	1447	189	374	3459
34	0	0	849	1448	189	374	3461
35	0	0	476	1448	187	374	3461
36	0	0	262	1449	187	374	3461
37	0	0	157	1455	185	374	3462
38	0	0	488	1456	183	374	3462
39	0	0	899	1457	182	374	3461
40	0	0	1348	1457	180	373	3460
41	0	0	1624	1459	179	373	3458
42	0	0	2106	1459	179	373	3459
43	0	0	2736	1460	178	372	3459
44	0	0	3177	1460	178	374	3460
45	0	0	3479	1461	180	374	3462
46	0	0	3626	1460	181	374	3462
47	0	0	3645	1456	181	374	3462
48	0	0	3492	1453	183	373	3462
49	0	0	3185	1452	185	373	3462
50	0	0	2849	1451	185	373	3460
51	0	0	2754	1450	187	374	3458
52	0	0	2207	1447	188	374	3458
53	0	0	1425	1447	189	374	3459
54	0	0	846	1447	189	373	3460
55	0	0	475	1448	188	374	3461
56	0	0	262	1449	187	374	3461
57	0	0	150	1455	185	374	3463
58	0	0	488	1456	184	374	3462
59	0	0	895	1457	182	373	3462
60	0	0	1341	1457	181	373	3460
61	0	0	1617	1457	180	373	3458
62	0	0	2098	1459	179	374	3458
63	0	0	2729	1459	179	374	3459
64	0	0	3170	1460	179	373	3460
65	0	0	3470	1459	179	373	3461
66	0	0	3629	1460	180	374	3462
67	0	0	3654	1456	182	372	3462
68	0	0	3506	1452	183	374	3462
69	0	0	3199	1451	184	374	3462
70	0	0	2860	1451	185	373	3460
71	0	0	2759	1449	187	373	3458
72	0	0	2215	1447	189	373	3458
73	0	0	1423	1447	188	374	3459
74	0	0	857	1447	189	374	3460
75	0	0	482	1447	187	374	3462
76	0	0	265	1448	187	373	3462
77	0	0	158	1454	184	373	3462
78	0	0	491	1455	184	374	3463
79	0	0	903	1457	183	374	3463
80	0	0	1352	1457	181	374	3461
81	0	0	1624	1458	179	375	3459
82	0	0	2097	1459	181	374	3459
83	0	0	2728	1459	179	373	3459
84	0	0	3163	1459	179	373	3460
85	0	0	3458	1459	179	373	3462
86	0	0	3612	1459	179	373	3462
87	0	0	3639	1455	182	373	3463
88	0	0	3494	1452	183	373	3462
89	0	0	3189	1451	184	373	3462
90	0	0	2854	1450	186	373	3460
91	0	0	2753	1448	188	374	3458
92	0	0	2214	1447	188	374	3458
93	0	0	1433	1445	189	374	3459
94	0	0	856	1447	189	373	3461
95	0	0	482	1447	188	373	3462
96	0	0	267	1448	187	374	3463
97	0	0	162	1455	184	374	3462
98	0	0	498	1455	184	374	3462
99	0	0	909	1456	184	374	3462
100	0	0	1357	1456	180	373	3461
101	0	0	1637	1457	180	374	3459
102	0	0	2107	1458	180	373	3459
103	0	0	2730	1458	180	374	3460
104	0	0	3166	1459	179	374	3460
105	0	0	3469	1459	180	373	3462
106	0	0	3618	1458	180	373	3462
107	0	0	3641	1454	182	373	3463
108	0	0	3492	1451	184	373	3462
109	0	0	3181	1450	185	374	3462
110	0	0	2838	1450	185	374	3461
111	0	0	2738	1449	187	374	3460
112	0	0	2204	1447	188	374	3459
113	0	0	1426	1445	190	374	3459
114	0	0	859	1446	188	374	3460
115	0	0	485	1446	188	374	3462
116	0	0	267	1448	186	374	3462
117	0	0	167	1454	186	374	3462
118	0	0	498	1454	184	373	3463
119	0	0	910	1455	183	373	3462
120	0	0	1360	1456	180	374	3461
121	0	0	1636	1457	179	373	3459
122	0	0	2103	1458	178	373	3459
123	0	0	2731	1459	179	373	3460
124	0	0	3168	1458	179	373	3460
125	0	0	3464	1458	180	373	3462
126	0	0	3614	1457	181	373	3462
127	0	0	3639	1453	182	374	3462
0	0	0	3495	1451	184	374	3463
1	0	0	3192	1450	184	374	3463
2	0	0	2846	1449	184	373	3461
3	0	0	2747	1447	187	374	3459
4	0	0	2222	1445	189	374	3459
5	0	0	1440	1445	189	373	3460
6	0	0	859	1445	189	373	3461
7	0	0	486	1445	186	373	3462
8	0	0	269	1447	187	374	3463
9	0	0	163	1453	185	373	3462
10	0	0	498	1454	183	374	3462
11	0	0	908	1455	182	373	3462
12	0	0	1352	1455	181	373	3461
13	0	0	1629	1457	180	373	3459
14	0	0	2099	1457	179	374	3460
15	0	0	2724	1458	180	374	3460
16	0	0	3165	1458	179	375	3460
17	0	0	3464	1458	180	373	3462
18	0	0	3612	1458	181	373	3462
19	0	0	3635	1453	182	373	3463
20	0	0	3491	1451	183	374	3463
21	0	0	3182	1449	184	374	3462
22	0	0	2844	1449	186	373	3462
23	0	0	2738	1447	187	373	3459
24	0	0	2221	1445	189	373	3459
25	0	0	1433	1445	189	374	3460
26	0	0	860	1444	189	375	3460
27	0	0	486	1445	188	374	3462
28	0	0	268	1447	187	373	3462
29	0	0	168	1453	186	373	3463
30	0	0	501	1454	184	373	3463
31	0	0	912	1453	182	374	3462
32	0	0	1363	1455	181	374	3462
33	0	0	1647	1456	180	374	3459
34	0	0	2106	1457	180	374	3460
35	0	0	2736	1457	179	374	3459
36	0	0	3169	1457	179	374	3460
37	0	0	3463	1457	180	373	3462
38	0	0	3614	1457	181	373	3462
39	0	0	3637	1452	182	373	3463
40	0	0	3487	1450	184	373	3462
41	0	0	3178	1449	184	373	3462
42	0	0	2838	1448	186	373	3461
43	0	0	2731	1446	188	374	3459
44	0	0	2220	1445	188	373	3459
45	0	0	1438	1444	189	374	3459
46	0	0	863	1445	188	374	3461
47	0	0	490	1445	188	374	3462
48	0	0	272	1446	186	374	3463
49	0	0	172	1453	185	374	3462
50	0	0	506	1452	184	374	3462
51	0	0	915	1454	182	374	3462
52	0	0	1361	1454	181	374	3461
53	0	0	1646	1455	180	373	3459
54	0	0	2102	1456	178	374	3459
55	0	0	2723	1457	178	374	3459
56	0	0	3160	1456	179	374	3460
57	0	0	3452	1456	179	372	3462
58	0	0	3606	1456	181	373	3462
59	0	0	3631	1452	182	373	3462
60	0	0	3484	1449	182	373	3462
61	0	0	3176	1448	184	374	3462
62	0	0	2834	1448	186	374	3461
63	0	0	2723	1446	188	374	3460
64	0	0	2211	1445	189	374	3459
65	0	0	1438	1444	189	374	3460
66	0	0	871	1444	189	374	3461
67	0	0	496	1444	188	374	3462
68	0	0	274	1446	186	374	3463
69	0	0	173	1452	186	374	3463
70	0	0	502	1452	184	373	3463
71	0	0	908	1453	182	373	3463
72	0	0	1357	1454	182	373	3461
73	0	0	1644	1455	180	374	3459
74	0	0	2094	1455	180	373	3459
75	0	0	2719	1456	179	372	3460
76	0	0	3153	1456	180	373	3460
77	0	0	3446	1456	180	373	3462
78	0	0	3599	1455	181	374	3462
79	0	0	3621	1451	182	374	3463
80	0	0	3473	1449	182	374	3463
81	0	0	3170	1448	183	374	3462
82	0	0	2820	1447	186	374	3462
83	0	0	2709	1446	188	374	3459
84	0	0	2211	1443	188	373	3460
85	0	0	1442	1443	189	374	3460
86	0	0	868	1444	188	373	3460
87	0	0	493	1444	188	373	3462
88	0	0	274	1445	187	373	3463
89	0	0	181	1452	185	373	3462
90	0	0	525	1452	184	374	3462
91	0	0	938	1452	182	374	3462
92	0	0	1381	1453	182	373	3461
93	0	0	1672	1454	179	373	3459
94	0	0	2115	1454	179	374	3459
95	0	0	2726	1455	179	374	3459
96	0	0	3156	1455	179	374	3460
97	0	0	3440	1456	179	374	3462
98	0	0	3591	1455	182	374	3462
99	0	0	3617	1451	182	374	3462
100	0	0	3465	1449	184	374	3463
101	0	0	3164	1448	185	374	3463
102	0	0	2817	1446	185	374	3461
103	0	0	2699	1446	189	374	3459
104	0	0	2196	1443	188	373	3459
105	0	0	1432	1442	188	373	3459
106	0	0	868	1443	189	373	3460
107	0	0	496	1443	188	373	3462
108	0	0	275	1444	187	374	3462
109	0	0	175	1450	185	374	3462
110	0	0	507	1451	184	374	3462
111	0	0	928	1452	182	374	3462
112	0	0	1377	1452	182	374	3461
113	0	0	1666	1453	179	373	3459
114	0	0	2104	1454	180	373	3460
115	0	0	2721	1455	178	374	3460
116	0	0	3155	1455	179	374	3460
117	0	0	3437	1456	180	374	3462
118	0	0	3589	1454	180	374	3462
119	0	0	3611	1451	182	374	3462
120	0	0	3466	1448	183	374	3463
121	0	0	3163	1447	185	374	3463
122	0	0	2811	1446	186	373	3461
123	0	0	2691	1444	188	373	3459
124	0	0	2201	1442	189	374	3459
125	0	0	1435	1442	189	373	3459
126	0	0	863	1442	189	374	3460
127	0	0	490	1443	188	373	3462
0	0	0	274	1444	187	374	3462
1	0	0	181	1450	185	373	3462
2	0	0	513	1450	183	374	3462
3	0	0	933	1451	182	374	3462
4	0	0	1392	1453	182	374	3461
5	0	0	1683	1453	180	374	3459
6	0	0	2102	1454	180	373	3459
7	0	0	2722	1454	178	374	3459
8	0	0	3156	1453	179	374	3460
9	0	0	3449	1454	179	373	3462
10	0	0	3596	1454	181	373	3462
11	0	0	3606	1452	182	373	3462
12	0	0	3456	1447	183	373	3462
13	0	0	3158	1446	183	375	3461
14	0	0	2789	1445	185	374	3460
15	0	0	2681	1445	188	374	3459
16	0	0	2207	1443	188	374	3458
17	0	0	1450	1441	189	374	3459
18	0	0	879	1442	189	375	3461
19	0	0	498	1442	187	374	3461
20	0	0	277	1442	186	374	3462
21	0	0	187	1449	185	374	3462
22	0	0	517	1450	184	373	3462
23	0	0	935	1451	182	373	3462
24	0	0	1402	1451	181	374	3460
25	0	0	1682	1452	180	374	3458
26	0	0	2105	1453	179	374	3458
27	0	0	2726	1454	178	373	3459
28	0	0	3175	1454	179	373	3460
29	0	0	3448	1454	179	373	3462
30	0	0	3594	1454	181	374	3461
31	0	0	3610	1449	182	374	3463
32	0	0	3477	1447	184	374	3462
33	0	0	3165	1445	184	374	3461
34	0	0	2790	1445	185	373	3460
35	0	0	2695	1443	187	374	3458
36	0	0	2229	1441	188	373	3458
37	0	0	1462	1441	190	374	3458
38	0	0	878	1441	189	373	3459
39	0	0	497	1442	188	373	3461
40	0	0	278	1443	187	373	3462
41	0	0	184	1450	185	373	3462
42	0	0	517	1449	184	374	3462
43	0	0	939	1450	182	374	3461
44	0	0	1404	1451	181	374	3460
45	0	0	1687	1452	180	373	3458
46	0	0	2110	1452	179	374	3458
47	0	0	2721	1453	179	373	3459
48	0	0	3160	1453	179	373	3459
49	0	0	3434	1453	180	374	3461
50	0	0	3579	1453	183	374	3461
51	0	0	3591	1447	181	374	3462
52	0	0	3449	1446	182	374	3461
53	0	0	3132	1445	184	374	3461
54	0	0	2762	1444	186	375	3460
55	0	0	2672	1443	188	374	3458
56	0	0	2206	1441	189	373	3459
57	0	0	1444	1441	189	373	3459
58	0	0	869	1440	189	373	3459
59	0	0	492	1441	188	374	3461
60	0	0	273	1442	187	374	3461
61	0	0	191	1448	184	374	3462
62	0	0	529	1449	184	374	3461
63	0	0	957	1450	183	375	3461
64	0	0	1420	1450	182	374	3460
65	0	0	1697	1452	180	373	3459
66	0	0	2111	1453	179	373	3458
67	0	0	2718	1453	179	374	3458
68	0	0	3153	1453	179	374	3459
69	0	0	3431	1453	180	374	3461
70	0	0	3576	1452	180	374	3461
71	0	0	3586	1447	182	374	3461
72	0	0	3451	1446	184	374	3461
73	0	0	3138	1445	184	374	3461
74	0	0	2758	1443	185	374	3460
75	0	0	2667	1443	190	373	3458
76	0	0	2206	1440	188	373	3458
77	0	0	1449	1439	188	373	3458
78	0	0	869	1440	189	375	3459
79	0	0	495	1441	187	374	3460
80	0	0	278	1441	186	374	3461
81	0	0	202	1448	185	373	3463
82	0	0	541	1449	183	374	3462
83	0	0	962	1449	183	374	3461
84	0	0	1421	1450	182	374	3461
85	0	0	1700	1450	180	374	3458
86	0	0	2116	1451	179	373	3458
87	0	0	2722	1453	179	373	3458
88	0	0	3158	1452	179	373	3459
89	0	0	3437	1452	179	374	3460
90	0	0	3575	1452	181	374	3462
91	0	0	3586	1447	180	374	3461
92	0	0	3444	1445	183	373	3461
93	0	0	3130	1444	184	373	3461
94	0	0	2761	1443	186	373	3460
95	0	0	2661	1442	187	374	3458
96	0	0	2206	1441	188	373	3459
97	0	0	1449	1440	189	374	3459
98	0	0	872	1440	189	374	3460
99	0	0	492	1440	188	374	3460
100	0	0	276	1441	186	374	3461
101	0	0	204	1447	184	372	3462
102	0	0	544	1449	184	374	3462
103	0	0	970	1449	182	373	3462
104	0	0	1430	1449	181	373	3460
105	0	0	1707	1451	180	373	3458
106	0	0	2116	1451	179	373	3458
107	0	0	2725	1451	180	375	3458
108	0	0	3168	1452	180	374	3459
109	0	0	3439	1451	180	373	3460
110	0	0	3575	1451	181	374	3461
111	0	0	3584	1446	181	373	3462
112	0	0	3446	1444	184	374	3462
113	0	0	3129	1443	184	374	3461
114	0	0	2755	1443	185	374	3460
115	0	0	2658	1441	187	374	3458
116	0	0	2205	1440	188	374	3458
117	0	0	1448	1439	189	374	3458
118	0	0	865	1439	188	373	3459
119	0	0	491	1439	188	373	3460
120	0	0	276	1440	186	373	3461
121	0	0	200	1447	185	373	3461
122	0	0	543	1448	185	374	3461
123	0	0	970	1448	184	374	3462
124	0	0	1435	1449	182	373	3460
125	0	0	1720	1450	179	373	3458
126	0	0	2128	1450	179	373	3458
127	0	0	2725	1450	179	374	3458
0	0	0	3164	1452	179	374	3459
1	0	0	3433	1451	180	374	3460
2	0	0	3571	1451	180	374	3461
3	0	0	3584	1446	182	374	3461
4	0	0	3441	1444	182	374	3461
5	0	0	3123	1443	184	374	3460
6	0	0	2750	1441	187	373	3460
7	0	0	2653	1441	186	374	3458
8	0	0	2199	1439	188	372	3458
9	0	0	1437	1439	188	373	3458
10	0	0	863	1438	189	373	3459
11	0	0	492	1440	188	373	3461
12	0	0	275	1440	187	374	3461
13	0	0	202	1446	184	374	3462
14	0	0	539	1447	183	374	3461
15	0	0	969	1448	182	374	3462
16	0	0	1432	1448	181	373	3460
17	0	0	1710	1449	180	374	3458
18	0	0	2114	1450	179	373	3458
19	0	0	2724	1450	180	374	3459
20	0	0	3169	1451	180	374	3460
21	0	0	3443	1451	179	373	3460
22	0	0	3582	1450	181	374	3461
23	0	0	3585	1445	181	374	3461
24	0	0	3445	1444	183	374	3461
25	0	0	3128	1443	184	374	3461
26	0	0	2754	1442	186	373	3460
27	0	0	2650	1441	187	373	3458
28	0	0	2212	1438	188	373	3458
29	0	0	1457	1438	189	373	3458
30	0	0	876	1438	188	375	3459
31	0	0	500	1439	188	374	3460
32	0	0	282	1439	187	374	3461
33	0	0	208	1446	186	374	3461
34	0	0	551	1447	184	374	3461
35	0	0	976	1447	182	374	3461
36	0	0	1435	1447	182	373	3460
37	0	0	1725	1449	179	374	3458
38	0	0	2128	1450	180	373	3458
39	0	0	2724	1450	180	373	3458
40	0	0	3162	1450	180	373	3460
41	0	0	3428	1450	180	373	3460
42	0	0	3569	1450	180	374	3461
43	0	0	3585	1445	181	374	3461
44	0	0	3441	1442	183	373	3462
45	0	0	3126	1442	184	373	3461
46	0	0	2755	1441	186	374	3461
47	0	0	2647	1440	187	374	3458
48	0	0	2214	1438	188	374	3458
49	0	0	1458	1437	189	374	3459
50	0	0	883	1438	189	374	3460
51	0	0	500	1438	188	373	3460
52	0	0	282	1440	186	374	3461
53	0	0	204	1445	185	374	3462
54	0	0	545	1446	184	374	3462
55	0	0	971	1446	183	373	3461
56	0	0	1436	1447	182	373	3460
57	0	0	1723	1448	180	373	3458
58	0	0	2122	1449	180	373	3458
59	0	0	2724	1450	179	373	3458
60	0	0	3166	1450	180	374	3459
61	0	0	3433	1449	180	374	3460
62	0	0	3571	1450	181	374	3462
63	0	0	3582	1444	182	374	3461
64	0	0	3432	1443	182	374	3461
65	0	0	3115	1441	185	373	3461
66	0	0	2744	1439	186	373	3460
67	0	0	2633	1440	188	374	3458
68	0	0	2214	1437	188	375	3458
69	0	0	1456	1437	189	373	3459
70	0	0	884	1437	189	374	3459
71	0	0	506	1437	189	374	3460
72	0	0	285	1438	185	374	3461
73	0	0	210	1445	186	373	3461
74	0	0	557	1446	184	373	3462
75	0	0	985	1446	182	373	3461
76	0	0	1443	1446	181	373	3460
77	0	0	1734	1447	179	374	3458
78	0	0	2123	1449	180	374	3458
79	0	0	2712	1449	179	374	3459
80	0	0	3159	1449	180	374	3459
81	0	0	3425	1449	180	374	3461
82	0	0	3553	1449	181	374	3462
83	0	0	3565	1444	183	374	3462
84	0	0	3422	1442	183	373	3462
85	0	0	3106	1441	184	374	3461
86	0	0	2744	1440	185	373	3460
87	0	0	2627	1439	187	373	3458
88	0	0	2207	1436	188	374	3458
89	0	0	1455	1436	189	374	3459
90	0	0	877	1437	189	374	3460
91	0	0	497	1437	188	372	3461
92	0	0	281	1438	186	373	3461
93	0	0	208	1444	186	373	3462
94	0	0	558	1445	185	374	3462
95	0	0	984	1445	182	374	3461
96	0	0	1436	1446	181	373	3460
97	0	0	1737	1447	179	374	3458
98	0	0	2127	1448	179	374	3458
99	0	0	2719	1448	179	374	3460
100	0	0	3168	1448	180	374	3460
101	0	0	3427	1449	180	374	3462
102	0	0	3560	1448	181	374	3463
103	0	0	3575	1444	181	374	3462
104	0	0	3416	1442	183	373	3462
105	0	0	3107	1440	185	373	3462
106	0	0	2744	1439	186	373	3461
107	0	0	2624	1438	187	373	3458
108	0	0	2209	1436	189	374	3459
109	0	0	1461	1436	189	374	3459
110	0	0	882	1436	188	374	3460
111	0	0	504	1436	188	374	3461
112	0	0	286	1437	187	374	3461
113	0	0	219	1443	185	374	3462
114	0	0	575	1445	184	374	3462
115	0	0	1000	1445	183	374	3462
116	0	0	1454	1446	182	373	3461
117	0	0	1750	1446	181	374	3459
118	0	0	2137	1448	180	374	3459
119	0	0	2729	1447	179	374	3459
120	0	0	3167	1449	179	374	3460
121	0	0	3416	1447	181	373	3461
122	0	0	3548	1448	181	373	3463
123	0	0	3568	1443	182	373	3462
124	0	0	3411	1441	183	373	3462
125	0	0	3100	1440	185	373	3462
126	0	0	2733	1439	185	373	3461
127	0	0	2613	1439	188	374	3459
0	0	0	2206	1436	188	374	3459
1	0	0	1448	1436	189	374	3459
2	0	0	870	1435	188	374	3460
3	0	0	502	1436	187	373	3461
4	0	0	285	1437	186	374	3462
5	0	0	221	1444	185	374	3462
6	0	0	584	1444	184	373	3462
7	0	0	1007	1445	182	373	3463
8	0	0	1459	1445	183	372	3461
9	0	0	1765	1446	179	374	3459
10	0	0	2137	1447	180	374	3459
11	0	0	2720	1448	180	374	3459
12	0	0	3163	1447	179	373	3460
13	0	0	3412	1447	179	372	3461
14	0	0	3547	1447	181	374	3462
15	0	0	3566	1442	182	374	3463
16	0	0	3405	1441	184	374	3463
17	0	0	3098	1440	184	374	3462
18	0	0	2743	1438	185	374	3462
19	0	0	2609	1437	188	374	3459
20	0	0	2210	1435	189	373	3459
21	0	0	1457	1435	188	374	3459
22	0	0	876	1436	189	374	3460
23	0	0	503	1436	187	373	3461
24	0	0	285	1436	187	372	3462
25	0	0	220	1443	184	374	3462
26	0	0	581	1444	184	373	3462
27	0	0	1006	1444	182	374	3462
28	0	0	1458	1445	182	373	3461
29	0	0	1760	1445	180	374	3459
30	0	0	2136	1447	180	374	3460
31	0	0	2721	1447	179	374	3460
32	0	0	3165	1447	180	374	3460
33	0	0	3429	1447	181	374	3462
34	0	0	3556	1447	181	374	3462
35	0	0	3571	1443	181	373	3463
36	0	0	3408	1440	182	374	3462
37	0	0	3102	1439	184	374	3462
38	0	0	2743	1438	185	373	3461
39	0	0	2601	1437	187	374	3460
40	0	0	2220	1435	188	374	3459
41	0	0	1461	1435	189	374	3459
42	0	0	882	1434	188	373	3460
43	0	0	511	1435	188	372	3462
44	0	0	290	1436	186	373	3462
45	0	0	220	1443	185	374	3463
46	0	0	587	1444	184	374	3464
47	0	0	1005	1444	183	374	3462
48	0	0	1460	1444	182	373	3461
49	0	0	1770	1445	180	374	3459
50	0	0	2137	1446	179	374	3460
51	0	0	2720	1447	179	373	3460
52	0	0	3166	1447	180	374	3461
53	0	0	3413	1446	180	374	3462
54	0	0	3550	1446	180	373	3462
55	0	0	3576	1444	182	373	3462
56	0	0	3410	1440	183	374	3463
57	0	0	3108	1438	184	374	3462
58	0	0	2747	1437	185	374	3462
59	0	0	2605	1437	187	373	3459
60	0	0	2222	1435	189	373	3460
61	0	0	1464	1434	189	374	3460
62	0	0	874	1434	188	374	3460
63	0	0	507	1435	188	374	3462
64	0	0	287	1435	187	374	3462
65	0	0	205	1441	185	374	3463
66	0	0	582	1443	184	374	3463
67	0	0	1001	1443	183	373	3462
68	0	0	1453	1444	180	374	3462
69	0	0	1760	1445	179	373	3460
70	0	0	2130	1446	180	373	3459
71	0	0	2720	1446	179	373	3459
72	0	0	3167	1446	179	373	3461
73	0	0	3423	1446	179	373	3462
74	0	0	3558	1446	180	374	3462
75	0	0	3579	1444	182	374	3463
76	0	0	3410	1439	184	373	3463
77	0	0	3103	1438	184	373	3462
78	0	0	2744	1436	185	374	3462
79	0	0	2599	1436	187	374	3460
80	0	0	2224	1434	189	374	3460
81	0	0	1456	1434	189	374	3461
82	0	0	865	1433	189	374	3460
83	0	0	499	1435	188	374	3463
84	0	0	283	1435	187	374	3462
85	0	0	211	1441	185	374	3464
86	0	0	583	1442	184	373	3464
87	0	0	998	1442	183	373	3463
88	0	0	1451	1444	181	373	3463
89	0	0	1770	1444	180	374	3460
90	0	0	2135	1445	179	373	3460
91	0	0	2725	1446	179	374	3460
92	0	0	3177	1446	180	373	3461
93	0	0	3424	1446	180	373	3462
94	0	0	3566	1446	181	374	3463
95	0	0	3583	1445	182	374	3463
96	0	0	3417	1439	183	374	3463
97	0	0	3112	1437	184	375	3463
98	0	0	2750	1436	186	374	3462
99	0	0	2604	1436	188	374	3460
100	0	0	2234	1434	188	374	3459
101	0	0	1477	1433	190	374	3460
102	0	0	887	1434	189	374	3462
103	0	0	513	1434	187	373	3462
104	0	0	292	1434	186	373	3464
105	0	0	204	1442	185	375	3464
106	0	0	568	1442	185	374	3463
107	0	0	985	1442	183	374	3464
108	0	0	1441	1443	181	374	3462
109	0	0	1754	1444	180	374	3460
110	0	0	2124	1444	179	373	3460
111	0	0	2722	1446	179	373	3460
112	0	0	3174	1446	179	374	3462
113	0	0	3420	1445	180	373	3462
114	0	0	3556	1445	180	374	3463
115	0	0	3580	1444	182	374	3463
116	0	0	3419	1439	183	374	3464
117	0	0	3116	1437	185	374	3463
118	0	0	2757	1436	185	374	3462
119	0	0	2617	1436	187	374	3460
120	0	0	2246	1433	188	374	3461
121	0	0	1481	1433	189	373	3461
122	0	0	886	1433	189	373	3461
123	0	0	517	1434	188	374	3463
124	0	0	296	1434	186	373	3463
125	0	0	204	1441	185	373	3463
126	0	0	568	1441	183	374	3463
127	0	0	983	1442	183	374	3463
0	0	0	1445	1443	182	374	3462
1	0	0	1765	1443	181	374	3461
2	0	0	2127	1444	179	374	3460
3	0	0	2722	1445	179	374	3460
4	0	0	3179	1445	179	374	3462
5	0	0	3430	1445	180	374	3463
6	0	0	3560	1444	179	373	3463
7	0	0	3576	1443	181	373	3464
8	0	0	3414	1438	183	374	3464
9	0	0	3112	1437	184	374	3463
10	0	0	2749	1435	185	374	3462
11	0	0	2596	1436	187	373	3460
12	0	0	2228	1433	189	373	3460
13	0	0	1478	1432	187	373	3461
14	0	0	887	1433	188	374	3462
15	0	0	521	1433	188	374	3463
16	0	0	296	1434	186	374	3463
17	0	0	197	1440	186	374	3464
18	0	0	555	1441	184	374	3464
19	0	0	971	1442	183	374	3463
20	0	0	1426	1442	181	373	3463
21	0	0	1740	1442	180	373	3461
22	0	0	2105	1443	179	373	3461
23	0	0	2711	1445	178	374	3461
24	0	0	3170	1444	179	373	3461
25	0	0	3423	1445	179	373	3463
26	0	0	3568	1444	180	374	3463
27	0	0	3594	1442	181	374	3463
28	0	0	3436	1438	181	374	3464
29	0	0	3132	1437	185	373	3464
30	0	0	2767	1435	186	374	3463
31	0	0	2618	1435	188	374	3460
32	0	0	2251	1432	188	374	3461
33	0	0	1487	1432	188	374	3462
34	0	0	892	1432	188	374	3462
35	0	0	527	1432	188	374	3463
36	0	0	298	1433	187	374	3463
37	0	0	205	1440	185	374	3464
38	0	0	561	1441	183	374	3464
39	0	0	978	1442	183	374	3464
40	0	0	1436	1441	181	373	3463
41	0	0	1751	1443	180	373	3461
42	0	0	2109	1443	179	373	3460
43	0	0	2703	1444	180	372	3461
44	0	0	3163	1444	180	373	3462
45	0	0	3419	1444	180	374	3463
46	0	0	3556	1443	181	374	3463
47	0	0	3573	1439	182	373	3464
48	0	0	3418	1437	182	375	3464
49	0	0	3117	1435	184	374	3463
50	0	0	2755	1434	186	373	3463
51	0	0	2596	1435	188	374	3462
52	0	0	2240	1432	188	374	3460
53	0	0	1485	1431	188	374	3461
54	0	0	885	1432	188	374	3462
55	0	0	520	1431	187	374	3463
56	0	0	296	1433	187	374	3463
57	0	0	198	1439	185	374	3464
58	0	0	564	1439	184	373	3464
59	0	0	985	1440	182	373	3464
60	0	0	1439	1441	181	373	3463
61	0	0	1762	1442	180	373	3461
62	0	0	2115	1443	180	374	3460
63	0	0	2709	1444	180	373	3461
64	0	0	3161	1443	180	374	3462
65	0	0	3411	1444	180	373	3464
66	0	0	3549	1443	181	374	3463
67	0	0	3575	1440	181	378	3465
68	0	0	3427	1437	183	378	3465
69	0	0	3121	1435	185	374	3464
70	0	0	2761	1434	185	374	3464
71	0	0	2606	1434	187	374	3461
72	0	0	2241	1431	188	374	3461
73	0	0	1491	1431	188	374	3461
74	0	0	899	1431	189	374	3462
75	0	0	534	1431	188	374	3463
76	0	0	302	1433	186	376	3464
77	0	0	210	1438	184	374	3465
78	0	0	568	1439	185	378	3465
79	0	0	988	1440	183	378	3464
80	0	0	1447	1440	182	374	3463
81	0	0	1767	1442	180	374	3461
82	0	0	2115	1442	179	374	3460
83	0	0	2714	1443	179	378	3461
84	0	0	3163	1443	180	377	3462
85	0	0	3411	1443	180	377	3463
86	0	0	3549	1443	181	374	3464
87	0	0	3569	1439	183	374	3464
88	0	0	3416	1436	183	374	3464
89	0	0	3113	1435	185	374	3465
90	0	0	2745	1434	185	374	3463
91	0	0	2591	1434	187	373	3461
92	0	0	2240	1431	188	374	3460
93	0	0	1486	1431	189	373	3461
94	0	0	889	1430	189	378	3462
95	0	0	525	1431	188	378	3463
96	0	0	299	1431	187	378	3463
97	0	0	210	1438	186	378	3465
98	0	0	572	1439	184	374	3464
99	0	0	995	1439	183	374	3464
100	0	0	1448	1440	181	374	3463
101	0	0	1777	1441	181	378	3462
102	0	0	2126	1442	179	373	3460
103	0	0	2713	1443	180	374	3461
104	0	0	3162	1442	179	374	3462
105	0	0	3408	1441	180	374	3463
106	0	0	3551	1442	180	374	3463
107	0	0	3571	1438	181	374	3464
108	0	0	3422	1436	183	373	3464
109	0	0	3120	1434	184	374	3464
110	0	0	2765	1433	185	374	3463
111	0	0	2607	1433	187	374	3460
112	0	0	2251	1430	188	378	3460
113	0	0	1496	1431	189	377	3461
114	0	0	905	1430	188	378	3462
115	0	0	539	1431	187	378	3463
116	0	0	304	1432	187	374	3463
117	0	0	214	1437	185	373	3464
118	0	0	568	1439	184	374	3464
119	0	0	993	1439	182	373	3464
120	0	0	1448	1440	182	373	3463
121	0	0	1774	1441	181	374	3460
122	0	0	2118	1441	179	373	3461
123	0	0	2711	1442	179	374	3461
124	0	0	3161	1442	179	374	3462
125	0	0	3404	1441	180	374	3462
126	0	0	3547	1441	181	375	3463
127	0	0	3563	1437	181	374	3464
0	0	0	3412	1435	183	373	3464
1	0	0	3104	1433	184	374	3463
2	0	0	2736	1432	186	378	3463
3	0	0	2583	1432	186	378	3460
4	0	0	2235	1429	187	377	3461
5	0	0	1490	1430	188	378	3461
6	0	0	894	1429	188	374	3462
7	0	0	530	1430	188	374	3463
8	0	0	302	1431	186	374	3463
9	0	0	215	1437	185	373	3464
10	0	0	573	1437	184	374	3463
11	0	0	999	1438	183	374	3463
12	0	0	1449	1439	182	373	3463
13	0	0	1781	1440	181	374	3461
14	0	0	2119	1441	180	378	3460
15	0	0	2703	1442	180	377	3461
16	0	0	3154	1441	180	378	3461
17	0	0	3409	1441	180	374	3462
18	0	0	3547	1441	181	374	3463
19	0	0	3555	1436	182	374	3463
20	0	0	3401	1435	182	377	3464
21	0	0	3102	1433	184	378	3463
22	0	0	2743	1432	186	374	3462
23	0	0	2575	1432	187	374	3460
24	0	0	2238	1429	188	374	3461
25	0	0	1498	1429	188	374	3461
26	0	0	910	1429	188	374	3462
27	0	0	549	1430	188	374	3463
28	0	0	312	1431	187	374	3463
29	0	0	227	1436	185	373	3464
30	0	0	575	1437	184	374	3465
31	0	0	998	1437	183	378	3464
32	0	0	1446	1438	182	378	3463
33	0	0	1765	1440	181	378	3460
34	0	0	2103	1440	180	377	3461
35	0	0	2703	1441	180	373	3460
36	0	0	3158	1441	179	374	3462
37	0	0	3403	1440	181	374	3463
38	0	0	3550	1441	181	374	3463
39	0	0	3571	1437	181	374	3463
40	0	0	3424	1434	182	374	3464
41	0	0	3124	1433	184	374	3464
42	0	0	2760	1431	186	374	3463
43	0	0	2596	1432	187	374	3462
44	0	0	2259	1429	188	374	3460
45	0	0	1507	1429	189	374	3460
46	0	0	912	1428	189	374	3462
47	0	0	547	1429	187	374	3463
48	0	0	312	1430	187	374	3463
49	0	0	229	1436	186	377	3465
50	0	0	575	1437	183	378	3464
51	0	0	994	1437	182	378	3464
52	0	0	1444	1438	181	378	3462
53	0	0	1778	1439	180	374	3460
54	0	0	2115	1440	179	374	3460
55	0	0	2698	1440	179	374	3460
56	0	0	3158	1440	180	374	3462
57	0	0	3406	1441	180	374	3463
58	0	0	3545	1440	181	374	3464
59	0	0	3555	1436	183	373	3464
60	0	0	3400	1434	182	374	3464
61	0	0	3101	1431	185	374	3464
62	0	0	2746	1431	185	378	3462
63	0	0	2571	1431	187	378	3460
64	0	0	2235	1429	188	374	3461
65	0	0	1491	1428	188	374	3461
66	0	0	900	1428	188	374	3462
67	0	0	537	1428	187	378	3463
68	0	0	306	1430	186	378	3463
69	0	0	224	1435	184	378	3464
70	0	0	573	1436	185	374	3463
71	0	0	996	1437	183	374	3464
72	0	0	1444	1437	182	374	3463
73	0	0	1774	1439	180	374	3462
74	0	0	2117	1440	180	374	3460
75	0	0	2702	1439	180	374	3461
76	0	0	3154	1440	180	374	3463
77	0	0	3389	1440	180	374	3462
78	0	0	3533	1440	180	379	3463
79	0	0	3556	1437	181	377	3464
80	0	0	3411	1433	185	378	3464
81	0	0	3111	1431	184	378	3464
82	0	0	2752	1430	185	374	3462
83	0	0	2578	1431	187	374	3460
84	0	0	2252	1428	188	374	3460
85	0	0	1504	1427	188	378	3461
86	0	0	906	1427	188	374	3462
87	0	0	542	1428	188	374	3462
88	0	0	309	1429	186	374	3463
89	0	0	217	1435	185	374	3464
90	0	0	572	1436	184	374	3465
91	0	0	992	1436	182	374	3464
92	0	0	1446	1437	181	374	3463
93	0	0	1780	1438	180	373	3460
94	0	0	2114	1439	179	374	3461
95	0	0	2700	1440	180	374	3462
96	0	0	3158	1439	180	378	3462
97	0	0	3392	1439	180	378	3462
98	0	0	3538	1439	180	378	3463
99	0	0	3561	1436	182	377	3465
100	0	0	3404	1432	184	374	3464
101	0	0	3104	1431	185	374	3464
102	0	0	2751	1430	186	374	3463
103	0	0	2575	1432	188	374	3461
104	0	0	2254	1427	188	374	3460
105	0	0	1514	1427	188	374	3461
106	0	0	919	1428	188	374	3462
107	0	0	547	1427	188	374	3462
108	0	0	312	1429	186	374	3464
109	0	0	233	1434	186	374	3464
110	0	0	590	1435	184	374	3464
111	0	0	1008	1435	182	374	3464
112	0	0	1453	1437	182	374	3463
113	0	0	1792	1437	181	374	3461
114	0	0	2123	1438	180	377	3461
115	0	0	2703	1439	179	378	3461
116	0	0	3159	1438	180	378	3462
117	0	0	3397	1440	180	378	3464
118	0	0	3538	1439	181	374	3463
119	0	0	3556	1436	181	374	3464
120	0	0	3406	1432	184	374	3464
121	0	0	3105	1431	185	374	3464
122	0	0	2748	1429	185	374	3463
123	0	0	2565	1432	187	374	3461
124	0	0	2254	1427	189	373	3461
125	0	0	1513	1427	189	374	3462
126	0	0	914	1426	189	378	3462
127	0	0	549	1426	188	378	3463
0	0	0	314	1428	187	378	3464
1	0	0	242	1434	186	374	3464
2	0	0	590	1435	183	374	3464
3	0	0	1004	1435	182	374	3464
4	0	0	1454	1436	182	378	3464
5	0	0	1794	1437	180	378	3461
6	0	0	2113	1438	179	373	3462
7	0	0	2688	1439	179	373	3462
8	0	0	3144	1438	180	374	3463
9	0	0	3375	1438	180	374	3463
10	0	0	3514	1438	182	374	3464
11	0	0	3535	1436	183	374	3464
12	0	0	3395	1432	183	374	3464
13	0	0	3098	1430	183	374	3464
14	0	0	2741	1429	185	374	3463
15	0	0	2552	1433	187	378	3462
16	0	0	2248	1427	189	379	3460
17	0	0	1510	1426	189	378	3462
18	0	0	915	1427	189	378	3463
19	0	0	549	1427	188	374	3463
20	0	0	314	1428	188	374	3464
21	0	0	231	1433	186	373	3465
22	0	0	584	1434	184	374	3465
23	0	0	1003	1435	183	374	3465
24	0	0	1453	1436	182	374	3463
25	0	0	1803	1437	179	374	3462
26	0	0	2129	1437	180	374	3461
27	0	0	2698	1437	178	374	3462
28	0	0	3155	1438	180	374	3463
29	0	0	3404	1438	181	374	3464
30	0	0	3537	1437	181	374	3464
31	0	0	3543	1434	182	373	3465
32	0	0	3391	1431	183	374	3466
33	0	0	3091	1430	184	378	3465
34	0	0	2738	1429	185	378	3463
35	0	0	2538	1432	187	378	3462
36	0	0	2246	1426	187	378	3461
37	0	0	1519	1426	189	374	3461
38	0	0	929	1426	188	374	3463
39	0	0	567	1426	188	374	3464
40	0	0	324	1427	186	374	3465
41	0	0	244	1433	186	373	3465
42	0	0	586	1433	185	374	3465
43	0	0	1000	1434	182	374	3465
44	0	0	1449	1436	182	374	3465
45	0	0	1789	1436	181	374	3462
46	0	0	2109	1437	180	373	3462
47	0	0	2690	1438	179	374	3462
48	0	0	3158	1437	179	378	3463
49	0	0	3389	1438	181	378	3464
50	0	0	3535	1438	181	378	3464
51	0	0	3555	1436	182	378	3465
52	0	0	3403	1431	183	374	3466
53	0	0	3105	1429	184	374	3465
54	0	0	2753	1428	186	374	3464
55	0	0	2553	1431	187	374	3462
56	0	0	2255	1425	188	374	3461
57	0	0	1525	1426	189	373	3462
58	0	0	924	1424	188	374	3463
59	0	0	554	1425	188	374	3464
60	0	0	317	1427	187	374	3465
61	0	0	259	1433	185	374	3465
62	0	0	608	1433	185	374	3465
63	0	0	1021	1434	182	374	3465
64	0	0	1459	1435	182	374	3465
65	0	0	1804	1436	181	374	3462
66	0	0	2122	1437	180	378	3462
67	0	0	2686	1437	181	378	3462
68	0	0	3143	1437	179	377	3463
69	0	0	3381	1437	181	377	3463
70	0	0	3522	1437	181	374	3465
71	0	0	3539	1435	182	374	3465
72	0	0	3390	1430	182	374	3465
73	0	0	3090	1429	184	374	3465
74	0	0	2738	1428	185	374	3464
75	0	0	2529	1429	188	373	3462
76	0	0	2244	1426	188	374	3462
77	0	0	1520	1424	189	374	3462
78	0	0	923	1425	188	378	3463
79	0	0	565	1425	188	378	3463
80	0	0	324	1426	186	378	3464
81	0	0	265	1432	185	374	3465
82	0	0	600	1433	184	374	3465
83	0	0	1009	1433	183	374	3465
84	0	0	1454	1434	181	378	3464
85	0	0	1800	1435	180	377	3462
86	0	0	2108	1435	179	374	3462
87	0	0	2680	1436	180	374	3462
88	0	0	3148	1436	180	374	3463
89	0	0	3382	1436	180	374	3463
90	0	0	3524	1436	180	374	3464
91	0	0	3542	1434	181	374	3465
92	0	0	3394	1429	184	374	3465
93	0	0	3099	1428	184	374	3465
94	0	0	2748	1427	185	374	3464
95	0	0	2541	1430	187	378	3462
96	0	0	2257	1424	187	378	3462
97	0	0	1537	1425	188	378	3463
98	0	0	932	1424	188	378	3463
99	0	0	563	1425	188	374	3464
100	0	0	322	1426	186	374	3465
101	0	0	256	1431	185	374	3465
102	0	0	602	1432	183	373	3465
103	0	0	1018	1434	183	374	3466
104	0	0	1456	1433	182	374	3464
105	0	0	1810	1435	180	374	3463
106	0	0	2123	1436	180	374	3462
107	0	0	2689	1436	180	374	3462
108	0	0	3153	1436	180	374	3463
109	0	0	3395	1435	180	374	3464
110	0	0	3534	1435	181	374	3465
111	0	0	3544	1434	182	374	3465
112	0	0	3395	1429	183	374	3465
113	0	0	3095	1428	184	378	3465
114	0	0	2743	1427	185	378	3464
115	0	0	2529	1428	187	378	3462
116	0	0	2252	1424	188	378	3462
117	0	0	1530	1423	189	374	3462
118	0	0	933	1424	189	374	3463
119	0	0	569	1423	189	374	3464
120	0	0	324	1425	187	374	3465
121	0	0	270	1431	185	374	3466
122	0	0	610	1432	184	374	3466
123	0	0	1019	1432	183	374	3465
124	0	0	1464	1433	182	374	3465
125	0	0	1824	1435	181	374	3462
126	0	0	2123	1434	180	378	3462
127	0	0	2681	1436	179	378	3463
0	0	0	3145	1435	180	374	3463
1	0	0	3375	1435	180	374	3464
2	0	0	3516	1435	181	374	3464
3	0	0	3529	1434	183	378	3465
4	0	0	3380	1429	183	377	3465
5	0	0	3086	1427	184	378	3465
6	0	0	2742	1426	185	374	3464
7	0	0	2532	1429	187	374	3462
8	0	0	2255	1423	188	374	3462
9	0	0	1538	1423	189	374	3462
10	0	0	931	1423	188	374	3464
11	0	0	572	1423	188	374	3464
12	0	0	328	1425	186	374	3466
13	0	0	272	1431	185	374	3465
14	0	0	608	1431	184	377	3465
15	0	0	1019	1432	183	378	3465
16	0	0	1458	1433	181	378	3464
17	0	0	1819	1433	181	378	3462
18	0	0	2128	1434	179	374	3462
19	0	0	2688	1435	180	374	3462
20	0	0	3145	1435	181	374	3463
21	0	0	3377	1435	180	378	3464
22	0	0	3514	1434	181	374	3464
23	0	0	3523	1433	182	373	3465
24	0	0	3375	1428	183	374	3466
25	0	0	3079	1427	183	374	3465
26	0	0	2729	1426	185	374	3464
27	0	0	2512	1428	187	374	3462
28	0	0	2249	1423	187	374	3462
29	0	0	1529	1422	189	374	3462
30	0	0	933	1422	189	378	3463
31	0	0	568	1423	187	378	3463
32	0	0	326	1424	186	378	3464
33	0	0	280	1430	186	374	3465
34	0	0	621	1430	184	374	3465
35	0	0	1032	1432	183	374	3466
36	0	0	1472	1432	181	378	3464
37	0	0	1830	1432	182	378	3462
38	0	0	2124	1434	180	374	3461
39	0	0	2676	1434	180	373	3462
40	0	0	3140	1434	180	374	3463
41	0	0	3371	1434	180	374	3465
42	0	0	3508	1434	181	374	3464
43	0	0	3517	1432	181	374	3466
44	0	0	3374	1428	183	374	3466
45	0	0	3084	1426	184	374	3465
46	0	0	2739	1425	185	374	3464
47	0	0	2511	1427	187	378	3462
48	0	0	2248	1422	188	378	3462
49	0	0	1537	1422	188	378	3462
50	0	0	937	1422	188	378	3463
51	0	0	580	1423	187	374	3464
52	0	0	332	1423	186	374	3465
53	0	0	272	1430	185	373	3465
54	0	0	615	1431	185	373	3465
55	0	0	1026	1430	183	374	3465
56	0	0	1467	1432	181	373	3465
57	0	0	1834	1432	180	374	3462
58	0	0	2126	1433	179	374	3462
59	0	0	2685	1434	179	374	3462
60	0	0	3144	1433	180	374	3463
61	0	0	3382	1434	180	373	3464
62	0	0	3518	1433	180	374	3464
63	0	0	3519	1431	182	374	3465
64	0	0	3369	1427	184	373	3465
65	0	0	3076	1425	185	378	3465
66	0	0	2728	1424	185	378	3464
67	0	0	2489	1428	187	378	3462
68	0	0	2242	1422	188	378	3461
69	0	0	1535	1421	188	374	3462
70	0	0	938	1422	189	374	3464
71	0	0	579	1421	187	374	3463
72	0	0	330	1423	186	374	3465
73	0	0	285	1429	186	374	3465
74	0	0	619	1430	184	373	3465
75	0	0	1029	1431	183	374	3466
76	0	0	1470	1431	182	374	3464
77	0	0	1839	1431	181	374	3462
78	0	0	2132	1432	181	378	3461
79	0	0	2680	1432	179	378	3462
80	0	0	3145	1433	180	374	3463
81	0	0	3369	1433	180	374	3463
82	0	0	3510	1433	180	374	3464
83	0	0	3516	1430	182	378	3465
84	0	0	3369	1426	184	378	3465
85	0	0	3079	1425	184	378	3465
86	0	0	2733	1424	185	374	3465
87	0	0	2480	1424	186	374	3462
88	0	0	2213	1422	188	374	3462
89	0	0	1505	1421	188	373	3462
90	0	0	904	1422	188	374	3464
91	0	0	560	1421	188	374	3463
92	0	0	322	1422	187	374	3464
93	0	0	328	1429	186	374	3465
94	0	0	676	1429	184	378	3465
95	0	0	1098	1429	182	378	3465
96	0	0	1538	1430	182	378	3464
97	0	0	1908	1432	180	378	3462
98	0	0	2200	1431	180	374	3462
99	0	0	2739	1433	180	374	3463
100	0	0	3182	1432	180	374	3463
101	0	0	3392	1433	180	378	3465
102	0	0	3502	1432	182	374	3464
103	0	0	3478	1428	181	374	3465
104	0	0	3317	1426	184	373	3465
105	0	0	3011	1424	184	374	3465
106	0	0	2657	1423	186	374	3464
107	0	0	2416	1424	186	374	3463
108	0	0	2157	1421	188	374	3461
109	0	0	1461	1420	188	374	3463
110	0	0	880	1420	187	374	3463
111	0	0	542	1421	187	374	3464
112	0	0	309	1421	185	378	3464
113	0	0	346	1428	185	378	3466
114	0	0	694	1429	184	378	3466
115	0	0	1114	1429	185	378	3466
116	0	0	1559	1430	182	374	3464
117	0	0	1933	1431	181	374	3463
118	0	0	2218	1431	181	374	3462
119	0	0	2750	1432	179	373	3462
120	0	0	3184	1432	181	374	3464
121	0	0	3384	1432	180	374	3464
122	0	0	3491	1431	181	374	3464
123	0	0	3459	1427	182	374	3465
124	0	0	3298	1425	184	374	3466
125	0	0	2994	1423	185	374	3465
126	0	0	2635	1423	185	374	3465
127	0	0	2398	1423	187	374	3462
0	0	0	2144	1421	188	374	3462
1	0	0	1446	1420	189	375	3463
2	0	0	858	1421	188	378	3464
3	0	0	530	1420	187	378	3464
4	0	0	305	1421	186	378	3465
5	0	0	348	1427	185	378	3466
6	0	0	715	1429	183	374	3466
7	0	0	1142	1428	183	374	3466
8	0	0	1584	1429	181	374	3464
9	0	0	1968	1429	180	374	3462
10	0	0	2248	1431	180	374	3462
11	0	0	2774	1431	180	375	3463
12	0	0	3203	1431	181	374	3463
13	0	0	3397	1432	180	374	3465
14	0	0	3495	1432	181	374	3465
15	0	0	3454	1426	182	374	3466
16	0	0	3283	1425	183	374	3466
17	0	0	2971	1423	184	378	3466
18	0	0	2611	1422	185	378	3464
19	0	0	2356	1423	185	378	3462
20	0	0	2111	1420	188	378	3462
21	0	0	1422	1420	189	373	3462
22	0	0	853	1420	189	375	3464
23	0	0	531	1420	187	374	3464
24	0	0	303	1420	185	374	3466
25	0	0	372	1427	185	374	3465
26	0	0	735	1427	183	374	3465
27	0	0	1169	1428	182	374	3466
28	0	0	1618	1428	181	374	3464
29	0	0	1997	1430	181	375	3463
30	0	0	2270	1431	181	378	3462
31	0	0	2789	1431	180	377	3463
32	0	0	3212	1430	181	374	3464
33	0	0	3393	1430	180	374	3464
34	0	0	3486	1431	181	375	3465
35	0	0	3439	1426	182	378	3465
36	0	0	3263	1424	185	378	3466
37	0	0	2956	1422	184	378	3466
38	0	0	2603	1422	186	374	3464
39	0	0	2348	1423	187	374	3464
40	0	0	2102	1420	189	375	3462
41	0	0	1411	1419	188	375	3463
42	0	0	840	1419	188	374	3464
43	0	0	524	1419	187	374	3464
44	0	0	302	1420	185	374	3465
45	0	0	388	1426	185	373	3467
46	0	0	755	1427	184	378	3467
47	0	0	1178	1428	182	378	3466
48	0	0	1617	1428	181	378	3464
49	0	0	1993	1428	181	378	3463
50	0	0	2269	1430	181	374	3462
51	0	0	2790	1430	180	374	3463
52	0	0	3222	1430	180	374	3464
53	0	0	3402	1430	180	378	3464
54	0	0	3489	1430	181	374	3465
55	0	0	3432	1424	182	374	3466
56	0	0	3259	1423	184	373	3466
57	0	0	2954	1422	186	374	3466
58	0	0	2597	1421	186	374	3465
59	0	0	2341	1423	186	374	3463
60	0	0	2094	1419	189	374	3463
61	0	0	1411	1419	189	374	3464
62	0	0	846	1419	187	374	3464
63	0	0	538	1419	187	374	3464
64	0	0	308	1420	185	378	3466
65	0	0	387	1426	185	379	3466
66	0	0	749	1427	184	378	3466
67	0	0	1172	1427	182	378	3466
68	0	0	1620	1428	182	374	3465
69	0	0	1995	1429	180	374	3463
70	0	0	2269	1430	181	374	3463
71	0	0	2799	1429	181	374	3463
72	0	0	3223	1430	180	374	3464
73	0	0	3411	1430	181	374	3466
74	0	0	3497	1429	182	373	3465
75	0	0	3433	1424	182	374	3466
76	0	0	3251	1423	183	374	3466
77	0	0	2950	1422	183	374	3466
78	0	0	2590	1420	185	374	3465
79	0	0	2330	1422	187	374	3464
80	0	0	2097	1419	188	376	3463
81	0	0	1415	1419	188	374	3463
82	0	0	843	1418	187	378	3464
83	0	0	534	1418	187	378	3464
84	0	0	308	1420	187	378	3466
85	0	0	402	1426	186	378	3467
86	0	0	771	1426	184	374	3467
87	0	0	1199	1426	182	374	3466
88	0	0	1642	1428	183	374	3466
89	0	0	2022	1428	181	374	3463
90	0	0	2288	1429	180	374	3463
91	0	0	2793	1429	180	373	3463
92	0	0	3217	1430	179	374	3465
93	0	0	3404	1429	181	374	3465
94	0	0	3483	1429	181	378	3466
95	0	0	3420	1424	182	378	3467
96	0	0	3235	1422	184	378	3467
97	0	0	2930	1421	184	374	3467
98	0	0	2574	1420	186	374	3465
99	0	0	2306	1422	187	374	3463
100	0	0	2086	1418	187	378	3463
101	0	0	1411	1417	188	378	3463
102	0	0	841	1417	188	374	3464
103	0	0	543	1418	187	374	3465
104	0	0	310	1419	184	375	3467
105	0	0	413	1426	185	375	3467
106	0	0	776	1426	183	374	3467
107	0	0	1205	1426	182	374	3467
108	0	0	1654	1427	182	374	3466
109	0	0	2032	1427	181	374	3463
110	0	0	2292	1428	180	374	3463
111	0	0	2815	1429	180	378	3463
112	0	0	3235	1429	180	377	3464
113	0	0	3407	1429	180	378	3464
114	0	0	3488	1428	182	378	3466
115	0	0	3430	1424	184	374	3466
116	0	0	3245	1422	184	374	3466
117	0	0	2944	1420	185	374	3466
118	0	0	2577	1419	186	374	3465
119	0	0	2308	1421	187	374	3463
120	0	0	2082	1417	188	374	3463
121	0	0	1410	1417	188	374	3464
122	0	0	842	1417	188	374	3464
123	0	0	539	1418	188	375	3465
124	0	0	311	1420	186	375	3465
125	0	0	428	1424	184	374	3466
126	0	0	799	1425	183	378	3466
127	0	0	1214	1426	182	378	3467
0	0	0	1653	1426	182	378	3465
1	0	0	2039	1427	181	378	3463
2	0	0	2300	1427	180	374	3463
3	0	0	2804	1428	181	374	3463
4	0	0	3221	1428	180	374	3464
5	0	0	3399	1427	180	378	3464
6	0	0	3479	1428	181	374	3465
7	0	0	3415	1423	182	374	3466
8	0	0	3227	1422	183	374	3467
9	0	0	2919	1420	184	374	3466
10	0	0	2556	1419	185	374	3466
11	0	0	2284	1419	187	374	3463
12	0	0	2059	1417	188	374	3463
13	0	0	1391	1416	188	374	3463
14	0	0	827	1416	187	374	3464
15	0	0	535	1417	187	374	3464
16	0	0	306	1419	186	378	3465
17	0	0	422	1424	186	378	3466
18	0	0	792	1425	184	378	3467
19	0	0	1215	1424	182	378	3466
20	0	0	1664	1425	182	374	3465
21	0	0	2039	1426	180	373	3463
22	0	0	2299	1427	180	374	3463
23	0	0	2805	1427	179	374	3463
24	0	0	3223	1427	180	374	3465
25	0	0	3393	1427	180	374	3464
26	0	0	3473	1427	181	374	3466
27	0	0	3407	1422	183	375	3466
28	0	0	3220	1421	183	374	3466
29	0	0	2918	1419	184	374	3466
30	0	0	2549	1419	185	374	3465
31	0	0	2274	1419	186	374	3463
32	0	0	2057	1416	187	374	3463
33	0	0	1398	1416	188	374	3464
34	0	0	834	1416	187	378	3464
35	0	0	535	1416	186	378	3464
36	0	0	310	1417	187	378	3465
37	0	0	420	1423	185	378	3466
38	0	0	794	1424	184	375	3467
39	0	0	1218	1425	182	374	3467
40	0	0	1662	1425	181	374	3465
41	0	0	2050	1425	181	373	3463
42	0	0	2307	1426	180	374	3462
43	0	0	2812	1427	179	374	3463
44	0	0	3226	1427	180	373	3464
45	0	0	3392	1427	180	374	3464
46	0	0	3470	1427	181	378	3465
47	0	0	3406	1422	183	378	3466
48	0	0	3219	1420	183	378	3467
49	0	0	2916	1418	184	374	3466
50	0	0	2556	1419	186	374	3466
51	0	0	2281	1420	187	374	3463
52	0	0	2064	1415	187	378	3462
53	0	0	1398	1415	188	379	3463
54	0	0	835	1415	188	374	3464
55	0	0	536	1415	187	374	3464
56	0	0	309	1418	187	374	3465
57	0	0	431	1423	185	374	3466
58	0	0	804	1424	183	375	3466
59	0	0	1235	1424	183	374	3467
60	0	0	1680	1425	182	374	3464
61	0	0	2073	1425	181	374	3463
62	0	0	2325	1426	180	374	3463
63	0	0	2817	1426	180	378	3463
64	0	0	3227	1426	180	378	3464
65	0	0	3399	1426	179	378	3464
66	0	0	3476	1426	181	378	3465
67	0	0	3414	1421	182	374	3466
68	0	0	3234	1420	183	375	3466
69	0	0	2931	1418	185	374	3466
70	0	0	2557	1418	185	374	3465
71	0	0	2277	1418	188	374	3463
72	0	0	2069	1415	188	374	3462
73	0	0	1397	1414	188	374	3463
74	0	0	820	1415	187	374	3464
75	0	0	533	1415	188	374	3464
76	0	0	309	1416	186	374	3466
77	0	0	417	1422	185	375	3466
78	0	0	789	1423	184	375	3466
79	0	0	1213	1424	182	374	3467
80	0	0	1657	1424	181	374	3465
81	0	0	2051	1425	181	378	3464
82	0	0	2302	1426	179	378	3462
83	0	0	2802	1426	181	379	3463
84	0	0	3223	1426	179	377	3464
85	0	0	3392	1425	180	374	3464
86	0	0	3466	1425	182	374	3465
87	0	0	3393	1420	184	374	3466
88	0	0	3212	1419	183	375	3466
89	0	0	2913	1417	183	374	3466
90	0	0	2548	1417	185	374	3464
91	0	0	2275	1417	186	374	3463
92	0	0	2064	1414	188	375	3462
93	0	0	1402	1414	187	375	3463
94	0	0	843	1414	188	378	3464
95	0	0	553	1414	187	378	3464
96	0	0	320	1417	186	374	3466
97	0	0	434	1422	185	374	3467
98	0	0	800	1423	184	375	3466
99	0	0	1229	1423	183	378	3467
100	0	0	1674	1423	181	378	3465
101	0	0	2062	1424	181	378	3463
102	0	0	2312	1424	180	373	3463
103	0	0	2810	1425	180	373	3463
104	0	0	3220	1425	179	374	3464
105	0	0	3397	1425	180	374	3464
106	0	0	3467	1425	181	374	3465
107	0	0	3392	1420	183	374	3466
108	0	0	3203	1419	183	374	3466
109	0	0	2904	1417	184	374	3466
110	0	0	2534	1417	185	374	3465
111	0	0	2249	1417	186	374	3464
112	0	0	2053	1415	189	374	3463
113	0	0	1399	1414	188	374	3463
114	0	0	835	1414	188	378	3464
115	0	0	548	1414	187	378	3464
116	0	0	333	1416	185	379	3466
117	0	0	454	1421	185	379	3466
118	0	0	828	1422	184	374	3467
119	0	0	1246	1422	181	374	3467
120	0	0	1690	1424	182	374	3466
121	0	0	2084	1425	181	374	3463
122	0	0	2329	1424	180	374	3462
123	0	0	2818	1425	179	374	3463
124	0	0	3233	1424	180	374	3464
125	0	0	3398	1425	180	374	3464
126	0	0	3471	1424	181	378	3465
127	0	0	3399	1420	183	378	3466
0	0	0	3214	1418	183	378	3466
1	0	0	2911	1417	184	374	3466
2	0	0	2545	1415	185	374	3465
3	0	0	2259	1417	187	374	3463
4	0	0	2055	1414	187	378	3463
5	0	0	1399	1413	187	379	3463
6	0	0	841	1414	188	374	3465
7	0	0	559	1413	187	374	3464
8	0	0	337	1416	186	374	3466
9	0	0	455	1421	185	375	3466
10	0	0	823	1421	184	374	3467
11	0	0	1248	1421	181	374	3466
12	0	0	1687	1422	181	374	3465
13	0	0	2077	1423	180	374	3463
14	0	0	2316	1424	181	374	3463
15	0	0	2809	1424	180	378	3463
16	0	0	3224	1424	180	378	3464
17	0	0	3388	1424	181	378	3465
18	0	0	3456	1423	181	378	3465
19	0	0	3380	1419	182	374	3466
20	0	0	3190	1417	183	374	3467
21	0	0	2892	1416	184	374	3466
22	0	0	2527	1415	185	374	3466
23	0	0	2239	1417	186	374	3463
24	0	0	2038	1412	188	374	3463
25	0	0	1386	1413	188	374	3463
26	0	0	820	1412	187	374	3464
27	0	0	540	1414	187	374	3465
28	0	0	328	1415	186	374	3465
29	0	0	458	1420	185	374	3466
30	0	0	837	1421	184	374	3467
31	0	0	1260	1422	183	374	3467
32	0	0	1702	1422	182	374	3465
33	0	0	2093	1423	179	378	3465
34	0	0	2337	1423	181	379	3463
35	0	0	2814	1423	181	378	3463
36	0	0	3224	1423	180	378	3464
37	0	0	3385	1423	181	374	3464
38	0	0	3447	1423	181	373	3465
39	0	0	3368	1418	182	374	3467
40	0	0	3175	1417	183	374	3467
41	0	0	2874	1416	185	374	3467
42	0	0	2509	1414	184	374	3465
43	0	0	2219	1415	186	374	3463
44	0	0	2022	1412	187	374	3463
45	0	0	1372	1412	188	375	3464
46	0	0	813	1412	187	378	3464
47	0	0	529	1412	187	378	3464
48	0	0	315	1415	186	374	3465
49	0	0	444	1419	185	374	3467
50	0	0	830	1421	185	374	3467
51	0	0	1269	1421	182	378	3467
52	0	0	1720	1421	183	378	3465
53	0	0	2118	1422	181	378	3464
54	0	0	2358	1424	180	373	3463
55	0	0	2841	1423	180	374	3463
56	0	0	3247	1423	180	374	3465
57	0	0	3404	1423	181	374	3465
58	0	0	3470	1422	181	374	3465
59	0	0	3389	1416	182	374	3467
60	0	0	3195	1416	182	374	3467
61	0	0	2889	1415	184	374	3467
62	0	0	2517	1414	185	378	3465
63	0	0	2224	1414	187	378	3464
64	0	0	2026	1412	188	378	3463
65	0	0	1386	1412	188	379	3463
66	0	0	826	1411	187	374	3464
67	0	0	545	1412	188	374	3465
68	0	0	341	1415	186	374	3465
69	0	0	472	1419	184	378	3466
70	0	0	847	1419	184	374	3466
71	0	0	1272	1421	183	374	3467
72	0	0	1715	1421	182	374	3465
73	0	0	2108	1421	180	374	3464
74	0	0	2352	1421	180	374	3463
75	0	0	2827	1422	180	374	3464
76	0	0	3242	1422	180	374	3464
77	0	0	3402	1422	180	374	3465
78	0	0	3465	1422	182	374	3466
79	0	0	3380	1418	183	374	3467
80	0	0	3187	1416	183	379	3466
81	0	0	2884	1414	185	378	3467
82	0	0	2517	1414	186	378	3465
83	0	0	2222	1414	186	379	3464
84	0	0	2019	1411	187	374	3463
85	0	0	1374	1411	188	374	3464
86	0	0	819	1411	188	374	3464
87	0	0	533	1412	187	374	3464
88	0	0	330	1413	185	374	3465
89	0	0	466	1419	185	374	3467
90	0	0	846	1419	184	374	3467
91	0	0	1277	1420	182	374	3467
92	0	0	1722	1420	181	374	3465
93	0	0	2115	1421	180	374	3465
94	0	0	2360	1421	180	374	3464
95	0	0	2836	1422	181	373	3463
96	0	0	3242	1421	181	378	3464
97	0	0	3401	1422	181	374	3464
98	0	0	3462	1421	181	374	3466
99	0	0	3372	1417	183	374	3466
100	0	0	3175	1415	184	379	3467
101	0	0	2871	1414	185	378	3467
102	0	0	2511	1414	185	374	3465
103	0	0	2214	1413	186	374	3463
104	0	0	2021	1412	188	374	3463
105	0	0	1383	1410	188	374	3464
106	0	0	828	1410	187	375	3464
107	0	0	550	1411	187	374	3464
108	0	0	345	1413	185	374	3467
109	0	0	469	1418	185	374	3468
110	0	0	840	1419	184	374	3468
111	0	0	1273	1419	183	378	3467
112	0	0	1713	1421	182	378	3466
113	0	0	2100	1420	181	378	3464
114	0	0	2340	1421	180	378	3463
115	0	0	2821	1421	180	374	3463
116	0	0	3233	1421	180	374	3464
117	0	0	3392	1421	181	374	3465
118	0	0	3448	1420	181	374	3465
119	0	0	3353	1416	182	374	3466
120	0	0	3165	1415	183	374	3466
121	0	0	2863	1413	184	374	3467
122	0	0	2498	1412	185	374	3465
123	0	0	2205	1412	187	374	3464
124	0	0	2019	1410	187	375	3463
125	0	0	1375	1410	188	374	3463
126	0	0	823	1410	188	374	3464
127	0	0	555	1411	187	375	3466
0	0	0	357	1413	186	374	3466
1	0	0	489	1418	185	378	3467
2	0	0	867	1418	184	378	3468
3	0	0	1292	1418	184	378	3466
4	0	0	1731	1419	181	378	3465
5	0	0	2132	1419	180	373	3465
6	0	0	2366	1421	180	375	3464
7	0	0	2828	1420	180	374	3463
8	0	0	3233	1421	180	374	3464
9	0	0	3389	1420	180	374	3464
10	0	0	3441	1420	181	374	3465
11	0	0	3353	1416	183	374	3467
12	0	0	3159	1414	183	374	3467
13	0	0	2854	1413	185	375	3467
14	0	0	2494	1412	185	378	3465
15	0	0	2191	1412	186	378	3464
16	0	0	2010	1409	187	375	3463
17	0	0	1384	1410	188	374	3463
18	0	0	828	1410	188	374	3465
19	0	0	551	1410	187	378	3465
20	0	0	350	1412	185	378	3467
21	0	0	473	1417	185	378	3467
22	0	0	854	1417	184	374	3466
23	0	0	1291	1418	182	375	3467
24	0	0	1737	1419	181	374	3467
25	0	0	2138	1420	181	374	3464
26	0	0	2372	1420	181	374	3463
27	0	0	2831	1420	181	374	3463
28	0	0	3231	1420	180	374	3464
29	0	0	3386	1420	181	374	3465
30	0	0	3443	1419	181	378	3465
31	0	0	3355	1414	182	378	3466
32	0	0	3161	1413	184	378	3467
33	0	0	2864	1412	184	378	3467
34	0	0	2492	1411	185	374	3465
35	0	0	2188	1412	186	374	3463
36	0	0	2004	1409	189	374	3463
37	0	0	1379	1409	188	379	3463
38	0	0	824	1409	188	374	3464
39	0	0	552	1409	187	374	3466
40	0	0	355	1412	185	374	3465
41	0	0	483	1417	186	375	3466
42	0	0	864	1417	183	374	3467
43	0	0	1292	1417	183	375	3467
44	0	0	1739	1418	181	374	3465
45	0	0	2141	1419	181	374	3464
46	0	0	2371	1419	180	374	3463
47	0	0	2821	1420	180	375	3463
48	0	0	3227	1420	181	378	3464
49	0	0	3378	1419	180	378	3464
50	0	0	3435	1419	181	378	3465
51	0	0	3347	1414	182	379	3466
52	0	0	3148	1413	183	375	3466
53	0	0	2843	1411	184	374	3467
54	0	0	2479	1411	185	374	3465
55	0	0	2173	1411	186	374	3463
56	0	0	1994	1409	188	374	3463
57	0	0	1366	1408	188	374	3464
58	0	0	816	1408	188	375	3464
59	0	0	545	1409	187	375	3466
60	0	0	353	1412	187	375	3466
61	0	0	487	1416	185	374	3466
62	0	0	870	1416	184	374	3467
63	0	0	1297	1417	182	374	3466
64	0	0	1737	1418	182	374	3466
65	0	0	2139	1418	181	374	3464
66	0	0	2377	1419	181	378	3463
67	0	0	2833	1419	180	378	3463
68	0	0	3236	1419	181	379	3464
69	0	0	3385	1419	181	378	3464
70	0	0	3439	1418	181	374	3465
71	0	0	3339	1413	182	374	3466
72	0	0	3146	1412	183	374	3466
73	0	0	2845	1411	184	374	3467
74	0	0	2484	1410	185	374	3465
75	0	0	2186	1410	186	374	3464
76	0	0	2006	1409	188	374	3463
77	0	0	1378	1407	188	374	3463
78	0	0	830	1408	188	379	3464
79	0	0	557	1408	187	378	3464
80	0	0	361	1410	185	378	3465
81	0	0	496	1415	185	374	3466
82	0	0	879	1416	183	374	3466
83	0	0	1309	1416	184	374	3467
84	0	0	1750	1417	182	374	3466
85	0	0	2154	1418	182	374	3463
86	0	0	2376	1418	180	374	3463
87	0	0	2834	1419	180	374	3463
88	0	0	3236	1419	180	374	3464
89	0	0	3386	1418	181	374	3464
90	0	0	3434	1417	181	373	3466
91	0	0	3330	1413	182	374	3466
92	0	0	3129	1412	183	375	3466
93	0	0	2832	1410	184	375	3467
94	0	0	2470	1410	185	374	3465
95	0	0	2161	1410	187	374	3463
96	0	0	1987	1408	187	374	3463
97	0	0	1370	1407	188	374	3463
98	0	0	816	1407	187	373	3464
99	0	0	554	1408	186	374	3464
100	0	0	370	1410	185	374	3465
101	0	0	502	1416	185	374	3466
102	0	0	888	1416	183	374	3467
103	0	0	1314	1416	182	375	3467
104	0	0	1749	1416	182	375	3466
105	0	0	2160	1417	182	374	3463
106	0	0	2390	1417	181	374	3463
107	0	0	2844	1419	181	374	3464
108	0	0	3244	1418	181	374	3464
109	0	0	3395	1417	181	374	3464
110	0	0	3440	1416	182	373	3465
111	0	0	3335	1413	182	373	3466
112	0	0	3137	1411	183	374	3467
113	0	0	2839	1410	184	375	3466
114	0	0	2481	1409	185	374	3465
115	0	0	2165	1410	187	374	3463
116	0	0	1990	1407	188	374	3462
117	0	0	1378	1407	188	373	3463
118	0	0	829	1407	188	374	3464
119	0	0	564	1407	187	373	3464
120	0	0	374	1409	186	375	3465
121	0	0	495	1414	185	375	3466
122	0	0	869	1415	183	374	3467
123	0	0	1297	1415	183	374	3466
124	0	0	1736	1416	181	374	3465
125	0	0	2132	1416	181	373	3463
126	0	0	2365	1417	180	375	3462
127	0	0	2826	1417	180	374	3462
0	0	0	3235	1418	180	374	3464
1	0	0	3388	1417	181	373	3464
2	0	0	3446	1417	181	373	3466
3	0	0	3352	1413	182	375	3466
4	0	0	3164	1411	183	374	3467
5	0	0	2870	1410	185	374	3467
6	0	0	2503	1409	186	374	3465
7	0	0	2195	1409	187	374	3463
8	0	0	2019	1408	187	374	3462
9	0	0	1398	1406	188	374	3463
10	0	0	834	1407	187	374	3464
11	0	0	560	1407	186	374	3464
12	0	0	368	1409	186	374	3465
13	0	0	493	1414	184	375	3466
14	0	0	872	1414	184	374	3467
15	0	0	1298	1415	182	374	3466
16	0	0	1734	1416	181	374	3466
17	0	0	2145	1417	181	374	3463
18	0	0	2365	1416	180	373	3462
19	0	0	2804	1417	180	373	3463
20	0	0	3209	1417	180	373	3464
21	0	0	3366	1417	181	374	3464
22	0	0	3421	1416	182	374	3466
23	0	0	3325	1412	182	374	3466
24	0	0	3127	1410	183	374	3466
25	0	0	2835	1408	184	374	3466
26	0	0	2480	1409	185	374	3465
27	0	0	2168	1409	187	374	3463
28	0	0	2010	1407	187	374	3462
29	0	0	1406	1406	187	374	3463
30	0	0	850	1406	187	373	3464
31	0	0	585	1407	187	373	3465
32	0	0	391	1409	186	375	3465
33	0	0	511	1414	185	374	3466
34	0	0	886	1414	184	374	3467
35	0	0	1314	1414	183	374	3467
36	0	0	1746	1414	182	373	3465
37	0	0	2140	1416	181	373	3464
38	0	0	2360	1416	180	374	3463
39	0	0	2809	1417	180	374	3463
40	0	0	3212	1417	181	374	3464
41	0	0	3364	1417	181	375	3465
42	0	0	3416	1416	181	374	3465
43	0	0	3319	1412	182	374	3466
44	0	0	3126	1409	183	374	3467
45	0	0	2835	1408	185	374	3466
46	0	0	2468	1408	185	374	3465
47	0	0	2152	1408	186	374	3464
48	0	0	1995	1406	188	373	3463
49	0	0	1391	1405	188	373	3463
50	0	0	837	1405	188	374	3464
51	0	0	575	1406	187	374	3464
52	0	0	388	1408	187	374	3465
53	0	0	517	1413	185	374	3466
54	0	0	898	1413	184	374	3467
55	0	0	1324	1413	182	373	3466
56	0	0	1758	1414	182	374	3466
57	0	0	2166	1417	182	374	3464
58	0	0	2378	1416	180	374	3463
59	0	0	2822	1417	180	374	3464
60	0	0	3228	1416	180	374	3464
61	0	0	3370	1416	181	374	3464
62	0	0	3412	1415	181	374	3465
63	0	0	3311	1411	182	374	3466
64	0	0	3110	1408	184	374	3467
65	0	0	2817	1408	184	373	3466
66	0	0	2455	1408	186	374	3465
67	0	0	2141	1408	187	374	3463
68	0	0	1978	1404	187	374	3463
69	0	0	1370	1404	188	374	3462
70	0	0	819	1405	187	373	3463
71	0	0	557	1405	186	374	3464
72	0	0	374	1407	186	374	3464
73	0	0	507	1412	184	374	3466
74	0	0	892	1413	184	374	3466
75	0	0	1325	1413	182	374	3467
76	0	0	1761	1414	181	374	3465
77	0	0	2165	1415	181	375	3464
78	0	0	2386	1415	181	374	3463
79	0	0	2830	1415	180	374	3462
80	0	0	3234	1415	180	374	3463
81	0	0	3378	1415	181	374	3463
82	0	0	3430	1415	182	373	3464
83	0	0	3327	1411	182	373	3465
84	0	0	3134	1409	184	374	3466
85	0	0	2840	1407	184	372	3466
86	0	0	2476	1407	185	374	3466
87	0	0	2158	1407	187	374	3463
88	0	0	1995	1405	187	374	3462
89	0	0	1382	1404	187	374	3462
90	0	0	835	1405	187	374	3464
91	0	0	571	1405	187	374	3463
92	0	0	383	1407	186	374	3465
93	0	0	504	1412	185	375	3465
94	0	0	888	1413	184	374	3465
95	0	0	1321	1414	183	373	3466
96	0	0	1758	1414	181	373	3464
97	0	0	2168	1414	181	374	3464
98	0	0	2388	1415	181	374	3462
99	0	0	2826	1415	180	374	3462
100	0	0	3230	1414	180	373	3463
101	0	0	3381	1415	181	373	3463
102	0	0	3430	1414	182	374	3464
103	0	0	3313	1410	183	374	3465
104	0	0	3110	1408	183	375	3465
105	0	0	2816	1407	185	373	3466
106	0	0	2456	1406	185	374	3464
107	0	0	2128	1407	187	374	3462
108	0	0	1978	1404	188	374	3462
109	0	0	1390	1404	188	374	3462
110	0	0	844	1403	187	374	3463
111	0	0	579	1405	187	373	3464
112	0	0	393	1407	187	373	3464
113	0	0	506	1411	186	373	3465
114	0	0	892	1412	184	373	3465
115	0	0	1330	1413	182	374	3466
116	0	0	1767	1413	182	374	3464
117	0	0	2187	1413	182	374	3463
118	0	0	2406	1414	179	374	3462
119	0	0	2830	1414	181	374	3462
120	0	0	3229	1415	181	374	3463
121	0	0	3379	1414	180	374	3463
122	0	0	3422	1413	181	374	3464
123	0	0	3313	1409	182	375	3465
124	0	0	3115	1407	184	374	3465
125	0	0	2814	1406	184	373	3465
126	0	0	2451	1406	185	374	3464
127	0	0	2123	1405	186	374	3462
0	0	0	1974	1404	188	374	3462
1	0	0	1383	1403	187	373	3463
2	0	0	833	1403	187	372	3463
3	0	0	578	1405	187	373	3464
4	0	0	396	1406	185	373	3464
5	0	0	521	1411	185	374	3465
6	0	0	901	1411	184	374	3466
7	0	0	1326	1412	182	375	3465
8	0	0	1769	1414	182	374	3465
9	0	0	2178	1413	182	373	3462
10	0	0	2389	1414	181	374	3461
11	0	0	2819	1414	180	374	3462
12	0	0	3223	1414	180	374	3462
13	0	0	3370	1414	180	374	3463
14	0	0	3423	1413	181	373	3465
15	0	0	3325	1409	182	373	3465
16	0	0	3135	1407	184	374	3466
17	0	0	2845	1406	184	374	3465
18	0	0	2478	1406	184	374	3464
19	0	0	2152	1406	186	373	3462
20	0	0	2002	1403	188	373	3461
21	0	0	1402	1403	187	373	3462
22	0	0	842	1403	187	374	3463
23	0	0	575	1404	186	374	3463
24	0	0	391	1405	185	374	3464
25	0	0	511	1411	183	375	3465
26	0	0	892	1410	184	374	3465
27	0	0	1322	1411	182	374	3465
28	0	0	1764	1412	181	374	3465
29	0	0	2179	1412	183	374	3462
30	0	0	2399	1414	181	374	3462
31	0	0	2827	1414	180	373	3462
32	0	0	3225	1413	180	373	3463
33	0	0	3375	1414	181	373	3463
34	0	0	3417	1412	181	374	3464
35	0	0	3309	1408	183	374	3465
36	0	0	3116	1406	183	374	3465
37	0	0	2820	1405	185	373	3465
38	0	0	2460	1405	185	373	3464
39	0	0	2138	1405	186	373	3462
40	0	0	1985	1403	187	374	3461
41	0	0	1390	1402	187	374	3462
42	0	0	837	1403	187	374	3463
43	0	0	575	1403	187	374	3463
44	0	0	388	1405	186	374	3465
45	0	0	514	1410	184	374	3464
46	0	0	886	1410	183	374	3465
47	0	0	1316	1411	183	373	3465
48	0	0	1761	1411	182	373	3464
49	0	0	2168	1412	181	374	3462
50	0	0	2395	1413	181	374	3461
51	0	0	2820	1414	180	374	3461
52	0	0	3231	1412	180	374	3462
53	0	0	3385	1413	181	373	3464
54	0	0	3432	1413	181	374	3464
55	0	0	3328	1408	182	374	3465
56	0	0	3136	1406	184	374	3465
57	0	0	2844	1406	184	374	3466
58	0	0	2474	1404	184	374	3464
59	0	0	2142	1404	186	373	3463
60	0	0	1990	1403	187	374	3461
61	0	0	1406	1401	188	373	3462
62	0	0	845	1402	187	373	3463
63	0	0	570	1402	186	373	3463
64	0	0	385	1405	186	373	3464
65	0	0	510	1409	185	374	3465
66	0	0	885	1411	183	374	3465
67	0	0	1316	1411	183	373	3465
68	0	0	1759	1410	182	374	3465
69	0	0	2168	1412	180	374	3462
70	0	0	2392	1413	179	374	3462
71	0	0	2820	1413	180	374	3463
72	0	0	3224	1412	180	374	3463
73	0	0	3373	1412	181	374	3463
74	0	0	3418	1412	180	375	3464
75	0	0	3320	1407	183	374	3465
76	0	0	3129	1406	183	374	3465
77	0	0	2835	1405	184	373	3465
78	0	0	2472	1404	185	374	3464
79	0	0	2146	1404	186	374	3463
80	0	0	1996	1402	187	374	3462
81	0	0	1400	1401	188	373	3462
82	0	0	847	1402	188	373	3463
83	0	0	583	1402	187	373	3463
84	0	0	405	1403	186	373	3464
85	0	0	522	1409	184	375	3465
86	0	0	893	1409	184	375	3466
87	0	0	1317	1410	182	374	3465
88	0	0	1758	1410	181	374	3464
89	0	0	2169	1411	181	374	3463
90	0	0	2384	1412	180	374	3461
91	0	0	2805	1412	180	374	3462
92	0	0	3219	1412	181	373	3463
93	0	0	3368	1411	180	374	3464
94	0	0	3415	1412	182	373	3464
95	0	0	3310	1407	182	373	3465
96	0	0	3122	1406	184	374	3466
97	0	0	2838	1404	184	373	3465
98	0	0	2473	1403	185	374	3464
99	0	0	2144	1403	186	374	3462
100	0	0	1996	1403	187	373	3461
101	0	0	1412	1400	188	373	3461
102	0	0	853	1401	187	373	3463
103	0	0	577	1401	186	374	3463
104	0	0	394	1404	185	374	3465
105	0	0	509	1408	185	375	3466
106	0	0	888	1409	184	374	3465
107	0	0	1322	1409	184	374	3466
108	0	0	1763	1410	182	374	3464
109	0	0	2175	1411	181	374	3463
110	0	0	2389	1411	180	374	3462
111	0	0	2806	1411	179	374	3462
112	0	0	3211	1411	180	373	3463
113	0	0	3368	1411	181	373	3463
114	0	0	3415	1411	181	374	3464
115	0	0	3299	1407	182	374	3465
116	0	0	3112	1404	183	374	3465
117	0	0	2820	1403	184	373	3465
118	0	0	2461	1403	185	374	3465
119	0	0	2132	1403	188	373	3463
120	0	0	1981	1401	188	374	3462
121	0	0	1405	1401	188	374	3463
122	0	0	855	1400	187	374	3463
123	0	0	588	1401	187	374	3463
124	0	0	408	1402	185	375	3464
125	0	0	519	1408	185	374	3465
126	0	0	882	1407	184	374	3465
127	0	0	1308	1408	182	374	3465
0	0	0	1752	1409	182	374	3464
1	0	0	2164	1410	181	373	3464
2	0	0	2383	1411	180	373	3462
3	0	0	2798	1411	181	374	3462
4	0	0	3210	1410	180	374	3463
5	0	0	3364	1411	180	374	3464
6	0	0	3409	1411	183	374	3464
7	0	0	3305	1406	182	374	3465
8	0	0	3118	1403	183	373	3465
9	0	0	2835	1403	184	373	3465
10	0	0	2473	1402	185	374	3464
11	0	0	2148	1402	186	374	3464
12	0	0	1999	1401	188	374	3462
13	0	0	1431	1399	188	374	3462
14	0	0	866	1400	187	374	3463
15	0	0	595	1401	187	374	3463
16	0	0	412	1401	186	374	3464
17	0	0	511	1407	184	374	3465
18	0	0	880	1408	184	374	3466
19	0	0	1308	1408	182	373	3465
20	0	0	1745	1409	182	374	3465
21	0	0	2156	1410	181	374	3463
22	0	0	2377	1410	181	375	3462
23	0	0	2796	1410	181	374	3462
24	0	0	3203	1410	180	375	3463
25	0	0	3362	1410	180	374	3463
26	0	0	3413	1410	182	374	3465
27	0	0	3312	1406	183	374	3466
28	0	0	3120	1404	184	374	3466
29	0	0	2827	1402	184	374	3465
30	0	0	2470	1402	186	373	3465
31	0	0	2130	1402	186	373	3463
32	0	0	1995	1400	188	374	3461
33	0	0	1419	1399	187	374	3462
34	0	0	863	1399	188	374	3463
35	0	0	593	1400	188	374	3463
36	0	0	413	1401	186	373	3465
37	0	0	528	1407	185	373	3465
38	0	0	893	1408	184	374	3465
39	0	0	1318	1408	183	375	3465
40	0	0	1759	1408	182	374	3464
41	0	0	2168	1408	181	374	3463
42	0	0	2385	1410	179	374	3462
43	0	0	2799	1410	180	374	3463
44	0	0	3211	1409	180	374	3463
45	0	0	3369	1409	181	374	3464
46	0	0	3417	1410	181	373	3464
47	0	0	3310	1404	182	374	3465
48	0	0	3119	1403	185	374	3465
49	0	0	2831	1402	185	374	3465
50	0	0	2470	1400	185	374	3464
51	0	0	2135	1401	187	373	3463
52	0	0	1987	1399	186	373	3462
53	0	0	1425	1398	188	373	3462
54	0	0	870	1399	187	374	3463
55	0	0	594	1400	186	374	3463
56	0	0	413	1400	185	374	3464
57	0	0	522	1406	184	374	3465
58	0	0	889	1407	184	374	3466
59	0	0	1314	1406	182	373	3465
60	0	0	1744	1408	181	374	3464
61	0	0	2154	1407	181	374	3463
62	0	0	2382	1409	181	374	3462
63	0	0	2792	1410	180	374	3462
64	0	0	3199	1409	180	374	3463
65	0	0	3355	1409	181	373	3463
66	0	0	3400	1409	181	374	3464
67	0	0	3292	1404	181	374	3465
68	0	0	3109	1402	183	374	3465
69	0	0	2820	1401	184	373	3465
70	0	0	2458	1400	185	374	3464
71	0	0	2126	1401	186	374	3463
72	0	0	1989	1399	188	374	3463
73	0	0	1430	1398	188	374	3462
74	0	0	870	1398	188	374	3463
75	0	0	590	1399	186	374	3463
76	0	0	410	1399	186	374	3465
77	0	0	522	1405	185	373	3466
78	0	0	894	1406	183	374	3465
79	0	0	1323	1406	182	374	3466
80	0	0	1765	1407	182	373	3464
81	0	0	2178	1407	181	373	3463
82	0	0	2394	1408	180	374	3462
83	0	0	2794	1408	180	374	3462
84	0	0	3203	1409	181	374	3463
85	0	0	3360	1408	181	374	3463
86	0	0	3404	1408	181	374	3464
87	0	0	3303	1404	182	374	3465
88	0	0	3116	1402	183	374	3465
89	0	0	2829	1401	184	373	3465
90	0	0	2468	1401	184	374	3464
91	0	0	2125	1401	186	374	3463
92	0	0	1991	1398	186	375	3462
93	0	0	1432	1397	188	374	3462
94	0	0	865	1397	187	374	3463
95	0	0	597	1398	187	374	3463
96	0	0	423	1400	186	374	3464
97	0	0	528	1405	184	374	3465
98	0	0	896	1405	184	373	3465
99	0	0	1315	1406	182	373	3465
100	0	0	1750	1406	184	373	3464
101	0	0	2164	1407	180	373	3463
102	0	0	2382	1408	179	374	3462
103	0	0	2791	1408	180	374	3463
104	0	0	3195	1407	180	374	3463
105	0	0	3357	1408	180	374	3463
106	0	0	3405	1407	181	373	3464
107	0	0	3301	1403	183	373	3465
108	0	0	3119	1401	184	373	3466
109	0	0	2835	1400	183	374	3465
110	0	0	2469	1399	185	373	3464
111	0	0	2136	1399	186	373	3463
112	0	0	1995	1399	188	373	3462
113	0	0	1439	1396	188	374	3462
114	0	0	881	1396	187	374	3463
115	0	0	609	1398	188	374	3463
116	0	0	431	1399	185	373	3464
117	0	0	533	1404	185	372	3465
118	0	0	889	1404	184	374	3466
119	0	0	1310	1405	183	374	3466
120	0	0	1752	1406	182	374	3466
121	0	0	2162	1406	182	374	3463
122	0	0	2384	1407	180	374	3462
123	0	0	2786	1407	180	373	3462
124	0	0	3190	1407	180	373	3463
125	0	0	3356	1407	181	373	3463
126	0	0	3403	1407	182	373	3464
127	0	0	3293	1403	182	372	3465
0	0	0	3112	1401	184	373	3466
1	0	0	2831	1400	184	373	3466
2	0	0	2470	1398	185	373	3464
3	0	0	2137	1398	186	374	3463
4	0	0	1989	1398	188	374	3462
5	0	0	1440	1397	186	374	3463
6	0	0	871	1396	187	374	3463
7	0	0	594	1398	186	374	3464
8	0	0	425	1399	187	374	3464
9	0	0	529	1404	185	374	3465
10	0	0	891	1404	183	374	3466
11	0	0	1315	1405	183	374	3466
12	0	0	1748	1405	181	374	3464
13	0	0	2157	1406	181	374	3464
14	0	0	2378	1407	180	374	3463
15	0	0	2780	1407	181	374	3462
16	0	0	3197	1408	181	374	3463
17	0	0	3365	1406	181	373	3463
18	0	0	3411	1407	182	373	3465
19	0	0	3309	1403	183	373	3466
20	0	0	3122	1400	182	373	3466
21	0	0	2832	1399	184	374	3465
22	0	0	2469	1398	185	374	3464
23	0	0	2125	1399	186	374	3463
24	0	0	1983	1397	186	378	3462
25	0	0	1432	1395	188	374	3462
26	0	0	861	1396	187	373	3463
27	0	0	581	1397	187	374	3464
28	0	0	402	1398	189	374	3464
29	0	0	498	1403	185	373	3465
30	0	0	868	1404	184	373	3466
31	0	0	1302	1405	183	373	3466
32	0	0	1743	1405	181	373	3464
33	0	0	2159	1405	180	373	3464
34	0	0	2381	1406	181	374	3462
35	0	0	2792	1406	180	374	3462
36	0	0	3212	1406	180	374	3463
37	0	0	3385	1407	180	373	3463
38	0	0	3429	1406	181	373	3464
39	0	0	3322	1401	183	373	3465
40	0	0	3135	1400	183	374	3465
41	0	0	2843	1398	184	374	3465
42	0	0	2481	1398	185	374	3465
43	0	0	2138	1398	185	374	3463
44	0	0	1989	1397	187	374	3462
45	0	0	1436	1396	188	374	3463
46	0	0	866	1395	187	374	3462
47	0	0	574	1396	187	374	3464
48	0	0	388	1398	186	373	3464
49	0	0	488	1403	186	373	3465
50	0	0	852	1404	185	373	3466
51	0	0	1280	1404	183	373	3466
52	0	0	1726	1405	182	374	3464
53	0	0	2142	1405	181	374	3463
54	0	0	2374	1406	180	374	3462
55	0	0	2787	1405	180	373	3462
56	0	0	3212	1406	180	373	3463
57	0	0	3393	1406	180	373	3463
58	0	0	3443	1406	181	373	3464
59	0	0	3343	1402	183	373	3465
60	0	0	3163	1400	183	374	3466
61	0	0	2887	1399	184	374	3466
62	0	0	2515	1398	185	374	3464
63	0	0	2172	1397	186	374	3464
64	0	0	2013	1396	188	374	3463
65	0	0	1459	1395	187	374	3462
66	0	0	871	1395	187	373	3463
67	0	0	573	1396	188	373	3463
68	0	0	385	1397	186	373	3464
69	0	0	464	1402	185	373	3465
70	0	0	817	1403	184	374	3465
71	0	0	1244	1403	184	374	3466
72	0	0	1689	1404	182	374	3466
73	0	0	2117	1405	183	373	3463
74	0	0	2356	1406	180	373	3462
75	0	0	2767	1406	180	374	3463
76	0	0	3197	1406	181	373	3463
77	0	0	3388	1405	181	374	3463
78	0	0	3455	1405	181	373	3464
79	0	0	3372	1400	183	373	3465
80	0	0	3195	1399	182	373	3466
81	0	0	2907	1398	184	374	3465
82	0	0	2537	1397	185	374	3464
83	0	0	2182	1397	187	374	3463
84	0	0	2032	1395	187	372	3462
85	0	0	1484	1394	187	373	3462
86	0	0	889	1395	188	374	3464
87	0	0	568	1395	186	373	3463
88	0	0	354	1396	187	374	3465
89	0	0	411	1402	185	374	3465
90	0	0	759	1403	184	374	3466
91	0	0	1191	1403	183	373	3466
92	0	0	1638	1404	182	373	3466
93	0	0	2070	1404	181	375	3464
94	0	0	2314	1405	181	374	3462
95	0	0	2747	1406	180	373	3463
96	0	0	3202	1405	180	373	3463
97	0	0	3422	1405	179	373	3463
98	0	0	3510	1406	181	373	3464
99	0	0	3444	1401	181	373	3465
100	0	0	3271	1399	182	374	3466
101	0	0	2976	1398	184	374	3466
102	0	0	2591	1396	185	374	3465
103	0	0	2228	1396	186	374	3464
104	0	0	2046	1396	187	374	3463
105	0	0	1468	1393	186	374	3463
106	0	0	849	1394	187	374	3463
107	0	0	489	1395	187	374	3464
108	0	0	284	1396	187	374	3464
109	0	0	317	1402	184	374	3465
110	0	0	689	1402	184	374	3466
111	0	0	1144	1402	183	374	3466
112	0	0	1609	1403	181	374	3465
113	0	0	2070	1403	180	373	3463
114	0	0	2347	1405	180	373	3462
115	0	0	2792	1404	181	373	3463
116	0	0	3259	1405	180	373	3463
117	0	0	3487	1405	181	374	3463
118	0	0	3569	1405	181	374	3464
119	0	0	3494	1400	183	374	3465
120	0	0	3305	1398	183	374	3466
121	0	0	3005	1398	184	374	3467
122	0	0	2610	1397	184	374	3465
123	0	0	2225	1396	187	374	3464
124	0	0	2025	1395	188	374	3463
125	0	0	1442	1393	187	374	3462
126	0	0	834	1394	188	373	3464
127	0	0	479	1394	187	373	3463
0	0	0	278	1395	186	374	3464
1	0	0	263	1401	185	374	3465
2	0	0	654	1401	183	374	3466
3	0	0	1122	1401	184	373	3466
4	0	0	1600	1402	182	373	3465
5	0	0	2064	1404	181	373	3463
6	0	0	2347	1404	180	374	3462
7	0	0	2795	1405	180	374	3462
8	0	0	3277	1404	180	374	3463
9	0	0	3508	1404	180	374	3463
10	0	0	3593	1405	181	373	3464
11	0	0	3513	1400	182	374	3465
12	0	0	3327	1397	182	374	3466
13	0	0	3024	1397	184	374	3466
14	0	0	2618	1396	185	374	3465
15	0	0	2220	1396	185	373	3464
16	0	0	2023	1395	188	374	3463
17	0	0	1430	1392	188	374	3462
18	0	0	821	1394	188	373	3464
19	0	0	472	1393	187	373	3463
20	0	0	275	1395	186	373	3466
21	0	0	208	1401	185	373	3466
22	0	0	621	1401	183	374	3466
23	0	0	1098	1401	183	374	3466
24	0	0	1592	1403	182	374	3466
25	0	0	2067	1403	181	375	3464
26	0	0	2354	1403	182	374	3462
27	0	0	2812	1404	180	373	3463
28	0	0	3296	1404	180	373	3463
29	0	0	3528	1404	180	374	3464
30	0	0	3601	1405	181	373	3466
31	0	0	3518	1400	183	373	3465
32	0	0	3326	1397	183	373	3466
33	0	0	3014	1396	184	374	3465
34	0	0	2605	1395	185	374	3465
35	0	0	2205	1395	186	374	3463
36	0	0	1991	1394	187	373	3462
37	0	0	1393	1393	187	373	3463
38	0	0	802	1392	188	374	3463
39	0	0	462	1393	186	374	3465
40	0	0	268	1395	187	374	3464
41	0	0	190	1400	186	374	3465
42	0	0	610	1401	184	374	3466
43	0	0	1105	1402	183	374	3467
44	0	0	1603	1402	182	374	3465
45	0	0	2085	1403	181	374	3464
46	0	0	2388	1403	182	374	3462
47	0	0	2849	1403	180	373	3463
48	0	0	3331	1404	181	373	3463
49	0	0	3568	1405	181	373	3464
50	0	0	3642	1403	182	373	3465
51	0	0	3547	1399	182	374	3466
52	0	0	3348	1397	184	374	3467
53	0	0	3028	1396	184	374	3466
54	0	0	2605	1395	185	374	3465
55	0	0	2197	1395	186	373	3464
56	0	0	1978	1394	187	374	3463
57	0	0	1384	1392	188	374	3463
58	0	0	793	1393	188	374	3464
59	0	0	457	1392	187	374	3464
60	0	0	266	1394	186	374	3465
61	0	0	188	1400	186	374	3466
62	0	0	610	1400	184	374	3466
63	0	0	1109	1401	183	374	3466
64	0	0	1616	1401	182	374	3465
65	0	0	2108	1403	181	373	3464
66	0	0	2417	1403	181	373	3463
67	0	0	2879	1404	180	373	3464
68	0	0	3358	1403	181	373	3464
69	0	0	3611	1404	180	374	3465
70	0	0	3676	1403	181	375	3465
71	0	0	3582	1398	183	374	3466
72	0	0	3377	1396	183	374	3467
73	0	0	3050	1396	184	373	3466
74	0	0	2625	1395	185	373	3465
75	0	0	2208	1394	186	374	3464
76	0	0	1972	1394	186	374	3463
77	0	0	1365	1392	188	374	3463
78	0	0	786	1392	188	373	3464
79	0	0	451	1393	187	373	3464
80	0	0	261	1393	186	374	3465
81	0	0	160	1397	187	374	3466
82	0	0	564	1400	184	374	3467
83	0	0	1078	1400	183	373	3466
84	0	0	1599	1401	182	373	3465
85	0	0	2103	1402	182	373	3464
86	0	0	2426	1402	181	374	3463
87	0	0	2908	1403	180	374	3463
88	0	0	3381	1403	181	374	3463
89	0	0	3667	1403	180	374	3464
90	0	0	3739	1403	181	373	3465
91	0	0	3624	1398	181	373	3466
92	0	0	3393	1396	183	374	3466
93	0	0	3047	1395	184	374	3466
94	0	0	2602	1394	185	373	3465
95	0	0	2165	1394	186	372	3464
96	0	0	1923	1392	188	373	3463
97	0	0	1305	1391	188	373	3463
98	0	0	746	1392	188	374	3464
99	0	0	427	1393	187	374	3464
100	0	0	250	1393	187	374	3465
101	0	0	152	1395	187	373	3466
102	0	0	547	1400	184	374	3467
103	0	0	1067	1400	184	374	3466
104	0	0	1601	1400	182	374	3465
105	0	0	2123	1401	181	374	3464
106	0	0	2460	1402	181	374	3463
107	0	0	2948	1403	180	374	3463
108	0	0	3412	1402	180	373	3463
109	0	0	3684	1402	179	373	3464
110	0	0	3808	1403	181	374	3465
111	0	0	3684	1398	182	374	3466
112	0	0	3448	1396	184	373	3466
113	0	0	3095	1395	184	373	3467
114	0	0	2631	1394	185	373	3465
115	0	0	2173	1394	185	373	3464
116	0	0	1898	1392	188	374	3463
117	0	0	1269	1391	188	374	3463
118	0	0	730	1391	188	374	3463
119	0	0	416	1392	187	374	3464
120	0	0	243	1393	185	374	3464
121	0	0	148	1394	185	374	3465
122	0	0	476	1399	185	374	3466
123	0	0	1017	1400	182	374	3466
124	0	0	1580	1401	182	374	3466
125	0	0	2119	1402	181	374	3464
126	0	0	2483	1402	181	373	3463
127	0	0	2989	1403	180	373	3463
0	0	0	3433	1402	181	373	3463
1	0	0	3695	1402	181	373	3464
2	0	0	3848	1402	181	372	3465
3	0	0	3788	1397	182	374	3465
4	0	0	3526	1395	184	374	3466
5	0	0	3152	1394	184	374	3466
6	0	0	2665	1393	185	374	3465
7	0	0	2194	1393	186	374	3464
8	0	0	1905	1392	188	374	3463
9	0	0	1270	1390	188	374	3463
10	0	0	725	1391	187	374	3464
11	0	0	416	1392	188	374	3464
12	0	0	241	1393	186	374	3465
13	0	0	146	1393	185	374	3466
14	0	0	489	1399	184	374	3467
15	0	0	1037	1399	183	374	3466
16	0	0	1605	1399	182	374	3465
17	0	0	2165	1401	181	373	3464
18	0	0	2535	1401	180	373	3463
19	0	0	3041	1402	179	373	3463
20	0	0	3463	1402	180	373	3464
21	0	0	3716	1402	181	374	3464
22	0	0	3857	1402	181	374	3465
23	0	0	3783	1397	182	374	3467
24	0	0	3511	1394	182	374	3467
25	0	0	3137	1394	184	374	3467
26	0	0	2652	1393	184	374	3465
27	0	0	2169	1393	186	373	3464
28	0	0	1869	1391	187	374	3463
29	0	0	1215	1390	189	375	3463
30	0	0	697	1391	188	373	3464
31	0	0	398	1391	187	373	3464
32	0	0	229	1392	186	375	3464
33	0	0	138	1393	186	374	3466
34	0	0	457	1398	184	374	3466
35	0	0	1030	1398	182	373	3466
36	0	0	1620	1400	183	373	3466
37	0	0	2187	1400	180	372	3464
38	0	0	2556	1401	181	373	3463
39	0	0	3060	1401	180	374	3463
40	0	0	3475	1402	179	374	3464
41	0	0	3718	1402	181	374	3464
42	0	0	3859	1402	180	374	3465
43	0	0	3781	1396	182	373	3466
44	0	0	3509	1394	182	374	3466
45	0	0	3127	1393	184	374	3466
46	0	0	2626	1392	184	373	3465
47	0	0	2143	1392	186	375	3464
48	0	0	1840	1391	188	373	3463
49	0	0	1211	1390	188	373	3463
50	0	0	688	1390	187	374	3463
51	0	0	392	1390	188	374	3464
52	0	0	225	1391	187	374	3465
53	0	0	135	1393	185	373	3466
54	0	0	464	1397	185	374	3466
55	0	0	1026	1398	183	373	3466
56	0	0	1613	1399	181	373	3465
57	0	0	2191	1400	181	375	3464
58	0	0	2580	1401	181	374	3463
59	0	0	3078	1401	181	375	3463
60	0	0	3485	1401	180	374	3463
61	0	0	3723	1401	180	373	3463
62	0	0	3859	1401	181	374	3465
63	0	0	3822	1395	182	374	3466
64	0	0	3517	1393	183	373	3466
65	0	0	3120	1393	184	373	3465
66	0	0	2611	1392	184	374	3465
67	0	0	2108	1391	186	373	3464
68	0	0	1805	1391	188	374	3463
69	0	0	1179	1389	188	374	3463
70	0	0	674	1390	189	374	3463
71	0	0	381	1390	188	374	3463
72	0	0	218	1391	186	374	3464
73	0	0	130	1392	186	373	3466
74	0	0	472	1397	184	374	3467
75	0	0	1043	1398	183	374	3465
76	0	0	1630	1398	183	374	3465
77	0	0	2202	1399	182	374	3463
78	0	0	2593	1400	181	374	3463
79	0	0	3094	1400	180	374	3463
80	0	0	3491	1400	180	374	3463
81	0	0	3726	1400	181	374	3463
82	0	0	3861	1401	181	373	3464
83	0	0	3822	1395	182	373	3466
84	0	0	3515	1393	183	373	3466
85	0	0	3113	1392	185	373	3466
86	0	0	2598	1392	185	375	3465
87	0	0	2093	1391	185	374	3463
88	0	0	1791	1390	187	374	3462
89	0	0	1160	1389	188	374	3463
90	0	0	662	1389	188	374	3462
91	0	0	376	1390	188	374	3464
92	0	0	214	1390	186	375	3464
93	0	0	127	1392	186	374	3465
94	0	0	472	1396	184	373	3466
95	0	0	1036	1398	183	373	3467
96	0	0	1624	1399	182	373	3465
97	0	0	2196	1398	181	374	3464
98	0	0	2579	1400	179	373	3462
99	0	0	3064	1400	180	374	3463
100	0	0	3478	1400	180	373	3463
101	0	0	3716	1399	180	373	3463
102	0	0	3856	1401	181	374	3464
103	0	0	3756	1394	182	373	3465
104	0	0	3466	1393	182	374	3466
105	0	0	3072	1392	184	374	3466
106	0	0	2564	1391	185	375	3465
107	0	0	2060	1391	186	374	3463
108	0	0	1755	1390	187	373	3462
109	0	0	1141	1389	188	374	3463
110	0	0	650	1389	188	373	3463
111	0	0	369	1389	187	374	3463
112	0	0	208	1390	187	374	3465
113	0	0	124	1391	185	375	3466
114	0	0	494	1396	184	374	3466
115	0	0	1063	1397	183	373	3467
116	0	0	1650	1398	182	373	3465
117	0	0	2211	1398	181	373	3464
118	0	0	2590	1399	179	374	3463
119	0	0	3084	1399	180	374	3463
120	0	0	3486	1400	180	374	3464
121	0	0	3719	1400	180	374	3463
122	0	0	3857	1399	181	374	3465
123	0	0	3767	1394	181	374	3465
124	0	0	3473	1393	183	374	3466
125	0	0	3084	1392	183	374	3465
126	0	0	2581	1390	185	373	3465
127	0	0	2087	1390	186	373	3464
0	0	0	1796	1389	188	373	3462
1	0	0	1177	1388	187	373	3463
2	0	0	666	1388	188	374	3463
3	0	0	376	1389	188	374	3463
4	0	0	215	1390	187	374	3465
5	0	0	125	1391	186	373	3466
6	0	0	526	1395	184	374	3466
7	0	0	1095	1396	183	374	3466
8	0	0	1686	1396	182	374	3466
9	0	0	2259	1398	182	375	3463
10	0	0	2634	1398	180	375	3462
11	0	0	3102	1399	179	374	3463
12	0	0	3497	1399	180	373	3463
13	0	0	3726	1399	181	374	3463
14	0	0	3859	1398	181	374	3465
15	0	0	3747	1394	182	374	3466
16	0	0	3443	1392	182	373	3466
17	0	0	3038	1391	184	373	3466
18	0	0	2536	1391	185	373	3465
19	0	0	2062	1389	186	373	3463
20	0	0	1775	1389	187	373	3462
21	0	0	1174	1387	187	374	3463
22	0	0	668	1387	188	374	3463
23	0	0	374	1388	186	374	3465
24	0	0	212	1389	187	375	3464
25	0	0	124	1390	185	374	3466
26	0	0	499	1395	185	374	3467
27	0	0	1073	1395	184	374	3466
28	0	0	1659	1396	183	374	3465
29	0	0	2217	1397	181	374	3464
30	0	0	2604	1398	180	374	3462
31	0	0	3091	1398	180	374	3463
32	0	0	3485	1398	180	373	3463
33	0	0	3719	1399	180	374	3463
34	0	0	3855	1398	182	373	3464
35	0	0	3773	1393	182	373	3465
36	0	0	3448	1391	182	373	3466
37	0	0	3044	1391	184	373	3467
38	0	0	2538	1390	185	374	3465
39	0	0	2061	1390	186	374	3464
40	0	0	1786	1388	187	374	3464
41	0	0	1180	1387	188	374	3463
42	0	0	671	1387	188	374	3463
43	0	0	378	1387	187	374	3465
44	0	0	213	1389	186	375	3465
45	0	0	123	1389	185	373	3465
46	0	0	529	1395	184	373	3466
47	0	0	1087	1395	183	373	3466
48	0	0	1667	1396	182	373	3465
49	0	0	2221	1396	182	374	3464
50	0	0	2581	1398	182	374	3463
51	0	0	3061	1398	181	374	3463
52	0	0	3474	1398	180	373	3464
53	0	0	3712	1398	181	373	3464
54	0	0	3847	1398	181	374	3465
55	0	0	3737	1393	182	374	3466
56	0	0	3419	1391	182	374	3467
57	0	0	3007	1391	184	373	3466
58	0	0	2495	1389	185	374	3466
59	0	0	1999	1389	186	375	3464
60	0	0	1691	1388	187	373	3463
61	0	0	1084	1386	189	374	3463
62	0	0	615	1387	187	374	3463
63	0	0	343	1387	187	373	3464
64	0	0	194	1388	186	373	3465
65	0	0	113	1389	187	373	3466
66	0	0	552	1394	185	373	3467
67	0	0	1160	1395	182	374	3467
68	0	0	1778	1396	182	374	3465
69	0	0	2362	1396	181	374	3465
70	0	0	2757	1397	181	374	3464
71	0	0	3209	1397	180	374	3463
72	0	0	3554	1398	180	374	3463
73	0	0	3759	1398	180	374	3464
74	0	0	3875	1397	181	374	3465
75	0	0	3786	1391	183	374	3466
76	0	0	3448	1390	183	374	3467
77	0	0	3006	1390	184	374	3466
78	0	0	2468	1388	185	374	3466
79	0	0	1943	1388	187	374	3464
80	0	0	1606	1387	187	374	3463
81	0	0	1003	1386	187	373	3463
82	0	0	568	1387	188	374	3464
83	0	0	318	1387	187	373	3464
84	0	0	179	1388	186	373	3465
85	0	0	103	1393	185	374	3465
86	0	0	634	1394	185	374	3467
87	0	0	1250	1394	183	374	3466
88	0	0	1879	1395	183	374	3466
89	0	0	2458	1395	182	374	3464
90	0	0	2841	1396	179	374	3463
91	0	0	3278	1397	180	374	3463
92	0	0	3598	1397	180	374	3463
93	0	0	3782	1398	180	374	3464
94	0	0	3886	1397	182	373	3465
95	0	0	3756	1391	181	373	3466
96	0	0	3397	1390	183	374	3467
97	0	0	2942	1388	184	374	3466
98	0	0	2401	1388	185	374	3466
99	0	0	1876	1387	186	374	3465
100	0	0	1535	1387	189	374	3463
101	0	0	952	1385	188	374	3463
102	0	0	537	1386	187	374	3463
103	0	0	299	1386	188	374	3464
104	0	0	166	1387	187	378	3465
105	0	0	96	1396	186	378	3466
106	0	0	614	1394	184	378	3467
107	0	0	1218	1394	183	378	3466
108	0	0	1835	1395	182	374	3466
109	0	0	2405	1395	182	374	3465
110	0	0	2784	1397	181	374	3464
111	0	0	3238	1396	181	373	3463
112	0	0	3569	1397	181	373	3463
113	0	0	3765	1397	179	373	3465
114	0	0	3878	1397	181	374	3465
115	0	0	3714	1390	181	374	3466
116	0	0	3383	1390	183	374	3467
117	0	0	2962	1389	184	374	3466
118	0	0	2440	1388	185	374	3466
119	0	0	1931	1387	184	374	3465
120	0	0	1606	1386	188	374	3463
121	0	0	1019	1385	187	374	3463
122	0	0	572	1385	188	378	3464
123	0	0	318	1386	186	378	3465
124	0	0	177	1387	186	378	3466
125	0	0	101	1393	185	377	3466
126	0	0	601	1393	185	374	3467
127	0	0	1188	1393	182	374	3467
0	0	0	1779	1394	182	374	3466
1	0	0	2352	1394	181	374	3465
2	0	0	2730	1395	181	374	3464
3	0	0	3184	1395	180	373	3464
4	0	0	3537	1396	179	374	3463
5	0	0	3749	1396	180	374	3466
6	0	0	3866	1396	180	378	3466
7	0	0	3691	1390	182	378	3466
8	0	0	3384	1389	182	378	3468
9	0	0	2980	1388	184	374	3467
10	0	0	2485	1387	185	374	3466
11	0	0	1987	1387	187	374	3465
12	0	0	1675	1386	186	378	3464
13	0	0	1084	1384	188	378	3464
14	0	0	612	1385	187	374	3464
15	0	0	341	1385	188	374	3464
16	0	0	188	1386	187	374	3465
17	0	0	106	1387	185	374	3467
18	0	0	566	1393	184	374	3468
19	0	0	1141	1393	184	374	3467
20	0	0	1718	1393	181	374	3467
21	0	0	2271	1394	181	375	3465
22	0	0	2639	1395	181	374	3464
23	0	0	3096	1395	179	378	3464
24	0	0	3485	1395	179	378	3464
25	0	0	3715	1395	181	378	3464
26	0	0	3845	1395	180	377	3466
27	0	0	3655	1390	182	374	3467
28	0	0	3372	1388	181	373	3468
29	0	0	2991	1387	183	374	3467
30	0	0	2509	1386	184	374	3466
31	0	0	2032	1386	185	374	3465
32	0	0	1748	1385	187	374	3464
33	0	0	1172	1384	188	374	3464
34	0	0	658	1384	188	374	3464
35	0	0	367	1384	187	374	3466
36	0	0	203	1386	187	375	3466
37	0	0	138	1392	187	374	3467
38	0	0	624	1392	184	374	3468
39	0	0	1177	1392	183	374	3467
40	0	0	1735	1393	182	373	3467
41	0	0	2276	1394	182	378	3466
42	0	0	2623	1394	181	378	3464
43	0	0	3056	1394	179	377	3464
44	0	0	3462	1395	181	378	3464
45	0	0	3702	1394	181	374	3465
46	0	0	3818	1394	181	374	3466
47	0	0	3623	1389	183	374	3467
48	0	0	3345	1388	182	373	3468
49	0	0	2983	1387	184	374	3467
50	0	0	2526	1386	185	374	3468
51	0	0	2064	1386	186	374	3465
52	0	0	1786	1386	187	374	3464
53	0	0	1210	1384	187	374	3464
54	0	0	685	1383	188	378	3464
55	0	0	381	1384	187	379	3465
56	0	0	210	1385	187	374	3466
57	0	0	136	1391	185	374	3468
58	0	0	608	1391	183	374	3468
59	0	0	1161	1392	184	377	3467
60	0	0	1707	1392	182	378	3467
61	0	0	2231	1392	181	378	3465
62	0	0	2577	1394	181	374	3464
63	0	0	3001	1394	179	374	3464
64	0	0	3425	1393	180	374	3464
65	0	0	3680	1394	181	374	3465
66	0	0	3732	1394	181	373	3466
67	0	0	3570	1389	182	374	3467
68	0	0	3311	1387	183	374	3468
69	0	0	2957	1387	183	374	3468
70	0	0	2500	1385	185	378	3467
71	0	0	2044	1385	185	378	3466
72	0	0	1786	1385	187	378	3465
73	0	0	1236	1383	188	378	3464
74	0	0	694	1383	188	374	3464
75	0	0	386	1383	188	374	3465
76	0	0	214	1384	186	374	3466
77	0	0	155	1390	185	378	3467
78	0	0	636	1391	183	374	3468
79	0	0	1178	1391	184	374	3467
80	0	0	1713	1391	182	374	3467
81	0	0	2230	1392	181	374	3466
82	0	0	2566	1393	180	374	3464
83	0	0	2976	1394	179	374	3464
84	0	0	3413	1393	180	373	3464
85	0	0	3672	1393	181	374	3464
86	0	0	3700	1393	182	374	3466
87	0	0	3547	1388	182	374	3467
88	0	0	3303	1387	183	378	3467
89	0	0	2969	1386	184	378	3467
90	0	0	2538	1385	185	378	3466
91	0	0	2100	1384	186	378	3465
92	0	0	1840	1383	189	374	3463
93	0	0	1284	1382	187	374	3464
94	0	0	728	1382	188	374	3465
95	0	0	402	1382	188	374	3465
96	0	0	223	1383	186	374	3466
97	0	0	150	1389	185	374	3467
98	0	0	612	1389	183	374	3467
99	0	0	1152	1390	184	374	3467
100	0	0	1687	1391	182	374	3466
101	0	0	2201	1392	182	374	3465
102	0	0	2537	1393	181	374	3464
103	0	0	2950	1393	180	374	3463
104	0	0	3390	1393	181	374	3464
105	0	0	3637	1392	181	374	3466
106	0	0	3664	1393	181	378	3467
107	0	0	3515	1387	182	378	3467
108	0	0	3279	1386	184	378	3468
109	0	0	2945	1384	184	378	3467
110	0	0	2505	1384	184	374	3467
111	0	0	2063	1383	187	375	3465
112	0	0	1814	1383	187	375	3464
113	0	0	1278	1381	187	374	3464
114	0	0	723	1382	187	374	3464
115	0	0	404	1382	188	374	3464
116	0	0	223	1383	187	374	3466
117	0	0	212	1388	185	374	3467
118	0	0	670	1388	184	378	3467
119	0	0	1191	1389	184	378	3467
120	0	0	1718	1390	183	378	3466
121	0	0	2225	1390	181	374	3465
122	0	0	2547	1392	181	375	3464
123	0	0	2952	1391	179	373	3464
124	0	0	3395	1392	180	378	3464
125	0	0	3636	1392	180	377	3465
126	0	0	3656	1391	182	374	3465
127	0	0	3505	1387	181	375	3467
0	0	0	3264	1386	184	374	3468
1	0	0	2924	1384	184	374	3467
2	0	0	2494	1383	185	374	3468
3	0	0	2059	1383	186	375	3465
4	0	0	1814	1382	187	375	3464
5	0	0	1294	1381	188	374	3464
6	0	0	732	1381	188	374	3464
7	0	0	406	1381	188	378	3465
8	0	0	225	1381	186	378	3466
9	0	0	210	1388	186	378	3467
10	0	0	670	1388	184	378	3468
11	0	0	1196	1389	183	374	3467
12	0	0	1722	1390	182	374	3467
13	0	0	2226	1389	182	374	3465
14	0	0	2548	1391	180	373	3464
15	0	0	2949	1391	180	373	3464
16	0	0	3390	1392	180	374	3465
17	0	0	3624	1391	182	374	3465
18	0	0	3643	1391	181	374	3466
19	0	0	3500	1386	181	374	3468
20	0	0	3262	1385	183	374	3468
21	0	0	2921	1384	184	374	3467
22	0	0	2489	1383	185	374	3467
23	0	0	2048	1382	186	374	3465
24	0	0	1803	1381	188	374	3464
25	0	0	1278	1380	187	378	3464
26	0	0	723	1380	188	378	3464
27	0	0	403	1381	187	378	3466
28	0	0	224	1382	185	378	3466
29	0	0	206	1388	186	375	3467
30	0	0	670	1388	184	374	3468
31	0	0	1196	1388	183	374	3467
32	0	0	1726	1388	181	374	3466
33	0	0	2227	1389	182	374	3465
34	0	0	2548	1390	181	374	3464
35	0	0	2944	1390	180	374	3464
36	0	0	3388	1391	181	374	3464
37	0	0	3633	1391	180	374	3465
38	0	0	3654	1391	182	377	3465
39	0	0	3500	1385	181	379	3466
40	0	0	3249	1384	183	374	3467
41	0	0	2913	1384	184	374	3468
42	0	0	2483	1383	185	374	3466
43	0	0	2040	1382	185	378	3465
44	0	0	1790	1381	187	379	3463
45	0	0	1274	1380	187	378	3464
46	0	0	721	1380	188	374	3463
47	0	0	399	1380	187	374	3464
48	0	0	221	1380	186	374	3465
49	0	0	198	1387	186	374	3467
50	0	0	664	1387	183	374	3467
51	0	0	1188	1388	183	374	3467
52	0	0	1710	1388	181	374	3466
53	0	0	2216	1389	182	374	3464
54	0	0	2550	1390	181	379	3463
55	0	0	2954	1390	180	378	3463
56	0	0	3392	1390	179	378	3463
57	0	0	3637	1390	180	379	3464
58	0	0	3644	1390	181	374	3465
59	0	0	3503	1384	182	374	3466
60	0	0	3260	1383	182	374	3466
61	0	0	2913	1383	184	378	3466
62	0	0	2479	1382	184	374	3465
63	0	0	2036	1381	186	374	3464
64	0	0	1792	1380	187	374	3463
65	0	0	1266	1379	188	374	3463
66	0	0	717	1379	187	374	3463
67	0	0	400	1380	187	374	3464
68	0	0	222	1380	186	374	3465
69	0	0	163	1387	186	374	3466
70	0	0	626	1387	184	378	3467
71	0	0	1159	1388	183	378	3467
72	0	0	1695	1389	183	378	3465
73	0	0	2217	1389	182	374	3464
74	0	0	2560	1390	181	374	3463
75	0	0	2958	1389	180	374	3463
76	0	0	3399	1390	181	378	3463
77	0	0	3653	1390	181	378	3465
78	0	0	3672	1391	182	375	3465
79	0	0	3528	1385	182	374	3466
80	0	0	3284	1383	181	374	3466
81	0	0	2946	1382	184	374	3466
82	0	0	2512	1383	185	374	3465
83	0	0	2065	1380	187	374	3464
84	0	0	1804	1380	187	374	3463
85	0	0	1277	1378	187	374	3463
86	0	0	724	1379	187	374	3464
87	0	0	402	1380	187	378	3463
88	0	0	223	1380	186	378	3465
89	0	0	155	1387	185	378	3466
90	0	0	617	1386	184	378	3466
91	0	0	1157	1387	183	374	3466
92	0	0	1688	1388	182	374	3465
93	0	0	2197	1388	181	374	3464
94	0	0	2546	1389	180	374	3463
95	0	0	2947	1389	179	373	3463
96	0	0	3389	1390	181	374	3463
97	0	0	3660	1389	180	373	3463
98	0	0	3687	1390	180	374	3465
99	0	0	3549	1384	182	374	3466
100	0	0	3309	1383	183	374	3467
101	0	0	2969	1382	184	374	3466
102	0	0	2535	1381	184	374	3465
103	0	0	2090	1381	185	374	3465
104	0	0	1834	1380	188	374	3464
105	0	0	1316	1378	186	378	3463
106	0	0	748	1379	187	378	3464
107	0	0	420	1380	188	378	3463
108	0	0	232	1380	186	378	3465
109	0	0	157	1386	185	374	3465
110	0	0	602	1386	183	374	3466
111	0	0	1126	1386	183	374	3466
112	0	0	1659	1387	183	374	3465
113	0	0	2168	1387	181	374	3464
114	0	0	2505	1388	179	374	3463
115	0	0	2911	1389	181	374	3463
116	0	0	3367	1389	180	374	3463
117	0	0	3644	1389	180	374	3463
118	0	0	3674	1389	181	378	3465
119	0	0	3547	1384	182	378	3466
120	0	0	3313	1382	182	374	3466
121	0	0	2983	1382	185	374	3467
122	0	0	2555	1381	185	374	3465
123	0	0	2109	1379	187	378	3464
124	0	0	1855	1379	187	378	3463
125	0	0	1342	1378	188	379	3462
126	0	0	763	1378	188	374	3462
127	0	0	423	1378	188	374	3464
0	0	0	235	1380	186	374	3464
1	0	0	139	1386	186	375	3465
2	0	0	583	1386	184	374	3466
3	0	0	1100	1386	184	374	3466
4	0	0	1624	1387	182	373	3465
5	0	0	2131	1388	181	374	3464
6	0	0	2480	1388	181	378	3463
7	0	0	2877	1389	181	378	3463
8	0	0	3339	1389	180	378	3462
9	0	0	3603	1389	181	378	3464
10	0	0	3647	1390	182	374	3465
11	0	0	3534	1383	181	374	3465
12	0	0	3316	1382	183	374	3466
13	0	0	2992	1382	184	378	3467
14	0	0	2572	1382	185	374	3465
15	0	0	2138	1380	186	374	3464
16	0	0	1892	1379	187	374	3462
17	0	0	1395	1377	187	374	3462
18	0	0	798	1378	188	374	3462
19	0	0	448	1378	187	374	3464
20	0	0	248	1379	186	374	3465
21	0	0	151	1385	186	374	3465
22	0	0	568	1385	185	375	3466
23	0	0	1069	1386	183	374	3466
24	0	0	1583	1387	183	378	3465
25	0	0	2078	1387	182	377	3464
26	0	0	2408	1388	180	378	3463
27	0	0	2801	1388	180	378	3463
28	0	0	3282	1388	179	374	3463
29	0	0	3546	1388	181	374	3464
30	0	0	3610	1389	181	374	3465
31	0	0	3526	1383	182	374	3465
32	0	0	3328	1382	183	374	3466
33	0	0	3024	1380	184	374	3466
34	0	0	2618	1380	185	374	3465
35	0	0	2191	1379	185	374	3464
36	0	0	1954	1379	187	375	3462
37	0	0	1468	1377	188	375	3463
38	0	0	842	1378	187	374	3463
39	0	0	473	1379	187	374	3463
40	0	0	264	1378	186	374	3465
41	0	0	186	1385	185	374	3466
42	0	0	574	1385	185	378	3466
43	0	0	1054	1385	183	378	3465
44	0	0	1554	1386	182	378	3465
45	0	0	2043	1386	182	378	3464
46	0	0	2382	1388	181	374	3463
47	0	0	2775	1388	180	374	3463
48	0	0	3255	1388	181	374	3463
49	0	0	3529	1388	180	375	3463
50	0	0	3603	1388	181	374	3464
51	0	0	3532	1383	182	374	3466
52	0	0	3343	1381	183	373	3466
53	0	0	3043	1380	183	374	3465
54	0	0	2641	1379	184	374	3465
55	0	0	2226	1379	185	374	3464
56	0	0	1991	1378	187	374	3462
57	0	0	1512	1377	188	378	3463
58	0	0	879	1377	187	378	3462
59	0	0	495	1377	188	377	3464
60	0	0	276	1378	186	378	3464
61	0	0	215	1384	185	374	3465
62	0	0	574	1384	184	374	3466
63	0	0	1045	1385	183	374	3466
64	0	0	1541	1385	182	375	3465
65	0	0	2024	1386	182	374	3464
66	0	0	2360	1387	180	374	3463
67	0	0	2734	1388	180	373	3462
68	0	0	3211	1387	181	374	3462
69	0	0	3488	1388	181	374	3463
70	0	0	3571	1387	180	378	3464
71	0	0	3514	1382	181	379	3465
72	0	0	3332	1381	182	374	3466
73	0	0	3048	1380	184	374	3466
74	0	0	2663	1378	185	374	3465
75	0	0	2251	1379	185	378	3464
76	0	0	2024	1378	188	379	3462
77	0	0	1552	1376	187	378	3462
78	0	0	910	1376	187	374	3463
79	0	0	509	1377	189	374	3463
80	0	0	285	1377	186	374	3464
81	0	0	220	1384	185	374	3466
82	0	0	560	1384	184	374	3466
83	0	0	1014	1384	184	374	3466
84	0	0	1497	1385	184	374	3465
85	0	0	1972	1385	181	374	3464
86	0	0	2304	1387	181	378	3463
87	0	0	2687	1386	180	378	3462
88	0	0	3169	1387	181	378	3462
89	0	0	3455	1386	181	378	3463
90	0	0	3544	1386	181	374	3464
91	0	0	3498	1382	181	374	3465
92	0	0	3342	1381	183	374	3467
93	0	0	3068	1379	184	378	3465
94	0	0	2691	1379	185	374	3466
95	0	0	2292	1378	185	374	3464
96	0	0	2070	1377	186	374	3463
97	0	0	1614	1376	187	374	3462
98	0	0	960	1376	188	374	3462
99	0	0	543	1376	187	374	3463
100	0	0	316	1377	186	374	3464
101	0	0	274	1383	185	375	3465
102	0	0	574	1383	184	374	3466
103	0	0	1010	1384	183	374	3465
104	0	0	1487	1384	182	378	3465
105	0	0	1952	1385	181	378	3464
106	0	0	2276	1386	181	379	3462
107	0	0	2650	1386	180	379	3463
108	0	0	3140	1387	181	374	3463
109	0	0	3432	1387	181	374	3463
110	0	0	3533	1387	181	374	3464
111	0	0	3499	1382	182	374	3466
112	0	0	3337	1379	182	374	3466
113	0	0	3070	1379	184	374	3467
114	0	0	2697	1379	184	374	3465
115	0	0	2299	1378	185	374	3464
116	0	0	2079	1377	187	374	3462
117	0	0	1643	1375	188	375	3462
118	0	0	986	1376	189	374	3463
119	0	0	564	1376	187	374	3463
120	0	0	348	1376	186	374	3464
121	0	0	286	1383	185	375	3465
122	0	0	583	1383	184	378	3466
123	0	0	1011	1383	183	378	3466
124	0	0	1475	1384	182	378	3466
125	0	0	1938	1385	182	378	3465
126	0	0	2259	1385	181	374	3463
127	0	0	2631	1385	181	374	3463
0	0	0	3116	1386	181	374	3464
1	0	0	3416	1386	181	374	3463
2	0	0	3517	1386	181	373	3464
3	0	0	3492	1381	182	374	3465
4	0	0	3344	1380	182	374	3466
5	0	0	3079	1378	183	374	3466
6	0	0	2710	1377	184	378	3465
7	0	0	2320	1377	184	379	3464
8	0	0	2105	1377	187	378	3463
9	0	0	1664	1376	188	374	3463
10	0	0	1009	1375	188	374	3463
11	0	0	579	1376	187	373	3465
12	0	0	354	1376	187	378	3465
13	0	0	296	1382	185	378	3465
14	0	0	584	1382	184	374	3466
15	0	0	1009	1383	183	374	3466
16	0	0	1479	1383	182	374	3465
17	0	0	1939	1384	182	373	3464
18	0	0	2260	1385	181	374	3463
19	0	0	2627	1386	181	374	3463
20	0	0	3105	1385	180	374	3463
21	0	0	3401	1386	181	374	3463
22	0	0	3504	1385	180	375	3464
23	0	0	3472	1381	181	378	3465
24	0	0	3325	1380	183	378	3467
25	0	0	3067	1378	183	378	3466
26	0	0	2702	1377	185	377	3466
27	0	0	2311	1378	186	374	3464
28	0	0	2096	1377	187	374	3463
29	0	0	1673	1374	187	374	3463
30	0	0	1020	1374	188	374	3462
31	0	0	597	1375	186	374	3463
32	0	0	378	1375	186	374	3464
33	0	0	316	1382	184	374	3466
34	0	0	597	1382	185	375	3466
35	0	0	1021	1382	183	374	3466
36	0	0	1477	1383	182	374	3465
37	0	0	1936	1384	181	374	3464
38	0	0	2251	1385	180	374	3463
39	0	0	2606	1385	181	378	3463
40	0	0	3080	1385	179	378	3463
41	0	0	3376	1385	180	378	3463
42	0	0	3475	1385	181	374	3464
43	0	0	3453	1381	182	374	3465
44	0	0	3312	1379	182	374	3466
45	0	0	3063	1378	184	378	3466
46	0	0	2712	1377	185	374	3465
47	0	0	2341	1377	184	374	3464
48	0	0	2142	1377	187	374	3463
49	0	0	1714	1375	188	375	3463
50	0	0	1062	1375	188	374	3464
51	0	0	628	1375	187	374	3463
52	0	0	400	1376	187	373	3464
53	0	0	335	1381	185	374	3466
54	0	0	604	1382	184	374	3466
55	0	0	1021	1382	183	374	3466
56	0	0	1474	1383	183	378	3465
57	0	0	1921	1383	181	379	3464
58	0	0	2237	1384	181	378	3463
59	0	0	2578	1384	180	378	3463
60	0	0	3045	1385	181	374	3463
61	0	0	3346	1385	180	373	3465
62	0	0	3454	1386	181	374	3465
63	0	0	3435	1380	182	374	3465
64	0	0	3305	1379	182	374	3467
65	0	0	3072	1378	183	374	3466
66	0	0	2726	1377	185	374	3465
67	0	0	2351	1377	185	374	3464
68	0	0	2147	1376	187	374	3463
69	0	0	1736	1374	187	374	3463
70	0	0	1090	1374	187	374	3464
71	0	0	658	1375	188	374	3463
72	0	0	425	1375	187	374	3464
73	0	0	337	1381	185	374	3466
74	0	0	598	1381	185	378	3466
75	0	0	1008	1382	184	378	3466
76	0	0	1442	1383	182	378	3466
77	0	0	1882	1383	181	378	3464
78	0	0	2201	1384	181	374	3463
79	0	0	2549	1384	180	374	3463
80	0	0	3015	1384	180	374	3463
81	0	0	3327	1385	180	373	3465
82	0	0	3441	1385	181	374	3465
83	0	0	3427	1380	181	374	3466
84	0	0	3297	1378	182	373	3467
85	0	0	3044	1377	183	374	3466
86	0	0	2703	1376	184	378	3465
87	0	0	2333	1376	185	378	3464
88	0	0	2124	1376	187	379	3463
89	0	0	1724	1374	187	374	3463
90	0	0	1094	1374	187	374	3463
91	0	0	671	1374	187	374	3463
92	0	0	445	1374	185	379	3464
93	0	0	367	1381	185	378	3465
94	0	0	619	1381	184	373	3466
95	0	0	1030	1382	183	374	3467
96	0	0	1464	1383	182	374	3466
97	0	0	1898	1383	181	374	3464
98	0	0	2200	1384	181	374	3463
99	0	0	2543	1384	180	373	3463
100	0	0	3009	1384	181	373	3463
101	0	0	3309	1384	180	374	3464
102	0	0	3419	1385	181	374	3464
103	0	0	3417	1380	182	378	3465
104	0	0	3295	1378	183	378	3466
105	0	0	3053	1377	183	378	3466
106	0	0	2720	1376	185	378	3465
107	0	0	2351	1374	186	374	3464
108	0	0	2147	1375	186	374	3463
109	0	0	1749	1373	188	374	3463
110	0	0	1111	1373	188	374	3463
111	0	0	688	1373	187	374	3465
112	0	0	466	1374	186	374	3465
113	0	0	376	1381	185	376	3466
114	0	0	615	1381	184	374	3467
115	0	0	1016	1381	183	374	3467
116	0	0	1444	1383	182	374	3466
117	0	0	1884	1383	181	374	3465
118	0	0	2196	1383	181	374	3464
119	0	0	2524	1383	181	373	3463
120	0	0	2984	1384	180	374	3464
121	0	0	3290	1383	180	379	3464
122	0	0	3395	1384	181	378	3465
123	0	0	3402	1380	181	378	3466
124	0	0	3294	1378	183	377	3467
125	0	0	3054	1377	185	374	3467
126	0	0	2729	1375	183	375	3466
127	0	0	2373	1375	184	374	3465
0	0	0	2169	1375	186	375	3463
1	0	0	1778	1373	187	373	3463
2	0	0	1153	1373	187	374	3463
3	0	0	724	1373	187	374	3465
4	0	0	494	1373	185	374	3465
5	0	0	399	1379	185	374	3466
6	0	0	629	1380	185	378	3468
7	0	0	1041	1380	183	378	3466
8	0	0	1469	1382	182	374	3466
9	0	0	1886	1382	181	374	3465
10	0	0	2178	1383	181	374	3463
11	0	0	2510	1383	180	377	3463
12	0	0	2965	1382	181	378	3463
13	0	0	3266	1382	181	378	3464
14	0	0	3381	1384	181	374	3465
15	0	0	3386	1379	182	374	3467
16	0	0	3280	1377	183	374	3467
17	0	0	3049	1377	184	374	3468
18	0	0	2725	1375	183	374	3466
19	0	0	2373	1374	186	374	3465
20	0	0	2182	1374	187	374	3464
21	0	0	1794	1372	187	374	3463
22	0	0	1162	1372	187	378	3464
23	0	0	738	1373	187	379	3464
24	0	0	517	1373	187	378	3465
25	0	0	408	1379	185	374	3466
26	0	0	625	1379	184	378	3467
27	0	0	1030	1380	183	378	3467
28	0	0	1443	1381	182	378	3467
29	0	0	1852	1381	182	378	3467
30	0	0	2149	1382	180	374	3463
31	0	0	2467	1382	181	374	3464
32	0	0	2918	1383	180	374	3464
33	0	0	3223	1383	181	374	3464
34	0	0	3336	1382	181	373	3465
35	0	0	3351	1379	182	374	3466
36	0	0	3255	1376	183	374	3467
37	0	0	3024	1375	183	374	3467
38	0	0	2713	1374	184	378	3466
39	0	0	2368	1374	185	378	3465
40	0	0	2182	1374	187	378	3464
41	0	0	1814	1372	188	374	3464
42	0	0	1193	1371	188	374	3464
43	0	0	762	1372	187	374	3465
44	0	0	524	1373	186	378	3466
45	0	0	416	1379	185	378	3466
46	0	0	623	1379	185	374	3467
47	0	0	1016	1380	184	374	3467
48	0	0	1430	1379	183	374	3466
49	0	0	1839	1381	181	375	3465
50	0	0	2136	1381	181	374	3464
51	0	0	2454	1381	180	373	3464
52	0	0	2900	1382	181	374	3464
53	0	0	3204	1382	180	374	3464
54	0	0	3318	1381	181	374	3465
55	0	0	3337	1379	181	378	3466
56	0	0	3254	1376	183	378	3468
57	0	0	3033	1375	184	378	3467
58	0	0	2722	1374	184	378	3467
59	0	0	2379	1374	185	374	3466
60	0	0	2191	1373	187	374	3464
61	0	0	1828	1371	187	373	3463
62	0	0	1215	1371	187	374	3463
63	0	0	791	1371	186	374	3464
64	0	0	567	1371	186	374	3465
65	0	0	452	1380	185	374	3467
66	0	0	653	1378	184	374	3467
67	0	0	1042	1380	183	374	3467
68	0	0	1450	1379	182	374	3466
69	0	0	1861	1381	181	374	3465
70	0	0	2148	1380	181	374	3464
71	0	0	2467	1382	180	374	3464
72	0	0	2913	1381	181	374	3463
73	0	0	3223	1382	181	378	3464
74	0	0	3342	1382	182	378	3465
75	0	0	3354	1377	182	378	3467
76	0	0	3268	1376	183	377	3467
77	0	0	3040	1375	184	374	3468
78	0	0	2727	1374	185	374	3466
79	0	0	2383	1372	185	375	3465
80	0	0	2190	1373	187	374	3464
81	0	0	1825	1370	188	374	3463
82	0	0	1218	1370	188	374	3464
83	0	0	795	1371	187	375	3464
84	0	0	574	1371	187	375	3465
85	0	0	466	1377	186	374	3467
86	0	0	661	1378	185	378	3468
87	0	0	1044	1379	183	378	3467
88	0	0	1448	1379	181	374	3468
89	0	0	1846	1380	182	374	3466
90	0	0	2127	1380	181	374	3463
91	0	0	2432	1382	180	378	3464
92	0	0	2872	1381	181	378	3464
93	0	0	3173	1381	182	378	3465
94	0	0	3288	1381	181	374	3466
95	0	0	3305	1377	182	374	3467
96	0	0	3221	1375	183	373	3467
97	0	0	3009	1374	184	374	3467
98	0	0	2708	1373	184	374	3467
99	0	0	2380	1371	185	374	3465
100	0	0	2205	1372	187	374	3464
101	0	0	1874	1370	187	373	3464
102	0	0	1286	1370	187	378	3464
103	0	0	890	1371	188	378	3465
104	0	0	690	1370	186	378	3465
105	0	0	591	1377	186	378	3466
106	0	0	790	1377	184	373	3468
107	0	0	1159	1378	183	374	3468
108	0	0	1542	1378	182	375	3467
109	0	0	1924	1378	183	378	3466
110	0	0	2190	1379	181	374	3464
111	0	0	2464	1380	180	373	3464
112	0	0	2869	1380	180	374	3464
113	0	0	3145	1381	180	374	3465
114	0	0	3245	1380	180	374	3466
115	0	0	3243	1377	182	374	3466
116	0	0	3148	1374	183	373	3467
117	0	0	2932	1373	184	374	3467
118	0	0	2637	1372	184	374	3467
119	0	0	2324	1372	185	374	3466
120	0	0	2168	1372	187	378	3464
121	0	0	1857	1369	187	378	3465
122	0	0	1304	1369	187	378	3464
123	0	0	920	1370	187	378	3466
124	0	0	733	1371	186	374	3467
125	0	0	639	1377	185	374	3467
126	0	0	824	1377	185	374	3468
127	0	0	1204	1377	182	374	3467
0	0	0	1578	1377	183	374	3468
1	0	0	1947	1378	182	374	3467
2	0	0	2202	1378	181	374	3465
3	0	0	2449	1379	180	373	3464
4	0	0	2842	1379	181	374	3464
5	0	0	3103	1380	180	374	3465
6	0	0	3187	1379	181	374	3466
7	0	0	3191	1375	182	374	3467
8	0	0	3107	1374	183	374	3468
9	0	0	2904	1372	184	374	3469
10	0	0	2626	1372	184	378	3467
11	0	0	2328	1371	185	374	3467
12	0	0	2187	1373	187	374	3466
13	0	0	1877	1369	187	374	3465
14	0	0	1318	1369	187	374	3466
15	0	0	938	1369	187	374	3465
16	0	0	757	1370	187	374	3466
17	0	0	660	1375	185	374	3468
18	0	0	850	1376	185	374	3469
19	0	0	1206	1376	183	374	3468
20	0	0	1575	1377	183	374	3468
21	0	0	1941	1378	181	374	3467
22	0	0	2192	1378	181	374	3466
23	0	0	2445	1379	181	374	3465
24	0	0	2839	1378	181	374	3465
25	0	0	3103	1379	181	378	3466
26	0	0	3190	1379	181	378	3467
27	0	0	3179	1374	181	378	3468
28	0	0	3087	1372	183	378	3468
29	0	0	2878	1372	184	374	3468
30	0	0	2599	1371	185	374	3468
31	0	0	2299	1370	186	375	3467
32	0	0	2152	1373	186	374	3465
33	0	0	1860	1368	186	374	3465
34	0	0	1313	1368	188	374	3465
35	0	0	938	1368	187	374	3466
36	0	0	753	1369	187	375	3467
37	0	0	664	1374	186	374	3468
38	0	0	857	1375	184	377	3469
39	0	0	1215	1376	183	378	3468
40	0	0	1584	1377	183	374	3468
41	0	0	1945	1377	181	374	3467
42	0	0	2196	1378	181	374	3467
43	0	0	2447	1378	181	378	3466
44	0	0	2839	1378	180	378	3465
45	0	0	3103	1378	181	378	3467
46	0	0	3190	1378	181	374	3468
47	0	0	3187	1374	182	374	3468
48	0	0	3099	1372	183	374	3470
49	0	0	2883	1371	183	374	3468
50	0	0	2603	1370	185	374	3469
51	0	0	2310	1370	185	374	3468
52	0	0	2161	1373	187	374	3466
53	0	0	1869	1367	187	374	3465
54	0	0	1324	1367	187	378	3465
55	0	0	946	1368	187	378	3466
56	0	0	766	1368	187	379	3467
57	0	0	669	1375	185	378	3468
58	0	0	848	1374	184	374	3469
59	0	0	1203	1374	183	374	3468
60	0	0	1569	1376	183	374	3468
61	0	0	1932	1376	181	378	3467
62	0	0	2183	1376	181	374	3465
63	0	0	2435	1377	181	374	3466
64	0	0	2826	1377	181	374	3465
65	0	0	3096	1377	181	374	3467
66	0	0	3180	1378	181	374	3468
67	0	0	3182	1373	181	374	3468
68	0	0	3095	1371	183	374	3468
69	0	0	2895	1370	184	374	3468
70	0	0	2614	1370	185	374	3468
71	0	0	2318	1369	186	374	3467
72	0	0	2165	1372	186	378	3466
73	0	0	1877	1366	187	378	3465
74	0	0	1336	1366	188	378	3466
75	0	0	949	1367	187	378	3466
76	0	0	761	1367	187	374	3467
77	0	0	659	1374	186	374	3468
78	0	0	837	1373	184	374	3468
79	0	0	1187	1374	182	374	3468
80	0	0	1549	1375	183	374	3468
81	0	0	1909	1375	181	373	3467
82	0	0	2163	1376	181	374	3465
83	0	0	2418	1376	180	374	3465
84	0	0	2815	1376	180	374	3465
85	0	0	3088	1376	181	374	3467
86	0	0	3180	1377	181	374	3468
87	0	0	3178	1372	181	374	3468
88	0	0	3090	1370	182	374	3469
89	0	0	2887	1369	183	374	3468
90	0	0	2608	1369	184	378	3468
91	0	0	2313	1368	185	378	3467
92	0	0	2165	1372	187	378	3466
93	0	0	1884	1366	187	378	3465
94	0	0	1345	1366	187	375	3466
95	0	0	968	1366	188	374	3465
96	0	0	791	1366	186	375	3466
97	0	0	689	1372	185	374	3468
98	0	0	866	1373	185	374	3468
99	0	0	1216	1373	183	374	3468
100	0	0	1571	1374	182	374	3468
101	0	0	1926	1375	182	374	3467
102	0	0	2179	1376	181	378	3466
103	0	0	2424	1375	180	378	3465
104	0	0	2809	1375	181	378	3465
105	0	0	3077	1376	181	374	3465
106	0	0	3156	1376	182	374	3467
107	0	0	3152	1372	181	374	3468
108	0	0	3061	1370	183	378	3469
109	0	0	2869	1368	183	378	3468
110	0	0	2609	1368	184	374	3468
111	0	0	2326	1368	185	374	3467
112	0	0	2184	1373	187	374	3465
113	0	0	1910	1365	188	375	3465
114	0	0	1369	1365	187	374	3465
115	0	0	984	1366	187	374	3465
116	0	0	810	1366	186	374	3466
117	0	0	701	1371	185	374	3467
118	0	0	858	1372	185	374	3468
119	0	0	1205	1372	184	378	3468
120	0	0	1555	1374	182	378	3468
121	0	0	1902	1373	182	377	3467
122	0	0	2157	1374	181	378	3465
123	0	0	2393	1374	181	373	3465
124	0	0	2780	1374	180	378	3466
125	0	0	3054	1375	183	378	3465
126	0	0	3151	1375	180	374	3467
127	0	0	3161	1371	182	374	3468
0	0	0	3084	1369	183	374	3468
1	0	0	2891	1368	184	374	3469
2	0	0	2616	1367	184	374	3468
3	0	0	2324	1366	185	374	3467
4	0	0	2163	1371	187	374	3466
5	0	0	1900	1364	186	374	3465
6	0	0	1367	1363	188	378	3466
7	0	0	986	1365	187	378	3465
8	0	0	796	1365	187	378	3467
9	0	0	661	1369	186	378	3468
10	0	0	820	1371	186	374	3468
11	0	0	1161	1372	184	374	3468
12	0	0	1524	1373	183	374	3468
13	0	0	1889	1373	182	378	3467
14	0	0	2148	1373	181	374	3465
15	0	0	2392	1374	180	374	3465
16	0	0	2789	1373	181	374	3465
17	0	0	3064	1374	181	374	3466
18	0	0	3151	1373	181	374	3467
19	0	0	3159	1369	181	374	3468
20	0	0	3081	1368	182	374	3468
21	0	0	2885	1367	183	374	3468
22	0	0	2614	1366	185	374	3468
23	0	0	2323	1366	185	374	3467
24	0	0	2163	1369	187	378	3465
25	0	0	1892	1363	187	378	3464
26	0	0	1353	1363	188	378	3466
27	0	0	963	1364	188	378	3465
28	0	0	774	1363	185	375	3466
29	0	0	668	1371	186	374	3468
30	0	0	831	1370	184	374	3468
31	0	0	1181	1370	183	376	3468
32	0	0	1528	1371	183	374	3468
33	0	0	1882	1373	181	374	3468
34	0	0	2143	1372	181	374	3465
35	0	0	2387	1373	180	374	3465
36	0	0	2779	1373	181	374	3465
37	0	0	3053	1373	180	374	3465
38	0	0	3137	1374	180	375	3466
