# bioPlux Text File Format
# Version: 1
# StartDateTime: 2011-07-18 12:33:17
# SamplingFrequency: 1000
# SampledChannels: 1 2 3 4
# SamplingResolution: 12
# AcquiringDevice: 00:07:80:42:0F:8B
# EndOfHeader
0	0	0	1905	1496	1781	36
1	0	0	1933	1496	1780	36
2	0	0	1950	1496	1771	37
3	0	0	1965	1496	1757	38
4	0	0	1965	1495	1754	38
5	0	0	1931	1495	1755	35
6	0	0	1892	1493	1760	31
7	0	0	1871	1495	1768	33
8	0	0	1882	1497	1774	35
9	0	0	1923	1495	1779	34
10	0	0	1937	1496	1781	34
11	0	0	1922	1493	1779	34
12	0	0	1917	1495	1770	32
13	0	0	1922	1492	1756	34
14	0	0	1923	1493	1753	33
15	0	0	1911	1492	1754	38
16	0	0	1939	1492	1758	35
17	0	0	1949	1491	1767	33
18	0	0	1941	1494	1773	36
19	0	0	1953	1494	1781	38
20	0	0	1958	1494	1782	39
21	0	0	1948	1496	1780	39
22	0	0	1968	1496	1771	39
23	0	0	1994	1496	1760	38
24	0	0	1969	1492	1755	39
25	0	0	1935	1493	1755	36
26	0	0	1910	1492	1761	33
27	0	0	1906	1497	1768	33
28	0	0	1913	1496	1774	36
29	0	0	1924	1496	1781	32
30	0	0	1931	1495	1781	34
31	0	0	1921	1491	1779	34
32	0	0	1892	1491	1771	35
33	0	0	1854	1491	1757	34
34	0	0	1832	1492	1753	33
35	0	0	1838	1493	1754	37
36	0	0	1861	1491	1760	33
37	0	0	1850	1491	1768	36
38	0	0	1853	1493	1774	36
39	0	0	1874	1495	1781	39
40	0	0	1895	1495	1782	39
41	0	0	1924	1496	1781	40
42	0	0	1956	1495	1772	40
43	0	0	1996	1496	1760	33
44	0	0	2034	1496	1755	35
45	0	0	2066	1497	1756	35
46	0	0	2039	1492	1761	34
47	0	0	2002	1494	1769	32
48	0	0	1970	1493	1775	34
49	0	0	1927	1494	1781	34
50	0	0	1904	1495	1783	33
51	0	0	1900	1492	1780	33
52	0	0	1907	1495	1771	34
53	0	0	1907	1493	1759	33
54	0	0	1884	1491	1753	35
55	0	0	1882	1492	1754	36
56	0	0	1897	1491	1760	36
57	0	0	1911	1494	1768	36
58	0	0	1932	1493	1775	39
59	0	0	1955	1494	1780	39
60	0	0	1974	1494	1783	36
61	0	0	1962	1491	1780	34
62	0	0	1934	1494	1773	34
63	0	0	1931	1496	1760	35
64	0	0	1968	1496	1755	39
65	0	0	2005	1497	1757	35
66	0	0	2030	1497	1762	35
67	0	0	2041	1497	1769	35
68	0	0	2030	1494	1775	33
69	0	0	1998	1493	1781	34
70	0	0	1956	1492	1781	34
71	0	0	1947	1493	1780	34
72	0	0	1967	1495	1771	33
73	0	0	1992	1493	1758	34
74	0	0	1977	1490	1753	34
75	0	0	1937	1490	1755	38
76	0	0	1916	1488	1760	36
77	0	0	1915	1493	1766	36
78	0	0	1927	1494	1774	35
79	0	0	1916	1491	1780	35
80	0	0	1902	1493	1782	39
81	0	0	1901	1494	1781	38
82	0	0	1931	1495	1773	39
83	0	0	1961	1496	1760	37
84	0	0	1991	1496	1756	35
85	0	0	1992	1495	1756	38
86	0	0	1958	1492	1762	33
87	0	0	1956	1496	1768	32
88	0	0	1966	1496	1775	34
89	0	0	1975	1496	1780	34
90	0	0	1980	1496	1782	32
91	0	0	1963	1492	1779	32
92	0	0	1947	1494	1772	35
93	0	0	1967	1494	1758	33
94	0	0	2003	1493	1752	31
95	0	0	2037	1492	1755	35
96	0	0	2053	1491	1759	35
97	0	0	2043	1491	1767	38
98	0	0	2007	1491	1775	39
99	0	0	1975	1492	1780	38
100	0	0	1984	1494	1782	42
101	0	0	2017	1494	1781	36
102	0	0	2023	1496	1773	36
103	0	0	2023	1495	1761	31
104	0	0	2044	1496	1757	38
105	0	0	2068	1496	1756	32
106	0	0	2087	1499	1762	34
107	0	0	2119	1496	1769	35
108	0	0	2098	1492	1775	36
109	0	0	2009	1493	1779	34
110	0	0	1921	1491	1781	33
111	0	0	1877	1493	1780	33
112	0	0	1869	1495	1771	36
113	0	0	1876	1493	1758	34
114	0	0	1886	1493	1753	34
115	0	0	1893	1493	1755	33
116	0	0	1871	1493	1760	37
117	0	0	1862	1494	1767	40
118	0	0	1889	1494	1775	38
119	0	0	1939	1495	1780	35
120	0	0	1997	1495	1784	34
121	0	0	2041	1495	1781	37
122	0	0	2074	1495	1773	39
123	0	0	2081	1496	1760	38
124	0	0	2075	1496	1756	38
125	0	0	2054	1495	1757	36
126	0	0	2039	1496	1762	36
127	0	0	2058	1496	1768	35
0	0	0	2061	1495	1775	35
1	0	0	2034	1492	1780	35
2	0	0	2007	1493	1781	35
3	0	0	1978	1492	1779	35
4	0	0	1968	1494	1771	35
5	0	0	1946	1490	1758	36
6	0	0	1893	1490	1754	34
7	0	0	1862	1492	1755	38
8	0	0	1895	1494	1760	39
9	0	0	1954	1492	1767	39
10	0	0	1963	1493	1774	38
11	0	0	1999	1493	1780	35
12	0	0	2043	1495	1780	35
13	0	0	2056	1492	1781	39
14	0	0	2040	1494	1773	39
15	0	0	2032	1496	1760	40
16	0	0	2043	1495	1755	38
17	0	0	2068	1496	1754	33
18	0	0	2077	1497	1761	34
19	0	0	2089	1496	1768	39
20	0	0	2053	1493	1775	37
21	0	0	2001	1493	1780	34
22	0	0	1975	1494	1781	32
23	0	0	1955	1492	1779	34
24	0	0	1964	1495	1771	34
25	0	0	1970	1494	1758	37
26	0	0	1965	1493	1753	34
27	0	0	1968	1493	1755	32
28	0	0	1989	1493	1759	34
29	0	0	2022	1493	1767	35
30	0	0	2019	1492	1773	39
31	0	0	1997	1492	1780	39
32	0	0	1990	1494	1783	39
33	0	0	1998	1495	1780	37
34	0	0	1977	1493	1773	36
35	0	0	1970	1496	1760	37
36	0	0	1985	1497	1755	35
37	0	0	2024	1496	1755	35
38	0	0	2067	1494	1760	34
39	0	0	2060	1494	1767	38
40	0	0	2049	1496	1774	35
41	0	0	2042	1494	1780	35
42	0	0	2022	1494	1780	32
43	0	0	2020	1494	1779	34
44	0	0	2043	1494	1771	33
45	0	0	2063	1493	1758	37
46	0	0	2067	1494	1753	34
47	0	0	2037	1491	1754	36
48	0	0	1973	1488	1759	37
49	0	0	1910	1490	1766	37
50	0	0	1915	1493	1773	39
51	0	0	1947	1494	1781	37
52	0	0	1982	1494	1783	36
53	0	0	2016	1496	1780	36
54	0	0	2002	1492	1772	39
55	0	0	1969	1493	1760	39
56	0	0	1944	1493	1755	39
57	0	0	1926	1495	1756	34
58	0	0	1931	1496	1760	35
59	0	0	1962	1497	1767	35
60	0	0	1997	1496	1775	35
61	0	0	2029	1496	1780	34
62	0	0	2032	1495	1781	35
63	0	0	2039	1495	1778	33
64	0	0	2037	1493	1772	34
65	0	0	2030	1493	1758	33
66	0	0	1999	1491	1753	34
67	0	0	1956	1490	1753	38
68	0	0	1926	1492	1759	33
69	0	0	1938	1494	1766	35
70	0	0	1985	1494	1774	38
71	0	0	2041	1493	1779	38
72	0	0	2072	1495	1783	38
73	0	0	2092	1494	1780	42
74	0	0	2064	1492	1774	39
75	0	0	1995	1492	1761	33
76	0	0	1958	1495	1755	36
77	0	0	1968	1497	1756	35
78	0	0	1992	1495	1760	35
79	0	0	2015	1496	1768	33
80	0	0	2022	1496	1774	35
81	0	0	2013	1495	1779	34
82	0	0	2017	1497	1782	34
83	0	0	2025	1492	1778	37
84	0	0	2024	1495	1771	35
85	0	0	2028	1493	1758	32
86	0	0	1986	1489	1753	31
87	0	0	1949	1492	1754	35
88	0	0	1942	1491	1758	39
89	0	0	1934	1492	1767	40
90	0	0	1931	1493	1774	39
91	0	0	1945	1494	1780	39
92	0	0	1956	1494	1782	33
93	0	0	1984	1495	1780	39
94	0	0	2017	1494	1774	36
95	0	0	2028	1497	1761	38
96	0	0	2032	1498	1755	37
97	0	0	2040	1496	1756	33
98	0	0	2067	1497	1761	35
99	0	0	2077	1496	1768	35
100	0	0	2065	1496	1775	35
101	0	0	2036	1492	1780	35
102	0	0	1974	1492	1781	32
103	0	0	1925	1492	1780	34
104	0	0	1904	1491	1772	34
105	0	0	1908	1495	1758	33
106	0	0	1927	1494	1753	34
107	0	0	1929	1494	1754	38
108	0	0	1938	1494	1759	37
109	0	0	1957	1492	1766	36
110	0	0	1991	1493	1774	34
111	0	0	2025	1496	1780	36
112	0	0	2030	1494	1782	39
113	0	0	2026	1493	1780	39
114	0	0	2030	1495	1773	40
115	0	0	2062	1495	1761	37
116	0	0	2078	1496	1755	35
117	0	0	2083	1493	1755	34
118	0	0	2093	1498	1760	33
119	0	0	2081	1495	1767	33
120	0	0	2033	1493	1774	33
121	0	0	1988	1493	1779	34
122	0	0	1939	1492	1781	36
123	0	0	1945	1493	1778	33
124	0	0	1977	1494	1772	33
125	0	0	1975	1493	1758	34
126	0	0	1973	1494	1753	35
127	0	0	2003	1493	1753	34
0	0	0	2030	1492	1759	38
1	0	0	2021	1490	1766	35
2	0	0	2013	1494	1773	34
3	0	0	2027	1494	1779	35
4	0	0	2028	1493	1782	38
5	0	0	1982	1493	1780	37
6	0	0	1939	1492	1773	40
7	0	0	1939	1496	1760	37
8	0	0	1974	1496	1754	35
9	0	0	2010	1496	1755	35
10	0	0	2032	1498	1760	34
11	0	0	2044	1497	1766	34
12	0	0	2056	1496	1774	36
13	0	0	2055	1494	1779	34
14	0	0	2014	1492	1780	38
15	0	0	1968	1493	1779	33
16	0	0	1957	1493	1771	32
17	0	0	1985	1494	1757	32
18	0	0	2007	1493	1752	33
19	0	0	2027	1493	1752	33
20	0	0	2035	1491	1756	35
21	0	0	2003	1490	1764	38
22	0	0	1996	1494	1772	36
23	0	0	2018	1494	1778	39
24	0	0	2032	1494	1781	39
25	0	0	2028	1495	1779	36
26	0	0	2019	1495	1772	35
27	0	0	2037	1496	1759	35
28	0	0	2070	1496	1753	38
29	0	0	2091	1496	1754	34
30	0	0	2098	1494	1759	35
31	0	0	2021	1492	1765	35
32	0	0	1949	1493	1772	36
33	0	0	1906	1492	1777	34
34	0	0	1910	1494	1779	34
35	0	0	1956	1496	1777	32
36	0	0	1987	1494	1770	34
37	0	0	1973	1491	1756	32
38	0	0	1948	1491	1750	34
39	0	0	1934	1490	1750	36
40	0	0	1941	1493	1756	38
41	0	0	1966	1492	1763	38
42	0	0	2001	1494	1771	36
43	0	0	2049	1494	1777	35
44	0	0	2102	1495	1779	33
45	0	0	2146	1494	1778	39
46	0	0	2165	1495	1771	40
47	0	0	2147	1493	1758	37
48	0	0	2111	1493	1753	38
49	0	0	2110	1497	1753	32
50	0	0	2097	1493	1757	36
51	0	0	2049	1492	1764	34
52	0	0	2004	1493	1770	31
53	0	0	1983	1496	1776	34
54	0	0	1997	1496	1778	32
55	0	0	1980	1491	1776	36
56	0	0	1959	1493	1769	34
57	0	0	1960	1494	1755	31
58	0	0	1941	1490	1749	32
59	0	0	1935	1493	1750	34
60	0	0	1970	1493	1755	34
61	0	0	2026	1493	1764	34
62	0	0	2037	1493	1770	38
63	0	0	2011	1491	1776	39
64	0	0	2010	1495	1778	37
65	0	0	2040	1495	1777	38
66	0	0	2072	1496	1770	36
67	0	0	2103	1494	1757	31
68	0	0	2098	1495	1751	32
69	0	0	2068	1493	1751	36
70	0	0	2032	1493	1756	36
71	0	0	2008	1496	1763	35
72	0	0	2017	1496	1769	35
73	0	0	2009	1495	1775	35
74	0	0	2010	1495	1777	34
75	0	0	2021	1495	1776	32
76	0	0	2016	1495	1768	34
77	0	0	2016	1493	1755	33
78	0	0	2005	1492	1748	34
79	0	0	1981	1490	1749	36
80	0	0	1965	1492	1754	39
81	0	0	1972	1494	1762	39
82	0	0	2007	1493	1769	40
83	0	0	2039	1493	1775	36
84	0	0	2061	1493	1777	35
85	0	0	2062	1496	1777	36
86	0	0	2070	1497	1769	38
87	0	0	2060	1495	1757	39
88	0	0	2061	1496	1751	37
89	0	0	2064	1495	1750	35
90	0	0	2045	1496	1756	35
91	0	0	2038	1497	1763	34
92	0	0	2032	1496	1769	31
93	0	0	2009	1495	1775	34
94	0	0	2015	1494	1777	35
95	0	0	2008	1493	1775	35
96	0	0	1979	1492	1768	33
97	0	0	1965	1493	1754	33
98	0	0	1968	1495	1749	30
99	0	0	1988	1493	1749	36
100	0	0	2000	1490	1754	36
101	0	0	2003	1493	1760	35
102	0	0	2016	1494	1768	31
103	0	0	2035	1493	1774	38
104	0	0	2072	1495	1777	38
105	0	0	2131	1495	1776	38
106	0	0	2191	1496	1769	39
107	0	0	2200	1496	1757	35
108	0	0	2192	1495	1750	38
109	0	0	2181	1496	1751	35
110	0	0	2161	1495	1756	35
111	0	0	2148	1497	1762	34
112	0	0	2142	1496	1769	31
113	0	0	2136	1497	1774	34
114	0	0	2104	1492	1777	36
115	0	0	2038	1490	1775	37
116	0	0	1994	1491	1768	32
117	0	0	1988	1493	1754	33
118	0	0	1991	1493	1748	33
119	0	0	1991	1493	1749	37
120	0	0	1974	1490	1754	34
121	0	0	1977	1492	1761	34
122	0	0	2034	1493	1769	35
123	0	0	2101	1495	1775	39
124	0	0	2132	1493	1777	39
125	0	0	2132	1495	1777	39
126	0	0	2124	1496	1770	38
127	0	0	2114	1491	1757	33
0	0	0	2135	1497	1751	34
1	0	0	2139	1497	1751	34
2	0	0	2144	1497	1756	33
3	0	0	2140	1497	1763	33
4	0	0	2130	1496	1770	32
5	0	0	2121	1496	1775	33
6	0	0	2121	1495	1777	34
7	0	0	2120	1495	1775	34
8	0	0	2095	1492	1768	33
9	0	0	2007	1490	1755	32
10	0	0	1930	1491	1749	34
11	0	0	1899	1490	1749	34
12	0	0	1898	1493	1753	35
13	0	0	1951	1492	1762	38
14	0	0	2020	1493	1769	36
15	0	0	2079	1493	1776	38
16	0	0	2091	1493	1778	35
17	0	0	2104	1494	1777	34
18	0	0	2133	1495	1770	35
19	0	0	2168	1496	1758	38
20	0	0	2199	1496	1751	38
21	0	0	2216	1496	1751	34
22	0	0	2208	1496	1755	33
23	0	0	2174	1493	1762	35
24	0	0	2145	1496	1769	32
25	0	0	2127	1494	1775	35
26	0	0	2101	1492	1778	34
27	0	0	2076	1492	1776	34
28	0	0	2046	1492	1769	32
29	0	0	2029	1493	1754	29
30	0	0	2032	1494	1749	32
31	0	0	2044	1492	1749	37
32	0	0	2049	1492	1755	39
33	0	0	2040	1492	1762	35
34	0	0	2028	1493	1769	32
35	0	0	2031	1494	1776	35
36	0	0	2057	1494	1779	38
37	0	0	2074	1495	1777	38
38	0	0	2107	1495	1770	38
39	0	0	2160	1496	1756	35
40	0	0	2194	1497	1752	35
41	0	0	2189	1496	1752	33
42	0	0	2167	1495	1756	35
43	0	0	2144	1495	1763	34
44	0	0	2131	1496	1770	32
45	0	0	2137	1496	1775	35
46	0	0	2156	1498	1778	32
47	0	0	2158	1495	1775	35
48	0	0	2143	1493	1769	33
49	0	0	2086	1490	1755	32
50	0	0	2031	1492	1749	33
51	0	0	2042	1493	1748	36
52	0	0	2072	1494	1754	34
53	0	0	2109	1494	1762	38
54	0	0	2129	1494	1769	38
55	0	0	2102	1492	1776	38
56	0	0	2070	1494	1778	36
57	0	0	2071	1496	1776	36
58	0	0	2090	1494	1770	36
59	0	0	2098	1496	1758	32
60	0	0	2112	1496	1751	38
61	0	0	2117	1495	1750	35
62	0	0	2115	1498	1755	34
63	0	0	2125	1497	1763	34
64	0	0	2143	1497	1769	34
65	0	0	2158	1496	1775	35
66	0	0	2127	1492	1778	34
67	0	0	2087	1494	1775	34
68	0	0	2052	1492	1769	33
69	0	0	2025	1491	1755	34
70	0	0	1992	1491	1749	32
71	0	0	1947	1489	1749	37
72	0	0	1910	1492	1753	36
73	0	0	1916	1492	1762	38
74	0	0	1932	1493	1770	35
75	0	0	1960	1495	1774	40
76	0	0	1993	1495	1778	34
77	0	0	2019	1496	1776	38
78	0	0	2049	1495	1770	36
79	0	0	2074	1497	1758	39
80	0	0	2083	1496	1751	38
81	0	0	2052	1493	1751	32
82	0	0	2009	1494	1755	34
83	0	0	1993	1496	1762	34
84	0	0	1993	1496	1769	34
85	0	0	2021	1496	1775	35
86	0	0	2058	1495	1776	35
87	0	0	2061	1496	1776	34
88	0	0	2046	1495	1769	34
89	0	0	2035	1493	1755	33
90	0	0	2024	1491	1748	33
91	0	0	2009	1492	1749	34
92	0	0	1984	1491	1753	34
93	0	0	1980	1492	1761	37
94	0	0	1990	1494	1768	35
95	0	0	2019	1492	1775	36
96	0	0	2039	1494	1779	35
97	0	0	2022	1496	1775	42
98	0	0	2059	1498	1771	39
99	0	0	2093	1496	1757	39
100	0	0	2110	1496	1751	38
101	0	0	2104	1497	1751	32
102	0	0	2070	1494	1754	36
103	0	0	2025	1493	1762	34
104	0	0	1979	1494	1770	34
105	0	0	1947	1494	1775	35
106	0	0	1935	1495	1777	32
107	0	0	1939	1496	1775	38
108	0	0	1938	1497	1769	33
109	0	0	1949	1494	1755	34
110	0	0	1973	1493	1749	33
111	0	0	1991	1494	1748	32
112	0	0	2011	1493	1752	34
113	0	0	2036	1494	1760	34
114	0	0	2055	1494	1768	38
115	0	0	2045	1492	1775	39
116	0	0	2033	1494	1777	38
117	0	0	2067	1495	1776	38
118	0	0	2121	1499	1770	37
119	0	0	2160	1497	1758	35
120	0	0	2214	1494	1751	35
121	0	0	2198	1494	1751	32
122	0	0	2122	1493	1754	36
123	0	0	2042	1495	1762	33
124	0	0	1984	1494	1769	34
125	0	0	1956	1492	1774	35
126	0	0	1944	1496	1777	32
127	0	0	1942	1495	1774	36
0	0	0	1946	1496	1769	33
1	0	0	1924	1491	1755	33
2	0	0	1911	1492	1748	32
3	0	0	1929	1495	1749	32
4	0	0	1953	1493	1753	37
5	0	0	1952	1494	1762	36
6	0	0	1928	1491	1769	38
7	0	0	1910	1493	1775	35
8	0	0	1922	1496	1778	35
9	0	0	1987	1496	1776	35
10	0	0	2079	1498	1771	38
11	0	0	2145	1496	1757	37
12	0	0	2192	1496	1752	38
13	0	0	2223	1497	1751	36
14	0	0	2260	1497	1755	35
15	0	0	2279	1502	1762	34
16	0	0	2272	1497	1768	34
17	0	0	2279	1495	1774	34
18	0	0	2312	1497	1777	32
19	0	0	2364	1496	1775	36
20	0	0	2422	1493	1769	34
21	0	0	2457	1494	1756	34
22	0	0	2463	1491	1748	32
23	0	0	2476	1494	1749	33
24	0	0	2507	1494	1756	35
25	0	0	2520	1493	1761	33
26	0	0	2525	1495	1769	35
27	0	0	2563	1495	1775	39
28	0	0	2605	1496	1778	36
29	0	0	2646	1496	1778	39
30	0	0	2655	1497	1771	37
31	0	0	2641	1497	1758	35
32	0	0	2632	1496	1752	35
33	0	0	2573	1494	1752	35
34	0	0	2495	1494	1756	35
35	0	0	2437	1494	1762	34
36	0	0	2392	1494	1770	34
37	0	0	2334	1494	1774	35
38	0	0	2296	1496	1778	34
39	0	0	2300	1496	1776	34
40	0	0	2315	1496	1770	34
41	0	0	2319	1494	1756	34
42	0	0	2270	1491	1749	33
43	0	0	2200	1490	1749	35
44	0	0	2131	1490	1755	37
45	0	0	2080	1490	1761	37
46	0	0	2066	1494	1768	38
47	0	0	2039	1491	1776	38
48	0	0	1992	1491	1777	38
49	0	0	1947	1492	1777	35
50	0	0	1924	1497	1771	37
51	0	0	1912	1494	1758	39
52	0	0	1886	1495	1752	39
53	0	0	1890	1498	1751	36
54	0	0	1896	1498	1756	34
55	0	0	1881	1496	1762	34
56	0	0	1879	1497	1769	35
57	0	0	1862	1492	1776	34
58	0	0	1827	1493	1778	34
59	0	0	1810	1495	1778	33
60	0	0	1808	1494	1770	34
61	0	0	1820	1495	1757	33
62	0	0	1849	1493	1750	34
63	0	0	1837	1492	1750	38
64	0	0	1827	1490	1754	38
65	0	0	1815	1494	1761	34
66	0	0	1818	1494	1769	35
67	0	0	1838	1494	1775	36
68	0	0	1895	1495	1779	38
69	0	0	1949	1495	1777	39
70	0	0	1979	1496	1772	39
71	0	0	2006	1496	1759	42
72	0	0	2028	1496	1752	35
73	0	0	2031	1497	1752	35
74	0	0	2040	1498	1756	35
75	0	0	2053	1497	1763	33
76	0	0	2026	1493	1770	34
77	0	0	1964	1492	1776	38
78	0	0	1929	1494	1778	33
79	0	0	1912	1493	1777	33
80	0	0	1884	1491	1770	34
81	0	0	1855	1491	1757	34
82	0	0	1826	1489	1750	34
83	0	0	1806	1493	1749	37
84	0	0	1830	1494	1755	39
85	0	0	1871	1494	1762	34
86	0	0	1889	1494	1770	35
87	0	0	1885	1494	1776	36
88	0	0	1877	1494	1780	39
89	0	0	1888	1495	1779	37
90	0	0	1933	1496	1772	39
91	0	0	1986	1496	1760	37
92	0	0	2022	1497	1753	34
93	0	0	2040	1496	1752	35
94	0	0	2068	1498	1757	35
95	0	0	2067	1496	1761	35
96	0	0	2051	1496	1770	33
97	0	0	2027	1494	1776	34
98	0	0	1993	1492	1779	35
99	0	0	1944	1493	1777	32
100	0	0	1904	1492	1771	35
101	0	0	1884	1494	1758	34
102	0	0	1907	1494	1751	33
103	0	0	1946	1493	1751	34
104	0	0	1970	1494	1755	33
105	0	0	1962	1494	1761	38
106	0	0	1960	1494	1770	38
107	0	0	1979	1494	1777	38
108	0	0	1999	1495	1779	38
109	0	0	1994	1494	1778	36
110	0	0	1970	1494	1773	36
111	0	0	1972	1497	1760	34
112	0	0	2004	1496	1754	38
113	0	0	2022	1497	1753	39
114	0	0	2018	1497	1756	36
115	0	0	1997	1495	1764	34
116	0	0	1980	1497	1770	34
117	0	0	2003	1496	1777	34
118	0	0	2057	1496	1779	37
119	0	0	2077	1495	1777	35
120	0	0	2053	1494	1772	33
121	0	0	2038	1493	1758	35
122	0	0	2010	1491	1752	36
123	0	0	2007	1491	1750	35
124	0	0	2016	1494	1755	35
125	0	0	2021	1494	1763	38
126	0	0	1997	1491	1770	36
127	0	0	1980	1495	1777	35
0	0	0	1988	1495	1780	34
1	0	0	2030	1496	1780	38
2	0	0	2092	1495	1773	39
3	0	0	2104	1496	1760	38
4	0	0	2080	1493	1754	39
5	0	0	2051	1495	1754	35
6	0	0	2038	1495	1756	35
7	0	0	2019	1496	1764	34
8	0	0	2011	1496	1771	35
9	0	0	2009	1496	1777	35
10	0	0	1989	1492	1779	33
11	0	0	1969	1494	1777	32
12	0	0	1932	1491	1772	34
13	0	0	1900	1492	1759	33
14	0	0	1923	1496	1750	32
15	0	0	1949	1494	1752	34
16	0	0	1971	1494	1754	32
17	0	0	1994	1494	1763	35
18	0	0	2007	1495	1770	37
19	0	0	2019	1494	1778	38
20	0	0	2029	1495	1781	39
21	0	0	2050	1496	1778	39
22	0	0	2072	1497	1774	35
23	0	0	2076	1497	1761	38
24	0	0	2072	1498	1753	36
25	0	0	2064	1497	1753	34
26	0	0	2061	1497	1756	34
27	0	0	2028	1494	1765	34
28	0	0	1986	1495	1772	33
29	0	0	2009	1496	1777	34
30	0	0	2083	1495	1780	33
31	0	0	2118	1493	1779	32
32	0	0	2112	1495	1773	34
33	0	0	2095	1493	1759	34
34	0	0	2065	1491	1752	34
35	0	0	2023	1491	1752	38
36	0	0	1993	1493	1756	37
37	0	0	1990	1493	1763	38
38	0	0	1996	1494	1771	38
39	0	0	1995	1497	1777	35
40	0	0	2016	1495	1781	36
41	0	0	1997	1494	1781	35
42	0	0	1992	1496	1775	39
43	0	0	2032	1497	1762	38
44	0	0	2072	1497	1755	39
45	0	0	2086	1499	1755	35
46	0	0	2094	1498	1760	35
47	0	0	2107	1495	1764	34
48	0	0	2103	1497	1772	35
49	0	0	2078	1494	1778	35
50	0	0	2044	1495	1781	34
51	0	0	2029	1495	1780	34
52	0	0	2020	1496	1774	34
53	0	0	2027	1495	1760	33
54	0	0	2054	1494	1753	33
55	0	0	2089	1494	1751	36
56	0	0	2093	1493	1758	35
57	0	0	2066	1490	1764	36
58	0	0	2041	1492	1772	38
59	0	0	2032	1495	1778	38
60	0	0	2051	1495	1782	39
61	0	0	2103	1496	1780	38
62	0	0	2177	1495	1775	40
63	0	0	2216	1497	1763	32
64	0	0	2234	1497	1756	35
65	0	0	2205	1493	1755	34
66	0	0	2177	1496	1759	36
67	0	0	2159	1493	1766	33
68	0	0	2104	1494	1773	35
69	0	0	2056	1497	1779	34
70	0	0	2046	1495	1782	35
71	0	0	2009	1493	1781	34
72	0	0	1997	1497	1774	33
73	0	0	2013	1495	1762	32
74	0	0	2036	1495	1753	33
75	0	0	2060	1495	1753	31
76	0	0	2073	1494	1758	34
77	0	0	2077	1492	1766	34
78	0	0	2076	1494	1773	35
79	0	0	2073	1495	1779	35
80	0	0	2083	1495	1783	35
81	0	0	2103	1496	1783	36
82	0	0	2156	1495	1776	35
83	0	0	2201	1497	1764	35
84	0	0	2220	1499	1756	34
85	0	0	2219	1499	1755	34
86	0	0	2205	1496	1760	35
87	0	0	2191	1496	1767	34
88	0	0	2174	1497	1774	35
89	0	0	2182	1497	1779	34
90	0	0	2204	1498	1781	34
91	0	0	2181	1493	1782	35
92	0	0	2128	1493	1776	34
93	0	0	2068	1492	1762	33
94	0	0	2031	1494	1755	34
95	0	0	2045	1494	1755	31
96	0	0	2065	1494	1759	35
97	0	0	2081	1494	1766	35
98	0	0	2071	1492	1774	37
99	0	0	2050	1495	1780	35
100	0	0	2074	1495	1783	36
101	0	0	2126	1496	1784	37
102	0	0	2176	1496	1777	35
103	0	0	2203	1496	1765	36
104	0	0	2242	1497	1758	36
105	0	0	2295	1497	1757	32
106	0	0	2324	1497	1759	34
107	0	0	2307	1494	1767	34
108	0	0	2266	1495	1775	35
109	0	0	2230	1495	1780	34
110	0	0	2199	1493	1783	35
111	0	0	2161	1493	1783	33
112	0	0	2141	1496	1776	34
113	0	0	2139	1493	1764	32
114	0	0	2139	1494	1755	34
115	0	0	2164	1493	1755	32
116	0	0	2168	1491	1759	35
117	0	0	2121	1490	1766	35
118	0	0	2095	1491	1774	36
119	0	0	2059	1493	1780	34
120	0	0	2029	1494	1784	32
121	0	0	2045	1495	1783	36
122	0	0	2090	1496	1778	36
123	0	0	2120	1496	1765	35
124	0	0	2139	1498	1758	35
125	0	0	2171	1496	1757	35
126	0	0	2231	1497	1762	35
127	0	0	2291	1496	1768	35
0	0	0	2320	1497	1775	35
1	0	0	2338	1495	1782	34
2	0	0	2338	1496	1784	33
3	0	0	2346	1494	1783	34
4	0	0	2351	1496	1777	34
5	0	0	2308	1491	1764	34
6	0	0	2263	1493	1756	34
7	0	0	2246	1493	1756	40
8	0	0	2241	1494	1761	35
9	0	0	2268	1494	1767	35
10	0	0	2307	1494	1775	36
11	0	0	2333	1494	1781	35
12	0	0	2345	1496	1785	35
13	0	0	2333	1494	1785	35
14	0	0	2290	1492	1779	36
15	0	0	2266	1497	1767	35
16	0	0	2300	1496	1759	36
17	0	0	2313	1497	1758	35
18	0	0	2268	1494	1763	36
19	0	0	2203	1494	1769	34
20	0	0	2171	1497	1776	34
21	0	0	2170	1497	1781	34
22	0	0	2168	1496	1785	40
23	0	0	2148	1495	1785	35
24	0	0	2148	1495	1778	35
25	0	0	2176	1495	1765	33
26	0	0	2211	1493	1757	32
27	0	0	2224	1494	1756	38
28	0	0	2225	1492	1761	35
29	0	0	2230	1494	1768	36
30	0	0	2254	1494	1775	36
31	0	0	2273	1495	1781	38
32	0	0	2278	1494	1785	40
33	0	0	2270	1495	1785	36
34	0	0	2271	1496	1780	36
35	0	0	2285	1498	1767	35
36	0	0	2296	1495	1760	36
37	0	0	2296	1498	1759	39
38	0	0	2251	1493	1761	36
39	0	0	2226	1496	1769	35
40	0	0	2235	1498	1776	34
41	0	0	2244	1498	1781	31
42	0	0	2242	1495	1785	40
43	0	0	2191	1491	1784	34
44	0	0	2129	1492	1779	34
45	0	0	2120	1493	1765	34
46	0	0	2124	1493	1757	34
47	0	0	2124	1494	1756	34
48	0	0	2106	1491	1760	34
49	0	0	2092	1493	1769	35
50	0	0	2099	1493	1776	35
51	0	0	2100	1494	1782	35
52	0	0	2110	1494	1786	37
53	0	0	2149	1496	1786	37
54	0	0	2177	1496	1781	35
55	0	0	2197	1496	1768	31
56	0	0	2202	1496	1761	35
57	0	0	2164	1494	1760	33
58	0	0	2133	1495	1764	34
59	0	0	2104	1494	1770	35
60	0	0	2061	1494	1777	35
61	0	0	2048	1497	1783	35
62	0	0	2066	1496	1786	35
63	0	0	2096	1497	1785	34
64	0	0	2054	1491	1780	34
65	0	0	1980	1491	1766	34
66	0	0	1950	1490	1760	32
67	0	0	1955	1494	1757	33
68	0	0	1979	1493	1761	33
69	0	0	1996	1493	1768	34
70	0	0	2027	1494	1776	34
71	0	0	2074	1494	1783	35
72	0	0	2099	1495	1786	36
73	0	0	2110	1496	1787	36
74	0	0	2089	1494	1781	36
75	0	0	2071	1495	1769	35
76	0	0	2050	1493	1762	34
77	0	0	2017	1494	1760	34
78	0	0	1990	1496	1764	33
79	0	0	1988	1497	1770	34
80	0	0	1987	1496	1777	34
81	0	0	1996	1496	1784	34
82	0	0	1977	1495	1786	32
83	0	0	1958	1492	1785	33
84	0	0	1921	1491	1780	33
85	0	0	1925	1494	1767	32
86	0	0	1956	1494	1759	34
87	0	0	1970	1494	1758	34
88	0	0	1992	1493	1763	34
89	0	0	1981	1491	1768	35
90	0	0	1936	1491	1777	35
91	0	0	1899	1490	1785	37
92	0	0	1885	1495	1787	35
93	0	0	1914	1495	1787	35
94	0	0	1946	1495	1781	34
95	0	0	1985	1496	1770	36
96	0	0	1996	1498	1762	34
97	0	0	2005	1497	1762	34
98	0	0	1985	1494	1764	34
99	0	0	1979	1497	1770	36
100	0	0	2006	1496	1778	33
101	0	0	1982	1493	1784	35
102	0	0	1937	1493	1787	34
103	0	0	1927	1495	1788	35
104	0	0	1933	1494	1780	34
105	0	0	1939	1494	1768	33
106	0	0	1927	1491	1760	32
107	0	0	1919	1492	1758	34
108	0	0	1966	1495	1763	33
109	0	0	2009	1491	1769	35
110	0	0	2030	1493	1777	35
111	0	0	2035	1493	1784	35
112	0	0	2003	1491	1789	37
113	0	0	1976	1494	1788	36
114	0	0	1951	1492	1781	36
115	0	0	1939	1496	1771	35
116	0	0	1955	1496	1763	35
117	0	0	1971	1497	1761	35
118	0	0	1974	1496	1765	34
119	0	0	1949	1494	1771	34
120	0	0	1946	1498	1779	34
121	0	0	1961	1496	1785	35
122	0	0	1949	1493	1787	35
123	0	0	1943	1495	1787	33
124	0	0	1959	1492	1781	33
125	0	0	2000	1494	1768	34
126	0	0	2028	1495	1760	32
127	0	0	2006	1489	1759	33
0	0	0	1970	1489	1764	34
1	0	0	1920	1490	1770	35
2	0	0	1904	1493	1778	31
3	0	0	1922	1494	1785	36
4	0	0	1969	1494	1789	37
5	0	0	2016	1495	1789	36
6	0	0	2051	1495	1783	37
7	0	0	2074	1496	1772	37
8	0	0	2080	1498	1763	34
9	0	0	2064	1494	1763	32
10	0	0	2027	1493	1766	32
11	0	0	1986	1494	1773	34
12	0	0	1958	1494	1779	33
13	0	0	1956	1497	1785	35
14	0	0	1981	1496	1789	35
15	0	0	2013	1495	1788	34
16	0	0	2030	1494	1782	34
17	0	0	2051	1495	1770	32
18	0	0	2024	1490	1761	33
19	0	0	1963	1489	1760	32
20	0	0	1949	1494	1764	31
21	0	0	1968	1491	1770	36
22	0	0	1983	1493	1778	35
23	0	0	1988	1493	1785	36
24	0	0	1957	1491	1788	35
25	0	0	1943	1495	1790	34
26	0	0	1954	1496	1785	36
27	0	0	1934	1493	1772	35
28	0	0	1934	1496	1765	35
29	0	0	1958	1497	1763	34
30	0	0	1977	1497	1766	35
31	0	0	2020	1496	1773	36
32	0	0	2074	1495	1779	35
33	0	0	2041	1493	1784	34
34	0	0	1997	1492	1788	34
35	0	0	1993	1495	1788	35
36	0	0	1968	1491	1783	34
37	0	0	1943	1490	1770	32
38	0	0	1910	1491	1761	33
39	0	0	1892	1491	1760	32
40	0	0	1891	1492	1765	34
41	0	0	1894	1493	1772	35
42	0	0	1922	1494	1779	35
43	0	0	1957	1493	1786	36
44	0	0	1983	1494	1790	34
45	0	0	2029	1496	1790	33
46	0	0	2059	1495	1785	36
47	0	0	2051	1494	1773	31
48	0	0	2037	1496	1764	35
49	0	0	2035	1497	1764	34
50	0	0	2040	1496	1767	34
51	0	0	2048	1497	1773	35
52	0	0	2040	1494	1779	35
53	0	0	2002	1493	1786	35
54	0	0	1977	1493	1789	35
55	0	0	1953	1492	1789	34
56	0	0	1916	1491	1785	34
57	0	0	1908	1494	1771	32
58	0	0	1921	1493	1762	34
59	0	0	1984	1492	1762	34
60	0	0	2057	1493	1766	35
61	0	0	2041	1490	1772	36
62	0	0	2014	1494	1780	36
63	0	0	2040	1494	1786	36
64	0	0	2085	1494	1790	37
65	0	0	2117	1494	1790	36
66	0	0	2119	1495	1786	37
67	0	0	2117	1495	1773	36
68	0	0	2127	1495	1764	35
69	0	0	2107	1493	1764	34
70	0	0	2065	1494	1767	37
71	0	0	2052	1496	1774	36
72	0	0	2038	1495	1780	34
73	0	0	2027	1496	1786	35
74	0	0	2045	1495	1789	35
75	0	0	2084	1495	1789	34
76	0	0	2086	1492	1785	34
77	0	0	2045	1491	1772	33
78	0	0	1995	1489	1762	33
79	0	0	1984	1494	1761	33
80	0	0	1998	1493	1765	34
81	0	0	1981	1491	1773	36
82	0	0	1979	1493	1780	35
83	0	0	2006	1493	1786	36
84	0	0	2041	1494	1791	37
85	0	0	2084	1495	1790	35
86	0	0	2103	1495	1785	36
87	0	0	2074	1492	1773	36
88	0	0	2054	1495	1765	33
89	0	0	2044	1496	1764	35
90	0	0	2026	1494	1767	35
91	0	0	2001	1496	1774	35
92	0	0	2025	1495	1780	34
93	0	0	2049	1496	1786	35
94	0	0	2022	1493	1789	35
95	0	0	1998	1494	1790	37
96	0	0	1999	1494	1786	35
97	0	0	2011	1493	1771	33
98	0	0	1993	1490	1762	33
99	0	0	1960	1490	1762	34
100	0	0	1957	1493	1765	33
101	0	0	1971	1492	1772	35
102	0	0	2000	1493	1779	35
103	0	0	2055	1494	1786	35
104	0	0	2098	1494	1791	38
105	0	0	2107	1494	1791	39
106	0	0	2124	1495	1786	36
107	0	0	2144	1495	1774	38
108	0	0	2153	1496	1765	34
109	0	0	2102	1492	1764	34
110	0	0	2032	1492	1766	35
111	0	0	1960	1492	1774	35
112	0	0	1901	1493	1780	35
113	0	0	1884	1495	1786	35
114	0	0	1882	1495	1790	36
115	0	0	1908	1495	1789	35
116	0	0	1922	1494	1785	34
117	0	0	1933	1493	1772	33
118	0	0	1947	1493	1762	34
119	0	0	1974	1492	1762	33
120	0	0	1984	1494	1765	35
121	0	0	1990	1493	1770	35
122	0	0	1997	1493	1779	36
123	0	0	2009	1493	1786	36
124	0	0	2017	1494	1790	36
125	0	0	2032	1494	1791	36
126	0	0	2074	1494	1785	35
127	0	0	2091	1496	1774	36
0	0	0	2074	1496	1764	35
1	0	0	2073	1495	1763	35
2	0	0	2099	1496	1767	34
3	0	0	2114	1495	1771	35
4	0	0	2123	1496	1780	34
5	0	0	2113	1494	1786	35
6	0	0	2078	1492	1789	35
7	0	0	2052	1493	1789	35
8	0	0	2037	1495	1783	34
9	0	0	2035	1493	1772	33
10	0	0	2022	1491	1763	32
11	0	0	1998	1491	1760	33
12	0	0	2003	1492	1765	33
13	0	0	2032	1492	1771	33
14	0	0	2037	1493	1779	34
15	0	0	2040	1493	1786	35
16	0	0	2060	1494	1790	36
17	0	0	2082	1494	1790	36
18	0	0	2101	1495	1784	35
19	0	0	2123	1494	1773	36
20	0	0	2137	1495	1765	35
21	0	0	2123	1492	1763	37
22	0	0	2070	1492	1766	33
23	0	0	2031	1494	1772	35
24	0	0	2039	1495	1779	34
25	0	0	2037	1495	1785	34
26	0	0	2028	1496	1789	36
27	0	0	2050	1494	1789	33
28	0	0	2047	1493	1785	34
29	0	0	2031	1492	1771	36
30	0	0	2019	1491	1763	34
31	0	0	1992	1489	1760	33
32	0	0	1952	1489	1764	32
33	0	0	1968	1492	1772	34
34	0	0	2025	1492	1779	35
35	0	0	2052	1493	1786	36
36	0	0	2034	1493	1789	36
37	0	0	2035	1493	1791	34
38	0	0	2039	1495	1784	37
39	0	0	2025	1492	1773	36
40	0	0	2018	1494	1765	35
41	0	0	2029	1496	1763	35
42	0	0	2042	1496	1767	35
43	0	0	2034	1496	1772	34
44	0	0	2030	1496	1780	35
45	0	0	2024	1495	1786	35
46	0	0	2012	1495	1790	35
47	0	0	2007	1494	1789	34
48	0	0	2022	1493	1784	33
49	0	0	2036	1493	1772	33
50	0	0	2053	1491	1763	34
51	0	0	2049	1492	1760	32
52	0	0	2043	1493	1765	32
53	0	0	2051	1492	1770	36
54	0	0	2057	1492	1779	36
55	0	0	2077	1493	1786	37
56	0	0	2104	1492	1790	37
57	0	0	2097	1493	1791	34
58	0	0	2084	1495	1785	35
59	0	0	2073	1493	1775	36
60	0	0	2032	1490	1766	35
61	0	0	1981	1493	1762	34
62	0	0	1955	1496	1767	32
63	0	0	1976	1495	1772	35
64	0	0	1982	1494	1779	33
65	0	0	1952	1493	1787	35
66	0	0	1951	1494	1789	35
67	0	0	1981	1493	1789	36
68	0	0	1986	1494	1785	35
69	0	0	1961	1491	1772	34
70	0	0	1971	1491	1763	34
71	0	0	2021	1489	1761	30
72	0	0	2067	1492	1765	34
73	0	0	2112	1492	1772	35
74	0	0	2147	1493	1779	35
75	0	0	2161	1492	1786	38
76	0	0	2112	1490	1789	36
77	0	0	2068	1491	1791	34
78	0	0	2044	1492	1786	37
79	0	0	2037	1495	1775	36
80	0	0	2026	1492	1765	35
81	0	0	2007	1496	1764	36
82	0	0	2022	1495	1767	36
83	0	0	2039	1495	1772	34
84	0	0	2067	1495	1780	35
85	0	0	2107	1495	1786	34
86	0	0	2124	1495	1790	36
87	0	0	2127	1493	1790	36
88	0	0	2130	1494	1786	34
89	0	0	2139	1491	1773	35
90	0	0	2081	1488	1764	36
91	0	0	1979	1489	1762	34
92	0	0	1922	1490	1766	36
93	0	0	1926	1491	1771	35
94	0	0	1944	1491	1780	35
95	0	0	1950	1492	1787	36
96	0	0	1993	1495	1791	36
97	0	0	2055	1494	1792	35
98	0	0	2107	1493	1787	35
99	0	0	2130	1496	1775	36
100	0	0	2092	1491	1765	34
101	0	0	2071	1496	1765	32
102	0	0	2072	1495	1766	38
103	0	0	2088	1496	1774	35
104	0	0	2109	1495	1780	35
105	0	0	2101	1493	1786	35
106	0	0	2063	1493	1790	36
107	0	0	2050	1494	1791	34
108	0	0	2062	1494	1786	33
109	0	0	2072	1494	1772	36
110	0	0	2046	1488	1764	32
111	0	0	1992	1489	1762	33
112	0	0	1972	1491	1767	34
113	0	0	1979	1491	1773	34
114	0	0	1988	1493	1779	34
115	0	0	2002	1492	1788	35
116	0	0	2023	1494	1792	36
117	0	0	2057	1494	1792	36
118	0	0	2103	1495	1788	36
119	0	0	2130	1494	1776	33
120	0	0	2129	1495	1766	35
121	0	0	2119	1496	1764	35
122	0	0	2121	1496	1768	36
123	0	0	2119	1495	1774	36
124	0	0	2122	1494	1781	35
125	0	0	2115	1495	1788	35
126	0	0	2112	1495	1791	37
127	0	0	2114	1494	1791	36
0	0	0	2116	1493	1786	35
1	0	0	2076	1489	1773	33
2	0	0	2031	1488	1765	33
3	0	0	1974	1490	1764	33
4	0	0	1906	1488	1767	35
5	0	0	1891	1491	1773	35
6	0	0	1920	1492	1781	36
7	0	0	1967	1492	1788	39
8	0	0	2004	1495	1792	34
9	0	0	2017	1494	1793	34
10	0	0	2038	1494	1788	35
11	0	0	2059	1494	1777	36
12	0	0	2066	1494	1768	34
13	0	0	2069	1496	1766	36
14	0	0	2041	1492	1769	35
15	0	0	1992	1492	1775	35
16	0	0	1987	1496	1782	34
17	0	0	1998	1495	1788	35
18	0	0	2012	1495	1793	32
19	0	0	2031	1494	1792	37
20	0	0	2001	1490	1788	35
21	0	0	2010	1493	1776	33
22	0	0	2054	1492	1767	33
23	0	0	2102	1490	1764	31
24	0	0	2136	1492	1767	35
25	0	0	2116	1488	1773	36
26	0	0	2078	1489	1781	35
27	0	0	2058	1490	1788	36
28	0	0	2063	1494	1793	35
29	0	0	2090	1493	1793	37
30	0	0	2104	1494	1789	36
31	0	0	2129	1494	1778	36
32	0	0	2143	1491	1768	34
33	0	0	2116	1494	1767	35
34	0	0	2072	1493	1770	35
35	0	0	2066	1495	1775	35
36	0	0	2058	1495	1783	34
37	0	0	2043	1492	1789	35
38	0	0	2016	1492	1793	31
39	0	0	1995	1492	1793	35
40	0	0	1991	1492	1789	36
41	0	0	1999	1492	1776	34
42	0	0	2000	1491	1767	32
43	0	0	1979	1491	1765	34
44	0	0	1984	1492	1768	31
45	0	0	1995	1492	1774	36
46	0	0	2011	1492	1783	35
47	0	0	2032	1493	1790	37
48	0	0	2052	1492	1794	36
49	0	0	2088	1494	1794	35
50	0	0	2117	1494	1789	37
51	0	0	2102	1493	1779	36
52	0	0	2099	1496	1769	35
53	0	0	2097	1494	1769	34
54	0	0	2103	1493	1771	35
55	0	0	2081	1492	1775	32
56	0	0	2066	1494	1783	35
57	0	0	2074	1495	1790	35
58	0	0	2104	1493	1793	31
59	0	0	2119	1493	1794	31
60	0	0	2107	1493	1789	36
61	0	0	2106	1491	1775	34
62	0	0	2111	1492	1767	34
63	0	0	2105	1492	1766	34
64	0	0	2057	1488	1769	35
65	0	0	2005	1489	1775	34
66	0	0	2018	1491	1784	35
67	0	0	2060	1493	1790	36
68	0	0	2100	1493	1795	32
69	0	0	2107	1493	1796	35
70	0	0	2107	1493	1791	34
71	0	0	2103	1494	1780	36
72	0	0	2100	1494	1770	36
73	0	0	2105	1493	1768	35
74	0	0	2097	1495	1771	35
75	0	0	2074	1491	1776	34
76	0	0	2059	1495	1784	35
77	0	0	2082	1491	1790	34
78	0	0	2102	1493	1794	34
79	0	0	2121	1493	1795	34
80	0	0	2119	1492	1789	35
81	0	0	2086	1489	1778	35
82	0	0	2062	1490	1768	35
83	0	0	2056	1490	1766	31
84	0	0	2051	1491	1770	33
85	0	0	2048	1491	1776	32
86	0	0	2056	1491	1784	35
87	0	0	2077	1492	1791	39
88	0	0	2093	1492	1795	38
89	0	0	2100	1492	1796	32
90	0	0	2109	1493	1792	34
91	0	0	2122	1493	1780	35
92	0	0	2139	1494	1771	36
93	0	0	2144	1494	1768	35
94	0	0	2119	1490	1772	35
95	0	0	2083	1493	1778	34
96	0	0	2081	1494	1785	35
97	0	0	2094	1493	1791	36
98	0	0	2086	1489	1795	33
99	0	0	2049	1491	1795	32
100	0	0	2049	1492	1790	36
101	0	0	2073	1492	1779	33
102	0	0	2077	1492	1769	34
103	0	0	2088	1487	1768	34
104	0	0	2107	1491	1771	35
105	0	0	2080	1487	1776	35
106	0	0	2040	1490	1784	36
107	0	0	2031	1491	1791	39
108	0	0	2040	1492	1797	36
109	0	0	2052	1493	1796	34
110	0	0	2076	1492	1792	34
111	0	0	2108	1493	1781	36
112	0	0	2130	1496	1772	36
113	0	0	2140	1493	1769	35
114	0	0	2169	1495	1773	36
115	0	0	2199	1494	1778	34
116	0	0	2193	1493	1785	35
117	0	0	2189	1494	1792	33
118	0	0	2186	1493	1796	34
119	0	0	2156	1487	1796	34
120	0	0	2104	1489	1791	34
121	0	0	2085	1492	1780	34
122	0	0	2097	1492	1770	34
123	0	0	2103	1489	1768	33
124	0	0	2120	1491	1771	32
125	0	0	2070	1487	1776	35
126	0	0	2018	1487	1784	36
127	0	0	2012	1492	1792	35
0	0	0	2044	1490	1795	31
1	0	0	2094	1493	1797	32
2	0	0	2115	1493	1793	34
3	0	0	2124	1494	1783	36
4	0	0	2131	1490	1772	34
5	0	0	2121	1493	1770	35
6	0	0	2120	1494	1773	35
7	0	0	2089	1490	1778	36
8	0	0	2043	1491	1786	35
9	0	0	1977	1490	1792	33
10	0	0	1958	1492	1795	31
11	0	0	1970	1492	1796	35
12	0	0	1995	1490	1792	32
13	0	0	2010	1491	1781	34
14	0	0	2017	1490	1771	34
15	0	0	2017	1489	1768	32
16	0	0	2021	1491	1771	33
17	0	0	2026	1490	1777	32
18	0	0	1994	1488	1786	35
19	0	0	1978	1492	1793	35
20	0	0	1992	1490	1797	35
21	0	0	2023	1492	1798	36
22	0	0	2041	1491	1794	31
23	0	0	2043	1494	1783	37
24	0	0	2060	1493	1773	35
25	0	0	2068	1493	1771	33
26	0	0	2057	1493	1774	37
27	0	0	2018	1491	1779	34
28	0	0	1973	1490	1786	37
29	0	0	1962	1493	1793	32
30	0	0	1971	1491	1796	32
31	0	0	1957	1493	1797	32
32	0	0	1932	1487	1792	34
33	0	0	1899	1489	1780	33
34	0	0	1910	1491	1771	33
35	0	0	1926	1491	1769	34
36	0	0	1948	1490	1771	35
37	0	0	1975	1490	1778	34
38	0	0	1996	1490	1786	37
39	0	0	2022	1490	1792	35
40	0	0	2029	1490	1798	35
41	0	0	2025	1493	1799	36
42	0	0	2036	1492	1794	35
43	0	0	2062	1493	1784	37
44	0	0	2084	1493	1774	35
45	0	0	2091	1493	1771	35
46	0	0	2101	1495	1774	38
47	0	0	2091	1493	1780	36
48	0	0	2057	1489	1787	35
49	0	0	2003	1489	1794	32
50	0	0	1950	1490	1798	34
51	0	0	1935	1492	1798	35
52	0	0	1966	1491	1793	32
53	0	0	1996	1490	1782	32
54	0	0	1959	1487	1771	34
55	0	0	1923	1489	1770	34
56	0	0	1939	1490	1773	35
57	0	0	1954	1489	1779	36
58	0	0	1962	1489	1786	35
59	0	0	1983	1489	1793	33
60	0	0	1997	1491	1798	32
61	0	0	2016	1493	1799	35
62	0	0	2046	1492	1795	34
63	0	0	2044	1490	1784	31
64	0	0	2018	1490	1774	36
65	0	0	1993	1490	1772	33
66	0	0	1962	1491	1774	35
67	0	0	1953	1493	1780	35
68	0	0	1963	1492	1787	35
69	0	0	1965	1491	1794	32
70	0	0	1943	1489	1798	34
71	0	0	1924	1491	1798	33
72	0	0	1927	1491	1794	34
73	0	0	1901	1487	1783	34
74	0	0	1907	1489	1773	36
75	0	0	1939	1489	1771	35
76	0	0	1966	1490	1773	36
77	0	0	2009	1489	1778	37
78	0	0	2070	1489	1787	36
79	0	0	2122	1489	1794	35
80	0	0	2171	1488	1798	36
81	0	0	2233	1491	1799	35
82	0	0	2308	1491	1795	36
83	0	0	2372	1493	1785	36
84	0	0	2435	1492	1775	40
85	0	0	2483	1494	1772	36
86	0	0	2514	1492	1775	36
87	0	0	2545	1495	1781	35
88	0	0	2591	1491	1787	35
89	0	0	2627	1492	1796	34
90	0	0	2649	1492	1799	33
91	0	0	2657	1491	1799	33
92	0	0	2662	1491	1794	36
93	0	0	2654	1488	1784	34
94	0	0	2583	1487	1773	35
95	0	0	2511	1484	1771	35
96	0	0	2466	1486	1774	35
97	0	0	2416	1486	1780	37
98	0	0	2385	1487	1787	35
99	0	0	2375	1490	1795	32
100	0	0	2364	1491	1799	36
101	0	0	2343	1488	1799	36
102	0	0	2316	1490	1795	38
103	0	0	2317	1492	1784	37
104	0	0	2350	1493	1775	36
105	0	0	2376	1494	1773	36
106	0	0	2348	1490	1775	35
107	0	0	2307	1489	1781	35
108	0	0	2266	1489	1788	35
109	0	0	2210	1488	1795	31
110	0	0	2147	1487	1799	34
111	0	0	2083	1486	1799	34
112	0	0	1989	1486	1795	35
113	0	0	1927	1487	1784	34
114	0	0	1899	1486	1774	36
115	0	0	1875	1488	1771	36
116	0	0	1856	1487	1773	35
117	0	0	1861	1489	1779	35
118	0	0	1882	1490	1787	35
119	0	0	1897	1490	1794	34
120	0	0	1884	1489	1799	40
121	0	0	1856	1489	1800	35
122	0	0	1853	1491	1796	37
123	0	0	1919	1491	1786	37
124	0	0	1960	1493	1776	35
125	0	0	1948	1491	1773	39
126	0	0	1942	1491	1776	38
127	0	0	1910	1490	1781	36
0	0	0	1909	1492	1788	36
1	0	0	1914	1492	1795	34
2	0	0	1922	1492	1799	36
3	0	0	1921	1491	1799	33
4	0	0	1896	1487	1796	35
5	0	0	1870	1488	1784	31
6	0	0	1880	1490	1774	35
7	0	0	1907	1487	1771	34
8	0	0	1932	1488	1774	35
9	0	0	1961	1488	1778	35
10	0	0	1983	1489	1787	37
11	0	0	2011	1490	1795	35
12	0	0	2031	1490	1799	40
13	0	0	1987	1487	1800	35
14	0	0	1940	1486	1797	35
15	0	0	1929	1491	1786	36
16	0	0	1963	1492	1776	35
17	0	0	1961	1490	1774	36
18	0	0	1932	1490	1776	35
19	0	0	1924	1493	1782	35
20	0	0	1939	1492	1788	35
21	0	0	1995	1491	1795	33
22	0	0	2017	1491	1799	34
23	0	0	1988	1487	1799	34
24	0	0	1949	1488	1796	34
25	0	0	1909	1488	1785	34
26	0	0	1881	1487	1774	31
27	0	0	1896	1490	1771	32
28	0	0	1954	1487	1775	34
29	0	0	2017	1488	1780	35
30	0	0	2020	1489	1788	36
31	0	0	2004	1490	1795	35
32	0	0	2004	1490	1799	35
33	0	0	2016	1490	1801	35
34	0	0	2026	1491	1797	34
35	0	0	2037	1490	1786	36
36	0	0	2045	1491	1776	36
37	0	0	2036	1490	1772	39
38	0	0	2032	1492	1776	32
39	0	0	2020	1494	1782	35
40	0	0	2021	1494	1788	36
41	0	0	2014	1489	1795	35
42	0	0	1976	1488	1799	33
43	0	0	1946	1490	1800	33
44	0	0	1948	1490	1796	32
45	0	0	1937	1490	1786	35
46	0	0	1921	1486	1773	35
47	0	0	1904	1485	1772	34
48	0	0	1906	1487	1774	36
49	0	0	1936	1488	1780	33
50	0	0	1955	1488	1789	37
51	0	0	1965	1489	1795	32
52	0	0	1992	1490	1800	36
53	0	0	2035	1490	1801	36
54	0	0	2065	1490	1797	34
55	0	0	2069	1492	1787	36
56	0	0	2057	1492	1778	35
57	0	0	2060	1493	1774	34
58	0	0	2073	1491	1776	36
59	0	0	2082	1491	1781	33
60	0	0	2080	1492	1788	36
61	0	0	2082	1492	1795	35
62	0	0	2096	1487	1800	34
63	0	0	2090	1489	1800	36
64	0	0	2072	1489	1796	32
65	0	0	2050	1487	1786	34
66	0	0	2003	1486	1775	36
67	0	0	1974	1486	1772	35
68	0	0	1974	1488	1774	36
69	0	0	1999	1488	1780	34
70	0	0	2025	1490	1788	37
71	0	0	2052	1489	1795	35
72	0	0	2044	1487	1800	34
73	0	0	2050	1489	1801	36
74	0	0	2072	1490	1797	34
75	0	0	2094	1492	1787	35
76	0	0	2097	1492	1778	36
77	0	0	2067	1487	1774	35
78	0	0	2014	1487	1776	35
79	0	0	1976	1490	1782	36
80	0	0	1988	1491	1789	36
81	0	0	2016	1492	1796	34
82	0	0	2026	1492	1800	34
83	0	0	2008	1488	1800	35
84	0	0	2004	1490	1797	33
85	0	0	2031	1490	1786	34
86	0	0	2060	1489	1774	31
87	0	0	2066	1490	1772	32
88	0	0	2078	1488	1774	35
89	0	0	2121	1488	1780	35
90	0	0	2161	1490	1787	35
91	0	0	2150	1485	1794	31
92	0	0	2089	1486	1800	35
93	0	0	2048	1487	1802	36
94	0	0	2049	1490	1797	34
95	0	0	2054	1491	1786	36
96	0	0	2048	1491	1777	35
97	0	0	2046	1487	1775	36
98	0	0	2031	1490	1776	35
99	0	0	2018	1492	1782	35
100	0	0	2018	1491	1788	35
101	0	0	2009	1491	1795	32
102	0	0	2002	1491	1799	34
103	0	0	2013	1491	1800	32
104	0	0	2010	1489	1796	32
105	0	0	2014	1490	1787	31
106	0	0	2016	1488	1774	32
107	0	0	2009	1485	1772	35
108	0	0	1994	1487	1775	34
109	0	0	1965	1485	1780	36
110	0	0	1941	1487	1789	37
111	0	0	1949	1489	1794	35
112	0	0	1997	1488	1799	35
113	0	0	2045	1490	1801	38
114	0	0	2084	1489	1797	36
115	0	0	2112	1489	1788	36
116	0	0	2145	1491	1777	35
117	0	0	2144	1489	1774	35
118	0	0	2110	1489	1776	35
119	0	0	2072	1488	1782	35
120	0	0	2030	1487	1788	35
121	0	0	2029	1491	1795	34
122	0	0	2083	1491	1799	34
123	0	0	2146	1491	1800	35
124	0	0	2143	1487	1795	35
125	0	0	2115	1485	1785	35
126	0	0	2071	1483	1774	34
127	0	0	2019	1485	1772	34
0	0	0	1997	1486	1775	37
1	0	0	1986	1487	1781	31
2	0	0	2000	1488	1788	37
3	0	0	2046	1486	1795	35
4	0	0	2093	1489	1800	36
5	0	0	2135	1490	1801	36
6	0	0	2168	1490	1796	40
7	0	0	2176	1489	1788	37
8	0	0	2134	1485	1778	36
9	0	0	2072	1488	1774	34
10	0	0	2074	1491	1776	35
11	0	0	2121	1492	1781	31
12	0	0	2147	1491	1788	35
13	0	0	2151	1491	1795	32
14	0	0	2162	1488	1800	37
15	0	0	2122	1488	1800	35
16	0	0	2095	1488	1796	31
17	0	0	2091	1489	1786	35
18	0	0	2090	1487	1775	34
19	0	0	2099	1488	1772	36
20	0	0	2126	1488	1774	36
21	0	0	2127	1486	1781	35
22	0	0	2092	1486	1788	37
23	0	0	2102	1488	1795	34
24	0	0	2129	1488	1801	36
25	0	0	2149	1489	1801	36
26	0	0	2156	1489	1798	31
27	0	0	2150	1487	1788	36
28	0	0	2137	1489	1777	35
29	0	0	2107	1490	1774	38
30	0	0	2107	1492	1776	35
31	0	0	2069	1487	1781	31
32	0	0	2061	1493	1789	35
33	0	0	2112	1490	1796	32
34	0	0	2133	1491	1800	35
35	0	0	2114	1489	1801	35
36	0	0	2093	1488	1797	31
37	0	0	2102	1491	1787	31
38	0	0	2123	1488	1775	38
39	0	0	2157	1486	1772	37
40	0	0	2154	1489	1775	34
41	0	0	2147	1487	1781	31
42	0	0	2159	1488	1788	35
43	0	0	2198	1488	1795	36
44	0	0	2210	1488	1800	36
45	0	0	2185	1487	1801	35
46	0	0	2153	1487	1798	35
47	0	0	2126	1488	1788	37
48	0	0	2109	1490	1778	34
49	0	0	2117	1491	1775	37
50	0	0	2146	1491	1776	35
51	0	0	2165	1491	1782	31
52	0	0	2159	1491	1789	36
53	0	0	2142	1487	1795	34
54	0	0	2119	1489	1800	31
55	0	0	2116	1489	1800	34
56	0	0	2140	1486	1796	33
57	0	0	2176	1489	1787	35
58	0	0	2206	1487	1775	35
59	0	0	2207	1487	1773	35
60	0	0	2201	1489	1775	34
61	0	0	2217	1487	1780	35
62	0	0	2230	1487	1788	31
63	0	0	2232	1487	1795	34
64	0	0	2198	1485	1800	37
65	0	0	2193	1491	1801	36
66	0	0	2216	1490	1798	33
67	0	0	2243	1490	1789	37
68	0	0	2229	1487	1777	36
69	0	0	2208	1489	1775	37
70	0	0	2211	1492	1777	35
71	0	0	2216	1490	1782	31
72	0	0	2232	1490	1789	36
73	0	0	2208	1489	1795	34
74	0	0	2213	1488	1800	37
75	0	0	2214	1490	1801	34
76	0	0	2207	1489	1797	32
77	0	0	2204	1488	1788	31
78	0	0	2171	1485	1776	37
79	0	0	2147	1488	1773	35
80	0	0	2154	1488	1775	36
81	0	0	2179	1487	1780	33
82	0	0	2204	1487	1788	37
83	0	0	2223	1488	1797	36
84	0	0	2229	1489	1801	35
85	0	0	2249	1489	1803	35
86	0	0	2265	1489	1799	32
87	0	0	2259	1490	1790	37
88	0	0	2283	1492	1778	37
89	0	0	2306	1490	1775	39
90	0	0	2309	1491	1777	35
91	0	0	2288	1490	1782	33
92	0	0	2289	1491	1790	35
93	0	0	2291	1492	1796	36
94	0	0	2243	1485	1801	37
95	0	0	2183	1486	1801	38
96	0	0	2159	1488	1797	35
97	0	0	2154	1489	1788	34
98	0	0	2157	1488	1776	31
99	0	0	2150	1487	1773	35
100	0	0	2150	1486	1775	35
101	0	0	2116	1484	1781	34
102	0	0	2082	1484	1788	36
103	0	0	2074	1488	1796	34
104	0	0	2103	1489	1800	33
105	0	0	2146	1488	1802	36
106	0	0	2182	1490	1799	33
107	0	0	2204	1490	1790	37
108	0	0	2208	1489	1779	36
109	0	0	2181	1487	1775	35
110	0	0	2145	1487	1776	39
111	0	0	2119	1489	1782	38
112	0	0	2125	1490	1788	39
113	0	0	2136	1490	1795	37
114	0	0	2088	1486	1800	34
115	0	0	2021	1486	1801	34
116	0	0	1981	1487	1797	32
117	0	0	1982	1489	1788	37
118	0	0	1985	1489	1777	36
119	0	0	1988	1487	1773	33
120	0	0	1993	1487	1775	36
121	0	0	1995	1488	1780	36
122	0	0	2011	1487	1788	35
123	0	0	2035	1488	1795	38
124	0	0	2020	1487	1800	34
125	0	0	2008	1487	1802	35
126	0	0	2050	1489	1799	32
127	0	0	2121	1489	1789	39
0	0	0	2156	1489	1779	36
1	0	0	2162	1491	1775	38
2	0	0	2166	1489	1777	39
3	0	0	2128	1487	1782	36
4	0	0	2072	1488	1788	36
5	0	0	2036	1488	1796	35
6	0	0	2036	1488	1801	37
7	0	0	2028	1485	1800	38
8	0	0	2003	1487	1797	36
9	0	0	1993	1488	1788	37
10	0	0	1965	1483	1776	35
11	0	0	1910	1485	1773	33
12	0	0	1878	1484	1775	35
13	0	0	1885	1487	1781	36
14	0	0	1885	1487	1788	36
15	0	0	1895	1488	1795	35
16	0	0	1890	1487	1799	36
17	0	0	1875	1485	1801	36
18	0	0	1876	1489	1799	35
19	0	0	1878	1489	1789	37
20	0	0	1888	1490	1778	35
21	0	0	1915	1491	1774	36
22	0	0	1941	1491	1776	35
23	0	0	1957	1490	1781	38
24	0	0	1945	1488	1789	39
25	0	0	1918	1488	1796	38
26	0	0	1915	1490	1799	35
27	0	0	1906	1487	1801	32
28	0	0	1891	1487	1797	33
29	0	0	1898	1488	1788	34
30	0	0	1915	1488	1776	37
31	0	0	1891	1485	1772	34
32	0	0	1878	1484	1775	35
33	0	0	1876	1486	1780	35
34	0	0	1873	1487	1788	35
35	0	0	1901	1488	1794	39
36	0	0	1928	1487	1799	36
37	0	0	1947	1488	1802	40
38	0	0	1968	1488	1799	32
39	0	0	1984	1489	1789	37
40	0	0	1996	1486	1778	36
41	0	0	1998	1490	1774	39
42	0	0	1969	1487	1777	36
43	0	0	1959	1489	1781	38
44	0	0	1970	1488	1788	36
45	0	0	1989	1489	1796	34
46	0	0	1968	1487	1799	32
47	0	0	1938	1490	1801	37
48	0	0	1912	1485	1797	38
49	0	0	1883	1484	1787	38
50	0	0	1842	1484	1776	37
51	0	0	1814	1483	1772	34
52	0	0	1808	1487	1774	35
53	0	0	1839	1487	1779	35
54	0	0	1915	1487	1788	36
55	0	0	1988	1487	1795	35
56	0	0	2033	1488	1798	36
57	0	0	2045	1488	1802	36
58	0	0	2036	1487	1798	35
59	0	0	2013	1486	1790	38
60	0	0	1990	1486	1778	35
61	0	0	1969	1486	1774	37
62	0	0	1937	1489	1776	34
63	0	0	1927	1489	1781	36
64	0	0	1944	1489	1788	38
65	0	0	1941	1487	1795	38
66	0	0	1914	1486	1800	38
67	0	0	1883	1485	1800	37
68	0	0	1839	1485	1798	34
69	0	0	1796	1484	1787	34
70	0	0	1794	1484	1776	34
71	0	0	1828	1486	1771	38
72	0	0	1870	1488	1774	35
73	0	0	1879	1485	1780	35
74	0	0	1883	1484	1786	36
75	0	0	1907	1487	1794	34
76	0	0	1947	1487	1799	38
77	0	0	1990	1489	1802	35
78	0	0	2032	1488	1798	35
79	0	0	2057	1488	1789	36
80	0	0	2039	1487	1777	35
81	0	0	2011	1486	1774	39
82	0	0	1976	1487	1776	38
83	0	0	1957	1488	1781	39
84	0	0	1955	1488	1789	39
85	0	0	1964	1489	1795	35
86	0	0	1960	1488	1799	34
87	0	0	1956	1491	1800	34
88	0	0	1946	1485	1797	36
89	0	0	1910	1481	1787	37
90	0	0	1848	1484	1775	37
91	0	0	1801	1482	1772	37
92	0	0	1792	1486	1774	35
93	0	0	1814	1486	1780	35
94	0	0	1856	1482	1786	35
95	0	0	1888	1487	1793	34
96	0	0	1895	1488	1800	37
97	0	0	1901	1490	1802	35
98	0	0	1923	1487	1798	35
99	0	0	1931	1488	1790	37
100	0	0	1935	1490	1776	36
101	0	0	1958	1487	1772	39
102	0	0	1982	1489	1776	35
103	0	0	2003	1489	1780	33
104	0	0	2040	1489	1788	35
105	0	0	2052	1487	1795	35
106	0	0	2012	1486	1799	39
107	0	0	1994	1488	1800	37
108	0	0	1976	1485	1797	36
109	0	0	1969	1487	1787	34
110	0	0	1954	1484	1775	37
111	0	0	1905	1482	1772	35
112	0	0	1888	1485	1773	35
113	0	0	1896	1485	1779	37
114	0	0	1881	1483	1786	37
115	0	0	1882	1486	1793	35
116	0	0	1892	1486	1800	35
117	0	0	1909	1486	1800	36
118	0	0	1957	1488	1798	35
119	0	0	2003	1487	1789	37
120	0	0	2034	1488	1777	37
121	0	0	2061	1489	1774	36
122	0	0	2025	1485	1775	39
123	0	0	1971	1485	1780	38
124	0	0	1949	1487	1786	38
125	0	0	1960	1489	1794	32
126	0	0	1979	1487	1799	35
127	0	0	1985	1486	1800	34
0	0	0	1980	1487	1796	33
1	0	0	2003	1486	1787	37
2	0	0	2002	1484	1775	40
3	0	0	1970	1483	1771	35
4	0	0	1943	1484	1773	35
5	0	0	1942	1485	1779	35
6	0	0	1956	1485	1786	36
7	0	0	1981	1486	1793	32
8	0	0	2043	1487	1799	35
9	0	0	2104	1486	1800	36
10	0	0	2132	1488	1797	35
11	0	0	2109	1486	1790	39
12	0	0	2071	1486	1777	36
13	0	0	2060	1488	1775	39
14	0	0	2064	1489	1775	38
15	0	0	2084	1488	1780	35
16	0	0	2097	1489	1788	37
17	0	0	2122	1488	1795	35
18	0	0	2139	1487	1798	36
19	0	0	2124	1484	1800	38
20	0	0	2061	1483	1796	36
21	0	0	2002	1482	1788	38
22	0	0	1988	1483	1775	31
23	0	0	1987	1486	1772	34
24	0	0	1995	1484	1773	35
25	0	0	2006	1484	1778	35
26	0	0	2027	1485	1786	37
27	0	0	2065	1485	1793	32
28	0	0	2080	1486	1798	34
29	0	0	2084	1486	1800	36
30	0	0	2097	1487	1798	35
31	0	0	2091	1485	1789	36
32	0	0	2052	1485	1777	34
33	0	0	2051	1488	1773	36
34	0	0	2083	1486	1774	35
35	0	0	2102	1489	1779	38
36	0	0	2118	1487	1786	38
37	0	0	2152	1488	1793	35
38	0	0	2175	1487	1798	37
39	0	0	2143	1482	1799	34
40	0	0	2109	1483	1796	33
41	0	0	2094	1486	1787	34
42	0	0	2087	1485	1775	41
43	0	0	2065	1482	1771	33
44	0	0	2024	1482	1772	35
45	0	0	2020	1485	1778	34
46	0	0	2052	1482	1785	36
47	0	0	2077	1485	1792	34
48	0	0	2049	1482	1798	35
49	0	0	2019	1484	1800	36
50	0	0	2021	1486	1797	35
51	0	0	2040	1487	1788	36
52	0	0	2060	1487	1777	31
53	0	0	2098	1488	1771	36
54	0	0	2112	1488	1774	35
55	0	0	2122	1488	1779	38
56	0	0	2101	1485	1786	38
57	0	0	2063	1484	1792	39
58	0	0	2013	1484	1797	37
59	0	0	1973	1484	1798	35
60	0	0	1954	1486	1795	34
61	0	0	1966	1487	1787	37
62	0	0	1969	1483	1774	36
63	0	0	1942	1482	1771	34
64	0	0	1931	1482	1772	35
65	0	0	1950	1484	1777	34
66	0	0	1977	1484	1785	36
67	0	0	2002	1484	1792	33
68	0	0	2044	1485	1797	36
69	0	0	2071	1487	1799	36
70	0	0	2121	1486	1796	35
71	0	0	2177	1489	1788	39
72	0	0	2163	1484	1776	31
73	0	0	2087	1483	1771	38
74	0	0	2025	1485	1773	38
75	0	0	2016	1487	1778	37
76	0	0	2015	1488	1784	35
77	0	0	2029	1486	1792	33
78	0	0	2051	1487	1797	33
79	0	0	2059	1486	1798	36
80	0	0	2035	1483	1795	37
81	0	0	2010	1483	1786	36
82	0	0	1996	1484	1774	37
83	0	0	1987	1484	1770	35
84	0	0	1991	1484	1772	35
85	0	0	2004	1484	1777	35
86	0	0	2006	1486	1784	35
87	0	0	2008	1485	1792	34
88	0	0	2003	1487	1797	35
89	0	0	2008	1485	1799	35
90	0	0	1997	1485	1796	36
91	0	0	2007	1488	1788	37
92	0	0	2036	1487	1777	37
93	0	0	2054	1488	1772	36
94	0	0	2053	1487	1773	35
95	0	0	2068	1489	1778	35
96	0	0	2092	1487	1786	38
97	0	0	2087	1489	1793	36
98	0	0	2070	1486	1796	37
99	0	0	2040	1483	1798	36
100	0	0	2007	1484	1795	34
101	0	0	1985	1483	1787	35
102	0	0	1957	1482	1774	35
103	0	0	1928	1482	1769	34
104	0	0	1923	1483	1770	35
105	0	0	1911	1483	1776	35
106	0	0	1926	1484	1783	36
107	0	0	1979	1483	1791	36
108	0	0	2033	1486	1795	34
109	0	0	2066	1485	1799	36
110	0	0	2084	1485	1796	36
111	0	0	2103	1486	1788	35
112	0	0	2101	1485	1777	37
113	0	0	2075	1486	1770	39
114	0	0	2067	1487	1773	39
115	0	0	2023	1485	1778	37
116	0	0	1985	1487	1785	37
117	0	0	1994	1488	1792	31
118	0	0	2016	1487	1797	34
119	0	0	1995	1487	1796	34
120	0	0	1967	1484	1794	36
121	0	0	1958	1486	1786	37
122	0	0	1951	1483	1774	37
123	0	0	1925	1482	1770	35
124	0	0	1924	1483	1769	36
125	0	0	1939	1483	1776	34
126	0	0	1969	1484	1784	37
127	0	0	1979	1483	1790	36
0	0	0	1952	1484	1795	34
1	0	0	1963	1485	1799	35
2	0	0	1997	1486	1796	36
3	0	0	2028	1487	1788	36
4	0	0	2033	1488	1777	35
5	0	0	2044	1488	1770	38
6	0	0	2060	1487	1773	36
7	0	0	2049	1485	1778	35
8	0	0	2020	1486	1785	38
9	0	0	2013	1486	1791	39
10	0	0	1992	1484	1794	36
11	0	0	1971	1485	1797	36
12	0	0	1980	1485	1794	36
13	0	0	1972	1482	1785	35
14	0	0	1932	1481	1773	34
15	0	0	1925	1484	1768	32
16	0	0	1949	1482	1770	35
17	0	0	1975	1483	1775	35
18	0	0	1968	1482	1783	36
19	0	0	1956	1483	1791	35
20	0	0	1952	1485	1797	35
21	0	0	1960	1483	1798	36
22	0	0	1989	1486	1796	36
23	0	0	2012	1487	1787	37
24	0	0	2024	1486	1775	35
25	0	0	2043	1487	1772	36
26	0	0	2051	1486	1772	38
27	0	0	2049	1486	1776	37
28	0	0	2022	1486	1784	38
29	0	0	2017	1488	1790	38
30	0	0	2035	1486	1796	34
31	0	0	2051	1484	1796	34
32	0	0	2061	1486	1795	33
33	0	0	1998	1480	1785	38
34	0	0	1903	1481	1772	37
35	0	0	1857	1481	1769	27
36	0	0	1877	1483	1770	35
37	0	0	1905	1483	1775	35
38	0	0	1927	1484	1783	36
39	0	0	1926	1483	1789	40
40	0	0	1926	1484	1796	36
41	0	0	1940	1485	1798	35
42	0	0	1960	1485	1795	35
43	0	0	2005	1487	1787	38
44	0	0	2056	1487	1775	38
45	0	0	2095	1487	1771	35
46	0	0	2131	1484	1772	35
47	0	0	2122	1484	1777	35
48	0	0	2069	1485	1782	38
49	0	0	2026	1485	1788	37
50	0	0	1993	1483	1796	37
51	0	0	1960	1481	1796	37
52	0	0	1963	1485	1794	33
53	0	0	1991	1486	1784	33
54	0	0	1999	1483	1772	32
55	0	0	1963	1481	1769	35
56	0	0	1960	1484	1769	35
57	0	0	1973	1483	1775	37
58	0	0	1986	1483	1782	35
59	0	0	1987	1485	1788	36
60	0	0	2009	1484	1796	36
61	0	0	2034	1484	1797	35
62	0	0	2055	1485	1795	35
63	0	0	2080	1486	1787	36
64	0	0	2106	1487	1776	36
65	0	0	2137	1486	1771	39
66	0	0	2164	1486	1772	38
67	0	0	2179	1487	1776	38
68	0	0	2155	1483	1783	38
69	0	0	2065	1481	1791	35
70	0	0	1976	1482	1796	35
71	0	0	1960	1484	1797	33
72	0	0	1981	1485	1794	36
73	0	0	1980	1484	1785	37
74	0	0	1988	1485	1771	36
75	0	0	2001	1483	1769	35
76	0	0	2016	1483	1769	35
77	0	0	2041	1483	1774	36
78	0	0	2062	1483	1781	36
79	0	0	2066	1484	1788	36
80	0	0	2069	1484	1795	35
81	0	0	2094	1484	1797	35
82	0	0	2110	1485	1794	35
83	0	0	2100	1486	1786	35
84	0	0	2112	1486	1774	37
85	0	0	2131	1486	1770	39
86	0	0	2125	1485	1771	36
87	0	0	2095	1485	1775	36
88	0	0	2101	1486	1782	35
89	0	0	2114	1486	1789	39
90	0	0	2097	1484	1794	37
91	0	0	2074	1482	1795	36
92	0	0	2039	1482	1792	36
93	0	0	2027	1484	1784	36
94	0	0	2044	1484	1770	33
95	0	0	2062	1483	1767	35
96	0	0	2062	1483	1769	34
97	0	0	2072	1481	1773	36
98	0	0	2101	1483	1780	35
99	0	0	2104	1483	1788	38
100	0	0	2114	1484	1794	35
101	0	0	2134	1482	1796	35
102	0	0	2133	1484	1794	33
103	0	0	2112	1484	1786	36
104	0	0	2108	1486	1774	36
105	0	0	2125	1486	1770	36
106	0	0	2160	1486	1770	38
107	0	0	2177	1486	1774	38
108	0	0	2148	1483	1782	38
109	0	0	2128	1486	1789	38
110	0	0	2142	1486	1793	33
111	0	0	2146	1486	1795	34
112	0	0	2138	1484	1792	34
113	0	0	2122	1480	1785	37
114	0	0	2096	1482	1772	37
115	0	0	2092	1483	1767	35
116	0	0	2110	1483	1768	34
117	0	0	2133	1482	1773	38
118	0	0	2168	1481	1782	36
119	0	0	2206	1483	1789	36
120	0	0	2224	1484	1794	35
121	0	0	2209	1484	1796	35
122	0	0	2206	1485	1794	34
123	0	0	2201	1485	1786	37
124	0	0	2182	1486	1774	33
125	0	0	2176	1486	1769	39
126	0	0	2174	1486	1771	39
127	0	0	2175	1486	1775	39
0	0	0	2147	1483	1782	35
1	0	0	2117	1484	1788	36
2	0	0	2103	1486	1793	35
3	0	0	2073	1482	1795	37
4	0	0	2039	1482	1793	36
5	0	0	2032	1482	1785	37
6	0	0	2040	1483	1772	34
7	0	0	2062	1484	1767	34
8	0	0	2064	1479	1769	34
9	0	0	2063	1483	1773	35
10	0	0	2078	1482	1782	36
11	0	0	2090	1482	1790	36
12	0	0	2111	1483	1795	33
13	0	0	2163	1482	1796	35
14	0	0	2204	1484	1795	33
15	0	0	2228	1485	1787	37
16	0	0	2234	1485	1775	35
17	0	0	2220	1483	1770	35
18	0	0	2192	1484	1771	35
19	0	0	2165	1483	1775	39
20	0	0	2133	1486	1783	38
21	0	0	2162	1486	1790	36
22	0	0	2177	1485	1794	35
23	0	0	2171	1484	1795	36
24	0	0	2146	1481	1793	36
25	0	0	2108	1481	1785	36
26	0	0	2059	1479	1772	34
27	0	0	2039	1482	1767	33
28	0	0	2043	1482	1769	34
29	0	0	2054	1481	1774	35
30	0	0	2078	1483	1781	35
31	0	0	2092	1482	1790	38
32	0	0	2089	1482	1794	34
33	0	0	2071	1481	1795	36
34	0	0	2074	1485	1795	35
35	0	0	2099	1484	1787	37
36	0	0	2123	1485	1774	36
37	0	0	2158	1486	1770	35
38	0	0	2191	1487	1772	35
39	0	0	2201	1486	1775	39
40	0	0	2178	1482	1782	37
41	0	0	2160	1485	1789	38
42	0	0	2154	1484	1795	37
43	0	0	2117	1481	1795	34
44	0	0	2075	1481	1794	34
45	0	0	2058	1482	1785	34
46	0	0	2056	1482	1773	37
47	0	0	2068	1481	1768	34
48	0	0	2069	1481	1768	35
49	0	0	2080	1481	1773	35
50	0	0	2065	1479	1782	35
51	0	0	2035	1479	1789	37
52	0	0	2038	1483	1795	34
53	0	0	2052	1483	1796	36
54	0	0	2075	1483	1796	35
55	0	0	2090	1485	1787	36
56	0	0	2094	1484	1776	34
57	0	0	2117	1485	1771	37
58	0	0	2137	1485	1770	38
59	0	0	2125	1484	1775	39
60	0	0	2092	1482	1782	35
61	0	0	2064	1483	1788	34
62	0	0	2058	1485	1793	32
63	0	0	2033	1480	1795	36
64	0	0	2012	1483	1794	36
65	0	0	2033	1482	1786	37
66	0	0	2069	1483	1772	37
67	0	0	2074	1482	1767	31
68	0	0	2052	1478	1767	35
69	0	0	2027	1478	1773	38
70	0	0	2021	1482	1780	35
71	0	0	2033	1482	1789	40
72	0	0	2069	1481	1795	33
73	0	0	2116	1483	1797	35
74	0	0	2149	1482	1795	35
75	0	0	2167	1483	1787	37
76	0	0	2160	1483	1775	37
77	0	0	2118	1481	1770	34
78	0	0	2054	1481	1770	36
79	0	0	2023	1484	1775	35
80	0	0	2030	1484	1781	37
81	0	0	2052	1483	1788	37
82	0	0	2057	1482	1795	34
83	0	0	2024	1481	1796	37
84	0	0	1992	1479	1793	34
85	0	0	1955	1481	1785	34
86	0	0	1950	1481	1773	35
87	0	0	1939	1478	1767	31
88	0	0	1914	1478	1768	34
89	0	0	1914	1480	1773	35
90	0	0	1923	1480	1780	36
91	0	0	1952	1481	1788	37
92	0	0	2017	1481	1794	34
93	0	0	2082	1482	1796	35
94	0	0	2102	1482	1794	32
95	0	0	2060	1479	1787	37
96	0	0	2023	1481	1774	36
97	0	0	2035	1485	1770	39
98	0	0	2052	1484	1770	39
99	0	0	2037	1482	1775	38
100	0	0	2010	1484	1781	37
101	0	0	2029	1483	1788	35
102	0	0	2081	1483	1792	34
103	0	0	2116	1483	1796	34
104	0	0	2128	1482	1793	37
105	0	0	2123	1483	1784	36
106	0	0	2128	1481	1772	37
107	0	0	2166	1481	1767	34
108	0	0	2205	1480	1769	36
109	0	0	2261	1480	1772	34
110	0	0	2330	1481	1780	35
111	0	0	2366	1480	1788	36
112	0	0	2388	1480	1794	34
113	0	0	2435	1482	1797	36
114	0	0	2487	1482	1794	36
115	0	0	2525	1483	1787	37
116	0	0	2562	1484	1775	37
117	0	0	2607	1484	1769	38
118	0	0	2627	1483	1771	38
119	0	0	2617	1484	1775	35
120	0	0	2607	1485	1780	34
121	0	0	2606	1484	1789	37
122	0	0	2561	1480	1794	35
123	0	0	2490	1479	1796	35
124	0	0	2436	1479	1793	37
125	0	0	2399	1480	1784	34
126	0	0	2382	1480	1772	33
127	0	0	2374	1480	1768	34
0	0	0	2340	1478	1770	35
1	0	0	2285	1477	1772	35
2	0	0	2234	1478	1780	36
3	0	0	2244	1481	1788	37
4	0	0	2324	1481	1795	31
5	0	0	2399	1482	1796	35
6	0	0	2409	1482	1794	34
7	0	0	2377	1480	1787	35
8	0	0	2316	1480	1775	37
9	0	0	2220	1480	1769	39
10	0	0	2110	1480	1771	36
11	0	0	2003	1479	1774	35
12	0	0	1934	1480	1781	35
13	0	0	1893	1480	1789	38
14	0	0	1851	1481	1794	38
15	0	0	1819	1480	1796	37
16	0	0	1804	1480	1793	36
17	0	0	1780	1479	1786	31
18	0	0	1751	1477	1773	35
19	0	0	1713	1478	1767	31
20	0	0	1688	1478	1769	36
21	0	0	1698	1480	1772	39
22	0	0	1727	1480	1780	35
23	0	0	1771	1480	1788	37
24	0	0	1796	1481	1794	37
25	0	0	1813	1479	1797	36
26	0	0	1831	1481	1794	35
27	0	0	1861	1483	1787	36
28	0	0	1884	1483	1776	35
29	0	0	1894	1484	1770	36
30	0	0	1897	1484	1772	39
31	0	0	1899	1484	1773	39
32	0	0	1876	1481	1781	38
33	0	0	1853	1480	1788	37
34	0	0	1825	1481	1794	35
35	0	0	1836	1482	1797	34
36	0	0	1858	1482	1793	33
37	0	0	1855	1482	1785	38
38	0	0	1853	1480	1773	37
39	0	0	1853	1480	1767	35
40	0	0	1862	1481	1767	35
41	0	0	1896	1479	1772	35
42	0	0	1933	1480	1779	35
43	0	0	1958	1480	1788	36
44	0	0	1945	1479	1793	33
45	0	0	1902	1478	1796	35
46	0	0	1881	1482	1794	34
47	0	0	1903	1483	1787	36
48	0	0	1940	1483	1775	36
49	0	0	1971	1483	1769	38
50	0	0	1961	1481	1769	38
51	0	0	1924	1480	1774	35
52	0	0	1899	1482	1781	34
53	0	0	1893	1483	1788	32
54	0	0	1863	1479	1793	35
55	0	0	1844	1482	1795	36
56	0	0	1853	1482	1792	37
57	0	0	1857	1480	1785	37
58	0	0	1864	1480	1771	34
59	0	0	1866	1480	1767	35
60	0	0	1882	1478	1769	35
61	0	0	1912	1479	1772	35
62	0	0	1954	1479	1779	39
63	0	0	1993	1481	1787	36
64	0	0	2010	1480	1794	33
65	0	0	2006	1480	1795	36
66	0	0	1999	1482	1794	36
67	0	0	1996	1479	1786	40
68	0	0	1988	1483	1775	36
69	0	0	2009	1482	1769	36
70	0	0	2022	1483	1770	35
71	0	0	2026	1483	1774	38
72	0	0	2016	1483	1781	38
73	0	0	1997	1480	1787	38
74	0	0	1968	1480	1793	35
75	0	0	1939	1479	1794	34
76	0	0	1911	1480	1793	34
77	0	0	1887	1479	1785	34
78	0	0	1876	1478	1771	36
79	0	0	1858	1478	1766	33
80	0	0	1873	1478	1767	34
81	0	0	1918	1478	1772	35
82	0	0	1934	1477	1780	35
83	0	0	1925	1480	1787	37
84	0	0	1935	1481	1793	35
85	0	0	1942	1481	1795	35
86	0	0	1966	1481	1794	35
87	0	0	1994	1480	1786	39
88	0	0	2010	1482	1774	37
89	0	0	2039	1483	1769	38
90	0	0	2114	1482	1768	39
91	0	0	2145	1483	1774	38
92	0	0	2102	1479	1780	35
93	0	0	2036	1478	1787	35
94	0	0	1964	1478	1794	34
95	0	0	1906	1478	1795	36
96	0	0	1869	1479	1792	36
97	0	0	1867	1479	1785	39
98	0	0	1872	1481	1772	37
99	0	0	1874	1479	1766	32
100	0	0	1882	1478	1765	34
101	0	0	1895	1480	1772	35
102	0	0	1922	1478	1779	35
103	0	0	1934	1479	1786	35
104	0	0	1949	1480	1792	32
105	0	0	1986	1481	1794	35
106	0	0	2039	1480	1793	36
107	0	0	2085	1481	1786	37
108	0	0	2112	1482	1774	35
109	0	0	2095	1481	1768	34
110	0	0	2090	1482	1768	35
111	0	0	2102	1482	1773	36
112	0	0	2081	1479	1779	38
113	0	0	2033	1479	1786	38
114	0	0	1984	1478	1792	33
115	0	0	1931	1478	1793	37
116	0	0	1920	1478	1792	33
117	0	0	1946	1479	1785	35
118	0	0	1985	1478	1771	33
119	0	0	1975	1477	1766	32
120	0	0	1958	1478	1766	34
121	0	0	1974	1478	1771	35
122	0	0	1990	1480	1778	36
123	0	0	1994	1478	1786	36
124	0	0	1992	1480	1792	33
125	0	0	2005	1480	1795	36
126	0	0	2039	1479	1793	35
127	0	0	2062	1480	1787	36
0	0	0	2072	1481	1774	36
1	0	0	2068	1482	1768	36
2	0	0	2060	1482	1768	34
3	0	0	2053	1482	1772	35
4	0	0	2040	1479	1778	37
5	0	0	2010	1478	1786	38
6	0	0	1992	1480	1792	36
7	0	0	1993	1480	1793	36
8	0	0	1999	1479	1791	35
9	0	0	2001	1479	1784	31
10	0	0	2015	1478	1769	33
11	0	0	2025	1479	1766	31
12	0	0	2037	1478	1766	34
13	0	0	2043	1478	1770	33
14	0	0	2018	1475	1777	34
15	0	0	1977	1474	1785	36
16	0	0	1956	1479	1792	32
17	0	0	1982	1479	1794	35
18	0	0	2018	1478	1792	35
19	0	0	2039	1480	1785	37
20	0	0	2063	1481	1774	38
21	0	0	2054	1480	1767	40
22	0	0	2026	1479	1768	38
23	0	0	2014	1482	1772	38
24	0	0	2021	1483	1778	38
25	0	0	2027	1482	1785	35
26	0	0	2049	1480	1791	36
27	0	0	2035	1477	1792	33
28	0	0	1994	1475	1790	38
29	0	0	1957	1476	1783	37
30	0	0	1955	1478	1770	38
31	0	0	1965	1478	1765	36
32	0	0	1982	1478	1765	34
33	0	0	2003	1477	1769	35
34	0	0	2036	1478	1777	37
35	0	0	2053	1479	1785	37
36	0	0	2052	1479	1791	36
37	0	0	2062	1479	1794	35
38	0	0	2066	1480	1793	35
39	0	0	2062	1480	1785	37
40	0	0	2061	1482	1773	37
41	0	0	2071	1481	1767	38
42	0	0	2086	1481	1767	35
43	0	0	2080	1482	1771	36
44	0	0	2090	1481	1777	35
45	0	0	2129	1481	1785	39
46	0	0	2135	1480	1790	40
47	0	0	2109	1479	1793	37
48	0	0	2118	1479	1790	39
49	0	0	2129	1479	1783	31
50	0	0	2108	1477	1770	34
51	0	0	2075	1475	1765	32
52	0	0	2053	1476	1764	35
53	0	0	2050	1477	1769	35
54	0	0	2074	1477	1776	35
55	0	0	2091	1479	1784	36
56	0	0	2100	1479	1791	37
57	0	0	2119	1479	1793	36
58	0	0	2148	1481	1792	35
59	0	0	2174	1480	1784	36
60	0	0	2195	1482	1773	34
61	0	0	2196	1482	1767	36
62	0	0	2194	1480	1766	39
63	0	0	2195	1482	1770	38
64	0	0	2195	1481	1778	37
65	0	0	2194	1481	1785	35
66	0	0	2197	1480	1790	39
67	0	0	2197	1480	1791	35
68	0	0	2165	1476	1790	35
69	0	0	2114	1475	1783	38
70	0	0	2096	1478	1770	37
71	0	0	2079	1477	1764	34
72	0	0	2088	1477	1765	34
73	0	0	2102	1477	1769	35
74	0	0	2139	1477	1776	34
75	0	0	2190	1477	1784	37
76	0	0	2215	1479	1790	39
77	0	0	2215	1478	1793	35
78	0	0	2211	1479	1791	37
79	0	0	2193	1478	1785	36
80	0	0	2176	1481	1774	34
81	0	0	2187	1480	1766	41
82	0	0	2201	1481	1767	38
83	0	0	2187	1479	1770	34
84	0	0	2162	1480	1778	34
85	0	0	2159	1480	1785	35
86	0	0	2152	1481	1790	39
87	0	0	2154	1480	1792	36
88	0	0	2155	1479	1790	38
89	0	0	2161	1478	1783	37
90	0	0	2155	1477	1771	35
91	0	0	2123	1476	1764	31
92	0	0	2094	1476	1764	34
93	0	0	2120	1478	1768	35
94	0	0	2170	1477	1776	35
95	0	0	2228	1478	1784	33
96	0	0	2253	1478	1790	35
97	0	0	2240	1478	1793	34
98	0	0	2222	1479	1791	37
99	0	0	2220	1478	1785	36
100	0	0	2228	1480	1774	36
101	0	0	2262	1480	1766	37
102	0	0	2265	1481	1766	35
103	0	0	2249	1481	1770	38
104	0	0	2243	1479	1777	38
105	0	0	2238	1481	1785	36
106	0	0	2222	1478	1790	39
107	0	0	2199	1477	1792	37
108	0	0	2185	1478	1790	38
109	0	0	2185	1478	1783	36
110	0	0	2198	1478	1771	34
111	0	0	2208	1477	1763	31
112	0	0	2205	1478	1763	35
113	0	0	2201	1477	1768	34
114	0	0	2197	1477	1776	35
115	0	0	2208	1478	1785	34
116	0	0	2232	1477	1790	35
117	0	0	2266	1477	1793	33
118	0	0	2302	1479	1792	33
119	0	0	2310	1481	1786	37
120	0	0	2306	1479	1773	36
121	0	0	2307	1481	1767	36
122	0	0	2280	1478	1767	35
123	0	0	2256	1479	1771	38
124	0	0	2244	1481	1777	39
125	0	0	2236	1481	1785	38
126	0	0	2233	1480	1790	38
127	0	0	2237	1479	1791	35
0	0	0	2248	1479	1790	35
1	0	0	2240	1479	1783	35
2	0	0	2219	1475	1769	35
3	0	0	2203	1477	1764	32
4	0	0	2195	1477	1763	34
5	0	0	2175	1473	1768	35
6	0	0	2126	1474	1776	36
7	0	0	2105	1477	1784	39
8	0	0	2127	1478	1790	39
9	0	0	2153	1478	1792	35
10	0	0	2167	1479	1791	37
11	0	0	2187	1479	1785	37
12	0	0	2212	1478	1772	36
13	0	0	2233	1481	1766	35
14	0	0	2230	1480	1765	40
15	0	0	2200	1478	1770	38
16	0	0	2174	1479	1776	35
17	0	0	2161	1479	1784	35
18	0	0	2181	1479	1789	36
19	0	0	2198	1479	1790	37
20	0	0	2192	1478	1790	37
21	0	0	2147	1475	1784	39
22	0	0	2068	1474	1770	36
23	0	0	2021	1474	1764	34
24	0	0	1976	1473	1763	34
25	0	0	1934	1471	1768	34
26	0	0	1944	1476	1775	38
27	0	0	1968	1477	1783	38
28	0	0	1974	1478	1790	36
29	0	0	1994	1478	1792	35
30	0	0	2021	1478	1791	40
31	0	0	2015	1477	1785	38
32	0	0	1993	1478	1773	38
33	0	0	1985	1481	1766	36
34	0	0	1997	1481	1764	34
35	0	0	2021	1481	1769	35
36	0	0	2019	1481	1776	37
37	0	0	1994	1475	1783	37
38	0	0	1973	1478	1788	35
39	0	0	1966	1479	1791	34
40	0	0	1950	1477	1790	35
41	0	0	1926	1475	1784	34
42	0	0	1912	1474	1769	33
43	0	0	1890	1475	1763	36
44	0	0	1897	1476	1763	33
45	0	0	1929	1476	1767	34
46	0	0	1942	1477	1774	35
47	0	0	1946	1477	1783	36
48	0	0	1961	1478	1789	36
49	0	0	1991	1478	1792	35
50	0	0	2014	1478	1791	37
51	0	0	2019	1480	1784	37
52	0	0	2023	1477	1772	35
53	0	0	2020	1480	1765	36
54	0	0	2030	1479	1764	37
55	0	0	2033	1480	1769	40
56	0	0	1990	1474	1776	37
57	0	0	1956	1475	1782	34
58	0	0	1954	1480	1789	36
59	0	0	1953	1478	1790	35
60	0	0	1926	1475	1789	40
61	0	0	1875	1474	1783	38
62	0	0	1822	1472	1769	39
63	0	0	1795	1474	1763	35
64	0	0	1798	1477	1763	34
65	0	0	1821	1474	1767	34
66	0	0	1857	1476	1774	36
67	0	0	1919	1474	1782	36
68	0	0	1956	1477	1789	34
69	0	0	1962	1478	1790	35
70	0	0	1951	1477	1790	37
71	0	0	1945	1479	1785	38
72	0	0	1972	1477	1771	34
73	0	0	1993	1480	1765	34
74	0	0	1975	1477	1765	36
75	0	0	1945	1478	1768	35
76	0	0	1924	1479	1777	36
77	0	0	1923	1479	1782	37
78	0	0	1940	1480	1788	36
79	0	0	1989	1479	1790	37
80	0	0	2006	1479	1788	37
81	0	0	1997	1478	1783	36
82	0	0	2003	1474	1769	34
83	0	0	1974	1473	1762	34
84	0	0	1944	1475	1762	33
85	0	0	1928	1475	1767	35
86	0	0	1908	1474	1773	35
87	0	0	1924	1476	1782	35
88	0	0	1951	1477	1788	39
89	0	0	1948	1476	1791	36
90	0	0	1912	1476	1790	37
91	0	0	1908	1479	1783	37
92	0	0	1927	1478	1771	36
93	0	0	1940	1481	1765	36
94	0	0	1955	1480	1765	35
95	0	0	1964	1479	1768	35
96	0	0	1962	1479	1774	38
97	0	0	1962	1477	1782	34
98	0	0	1964	1480	1788	36
99	0	0	1973	1478	1790	34
100	0	0	1953	1475	1788	35
101	0	0	1909	1475	1783	34
102	0	0	1899	1477	1769	34
103	0	0	1898	1477	1762	32
104	0	0	1927	1475	1761	33
105	0	0	1972	1477	1765	34
106	0	0	1988	1476	1773	37
107	0	0	1978	1475	1781	35
108	0	0	1983	1476	1788	36
109	0	0	1986	1477	1790	37
110	0	0	1992	1479	1790	37
111	0	0	2012	1477	1783	37
112	0	0	2031	1481	1771	35
113	0	0	2020	1478	1764	37
114	0	0	2002	1478	1764	34
115	0	0	2000	1479	1766	34
116	0	0	1975	1476	1774	33
117	0	0	1952	1478	1781	34
118	0	0	1951	1479	1787	37
119	0	0	1981	1478	1789	36
120	0	0	2002	1478	1788	35
121	0	0	1996	1476	1782	35
122	0	0	1992	1475	1769	34
123	0	0	1974	1474	1762	35
124	0	0	1947	1472	1761	32
125	0	0	1912	1473	1764	33
126	0	0	1884	1473	1774	36
127	0	0	1885	1476	1781	38
0	0	0	1909	1477	1787	39
1	0	0	1936	1477	1790	35
2	0	0	1967	1476	1788	37
3	0	0	1990	1478	1782	35
4	0	0	2009	1477	1770	36
5	0	0	2037	1479	1764	35
6	0	0	2081	1478	1763	34
7	0	0	2066	1477	1767	35
8	0	0	1996	1475	1774	32
9	0	0	1941	1478	1781	34
10	0	0	1954	1479	1786	35
11	0	0	1979	1478	1789	34
12	0	0	1974	1476	1787	34
13	0	0	1948	1475	1780	35
14	0	0	1937	1474	1768	33
15	0	0	1927	1474	1761	32
16	0	0	1935	1474	1761	34
17	0	0	1934	1474	1766	35
18	0	0	1915	1473	1773	32
19	0	0	1917	1475	1780	35
20	0	0	1927	1476	1786	37
21	0	0	1951	1476	1789	39
22	0	0	1989	1477	1787	36
23	0	0	2010	1478	1783	33
24	0	0	2051	1481	1770	35
25	0	0	2107	1478	1763	39
26	0	0	2146	1478	1762	36
27	0	0	2166	1479	1765	34
28	0	0	2152	1476	1773	36
29	0	0	2109	1475	1780	35
30	0	0	2032	1473	1786	33
31	0	0	1964	1473	1788	36
32	0	0	1938	1474	1787	35
33	0	0	1926	1474	1778	31
34	0	0	1902	1472	1767	34
35	0	0	1870	1472	1761	33
36	0	0	1853	1472	1760	38
37	0	0	1855	1473	1764	34
38	0	0	1887	1474	1769	33
39	0	0	1935	1476	1779	36
40	0	0	1973	1475	1786	39
41	0	0	1971	1474	1789	38
42	0	0	1961	1476	1788	36
43	0	0	1963	1475	1782	35
44	0	0	1976	1478	1769	36
45	0	0	2002	1478	1763	35
46	0	0	1991	1477	1762	35
47	0	0	1991	1478	1764	35
48	0	0	2023	1477	1772	35
49	0	0	2072	1478	1779	36
50	0	0	2114	1477	1786	39
51	0	0	2098	1472	1788	36
52	0	0	2043	1472	1787	34
53	0	0	2003	1473	1780	34
54	0	0	1958	1473	1767	32
55	0	0	1914	1469	1760	35
56	0	0	1891	1475	1760	36
57	0	0	1916	1473	1764	34
58	0	0	1943	1471	1771	35
59	0	0	1952	1474	1779	40
60	0	0	1966	1475	1786	39
61	0	0	2005	1474	1789	37
62	0	0	2057	1475	1788	37
63	0	0	2117	1477	1782	35
64	0	0	2174	1478	1770	36
65	0	0	2181	1475	1762	35
66	0	0	2131	1474	1762	35
67	0	0	2072	1473	1766	35
68	0	0	2014	1474	1773	36
69	0	0	1967	1475	1780	35
70	0	0	1916	1475	1786	34
71	0	0	1866	1473	1788	35
72	0	0	1850	1475	1786	34
73	0	0	1878	1475	1780	33
74	0	0	1931	1475	1768	33
75	0	0	1951	1475	1760	34
76	0	0	1942	1473	1759	35
77	0	0	1945	1474	1764	35
78	0	0	1982	1474	1770	39
79	0	0	2050	1474	1778	35
80	0	0	2108	1475	1785	36
81	0	0	2122	1475	1788	38
82	0	0	2121	1475	1787	36
83	0	0	2105	1473	1782	38
84	0	0	2080	1476	1769	40
85	0	0	2080	1477	1762	35
86	0	0	2084	1477	1762	33
87	0	0	2085	1477	1765	35
88	0	0	2070	1476	1772	35
89	0	0	2038	1475	1779	36
90	0	0	2007	1474	1785	35
91	0	0	1976	1474	1788	35
92	0	0	1941	1471	1786	34
93	0	0	1939	1475	1780	33
94	0	0	1935	1474	1767	33
95	0	0	1954	1470	1760	33
96	0	0	1992	1473	1759	33
97	0	0	2037	1474	1763	34
98	0	0	2049	1475	1771	36
99	0	0	2033	1470	1779	35
100	0	0	2024	1474	1785	36
101	0	0	2007	1473	1788	35
102	0	0	1985	1474	1787	37
103	0	0	1970	1476	1782	36
104	0	0	1996	1476	1768	39
105	0	0	2033	1477	1762	33
106	0	0	2028	1475	1761	35
107	0	0	2015	1478	1765	35
108	0	0	2031	1475	1771	35
109	0	0	2051	1476	1779	34
110	0	0	2033	1474	1785	31
111	0	0	2001	1473	1787	33
112	0	0	1981	1471	1785	34
113	0	0	1979	1475	1780	35
114	0	0	2002	1475	1767	32
115	0	0	1999	1473	1760	32
116	0	0	1998	1473	1759	35
117	0	0	2004	1473	1763	34
118	0	0	1986	1474	1770	36
119	0	0	2006	1472	1777	39
120	0	0	2033	1473	1785	38
121	0	0	2045	1473	1787	35
122	0	0	2060	1476	1788	37
123	0	0	2064	1476	1781	36
124	0	0	2079	1478	1769	36
125	0	0	2107	1477	1762	33
126	0	0	2116	1475	1761	35
127	0	0	2132	1477	1765	35
0	0	0	2133	1476	1771	35
1	0	0	2094	1471	1778	38
2	0	0	2022	1472	1784	35
3	0	0	1973	1472	1787	33
4	0	0	1943	1472	1786	35
5	0	0	1910	1471	1780	31
6	0	0	1907	1471	1766	32
7	0	0	1894	1470	1759	36
8	0	0	1891	1476	1759	33
9	0	0	1913	1472	1763	33
10	0	0	1933	1472	1769	32
11	0	0	1979	1474	1778	36
12	0	0	2039	1473	1786	36
13	0	0	2067	1474	1788	37
14	0	0	2069	1474	1787	37
15	0	0	2093	1475	1781	33
16	0	0	2113	1475	1769	36
17	0	0	2093	1473	1762	36
18	0	0	2074	1474	1761	33
19	0	0	2046	1474	1765	34
20	0	0	2029	1476	1771	35
21	0	0	2040	1477	1778	32
22	0	0	2076	1475	1784	36
23	0	0	2091	1475	1787	36
24	0	0	2058	1471	1785	34
25	0	0	2026	1472	1780	34
26	0	0	1982	1472	1767	33
27	0	0	1979	1472	1760	33
28	0	0	1995	1471	1758	32
29	0	0	2003	1472	1763	34
30	0	0	2015	1469	1770	34
31	0	0	2010	1473	1778	34
32	0	0	2001	1471	1785	36
33	0	0	2015	1473	1787	38
34	0	0	2043	1474	1787	36
35	0	0	2060	1475	1781	35
36	0	0	2076	1471	1768	35
37	0	0	2094	1475	1762	36
38	0	0	2094	1475	1762	32
39	0	0	2061	1472	1766	35
40	0	0	2020	1471	1771	34
41	0	0	2024	1474	1778	33
42	0	0	2033	1475	1785	34
43	0	0	2024	1472	1788	35
44	0	0	1989	1472	1786	35
45	0	0	1982	1474	1780	32
46	0	0	2000	1474	1767	33
47	0	0	2031	1473	1759	35
48	0	0	2066	1473	1758	34
49	0	0	2052	1468	1764	33
50	0	0	2023	1470	1770	32
51	0	0	2014	1471	1777	36
52	0	0	2011	1472	1785	36
53	0	0	2015	1474	1788	36
54	0	0	1999	1471	1787	36
55	0	0	1972	1473	1782	33
56	0	0	1977	1473	1769	35
57	0	0	1999	1476	1762	35
58	0	0	2016	1476	1761	36
59	0	0	2012	1476	1764	34
60	0	0	2007	1475	1771	32
61	0	0	1984	1474	1778	34
62	0	0	1978	1475	1784	35
63	0	0	1971	1475	1788	35
64	0	0	1987	1474	1786	35
65	0	0	2023	1475	1780	34
66	0	0	2018	1471	1767	32
67	0	0	1975	1470	1760	33
68	0	0	1943	1469	1758	34
69	0	0	1944	1471	1763	34
70	0	0	1968	1470	1769	35
71	0	0	1999	1472	1777	36
72	0	0	2041	1473	1785	36
73	0	0	2070	1473	1788	36
74	0	0	2044	1472	1788	37
75	0	0	2035	1475	1782	33
76	0	0	2048	1476	1769	33
77	0	0	2063	1477	1762	35
78	0	0	2085	1476	1761	31
79	0	0	2110	1476	1764	34
80	0	0	2112	1474	1771	35
81	0	0	2113	1475	1778	36
82	0	0	2108	1475	1784	35
83	0	0	2085	1473	1788	36
84	0	0	2081	1474	1786	35
85	0	0	2089	1475	1781	33
86	0	0	2063	1469	1768	32
87	0	0	2032	1472	1759	34
88	0	0	2025	1472	1759	31
89	0	0	2007	1468	1762	33
90	0	0	1970	1468	1769	35
91	0	0	1933	1470	1778	36
92	0	0	1920	1475	1784	36
93	0	0	1955	1474	1787	36
94	0	0	2053	1474	1787	37
95	0	0	2130	1471	1781	35
96	0	0	2133	1475	1769	36
97	0	0	2118	1474	1762	35
98	0	0	2094	1473	1761	31
99	0	0	2058	1476	1765	35
100	0	0	2044	1478	1771	33
101	0	0	2054	1476	1778	35
102	0	0	2066	1476	1784	34
103	0	0	2041	1472	1787	31
104	0	0	1988	1471	1786	34
105	0	0	1935	1472	1781	36
106	0	0	1942	1475	1767	35
107	0	0	2001	1473	1759	35
108	0	0	2038	1473	1758	35
109	0	0	2041	1472	1762	35
110	0	0	2015	1469	1769	34
111	0	0	1996	1474	1777	35
112	0	0	2021	1475	1784	36
113	0	0	2077	1474	1787	39
114	0	0	2118	1475	1786	37
115	0	0	2130	1475	1781	36
116	0	0	2115	1473	1769	38
117	0	0	2102	1476	1761	35
118	0	0	2115	1476	1760	31
119	0	0	2117	1476	1762	34
120	0	0	2105	1475	1769	34
121	0	0	2099	1476	1777	35
122	0	0	2061	1473	1783	35
123	0	0	2001	1472	1786	35
124	0	0	1948	1472	1785	35
125	0	0	1939	1475	1779	34
126	0	0	1945	1473	1767	35
127	0	0	1949	1472	1758	35
0	0	0	1923	1471	1757	33
1	0	0	1921	1472	1761	35
2	0	0	1936	1471	1768	35
3	0	0	1946	1472	1776	36
4	0	0	1945	1473	1783	36
5	0	0	1973	1475	1786	31
6	0	0	2041	1474	1785	36
7	0	0	2094	1474	1780	38
8	0	0	2122	1473	1769	36
9	0	0	2155	1477	1761	35
10	0	0	2138	1473	1759	31
11	0	0	2097	1473	1763	35
12	0	0	2065	1474	1769	35
13	0	0	2031	1473	1776	35
14	0	0	1999	1473	1782	35
15	0	0	1994	1475	1785	31
16	0	0	2010	1475	1785	34
17	0	0	2024	1472	1779	35
18	0	0	2021	1475	1766	34
19	0	0	2017	1473	1758	34
20	0	0	2010	1472	1756	35
21	0	0	2012	1472	1761	34
22	0	0	2006	1472	1766	38
23	0	0	2001	1472	1775	40
24	0	0	2015	1473	1782	36
25	0	0	2027	1474	1785	33
26	0	0	2031	1476	1785	37
27	0	0	2036	1475	1780	36
28	0	0	2069	1474	1769	35
29	0	0	2113	1475	1761	33
30	0	0	2163	1476	1758	35
31	0	0	2176	1475	1763	35
32	0	0	2120	1472	1768	35
33	0	0	2060	1473	1776	34
34	0	0	2016	1474	1781	34
35	0	0	2011	1475	1784	32
36	0	0	2025	1475	1783	34
37	0	0	2025	1473	1778	32
38	0	0	2004	1470	1765	32
39	0	0	1996	1471	1756	35
40	0	0	1999	1473	1756	32
41	0	0	2005	1472	1760	34
42	0	0	2028	1473	1767	35
43	0	0	2057	1473	1775	35
44	0	0	2076	1472	1781	36
45	0	0	2056	1471	1785	36
46	0	0	2037	1473	1784	36
47	0	0	2036	1476	1779	36
48	0	0	2039	1475	1767	34
49	0	0	2063	1474	1759	35
50	0	0	2078	1476	1757	33
51	0	0	2056	1475	1761	35
52	0	0	2032	1473	1769	37
53	0	0	1995	1473	1775	33
54	0	0	1958	1473	1780	35
55	0	0	1966	1474	1783	34
56	0	0	2002	1474	1783	35
57	0	0	2012	1474	1779	35
58	0	0	2014	1472	1764	33
59	0	0	2023	1473	1756	34
60	0	0	2046	1472	1755	32
61	0	0	2039	1469	1759	35
62	0	0	2019	1469	1765	39
63	0	0	2023	1472	1774	35
64	0	0	2054	1472	1780	36
65	0	0	2094	1473	1784	36
66	0	0	2122	1475	1784	37
67	0	0	2127	1474	1778	35
68	0	0	2118	1475	1766	36
69	0	0	2110	1474	1758	35
70	0	0	2140	1476	1757	34
71	0	0	2167	1474	1760	34
72	0	0	2177	1475	1766	35
73	0	0	2182	1475	1773	33
74	0	0	2160	1470	1780	34
75	0	0	2105	1470	1782	34
76	0	0	2044	1472	1783	35
77	0	0	2012	1472	1779	35
78	0	0	2016	1473	1765	32
79	0	0	2028	1471	1755	34
80	0	0	2031	1471	1754	32
81	0	0	2021	1473	1758	35
82	0	0	2010	1470	1765	35
83	0	0	2005	1474	1772	36
84	0	0	2021	1471	1779	36
85	0	0	2056	1473	1782	36
86	0	0	2090	1473	1783	36
87	0	0	2122	1475	1778	34
88	0	0	2153	1475	1765	36
89	0	0	2174	1476	1757	36
90	0	0	2176	1475	1756	34
91	0	0	2169	1477	1758	35
92	0	0	2175	1474	1764	35
93	0	0	2160	1474	1772	34
94	0	0	2116	1470	1779	34
95	0	0	2075	1471	1781	32
96	0	0	2067	1473	1780	33
97	0	0	2074	1473	1776	33
98	0	0	2066	1472	1764	33
99	0	0	2057	1470	1755	33
100	0	0	2042	1470	1753	33
101	0	0	2031	1470	1757	33
102	0	0	2033	1472	1764	36
103	0	0	2047	1472	1769	36
104	0	0	2082	1473	1778	36
105	0	0	2108	1473	1782	36
106	0	0	2118	1470	1781	34
107	0	0	2078	1468	1777	35
108	0	0	2041	1473	1764	34
109	0	0	2032	1477	1756	35
110	0	0	2041	1476	1755	36
111	0	0	2038	1474	1757	36
112	0	0	2039	1475	1766	37
113	0	0	2063	1475	1770	34
114	0	0	2089	1475	1778	34
115	0	0	2065	1470	1781	34
116	0	0	2014	1470	1781	34
117	0	0	1997	1473	1775	34
118	0	0	2002	1472	1762	32
119	0	0	2014	1474	1752	33
120	0	0	2017	1470	1752	34
121	0	0	2028	1470	1755	35
122	0	0	2060	1470	1763	35
123	0	0	2087	1471	1769	36
124	0	0	2094	1473	1778	35
125	0	0	2070	1470	1781	35
126	0	0	2057	1470	1780	35
127	0	0	2029	1470	1776	33
0	0	0	2015	1474	1763	36
1	0	0	2017	1474	1756	35
2	0	0	2020	1475	1753	34
3	0	0	2023	1475	1757	35
4	0	0	2032	1475	1764	33
5	0	0	2043	1474	1770	35
6	0	0	2049	1475	1778	33
7	0	0	2044	1474	1780	32
8	0	0	2055	1473	1780	34
9	0	0	2038	1470	1773	32
10	0	0	1998	1469	1760	32
11	0	0	1968	1468	1753	34
12	0	0	1952	1470	1751	33
13	0	0	1974	1470	1756	34
14	0	0	1989	1471	1762	31
15	0	0	2005	1470	1770	35
16	0	0	2037	1475	1777	35
17	0	0	2059	1471	1780	36
18	0	0	2080	1472	1781	35
19	0	0	2094	1474	1775	37
20	0	0	2103	1473	1763	36
21	0	0	2094	1475	1755	34
22	0	0	2079	1471	1753	35
23	0	0	2038	1470	1757	36
24	0	0	2001	1473	1762	34
25	0	0	2002	1475	1769	34
26	0	0	2012	1475	1776	33
27	0	0	2001	1472	1780	35
28	0	0	1974	1467	1779	33
29	0	0	1947	1470	1774	36
30	0	0	1933	1471	1762	33
31	0	0	1920	1473	1753	33
32	0	0	1923	1470	1751	33
33	0	0	1923	1470	1754	34
34	0	0	1925	1471	1760	33
35	0	0	1927	1471	1769	33
36	0	0	1947	1473	1776	36
37	0	0	2002	1471	1780	35
38	0	0	2032	1469	1779	35
39	0	0	2033	1475	1774	36
40	0	0	2033	1472	1764	36
41	0	0	2074	1478	1755	36
42	0	0	2097	1474	1753	35
43	0	0	2098	1473	1757	34
44	0	0	2096	1474	1761	32
45	0	0	2099	1473	1768	34
46	0	0	2063	1470	1777	34
47	0	0	1990	1469	1779	33
48	0	0	1949	1469	1780	34
49	0	0	1939	1471	1774	35
50	0	0	1945	1471	1762	35
51	0	0	1949	1473	1753	34
52	0	0	1949	1470	1751	32
53	0	0	1939	1466	1754	34
54	0	0	1922	1471	1760	34
55	0	0	1939	1470	1769	36
56	0	0	1987	1472	1776	35
57	0	0	2033	1469	1780	35
58	0	0	2042	1471	1780	35
59	0	0	2021	1470	1775	36
60	0	0	2006	1471	1764	35
61	0	0	1999	1477	1755	34
62	0	0	2018	1473	1753	34
63	0	0	2036	1473	1756	35
64	0	0	2052	1475	1762	34
65	0	0	2040	1470	1770	35
66	0	0	2006	1469	1776	33
67	0	0	1967	1469	1779	33
68	0	0	1931	1469	1779	33
69	0	0	1918	1472	1774	34
70	0	0	1933	1471	1762	31
71	0	0	1959	1470	1753	33
72	0	0	2002	1472	1751	35
73	0	0	2030	1469	1754	34
74	0	0	2045	1471	1760	33
75	0	0	2089	1470	1769	35
76	0	0	2149	1470	1776	35
77	0	0	2233	1470	1780	34
78	0	0	2319	1470	1780	35
79	0	0	2410	1472	1776	36
80	0	0	2460	1473	1765	34
81	0	0	2451	1472	1756	37
82	0	0	2441	1473	1752	34
83	0	0	2452	1473	1757	34
84	0	0	2510	1475	1764	34
85	0	0	2587	1473	1770	35
86	0	0	2636	1472	1777	34
87	0	0	2667	1472	1778	35
88	0	0	2691	1472	1779	34
89	0	0	2685	1471	1775	32
90	0	0	2663	1470	1761	32
91	0	0	2646	1470	1753	33
92	0	0	2618	1467	1751	34
93	0	0	2581	1465	1755	34
94	0	0	2516	1466	1762	38
95	0	0	2443	1465	1769	35
96	0	0	2391	1468	1777	36
97	0	0	2377	1470	1780	35
98	0	0	2363	1472	1779	35
99	0	0	2381	1472	1776	38
100	0	0	2426	1472	1765	33
101	0	0	2449	1472	1756	35
102	0	0	2428	1470	1753	31
103	0	0	2376	1469	1757	34
104	0	0	2318	1468	1762	33
105	0	0	2256	1469	1771	33
106	0	0	2172	1467	1777	33
107	0	0	2089	1467	1779	33
108	0	0	1982	1466	1779	33
109	0	0	1883	1466	1775	35
110	0	0	1849	1467	1763	33
111	0	0	1824	1465	1753	34
112	0	0	1796	1466	1752	33
113	0	0	1772	1466	1754	34
114	0	0	1758	1464	1762	33
115	0	0	1757	1469	1769	35
116	0	0	1776	1468	1776	35
117	0	0	1828	1469	1781	36
118	0	0	1897	1472	1781	36
119	0	0	1927	1469	1776	36
120	0	0	1925	1470	1765	35
121	0	0	1914	1473	1756	35
122	0	0	1904	1470	1753	34
123	0	0	1876	1470	1756	33
124	0	0	1851	1467	1762	32
125	0	0	1837	1471	1770	32
126	0	0	1851	1471	1777	32
127	0	0	1866	1472	1780	34
0	0	0	1880	1470	1780	34
1	0	0	1877	1468	1775	34
2	0	0	1861	1469	1762	33
3	0	0	1869	1468	1754	34
4	0	0	1873	1467	1752	32
5	0	0	1857	1466	1756	34
6	0	0	1857	1468	1763	35
7	0	0	1871	1467	1769	36
8	0	0	1905	1469	1777	35
9	0	0	1950	1469	1780	35
10	0	0	1975	1470	1780	36
11	0	0	1957	1466	1776	35
12	0	0	1931	1469	1765	36
13	0	0	1932	1471	1756	34
14	0	0	1973	1471	1754	33
15	0	0	2020	1472	1757	33
16	0	0	2033	1471	1763	34
17	0	0	2005	1469	1769	32
18	0	0	1997	1471	1777	34
19	0	0	1981	1468	1780	34
20	0	0	1973	1468	1780	33
21	0	0	1975	1469	1776	32
22	0	0	1977	1469	1763	32
23	0	0	1962	1463	1753	33
24	0	0	1937	1465	1752	33
25	0	0	1923	1464	1755	34
26	0	0	1896	1465	1763	35
27	0	0	1889	1468	1769	36
28	0	0	1892	1469	1777	35
29	0	0	1894	1469	1781	35
30	0	0	1927	1470	1782	35
31	0	0	1961	1470	1776	36
32	0	0	1969	1471	1764	36
33	0	0	1972	1471	1756	35
34	0	0	1998	1472	1754	38
35	0	0	2026	1471	1758	35
36	0	0	2037	1471	1763	33
37	0	0	2058	1472	1770	36
38	0	0	2068	1471	1777	34
39	0	0	2041	1467	1780	35
40	0	0	1994	1466	1780	34
41	0	0	1955	1465	1775	33
42	0	0	1935	1466	1763	32
43	0	0	1921	1467	1752	33
44	0	0	1918	1468	1752	34
45	0	0	1924	1466	1754	33
46	0	0	1912	1465	1761	33
47	0	0	1902	1470	1770	35
48	0	0	1945	1471	1776	35
49	0	0	2011	1468	1781	35
50	0	0	2081	1471	1780	35
51	0	0	2141	1470	1777	35
52	0	0	2133	1468	1765	36
53	0	0	2084	1468	1756	36
54	0	0	2038	1468	1754	35
55	0	0	2032	1472	1757	35
56	0	0	2051	1471	1764	35
57	0	0	2050	1470	1769	34
58	0	0	2036	1469	1776	34
59	0	0	2009	1468	1780	32
60	0	0	1972	1467	1781	33
61	0	0	1949	1467	1776	35
62	0	0	1944	1469	1762	33
63	0	0	1967	1468	1753	33
64	0	0	1983	1467	1751	34
65	0	0	1988	1468	1755	34
66	0	0	1974	1466	1761	37
67	0	0	1979	1468	1770	36
68	0	0	2030	1467	1776	35
69	0	0	2063	1469	1781	35
70	0	0	2086	1467	1780	36
71	0	0	2105	1469	1776	35
72	0	0	2099	1471	1766	35
73	0	0	2097	1471	1755	35
74	0	0	2113	1469	1753	34
75	0	0	2126	1472	1757	35
76	0	0	2119	1469	1761	32
77	0	0	2105	1470	1768	32
78	0	0	2110	1472	1775	35
79	0	0	2102	1467	1779	33
80	0	0	2053	1466	1779	34
81	0	0	2018	1467	1775	35
82	0	0	2007	1468	1763	31
83	0	0	2006	1465	1753	33
84	0	0	2015	1467	1751	33
85	0	0	2013	1468	1754	33
86	0	0	2010	1467	1761	32
87	0	0	2022	1467	1768	35
88	0	0	2036	1467	1775	36
89	0	0	2048	1469	1780	35
90	0	0	2052	1469	1780	37
91	0	0	2033	1466	1776	37
92	0	0	2011	1469	1764	36
93	0	0	2021	1469	1755	33
94	0	0	2064	1470	1753	34
95	0	0	2110	1471	1755	35
96	0	0	2149	1471	1763	35
97	0	0	2150	1471	1768	34
98	0	0	2143	1468	1775	34
99	0	0	2125	1468	1779	33
100	0	0	2097	1466	1779	33
101	0	0	2059	1465	1774	34
102	0	0	2007	1464	1763	33
103	0	0	1982	1465	1752	33
104	0	0	1987	1465	1750	34
105	0	0	2029	1467	1753	33
106	0	0	2067	1467	1760	36
107	0	0	2087	1467	1768	35
108	0	0	2074	1463	1774	37
109	0	0	2051	1467	1779	36
110	0	0	2067	1467	1780	32
111	0	0	2087	1470	1775	38
112	0	0	2106	1470	1764	35
113	0	0	2119	1468	1754	35
114	0	0	2124	1469	1752	34
115	0	0	2127	1470	1755	34
116	0	0	2124	1470	1761	34
117	0	0	2129	1472	1768	35
118	0	0	2144	1469	1774	34
119	0	0	2158	1470	1778	34
120	0	0	2159	1468	1778	34
121	0	0	2135	1466	1774	35
122	0	0	2100	1465	1762	33
123	0	0	2054	1464	1751	34
124	0	0	2007	1463	1749	33
125	0	0	1969	1464	1753	34
126	0	0	1953	1467	1759	35
127	0	0	1979	1466	1766	34
0	0	0	2060	1465	1774	36
1	0	0	2149	1468	1778	35
2	0	0	2186	1466	1779	34
3	0	0	2174	1468	1775	32
4	0	0	2149	1466	1763	36
5	0	0	2130	1470	1754	36
6	0	0	2139	1470	1751	34
7	0	0	2150	1467	1755	34
8	0	0	2167	1469	1760	32
9	0	0	2168	1469	1767	33
10	0	0	2121	1464	1774	34
11	0	0	2063	1466	1777	34
12	0	0	2044	1467	1778	32
13	0	0	2063	1468	1774	32
14	0	0	2100	1468	1761	32
15	0	0	2122	1467	1751	34
16	0	0	2134	1466	1749	34
17	0	0	2171	1467	1752	36
18	0	0	2220	1465	1758	40
19	0	0	2249	1467	1767	34
20	0	0	2255	1466	1773	36
21	0	0	2224	1465	1778	36
22	0	0	2161	1465	1779	36
23	0	0	2141	1470	1774	36
24	0	0	2168	1469	1764	37
25	0	0	2209	1470	1754	35
26	0	0	2252	1471	1751	34
27	0	0	2268	1471	1754	34
28	0	0	2204	1467	1761	32
29	0	0	2139	1467	1767	35
30	0	0	2138	1470	1773	34
31	0	0	2174	1470	1777	33
32	0	0	2179	1467	1777	33
33	0	0	2185	1468	1773	34
34	0	0	2210	1468	1762	34
35	0	0	2216	1467	1751	33
36	0	0	2202	1467	1748	33
37	0	0	2163	1465	1750	34
38	0	0	2121	1464	1758	40
39	0	0	2108	1467	1766	37
40	0	0	2096	1467	1773	35
41	0	0	2084	1469	1777	36
42	0	0	2092	1472	1778	39
43	0	0	2132	1469	1774	40
44	0	0	2175	1470	1764	36
45	0	0	2231	1472	1754	36
46	0	0	2263	1471	1750	34
47	0	0	2277	1471	1754	34
48	0	0	2261	1468	1759	35
49	0	0	2247	1469	1766	34
50	0	0	2232	1470	1773	34
51	0	0	2233	1470	1776	33
52	0	0	2242	1472	1776	31
53	0	0	2238	1469	1773	33
54	0	0	2232	1468	1761	33
55	0	0	2220	1468	1751	33
56	0	0	2224	1468	1748	34
57	0	0	2231	1467	1751	35
58	0	0	2241	1467	1758	37
59	0	0	2270	1467	1765	35
60	0	0	2291	1468	1773	34
61	0	0	2284	1469	1777	36
62	0	0	2279	1469	1777	36
63	0	0	2312	1470	1774	36
64	0	0	2337	1470	1763	35
65	0	0	2357	1470	1753	35
66	0	0	2357	1471	1749	34
67	0	0	2347	1470	1752	35
68	0	0	2306	1468	1757	35
69	0	0	2275	1469	1765	34
70	0	0	2276	1472	1773	36
71	0	0	2290	1468	1776	34
72	0	0	2303	1468	1777	33
73	0	0	2277	1467	1773	34
74	0	0	2248	1466	1761	33
75	0	0	2222	1465	1750	32
76	0	0	2206	1468	1747	34
77	0	0	2223	1467	1750	33
78	0	0	2273	1467	1757	34
79	0	0	2298	1467	1765	34
80	0	0	2311	1468	1772	35
81	0	0	2305	1468	1776	35
82	0	0	2295	1469	1777	35
83	0	0	2295	1469	1774	37
84	0	0	2311	1470	1762	36
85	0	0	2338	1470	1752	35
86	0	0	2360	1471	1749	34
87	0	0	2349	1470	1753	35
88	0	0	2340	1470	1758	35
89	0	0	2324	1470	1764	33
90	0	0	2318	1470	1771	34
91	0	0	2293	1469	1775	35
92	0	0	2277	1468	1777	34
93	0	0	2263	1470	1773	36
94	0	0	2227	1465	1760	31
95	0	0	2173	1464	1750	33
96	0	0	2155	1466	1747	33
97	0	0	2179	1467	1750	34
98	0	0	2202	1468	1756	33
99	0	0	2215	1467	1763	34
100	0	0	2230	1468	1771	35
101	0	0	2257	1467	1775	35
102	0	0	2278	1469	1776	35
103	0	0	2273	1470	1773	36
104	0	0	2267	1469	1762	35
105	0	0	2253	1470	1751	36
106	0	0	2258	1472	1749	34
107	0	0	2286	1470	1753	35
108	0	0	2285	1470	1757	34
109	0	0	2238	1468	1764	34
110	0	0	2200	1467	1770	34
111	0	0	2187	1470	1775	35
112	0	0	2163	1466	1775	34
113	0	0	2101	1463	1771	33
114	0	0	2063	1467	1760	30
115	0	0	2060	1467	1749	32
116	0	0	2048	1466	1746	31
117	0	0	2052	1469	1749	33
118	0	0	2081	1467	1755	37
119	0	0	2125	1467	1763	34
120	0	0	2161	1467	1769	35
121	0	0	2147	1467	1775	36
122	0	0	2136	1468	1775	37
123	0	0	2126	1470	1772	36
124	0	0	2116	1470	1761	33
125	0	0	2118	1470	1751	34
126	0	0	2138	1470	1748	34
127	0	0	2152	1470	1751	35
0	0	0	2149	1470	1757	35
1	0	0	2137	1468	1763	33
2	0	0	2099	1467	1769	35
3	0	0	2057	1467	1775	35
4	0	0	2027	1466	1775	35
5	0	0	1996	1465	1770	34
6	0	0	1994	1468	1759	33
7	0	0	2003	1467	1748	32
8	0	0	1998	1466	1745	33
9	0	0	1982	1465	1749	33
10	0	0	1969	1465	1755	35
11	0	0	1961	1467	1763	34
12	0	0	1966	1467	1769	34
13	0	0	1988	1468	1774	38
14	0	0	2005	1468	1775	36
15	0	0	2017	1468	1771	35
16	0	0	2050	1470	1761	33
17	0	0	2073	1470	1751	33
18	0	0	2088	1470	1747	34
19	0	0	2082	1469	1751	37
20	0	0	2060	1469	1755	34
21	0	0	2044	1469	1762	33
22	0	0	2018	1467	1769	34
23	0	0	1997	1467	1773	33
24	0	0	1973	1468	1773	34
25	0	0	1957	1467	1769	33
26	0	0	1945	1466	1759	31
27	0	0	1937	1465	1747	33
28	0	0	1933	1467	1744	34
29	0	0	1925	1466	1747	33
30	0	0	1921	1465	1753	33
31	0	0	1959	1466	1762	32
32	0	0	2006	1467	1769	36
33	0	0	2063	1468	1773	36
34	0	0	2104	1468	1775	39
35	0	0	2123	1469	1770	36
36	0	0	2169	1469	1761	34
37	0	0	2175	1468	1750	33
38	0	0	2148	1468	1747	34
39	0	0	2111	1466	1749	34
40	0	0	2051	1466	1755	35
41	0	0	1975	1466	1762	34
42	0	0	1906	1466	1768	34
43	0	0	1904	1469	1773	35
44	0	0	1930	1470	1772	34
45	0	0	1949	1468	1769	34
46	0	0	1949	1467	1758	31
47	0	0	1921	1463	1748	34
48	0	0	1880	1463	1744	33
49	0	0	1858	1463	1747	35
50	0	0	1845	1465	1753	35
51	0	0	1858	1467	1762	34
52	0	0	1871	1467	1768	36
53	0	0	1886	1466	1773	37
54	0	0	1904	1467	1774	36
55	0	0	1909	1469	1770	36
56	0	0	1909	1469	1761	37
57	0	0	1911	1470	1750	35
58	0	0	1950	1470	1746	34
59	0	0	1989	1469	1748	34
60	0	0	1991	1470	1754	34
61	0	0	1991	1470	1760	34
62	0	0	2007	1465	1768	34
63	0	0	2032	1469	1772	33
64	0	0	2017	1464	1773	34
65	0	0	1979	1464	1769	34
66	0	0	1948	1464	1759	31
67	0	0	1912	1464	1748	34
68	0	0	1931	1466	1743	35
69	0	0	1985	1467	1745	34
70	0	0	2002	1465	1752	34
71	0	0	2009	1467	1760	34
72	0	0	2005	1467	1767	35
73	0	0	2016	1466	1772	37
74	0	0	2037	1468	1773	36
75	0	0	2033	1466	1769	34
76	0	0	2003	1466	1760	36
77	0	0	1990	1469	1751	35
78	0	0	2014	1470	1743	35
79	0	0	2028	1468	1747	35
80	0	0	2012	1468	1753	33
81	0	0	2006	1470	1761	35
82	0	0	2005	1469	1768	33
83	0	0	2016	1468	1771	34
84	0	0	1989	1465	1771	34
85	0	0	1955	1464	1768	32
86	0	0	1932	1466	1756	33
87	0	0	1938	1465	1747	31
88	0	0	1945	1465	1742	32
89	0	0	1959	1465	1744	33
90	0	0	1972	1464	1752	36
91	0	0	1957	1463	1759	37
92	0	0	1948	1466	1768	35
93	0	0	1969	1467	1772	36
94	0	0	1996	1467	1773	35
95	0	0	2026	1467	1769	35
96	0	0	2041	1468	1759	35
97	0	0	2060	1469	1748	34
98	0	0	2086	1469	1744	34
99	0	0	2115	1468	1746	34
100	0	0	2126	1469	1753	33
101	0	0	2095	1465	1759	35
102	0	0	2043	1466	1766	34
103	0	0	2019	1467	1770	35
104	0	0	2007	1467	1771	33
105	0	0	1998	1468	1767	36
106	0	0	1997	1465	1756	31
107	0	0	1956	1463	1745	35
108	0	0	1942	1465	1741	34
109	0	0	1950	1464	1744	33
110	0	0	1972	1465	1750	34
111	0	0	2001	1465	1758	39
112	0	0	2051	1467	1767	38
113	0	0	2086	1467	1771	38
114	0	0	2065	1465	1771	40
115	0	0	2012	1465	1769	37
116	0	0	1995	1469	1758	35
117	0	0	1996	1468	1748	35
118	0	0	1999	1468	1743	35
119	0	0	2021	1469	1746	34
120	0	0	2012	1468	1753	34
121	0	0	2003	1468	1759	33
122	0	0	2010	1467	1765	34
123	0	0	2041	1468	1770	34
124	0	0	2059	1466	1770	35
125	0	0	2018	1465	1766	33
126	0	0	1996	1466	1756	34
127	0	0	1970	1462	1745	35
0	0	0	1932	1461	1740	36
1	0	0	1909	1462	1743	38
2	0	0	1915	1465	1750	37
3	0	0	1935	1466	1757	38
4	0	0	1959	1466	1765	35
5	0	0	1983	1466	1769	36
6	0	0	2009	1466	1770	36
7	0	0	2035	1466	1769	40
8	0	0	2058	1468	1757	39
9	0	0	2072	1469	1747	35
10	0	0	2075	1469	1743	35
11	0	0	2082	1469	1745	34
12	0	0	2088	1468	1751	35
13	0	0	2077	1467	1757	35
14	0	0	2061	1467	1765	33
15	0	0	2038	1466	1769	32
16	0	0	2013	1464	1770	32
17	0	0	1972	1463	1766	34
18	0	0	1957	1466	1756	31
19	0	0	1965	1465	1744	35
20	0	0	1967	1465	1741	37
21	0	0	1979	1464	1743	35
22	0	0	1998	1465	1748	36
23	0	0	2016	1465	1757	37
24	0	0	2039	1465	1763	38
25	0	0	2051	1466	1769	38
26	0	0	2042	1466	1770	39
27	0	0	2044	1468	1767	38
28	0	0	2051	1468	1757	34
29	0	0	2063	1468	1748	35
30	0	0	2058	1468	1742	35
31	0	0	2027	1465	1744	34
32	0	0	2012	1469	1751	34
33	0	0	2028	1468	1757	33
34	0	0	2029	1468	1763	34
35	0	0	2029	1467	1768	34
36	0	0	2050	1467	1769	34
37	0	0	2072	1468	1766	34
38	0	0	2072	1466	1756	32
39	0	0	2079	1464	1743	32
40	0	0	2097	1465	1740	33
41	0	0	2091	1460	1741	36
42	0	0	2050	1462	1747	36
43	0	0	2025	1461	1756	35
44	0	0	1987	1461	1763	38
45	0	0	1939	1463	1768	38
46	0	0	1956	1467	1769	36
47	0	0	2017	1466	1766	37
48	0	0	2077	1467	1757	40
49	0	0	2139	1468	1744	35
50	0	0	2178	1469	1741	34
51	0	0	2185	1469	1743	35
52	0	0	2166	1465	1748	34
53	0	0	2092	1464	1756	34
54	0	0	2044	1466	1762	33
55	0	0	2036	1467	1767	35
56	0	0	2033	1467	1768	34
57	0	0	2018	1463	1765	35
58	0	0	2001	1466	1755	32
59	0	0	2009	1465	1742	35
60	0	0	2022	1465	1739	36
61	0	0	2039	1465	1740	36
62	0	0	2072	1465	1745	33
63	0	0	2085	1464	1755	33
64	0	0	2054	1461	1761	35
65	0	0	2003	1462	1767	39
66	0	0	1996	1465	1769	39
67	0	0	2024	1466	1766	39
68	0	0	2043	1468	1756	35
69	0	0	2028	1467	1744	33
70	0	0	2026	1467	1741	34
71	0	0	2032	1468	1743	35
72	0	0	2007	1465	1748	33
73	0	0	1994	1467	1756	32
74	0	0	1989	1468	1762	34
75	0	0	1966	1464	1767	34
76	0	0	1924	1463	1767	34
77	0	0	1927	1466	1763	35
78	0	0	1953	1467	1754	32
79	0	0	1970	1465	1741	33
80	0	0	1972	1464	1739	33
81	0	0	1979	1463	1740	34
82	0	0	2000	1465	1746	37
83	0	0	2020	1464	1755	37
84	0	0	2040	1465	1761	37
85	0	0	2045	1466	1768	39
86	0	0	2062	1466	1767	36
87	0	0	2079	1466	1765	35
88	0	0	2059	1466	1756	35
89	0	0	2069	1466	1744	34
90	0	0	2081	1468	1740	34
91	0	0	2071	1467	1742	34
92	0	0	2063	1468	1746	33
93	0	0	2073	1467	1755	32
94	0	0	2071	1467	1761	34
95	0	0	2049	1465	1766	34
96	0	0	2017	1462	1766	32
97	0	0	2000	1466	1762	33
98	0	0	1975	1463	1753	32
99	0	0	1953	1463	1741	36
100	0	0	1937	1462	1738	36
101	0	0	1934	1463	1739	36
102	0	0	1951	1464	1745	37
103	0	0	2007	1464	1753	36
104	0	0	2055	1464	1762	35
105	0	0	2094	1464	1766	36
106	0	0	2104	1466	1767	39
107	0	0	2082	1464	1764	38
108	0	0	2040	1464	1756	36
109	0	0	2019	1468	1743	35
110	0	0	2012	1466	1740	35
111	0	0	2001	1467	1741	35
112	0	0	2009	1468	1747	33
113	0	0	2019	1469	1755	34
114	0	0	2045	1466	1761	32
115	0	0	2074	1468	1766	34
116	0	0	2095	1466	1766	33
117	0	0	2094	1466	1763	34
118	0	0	2069	1462	1753	34
119	0	0	1997	1461	1742	36
120	0	0	1946	1461	1737	34
121	0	0	1935	1464	1739	34
122	0	0	1933	1463	1746	33
123	0	0	1913	1462	1753	42
124	0	0	1901	1464	1761	38
125	0	0	1902	1464	1766	38
126	0	0	1934	1464	1767	39
127	0	0	1983	1467	1765	35
0	0	0	2033	1467	1755	36
1	0	0	2074	1468	1744	35
2	0	0	2099	1468	1740	35
3	0	0	2084	1464	1741	32
4	0	0	2039	1465	1746	32
5	0	0	2015	1466	1754	39
6	0	0	2003	1467	1761	33
7	0	0	1983	1465	1764	34
8	0	0	1961	1464	1766	34
9	0	0	1945	1465	1764	31
10	0	0	1941	1466	1753	36
11	0	0	1943	1464	1741	31
12	0	0	1937	1464	1737	37
13	0	0	1951	1463	1739	37
14	0	0	1981	1464	1745	34
15	0	0	2000	1464	1753	36
16	0	0	2031	1466	1759	37
17	0	0	2057	1465	1765	35
18	0	0	2071	1465	1767	36
19	0	0	2093	1467	1765	36
20	0	0	2097	1467	1755	39
21	0	0	2101	1467	1742	33
22	0	0	2133	1467	1738	31
23	0	0	2148	1467	1741	35
24	0	0	2146	1468	1747	32
25	0	0	2146	1468	1754	34
26	0	0	2167	1467	1761	33
27	0	0	2169	1465	1765	36
28	0	0	2130	1462	1766	33
29	0	0	2073	1463	1764	32
30	0	0	2025	1463	1753	31
31	0	0	2016	1464	1741	39
32	0	0	2007	1464	1736	36
33	0	0	2007	1463	1739	34
34	0	0	2023	1464	1745	32
35	0	0	2056	1464	1752	36
36	0	0	2067	1464	1759	40
37	0	0	2050	1464	1766	38
38	0	0	2042	1466	1765	42
39	0	0	2059	1467	1764	38
40	0	0	2074	1467	1755	35
41	0	0	2076	1467	1743	35
42	0	0	2089	1468	1740	34
43	0	0	2057	1464	1740	35
44	0	0	1989	1464	1747	34
45	0	0	1942	1465	1753	34
46	0	0	1930	1468	1760	34
47	0	0	1955	1467	1765	34
48	0	0	2012	1467	1766	34
49	0	0	2049	1467	1762	34
50	0	0	2029	1463	1753	32
51	0	0	1994	1461	1739	33
52	0	0	1965	1462	1736	33
53	0	0	1968	1464	1739	39
54	0	0	2002	1464	1744	37
55	0	0	2040	1464	1751	39
56	0	0	2060	1464	1759	39
57	0	0	2045	1464	1764	35
58	0	0	2039	1465	1766	35
59	0	0	2049	1467	1765	34
60	0	0	2061	1467	1753	39
61	0	0	2079	1469	1743	34
62	0	0	2072	1468	1738	34
63	0	0	2040	1465	1740	36
64	0	0	2023	1468	1745	31
65	0	0	2028	1466	1752	35
66	0	0	2038	1469	1759	34
67	0	0	2025	1463	1763	33
68	0	0	1989	1463	1764	32
69	0	0	1975	1467	1761	33
70	0	0	1976	1465	1752	33
71	0	0	1975	1465	1738	33
72	0	0	1988	1462	1734	36
73	0	0	2026	1462	1736	36
74	0	0	2042	1464	1743	36
75	0	0	2043	1464	1750	35
76	0	0	2026	1462	1758	35
77	0	0	2006	1464	1763	38
78	0	0	2007	1465	1766	36
79	0	0	2022	1466	1763	32
80	0	0	2043	1464	1753	37
81	0	0	2062	1467	1739	35
82	0	0	2085	1467	1737	35
83	0	0	2079	1466	1738	36
84	0	0	2044	1465	1744	33
85	0	0	2022	1466	1750	35
86	0	0	2028	1467	1757	33
87	0	0	2052	1466	1762	35
88	0	0	2050	1463	1763	32
89	0	0	2018	1463	1761	33
90	0	0	1991	1462	1750	32
91	0	0	1966	1461	1737	35
92	0	0	1959	1463	1733	37
93	0	0	1974	1463	1736	36
94	0	0	2016	1462	1741	36
95	0	0	2042	1464	1748	31
96	0	0	2044	1464	1755	35
97	0	0	2042	1464	1761	37
98	0	0	2035	1465	1763	38
99	0	0	2042	1465	1760	38
100	0	0	2095	1465	1751	39
101	0	0	2124	1467	1740	34
102	0	0	2155	1467	1734	36
103	0	0	2158	1467	1736	32
104	0	0	2149	1464	1741	34
105	0	0	2137	1466	1748	31
106	0	0	2134	1466	1755	33
107	0	0	2132	1466	1760	34
108	0	0	2117	1465	1761	33
109	0	0	2081	1461	1758	34
110	0	0	2069	1464	1749	32
111	0	0	2069	1463	1735	31
112	0	0	2045	1460	1732	32
113	0	0	2022	1461	1733	33
114	0	0	2007	1459	1739	37
115	0	0	1993	1461	1747	37
116	0	0	1999	1463	1753	37
117	0	0	2038	1464	1760	37
118	0	0	2079	1466	1760	35
119	0	0	2102	1465	1759	36
120	0	0	2084	1463	1750	34
121	0	0	2073	1466	1738	34
122	0	0	2074	1466	1733	34
123	0	0	2088	1466	1735	36
124	0	0	2102	1465	1739	31
125	0	0	2066	1464	1747	34
126	0	0	2037	1463	1752	34
127	0	0	2016	1463	1758	34
0	0	0	2008	1466	1759	34
1	0	0	2042	1464	1756	31
2	0	0	2084	1465	1747	32
3	0	0	2057	1459	1735	36
4	0	0	1999	1460	1730	36
5	0	0	1970	1460	1731	37
6	0	0	1955	1462	1737	37
7	0	0	1968	1463	1745	34
8	0	0	2014	1463	1752	35
9	0	0	2064	1464	1758	36
10	0	0	2100	1464	1759	39
11	0	0	2135	1462	1756	38
12	0	0	2153	1465	1748	34
13	0	0	2152	1467	1736	32
14	0	0	2143	1465	1731	34
15	0	0	2138	1467	1733	34
16	0	0	2112	1463	1737	31
17	0	0	2082	1465	1745	32
18	0	0	2063	1464	1751	33
19	0	0	2037	1463	1757	34
20	0	0	2013	1462	1758	32
21	0	0	2004	1465	1754	32
22	0	0	2000	1465	1745	32
23	0	0	1983	1460	1730	34
24	0	0	1943	1460	1728	33
25	0	0	1941	1460	1729	32
26	0	0	1986	1459	1735	33
27	0	0	2037	1463	1742	37
28	0	0	2063	1462	1750	36
29	0	0	2078	1464	1756	39
30	0	0	2087	1464	1757	39
31	0	0	2089	1465	1756	36
32	0	0	2065	1462	1746	37
33	0	0	2057	1466	1733	31
34	0	0	2077	1466	1729	33
35	0	0	2098	1465	1730	35
36	0	0	2097	1464	1735	31
37	0	0	2068	1465	1743	35
38	0	0	2052	1466	1748	32
39	0	0	2059	1465	1754	34
40	0	0	2067	1466	1755	34
41	0	0	2087	1465	1752	32
42	0	0	2095	1464	1743	35
43	0	0	2079	1461	1731	32
44	0	0	2057	1460	1725	37
45	0	0	2032	1460	1728	35
46	0	0	2019	1463	1733	36
47	0	0	2030	1462	1741	37
48	0	0	2053	1463	1748	34
49	0	0	2075	1462	1753	35
50	0	0	2077	1464	1755	36
51	0	0	2074	1464	1753	37
52	0	0	2074	1465	1744	39
53	0	0	2072	1466	1732	33
54	0	0	2076	1466	1727	35
55	0	0	2084	1465	1728	33
56	0	0	2083	1466	1733	33
57	0	0	2100	1467	1741	35
58	0	0	2148	1466	1747	33
59	0	0	2172	1465	1752	34
60	0	0	2130	1462	1753	38
61	0	0	2099	1462	1751	33
62	0	0	2089	1467	1742	33
63	0	0	2069	1460	1728	36
64	0	0	2030	1460	1724	37
65	0	0	2009	1462	1725	34
66	0	0	2039	1462	1731	33
67	0	0	2096	1463	1739	39
68	0	0	2139	1463	1746	34
69	0	0	2170	1463	1752	35
70	0	0	2161	1462	1754	33
71	0	0	2127	1462	1751	36
72	0	0	2079	1464	1743	40
73	0	0	2045	1464	1730	33
74	0	0	2047	1466	1725	35
75	0	0	2054	1466	1728	32
76	0	0	2025	1464	1732	32
77	0	0	2015	1467	1740	35
78	0	0	2052	1466	1746	33
79	0	0	2087	1465	1751	34
80	0	0	2086	1463	1753	32
81	0	0	2048	1462	1750	38
82	0	0	2008	1462	1741	33
83	0	0	1999	1463	1727	36
84	0	0	2006	1462	1722	36
85	0	0	2013	1461	1723	33
86	0	0	2026	1462	1729	31
87	0	0	2037	1463	1737	35
88	0	0	2041	1462	1744	40
89	0	0	2040	1463	1750	37
90	0	0	2050	1463	1752	37
91	0	0	2081	1465	1749	35
92	0	0	2130	1466	1742	38
93	0	0	2154	1466	1729	36
94	0	0	2137	1463	1725	35
95	0	0	2105	1463	1725	34
96	0	0	2095	1467	1731	32
97	0	0	2116	1466	1737	36
98	0	0	2131	1466	1744	35
99	0	0	2139	1465	1749	32
100	0	0	2157	1463	1750	33
101	0	0	2122	1461	1747	32
102	0	0	2059	1459	1739	36
103	0	0	1971	1459	1725	35
104	0	0	1942	1461	1720	34
105	0	0	1963	1461	1721	36
106	0	0	1984	1464	1727	40
107	0	0	1999	1462	1734	40
108	0	0	2003	1463	1743	38
109	0	0	1991	1462	1748	35
110	0	0	2001	1463	1749	35
111	0	0	2038	1464	1747	35
112	0	0	2072	1465	1739	39
113	0	0	2088	1466	1728	36
114	0	0	2081	1465	1722	34
115	0	0	2080	1466	1722	35
116	0	0	2092	1464	1727	35
117	0	0	2125	1467	1735	34
118	0	0	2124	1462	1741	35
119	0	0	2051	1462	1746	32
120	0	0	1995	1463	1748	34
121	0	0	1984	1463	1744	33
122	0	0	1998	1464	1736	32
123	0	0	2006	1462	1721	39
124	0	0	2002	1462	1718	36
125	0	0	1994	1461	1720	36
126	0	0	1971	1459	1723	33
127	0	0	1972	1463	1731	33
0	0	0	2024	1463	1739	35
1	0	0	2083	1464	1744	38
2	0	0	2105	1464	1746	38
3	0	0	2116	1462	1744	39
4	0	0	2160	1464	1735	42
5	0	0	2204	1465	1723	38
6	0	0	2175	1462	1717	34
7	0	0	2142	1463	1717	35
8	0	0	2117	1464	1722	34
9	0	0	2060	1462	1729	32
10	0	0	2008	1463	1736	35
11	0	0	2020	1463	1740	33
12	0	0	2037	1464	1743	34
13	0	0	2060	1465	1739	36
14	0	0	2056	1463	1730	29
15	0	0	2038	1462	1717	31
16	0	0	2029	1462	1712	33
17	0	0	2058	1462	1712	32
18	0	0	2084	1461	1717	35
19	0	0	2054	1460	1725	38
20	0	0	2045	1461	1733	39
21	0	0	2080	1463	1738	37
22	0	0	2105	1464	1740	35
23	0	0	2084	1462	1737	38
24	0	0	2072	1465	1729	35
25	0	0	2085	1465	1716	34
26	0	0	2122	1466	1710	34
27	0	0	2135	1467	1711	35
28	0	0	2100	1464	1715	32
29	0	0	2080	1466	1721	34
30	0	0	2063	1464	1728	32
31	0	0	2060	1465	1732	33
32	0	0	2090	1463	1733	34
33	0	0	2133	1464	1730	32
34	0	0	2124	1462	1720	33
35	0	0	2099	1460	1707	34
36	0	0	2071	1460	1701	35
37	0	0	2053	1463	1701	35
38	0	0	2060	1460	1706	35
39	0	0	2073	1463	1712	33
40	0	0	2072	1462	1718	33
41	0	0	2070	1463	1724	35
42	0	0	2071	1464	1726	39
43	0	0	2097	1466	1723	38
44	0	0	2132	1465	1713	36
45	0	0	2137	1465	1700	34
46	0	0	2137	1466	1694	34
47	0	0	2117	1462	1693	34
48	0	0	2091	1464	1697	33
49	0	0	2088	1466	1703	32
50	0	0	2083	1465	1709	32
51	0	0	2080	1466	1715	33
52	0	0	2062	1461	1714	31
53	0	0	2027	1460	1710	35
54	0	0	2004	1462	1700	33
55	0	0	1987	1460	1685	32
56	0	0	1965	1461	1679	35
57	0	0	1978	1462	1680	33
58	0	0	2010	1462	1684	36
59	0	0	2051	1462	1690	33
60	0	0	2075	1462	1697	32
61	0	0	2093	1463	1702	33
62	0	0	2112	1460	1702	36
63	0	0	2125	1466	1699	34
64	0	0	2133	1464	1690	36
65	0	0	2147	1465	1675	32
66	0	0	2161	1465	1668	33
67	0	0	2130	1462	1668	31
68	0	0	2058	1462	1671	36
69	0	0	2018	1462	1678	32
70	0	0	1995	1463	1684	32
71	0	0	1987	1465	1688	32
72	0	0	2010	1464	1688	32
73	0	0	2050	1462	1683	31
74	0	0	2064	1463	1673	31
75	0	0	2031	1460	1659	34
76	0	0	2019	1462	1651	31
77	0	0	2027	1462	1650	29
78	0	0	2082	1461	1655	31
79	0	0	2130	1462	1661	36
80	0	0	2127	1460	1668	34
81	0	0	2083	1460	1673	36
82	0	0	2045	1463	1674	36
83	0	0	2039	1463	1670	31
84	0	0	2048	1464	1660	34
85	0	0	2071	1465	1645	33
86	0	0	2121	1465	1638	32
87	0	0	2163	1465	1638	32
88	0	0	2153	1463	1640	35
89	0	0	2146	1464	1646	33
90	0	0	2136	1464	1653	32
91	0	0	2098	1462	1657	31
92	0	0	2052	1460	1657	33
93	0	0	2015	1461	1653	31
94	0	0	2007	1463	1642	31
95	0	0	2020	1462	1627	32
96	0	0	2046	1461	1620	33
97	0	0	2077	1461	1618	31
98	0	0	2119	1460	1622	35
99	0	0	2130	1462	1630	35
100	0	0	2142	1461	1636	32
101	0	0	2161	1462	1642	33
102	0	0	2176	1462	1642	31
103	0	0	2196	1463	1639	35
104	0	0	2185	1465	1630	38
105	0	0	2161	1463	1614	32
106	0	0	2138	1462	1608	31
107	0	0	2116	1466	1607	28
108	0	0	2131	1466	1611	32
109	0	0	2137	1465	1619	30
110	0	0	2150	1465	1624	30
111	0	0	2159	1464	1628	31
112	0	0	2163	1464	1628	28
113	0	0	2124	1460	1625	31
114	0	0	2042	1458	1616	28
115	0	0	1996	1460	1599	32
116	0	0	1992	1462	1592	34
117	0	0	2041	1460	1591	31
118	0	0	2087	1462	1596	29
119	0	0	2084	1461	1604	31
120	0	0	2071	1462	1611	36
121	0	0	2100	1462	1617	35
122	0	0	2137	1463	1617	33
123	0	0	2133	1461	1614	35
124	0	0	2144	1464	1606	31
125	0	0	2166	1465	1590	32
126	0	0	2166	1464	1583	31
127	0	0	2143	1463	1582	32
0	0	0	2115	1463	1586	30
1	0	0	2102	1464	1594	31
2	0	0	2082	1462	1600	31
3	0	0	2065	1463	1605	29
4	0	0	2058	1464	1606	28
5	0	0	2051	1463	1601	29
6	0	0	2043	1462	1592	30
7	0	0	2057	1463	1577	28
8	0	0	2038	1457	1568	28
9	0	0	2001	1459	1569	32
10	0	0	2014	1462	1573	32
11	0	0	2055	1461	1581	35
12	0	0	2085	1461	1589	36
13	0	0	2072	1457	1594	32
14	0	0	2017	1458	1595	32
15	0	0	2002	1463	1593	32
16	0	0	2009	1464	1583	35
17	0	0	2026	1465	1568	31
18	0	0	2070	1464	1561	30
19	0	0	2105	1465	1558	32
20	0	0	2114	1465	1564	30
21	0	0	2110	1466	1571	29
22	0	0	2109	1464	1577	32
23	0	0	2093	1462	1583	31
24	0	0	2080	1464	1583	30
25	0	0	2078	1464	1581	31
26	0	0	2061	1462	1570	29
27	0	0	2024	1459	1555	31
28	0	0	1954	1457	1546	31
29	0	0	1946	1460	1545	32
30	0	0	1966	1461	1550	31
31	0	0	1993	1462	1557	31
32	0	0	2023	1461	1565	30
33	0	0	2036	1462	1571	35
34	0	0	2025	1458	1572	33
35	0	0	1989	1461	1569	20
36	0	0	1985	1465	1560	31
37	0	0	2013	1465	1543	32
38	0	0	2021	1464	1537	32
39	0	0	1999	1462	1534	32
40	0	0	2001	1463	1540	29
41	0	0	1998	1465	1547	30
42	0	0	1961	1461	1554	30
43	0	0	1941	1465	1559	28
44	0	0	1961	1462	1559	29
45	0	0	1999	1462	1557	31
46	0	0	1998	1463	1546	27
47	0	0	1961	1458	1528	30
48	0	0	1893	1457	1520	32
49	0	0	1845	1455	1519	33
50	0	0	1836	1461	1524	33
51	0	0	1869	1462	1531	35
52	0	0	1928	1462	1540	31
53	0	0	1980	1465	1546	30
54	0	0	2009	1463	1548	31
55	0	0	2028	1464	1546	33
56	0	0	2058	1464	1536	33
57	0	0	2096	1464	1519	31
58	0	0	2117	1465	1511	30
59	0	0	2117	1466	1510	28
60	0	0	2096	1463	1514	30
61	0	0	2056	1462	1521	30
62	0	0	1994	1461	1527	27
63	0	0	1945	1462	1532	29
64	0	0	1919	1462	1533	30
65	0	0	1910	1464	1531	31
66	0	0	1913	1463	1520	28
67	0	0	1923	1462	1503	31
68	0	0	1943	1461	1495	31
69	0	0	1966	1462	1496	28
70	0	0	1982	1460	1499	30
71	0	0	1976	1462	1507	29
72	0	0	1985	1462	1515	33
73	0	0	2003	1464	1521	33
74	0	0	2032	1463	1523	32
75	0	0	2055	1464	1521	31
76	0	0	2038	1464	1511	31
77	0	0	2039	1465	1494	29
78	0	0	2055	1465	1486	30
79	0	0	2078	1465	1488	30
80	0	0	2098	1462	1491	29
81	0	0	2086	1463	1497	28
82	0	0	2066	1463	1505	28
83	0	0	2039	1462	1510	29
84	0	0	1987	1460	1511	28
85	0	0	1944	1460	1509	29
86	0	0	1933	1463	1498	24
87	0	0	1950	1462	1481	23
88	0	0	1966	1462	1473	27
89	0	0	1970	1460	1472	31
90	0	0	1998	1460	1477	31
91	0	0	2033	1462	1486	32
92	0	0	2067	1462	1494	31
93	0	0	2095	1463	1501	31
94	0	0	2163	1463	1504	28
95	0	0	2213	1462	1500	31
96	0	0	2229	1463	1490	32
97	0	0	2264	1464	1474	27
98	0	0	2306	1466	1466	31
99	0	0	2355	1466	1468	31
100	0	0	2422	1464	1470	29
101	0	0	2512	1464	1477	29
102	0	0	2600	1464	1484	28
103	0	0	2628	1464	1489	29
104	0	0	2648	1464	1491	29
105	0	0	2651	1463	1488	27
106	0	0	2625	1461	1477	26
107	0	0	2592	1460	1461	25
108	0	0	2571	1463	1452	30
109	0	0	2539	1459	1451	32
110	0	0	2508	1460	1458	27
111	0	0	2475	1459	1465	28
112	0	0	2435	1459	1473	28
113	0	0	2393	1460	1479	33
114	0	0	2381	1462	1481	31
115	0	0	2363	1462	1480	31
116	0	0	2348	1464	1469	32
117	0	0	2354	1465	1453	24
118	0	0	2366	1465	1445	28
119	0	0	2397	1466	1445	29
120	0	0	2387	1462	1448	26
121	0	0	2306	1460	1455	28
122	0	0	2194	1460	1464	27
123	0	0	2092	1460	1469	27
124	0	0	2013	1459	1469	31
125	0	0	1936	1458	1469	27
126	0	0	1846	1458	1458	26
127	0	0	1794	1458	1440	26
0	0	0	1785	1461	1433	27
1	0	0	1773	1459	1430	30
2	0	0	1770	1463	1435	30
3	0	0	1777	1460	1445	31
4	0	0	1810	1462	1452	32
5	0	0	1839	1463	1460	31
6	0	0	1863	1463	1461	28
7	0	0	1849	1462	1459	29
8	0	0	1823	1460	1450	28
9	0	0	1779	1462	1433	28
10	0	0	1775	1465	1425	27
11	0	0	1810	1465	1423	29
12	0	0	1840	1466	1427	25
13	0	0	1875	1464	1435	29
14	0	0	1894	1465	1443	24
15	0	0	1865	1462	1450	28
16	0	0	1820	1460	1453	31
17	0	0	1820	1463	1447	27
18	0	0	1808	1460	1438	27
19	0	0	1774	1459	1420	28
20	0	0	1744	1459	1410	29
21	0	0	1743	1462	1412	29
22	0	0	1754	1463	1415	30
23	0	0	1807	1460	1423	31
24	0	0	1856	1462	1432	31
25	0	0	1856	1462	1439	31
26	0	0	1877	1462	1441	27
27	0	0	1927	1463	1438	29
28	0	0	1972	1462	1429	28
29	0	0	1984	1462	1412	26
30	0	0	1937	1460	1403	27
31	0	0	1908	1463	1405	31
32	0	0	1901	1466	1405	28
33	0	0	1914	1466	1414	26
34	0	0	1942	1465	1422	28
35	0	0	1940	1465	1427	26
36	0	0	1919	1461	1429	27
37	0	0	1911	1463	1426	26
38	0	0	1917	1462	1416	23
39	0	0	1887	1458	1398	27
40	0	0	1840	1458	1389	29
41	0	0	1815	1459	1389	29
42	0	0	1839	1461	1393	29
43	0	0	1896	1462	1402	29
44	0	0	1925	1462	1410	27
45	0	0	1933	1462	1418	28
46	0	0	1951	1463	1420	31
47	0	0	1981	1463	1416	32
48	0	0	2002	1463	1408	31
49	0	0	1999	1464	1391	31
50	0	0	1990	1464	1382	27
51	0	0	1961	1461	1380	27
52	0	0	1940	1466	1384	25
53	0	0	1931	1465	1393	26
54	0	0	1972	1465	1401	28
55	0	0	2042	1464	1407	31
56	0	0	2043	1464	1408	26
57	0	0	2011	1461	1405	26
58	0	0	1949	1459	1396	26
59	0	0	1883	1458	1377	29
60	0	0	1831	1459	1369	25
61	0	0	1829	1461	1368	25
62	0	0	1863	1459	1373	27
63	0	0	1883	1464	1381	29
64	0	0	1906	1462	1390	31
65	0	0	1936	1463	1396	30
66	0	0	1957	1462	1399	29
67	0	0	2002	1462	1396	30
68	0	0	2040	1464	1389	27
69	0	0	2023	1462	1371	27
70	0	0	1987	1461	1361	26
71	0	0	1965	1464	1360	26
72	0	0	1968	1465	1363	28
73	0	0	1975	1467	1372	26
74	0	0	1971	1465	1380	26
75	0	0	1982	1464	1387	26
76	0	0	1978	1464	1389	26
77	0	0	1960	1461	1385	26
78	0	0	1940	1460	1376	25
79	0	0	1909	1459	1357	24
80	0	0	1882	1459	1348	27
81	0	0	1876	1462	1347	28
82	0	0	1876	1462	1350	29
83	0	0	1890	1461	1361	29
84	0	0	1955	1462	1369	27
85	0	0	2023	1462	1377	27
86	0	0	2051	1463	1381	25
87	0	0	2064	1463	1376	30
88	0	0	2088	1464	1368	30
89	0	0	2087	1463	1351	26
90	0	0	2059	1463	1342	27
91	0	0	2050	1466	1340	28
92	0	0	2049	1465	1345	26
93	0	0	2054	1466	1353	26
94	0	0	2057	1464	1361	26
95	0	0	2020	1461	1368	27
96	0	0	1975	1462	1370	25
97	0	0	1950	1462	1368	26
98	0	0	1951	1466	1359	25
99	0	0	1964	1462	1341	27
100	0	0	1922	1459	1331	27
101	0	0	1900	1461	1330	27
102	0	0	1924	1463	1336	25
103	0	0	1944	1464	1344	25
104	0	0	1949	1464	1353	29
105	0	0	1977	1463	1361	29
106	0	0	2017	1465	1364	29
107	0	0	2075	1465	1362	30
108	0	0	2109	1465	1356	27
109	0	0	2102	1464	1338	27
110	0	0	2090	1464	1328	23
111	0	0	2060	1463	1328	24
112	0	0	2002	1461	1333	26
113	0	0	1960	1465	1342	26
114	0	0	1973	1465	1350	25
115	0	0	2021	1464	1357	26
116	0	0	2039	1467	1360	24
117	0	0	2050	1464	1357	26
118	0	0	2084	1467	1351	24
119	0	0	2115	1464	1331	24
120	0	0	2123	1459	1321	24
121	0	0	2051	1459	1320	28
122	0	0	1969	1458	1327	30
123	0	0	1950	1465	1336	29
124	0	0	1967	1461	1346	29
125	0	0	2018	1462	1354	27
126	0	0	2089	1462	1357	29
127	0	0	2136	1464	1356	27
0	0	0	2185	1464	1348	29
1	0	0	2178	1462	1331	26
2	0	0	2118	1462	1322	26
3	0	0	2061	1462	1321	26
4	0	0	2039	1465	1327	26
5	0	0	2035	1465	1335	26
6	0	0	2016	1464	1345	25
7	0	0	2030	1464	1352	25
8	0	0	2051	1464	1355	27
9	0	0	2032	1461	1353	23
10	0	0	2006	1460	1344	24
11	0	0	1976	1460	1327	24
12	0	0	1968	1460	1317	24
13	0	0	1946	1459	1317	27
14	0	0	1928	1462	1322	27
15	0	0	1943	1461	1331	28
16	0	0	1976	1461	1342	30
17	0	0	2029	1462	1350	26
18	0	0	2086	1465	1353	26
19	0	0	2115	1463	1353	30
20	0	0	2107	1465	1345	28
21	0	0	2110	1465	1328	27
22	0	0	2122	1463	1318	26
23	0	0	2104	1465	1319	26
24	0	0	2105	1466	1323	24
25	0	0	2122	1465	1334	25
26	0	0	2153	1465	1342	26
27	0	0	2140	1462	1350	25
28	0	0	2102	1461	1351	28
29	0	0	2025	1463	1351	25
30	0	0	1973	1461	1342	25
31	0	0	1974	1463	1325	24
32	0	0	1983	1462	1315	26
33	0	0	1980	1461	1316	24
34	0	0	1987	1462	1321	25
35	0	0	2014	1461	1330	26
36	0	0	2051	1462	1340	27
37	0	0	2097	1462	1349	29
38	0	0	2116	1464	1354	31
39	0	0	2139	1464	1353	30
40	0	0	2157	1464	1344	28
41	0	0	2153	1465	1327	27
42	0	0	2141	1465	1318	26
43	0	0	2136	1467	1317	25
44	0	0	2130	1467	1323	23
45	0	0	2114	1464	1331	25
46	0	0	2096	1465	1342	26
47	0	0	2080	1464	1350	25
48	0	0	2069	1464	1352	23
49	0	0	2058	1464	1350	24
50	0	0	2043	1461	1342	25
51	0	0	2009	1459	1325	25
52	0	0	2001	1462	1316	24
53	0	0	2033	1462	1316	25
54	0	0	2081	1462	1320	28
55	0	0	2098	1464	1330	29
56	0	0	2090	1465	1341	29
57	0	0	2098	1462	1350	29
58	0	0	2153	1463	1355	30
59	0	0	2229	1464	1352	27
60	0	0	2288	1464	1345	26
61	0	0	2332	1465	1328	27
62	0	0	2350	1466	1317	24
63	0	0	2318	1461	1319	25
64	0	0	2257	1462	1323	26
65	0	0	2221	1464	1333	27
66	0	0	2215	1465	1343	25
67	0	0	2203	1463	1351	25
68	0	0	2192	1463	1356	26
69	0	0	2192	1465	1353	23
70	0	0	2188	1462	1344	24
71	0	0	2160	1459	1327	28
72	0	0	2121	1459	1319	27
73	0	0	2124	1460	1319	27
74	0	0	2156	1462	1325	27
75	0	0	2156	1462	1334	24
76	0	0	2165	1462	1343	27
77	0	0	2189	1462	1352	26
78	0	0	2186	1463	1357	27
79	0	0	2180	1464	1355	30
80	0	0	2204	1465	1348	28
81	0	0	2244	1465	1332	26
82	0	0	2271	1466	1320	26
83	0	0	2285	1464	1322	26
84	0	0	2286	1465	1329	23
85	0	0	2241	1463	1337	25
86	0	0	2212	1464	1346	28
87	0	0	2208	1465	1355	28
88	0	0	2216	1464	1359	24
89	0	0	2212	1464	1358	25
90	0	0	2205	1464	1349	24
91	0	0	2194	1462	1332	27
92	0	0	2193	1460	1324	25
93	0	0	2200	1461	1325	26
94	0	0	2199	1463	1328	25
95	0	0	2185	1461	1338	29
96	0	0	2163	1461	1349	29
97	0	0	2156	1464	1356	30
98	0	0	2160	1462	1362	29
99	0	0	2155	1464	1361	24
100	0	0	2177	1464	1355	27
101	0	0	2213	1465	1339	29
102	0	0	2242	1465	1330	25
103	0	0	2269	1463	1330	24
104	0	0	2263	1464	1336	24
105	0	0	2214	1462	1346	25
106	0	0	2175	1463	1355	25
107	0	0	2170	1465	1363	26
108	0	0	2176	1464	1367	24
109	0	0	2179	1464	1367	24
110	0	0	2170	1462	1357	24
111	0	0	2129	1460	1343	25
112	0	0	2098	1460	1332	27
113	0	0	2088	1462	1334	28
114	0	0	2107	1462	1340	28
115	0	0	2156	1462	1350	27
116	0	0	2205	1462	1360	26
117	0	0	2235	1462	1370	27
118	0	0	2242	1463	1375	28
119	0	0	2210	1463	1376	30
120	0	0	2244	1463	1367	30
121	0	0	2304	1465	1352	28
122	0	0	2316	1465	1343	27
123	0	0	2305	1466	1343	28
124	0	0	2277	1462	1348	26
125	0	0	2217	1463	1358	26
126	0	0	2162	1463	1367	25
127	0	0	2147	1465	1376	25
0	0	0	2134	1463	1381	26
1	0	0	2116	1463	1378	25
2	0	0	2126	1464	1373	26
3	0	0	2153	1463	1356	27
4	0	0	2176	1462	1346	24
5	0	0	2166	1461	1347	24
6	0	0	2171	1462	1354	25
7	0	0	2177	1455	1361	26
8	0	0	2108	1458	1374	27
9	0	0	2017	1460	1383	27
10	0	0	1973	1462	1389	27
11	0	0	1998	1465	1387	29
12	0	0	2042	1463	1380	27
13	0	0	2090	1465	1366	26
14	0	0	2100	1465	1357	27
15	0	0	2103	1467	1356	26
16	0	0	2092	1465	1360	24
17	0	0	2085	1463	1371	26
18	0	0	2052	1462	1380	25
19	0	0	2003	1462	1389	26
20	0	0	1974	1462	1393	26
21	0	0	1956	1462	1392	26
22	0	0	1948	1463	1386	25
23	0	0	1941	1463	1370	27
24	0	0	1944	1462	1362	25
25	0	0	1947	1460	1361	24
26	0	0	1942	1461	1367	26
27	0	0	1944	1461	1377	26
28	0	0	1945	1462	1388	28
29	0	0	1940	1461	1396	28
30	0	0	1919	1461	1401	27
31	0	0	1893	1462	1400	28
32	0	0	1909	1463	1394	27
33	0	0	1954	1465	1381	26
34	0	0	1998	1467	1371	27
35	0	0	2028	1466	1371	28
36	0	0	2021	1465	1378	26
37	0	0	2025	1464	1385	26
38	0	0	2034	1466	1396	25
39	0	0	2034	1465	1404	27
40	0	0	1982	1460	1409	26
41	0	0	1921	1460	1408	27
42	0	0	1859	1459	1401	26
43	0	0	1843	1463	1386	25
44	0	0	1880	1464	1378	25
45	0	0	1919	1463	1378	25
46	0	0	1936	1461	1383	27
47	0	0	1939	1461	1391	27
48	0	0	1959	1462	1403	27
49	0	0	1973	1463	1412	28
50	0	0	1983	1465	1416	27
51	0	0	1994	1465	1416	28
52	0	0	2008	1463	1411	28
53	0	0	2006	1465	1396	29
54	0	0	1976	1463	1387	28
55	0	0	1978	1467	1387	27
56	0	0	2009	1465	1394	27
57	0	0	2011	1464	1402	28
58	0	0	1999	1464	1412	26
59	0	0	1971	1462	1421	27
60	0	0	1930	1464	1424	25
61	0	0	1916	1464	1425	26
62	0	0	1913	1461	1420	25
63	0	0	1934	1459	1403	26
64	0	0	1937	1461	1394	26
65	0	0	1886	1459	1393	25
66	0	0	1843	1460	1398	26
67	0	0	1844	1461	1409	27
68	0	0	1877	1462	1419	28
69	0	0	1913	1464	1429	28
70	0	0	1934	1463	1434	29
71	0	0	1976	1465	1436	28
72	0	0	1997	1465	1428	28
73	0	0	1992	1466	1413	28
74	0	0	2009	1466	1405	29
75	0	0	2068	1466	1405	26
76	0	0	2096	1466	1411	26
77	0	0	2080	1466	1419	27
78	0	0	2063	1463	1429	27
79	0	0	2017	1463	1437	27
80	0	0	1946	1460	1443	28
81	0	0	1871	1460	1443	27
82	0	0	1823	1460	1435	26
83	0	0	1822	1462	1419	25
84	0	0	1850	1462	1411	26
85	0	0	1890	1462	1412	27
86	0	0	1899	1462	1416	27
87	0	0	1880	1460	1426	27
88	0	0	1883	1463	1436	28
89	0	0	1914	1463	1445	28
90	0	0	1961	1463	1450	29
91	0	0	1989	1464	1451	30
92	0	0	2014	1465	1445	28
93	0	0	2041	1463	1432	28
94	0	0	2053	1465	1422	28
95	0	0	2048	1466	1422	26
96	0	0	2012	1460	1428	28
97	0	0	1973	1463	1435	28
98	0	0	1943	1463	1445	27
99	0	0	1919	1463	1453	29
100	0	0	1912	1465	1457	27
101	0	0	1921	1465	1458	27
102	0	0	1915	1463	1451	26
103	0	0	1901	1462	1436	24
104	0	0	1892	1462	1427	26
105	0	0	1893	1464	1426	26
106	0	0	1906	1463	1433	27
107	0	0	1938	1464	1441	28
108	0	0	1957	1463	1452	28
109	0	0	1970	1465	1460	29
110	0	0	2005	1464	1466	27
111	0	0	2003	1466	1466	29
112	0	0	1975	1461	1461	29
113	0	0	1958	1464	1446	29
114	0	0	1970	1465	1438	29
115	0	0	2008	1466	1438	29
116	0	0	2030	1466	1443	29
117	0	0	2033	1465	1451	28
118	0	0	2004	1464	1460	28
119	0	0	1993	1466	1469	28
120	0	0	1984	1465	1474	25
121	0	0	1965	1462	1473	27
122	0	0	1941	1462	1467	28
123	0	0	1934	1464	1451	27
124	0	0	1939	1463	1443	27
125	0	0	1955	1462	1444	24
126	0	0	1957	1463	1449	29
127	0	0	1960	1462	1458	28
0	0	0	1974	1463	1467	30
1	0	0	1979	1463	1476	29
2	0	0	1957	1463	1480	29
3	0	0	1966	1465	1483	30
4	0	0	1993	1466	1475	29
5	0	0	2028	1465	1461	29
6	0	0	2087	1466	1453	29
7	0	0	2113	1467	1452	27
8	0	0	2104	1464	1457	29
9	0	0	2070	1464	1466	29
10	0	0	2038	1464	1475	28
11	0	0	1996	1463	1483	27
12	0	0	1964	1464	1487	27
13	0	0	1950	1464	1487	29
14	0	0	1921	1462	1482	27
15	0	0	1916	1464	1467	30
16	0	0	1950	1463	1458	27
17	0	0	1989	1462	1459	27
18	0	0	2012	1463	1462	27
19	0	0	1992	1461	1472	28
20	0	0	1975	1463	1482	29
21	0	0	1968	1464	1491	29
22	0	0	1967	1465	1495	28
23	0	0	1985	1466	1496	30
24	0	0	2002	1466	1489	29
25	0	0	2019	1466	1475	29
26	0	0	2018	1464	1467	30
27	0	0	1991	1466	1466	31
28	0	0	2000	1467	1471	30
29	0	0	2035	1467	1480	29
30	0	0	2063	1466	1489	28
31	0	0	2063	1468	1497	27
32	0	0	2028	1463	1501	31
33	0	0	1973	1461	1499	30
34	0	0	1926	1462	1493	29
35	0	0	1925	1464	1481	27
36	0	0	1923	1464	1470	28
37	0	0	1909	1464	1470	29
38	0	0	1919	1463	1476	27
39	0	0	1942	1463	1483	30
40	0	0	1960	1465	1493	30
41	0	0	1956	1465	1502	30
42	0	0	1956	1465	1506	30
43	0	0	1955	1465	1506	30
44	0	0	1966	1466	1501	30
45	0	0	1989	1466	1487	31
46	0	0	1987	1468	1478	27
47	0	0	1978	1468	1477	26
48	0	0	2009	1467	1480	29
49	0	0	2024	1466	1489	29
50	0	0	2019	1467	1499	29
51	0	0	2024	1467	1507	28
52	0	0	2011	1465	1509	28
53	0	0	1992	1464	1510	28
54	0	0	1976	1464	1504	28
55	0	0	1973	1462	1488	26
56	0	0	1933	1459	1481	28
57	0	0	1865	1460	1480	31
58	0	0	1846	1464	1485	27
59	0	0	1889	1463	1492	29
60	0	0	1947	1464	1501	30
61	0	0	1963	1466	1509	31
62	0	0	1950	1466	1514	31
63	0	0	1993	1465	1514	29
64	0	0	2024	1466	1508	30
65	0	0	2040	1466	1494	30
66	0	0	2058	1468	1485	27
67	0	0	2045	1466	1484	31
68	0	0	2030	1468	1489	27
69	0	0	2031	1467	1494	29
70	0	0	2026	1466	1504	28
71	0	0	2011	1468	1512	27
72	0	0	2000	1467	1516	29
73	0	0	1982	1464	1515	27
74	0	0	1980	1464	1509	29
75	0	0	1994	1464	1495	27
76	0	0	1969	1460	1486	25
77	0	0	1922	1462	1485	31
78	0	0	1900	1462	1488	27
79	0	0	1883	1461	1497	29
80	0	0	1873	1464	1507	29
81	0	0	1905	1464	1514	30
82	0	0	1924	1464	1519	31
83	0	0	1938	1466	1519	31
84	0	0	1975	1466	1513	34
85	0	0	2022	1466	1498	30
86	0	0	2056	1469	1489	28
87	0	0	2042	1465	1488	30
88	0	0	2012	1464	1493	29
89	0	0	1964	1464	1499	30
90	0	0	1936	1466	1508	29
91	0	0	1944	1466	1516	27
92	0	0	1973	1468	1519	28
93	0	0	1991	1466	1520	27
94	0	0	1982	1464	1513	30
95	0	0	1972	1464	1498	27
96	0	0	1944	1460	1489	24
97	0	0	1930	1463	1488	27
98	0	0	1945	1464	1491	27
99	0	0	1968	1463	1500	30
100	0	0	1976	1465	1509	29
101	0	0	1965	1464	1515	30
102	0	0	1951	1464	1521	30
