# Generic Text File Format
# Version: 1
# StartDateTime: 2012-04-24 16:10:55
# SamplingFrequency: 1000
# SamplingResolution: 12
# EndOfHeader
2046
2062
2084
2099
2108
2105
2085
2062
2068
2087
2109
2129
2128
2110
2079
2057
2051
2046
2044
2056
2059
2047
2043
2053
2067
2074
2075
2073
2083
2076
2060
2050
2060
2080
2088
2091
2088
2079
2067
2068
2077
2080
2063
2042
2033
2029
2019
2009
2001
1985
1980
1980
1990
2004
2021
2038
2042
2041
2042
2046
2050
2045
2030
2012
2007
2018
2030
2030
2016
1999
1991
1988
1992
1987
1969
1947
1938
1931
1928
1943
1958
1975
1990
1997
1996
1986
1977
1969
1972
1970
1961
1959
1963
1961
1957
1948
1936
1924
1911
1917
1933
1942
1955
1975
1990
1991
1991
1995
1989
1982
1975
1979
1994
2005
2000
1999
2003
2003
1995
1980
1991
2000
1993
1986
1991
1988
1987
1987
1979
1979
1989
1989
1981
1966
1958
1966
1983
1999
2010
2006
2013
2028
2025
2023
2020
2009
1991
1968
1965
1960
1946
1940
1960
1985
2006
2021
2041
2055
2061
2063
2060
2043
2036
2048
2057
2062
2051
2037
2034
2038
2033
2021
2003
1992
2001
2018
2025
2024
2031
2038
2040
2043
2054
2056
2046
2037
2018
1990
1986
1990
1999
1999
1991
2001
2012
2023
2039
2063
2073
2065
2047
2034
2025
2012
1999
1996
2011
2032
2047
2031
2006
1992
1985
1993
1994
1986
1986
1998
2001
2002
2006
2005
1997
1973
1956
1966
1987
1989
1973
1962
1959
1971
1969
1968
1970
1982
1989
1991
1993
1994
1985
1978
1961
1943
1931
1920
1918
1930
1948
1970
1987
1996
1995
1980
1959
1952
1940
1907
1885
1892
1904
1899
1910
1937
1958
1976
1994
2014
2041
2064
2091
2118
2142
2156
2180
2210
2241
2273
2304
2338
2367
2380
2392
2406
2420
2435
2448
2465
2481
2496
2484
2460
2414
2371
2336
2321
2310
2277
2241
2215
2194
2160
2108
2051
1992
1940
1898
1868
1856
1847
1841
1847
1855
1861
1857
1842
1830
1820
1824
1833
1834
1827
1819
1803
1789
1790
1795
1797
1815
1839
1865
1882
1887
1887
1895
1898
1891
1878
1873
1875
1882
1896
1896
1892
1885
1874
1870
1874
1891
1910
1939
1959
1964
1963
1950
1942
1940
1936
1937
1946
1946
1935
1924
1918
1929
1944
1947
1962
1967
1960
1941
1913
1902
1900
1895
1895
1906
1920
1941
1969
1989
2004
2012
2014
2018
2019
2016
2002
1967
1917
1856
1820
1808
1806
1819
1839
1864
1890
1911
1938
1956
1952
1948
1942
1927
1914
1915
1919
1940
1967
1981
1980
1972
1973
1977
1979
1990
1984
1962
1955
1962
1965
1962
1956
1966
1982
1982
1971
1946
1918
1920
1939
1952
1967
1990
2004
2026
2045
2062
2074
2068
2050
2027
2010
2003
2004
2004
2000
2002
2003
2015
2015
2013
2011
2024
2047
2065
2068
2068
2061
2061
2070
2062
2054
2043
2038
2048
2062
2060
2058
2070
2081
2094
2113
2113
2094
2076
2059
2049
2046
2037
2029
2016
2011
2018
2023
2030
2047
2063
2063
2060
2050
2050
2063
2071
2074
2092
2091
2087
2092
2091
2089
2093
2094
2086
2071
2054
2042
2026
2004
1999
2008
2017
2035
2050
2064
2080
2095
2105
2098
2071
2033
2012
2003
2015
2027
2017
2006
1994
1986
2001
2015
2021
2028
2016
1985
1966
1964
1966
1973
1984
1995
2011
2021
2016
1998
1985
1978
1978
1989
1971
1954
1960
1960
1961
1964
1959
1950
1946
1942
1945
1938
1930
1934
1935
1943
1945
1936
1925
1913
1916
1942
1953
1949
1942
1942
1938
1932
1932
1936
1937
1937
1939
1948
1964
1983
2000
2011
2029
2029
2021
2012
2005
2002
2002
2003
1985
1972
1967
1962
1956
1949
1937
1927
1937
1961
1982
1988
1992
2000
2005
2007
2004
1997
1995
1993
1979
1964
1954
1959
1960
1948
1945
1956
1955
1949
1943
1929
1929
1959
1991
2004
1998
1997
1993
1989
1980
1972
1973
1982
1971
1961
1943
1939
1942
1949
1950
1954
1969
1973
1961
1960
1972
1987
1998
2008
2022
2028
2016
2004
2006
2022
2052
2071
2060
2045
2036
2040
2055
2078
2095
2090
2076
2060
2051
2051
2042
2017
1997
1999
2008
2003
2015
2057
2107
2125
2116
2103
2099
2091
2076
2063
2060
2055
2039
2035
2030
2019
2012
2012
2017
2029
2025
2029
2043
2059
2063
2059
2033
2014
2010
2006
2016
2021
2025
2022
2021
2024
2036
2043
2062
2073
2063
2045
2027
2025
2044
2056
2053
2047
2054
2067
2060
2052
2047
2041
2032
2023
2015
2016
2014
2016
2008
2005
2009
2012
2008
2004
2005
2019
2047
2054
2038
2023
2020
2030
2039
2010
1974
1952
1936
1931
1928
1928
1939
1959
1986
2014
2021
2009
2001
1995
1993
1995
2001
2004
2000
1988
1972
1970
1965
1975
2000
2033
2047
2038
2025
2014
2006
1997
1995
1999
2003
2001
2006
2016
2021
2034
2050
2052
2046
2052
2065
2079
2101
2115
2126
2150
2195
2238
2276
2295
2305
2319
2337
2351
2365
2391
2419
2450
2481
2497
2502
2516
2524
2515
2507
2490
2457
2419
2379
2336
2296
2258
2224
2201
2183
2141
2082
2028
1996
1981
1970
1960
1943
1928
1928
1937
1937
1927
1914
1904
1886
1877
1888
1903
1910
1907
1897
1893
1897
1891
1888
1904
1916
1917
1930
1945
1970
1988
1992
1983
1977
1972
1962
1951
1941
1934
1931
1937
1944
1952
1956
1954
1948
1941
1935
1939
1947
1950
1936
1927
1930
1955
1988
2002
1993
1984
1972
1964
1968
1990
1991
1984
1992
1990
1979
1970
1974
1982
1990
1987
1972
1969
1968
1967
1976
1987
1992
1992
1987
1978
1972
1978
1979
1964
1960
1984
2009
2014
2000
1989
1991
2002
2008
2010
1999
1993
1990
1979
1971
1968
1972
1993
2010
2018
2019
2008
1993
1989
1989
1990
1992
1995
1995
2011
2022
2033
2043
2059
2069
2060
2026
1996
1974
1961
1958
1978
2007
2042
2060
2058
2059
2054
2035
2022
2029
2014
1994
1985
1975
1967
1988
2012
2025
2027
2029
2034
2034
2026
2023
2026
2042
2048
2048
2048
2046
2047
2051
2051
2056
2056
2047
2048
2066
2090
2110
2130
2128
2125
2109
2088
2068
2061
2070
2086
2092
2077
2064
2061
2058
2056
2069
2090
2098
2097
2091
2091
2087
2086
2087
2097
2114
2118
2123
2122
2119
2122
2117
2094
2064
2041
2033
2023
2008
1994
1985
1988
1995
2000
1997
1988
1979
1971
1959
1943
1931
1938
1950
1949
1964
1995
2030
2065
2074
2060
2033
2009
1994
1990
1985
1968
1956
1944
1936
1932
1930
1934
1943
1958
1980
1985
1958
1948
1969
1995
1985
1966
1949
1943
1950
1956
1942
1931
1927
1920
1904
1895
1903
1914
1925
1928
1931
1937
1949
1958
1957
1951
1950
1946
1934
1922
1908
1889
1878
1876
1878
1885
1900
1913
1925
1932
1931
1933
1940
1942
1932
1925
1930
1935
1944
1953
1952
1955
1966
1980
1987
1985
1979
1975
1961
1948
1949
1950
1949
1934
1924
1923
1923
1923
1920
1922
1939
1955
1962
1977
2002
2019
2011
1988
1959
1951
1958
1950
1938
1952
1971
1977
1972
1950
1925
1911
1914
1914
1916
1922
1922
1920
1919
1927
1947
1966
1983
1988
1993
1992
1986
1980
1972
1969
1971
1982
1980
1970
1967
1971
1976
1978
1993
1993
1986
1989
1984
1977
1976
1992
2001
1997
1986
1990
2013
2045
2062
2047
2011
1973
1950
1936
1929
1927
1941
1959
1976
1989
2004
2013
2008
1999
1979
1959
1952
1961
1977
1978
1967
1959
1961
1975
1977
1974
1971
1970
1973
1979
1990
1993
2001
2014
2028
2041
2055
2058
2053
2046
2038
2021
2004
1997
1993
1983
1972
1971
1986
2005
2015
2031
2041
2034
2018
2008
2004
2006
2005
2000
1997
2003
2032
2064
2081
2074
2043
2014
2007
2006
1996
1975
1955
1946
1953
1967
1978
1985
1987
1994
2017
2038
2045
2053
2049
2043
2043
2041
2038
2034
2021
2015
2032
2060
2066
2052
2032
2014
2024
2052
2055
2052
2048
2037
2020
2010
1993
1976
1973
1974
1968
1964
1973
1987
2002
2004
1989
1986
1981
1976
1994
2023
2043
2044
2029
2022
2024
2028
2030
2017
1993
1972
1960
1956
1965
1966
1959
1932
1907
1899
1919
1941
1956
1973
1978
1976
1972
1967
1968
1965
1963
1956
1939
1926
1912
1904
1902
1906
1904
1903
1920
1935
1933
1934
1958
2016
2084
2129
2149
2161
2179
2194
2209
2224
2241
2263
2288
2313
2332
2332
2318
2309
2318
2342
2364
2389
2422
2449
2465
2496
2522
2513
2490
2467
2431
2396
2351
2293
2238
2194
2154
2115
2081
2039
1999
1976
1963
1941
1928
1927
1939
1952
1953
1935
1898
1890
1895
1892
1886
1892
1901
1920
1948
1969
1971
1962
1946
1917
1891
1874
1852
1831
1826
1840
1859
1867
1861
1849
1848
1851
1861
1872
1882
1905
1919
1913
1894
1881
1885
1886
1878
1873
1876
1897
1909
1922
1935
1929
1917
1917
1924
1928
1939
1950
1957
1961
1973
1986
1998
2006
2011
2012
2007
1993
1964
1936
1917
1904
1900
1886
1872
1879
1895
1897
1895
1917
1916
1906
1909
1909
1942
1969
1992
1994
1987
1985
1969
1941
1933
1938
1938
1947
1949
1946
1939
1938
1941
1950
1950
1947
1949
1964
1981
1999
2013
2015
2011
2004
1994
1980
1958
1936
1926
1923
1921
1918
1905
1905
1924
1923
1934
1942
1942
1949
1970
1985
1994
1982
1966
1962
1969
1971
1966
1970
1983
1985
1984
1984
1995
2003
2001
2005
2014
2029
2052
2074
2080
2073
2062
2039
2004
1986
1991
1995
1981
1960
1946
1954
1957
1973
1993
2005
1999
1986
1981
2001
2025
2044
2041
2039
2038
2044
2053
2065
2070
2072
2075
2074
2059
2046
2041
2044
2058
2069
2081
2099
2112
2133
2141
2128
2115
2108
2093
2063
2023
1987
1972
1971
1985
2006
2031
2042
2052
2060
2060
2061
2055
2045
2041
2033
2021
2020
2025
2025
2022
2021
2022
2020
2018
2013
2009
2006
2001
1997
2001
1998
1996
1991
1987
1987
1987
1993
2001
2009
2021
2034
2041
2039
2029
2008
1989
1980
1999
2029
1991
1914
1863
1869
1895
1907
1920
1920
1930
1949
1952
1946
1953
1962
1960
1958
1973
1991
1994
1994
1996
2008
2017
1998
1971
1954
1953
1968
1983
1995
1992
1985
1963
1949
1951
1957
1965
1988
2006
2019
2027
2023
2025
2023
2001
1987
1995
2001
1984
1962
1940
1929
1932
1942
1961
1984
2004
2003
1985
1969
1966
1972
1978
1972
1961
1957
1953
1953
1960
1954
1947
1942
1945
1960
1974
1976
1979
1977
1983
2000
2003
1994
1993
1997
2003
2005
2011
2008
2015
2024
2023
2017
2015
2020
2033
2047
2044
2031
2009
1999
1996
2011
2020
2005
1988
1980
1977
1982
1985
1985
1989
1995
1991
1975
1961
1952
1942
1932
1937
1959
1996
2020
2020
2009
2013
2027
2032
2039
2045
2039
2029
2021
2024
2036
2049
2054
2066
2071
2078
2078
2068
2040
2010
2009
2007
1990
1977
1986
2015
2051
2083
2099
2076
2046
2031
2023
2003
1984
1973
1987
2012
2036
2056
2065
2061
2050
2043
2048
2048
2039
2045
2055
2058
2048
2040
2044
2060
2074
2080
2091
2101
2107
2111
2112
2103
2086
2078
2074
2060
2053
2053
2059
2053
2046
2032
2014
1997
1995
2010
2033
2048
2038
2017
2031
2045
2034
2029
2055
2080
2085
2086
2085
2088
2090
2092
2089
2084
2082
2091
2092
2097
2104
2120
2124
2115
2108
2106
2104
2104
2110
2115
2117
2117
2099
2054
2018
2026
2068
2106
2113
2108
2107
2099
2082
2052
2024
1999
1991
2008
2026
2035
2051
2062
2057
2035
2005
1999
2031
2049
2036
2043
2067
2086
2092
2086
2079
2076
2076
2071
2067
2061
2054
2045
2030
2025
2023
2008
1991
1975
1985
2017
2022
1994
1997
2029
2040
2029
2012
1995
1985
1979
1970
1967
1979
1994
2015
2020
2023
2024
2036
2059
2088
2121
2156
2191
2221
2246
2269
2297
2333
2377
2419
2452
2475
2498
2538
2566
2574
2579
2583
2595
2617
2622
2598
2556
2521
2497
2477
2446
2410
2380
2348
2304
2248
2191
2137
2092
2057
2035
2013
1998
1986
1976
1971
1969
1968
1962
1943
1933
1930
1928
1935
1943
1950
1951
1942
1938
1934
1934
1934
1931
1937
1941
1941
1938
1934
1928
1926
1934
1933
1931
1936
1944
1947
1940
1930
1928
1927
1924
1920
1918
1929
1940
1955
1971
1983
1961
1949
1963
1996
2019
2027
2011
1989
1975
1968
1958
1945
1937
1936
1945
1953
1958
1964
1972
1975
1971
1972
1971
1971
1971
1969
1970
1984
1998
1997
2000
2006
2006
1998
1996
2008
2025
2037
2029
2018
1997
1991
1989
1991
2009
2027
2029
2024
2007
1992
1975
1966
1963
1962
1962
1974
1979
1977
1979
1982
1984
1991
1991
1997
1999
1998
1995
1996
1993
1993
1990
1987
1987
1986
1991
2007
2028
2033
2028
2020
2023
2043
2053
2056
2050
2023
1997
1978
1969
1978
2005
2045
2083
2096
2091
2090
2087
2082
2070
2056
2046
2038
2031
2024
2019
2023
2032
2044
2052
2054
2047
2037
2038
2049
2049
2051
2063
2073
2087
2098
2099
2104
2117
2141
2155
2170
2186
2177
2144
2124
2141
2165
2168
2148
2133
2132
2128
2125
2107
2073
2050
2048
2060
2072
2080
2093
2111
2120
2118
2117
2120
2115
2105
2104
2104
2119
2122
2116
2111
2110
2112
2119
2121
2127
2131
2124
2120
2104
2091
2094
2122
2151
2145
2111
2073
2055
2063
2079
2088
2082
2084
2096
2107
2103
2091
2085
2088
2089
2080
2068
2060
2060
2065
2066
2060
2051
2042
2041
2055
2071
2080
2085
2086
2086
2089
2102
2084
2049
2029
2027
2025
2018
2020
2019
2025
2021
2001
1976
1967
1962
1973
1991
2023
2061
2070
2053
2035
2028
2034
2047
2062
2066
2060
2061
2064
2067
2065
2065
2064
2069
2068
2061
2063
2061
2055
2054
2067
2058
2034
2010
2000
2017
2034
2044
2055
2076
2099
2115
2115
2119
2114
2095
2069
2047
2036
2036
2041
2052
2072
2086
2087
2088
2082
2075
2067
2059
2051
2048
2044
2040
2029
2021
2023
2026
2024
2023
2037
2041
2027
2024
2025
2022
2022
2029
2040
2051
2067
2068
2061
2057
2058
2054
2054
2044
2054
2069
2076
2078
2079
2076
2076
2077
2077
2069
2063
2064
2045
2040
2052
2070
2077
2060
2044
2049
2065
2084
2095
2087
2080
2076
2068
2070
2075
2069
2052
2039
2032
2030
2040
2058
2070
2084
2092
2083
2086
2092
2083
2066
2054
2056
2045
2021
2014
2040
2078
2106
2122
2115
2108
2096
2085
2073
2062
2062
2072
2082
2084
2084
2081
2086
2099
2106
2098
2098
2097
2100
2108
2112
2105
2097
2095
2094
2085
2080
2077
2071
2068
2065
2064
2051
2041
2034
2040
2063
2084
2079
2065
2056
2069
2092
2104
2108
2114
2114
2125
2126
2113
2092
2072
2059
2054
2049
2046
2044
2042
2048
2056
2057
2053
2048
2062
2079
2085
2082
2073
2076
2078
2071
2079
2091
2095
2090
2076
2065
2081
2104
2124
2126
2128
2119
2107
2090
2078
2063
2052
2060
2072
2083
2093
2103
2106
2108
2102
2084
2063
2051
2048
2050
2053
2053
2061
2075
2080
2084
2084
2083
2087
2089
2080
2065
2054
2055
2069
2087
2113
2134
2147
2145
2148
2159
2169
2184
2186
2181
2161
2131
2093
2067
2049
2042
2048
2061
2069
2065
2059
2051
2047
2060
2081
2086
2078
2066
2059
2051
2067
2077
2060
2048
2059
2063
2052
2033
2022
2048
2079
2081
2075
2067
2060
2050
2049
2060
2078
2091
2089
2090
2095
2103
2109
2105
2109
2108
2105
2102
2094
2093
2092
2070
2049
2041
2029
2018
2030
2056
2092
2123
2142
2156
2178
2209
2237
2260
2292
2323
2355
2400
2452
2489
2513
2534
2554
2574
2589
2611
2638
2649
2647
2624
2595
2557
2515
2476
2456
2446
2418
2373
2341
2305
2268
2240
2205
2171
2130
2093
2056
2025
2010
2013
2026
2023
2013
1991
1958
1931
1915
1918
1937
1953
1960
1967
1970
1974
1978
1985
1984
1977
1977
1977
1980
1977
1979
1976
1979
1996
2022
2037
2035
2026
2011
2000
1992
1991
1989
1994
2023
2057
2070
2081
2074
2065
2068
2081
2095
2095
2086
2079
2063
2053
2045
2038
2040
2025
2011
2001
2006
2004
1991
1974
1954
1942
1953
1985
2015
2026
2030
2037
2045
2045
2034
2024
2027
2031
2038
2043
2048
2055
2052
2037
2020
2032
2055
2076
2101
2119
2106
2097
2093
2078
2072
2071
2070
2060
2042
2025
2023
2029
2024
2008
1981
1976
1993
2009
2008
1998
2005
2033
2062
2081
2085
2089
2088
2083
2087
2080
2061
2049
2072
2081
2086
2099
2102
2097
2081
2065
2055
2058
2075
2082
2074
2073
2088
2109
2121
2130
2137
2133
2120
2105
2099
2099
2095
2083
2076
2076
2080
2090
2100
2098
2085
2076
2065
2048
2040
2057
2083
2094
2097
2106
2110
2111
2112
2111
2104
2107
2116
2123
2120
2116
2119
2131
2140
2146
2147
2152
2159
2158
2147
2141
2155
2172
2192
2221
2240
2230
2213
2200
2186
2172
2148
2136
2137
2157
2179
2192
2191
2181
2171
2164
2161
2156
2145
2139
2137
2139
2122
2101
2106
2114
2123
2140
2158
2161
2144
2118
2119
2115
2109
2112
2121
2126
2137
2145
2143
2139
2132
2107
2063
2026
2028
2050
2055
2043
2023
2016
2017
2020
2026
2034
2040
2042
2037
2027
2023
2023
2021
2015
2017
2041
2057
2062
2067
2067
2055
2035
2022
2030
2043
2056
2067
2069
2058
2045
2054
2059
2056
2048
2051
2067
2084
2084
2082
2099
2119
2122
2111
2084
2058
2051
2060
2072
2076
2060
2052
2050
2055
2046
2036
2030
2039
2037
2025
2019
2031
2045
2042
2026
2016
2013
2010
2005
2005
2021
2045
2068
2078
2057
2053
2049
2035
2030
2017
2008
2018
2022
2019
2015
2026
2036
2041
2043
2044
2059
2080
2086
2079
2069
2056
2054
2063
2070
2072
2075
2074
2072
2065
2046
2009
1990
2012
2046
2065
2076
2081
2074
2077
2091
2091
2096
2096
2088
2080
2070
2057
2065
2077
2088
2096
2106
2097
2075
2051
2038
2038
2042
2046
2055
2055
2067
2072
2082
2088
2082
2067
2052
2038
2022
2020
2048
2077
2083
2073
2059
2042
2021
2012
2030
2050
2059
2066
2071
2070
2070
2071
2064
2063
2062
2074
2084
2080
2083
2093
2093
2093
2094
2087
2083
2081
2075
2066
2057
2051
2039
2028
2029
2031
2041
2062
2080
2081
2074
2062
2060
2077
2095
2098
2107
2111
2101
2092
2096
2093
2080
2058
2042
2029
2017
2018
2024
2037
2049
2060
2048
2031
2029
2025
2018
2010
2016
2034
2042
2046
2051
2057
2057
2055
2057
2055
2057
2062
2071
2075
2067
2058
2061
2063
2062
2059
2049
2041
2042
2051
2055
2045
2045
2056
2066
2075
2088
2099
2099
2092
2071
2059
2060
2063
2067
2076
2094
2113
2124
2114
2097
2087
2067
2037
2018
2014
2020
2032
2024
2008
1989
1999
2014
1999
1964
1944
1947
1966
2013
2050
2078
2089
2086
2076
2057
2046
2053
2051
2041
2044
2048
2048
2052
2063
2071
2076
2081
2079
2068
2062
2052
2037
2030
2030
2027
2041
2050
2047
2037
2032
2037
2047
2062
2075
2077
2072
2056
2033
2016
2012
2020
2029
2029
2027
2026
2023
2024
2022
2022
2014
2012
2016
2011
1996
1989
1997
2010
2052
2096
2099
2081
2067
2067
2064
2062
2053
2028
2004
1998
2006
2017
2030
2033
2025
2026
2025
2016
2013
2012
2014
2025
2037
2057
2088
2115
2144
2189
2222
2241
2255
2263
2278
2314
2346
2379
2420
2455
2477
2486
2499
2511
2525
2551
2582
2590
2585
2572
2547
2518
2490
2473
2460
2436
2405
2365
2316
2266
2224
2181
2132
2084
2051
2030
2018
2005
1996
1984
1970
1966
1975
1971
1969
1970
1971
1981
1984
1965
1937
1908
1893
1899
1918
1931
1928
1921
1918
1923
1935
1947
1961
1969
1979
1983
1984
2000
2014
2028
2045
2048
2045
2020
1989
1970
1966
1968
1978
1976
1970
1978
1989
1987
1983
1980
1988
1992
1999
2010
2011
2014
2029
2030
2029
2023
2008
1993
1972
1952
1951
1966
1972
1976
1985
1998
1999
1991
1992
1996
1998
1987
1978
1996
2022
2026
2030
2039
2049
2056
2063
2066
2075
2075
2060
2031
2018
2015
2018
2030
2036
2024
2008
2004
2007
2012
2009
1998
1993
2000
2006
2004
1991
1981
1973
1969
1984
2005
2014
2017
2031
2043
2038
2030
2025
2032
2060
2075
2062
2052
2050
2041
2017
1999
1993
2013
2036
2048
2049
2046
2048
2043
2041
2032
2020
2010
2005
2009
2015
2022
2028
2034
2038
2041
2036
2039
2045
2050
2044
2018
1999
2013
2035
2051
2060
2057
2065
2079
2100
2110
2113
2113
2082
2034
2000
2014
2044
2075
2093
2090
2080
2071
2080
2089
2096
2117
2130
2121
2116
2113
2102
2094
2092
2090
2083
2074
2072
2076
2075
2092
2116
2148
2175
2156
2111
2080
2066
2056
2066
2081
2074
2072
2068
2065
2061
2056
2049
2048
2066
2079
2073
2059
2044
2030
2030
2030
2024
2009
1994
1993
2004
2013
2016
2011
2007
2009
2005
1993
1985
1986
1989
1988
1990
1992
1997
2008
2016
2012
1994
1966
1944
1936
1952
1962
1964
1972
1971
1967
1963
1960
1964
1966
1963
1973
1992
1992
1981
1968
1966
1981
1993
1994
1980
1961
1949
1956
1978
1995
1999
1988
1969
1951
1952
1968
1972
1997
2010
1989
1966
1954
1948
1956
1962
1963
1955
1952
1966
1975
1976
1973
1971
1975
1976
1977
1961
1945
1945
1944
1948
1957
1970
1970
1954
1938
1946
1963
1976
1991
2003
2008
2004
1994
1992
1988
1983
1982
1978
1983
1980
1987
1990
1997
1995
1985
1975
1969
1957
1948
1947
1950
1953
1952
1956
1956
1955
1955
1965
1976
1989
2001
2005
2007
2008
2008
2002
1988
2018
2074
2103
2108
2089
2054
2020
1977
1936
1904
1898
1920
1952
1986
2016
2026
2021
2014
2010
2012
2015
2016
2003
1985
1972
1966
1965
1967
1973
1974
1977
1993
2009
2016
2011
2009
2016
2022
2019
2024
2036
2040
2052
2064
2076
2086
2092
2089
2068
2040
2005
1972
1957
1960
1966
1956
1936
1922
1921
1964
1998
2013
2014
2014
2015
2009
2001
2003
2011
2030
2062
2067
2044
2024
2006
1993
1991
2005
2022
2030
2034
2039
2051
2062
2073
2073
2075
2079
2076
2084
2084
2067
2048
2039
2054
2079
2095
2092
2080
2058
2042
2044
2056
2048
2041
2038
2036
2042
2052
2048
2058
2073
2083
2076
2062
2040
2017
2005
2007
2023
2051
2073
2074
2081
2093
2114
2130
2125
2112
2097
2117
2142
2164
2173
2161
2139
2101
2072
2064
2076
2087
2085
2078
2082
2099
2112
2105
2112
2125
2138
2149
2145
2137
2132
2135
2146
2154
2140
2136
2145
2145
2143
2140
2136
2128
2132
2143
2152
2147
2139
2127
2111
2096
2088
2078
2067
2055
2067
2088
2101
2109
2105
2097
2086
2074
2075
2089
2089
2084
2072
2065
2063
2070
2085
2108
2128
2125
2114
2112
2110
2107
2105
2110
2106
2097
2084
2069
2030
1998
2011
2042
2064
2071
2063
2072
2084
2082
2074
2060
2046
2054
2076
2110
2142
2163
2190
2205
2227
2259
2291
2319
2342
2362
2391
2432
2478
2515
2537
2550
2567
2593
2615
2631
2655
2676
2682
2675
2663
2645
2627
2594
2556
2515
2464
2415
2368
2327
2291
2253
2199
2147
2110
2075
2043
2025
2030
2033
2030
2035
2043
2039
2034
2033
2032
2023
2013
2008
2012
2009
2005
2000
1994
1998
1991
1983
1982
1990
1995
2002
2008
2013
2013
2006
2001
2015
2045
2073
2085
2090
2098
2101
2089
2067
2074
2095
2112
2108
2097
2085
2069
2076
2076
2068
2066
2083
2097
2116
2130
2127
2121
2117
2113
2113
2110
2105
2092
2078
2067
2058
2057
2062
2078
2095
2112
2124
2125
2124
2119
2119
2127
2136
2116
2084
2088
2125
2150
2147
2142
2144
2144
2141
2139
2133
2132
2138
2149
2148
2139
2124
2111
2121
2147
2153
2151
2137
2128
2138
2142
2137
2129
2124
2121
2118
2118
2123
2133
2136
2133
2123
2119
2123
2122
2117
2107
2101
2112
2119
2110
2114
2129
2142
2145
2165
2186
2190
2187
2179
2170
2169
2164
2145
2124
2138
2156
2170
2184
2185
2175
2163
2150
2141
2140
2158
2170
2176
2175
2182
2198
2210
2208
2205
2212
2216
2212
2200
2190
2181
2190
2204
2207
2191
2189
2204
2226
2243
2245
2250
2262
2264
2254
2242
2227
2223
2229
2237
2252
2262
2265
2251
2241
2248
2249
2234
2212
2187
2183
2202
2219
2227
2228
2231
2227
2218
2214
2213
2210
2204
2202
2195
2194
2186
2186
2200
2217
2238
2247
2245
2235
2217
2205
2202
2191
2183
2181
2165
2152
2142
2141
2141
2131
2129
2142
2147
2143
2140
2146
2141
2136
2134
2130
2113
2098
2091
2082
2078
2069
2071
2099
2130
2144
2159
2190
2194
2168
2134
2106
2089
2087
2084
2077
2080
2093
2103
2107
2111
2120
2116
2112
2117
2117
2108
2096
2096
2101
2112
2109
2090
2080
2078
2073
2071
2076
2075
2062
2049
2053
2063
2051
2042
2078
2122
2143
2134
2117
2110
2101
2098
2094
2091
2091
2101
2104
2097
2089
2087
2082
2084
2097
2102
2105
2117
2125
2129
2123
2097
2061
2028
2026
2060
2105
2138
2156
2176
2179
2164
2143
2134
2132
2128
2119
2109
2098
2090
2087
2101
2128
2154
2153
2146
2145
2142
2138
2135
2133
2133
2144
2148
2144
2141
2150
2163
2165
2177
2200
2219
2213
2182
2140
2123
2116
2103
2090
2077
2052
2021
2029
2043
2061
2079
2087
2097
2098
2090
2090
2102
2116
2125
2132
2132
2136
2132
2126
2122
2127
2130
2122
2111
2116
2122
2123
2122
2116
2128
2134
2143
2136
2128
2127
2138
2161
2164
2148
2126
2108
2107
2098
2086
2089
2110
2120
2102
2072
2062
2075
2083
2096
2109
2111
2106
2094
2086
2083
2086
2097
2100
2099
2092
2087
2062
2033
2037
2061
2089
2116
2137
2149
2150
2152
2162
2167
2171
2165
2164
2164
2176
2195
2191
2164
2127
2071
2020
2008
2014
2040
2075
2094
2099
2115
2131
2125
2113
2109
2107
2100
2099
2103
2112
2119
2117
2119
2130
2137
2135
2132
2132
2145
2155
2149
2143
2146
2163
2181
2187
2176
2168
2155
2142
2125
2106
2099
2108
2111
2104
2087
2081
2073
2081
2093
2095
2089
2078
2067
2053
2049
2048
2052
2075
2102
2118
2120
2110
2091
2076
2064
2062
2067
2084
2109
2130
2146
2161
2157
2136
2131
2139
2135
2145
2144
2125
2114
2099
2074
2056
2058
2079
2104
2124
2121
2109
2102
2089
2066
2041
2017
1997
1992
2011
2029
2043
2066
2095
2119
2136
2153
2180
2206
2225
2243
2279
2325
2375
2423
2466
2500
2529
2551
2564
2567
2572
2592
2609
2626
2639
2631
2603
2582
2565
2538
2498
2450
2417
2387
2351
2310
2264
2220
2186
2155
2114
2078
2047
2019
1994
1988
1993
2005
2015
2021
2020
2023
2022
2021
2022
2017
2016
2022
2034
2040
2033
2013
1995
1988
1992
2001
2004
1997
1971
1957
1971
1989
2012
2016
2017
2023
2033
2034
2029
2031
2034
2036
2044
2051
2061
2068
2067
2083
2089
2081
2078
2083
2094
2097
2096
2096
2092
2083
2091
2105
2122
2115
2094
2069
2067
2056
2040
2027
2018
1990
1958
1953
1962
1973
2001
2043
2089
2101
2098
2105
2101
2093
2095
2103
2108
2113
2122
2124
2111
2099
2095
2094
2084
2078
2093
2103
2106
2098
2088
2090
2095
2094
2101
2102
2103
2091
2040
2009
2006
2029
2057
2064
2067
2071
2081
2096
2098
2076
2058
2063
2073
2081
2092
2106
2119
2122
2118
2115
2116
2116
2113
2113
2120
2119
2110
2103
2100
2093
2087
2075
2070
2076
2079
2088
2099
2107
2100
2095
2098
2102
2106
2103
2105
2117
2119
2119
2117
2126
2127
2130
2133
2153
2162
2156
2145
2137
2139
2158
2186
2200
2194
2181
2183
2193
2205
2210
2200
2193
2200
2208
2203
2197
2182
2152
2131
2133
2156
2180
2196
2195
2187
2178
2185
2201
2208
2213
2216
2202
2181
2166
2155
2148
2160
2180
2199
2199
2193
2184
2168
2156
2147
2158
2163
2158
2151
2144
2133
2118
2105
2114
2117
2109
2089
2073
2080
2108
2123
2116
2099
2089
2096
2087
2076
2071
2069
2056
2057
2071
2082
2093
2109
2114
2123
2135
2122
2100
2071
2052
2049
2049
2046
2039
2044
2046
2046
2047
2042
2037
2042
2042
2037
2032
2023
2024
2024
2012
1996
1998
2007
2036
2062
2064
2065
2065
2059
2058
2055
2047
2058
2061
2056
2052
2049
2051
2047
2053
2061
2064
2063
2053
2043
2052
2066
2082
2093
2095
2084
2078
2075
2061
2041
2029
2030
2048
2054
2044
2033
2033
2040
2040
2047
2055
2058
2069
2081
2082
2079
2075
2081
2071
2050
2033
2035
2049
2065
2078
2094
2105
2096
2081
2070
2063
2061
2065
2080
2087
2079
2074
2074
2067
2061
2054
2045
2036
2027
2014
2018
2011
1996
2009
2043
2079
2104
2123
2135
2131
2108
2084
2090
2109
2112
2095
2076
2055
2039
2030
2043
2048
2048
2062
2072
2075
2075
2078
2087
2086
2079
2065
2034
2004
1992
2008
2011
2021
2031
2028
2027
2039
2047
2041
2030
2033
2055
2071
2083
2083
2090
2079
2067
2067
2067
2068
2078
2091
2088
2079
2074
2074
2074
2065
2052
2049
2039
2021
2001
1979
1966
1959
1939
1942
1981
2022
2049
2068
2079
2073
2069
2062
2063
2071
2079
2072
2063
2053
2060
2070
2067
2068
2071
2072
2083
2087
2086
2087
2081
2067
2063
2048
2033
2027
2036
2055
2084
2095
2085
2075
2060
2051
2056
2049
2054
2067
2069
2059
2036
2020
2011
2007
2011
2021
2033
2046
2055
2060
2064
2076
2085
2089
2092
2098
2106
2124
2136
2147
2160
2177
2167
2118
2061
2021
2007
2009
2025
2051
2079
2092
2082
2071
2069
2074
2069
2063
2052
2035
2024
2022
2023
2017
2005
2000
2000
2007
2019
2023
2027
2034
2033
2042
2060
2067
2068
2059
2057
2062
2083
2099
2079
2046
2020
2007
2007
2008
2008
2009
2022
2038
2037
2031
2031
2029
2027
2024
2024
2028
2024
2018
2013
2008
2010
2006
1998
1982
1967
1953
1954
1964
1975
1990
2009
2030
2043
2055
2074
2096
2116
2126
2149
2193
2234
2260
2291
2333
2373
2407
2435
2468
2492
2505
2512
2517
2529
2547
2581
2606
2614
2607
2600
2584
2563
2531
2495
2447
2401
2355
2306
2260
2219
2176
2129
2090
2067
2037
2019
2015
2025
2022
2008
1998
1995
1993
1974
1951
1940
1943
1948
1945
1940
1936
1938
1944
1950
1963
1972
1973
1973
1973
1972
1977
1983
1992
2002
2007
2006
2004
2006
2000
1989
1987
2001
2015
2012
2002
1990
1972
1970
1979
1981
1984
1999
2018
2015
1999
1984
1973
1992
2015
2021
2022
2016
2001
1985
1983
1985
1989
1992
2004
1999
1980
1965
1969
1987
1996
1980
1964
1987
2015
2012
2009
2021
2031
2042
2049
2043
2030
2021
2015
2018
2015
2026
2033
2029
2032
2046
2054
2057
2051
2039
2035
2030
2023
2028
2047
2068
2079
2070
2050
2037
2034
2043
2044
2033
2018
2008
2020
2048
2068
2065
2062
2065
2054
2034
2030
2031
2042
2041
2042
2056
2042
2035
2048
2064
2088
2106
2102
2088
2076
2080
2067
2050
2037
2032
2054
2092
2113
2106
2107
2115
2123
2128
2125
2117
2118
2127
2135
2130
2121
2122
2120
2124
2129
2124
2115
2118
2125
2134
2137
2142
2152
2158
2153
2154
2159
2168
2168
2158
2153
2149
2131
2130
2138
2153
2173
2176
2179
2189
2208
2225
2208
2193
2180
2188
2200
2207
2211
2201
2185
2181
2174
2155
2140
2134
2131
2136
2145
2155
2160
2159
2162
2167
2166
2155
2144
2143
2139
2137
2135
2119
2105
2117
2129
2110
2081
2066
2068
2078
2068
2061
2084
2097
2089
2087
2094
2106
2104
2095
2081
2060
2038
2030
2045
2067
2074
2064
2074
2074
2062
2054
2053
2058
2066
2068
2048
2038
2047
2051
2048
2050
2046
2040
2026
2009
2007
2022
2031
2025
2014
2009
1998
1990
1977
1974
1975
1987
2003
2005
1997
1984
1972
1962
1964
1968
1975
1994
2006
1996
1987
1976
1977
1981
2002
2020
2014
2018
2029
2026
2013
1996
1982
1979
1974
1967
1972
1982
1984
1992
2001
2003
2008
2012
2017
2032
2043
2044
2042
2031
2013
1986
1972
1970
1979
1992
2002
2016
2042
2058
2060
2046
2039
2038
2040
2041
2048
2052
2047
2044
2044
2040
2036
2014
1971
1942
1932
1937
1958
1984
1996
1999
2002
2012
2021
2026
2025
2021
2027
2026
2009
2011
2025
2041
2056
2073
2075
2051
2037
2031
2024
2010
1994
1993
1989
1993
2011
2038
2053
2042
2025
2011
2008
2006
1993
1972
1959
1959
1961
1965
1976
1994
2010
2005
2000
1998
2011
2019
2017
2014
2017
2020
2014
2007
2001
1991
1985
1982
1986
1980
1977
1969
1959
1966
1982
1985
1988
2001
2012
2010
1992
1978
1995
2022
2022
2009
2002
1996
1998
1998
1994
1981
1969
1958
1949
1958
1963
1971
1981
1976
1968
1977
1988
1998
2000
2012
2021
2014
1992
1974
1978
1976
1975
1980
1989
1980
1962
1944
1942
1951
1950
1943
1943
1959
1982
2008
2025
2021
1996
1965
1948
1949
1949
1954
1954
1940
1924
1922
1920
1917
1920
1927
1931
1949
1964
1989
2007
2014
2016
2013
2008
2005
2004
2005
2009
2012
2016
2022
2032
2037
2035
2058
2076
2065
2038
2017
2008
2003
1994
1985
1971
1963
1961
1964
1972
1965
1967
1968
1963
1948
1933
1930
1943
1948
1949
1950
1937
1932
1942
1950
1945
1943
1959
1972
1980
1979
1979
1972
1976
1963
1931
1918
1934
1949
1946
1946
1948
1948
1947
1936
1922
1908
1906
1906
1915
1929
1933
1929
1923
1931
1945
1958
1963
1964
1957
1957
1954
1938
1923
1912
1908
1918
1938
1955
1967
1983
2005
2026
2046
2065
2082
2099
2116
2132
2158
2199
2263
2322
2358
2374
2403
2425
2434
2447
2463
2477
2500
2516
2525
2493
2451
2418
2393
2377
2348
2311
2274
2233
2187
2140
2091
2051
2019
1990
1951
1914
1895
1883
1880
1880
1872
1867
1852
1837
1818
1800
1791
1798
1810
1811
1811
1821
1838
1848
1853
1854
1852
1840
1839
1856
1867
1873
1873
1868
1855
1847
1847
1849
1860
1860
1861
1875
1868
1854
1846
1851
1864
1877
1870
1849
1835
1833
1839
1837
1844
1860
1867
1868
1862
1871
1903
1936
1955
1967
1971
1964
1952
1948
1948
1967
1987
1997
2006
2018
2019
2012
2001
1986
1984
1982
1974
1969
1977
1979
1978
1994
2011
2021
2021
2011
2001
2004
2012
2022
2024
2034
2031
2024
2028
2037
2039
2042
2047
2051
2043
2032
2028
2030
2026
2028
2050
2075
2078
2068
2048
2040
2048
2062
2079
2088
2086
2087
2096
2103
2112
2110
2112
2118
2118
2114
2112
2126
2145
2168
2179
2183
2173
2162
2154
2150
2144
2139
2148
2156
2147
2137
2140
2147
2156
2156
2161
2168
2172
2182
2188
2179
2164
2158
2161
2179
2200
2195
2188
2197
2197
2197
2192
2193
2205
2211
2207
2214
2221
2223
2212
2202
2195
2189
2197
2211
2207
2196
2190
2186
2174
2191
2215
2211
2214
2222
2227
2229
2232
2225
2219
2214
2204
2191
2179
2173
2171
2168
2165
2165
2180
2180
2162
2149
2141
2151
2164
2159
2133
2144
2167
2188
2184
2171
2150
2134
2128
2127
2125
2116
2091
2063
2051
2038
2024
2025
2044
2059
2057
2061
2076
2088
2096
2095
2107
2112
2096
2076
2056
2026
2001
1979
1973
1969
1981
1994
2008
2021
2031
2025
2019
2008
2014
2010
2000
1997
2009
2017
2016
2010
2010
2019
2027
2029
2029
2031
2019
2000
1984
1960
1948
1956
1955
1942
1925
1906
1904
1918
1929
1948
1968
1978
1975
1974
1990
1992
1986
1984
1983
1976
1969
1961
1954
1952
1956
1963
1968
1984
1987
1983
1961
1948
1970
1986
1980
1962
1947
1934
1931
1936
1944
1950
1961
1956
1941
1927
1917
1908
1901
1906
1921
1933
1944
1962
1964
1952
1957
1992
2014
2001
1982
1969
1965
1959
1960
1973
1977
1973
1963
1959
1954
1954
1959
1955
1941
1921
1914
1918
1917
1919
1944
1972
2000
2018
2020
2018
2021
2024
2038
2037
2024
2006
1988
1975
1957
1943
1942
1941
1943
1945
1940
1939
1945
1952
1946
1937
1939
1939
1932
1937
1946
1948
1965
1978
1979
1976
1966
1957
1955
1960
1967
1970
1974
1988
2002
2006
1992
1984
1982
1968
1965
1983
1992
1986
1984
1977
1977
1988
1988
1990
1987
1982
1989
2002
2002
1997
1992
1993
1987
1976
1974
1984
1979
1977
1979
1980
1980
1985
1994
1991
1987
1981
1967
1953
1966
1980
1996
2010
2009
1996
1989
1984
1985
2004
2013
2000
1991
1989
1994
1991
1982
1989
1986
1972
1959
1948
1942
1946
1955
1964
1974
1964
1946
1939
1929
1919
1916
1924
1929
1930
1932
1925
1906
1920
1951
1971
1970
1975
1993
2011
2009
2008
2021
2032
2031
2027
2023
2030
2043
2044
2039
2023
2011
2004
2011
2006
1994
1983
1970
1979
1986
1982
1976
1979
2001
2015
2007
1996
1978
1965
1968
1970
1968
1972
1980
1984
1986
1994
1995
1991
1981
1972
1967
1959
1950
1947
1936
1926
1929
1942
1955
1956
1951
1950
1945
1945
1956
1960
1959
1967
1980
1987
1991
2003
2011
2011
2009
2010
2024
2038
2028
2012
2000
1987
1976
1974
1981
1992
2002
1985
1959
1936
1931
1956
1977
1961
1952
1973
2010
2039
2060
2072
2078
2094
2119
2150
2182
2207
2233
2261
2289
2322
2376
2428
2467
2489
2503
2508
2526
2546
2564
2581
2582
2566
2552
2531
2509
2480
2441
2396
2351
2305
2257
2214
2159
2106
2066
2041
2013
1986
1985
1993
1994
1997
1993
1980
1967
1950
1936
1929
1913
1896
1884
1879
1882
1884
1881
1886
1895
1900
1901
1903
1906
1902
1908
1933
1959
1972
1970
1958
1945
1937
1936
1944
1958
1960
1960
1961
1957
1955
1953
1966
1998
2003
1983
1958
1940
1934
1947
1970
1986
1998
2008
2010
2001
1988
1980
1970
1959
1953
1944
1943
1946
1943
1959
1983
1991
1977
1973
1979
1971
1968
1983
1990
1992
1987
1983
1991
2000
2001
2008
2016
2026
2028
2027
2014
2000
1990
1986
1990
1998
2006
2022
2040
2051
2066
2072
2072
2063
2046
2013
1983
1960
1952
1967
1975
1963
1950
1950
1960
1973
1979
1975
1979
1982
1983
1977
1967
1966
1973
1974
1979
1994
2012
2018
2011
2013
2029
2046
2057
2044
2039
2049
2047
2044
2041
2037
2036
2036
2038
2038
2015
1985
1971
1978
1988
1993
2004
2019
2024
2028
2018
2003
1996
1997
2006
2018
2033
2045
2060
2070
2064
2057
2066
2063
2063
2068
2062
2064
2070
2070
2072
2078
2088
2085
2077
2080
2092
2098
2094
2087
2084
2096
2110
2108
2091
2085
2084
2085
2082
2068
2057
2050
2032
2019
2021
2030
2037
2044
2044
2048
2056
2060
2065
2076
2084
2086
2087
2087
2080
2066
2049
2038
2024
2012
1998
1989
2007
2022
2025
2023
2032
2023
2013
2003
1985
1968
1959
1970
1987
1997
2004
2008
2008
2002
1998
1999
1996
1996
1990
1991
1996
1996
1991
1979
1967
1959
1951
1947
1940
1940
1954
1972
1988
1996
2001
1994
1999
1996
1969
1940
1932
1934
1958
1971
1956
1927
1905
1889
1883
1886
1894
1899
1905
1917
1924
1924
1923
1914
1908
1892
1866
1851
1846
1844
1821
1809
1819
1846
1878
1893
1893
1896
1908
1910
1903
1888
1881
1887
1884
1870
1863
1869
1870
1881
1902
1913
1912
1902
1896
1895
1878
1863
1867
1869
1862
1852
1851
1863
1863
1855
1855
1858
1858
1852
1843
1843
1859
1873
1891
1907
1905
1906
1909
1920
1922
1912
1902
1889
1887
1906
1932
1956
1966
1961
1944
1931
1926
1923
1910
1891
1884
1889
1900
1914
1917
1907
1920
1944
1942
1924
1908
1898
1891
1889
1891
1907
1916
1910
1900
1900
1902
1905
1916
1932
1957
1989
2006
2002
1973
1946
1931
1914
1906
1903
1905
1906
1903
1917
1936
1954
1952
1941
1927
1919
1927
1927
1943
1960
1961
1962
1964
1955
1952
1951
1959
1961
1944
1932
1937
1952
1967
1983
2012
2008
2007
2003
2000
2012
2008
1994
1980
1962
1944
1950
1964
1969
1966
1963
1969
1975
1985
1980
1978
1977
1966
1961
1974
1975
1974
1982
1990
1991
1996
1998
1999
2005
2008
1996
1985
1985
1987
2008
2039
2059
2052
2053
2068
2074
2057
2045
2051
2063
2058
2046
2034
2024
2021
2014
2003
1988
1981
1980
1985
1996
2015
2038
2043
2038
2027
2015
2002
1992
1985
1971
1970
1970
1951
1955
1979
1982
1974
1963
1959
1956
1956
1955
1953
1961
1981
1993
1987
1975
1966
1967
1964
1964
1969
1966
1962
1952
1941
1939
1951
1951
1950
1954
1952
1961
1980
1975
1955
1948
1947
1950
1955
1942
1936
1946
1942
1925
1908
1904
1914
1915
1920
1929
1932
1926
1921
1928
1933
1924
1920
1918
1928
1943
1966
1993
2011
2025
2046
2065
2093
2125
2159
2195
2232
2267
2300
2336
2361
2375
2377
2385
2394
2396
2396
2407
2436
2470
2475
2449
2415
2385
2352
2314
2264
2220
2184
2150
2113
2076
2038
2003
1975
1951
1937
1927
1918
1908
1902
1904
1898
1884
1877
1864
1853
1851
1861
1886
1891
1867
1853
1874
1885
1888
1880
1875
1875
1893
1911
1924
1941
1950
1946
1953
1964
1960
1946
1936
1939
1944
1944
1942
1935
1932
1945
1959
1962
1961
1952
1939
1930
1930
1929
1937
1961
1974
1988
2001
1999
1990
1981
1974
1971
1982
1995
1992
1998
2001
1995
1990
1988
1983
1987
2000
1991
1995
2014
2034
2029
2007
1971
1956
1953
1959
1973
1987
1991
1986
1982
1988
1986
1977
1973
1972
1968
1967
1970
1974
1982
1991
1996
1998
2003
2012
2024
2031
2037
2033
2030
2036
2040
2037
2020
2006
1999
2003
2023
2046
2052
2060
2063
2050
2028
2009
2007
2015
2032
2047
2049
2048
2041
2035
2029
2031
2035
2042
2050
2067
2084
2095
2092
2092
2087
2072
2055
2044
2041
2048
2056
2072
2072
2076
2080
2079
2072
2063
2081
2096
2107
2117
2126
2130
2136
2138
2139
2135
2132
2137
2139
2145
2154
2150
2149
2154
2167
2177
2178
2184
2195
2190
2164
2145
2134
2129
2122
2116
2126
2149
2165
2167
2167
2161
2161
2174
2181
2179
2175
2178
2170
2154
2149
2151
2144
2134
2126
2133
2149
2154
2149
2148
2147
2135
2115
2100
2086
2072
2064
2067
2080
2095
2106
2120
2139
2146
2136
2130
2119
2109
2107
2121
2122
2109
2104
2106
2108
2110
2103
2090
2074
2063
2052
2039
2034
2036
2034
2027
2020
2012
2001
1996
2001
2006
2015
2032
2050
2057
2057
2049
2042
2030
2030
2032
2036
2049
2056
2058
2056
2052
2052
2054
2054
2066
2074
2071
2073
2083
2097
2091
2057
2048
2050
2044
2035
2034
2027
2028
2034
2033
2028
2033
2049
2050
2043
2033
2014
2008
2014
2015
2017
2020
2031
2043
2060
2090
2106
2115
2108
2092
2080
2073
2060
2045
2038
2050
2062
2076
2092
2095
2093
2083
2070
2049
2037
2048
2058
2055
2039
2020
2012
2014
2023
2033
2059
2089
2105
2116
2119
2115
2098
2082
2076
2063
2060
2073
2068
2069
2060
2048
2043
2049
2055
2062
2073
2076
2067
2058
2054
2059
2057
2050
2050
2049
2042
2039
2040
2052
2072
2085
2093
2090
2087
2088
2101
2118
2120
2108
2092
2084
2086
2087
2088
2089
2083
2068
2050
2039
2032
2031
2031
2040
2048
2050
2057
2055
2057
2060
2067
2072
2082
2089
2090
2092
2097
2095
2092
2095
2100
2093
2087
2084
2084
2085
2087
2096
2105
2096
2078
2061
2054
2060
2083
2098
2101
2096
2093
2093
2086
2070
2054
2061
2086
2109
2108
2088
2057
2033
2032
2055
2075
2069
2070
2082
2092
2102
2117
2127
2128
2128
2130
2115
2101
2100
2111
2108
2113
2114
2113
2108
2109
2116
2117
2111
2107
2102
2106
2104
2090
2080
2071
2070
2087
2103
2126
2137
2126
2112
2105
2109
2119
2123
2127
2136
2154
2162
2151
2140
2133
2127
2117
2104
2095
2102
2112
2120
2115
2112
2114
2125
2125
2115
2098
2080
2056
2031
2014
2021
2042
2059
2074
2091
2104
2107
2111
2119
2096
2085
2095
2104
2104
2093
2081
2089
2101
2106
2099
2086
2081
2074
2068
2063
2073
2074
2063
2060
2051
2044
2053
2059
2067
2078
2076
2087
2094
2096
2093
2096
2091
2080
2072
2083
2081
2071
2087
2109
2122
2137
2163
2193
2222
2247
2269
2291
2313
2345
2378
2420
2462
2489
2506
2529
2540
2543
2546
2551
2565
2591
2600
2593
2572
2543
2517
2491
2460
2425
2372
2324
2277
2231
2191
2157
2133
2105
2078
2049
2031
2018
2010
1976
1935
1909
1917
1947
1954
1950
1945
1926
1923
1939
1948
1947
1943
1942
1950
1963
1971
1969
1973
1977
1982
1986
1980
1978
1984
1992
1981
1968
1963
1954
1946
1954
1966
1978
1985
2000
2027
2042
2036
2021
2011
2017
2032
2040
2042
2044
2031
2007
1987
1975
1968
1965
1967
1966
1960
1971
1998
2027
2042
2041
2037
2031
2018
2010
2013
2019
2017
2014
2011
2003
2004
2004
1998
1989
1991
1997
2002
2010
2020
2025
2030
2039
2049
2058
2059
2043
2023
2006
2005
2004
1997
1996
2001
2006
2006
2006
2019
2038
2039
2029
2022
2022
2023
2036
2054
2063
2063
2069
2073
2067
2055
2050
2052
2056
2057
2062
2067
2070
2067
2058
2057
2057
2064
2082
2084
2058
2032
2025
2024
2032
2025
2018
2016
2022
2039
2049
2066
2067
2060
2076
2090
2096
2090
2080
2084
2102
2122
2137
2146
2154
2157
2159
2148
2129
2124
2122
2108
2088
2081
2094
2111
2128
2136
2131
2123
2124
2136
2148
2160
2169
2178
2189
2201
2190
2170
2145
2120
2099
2091
2089
2092
2093
2093
2096
2092
2087
2089
2091
2112
2137
2150
2144
2137
2126
2113
2114
2136
2159
2168
2164
2152
2137
2121
2116
2120
2125
2130
2132
2118
2084
2061
2063
2084
2097
2093
2085
2086
2091
2094
2087
2081
2081
2069
2056
2060
2055
2046
2040
2051
2079
2098
2092
2092
2088
2079
2082
2071
2070
2075
2065
2055
2041
2041
2057
2055
2045
2028
2015
2008
2007
2017
2029
2031
2029
2032
2044
2044
2033
2022
2005
1992
2002
2031
2059
2076
2077
2071
2053
2033
2030
2051
2061
2050
2030
1981
1947
1950
1967
1998
2018
2036
2071
2091
2074
2062
2057
2072
2079
2059
2038
2021
2005
1997
1989
1990
1997
1994
1987
1987
1992
1999
2012
2025
2043
2064
2076
2067
2045
2021
2014
2015
2017
2019
2015
2026
2029
2026
2040
2037
2033
2023
2003
1998
2008
2015
2019
2022
2017
2009
2005
2002
2013
2025
2034
2045
2060
2065
2065
2058
2032
2007
1995
2002
1996
1989
2007
2023
2036
2048
2048
2042
2028
2015
2006
2007
2014
2015
2007
2008
2032
2043
2041
2028
2011
2017
2009
1990
2007
2035
2042
2049
2048
2028
2005
1989
1997
2006
2014
2027
2029
2023
2017
2009
2006
2018
2039
2060
2077
2082
2069
2058
2052
2061
2062
2058
2055
2052
2049
2049
2044
2039
2040
2036
2040
2053
2057
2059
2048
2033
2030
2017
2010
2007
2000
1997
2009
2032
2037
2027
2017
2009
2015
2016
2012
2007
1996
1994
1995
2002
2013
2027
2041
2052
2048
2047
2045
2045
2065
2078
2070
2048
2021
2015
2011
2009
2017
2033
2030
2026
2021
2019
2034
2031
2028
2044
2057
2060
2071
2071
2060
2040
2029
2035
2037
2029
2023
2017
2025
2033
2026
2009
2014
2043
2069
2082
2083
2079
2068
2054
2056
2081
2098
2105
2100
2100
2102
2100
2099
2092
2081
2074
2074
2069
2067
2079
2083
2078
2088
2100
2115
2120
2115
2113
2112
2109
2103
2093
2083
2078
2084
2099
2107
2100
2095
2100
2082
2064
2059
2063
2073
2072
2056
2041
2031
2016
2005
1978
1959
1962
1984
2008
2027
2042
2064
2085
2082
2078
2080
2078
2071
2056
2052
2059
2060
2073
2093
2088
2070
2059
2059
2059
2062
2059
2036
2017
2011
2009
2004
2003
2013
2032
2059
2082
2099
2117
2132
2145
2154
2161
2179
2204
2230
2252
2262
2279
2308
2350
2379
2401
2420
2444
2471
2492
2522
2554
2578
2596
2599
2590
2568
2521
2482
2456
2448
2438
2420
2384
2330
2279
2237
2198
2163
2129
2097
2070
2054
2049
2036
2022
2013
2006
1989
1981
1976
1963
1950
1931
1918
1913
1922
1928
1926
1935
1943
1947
1963
1974
1986
1996
2001
2015
2030
2021
2009
1995
1993
2005
1981
1960
1948
1946
1941
1927
1917
1921
1943
1967
1986
1993
1997
1991
1968
1952
1943
1945
1969
1988
1995
2000
2002
2017
2020
2023
2025
2016
2011
2007
2005
1995
1993
2009
2001
1981
1964
1960
1968
1980
1993
2004
2004
1998
2000
2010
2020
2019
2021
2022
2025
2024
2014
2002
1991
1978
1974
1992
2014
2030
2029
2020
2011
2006
2018
2030
2019
2003
1997
2016
2037
2040
2028
2026
2030
2026
2022
2020
2020
2036
2059
2064
2048
2042
2043
2040
2047
2061
2058
2067
2067
2062
2062
2063
2038
2028
2033
2032
2025
2020
2040
2072
2089
2076
2058
2039
2020
2021
2025
2037
2047
2059
2070
2064
2056
2059
2065
2071
2063
2055
2070
2088
2085
2075
2075
2083
2079
2085
2093
2084
2066
2075
2102
2106
2098
2086
2073
2069
2085
2110
2128
2142
2147
2165
2179
2187
2185
2171
2152
2141
2141
2161
2174
2143
2127
2121
2106
2090
2069
2068
2079
2086
2091
2076
2059
2067
2099
2125
2139
2136
2119
2110
2104
2105
2100
2093
2092
2099
2102
2098
2086
2079
2072
2063
2059
2061
2053
2041
2037
2031
2023
2035
2038
2028
2030
2047
2056
2056
2050
2049
2061
2065
2059
2040
2015
1997
1993
2002
2015
2042
2069
2063
2042
2027
2011
2003
2000
2002
2015
2035
2041
2039
2054
2076
2081
2070
2051
2034
2029
2019
2001
1990
1996
2008
2012
2022
2024
2022
2020
2007
2001
1998
1982
1957
1937
1933
1948
1968
1977
1990
2014
2014
2006
2008
2031
2054
2047
2044
2038
2002
1975
1972
1969
1972
1986
1998
2010
2032
2053
2051
2042
2039
2044
2058
2071
2064
2050
2045
2034
2025
2017
2017
2035
2035
2031
2023
2013
2021
2038
2050
2047
2052
2064
2055
2038
2021
2012
2005
2011
2017
2006
1996
2001
2009
2020
2017
2026
2039
2043
2035
2022
2009
2002
2001
2000
2001
2002
2018
2034
2035
2028
2038
2056
2053
2042
2041
2053
2058
2056
2067
2068
2061
2071
2079
2072
2065
2053
2038
2038
2054
2073
2088
2091
2082
2058
2043
2037
2063
2067
2054
2033
2012
1994
1987
1983
1970
1966
1981
2012
2040
2049
2043
2051
2072
2090
2100
2089
2074
2063
2060
2049
2035
2029
2038
2054
2060
2069
2069
2052
2047
2047
2048
2046
2045
2052
2051
2045
2033
2020
2013
2020
2037
2060
2063
2064
2062
2065
2065
2069
2073
2075
2067
2065
2078
2080
2084
2097
2099
2100
2090
2076
2073
2073
2075
2072
2057
2048
2042
2049
2065
2081
2083
2085
2084
2084
2090
2105
2116
2131
2133
2129
2141
2143
2129
2107
2094
2090
2070
2053
2053
2067
2067
2073
2096
2125
2137
2127
2113
2097
2093
2110
2119
2120
2112
2097
2083
2073
2066
2075
2095
2111
2130
2132
2111
2080
2056
2045
2044
2050
2057
2049
2051
2056
2041
2020
2005
2003
2006
2007
2026
2061
2094
2097
2092
2086
2072
2069
2074
2076
2074
2072
2070
2072
2067
2068
2071
2060
2041
2026
2028
2036
2041
2049
2046
2042
2038
2038
2031
2025
2029
2029
2022
2003
1993
1998
2003
2033
2081
2106
2133
2141
2135
2134
2136
2153
2179
2199
2202
2200
2214
2232
2265
2320
2379
2417
2437
2446
2438
2440
2443
2457
2485
2513
2525
2506
2481
2483
2473
2446
2411
2380
2353
2320
2260
2204
2174
2150
2128
2112
2088
2063
2042
2019
1997
1978
1970
1970
1967
1957
1950
1932
1916
1921
1925
1922
1916
1913
1911
1896
1888
1896
1887
1880
1888
1894
1889
1888
1897
1902
1912
1925
1951
1969
1962
1948
1942
1940
1955
1966
1987
1987
1974
1966
1950
1949
1971
1981
1964
1946
1945
1947
1943
1951
1962
1962
1955
1956
1970
1970
1951
1918
1907
1930
1951
1954
1959
1966
1977
1989
2003
2009
2020
2025
2030
2040
2050
2048
2029
2025
2039
2049
2059
2050
2040
2019
1987
1953
1931
1931
1957
1984
1990
1999
2012
2017
2011
2001
1988
1976
1970
1966
1960
1950
1943
1948
1969
1975
1987
2004
2017
2002
1984
1984
1994
1994
1996
2011
2020
2012
2009
2013
2009
2017
2038
2055
2067
2056
2043
2051
2079
2092
2092
2091
2075
2047
2033
2038
2048
2045
2035
2025
2025
2034
2019
2025
2043
2063
2064
2055
2050
2060
2063
2060
2049
2038
2050
2065
2066
2046
2009
1999
2003
2018
2035
2058
2088
2116
2129
2126
2129
2132
2133
2136
2134
2149
2165
2176
2166
2168
2181
2188
2178
2163
2158
2146
2139
2126
2115
2105
2089
2083
2086
2096
2110
2139
2159
2170
2169
2156
2132
2119
2115
2096
2076
2079
2096
2120
2140
2138
2131
2126
2124
2121
2118
2110
2108
2094
2082
2085
2087
2081
2063
2060
2054
2061
2081
2084
2076
2058
2044
2042
2035
2021
2016
2021
2016
2018
2032
2049
2063
2062
2056
2061
2063
2069
2064
2036
2019
2013
1997
1980
1971
1994
2023
2055
2078
2073
2061
2040
2022
2014
1998
1973
1975
1988
1991
1987
1972
1969
1983
1983
1972
1965
1954
1936
1928
1929
1939
1951
1949
1937
1922
1925
1933
1951
1974
1981
1972
1965
1960
1970
1982
1977
1965
1949
1961
1987
2003
2009
1995
1983
1982
1995
2002
2004
2006
2005
2008
1997
1989
1981
1982
1991
1996
1991
1976
1955
1954
1964
1963
1979
2000
1991
1984
1984
1990
1988
1988
2003
2021
2030
2022
2001
2003
2012
2012
2011
2016
2023
2023
2027
2023
2014
2000
1993
1995
2007
2018
2033
2052
2045
2034
2028
2034
2044
2047
2049
2032
2012
2020
2032
2037
2052
2042
2039
2040
2040
2045
2043
2029
2004
1996
2011
2017
2040
2064
2060
2050
2046
2038
2035
2037
2041
2042
2055
2053
2058
2072
2086
2076
2065
2059
2065
2070
2076
2080
2071
2053
2025
2015
2034
2066
2080
2081
2076
2069
2088
2093
2079
2063
2042
2034
2039
2044
2052
2049
2045
2045
2052
2071
2087
2105
2125
2128
2133
2119
2100
2095
2093
2078
2072
2082
2094
2107
2113
2109
2083
2064
2052
2047
2061
2088
2105
2101
2086
2066
2045
2025
2010
2004
2008
2020
2018
2013
2031
2047
2042
2035
2039
2047
2059
2064
2069
2079
2081
2079
2076
2068
2065
2073
2101
2140
2172
2161
2131
2112
2099
2089
2078
2074
2069
2063
2058
2060
2060
2063
2069
2086
2104
2153
2176
2156
2118
2077
2043
2009
2002
2020
2034
2057
2074
2068
2062
2062
2055
2057
2071
2059
2042
2033
2033
2038
2039
2035
2036
2047
2042
2037
2044
2057
2053
2045
2054
2065
2060
2059
2068
2067
2066
2071
2080
2091
2097
2108
2118
2122
2122
2128
2143
2146
2140
2119
2087
2062
2037
2016
2015
2027
2034
2047
2061
2081
2103
2116
2112
2113
2138
2176
2218
2257
2305
2332
2340
2366
2409
2444
2470
2497
2526
2555
2593
2622
2620
2593
2567
2563
2579
2577
2545
2510
2476
2459
2451
2424
2381
2340
2283
2219
2164
2120
2095
2073
2050
2046
2052
2051
2047
2039
2029
2021
2012
2003
1999
2002
2005
2005
2003
2005
2004
1998
1994
2006
2016
2017
2027
2043
2061
2076
2085
2082
2087
2088
2080
2073
2073
2062
2054
2046
2019
2008
2005
1995
2011
2044
2052
2045
2041
2048
2059
2068
2079
2077
2062
2073
2081
2072
2044
2033
2039
2035
2015
2006
2012
2015
2012
2022
2041
2062
2070
2064
2048
2031
2028
2026
2021
2013
2003
1998
1997
2008
2017
2014
2012
2018
2022
2015
2008
2013
2027
2025
2017
2010
2012
2018
2031
2054
2069
2076
2075
2064
2061
2069
2063
2058
2045
2037
2036
2040
2045
2039
2030
2024
2033
2044
2055
2056
2045
2039
2028
2015
2015
2025
2035
2020
2006
1998
1999
2010
2023
2033
2048
2048
2027
2004
2014
2032
2050
2062
2063
2063
2069
2076
2081
2100
2109
2082
2064
2051
2037
2015
2002
1999
1997
2005
2005
2028
2064
2083
2086
2090
2102
2109
2106
2098
2086
2082
2089
2096
2101
2095
2085
2092
2101
2105
2111
2119
2124
2123
2121
2128
2134
2132
2130
2120
2115
2111
2107
2119
2121
2125
2137
2147
2158
2159
2157
2159
2160
2157
2167
2179
2170
2164
2157
2151
2140
2127
2124
2118
2114
2109
2095
2096
2110
2114
2090
2070
2060
2084
2105
2089
2070
2063
2053
2055
2062
2076
2076
2069
2061
2039
2038
2053
2065
2062
2056
2056
2046
2028
2017
2028
2040
2036
2011
1972
1961
1956
1954
1956
1951
1943
1949
1952
1938
1938
1968
1992
2000
1999
2003
2008
2016
2019
2011
2004
1997
2002
2008
2004
1992
1978
1968
1964
1968
1977
1988
2005
2023
2032
2035
2029
2017
2008
2008
2009
2016
2018
2016
2016
2010
2007
2004
2002
2003
2007
2024
2018
2005
1999
1994
1989
1986
2003
2022
2039
2045
2033
2028
2029
2020
2019
2039
2045
2037
2022
2008
2010
2011
2016
2025
2026
2027
2035
2030
2001
1974
1963
1963
1971
1977
1974
1961
1956
1953
1964
1983
1990
1995
2010
2008
2006
2003
2003
2001
2001
1999
2002
1991
1974
1992
1996
1980
1968
1953
1947
1952
1972
1996
1991
1963
1957
1965
1975
1990
2008
2020
2022
2020
2023
2041
2050
2060
2057
2050
2046
2038
2038
2049
2052
2054
2050
2036
2028
2030
2047
2050
2048
2041
2036
2039
2045
2047
2049
2047
2041
2035
2028
2025
2030
2036
2035
2042
2037
2034
2047
2050
2032
2026
2020
2011
2004
2002
2011
2025
2045
2051
2036
2016
2005
2005
2004
1992
2002
2023
2043
2054
2061
2077
2090
2078
2050
2024
2010
2008
2013
2026
2037
2025
1999
1984
1979
1989
1998
1999
1999
2008
2017
2012
2011
2016
2016
2015
2019
2012
2007
2004
1991
1985
2008
2046
2057
2048
2040
2034
2025
2021
2030
2026
2022
2026
2028
2041
2062
2077
2074
2064
2048
2036
2032
2017
1998
1993
1991
2004
2030
2062
2081
2064
2034
2025
2022
2022
2050
2063
2038
2022
2037
2063
2064
2060
2053
2042
2053
2066
2068
2072
2086
2099
2094
2078
2072
2079
2091
2099
2109
2136
2170
2191
2185
2165
2134
2112
2102
2092
2066
2044
2050
2045
2044
2048
2044
2027
2014
2005
2007
2025
2048
2059
2061
2075
2089
2094
2082
2058
2042
2028
2021
2033
2038
2045
2057
2061
2047
2041
2059
2083
2103
2098
2079
2072
2064
2060
2066
2079
2077
2059
2056
2072
2088
2084
2085
2094
2093
2082
2063
2043
2027
2016
2011
2022
2046
2069
2090
2093
2109
2126
2137
2142
2151
2171
2193
2214
2235
2267
2291
2298
2307
2341
2386
2435
2476
2506
2515
2519
2539
2568
2584
2604
2615
2587
2542
2520
2503
2463
2423
2396
2355
2311
2276
2235
2187
2134
2079
2033
2010
1993
1977
1958
1943
1955
1970
1976
1967
1959
1950
1939
1931
1924
1918
1926
1927
1918
1912
1917
1944
1978
2002
2021
2028
2023
2016
2020
2036
2041
2022
1995
1990
2003
2020
2030
2040
2047
2038
2024
2004
1998
2019
2039
2029
2005
1983
1970
1964
1985
2006
2024
2045
2062
2074
2079
2076
2072
2053
2040
2035
2031
2051
2075
2092
2092
2084
2082
2078
2067
2055
2056
2050
2017
1992
1988
1996
2013
2028
2021
2011
1992
1972
1987
2002
2007
2005
2003
2002
2000
2006
2027
2052
2069
2070
2066
2066
2063
2053
2050
2040
2050
2060
2062
2063
2057
2049
2044
2033
2027
2032
2045
2067
2083
2085
2076
2064
2064
2065
2058
2058
2050
2065
2086
2079
2068
2063
2065
2077
2071
2056
2036
2031
2034
2028
2026
2029
2043
2059
2067
2068
2061
2066
2056
2047
2056
2063
2063
2071
2076
2077
2058
2042
2060
2078
2087
2075
2057
2056
2071
2091
2115
2119
2125
2149
2152
2155
2144
2117
2078
2044
2024
2020
2037
2063
2086
2094
2103
2110
2112
2113
2105
2100
2087
2093
2101
2108
2122
2135
2142
2142
2144
2141
2132
2119
2103
2081
2070
2083
2097
2119
2130
2147
2147
2119
2107
2109
2121
2113
2101
2096
2099
2101
2105
2096
2067
2044
2033
2039
2049
2050
2043
2046
2048
2039
2037
2027
2009
2008
2018
2025
2032
2015
1986
1973
1964
1958
1971
1988
2002
2026
2048
2057
2050
2023
2020
2039
2021
1984
1962
1959
1974
1977
1987
2006
2020
2023
2016
1994
1988
2006
2004
1994
2009
2027
2029
2037
2039
2037
2026
2016
2017
2016
2015
2029
2049
2053
2051
2034
2026
2037
2061
2082
2094
2101
2090
2065
2036
2015
2014
2024
2034
2043
2044
2041
2051
2073
2076
2065
2057
2054
2042
2029
2017
2021
2020
2010
2007
2020
2033
2037
2035
2032
2035
2017
2020
2030
2044
2069
2077
2055
2030
2019
2005
1989
2003
2028
2025
2023
2039
2050
2047
2034
2036
2047
2044
2031
2019
2024
2035
2031
2033
2048
2048
2040
2040
2035
2033
2039
2038
2038
2045
2048
2067
2076
2063
2043
2030
2029
2030
2024
2027
2033
2012
1999
2020
2063
2058
2028
2012
2019
2025
2025
2028
2045
2076
2086
2077
2066
2059
2074
2077
2081
2069
2052
2042
2043
2033
2012
1991
1999
2030
2057
2071
2056
2034
2020
2018
2017
2020
2004
2011
2048
2055
2023
2009
2023
2040
2041
2033
2029
2040
2065
2096
2121
2114
2092
2081
2072
2079
2084
2067
2049
2055
2045
2050
2061
2063
2053
2054
2072
2085
2091
2080
2059
2038
2024
2029
2028
2024
2034
2054
2044
2032
2026
2024
2032
2043
2040
2038
2074
2127
2143
2140
2128
2113
2101
2088
2078
2067
2054
2051
2060
2087
2118
2139
2150
2166
2165
2133
2100
2084
2076
2080
2093
2108
2109
2096
2086
2082
2086
2094
2110
2088
2050
2044
2041
2042
2051
2051
2054
2057
2047
2042
2055
2057
2049
2053
2059
2069
2072
2074
2071
2058
2034
2007
1986
1976
1989
1994
1987
1982
1983
1985
1987
2000
2005
2005
2018
2054
2079
2091
2079
2064
2053
2051
2046
2046
2046
2050
2060
2054
2049
2058
2055
2061
2071
2080
2086
2097
2095
2079
2067
2064
2052
2044
2057
2066
2072
2070
2051
2031
2014
2010
2016
2037
2033
2039
2057
2091
2114
2130
2160
2180
2166
2142
2154
2202
2252
2316
2378
2426
2473
2522
2544
2562
2578
2592
2607
2615
2617
2623
2625
2610
2600
2573
2531
2490
2451
2415
2384
2361
2325
2288
2249
2203
2163
2135
2131
2127
2117
2108
2102
2099
2094
2074
2058
2055
2055
2056
2040
2024
2029
2033
2013
1999
2003
2010
2019
2028
2059
2086
2080
2079
2088
2093
2099
2110
2087
2053
2040
2043
2057
2071
2080
2073
2059
2055
2067
2081
2101
2120
2132
2127
2103
2073
2054
2048
2046
2059
2084
2101
2099
2092
2100
2113
2124
2129
2126
2128
2121
2107
2122
2148
2137
2116
2126
2149
2157
2143
2129
2119
2120
2136
2148
2135
2115
2111
2111
2122
2145
2173
2202
2203
2193
2202
2197
2190
2179
2158
2135
2122
2125
2135
2140
2133
2120
2111
2105
2120
2144
2156
2151
2145
2140
2129
2122
2130
2120
2116
2124
2134
2133
2132
2139
2139
2133
2144
2133
2110
2100
2101
2098
2111
2141
2169
2178
2172
2168
2172
2164
2151
2142
2153
2163
2171
2170
2177
2176
2173
2166
2167
2189
2211
2221
2216
2203
2190
2181
2166
2141
2149
2168
2180
2194
2190
2151
2121
2137
2167
2210
2233
2240
2236
2229
2226
2228
2224
2212
2184
2153
2139
2150
2162
2204
2223
2205
2198
2200
2205
2212
2207
2206
2199
2196
2200
2211
2224
2233
2240
2251
2257
2248
2244
2236
2225
2223
2228
2226
2211
2197
2194
2198
2191
2190
2191
2200
2211
2217
2214
2218
2214
2215
2222
2226
2225
2220
2210
2208
2220
2234
2226
2211
2203
2205
2204
2201
2211
2192
2171
2169
2188
2200
2156
2099
2084
2114
2147
2161
2154
2140
2129
2135
2151
2180
2149
2109
2103
2104
2112
2140
2172
2171
2163
2157
2151
2146
2128
2109
2100
2107
2115
2130
2135
2132
2135
2138
2133
2125
2106
2085
2064
2070
2095
2119
2138
2135
2131
2140
2148
2151
2148
2136
2131
2126
2118
2115
2118
2117
2115
2120
2122
2122
2117
2105
2111
2124
2127
2108
2091
2095
2117
2125
2124
2122
2125
2141
2155
2150
2133
2124
2117
2113
2119
2110
2086
2076
2087
2095
2109
2123
2121
2136
2144
2142
2130
2123
2119
2110
2092
2091
2093
2087
2080
2100
2123
2144
2160
2152
2121
2088
2083
2099
2092
2103
2126
2137
2136
2135
2146
2155
2146
2135
2125
2121
2123
2119
2099
2097
2122
2124
2120
2134
2137
2136
2144
2154
2134
2109
2123
2143
2135
2107
2089
2101
2105
2101
2112
2116
2098
2095
2093
2082
2072
2067
2085
2091
2090
2106
2126
2132
2137
2146
2135
2129
2132
2144
2145
2154
2171
2179
2158
2163
2169
2138
2114
2098
2081
2057
2051
2081
2103
2090
2079
2089
2104
2114
2133
2134
2131
2121
2106
2096
2095
2097
2099
2115
2124
2111
2095
2070
2069
2108
2145
2154
2158
2149
2138
2124
2099
2075
2067
2068
2071
2069
2071
2070
2078
2089
2099
2108
2117
2128
2130
2132
2126
2105
2088
2102
2129
2139
2149
2153
2152
2137
2120
2107
2093
2076
2068
2075
2071
2051
2045
2069
2098
2116
2126
2124
2095
2082
2100
2103
2106
2118
2128
2132
2135
2138
2122
2113
2112
2097
2083
2079
2072
2073
2077
2082
2082
2087
2106
2110
2112
2109
2094
2091
2118
2146
2178
2173
2159
2158
2158
2142
2121
2102
2104
2117
2129
2134
2123
2097
2076
2090
2121
2167
2179
2164
2151
2139
2130
2127
2131
2133
2133
2128
2128
2136
2128
2124
2116
2111
2110
2088
2067
2065
2074
2076
2081
2079
2077
2078
2089
2107
2117
2112
2103
2094
2091
2101
2104
2108
2103
2080
2059
2055
2051
2051
2054
2074
2099
2093
2086
2081
2064
2054
2041
2051
2078
2091
2082
2064
2064
2063
2044
2028
2033
2045
2030
2030
2032
2040
2068
2115
2137
2137
2156
2193
2227
2255
2268
2289
2310
2333
2363
2408
2455
2492
2529
2552
2564
2578
2584
2589
2601
2615
2618
2617
2613
2598
2574
2537
2500
2463
2436
2409
2391
2362
2322
2278
2244
2217
2182
2147
2114
2099
2093
2087
2083
2068
2058
2055
2029
2011
2004
1989
1988
1991
1992
2001
2014
2017
2009
2008
2018
2012
2006
2003
2008
2018
2034
2052
2064
2070
2095
2098
2086
2092
2069
2049
2055
2072
2091
2085
2070
2058
2065
2082
2095
2097
2089
2087
2097
2104
2113
2108
2097
2085
2072
2085
2083
2069
2060
2060
2074
2098
2107
2094
2091
2073
2064
2093
2121
2123
2114
2108
2103
2099
2080
2057
2040
2033
2032
2046
2068
2072
2073
2073
2072
2073
2069
2072
2090
2112
2109
2101
2108
2121
2129
2135
2141
2131
2105
2077
2064
2069
2073
2083
2088
2086
2095
2099
2099
2098
2103
2104
2096
2088
2083
2077
2075
2094
2089
2051
2035
2050
2078
2094
2071
2058
2049
2061
2084
2097
2114
2124
2117
2116
2124
2133
2142
2150
2142
2116
2076
2053
2045
2054
2068
2084
2097
2109
2085
2075
2079
2091
2103
2109
2120
2127
2125
2118
2102
2096
2105
2115
2130
2131
2119
2112
2121
2127
2124
2122
2118
2111
2113
2113
2125
2133
2123
2127
2148
2161
2173
2172
2167
2168
2166
2159
2137
2117
2121
2139
2161
2158
2135
2117
2107
2102
2114
2123
2142
2155
2138
2111
2096
2088
2101
2127
2125
2101
2080
2095
2115
2113
2116
2095
2085
2091
2084
2081
2073
2061
2050
2054
2079
2099
2090
2085
2079
2071
2086
2087
2062
2044
2041
2039
2040
2026
2031
2035
2061
2079
2053
2032
2031
2044
2051
2049
2043
2042
2049
2048
2047
2050
2051
2061
2078
2081
2061
2044
2018
2001
1987
1985
1991
2003
2023
2039
2038
2015
1991
1984
1994
1996
1991
2004
2022
2028
2025
2012
2011
2009
2004
1998
1993
2003
2018
2022
2031
2036
2031
2040
2049
2050
2057
2056
2055
2053
2045
2052
2044
2035
2027
2005
1990
1988
1991
1992
1989
1981
1968
1970
1991
2017
2038
2040
2029
2017
2017
2031
2042
2051
2050
2027
2001
1990
1990
1998
2004
2004
2004
2004
1989
1987
1998
2023
2045
2041
2036
2031
2013
1993
1984
1974
1978
1991
2000
2002
2006
2001
1997
2008
2023
2034
2033
2027
2021
2004
1994
1992
1992
1994
2005
2022
2024
2007
1998
2002
2012
2025
2032
2025
2006
1987
1980
1974
1993
2022
2047
2068
2065
2053
2060
2049
2029
2013
2007
2009
2011
2022
2035
2028
2010
1984
1974
1974
1990
2006
2002
2004
1996
1983
1987
1985
1990
2001
2001
1988
1999
2003
1993
1998
1992
1982
1970
1970
1984
1990
1983
1977
1986
2002
2013
2017
2022
2032
2038
2043
2041
2032
2026
2033
2049
2060
2062
2064
2045
2015
1992
1976
1984
2017
2053
2067
2059
2040
2024
2025
2028
2042
2054
2034
2024
2036
2040
2021
2009
2016
2031
2049
2060
2054
2050
2039
2022
2006
1999
2003
2009
2011
2027
2055
2078
2083
2073
2049
2021
1998
1991
1982
1970
1963
1967
1990
2028
2048
2052
2053
2053
2040
2028
2022
2019
2024
2039
2052
2050
2042
2037
2040
2040
2038
2036
2035
2036
2045
2034
2024
2019
2009
1996
2002
2012
2016
2018
2007
1990
1974
1970
1981
2004
2011
1998
1999
1998
2012
2013
2003
2001
1989
1978
1971
1954
1948
1959
1978
1998
1987
1968
1956
1956
1962
1969
2004
2013
1994
1980
1959
1941
1944
1951
1960
1961
1949
1938
1939
1937
1940
1951
1968
1987
2003
2003
2002
1996
1998
2006
2004
1991
1978
1972
1966
1978
1985
1967
1942
1954
1983
2014
2040
2055
2080
2104
2110
2127
2154
2186
2219
2248
2272
2308
2351
2379
2392
2417
2434
2439
2448
2463
2486
2495
2481
2481
2489
2502
2490
2443
2393
2375
2351
2317
2290
2241
2175
2121
2084
2036
1996
1969
1947
1921
1920
1935
1972
1987
1944
1892
1868
1880
1902
1913
1896
1870
1863
1886
1907
1924
1940
1939
1934
1926
1923
1926
1921
1914
1921
1935
1949
1957
1954
1942
1951
1933
1913
1913
1929
1938
1935
1932
1932
1935
1937
1950
1955
1954
1946
1952
1955
1954
1961
1950
1938
1935
1938
1930
1924
1931
1942
1949
1955
1945
1933
1926
1929
1929
1915
1923
1953
1972
1964
1950
1950
1962
1960
1963
1978
1988
1986
1975
1965
1975
1977
1969
1984
1997
1984
1969
1959
1955
1965
1977
1973
1980
1997
1991
1960
1956
1971
1979
1981
1980
1999
2025
2024
2022
2034
2039
2030
2011
2002
2017
2016
2009
2008
2001
2008
2027
2039
2037
2031
2023
2011
2000
1997
1990
1999
2011
2020
2029
2035
2041
2039
2023
2012
1998
2007
2027
2050
2052
2044
2047
2065
2072
2062
2042
2016
2006
2011
2011
2024
2054
2072
2054
2055
2053
2057
2077
2098
2105
2114
2110
2104
2099
2093
2080
2063
2046
2061
2088
2106
2115
2108
2120
2138
2158
2150
2142
2140
2126
2134
2155
2160
2155
2127
2106
2115
2134
2139
2132
2136
2144
2146
2140
2140
2153
2157
2144
2124
2119
2128
2123
2129
2131
2141
2136
2124
2103
2091
2092
2084
2082
2077
2094
2115
2110
2104
2104
2109
2120
2135
2127
2097
2080
2080
2087
2080
2072
2068
2066
2073
2088
2071
2042
2031
2029
2024
2017
2016
2023
2039
2042
2019
1989
1959
1959
1970
1985
2009
2019
2008
2003
2013
2025
2022
2004
2011
2021
2022
2014
2015
2013
2032
2046
2043
2030
2030
2028
2021
2012
2020
2056
2063
2050
2031
2019
2020
2037
2050
2056
2057
2069
2060
2046
2036
2029
2026
2040
2042
2014
1999
2006
2034
2064
2069
2050
2026
2012
2024
2048
2043
2033
2029
2024
2013
2002
1998
2007
2017
2022
2024
2027
2023
2017
2023
2038
2047
2038
2016
2010
2013
2025
2043
2060
2062
2048
2031
2018
2012
2015
2018
2033
2042
2044
2022
1983
1961
1975
2014
2038
2039
2055
2070
2081
2076
2059
2039
2032
2039
2031
2032
2047
2068
2062
2056
2046
2042
2052
2064
2069
2063
2067
2073
2074
2070
2059
2059
2064
2080
2076
2065
2065
2071
2076
2085
2087
2084
2083
2080
2064
2043
2030
2028
2034
2043
2051
2054
2059
2070
2096
2110
2093
2077
2073
2071
2061
2046
2034
2017
2005
2007
2033
2069
2080
2084
2096
2105
2131
2108
2068
2047
2027
2009
2000
1988
1985
1988
1994
2014
2032
2029
2020
2004
1993
1994
2014
2035
2057
2068
2055
2039
2039
2049
2049
2046
2047
2056
2065
2073
2063
2059
2069
2067
2051
2054
2065
2078
2064
2057
2054
2055
2071
2077
2068
2058
2050
2040
2046
2051
2047
2039
2039
2044
2049
2062
2051
2040
2037
2037
2032
2030
2044
2050
2050
2060
2080
2080
2063
2046
2035
2025
2027
2034
2047
2064
2073
2069
2061
2057
2063
2072
2083
2088
2086
2081
2074
2079
2092
2101
2085
2073
2081
2105
2119
2105
2060
2020
2001
1992
1984
1990
2011
2027
2038
2032
2023
2034
2021
1981
1960
1970
1994
2026
2048
2045
2031
2019
2020
2024
2023
2012
1999
1996
2002
2002
1977
1965
1979
1994
2001
2011
2001
1978
1973
1997
2009
2005
2006
2024
2046
2041
2059
2080
2077
2063
2035
2009
1994
1995
1992
1976
1959
1979
2001
1990
1984
2007
2024
2027
2040
2050
2063
2079
2112
2152
2192
2231
2275
2325
2364
2373
2387
2420
2455
2480
2493
2505
2517
2532
2539
2535
2538
2543
2519
2494
2471
2444
2406
2366
2326
2286
2243
2191
2150
2095
2040
2002
1982
1962
1937
1924
1920
1923
1913
1896
1900
1917
1914
1901
1895
1898
1899
1898
1897
1904
1915
1906
1903
1919
1921
1915
1912
1916
1918
1919
1919
1909
1899
1906
1916
1922
1923
1909
1907
1928
1947
1955
1948
1935
1951
1964
1955
1944
1935
1933
1946
1940
1934
1939
1952
1975
1987
1971
1944
1915
1900
1898
1910
1952
1960
1940
1928
1923
1923
1925
1927
1943
1955
1964
1969
1967
1976
1989
1989
1987
1974
1954
1942
1953
1971
1986
1984
1982
1991
2009
2024
2036
2021
1990
1978
1970
1956
1944
1935
1933
1929
1928
1947
1965
1974
1976
1980
1983
1984
1976
1963
1957
1955
1962
1978
1993
2004
2003
2004
2008
2011
2013
2024
2031
2044
2050
2036
2014
2018
2009
1982
1990
1989
1983
1979
1965
1961
1959
1945
1938
1959
1987
1996
2009
2021
2020
2018
2017
2022
2021
2021
2034
2055
2064
2062
2072
2075
2063
2059
2051
2038
2047
2039
2016
2004
1999
1999
2014
2043
2065
2063
2066
2081
2092
2082
2059
2041
2052
2084
2084
2060
2047
2031
2016
2008
2021
2047
2075
2096
2091
2079
2070
2079
2087
2096
2110
2111
2103
2090
2093
2110
2082
2049
2036
2041
2032
2027
2033
2044
2043
2039
2041
2053
2062
2077
2092
2096
2082
2056
2030
2011
2007
2002
1997
1991
1986
1991
1985
1973
1969
1980
1991
1987
1987
1989
1993
1984
1976
1958
1934
1933
1945
1948
1953
1957
1948
1942
1949
1965
1976
1985
1989
1980
1966
1956
1954
1980
1985
1977
1967
1949
1939
1939
1954
1976
1978
1966
1961
1955
1943
1942
1950
1962
1976
1985
1974
1963
1950
1950
1956
1964
1965
1961
1962
1958
1964
1964
1958
1960
1957
1922
1906
1927
1924
1943
1961
1977
1994
2001
1997
1973
1948
1931
1913
1912
1941
1965
1970
1965
1964
1975
1974
1973
1977
1990
2004
2009
2001
1995
1994
1987
1978
1956
1954
1971
1986
1987
1987
1977
1973
1986
1987
1974
1969
1965
1970
1988
1977
1974
1991
2011
2011
1990
1974
1966
1979
1994
1996
2006
2005
2008
2006
2003
2000
1999
2000
2004
2022
2023
2006
1988
1993
1993
1994
2011
2037
2048
2033
2014
1997
1982
1979
1993
1985
1973
1990
2000
1991
1980
1986
1990
1998
2001
2003
1999
1996
1984
1978
1991
2008
2025
2038
2036
2022
2023
2021
2019
2017
2008
1983
1953
1944
1958
1971
1970
1965
1968
1978
2000
2023
2036
2049
2049
2063
2052
2030
2016
2013
2017
2002
1987
1975
1958
1974
1979
1969
1968
1953
1938
1948
1960
1982
2017
2043
2057
2056
2051
2051
2046
2032
2017
2005
1991
1997
2000
2002
2010
1992
1960
1964
1990
2018
2049
2065
2078
2078
2070
2057
2039
2031
2031
2021
2014
2016
2027
2031
2030
2013
2009
2007
1997
1992
1984
1977
1977
1985
1998
2008
2010
2006
2000
1995
1989
1983
1980
1966
1938
1925
1941
1955
1962
1967
1974
1974
1968
1962
1971
1994
1999
1994
1978
1959
1945
1956
1975
1975
1986
1999
2000
1990
1973
1972
1978
1975
1973
1985
1986
1999
2009
2007
1999
1992
1990
1992
1994
1993
1989
1969
1944
1942
1947
1939
1935
1948
1967
2000
2045
2071
2092
2117
2120
2132
2157
2195
2237
2276
2319
2351
2369
2390
2400
2412
2423
2435
2446
2451
2454
2454
2452
2435
2424
2412
2393
2373
2339
2280
2214
2151
2099
2059
2040
2045
2028
2000
1970
1958
1964
1970
1962
1936
1918
1907
1904
1897
1884
1885
1906
1909
1894
1879
1875
1887
1903
1896
1898
1902
1897
1884
1875
1884
1891
1902
1913
1929
1949
1949
1952
1964
1970
1973
1980
1982
1978
1970
1956
1945
1940
1944
1948
1946
1941
1939
1940
1942
1953
1943
1923
1910
1908
1944
1955
1948
1949
1960
1957
1948
1944
1942
1940
1951
1970
1977
1974
1976
1992
2004
2007
2003
1997
1999
2009
2022
2025
2010
1987
1977
1977
1979
1974
1975
1993
2010
2001
1990
1993
1981
1962
1940
1926
1938
1961
1976
1963
1949
1957
1964
1961
1977
1982
1978
1982
1980
1978
1977
1982
1996
1999
1999
2001
2013
2024
2037
2044
2035
2022
2017
2026
2032
2008
2004
2024
2036
2037
2033
2013
1998
2001
2006
2017
2022
2026
2036
2041
2038
2025
2018
2023
2037
2039
2036
2044
2046
2037
2027
2030
2050
2054
2047
2032
2009
1998
1997
2002
2015
2023
2030
2047
2056
2066
2078
2068
2059
2068
2089
2073
2047
2051
2074
2072
2061
2042
2034
2038
2046
2060
2072
2088
2103
2105
2119
2124
2122
2114
2116
2110
2105
2099
2090
2094
2101
2091
2082
2080
2074
2061
2051
2030
2030
2039
2033
2037
2042
2036
2035
2040
2040
2040
2035
2024
2013
2008
2005
2000
1999
2015
2030
2034
2018
1993
1981
1980
1992
1996
1999
2007
2022
2023
2003
1983
2003
2021
1997
1962
1957
1964
1971
1967
1959
1951
1945
1952
1961
1967
1972
1988
2002
1997
1982
1963
1953
1966
1981
1985
1990
2004
1999
1990
1987
1990
2000
1996
1973
1956
1953
1946
1943
1945
1948
1946
1953
1965
1971
1965
1955
1954
1960
1970
1973
1970
1974
1981
1983
1978
1973
1965
1958
1963
1959
1956
1951
1948
1935
1935
1952
1960
1972
1989
2001
2003
2001
1991
1981
1986
2005
2007
2005
1994
1985
1998
2013
2016
2019
2014
2012
2018
2014
2012
2003
1988
1977
1986
2007
2005
2001
1992
1984
1999
2025
2042
2034
2024
2023
2012
1996
1991
1988
1985
1982
1989
1992
1988
1981
1987
2005
2014
2010
1995
1980
1984
1988
1989
1984
1988
1997
2002
2015
2029
2033
2036
2041
2046
2056
2061
2044
2032
2009
1993
1990
1995
2002
1998
1999
2000
2005
2018
2032
2036
2028
2022
2022
2032
2041
2045
2032
2022
2016
2002
1995
1992
1993
2000
2006
2019
2040
2030
2022
2027
2018
1991
1998
2019
2029
2025
2009
1998
1988
1993
2016
2034
2039
2025
2024
2040
2051
2050
2050
2049
2045
2043
2033
2019
2003
1996
2009
2018
2031
2038
2046
2038
2041
2059
2069
2061
2051
2043
2038
2034
2036
2044
2047
2050
2067
2089
2117
2107
2086
2087
2092
2082
2072
2067
2060
2064
2060
2053
2029
1997
1970
1953
1956
1968
1984
2009
2022
2039
2049
2040
2032
2031
2038
2018
2000
1992
2008
2028
2039
2036
2040
2041
2027
2041
2046
2018
2005
2014
2026
2027
2022
2021
2022
2013
2001
1995
1997
1997
2001
2006
2011
2004
1991
1982
1987
2005
2030
2052
2065
2066
2060
2051
2035
2014
1999
2003
1998
1992
2010
2023
2036
2051
2056
2057
2049
2048
2065
2087
2108
2138
2162
2190
2230
2272
2313
2349
2382
2412
2444
2468
2483
2499
2518
2542
2555
2561
2556
2563
2564
2552
2524
2494
2451
2391
2339
2292
2223
2155
2127
2120
2107
2077
2033
2007
1992
1976
1964
1957
1960
1970
1970
1959
1944
1935
1930
1933
1935
1944
1935
1936
1937
1953
1967
1968
1953
1935
1932
1940
1961
1966
1956
1955
1961
1969
1971
1964
1953
1953
1964
1956
1951
1951
1965
1974
1972
1979
1982
1975
1971
1968
1964
1962
1970
1976
1960
1953
1966
1978
1993
2009
2008
2000
2008
2008
2004
1995
1976
1953
1960
1985
2002
2001
2012
2012
2028
2048
2028
2009
2000
1998
1989
1993
2024
2040
2031
2011
2007
2001
1990
1983
1997
2013
2020
2012
1993
1993
2012
2011
2004
1993
1979
1971
1985
1990
1988
1992
1992
1991
1999
2006
2018
2034
2036
2037
2042
2054
2066
2059
2043
2030
2018
2006
2001
2002
2014
2018
2026
2033
2033
2030
2026
2030
2050
2072
2079
2067
2053
2031
2023
2035
2046
2054
2047
2029
2021
2024
2026
2029
2042
2056
2079
2085
2071
2046
2029
2025
2039
2052
2056
2047
2049
2062
2073
2103
2105
2095
2084
2096
2117
2111
2105
2118
2131
2142
2136
2129
2119
2100
2093
2093
2088
2093
2096
2097
2105
2096
2083
2090
2122
2158
2169
2152
2144
2158
2162
2157
2151
2142
2120
2097
2091
2100
2106
2105
2098
2093
2087
2077
2070
2072
2075
2072
2066
2064
2070
2077
2075
2073
2069
2078
2082
2074
2076
2092
2121
2123
2097
2078
2078
2074
2067
2071
2084
2093
2094
2090
2078
2066
2052
2033
2014
1995
1981
1978
1989
1998
1999
1994
1978
1982
1991
1987
1984
1978
1990
2018
2042
2022
1993
1988
2003
2012
2022
2034
2026
2021
2029
2023
2006
2000
2000
2011
2020
2024
2025
2021
1996
1989
1997
2000
2006
2017
2037
2042
2033
2024
2026
2018
2004
2005
2018
2026
2018
2017
2021
2020
2011
2008
2024
2031
2028
2014
2003
2010
2023
2022
2018
2023
2037
2036
2026
2026
2038
2036
2030
2034
2032
2023
2029
2043
2043
2041
2031
2028
2030
2044
2055
2045
2031
2037
2049
2062
2047
2030
2025
2024
2034
2052
2063
2059
2043
2013
1994
1999
2011
2025
2036
2064
2076
2068
2061
2056
2044
2040
2041
2054
2057
2051
2052
2064
2073
2064
2048
2042
2044
2049
2048
2038
2036
2034
2030
2028
2030
2048
2070
2067
2052
2040
2031
2031
2038
2038
2035
2047
2058
2064
2063
2060
2060
2063
2073
2081
2081
2086
2076
2058
2038
2026
2030
2037
2035
2033
2024
2022
2023
2035
2039
2035
2036
2049
2066
2073
2064
2057
2063
2048
2004
1995
2005
2047
2097
2118
2116
2106
2099
2087
2062
2055
2052
2044
2037
2030
2031
2042
2054
2054
2057
2068
2089
2107
2118
2117
2110
2104
2094
2092
2093
2087
2078
2076
2075
2079
2090
2091
2091
2088
2078
2053
2037
2057
2068
2078
2100
2116
2108
2083
2050
2029
2017
2012
2009
2015
2031
2050
2063
2073
2076
2077
2071
2059
2053
2051
2057
2057
2051
2038
2032
2043
2041
2040
2034
2025
2031
2025
2007
2013
2026
2035
2052
2054
2051
2047
2045
2050
2064
2057
2048
2042
2032
2028
2038
2052
2047
2040
2049
2047
2032
2017
2019
2012
1995
1982
1975
2000
2028
2040
2053
2067
2060
2037
2034
2053
2075
2091
2099
2107
2126
2146
2168
2173
2161
2178
2214
2252
2286
2327
2369
2408
2442
2465
2483
2509
2543
2576
2597
2608
2592
2569
2561
2563
2555
2531
2494
2472
2450
2419
2381
2337
2285
2236
2204
2179
2148
2097
2055
2032
2033
2027
2016
2004
1989
1981
1979
1973
1949
1929
1918
1913
1916
1923
1932
1938
1946
1960
1966
1964
1962
1960
1956
1954
1955
1958
1954
1965
1985
1991
2018
2009
1989
1979
1963
1959
1964
1969
1964
1956
1956
1960
1970
1969
1960
1970
1982
1992
1992
1988
1973
1975
1986
1995
2017
2024
2016
2012
2007
2007
1996
1990
1986
1981
1987
2008
2025
2032
2024
2019
2015
2005
1992
1977
1968
1972
1976
1970
1975
1995
2012
2031
2041
2033
2020
2013
2010
2010
2030
2058
2081
2091
2095
2083
2038
2007
1996
1991
1987
1980
1994
2012
2008
2012
2024
2025
2013
2009
2011
2020
2027
2034
2028
2035
2034
2017
2003
2027
2051
2034
1997
1979
1987
1993
1990
1975
1985
2007
2013
2015
2026
2038
2048
2055
2053
2059
2064
2069
2062
2045
2033
2028
2019
2011
2006
2006
2020
2021
2019
2030
2034
2030
2031
2032
2030
2028
2044
2050
2053
2054
2056
2064
2081
2104
2133
2149
2146
2148
2134
2107
2097
2090
2081
2068
2063
2076
2095
2116
2131
2141
2137
2134
2129
2115
2097
2108
2130
2124
2121
2121
2116
2106
2106
2107
2097
2101
2098
2083
2077
2068
2050
2044
2062
2082
2087
2085
2081
2094
2091
2076
2062
2070
2082
2094
2093
2095
2112
2125
2106
2088
2071
2048
2028
2007
2004
2023
2040
2046
2052
2063
2056
2042
2032
2028
2024
2023
2023
2036
2039
2026
2031
2024
2012
1995
1971
1963
1985
2011
2018
2011
1998
2011
1998
1979
1971
1977
1989
1994
2001
2008
2011
2028
2033
2030
2025
2022
2010
2006
2006
2009
2014
2007
2006
2005
2003
2009
2012
2019
2026
2025
2021
2004
1991
1995
2015
2044
2057
2031
1999
1985
1982
1996
2019
2039
2034
2028
2015
2012
2007
2003
1990
1977
1968
1961
1963
1985
1984
1983
1978
1999
2020
2024
2021
2013
2000
2001
2010
2015
2018
2028
2019
2000
1991
1995
1998
2006
2018
2021
2014
2016
2030
2031
2033
2031
2022
1999
1986
2002
1998
1997
1999
1999
2002
1999
1995
1999
1998
2005
2024
2029
2031
2042
2050
2049
2043
2041
2037
2034
2025
2019
2023
2015
2011
2001
2002
2018
2025
2018
2011
2014
2023
2032
2054
2061
2054
2052
2041
2036
2036
2031
2021
2009
1999
2001
2010
2010
2013
2023
2019
2016
2016
2024
2019
2006
2007
2034
2061
2081
2090
2065
2059
2073
2094
2109
2107
2072
2046
2051
2070
2075
2062
2053
2062
2062
2042
2030
2052
2070
2056
2039
2033
2016
1992
1997
2017
2031
2039
2050
2048
2032
2025
2022
2015
2013
2021
2034
2048
2046
2046
2046
2035
2014
2009
2016
2023
2019
2021
2036
2043
2034
2037
2038
2037
2036
2042
2050
2065
2078
2080
2071
2065
2053
2058
2069
2076
2093
2097
2084
2071
2072
2075
2077
2064
2057
2062
2064
2070
2079
2080
2087
2095
2092
2088
2082
2079
2083
2074
2059
2052
2040
2021
2012
2008
2020
2036
2046
2057
2062
2061
2058
2049
2047
2038
2030
2019
2019
2033
2033
2023
2010
2011
2020
2017
2018
2018
2013
2020
2023
2026
2029
2043
2055
2056
2057
2057
2059
2062
2060
2055
2045
2025
1993
1979
1979
1980
1979
1981
1983
1984
1986
1982
1985
2008
2029
2049
2077
2113
2146
2161
2161
2179
2204
2217
2233
2263
2309
2357
2398
2439
2477
2513
2535
2534
2534
2546
2560
2567
2568
2570
2554
2529
2495
2458
2420
2385
2353
2332
2311
2278
2232
2185
2136
2096
2061
2027
2007
1993
1987
1974
1965
1980
1976
1957
1935
1911
1912
1919
1930
1949
1978
1952
1917
1908
1902
1888
1876
1877
1899
1914
1925
1942
1951
1954
1953
1952
1950
1954
1963
1971
1971
1979
1998
2002
2001
1987
1960
1944
1942
1955
1971
1967
1959
1963
1953
1939
1942
1953
1961
1967
1961
1953
1957
1969
1978
1969
1956
1947
1938
1941
1951
1968
1981
1983
1967
1960
1975
1998
1988
1979
1991
1989
1977
1963
1965
1972
1971
1979
1981
1980
1984
1983
1978
1980
1979
1985
1991
1994
1992
1981
1971
1963
1949
1960
1983
1996
2000
2003
2000
2013
2022
2023
2022
2019
2012
2013
2005
1988
1977
1970
1984
2000
2012
2028
2035
2030
2023
2004
1995
1992
1983
1970
1960
1963
1971
1993
2024
2030
2025
2018
2010
2006
2005
2010
2015
2023
1999
1996
2012
2030
2042
2043
2035
2035
2026
2017
2027
2045
2046
2033
2019
2010
2016
2034
2055
2062
2062
2083
2121
2143
2135
2124
2103
2083
2080
2086
2069
2059
2079
2123
2127
2087
2071
2098
2117
2120
2117
2119
2116
2100
2088
2079
2078
2085
2083
2069
2067
2079
2093
2111
2120
2109
2103
2112
2124
2128
2122
2112
2099
2090
2084
2075
2076
2089
2085
2073
2073
2087
2081
2069
2060
2052
2052
2064
2070
2072
2068
2055
2040
2035
2033
2032
2034
2037
2035
2039
2039
2036
2040
2044
2053
2051
2030
2011
2009
2011
2010
2000
1999
1998
1998
1996
1980
1975
1975
1983
1983
1972
1969
1980
2010
2032
2035
2028
2032
2045
2063
2067
2044
2028
2011
1999
1990
1988
1999
2016
2028
2034
2027
2030
2038
2042
2060
2066
2041
2029
2022
2015
2004
1996
1989
1986
1983
1975
1976
1987
2005
2029
2032
2026
2030
2041
2051
2050
2050
2058
2060
2052
2042
2028
2008
2004
2018
2035
2031
2015
2005
2003
2007
2012
2029
2039
2053
2063
2059
2056
2063
2052
2024
2014
2013
2009
2003
1998
1998
2033
2055
2057
2054
2048
2042
2024
2003
1997
1983
1985
2013
2027
2028
2033
2030
2025
2023
2032
2045
2053
2050
2041
2038
2034
2035
2043
2049
2047
2061
2088
2096
2075
2065
2064
2057
2055
2051
2043
2044
2065
2060
2046
2036
2023
2020
2020
2019
2025
2032
2050
2077
2091
2084
2063
2042
2026
2028
2019
2014
2019
2028
2031
2035
2030
2023
2018
2021
2022
2025
2042
2054
2042
2033
2036
2033
2040
2047
2036
2034
2041
2052
2058
2040
2031
2039
2055
2063
2060
2051
2040
2036
2041
2048
2053
2056
2071
2071
2066
2071
2081
2080
2078
2072
2083
2094
2100
2099
2092
2082
2068
2045
2034
2040
2028
2019
2016
2044
2072
2078
2072
2070
2071
2086
2099
2103
2106
2110
2107
2087
2070
2064
2056
2055
2063
2074
2070
2058
2050
2048
2050
2041
2039
2049
2056
2066
2089
2094
2082
2082
2070
2052
2041
2048
2050
2056
2048
2046
2059
2048
2033
2029
2027
2027
2042
2058
2039
2018
2013
2023
2039
2058
2076
2072
2067
2066
2061
2041
2024
2018
2012
1998
1985
1969
1964
1973
1986
1998
2019
2040
2044
2045
2046
2041
2035
2031
2030
2022
1999
1985
1980
1982
1985
1987
1994
2010
2009
2003
2025
2053
2081
2107
2116
2124
2140
2159
2179
2212
2245
2272
2314
2361
2409
2444
2458
2462
2467
2486
2524
2557
2564
2566
2574
2578
2551
2518
2475
2429
2385
2359
2329
2289
2257
2210
2155
2115
2087
2063
2036
2014
1996
1977
1965
1978
1973
1966
1960
1953
1946
1940
1920
1900
1893
1905
1926
1927
1941
1971
1983
1974
1965
1963
1984
1992
1982
1986
1992
1994
2005
2036
2051
2037
2027
2017
2005
1990
1987
2003
2009
2004
1977
1946
1925
1930
1944
1949
1948
1944
1952
1955
1951
1949
1947
1949
1954
1961
1970
1973
1973
1963
1948
1952
1964
1978
1978
1980
1977
1987
2019
2062
2078
2061
2036
2007
1997
2006
2015
2029
2049
2060
2049
2035
2019
2019
2044
2054
2038
2027
2050
2067
2061
2051
2043
2034
2023
2013
2018
2017
2011
2010
2016
2017
2016
2010
2022
2039
2055
2063
2067
2071
2064
2049
2029
2020
2029
2042
2048
2053
2055
2043
2043
2031
2020
2015
2018
2022
2026
2016
1999
2005
2023
2043
2062
2065
2070
2080
2071
2055
2064
2075
2069
2063
2071
2072
2067
2057
2052
2068
2083
2049
2030
2027
2039
2057
2074
2091
2086
2091
2107
2119
2136
2147
2136
2127
2124
2115
2100
2109
2128
2139
2141
2139
2134
2129
2131
2129
2124
2112
2113
2130
2153
2164
2162
2144
2128
2131
2137
2145
2155
2154
2149
2137
2138
2144
2150
2151
2149
2143
2133
2128
2128
2136
2129
2104
2095
2098
2092
2085
2090
2097
2101
2088
2072
2062
2063
2077
2120
2121
2105
2097
2089
2082
2080
2078
2067
2047
2030
2032
2051
2067
2058
2033
2017
2022
2032
2037
2039
2039
2044
2045
2040
2045
2046
2040
2024
2019
2019
2020
2029
2041
2042
2041
2055
2059
2033
2008
2000
2004
1999
1989
1995
2019
2050
2060
2060
2060
2052
2046
2046
2048
2047
2037
2037
2048
2050
2046
2032
2026
2012
1998
2001
1994
1984
1987
1989
2010
2044
2068
2060
2048
2042
2031
2014
2010
2020
2038
2042
2040
2041
2035
2034
2036
2046
2042
2032
2024
2043
2055
2049
2030
2014
2007
2010
2011
2023
2037
2050
2056
2043
2020
2009
2017
2029
2028
2021
2018
2030
2044
2037
2028
2022
2011
2014
2015
2019
2023
2023
2013
2002
1999
1992
1986
1996
2013
2027
2036
2036
2025
2020
2026
2029
2021
2021
2030
2044
2056
2066
2063
2048
2038
2043
2062
2079
2080
2067
2046
2029
2029
2037
2039
2022
2008
2006
1999
1989
2002
2024
2035
2047
2050
2034
2040
2056
2073
2084
2091
2084
2074
2062
2049
2038
2032
2032
2035
2038
2042
2051
2063
2063
2065
2056
2034
2032
2048
2057
2057
2050
2041
2043
2061
2075
2070
2063
2054
2061
2073
2075
2057
2025
2019
2024
2015
2029
2049
2065
2077
2080
2077
2071
2058
2056
2055
2064
2071
2083
2102
2116
2116
2126
2127
2120
2104
2100
2112
2110
2100
2082
2058
2038
2039
2043
2054
2076
2098
2106
2123
2122
2124
2123
2119
2103
2093
2080
2069
2065
2067
2074
2076
2074
2080
2078
2073
2079
2079
2068
2052
2035
2028
2030
2032
2030
2023
2018
2003
1991
1999
2008
2023
2034
2026
2024
2025
2028
2022
2018
2017
2029
2026
2020
2032
2033
2030
2023
2016
2020
2023
2026
2039
2058
2065
2060
2054
2052
2051
2049
2060
2073
2070
2065
2068
2067
2074
2071
2054
2045
2034
2015
2016
2033
2045
2056
2070
2098
2126
2136
2150
2167
2189
2204
2219
2234
2250
2289
2329
2380
2422
2456
2483
2498
2491
2496
2507
2524
2533
2523
2513
2503
2494
2491
2488
2463
2423
2381
2337
2296
2255
2205
2160
2116
2067
2026
2006
1998
1996
1995
1983
1968
1947
1934
1937
1939
1937
1937
1935
1935
1950
1969
1969
1945
1918
1908
1917
1919
1913
1931
1947
1959
1983
2005
2005
1995
1982
1972
1982
1991
1992
1989
1976
1969
1968
1971
1964
1966
1978
1982
1985
1993
2005
2012
2012
2013
2015
2021
2034
2040
2021
2004
2004
2029
2004
1987
1993
1986
1959
1935
1939
1972
2012
2045
2058
2067
2061
2047
2034
2029
2029
2033
2029
2025
2017
2011
2008
2011
2020
2040
2064
2058
2046
2036
2023
2024
2015
2005
2010
2030
2058
2066
2045
2022
2005
1995
2002
1999
1991
1998
2002
2002
2005
2018
2024
2022
2026
2042
2058
2069
2070
2052
2043
2057
2070
2054
2028
2017
2021
2018
2044
2090
2098
2094
2074
2068
2070
2065
2060
2053
2059
2052
2041
2033
2028
2022
2019
2041
2062
2064
2063
2081
2102
2110
2087
2067
2057
2067
2075
2085
2095
2094
2086
2070
2057
2061
2072
2073
2073
2077
2081
2094
2105
2102
2099
2103
2106
2110
2101
2102
2123
2151
2168
2169
2166
2161
2152
2145
2141
2139
2138
2137
2137
2143
2147
2152
2153
2153
2144
2136
2131
2127
2127
2127
2131
2130
2114
2098
2092
2104
2114
2124
2131
2144
2147
2137
2115
2109
2117
2133
2129
2108
2093
2106
2121
2120
2114
2109
2090
2064
2053
2049
2050
2052
2063
2056
2034
2015
2020
2021
2011
2021
2035
2043
2041
2022
2019
2026
2030
2031
2027
2027
2044
2047
2032
2007
1997
2003
2002
1995
1997
2007
2011
2000
2001
2000
1992
1994
2006
2010
2014
2024
2041
2032
2018
2015
2023
2041
2052
2039
2021
2013
2024
2047
2050
2050
2074
2078
2067
2049
2028
2024
2020
2027
2037
2032
2028
2025
2016
2013
2004
2002
2001
1985
1987
1982
1977
1981
1981
1996
2014
2005
2004
1997
1989
1989
2005
2008
2024
2049
2063
2053
2044
2041
2044
2042
2030
2021
2025
2032
2037
2045
2037
2034
2038
2045
2053
2056
2050
2045
2050
2036
2028
2044
2059
2045
2023
2003
1990
2007
2036
2049
2063
2079
2089
2078
2042
1998
1975
1995
2008
2009
2023
2044
2061
2073
2082
2072
2053
2044
2054
2050
2052
2054
2039
2026
2013
2018
2023
2016
2007
2014
2017
2030
2054
2073
2060
2046
2048
2048
2047
2047
2042
2037
2046
2062
2064
2070
2076
2068
2054
2046
2053
2056
2058
2056
2047
2042
2038
2038
2040
2041
2048
2045
2040
2059
2067
2055
2037
2040
2044
2057
2094
2088
2077
2061
2055
2061
2055
2050
2046
2048
2050
2058
2060
2044
2044
2059
2072
2063
2029
2016
2011
2030
2064
2083
2081
2077
2076
2071
2046
2028
2024
2024
2032
2036
2043
2054
2070
2073
2070
2059
2042
2039
2057
2068
2082
2095
2096
2095
2093
2083
2070
2062
2060
2068
2072
2070
2077
2095
2115
2107
2089
2068
2053
2054
2055
2063
2065
2080
2091
2095
2120
2142
2139
2123
2098
2089
2097
2104
2117
2110
2080
2051
2047
2052
2048
2039
2036
2037
2034
2035
2052
2060
2051
2043
2042
2042
2056
2059
2048
2028
2020
2036
2060
2062
2056
2064
2064
2068
2081
2083
2069
2059
2056
2075
2061
2052
2031
2021
2023
2016
1999
1978
1969
2004
2070
2104
2087
2078
2070
2035
2022
2039
2056
2063
2061
2060
2046
2028
2009
1999
1992
1983
1962
1942
1968
1996
2017
2030
2041
2057
2081
2105
2126
2152
2171
2197
2231
2259
2286
2329
2375
2411
2439
2463
2486
2510
2535
2566
2593
2602
2598
2594
2588
2579
2551
2513
2487
2461
2419
2370
2329
2305
2290
2252
2213
2149
2087
2047
2015
2001
2005
2000
1992
1971
1945
1942
1946
1951
1952
1937
1929
1940
1926
1905
1905
1923
1945
1960
1963
1968
1966
1957
1951
1956
1961
1954
1964
1979
1987
1987
1980
1979
1974
1975
1983
1991
1969
1959
1961
1962
1962
1970
1975
1969
1969
1977
1977
1982
1979
1972
1968
1976
1997
2015
2026
2013
1987
1967
1960
1972
1985
1999
2014
2009
1992
2004
2030
2035
2025
2019
2017
2014
2031
2059
2071
2058
2051
2068
2070
2043
2015
2008
2005
2004
2008
2004
1998
1992
1990
2012
2028
2027
2016
2004
2018
2026
2014
2016
2021
2020
2008
1999
1992
1988
1990
1995
2024
2063
2042
2028
2029
2039
2053
2051
2042
2054
2056
2057
2054
2045
2039
2035
2035
2051
2058
2049
2042
2040
2050
2046
2030
2011
2011
2050
2084
2094
2091
2088
2087
2082
2075
2067
2053
2055
2055
2056
2067
2080
2090
2094
2089
2082
2062
2038
2037
2066
2098
2108
2096
2075
2056
2070
2088
2099
2104
2094
2096
2102
2097
2095
2095
2087
2076
2075
2083
2099
2131
2137
2131
2121
2112
2109
2102
2103
2113
2126
2137
2138
2143
2161
2174
2174
2163
2135
2117
2100
2085
2075
2077
2094
2123
2132
2126
2119
2113
2121
2137
2145
2135
2133
2136
2140
2140
2127
2096
2060
2039
2054
2072
2076
2063
2049
2045
2058
2063
2055
2035
2026
2004
1993
2011
2019
2019
2021
2033
2040
2033
2024
2031
2029
2015
2009
2024
2037
2039
2029
2013
2007
2004
2001
1996
2004
2016
2022
2032
2059
2053
2049
2051
2047
2050
2050
2045
2037
2037
2035
2040
2042
2036
2026
2010
1993
1985
2000
2025
2043
2042
2035
2025
2012
1993
1982
1999
2026
2053
2060
2059
2064
2078
2082
2062
2038
2018
2007
1999
2010
2032
2048
2044
2031
2019
2015
2015
2013
2021
2023
2005
1992
1998
2003
2022
2030
2028
2046
2024
2012
2032
2061
2077
2077
2077
2076
2076
2074
2048
2028
2020
2010
2005
2010
2016
2008
1999
2008
2033
2036
2027
2028
2040
2055
2056
2053
2053
2055
2076
2104
2125
2104
2079
2072
2081
2083
2084
2072
2076
2068
2054
2064
2073
2068
2058
2071
2107
2112
2118
2114
2106
2091
2078
2079
2069
2052
2038
2050
2056
2058
2061
2048
2033
2025
2029
2039
2048
2051
2042
2050
2072
2081
2073
2058
2054
2051
2058
2060
2077
2093
2091
2090
2095
2112
2115
2094
2087
2085
2078
2089
2102
2112
2113
2103
2075
2062
2078
2083
2080
2060
2057
2069
2063
2055
2072
2079
2070
2065
2076
2099
2106
2091
2078
2072
2064
2077
2094
2105
2113
2122
2122
2103
2078
2060
2068
2098
2127
2127
2110
2091
2103
2099
2081
2068
2050
2034
2028
2035
2036
2043
2059
2080
2105
2111
2097
2091
2095
2091
2076
2072
2083
2079
2080
2085
2093
2095
2086
2078
2087
2099
2103
2093
2098
2107
2124
2131
2132
2144
2150
2163
2157
2140
2127
2104
2081
2079
2098
2119
2135
2128
2132
2153
2158
2152
2140
2109
2083
2064
2061
2057
2057
2058
2055
2052
2051
2045
2040
2039
2046
2046
2033
2030
2039
2040
2036
2034
2041
2044
2050
2069
2082
2069
2048
2044
2054
2063
2086
2107
2102
2088
2070
2054
2057
2068
2076
2070
2070
2082
2094
2106
2107
2088
2059
2052
2055
2053
2047
2028
2009
2001
2006
2025
2038
2029
2015
2022
2040
2052
2058
2080
2096
2101
2098
2114
2152
2190
2233
2264
2265
2275
2306
2358
2422
2481
2520
2545
2565
2567
2563
2563
2551
2557
2572
2584
2569
2531
2498
2484
2482
2470
2441
2402
2358
2311
2258
2202
2151
2120
2116
2115
2067
2006
1972
1969
1977
1977
1977
1963
1938
1920
1930
1927
1908
1907
1924
1932
1939
1936
1935
1944
1955
1960
1965
1983
2000
2021
2039
2042
2028
2013
1993
1969
1946
1947
1952
1958
1961
1961
1957
1949
1946
1951
1972
1981
1984
1978
1959
1945
1960
1960
1968
1978
1972
1961
1962
1968
1954
1949
1964
1981
1993
1997
2003
2009
2004
2000
1999
2001
1999
1995
1995
2006
1989
1984
2007
2019
2025
2032
2040
2031
2024
2029
2028
2022
2012
2011
2016
2025
2036
2028
2005
2001
2024
2061
2068
2041
1988
1947
1946
1968
1985
1991
1991
2004
2023
2026
2015
2003
2007
2026
2028
2043
2050
2049
2058
2049
2011
1980
1962
1939
1929
1926
1927
1954
1985
2022
2039
2044
2052
2073
2104
2112
2096
2069
2060
2046
2038
2033
2029
2025
2027
2027
2025
2029
2025
2002
1996
2016
2031
2029
2028
2056
2046
2043
2040
2040
2050
2058
2078
2105
2117
2113
2102
2096
2097
2095
2100
2103
2118
2136
2149
2128
2111
2104
2098
2095
2094
2092
2084
2082
2095
2097
2093
2088
2088
2093
2099
2097
2099
2113
2132
2154
2164
2163
2158
2153
2149
2140
2126
2111
2093
2073
2055
2056
2056
2055
2035
2029
2045
2072
2065
2063
2066
2074
2075
2060
2048
2062
2057
2042
2036
2044
2045
2065
2083
2067
2042
2023
2035
2040
2033
2030
2039
2045
2022
1997
1987
1984
1991
2013
2033
2041
2033
2015
2008
2020
2035
2048
2045
2045
2040
2039
2041
2038
2032
2024
2016
2010
2005
1994
1981
1975
1974
1991
1992
2005
2019
2018
2015
2020
2025
2034
2054
2069
2068
2057
2045
2039
2044
2060
2081
2089
2072
2051
2046
2030
2014
1998
1992
1993
1994
1998
2012
2022
2024
2026
2035
2053
2065
2056
2045
2035
2017
2007
2000
2010
2026
2044
2056
2056
2061
2056
2022
1986
1966
1961
1988
2029
2054
2053
2046
2045
2042
2035
2037
2035
2025
2029
2048
2066
2084
2093
2091
2092
2106
2107
2108
2109
2104
2115
2125
2140
2135
2116
2105
2108
2103
2072
2032
2003
1988
1981
1991
2004
2006
2004
2003
1988
1983
1996
2014
2023
2020
2012
2009
2027
2049
2050
2049
2049
2045
2053
2054
2048
2062
2070
2067
2057
2049
2038
2037
2048
2052
2078
2094
2086
2065
2048
2031
2014
2015
2028
2031
2038
2032
2025
2034
2048
2053
2053
2059
2045
2022
2015
2020
2012
1989
2002
2013
2006
2023
2057
2097
2122
2124
2114
2101
2095
2071
2052
2042
2036
2024
2008
1989
1968
1963
1975
1985
1989
1989
1991
2005
2027
2049
2054
2034
2009
2026
2057
2054
2040
2037
2027
2025
2028
2026
2030
2031
2028
2017
2016
2018
2019
2018
2018
2008
1996
1991
1993
1998
2000
2008
2023
2024
2023
2024
2032
2043
2050
2060
2081
2088
2080
2070
2058
2060
2050
2031
2029
2027
2014
2008
1996
1999
2005
2005
2020
2042
2056
2063
2072
2074
2060
2039
2044
2046
2060
2056
2020
1995
1990
1996
1990
1974
1977
2002
2014
2022
2046
2073
2084
2084
2078
2067
2068
2082
2083
2074
2068
2060
2060
2058
2054
2061
2059
2060
2052
2050
2060
2068
2071
2077
2070
2048
2031
2029
2051
2044
2028
2018
2013
2017
2020
2012
1999
1991
1984
1982
1973
1979
2001
2023
2021
2023
2024
2031
2033
2031
2030
2021
2018
2021
2030
2045
2033
2024
2015
2011
2012
2018
2019
1997
1989
2004
2020
2025
2028
2024
2018
2017
2022
2030
2034
2026
2021
2020
2011
2001
1991
1987
1999
2007
2011
2032
2056
2089
2129
2147
2154
2174
2202
2219
2223
2238
2249
2302
2350
2391
2429
2460
2483
2499
2516
2526
2538
2548
2547
2539
2533
2522
2486
2456
2427
2392
2364
2332
2296
2251
2212
2187
2148
2081
2032
2014
2019
2028
2023
2013
2002
1999
2007
2006
1998
1990
1989
1984
2002
2015
2032
2027
2015
1968
1917
1886
1869
1871
1889
1919
1958
1989
2011
2027
2027
2016
1993
1968
1961
1974
1982
1975
1967
1961
1972
1987
2001
1999
1966
1960
1969
1972
1995
1994
1998
2025
2044
2058
2055
2049
2051
2055
2085
2101
2077
2044
2020
2006
1976
1957
1964
1972
1971
1976
1986
1986
1989
2000
2008
2014
2017
2022
2027
2021
2004
1985
1989
2001
2012
2019
2009
1992
1978
1977
1998
2014
2009
2008
2019
2016
2012
2011
2011
2016
2016
2000
1983
1983
2001
2022
2034
2027
2023
2022
2017
2012
2009
2010
2023
2029
2028
2036
2053
2070
2091
2085
2073
2069
2072
2074
2077
2073
2070
2076
2079
2065
2049
2028
2006
1988
1980
1990
2010
2001
1992
2013
2035
2048
2057
2051
2071
2084
2099
2108
2099
2096
2091
2084
2079
2063
2056
2061
2067
2066
2076
2091
2098
2101
2099
2096
2098
2114
2135
2154
2155
2143
2142
2144
2142
2135
2133
2143
2147
2157
2159
2154
2146
2150
2154
2170
2179
2173
2175
2183
2187
2198
2205
2183
2155
2127
2136
2166
2186
2207
2200
2203
2222
2243
2246
2257
2246
2223
2214
2186
2161
2166
2183
2187
2187
2200
2213
2206
2188
2168
2157
2144
2144
2157
2138
2123
2128
2126
2113
2104
2107
2110
2108
2098
2091
2071
2056
2066
2089
2081
2083
2094
2091
2080
2080
2095
2109
2119
2113
2105
2086
2080
2085
2065
2046
2032
2032
2031
2028
2035
2033
2052
2071
2073
2075
2067
2040
2013
2003
2008
2033
2055
2060
2060
2061
2063
2064
2054
2033
2019
2022
2028
2022
2017
2005
2003
2012
2020
2035
2053
2062
2047
2041
2041
2054
2047
2049
2043
2031
2040
2039
2020
2004
1990
1989
1982
1989
1990
2002
2033
2058
2050
2041
2042
2040
2026
2003
1993
1994
1991
1993
2007
2011
2018
2030
2040
2052
2057
2040
2009
2007
2016
2009
1996
1980
1980
1991
2003
2014
2010
2007
2007
2008
2012
2027
2027
2022
2013
1995
1994
2016
2032
2026
2001
2001
2013
2012
2001
1981
1992
2015
2034
2044
2064
2065
2065
2065
2068
2082
2075
2051
2034
2027
2026
2021
2018
2013
2009
2010
2029
2019
2009
2006
2012
2018
2023
2008
1998
2005
2013
2011
2020
2031
2028
2025
2019
2002
1991
1993
2015
2038
2042
2034
2010
1988
1994
2010
2023
2035
2041
2051
2048
2037
2033
2040
2050
2068
2083
2075
2067
2061
2064
2054
2030
1987
1958
1956
1987
2018
2036
2036
2028
2020
2016
2023
2029
2042
2054
2066
2070
2049
2023
2001
1989
1985
1981
1980
1985
1996
1992
1984
1993
2008
2015
2019
2032
2052
2067
2057
2044
2029
2017
2001
1992
1997
2011
2010
2005
2010
2031
2044
2051
2062
2032
2014
2023
2019
2010
2001
1993
1996
2020
2046
2041
2039
2035
2045
2065
2061
2045
2033
2019
2033
2044
2028
2011
2005
1990
1990
1992
1992
1994
2011
2027
2039
2032
2026
2031
2052
2071
2062
2047
2035
2040
2054
2093
2131
2128
2105
2092
2080
2073
2068
2070
2097
2115
2112
2113
2115
2114
2100
2071
2057
2062
2057
2051
2048
2053
2046
2038
2041
2032
2008
2007
2018
2027
2025
2025
2024
2028
2029
2026
2022
2025
2038
2036
2034
2042
2047
2043
2037
2032
2026
2019
2014
2017
2026
2029
2041
2047
2040
2037
2036
2022
2006
2004
2006
2009
2014
2033
2044
2034
2025
2027
2018
2006
2001
2000
1999
2002
2014
2031
2040
2039
2043
2046
2043
2045
2053
2077
2111
2132
2149
2162
2154
2147
2145
2162
2200
2204
2196
2212
2238
2264
2286
2323
2367
2397
2416
2426
2437
2463
2489
2509
2518
2518
2522
2513
2477
2446
2404
2339
2289
2267
2260
2238
2201
2187
2177
2147
2119
2095
2082
2072
2033
2016
2031
2040
2038
2015
1980
1956
1926
1897
1891
1923
1949
1957
1960
1976
1990
2003
2017
2005
1986
1983
2011
2023
2010
1995
2001
2008
1998
1993
1991
2004
2032
2039
2037
2029
2021
2024
2029
2020
2004
2000
2011
2025
2035
2025
1994
1976
1984
1998
2011
2026
2003
1983
1984
1996
2007
2002
1991
1981
1996
2014
2013
2006
1997
1996
2001
2013
2016
2017
2019
2026
2026
2027
2036
2059
2076
2073
2057
2050
2059
2068
2064
2060
2065
2059
2064
2076
2080
2085
2083
2071
2064
2067
2066
2045
2017
2006
2014
2033
2033
2031
2048
2037
2027
2033
2038
2046
2059
2077
2085
2083
2077
2064
2058
2074
2077
2075
2079
2083
2087
2087
2068
2065
2068
2069
2061
2058
2051
2049
2060
2062
2072
2070
2049
2035
2038
2038
2044
2043
2036
2025
2034
2064
2086
2105
2125
2116
2106
2104
2100
2106
2113
2115
2109
2095
2095
2085
2082
2079
2079
2102
2123
2146
2149
2137
2126
2124
2117
2099
2097
2102
2117
2135
2144
2142
2131
2124
2117
2104
2120
2156
2175
2178
2175
2185
2199
2200
2198
2197
2199
2194
2190
2200
2190
2158
2118
2092
2086
2088
2068
2049
2055
2078
2084
2092
2104
2098
2106
2121
2124
2116
2107
2097
2088
2081
2070
2065
2069
2063
2050
2045
2054
2065
2069
2072
2076
2073
2063
2061
2063
2067
2066
2070
2068
2060
2049
2038
2021
2008
2006
2022
2035
2038
2042
2055
2063
2054
2035
2022
2024
2024
2026
2039
2035
2024
2013
2018
2021
2036
2045
2046
2043
2042
2047
2043
2040
2043
2046
2043
2040
2042
2036
2024
2017
2021
2012
2003
2000
2004
2017
2031
2046
2045
2031
2018
2003
1990
1993
2006
2002
1987
1994
1996
1995
2005
2008
2011
2027
2049
2048
2043
2058
2071
2063
2051
2037
2028
2029
2029
2016
2000
1990
1991
1990
1990
2001
2004
2015
2029
2033
2026
2031
2031
2022
2019
2037
2068
2053
2038
2047
2057
2062
2073
2086
2090
2083
2075
2056
2043
2063
2083
2082
2074
2060
2046
2033
2026
2035
2039
2043
2058
2064
2048
2034
2048
2063
2069
2070
2064
2060
2061
2058
2051
2045
2037
2030
2015
1994
1988
1999
1998
1991
2008
2048
2086
2105
2075
2050
2019
1992
1992
1998
1999
2005
2010
2021
2033
2040
2044
2049
2044
2036
2039
2045
2054
2059
2065
2066
2056
2041
2028
2025
2030
2046
2051
2039
2033
2037
2048
2054
2056
2072
2077
2078
2077
2079
2073
2069
2072
2066
2053
2032
2019
2017
2018
2007
1993
1995
2015
2043
2064
2060
2057
2049
2047
2036
2017
1999
1984
1998
2017
2031
2043
2057
2077
2078
2068
2060
2053
2059
2059
2048
2043
2042
2034
2025
2041
2047
2039
2028
2015
2025
2044
2048
2042
2039
2030
2028
2026
2047
2062
2072
2089
2093
2091
2094
2099
2098
2086
2075
2067
2068
2065
2060
2059
2054
2049
2046
2054
2073
2094
2099
2093
2091
2087
2091
2095
2105
2123
2126
2107
2083
2064
2050
2039
2032
2044
2059
2080
2096
2100
2095
2091
2089
2086
2084
2068
2046
2036
2042
2054
2070
2079
2073
2071
2063
2049
2033
2016
2011
2007
2008
2035
2055
2043
2030
2019
2023
2028
2035
2040
2035
2029
2041
2043
2035
2042
2055
2040
2047
2047
2031
2028
2039
2043
2043
2057
2070
2069
2059
2053
2040
2028
2021
1999
1988
2002
2014
2007
2009
2028
2034
2030
2034
2039
2035
2030
2031
2038
2046
2045
2042
2041
2049
2065
2080
2088
2100
2128
2168
2192
2201
2217
2235
2256
2278
2313
2358
2396
2417
2435
2467
2492
2510
2524
2529
2538
2551
2541
2522
2491
2459
2435
2396
2348
2297
2239
2178
2127
2094
2073
2056
2040
2022
2003
1979
1966
1956
1959
1957
1953
1950
1959
1966
1947
1923
1903
1890
1903
1921
1939
1955
1966
1960
1965
1971
1964
1944
1931
1938
1953
1961
1967
1978
1989
2001
1990
1974
1964
1971
1980
1974
1989
2011
2020
2003
1998
2005
2003
1998
1998
2006
2004
1998
1991
2003
2033
2056
2050
2032
2017
2016
2022
2025
2035
2034
2021
1998
1981
1974
1968
1969
1970
1977
1990
1999
2005
2002
1997
1989
1985
1988
1998
2011
2021
2010
1993
1984
1988
2004
2010
2029
2059
2077
2090
2083
2071
2058
2042
2028
2030
2037
2038
2038
2028
2025
2028
2030
2039
2058
2059
2054
2048
2036
2032
2022
2016
2010
2003
2012
2029
2033
2023
2013
2017
2035
2039
2036
2040
2053
2063
2069
2067
2062
2061
2061
2071
2073
2070
2064
2059
2052
2033
2015
2017
2030
2046
2057
2053
2057
2058
2058
2065
2070
2074
2078
2084
2087
2098
2101
2098
2104
2121
2120
2109
2116
2134
2153
2129
2098
2073
2071
2081
2095
2117
2141
2149
2150
2152
2149
2146
2152
2148
2139
2137
2133
2127
2147
2173
2164
2155
2150
2147
2168
2182
2167
2150
2146
2152
2142
2125
2116
2123
2135
2138
2127
2120
2124
2134
2121
2108
2093
2074
2065
2075
2086
2090
2092
2093
2090
2109
2133
2128
2109
2099
2102
2097
2085
2079
2071
2069
2090
2101
2093
2078
2065
2060
2065
2071
2058
2043
2032
2027
2030
2035
2036
2032
2022
2020
2030
2035
2054
2081
2091
2077
2059
2042
2047
2058
2041
2019
2012
2025
2046
2068
2088
2098
2097
2090
2065
2049
2043
2041
2048
2039
2022
2004
1995
2014
2022
2025
2027
2017
2010
2007
2005
2008
2034
2049
2039
2026
2042
2054
2068
2091
2082
2060
2041
2038
2029
2028
2041
2074
2116
2120
2092
2069
2061
2070
2084
2085
2090
2084
2076
2066
2051
2040
2048
2047
2034
2024
2026
2038
2032
2018
2017
2032
2032
2017
1995
1988
2005
2035
2045
2051
2065
2077
2082
2071
2044
2036
2046
2045
2032
2028
2024
2024
2023
2024
2030
2050
2071
2092
2104
2091
2071
2060
2045
2048
2069
2067
2045
2049
2054
2046
2043
2041
2052
2041
2035
2041
2086
2095
2069
2056
2061
2073
2081
2061
2047
2053
2067
2081
2089
2098
2101
2094
2082
2073
2065
2049
2033
2024
2035
2050
2078
2080
2053
2026
2030
2036
2038
2034
2023
2033
2050
2063
2075
2078
2081
2095
2108
2089
2055
2030
2024
2035
2049
2064
2067
2063
2066
2065
2055
2052
2056
2051
2045
2041
2033
2027
2028
2030
2027
2029
2032
2033
2031
2031
2031
2032
2038
2042
2035
2032
2028
2029
2030
2028
2025
2016
2018
2019
2040
2045
2051
2060
2067
2057
2049
2063
2085
2095
2079
2058
2059
2063
2057
2048
2027
2011
2011
2010
2015
2019
2039
2051
2040
2041
2070
2092
2094
2095
2083
2056
2039
2044
2046
2052
2053
2044
2029
2018
2037
2065
2070
2070
2065
2046
2052
2068
2074
2080
2084
2085
2072
2072
2082
2070
2055
2059
2074
2088
2099
2107
2107
2100
2099
2091
2085
2083
2080
2073
2063
2055
2068
2077
2076
2068
2065
2074
2067
2069
2080
2086
2085
2067
2045
2036
2034
2035
2036
2045
2038
2029
2023
2006
1988
2003
2024
2031
2034
2028
2009
1995
1996
2005
2022
2036
2043
2041
2035
2029
2034
2047
2059
2072
2082
2075
2078
2082
2064
2056
2048
2037
2029
2019
2018
2022
2023
2016
2007
2012
2025
2026
2005
1994
2001
2009
2014
2024
2043
2067
2075
2090
2115
2147
2180
2195
2199
2226
2264
2292
2329
2380
2414
2435
2458
2477
2484
2488
2494
2505
2513
2518
2515
2513
2502
2470
2435
2417
2397
2360
2334
2304
2255
2212
2175
2136
2101
2060
2021
1997
1984
1992
1999
1996
1999
1994
1993
1996
1979
1956
1945
1944
1939
1943
1943
1936
1936
1932
1931
1954
1978
1996
2007
2016
2008
1994
1987
2010
2034
2036
2024
1999
1986
1991
1983
1969
1960
1960
1982
1993
1991
1977
1972
1989
2010
2019
2014
1995
1967
1954
1972
1998
2007
2008
2006
1987
1971
1967
1980
1993
2008
2020
2035
2049
2046
2056
2039
1997
1979
1958
1961
1972
1984
1984
1986
1986
1983
1995
2002
2004
2003
1990
1980
1988
1991
1985
1982
1988
1988
1983
1984
2005
2036
2058
2056
2059
2068
2065
2054
2041
2040
2054
2052
2039
2022
2014
2007
1999
2000
2013
2021
2026
2022
2038
2056
2048
2038
2030
2029
2032
2028
2030
2037
2045
2050
2051
2043
2026
2005
1996
2001
2017
2027
2027
2039
2039
2048
2054
2051
2051
2063
2076
2071
2074
2070
2057
2040
2039
2040
2029
2017
2021
2025
2023
2023
2019
2026
2045
2072
2085
2083
2087
2098
2099
2101
2103
2104
2114
2122
2125
2108
2103
2111
2096
2111
2120
2122
2125
2127
2125
2117
2112
2107
2094
2102
2121
2137
2150
2157
2158
2165
2176
2174
2170
2171
2167
2157
2141
2115
2086
2072
2066
2068
2069
2068
2069
2084
2095
2098
2105
2116
2111
2097
2086
2089
2102
2111
2119
2133
2121
2110
2099
2083
2085
2087
2075
2060
2055
2051
2033
2041
2051
2060
2088
2103
2084
2062
2043
2023
1998
1984
1993
2012
2031
2037
2047
2063
2078
2081
2067
2059
2056
2058
2062
2063
2059
2063
2071
2066
2054
2044
2025
2025
2040
2057
2071
2082
2088
2075
2057
2053
2058
2073
2062
2053
2039
2024
2028
2031
2044
2061
2061
2053
2043
2034
2033
2046
2061
2056
2039
2040
2042
2029
2010
2010
2021
2020
2017
2025
2041
2045
2035
2040
2047
2049
2058
2071
2071
2077
2086
2082
2081
2080
2072
2076
2082
2082
2081
2080
2070
2050
2036
2034
2048
2058
2058
2061
2067
2059
2054
2048
2062
2085
2091
2079
2069
2063
2061
2062
2065
2059
2044
2044
2061
2078
2063
2057
2067
2063
2061
2062
2076
2079
2061
2041
2022
2018
2021
2037
2066
2087
2091
2086
2070
2063
2071
2071
2071
2062
2050
2024
1996
1978
1981
1989
1986
1973
1977
2003
2012
2002
1996
2016
2031
2020
2015
2011
2007
2008
2010
2013
2013
2009
2013
2028
2040
2041
2040
2039
2039
2042
2042
2052
2064
2059
2034
2018
2029
2036
2045
2045
2034
2024
2030
2064
2089
2104
2093
2077
2064
2055
2054
2053
2056
2057
2059
2059
2052
2034
2023
2030
2043
2058
2067
2073
2072
2077
2081
2072
2063
2054
