# Generic Text File Format
# Version: 1
# StartDateTime: 2012-04-30 15:56:02
# SamplingFrequency: 1000
# SamplingResolution: 12
# EndOfHeader
2376
2344
2301
2272
2272
2267
2286
2310
2358
2388
2385
2364
2340
2309
2288
2294
2308
2324
2378
2405
2376
2353
2363
2387
2405
2401
2396
2407
2414
2411
2393
2375
2380
2391
2383
2365
2369
2381
2405
2436
2447
2451
2440
2419
2410
2399
2394
2414
2437
2438
2433
2452
2485
2495
2469
2441
2449
2443
2425
2399
2376
2387
2406
2458
2532
2574
2601
2624
2627
2617
2602
2552
2500
2487
2515
2539
2548
2533
2501
2455
2409
2401
2387
2403
2454
2514
2540
2557
2560
2556
2574
2571
2547
2514
2475
2443
2444
2469
2489
2510
2509
2457
2428
2416
2395
2373
2363
2372
2393
2391
2397
2407
2407
2398
2391
2366
2334
2323
2337
2351
2344
2329
2322
2324
2330
2333
2324
2332
2371
2396
2350
2291
2261
2253
2240
2225
2247
2277
2263
2212
2167
2200
2273
2291
2255
2217
2206
2218
2243
2255
2265
2249
2249
2235
2218
2246
2291
2283
2212
2168
2192
2238
2235
2240
2261
2269
2268
2266
2264
2286
2336
2375
2370
2309
2257
2248
2248
2247
2248
2279
2323
2350
2324
2309
2307
2307
2329
2347
2355
2351
2348
2302
2220
2174
2204
2259
2288
2265
2235
2247
2234
2217
2242
2276
2293
2292
2258
2230
2218
2199
2213
2244
2274
2268
2279
2273
2260
2242
2228
2214
2195
2203
2199
2197
2217
2211
2210
2203
2201
2229
2272
2300
2317
2317
2289
2244
2208
2196
2194
2204
2229
2252
2279
2291
2287
2285
2255
2206
2166
2141
2125
2127
2157
2207
2244
2235
2230
2237
2233
2217
2176
2135
2142
2165
2167
2187
2198
2179
2165
2141
2149
2128
2118
2138
2156
2166
2191
2224
2230
2220
2230
2219
2192
2158
2147
2155
2166
2147
2140
2138
2127
2131
2146
2148
2137
2105
2097
2118
2116
2104
2094
2085
2076
2073
2104
2140
2144
2142
2139
2123
2087
2109
2142
2134
2102
2052
2024
2028
2045
2068
2085
2105
2112
2106
2113
2119
2090
2056
2043
2046
2073
2108
2109
2078
2076
2113
2102
2061
2022
2006
2000
1980
1966
1960
1957
1988
2040
2051
2037
2034
2017
2008
2022
2048
2048
2035
2038
2035
2037
2033
2021
1987
1969
1964
1967
1977
1993
1993
1991
1981
1952
1936
1943
1962
1954
1946
1951
1962
1962
1947
1932
1934
1947
1939
1913
1904
1905
1910
1949
2076
2180
2232
2273
2297
2322
2335
2347
2347
2351
2366
2381
2372
2354
2381
2410
2390
2372
2391
2408
2393
2386
2390
2400
2401
2398
2429
2455
2468
2438
2418
2418
2419
2407
2397
2407
2407
2378
2375
2413
2438
2446
2440
2447
2473
2532
2554
2520
2478
2410
2345
2339
2376
2410
2420
2441
2456
2431
2397
2377
2355
2343
2356
2363
2363
2380
2372
2342
2326
2325
2319
2321
2304
2283
2285
2310
2349
2367
2348
2310
2287
2270
2271
2292
2301
2274
2290
2336
2350
2357
2316
2239
2190
2191
2207
2224
2246
2258
2249
2234
2209
2205
2226
2241
2247
2246
2231
2226
2233
2239
2248
2223
2209
2207
2228
2250
2237
2247
2267
2299
2349
2384
2381
2337
2291
2289
2315
2365
2449
2532
2580
2597
2620
2648
2681
2708
2723
2726
2724
2727
2748
2771
2791
2790
2759
2703
2616
2525
2422
2357
2317
2281
2254
2214
2174
2145
2121
2112
2127
2131
2123
2114
2103
2085
2079
2082
2070
2043
2014
2012
2035
2050
2060
2051
2026
2028
2042
2046
2063
2051
2030
2023
2029
2029
2008
2002
2034
2074
2105
2088
2063
2048
2028
2014
2016
2040
2077
2089
2100
2074
2031
2022
2035
2026
2033
2044
2020
1996
2021
2060
2052
2022
1998
1970
1965
1991
2020
2039
2038
2028
2009
1997
1985
2000
2025
2054
2061
2048
2053
2069
2084
2087
2102
2104
2108
2104
2098
2073
2043
2010
1990
1982
1992
2003
2003
2005
1995
1989
1989
1996
2021
2036
2039
2016
1971
1955
1984
1986
1991
2024
2053
2082
2067
2044
2010
1990
1995
2014
2033
2027
2011
2010
2034
2064
2085
2110
2136
2122
2073
2037
2038
2033
2023
1998
1997
2019
2027
2029
2018
2032
2060
2084
2082
2059
2046
2052
2076
2098
2107
2088
2065
2028
2037
2098
2153
2136
2108
2110
2145
2188
2192
2197
2202
2191
2190
2204
2207
2188
2195
2215
2225
2245
2244
2226
2206
2207
2232
2248
2221
2185
2167
2157
2174
2201
2183
2145
2149
2163
2187
2219
2222
2209
2229
2269
2275
2261
2238
2214
2211
2223
2227
2276
2330
2364
2390
2425
2467
2474
2462
2480
2491
2472
2441
2428
2438
2442
2416
2380
2365
2362
2374
2400
2422
2430
2420
2410
2387
2356
2366
2406
2439
2459
2445
2448
2461
2451
2444
2436
2430
2421
2375
2362
2387
2419
2435
2442
2422
2394
2375
2369
2385
2415
2422
2414
2383
2335
2304
2292
2299
2267
2231
2230
2241
2228
2210
2199
2190
2180
2173
2186
2212
2217
2222
2192
2168
2182
2182
2145
2124
2143
2152
2153
2164
2181
2195
2209
2208
2191
2178
2191
2216
2218
2213
2232
2257
2267
2269
2282
2261
2210
2181
2186
2211
2237
2220
2202
2198
2204
2213
2209
2198
2185
2184
2174
2149
2138
2145
2147
2176
2217
2207
2176
2173
2191
2173
2192
2229
2228
2229
2236
2222
2194
2152
2121
2074
2047
2050
2068
2107
2138
2158
2157
2139
2116
2098
2114
2124
2132
2118
2084
2052
2044
2053
2074
2098
2093
2093
2110
2115
2105
2112
2136
2135
2124
2121
2117
2122
2105
2064
2028
2031
2043
2048
2036
2064
2113
2144
2136
2076
2004
1970
1962
1991
2029
2065
2090
2114
2124
2114
2076
2032
2004
1999
1999
1992
1987
1984
1990
2010
2007
1988
1984
1982
1959
1941
1954
1977
1996
1994
1982
1981
1992
2025
2066
2082
2067
2027
1969
1945
1965
1982
1984
1983
1984
1971
1932
1919
1942
1952
1959
1957
1939
1930
1952
1996
1999
1974
1956
1951
1936
1910
1891
1906
1922
1935
1939
1932
1922
1913
1931
1948
1943
1922
1896
1878
1873
1865
1875
1910
1937
1956
1952
1922
1881
1855
1833
1833
1878
1916
1906
1879
1878
1897
1905
1902
1934
1952
1924
1890
1889
1916
1903
1864
1829
1825
1852
1878
1908
1954
1990
2007
1998
1985
1998
2023
2062
2117
2192
2264
2331
2387
2445
2482
2489
2483
2459
2465
2482
2520
2550
2541
2515
2465
2444
2438
2430
2437
2478
2565
2624
2656
2677
2718
2758
2801
2838
2849
2861
2891
2973
3057
3131
3221
3310
3373
3412
3437
3445
3458
3480
3506
3545
3562
3576
3594
3607
3626
3642
3631
3607
3575
3590
3619
3615
3587
3579
3559
3502
3483
3484
3516
3547
3531
3511
3475
3439
3421
3399
3360
3346
3366
3399
3394
3322
3246
3228
3236
3224
3195
3162
3128
3132
3133
3140
3140
3147
3162
3169
3159
3123
3082
3040
3009
2952
2874
2806
2764
2717
2659
2652
2660
2637
2601
2582
2576
2558
2534
2462
2393
2358
2328
2313
2298
2281
2273
2268
2258
2252
2235
2226
2236
2259
2272
2241
2198
2161
2136
2138
2127
2097
2071
2048
2045
2057
2081
2095
2087
2071
2039
2003
1982
1968
1954
1961
1988
2016
2036
2056
2074
2079
2059
2020
2016
2027
2052
2068
2088
2120
2173
2221
2237
2254
2279
2315
2330
2334
2355
2366
2368
2368
2381
2409
2432
2438
2410
2376
2353
2310
2241
2142
2035
1926
1843
1794
1755
1718
1692
1659
1631
1609
1591
1611
1644
1663
1664
1651
1636
1617
1583
1560
1538
1518
1494
1458
1440
1447
1471
1505
1539
1565
1574
1566
1558
1522
1474
1449
1491
1560
1564
1536
1526
1503
1489
1481
1465
1455
1450
1450
1453
1460
1480
1482
1488
1495
1496
1481
1457
1449
1446
1458
1467
1474
1450
1404
1387
1374
1360
1361
1368
1371
1387
1403
1399
1400
1394
1382
1409
1413
1400
1374
1358
1360
1366
1353
1376
1397
1389
1376
1383
1376
1376
1389
1399
1404
1401
1380
1357
1357
1379
1377
1357
1349
1374
1399
1409
1413
1422
1434
1431
1421
1431
1421
1401
1378
1361
1368
1370
1365
1356
1364
1391
1400
1389
1384
1388
1388
1381
1383
1393
1394
1405
1409
1435
1438
1408
1389
1393
1389
1395
1425
1465
1471
1438
1395
1366
1377
1414
1450
1456
1440
1424
1437
1456
1463
1468
1464
1456
1467
1499
1524
1537
1545
1552
1560
1559
1544
1532
1509
1500
1498
1507
1503
1489
1491
1511
1530
1555
1569
1590
1606
1607
1605
1611
1610
1597
1582
1570
1587
1622
1652
1650
1634
1636
1673
1673
1640
1626
1630
1645
1654
1652
1657
1656
1653
1660
1667
1691
1706
1711
1716
1710
1691
1695
1716
1743
1772
1773
1755
1738
1723
1706
1693
1713
1739
1743
1746
1761
1787
1797
1784
1768
1758
1751
1759
1784
1822
1835
1818
1814
1804
1793
1782
1787
1812
1801
1790
1789
1784
1754
1755
1771
1794
1787
1774
1768
1742
1726
1747
1767
1751
1727
1698
1688
1685
1683
1684
1688
1682
1683
1723
1756
1753
1715
1689
1688
1693
1697
1717
1737
1736
1727
1723
1719
1730
1734
1751
1757
1744
1744
1749
1721
1697
1676
1696
1733
1752
1776
1800
1787
1768
1762
1777
1780
1772
1745
1718
1716
1736
1750
1758
1758
1809
1849
1817
1781
1784
1791
1801
1798
1774
1759
1791
1818
1814
1813
1836
1850
1848
1832
1831
1840
1863
1877
1877
1870
1866
1854
1864
1885
1869
1866
1878
1880
1883
1895
1910
1912
1877
1872
1887
1902
1873
1817
1769
1761
1782
1819
1850
1863
1875
1861
1825
1791
1792
1820
1851
1886
1899
1860
1849
1862
1831
1816
1848
1870
1867
1862
1837
1838
1875
1912
1927
1922
1935
1920
1903
1892
1903
1893
1867
1864
1879
1879
1876
1871
1853
1815
1810
1827
1839
1863
1876
1903
1903
1875
1854
1865
1869
1867
1870
1879
1900
1925
1918
1883
1858
1836
1820
1846
1903
1926
1956
1989
1977
1956
1939
1946
1939
1963
1991
2024
2029
2011
2008
2002
1998
1989
1966
1955
1953
1953
1955
1966
1969
1973
1986
1977
1963
1972
1999
2011
2013
2030
2046
2061
2048
2021
2004
2014
2018
2040
2061
2064
2054
2023
1986
1975
1990
1969
1969
1997
2008
2004
1998
1995
2009
2025
2008
1984
1997
2004
1987
1944
1906
1921
1965
2016
2071
2091
2073
2038
1988
1933
1894
1893
1920
1918
1927
1957
1974
1958
1920
1898
1892
1892
1902
1904
1900
1907
1926
1912
1867
1839
1827
1815
1810
1807
1791
1811
1836
1834
1825
1825
1826
1836
1840
1838
1826
1806
1804
1828
1840
1821
1786
1763
1789
1817
1852
1888
1910
1937
1947
1924
1914
1929
1938
1940
1928
1914
1908
1925
1944
1960
1997
2033
2050
2033
2006
2006
2002
2002
2022
2024
1991
1967
1986
2026
2087
2103
2101
2096
2112
2111
2115
2118
2140
2159
2144
2131
2126
2133
2141
2151
2156
2169
2167
2125
2097
2104
2130
2160
2144
2100
2081
2075
2100
2142
2165
2151
2124
2132
2164
2191
2204
2201
2192
2208
2212
2205
2186
2187
2183
2152
2134
2152
2165
2177
2195
2219
2251
2268
2253
2213
2168
2179
2180
2186
2196
2198
2223
2250
2259
2268
2284
2271
2252
2234
2221
2235
2246
2254
2263
2254
2268
2300
2335
2361
2368
2361
2362
2367
2360
2393
2423
2434
2456
2470
2477
2495
2506
2519
2547
2593
2633
2669
2695
2725
2765
2812
2860
2882
2897
2931
2962
2997
3020
2997
2956
2913
2845
2772
2683
2577
2507
2506
2517
2488
2435
2402
2371
2349
2355
2353
2347
2352
2363
2341
2304
2287
2288
2281
2293
2319
2360
2378
2357
2321
2318
2345
2379
2402
2399
2375
2358
2364
2372
2395
2413
2419
2426
2422
2396
2368
2372
2400
2399
2399
2414
2405
2380
2393
2435
2449
2433
2422
2381
2353
2362
2393
2397
2390
2390
2372
2341
2302
2277
2292
2300
2299
2318
2349
2379
2393
2398
2386
2379
2389
2408
2430
2411
2373
2340
2332
2350
2368
2380
2372
2356
2368
2396
2391
2383
2395
2401
2416
2436
2425
2398
2401
2409
2407
2400
2393
2381
2373
2372
2365
2381
2423
2464
2490
2492
2480
2480
2472
2492
2495
2471
2465
2466
2460
2454
2474
2486
2485
2486
2487
2516
2540
2512
2487
2482
2479
2479
2476
2493
2523
2542
2544
2553
2522
2486
2494
2516
2504
2503
2535
2540
2542
2542
2545
2524
2498
2505
2528
2549
2574
2604
2619
2611
2572
2534
2494
2449
2448
2495
2539
2542
2540
2553
2556
2544
2525
2530
2563
2557
2528
2520
2544
2566
2550
2550
2551
2563
2571
2579
2606
2621
2628
2603
2576
2576
2578
2572
2560
2552
2565
2582
2609
2647
2654
2643
2640
2645
2640
2636
2641
2645
2622
2605
2603
2603
2598
2581
2568
2557
2570
2589
2609
2613
2614
2616
2607
2597
2597
2592
2570
2574
2592
2608
2631
2639
2622
2586
2537
2527
2543
2550
2561
2568
2535
2517
2530
2561
2584
2605
2605
2557
2498
2460
2455
2455
2416
2357
2348
2381
2414
2415
2398
2397
2390
2380
2360
2330
2327
2337
2354
2334
2289
2272
2270
2279
2317
2369
2355
2299
2296
2335
2341
2318
2311
2315
2338
2353
2318
2273
2249
2254
2272
2276
2284
2280
2264
2245
2255
2272
2269
2281
2279
2268
2279
2284
2306
2315
2321
2326
2316
2303
2294
2282
2245
2217
2220
2250
2288
2303
2313
2337
2337
2295
2265
2274
2285
2299
2318
2333
2315
2317
2326
2308
2283
2295
2319
2349
2364
2350
2327
2315
2320
2345
2388
2412
2409
2381
2353
2364
2384
2396
2390
2372
2357
2358
2352
2349
2348
2352
2343
2351
2360
2390
2406
2390
2359
2354
2367
2387
2405
2391
2375
2360
2372
2378
2360
2347
2357
2364
2345
2342
2347
2355
2336
2338
2355
2389
2422
2463
2471
2436
2417
2408
2410
2413
2392
2375
2365
2365
2346
2310
2311
2326
2350
2357
2345
2347
2366
2373
2366
2367
2383
2408
2426
2427
2385
2365
2385
2388
2374
2377
2377
2376
2380
2372
2368
2367
2370
2370
2354
2332
2348
2374
2391
2409
2423
2406
2366
2363
2368
2344
2317
2313
2320
2327
2332
2328
2341
2356
2357
2383
2383
2343
2335
2333
2328
2321
2332
2367
2379
2365
2369
2371
2342
2330
2349
2361
2341
2319
2307
2298
2297
2294
2301
2310
2320
2325
2351
2362
2333
2345
2360
2338
2319
2314
2320
2352
2390
2390
2361
2321
2294
2277
2261
2269
2289
2304
2300
2284
2271
2278
2303
2320
2342
2378
2395
2387
2366
2348
2342
2347
2338
2319
2305
2263
2238
2224
2215
2273
2316
2295
2303
2312
2300
2295
2311
2332
2332
2321
2322
2325
2332
2341
2365
2381
2353
2311
2287
2293
2320
2351
2359
2351
2342
2350
2364
2387
2418
2420
2413
2387
2349
2325
2306
2298
2309
2327
2318
2296
2266
2262
2266
2266
2262
2272
2272
2277
2277
2283
2273
2244
2220
2211
2209
2192
2161
2170
2219
2269
2256
2217
2197
2188
2184
2181
2189
2201
2187
2174
2157
2176
2210
2220
2226
2214
2196
2203
2219
2210
2179
2141
2132
2146
2175
2190
2198
2206
2216
2203
2188
2198
2216
2220
2203
2194
2198
2193
2191
2184
2163
2157
2166
2169
2172
2165
2156
2165
2190
2211
2226
2214
2225
2262
2295
2320
2344
2363
2387
2427
2471
2518
2568
2622
2667
2698
2716
2716
2707
2732
2773
2835
2886
2867
2816
2758
2655
2560
2502
2461
2384
2282
2195
2148
2120
2084
2068
2083
2084
2076
2064
2066
2087
2105
2113
2105
2096
2074
2051
2057
2052
2045
2072
2115
2138
2128
2074
2033
2029
2052
2058
2066
2063
2049
2038
2037
2044
2063
2096
2111
2113
2117
2094
2048
2011
1989
1993
2019
2045
2059
2068
2077
2066
2056
2034
2024
2019
2015
2031
2038
2051
2065
2073
2056
2045
2060
2071
2056
2043
2036
2026
2032
2029
2036
2083
2111
2081
2044
2018
2010
2030
2065
2067
2050
2046
2030
2019
2026
2032
2057
2086
2089
2058
2022
2017
2056
2106
2100
2055
2029
2032
2049
2073
2080
2075
2063
2042
2012
2036
2071
2093
2121
2123
2088
2050
2017
2004
2013
2034
2046
2019
2014
2027
2068
2116
2127
2133
2123
2110
2104
2094
2093
2066
2040
2047
2050
2055
2053
2061
2075
2063
2049
2053
2063
2080
2094
2102
2115
2109
2092
2068
2089
2113
2131
2126
2098
2063
2055
2073
2094
2105
2116
2118
2117
2107
2089
2088
2088
2099
2125
2121
2112
2123
2112
2091
2075
2082
2099
2094
2094
2109
2120
2110
2110
2120
2150
2191
2190
2169
2169
2176
2173
2185
2195
2190
2161
2153
2172
2176
2164
2153
2138
2120
2104
2104
2115
2104
2109
2118
2121
2108
2092
2111
2140
2162
2176
2182
2162
2138
2108
2084
2067
2046
2041
2051
2041
2047
2071
2116
2149
2157
2129
2089
2063
2053
2058
2071
2079
2068
2059
2051
2048
2068
2067
2031
1985
1940
1906
1916
1940
1958
1968
1970
1966
1979
1979
1964
1960
1973
1963
1940
1928
1913
1893
1883
1886
1904
1922
1909
1905
1919
1945
1961
1945
1913
1893
1875
1842
1818
1812
1829
1834
1837
1832
1838
1860
1874
1841
1806
1818
1863
1897
1898
1884
1874
1874
1892
1898
1883
1864
1843
1818
1786
1789
1790
1805
1822
1808
1799
1791
1782
1779
1789
1819
1850
1867
1875
1870
1882
1881
1854
1833
1841
1860
1874
1872
1868
1848
1825
1846
1870
1863
1831
1814
1800
1785
1786
1806
1846
1904
1920
1900
1868
1847
1835
1842
1879
1899
1898
1890
1873
1845
1840
1853
1877
1896
1884
1869
1865
1884
1901
1887
1872
1868
1867
1860
1852
1830
1828
1854
1873
1885
1909
1907
1900
1896
1900
1916
1915
1884
1860
1851
1867
1898
1898
1881
1870
1857
1829
1823
1859
1902
1934
1947
1942
1925
1912
1924
1949
1938
1896
1881
1862
1834
1834
1838
1829
1817
1823
1868
1891
1882
1868
1873
1896
1925
1934
1912
1888
1874
1851
1854
1862
1849
1842
1847
1868
1883
1877
1846
1828
1848
1856
1871
1889
1888
1871
1857
1867
1878
1875
1878
1882
1875
1876
1866
1866
1873
1875
1869
1856
1825
1808
1801
1814
1846
1863
1900
1946
1942
1906
1870
1859
1858
1847
1839
1860
1875
1874
1861
1871
1900
1896
1889
1870
1872
1899
1928
1911
1892
1884
1883
1871
1861
1886
1929
1955
1948
1944
1935
1923
1917
1920
1927
1955
1980
1987
1986
1948
1896
1887
1915
1948
1956
1952
1951
1944
1928
1917
1916
1941
1913
1895
1911
1927
1927
1931
1939
1951
1954
1931
1907
1911
1898
1865
1843
1853
1887
1926
1953
1952
1920
1887
1885
1901
1908
1918
1910
1889
1876
1852
1841
1866
1891
1901
1919
1918
1907
1867
1846
1870
1893
1885
1870
1869
1875
1860
1842
1859
1865
1860
1845
1837
1829
1852
1878
1868
1851
1870
1895
1913
1922
1928
1906
1848
1819
1818
1835
1835
1848
1884
1920
1917
1891
1862
1852
1916
1997
2030
2042
2033
2028
2051
2091
2121
2141
2169
2201
2243
2279
2301
2326
2356
2381
2422
2477
2523
2531
2531
2551
2536
2500
2444
2358
2254
2163
2092
2048
2021
1985
1936
1867
1812
1804
1824
1866
1919
1908
1884
1869
1849
1845
1860
1879
1879
1839
1805
1786
1787
1807
1781
1748
1751
1779
1795
1817
1845
1868
1855
1828
1809
1786
1767
1757
1758
1756
1747
1757
1781
1804
1823
1843
1844
1818
1796
1805
1805
1812
1831
1841
1840
1850
1845
1838
1841
1837
1860
1897
1905
1873
1852
1854
1846
1818
1787
1773
1778
1795
1834
1872
1874
1858
1840
1838
1833
1828
1835
1822
1794
1787
1784
1790
1811
1836
1839
1836
1856
1876
1915
1923
1878
1846
1863
1873
1855
1847
1831
1814
1834
1880
1910
1919
1901
1882
1888
1901
1901
1921
1923
1905
1894
1871
1869
1873
1877
1875
1874
1886
1895
1894
1909
1923
1895
1844
1804
1807
1863
1926
1955
1944
1922
1891
1883
1916
1952
1950
1944
1958
1972
1996
2021
2006
1979
1956
1933
1922
1920
1913
1902
1895
1899
1909
1921
1950
1972
1970
1981
1977
1985
1989
1967
1940
1940
1963
1976
1997
2007
2014
2034
2046
2028
2001
1982
1968
1946
1946
1975
2007
2062
2087
2092
2061
2030
2024
2029
2023
2016
1999
1987
2001
1995
2000
2023
2051
2062
2068
2075
2067
2061
2050
2039
2049
2035
2020
2010
2018
2039
2049
2066
2092
2083
2065
2062
2068
2067
2062
2054
2033
2034
2044
2045
2019
2010
2020
2021
2039
2045
2042
2020
1976
1959
1976
1968
1933
1924
1950
1975
1990
1993
1983
1971
1951
1922
1913
1928
1946
1941
1924
1925
1909
1882
1887
1915
1942
1936
1945
1969
1958
1919
1871
1856
1850
1827
1826
1836
1856
1893
1913
1900
1874
1847
1846
1840
1841
1847
1852
1849
1822
1810
1825
1843
1849
1845
1839
1832
1800
1809
1834
1853
1856
1840
1849
1843
1813
1800
1806
1808
1797
1793
1804
1794
1769
1757
1771
1789
1791
1795
1814
1833
1824
1806
1791
1790
1807
1818
1796
1788
1824
1867
1906
1888
1856
1838
1850
1854
1850
1826
1775
1762
1784
1815
1840
1867
1872
1860
1849
1838
1833
1853
1877
1860
1858
1868
1863
1859
1854
1851
1864
1876
1894
1889
1881
1869
1857
1843
1832
1816
1822
1847
1872
1878
1893
1901
1910
1924
1923
1931
1915
1896
1893
1882
1856
1850
1836
1792
1800
1837
1889
1908
1880
1852
1876
1882
1872
1857
1833
1819
1838
1860
1869
1848
1878
1883
1859
1859
1889
1905
1920
1933
1929
1900
1875
1851
1847
1871
1895
1889
1871
1856
1851
1846
1856
1869
1875
1870
1888
1893
1883
1872
1856
1845
1878
1907
1914
1901
1888
1900
1912
1898
1884
1893
1921
1950
1942
1930
1928
1921
1917
1921
1916
1911
1898
1885
1856
1842
1841
1874
1910
1929
1942
1933
1903
1873
1872
1918
1960
1951
1915
1914
1941
1953
1930
1907
1906
1900
1898
1906
1941
1967
1940
1915
1937
1970
2002
2019
2004
1989
1959
1946
1968
1995
2021
2014
1998
1997
2003
2010
2006
1984
1971
1965
1999
2023
2023
2033
2013
1976
1941
1941
1950
1962
1980
1984
1980
1955
1942
1973
2006
2001
1988
1962
1950
1931
1897
1893
1914
1935
1936
1928
1908
1881
1886
1895
1906
1924
1932
1933
1942
1940
1925
1927
1949
1965
1972
1959
1948
1950
1962
1959
1943
1937
1937
1948
1976
1980
1942
1909
1901
1884
1892
1915
1939
1938
1927
1923
1918
1914
1912
1898
1891
1891
1890
1913
1952
1976
1958
1938
1958
2008
2054
2076
2077
2066
2055
2071
2103
2141
2172
2199
2222
2274
2339
2382
2408
2422
2436
2452
2469
2486
2514
2539
2563
2567
2540
2512
2458
2375
2281
2196
2127
2089
2065
2016
1961
1933
1896
1856
1863
1886
1900
1884
1886
1912
1931
1923
1915
1919
1894
1861
1829
1816
1834
1863
1879
1879
1868
1866
1868
1883
1896
1894
1888
1894
1893
1879
1852
1820
1814
1823
1824
1834
1858
1876
1875
1855
1859
1894
1908
1910
1924
1939
1920
1888
1861
1855
1868
1880
1887
1890
1876
1860
1853
1846
1848
1840
1823
1827
1839
1853
1857
1868
1865
1848
1862
1892
1917
1909
1902
1918
1929
1941
1935
1920
1918
1927
1960
1950
1921
1912
1905
1892
1876
1873
1862
1841
1845
1877
1924
1949
1930
1889
1863
1882
1919
1947
1956
1946
1936
1928
1928
1936
1928
1928
1949
1977
2005
2009
2020
1999
1948
1925
1928
1945
1967
1970
1956
1949
1958
1964
1966
1936
1924
1923
1913
1929
1946
1957
1978
1976
1958
1940
1934
1927
1927
1940
1951
1949
1960
1974
1988
2010
2023
2028
2001
1953
1935
1948
1982
2024
2044
2028
2018
2023
2043
2059
2056
2048
2044
2041
2037
2027
2030
2026
2021
2029
2044
2037
2037
2049
2049
2071
2078
2067
2043
2031
2028
2042
2049
2060
2070
2064
2061
2064
2067
2074
2090
2104
2115
2106
2078
2057
2060
2075
2084
2110
2111
2081
2040
2034
2055
2069
2071
2076
2078
2074
2075
2076
2079
2094
2103
2089
2062
2059
2068
2075
2062
2062
2088
2089
2075
2075
2103
2095
2056
2017
1987
1978
1978
1977
1989
2006
2013
2006
2019
2041
2044
2038
2005
1956
1933
1937
1929
1905
1907
1936
1938
1935
1917
1893
1883
1884
1915
1954
1963
1948
1921
1893
1883
1887
1888
1878
1896
1897
1880
1883
1895
1897
1883
1876
1877
1864
1842
1845
1864
1889
1947
1967
1932
1891
1883
1895
1901
1905
1908
1884
1868
1882
1896
1892
1879
1882
1890
1897
1907
1912
1912
1889
1881
1887
1889
1891
1885
1868
1869
1882
1895
1895
1877
1870
1858
1865
1886
1907
1935
1975
2002
1992
1962
1925
1900
1878
1893
1934
1966
1979
1992
1964
1937
1925
1930
1928
1925
1942
1932
1916
1928
1933
1934
1946
1966
1981
1980
1987
2009
2030
2039
2029
2015
2003
2019
2034
2037
2021
1986
1961
1984
2008
1994
1947
1919
1965
2029
2049
2050
2062
2076
2061
2021
1970
1942
1945
1951
1953
1956
1975
1981
1999
2006
1999
2003
2011
2018
2015
2001
1993
1976
1966
1988
2027
2029
2024
2014
1988
1978
2000
2046
2074
2062
2036
2020
2011
2008
2026
2035
2020
2002
2009
2048
2093
2105
2094
2083
2070
2045
2011
2009
2009
1996
1988
2004
2037
2091
2132
2134
2105
2085
2083
2083
2076
2067
2077
2071
2044
2045
2051
2054
2073
2060
2029
2029
2055
2084
2105
2101
2090
2088
2089
2088
2101
2104
2092
2106
2150
2174
2156
2136
2153
2171
2165
2147
2126
2131
2165
2172
2143
2139
2175
2214
2225
2232
2235
2218
2167
2126
2120
2100
2087
2112
2130
2122
2126
2147
2171
2173
2176
2185
2181
2164
2151
2144
2156
2158
2147
2140
2128
2111
2118
2136
2153
2170
2148
2102
2086
2102
2103
2097
2107
2122
2116
2111
2101
2091
2092
2104
2088
2089
2116
2151
2166
2154
2145
2112
2119
2141
2137
2143
2145
2152
2184
2224
2253
2256
2225
2172
2117
2098
2095
2083
2092
2132
2165
2161
2151
2158
2154
2148
2151
2158
2162
2149
2135
2136
2158
2166
2184
2222
2278
2336
2347
2343
2357
2374
2379
2395
2401
2408
2426
2467
2509
2546
2584
2637
2695
2731
2768
2796
2828
2851
2873
2875
2886
2906
2862
2765
2662
2544
2435
2373
2337
2303
2281
2254
2206
2188
2210
2237
2233
2206
2193
2181
2160
2143
2144
2134
2107
2116
2174
2231
2248
2242
2210
2173
2156
2161
2151
2145
2156
2156
2142
2143
2134
2128
2148
2182
2211
2224
2236
2262
2272
2253
2229
2194
2169
2188
2214
2203
2178
2167
2172
2196
2252
2264
2226
2175
2129
2117
2128
2155
2209
2252
2253
2230
2212
2195
2187
2194
2216
2246
2231
2214
2220
2239
2276
2290
2281
2256
2248
2255
2229
2196
2174
2208
2243
2264
2292
2299
2274
2236
2231
2203
2205
2262
2298
2286
2272
2282
2316
2328
2321
2302
2312
2355
2376
2351
2325
2282
2241
2216
2217
2233
2255
2276
2275
2276
2265
2255
2271
2305
2316
2305
2302
2288
2292
2289
2286
2287
2299
2326
2350
2348
2329
2321
2327
2339
2353
2350
2334
2303
2290
2288
2297
2323
2354
2367
2379
2396
2389
2374
2335
2313
2318
2327
2343
2344
2345
2355
2361
2385
2419
2441
2427
2390
2375
2392
2433
2470
2439
2423
2428
2434
2442
2422
2409
2416
2409
2391
2370
2370
2403
2428
2429
2418
2399
2374
2369
2390
2426
2464
2470
2470
2478
2466
2455
2442
2458
2467
2464
2428
2373
2394
2463
2506
2538
2526
2486
2466
2463
2448
2451
2460
2463
2463
2467
2476
2461
2435
2401
2398
2422
2431
2395
2367
2390
2444
2480
2485
2467
2438
2424
2425
2440
2446
2434
2419
2416
2393
2367
2354
2351
2374
2393
2384
2375
2382
2387
2384
2385
2391
2373
2350
2351
2349
2318
2295
2302
2296
2284
2267
2243
2240
2237
2254
2293
2314
2309
2291
2277
2270
2240
2195
2175
2183
2216
2268
2296
2294
2265
2218
2205
2226
2262
2258
2211
2161
2132
2151
2190
2209
2222
2224
2218
2202
2183
2196
2206
2210
2207
2240
2297
2316
2292
2259
2221
2189
2177
2172
2168
2179
2203
2204
2204
2211
2198
2189
2212
2231
2238
2258
2247
2243
2282
2317
2332
2295
2244
2205
2186
2190
2199
2186
2190
2199
2212
2223
2195
2187
2233
2268
2267
2260
2276
2284
2260
2240
2232
2244
2253
2219
2194
2210
2231
2250
2261
2257
2249
2246
2257
2275
2272
2263
2248
2226
2211
2226
2245
2258
2235
2205
2207
2234
2253
2262
2266
2267
2256
2239
2230
2228
2228
2234
2254
2266
2264
2270
2275
2277
2263
2236
2235
2278
2320
2326
2292
2256
2242
2247
2265
2282
2284
2267
2245
2207
2177
2180
2205
2221
2234
2266
2291
2277
2260
2227
2205
2218
2232
2241
2242
2245
2232
2244
2281
2282
2263
2244
2226
2215
2214
2232
2239
2221
2205
2193
2192
2198
2201
2203
2210
2193
2186
2204
2212
2212
2222
2242
2261
2283
2275
2256
2261
2246
2215
2172
2131
2128
2174
2246
2286
2270
2236
2195
2171
2216
2279
2313
2310
2321
2296
2262
2262
2251
2253
2256
2268
2282
2271
2258
2231
2199
2184
2176
2199
2226
2255
2307
2320
2304
2292
2289
2297
2304
2298
2296
2301
2280
2247
2243
2248
2256
2255
2243
2229
2215
2224
2237
2246
2236
2222
2203
2211
2216
2206
2188
2167
2183
2217
2198
2160
2147
2147
2113
2080
2053
2086
2155
2180
2166
2161
2176
2207
2233
2220
2202
2160
2127
2107
2101
2113
2115
2109
2115
2122
2134
2131
2107
2099
2105
2119
2132
2159
2182
2195
2178
2148
2140
2150
2158
2142
2115
2095
2094
2093
2104
2130
2131
2119
2126
2137
2150
2165
2164
2144
2131
2124
2132
2173
2196
2212
2229
2255
2266
2222
2181
2201
2249
2305
2349
2352
2388
2454
2499
2545
2569
2589
2625
2655
2677
2705
2735
2761
2780
2784
2789
2781
2750
2702
2631
2532
2436
2350
2267
2193
2157
2141
2146
2157
2163
2155
2135
2133
2150
2137
2104
2095
2087
2089
2072
2054
2065
2055
2051
2048
2038
2028
2029
2048
2084
2110
2115
2100
2070
2068
2080
2090
2081
2069
2076
2063
2054
2057
2063
2067
2063
2037
2006
1986
1980
1973
1974
1992
1998
2014
2027
2019
2016
2018
2033
2041
2056
2079
2071
2055
2052
2050
2067
2104
2131
2090
2037
2024
2046
2071
2075
2047
2033
2046
2053
2048
2046
2066
2102
2121
2150
2173
2145
2098
2063
2037
2018
1996
1984
1996
2012
2022
2028
2043
2055
2057
2059
2060
2054
2060
2067
2077
2080
2078
2104
2112
2094
2083
2092
2102
2067
2051
2058
2069
2097
2118
2090
2056
2067
2084
2093
2087
2101
2100
2086
2085
2075
2058
2057
2086
2103
2106
2086
2079
2078
2093
2112
2124
2104
2090
2103
2109
2108
2096
2078
2071
2081
2100
2108
2119
2141
2137
2137
2129
2119
2117
2122
2118
2103
2099
2125
2142
2155
2164
2174
2191
2172
2149
2146
2140
2133
2145
2160
2164
2151
2135
2125
2146
2172
2172
2174
2169
2144
2126
2129
2135
2155
2166
2168
2156
2168
2195
2229
2231
2228
2211
2161
2128
2135
2144
2129
2122
2132
2134
2138
2147
2154
2137
2133
2147
2151
2143
2122
2120
2145
2180
2199
2200
2192
2174
2137
2122
2131
2155
2167
2171
2184
2198
2169
2128
2104
2085
2058
2054
2064
2057
2086
2120
2111
2087
2069
2084
2091
2074
2046
2026
2056
2085
2065
2046
2024
1991
1968
1962
1966
1958
1972
1987
1978
1970
1974
1980
1983
1979
1966
1958
1952
1937
1905
1885
1870
1874
1885
1895
1924
1969
2012
2045
2024
1971
1919
1883
1854
1867
1895
1920
1932
1934
1927
1930
1896
1879
1888
1906
1917
1903
1883
1891
1917
1945
1961
1955
1948
1950
1946
1917
1918
1939
1935
1911
1901
1898
1894
1897
1905
1917
1936
1943
1933
1908
1903
1921
1928
1936
1939
1945
1962
1981
1990
2009
1993
1907
1838
1856
1902
1920
1923
1954
1993
1989
1971
1973
1965
1959
1958
1936
1923
1917
1915
1916
1926
1950
1953
1945
1959
1982
2005
2016
2009
2013
2026
2038
2033
1999
1954
1947
1953
1980
2011
2023
2036
2033
2020
2014
2034
2039
1992
1978
2006
2003
1989
2000
1999
1986
2000
2016
2006
2008
2019
2022
2007
1997
2013
2018
1986
1966
1973
1975
1978
2003
2023
2002
1978
1980
1997
2005
2007
2001
2028
2069
2075
2055
2047
2011
1948
1921
1900
1895
1938
1995
2019
2012
2006
1985
1977
2001
2034
2048
2040
2019
1986
1969
1970
1976
1959
1954
1953
1931
1948
1982
1996
1976
1930
1893
1894
1913
1941
1964
1958
1938
1929
1932
1955
1970
1959
1940
1937
1939
1932
1934
1934
1942
1950
1964
1970
1963
1972
1955
1933
1932
1932
1908
1882
1896
1925
1943
1948
1955
1955
1962
1957
1937
1922
1925
1936
1950
1931
1919
1915
1904
1901
1900
1915
1938
1948
1952
1938
1930
1931
1940
1942
1935
1934
1937
1932
1943
1981
2024
2049
2023
1978
1960
1973
1988
1993
1956
1922
1931
1959
1974
1984
1990
2006
2005
1985
1958
1954
1959
1975
1962
1963
1982
1988
1965
1942
1922
1920
1934
1938
1941
1932
1918
1899
1875
1884
1885
1878
1880
1881
1878
1903
1936
1938
1930
1908
1907
1906
1898
1890
1882
1897
1893
1857
1830
1833
1854
1875
1895
1907
1889
1882
1877
1873
1891
1912
1911
1896
1873
1852
1825
1811
1799
1814
1860
1900
1915
1905
1885
1873
1875
1876
1873
1860
1843
1851
1878
1899
1898
1887
1873
1863
1868
1885
1902
1905
1897
1897
1924
1955
1977
2013
2080
2140
2146
2132
2135
2168
2184
2204
2247
2313
2351
2398
2450
2481
2512
2548
2568
2558
2552
2535
2510
2490
2445
2367
2259
2155
2086
2036
1992
1972
1960
1934
1897
1877
1859
1850
1858
1877
1895
1903
1894
1873
1861
1839
1819
1819
1822
1817
1806
1823
1836
1844
1861
1876
1858
1850
1838
1815
1800
1789
1793
1805
1811
1824
1834
1843
1856
1859
1868
1889
1896
1886
1883
1876
1851
1837
1836
1843
1850
1833
1812
1802
1818
1829
1848
1864
1865
1880
1899
1877
1848
1840
1830
1839
1862
1882
1901
1896
1897
1929
1944
1915
1871
1842
1852
1893
1926
1927
1912
1894
1882
1877
1867
1864
1861
1865
1882
1892
1888
1897
1905
1900
1900
1901
1901
1887
1878
1869
1890
1902
1897
1901
1909
1919
1931
1953
1955
1940
1937
1938
1915
1902
1916
1920
1915
1924
1946
1956
1932
1899
1909
1926
1942
1944
1950
1975
1987
1993
1973
1955
1928
1932
1950
1933
1933
1965
1973
1967
1949
1937
1967
2000
1997
1980
1973
1999
2026
2024
2004
1964
1949
1967
1979
1984
1968
1954
1969
1994
2014
2036
2060
2074
2073
2069
2065
2058
2056
2049
2045
2040
2040
2055
2057
2068
2061
2061
2060
2073
2075
2058
2048
2059
2066
2080
2109
2131
2129
2120
2108
2095
2075
2081
2107
2122
2102
2105
2113
2070
2062
2104
2136
2126
2111
2111
2099
2093
2099
2105
2119
2112
2087
2086
2109
2131
2136
2123
2113
2117
2107
2089
2076
2056
2033
2029
2067
2116
2137
2109
2069
2067
2075
2069
2066
2059
2051
2058
2052
2062
2068
2051
2042
2029
2010
1988
1990
2014
2016
1988
1962
1945
1934
1929
1927
1915
1929
1942
1961
1969
1952
1939
1932
1918
1899
1887
1891
1905
1908
1903
1902
1916
1927
1914
1896
1885
1877
1877
1865
1843
1851
1861
1866
1860
1858
1856
1837
1828
1828
1816
1832
1855
1881
1894
1894
1880
1876
1894
1912
1900
1872
1865
1870
1859
1863
1878
1875
1858
1858
1879
1913
1933
1934
1908
1877
1861
1852
1863
1894
1902
1882
1854
1839
1863
1907
1923
1885
1843
1833
1840
1847
1879
1927
1940
1911
1885
1871
1893
1907
1901
1884
1884
1871
1860
1881
1886
1895
1913
1913
1903
1876
1865
1892
1912
1932
1915
1878
1866
1881
1881
1881
1910
1934
1936
1933
1917
1872
1858
1871
1880
1890
1899
1920
1953
1981
1977
1950
1932
1941
1944
1955
1959
1970
2000
2002
1964
1907
1856
1842
1850
1873
1915
1983
2013
2003
1986
1980
1964
1961
1954
1924
1910
1907
1920
1944
1935
1924
1927
1947
1965
1946
1926
1937
1946
1933
1941
1961
1963
1959
1960
1954
1933
1912
1930
1929
1913
1897
1917
1948
1969
1973
1963
1964
1963
1944
1936
1935
1929
1904
1894
1916
1954
1960
1941
1931
1929
1936
1936
1941
1969
1962
1963
1963
1960
1954
1943
1938
1961
1995
2020
2018
1983
1970
1971
1945
1925
1894
1881
1898
1934
1972
1972
1959
1963
1964
1979
1992
2013
2010
1993
1974
1952
1950
1980
2031
2057
2042
2008
1987
1989
2001
2021
2034
2036
2022
1989
1971
1976
1970
1978
2013
2054
2054
2042
2025
2008
2008
2007
1993
1972
1968
1977
1975
1972
1976
1981
1993
2026
2048
2012
1972
1962
1964
1969
1980
2008
2042
2049
2041
2021
1987
1959
1946
1958
1977
2000
2030
2052
2063
2067
2044
2016
2015
2026
2037
2038
2031
2042
2059
2066
2023
1979
1971
1956
1952
1962
1976
2016
2047
2048
2053
2062
2032
2006
1999
1971
1960
1974
1998
2022
2027
2028
2025
2026
2037
2048
2059
2059
2052
2011
1988
2027
2063
2092
2113
2109
2083
2062
2053
2072
2080
2067
2052
2035
2034
2025
2022
2036
2042
2051
2057
2068
2082
2091
2099
2116
2125
2110
2076
2049
2044
2033
2040
2054
2052
2054
2067
2078
2072
2046
2027
2012
1999
1988
1977
1988
2000
2004
1986
1972
1989
1988
1981
2001
2006
1994
1982
1971
1972
1990
1990
1984
1980
1979
1986
1981
1952
1948
1975
1989
1985
1981
1996
2011
2028
2040
2029
2021
1995
1973
1970
1981
2001
2014
2002
1987
2007
2010
1991
1972
1967
1965
1956
1947
1968
2009
2024
2021
2015
2000
1983
1980
2017
2056
2082
2087
2094
2100
2115
2158
2194
2213
2243
2287
2348
2410
2447
2443
2419
2444
2500
2557
2588
2608
2636
2670
2704
2715
2681
2621
2509
2397
2315
2273
2235
2184
2121
2082
2051
2021
1981
1943
1958
1989
2007
1982
1949
1927
1911
1902
1896
1883
1871
1882
1916
1943
1951
1943
1933
1933
1943
1956
1952
1944
1948
1940
1910
1888
1882
1879
1881
1884
1907
1923
1923
1917
1910
1906
1908
1923
1944
1941
1933
1922
1906
1888
1885
1910
1937
1944
1942
1927
1929
1930
1934
1930
1945
1966
1957
1917
1895
1885
1890
1896
1908
1926
1924
1918
1929
1941
1932
1921
1923
1942
1942
1935
1947
1929
1885
1864
1888
1920
1942
1959
2000
2017
2005
2003
2013
2006
1989
1977
1967
1959
1976
1980
1972
1972
1997
2004
1978
1937
1947
1971
1975
1982
1978
1973
1956
1957
1985
2014
2030
2016
2001
1969
1959
1976
1994
1991
1983
1993
2021
2042
2049
2030
1999
1967
1964
1987
2008
2010
1993
1986
2014
2051
2063
2044
2021
2023
2044
2029
2010
2008
2018
2025
2019
2004
2006
2022
2049
2066
2079
2101
2095
2072
2096
2112
2095
2070
2075
2103
2108
2102
2090
2072
2069
2075
2082
2078
2073
2084
2098
2094
2093
2095
2104
2118
2136
2145
2149
2148
2159
2161
2163
2155
2155
2181
2188
2183
2161
2129
2134
2162
2189
2204
2190
2164
2151
2170
2209
2202
2181
2159
2169
2169
2183
2187
2181
2164
2152
2162
2173
2169
2151
2111
2101
2138
2163
2157
2155
2169
2182
2209
2231
2235
2223
2205
2189
2173
2157
2126
2089
2062
2063
2086
2108
2110
2099
2092
2077
2076
2112
2131
2100
2046
1991
1985
2031
2054
2065
2078
2074
2044
2025
2025
2016
2020
2028
2017
2000
1999
2006
2018
2015
1985
1944
1932
1930
1944
1967
1971
1952
1938
1962
1985
1994
1999
1987
1967
1967
1978
2001
2013
1995
1975
1949
1922
1907
1905
1925
1944
1938
1927
1924
1926
1922
1925
1931
1943
1931
1910
1892
1890
1918
1957
1961
1941
1913
1908
1908
1940
1994
2019
2002
1986
1982
1970
1958
1935
1915
1907
1910
1915
1926
1941
1937
1933
1955
1947
1916
1903
1923
1951
1964
1960
1979
1994
1994
1988
1984
1978
1973
1978
1987
1995
1988
1979
1972
1964
1966
1967
1962
1943
1927
1920
1951
2017
2048
2031
2015
2005
1999
1989
2007
1999
1976
1953
1946
1968
1961
1946
1958
1982
2000
1994
1983
1961
1952
1947
1924
1897
1930
2007
2056
2058
2056
2049
2040
2013
2002
2012
2023
2017
1997
1981
1954
1939
1952
1990
2044
2040
2012
2002
1996
2004
2013
2006
1989
1991
2010
2013
1999
1981
1953
1971
1999
2017
2019
1995
2002
2010
2016
2043
2043
2040
2033
2036
2031
2013
2002
2019
2034
2033
2022
2026
2067
2079
2060
2031
2005
2011
1994
1966
1977
2015
2056
2028
1989
2012
2059
2084
2040
1995
1965
1942
1948
1965
1994
2021
2003
1985
1977
1945
1938
1966
1989
1994
1982
1994
2007
2003
2007
2002
1995
1995
2009
2030
2032
2037
2045
2040
2021
2005
1984
1995
2038
2069
2047
2037
2051
2055
2025
2003
2014
2027
2006
1983
2003
2019
2004
1990
1995
2000
2007
1991
1966
1970
2004
2045
2054
2049
2036
2014
2013
2012
2024
2040
2033
2030
2034
2039
2046
2045
2055
2047
2026
1995
1981
1969
1961
1973
1990
1982
1998
2022
2010
1999
1989
1998
2014
2017
2014
2006
2029
2066
2063
2034
2007
1977
1974
1979
1983
1989
1988
2011
2044
2048
2047
2038
2040
2054
2074
2090
2064
2015
1983
1968
1967
2002
2046
2066
2050
2020
2000
1991
2024
2040
2000
1954
1958
1985
2010
2035
2053
2063
2054
2046
2036
2001
1968
1960
1970
1980
2003
2035
2068
2096
2106
2072
2011
1946
1924
1927
1936
1969
1998
2020
2043
2054
2051
2042
2038
2036
2035
2034
2041
2065
2071
2068
2070
2051
2030
2015
2011
2027
2048
2051
2065
2103
2113
2089
2072
2064
2065
2079
2084
2081
2079
2074
2086
2111
2128
2142
2118
2086
2053
2058
2075
2061
2064
2074
2065
2069
2070
2046
2033
2024
2034
2046
2050
2056
2058
2064
2041
2023
2012
2008
2014
2033
2033
2015
2001
1994
1984
1974
1970
1986
2022
2059
2044
2019
2014
2025
2048
2061
2043
2004
1970
1965
1996
2027
2018
1990
1979
1990
1991
1975
1969
1984
2001
2006
2004
2005
2005
1996
1985
1971
1982
1996
2020
2023
2014
1994
1968
1959
2000
2045
2039
2011
2006
2008
2027
2040
2066
2110
2143
2154
2144
2169
2175
2183
2219
2247
2285
2345
2413
2452
2467
2496
2535
2583
2609
2627
2650
2670
2672
2669
2670
2643
2579
2484
2398
2340
2293
2243
2182
2117
2080
2045
2027
2035
2035
2011
1987
2001
2006
1999
1998
2002
1991
1969
1979
2013
2037
2016
1975
1921
1890
1883
1881
1909
1941
1960
1956
1935
1910
1898
1887
1899
1941
2005
2042
2004
1947
1929
1950
1975
1989
1972
1964
1958
1954
1931
1908
1917
1931
1921
1898
1886
1900
1935
1981
1986
1960
1972
1990
1984
1981
1977
1972
1949
1934
1958
1975
1971
1991
2019
2016
1997
1952
1913
1926
1950
1944
1943
1950
1967
1982
2000
2012
2026
2030
1980
1925
1912
1947
2005
2030
1999
1969
1965
1961
1974
1983
1981
1973
1974
1991
1987
2002
2018
2009
1993
1980
1977
2004
2024
2021
2034
2052
2069
2060
2030
2004
1993
1976
1952
1943
1948
1964
1972
1975
1987
1987
1986
2009
2044
2064
2074
2062
2028
2040
2037
2052
2059
2042
2045
2059
2062
2068
2069
2090
2108
2100
2092
2075
2060
2047
2046
2078
2094
2092
2109
2127
2104
2081
2080
2105
2142
2163
2165
2157
2135
2122
2138
2149
2113
2090
2109
2106
2097
2086
2098
2120
2128
2122
2145
2179
2190
2168
2141
2136
2144
2150
2150
2147
2160
2182
2195
2204
2208
2202
2195
2193
2199
2209
2212
2219
2211
2193
2176
2173
2182
2203
2225
2233
2253
2247
2223
2194
2190
2210
2206
2177
2163
2179
2202
2215
2207
2183
2166
2176
2177
2172
2171
2172
2159
2157
2176
2179
2198
2221
2213
2187
2166
2157
2141
2107
2090
2119
2153
2151
2106
2077
2107
2142
2148
2123
2080
2054
2037
2028
2037
2055
2081
2075
2045
2020
1994
1984
1983
1986
1989
2012
2017
2001
1996
1999
1996
1984
1969
1955
1948
1947
1942
1960
1966
1955
1957
1960
1983
2007
2023
2009
1986
1977
1965
1950
1948
1953
1941
1924
1945
1967
1964
1954
1945
1941
1936
1939
1951
1953
1946
1926
1913
1950
1970
1954
1940
1942
1961
1976
2002
2011
1997
1948
1921
1928
1936
1949
1940
1938
1961
1959
1934
1929
1927
1924
1909
1910
1931
1957
1982
2002
2010
2002
1992
1968
1946
1939
1927
1905
1892
1899
1917
1941
1972
1974
1968
1962
1961
1962
1945
1928
1924
1931
1940
1959
1974
1981
1983
2003
2021
1980
1947
1960
1980
1987
1993
1989
1975
1970
1951
1945
1944
1944
1955
1949
1962
2001
2013
1977
1961
1991
2019
2017
1987
1967
1955
1934
1932
1946
1971
1991
2004
2012
2031
2063
2046
2022
2013
2003
1979
1952
1968
1989
1988
2002
2011
1983
1933
1938
1961
1981
2015
2027
2021
2009
1981
1961
1972
1970
1942
1937
1972
2003
2004
1997
2012
2035
2045
2039
2032
2002
1976
1966
1984
2016
2037
2026
2022
2029
2026
1998
1977
2000
2016
2022
2008
1980
1976
2005
2038
2040
2032
2042
2059
2066
2059
2032
2007
2008
2006
1995
2003
2000
1987
1956
1934
1955
2003
2016
2035
2065
2077
2072
2062
2059
2059
2073
2089
2121
2124
2070
2007
2000
1995
2000
2022
2018
2034
2033
2020
2023
2030
2036
2043
2048
2042
2041
2039
2030
2022
2039
2063
2089
2089
2093
2094
2093
2084
2075
2063
2056
2048
2051
2069
2071
2042
2022
2023
2062
2102
2117
2144
2157
2115
2060
2045
2069
2088
2102
2111
2117
2117
2116
2111
2116
2104
2072
2045
2030
2044
2067
2096
2101
2084
2082
2092
2072
2051
2056
2063
2055
2064
2073
2085
2112
2132
2135
2139
2145
2138
2146
2149
2167
2184
2166
2136
2115
2100
2119
2134
2146
2125
2095
2081
2073
2084
2102
2128
2148
2140
2124
2116
2122
2139
2176
2199
2196
2195
2191
2173
2158
2131
2103
2098
2108
2120
2134
2159
2177
2184
2182
2192
2211
2241
2236
2204
2180
2161
2154
2165
2177
2173
2164
2173
2181
2181
2172
2172
2163
2158
2166
2180
2202
2199
2190
2191
2206
2227
2227
2219
2211
2203
2212
2225
2222
2210
2217
2244
2237
2212
2197
2202
2215
2236
2273
2306
2308
2304
2314
2296
2282
2274
2269
2259
2253
2250
2263
2261
2249
2272
2306
2319
2299
2290
2303
2307
2296
2281
2286
2305
2301
2315
2333
2348
2348
2326
2334
2356
2364
2362
2368
2376
2403
2392
2359
2337
2337
2350
2361
2379
2406
2436
2435
2388
2358
2367
2383
2403
2430
2449
2462
2474
2453
2427
2403
2366
2350
2376
2405
2421
2424
2443
2435
2427
2434
2408
2361
2359
2379
2376
2360
2342
2337
2355
2386
2411
2423
2427
2418
2416
2411
2385
2369
2362
2364
2359
2359
2367
2379
2391
2405
2429
2446
2446
2451
2438
2419
2395
2395
2456
2535
2584
2607
2620
2637
2650
2658
2676
2694
2751
2820
2886
2955
3000
3022
3034
3047
3060
3062
3073
3078
3056
2993
2907
2807
2715
2644
2591
2548
2514
2471
2429
2393
2365
2380
2421
2425
2431
2442
2419
2386
2400
2401
2357
2309
2309
2348
2376
2383
2368
2340
2340
2353
2345
2345
2323
2303
2302
2286
2311
2361
2394
2388
2392
2397
2354
2300
2307
2335
2348
2350
2350
2347
2362
2390
2408
2422
2414
2400
2402
2394
2374
2349
2354
2368
2381
2371
2367
2390
2415
2409
2389
2371
2358
2357
2365
2382
2396
2417
2435
2441
2446
2449
2440
2440
2430
2415
2398
2396
2406
2425
2427
2421
2404
2392
2390
2387
2379
2393
2422
2435
2431
2459
2482
2462
2448
2458
2467
2461
2439
2411
2398
2398
2417
2444
2448
2442
2441
2443
2439
2433
2437
2452
2452
2440
2441
2435
2424
2415
2415
2429
2447
2472
2460
2440
2438
2468
2479
2457
2435
2432
2438
2447
2452
2468
2489
2507
2524
2535
2539
2524
2516
2503
2500
2503
2471
2450
2448
2439
2427
2424
2435
2451
2467
2490
2483
2464
2456
2470
2478
2504
2554
2562
2536
2548
2554
2534
2525
2556
2616
2623
2578
2561
2555
2533
2513
2496
2510
2547
2565
2558
2563
2572
2571
2564
2584
2610
2616
2617
2598
2578
2579
2571
2564
2587
2614
2635
2630
2606
2590
2571
2560
2565
2575
2578
2577
2571
2587
2612
2630
2633
2640
2643
2631
2619
2607
2598
2598
2612
2640
2639
2613
2590
2598
2596
2617
2648
2643
2610
2574
2555
2548
2550
2551
2558
2575
2579
2566
2533
2505
2502
2484
2467
2472
2485
2508
2509
2487
2474
2455
2441
2453
2463
2473
2472
2471
2473
2476
2433
2399
2414
2419
2395
2383
2374
2374
2387
2415
2412
2397
2387
2348
2333
2344
2345
2335
2341
2356
2348
2314
2282
2280
2294
2322
2332
2306
2292
2287
2304
2332
2331
2318
2300
2306
2334
2331
2301
2266
2248
2252
2259
2262
2251
2224
2228
2233
2253
2281
2315
2337
2320
2274
2256
2270
2279
2275
2249
2230
2234
2239
2238
2245
2252
2256
2253
2240
2233
2230
2233
2264
2291
2304
2314
2308
2300
2304
2290
2258
2249
2264
2295
2324
2310
2298
2305
2285
2257
2255
2272
2272
2250
2240
2234
2243
2248
2251
2246
2256
2268
2270
2263
2263
2246
2216
2211
2225
2253
2267
2289
2323
2312
2277
2244
2208
2186
2172
2204
2264
2322
2349
2336
2304
2270
2262
2249
2231
2221
2231
2254
2272
2288
2287
2261
2235
2222
2223
2231
2221
2221
2248
2281
2272
2259
2263
2284
2294
2264
2225
2204
2226
2259
2273
2276
2278
2249
2208
2181
2204
2224
2239
2245
2256
2285
2309
2295
2275
2275
2265
2242
2243
2257
2255
2240
2230
2246
2243
2224
2209
2206
2208
2208
2205
2220
2246
2238
2211
2225
2252
2260
2247
2244
2235
2240
2252
2259
2268
2256
2248
2254
2256
2244
2227
2221
2230
2248
2244
2233
2246
2260
2245
2203
2200
2219
2227
2215
2223
2214
2201
2200
2191
2172
2165
2147
2134
2144
2160
2181
2207
2214
2186
2142
2139
2160
2165
2198
2238
2242
2239
2270
2283
2255
2204
2165
2160
2153
2143
2140
2165
2197
2202
2192
2171
2178
2199
2216
2213
2218
2200
2182
2178
2185
2174
2148
2142
2151
2156
2183
2174
2159
2183
2201
2168
2124
2145
2202
2211
2178
2158
2166
2161
2147
2119
2108
2127
2163
2188
2171
2148
2139
2142
2129
2112
2112
2136
2143
2138
2122
2106
2096
2099
2107
2124
2138
2146
2142
2148
2174
2187
2163
2125
2121
2127
2113
2094
2083
2097
2121
2131
2143
2119
2119
2149
2162
2153
2137
2105
2062
2062
2092
2095
2079
2096
2106
2116
2140
2163
2166
2160
2121
2094
2100
2128
2152
2151
2118
2079
2064
2070
2043
2029
2040
2050
2074
2112
2126
2116
2115
2121
2129
2127
2111
2114
2139
2159
2155
2132
2115
2089
2080
2081
2068
2050
2053
2091
2116
2131
2161
2190
2198
2176
2153
2147
2148
2152
2142
2119
2107
2098
2089
2093
2112
2123
2125
2137
2140
2135
2132
2135
2144
2136
2110
2081
2055
2043
2043
2046
2056
2063
2058
2061
2080
2070
2017
1982
2007
2040
2050
2023
2001
2009
2033
2061
2073
2070
2059
2050
2029
2013
2008
1997
1996
2004
2008
2013
2002
1995
2003
2027
2022
2006
1988
1997
2022
2014
1994
1977
1979
1977
1957
1955
1952
1980
2023
2040
2026
1998
1967
1937
1933
1934
1934
1933
1951
1989
2030
2056
2048
2040
2043
2062
2083
2104
2140
2180
2211
2221
2222
2255
2283
2306
2329
2358
2376
2388
2428
2496
2532
2526
2530
2548
2563
2528
2465
2392
2317
2242
2180
2113
2055
2005
1941
1890
1848
1824
1847
1868
1886
1902
1914
1920
1909
1892
1867
1845
1825
1815
1820
1849
1866
1875
1865
1827
1779
1757
1754
1747
1748
1771
1770
1762
1779
1797
1790
1769
1741
1738
1728
1722
1723
1736
1738
1735
1748
1769
1784
1772
1763
1754
1756
1773
1796
1786
1756
1722
1686
1681
1709
1710
1718
1731
1759
1755
1725
1700
1669
1650
1657
1703
1731
1737
1733
1710
1695
1715
1733
1742
1755
1766
1760
1773
1771
1742
1735
1737
1731
1742
1750
1750
1736
1726
1720
1732
1759
1764
1751
1742
1734
1725
1709
1716
1748
1761
1752
1750
1750
1752
1756
1775
1774
1744
1714
1703
1726
1763
1774
1759
1745
1742
1760
1756
1732
1709
1709
1727
1751
1772
1768
1761
1766
1770
1753
1734
1720
1722
1751
1787
1803
1814
1828
1811
1793
1821
1842
1817
1775
1741
1733
1730
1745
1777
1809
1827
1847
1864
1874
1865
1833
1802
1791
1807
1825
1837
1818
1788
1769
1775
1798
1829
1842
1859
1855
1846
1844
1846
1825
1808
1828
1834
1844
1855
1847
1846
1864
1880
1892
1903
1902
1890
1880
1877
1891
1913
1929
1911
1879
1862
1874
1889
1888
1887
1884
1878
1881
1908
1947
1972
1957
1936
1911
1897
1910
1906
1858
1823
1850
1901
1927
1934
1941
1929
1906
1887
1865
1886
1923
1946
1958
1964
1954
1934
1928
1933
1943
1953
1946
1916
1876
1835
1824
1848
1878
1886
1866
1820
1813
1845
1850
1828
1803
1801
1834
1858
1847
1817
1784
1766
1766
1789
1799
1790
1787
1777
1763
1759
1742
1736
1748
1743
1724
1723
1729
1717
1700
1688
1676
1691
1710
1727
1735
1718
1707
1707
1718
1712
1699
1668
1643
1633
1650
1668
1701
1720
1705
1715
1755
1746
1687
1634
1644
1665
1672
1687
1676
1676
1702
1725
1703
1689
1691
1683
1667
1662
1665
1670
1677
1671
1657
1650
1667
1705
1725
1714
1689
1686
1685
1664
1668
1699
1706
1705
1709
1695
1689
1681
1667
1656
1654
1676
1686
1689
1707
1736
1748
1726
1723
1742
1744
1723
1679
1657
1671
1719
1743
1743
1739
1728
1714
1713
1703
1706
1758
1788
1782
1806
1810
1792
1770
1751
1775
1789
1765
1738
1716
1720
1738
1753
1768
1784
1784
1767
1747
1757
1771
1788
1809
1815
1799
1775
1754
1753
1762
1763
1750
1739
1753
1776
1806
1832
1843
1823
1796
1798
1808
1812
1815
1813
1808
1808
1811
1805
1784
1778
1800
1815
1827
1834
1844
1843
1856
1854
1834
1802
1776
1786
1814
1825
1818
1820
1830
1829
1801
1765
1744
1740
1773
1801
1828
1858
1871
1842
1824
1837
1851
1849
1864
1874
1866
1850
1862
1845
1817
1816
1824
1827
1833
1850
1878
1898
1880
1853
1838
1826
1832
1840
1843
1859
1844
1839
1839
1845
1856
1847
1827
1819
1836
1839
1851
1868
1876
1888
1905
1906
1883
1868
1898
1910
1893
1877
1871
1874
1886
1891
1901
1928
1934
1917
1887
1888
1903
1887
1854
1837
1851
1868
1885
1886
1874
1854
1865
1893
1918
1931
1939
1935
1912
1889
1886
1879
1871
1896
1912
1894
1896
1901
1891
1917
1937
1930
1916
1892
1885
1884
1887
1898
1918
1951
1966
1952
1936
1933
1907
1878
1874
1881
1877
1887
1908
1917
1924
1937
1939
1915
1898
1916
1941
1962
1950
1932
1915
1919
1923
1914
1893
1880
1917
1976
2008
2014
2003
1981
1940
1920
1929
1928
1950
1978
1964
1966
1979
1974
1963
1963
1964
1941
1906
1919
1960
1992
1991
1970
1939
1933
1953
1948
1919
1901
1894
1893
1923
1931
1928
1947
1966
1988
1999
2014
2015
1996
1985
2002
2026
2013
2000
1999
2000
2001
2002
1979
1925
1897
1909
1936
1973
1995
2003
1987
1963
1956
1960
1976
1986
1990
2011
2034
2042
2029
2018
2015
2007
2000
2024
2044
2068
2087
2058
2034
2038
2054
2071
2081
2077
2055
2036
2043
2073
2093
2075
2062
2072
2063
2077
2099
2091
2072
2063
2072
2065
2062
2045
2028
2023
2026
2020
2008
2021
2036
2036
2025
2018
2029
2027
2025
2032
2045
2049
2034
2018
2026
2051
2067
2057
2030
2000
1992
1995
1997
2011
2028
2046
2049
2027
1995
1979
1972
1963
1975
1988
1993
1989
2001
1999
2001
2010
2030
2024
2026
2050
2067
2059
2057
2044
2014
2010
2002
1995
1993
2001
2025
2043
2035
2034
2020
1995
1989
1985
1984
1986
1985
1995
2031
2064
2077
2104
2124
2129
2153
2186
2222
2259
2272
2263
2241
2242
2268
2302
2346
2404
2450
2477
2502
2522
2542
2596
2649
2694
2737
2758
2730
2706
2671
2606
2517
2432
2348
2285
2250
2228
2204
2177
2147
2108
2085
2080
2076
2064
2065
2072
2073
2068
2057
2049
2035
2025
2019
2031
2022
2028
2049
2068
2090
2090
2083
2083
2062
2029
2013
2018
2024
2016
2034
2040
2021
2028
2062
2079
2063
2051
2051
2059
2065
2061
2081
2080
2052
2043
2043
2044
2067
2069
2062
2055
2063
2084
2071
2061
2053
2045
2071
2101
2124
2125
2118
2106
2091
2088
2104
2139
2158
2129
2104
2080
2064
2083
2073
2088
2101
2068
2057
2085
2155
2221
2222
2190
2156
2134
2118
2107
2085
2078
2101
2109
2112
2116
2108
2092
2108
2147
2179
2194
2191
2163
2127
2101
2097
2109
2135
2169
2190
2191
2193
2184
2179
2181
2178
2185
2187
2185
2195
2180
2168
2189
2183
2157
2142
2132
2144
2188
2207
2183
2145
2147
2167
2177
2189
2194
2177
2170
2185
2203
2214
2227
2231
2247
2259
2242
2209
2174
2160
2183
2228
2256
2265
2262
2249
2238
2224
2215
2225
2243
2259
2271
2271
2251
2214
2204
2231
2257
2268
2283
2298
2297
2268
2259
2278
2281
2262
2268
2293
2306
2298
2285
2266
2252
2244
2271
2322
2336
2337
2345
2354
2355
2342
2342
2339
2341
2360
2350
2347
2347
2334
2326
2323
2335
2365
2400
2413
2392
2355
2361
2381
2359
2325
2311
2324
2353
2368
2367
2334
2311
2287
2274
2315
2347
2335
2314
2298
2303
2333
2371
2388
2389
2389
2385
2368
2347
2346
2331
2304
2272
2248
2240
2234
2227
2214
2209
2203
2202
2204
2210
2198
2183
2168
2169
2177
2171
2150
2143
2172
2191
2185
2178
2173
2183
2192
2188
2183
2143
2113
2100
2085
2096
2122
2111
2097
2088
2104
2134
2165
2172
2143
2103
2067
2061
2070
2063
2065
2063
2044
2041
2044
2027
1998
2004
2022
2022
1995
1972
1977
1985
1994
2023
2049
2048
2047
2059
2068
2084
2119
2115
2111
2120
2102
2070
2043
2034
2040
2044
2051
2048
2057
2055
2049
2050
2044
2024
2013
1988
1974
1996
2027
2059
2081
2084
2074
2048
2027
2028
2043
2057
2073
2083
2065
2048
2038
2047
2054
2048
2037
2009
1978
1987
2039
2079
2078
2057
2041
2031
2038
2045
2065
2078
2060
2039
2033
2032
2027
2015
2001
1984
1970
1975
2007
2029
2046
2052
2057
2064
2059
2069
2098
2135
2137
2110
2076
2046
2019
2019
2023
2031
2056
2075
2065
2060
2072
2094
2119
2125
2096
2053
2042
2072
2079
2069
2065
2063
2070
2078
2072
2075
2081
2070
2047
2020
2024
2040
2045
2040
2050
2058
2047
2033
2038
2039
2028
2046
2096
2104
2071
2040
2013
1996
2023
2057
2039
2016
2029
2039
2020
2004
2018
2018
2001
1982
1967
1965
1976
1981
2000
2027
2031
2019
2019
2036
2067
2077
2063
2059
2053
2045
2063
2058
2041
2016
2017
2044
2054
2039
2048
2031
2012
1994
1974
1975
1982
1981
2002
2032
2074
2075
2060
2060
2067
2055
2023
2002
2015
2022
2003
1993
1996
2019
2008
1969
1964
1984
1994
1969
1952
1959
1973
1987
1992
1982
1985
1998
1995
1976
1963
1964
2002
2039
2011
1979
1984
1996
2010
2019
1999
1981
1989
2009
2009
1996
1988
1971
1966
1973
1983
1993
1976
1960
1959
1951
1949
1949
1943
1941
1953
1961
1955
1952
1944
1941
1944
1954
1945
1934
1944
1966
2001
2000
1969
1956
1976
1991
2008
2013
1986
1951
1934
1918
1895
1907
1914
1919
1941
1967
2004
2017
1995
1978
1943
1912
1882
1862
1869
1891
1920
1942
1937
1908
1898
1899
1894
1900
1913
1921
1925
1914
1886
1887
1902
1897
1885
1875
1873
1879
1896
1922
1921
1911
1924
1931
1922
1925
1916
1908
1900
1895
1900
1915
1921
1902
1884
1891
1904
1904
1891
1894
1901
1914
1914
1910
1902
1878
1850
1846
1847
1858
1860
1875
1899
1933
1954
1953
1927
1894
1865
1850
1849
1858
1867
1887
1897
1895
1891
1883
1872
1846
1832
1839
1830
1837
1864
1878
1875
1864
1856
1854
1859
1842
1809
1800
1823
1848
1862
1870
1896
1913
1918
1891
1847
1842
1861
1869
1852
1836
1832
1847
1858
1856
1855
1841
1836
1849
1873
1902
1913
1928
1925
1902
1874
1859
1845
1836
1849
1862
1846
1854
1868
1866
1866
1874
1870
1884
1922
1940
1910
1879
1857
1884
1901
1884
1873
1849
1836
1851
1885
1893
1879
1863
1844
1830
1807
1787
1776
1773
1779
1792
1813
1815
1823
1813
1801
1790
1793
1796
1807
1831
1831
1793
1769
1748
1725
1726
1736
1720
1745
1779
1803
1807
1794
1787
1788
1778
1770
1750
1730
1720
1730
1743
1747
1748
1726
1715
1746
1781
1789
1783
1775
1795
1796
1781
1751
1717
1706
1726
1769
1795
1781
1764
1755
1752
1786
1825
1832
1815
1823
1854
1876
1904
1926
1948
1972
1995
2025
2047
2086
2124
2160
2209
2265
2307
2320
2328
2334
2359
2386
2406
2422
2416
2375
2297
2203
2109
2019
1946
1897
1858
1828
1800
1773
1784
1791
1782
1780
1804
1816
1803
1784
1764
1748
1739
1715
1686
1671
1695
1716
1716
1715
1706
1693
1689
1667
1636
1634
1664
1689
1699
1697
1684
1665
1647
1638
1618
1613
1642
1705
1764
1765
1730
1703
1686
1669
1644
1641
1669
1678
1662
1667
1699
1717
1716
1710
1700
1670
1644
1631
1638
1662
1679
1687
1684
1687
1687
1685
1689
1706
1710
1710
1725
1729
1726
1719
1688
1657
1659
1664
1686
1730
1768
1763
1749
1730
1696
1692
1722
1737
1722
1702
1697
1693
1677
1661
1672
1685
1704
1731
1744
1726
1703
1702
1709
1721
1737
1751
1772
1784
1779
1759
1733
1717
1726
1733
1753
1771
1775
1779
1772
1734
1701
1698
1729
1772
1794
1798
1808
1798
1782
1770
1771
1760
1730
1725
1758
1774
1768
1762
1749
1743
1773
1795
1787
1788
1796
1788
1789
1813
1830
1838
1835
1805
1790
1780
1772
1780
1784
1787
1810
1827
1826
1832
1824
1802
1818
1848
1845
1821
1804
1824
1835
1846
1870
1891
1908
1922
1930
1908
1863
1848
1860
1876
1883
1871
1844
1827
1824
1855
1908
1929
1908
1891
1881
1875
1872
1875
1901
1916
1928
1952
1955
1934
1925
1938
1959
1969
1966
1944
1941
1942
1938
1933
1916
1919
1926
1932
1947
1962
1960
1943
1924
1920
1910
1902
1893
1872
1844
1820
1821
1846
1878
1901
1923
1948
1963
1968
1960
1932
1902
1896
1897
1900
1906
1920
1892
1853
1844
1842
1831
1799
1778
1774
1784
1798
1817
1824
1812
1786
1762
1752
1750
1760
1765
1779
1787
1787
1783
1798
1795
1766
1746
1743
1758
1780
1774
1757
1739
1727
1711
1716
1724
1723
1706
1674
1665
1664
1667
1678
1689
1681
1661
1671
1685
1672
1659
1660
1667
1671
1675
1663
1652
1646
1641
1655
1684
1699
1706
1696
1683
1661
1633
1637
1650
1682
1712
1716
1716
1702
1653
1617
1627
1626
1625
1646
1669
1694
1725
1713
1694
1683
1677
1674
1658
1657
1681
1707
1740
1737
1717
1686
1658
1630
1630
1656
1680
1708
1722
1713
1700
1702
1713
1701
1691
1698
1691
1686
1685
1700
1726
1735
1726
1702
1692
1698
1711
1728
1711
1681
1675
1721
1745
1729
1697
1672
1657
1668
1687
1689
1687
1696
1710
1720
1721
1716
1730
1752
1756
1728
1693
1688
1686
1704
1729
1744
1760
1772
1768
1768
1757
1763
1776
1781
1772
1751
1752
1756
1742
1738
1749
1755
1752
1737
1728
1737
1746
1755
1766
1772
1766
1752
1725
1705
1675
1686
1724
1745
1748
1751
1762
1779
1776
1763
1756
1758
1774
1796
1787
1752
1721
1707
1698
1724
1751
1755
1749
1751
1764
1764
1752
1743
1733
1709
1698
1696
1693
1715
1725
1709
1700
1720
1744
1734
1725
1762
1800
1803
1794
1795
1798
1798
1820
1825
1815
1786
1748
1732
1725
1740
1753
1758
1747
1726
1727
1738
1742
1748
1756
1743
1728
1733
1750
1753
1752
1753
1758
1773
1764
1739
1740
1761
1778
1784
1775
1762
1767
1800
1821
1805
1787
1766
1753
1735
1729
1735
1759
1765
1772
1782
1789
1777
1758
1758
1761
1782
1813
1818
1801
1770
1760
1768
1754
1756
1777
1801
1805
1821
1842
1828
1812
1803
1782
1764
1774
1782
1775
1773
1778
1782
1788
1804
1799
1774
1748
1735
1746
1783
1813
1820
1835
1840
1825
1803
1794
1801
1800
1791
1778
1771
1781
1775
1760
1776
1812
1840
1841
1850
1865
1859
1834
1806
1810
1833
1824
1813
1794
1769
1748
1767
1789
1782
1771
1760
1757
1785
1827
1850
1842
1836
1821
1815
1841
1836
1826
1830
1827
1826
1810
1794
1822
1860
1863
1840
1818
1835
1867
1855
1843
1831
1820
1798
1793
1816
1841
1840
1862
1875
1843
1795
1780
1804
1819
1829
1846
1850
1840
1823
1820
1821
1829
1840
1856
1840
1816
1809
1817
1847
1854
1841
1811
1823
1869
1902
1893
1853
1823
1821
1813
1809
1832
1872
1901
1897
1891
1873
1872
1853
1804
1773
1788
1838
1867
1857
1839
1822
1828
1849
1864
1872
1867
1853
1836
1835
1860
1876
1873
1859
1846
1841
1834
1849
1891
1917
1936
1915
1881
1864
1866
1879
1882
1892
1900
1893
1865
1858
1890
1909
1915
1927
1919
1884
1857
1849
1850
1876
1937
1989
2005
1984
1942
1898
1899
1938
1972
1988
1985
1972
1952
1953
1958
1983
2023
2025
1997
1974
1951
1928
1917
1932
1947
1963
1967
1973
1976
1965
1934
1902
1891
1900
1920
1929
1914
1907
1914
1941
1942
1919
1882
1864
1882
1907
1918
1923
1908
1895
1888
1880
1882
1902
1913
1909
1899
1875
1864
1856
1849
1875
1887
1893
1899
1878
1860
1870
1905
1933
1923
1884
1857
1888
1943
1963
1934
1913
1893
1861
1821
1812
1850
1901
1928
1913
1902
1879
1877
1898
1922
1918
1904
1893
1888
1902
1911
1932
1961
1959
1933
1940
1989
2024
2054
2061
2064
2075
2079
2072
2104
2142
2172
2197
2245
2316
2381
2426
2471
2508
2530
2526
2516
2507
2500
2522
2547
2526
2467
2396
2327
2236
2151
2110
2067
2032
1994
1961
1949
1959
1969
1969
1944
1916
1909
1911
1913
1888
1845
1824
1839
1848
1854
1870
1883
1909
1916
1894
1872
1881
1898
1898
1893
1892
1876
1865
1849
1846
1844
1854
1877
1897
1902
1896
1878
1868
1858
1829
1799
1804
1841
1893
1920
1918
1893
1865
1874
1910
1920
1899
1868
1844
1808
1789
1817
1870
1903
1935
1955
1945
1949
1958
1924
1877
1867
1850
1825
1828
1850
1877
1897
1924
1930
1946
1961
1953
1948
1935
1922
1925
1955
1977
1956
1925
1903
1904
1919
1929
1939
1931
1922
1913
1899
1886
1874
1872
1895
1931
1957
1981
2002
2009
1995
1980
1958
1946
1943
1937
1948
1952
1939
1939
1943
1951
1952
1955
1981
2013
2028
2022
2002
1991
1987
1981
1979
1950
1943
1955
1964
1966
1967
1975
1988
1987
1996
1999
2008
2007
1996
1980
1986
2015
2039
2038
2037
2042
2041
2063
2073
2062
2042
2038
2030
2024
2039
2042
2033
2027
2031
2056
2088
2118
2136
2127
2102
2074
2059
2057
2065
2068
2077
2071
2076
2096
2110
2091
2090
2103
2107
2083
2072
2083
2077
2081
2104
2140
2185
2204
2199
2192
2182
2171
2168
2168
2147
2131
2126
2144
2169
2173
2171
2175
2160
2147
2175
2197
2169
2147
2160
2166
2157
2148
2166
2205
2233
2217
2191
2176
2181
2184
2188
2194
2188
2187
2202
2197
2158
2129
2109
2095
2105
2126
2132
2151
2162
2162
2150
2134
2118
2119
2138
2166
2161
2131
2101
2074
2052
2032
2027
2037
2054
2058
2045
2024
2005
2002
2010
2004
1995
2007
2012
2016
2018
1994
1958
1921
1916
1945
1969
1964
1950
1934
1930
1942
1964
1991
1983
1966
1946
1916
1887
1896
1924
1914
1908
1909
1922
1926
1932
1929
1907
1886
1872
1867
1883
1920
1949
1948
1933
1918
1915
1911
1912
1920
1936
1924
1915
1933
1935
1931
1944
1943
1933
1927
1915
1909
1929
1936
1933
1934
1913
1888
1890
1901
1891
1889
1913
1919
1921
1905
1901
1908
1917
1928
1936
1928
1933
1928
1917
1902
1891
1892
1891
1902
1915
1924
1947
1975
1971
1942
1921
1928
1941
1936
1924
1915
1912
1907
1890
1900
1913
1927
1904
1891
1903
1908
1907
1929
1942
1971
1973
1950
1927
1906
1880
1862
1865
1885
1887
1894
1912
1945
1966
1943
1921
1925
1939
1934
1915
1906
1908
1907
1901
1905
1925
1917
1915
1957
1985
1971
1948
1933
1937
1950
1978
1991
1998
1999
1982
1976
1979
1976
1988
1997
1978
1955
1954
1968
1971
1970
1975
1959
1941
1942
1959
1987
1989
1977
1988
1987
1984
2001
1997
1990
1993
2008
1998
1985
1980
1972
1953
1942
1975
2008
2045
2058
2047
2037
2016
2000
1983
1952
1951
1980
1993
1991
1989
1992
1993
1993
1986
1962
1980
2020
2006
1948
1907
1913
1937
1993
2051
2034
2004
2018
2023
2006
1989
2003
2028
2048
2052
2043
2029
2019
1991
1968
1947
1950
1974
2000
2024
2032
2034
2051
2054
2056
2063
2062
2037
1999
1986
1997
2026
2049
2044
2041
2032
2030
2030
2009
2000
2011
2020
2012
2012
2025
2035
2037
2039
2051
2057
2069
2076
2067
2067
2063
2054
2027
1997
1983
1959
1966
2004
2028
2050
2084
2113
2127
2132
2115
2068
2019
2005
2006
1994
1987
2008
2048
2086
2093
2090
2071
2041
2026
2024
2019
2038
2045
2038
2046
2067
2068
2052
2053
2076
2088
2079
2072
2077
2074
2068
2055
2060
2067
2069
2087
2086
2059
2051
2064
2057
2049
2058
2055
2040
2010
1995
1994
2017
2069
2105
2105
2079
2044
2004
1984
1983
1995
2044
2089
2079
2061
2081
2109
2099
2076
2059
2067
2083
2084
2061
2048
2050
2057
2071
2082
2089
2086
2073
2057
2039
2036
2041
2053
2065
2053
2047
2063
2072
2075
2077
2089
2110
2099
2067
2065
2087
2115
2123
2112
2089
2085
2085
2086
2069
2049
2050
2059
2061
2056
2046
2040
2040
2026
2006
2024
2057
2085
2074
2057
2057
2073
2091
2091
2079
2073
2064
2081
2087
2092
2104
2100
2093
2082
2055
2040
2048
2050
2044
2087
2122
2123
2126
2130
2122
2097
2084
2083
2081
2064
2078
2120
2137
2110
2088
2091
2090
2078
2064
2071
2087
2103
2120
2142
2161
2135
2092
2059
2076
2109
2139
2173
2165
2155
2150
2151
2177
2182
2165
2133
2144
2162
2180
2185
2172
2152
2146
2148
2169
2170
2181
2203
2216
2223
2207
2182
2152
2128
2135
2158
2182
2183
2176
2169
2171
2162
2153
2156
2162
2160
2166
2191
2183
2166
2150
2143
2157
2192
2225
2209
2143
2110
2096
2070
2077
2105
2110
2086
2069
2065
2062
2066
2101
2107
2100
2082
2071
2073
2099
2118
2098
2086
2097
2071
2050
2053
2069
2085
2075
2072
2103
2147
2153
2113
2090
2082
2074
2074
2079
2094
2105
2101
2090
2104
2112
2094
2081
2080
2096
2117
2134
2120
2086
2086
2094
2100
2111
2093
2076
2084
2123
2180
2227
2215
2205
2234
2276
2296
2285
2283
2304
2340
2401
2454
2498
2532
2568
2623
2682
2748
2768
2758
2753
2747
2758
2740
2692
2668
2608
2507
2418
2337
2279
2238
2201
2156
2118
2091
2095
2121
2141
2143
2156
2151
2122
2084
2060
2064
2052
2044
2045
2021
2009
2013
2028
2055
2081
2084
2082
2060
2025
1994
1995
2018
2033
2070
2109
2119
2104
2077
2053
2021
2002
2032
2055
2063
2065
2064
2065
2063
2051
2023
2013
2040
2040
2027
2016
2014
2011
1992
2006
2029
2048
2067
2079
2070
2063
2067
2083
2093
2074
2048
2018
1989
2008
2062
2093
2124
2128
2114
2108
2108
2110
2093
2072
2069
2077
2085
2092
2112
2109
2073
2051
2046
2072
2108
2131
2130
2116
2119
2127
2101
2059
2045
2044
2046
2068
2103
2106
2088
2071
2078
2098
2111
2106
2086
2074
2096
2122
2144
2148
2122
2074
2049
2068
2105
2136
2151
2132
2103
2094
2095
2127
2164
2176
2156
2119
2109
2128
2137
2133
2136
2138
2139
2134
2145
2167
2165
2163
2165
2182
2182
2160
2130
2122
2137
2133
2147
2135
2125
2137
2153
2173
2189
2203
2200
2181
2188
2204
2205
2204
2195
2182
2180
2187
2186
2190
2196
2222
2244
2216
2177
2165
2176
2176
2172
2199
2201
2193
2215
2242
2244
2251
2265
2274
2264
2257
2240
2215
2213
2233
2253
2279
2315
2344
2356
2327
2285
2265
2253
2259
2277
2300
2290
2253
2231
2238
2276
2293
2283
2273
2264
2241
2214
2222
2242
2263
2300
2301
2249
2235
2265
2270
2262
2270
2267
2267
2250
2235
2219
2215
2214
2215
2202
2173
2173
2201
2243
2245
2199
2170
2173
2191
2183
2172
2158
2141
2118
2124
2154
2175
2156
2127
2111
2107
2092
2090
2105
2102
2088
2088
2090
2100
2110
2078
2063
2059
2045
2033
2029
2003
1989
2018
2039
2036
2028
2035
2036
2036
2051
2041
2027
2024
2035
2037
2031
2024
2035
2038
2023
2000
1991
2008
2028
2048
2059
2049
2049
2031
1996
1994
2021
2054
2032
1982
1969
1993
2003
1994
1969
1988
2024
2028
2017
2010
1997
1995
2023
2057
2050
2028
2013
2019
2034
2038
2032
2023
2005
1987
1992
2010
2035
2048
2050
2050
2070
2068
2055
2042
2038
2063
2077
2075
2042
2023
2022
2040
2063
2086
2094
2078
2043
2036
2043
2049
2048
2048
2043
2032
2027
2022
2035
2051
2063
2067
2084
2105
2110
2077
2074
2078
2058
2040
2051
2057
2037
2029
2044
2038
2039
2041
2043
2071
2092
2098
2090
2086
2089
2098
2092
2062
2043
2065
2082
2084
2084
2102
2102
2094
2081
2073
2089
2101
2098
2089
2105
2121
2117
2097
2059
2018
2015
2022
2049
2068
2060
2037
2030
2025
2024
2049
2081
2096
2112
2115
2109
2093
2060
2022
2005
2035
2062
2060
2045
2028
2018
2027
2050
2080
2086
2084
2082
2074
2071
2071
2056
2052
2062
2076
2067
2080
2093
2084
2063
2039
2031
2036
2061
2083
2085
2098
2121
2103
2069
2043
2030
2027
2040
2064
2085
2115
2121
2110
2083
2050
2016
2019
2027
2030
2032
2054
2081
2096
2096
2093
2094
2083
2091
2093
2082
2061
2065
2094
2112
2117
2116
2115
2100
2081
2063
2055
2041
2053
2074
2096
2080
2063
2059
2074
2099
2102
2093
2084
2074
2091
2109
2116
2116
2099
2077
2070
2074
2058
2068
2081
2065
2034
2020
2020
2031
2068
2127
2140
2113
2087
2102
2122
2122
2105
2083
2088
2105
2102
2098
2108
2120
2123
2115
2099
2099
2122
2148
2121
2092
2068
2080
2113
2121
2108
2104
2114
2127
2138
2149
2153
2156
2145
2112
2070
2060
2061
2068
2089
2106
2103
2127
2177
2205
2179
2141
2124
2099
2082
2071
2080
2102
2108
2107
2103
2099
2120
2142
2115
2085
2106
2122
2134
2132
2133
2151
2153
2131
2101
2092
2092
2103
2119
2122
2138
2155
2139
2127
2139
2136
2102
2054
2053
2097
2148
2149
2138
2121
2089
2045
2022
2053
2110
2175
2203
2199
2180
2166
2162
2155
2149
2136
2107
2086
2107
2127
2151
2148
2138
2142
2137
2130
2145
2149
2126
2107
2114
2136
2166
2207
2243
2265
2250
2211
2175
2190
2216
2194
2154
2137
2157
2167
2165
2152
2154
2152
2145
2150
2157
2163
2158
2137
2124
2130
2143
2171
2185
2194
2201
2197
2194
2177
2148
2138
2134
2138
2137
2137
2135
2131
2137
2155
2156
2133
2095
2076
2059
2053
2072
2122
2170
2214
2246
2234
2179
2123
2082
2049
2030
2036
2036
2025
2027
2023
2033
2072
2078
2066
2058
2064
2076
2099
2124
2129
2103
2077
2075
2071
2077
2097
2127
2126
2103
2076
2054
2038
2017
2030
2059
2073
2083
2105
2109
2099
2095
2100
2098
2082
2066
2068
2081
2110
2159
2182
2196
2220
2228
2245
2282
2335
2374
2397
2412
2420
2432
2454
2508
2561
2588
2614
2638
2672
2707
2735
2724
2690
2665
2637
2603
2556
2490
2385
2291
2226
2177
2146
2134
2127
2110
2097
2056
2016
2033
2065
2077
2094
2103
2088
2058
2030
2007
1992
1992
1991
1993
1992
2006
2025
2030
2030
2017
1999
2002
2005
2011
2023
2010
2003
2022
2022
2008
1997
2006
2025
2045
2044
2022
1991
1976
1977
1982
1965
1953
1981
2026
2040
2034
2028
2041
2058
2059
2055
2048
2029
1997
1981
1976
1989
2026
2092
2141
2107
2067
2048
2031
2038
2053
2063
2060
2056
2038
2001
1981
1991
2021
2052
2056
2040
2022
2016
2013
2019
2043
2072
2064
2055
2060
2052
2063
2071
2078
2066
2062
2046
2035
2037
2035
2041
2068
2093
2071
2052
2050
2046
2036
2028
2032
2040
2061
2082
2084
2061
2028
2023
2040
2062
2056
2041
2057
2072
2079
2080
2071
2040
2016
2018
2031
2035
2048
2062
2062
2066
2076
2086
2079
2064
2045
2026
2017
2020
2037
2052
2078
2125
2164
2159
2131
2092
2074
2091
2116
2122
2127
2162
2193
2184
2152
2118
2082
2070
2083
2097
2095
2090
2107
2131
2163
2171
2149
2153
2130
2108
2114
2130
2148
2156
2170
2193
2215
2198
2181
2183
2183
2178
2194
2211
2199
2179
2182
2187
2180
2180
2190
2203
2199
2198
2216
2231
2242
2263
2274
2293
2298
2279
2263
2244
2197
2155
2150
2159
2172
2192
2229
2264
2255
2235
2214
2197
2210
2234
2232
2222
2230
2256
2280
2296
2303
2289
2251
2229
2226
2222
2220
2223
2230
2228
2205
2178
2187
2225
2227
2207
2181
2162
2125
2122
2120
2093
2077
2082
2087
2100
2109
2128
2140
2131
2123
2107
2077
2061
2059
2076
2091
2079
2083
2101
2097
2058
2023
2033
2041
2041
2037
2012
2008
2017
2027
2019
1985
1957
1974
2000
2020
2032
2040
2046
2033
2013
2006
2035
2054
2074
2046
1993
1970
1976
1980
1984
1973
1946
1951
1978
2008
2016
2013
1991
1965
1963
1964
1960
1988
2050
2097
2104
2097
2086
2049
2022
2010
2019
2042
2035
2003
1989
2009
2035
2052
2046
2020
2003
2019
2047
2039
2014
1990
1986
2003
2012
2020
2046
2071
2062
2057
2075
2091
2069
2024
2008
2030
2055
2058
2057
2047
2055
2067
2056
2060
2065
2067
2091
2137
2165
2140
2105
2081
2057
2052
2071
2098
2102
2104
2116
2126
2121
2124
2132
2145
2129
2069
2042
2059
2067
2083
2120
2136
2140
2144
2151
2134
2115
2106
2103
2098
2086
2080
2080
2087
2097
2112
2134
2143
2154
2138
2093
2069
2071
2081
2111
2143
2154
2172
2184
2177
2155
2145
2145
2145
2130
2122
2118
2101
2096
2103
2106
2102
2095
2107
2133
2150
2159
2164
2156
2126
2136
2165
2132
2092
2086
2101
2131
2185
2213
2245
2255
2238
2202
2166
2148
2145
2136
2133
2113
2096
2086
2091
2124
2171
2196
2191
2175
2165
2181
2196
2182
2159
2144
2153
2172
2171
2145
2127
2140
2155
2155
2121
2107
2122
2134
2160
2162
2174
2166
2139
2115
2096
2100
2098
2116
2148
2151
2162
2175
2176
2178
2176
2166
2154
2129
2095
2064
2056
2075
2104
2112
2136
2164
2172
2180
2190
2198
2168
2148
2151
2157
2134
2087
2064
2082
2117
2143
2124
2069
2061
2093
2116
2104
2081
2092
2117
2097
2083
2106
2143
2168
2164
2157
2154
2143
2132
2130
2111
2092
2119
2151
2165
2150
2118
2090
2096
2122
2148
2136
2106
2116
2143
2163
2159
2158
2170
2165
2151
2115
2087
2092
2119
2135
2143
2137
2126
2129
2154
2153
2129
2133
2150
2135
2115
2117
2119
2134
2163
2189
2183
2165
2130
2082
2064
2095
2123
2133
2123
2123
2130
2152
2155
2133
2133
2156
2172
2187
2182
2161
2151
2138
2136
2156
2163
2177
2193
2189
2176
2156
2119
2095
2132
2189
2220
2212
2197
2194
2196
2187
2169
2157
2175
2200
2186
2145
2116
2116
2129
2129
2125
2112
2102
2110
2123
2117
2099
2085
2100
2106
2112
2126
2118
2104
2094
2110
2105
2088
2089
2091
2095
2088
2073
2069
2069
2050
2033
2052
2060
2064
2077
2101
2124
2116
2111
2102
2075
2054
2067
2085
2094
2091
2074
2046
2025
2047
2085
2110
2128
2133
2126
2111
2100
2077
2080
2113
2113
2084
2049
2042
2058
2070
2064
2079
2098
2114
2149
2189
2211
2234
2260
2254
2203
2181
2191
2232
2287
2345
2394
2426
2465
2510
2557
2580
2608
2626
2638
2639
2653
2691
2710
2719
2716
2680
2614
2517
2404
2314
2254
2213
2183
2162
2156
2149
2136
2127
2096
2057
2045
2054
2067
2055
2045
2056
2056
2045
2018
2004
2019
2041
2054
2049
2034
2026
2024
2028
2041
2051
2056
2047
2031
2024
2018
2007
2003
2017
2040
2054
2050
2033
1991
1963
1971
1977
1986
1994
2010
2027
2046
2068
2067
2063
2067
2069
2065
2035
2010
2000
1995
1989
1992
1994
2024
2049
2037
2019
2002
1989
1996
1995
2009
2036
2035
2025
2014
2025
2036
2049
2067
2067
2051
2042
2045
2045
2044
2029
2010
2015
2058
2080
2065
2056
2072
2077
2040
2016
2024
2032
2031
2022
2015
2038
2042
2043
2058
2056
2035
2024
2031
2043
2060
2060
2047
2036
2039
2054
2060
2071
2075
2058
2040
2036
2056
2065
2053
2046
2042
2029
2016
2003
2004
2042
2083
2084
2067
2080
2085
2067
2051
2068
2093
2101
2094
2080
2067
2082
2093
2100
2092
2090
2085
2054
2045
2046
2066
2103
2149
2183
2154
2114
2090
2065
2046
2028
2021
2048
2075
2081
2092
2103
2096
2089
2084
2079
2086
2104
2138
2170
2186
2182
2168
2132
2098
2129
2193
2232
2213
2185
2174
2164
2155
2156
2166
2178
2176
2163
2162
2168
2160
2153
2144
2134
2114
2116
2123
2138
2150
2141
2147
2165
2147
2125
2115
2139
2168
2140
2088
2086
2113
2137
2176
2191
2172
2166
2168
2157
2156
2151
2134
2125
2122
2117
2130
2129
2136
2159
2128
2058
2026
2045
2074
2080
2068
2050
2042
2047
2042
2002
1952
1932
1953
1995
2040
2063
2067
2070
2066
2044
2020
1994
1972
1970
1969
1975
1977
1967
1965
1960
1950
1942
1942
1931
1924
1931
1950
1945
1915
1908
1926
1948
1949
1950
1928
1898
1871
1856
1866
1891
1922
1925
1908
1885
1861
1850
1869
1915
1950
1952
1939
1918
1891
1878
1895
1927
1935
1918
1904
1916
1941
1933
1918
1920
1948
1958
1960
1937
1892
1877
1902
1945
1971
1963
1927
1897
1906
1908
1903
1907
1902
1904
1909
1904
1901
1922
1945
1959
1940
1938
1952
1955
1957
1973
1974
1953
1921
1923
1947
1944
1935
1945
1960
1978
1989
1988
1991
2003
2018
2016
1986
1964
1981
1994
1997
2019
2038
2015
2003
1985
1963
1972
1985
1981
1988
2012
2037
2058
2055
2028
2028
2034
2048
2075
2085
2060
2036
2053
2050
2035
2035
2037
2043
2030
2013
2024
2054
2094
2130
2132
2108
2096
2082
2057
2047
2057
2076
2088
2087
2102
2123
2135
2128
2116
2109
2091
2075
2077
2084
2094
2122
2126
2104
2073
2079
2102
2132
2105
2073
2083
2097
2119
2137
2121
2110
2117
2133
2135
2127
2133
2160
2175
2169
2182
2198
2189
2175
2160
2140
2133
2136
2123
2093
2094
2137
2174
2193
2212
2237
2233
2223
2179
2126
2100
2120
2142
2140
2126
2139
2153
2172
2194
2211
2214
2203
2182
2167
2173
2182
2184
2182
2177
2172
2165
2173
2206
2248
2223
2185
2176
2178
2181
2182
2193
2210
2217
2221
2226
2216
2204
2204
2229
2249
2230
2222
2239
2253
2271
2283
2262
2235
2219
2212
2232
2261
2251
2220
2215
2217
2223
2217
2203
2221
2223
2250
2285
2294
2292
2311
2333
2311
2280
2249
2244
2272
2298
2333
2342
2323
2293
2262
2260
2262
2269
2274
2272
2287
2302
2304
2290
2275
2297
2330
2353
2367
2380
2380
2373
2353
2336
2340
2361
2387
2390
2388
2393
2403
2412
2422
2406
2388
2380
2386
2384
2391
2430
2460
2461
2434
2434
2460
2466
2455
2469
2491
2515
2531
2518
2504
2507
2522
2533
2545
2541
2529
2515
2515
2517
2503
2482
2503
2538
2550
2549
2581
2591
2576
2548
2543
2549
2575
2604
2619
2599
2568
2529
2505
2504
2522
2514
2510
2513
2539
2589
2620
2611
2587
2571
2570
2585
2593
2577
2591
2623
2643
2655
2649
2608
2578
2575
2581
2586
2599
2596
2582
2583
2607
2631
2644
2644
2614
2600
2616
2643
2653
2642
2631
2643
2670
2680
2660
2644
2629
2617
2615
2650
2683
2695
2698
2734
2771
2816
2852
2872
2860
2823
2808
2810
2785
2770
2775
2775
2768
2745
2735
2741
2755
2779
2807
2834
2844
2824
2797
2791
2792
2799
2792
2781
2754
2732
2762
2809
2820
2821
2810
2796
2794
2789
2783
2779
2773
2741
2705
2716
2739
2800
2865
2911
2939
2943
2918
2917
2908
2905
2908
2916
2936
2959
2972
2973
2971
2973
2983
3010
3026
3057
3096
3123
3115
3097
3090
3103
3162
3239
3296
3332
3384
3413
3415
3425
3438
3438
3433
3459
3486
3473
3426
3354
3258
3158
3070
3015
2993
2974
2954
2909
2864
2834
2808
2779
2762
2769
2796
2823
2810
2777
2748
2718
2680
2653
2650
2666
2712
2759
2781
2757
2719
2721
2725
2728
2729
2707
2707
2721
2710
2689
2705
2722
2728
2754
2776
2772
2769
2754
2749
2729
2728
2739
2735
2714
2677
2643
2627
2639
2668
2688
2710
2724
2683
2638
2628
2639
2656
2658
2641
2614
2615
2619
2618
2616
2613
2601
2581
2568
2566
2581
2612
2652
2683
2691
2673
2634
2575
2519
2528
2558
2575
2592
2609
2638
2638
2615
2607
2590
2566
2568
2593
2608
2609
2603
2611
2615
2595
2564
2566
2588
2617
2637
2656
2658
2635
2608
2585
2547
2539
2552
2588
2622
2633
2635
2621
2612
2618
2652
2679
2694
2689
2645
2615
2640
2666
2654
2624
2593
2585
2586
2621
2665
2699
2732
2741
2762
2798
2855
2930
2973
2992
2987
2960
2934
2919
2925
2972
3009
3036
3031
2991
2939
2918
2924
2940
2961
2967
2943
2939
2940
2933
2944
2944
2958
2977
2992
3010
3007
2997
2999
3014
3018
3006
2973
2947
2945
2941
2930
2927
2924
2933
2945
2967
2980
2987
2997
3006
3013
3031
3023
2986
2940
2912
2900
2890
2889
2894
2891
2894
2925
2953
2957
2977
2978
2970
2977
2991
2999
2985
2944
2912
2904
2898
2887
2884
2894
2916
2927
2923
2918
2917
2927
2924
2898
2868
2853
2857
2863
2846
2821
2827
2825
2804
2795
2792
2767
2748
2774
2816
2826
2823
2808
2770
2726
2707
2711
2697
2699
2710
2693
2642
2601
2564
2508
2506
2544
2584
2614
2598
2568
2552
2549
2535
2496
2482
2497
2522
2547
2535
2489
2479
2500
2541
2574
2541
2453
2363
2312
2285
2280
2297
2325
2339
2359
2379
2374
2356
2338
2344
2367
2379
2393
2396
2392
2375
2363
2356
2357
2356
2350
2311
2277
2284
2302
2334
2357
2377
2404
2406
2396
2379
2352
2305
2271
2255
2256
2270
2295
2321
2319
2295
2318
2351
2385
2423
2399
2350
2304
2282
2303
2351
2382
2383
2411
2419
2396
2389
2376
2341
2307
2295
2290
2311
2356
2374
2386
2390
2368
2359
2360
2351
2351
2357
2377
2403
2374
2342
2320
2325
2357
2396
2420
2395
2357
2327
2305
2292
2308
2339
2374
2421
2456
2485
2482
2453
2432
2428
2433
2455
2454
2421
2378
2353
2362
2380
2451
2499
2438
2385
2379
2391
2405
2394
2390
2388
2412
2415
2393
2399
2403
2417
2458
2502
2516
2486
2454
2434
2414
2410
2408
2379
2347
2349
2348
2352
2370
2381
2375
2374
2377
2394
2409
2403
2408
2413
2422
2470
2511
2516
2522
2521
2505
2462
2445
2478
2495
2477
2447
2407
2394
2423
2450
2427
2407
2410
2406
2412
2469
2523
2493
2456
2409
2394
2394
2392
2389
2372
2358
2351
2351
2357
2383
2416
2434
2444
2451
2453
2454
2470
2476
2445
2440
2447
2432
2407
2394
2410
2440
2493
2522
2504
2490
2503
2488
2451
2432
2432
2436
2450
2471
2469
2469
2459
2438
2466
2506
2520
2509
2516
2527
2515
2477
2466
2482
2491
2501
2523
2531
2540
2566
2566
2540
2530
2552
2597
2621
2610
2603
2604
2596
2592
2594
2606
2624
2604
2564
2546
2551
2557
2544
2526
2530
2526
2519
2528
2551
2568
2532
2476
2437
2439
2440
2419
2404
2415
2441
2448
2444
2413
2396
2397
2422
2437
2418
2393
2387
2391
2387
2363
2347
2323
2299
2284
2308
2342
2337
2333
2314
2311
2300
2271
2262
2284
2289
2275
2251
2245
2267
2272
2261
2275
2296
2271
2225
2172
2118
2088
2109
2144
2159
2172
2181
2154
2118
2107
2112
2117
2132
2155
2169
2167
2148
2122
2088
2072
2082
2087
2079
2044
2001
1966
1947
1951
1960
1980
1998
2004
1998
2001
1988
1966
1958
1953
1933
1936
1940
1948
1977
1997
2014
2007
1965
1940
1931
1926
1913
1862
1834
1848
1862
1869
1855
1821
1788
1763
1775
1809
1842
1839
1809
1771
1774
1771
1758
1747
1724
1698
1669
1638
1623
1591
1562
1558
1546
1555
1591
1610
1602
1582
1566
1550
1530
1517
1509
1509
1488
1459
1447
1442
1434
1406
1399
1412
1423
1425
1440
1466
1455
1432
1435
1434
1424
1433
1425
1429
1436
1414
1393
1406
1412
1395
1365
1351
1358
1375
1386
1373
1355
1342
1343
1365
1376
1370
1352
1321
1304
1307
1319
1357
1385
1359
1338
1323
1294
1295
1324
1358
1389
1398
1383
1369
1373
1393
1426
1468
1502
1491
1480
1497
1530
1563
1591
1611
1635
1665
1697
1726
1764
1808
1837
1858
1884
1928
1962
1963
1958
1930
1889
1841
1758
1656
1583
1533
1509
1478
1431
1393
1365
1369
1369
1369
1363
1336
1317
1318
1323
1342
1334
1312
1320
1338
1361
1387
1382
1367
1371
1369
1365
1370
1388
1399
1379
1348
1341
1333
1319
1343
1401
1429
1419
1427
1423
1428
1440
1442
1441
1422
1416
1420
1428
1456
1483
1496
1497
1486
1479
1505
1529
1531
1540
1528
1501
1487
1499
1509
1494
1487
1515
1529
1521
1515
1515
1503
1504
1521
1539
1557
1574
1576
1578
1590
1583
1552
1528
1527
1546
1551
1571
1574
1554
1534
1514
1501
1526
1545
1559
1592
1609
1610
1607
1583
1560
1571
1578
1587
1599
1613
1614
1587
1557
1553
1563
1565
1565
1570
1582
1605
1636
1653
1625
1595
1573
1565
1580
1575
1551
1531
1543
1587
1625
1629
1623
1611
1596
1589
1592
1584
1566
1544
1547
1579
1610
1611
1585
1563
1538
1517
1519
1555
1591
1595
1587
1583
1584
1600
1626
1641
1626
1574
1538
1548
1581
1620
1652
1690
1700
1678
1658
1666
1673
1655
1606
1582
1593
1612
1603
1592
1600
1613
1613
1592
1581
1600
1627
1618
1610
1615
1613
1626
1638
1636
1640
1638
1647
1672
1690
1711
1724
1740
1782
1780
1726
1662
1630
1663
1673
1652
1638
1641
1660
1689
1718
1722
1727
1743
1729
1721
1725
1722
1713
1699
1717
1729
1744
1770
1774
1750
1729
1719
1724
1731
1721
1718
1729
1745
1761
1776
1769
1750
1725
1712
1716
1723
1748
1777
1766
1717
1681
1669
1660
1628
1601
1585
1570
1570
1569
1555
1546
1544
1541
1528
1511
1490
1468
1461
1476
1496
1494
1486
1459
1445
1484
1509
1452
1402
1396
1380
1352
1325
1295
1273
1293
1308
1300
1320
1361
1403
1441
1440
1428
1435
1423
1360
1305
1281
1278
1299
1305
1305
1336
1367
1384
1367
1332
1334
1358
1363
1358
1378
1394
1391
1403
1422
1452
1470
1451
1439
1451
1450
1459
1482
1489
1492
1476
1472
1475
1504
1501
1489
1516
1538
1546
1530
1519
1502
1468
1454
1486
1511
1510
1497
1503
1523
1544
1545
1539
1518
1508
1504
1483
1482
1513
1539
1565
1578
1560
1523
1508
1538
1574
1564
1539
1522
1526
1545
1546
1543
1532
1518
1495
1484
1490
1513
1528
1540
1543
1558
1574
1586
1579
1563
1544
1508
1488
1504
1539
1564
1575
1563
1541
1536
1539
1526
1517
1517
1537
1540
1554
1566
1564
1549
1536
1529
1549
1579
1596
1597
1576
1551
1537
1512
1513
1564
1599
1600
1592
1564
1543
1540
1553
1581
1592
1608
1652
1703
1691
1651
1603
1561
1532
1516
1526
1542
1550
1549
1538
1537
1562
1563
1549
1547
1565
1573
1565
1557
1575
1599
1605
1593
1570
1563
1588
1577
1562
1553
1561
1556
1569
1587
1590
1580
1552
1543
1570
1584
1562
1555
1560
1566
1593
1599
1589
1584
1588
1606
1625
1628
1622
1609
1604
1587
1577
1566
1562
1585
1592
1573
1561
1585
1618
1624
1607
1587
1601
1621
1619
1608
1577
1546
1527
1522
1507
1498
1501
1524
1543
1544
1533
1519
1499
1486
1500
1525
1538
1547
1554
1546
1527
1514
1504
1470
1437
1430
1444
1457
1471
1494
1510
1519
1509
1472
1447
1440
1448
1457
1472
1469
1449
1422
1407
1435
1427
1397
1377
1386
1401
1410
1435
1461
1457
1424
1377
1345
1332
1365
1428
1475
1493
1475
1435
1418
1427
1438
1428
1405
1380
1362
1350
1365
1397
1401
1398
1379
1379
1396
1403
1382
1360
1351
1349
1374
1421
1475
1490
1468
1445
1438
1439
1441
1434
1422
1406
1380
1349
1353
1387
1418
1432
1439
1455
1490
1484
1436
1435
1451
1433
1454
1474
1463
1452
1438
1432
1444
1461
1481
1512
1529
1524
1485
1429
1413
1416
1405
1411
1452
1495
1528
1559
1572
1567
1563
1561
1517
1447
1397
1394
1396
1398
1400
1419
1432
1447
1454
1460
1476
1479
1485
1506
1522
1526
1522
1492
1462
1446
1439
1432
1443
1466
1463
1464
1480
1495
1538
1530
1482
1461
1455
1476
1522
1550
1554
1562
1560
1555
1551
1559
1552
1552
1591
1644
1680
1687
1663
1615
1595
1617
1668
1702
1702
1684
1677
1660
1630
1637
1656
1676
1705
1747
1800
1840
1854
1852
1856
1887
1917
1928
1949
1972
2006
2040
2057
2096
2137
2168
2205
2244
2262
2278
2289
2304
2333
2364
2352
2301
2242
2170
2111
2065
2012
1954
1891
1840
1818
1791
1780
1775
1780
1786
1788
1801
1796
1797
1799
1785
1773
1772
1777
1783
1783
1781
1774
1779
1795
1800
1798
1804
1792
1781
1802
1825
1822
1815
1819
1814
1813
1825
1830
1820
1797
1794
1807
1787
1747
1725
1734
1771
1825
1847
1839
1836
1844
1827
1793
1797
1827
1851
1857
1863
1847
1820
1808
1803
1812
1821
1846
1876
1883
1881
1870
1851
1838
1816
1791
1797
1844
1876
1869
1856
1850
1852
1855
1859
1866
1868
1867
1869
1882
1902
1913
1912
1907
1883
1851
1849
1876
1902
1894
1881
1893
1898
1897
1896
1911
1935
1941
1943
1949
1948
1935
1921
1918
1922
1929
1939
1944
1922
1896
1906
1946
1961
1957
1967
1974
1981
1980
1981
1972
1961
1954
1969
2004
2032
2035
2021
2005
1992
1996
1998
2015
2024
2020
2022
2033
2028
2011
2011
2013
2016
2001
1998
2023
2043
2051
2044
2055
2057
2044
2028
2028
2013
2018
2055
2091
2122
2120
2112
2118
2139
2157
2120
2048
2004
2008
2031
2062
2084
2087
2097
2111
2107
2138
2186
2190
2172
2149
2152
2151
2128
2136
2159
2187
2197
2199
2207
2218
2224
2216
2190
2174
2223
2289
2315
2330
2342
2358
2357
2343
2337
2336
2351
2359
2367
2365
2364
2378
2381
2364
2325
2296
2309
2335
2358
2356
2337
2322
2308
2310
2325
2329
2319
2294
2273
2267
2282
2288
2288
2293
2295
2282
2258
2236
2234
2230
2185
2148
2136
2153
2173
2167
2181
2198
2184
2167
2159
2149
2122
2075
2062
2064
2066
2080
2077
2090
2101
2094
2096
2095
2091
2077
2045
2006
1984
1973
1963
1969
1977
1973
1979
2002
2031
2023
2028
2032
2020
1990
1934
1885
1857
1875
1907
1943
1972
1952
1899
1881
1909
1939
1936
1914
1887
1898
1933
1934
1935
1916
1880
1865
1886
1910
1935
1943
1937
1930
1931
1929
1909
1888
1900
1922
1954
1992
1996
1983
1960
1938
1932
1935
1919
1886
1872
1906
1931
1931
1927
1920
1919
1904
1907
1922
1907
1882
1879
1898
1906
1900
1907
1925
1941
1947
1955
1965
1954
1936
1926
1922
1915
1895
1878
1903
1945
1967
1966
1962
1933
1918
1924
1939
1933
1921
1906
1905
1923
1940
1955
1951
1961
1961
1943
1914
1908
1905
1883
1902
1950
1977
1951
1922
1918
1932
1932
1900
1889
1906
1935
1959
1971
1961
1948
1933
1920
1920
1936
1962
1964
1963
1954
1950
1954
1951
1945
1942
1940
1955
1972
1975
1968
1968
1968
1974
1961
1937
1912
1896
1896
1906
1928
1942
1945
1929
1928
1946
1966
1992
2002
1988
1980
1971
1951
1932
1934
1929
1925
1945
1955
1955
1945
1943
1953
1971
1966
1960
1965
1964
1977
1968
1948
1934
1925
1937
1929
1908
1930
1957
1969
1959
1962
1975
1994
1984
1974
1957
1940
1913
1890
1889
1900
1929
1943
1960
1980
1984
1981
1968
1928
1894
1857
1849
1895
1928
1916
1898
1915
1942
1952
1961
1977
2009
2037
2052
2033
1987
1931
1894
1884
1905
1924
1933
1948
1966
1969
1953
1941
1936
1919
1894
1892
1894
1914
1906
1897
1911
1922
1925
1924
1931
1936
1932
1911
1928
1971
1999
1998
2002
2019
2029
2015
1980
1941
1922
1919
1924
1923
1928
1959
1985
1982
1982
1988
1966
1946
1942
1957
1983
2004
2023
2021
2014
2006
2013
2024
2040
2023
1994
1967
1961
1956
1950
2000
2051
2048
2019
2002
2022
2041
2032
2018
1997
1982
2006
2024
2013
1985
1972
1988
2011
2027
2023
2006
1986
1977
1985
1981
1968
1962
1955
1955
1941
1941
1962
1964
1959
1966
1968
1988
2014
2017
2011
1999
1999
2006
1998
1993
2001
2003
1993
1995
2001
1989
1984
1989
1989
1984
1986
2003
2019
2014
1999
1974
1966
1958
1959
2001
2035
2024
1995
1976
1980
1998
2005
2010
2022
2026
2040
2054
2052
2048
2040
2040
2080
2099
2093
2094
2115
2125
2117
2116
2119
2128
2160
2201
2221
2240
2279
2320
2342
2376
2423
2483
2536
2565
2553
2522
2501
2497
2514
2535
2567
2585
2569
2526
2468
2375
2258
2196
2153
2107
2085
2080
2070
2039
2009
2031
2061
2051
2045
2048
2061
2049
2027
2003
1985
1978
1986
2005
2004
2018
2046
2064
2063
2055
2057
2066
2073
2068
2075
2085
2081
2055
2022
2018
2035
2060
2059
2027
2018
2019
2025
2023
2026
2051
2074
2063
2048
2043
2051
2051
2042
2036
2035
2039
2020
2001
2001
1984
1993
2032
2061
2088
2084
2056
2059
2068
2064
2069
2072
2067
2071
2070
2063
2073
2090
2083
2067
2082
2101
2133
2130
2118
2106
2091
2067
2048
2052
2057
2064
2066
2055
2042
2050
2082
2113
2114
2106
2102
2121
2127
2120
2117
2095
2086
2077
2064
2079
2126
2176
2201
2198
2196
2189
2174
2159
2143
2138
2153
2176
2165
2145
2120
2116
2122
2118
2121
2139
2176
2211
2208
2183
2150
2151
2181
2196
2169
2122
2107
2151
2220
2252
2246
2252
2241
2236
2226
2196
2175
2185
2179
2189
2199
2194
2226
2271
2279
2251
2217
2198
2198
2187
2184
2184
2207
2232
2256
2271
2278
2256
2202
2176
2207
2227
2224
2234
2256
2273
2292
2292
2285
2265
2239
2238
2236
2227
2235
2265
2279
2281
2292
2285
2275
2288
2305
2311
2325
2354
2360
2345
2344
2332
2307
2292
2280
2281
2298
2330
2330
2304
2301
2306
2304
2332
2355
2354
2327
2293
2287
2295
2290
2310
2341
2351
2337
2333
2328
2310
2298
2319
2349
2369
2361
2327
2316
2346
2370
2381
2358
2325
2285
2250
2226
2241
2280
2307
2313
2299
2264
2227
2230
2232
2252
2274
2260
2241
2217
2199
2181
2169
2153
2151
2149
2134
2132
2112
2100
2135
2185
2216
2226
2215
2197
2183
2178
2191
2200
2176
2142
2117
2119
2129
2137
2146
2166
2167
2164
2176
2180
2170
2157
2150
2129
2121
2128
2145
2158
2178
2182
2171
2162
2171
2164
2145
2141
2141
2156
2168
2178
2180
2193
2191
2177
2180
2173
2171
2167
2168
2201
2232
2216
2162
2127
2143
2173
2177
2170
2184
2192
2208
2244
2240
2200
2169
2164
2187
2206
2219
2232
2230
2208
2169
2154
2174
2201
2230
2248
2240
2210
2187
2177
2191
2220
2241
2254
2279
2295
2286
2274
2273
2284
2305
2320
2322
2305
2283
2282
2277
2266
2265
2291
2324
2323
2307
2306
2305
2288
2277
2284
2280
2265
2263
2263
2281
2309
2308
2296
2287
2309
2342
2326
2300
2300
2311
2310
2289
2270
2284
2310
2329
2367
2403
2388
2332
2263
2227
2231
2259
2299
2320
2315
2302
2315
2337
2336
2322
2304
2311
2311
2297
2292
2280
2259
2266
2307
2338
2325
2313
2327
2327
2313
2304
2307
2308
2303
2300
2310
2326
2316
2299
2291
2284
2293
2315
2318
2309
2303
2303
2313
2321
2332
2335
2322
2310
2294
2284
2285
2286
2296
2277
2256
2274
2311
2326
2329
2308
2286
2286
2297
2316
2342
2372
2370
2337
2309
2292
2288
2283
2270
2248
2237
2233
2265
2328
2379
2374
2332
2281
2253
2235
2221
2234
2261
2285
2312
2298
2288
2310
2333
2381
2399
2377
2311
2230
2200
2237
2282
2302
2307
2319
2323
2321
2327
2321
2305
2292
2288
2285
2273
2264
2260
2247
2248
2264
2292
2333
2355
2353
2330
2336
2353
2336
2311
2316
2337
2340
2323
2313
2298
2271
2256
2282
2307
2298
2306
2318
2330
2341
2349
2368
2384
2368
2352
2330
2299
2291
2284
2286
2321
2360
2350
2333
2343
2372
2377
2364
2360
2364
2376
2378
2377
2357
2344
2356
2365
2342
2314
2306
2311
2311
2321
2349
2377
2382
2373
2379
2381
2381
2391
2375
2347
2336
2347
2371
2389
2390
2384
2395
2386
2354
2342
2339
2312
2294
2310
2320
2329
2340
2335
2317
2304
2282
2260
2260
2243
2233
2246
2263
2255
2222
2202
2207
2207
2215
2246
2269
2273
2270
2260
2262
2255
2241
2231
2232
2228
2224
2232
2248
2251
2256
2254
2235
2212
2201
2217
2238
2259
2272
2293
2304
2288
2248
2215
2196
2210
2217
2233
2266
2280
2262
2214
2168
2176
2181
2160
2165
2192
2203
2188
2185
2205
2230
2246
2254
2282
2315
2361
2395
2370
2341
2325
2307
2325
2353
2382
2415
2468
2507
2528
2547
2562
2575
2586
2603
2621
2649
2691
2725
2733
2726
2727
2722
2704
2642
2546
2449
2378
2316
2282
2267
2250
2221
2183
2145
2119
2111
2143
2188
2212
2204
2195
2168
2138
2136
2142
2134
2125
2134
2154
2185
2199
2180
2146
2112
2103
2114
2120
2115
2102
2088
2099
2133
2167
2159
2129
2130
2170
2192
2209
2213
2178
2138
2123
2133
2132
2133
2145
2149
2145
2113
2084
2084
2099
2099
2094
2090
2104
2110
2110
2122
2143
2162
2141
2106
2093
2089
2121
2154
2165
2174
2158
2150
2152
2143
2128
2127
2141
2151
2143
2127
2136
2142
2115
2104
2104
2104
2113
2136
2137
2123
2117
2136
2156
2173
2174
2160
2154
2150
2147
2132
2128
2136
2131
2137
2130
2132
2144
2140
2123
2117
2115
2126
2134
2123
2100
2101
2124
2147
2171
2191
2196
2168
2147
2166
2185
2188
2176
2137
2122
2135
2164
2192
2200
2212
2211
2186
2165
2145
2138
2137
2126
2123
2137
2151
2164
2159
2165
2172
2162
2151
2158
2157
2168
2152
2147
2138
2150
2184
2224
2234
2234
2196
2158
2170
2170
2132
2120
2125
2130
2164
2206
2209
2188
2181
2191
2215
2227
2230
2215
2187
2169
2183
2193
2194
2187
2190
2194
2193
2199
2208
2197
2205
2230
2257
2265
2273
2250
2230
2225
2217
2192
2173
2161
2147
2139
2160
2190
2196
2211
2208
2191
2179
2197
2219
2232
2243
2236
2223
2194
2152
2138
2160
2204
2241
2235
2218
2202
2186
2185
2184
2186
2176
2179
2169
2166
2180
2185
2167
2167
2151
2117
2089
2093
2108
2106
2104
2093
2087
2086
2064
2033
2013
2015
2037
2069
2076
2067
2051
2047
2052
2052
2049
2042
2023
2016
2021
2006
1992
1971
1947
1942
1944
1957
1968
1961
1951
1953
1945
1947
1958
1962
1947
1923
1909
1907
1947
1971
1945
1910
1919
1950
1973
1974
1952
1921
1930
1937
1931
1933
1934
1924
1912
1905
1899
1908
1907
1903
1916
1937
1955
1960
1939
1910
1912
1943
1975
1948
1916
1903
1898
1914
1908
1926
1970
1992
1981
1953
1902
1873
1877
1891
1894
1896
1892
1879
1874
1854
1862
1898
1932
1944
1960
1947
1914
1894
1894
1900
1926
1958
1942
1899
1883
1894
1906
1894
1901
1920
1911
1898
1912
1916
1934
1957
1944
1946
1956
1957
1953
1955
1942
1921
1914
1911
1902
1923
1951
1975
1980
1972
1963
1974
1973
1960
1960
1948
1956
1950
1935
1942
1962
1989
1981
1951
1931
1946
1942
1902
1887
1912
1936
1963
1984
1989
1997
1992
1966
1946
1956
1979
1978
1969
1962
1967
1983
1993
1968
1945
1959
2006
2025
2009
1987
1953
1966
1991
2004
2007
1999
1985
1969
1963
1960
1980
2003
2023
2028
1994
1945
1918
1929
1963
1995
2016
2025
2031
2018
1981
1973
1980
1988
1995
2021
2066
2050
2003
1970
1954
1953
1958
1958
1970
1994
1996
1992
1993
1979
1986
1984
1961
1949
1945
1950
1954
1962
1975
1984
1975
1961
1935
1929
1944
1966
1996
2017
2031
2030
2008
1977
1958
1952
1974
1992
1995
2002
1993
1975
1976
1975
1973
1977
1968
1955
1965
1973
1959
1951
1968
1994
1998
2017
2033
2014
1981
1952
1967
1978
1977
1991
1986
1980
1973
1975
1975
1975
1974
1996
2025
2046
2036
2029
2033
2040
2056
2067
2055
2028
1988
1957
1933
1934
1951
1970
1990
2028
2044
2011
1964
1943
1939
1956
1973
1981
1996
2004
2019
2032
2029
2023
2024
2011
2015
2031
2017
1998
1999
2008
2033
2036
2011
1987
2021
2063
2053
2030
2036
2051
2064
2067
2064
2060
2039
2022
2020
2010
2007
2027
2062
2074
2080
2077
2052
2015
2018
2009
2008
2023
2046
2063
2062
2059
2058
2063
2067
2055
2037
2039
2051
2045
2036
2026
2016
2006
2013
2028
2043
2059
2048
2042
2052
2067
2087
2090
2056
2023
2008
1995
2002
2028
2048
2062
2071
2060
2051
2061
2062
2070
2070
2061
2063
2071
2075
2070
2055
2048
2031
2020
2030
2021
2031
2038
2050
2090
2106
2097
2091
2088
2090
2088
2066
2067
2087
2106
2110
2101
2112
2117
2133
2159
2162
2131
2094
2074
2080
2106
2136
2145
2136
2132
2133
2149
2141
2112
2100
2115
2147
2172
2180
2176
2179
2167
2152
2139
2148
2163
2140
2120
2089
2063
2064
2085
2104
2113
2098
2080
2096
2094
2091
2089
2082
2075
2086
2080
2082
2067
2046
2070
2097
2088
2079
2062
2032
2026
2023
2009
1987
1996
2029
2076
2105
2085
2055
2024
2018
2046
2047
2040
2035
2043
2058
2069
2064
2048
2049
2076
2103
2077
2054
2044
2012
1986
2008
2045
2066
2086
2110
2114
2108
2090
2062
2034
2040
2058
2044
2042
2058
2063
2061
2068
2095
2126
2142
2165
2192
2215
2227
2247
2250
2236
2231
2247
2285
2327
2365
2391
2416
2455
2485
2520
2573
2606
2617
2630
2643
2643
2637
2633
2612
2595
2563
2501
2426
2326
2233
2161
2114
2091
2075
2058
2061
2077
2092
2109
2129
2144
2142
2119
2073
2043
2035
2042
2035
2035
2021
2018
2042
2057
2040
2034
2044
2039
2032
2054
2067
2062
2076
2057
2019
1993
1962
1945
1951
1992
2037
2049
2037
2029
2024
2025
2033
2009
1987
1989
1992
2008
2023
1991
1973
2002
2026
2037
2030
2018
2007
1984
1959
1961
1983
2013
2032
2037
2018
1994
1980
1989
2022
2034
2016
1991
1990
2008
1998
1984
1995
2019
2018
1995
1993
2025
2025
2004
1978
1979
1974
1961
1984
2013
2025
2019
2012
2000
1981
1980
1993
1991
1982
1990
2025
2047
2043
2016
1998
1995
1984
1968
1965
1986
2018
2041
2050
2039
2030
2041
2050
2041
2027
2027
2025
2006
1990
1989
2001
2007
1981
1981
2020
2031
2021
2017
2016
1998
2000
2002
2005
2001
1992
2004
2042
2074
2075
2085
2107
2095
2065
2043
2054
2071
2072
2050
2024
2018
2034
2054
2058
2038
2016
2007
2019
2035
2035
2034
2047
2064
2067
2070
2067
2055
2065
2113
2139
2133
2131
2108
2077
2069
2076
2063
2043
2035
2046
2028
2018
2046
2085
2126
2154
2155
2143
2128
2124
2136
2134
2120
2111
2091
2087
2094
2103
2108
2112
2131
2151
2161
2159
2134
2098
2078
2099
2131
2132
2132
2139
2137
2151
2157
2135
2104
2090
2091
2091
2091
2085
2097
2122
2127
2108
2098
2093
2090
2102
2104
2091
2073
2046
2031
2040
2051
2041
2029
2008
1980
1971
2009
2031
2017
2016
2010
2003
1999
2003
2001
1996
2003
1999
1987
1972
1955
1954
1965
1975
1963
1956
1952
1950
1935
1924
1927
1916
1895
1882
1881
1887
1875
1861
1847
1839
1847
1850
1847
1848
1837
1831
1826
1822
1819
1812
1785
1772
1777
1805
1868
1891
1860
1830
1796
1777
1780
1789
1827
1858
1852
1814
1797
1800
1820
1814
1789
1771
1780
1800
1797
1781
1785
1780
1764
1746
1718
1688
1668
1678
1708
1752
1808
1828
1801
1779
1789
1789
1780
1777
1795
1823
1832
1821
1816
1813
1808
1791
1758
1741
1733
1736
1756
1774
1763
1733
1726
1752
1761
1756
1751
1744
1729
1746
1786
1800
1806
1813
1807
1806
1802
1779
1774
1779
1779
1779
1764
1725
1700
1720
1747
1752
1738
1734
1724
1717
1717
1727
1722
1715
1717
1728
1721
1683
1665
1705
1747
1720
1710
1751
1790
1808
1797
1789
1792
1787
1771
1743
1733
1721
1719
1749
1756
1724
1693
1691
1698
1695
1698
1703
1712
1710
1707
1729
1758
1754
1738
1728
1729
1731
1728
1728
1723
1727
1735
1732
1737
1746
1753
1776
1774
1759
1750
1758
1782
1796
1811
1784
1739
1726
1718
1716
1734
1748
1752
1749
1747
1741
1744
1770
1795
1805
1818
1818
1818
1822
1802
1764
1735
1741
1754
1762
1757
1755
1755
1768
1794
1824
1863
1868
1842
1812
1797
1786
1803
1802
1792
1821
1842
1826
1796
1766
1750
1725
1718
1734
1759
1783
1794
1803
1819
1831
1830
1816
1793
1779
1791
1813
1828
1826
1822
1818
1814
1804
1798
1808
1819
1820
1820
1814
1801
1811
1827
1840
1855
1838
1819
1809
1807
1828
1832
1812
1792
1781
1778
1787
1801
1797
1804
1806
1801
1791
1770
1783
1780
1738
1711
1707
1725
1764
1815
1828
1802
1772
1739
1723
1750
1783
1792
1774
1762
1759
1746
1705
1689
1720
1741
1744
1760
1783
1784
1775
1770
1766
1766
1768
1778
1781
1789
1821
1848
1851
1828
1798
1766
1758
1759
1733
1724
1763
1798
1800
1782
1788
1804
1825
1803
1784
1792
1809
1823
1803
1784
1783
1790
1804
1823
1820
1807
1797
1785
1776
1780
1794
1811
1800
1783
1780
1773
1763
1771
1798
1827
1840
1827
1783
1755
1739
1713
1692
1680
1691
1726
1755
1760
1757
1786
1802
1788
1763
1778
1791
1783
1758
1730
1710
1711
1728
1739
1757
1750
1747
1752
1752
1765
1782
1791
1797
1783
1754
1753
1770
1782
1780
1762
1750
1764
1795
1815
1784
1748
1735
1737
1752
1758
1749
1745
1779
1814
1798
1769
1756
1758
1778
1788
1783
1781
1772
1764
1768
1776
1786
1806
1819
1824
1820
1805
1792
1805
1811
1793
1780
1768
1760
1760
1769
1775
1782
1807
1814
1798
1801
1804
1812
1820
1829
1831
1845
1861
1868
1881
1896
1900
1872
1843
1813
1796
1804
1812
1821
1840
1840
1847
1876
1917
1908
1885
1908
1939
1933
1909
1890
1911
1962
1968
1949
1929
1931
1916
1877
1864
1883
1898
1898
1916
1945
1951
1944
1955
1968
1955
1923
1884
1868
1884
1888
1907
1923
1907
1888
1871
1870
1889
1925
1961
1943
1895
1838
1822
1831
1848
1853
1841
1828
1816
1821
1853
1900
1916
1925
1946
1944
1927
1936
1939
1918
1908
1902
1884
1875
1887
1932
1942
1932
1918
1904
1921
1928
1920
1947
2015
2042
2037
2055
2071
2089
2102
2099
2096
2093
2091
2090
2090
2104
2111
2101
2088
2083
2097
2108
2107
2112
2100
2053
2005
1984
2000
2023
2027
2026
2016
1999
2010
2040
2046
2050
2062
2056
2032
2015
2022
2042
2022
1974
1961
1973
1955
1935
1934
1952
1949
1924
1912
1915
1925
1927
1931
1924
1932
1942
1949
1991
2017
1989
1963
1948
1927
1910
1907
1897
1913
1948
1954
1951
1951
1950
1941
1922
1912
1911
1914
1904
1896
1886
1878
1871
1871
1876
1890
1921
1934
1935
1943
1925
1882
1869
1881
1893
1904
1923
1961
1981
1993
2011
2017
2021
2040
2034
2028
2043
2079
2119
2138
2175
2221
2256
2279
2294
2319
2343
2365
2394
2435
2471
2496
2518
2536
2516
2489
2461
2409
2323
2240
2153
2070
2037
2025
1995
1980
1982
1972
1953
1940
1932
1922
1931
1935
1922
1884
1856
1832
1826
1841
1859
1881
1866
1846
1840
1839
1826
1824
1846
1852
1874
1900
1883
1857
1825
1767
1719
1702
1695
1688
1690
1690
1700
1705
1702
1706
1701
1687
1655
1637
1652
1678
1709
1727
1728
1736
1726
1722
1741
1776
1790
1752
1715
1718
1748
1782
1791
1788
1764
1735
1733
1758
1761
1746
1725
1689
1671
1687
1723
1767
1820
1844
1819
1789
1767
1771
1774
1776
1783
1799
1832
1839
1823
1823
1819
1793
1778
1774
1769
1754
1763
1790
1826
1862
1884
1871
1859
1857
1861
1870
1860
1841
1817
1786
1772
1780
1809
1830
1832
1834
1825
1819
1848
1862
1850
1812
1779
1778
1817
1838
1859
1882
1867
1861
1869
1875
1899
1916
1912
1901
1892
1893
1881
1872
1870
1893
1929
1956
1959
1933
1895
1887
1907
1925
1931
1917
1906
1905
1906
1918
1945
1955
1936
1917
1939
1965
1983
1989
1994
2007
2001
1978
1960
1954
1941
1951
1989
2026
2046
2069
2063
2015
1987
1972
1961
1974
1999
2015
2035
2031
2033
2056
2072
2079
2063
2028
2001
1995
1994
1992
2014
2054
2080
2077
2056
2053
2076
2081
2086
2098
2097
2089
2067
2045
2034
2033
2040
2048
2072
2106
2136
2142
2122
2100
2081
2075
2082
2094
2090
2087
2104
2105
2096
2095
2105
2108
2090
2070
2069
2065
2045
2040
2053
2056
2060
2053
2027
1998
1991
2013
2036
2043
2032
2007
1988
1969
1955
1959
1950
1946
1957
1984
1992
1977
1955
1938
1928
1938
1964
1994
2007
1999
1984
1954
1930
1933
1907
1867
1858
1875
1895
1917
1922
1899
1873
1894
1938
1939
1904
1864
1855
1858
1881
1903
1901
1893
1873
1866
1867
1863
1882
1899
1898
1885
1888
1890
1894
1903
1890
1874
1886
1885
1872
1855
1844
1851
1856
1849
1850
1856
1860
1857
1862
1859
1850
1859
1893
1922
1914
1889
1876
1875
1875
1875
1874
1872
1870
1879
1889
1875
1862
1881
1884
1868
1843
1840
1867
1903
1914
1908
1892
1867
1861
1881
1911
1912
1913
1919
1918
1901
1883
1890
1921
1929
1914
1897
1874
1868
1881
1903
1908
1912
1920
1909
1876
1866
1900
1924
1926
1914
1902
1900
1894
1894
1895
1894
1900
1899
1921
1937
1922
1895
1883
1886
1894
1892
1882
1890
1918
1925
1906
1901
1906
1918
1905
1886
1908
1934
1934
1900
1865
1892
1933
1945
1957
1954
1929
1903
1884
1893
1896
1904
1926
1933
1933
1932
1952
1972
1968
1943
1935
1939
1936
1932
1937
1940
1944
1942
1944
1940
1961
1988
2007
2010
2002
2005
1979
1949
1926
1935
1958
1953
1952
1960
1978
1988
1991
1990
1981
1989
1996
1979
1964
1962
1961
1948
1934
1921
1937
1968
1996
2008
1996
1969
1958
1940
1924
1943
1971
1998
1999
1989
1980
1972
1958
1950
1960
1971
1962
1960
1977
1984
1973
1971
1980
1990
1992
1980
1980
1990
1991
1959
1948
1971
1998
2009
2002
1997
2003
2007
1999
1972
1950
1973
2003
2002
1996
2009
2003
1984
1969
1949
1955
1988
2044
2048
2007
1971
1955
1957
1968
1989
1997
1984
1967
1979
1990
1985
1974
1963
1963
1967
1970
1959
1941
1926
1935
1964
1977
1982
1990
2007
2012
1999
1966
1941
1941
1971
1999
2011
2002
1988
1983
1985
1969
1958
1963
1974
1969
1976
1977
1968
1971
1965
1961
1956
1964
1974
1973
1959
1948
1949
1943
1954
1985
2002
1993
1985
1983
1998
2001
1995
1991
1985
1981
2014
2030
1996
1958
1956
1976
1985
1985
1976
1969
1973
1983
1993
2000
1999
1987
1975
1988
2015
2011
1982
1951
1944
1955
1978
2005
1994
1967
1980
1986
1990
2021
2049
2056
2036
2016
2016
2001
1949
1931
1950
1964
1967
1960
1948
1946
1966
2007
2025
2021
2024
2043
2029
1992
1967
1967
1974
2014
2064
2076
2076
2043
2008
1994
1984
1987
1988
1979
1977
1991
2022
2046
2037
2022
2035
2037
2012
1982
1966
1974
2014
2028
2012
2004
2002
2001
1976
1954
1957
1965
1988
2018
2014
1996
1981
2000
2029
2024
2029
2033
2023
2030
2063
2081
2054
2026
2013
1999
1997
2021
2039
2029
2004
1981
1973
1982
2002
2006
1998
2003
1991
1967
1976
1991
2012
2035
2065
2071
2042
2024
2025
2028
2048
2075
2071
2049
2052
2044
2006
1991
2010
2005
2001
2023
2025
2030
2035
2063
2077
2065
2052
2046
2063
2080
2075
2051
2026
2020
2027
2057
2089
2091
2083
2090
2089
2081
2075
2049
2031
2031
2030
2035
2048
2068
2079
2076
2067
2070
2063
2061
2064
2071
2071
2059
2058
2067
2073
2082
2103
2125
2124
2121
2112
2107
2106
2112
2113
2113
2126
2126
2105
2094
2119
2142
2142
2137
2143
2158
2168
2157
2152
2157
2158
2157
2155
2150
2153
2145
2146
2147
2124
2082
2073
2081
2105
2136
2165
2177
2172
2149
2117
2084
2059
2042
2036
2066
2106
2133
2130
2135
2117
2097
2108
2130
2124
2108
2104
2120
2128
2099
2045
2019
2016
2002
2005
2047
2088
2119
2121
2110
2098
2093
2085
2081
2094
2097
2107
2096
2061
2044
2039
2068
2069
2041
2014
1996
1998
2035
2078
2092
2079
2064
2045
2035
2044
2047
2032
2013
2004
2014
2024
2030
2043
2053
2051
2058
2079
2107
2144
2164
2149
2148
2172
2182
2183
2184
2183
2193
2223
2262
2307
2350
2381
2414
2444
2483
2519
2546
2570
2576
2594
2605
2597
2586
2591
2571
2504
2414
2342
2280
2222
2178
2153
2123
2092
2075
2070
2064
2045
2040
2059
2075
2100
2117
2101
2062
2033
2029
2004
1983
2001
2038
2061
2063
2049
2016
1990
2002
2015
2032
2066
2089
2090
2070
2030
2024
2031
2041
2041
2035
2037
2041
2044
2034
2033
2054
2068
2078
2072
2055
2037
2026
2008
1983
1992
2007
2013
2028
2056
2065
2046
2029
2023
2039
2068
2069
2051
2031
2023
2050
2098
2105
2090
2081
2092
2107
2114
2098
2085
2089
2057
2041
2038
2038
2045
2052
2077
2110
2123
2101
2077
2062
2054
2067
2086
2098
2118
2123
2124
2117
2113
2099
2093
2115
2129
2134
2127
2110
2077
2077
2095
2110
2100
2088
2069
2044
2045
2062
2072
2094
2122
2139
2123
2113
2119
2132
2120
2097
2100
2127
2127
2130
2130
2119
2108
2090
2085
2104
2130
2126
2134
2141
2128
2112
2101
2093
2105
2118
2112
2108
2119
2135
2116
2100
2118
2147
2185
2205
2197
2178
2160
2159
2174
2200
2202
2196
2186
2173
2171
2181
