# Generic Text File Format
# Version: 1
# StartDateTime: 2012-01-20 14:09:51
# SamplingFrequency: 1000
# SamplingResolution: 12
# EndOfHeader
2035
2011
1992
2007
2046
2079
2109
2124
2115
2089
2066
2089
2116
2106
2076
2066
2083
2084
2079
2072
2061
2061
2079
2083
2060
2051
2065
2072
2073
2067
2056
2057
2066
2086
2110
2095
2073
2053
2059
2062
2049
2045
2045
2055
2075
2075
2073
2092
2135
2119
2061
2014
2000
2015
2059
2089
2077
2050
2049
2055
2091
2141
2150
2138
2117
2090
2077
2071
2067
2080
2105
2139
2166
2194
2205
2167
2120
2104
2093
2101
2123
2140
2161
2175
2186
2206
2253
2289
2313
2341
2373
2392
2415
2440
2450
2471
2486
2475
2439
2409
2400
2350
2286
2221
2151
2120
2111
2058
1990
1972
1959
1923
1893
1867
1866
1909
1960
1985
2002
2010
1999
1951
1905
1894
1913
1958
1998
2019
2008
1984
1989
2048
2081
2079
2093
2111
2117
2129
2135
2134
2133
2135
2150
2176
2201
2193
2185
2172
2145
2115
2085
2089
2105
2121
2150
2155
2181
2199
2176
2144
2121
2128
2145
2155
2141
2119
2132
2168
2197
2176
2151
2145
2144
2135
2121
2126
2165
2181
2148
2107
2122
2147
2124
2103
2112
2100
2083
2087
2109
2135
2177
2216
2211
2182
2131
2083
2051
2048
2055
2067
2072
2079
2055
2033
2043
2070
2130
2148
2137
2142
2151
2156
2163
2155
2154
2167
2167
2153
2118
2094
2087
2070
2041
2035
2056
2076
2096
2107
2114
2124
2132
2125
2118
2106
2119
2152
2179
2172
2175
2198
2183
2145
2088
2069
2083
2103
2105
2102
2116
2140
2173
2195
2191
2170
2134
2118
2134
2115
2089
2088
2108
2111
2087
2075
2086
2112
2119
2139
2150
2132
2124
2119
2119
2123
2119
2123
2128
2130
2135
2152
2161
2146
2147
2184
2207
2199
2193
2193
2205
2244
2307
2348
2349
2326
2301
2304
2318
2310
2263
2219
2199
2192
2188
2232
2301
2349
2359
2315
2257
2219
2217
2236
2256
2276
2283
2302
2308
2286
2268
2244
2226
2240
2269
2286
2310
2349
2353
2318
2291
2304
2304
2274
2276
2286
2275
2261
2253
2254
2272
2280
2276
2279
2269
2254
2229
2234
2263
2284
2261
2247
2272
2299
2303
2287
2270
2251
2241
2254
2296
2316
2287
2234
2196
2186
2179
2177
2160
2134
2144
2173
2201
2201
2194
2194
2192
2186
2184
2203
2213
2200
2178
2185
2176
2146
2117
2117
2111
2102
2087
2083
2107
2155
2168
2153
2144
2162
2173
2145
2091
2059
2081
2097
2089
2096
2125
2169
2197
2215
2197
2161
2146
2151
2157
2149
2127
2094
2079
2082
2111
2140
2136
2112
2083
2066
2058
2034
1997
1997
2042
2088
2117
2123
2118
2112
2112
2129
2144
2168
2183
2179
2178
2186
2157
2113
2093
2069
2029
1978
1952
1941
1977
2034
2087
2110
2119
2125
2129
2124
2099
2091
2103
2104
2093
2103
2120
2135
2166
2201
2218
2196
2175
2158
2147
2138
2117
2107
2114
2112
2112
2113
2114
2095
2066
2032
2042
2077
2092
2101
2130
2161
2173
2156
2148
2145
2119
2096
2087
2101
2114
2124
2143
2125
2082
2053
2040
2033
2054
2102
2145
2166
2179
2182
2171
2180
2178
2159
2162
2149
2116
2096
2099
2115
2098
2072
2062
2073
2091
2111
2141
2174
2188
2165
2115
2084
2095
2088
2048
2035
2063
2084
2116
2138
2129
2095
2061
2082
2120
2142
2127
2106
2113
2139
2138
2121
2136
2177
2193
2175
2129
2096
2091
2084
2077
2067
2069
2067
2079
2102
2121
2147
2192
2218
2215
2196
2186
2165
2121
2112
2113
2110
2112
2111
2086
2039
2011
2019
2043
2074
2106
2132
2150
2145
2113
2084
2087
2115
2167
2189
2167
2124
2110
2088
2059
2056
2074
2089
2089
2104
2135
2171
2190
2201
2206
2221
2230
2198
2166
2172
2190
2192
2172
2140
2124
2139
2151
2131
2097
2106
2124
2143
2167
2185
2199
2185
2169
2145
2130
2106
2072
2086
2119
2130
2085
2042
2044
2074
2103
2118
2144
2172
2214
2240
2218
2170
2131
2079
2004
1984
2024
2072
2116
2141
2152
2126
2096
2079
2071
2078
2066
2071
2106
2125
2135
2154
2160
2157
2120
2081
2086
2095
2102
2110
2124
2155
2187
2214
2201
2148
2120
2125
2121
2108
2097
2109
2139
2153
2142
2138
2135
2133
2131
2118
2112
2110
2108
2115
2127
2140
2151
2162
2188
2206
2168
2122
2126
2143
2136
2132
2153
2180
2176
2156
2136
2116
2095
2097
2122
2173
2260
2339
2393
2395
2354
2295
2238
2235
2286
2368
2429
2470
2465
2431
2397
2377
2365
2328
2267
2201
2156
2126
2099
2067
2032
1991
1965
1955
1897
1816
1772
1763
1785
1810
1811
1811
1854
1908
1943
1969
1979
1990
2002
2020
2033
2040
2059
2081
2059
2021
2007
1995
1956
1936
1962
2003
2015
2023
2050
2089
2106
2086
2069
2080
2095
2059
2006
1979
1980
1985
1989
2003
2014
2002
2004
1998
1975
1970
1987
1998
2002
2025
2051
2067
2072
2057
2029
2015
2015
2006
2009
1997
1980
1994
2003
1996
1975
1973
1993
2036
2069
2095
2119
2131
2132
2115
2108
2112
2091
2040
2013
2044
2077
2066
2021
1979
1975
1971
1970
1982
2001
2034
2066
2075
2073
2084
2074
2035
2005
1986
1975
1970
1987
2016
2040
2043
2027
2008
1999
2014
2042
2082
2085
2076
2054
2032
2032
2048
2065
2078
2091
2098
2082
2062
2078
2070
2035
2000
1993
1985
2004
2030
2020
1998
1953
1967
2039
2093
2104
2100
2109
2103
2091
2083
2078
2085
2106
2122
2131
2127
2140
2155
2146
2106
2072
2052
2067
2108
2112
2089
2066
2029
2030
2064
2091
2097
2088
2073
2057
2041
2058
2097
2125
2129
2138
2136
2130
2120
2111
2109
2106
2133
2169
2140
2099
2073
2077
2127
2157
2143
2135
2130
2146
2174
2175
2158
2143
2128
2127
2121
2115
2103
2103
2085
2069
2087
2112
2129
2150
2182
2188
2180
2140
2099
2089
2107
2122
2132
2167
2223
2223
2174
2144
2115
2074
2072
2108
2133
2147
2146
2145
2153
2142
2144
2156
2147
2128
2115
2135
2169
2168
2144
2137
2129
2108
2070
2070
2095
2127
2160
2171
2167
2139
2116
2112
2115
2127
2143
2142
2137
2131
2105
2074
2068
2054
2022
2003
2014
2030
2030
2029
2048
2049
2039
2025
2035
2061
2083
2069
2056
2078
2111
2090
2025
1969
1965
1979
1986
1996
1996
2000
2004
2017
2030
2026
2041
2083
2138
2170
2147
2102
2068
2066
2056
2029
2016
2000
1983
1977
1999
2039
2082
2106
2117
2122
2107
2082
2089
2115
2139
2140
2119
2081
2053
2046
2024
2009
2000
2002
2041
2073
2095
2136
2169
2197
2222
2236
2211
2166
2129
2125
2121
2096
2088
2096
2109
2122
2127
2119
2088
2056
2048
2058
2067
2053
2047
2070
2076
2081
2114
2155
2173
2139
2098
2088
2094
2106
2132
2170
2174
2155
2119
2118
2131
2123
2106
2094
2102
2121
2104
2101
2110
2123
2133
2116
2100
2090
2097
2126
2145
2124
2096
2099
2119
2115
2111
2104
2093
2097
2103
2096
2066
2059
2089
2091
2069
2060
2079
2093
2082
2086
2081
2082
2102
2110
2099
2108
2109
2088
2074
2074
2090
2125
2157
2135
2063
1997
1974
1977
2009
2053
2105
2167
2177
2151
2144
2150
2115
2091
2092
2110
2097
2095
2099
2090
2082
2084
2097
2081
2051
2044
2055
2057
2056
2075
2105
2130
2124
2112
2128
2138
2150
2144
2123
2104
2096
2097
2110
2118
2131
2131
2123
2139
2168
2166
2157
2139
2107
2078
2060
2054
2055
2069
2082
2087
2091
2111
2147
2168
2202
2227
2199
2189
2196
2188
2173
2177
2162
2125
2090
2068
2078
2112
2158
2163
2133
2089
2060
2088
2144
2187
2206
2204
2166
2097
2070
2081
2108
2117
2092
2091
2101
2075
2081
2109
2118
2088
2083
2092
2084
2065
2070
2092
2100
2121
2151
2141
2107
2095
2073
2056
2068
2084
2065
2038
2020
2029
2053
2090
2114
2119
2111
2112
2109
2109
2125
2116
2080
2046
2053
2043
2004
1979
1958
1938
1935
1961
1991
2003
2018
2041
2084
2107
2115
2120
2108
2078
2033
1995
1989
2006
2030
2034
2018
1978
1951
1962
1993
2006
1994
1982
1978
2007
2044
2047
2042
2031
1994
1961
1967
2003
2041
2069
2087
2081
2073
2079
2118
2136
2120
2120
2113
2107
2135
2174
2210
2255
2282
2294
2302
2307
2309
2294
2260
2227
2221
2199
2159
2119
2092
2060
2013
1959
1905
1852
1821
1815
1825
1831
1828
1822
1821
1819
1793
1770
1786
1830
1887
1934
1956
1965
1946
1930
1927
1937
1944
1968
1981
1978
1979
1988
1998
1981
1953
1944
1968
1970
1932
1929
1979
2030
2060
2071
2074
2045
2006
2011
2031
2044
2069
2100
2114
2087
2025
1975
1961
1964
1983
2008
2021
2035
2039
2053
2060
2053
2055
2069
2082
2085
2073
2042
2029
2035
2035
2057
2081
2061
2043
2051
2075
2100
2129
2155
2156
2127
2093
2075
2095
2131
2113
2055
2037
2043
2068
2063
2078
2088
2090
2111
2151
2167
2140
2098
2088
2101
2123
2148
2163
2149
2110
2111
2109
2094
2078
2065
2071
2095
2106
2098
2092
2087
2087
2085
2079
2102
2124
2121
2154
2179
2180
2187
2192
2191
2185
2197
2187
2181
2196
2223
2235
2220
2196
2182
2187
2177
2159
2148
2189
2239
2250
2226
2223
2235
2251
2261
2257
2233
2224
2232
2236
2253
2256
2235
2213
2224
2238
2229
2221
2212
2203
2211
2227
2245
2246
2231
2242
2273
2293
2286
2264
2245
2240
2277
2317
2345
2353
2335
2317
2315
2310
2309
2304
2288
2263
2250
2262
2275
2285
2315
2340
2321
2282
2264
2281
2290
2303
2303
2261
2218
2238
2303
2347
2328
2257
2252
2306
2301
2275
2260
2259
2269
2305
2344
2334
2305
2271
2246
2234
2233
2250
2287
2322
2323
2341
2352
2342
2318
2291
2265
2249
2256
2290
2323
2300
2233
2188
2193
2228
2283
2284
2272
2264
2243
2209
2157
2138
2155
2158
2154
2164
2175
2150
2114
2093
2115
2158
2191
2193
2170
2134
2109
2125
2149
2139
2106
2086
2085
2068
2031
2025
2054
2087
2132
2150
2119
2056
2040
2045
2033
2039
2049
2079
2112
2102
2049
1999
1997
1999
2007
2021
2021
2014
2009
2015
2029
2044
2038
2029
2029
2056
2090
2104
2094
2076
2014
1919
1851
1851
1874
1894
1927
1944
1958
1972
1977
1966
1945
1943
1963
1955
1922
1913
1936
1932
1912
1890
1871
1868
1866
1882
1914
1916
1919
1936
1968
2022
2069
2092
2061
1999
1975
1970
1939
1891
1871
1879
1875
1888
1922
1957
1977
1981
1993
2002
1993
1996
2011
2003
1996
2015
2040
2038
2009
1986
1938
1877
1872
1900
1908
1908
1926
1961
1979
1969
1958
1931
1901
1900
1916
1927
1945
1957
1958
1951
1936
1927
1934
1940
1961
2015
2055
2077
2091
2096
2054
1969
1881
1838
1852
1903
1950
1965
1989
1994
1959
1897
1862
1865
1892
1920
1939
1985
2021
2014
2020
2009
2004
2001
1979
1964
1988
2020
2017
1985
1962
1952
1953
1936
1912
1897
1912
1940
1966
1973
1969
1979
1977
1982
2003
2040
2068
2049
2016
1994
1984
1961
1929
1905
1912
1929
1959
2000
2037
2067
2060
2015
1965
1930
1943
1990
2009
1991
1999
2021
2014
1984
1963
1960
1951
1949
1966
1975
1971
1959
1951
1934
1927
1959
1997
2019
2025
2030
2024
1999
1985
1975
1957
1942
1944
1970
2012
2066
2100
2096
2070
2025
2017
2003
1965
1959
1969
1976
1990
1976
1933
1910
1918
1932
1954
2004
2055
2084
2080
2050
2032
2048
2077
2094
2116
2096
2071
2067
2082
2069
2083
2095
2069
2017
1991
1975
1974
1996
2009
1981
1946
1952
1949
1922
1904
1912
1942
1972
1993
1989
1971
1965
1952
1935
1956
1981
1994
2016
2027
2048
2036
2006
1983
1960
1951
1946
1942
1938
1920
1928
1973
1999
1986
1987
1984
1987
2004
2019
2014
1995
1982
1980
1974
1990
2044
2093
2130
2104
2052
2034
2044
2039
2009
1986
1980
1975
1976
1985
1997
2007
2002
1986
1982
1971
1968
1983
1999
2026
2058
2070
2065
2044
2013
1993
2011
2033
2070
2108
2117
2107
2096
2088
2089
2113
2139
2127
2077
2024
1997
2008
2025
2056
2092
2093
2083
2108
2165
2202
2223
2245
2286
2319
2358
2374
2366
2373
2392
2405
2382
2333
2275
2204
2141
2082
2050
2028
1989
1962
1950
1897
1831
1803
1772
1736
1750
1773
1787
1789
1783
1757
1755
1789
1829
1867
1924
1967
1976
1977
2001
2043
2055
2006
1962
1975
1991
1954
1923
1912
1905
1889
1851
1821
1821
1862
1899
1910
1921
1936
1967
1982
1985
1984
1991
1995
1990
1979
1969
1974
1980
1995
2025
2036
2006
1965
1926
1912
1939
1973
1996
2025
2040
2037
2024
2027
2015
1991
1960
1934
1942
1965
1975
1983
1992
1998
2003
2013
2029
2036
2038
2049
2042
2036
2023
2006
2003
2013
2022
2014
1990
1966
1975
1979
1988
1997
1987
1993
2007
2017
2021
1998
1973
1986
1996
1992
2006
2019
2022
2034
2056
2037
2020
2043
2096
2108
2058
2008
1993
2010
2039
2096
2123
2089
2034
2016
2066
2113
2120
2119
2129
2103
2071
2061
2061
2079
2133
2178
2206
2221
2210
2173
2152
2174
2246
2294
2316
2308
2273
2258
2245
2243
2235
2238
2261
2300
2297
2261
2235
2222
2243
2259
2249
2234
2229
2259
2310
2353
2354
2347
2338
2346
2330
2311
2317
2325
2306
2296
2298
2298
2317
2375
2424
2430
2402
2380
2357
2354
2360
2342
2320
2321
2336
2334
2302
2269
2243
2238
2247
2252
2246
2266
2286
2286
2271
2272
2280
2278
2257
2233
2232
2231
2200
2157
2147
2160
2189
2213
2204
2196
2178
2148
2119
2088
2099
2134
2150
2142
2111
2078
2070
2083
2095
2082
2065
2063
2084
2099
2111
2129
2149
2158
2118
2058
2033
2067
2089
2066
1998
1948
1952
1972
1984
2006
2032
2034
2012
1982
1973
1995
2025
2024
1992
1941
1900
1888
1867
1822
1783
1771
1764
1774
1793
1822
1854
1846
1825
1780
1735
1712
1698
1692
1685
1690
1694
1695
1681
1638
1628
1659
1672
1648
1606
1590
1589
1570
1522
1496
1539
1573
1563
1532
1512
1496
1484
1479
1452
1439
1438
1449
1475
1487
1491
1492
1479
1468
1484
1499
1479
1467
1464
1466
1458
1447
1432
1410
1415
1443
1461
1473
1470
1467
1473
1486
1497
1498
1499
1496
1506
1508
1477
1442
1429
1448
1480
1499
1493
1485
1500
1513
1528
1516
1485
1474
1494
1528
1550
1543
1510
1491
1489
1488
1480
1456
1430
1414
1429
1467
1501
1500
1476
1463
1489
1515
1538
1572
1591
1577
1569
1560
1552
1544
1563
1574
1569
1571
1565
1558
1546
1511
1500
1519
1522
1488
1460
1455
1500
1570
1622
1650
1651
1651
1664
1671
1670
1678
1704
1709
1699
1685
1678
1657
1629
1615
1613
1644
1684
1716
1732
1744
1759
1756
1730
1704
1692
1698
1719
1731
1739
1735
1721
1701
1703
1691
1691
1693
1690
1719
1719
1710
1750
1789
1826
1887
1936
1951
1951
1931
1921
1902
1879
1875
1879
1889
1904
1928
1964
1974
1962
1955
1958
1967
1993
2034
2071
2090
2104
2128
2143
2145
2137
2131
2131
2140
2137
2143
2173
2203
2204
2188
2181
2147
2091
2075
2116
2217
2298
2344
2363
2369
2335
2285
2300
2360
2426
2476
2496
2461
2414
2384
2391
2419
2463
2475
2463
2459
2430
2394
2360
2318
2256
2192
2175
2192
2254
2338
2411
2427
2411
2411
2424
2451
2453
2433
2420
2429
2459
2469
2455
2444
2411
2370
2338
2366
2392
2376
2359
2339
2303
2255
2255
2297
2321
2310
2307
2330
2378
2417
2435
2435
2436
2447
2470
2486
2486
2507
2542
2582
2631
2701
2761
2784
2783
2776
2790
2808
2837
2897
2964
2989
2967
2920
2879
2879
2917
2977
3047
3073
3014
3001
3062
3105
3128
3145
3167
3206
3225
3239
3272
3306
3329
3346
3378
3409
3437
3478
3532
3597
3649
3673
3704
3760
3820
3882
3912
3929
3934
3935
3932
3928
3926
3919
3915
3909
3903
3898
3893
3886
3880
3875
3870
3864
3860
3855
3848
3844
3837
3834
3827
3822
3819
3811
3808
3802
3796
3793
3785
3782
3777
3755
3746
3717
3704
3684
3644
3594
3557
3526
3508
3504
3474
3401
3324
3292
3301
3297
3254
3226
3206
3169
3142
3114
3089
3089
3105
3092
3088
3086
3056
3017
2971
2917
2881
2877
2881
2891
2899
2905
2936
2962
2978
2988
3028
3073
3068
3024
2995
2993
2995
2971
2917
2857
2799
2727
2656
2582
2503
2472
2469
2487
2505
2461
2380
2311
2261
2210
2130
2047
2044
2105
2195
2282
2371
2438
2465
2460
2443
2469
2534
2570
2553
2536
2515
2475
2438
2416
2408
2396
2400
2416
2424
2403
2363
2336
2319
2309
2301
2267
2219
2183
2166
2166
2170
2183
2214
2216
2187
2137
2075
2015
1982
1978
1976
1982
1970
1950
1954
1952
1936
1922
1921
1944
1962
1948
1902
1865
1862
1886
1905
1896
1858
1824
1793
1782
1808
1843
1886
1909
1900
1894
1913
1916
1870
1815
1764
1751
1771
1802
1828
1811
1770
1735
1726
1746
1754
1761
1746
1724
1737
1734
1727
1722
1710
1710
1726
1735
1730
1705
1680
1692
1723
1727
1722
1732
1735
1708
1714
1725
1725
1737
1741
1733
1738
1745
1724
1685
1673
1666
1684
1737
1747
1750
1761
1731
1702
1704
1740
1748
1736
1762
1796
1802
1760
1712
1707
1727
1766
1799
1828
1850
1843
1805
1776
1780
1772
1753
1740
1757
1779
1793
1794
1800
1806
1803
1780
1746
1754
1773
1777
1775
1765
1758
1760
1757
1780
1812
1826
1839
1853
1862
1877
1882
1880
1890
1882
1864
1856
1850
1851
1848
1862
1896
1936
1951
1908
1872
1857
1849
1842
1833
1844
1873
1913
1940
1949
1939
1919
1924
1945
1955
1945
1933
1943
1938
1911
1925
1967
2010
2020
1994
1962
1949
1962
1974
1981
2010
2023
2002
1960
1943
1950
1929
1914
1902
1904
1906
1898
1900
1908
1911
1910
1904
1880
1873
1894
1928
1923
1904
1923
1946
1957
1935
1910
1904
1904
1887
1879
1892
1920
1940
1936
1952
1959
1957
1970
1979
2005
2020
2004
1979
1978
1970
1926
1885
1859
1845
1834
1822
1821
1841
1852
1873
1906
1908
1894
1877
1865
1848
1843
1866
1877
1857
1846
1840
1845
1848
1861
1879
1895
1905
1912
1904
1917
1946
1961
1958
1935
1920
1898
1867
1833
1823
1839
1861
1873
1862
1862
1868
1868
1895
1914
1918
1928
1926
1930
1933
1948
1949
1912
1854
1826
1856
1863
1835
1825
1826
1821
1812
1820
1857
1903
1936
1914
1879
1875
1877
1877
1884
1900
1898
1886
1897
1924
1910
1877
1895
1951
1971
1921
1880
1865
1867
1889
1913
1911
1891
1882
1892
1911
1917
1911
1901
1890
1894
1902
1900
1905
1914
1912
1925
1959
1987
1961
1906
1861
1850
1877
1913
1924
1926
1936
1930
1902
1872
1844
1862
1914
1947
1950
1939
1923
1951
1979
1960
1912
1864
1837
1852
1893
1933
1898
1841
1821
1845
1874
1883
1888
1907
1925
1932
1934
1904
1887
1908
1921
1904
1899
1890
1895
1879
1850
1832
1818
1806
1815
1834
1850
1860
1859
1896
1926
1930
1946
1943
1923
1911
1900
1887
1893
1912
1918
1909
1888
1864
1840
1832
1848
1884
1919
1947
1973
1991
1996
1992
1984
1964
1948
1918
1885
1875
1874
1863
1826
1791
1765
1733
1742
1778
1818
1880
1916
1918
1918
1920
1905
1896
1913
1928
1925
1912
1891
1879
1864
1834
1811
1832
1876
1908
1943
1953
1909
1868
1853
1834
1825
1818
1814
1795
1799
1811
1814
1817
1834
1850
1830
1815
1836
1854
1864
1883
1901
1899
1894
1916
1941
1954
1944
1934
1965
1979
1955
1904
1855
1849
1866
1865
1860
1867
1881
1893
1934
1985
2020
2014
1997
1997
2025
2039
2022
1976
1896
1861
1885
1906
1894
1870
1830
1814
1828
1858
1907
1958
2004
2028
2026
1986
1943
1920
1904
1875
1834
1798
1802
1829
1854
1855
1843
1838
1846
1838
1870
1918
1955
1981
2016
2002
1963
1926
1931
1967
1992
1968
1903
1842
1792
1750
1748
1793
1858
1904
1903
1897
1883
1838
1772
1716
1687
1709
1748
1762
1745
1755
1768
1773
1768
1761
1800
1855
1857
1875
1922
1930
1890
1857
1839
1824
1823
1825
1828
1855
1878
1877
1876
1871
1848
1812
1772
1760
1771
1800
1821
1833
1848
1862
1878
1865
1869
1861
1808
1752
1753
1798
1849
1870
1851
1844
1866
1860
1872
1905
1957
2015
2041
2038
2050
2076
2084
2080
2098
2116
2131
2176
2253
2316
2297
2197
2079
1998
1944
1900
1910
1940
1942
1892
1800
1700
1609
1526
1475
1483
1518
1550
1586
1618
1645
1649
1618
1604
1590
1603
1643
1661
1646
1654
1722
1773
1802
1822
1866
1883
1856
1795
1745
1733
1744
1772
1804
1807
1779
1752
1754
1764
1756
1725
1693
1683
1695
1738
1770
1761
1726
1711
1716
1725
1706
1669
1675
1708
1752
1788
1796
1795
1799
1801
1816
1833
1834
1840
1847
1837
1819
1788
1724
1683
1701
1745
1799
1846
1868
1846
1820
1811
1810
1819
1802
1765
1741
1722
1715
1731
1769
1804
1819
1832
1869
1890
1848
1771
1700
1679
1728
1776
1776
1756
1752
1738
1744
1743
1740
1742
1743
1729
1717
1742
1773
1791
1788
1794
1821
1850
1851
1830
1819
1810
1817
1844
1878
1894
1897
1914
1916
1892
1869
1855
1848
1852
1862
1879
1881
1849
1812
1778
1800
1845
1871
1858
1824
1771
1758
1756
1730
1705
1708
1705
1716
1733
1753
1766
1788
1798
1786
1801
1796
1766
1731
1766
1807
1781
1804
1849
1866
1844
1824
1830
1841
1832
1834
1863
1881
1882
1901
1914
1911
1895
1891
1908
1910
1907
1923
1974
2020
2014
1985
1946
1950
1972
1981
1966
1971
2023
2067
2071
2054
2011
1932
1873
1893
1944
1982
1979
1969
1966
1975
1995
2015
2030
2051
2067
2068
2071
2089
2091
2104
2144
2127
2076
2020
2009
2004
1992
1970
1944
1941
1967
2038
2077
2084
2103
2102
2114
2144
2169
2158
2177
2205
2172
2119
2085
2081
2083
2077
2067
2025
2006
2022
2054
2087
2109
2094
2061
2054
2051
2046
2049
2060
2056
2018
1999
1997
2003
2023
2042
2054
2042
2026
2011
2011
2046
2065
2044
2016
1992
1993
2000
2019
2062
2075
2079
2081
2054
2007
1952
1903
1899
1932
1951
1951
1965
1980
2003
2026
2030
2069
2149
2175
2095
1990
1918
1892
1888
1872
1885
1904
1912
1934
1943
1973
2022
2073
2118
2116
2099
2088
2068
2050
2013
1976
1989
2021
2049
2074
2069
2049
2036
2035
2028
2047
2071
2092
2088
2092
2091
2076
2087
2113
2106
2071
2030
1978
1928
1931
1969
1992
1982
1995
2044
2084
2076
2077
2085
2069
2056
2053
2062
2086
2079
2057
2038
2019
1996
1996
1997
1990
1967
1958
1979
1993
2001
2018
2026
2025
2010
2017
2053
2064
2007
1978
2006
2040
2016
1984
1961
1953
1967
1970
1962
1944
1925
1939
2000
2059
2069
2016
1941
1901
1926
1999
2053
2084
2069
2034
2008
1950
1884
1858
1842
1837
1842
1864
1892
1908
1926
1947
1957
1940
1922
1913
1938
1931
1928
1936
1927
1927
1930
1904
1858
1828
1851
1897
1952
1989
1985
1962
1944
1959
1996
2015
1972
1924
1921
1923
1897
1850
1806
1808
1856
1906
1944
1983
1994
1986
1970
1971
1958
1946
1965
1964
1929
1913
1951
1950
1897
1875
1896
1924
1943
1948
1949
1953
1957
1972
1998
2019
2035
2060
2075
2082
2084
2086
2082
2061
2030
1993
1939
1948
1985
1980
1984
1996
2016
2049
2072
2085
2086
2113
2112
2080
2040
1981
1914
1866
1838
1835
1836
1858
1891
1888
1850
1811
1800
1828
1871
1902
1886
1861
1866
1866
1868
1876
1878
1897
1919
1939
1949
1935
1943
1972
1976
1942
1912
1912
1916
1925
1944
1926
1890
1875
1896
1894
1878
1836
1817
1838
1864
1898
1900
1879
1852
1858
1927
2008
2038
2025
2008
2012
2014
2012
2024
2022
1976
1952
1952
1950
1928
1893
1875
1908
1948
1945
1914
1914
1938
1946
1939
1942
1964
1981
2000
2013
2013
2023
2006
1970
1946
1936
1923
1940
1976
2025
2074
2089
2103
2117
2126
2123
2141
2161
2167
2158
2148
2218
2301
2306
2259
2225
2234
2243
2254
2292
2335
2364
2374
2350
2304
2266
2238
2223
2205
2147
2052
1968
1887
1814
1755
1686
1614
1595
1622
1699
1780
1815
1838
1838
1814
1821
1840
1862
1901
1949
1986
1989
1985
1966
1945
1925
1923
1967
2033
2043
2006
1991
2002
1981
1947
1952
1982
1995
1996
1992
1987
1975
1998
2024
2049
2062
2039
1998
1973
1962
1990
2051
2111
2150
2165
2136
2071
1999
1933
1929
1967
1978
2015
2051
2042
1993
1950
1925
1922
1947
1972
1991
2012
2018
2021
2035
2034
2026
2024
2023
2014
2003
2001
1997
2000
2018
2019
2011
2018
2060
2103
2102
2082
2067
2080
2085
2052
2017
2038
2046
2009
1966
1965
1981
1985
1963
1929
1951
1981
1991
1993
2027
2063
2072
2058
2022
2001
2020
2025
2038
2080
2121
2110
2059
2020
2031
2054
2060
2052
2043
2045
2068
2083
2095
2115
2126
2124
2111
2117
2131
2117
2098
2077
2056
2044
2036
2043
2065
2096
2134
2159
2159
2176
2168
2135
2101
2092
2091
2072
2048
2035
2052
2075
2069
2047
2043
2053
2063
2093
2131
2152
2171
2169
2154
2150
2153
2175
2212
2230
2225
2213
2175
2138
2139
2149
2165
2162
2158
2184
2226
2251
2279
2307
2324
2319
2302
2257
2204
2172
2159
2153
2182
2217
2238
2247
2238
2225
2206
2196
2205
2216
2228
2246
2229
2240
2267
2284
2286
2270
2255
2262
2271
2258
2233
2219
2209
2199
2189
2184
2180
2191
2209
2222
2217
2202
2199
2227
2244
2252
2262
2288
2288
2278
2249
2225
2207
2193
2181
2161
2155
2143
2141
2157
2185
2187
2171
2194
2235
2254
2230
2193
2162
2129
2112
2099
2078
2058
2071
2103
2117
2124
2136
2125
2102
2088
2084
2078
2066
2081
2074
2051
2057
2070
2056
2056
2068
2049
1984
1928
1934
2007
2055
2048
2039
2032
2034
2057
2054
2034
2023
2046
2080
2068
2048
2059
2076
2091
2089
2092
2106
2110
2113
2109
2103
2116
2121
2118
2110
2092
2082
2054
2017
2020
2028
2027
2029
2019
2023
2070
2119
2156
2160
2163
2177
2151
2116
2088
2063
2075
2099
2092
2070
2032
2011
2028
2054
2067
2081
2088
2097
2122
2146
2170
2151
2088
2045
2044
2060
2076
2081
2083
2077
2053
2051
2059
2069
2079
2087
2084
2099
2134
2167
2183
2178
2191
2210
2204
2191
2149
2108
2109
2112
2117
2131
2122
2108
2107
2109
2096
2099
2142
2192
2226
2230
2222
2224
2226
2238
2233
2213
2190
2172
2162
2156
2151
2144
2118
2088
2105
2135
2141
2147
2176
2188
2195
2222
2244
2254
2237
2216
2192
2178
2194
2203
2198
2188
2176
2178
2169
2165
2191
2230
2263
2279
2276
2266
2240
2211
2200
2210
2217
2223
2213
2202
2214
2213
2230
2259
2283
2321
2363
2375
2365
2331
2297
2287
2282
2278
2279
2255
2217
2177
2146
2142
2144
2137
2137
2144
2152
2164
2179
2181
2197
2214
2204
2182
2157
2126
2101
2078
2078
2100
2096
2073
2024
1994
2017
2049
2065
2073
2082
2091
2099
2080
2058
2043
2032
2001
1987
1990
1980
1972
1979
1974
1954
1945
1953
1932
1877
1825
1818
1839
1842
1848
1872
1866
1843
1844
1850
1867
1874
1862
1824
1770
1744
1759
1777
1782
1796
1810
1821
1842
1852
1844
1829
1827
1839
1829
1814
1828
1847
1838
1818
1815
1814
1807
1800
1809
1842
1866
1896
1941
1916
1850
1802
1777
1799
1855
1876
1873
1852
1832
1854
1883
1873
1867
1888
1901
1915
1929
1954
1972
1986
1998
1990
1960
1921
1906
1907
1895
1875
1861
1855
1872
1897
1889
1901
1940
1986
2008
2007
2028
2075
2111
2123
2136
2161
2182
2182
2174
2178
2197
2213
2227
2243
2252
2257
2255
2236
2204
2172
2156
2143
2108
2052
1979
1894
1816
1766
1733
1675
1615
1589
1596
1609
1639
1663
1681
1702
1711
1737
1763
1782
1799
1820
1828
1818
1797
1797
1797
1780
1775
1773
1793
1819
1835
1828
1778
1720
1701
1739
1790
1807
1802
1791
1780
1776
1767
1747
1730
1733
1755
1773
1772
1754
1742
1743
1754
1772
1797
1812
1826
1835
1844
1850
1860
1870
1868
1862
1853
1846
1862
1863
1846
1828
1811
1783
1758
1777
1831
1897
1949
1971
1960
1954
1948
1952
1962
1959
1957
1948
1906
1874
1878
1867
1870
1900
1930
1945
1960
1983
2011
2021
2021
2034
2037
2025
2007
2002
2002
1998
1996
1999
1990
1976
1957
1951
1958
1997
2045
2045
2044
2059
2074
2075
2086
2103
2119
2137
2156
2173
2202
2209
2189
2157
2148
2172
2199
2214
2223
2231
2251
2279
2301
2307
2293
2282
2276
2284
2282
2285
2282
2272
2269
2255
2239
2263
2272
2267
2291
2310
2305
2293
2298
2318
2328
2321
2315
2314
2318
2307
2299
2297
2313
2312
2317
2318
2312
2321
2330
2339
2332
2325
2328
2338
2311
2277
2296
2335
2363
2379
2388
2385
2380
2386
2377
2364
2367
2396
2410
2404
2412
2425
2414
2382
2366
2375
2396
2410
2410
2384
2392
2423
2420
2402
2382
2362
2349
2333
2338
2356
2394
2412
2409
2391
2381
2381
2372
2368
2360
2371
2385
2375
2373
2369
2347
2345
2369
2389
2378
2371
2390
2379
2355
2334
2325
2319
2313
2304
2321
2335
2326
2314
2294
2277
2265
2269
2275
2265
2240
2246
2262
2282
2270
2245
2228
2219
2219
2205
2183
2156
2142
2126
2110
2099
2086
2075
2076
2082
2074
2071
2088
2132
2199
2201
2157
2089
2046
2063
2103
2108
2083
2073
2078
2071
2043
2015
2015
2031
2041
2040
2056
2080
2106
2099
2056
2021
2017
2030
2008
1983
1982
1967
1931
1894
1877
1853
1815
1827
1870
1911
1939
1937
1913
1887
1875
1882
1904
1903
1889
1874
1882
1886
1876
1847
1831
1826
1822
1828
1880
1940
1945
1907
1847
1797
1777
1810
1857
1901
1938
1934
1889
1841
1824
1823
1815
1822
1844
1859
1839
1816
1803
1795
1790
1785
1789
1806
1818
1826
1824
1821
1805
1776
1757
1763
1791
1826
1858
1863
1843
1831
1828
1807
1780
1758
1754
1769
1773
1778
1804
1805
1796
1798
1791
1802
1832
1847
1845
1865
1881
1872
1869
1871
1877
1896
1912
1914
1922
1943
1955
1958
1953
1922
1889
1875
1855
1836
1839
1868
1894
1899
1903
1910
1914
1917
1912
1914
1937
1971
1982
1978
2002
2045
2074
2059
1983
1914
1889
1902
1934
1966
1994
1999
2012
2013
2001
1970
1936
1915
1921
1951
1983
2006
2015
2017
2012
2024
2064
2116
2171
2188
2172
2131
2083
2074
2093
2122
2160
2192
2215
2241
2265
2272
2271
2279
2299
2322
2318
2318
2341
2373
2388
2381
2360
2345
2365
2390
2414
2446
2476
2491
2515
2539
2530
2488
2445
2441
2447
2443
2438
2472
2542
2592
2591
2549
2545
2576
2549
2481
2439
2439
2448
2468
2490
2503
2495
2482
2489
2507
2512
2510
2485
2481
2511
2538
2574
2588
2572
2542
2518
2524
2557
2591
2584
2569
2562
2548
2562
2575
2584
2606
2620
2619
2624
2642
2658
2661
2656
2646
2638
2631
2630
2630
2627
2629
2637
2673
2734
2746
2722
2722
2721
2673
2620
2618
2624
2624
2617
2583
2542
2570
2629
2662
2681
2675
2636
2612
2607
2612
2633
2668
2696
2714
2744
2778
2779
2769
2775
2797
2818
2838
2860
2883
2906
2920
2897
2861
2877
2919
2968
2996
3016
3023
3020
3020
3019
2996
2956
2904
2864
2827
2755
2667
2612
2585
2552
2505
2461
2450
2475
2502
2512
2522
2554
2571
2558
2539
2535
2557
2594
2613
2613
2606
2589
2565
2556
2591
2628
2644
2637
2636
2655
2685
2707
2701
2698
2708
2719
2714
2700
2678
2637
2591
2560
2550
2561
2587
2607
2631
2641
2630
2631
2664
2688
2662
2623
2599
2598
2596
2584
2562
2542
2522
2512
2513
2516
2509
2497
2487
2506
2556
2603
2625
2634
2640
2646
2646
2641
2625
2619
2622
2580
2504
2448
2455
2464
2465
2465
2462
2490
2544
2602
2643
2656
2639
2619
2613
2597
2576
2562
2566
2583
2588
2593
2594
2596
2586
2564
2556
2554
2574
2605
2622
2613
2583
2529
2483
2472
2478
2498
2534
2570
2587
2560
2524
2508
2513
2507
2481
2474
2487
2515
2536
2536
2517
2503
2513
2525
2533
2551
2574
2541
2461
2373
2306
2308
2365
2436
2476
2460
2434
2421
2410
2404
2403
2388
2383
2399
2420
2415
2379
2333
2320
2326
2302
2269
2257
2236
2231
2249
2271
2271
2258
2266
2256
2216
2185
2153
2114
2077
2046
2046
2054
2038
2035
2027
2006
1984
1965
1948
1960
1984
1969
1929
1885
1850
1830
1844
1876
1899
1908
1881
1868
1868
1866
1861
1851
1837
1831
1816
1796
1791
1789
1790
1768
1746
1745
1767
1785
1800
1817
1834
1838
1850
1852
1832
1794
1767
1764
1785
1824
1849
1830
1803
1794
1788
1792
1803
1814
1800
1769
1725
1690
1695
1729
1788
1830
1815
1776
1751
1731
1720
1728
1726
1728
1722
1697
1678
1678
1689
1720
1757
1754
1728
1710
1685
1674
1675
1705
1741
1759
1772
1802
1795
1758
1726
1722
1721
1701
1684
1690
1709
1697
1661
1624
1604
1627
1640
1631
1649
1674
1703
1722
1737
1761
1781
1783
1769
1751
1754
1748
1726
1725
1734
1748
1763
1777
1796
1819
1847
1875
1913
1923
1862
1780
1723
1704
1728
1752
1770
1782
1776
1756
1740
1734
1743
1768
1786
1796
1806
1816
1801
1767
1730
1732
1768
1816
1843
1854
1851
1859
1844
1812
1790
1789
1788
1799
1804
1811
1829
1833
1835
1840
1856
1853
1837
1832
1837
1857
1884
1886
1862
1838
1850
1883
1923
1907
1858
1833
1853
1878
1898
1907
1866
1808
1780
1789
1813
1837
1848
1847
1833
1826
1833
1847
1852
1855
1864
1877
1885
1897
1911
1921
1938
1953
1961
1975
2001
2027
2028
2022
2026
2035
2020
1999
1983
1951
1936
1962
1986
1995
2007
2041
2075
2062
2022
2016
2029
2036
2057
2072
2083
2073
2045
2016
1993
2007
2047
2088
2102
2086
2070
2069
2096
2136
2167
2176
2169
2170
2158
2133
2122
2122
2125
2131
2137
2154
2171
2192
2213
2209
2191
2163
2137
2153
2188
2186
2165
2166
2181
2188
2185
2176
2160
2139
2147
2186
2226
2255
2257
2264
2298
2335
2368
2381
2357
2306
2245
2218
2237
2258
2239
2211
2195
2194
2203
2211
2222
2230
2241
2252
2256
2254
2255
2247
2234
2214
2203
2213
2230
2236
2240
2234
2204
2171
2152
2151
2169
2199
2221
2204
2182
2198
2218
2201
2168
2133
2111
2116
2127
2139
2156
2155
2139
2135
2138
2150
2173
2193
2172
2138
2121
2133
2154
2159
2146
2154
2206
2244
2193
2116
2093
2123
2147
2128
2107
2111
2123
2142
2163
2182
2189
2188
2170
2171
2186
2191
2180
2178
2177
2177
2182
2192
2223
2238
2222
2185
2175
2195
2217
2240
2249
2237
2221
2204
2201
2196
2185
2191
2217
2252
2271
2298
2337
2379
2407
2413
2416
2437
2471
2511
2542
2570
2589
2601
2612
2617
2601
2586
2554
2519
2487
2449
2414
2387
2330
2255
2188
2141
2104
2059
2020
2017
2040
2044
2033
2045
2076
2112
2119
2116
2124
2110
2105
2123
2154
2168
2142
2100
2087
2111
2140
2168
2192
2207
2199
2171
2144
2140
2147
2157
2157
2145
2131
2105
2080
2060
2056
2076
2093
2096
2076
2047
2026
2024
2014
2001
2022
2057
2081
2096
2100
2086
2065
2052
2052
2056
2062
2085
2109
2109
2106
2106
2099
2090
2078
2084
2092
2100
2107
2096
2079
2072
2080
2089
2095
2105
2115
2119
2124
2136
2156
2162
2155
2127
2111
2121
2167
2200
2141
2057
2018
2020
2025
2020
2011
2022
2032
2024
2019
2039
2049
2045
2044
2053
2064
2073
2083
2088
2090
2086
2088
2089
2088
2098
2096
2083
2061
2054
2088
2151
2215
2233
2208
2183
2189
2212
2253
2293
2319
2315
2315
2322
2342
2357
2376
2391
2419
2466
2505
2533
2553
2568
2554
2520
2484
2459
2429
2383
2336
2304
2274
2240
2214
2203
2184
2163
2149
2154
2162
2185
2224
2245
2251
2250
2256
2276
2313
2356
2387
2399
2414
2452
2486
2492
2502
2532
2564
2586
2622
2683
2742
2789
2820
2835
2854
2863
2857
2845
2831
2831
2830
2817
2801
2776
2773
2796
2842
2861
2853
2873
2893
2903
2926
2958
2987
3001
3008
3010
3031
3069
3107
3125
3124
3120
3105
3083
3065
3040
3002
2937
2865
2794
2723
2647
2582
2523
2478
2459
2463
2453
2432
2404
2373
2349
2322
2295
2279
2272
2273
2274
2281
2306
2322
2314
2293
2270
2260
2265
2261
2234
2199
2170
2144
2123
2106
2102
2127
2170
2217
2271
2313
2328
2323
2316
2322
2322
2302
2287
2282
2290
2302
2306
2308
2299
2302
2312
2341
2367
2384
2418
2460
2467
2437
2396
2353
2307
2268
2265
2289
2315
2318
2286
2249
2231
2237
2249
2267
2292
2292
2269
2258
2260
2259
2251
2248
2260
2265
2261
2264
2252
2208
2127
2055
2026
2046
2087
2119
2146
2177
2208
2214
2195
2182
2166
2155
2141
2125
2100
2078
2064
2055
2049
2060
2073
2080
2074
2079
2096
2122
2144
2168
2188
2195
2204
2202
2188
2174
2174
2179
2163
2151
2156
2165
2154
2130
2108
2101
2113
2139
2158
2156
2140
2138
2140
2136
2136
2134
2112
2080
2059
2032
2004
1993
2024
2055
2067
2105
2155
2157
2119
2082
2059
2051
2040
2024
2004
1994
1998
1993
1987
2001
2021
2030
2013
1990
1978
1974
1974
1979
1981
1993
2006
2005
2002
1994
1989
1993
2001
2004
1996
1990
1972
1949
1923
1894
1875
1854
1832
1857
1970
2078
2111
2081
2033
2032
2071
2118
2151
2160
2162
2148
2112
2071
2057
2067
2086
2119
2149
2171
2191
2212
2241
2283
2309
2321
2328
2302
2260
2231
2230
2250
2256
2237
2211
2202
2197
2205
2205
2180
2163
2165
2183
2216
2248
2275
2287
2279
2268
2256
2238
2221
2200
2186
2185
2166
2127
2109
2113
2129
2144
2145
2151
2173
2208
2227
2206
2166
2131
2112
2101
2094
2079
2071
2084
2101
2115
2115
2108
2112
2127
2128
2123
2123
2126
2139
2146
2134
2109
2087
2078
2086
2066
2043
2025
2008
2009
2034
2035
2026
2040
2061
2062
2044
2032
2034
2049
2078
2090
2071
2064
2062
2056
2049
2030
2004
1991
2008
2038
2073
2113
2142
2134
2120
2105
2080
2042
1998
1989
2003
2026
2053
2067
2059
2030
1995
1980
1995
2008
2032
2056
2075
2086
2087
2079
2065
2053
2053
2055
2069
2084
2069
2030
2006
2006
2016
2032
2049
2042
2022
2025
2045
2066
2084
2083
2072
2058
2050
2042
2030
2003
1979
1966
1958
1967
1972
1961
1950
1969
2006
2027
2050
2076
2090
2104
2093
2071
2058
2088
2153
2201
2229
2239
2216
2192
2164
2138
2150
2201
2253
2300
2335
2355
2360
2343
2309
2274
2228
2172
2121
2087
2071
2054
1999
1922
1848
1792
1742
1704
1687
1695
1712
1727
1727
1728
1734
1749
1763
1779
1793
1807
1817
1825
1836
1850
1843
1837
1844
1856
1864
1888
1906
1902
1896
1895
1881
1860
1843
1838
1840
1843
1857
1864
1879
1881
1890
1898
1881
1870
1872
1887
1914
1935
1956
1990
1999
1971
1948
1956
1977
1997
2014
2009
1998
1982
1964
1959
1979
2009
2032
2056
2067
2062
2060
2053
2050
2048
2047
2036
2014
2012
2008
1997
1992
2007
2021
2027
2041
2078
2097
2093
2095
2107
2116
2115
2096
2073
2050
2044
2045
2035
2030
2018
1995
1963
1955
1966
1978
1999
2015
2034
2060
2048
2029
2015
1993
1965
1945
1949
1965
1969
1963
1959
1940
1907
1884
1886
1898
1908
1907
1918
1939
1944
1936
1926
1913
1908
1914
1924
1935
1948
1946
1932
1917
1904
1896
1886
1889
1913
1935
1937
1947
1970
1987
1989
1987
1983
1960
1919
1888
1891
1896
1882
1865
1846
1812
1784
1805
1852
1897
1936
1951
1930
1910
1906
1918
1935
1957
1941
1881
1839
1819
1804
1787
1785
1787
1788
1782
1788
1802
1811
1818
1811
1785
1758
1748
1748
1732
1719
1712
1703
1693
1681
1687
1690
1697
1695
1694
1710
1709
1693
1667
1647
1637
1630
1624
1614
1611
1622
1636
1658
1675
1669
1664
1677
1705
1738
1751
1739
1701
1693
1694
1688
1683
1683
1688
1684
1658
1637
1648
1682
1707
1704
1689
1659
1631
1631
1650
1662
1670
1693
1727
1768
1795
1786
1748
1735
1755
1760
1759
1735
1669
1600
1573
1596
1609
1601
1577
1561
1613
1704
1770
1778
1765
1760
1761
1751
1741
1728
1724
1729
1720
1706
1697
1685
1675
1666
1658
1659
1682
1730
1780
1827
1852
1857
1867
1859
1821
1817
1833
1811
1766
1733
1729
1740
1741
1735
1744
1765
1789
1810
1818
1822
1833
1830
1820
1795
1792
1802
1797
1778
1780
1802
1820
1819
1812
1812
1826
1843
1859
1874
1897
1909
1906
1906
1917
1930
1936
1944
1927
1891
1836
1809
1821
1830
1824
1819
1834
1854
1861
1855
1854
1853
1869
1893
1925
1948
1975
1975
1950
1906
1872
1849
1840
1844
1846
1868
1912
1951
1968
1965
1961
1972
1989
1999
1983
1957
1927
1898
1892
1895
1883
1864
1847
1839
1829
1811
1803
1805
1810
1826
1846
1857
1857
1857
1857
1846
1848
1851
1872
1902
1904
1880
1854
1842
1832
1802
1766
1752
1766
1784
1786
1781
1784
1806
1831
1846
1857
1858
1850
1840
1840
1820
1797
1802
1814
1802
1785
1794
1827
1854
1849
1848
1862
1886
1902
1886
1858
1845
1848
1852
1856
1872
1894
1891
1875
1868
1876
1889
1901
1909
1911
1914
1899
1880
1859
1879
1906
1906
1881
1859
1859
1859
1853
1832
1822
1825
1843
1855
1866
1882
1900
1912
1900
1882
1907
1915
1893
1887
1902
1911
1904
1893
1882
1875
1871
1864
1871
1897
1924
1941
1941
1943
1949
1965
1988
1979
1951
1934
1917
1892
1877
1871
1863
1868
1883
1902
1920
1948
1984
2008
2006
2005
1997
1986
1998
2011
2013
2012
2020
2029
2052
2080
2053
1990
1939
1922
1930
1950
1967
1986
2013
2036
2050
2030
2014
2008
1995
2001
2017
2024
2019
2019
2019
2011
1991
1988
1977
1960
1937
1927
1930
1929
1926
1927
1924
1924
1930
1944
1958
1974
1982
1973
1956
1941
1934
1930
1930
1945
1983
2039
2105
2121
2058
1982
1952
1948
1935
1918
1904
1903
1913
1922
1932
1936
1929
1927
1941
1964
1987
2012
2012
1995
1974
1940
1930
1926
1922
1936
1940
1938
1946
1946
1937
1925
1910
1910
1907
1906
1917
1935
1947
1953
1958
1954
1936
1914
1924
1958
1963
1921
1885
1874
1875
1879
1881
1898
1901
1903
1911
1935
1961
1988
2000
1979
1950
1944
1937
1903
1897
1943
1973
1942
1922
1934
1941
1954
1987
2028
2066
2106
2130
2145
2158
2171
2192
2216
2236
2255
2265
2250
2214
2176
2145
2117
2089
2054
2000
1941
1903
1884
1850
1782
1690
1608
1565
1555
1560
1558
1529
1496
1477
1474
1487
1491
1483
1476
1485
1512
1542
1568
1586
1581
1591
1605
1602
1605
1602
1600
1616
1628
1643
1664
1645
1610
1594
1614
1646
1654
1661
1660
1658
1662
1673
1669
1658
1662
1671
1674
1677
1678
1677
1672
1669
1675
1669
1655
1673
1705
1719
1741
1796
1866
1894
1880
1844
1818
1823
1824
1818
1824
1838
1849
1831
1812
1807
1812
1831
1846
1864
1869
1867
1878
1887
1900
1899
1894
1904
1920
1928
1924
1916
1915
1938
1979
2012
2005
1977
1983
2001
2020
2037
2037
2047
2062
2079
2097
2105
2114
2126
2136
2112
2090
2090
2093
2096
2097
2094
2105
2145
2213
2272
2287
2269
2266
2282
2283
2272
2271
2288
2299
2287
2262
2237
2241
2270
2299
2344
2389
2396
2374
2353
2353
2372
2396
2395
2364
2321
2300
2303
2319
2329
2322
2314
2307
2312
2331
2347
2379
2428
2418
2408
2415
2410
2395
2382
2366
2355
2358
2354
2347
2341
2335
2330
2330
2336
2356
2376
2383
2378
2389
2413
2432
2437
2427
2410
2415
2410
2378
2344
2331
2338
2343
2358
2374
2387
2384
2380
2387
2407
2428
2425
2415
2417
2437
2449
2441
2419
2402
2380
2375
2368
2337
2305
2308
2312
2318
2338
2365
2379
2369
2353
2347
2355
2361
2355
2348
2340
2331
2331
2322
2294
2255
2241
2235
2241
2254
2255
2250
2258
2259
2254
2237
2215
2207
2223
2249
2289
2304
2286
2258
2226
2194
2168
2153
2162
2154
2140
2141
2158
2178
2210
2240
2239
2224
2195
2155
2119
2082
2056
2056
2066
2059
2050
2055
2045
2032
2034
2057
2099
2135
2143
2130
2113
2108
2107
2100
2092
2082
2075
2057
2033
2000
1972
1968
1982
2003
2040
2075
2089
2064
2046
2057
2068
2067
2055
2057
2069
2072
2065
2043
2027
2022
2007
1987
1973
1966
1963
1981
2020
2049
2070
2075
2059
2045
2061
2069
2061
2059
2078
2087
2076
2052
2021
1994
1970
1972
1990
2004
2010
2026
2055
2079
2076
2073
2062
2047
2031
2035
2049
2043
2039
2020
1978
1966
1986
2009
1998
1995
2015
2040
2054
2053
2040
2026
2038
2068
2101
2115
2100
2075
2057
2045
2035
2035
2032
2017
1994
1981
1980
1996
2022
2046
2079
2119
2151
2174
2165
2167
2173
2156
2115
2068
2029
2001
2030
2105
2162
2186
2197
2187
2160
2129
2111
2098
2097
2111
2117
2100
2084
2071
2069
2086
2104
2104
2098
2101
2114
2132
2136
2131
2124
2126
2139
2159
2151
2137
2125
2120
2115
2094
2067
2052
2051
2082
2100
2114
2104
2075
2060
2088
2123
2126
2108
2110
2136
2172
2167
2118
2083
2073
2069
2081
2085
2060
2032
1997
1982
2023
2089
2139
2163
2160
2140
2118
2106
2103
2105
2112
2120
2122
2129
2118
2079
2044
1997
1951
1939
1979
2038
2071
2077
2081
2097
2127
2151
2162
2162
2158
2136
2112
2119
2121
2118
2134
2141
2132
2112
2100
2122
2149
2171
2192
2222
2253
2230
2167
2122
2104
2082
2066
2070
2055
2049
2068
2082
2093
2102
2110
2103
2086
2078
2074
2083
2101
2112
2098
2091
2089
2075
2055
2056
2050
2033
2029
2047
2072
2099
2104
2087
2056
2009
1963
1927
1909
1908
1934
1947
1942
1990
2059
2096
2114
2120
2095
2063
2042
2028
2007
1983
1984
2007
2023
2008
1998
1992
1983
1969
1959
1974
1981
1954
1915
1899
1901
1886
1862
1843
1832
1846
1875
1897
1904
1902
1914
1920
1912
1895
1869
1848
1852
1850
1851
1841
1824
1803
1777
1789
1815
1839
1862
1896
1909
1883
1852
1844
1854
1887
1914
1930
1945
1981
2005
2011
2003
1996
1990
2012
2051
2090
2122
2136
2117
2075
2036
2007
2000
1992
1969
1935
1868
1783
1699
1630
1575
1517
1474
1444
1446
1475
1509
1532
1551
1573
1592
1603
1605
1611
1621
1618
1625
1632
1655
1679
1680
1677
1693
1707
1725
1734
1731
1737
1756
1762
1758
1742
1734
1740
1742
1740
1734
1728
1726
1730
1735
1744
1757
1768
1769
1759
1759
1772
1792
1784
1761
1755
1746
1727
1709
1698
1684
1686
1688
1682
1687
1706
1720
1729
1735
1728
1723
1738
1756
1767
1767
1762
1750
1737
1718
1711
1724
1737
1731
1703
1686
1690
1701
1708
1720
1747
1756
1736
1704
1701
1722
1752
1771
1760
1744
1736
1728
1715
1709
1708
1738
1771
1783
1792
1806
1825
1840
1859
1875
1884
1884
1863
1840
1852
1885
1916
1912
1889
1868
1853
1851
1851
1847
1847
1863
1884
1896
1899
1911
1894
1862
1837
1847
1880
1927
1967
1975
1964
1951
1934
1932
1926
1924
1932
1933
1940
1956
1960
1960
1978
1988
1991
1998
1999
1988
1974
1956
1940
1928
1924
1940
1947
1955
1971
1974
1980
1995
2017
2036
2040
2036
2033
2024
2002
1988
1986
2000
2007
1992
1967
1961
1962
1975
1982
1983
1980
1994
2016
2029
2043
2039
2021
2017
2025
2019
1987
1970
1982
2009
2042
2067
2085
2095
2101
2093
2105
2119
2136
2148
2141
2135
2142
2156
2171
2190
2200
2192
2180
2165
2162
2169
2183
2205
2229
2243
2261
2282
2294
2297
2296
2296
2298
2301
2284
2249
2217
2202
2190
2184
2189
2191
2182
2182
2193
2203
2215
2232
2256
2269
2261
2239
2205
2187
2186
2180
2183
2192
2190
2178
2170
2163
2164
2168
2181
2198
2204
2217
2234
2219
2186
2167
2167
2162
2137
2130
2145
2154
2150
2151
2149
2135
2117
2111
2108
2108
2105
2106
2113
2121
2125
2114
2116
2130
2137
2144
2153
2141
2120
2106
2100
2083
2068
2064
2075
2085
2083
2100
2115
2131
2144
2149
2155
2145
2132
2121
2107
2091
2073
2062
2064
2070
2062
2048
2027
2021
2036
2061
2090
2103
2104
2113
2125
2140
2135
2114
2099
2092
2089
2085
2070
2062
2075
2091
2094
2072
2055
2068
2090
2118
2143
2149
2151
2151
2159
2174
2150
2117
2087
2067
2076
2083
2065
2043
2038
2055
2087
2131
2166
2170
2161
2165
2165
2166
2170
2164
2163
2155
2135
2128
2124
2119
2122
2132
2122
2118
2133
2155
2177
2170
2157
2141
2144
2161
2168
2160
2148
2143
2138
2131
2154
2188
2201
2177
2150
2134
2132
2142
2142
2127
2113
2121
2145
2179
2213
2218
2200
2171
2151
2124
2106
2127
2162
2195
2212
2208
2196
2194
2191
2190
2219
2252
2249
2233
2233
2238
2229
2222
2224
2219
2207
2200
2182
2180
2209
2238
2231
2204
2190
2183
2172
2170
2184
2207
2220
2222
2208
2189
2166
2152
2170
2172
2153
2140
2121
2111
2105
2112
2127
2122
2122
2130
2129
2131
2132
2128
2116
2107
2085
2066
2050
2042
2032
2004
1964
1947
1991
2074
2140
2164
2140
2122
2115
2100
2100
2091
2067
2043
2023
1995
1971
1959
1959
1975
2001
2026
2048
2065
2075
2071
2060
2053
2046
2031
2023
2026
2043
2057
2061
2054
2049
2052
2037
2026
2035
2052
2064
2053
2049
2046
2037
2026
2007
1994
2002
2022
2035
2048
2057
2057
2053
2042
2029
2023
2020
2010
2005
2006
2014
2007
1994
1996
2012
2028
2040
2022
1987
1983
1986
1968
1945
1926
1910
1900
1928
1948
1951
1962
1977
2005
2023
2028
2023
2013
2006
1999
1999
2000
2000
1992
1978
1960
1954
1950
1946
1957
1987
2018
2043
2062
2051
2035
2034
2038
2041
2050
2052
2054
2027
1981
1952
1938
1943
1962
1961
1978
2003
2007
1990
1981
2022
2086
2113
2074
2013
1977
2000
2024
2038
2058
2037
1995
1966
1978
2024
2060
2043
2017
2025
2049
2069
2058
2045
2046
2067
2093
2101
2095
2096
2108
2123
2144
2163
2185
2215
2260
2320
2390
2436
2445
2434
2428
2438
2467
2524
2594
2645
2663
2663
2653
2631
2598
2574
2553
2528
2502
2483
2470
2446
2410
2369
2325
2277
2223
2175
2133
2110
2123
2161
2220
2298
2292
2185
2086
2062
2086
2184
2302
2365
2375
2381
2391
2373
2364
2359
2324
2284
2273
2267
2252
2220
2178
2131
2109
2132
2158
2174
2186
2180
2153
2115
2082
2064
2065
2058
2028
1990
1961
1939
1921
1919
1909
1935
1976
1993
2003
2007
2020
2046
2080
2105
2086
2048
2024
2015
2020
2027
2033
2038
2014
1979
1947
1935
1930
1948
1966
1976
1980
1975
1960
1939
1934
1942
1962
1993
1994
1983
1966
1949
1943
1937
1924
1895
1874
1902
1978
2044
2074
2097
2110
2123
2125
2112
2092
2078
2076
2062
2044
2051
2062
2059
2049
2052
2077
2102
2118
2107
2088
2079
2066
2050
2065
2106
2141
2137
2116
2094
2080
2075
2066
2054
2035
2005
1981
1984
1998
1994
1974
1963
1946
1920
1919
1932
1926
1902
1872
1850
1840
1842
1838
1822
1792
1768
1745
1746
1812
1878
1874
1810
1750
1721
1702
1701
1721
1724
1706
1710
1738
1750
1718
1673
1670
1695
1716
1711
1701
1708
1740
1766
1786
1786
1780
1762
1738
1719
1719
1721
1718
1718
1710
1692
1668
1640
1623
1604
1597
1602
1638
1700
1749
1769
1770
1775
1793
1808
1805
1789
1790
1809
1807
1788
1760
1730
1713
1721
1743
1770
1776
1775
1774
1779
1794
1793
1785
1787
1790
1787
1793
1822
1847
1840
1837
1843
1862
1885
1903
1917
1931
1915
1888
1859
1848
1853
1857
1848
1843
1848
1859
1858
1845
1832
1818
1812
1817
1821
1821
1827
1845
1870
1904
1961
2007
2025
2005
1984
1972
1958
1953
1959
1941
1918
1899
1888
1888
1895
1906
1944
1991
2005
1987
1971
1964
1984
2035
2091
2128
2138
2149
2153
2126
2073
2039
2028
2045
2066
2081
2099
2132
2165
2193
2229
2259
2271
2277
2290
2293
2291
2276
2274
2283
2297
2329
2328
2311
2311
2310
2304
2309
2330
2358
2378
2391
2390
2379
2375
2377
2377
2387
2401
2410
2402
2398
2399
2408
2426
2458
2467
2460
2465
2482
2506
2504
2496
2509
2524
2536
2542
2533
2518
2515
2516
2520
2525
2536
2546
2556
2567
2564
2568
2596
2639
2676
2688
2683
2662
2616
2566
2565
2600
2624
2637
2639
2628
2615
2608
2618
2643
2664
2672
2671
2669
2659
2647
2644
2647
2644
2637
2636
2627
2607
2585
2573
2577
2588
2610
2620
2610
2596
2598
2606
2613
2624
2627
2622
2618
2619
2615
2608
2609
2606
2607
2606
2608
2627
2651
2672
2690
2699
2710
2707
2683
2651
2631
2628
2640
2650
2657
2646
2627
2600
2597
2641
2704
2744
2750
2744
2737
2746
2777
2804
2823
2838
2840
2821
2807
2800
2797
2776
2735
2685
2659
2668
2667
2636
2637
2677
2734
2786
2811
2807
2797
2788
2787
2795
2793
2767
2742
2735
2730
2724
2723
2728
2730
2737
2743
2747
2750
2753
2752
2751
2746
2756
2764
2755
2750
2766
2787
2776
2752
2730
2714
2704
2705
2729
2763
2790
2821
2837
2842
2838
2837
2827
2812
2805
2795
2789
2794
2798
2809
2825
2830
2830
2822
2794
2769
2764
2769
2773
2739
2687
2673
2682
2696
2713
2720
2721
2726
2721
2690
2656
2635
2615
2598
2558
2519
2510
2521
2537
2550
2544
2528
2494
2451
2411
2410
2439
2468
2475
2467
2443
2418
2396
2382
2380
2386
2404
2428
2451
2471
2478
2476
2468
2441
2401
2377
2380
2383
2370
2361
2357
2357
2353
2356
2357
2358
2363
2352
2343
2339
2336
2321
2304
2277
2239
2194
2170
2192
2227
2254
2262
2250
2210
2182
2164
2140
2143
2173
2218
2221
2182
2152
2132
2129
2135
2126
2118
2109
2101
2094
2076
2060
2047
2045
2057
2059
2056
2068
2111
2147
2137
2107
2095
2088
2080
2071
2059
2048
2040
2027
2011
1995
1987
1988
1993
1992
1992
1998
2011
2019
2011
2006
2010
2009
2009
2009
2001
1996
1992
1962
1914
1885
1853
1829
1843
1895
1939
1965
1978
1977
1975
1972
1969
1973
1967
1953
1942
1938
1950
1951
1917
1880
1865
1859
1862
1866
1872
1881
1900
1922
1945
1968
1995
2016
2034
2046
2057
2062
2080
2091
2085
2091
2097
2108
2145
2187
2205
2196
2191
2172
2147
2113
2066
2017
1975
1948
1919
1856
1786
1737
1686
1622
1553
1487
1450
1449
1463
1483
1505
1523
1555
1612
1664
1702
1712
1704
1692
1683
1678
1659
1621
1605
1624
1651
1699
1741
1776
1815
1849
1857
1851
1842
1834
1819
1780
1755
1773
1786
1790
1787
1765
1743
1728
1716
1707
1705
1725
1754
1779
1806
1809
1819
1834
1831
1800
1770
1754
1746
1745
1734
1719
1704
1686
1669
1670
1704
1748
1791
1829
1856
1855
1843
1831
1829
1840
1844
1840
1807
1785
1784
1766
1761
1760
1742
1726
1712
1711
1727
1749
1780
1798
1808
1827
1843
1834
1816
1809
1819
1820
1808
1777
1755
1731
1700
1704
1736
1761
1778
1791
1790
1785
1773
1784
1808
1796
1760
1710
1685
1705
1760
1798
1798
1778
1764
1757
1773
1793
1807
1819
1817
1813
1803
1801
1797
1795
1784
1764
1752
1743
1729
1707
1690
1693
1717
1738
1759
1781
1807
1839
1866
1870
1841
1810
1783
1767
1760
1755
1757
1758
1762
1761
1759
1752
1740
1737
1759
1785
1806
1823
1837
1843
1840
1848
1851
1847
1864
1882
1880
1871
1856
1830
1821
1824
1830
1845
1844
1833
1836
1855
1873
1893
1898
1889
1876
1862
1854
1866
1880
1881
1884
1882
1888
1898
1893
1892
1903
1902
1911
1937
1952
1952
1949
1942
1951
1965
1977
1968
1958
1935
1901
1882
1874
1860
1836
1827
1850
1882
1903
1912
1921
1926
1935
1946
1951
1953
1950
1939
1927
1919
1912
1903
1896
1888
1884
1887
1914
1942
1951
1944
1955
1944
1914
1884
1870
1876
1866
1841
1823
1814
1807
1802
1796
1789
1782
1769
1754
1753
1767
1796
1831
1863
1867
1845
1826
1819
1803
1797
1821
1849
1855
1815
1761
1731
1724
1737
1743
1746
1761
1788
1795
1788
1792
1793
1804
1805
1796
1789
1804
1829
1824
1779
1716
1678
1672
1688
1709
1737
1764
1788
1809
1800
1788
1800
1811
1805
1786
1771
1771
1767
1752
1715
1701
1721
1724
1713
1726
1759
1792
1814
1834
1843
1834
1805
1777
1774
1786
1793
1767
1754
1771
1788
1770
1734
1718
1727
1737
1757
1792
1829
1845
1834
1815
1810
1808
1801
1801
1809
1810
1798
1788
1772
1761
1762
1744
1713
1705
1727
1760
1795
1802
1788
1773
1767
1773
1768
1766
1790
1808
1813
1832
1839
1820
1794
1796
1794
1759
1738
1748
1760
1764
1771
1790
1788
1783
1788
1807
1808
1791
1770
1756
1746
1738
1726
1700
1669
1689
1761
1835
1871
1879
1871
1858
1844
1831
1831
1812
1777
1762
1758
1763
1778
1799
1818
1806
1794
1804
1821
1834
1843
1858
1876
1904
1906
1887
1862
1859
1868
1868
1864
1851
1825
1801
1780
1774
1791
1812
1850
1881
1906
1926
1927
1939
1939
1911
1881
1873
1886
1906
1931
1940
1922
1893
1873
1873
1887
1912
1941
1971
2002
2022
2023
2010
1971
1916
1889
1895
1906
1912
1911
1899
1853
1806
1788
1799
1847
1912
1978
2017
2029
2023
2029
2041
2048
2030
2008
1997
1987
1970
1963
1962
1954
1938
1919
1911
1904
1891
1887
1897
1917
1942
1955
1954
1947
1932
1901
1877
1857
1833
1801
1777
1761
1734
1701
1682
1680
1687
1685
1680
1677
1673
1655
1623
1612
1616
1636
1639
1624
1594
1574
1568
1563
1565
1553
1537
1530
1548
1570
1592
1590
1575
1547
1506
1487
1494
1502
1486
1460
1423
1390
1367
1358
1367
1355
1329
1308
1300
1289
1290
1290
1282
1284
1293
1299
1300
1297
1289
1274
1267
1268
1277
1281
1289
1305
1309
1311
1338
1359
1372
1399
1429
1454
1480
1507
1522
1537
1550
1572
1580
1594
1619
1630
1631
1625
1633
1662
1691
1726
1757
1780
1799
1790
1799
1822
1843
1855
1858
1887
1930
1964
1993
2006
2000
1989
1975
1974
1981
2003
2027
2044
2066
2087
2107
2127
2143
2151
2153
2154
2162
2155
2135
2112
2100
2118
2142
2156
2172
2195
2216
2216
2212
2198
2197
2201
2218
2233
2248
2283
2301
2277
2257
2270
2288
2287
2280
2299
2347
2385
2401
2420
2447
2464
2469
2475
2495
2517
2534
2558
2581
2598
2611
2612
2616
2618
2614
2596
2582
2578
2553
2524
2498
2478
2455
2421
2375
2310
2245
2182
2113
2073
2063
2041
1990
1953
1952
1942
1902
1844
1787
1793
1877
2006
2120
2185
2224
2246
2242
2215
2207
2217
2223
2205
2179
2156
2131
2108
2100
2128
2167
2198
2223
2216
2200
2191
2190
2186
2195
2200
2189
2174
2169
2192
2180
2133
2100
2103
2123
2146
2167
2182
2197
2214
2232
2247
2259
2263
2263
2266
2272
2275
2271
2259
2252
2249
2252
2266
2290
2309
2325
2350
2382
2404
2398
2379
2358
2345
2341
2343
2339
2324
2303
2274
2257
2260
2269
2288
2304
2309
2309
2290
2270
2281
2309
2363
2418
2439
2445
2457
2470
2459
2434
2406
2380
2360
2361
2381
2405
2428
2432
2426
2431
2436
2446
2460
2466
2462
2450
2445
2450
2456
2464
2466
2473
2473
2448
2415
2402
2417
2442
2475
2523
2551
2562
2565
2566
2575
2590
2613
2615
2605
2604
2592
2571
2558
2558
2563
2573
2577
2582
2599
2616
2627
2619
2600
2591
2584
2567
2557
2561
2565
2582
2591
2571
2530
2496
2493
2502
2507
2516
2527
2540
2548
2543
2522
2493
2494
2497
2484
2466
2453
2449
2418
2364
2325
2331
2331
2314
2303
2290
2270
2243
2234
2246
2248
2240
2242
2241
2223
2198
2179
2163
2134
2104
2082
2086
2102
2127
2149
2158
2163
2172
2186
2201
2206
2203
2187
2171
2174
2173
2163
2174
2197
2218
2218
2214
2204
2207
2225
2246
2263
2277
2278
2269
2283
2286
2274
2273
2273
2267
2265
2266
2269
2271
2268
2261
2255
2252
2254
2272
2283
2288
2275
2264
2282
2309
2295
2281
2296
2317
2296
2254
2219
2217
2215
2222
2242
2253
2255
2258
2284
2306
2289
2269
2252
2226
2205
2175
2161
2178
2199
2189
2159
2125
2103
2090
2089
2102
2098
2102
2118
2137
2148
2143
2127
2116
2102
2092
2098
2113
2140
2148
2113
2060
2017
2008
2029
2042
2034
2036
2049
2061
2061
2060
2054
2043
2036
2032
2028
2021
2011
1993
1969
1948
1929
1922
1928
1923
1899
1875
1883
1932
2001
2049
2045
2008
1985
1977
1962
1949
1928
1907
1891
1874
1862
1841
1817
1813
1826
1833
1821
1807
1804
1800
1807
1806
1791
1772
1754
1751
1749
1735
1706
1674
1652
1653
1649
1635
1625
1615
1608
1603
1611
1615
1616
1612
1610
1621
1629
1621
1606
1582
1543
1513
1493
1468
1448
1452
1464
1466
1460
1450
1439
1431
1428
1430
1436
1441
1441
1435
1424
1404
1375
1364
1356
1318
1281
1264
1270
1293
1301
1286
1271
1272
1283
1270
1255
1273
1304
1320
1319
1337
1343
1350
1358
1357
1358
1354
1352
1357
1372
1387
1401
1409
1409
1410
1418
1427
1436
1442
1430
1413
1396
1390
1397
1397
1400
1424
1457
1487
1502
1511
1524
1544
1563
1586
1597
1595
1582
1572
1573
1575
1573
1565
1569
1574
1578
1590
1603
1606
1604
1604
1605
1601
1597
1605
1626
1648
1659
1672
1700
1730
1734
1730
1723
1724
1735
1762
1774
1778
1809
1828
1827
1817
1804
1786
1779
1795
1812
1816
1823
1810
1794
1786
1794
1818
1848
1875
1880
1876
1878
1887
1905
1930
1940
1941
1937
1936
1938
1937
1929
1918
1905
1893
1890
1893
1924
1970
2004
2022
2047
2077
2093
2090
2074
2064
2058
2072
2076
2066
2055
2050
2054
2053
2050
2053
2055
2059
2060
2077
2098
2112
2119
2130
2137
2124
2096
2076
2073
2087
2096
2099
2096
2089
2087
2099
2113
2129
2140
2153
2162
2147
2147
2165
2164
2156
2167
2171
2166
2169
2184
2198
2184
2166
2161
2158
2159
2156
2163
2194
2233
2258
2267
2269
2267
2273
2281
2285
2274
2256
2230
2198
2171
2157
2179
2199
2207
2205
2216
2236
2264
2281
2278
2271
2254
2234
2221
2216
2229
2250
2268
2280
2289
2281
2252
2220
2205
2210
2233
2265
2290
2294
2288
2282
2276
2259
2245
2254
2268
2275
2265
2244
2230
2235
2247
2262
2272
2291
2322
2353
2376
2400
2422
2430
2432
2448
2478
2509
2539
2568
2579
2568
2536
2504
2480
2448
2399
2347
2316
2306
2294
2275
2241
2198
2148
2086
2033
2007
1982
1953
1925
1916
1916
1910
1893
1885
1934
2011
2056
2078
2085
2093
2111
2118
2120
2132
2144
2137
2120
2114
2128
2145
2160
2160
2149
2115
2098
2116
2136
2154
2155
2162
2176
2179
2166
2155
2153
2152
2156
2171
2176
2159
2139
2133
2122
2107
2116
2129
2141
2151
2164
2178
2181
2162
2147
2119
2096
2094
2091
2075
2059
2060
2072
2079
2089
2117
2153
2177
2182
2179
2184
2198
2214
2231
2244
2240
2220
2207
2199
2185
2183
2198
2200
2183
2160
2135
2118
2123
2138
2149
2156
2160
2169
2184
2210
2232
2219
2196
2196
2204
2205
2196
2176
2163
2157
2163
2185
2211
2235
2248
2241
2230
2228
2225
2217
2198
2182
2189
2196
2196
2196
2186
2161
2145
2144
2144
2145
2147
2149
2135
2124
2118
2110
2107
2124
2148
2158
2155
2148
2138
2133
2127
2105
2088
2083
2094
2125
2127
2126
2143
2164
2190
2198
2185
2158
2138
2133
2138
2143
2137
2127
2109
2091
2085
2078
2080
2070
2059
2073
2101
2134
2153
2154
2159
2178
2191
2198
2212
2232
2241
2224
2185
2146
2122
2104
2093
2093
2110
2122
2139
2157
2169
2172
2163
2167
2171
2148
2134
2149
2172
2193
2207
2193
2174
2169
2171
2162
2171
2196
2218
2215
2210
2206
2213
2232
2222
2184
2144
2126
2124
2136
2146
2146
2142
2135
2119
2106
2106
2117
2134
2148
2173
2196
2201
2205
2213
2200
2172
2144
2138
2151
2156
2133
2103
2077
2072
2071
2094
2122
2137
2159
2202
2218
2182
2142
2106
2073
2060
2072
2082
2074
2054
2040
2034
2031
2028
2020
2021
2028
2035
2050
2064
2070
2065
2060
2056
2060
2070
2060
2038
2027
2008
1981
1966
1984
2009
2012
1997
1999
2039
2098
2138
2146
2138
2114
2080
2059
2051
2043
2040
2043
2041
2022
1991
1977
1979
1981
1982
1988
1992
1998
2019
2038
2060
2060
2061
2086
2091
2078
2045
2019
2014
1998
1976
1969
1984
2007
2028
2038
2052
2071
2088
2095
2084
2067
2056
2052
2052
2050
2047
2041
2030
2017
2009
2011
2018
2021
2025
2025
2033
2053
2075
2091
2093
2096
2100
2092
2078
2066
2057
2059
2057
2041
2024
2023
2027
2027
2027
2024
2020
2031
2054
2085
2105
2100
2105
2106
2109
2092
2063
2036
2035
2036
2030
2023
2020
2020
2024
2035
2054
2063
2080
2073
2058
2063
2073
2074
2063
2048
2032
2035
2029
2013
2008
2011
2000
1998
2000
2028
2059
2080
2099
2113
2112
2113
2106
2082
2052
2035
2024
2033
2044
2046
2039
2036
2041
2037
2029
2021
2015
2017
2033
2049
2079
2102
2088
2055
2034
2019
2016
2020
2030
2028
2020
2013
2008
2007
2017
2033
2045
2060
2070
2063
2054
2056
2065
2063
2066
2081
2096
2108
2118
2112
2096
2073
2040
2016
2001
2000
2016
2042
2059
2061
2062
2056
2057
2056
2074
2095
2093
2074
2053
2032
2026
2036
2032
2030
2045
2073
2078
2074
2081
2083
2090
2094
2102
2118
2124
2107
2087
2093
2102
2086
2055
2030
2026
2032
2027
2016
2016
2038
2063
2087
2085
2063
2041
2022
2004
2005
2029
2050
2038
2010
1996
1995
2018
2052
2070
2082
2094
2113
2119
2125
2120
2113
2111
2110
2093
2079
2059
2043
2028
1999
1958
1925
1902
1898
1914
1934
1958
1979
1996
2000
1987
1965
1951
1945
1950
1961
1950
1926
1911
1914
1923
1930
1936
1947
1967
1972
1968
1975
2001
2009
1994
1986
1982
1989
1996
1994
1983
1967
1956
1955
1955
1969
1990
2005
1996
1968
1949
1941
1939
1957
1985
2019
2050
2050
2049
2050
2037
2048
2072
2076
2049
2018
1988
1957
1957
1973
1994
2005
2015
2021
2025
2024
2007
1991
1978
1974
1981
1982
1974
1966
1952
1938
1933
1938
1963
1987
1981
1963
1950
1951
1971
1984
1987
1995
1986
1960
1941
1920
1917
1948
1979
1985
1985
1981
1980
1983
1986
1999
2014
2019
2025
2020
2010
2009
2008
1998
1979
1967
1953
1934
1942
1957
1958
1940
1922
1917
1938
1973
2005
2023
2026
2021
2014
2014
2015
2022
2023
2010
1984
1966
1965
1966
1960
1987
2032
2049
2047
2050
2043
2047
2053
2046
2035
2023
2015
2012
2017
2020
2014
2000
2001
2008
2025
2060
2109
2169
2215
2232
2234
2239
2255
2274
2288
2300
2321
2345
2362
2359
2343
2298
2243
2204
2182
2155
2127
2107
2090
2064
2021
1971
1909
1844
1786
1748
1729
1726
1744
1753
1763
1785
1802
1806
1819
1836
1863
1892
1924
1955
1987
2014
2033
2031
2018
2008
1999
2001
2011
2023
2035
2029
2012
2021
2035
2045
2059
2049
2042
2058
2069
2073
2084
2075
2047
2032
2037
2039
2046
2064
2062
2027
1976
1924
1896
1906
1937
1991
2053
2101
2132
2139
2131
2119
2112
2096
2074
2061
2053
2062
2075
2072
2063
2049
2041
2034
2030
2030
2040
2057
2073
2087
2096
2116
2126
2128
2129
2121
2099
2092
2088
2087
2072
2051
2057
2074
2074
2072
2072
2076
2085
2084
2071
2061
2066
2077
2090
2103
2111
2100
2094
2099
2106
2113
2114
2122
2125
2116
2110
2114
2118
2127
2137
2135
2125
2119
2119
2125
2122
2111
2090
2071
2063
2066
2083
2084
2094
2112
2124
2127
2147
2176
2176
2158
2145
2147
2151
2164
2179
2170
2151
2125
2108
2116
2107
2079
2057
2068
2089
2114
2137
2170
2215
2250
2260
2236
2214
2184
2160
2160
2163
2157
2159
2168
2175
2163
2145
2141
2151
2162
2181
2203
2217
2216
2214
2219
2225
2239
2262
2274
2260
2228
2201
2174
2163
2172
2179
2179
2169
2170
2190
2213
2243
2273
2293
2297
2288
2268
2251
2246
2254
2254
2247
2252
2261
2248
2238
2251
2277
2305
2311
2295
2264
2262
2294
2326
2303
2258
2231
2240
2254
2251
2233
2213
2200
2205
2212
2228
2245
2251
2248
2254
2256
2262
2268
2263
2248
2240
2238
2235
2234
2222
2205
2190
2191
2194
2197
2198
2202
2198
2206
2205
2188
2173
2167
2179
2184
2179
2171
2179
2182
2169
2160
2154
2138
2120
2106
2119
2135
2147
2161
2152
2123
2106
2109
2126
2141
2131
2123
2119
2111
2092
2086
2098
2109
2118
2112
2119
2139
2168
2179
2165
2135
2110
2090
2087
2081
2076
2072
2061
2053
2031
2006
2002
2005
2016
2048
2098
2141
2151
2149
2144
2141
2143
2134
2120
2114
2110
2107
2104
2108
2105
2096
2084
2064
2050
2044
2047
2063
2083
2098
2115
2115
2111
2104
2097
2100
2107
2116
2117
2109
2090
2065
2054
2054
2057
2070
2082
2097
2122
2132
2115
2108
2098
2086
2109
2132
2146
2145
2128
2113
2108
2100
2087
2071
2058
2062
2075
2080
2088
2100
2114
2108
2104
2105
2118
2141
2159
2153
2145
2140
2121
2105
2107
2113
2121
2119
2110
2112
2125
2143
2162
2181
2184
2164
2141
2126
2118
2114
2109
2097
2089
2093
2108
2107
2099
2100
2115
2153
2179
2168
2154
2152
2156
2135
2113
2119
2120
2117
2125
2126
2107
2101
2095
2082
2062
2050
2055
2082
2113
2129
2149
2173
2192
2187
2168
2156
2153
2157
2127
2082
2070
2068
2048
2022
2011
2024
2040
2048
2040
2008
1988
2021
2091
2145
2168
2173
2165
2157
2145
2135
2124
2103
2067
2041
2044
2061
2080
2092
2102
2116
2144
2171
2179
2169
2148
2118
2102
2106
2105
2099
2094
2095
2093
2077
2065
2064
2079
2106
2131
2152
2155
2139
2124
2112
2099
2104
2107
2093
2085
2094
2093
2083
2064
2051
2052
2065
2087
2103
2100
2087
2083
2108
2129
2119
2108
2114
2131
2128
2123
2119
2109
2111
2111
2104
2092
2080
2071
2078
2078
2068
2067
2098
2135
2138
2123
2106
2088
2086
2101
2104
2086
2079
2077
2077
2077
2074
2070
2086
2118
2145
2148
2138
2119
2096
2077
2078
2085
2090
2097
2090
2069
2049
2036
2033
2034
2050
2080
2105
2129
2138
2141
2136
2121
2107
2106
2123
2138
2150
2170
2179
2162
2147
2135
2117
2099
2096
2094
2098
2106
2109
2105
2104
2116
2140
2156
2146
2134
2129
2124
2113
2096
2079
2065
2052
2041
2049
2069
2075
2065
2051
2058
2059
2048
2038
2038
2046
2062
2062
2056
2056
2053
2062
2086
2081
2051
2034
2041
2049
2040
2038
2044
2054
2070
2085
2106
2110
2091
2072
2052
2031
2007
1990
1973
1965
1977
2011
2050
2071
2078
2087
2108
2118
2103
2090
2089
2073
2055
2058
2067
2076
2077
2059
2030
2004
2001
2019
2045
2067
2080
2087
2090
2102
2114
2114
2115
2112
2113
2122
2109
2087
2076
2069
2060
2043
2030
2036
2064
2102
2127
2126
2119
2114
2114
2135
2157
2171
2186
2207
2232
2260
2279
2296
2310
2323
2336
2350
2371
2398
2427
2450
2460
2445
2414
2371
2320
2285
2284
2278
2247
2183
2097
2014
1943
1885
1832
1799
1788
1783
1787
1802
1820
1839
1868
1897
1924
1945
1948
1953
1944
1948
1989
2043
2042
2012
1995
1984
1990
2008
2031
2065
2087
2078
2072
2075
2084
2080
2070
2063
2061
2066
2059
2045
2035
2037
2041
2043
2064
2088
2104
2116
2121
2115
2106
2096
2088
2078
2067
2068
2071
2081
2080
2070
2061
2044
2022
2011
2026
2050
2068
2087
2090
2079
2066
2057
2046
2027
2038
2069
2094
2113
2126
2120
2099
2089
2086
2082
2092
2106
2117
2114
2101
2096
2101
2099
2094
2089
2080
2084
2071
2055
2058
2090
2105
2076
2049
2051
2070
2068
2080
2109
2136
2150
2164
2156
2128
2100
2080
2069
2067
2075
2081
2075
2068
2052
2030
2009
2015
2036
2076
2146
2182
2166
2143
2123
2114
2104
2096
2088
2076
2078
2068
2055
2044
2035
2034
2038
2046
2065
2086
2102
2121
2134
2131
2123
2110
2096
2085
2074
2078
2086
2084
2072
2055
2042
2040
2055
2078
2096
2115
2145
2162
2151
2128
2097
2087
2104
2123
2115
2090
2065
2050
2062
2083
2109
2119
2114
2113
2122
2127
2125
2136
2132
2139
2140
2140
2143
2132
2111
2098
2099
2099
2088
2080
2075
2064
2065
2078
2118
2162
2187
2184
2169
2163
2154
2137
2132
2127
2110
2089
2077
2089
2097
2101
2110
2100
2086
2073
2069
2078
2104
2130
2140
2141
2143
2151
2144
2135
2120
2106
2114
2116
2096
2069
2053
2048
2040
2049
2076
2096
2079
2052
2036
2050
2068
2071
2051
2034
2031
2031
2024
2015
1993
1960
1934
1923
1919
1917
1942
1973
1999
2005
1998
1988
1977
1967
1960
1950
1956
1970
1969
1956
1925
1891
1880
1896
1922
1936
1943
1945
1938
1942
1961
1984
1983
1966
1960
1963
1957
1935
1901
1879
1872
1862
1859
1853
1853
1859
1880
1907
1930
1936
1932
1946
1967
1976
1968
1956
1946
1947
1956
1936
1890
1856
1836
1833
1853
1873
1874
1890
1909
1944
1960
1958
1957
1968
1966
1949
1939
1947
1947
1933
1907
1890
1890
1904
1909
1912
1913
1920
1935
1956
1967
1964
1958
1951
1934
1911
1889
1866
1864
1875
1894
1911
1900
1885
1886
1893
1919
1961
1979
1978
1982
1985
1984
1972
1961
1971
1980
1956
1922
1914
1917
1917
1903
1886
1888
1923
1956
1980
1991
1999
1999
1982
1961
1962
1973
1972
1958
1943
1946
1935
1912
1889
1888
1904
1924
1948
1971
1986
1996
1998
1987
1971
1941
1906
1893
1909
1927
1942
1969
1985
1981
1976
1966
1958
1942
1936
1946
1962
1974
1981
1983
1976
1970
1964
1960
1965
1969
1980
2005
2021
2000
1945
1889
1873
1871
1850
1824
1823
1875
1945
1966
1952
1948
1957
1958
1961
1965
1969
1972
1980
1972
1951
1920
1899
1912
1926
1929
1930
1939
1937
1925
1942
1969
1973
1955
1947
1961
1978
1978
1975
1958
1930
1909
1906
1924
1944
1962
1972
1971
1970
1978
1986
1985
1977
1969
1960
1945
1938
1939
1937
1947
1970
2001
2033
2052
2035
2013
1994
1991
1997
1999
2006
2000
1994
1987
1972
1950
1937
1935
1947
1948
1950
1948
1952
1948
1937
1939
1958
1975
1977
1965
1976
2001
2016
2008
2004
2008
2001
2016
2038
2031
1993
1949
1921
1909
1913
1931
1956
1982
2006
2022
2017
2001
1994
2005
2001
1987
1972
1967
1969
1956
1944
1946
1964
1968
1966
1975
1997
2021
2030
2022
2026
2040
2039
2016
1989
1979
1987
1998
1989
1977
1962
1949
1943
1942
1949
1954
1950
1934
1930
1969
2018
2056
2077
2080
2066
2033
2010
1999
1992
1984
1965
1960
1959
1956
1971
1993
2012
2033
2056
2073
2076
2065
2052
2050
2037
2017
2008
2010
1994
1980
1990
2009
2015
1998
1991
2006
2024
2040
2047
2049
2047
2048
2068
2090
2086
2080
2064
2041
2015
1999
2002
2010
2010
2006
2017
2023
2022
2028
2044
2059
2076
2081
2071
2056
2050
2048
2035
2019
1999
1986
1985
1983
1967
1953
1957
1975
1995
1998
1995
1996
1987
1977
1982
1985
1970
1964
1989
2010
2000
1989
1974
1964
1957
1967
1984
1999
1998
1992
1974
1957
1952
1958
1971
1989
2001
2026
2069
2106
2110
2058
1977
1917
1889
1886
1891
1925
1978
1996
1988
1995
1991
1979
1975
1980
1981
1984
1987
1994
2006
2003
1985
1969
1956
1944
1946
1948
1965
1995
2018
2037
2045
2037
2024
2009
2006
2012
2026
2033
2020
1999
1990
1998
2016
2025
2039
2059
2082
2107
2132
2160
2185
2199
2211
2231
2252
2269
2282
2301
2333
2360
2365
2344
2322
2305
2285
2258
2235
2212
2181
2154
2104
2045
1989
1935
1887
1842
1794
1753
1728
1716
1713
1705
1701
1714
1731
1755
1791
1821
1858
1888
1913
1923
1916
1908
1911
1931
1950
1958
1938
1910
1904
1914
1933
1939
1946
1947
1956
1973
1995
2010
1988
1965
1969
1987
1987
1976
1968
1970
1984
1985
1974
1960
1948
1951
1958
1963
1973
1988
2006
2019
2024
2015
2006
2009
2006
1997
1988
1983
1975
1972
1970
1967
1966
1978
1999
2012
2028
2055
2063
2056
2044
2032
2028
2029
2033
2019
2002
2030
2047
2031
2003
1975
1971
1980
1978
1972
1966
1969
1991
2020
2057
2084
2084
2070
2059
2056
2055
2050
2034
2008
1973
1938
1920
1927
1946
1960
2001
2048
2066
2077
2100
2090
2049
2017
2032
2048
2049
2054
2060
2056
2027
2000
1991
1998
2014
2029
2040
2035
2024
2028
2021
2007
2004
2028
2057
2070
2065
2061
2060
2068
2076
2067
2043
2028
2030
2031
2044
2056
2070
2084
2090
2096
2111
2113
2113
2117
2124
2108
2074
2048
2060
2085
2093
2082
2060
2049
2064
2097
2123
2125
2108
2096
2106
2111
2109
2110
2122
2121
2122
2130
2132
2133
2122
2109
2101
2104
2123
2151
2193
2216
2194
2163
2129
2108
2110
2124
2136
2149
2148
2148
2147
2142
2126
2110
2111
2130
2151
2176
2211
2237
2237
2218
2193
2173
2165
2170
2157
2131
2109
2112
2126
2137
2140
2141
2150
2163
2179
2183
2171
2165
2162
2155
2159
2175
2197
2191
2175
2157
2130
2082
2047
2038
2040
2062
2078
2090
2101
2116
2134
2147
2151
2137
2126
2105
2081
2059
2035
2026
2029
2029
2010
2009
2034
2051
2059
2074
2088
2104
2118
2113
2092
2063
2036
2023
2024
2022
2023
2020
2015
2023
2027
2028
2005
1971
1961
1961
1960
1966
1974
1968
1966
1984
1997
2013
2028
2029
2028
2025
2014
1988
1960
1944
1962
1985
2001
2019
2043
2050
2047
2047
2021
1987
1982
2006
2016
2011
2004
1992
1958
1928
1948
1979
1996
1994
1996
2005
2004
1999
1984
1985
2014
2036
2022
2011
2018
2040
2059
2050
2015
1981
1966
1949
1936
1927
1922
1934
1939
1956
1991
2026
2028
2023
2027
2026
2030
2032
2029
2023
2027
2026
2012
1986
1970
1979
1994
1983
1955
1937
1959
1996
2032
2041
2031
2000
1976
1986
2007
2018
2012
2001
2009
2021
2014
2003
2000
2012
2017
2012
2023
2044
2059
2059
2051
2059
2070
2068
2056
2025
1994
1971
1969
1977
1975
1978
1995
2007
2027
2055
2057
2044
2038
2034
2025
2026
2034
2034
2032
2015
1988
1974
1969
1960
1952
1964
1981
2005
2030
2057
2075
2088
2082
2063
2049
2059
2075
2071
2039
2017
2009
2002
1993
2000
2012
2018
2021
2026
2023
2030
2041
2042
2043
2040
2037
2030
2028
2034
2037
2035
2022
2003
1989
1966
1955
1979
2013
2019
1999
1996
2022
2042
2036
2032
2055
2062
2052
2027
2024
2028
2020
2007
1989
1968
1958
1955
1962
1978
2001
2024
2038
2010
1964
1941
1968
2011
2051
2079
2074
2054
2032
2037
2046
2025
2003
1999
2009
2022
2031
2042
2040
2039
2044
2060
2070
2069
2055
2038
2021
2018
2010
1992
1981
1979
1974
1964
1966
1983
2003
2019
2043
2078
2104
2083
2037
2002
1993
2007
2026
2048
2056
2048
2032
2018
1992
1974
1961
1950
1967
1995
1999
1996
2009
2005
1997
2009
2035
2057
2057
2045
2036
2037
2034
2018
2000
1977
1984
2004
2017
2040
2057
2072
2083
2077
2070
2071
2059
2046
2035
2022
2008
1991
1976
1988
2015
2028
2041
2063
2089
2106
2112
2103
2093
2092
2095
2099
2103
2083
2066
2060
2066
2063
2054
2053
2054
2062
2069
2066
2071
2085
2094
2101
2099
2095
2087
2086
2069
2044
2027
2022
2011
1986
1962
1953
1968
2012
2057
2090
2098
2095
2106
2128
2144
2148
2137
2134
2134
2127
2123
2121
2122
2108
2102
2094
2084
2095
2117
2141
2169
2180
2161
2149
2146
2159
2159
2148
2127
2111
2114
2124
2125
2117
2106
2093
2088
2093
2102
2102
2107
2120
2149
2170
2153
2115
2121
2160
2173
2157
2165
2208
2199
2123
2079
2077
2088
2094
2088
2085
2092
2104
2122
2139
2156
2157
2142
2125
2112
2104
2098
2101
2096
2086
2088
2089
2082
2092
2110
2119
2112
2115
2131
2166
2191
2214
2230
2251
2277
2296
2306
2313
2312
2320
2341
2365
2360
2347
2351
2360
2343
2300
2265
2237
2211
2187
2160
2115
2060
2019
1984
1944
1888
1831
1790
1767
1759
1766
1795
1825
1835
1849
1872
1888
1901
1920
1936
1955
1959
1956
1954
1950
1943
1933
1922
1918
1932
1969
2020
2049
2046
2054
2063
2075
2084
2080
2073
2077
2083
2071
2040
2007
1998
2004
2014
2029
2038
2035
2016
2022
2073
2143
2169
2138
2101
2077
2048
2030
2023
2023
2025
2033
2052
2060
2055
2063
2074
2077
2065
2061
2060
2062
2076
2090
2112
2132
2127
2106
2082
2076
2074
2072
2084
2083
2086
2078
2065
2055
2065
2078
2083
2097
2093
2086
2096
2113
2117
2110
2108
2118
2138
2148
2137
2132
2132
2108
2072
2052
2048
2054
2074
2093
2101
2090
2085
2088
2102
2113
2113
2110
2106
2107
2109
2100
2087
2068
2063
2086
2122
2149
2160
2158
2136
2095
2064
2075
2096
2116
2124
2114
2107
2122
2137
2133
2112
2091
2074
2076
2085
2090
2094
2103
2107
2117
2130
2145
2142
2132
2128
2132
2119
2094
2078
2072
2084
2083
2071
2079
2098
2093
2091
2107
2123
2129
2132
2143
2156
2167
2148
2119
2104
2104
2104
2100
2110
2133
2143
2138
2129
2127
2151
2185
2215
2224
2207
2195
2187
2190
2195
2197
2190
2174
2152
2139
2135
2131
2120
2118
2129
2145
2171
2188
2181
2167
2153
2152
2176
2206
2227
2233
2229
2215
2188
2156
2126
2118
2120
2129
2140
2156
2171
2184
2190
2180
2175
2153
2127
2124
2137
2141
2148
2148
2146
2156
2160
2159
2145
2125
2094
2081
2081
2079
2073
2063
2070
2086
2091
2086
2081
2075
2069
2059
2043
2013
1993
1993
2002
2008
2020
2034
2024
2008
2006
2015
2043
2068
2084
2088
2059
2031
2012
1994
1986
1979
1971
1966
1956
1947
1964
1992
2021
2032
2023
2019
2018
2014
2010
2013
2012
2000
1985
1981
1983
1977
1974
1969
1964
1972
1976
1988
2007
2021
2021
2002
1984
1992
2009
2001
1975
1949
1951
1955
1950
1946
1944
1953
1949
1933
1926
1948
1964
1984
2016
2062
2099
2092
2042
1992
1978
1977
1972
1969
1955
1943
1939
1935
1920
1898
1897
1926
1984
2044
2069
2040
2008
1995
1975
1958
1978
2003
2012
2022
2031
2014
1982
1953
1944
1953
1964
1990
2016
2020
2016
2009
2012
2028
2044
2035
2022
2010
2007
2026
2027
2011
1979
1956
1954
1976
2003
2005
1997
2012
2033
2033
2009
1999
2008
1999
1988
1971
1977
1989
1994
1989
1979
1971
1963
1961
1969
1982
2000
2016
2023
2022
2020
2025
2026
2019
2006
2013
2012
1997
2000
2003
1985
1968
1956
1950
1956
1952
1954
1977
2000
2013
2020
2014
2022
2042
2046
2039
2024
2006
1983
1963
1968
1970
1965
1966
1960
1952
1959
1962
1970
1994
2015
2016
2008
2002
1994
2004
2030
2030
2016
1992
1965
1963
1978
1978
1967
1959
1970
1983
1985
1985
1993
2006
2020
2038
2057
2053
2034
1995
1956
1949
1969
1987
1990
1983
1974
1966
1992
2023
2036
2054
2071
2077
2075
2070
2061
2049
2039
2030
2027
2022
2019
2019
2033
2049
2048
2025
2014
2020
2014
2004
2001
2002
2002
2006
2011
2017
2030
2040
2028
1988
1962
1975
1997
2012
2010
2013
2030
2061
2079
2063
2043
2022
2015
2018
2025
2028
2028
2024
2015
2013
2022
2025
2011
1991
1984
1986
2024
2063
2067
2055
2048
2049
2049
2062
2086
2080
2071
2071
2065
2054
2041
2045
2063
2082
2093
2078
2061
2063
2083
2082
2060
2038
2054
2083
2097
2106
2102
2084
2053
2022
2008
2002
1999
1993
1999
2021
2035
2031
2039
2040
2027
2011
1998
1982
1957
1946
1979
2019
2042
2044
2037
2016
2004
1996
1990
1989
1994
1995
1995
2004
2003
1998
1992
1995
2013
2012
1970
1923
1890
1892
1930
1977
2002
2015
2022
2021
2027
2040
2039
2034
2042
2036
2016
1999
1990
1988
1987
1986
1990
1985
1967
1955
1957
1964
1970
1971
1979
1980
1987
2003
2021
2026
2025
2026
2023
2007
1996
2004
2002
1997
2002
1994
1979
1973
1971
1978
1993
2018
2040
2062
2060
2044
2034
2050
2083
2115
2124
2095
2073
2086
2120
2146
2164
2184
2207
2227
2249
2270
2299
2334
2362
2374
2374
2360
2336
2295
2249
2208
2169
2140
2115
2071
2014
1957
1912
1874
1834
1800
1785
1781
1774
1782
1789
1794
1794
1796
1809
1832
1838
1838
1855
1880
1901
1904
1908
1914
1935
1963
1980
1999
2018
2038
2049
2035
2003
1973
1964
1979
2002
2004
2009
2008
2008
2016
2023
2021
2006
1997
1996
2011
2020
2013
2007
2012
2034
2056
2052
2030
2000
1973
1972
1995
2015
2024
2012
2000
2018
2040
2042
2041
2039
2031
2028
2027
2025
2026
2033
2046
2046
2036
2027
2017
2003
1996
1998
1999
1998
2013
2046
2055
2043
2037
2050
2047
2031
2023
2034
2033
2025
2015
2027
2053
2062
2024
1999
2004
2015
2019
2029
2028
2036
2057
2070
2067
2055
2043
2051
2058
2043
2016
1998
1997
1999
2007
2025
2026
2009
1991
1996
2011
2029
2037
2037
2030
2021
2014
2006
2009
2020
2021
2018
2015
2003
1998
2002
2005
2025
2044
2067
2099
2102
2072
2030
2006
2035
2077
2079
2033
1976
1967
1983
1997
2001
2004
2008
2012
2026
2044
2059
2063
2069
2069
2081
2098
2120
2118
2096
2080
2071
2062
2049
2038
2023
2006
2014
2044
2076
2103
2124
2131
2139
2149
2152
2151
2143
2133
2139
2151
2147
2130
2111
2098
2083
2091
2122
2157
2158
2138
2133
2151
2170
2184
2178
2161
2147
2139
2127
2134
2137
2129
2130
2145
2138
2130
2143
2171
2199
2221
2238
2231
2213
2199
2196
2191
2174
2163
2166
2166
2161
2148
2141
2132
2128
2128
2136
2150
2159
2154
2162
2160
2153
2159
2153
2141
2124
2107
2103
2105
2099
2099
2095
2092
2085
2067
2069
2087
2103
2120
2128
2122
2114
2101
2091
2090
2085
2081
2077
2074
2066
2065
2064
2059
2041
2020
2031
2065
2107
2118
2099
2071
2049
2040
2042
2050
2053
2051
2048
2045
2044
2029
2008
1983
1976
1994
2020
2033
2041
2059
2078
2072
2051
2033
2044
2062
2060
2048
2051
2056
2063
2062
2052
2037
2035
2056
2075
2077
2083
2096
2102
2093
2081
2078
2086
2091
2083
2064
2067
2072
2073
2054
2025
2009
2013
2026
2020
2025
2044
2076
2098
2105
2114
2120
2102
2074
2055
2054
2053
2050
2036
2005
1988
1996
2030
2081
2119
2126
2129
2132
2132
2108
2080
2077
2081
2067
2053
2056
2057
2055
2046
2030
2023
2023
2021
2021
2025
2028
2054
2106
2149
2150
2121
2103
2087
2071
2059
2051
2050
2052
2046
2023
1995
1976
1980
2000
2020
2042
2054
2052
2059
2060
2073
2099
2127
2136
2130
2128
2124
2125
2129
2127
2116
2100
2082
2068
2064
2080
2106
2123
2130
2138
2136
2124
2121
2123
2132
2154
2164
2145
2117
2085
2062
2049
2044
2046
2050
2064
2081
2101
2108
2105
2109
2111
2096
2050
2001
2002
2059
2126
2144
2108
2048
1989
1956
1980
2037
2086
2109
2123
2130
2127
2124
2108
2085
2065
2062
2075
2087
2085
2072
2058
2051
2054
2051
2047
2055
2074
2080
2082
2086
2084
2084
2083
2087
2084
2083
2094
2111
2119
2112
2099
2070
2047
2044
2041
2017
1975
1958
1997
2052
2102
2131
2150
2144
2127
2122
2128
2127
2119
2096
2067
2052
2052
2043
2036
2039
2053
2058
2060
2079
2104
2109
2091
2082
2106
2137
2141
2132
2127
2118
2095
2059
2032
2020
2020
2037
2059
2075
2088
2092
2088
2077
2071
2076
2078
2077
2069
2062
2059
2066
2057
2035
2036
2046
2055
2068
2085
2096
2108
2117
2125
2126
2122
2111
2103
2103
2107
2098
2076
2048
2013
2000
2025
2055
2061
2064
2082
2107
2124
2129
2128
2126
2130
2157
2191
2188
2160
2129
2099
2086
2076
2069
2049
2018
1991
1984
2007
2046
2086
2111
2130
2152
2159
2152
2142
2131
2110
2086
2073
2066
2063
2057
2038
2028
2023
2023
2050
2075
2083
2075
2058
2058
2056
2045
2035
2028
2021
2006
1996
1999
1997
1995
1991
1991
2005
2017
2016
2021
2038
2057
2077
2097
2104
2084
2040
2003
1999
2015
2030
2046
2047
2037
2028
2019
2003
1989
2010
2030
2035
2044
2059
2066
2064
2056
2049
2044
2045
2035
2030
2024
2012
2004
2003
1997
1994
1992
2003
2023
2053
2082
2096
2099
2080
2058
2039
2023
2009
2003
2020
2039
2021
1995
1973
1968
1986
2016
2055
2087
2103
2092
2072
2078
2111
2141
2127
2118
2131
2151
2174
2199
2216
2227
2225
2224
2241
2270
2290
2309
2325
2349
2368
2376
2391
2408
2395
2355
2298
2240
2197
2171
2141
2095
2022
1952
1887
1822
1769
1737
1742
1759
1769
1774
1783
1799
1811
1826
1852
1880
1896
1907
1908
1921
1951
1985
1997
2010
2029
2038
2028
2011
2018
2034
2045
2052
2052
2049
2046
2037
2035
2041
2028
2011
1998
1987
1980
1978
1995
2022
2051
2066
2047
2041
2058
2078
2093
2099
2099
2079
2054
2040
2030
2015
2004
1997
2000
2008
2010
2007
2004
2027
2071
2096
2086
2069
2055
2039
2032
2036
2039
2043
2034
2020
2007
2025
2069
2088
2074
2036
2022
2053
2073
2060
2041
2044
2065
2074
2059
2030
2017
2005
1985
1990
2008
2024
2035
2028
2033
2049
2070
2089
2102
2102
2090
2067
2042
2033
2035
2032
2027
2018
1997
1981
1986
2013
2038
2050
2049
2048
2056
2055
2046
2042
2048
2073
2099
2102
2074
2044
2033
2043
2051
2045
2041
2035
2025
2025
2031
2048
2062
2059
2055
2056
2049
2043
2059
2051
2046
2072
2100
2105
2090
2080
2069
2044
2023
2028
2052
2079
2090
2092
2099
2105
2108
2108
2105
2093
2084
2075
2073
2085
2086
2088
2094
2093
2081
2072
2070
2087
2108
2141
2171
2186
2178
2169
2139
2096
2072
2056
2038
2046
2080
2119
2150
2175
2193
2200
2196
2202
2212
2220
2222
2234
2252
2251
2235
2223
2208
2186
2166
2160
2158
2155
2156
2155
2160
2167
2179
2189
2190
2200
2208
2220
2233
2230
2206
2172
2158
2160
2165
2163
2154
2142
2141
2149
2160
2169
2162
2152
2150
2167
2177
2175
2171
2160
2150
2146
2136
2129
2118
2100
2065
2036
2019
2010
2031
2059
2075
2088
2099
2096
2084
2066
2065
2092
2121
2115
2082
2039
2016
2010
2023
2013
1993
1984
1992
1989
1989
2005
2028
2056
2067
2058
2035
2025
2016
1985
1954
1945
1965
1982
1977
1966
1942
1925
1945
1979
2008
2027
2041
2070
2093
2091
2077
2063
2056
2045
2040
2035
2026
2018
2015
2018
2014
2007
2013
2029
2030
2022
2014
2008
2009
2027
2034
2029
2026
2029
2031
2023
2018
2031
2028
2010
1984
1972
1984
2003
2025
2023
2011
2008
2019
2010
2002
2019
2037
2054
2081
2102
2083
2055
2040
2033
2024
2023
2029
2010
2004
2013
2034
2069
2075
2058
2045
2049
2060
2063
2061
2053
2042
2033
2021
2015
2007
2003
2005
2008
2017
2030
2051
2066
2079
2092
2099
2090
2061
2032
2012
1995
2001
2024
2013
1986
1980
1986
1989
1985
1990
2019
2060
2095
2099
2090
2099
2110
2105
2093
2076
2062
2051
2051
2045
2034
2033
2033
2041
2047
2065
2074
2069
2067
2059
2048
2033
2026
2022
2023
2046
2073
2064
2049
2043
2057
2070
2050
2027
2021
2030
2038
2052
2072
2092
2101
2099
2091
2075
2057
2039
2019
2009
2018
2028
2036
2035
2033
2027
2021
2019
2017
2025
2029
2023
2033
2048
2057
2061
2059
2053
2048
2049
2052
2048
2028
2014
2011
2016
2031
2046
2068
2082
2075
2063
2060
2090
2092
2048
2005
1992
2010
2041
2056
2044
2023
2002
1994
2007
2027
2034
2032
2029
2051
2092
2128
2125
2105
2095
2089
2068
2054
2039
2025
2006
1995
2011
2041
2046
2031
2031
2054
2073
2084
2083
2080
2064
2048
2048
2049
2041
2030
2018
2000
1980
1973
1963
1950
1967
2003
2030
2061
2092
2109
2104
2084
2069
2064
2057
2052
2059
2067
2067
2055
2035
2009
1998
2001
2000
1998
2007
2030
2066
2098
2092
2064
2037
2026
2030
2045
2060
2064
2066
2055
2034
2024
2013
2004
2009
2020
2029
2042
2047
2046
2040
2055
2068
2067
2071
2081
2098
2112
2126
2113
2066
2018
1987
1968
1964
1983
2022
2063
2062
2045
2021
2034
2080
2116
2113
2106
2100
2103
2111
2107
2094
2086
2076
2067
2078
2084
2089
2097
2113
2125
2121
2110
2105
2096
2090
2093
2087
2076
2073
2075
2059
2040
2038
2041
2035
2028
2046
2071
2095
2093
2053
2021
2006
2021
2031
2027
2021
2017
2014
2010
2008
2011
2012
2010
2010
2019
2036
2053
2053
2043
2035
2023
2009
2019
2022
2017
2008
2005
2034
2063
2051
2021
2005
2000
1996
1999
2021
2033
2031
2029
2039
2052
2056
2056
2059
2054
2039
2021
2007
1998
1987
1972
1981
2011
2031
2035
2038
2043
2052
2071
2082
2083
2087
2075
2063
2039
2026
2018
2019
2011
1986
1956
1943
1948
1976
2001
2027
2066
2108
2126
2113
2099
2095
2099
2106
2106
2099
2110
2106
2092
2085
2096
2112
2144
2183
2216
2252
2284
2307
2329
2366
2403
2427
2434
2428
2419
2414
2403
2383
2338
2280
2229
2192
2162
2128
2071
2007
1957
1923
1891
1850
1798
1763
1749
1756
1784
1814
1835
1855
1878
1888
1889
1902
1906
1907
1918
1942
1958
1965
1978
1990
1999
1999
1997
1987
1981
1987
2006
2033
2042
2029
2009
1986
1965
1959
1971
1991
2011
2035
2059
2080
2092
2091
2094
2093
2104
2103
2078
2037
2025
2020
2013
2004
1995
1999
2008
2030
2055
2060
2035
2022
2022
2024
2026
2028
2051
2080
2085
2073
2048
2027
2030
2053
2060
2038
2008
1994
1995
2013
2024
2019
2017
2017
2020
2027
2028
2028
2031
2031
2024
2014
2008
2016
2027
2041
2046
2044
2048
2058
2060
2064
2070
2063
2055
2068
2084
2077
2074
2080
2075
2056
2030
2007
2003
2008
2018
2028
2043
2062
2070
2067
2072
2083
2080
2072
2081
2102
2110
2103
2086
2072
2059
2054
2063
2062
2058
2065
2080
2079
2064
2049
2064
2085
2092
2080
2064
2051
2041
2044
2048
2050
2051
2056
2056
2064
2077
2101
2118
2133
2150
2129
2073
2033
2030
2028
2021
2039
2070
2099
2119
2136
2147
2153
2149
2140
2119
2107
2121
2146
2161
2158
2146
2125
2106
2102
2122
2147
2161
2160
2161
2164
2160
2142
2124
2113
2108
2117
2138
2154
2164
2172
2179
2204
2216
2201
2173
2159
2154
2157
2161
2165
2163
2165
2173
2176
2174
2170
2182
2199
2212
2221
2236
2245
2229
2197
2159
2153
2166
2178
2178
2171
2154
2135
2121
2124
2140
2162
2184
2202
2208
2199
2178
2161
2151
2154
2154
2146
2135
2121
2117
2113
2092
2071
2057
2056
2071
2084
2088
2089
2088
2080
2067
2055
2063
2081
2088
2071
2052
2043
2035
2023
2019
2018
2016
2015
2027
2042
2033
2015
2009
2024
2044
2051
2029
2008
2004
2021
2046
2054
2045
2021
1997
1990
1989
2002
2023
2043
2049
2040
2024
2022
2013
2004
2017
2030
2018
1999
1989
2000
2024
2040
2028
2008
1983
1973
1993
2023
2038
2047
2044
2034
2044
2057
2047
2020
1998
1983
1975
1966
1961
1971
1964
1947
1937
1935
1933
1929
1928
1952
1999
2045
2070
2061
2038
2027
2018
2005
1987
1979
1976
1971
1966
1966
1969
1972
1988
1996
2000
2009
2022
2040
2045
2039
2029
2022
2016
2009
2016
2017
2014
2014
1998
1982
1976
1981
2011
2058
2089
2075
2056
2028
1994
1975
1970
1967
1980
2004
2028
2037
2025
2006
1998
1999
2002
1996
1993
2001
2018
2029
2049
2074
2085
2075
2054
2050
2050
2060
2062
2061
2042
2000
1963
1947
1948
1962
1990
2012
2022
2024
2025
2031
2027
2033
2031
2012
2021
2051
2070
2074
2068
2048
2020
2000
1995
1990
1988
1999
2029
2055
2043
2028
2011
2012
2028
2039
2037
2035
2033
2031
2022
2012
2011
2032
2060
2062
2051
2032
2017
2008
2012
2029
2048
2045
2041
2048
2051
2039
2031
2025
2013
2005
2003
2011
2016
2016
2029
2036
2045
2049
2055
2063
2061
2037
2013
1999
1987
1980
1965
1975
2002
2028
2043
2052
2058
2059
2060
2063
2071
2087
2087
2072
2058
2039
2023
2016
2010
2007
2010
2016
2024
2040
2066
2067
2040
2015
2011
2018
2031
2060
2078
2071
2057
2044
2038
2045
2056
2046
2026
2011
1998
1984
1962
1943
1943
1966
1987
1997
2008
2034
2054
2050
2037
2030
2042
2057
2066
2067
2053
2031
2014
2003
2001
2016
2030
2032
2033
2035
2025
2029
2035
2037
2041
2051
2057
2059
2052
2022
1996
2009
2024
2015
2002
2001
2017
2024
2016
2013
2028
2055
2070
2069
2063
2060
2053
2036
2029
2037
2055
2059
2045
2019
1997
1984
1975
1968
1956
1970
2000
2028
2049
2062
2072
2083
2083
2080
2069
2062
2056
2046
2035
1999
1951
1938
1958
1973
2002
2040
2079
2097
2105
2111
2117
2113
2100
2090
2077
2070
2054
2036
2029
2017
2008
2020
2040
2051
2038
2016
2009
2011
2024
2045
2072
2077
2065
2063
2071
2066
2055
2046
2037
2029
2023
2016
2014
2023
2034
2052
2073
2101
2118
2126
2124
2109
2092
2087
2102
2115
2127
2119
2102
2087
2076
2080
2093
2098
2102
2102
2108
2109
2111
2122
2137
2137
2120
2108
2107
2097
2078
2069
2065
2057
2051
2057
2060
2055
2051
2041
2044
2059
2076
2085
2084
2089
2088
2098
2115
2134
2138
2119
2076
2037
2015
2004
2000
2012
2012
1999
1998
2019
2043
2046
2058
2062
2060
2067
2080
2076
2058
2052
2073
2096
2079
2040
2017
2015
2033
2051
2064
2076
2092
2104
2101
2082
2069
2068
2062
2051
2040
2036
2036
2019
2002
2007
2026
2048
2069
2075
2084
2080
2075
2074
2071
2067
2064
2060
2060
2075
2089
2084
2076
2065
2076
2092
2091
2064
2038
2034
2061
2080
2074
2061
2074
2096
2128
2149
2143
2129
2123
2124
2134
2146
2161
2180
2203
2225
2260
2289
2318
2342
2366
2390
2409
2427
2435
2429
2421
2415
2416
2411
2370
2308
2259
2232
2212
2185
2142
2112
2075
2017
1950
1890
1834
1794
1783
1789
1793
1805
1815
1809
1807
1836
1889
1931
1939
1929
1935
1968
2009
2043
2059
2047
2043
2054
2064
2071
2079
2085
2069
2045
2035
2028
2026
2022
2012
2006
2017
2032
2042
2047
2054
2058
2065
2080
2096
2108
2115
2101
2077
2068
2077
2074
2058
2033
2008
1999
2002
2018
2045
2091
2139
2157
2135
2098
2080
2072
2067
2062
2063
2065
2069
2070
2057
2041
2026
2023
2027
2038
2056
2078
2088
2088
2088
2091
2104
2125
2130
2119
2096
2085
2083
2079
2064
2036
2011
1994
1982
1996
2027
2066
2102
2105
2092
2074
2067
2069
2085
2097
2107
2107
2110
2108
2085
2046
2015
1988
1965
1975
2025
2079
2083
2043
2028
2067
2120
2138
2129
2117
2119
2118
2109
2096
2094
2106
2110
2098
2078
2064
2065
2089
2108
2098
2087
2073
2081
2110
2126
2126
2114
2092
2078
2073
2076
2080
2087
2091
2086
2079
2080
2094
2108
2100
2096
2108
2146
2173
2166
2147
2125
2100
2085
2099
2118
2120
2108
2084
2068
2082
2118
2152
2162
2165
2170
2174
2181
2188
2181
2171
2169
2182
2186
2166
2148
2131
2120
2121
2142
2168
2187
2192
2192
2194
2205
2207
2197
2187
2189
2204
2209
2213
2217
2214
2213
2205
2187
2168
2168
2169
2168
2184
2205
2220
2223
2208
2203
2216
2242
2252
2242
2221
2198
2182
2169
2159
2149
2129
2119
2138
2162
2184
2194
2183
2168
2168
2166
2169
2178
2171
2156
2150
2156
2157
2145
2128
2123
2126
2124
2127
2123
2115
2106
2101
2099
2101
2107
2106
2096
2086
2087
2092
2083
2059
2036
2023
2013
2021
2036
2044
2049
2057
2063
2067
2082
2081
2072
2055
2049
2059
2065
2058
2035
2007
1993
1974
1953
1956
1980
2011
2039
2062
2082
2064
2037
2030
2033
2028
2006
1994
2007
2018
2044
2067
2064
2021
1961
1938
1942
1972
2016
2049
2064
2065
2066
2065
2061
2058
2058
2057
2053
2052
2058
2051
2037
2022
2017
2030
2046
2057
2064
2063
2065
2074
2087
2076
2067
2065
2063
2062
2066
2070
2070
2048
2013
1991
1998
2007
2007
2022
2036
2051
2058
2055
2069
2094
2114
2100
2080
2082
2089
2083
2068
2035
1999
1982
1971
1977
2012
2053
2078
2094
2099
2091
2082
2092
2107
2105
2092
2070
2055
2043
2023
2004
1996
1997
2000
2011
2028
2041
2045
2057
2075
2091
2091
2081
2078
2099
2121
2098
2062
2041
2027
2019
2010
2018
2037
2056
2071
2064
2048
2044
2057
2074
2082
2077
2079
2082
2075
2058
2052
2068
2073
2045
2008
2000
2024
2051
2048
2051
2052
2064
2078
2085
2080
2071
2071
2084
2089
2087
2084
2079
2070
2051
2039
2036
2043
2037
2031
2042
2054
2054
2052
2057
2066
2065
2058
2064
2067
2066
2073
2100
2128
2124
2092
2056
2038
2039
2056
2071
2079
2078
2083
2094
2093
2082
2062
2063
2068
2070
2072
2065
2058
2059
2056
2035
2037
2069
2090
2062
2035
2045
2072
2102
2126
2127
2101
2071
2051
2049
2057
2070
2071
2058
2048
2044
2041
2039
2041
2038
2043
2066
2081
2082
2080
2070
2068
2075
2068
2046
2018
2011
2037
2067
2072
2058
2037
2022
2020
2028
2035
2038
2048
2061
2073
2089
2101
2103
2091
2081
2087
2089
2069
2042
2034
2026
2007
1998
2008
2029
2050
2073
2088
2080
2076
2063
2054
2063
2059
2047
2038
2031
2017
2002
1997
1996
1992
1984
1995
2029
2067
2099
2117
2108
2089
2078
2067
2057
2050
2054
2068
2066
2064
2056
2045
2043
2030
2008
1985
1997
2035
2079
2093
2082
2074
2063
2050
2059
2071
2083
2076
2046
2018
2004
2008
2011
2017
2029
2061
2086
2101
2118
2126
2119
2113
2120
2108
2087
2061
2051
2046
2053
2057
2049
2050
2051
2055
2048
2044
2053
2066
2068
2076
2088
2090
2091
2100
2114
2108
2105
2101
2088
2086
2087
2088
2079
2063
2066
2073
2075
2086
2100
2117
2136
2140
2135
2133
2128
2125
2113
2082
2062
2060
2063
2081
2105
2107
2098
2108
2124
2131
2151
2182
2189
2180
2162
2152
2148
2143
2137
2126
2111
2096
2095
2112
2127
2128
2115
2102
2100
2116
2130
2119
2099
2097
2115
2141
2156
2156
2157
2155
2140
2109
2078
2065
2060
2061
2059
2061
2060
2069
2082
2086
2099
2116
2124
2109
2096
2091
2085
2070
2062
2069
2072
2071
2051
2022
2012
2027
2039
2053
2073
2073
2085
2097
2109
2114
2097
2080
2069
2067
2078
2085
2074
2054
2035
2024
2030
2058
2085
2073
2068
2070
2079
2079
2065
2051
2044
2044
2046
2047
2046
2046
2036
2025
2022
2027
2023
2019
2026
2031
2039
2053
2074
2086
2087
2097
2096
2090
2083
2067
2060
2058
2048
2033
2030
2027
2022
2016
2019
2042
2072
2102
2128
2130
2122
2116
2124
2134
2142
2161
2190
2222
2254
2283
2285
2270
2268
2284
2308
2342
2378
2417
2453
2455
2423
2372
2323
2287
2248
2214
2188
2151
2089
2020
1955
1899
1863
1817
1780
1762
1760
1758
1758
1782
1813
1846
1849
1844
1844
1852
1871
1894
1910
1913
1915
1920
1928
1944
1956
1967
1979
1979
1980
1988
1992
1997
2002
2017
2028
2012
1995
1987
1980
1973
1955
1945
1956
1986
1996
2007
2018
2012
2003
1997
2005
2019
2022
2022
2012
1985
1962
1955
1952
1953
1959
1971
1981
1989
1991
2004
2016
2022
2010
1985
1966
1959
1955
1961
1967
1966
1963
1980
1982
1977
1972
1962
1957
1951
1954
1966
1982
1991
1999
2014
2024
2013
1997
1983
1976
1958
1954
1952
1940
1927
1923
1929
1938
1939
1950
1966
1980
1995
2000
1991
1972
1960
1950
1943
1946
1959
1971
1968
1949
1934
1932
1924
1918
1923
1942
1964
1984
2004
2022
2025
2010
1992
1975
1957
1936
1921
1922
1931
1946
1963
1979
1985
1998
2019
2043
2047
2049
2058
2070
2083
2069
2028
1986
1957
1949
1948
1951
1970
2002
2024
2013
1998
1989
1986
1980
1987
2009
2035
2060
2060
2048
2049
2066
2069
2065
2060
2063
2070
2051
2027
2020
2014
2012
2023
2030
2029
2026
2023
2039
2060
2081
2098
2111
2117
2110
2103
2088
2067
2059
2048
2051
2065
2064
2067
2081
2094
2103
2114
2120
2118
2114
2109
2123
2128
2127
2127
2119
2120
2121
2112
2109
2119
2133
2119
2087
2064
2059
2069
2100
2119
2108
2087
2077
2093
2114
2129
2134
2115
2079
2047
2039
2050
2072
2079
2064
2056
2067
2088
2114
2123
2109
2090
2079
2073
2079
2077
2069
2068
2066
2038
1990
1954
1929
1952
1984
2001
2012
2019
2017
2017
2024
2031
2023
2008
1990
1977
1965
1950
1937
1939
1933
1917
1918
1923
1941
1977
2017
2033
2010
1983
1968
1968
1974
1980
1974
1957
1949
1960
1951
1932
1924
1918
1910
1906
1926
1948
1966
1988
1991
1981
1987
2000
2016
2007
1984
1965
1947
1934
1922
1912
1915
1922
1924
1926
1946
1967
1970
1975
1987
1997
1985
1967
1956
1948
1950
1955
1961
1958
1953
1941
1931
1919
1917
1920
1923
1936
1954
1977
1996
2006
2005
2004
2006
1998
1995
2011
2005
1976
1950
1933
1920
1916
1908
1902
1909
1931
1959
1997
2012
2009
1998
1997
1993
1985
1982
1985
1992
1995
1989
1965
1939
1911
1901
1902
1922
1949
1980
2009
2030
2036
2034
2034
2023
2008
2002
1995
1985
1984
1980
1972
1973
1970
1967
1976
2002
2023
2008
2012
2028
2028
2020
2003
1992
1987
1988
2010
2017
2015
2012
1998
1980
1957
1950
1963
1977
1991
2004
2013
2023
2026
2032
2027
2023
2031
2040
2051
2064
2063
2033
1996
1978
1968
1954
1951
1967
1995
2033
2071
2065
2034
2001
1976
1964
1963
1984
2006
2005
1992
1980
1973
1966
1958
1950
1949
1944
1949
1967
1997
2023
2030
2025
2019
2016
2008
2005
2004
2006
2003
1984
1979
1978
1977
1969
1967
1975
1992
2022
2048
2060
2066
2063
2040
2017
1996
1980
1973
1971
1971
1969
1976
1989
2002
2005
2010
2012
2022
2028
2038
2034
2024
2017
2025
2037
2056
2054
2024
2012
2011
1985
1952
1959
1973
1977
1978
1983
1992
2010
2020
2010
1992
1976
1978
1983
1981
1976
1963
1959
1977
1996
2007
2003
2000
2004
2002
1990
1984
1990
2000
2009
2006
2013
2031
2050
2053
2041
2018
1994
1977
1973
1975
1982
1978
1963
1950
1948
1961
1987
2010
2022
2022
2022
2022
2033
2043
2034
2021
2017
2017
2009
1989
1968
1959
1963
1972
1993
2011
2023
2025
2006
1979
1984
2007
2013
2004
1987
1982
1982
2002
2022
2019
2004
1995
2001
2012
2022
2029
2027
2040
2057
2067
2080
2093
2097
2098
2093
2079
2056
2034
2027
2032
2035
2027
2021
2023
2039
2062
2078
2084
2086
2089
2088
2087
2100
2101
2094
2087
2075
2065
2054
2033
2012
2011
2029
2048
2060
2054
2039
2045
2056
2050
2045
2040
2044
2043
2037
2050
2073
2108
2121
2071
1999
1964
1960
1971
1984
2001
1999
1992
1993
2003
2017
2043
2064
2061
2037
2008
1995
1993
1991
1981
1974
1963
1961
1976
1998
2022
2042
2051
2053
2063
2075
2073
2048
2017
2010
2016
2034
2042
2037
2030
2025
2010
2005
2022
2048
2062
2067
2067
2071
2085
2082
2070
2053
2038
2024
2018
2031
2035
2018
2001
1996
2000
2010
2007
2033
2065
2063
2059
2069
2076
2081
2078
2076
2085
2097
2097
2082
2075
2078
2091
2101
2105
2118
2149
2185
2226
2262
2293
2314
2336
2344
2346
2352
2377
2393
2381
2359
2346
2306
2252
2211
2177
2156
2133
2109
2084
2064
2043
2003
1955
1905
1860
1826
1797
1775
1771
1789
1811
1827
1840
1839
1850
1872
1896
1916
1944
1976
1990
2000
2005
2003
2018
2030
2017
2011
2010
2005
2006
2013
2009
1999
2010
2025
2033
2037
2044
2048
2053
2060
2061
2046
2054
2068
2059
2047
2033
2016
2017
2028
2031
2029
2019
2017
2017
2019
2038
2058
2070
2068
2069
2078
2079
2079
2083
2086
2075
2055
2045
2035
2045
2046
2035
2016
2014
2035
2070
2099
2100
2103
2099
2073
2052
2044
2053
2056
2053
2058
2063
2055
2058
2077
2073
2057
2038
2037
2065
2119
2167
2140
2080
2046
2043
2054
2070
2073
2067
2058
2051
2048
2044
2038
2033
2023
2019
2035
2067
2102
2122
2115
2101
2094
2089
2079
2072
2065
2064
2072
2091
2111
2118
2107
2085
2068
2059
2072
2093
2108
2107
2086
2078
2091
2098
2095
2078
2068
2083
2094
2084
2071
2069
2072
2058
2040
2035
2043
2058
2074
2099
2114
2107
2083
2072
2084
2108
2127
2130
2130
2116
2085
2062
2064
2079
2082
2084
2094
2108
2119
2131
2143
2140
2135
2129
2127
2121
2111
2100
2096
2097
2088
2061
2032
2026
2032
2062
2117
2158
2199
2240
2273
2281
2247
2212
2196
2202
2199
2192
2177
2158
2121
2076
2062
2084
2108
2133
2155
2170
2191
2216
2241
2253
2250
2240
2241
2231
2217
2204
2183
2163
2154
2153
2144
2135
2156
2189
2183
2182
2202
2228
2223
2195
2172
2166
2168
2175
2177
2179
2176
2162
2144
2133
2132
2123
2112
2103
2106
2121
2133
2145
2152
2187
2222
2224
2193
2140
2082
2046
2042
2044
2047
2053
2059
2055
2044
2043
2063
2093
2107
2106
2112
2125
2137
2154
2158
2137
2115
2101
2094
2093
2089
2090
2070
2043
2031
2035
2050
2072
2091
2095
2091
2102
2121
2118
2091
2058
2047
2069
2092
2089
2076
2065
2041
2020
2027
2047
2063
2057
2056
2066
2070
2062
2060
2066
2066
2076
2082
2079
2094
2100
2092
2086
2069
2037
2015
2015
2026
2047
2061
2075
2080
2080
2076
2065
2058
2060
2068
2062
2061
2070
2063
2051
2037
2033
2043
2071
2088
2056
2024
2017
2027
2032
2042
2051
2064
2056
2048
2052
2054
2043
2020
2002
1997
2006
2018
2019
2022
2028
2035
2047
2049
2036
2033
2029
2011
2008
2028
2040
2051
2057
2049
2034
2019
2011
2015
2020
2027
2035
2036
2049
2061
2058
2053
2052
2052
2052
2050
2047
2055
2069
2064
2037
1993
1966
1953
1947
1963
1987
2013
2044
2073
2086
2089
2090
2093
2084
2041
1990
1985
2009
2018
2019
2012
1998
1995
2013
2030
2044
2053
2077
2112
2128
2105
2069
2042
2025
2005
1997
2005
2025
2036
2041
2056
2053
2019
1993
1987
2005
2030
2064
2097
2100
2085
2074
2079
2078
2063
2043
2024
2006
1992
1969
1954
1956
1981
2009
2024
2041
2056
2072
2083
2079
2077
2069
2054
2026
1993
2005
2055
2101
2087
2035
1996
1974
1961
1959
1969
1991
2015
2036
2040
2028
2019
2013
2016
2018
2026
2042
2038
2012
1989
1979
1994
2005
2006
1998
2004
2024
2045
2049
2043
2045
2031
2012
2001
2003
1999
1993
1975
1968
1966
1964
1975
1976
1982
1995
2011
2034
2037
2033
2024
2019
2011
2003
2000
1998
1983
1947
1928
1956
2002
2035
2056
2060
2049
2043
2031
2016
2010
2026
2040
2040
2032
2012
1996
1996
2004
2008
2002
1994
1985
1971
1960
1949
1946
1955
1966
1984
2021
2064
2089
2079
2052
2019
1998
1980
1976
1988
2000
2008
2006
2001
1995
1992
1992
2005
2034
2056
2067
2065
2060
2073
2089
2090
2095
2100
2093
2087
2083
2083
2075
2052
2026
2011
2014
2033
2059
2080
2070
2057
2059
2074
2109
2136
2122
2096
2090
2093
2111
2136
2156
2124
2085
2069
2069
2070
2060
2052
2050
2057
2070
2073
2078
2084
2093
2104
2100
2095
2099
2098
2086
2075
2066
2071
2096
2130
2142
2129
2131
2145
2144
2133
2112
2111
2131
2137
2124
2119
2126
2127
2117
2105
2094
2076
2070
2090
2108
2128
2136
2140
2158
2175
2161
2138
2103
2075
2067
2059
2071
2079
2064
2032
2017
2007
1993
1977
1964
1952
1979
2054
2123
2142
2134
2116
2098
2084
2084
2093
2087
2078
2078
2092
2099
2081
2059
2052
2064
2075
2078
2081
2079
2073
2074
2074
2071
2069
2064
2056
2066
2085
2085
2071
2087
2114
2123
2108
2080
2046
2022
2035
2059
2063
2057
2076
2092
2073
2045
2039
2062
2071
2057
2045
2040
2049
2052
2050
2044
2038
2063
2102
2121
2116
2113
2110
2109
2121
2142
2173
2183
2170
2135
2087
2058
2044
2048
2076
2116
2145
2168
2202
2244
2279
2299
2310
2313
2315
2332
2360
2391
2414
2412
2402
2385
2356
2328
2309
2289
2264
2230
2206
2189
2153
2110
2090
2063
1988
1883
1796
1752
1738
1737
1756
1773
1782
1793
1818
1852
1885
1912
1925
1939
1963
1993
2015
2027
2034
2028
2034
2048
2046
2021
1987
1971
1983
1987
1988
1999
2010
2028
2046
2048
2052
2068
2098
2126
2129
2105
2078
2056
2021
1996
1991
1988
1987
1990
1993
1997
2013
2033
2055
2063
2071
2081
2075
2062
2055
2063
2058
2048
2050
2055
2057
2052
2040
2029
2024
2036
2063
2095
2110
2109
2097
2090
2104
2117
2117
2100
2076
2072
2059
2031
2015
2001
1990
1982
1975
1970
1978
2009
2046
2079
2087
2072
2055
2045
2056
2068
2074
2072
2073
2075
2072
2068
2065
2056
2045
2050
2056
2066
2076
2080
2082
2089
2079
2060
2059
2067
2077
2088
2076
2042
2019
2023
2024
2034
2050
2064
2057
2063
2080
2093
2097
2093
2070
2040
2024
2024
2029
2037
2037
2035
2053
2072
2082
2092
2102
2130
2158
2188
2181
2145
2109
2087
2080
2072
2067
2072
2083
2096
2100
2067
2023
2016
2042
2065
2076
2091
2095
2104
2113
2124
2133
2135
2140
2142
2134
2128
2124
2118
2130
2140
2130
2109
2099
2119
2149
2165
2150
2144
2155
2163
2156
2142
2135
2147
2160
2178
2192
2203
2207
2204
2179
2143
2124
2128
2144
2165
2193
2207
2204
2199
2199
2197
2192
2193
2199
2200
2189
2167
2140
2119
2094
2076
2099
2147
2195
2224
2238
2260
2252
2221
2193
2176
2174
2180
2180
2178
2178
2174
2165
2149
2141
2134
2123
2110
2099
2095
2105
2125
2139
2138
2134
2124
2109
2090
2087
2095
2102
2106
2107
2101
2079
2046
2030
2044
2061
2062
2064
2084
2107
2096
2069
2041
2033
2041
2042
2043
2039
2026
2015
2003
1992
1982
1978
1994
2007
1995
1985
1992
2012
2037
2052
2043
2012
1991
1991
2006
2025
2037
2024
2009
2000
1992
1980
1969
1952
1947
1962
1983
2003
2014
2013
2012
2011
2016
2034
2041
2030
2018
2002
1987
1984
1979
1968
1953
1945
1965
2002
2034
2056
2042
2004
1974
1962
1950
1941
1937
1933
1922
1907
1892
1878
1863
1867
1879
1896
1919
1949
1972
1994
2015
2020
2023
2020
1996
1960
1944
1971
2020
2054
2058
2034
2009
1984
1973
1974
1984
1999
2018
2033
2040
2043
2049
2053
2041
2021
2015
2022
2042
2067
2086
2080
2062
2029
2001
1991
1989
2005
2035
2060
2072
2086
2094
2089
2079
2055
2029
2022
2031
2041
2048
2058
2071
2073
2062
2056
2059
2072
2086
2101
2104
2094
2078
2063
2062
2079
2093
2106
2104
2104
2075
2040
2021
2022
2029
2017
2019
2029
2048
2083
2117
2126
2106
2088
2082
2082
2091
2094
2097
2107
2096
2086
2097
2107
2118
2118
2104
2084
2082
2094
2106
2121
2117
2109
2091
2088
2081
2077
2084
2094
2088
2071
2056
2041
2035
2044
2067
2092
2110
2121
2122
2113
2099
2095
2098
2104
2098
2088
2100
2108
2095
2077
2072
2063
2057
2042
2023
2017
2038
2070
2107
2132
2135
2137
2135
2125
2118
2110
2090
2071
2063
2071
2083
2080
2079
2086
2084
2066
2070
2104
2133
2139
2121
2102
2091
2083
2086
2094
2090
2082
2078
2079
2078
2062
2044
2029
2028
2043
2066
2107
2147
2157
2150
2146
2138
2119
2092
2079
2082
2098
2097
2090
2078
2062
2044
2030
2030
2046
2087
2134
2155
2149
2142
2120
2095
2084
2089
2100
2093
2080
2077
2075
2074
2058
2035
2035
2065
2098
2127
2140
2140
2135
2132
2115
2106
2100
2078
2055
2050
2056
2057
2061
2059
2057
2068
2078
2078
2089
2103
2103
2102
2092
2088
2094
2104
2106
2089
2073
2070
2074
2076
2065
2047
2039
2049
2070
2080
2078
2091
2109
2128
2131
2125
2110
2090
2084
2101
2117
2113
2106
2095
2087
2078
2069
2084
2095
2094
2095
2097
2104
2102
2097
2094
2088
2079
2075
2083
2083
2071
2063
2061
2074
2082
2080
2092
2108
2126
2131
2141
2148
2142
2116
2095
2091
2103
2118
2122
2119
2105
2103
2106
2101
2091
2088
2101
2106
2117
2121
2132
2143
2156
2161
2154
2138
2108
2075
2083
2109
2121
2126
2137
2132
2128
2130
2127
2115
2103
2094
2080
2072
2065
2058
2053
2030
2015
2017
2004
1996
2041
2101
2122
2119
2116
2108
2103
2090
2062
2038
2056
2090
2114
2131
2118
2063
2013
1991
1993
1999
2000
1997
2007
2017
2019
2013
2005
2016
2038
2064
2086
2087
2076
2065
2065
2069
2081
2085
2081
2079
2071
2053
2049
2048
2042
2040
2027
2021
2025
2035
2056
2076
2087
2084
2078
2065
2053
2051
2052
2042
2034
2032
2024
2017
2018
2016
2011
2010
2028
2053
2080
2113
2127
2097
2062
2052
2065
2087
2105
2101
2085
2080
2099
2113
2122
2133
2138
2144
2165
2176
2179
2198
2237
2290
2326
2336
2335
2351
2382
2423
2457
2464
2436
2404
2382
2354
2320
2278
2213
2157
2139
2143
2139
2097
2028
1960
1895
1836
1784
1750
1740
1754
1778
1792
1812
1838
1853
1867
1883
1903
1927
1945
1954
1960
1983
2005
2015
2013
2007
2007
2010
2020
2017
2003
1997
1999
2008
2005
2012
2038
2067
2086
2073
2039
2030
2036
2018
1999
2002
2010
2009
2020
2019
2009
1987
1977
1975
1978
1996
2015
2036
2041
2048
2062
2070
2067
2054
2030
2018
2018
2036
2050
2047
2040
2032
2027
2033
2042
2052
2060
2064
2051
2034
2039
2054
2056
2052
2048
2047
2045
2041
2031
2028
2030
2041
2051
2050
2050
2040
2030
2038
2055
2066
2063
2064
2060
2055
2051
2047
2057
2052
2033
2021
2031
2041
2037
2039
2048
2063
2080
2093
2091
2086
2073
2045
2028
2041
2052
2041
2031
2022
2033
2040
2038
2031
2018
2013
2031
2051
2064
2074
2077
2081
2094
2100
2099
2090
2082
2072
2060
2058
2068
2068
2053
2041
2026
2021
2029
2047
2069
2075
2062
2064
2080
2099
