# Generic Text File Format
# Version: 1
# StartDateTime: 2012-01-12 15:47:06
# SamplingFrequency: 1000
# SamplingResolution: 12
# EndOfHeader
2101
2065
2006
1971
1953
1955
1965
1962
1945
1944
1952
1953
1929
1905
1894
1896
1909
1940
2017
2068
2059
2033
2038
2069
2096
2101
2091
2076
2102
2126
2104
2071
2056
2056
2067
2060
2038
2026
2023
2024
2027
2028
2015
2000
1997
2015
2034
2058
2094
2112
2103
2085
2076
2066
2068
2076
2088
2107
2121
2114
2094
2101
2128
2116
2080
2052
2054
2065
2067
2024
1992
2023
2082
2113
2094
2075
2079
2101
2111
2110
2103
2103
2112
2094
2055
2036
2054
2095
2149
2179
2165
2140
2143
2147
2160
2153
2134
2109
2091
2080
2057
2030
2035
2052
2085
2135
2172
2140
2097
2080
2061
2067
2108
2135
2129
2130
2137
2122
2122
2117
2094
2102
2101
2088
2073
2053
2028
2012
1995
1971
1942
1912
1899
1916
1964
2016
2049
2038
2014
2002
2028
2062
2099
2112
2094
2050
2004
1990
2010
2047
2062
2054
2036
2012
1989
1981
1976
2007
2049
2076
2079
2068
2059
2039
1999
1974
1978
1979
1995
2021
2029
2023
2020
2009
2015
2020
2037
2041
2025
2000
1955
1930
1933
1954
1970
1984
1977
1974
1965
1981
1985
2001
2043
2063
2028
1977
1927
1912
1966
2048
2122
2149
2113
2035
1978
1978
2040
2102
2133
2147
2144
2135
2124
2108
2107
2124
2142
2160
2190
2209
2212
2221
2224
2228
2238
2233
2241
2209
2162
2123
2100
2055
1984
1948
1939
1929
1921
1935
1952
1937
1937
1958
1956
1942
1913
1873
1828
1798
1816
1875
1928
1957
1943
1875
1825
1855
1921
1973
1993
1995
1998
2004
1987
1958
1959
1978
1981
1977
1988
1972
1935
1901
1896
1921
1966
2014
2045
2032
1992
1983
1985
2015
2041
2076
2108
2068
2024
1999
1981
1987
1998
2016
2024
2027
2012
1985
2008
2041
2061
2070
2078
2065
2055
2030
1985
1959
1976
2005
2030
2026
1984
1950
1928
1930
1955
1962
1954
1947
1946
1943
1940
1944
1978
2021
2065
2086
2064
2042
2027
2032
2017
1995
1982
1954
1923
1926
1951
1995
2055
2065
2035
2032
2039
2036
2018
2002
1994
2023
2061
2079
2065
2051
2057
2056
2011
1957
1951
1975
1947
1908
1887
1871
1888
1919
1958
1993
2020
2017
1999
1977
1962
1979
2021
2043
2032
2021
2023
2045
2047
2044
2040
2032
2036
2026
2008
2006
2037
2055
2052
2044
2030
2058
2086
2106
2128
2133
2110
2085
2071
2029
2005
2053
2122
2178
2175
2138
2095
2074
2073
2075
2087
2118
2129
2127
2147
2181
2211
2204
2171
2116
2059
2043
2073
2113
2140
2142
2153
2171
2205
2226
2223
2209
2198
2182
2177
2182
2193
2196
2181
2198
2221
2216
2191
2194
2224
2243
2258
2259
2239
2231
2217
2190
2182
2208
2228
2246
2266
2248
2209
2189
2200
2226
2259
2265
2239
2204
2179
2183
2199
2246
2302
2307
2301
2290
2273
2273
2288
2297
2284
2291
2308
2318
2323
2301
2234
2131
2056
2058
2119
2196
2254
2295
2311
2311
2311
2300
2280
2265
2275
2268
2223
2173
2191
2260
2330
2333
2278
2220
2204
2216
2185
2148
2145
2164
2201
2229
2231
2212
2175
2123
2063
2012
1998
2035
2112
2176
2180
2144
2135
2142
2122
2096
2072
2067
2056
2041
2015
1992
1979
1954
1949
1968
1996
1989
1988
2012
2045
2089
2105
2083
2032
1993
1995
2008
2008
1980
1945
1934
1965
1993
1983
1951
1929
1966
2016
2039
2028
2033
2058
2085
2089
2042
1960
1889
1876
1894
1912
1907
1902
1917
1943
1978
1967
1959
1981
1985
1966
1945
1940
1932
1931
1940
1941
1971
2028
2061
2046
2019
2009
2001
1977
1947
1906
1887
1907
1943
1969
2003
2032
2041
2024
2002
2010
2032
2044
2036
2015
1988
1966
1941
1928
1945
1953
1973
1998
1967
1943
1967
1986
1989
1957
1915
1904
1894
1896
1947
2006
2040
2061
2042
2025
1995
1940
1883
1833
1844
1886
1919
1932
1949
1941
1922
1914
1926
1968
2010
2032
2012
1981
1996
2028
2061
2080
2043
1990
1978
1986
1972
1942
1956
1982
2001
2010
2018
2038
2057
2041
1995
1959
1949
1950
1951
1965
1997
2019
2022
2008
2019
2044
2044
2026
2006
1996
2022
2037
2008
1991
1973
1941
1934
1943
1962
1946
1904
1841
1813
1848
1940
2034
2086
2080
2044
1998
1985
2028
2063
2075
2066
2051
2028
1984
1955
1942
1925
1895
1884
1954
2068
2100
2079
2043
2036
2084
2117
2105
2080
2059
2039
2010
1980
1961
1964
1978
1996
2002
1979
1946
1937
1931
1955
1985
1983
1996
2029
2027
2015
1994
1972
1956
1942
1941
1979
2017
2041
2031
1973
1922
1912
1925
1956
2000
2043
2046
2024
2001
2000
2021
2042
2048
2037
1990
1942
1954
1989
2044
2096
2130
2121
2085
2039
1992
1956
1966
2014
2077
2121
2135
2133
2092
2039
1994
1972
1975
2019
2084
2127
2111
2079
2066
2033
2015
2060
2118
2131
2125
2116
2117
2095
2070
2064
2053
2033
2011
2004
2057
2105
2114
2092
2078
2094
2097
2051
1995
1974
1991
2007
2012
2033
2056
2058
2051
2038
2021
2013
2012
1999
1998
1983
1945
1917
1925
1952
1978
1991
1995
2002
2014
2010
2014
2015
2042
2052
2029
2025
2006
1980
1980
1990
2003
2013
2002
1978
1972
1995
1997
1968
1945
1953
1977
1991
1989
1995
2007
1998
1983
1989
2015
2025
2026
2027
2044
2024
2006
1990
1964
1956
2009
2060
2076
2070
2051
2048
2062
2076
2081
2062
2025
2002
2027
2034
2005
1971
1980
1985
1967
1970
1964
1936
1904
1894
1901
1924
1950
1969
1987
2035
2063
2060
2056
2055
2051
2087
2135
2162
2180
2201
2231
2250
2265
2278
2276
2252
2211
2200
2220
2212
2171
2125
2112
2110
2117
2131
2092
2021
1975
1965
1990
2029
2065
2080
2046
1985
1935
1912
1905
1912
1909
1892
1858
1824
1833
1866
1889
1909
1917
1931
1951
1976
1980
1984
1997
1991
1999
1994
1989
1972
1935
1920
1933
1968
2002
2030
2026
2015
2021
2030
2028
2016
2007
1993
1976
1961
1958
1959
1944
1959
2029
2095
2120
2127
2125
2097
2059
2040
2005
1981
1974
1977
1994
2026
2040
2049
2056
2049
2049
2045
2017
2000
1977
1962
1959
1967
1994
2037
2058
2062
2060
2041
2011
1987
1974
1998
2031
2033
2030
2045
2037
2008
1975
1992
2034
2066
2099
2130
2109
2080
2089
2110
2102
2051
1997
1960
1981
2045
2100
2121
2085
2018
2019
2040
2042
2025
1989
1971
1977
1999
2026
2034
2038
2036
2016
2016
2037
2034
2058
2094
2113
2104
2084
2056
2055
2059
2051
2061
2090
2116
2101
2049
2008
2010
2025
2030
2053
2072
2090
2111
2132
2126
2102
2089
2070
2055
2038
2016
1985
1969
1976
1965
1961
2015
2093
2154
2172
2154
2146
2129
2095
2090
2121
2148
2144
2110
2046
1989
1991
2013
2052
2101
2133
2135
2137
2164
2183
2200
2208
2191
2143
2113
2120
2127
2117
2104
2114
2114
2107
2109
2125
2135
2161
2177
2177
2159
2136
2127
2125
2132
2163
2187
2166
2133
2130
2130
2130
2129
2128
2146
2164
2175
2195
2209
2191
2173
2165
2187
2217
2235
2255
2282
2270
2227
2188
2189
2202
2194
2187
2183
2196
2229
2255
2250
2195
2148
2137
2146
2193
2241
2250
2234
2212
2189
2166
2156
2182
2242
2308
2303
2252
2194
2161
2187
2231
2260
2236
2195
2169
2146
2123
2117
2104
2104
2113
2113
2092
2084
2091
2080
2052
2029
2009
2038
2063
2065
2064
2056
2018
1996
1996
1984
1972
1968
1993
2048
2081
2071
2052
2062
2096
2110
2086
2057
2037
2007
1981
1968
1977
1988
1955
1912
1929
1967
1983
1991
2015
2035
2008
1965
1922
1903
1937
1998
2033
2032
2016
2000
1973
1939
1897
1876
1870
1881
1943
1992
1983
1960
1945
1934
1905
1881
1922
1995
2061
2086
2032
1922
1811
1803
1883
1968
2023
2039
1993
1913
1876
1904
1959
2020
2058
2055
2058
2067
2065
2052
2044
2032
2007
2005
2026
2039
2039
2019
1982
1949
1915
1899
1897
1917
1944
1965
1952
1902
1885
1920
1966
2000
2024
2027
2003
1973
1967
1974
1964
1961
1977
2001
2026
2011
1988
1949
1925
1939
1971
2017
2030
2023
2038
2039
1993
1930
1910
1945
1978
2011
2040
2052
2034
1993
1976
1978
1994
2003
1984
1965
1981
1987
1984
1991
1993
2004
2019
2042
2059
2072
2081
2083
2058
2024
2004
1991
1979
1967
1961
1961
1963
1960
1955
1969
1998
1997
1990
1999
2018
2053
2069
2074
2070
2044
2013
2004
2002
2014
2061
2095
2056
1989
1935
1908
1903
1901
1908
1920
1924
1959
2020
2079
2117
2113
2091
2064
2032
2025
2014
2007
2017
2031
2013
2000
2034
2058
2049
2031
2008
1996
2011
1999
1971
1974
1975
1978
2004
2024
2027
2017
1974
1954
1970
1990
2009
2038
2074
2103
2097
2071
2038
2030
2031
2044
2057
2074
2080
2070
2081
2079
2033
1955
1927
1968
2013
2008
1967
1954
1990
2030
2047
2056
2065
2058
2054
2067
2094
2113
2114
2116
2096
2078
2096
2110
2123
2116
2090
2046
2015
1991
1974
1961
1985
2030
2072
2105
2123
2104
2082
2096
2104
2078
2035
2013
2034
2077
2120
2130
2113
2098
2087
2082
2081
2084
2099
2120
2120
2118
2109
2092
2107
2132
2124
2133
2151
2160
2124
2044
1945
1895
1937
2041
2144
2194
2161
2094
2070
2105
2143
2126
2087
2093
2112
2101
2064
2029
2008
2032
2018
2001
2001
2018
2044
2069
2073
2052
2030
2018
2048
2105
2144
2133
2078
2010
1984
1991
2007
2023
2031
2053
2082
2099
2091
2050
1987
1949
1967
2010
2018
2014
2012
2005
2011
2027
2025
2001
1989
2013
2040
2039
2026
2013
1992
1973
1952
1917
1915
1950
2010
2040
2043
2032
2045
2050
2048
2037
2051
2064
2067
2040
1978
1911
1920
2008
2102
2156
2147
2100
2051
2014
1991
1974
1996
2036
2022
1987
1958
1951
1976
1975
1968
1960
1952
1948
1961
1989
2036
2077
2097
2072
2044
2075
2107
2116
2096
2104
2125
2145
2171
2190
2206
2229
2246
2257
2244
2226
2221
2217
2205
2173
2109
2043
2013
2024
2027
2016
2013
2051
2086
2097
2087
2032
1926
1816
1751
1780
1862
1941
1972
1958
1958
1965
1941
1901
1855
1833
1834
1830
1899
1962
2002
2046
2043
1989
1934
1905
1932
1976
2001
1980
1943
1939
1968
2011
2019
2008
2017
2042
2073
2088
2084
2065
2054
2058
2070
2074
2064
2054
2048
2042
2048
2056
2044
2018
1989
1955
1920
1896
1909
1975
2042
2055
2056
2064
2043
2025
2024
2019
2004
2006
2004
2001
2021
2043
2040
2042
2068
2089
2102
2098
2090
2089
2103
2112
2091
2080
2081
2070
2036
2001
2010
2042
2043
2007
1964
1944
1941
1971
2034
2092
2110
2062
1989
1929
1890
1886
1913
1968
2043
2085
2059
1998
1932
1918
1964
2054
2140
2155
2129
2098
2075
2072
2090
2102
2081
2030
1979
1958
1981
2008
2001
1979
1974
1993
2013
2022
2022
2009
2008
2036
2065
2095
2112
2108
2095
2064
2026
2001
1985
1993
1991
1992
1997
1996
1972
1973
1996
2008
2003
1982
1962
1984
2039
2100
2100
2056
2038
2056
2068
2071
2050
2022
2028
2074
2112
2138
2132
2114
2090
2035
1983
1947
1910
1924
2021
2112
2136
2136
2140
2146
2119
2079
2063
2073
2094
2102
2088
2067
2053
2056
2052
2045
2079
2142
2181
2208
2201
2168
2148
2113
2051
1987
1980
2034
2074
2074
2105
2168
2218
2228
2223
2245
2243
2223
2210
2191
2155
2105
2085
2082
2108
2145
2142
2138
2156
2162
2157
2160
2173
2164
2145
2112
2072
2078
2103
2132
2152
2163
2163
2131
2085
2069
2077
2111
2172
2222
2223
2205
2168
2138
2151
2146
2173
2182
2163
2154
2137
2088
2037
2054
2101
2096
2040
1984
1968
1966
1970
2000
2033
2071
2081
2059
2036
2049
2062
2072
2073
2064
2048
2047
2058
2047
2018
2001
1986
1966
1971
1982
1980
1986
1982
1965
1957
1948
1922
1901
1920
1952
1982
2002
2005
1984
1970
1967
1968
1982
2013
2043
2064
2057
2039
2029
2012
1982
1956
1954
1961
1962
1960
1967
1950
1922
1891
1881
1887
1884
1872
1856
1846
1858
1869
1867
1858
1867
1906
1939
1966
1985
2003
1985
1979
1971
1949
1944
1948
1972
2003
2025
2036
2028
1999
1985
1994
2022
2050
2016
1966
1944
1913
1901
1920
1937
1935
1968
2000
2033
2038
2030
2017
1988
1958
1953
1968
1970
1960
1964
1967
1963
1985
2016
2023
2016
2012
2011
2019
2015
2007
2007
2010
2015
2030
2019
1997
2017
2040
2028
1979
1930
1914
1921
1922
1899
1877
1868
1894
1947
2004
2058
2067
2031
1968
1915
1904
1932
1965
1996
2006
2007
2006
1999
1999
2010
2035
2048
2045
2027
2006
2003
1998
1990
1988
2002
2008
1984
1920
1883
1903
1940
1979
2023
2048
2038
1994
1963
1952
1953
1960
2004
2023
2003
1992
1997
2013
2034
2048
2074
2094
2070
2027
1987
1980
2003
2031
2024
1996
1973
1962
1966
1984
1993
1991
1992
1972
1934
1938
1951
1942
1936
1951
1957
1955
1985
2016
2018
2016
2023
2027
2026
1991
1969
1978
1991
2020
2039
2041
2044
2048
2043
2030
2030
2034
2027
2009
1991
1984
1999
2018
2038
2049
2040
1995
1956
1978
2005
2013
1995
2003
2018
2008
2003
2008
1988
1957
1947
1967
1966
1942
1934
1950
1994
2032
2040
2049
2062
2044
2016
1979
1937
1928
1980
2007
2013
2002
1987
1987
1993
2010
2028
2051
2071
2076
2075
2077
2078
2062
2052
2061
2060
2038
1990
1964
1951
1944
1977
2016
2051
2048
2027
2023
2052
2082
2091
2098
2114
2115
2094
2068
2035
2009
2008
2007
2003
2013
2014
2020
2022
2010
1998
2009
2004
1944
1899
1935
2010
2112
2156
2130
2097
2092
2085
2074
2060
2046
2066
2076
2059
2044
2052
2077
2081
2069
2082
2091
2101
2110
2114
2092
2072
2069
2091
2145
2188
2179
2141
2093
2052
2048
2068
2057
2038
2048
2035
2011
1995
1986
1991
1992
1977
1976
2010
2048
2080
2091
2062
2017
1971
1931
1940
1964
1968
1974
1975
1993
2022
2039
2043
2056
2075
2072
2065
2050
2055
2072
2083
2080
2057
2008
1970
1953
1945
1952
1960
1948
1957
1973
1975
1981
1983
1975
1950
1943
1968
2010
2021
2014
2044
2072
2070
2062
2055
2042
2035
2048
2056
2057
2040
2033
2043
2050
2045
2061
2101
2127
2119
2072
2030
2025
2040
2073
2104
2100
2068
2020
1957
1911
1897
1914
1904
1880
1869
1892
1958
2042
2090
2108
2073
2006
1984
2018
2038
2029
2021
2057
2130
2203
2270
2301
2291
2268
2234
2197
2200
2201
2174
2156
2124
2088
2065
2059
2034
1996
2021
2066
2054
2036
2030
2030
2010
1974
1945
1919
1907
1869
1818
1785
1768
1753
1748
1767
1797
1838
1895
1935
1946
1946
1932
1922
1937
1938
1926
1915
1891
1863
1863
1890
1931
1977
2009
2011
1983
1964
1984
2008
2026
2048
2053
2043
2032
2026
2005
1946
1897
1894
1947
1990
1992
1986
1979
1977
1989
2005
2046
2086
2056
2032
2044
2059
2051
2038
2033
2031
2018
2000
2016
2067
2112
2129
2130
2125
2113
2099
2067
2052
2070
2083
2077
2064
2066
2078
2098
2104
2076
2069
2087
2072
2014
1946
1892
1902
1949
2007
2069
2148
2171
2124
2067
2055
2072
2119
2151
2138
2081
2029
2038
2076
2119
2138
2137
2154
2149
2115
2054
2025
2021
2039
2061
2081
2098
2144
2202
2191
2160
2143
2119
2078
2051
2035
2011
1971
1953
1973
2017
2054
2081
2099
2082
2045
2014
2013
2021
2020
2032
2064
2080
2072
2048
2027
2054
2079
2066
2056
2054
2031
1994
1999
2032
2063
2078
2068
2034
2004
1984
1955
1951
1994
2042
2077
2099
2094
2095
2119
2141
2149
2122
2083
2061
2079
2118
2134
2121
2089
2076
2100
2117
2111
2102
2090
2087
2114
2151
2180
2203
2214
2195
2135
2051
2006
1997
2014
2033
2047
2041
2016
2016
2062
2140
2181
2150
2109
2097
2102
2095
2100
2119
2145
2160
2184
2181
2146
2132
2160
2169
2181
2223
2264
2260
2238
2216
2208
2231
2255
2267
2273
2266
2255
2220
2179
2173
2191
2221
2230
2166
2068
2021
2048
2109
2175
2241
2284
2275
2256
2280
2310
2311
2273
2235
2219
2222
2244
2277
2252
2166
2085
2079
2097
2120
2139
2134
2103
2083
2120
2189
2229
2205
2199
2214
2233
2246
2248
2223
2188
2171
2160
2162
2178
2180
2180
2169
2151
2151
2142
2135
2158
2179
2179
2143
2105
2093
2076
2029
1979
1961
1995
2049
2098
2125
2115
2085
2065
2076
2077
2049
2029
2011
1977
1975
2010
2058
2088
2106
2124
2115
2094
2079
2075
2075
2076
2087
2096
2087
2061
2034
2023
2019
2001
1965
1949
1980
2052
2111
2090
2051
2021
1987
1972
2014
2063
2084
2101
2134
2171
2178
2160
2132
2108
2090
2067
2072
2102
2138
2134
2089
2057
2063
2072
2073
2064
2069
2097
2127
2154
2168
2161
2119
2047
2036
2071
2084
2056
2050
2063
2079
2099
2106
2103
2060
2034
2044
2066
2092
2081
2043
2006
2017
2066
2091
2095
2093
2080
2055
2032
2015
1997
1992
2018
2040
2068
2106
2151
2147
2089
2061
2069
2080
2067
2062
2061
2060
2053
2043
2065
2101
2098
2070
2057
2080
2116
2124
2116
2116
2109
2095
2107
2104
2074
2049
2049
2046
2055
2062
2053
2037
2016
2014
2018
2004
1991
2014
2060
2093
2089
2066
2038
2005
1977
1979
2022
2073
2110
2106
2071
1999
1937
1935
1994
2062
2126
2179
2220
2200
2121
2061
2037
2030
2042
2064
2061
2031
1969
1916
1903
1956
2036
2086
2088
2081
2068
2043
2027
2039
2049
2049
2042
2021
2008
2018
2035
2046
2028
2011
2049
2090
2103
2091
2087
2071
2045
2045
2051
2064
2078
2055
2022
2032
2020
1997
1994
2008
2022
2000
1923
1887
1934
2022
2106
2117
2087
2056
2047
2049
2038
2001
1958
1950
1971
1996
2031
2048
2041
2018
2002
2024
2073
2079
2056
2042
2039
2057
2083
2122
2161
2168
2146
2099
2073
2105
2143
2153
2148
2130
2120
2086
2065
2079
2093
2087
2067
2065
2114
2162
2146
2080
2031
2048
2097
2143
2189
2219
2209
2164
2104
2074
2083
2106
2105
2075
2088
2117
2131
2114
2063
2033
2046
2090
2130
2102
2018
1937
1925
1951
1972
1980
2000
2017
2017
2005
2003
1964
1937
1963
1990
2016
2055
2100
2116
2105
2086
2070
2065
2058
2065
2072
2066
2041
2002
1989
1999
2023
2070
2125
2152
2144
2114
2074
2028
1980
1964
2000
2054
2098
2120
2123
2111
2076
2062
2028
1963
1933
2000
2081
2126
2137
2105
2036
1967
1933
1908
1931
2001
2069
2115
2135
2120
2099
2070
2076
2132
2183
2170
2112
2086
2087
2117
2140
2128
2095
2083
2081
2077
2111
2151
2193
2233
2216
2208
2242
2275
2306
2325
2325
2349
2389
2408
2417
2421
2418
2394
2355
2335
2295
2233
2168
2121
2094
2060
2016
2005
2027
2054
2085
2117
2122
2094
2047
2000
1977
1984
2034
2083
2069
1986
1917
1904
1947
2016
2084
2118
2134
2127
2108
2080
2059
2050
2064
2098
2120
2113
2100
2087
2081
2102
2118
2138
2174
2207
2243
2236
2205
2181
2191
2190
2185
2179
2159
2123
2082
2077
2102
2150
2222
2266
2234
2166
2128
2135
2140
2134
2100
2058
2042
2055
2089
2125
2152
2169
2158
2107
2065
2085
2130
2161
2179
2180
2161
2127
2080
2058
2056
2071
2105
2114
2119
2115
2128
2141
2138
2142
2116
2076
2027
1986
1993
2053
2115
2152
2154
2139
2119
2119
2138
2161
2186
2156
2128
2130
2111
2098
2104
2135
2165
2190
2216
2249
2262
2234
2190
2133
2085
2075
2112
2162
2184
2180
2175
2178
2193
2210
2200
2187
2168
2148
2112
2078
2065
2075
2108
2143
2152
2138
2120
2100
2072
2021
1998
1983
1990
2077
2185
2229
2225
2212
2197
2185
2156
2126
2088
2072
2094
2116
2123
2104
2113
2139
2152
2139
2103
2033
1947
1935
2002
2072
2108
2127
2155
2182
2183
2165
2141
2121
2132
2167
2207
2213
2196
2174
2163
2180
2209
2230
2230
2217
2201
2186
2207
2224
2218
2190
2170
2168
2166
2185
2204
2203
2181
2173
2176
2179
2181
2172
2160
2183
2237
2281
2288
2288
2304
2309
2313
2317
2292
2223
2123
2058
2056
2093
2140
2189
2221
2217
2191
2151
2152
2179
2198
2214
2232
2246
2254
2279
2283
2249
2235
2242
2234
2225
2205
2168
2135
2135
2158
2165
2148
2117
2085
2104
2149
2184
2162
2109
2093
2106
2135
2163
2152
2126
2086
2051
2063
2100
2119
2092
2048
2023
2008
2000
1987
2003
2056
2114
2107
2055
2006
1970
1954
1964
1973
1988
1999
1992
1982
1984
2006
2058
2092
2055
2009
2002
1990
1986
1982
1975
1986
1967
1915
1883
1890
1912
1931
1968
1999
1992
1951
1895
1870
1889
1922
1897
1876
1894
1909
1896
1891
1910
1932
1925
1912
1881
1858
1851
1870
1894
1930
1992
2009
1975
1960
1975
1991
1990
1987
1986
1966
1936
1923
1911
1900
1885
1851
1824
1792
1807
1892
1967
2006
2028
2043
2039
2017
2005
2023
2031
1998
1909
1800
1745
1760
1802
1849
1897
1956
1991
1992
1982
1985
2000
2008
2007
2004
2015
2007
2007
2024
2015
1977
1919
1880
1861
1870
1931
1976
1975
1965
1933
1892
1858
1831
1850
1897
1932
1936
1926
1927
1948
1963
1931
1891
1867
1879
1908
1909
1887
1858
1856
1877
1894
1909
1907
1896
1870
1830
1831
1850
1826
1824
1858
1842
1806
1779
1765
1790
1814
1805
1801
1831
1909
1994
2014
1965
1909
1906
1952
2003
2000
1974
1949
1957
1962
1969
1989
2004
2006
1977
1947
1961
1983
1993
1976
1933
1886
1899
1926
1954
1957
1956
1941
1926
1924
1893
1863
1873
1917
1960
1984
1971
1954
1955
1946
1931
1929
1914
1867
1828
1821
1825
1827
1824
1818
1820
1825
1828
1828
1811
1840
1886
1906
1895
1855
1808
1791
1792
1798
1835
1878
1916
1946
1952
1938
1931
1919
1902
1899
1915
1913
1893
1877
1894
1928
1959
1990
2027
2048
2034
2012
1997
2005
2014
2005
1992
1950
1941
1994
2064
2088
2055
1998
1960
1935
1950
1977
1976
1962
1952
1942
1971
2038
2083
2066
2045
2034
2022
2007
2005
2026
2039
2051
2069
2052
2002
1950
1920
1922
1938
1959
1980
1968
1946
1964
1984
1962
1970
2044
2115
2107
2070
2059
2076
2110
2128
2115
2083
2059
2058
2050
2035
2050
2070
2081
2064
2046
2039
2065
2099
2112
2078
2021
2003
2035
2095
2136
2129
2114
2114
2114
2119
2115
2093
2060
2043
2071
2112
2128
2136
2143
2130
2127
2143
2143
2131
2118
2114
2122
2113
2096
2084
2058
2038
2047
2091
2092
2055
2014
1999
1998
1976
1965
1979
2012
2077
2137
2166
2142
2077
2028
2037
2069
2088
2093
2055
2012
1998
2005
2024
2028
2043
2065
2054
2032
2033
2027
2017
1991
1965
1986
2038
2090
2090
2075
2095
2113
2123
2131
2123
2114
2105
2087
2067
2046
2041
2055
2085
2119
2167
2187
2158
2105
2069
2050
2060
2064
2075
2105
2138
2148
2157
2172
2186
2204
2204
2181
2151
2110
2066
2046
2042
2048
2056
2052
2061
2094
2130
2164
2171
2160
2173
2192
2181
2155
2153
2164
2209
2279
2328
2362
2408
2469
2487
2447
2395
2346
2317
2294
2274
2263
2239
2190
2118
2054
2060
2089
2090
2073
2045
2018
2060
2147
2205
2198
2152
2128
2132
2122
2095
2058
2033
2015
1999
2035
2109
2191
2235
2215
2164
2104
2082
2078
2081
2100
2145
2197
2191
2161
2131
2084
2038
2016
2070
2148
2206
2234
2207
2199
2211
2215
2224
2244
2257
2231
2186
2173
2195
2220
2210
2187
2187
2201
2204
2201
2201
2196
2186
2172
2167
2160
2133
2115
2131
2165
2184
2191
2193
2196
2190
2169
2141
2124
2147
2190
2225
2229
2204
2177
2159
2139
2135
2165
2209
2241
2210
2155
2119
2140
2195
2232
2268
2260
2220
2225
2270
2292
2287
2280
2276
2293
2297
2272
2258
2232
2203
2190
2187
2202
2220
2252
2263
2251
2208
2153
2130
2133
2146
2164
2191
2201
2190
2168
2151
2140
2127
2134
2145
2150
2150
2149
2185
2245
2259
2229
2223
2218
2198
2170
2147
2139
2124
2111
2137
2183
2211
2216
2220
2215
2219
2237
2237
2223
2213
2232
2263
2278
2258
2226
2206
2208
2224
2248
2269
2297
2317
2285
2232
2170
2118
2122
2166
2218
2240
2223
2193
2178
2191
2212
2226
2216
2215
2220
2243
2259
2270
2279
2291
2314
2283
2227
2207
2193
2173
2169
2221
2265
2273
2255
2233
2198
2169
2184
2249
2291
2278
2244
2258
2319
2343
2338
2344
2335
2343
2342
2288
2192
2101
2049
2073
2137
2205
2286
2381
2446
2415
2339
2271
2213
2178
2180
2228
2276
2298
2315
2296
2261
2267
2291
2313
2306
2285
2274
2284
2295
2306
2300
2270
2229
2236
2268
2282
2288
2278
2278
2261
2246
2269
2306
2318
2308
2283
2256
2235
2190
2143
2153
2207
2236
2229
2239
2272
2288
2262
2205
2149
2155
2180
2178
2152
2121
2107
2137
2183
2226
2237
2220
2191
2153
2117
2089
2063
2062
2086
2089
2056
2040
2020
2032
2066
2103
2082
1993
1876
1820
1832
1882
1990
2079
2079
2075
2091
2106
2100
2093
2089
2060
2022
2015
2029
2045
2076
2087
2073
2052
2051
2075
2102
2086
2045
2027
2014
2035
2085
2105
2080
2049
2027
2035
2072
2097
2084
2060
2030
2013
2019
2020
2002
1986
1996
1996
1979
1971
1979
1970
1931
1910
1914
1918
1970
2020
1973
1894
1862
1887
1920
1943
1925
1911
1889
1876
1872
1885
1900
1883
1864
1823
1781
1765
1789
1856
1934
1977
1985
1951
1882
1826
1820
1844
1844
1810
1747
1739
1795
1865
1897
1899
1913
1891
1834
1789
1820
1849
1881
1932
1936
1915
1924
1963
2014
2034
1993
1916
1850
1835
1869
1901
1884
1836
1803
1809
1878
1953
1982
1954
1929
1939
1950
1926
1913
1909
1907
1912
1952
1988
1969
1920
1883
1884
1895
1907
1932
1937
1929
1903
1879
1864
1859
1856
1869
1888
1890
1924
1975
1992
1974
1943
1899
1904
1897
1892
1902
1951
2040
2120
2150
2099
2031
1986
1965
1968
1995
1992
1972
1951
1927
1892
1846
1826
1848
1893
1928
1953
1961
1956
1974
2009
2043
2070
2038
1977
1941
1938
1933
1935
1939
1948
1963
1993
2014
2011
1986
1968
1982
2019
2020
2008
1992
1978
1988
2031
2069
2077
2065
2028
1986
1974
2017
2098
2170
2193
2139
2075
2016
1951
1929
1965
2015
2067
2106
2123
2118
2066
2024
1985
1984
2024
2064
2098
2116
2101
2081
2063
2062
2059
2048
2034
1993
1951
1975
2071
2158
2192
2205
2215
2184
2117
2072
2064
2077
2064
2038
2022
2046
2094
2146
2150
2121
2070
2035
2006
2000
2001
1978
1961
1991
2031
2082
2125
2160
2153
2135
2111
2110
2126
2150
2171
2165
2155
2144
2123
2110
2089
2059
2042
2035
2029
2027
2014
1992
2002
2017
2031
2028
2048
2074
2093
2134
2180
2212
2218
2201
2180
2183
2197
2192
2214
2255
2273
2257
2241
2225
2221
2214
2222
2219
2202
2199
2186
2169
2166
2202
2261
2307
2311
2282
2224
2176
2167
2184
2198
2210
2220
2225
2244
2276
2268
2235
2239
2290
2337
2360
2344
2301
2259
2223
2209
2208
2172
2147
2139
2136
2161
2218
2240
2213
2187
2184
2134
2053
1991
2013
2069
2094
2098
2124
2154
2180
2170
2141
2102
2035
1978
1961
1978
2024
2034
1995
1978
2018
2060
2060
2021
1952
1895
1845
1798
1776
1782
1821
1869
1923
1987
1991
1966
1954
1940
1914
1882
1869
1870
1880
1885
1868
1816
1763
1758
1783
1798
1758
1666
1609
1635
1690
1740
1772
1772
1805
1841
1867
1892
1911
1907
1890
1864
1832
1804
1790
1796
1810
1805
1805
1824
1848
1865
1867
1867
1870
1909
2007
2133
2235
2288
2277
2237
2189
2143
2079
2030
2022
2032
2024
1996
1951
1892
1863
1915
1977
1961
1911
1876
1872
1895
1882
1844
1816
1796
1772
1739
1709
1696
1686
1677
1675
1699
1756
1816
1811
1763
1716
1677
1664
1667
1718
1780
1818
1852
1868
1850
1796
1764
1748
1773
1836
1894
1941
1970
1966
1946
1940
1979
1993
1984
1955
1918
1878
1842
1830
1862
1916
1939
1929
1948
1964
1996
2042
2051
2027
2023
2034
2049
2073
2124
2186
2149
2047
1987
2009
2059
2094
2095
2114
2166
2202
2169
2129
2087
2049
2035
2049
2077
2113
2133
2132
2124
2135
2176
2211
2222
2208
2171
2125
2097
2087
2089
2093
2089
2091
2098
2107
2105
2088
2065
2011
1949
1915
1901
1921
1967
2018
2069
2096
2116
2128
2119
2095
2087
2093
2107
2113
2107
2103
2082
2039
2003
2013
2062
2064
2056
2078
2125
2156
2150
2119
2084
2055
2046
2048
2053
2023
1983
1954
1961
1987
2038
2080
2114
2122
2105
2096
2108
2127
2152
2150
2149
2163
2161
2143
2108
2076
2055
2080
2136
2173
2182
2178
2172
2180
2179
2158
2153
2174
2169
2132
2087
2070
2087
2098
2100
2109
2134
2165
2179
2169
2165
2171
2190
2210
2209
2200
2185
2171
2146
2126
2090
2041
2050
2121
2191
2195
2144
2108
2127
2159
2205
2254
2270
2232
2192
2176
2180
2184
2188
2174
2158
2153
2174
2192
2179
2214
2267
2297
2299
2283
2279
2272
2266
2269
2242
2220
2198
2160
2155
2229
2306
2342
2344
2314
2252
2210
2236
2264
2264
2245
2235
2227
2216
2230
2253
2243
2219
2204
2206
2207
2207
2220
2242
2254
2251
2237
2240
2253
2280
2310
2338
2364
2356
2315
2266
2195
2129
2102
2129
2186
2226
2232
2218
2191
2164
2156
2121
2074
2078
2120
2151
2154
2131
2098
2070
2052
2032
2051
2082
2077
2066
2087
2110
2107
2095
2070
2060
2038
2026
2033
2020
2020
2002
1975
1991
2046
2102
2141
2144
2066
1960
1885
1881
1918
1971
2017
2046
2038
1995
1962
1955
1961
1989
2009
1984
1925
1889
1908
1956
1990
2001
2000
1998
2006
2000
1989
1973
1973
2004
2052
2055
2028
1995
1961
1951
1947
1929
1903
1886
1873
1885
1917
1955
1993
2020
2019
2014
2028
2022
2004
2001
2005
1986
1983
2004
2022
2042
2045
2023
1987
1959
1936
1934
1959
1999
2028
2018
1973
1952
1952
1975
2007
2009
1984
1948
1930
1901
1882
1903
1936
1966
1988
1991
2016
2022
1980
1957
1977
1994
1992
1954
1913
1907
1930
1985
2021
2016
2019
2043
2047
2037
2027
2023
1999
1982
2000
2035
2055
2047
2030
1991
1958
1950
1923
1888
1905
1991
2082
2076
2030
2003
2006
2023
2030
2020
2017
2022
2025
2015
2010
2020
2044
2046
2020
1984
1992
2002
1995
1963
1923
1916
1935
1929
1897
1886
1919
1950
1952
1936
1945
1957
1961
1950
1930
1968
1975
1964
1970
2001
2015
2009
1982
1955
1948
1965
1967
1960
1940
1945
1960
1942
1927
1935
1968
1995
2008
2017
2027
2031
2009
1968
1936
1929
1943
1963
1981
2024
2068
2071
2053
2018
1976
1967
1974
1971
1954
1965
1964
1906
1848
1863
1927
1982
2003
2012
2040
2038
2003
1977
1955
1940
1950
1982
2001
2000
2017
2019
2005
1989
1966
1966
1997
2015
2027
2037
2029
2008
1993
1983
1977
1937
1898
1904
1913
1926
1970
2016
2013
1981
1938
1924
1966
2029
2060
2057
2046
2032
2023
2026
2041
2038
2014
1982
1971
1990
2010
2025
2053
2099
2109
2072
2016
1997
2008
2009
1990
1964
1957
1960
1975
1993
2016
2010
1975
1939
1906
1891
1870
1850
1869
1902
1936
1962
1963
1950
1896
1866
1870
1890
1929
1986
2013
1983
1950
1953
1962
1956
1942
1908
1873
1838
1820
1841
1877
1895
1906
1896
1858
1837
1832
1855
1904
1958
1976
1965
1928
1865
1854
1875
1868
1851
1857
1914
2016
2086
2079
2026
1971
1933
1923
1920
1883
1843
1855
1885
1914
1933
1953
1958
1952
1939
1932
1935
1928
1925
1929
1946
1966
1958
1936
1908
1884
1875
1873
1895
1897
1902
1910
1925
1929
1920
1899
1894
1924
1952
1965
1966
1947
1897
1875
1921
1969
1995
2032
2063
2075
2087
2075
2038
2014
2002
2009
2049
2118
2162
2186
2189
2172
2166
2197
2220
2204
2143
2072
2045
2035
2028
2006
2003
2041
2092
2105
2087
2046
2000
1946
1875
1795
1722
1685
1686
1686
1725
1782
1830
1846
1833
1833
1861
1913
1955
1975
1983
1970
1964
1951
1918
1907
1942
1993
2006
2034
2081
2092
2057
1999
1950
1971
2048
2111
2130
2139
2146
2138
2109
2081
2076
2097
2084
2088
2116
2147
2162
2141
2128
2090
2038
2036
2068
2080
2087
2089
2084
2077
2077
2100
2112
2097
2080
2051
2005
1990
2031
2060
2093
2115
2115
2095
2070
2057
2039
2003
1957
1896
1886
1960
2066
2129
2128
2113
2073
2048
2048
2061
2062
2052
2017
1952
1883
1875
1942
2006
2038
2034
2010
1996
2015
2033
2037
2055
2076
2060
2022
1986
1961
1947
1967
1985
1973
1969
1972
1988
1986
1980
2002
2029
2031
2018
1992
1974
1993
2045
2081
2066
2024
1995
1999
2021
2056
2066
2064
2059
2045
2004
1965
1966
1976
1958
1930
1919
1946
1998
2055
2073
2044
2014
2000
1996
1997
2004
2014
2009
1998
2010
1995
1957
1966
2012
2059
2113
2151
2151
2124
2068
2017
2001
2004
2014
2035
2068
2070
2017
1947
1903
1946
2004
2043
2094
2114
2108
2124
2126
2097
2054
2028
1991
1984
2020
2060
2088
2085
2065
2031
2006
1997
1995
1995
2013
2048
2049
2062
2095
2120
2102
2081
2080
2089
2090
2105
2131
2130
2081
2038
2028
2017
2018
2042
2083
2082
2072
2088
2079
2081
2080
2089
2117
2144
2132
2134
2173
2203
2197
2162
2115
2085
2060
2045
2060
2099
2120
2112
2091
2100
2117
2127
2137
2140
2157
2179
2201
2197
2167
2122
2097
2081
2072
2083
2080
2059
2051
2057
2052
2032
2028
2054
2093
2125
2111
2045
1966
1951
1964
1995
2038
2085
2096
2095
2108
2089
2041
2017
2019
2021
2008
1992
2003
2008
2010
2031
2060
2050
2015
1986
1995
2016
2008
1979
1961
1947
1923
1922
1956
1995
1993
1953
1909
1915
1926
1953
1965
1955
1971
1994
1988
1934
1862
1831
1826
1812
1807
1834
1875
1929
1966
1957
1935
1912
1909
1926
1944
1944
1945
1959
1971
1988
1984
1972
1953
1922
1906
1878
1855
1869
1893
1909
1911
1899
1875
1853
1847
1837
1811
1810
1866
1917
1933
1950
1972
1991
1984
1971
1960
1947
1943
1953
1974
1998
2007
1971
1926
1923
1981
2057
2069
2007
1950
1934
1936
1941
1937
1932
1930
1935
1925
1928
1941
1920
1885
1857
1890
1964
2013
2016
1980
1938
1932
1961
2003
2033
2058
2080
2065
2007
1947
1919
1910
1911
1935
1947
1953
1954
1965
1974
1976
1955
1930
1937
1968
1995
1994
1979
1974
1954
1935
1936
1963
1985
2014
2035
2003
1957
1934
1956
1979
1985
1985
2009
2034
2032
2021
2008
1985
1942
1896
1874
1878
1916
1984
2037
2060
2055
2041
2032
2002
1980
1979
1957
1937
1949
2002
2060
2070
2043
2019
2020
2034
2007
1944
1912
1942
2010
2080
2099
2063
2035
2020
2010
2003
2004
2011
2022
2012
1971
1920
1899
1920
1957
2003
2016
1987
1981
2011
2024
2041
2040
2025
2019
2016
2005
1996
2002
2012
1995
1963
1930
1910
1905
1926
1944
1939
1934
1935
1936
1955
2003
2062
2084
2076
2066
2034
2004
1975
1951
1950
1968
2011
2059
2069
2028
1969
1956
1970
1968
1957
1973
2009
2058
2079
2075
2070
2094
2130
2129
2080
2033
2014
2003
2020
2060
2063
2022
2009
2013
2023
2044
2105
2152
2131
2096
2067
2046
2036
2034
2017
2007
1992
1964
1945
1960
1997
1998
1980
1976
1966
1955
1933
1918
1936
1971
1988
1998
2003
1982
1936
1893
1907
1962
2025
2054
2044
2012
1980
1953
1913
1893
1882
1896
1927
1969
1986
1976
1948
1896
1857
1875
1912
1940
1935
1934
1945
1942
1938
1927
1917
1921
1908
1911
1927
1941
1956
1957
1960
1990
1987
1937
1905
1907
1931
1936
1935
1959
1976
1949
1908
1901
1922
1931
1929
1912
1902
1898
1910
1918
1912
1924
1945
1949
1948
1951
1949
1931
1927
1916
1903
1931
1991
2021
2019
1991
1983
1991
1991
1989
1991
2007
2045
2048
2038
2045
2071
2110
2148
2160
2145
2132
2139
2139
2134
2116
2072
2026
2040
2080
2123
2119
2089
2067
2044
2013
1996
1983
1949
1899
1848
1792
1746
1722
1737
1771
1808
1835
1839
1825
1807
1788
1778
1802
1839
1843
1829
1795
1779
1823
1897
1952
1981
1999
1993
1977
1958
1951
1936
1892
1886
1917
1955
1979
1996
1994
1982
1973
1976
1987
1993
1983
1962
1936
1931
1965
2010
2006
1997
2007
2036
2071
2076
2057
2017
1984
1979
1995
2018
2028
2002
1982
1972
1972
1969
1966
1952
1951
1966
1983
2017
2040
2033
2006
1974
1956
1972
2003
2021
2035
2043
2037
2018
1968
1911
1911
1942
1981
2033
2065
2056
2042
2043
2049
2042
2028
2035
2064
2087
2085
2088
2095
2083
2088
2114
2094
2021
1958
1961
2001
2050
2092
2100
2074
2028
2011
2041
2051
2046
2055
2051
2038
2018
2004
1984
1956
1947
1978
2002
2013
2013
2014
2037
2053
2035
2008
2030
2047
2036
2009
2019
2069
2106
2084
2037
2009
2008
2012
2024
2057
2079
2059
2046
2063
2073
2082
2102
2123
2121
2102
2071
2067
2073
2068
2053
2029
2010
2043
2079
2109
2122
2122
2146
2163
2182
2181
2170
2149
2118
2098
2105
2124
2143
2125
2075
2053
2077
2085
2070
2079
2103
2087
2082
2104
2135
2159
2163
2165
2177
2160
2141
2127
2119
2140
2161
2178
2182
2174
2198
2235
2248
2206
2142
2114
2113
2127
2112
2090
2094
2132
2166
2201
2246
2265
2250
2240
2222
2197
2193
2189
2179
2184
2186
2205
2237
2234
2208
2175
2172
2177
2191
2209
2207
2184
2144
2139
2130
2115
2137
2188
2200
2217
2250
2280
2287
2279
2267
2259
2253
2245
2219
2212
2232
2248
2244
2219
2182
2167
2158
2126
2090
2081
2078
2080
2120
2173
2149
2073
2027
2012
2015
2036
2054
2064
2073
2060
2046
2061
2070
2064
2090
2107
2095
2068
2036
2008
2000
2011
2022
2025
2016
2007
2026
2034
2015
2017
2052
2096
2106
2082
2038
1991
1972
2000
2017
1993
1965
1954
1957
1971
1981
1993
2000
2013
2000
1971
1953
1942
1942
1964
2001
2035
2062
2073
2079
2089
2093
2080
2062
2049
2029
2022
2035
2039
2023
1980
1926
1908
1927
1936
1923
1903
1917
1949
2015
2078
2087
2046
2001
1981
1999
1997
1973
1983
2009
2037
2064
2038
1999
1966
1939
1917
1907
1902
1909
1937
1977
2025
2055
2048
2025
2006
1987
1964
1963
1961
1970
2005
2040
2071
2082
2066
2035
2009
1998
2019
2046
2037
2010
2003
2003
2010
2021
2029
2025
2018
2037
2080
2115
2104
2064
2032
2027
2039
2061
2055
2008
1943
1876
1847
1886
1955
1983
1972
1987
2047
2099
2122
2127
2114
2130
2161
2132
2063
2002
1970
1967
1993
1996
1964
1943
1972
2012
2046
2064
2041
2022
2021
2025
2021
2015
2008
1988
1968
1971
1974
1952
1917
1921
1951
1970
1983
2015
2034
2004
1986
1996
1999
2012
2037
2072
2097
2106
2089
2067
2036
2018
1995
1972
1948
1941
1961
1993
2027
2078
2119
2128
2105
2042
2017
2027
2050
2040
1980
1907
1897
1947
1965
1959
1989
2038
2078
2081
2082
2066
2035
2038
2046
2052
2049
2024
1957
1905
1938
2010
2071
2096
2100
2088
2085
2088
2078
2078
2079
2071
2048
2028
2032
2040
2059
2076
2079
2070
2055
2027
1994
1976
1995
2042
2114
2169
2218
2223
2171
2080
2006
1996
2023
2031
2029
2040
2053
2067
2082
2086
2095
2122
2123
2082
2043
2050
2077
2064
2051
2065
2094
2142
2149
2116
2068
2003
1971
2001
2018
2017
2026
2026
1991
1962
1987
2026
2031
2004
1980
1981
2009
2033
2036
2032
2019
1988
1972
1971
1967
1956
1943
1926
1943
2006
2039
2014
1984
2003
2027
2033
2019
1998
1979
1962
1950
1939
1948
1979
2005
2023
2025
2023
2008
1990
1977
1939
1892
1894
1957
2020
2042
2030
2019
2020
2030
2032
2046
2070
2064
2024
1989
1952
1942
1965
1998
2030
2041
2020
1985
1999
2012
2026
2041
2041
2012
1978
1952
1950
1972
1986
1987
2002
2031
2026
1985
1968
1981
2006
2029
2077
2108
2115
2119
2121
2102
2117
2162
2196
2212
2233
2237
2235
2230
2216
2176
2132
2089
2060
2027
2003
2011
2003
1956
1927
1929
1948
1987
2010
1999
1985
1950
1895
1840
1811
1794
1756
1732
1742
1751
1753
1771
1816
1855
1863
1875
1910
1962
1986
1968
1944
1932
1941
1949
1946
1951
1946
1943
1939
1939
1968
2025
2071
2093
2111
2101
2066
2015
1974
1964
1969
1997
1998
2007
2039
2073
2081
2062
2041
2045
2076
2118
2103
2041
1964
1938
1961
1960
1974
2018
2069
2096
2111
2109
2084
2073
2066
2058
2063
2060
2056
2075
2052
2018
2035
2074
2082
2061
2014
1988
1997
1977
1943
1933
1949
1977
2018
2033
2018
2016
2044
2045
2035
2053
2058
2045
2049
2064
2076
2079
2107
2133
2123
2084
2098
2129
2132
2101
2064
2056
2072
2088
2084
2052
2032
2031
2029
2017
2037
2050
2056
2087
2107
2113
2121
2111
2089
2065
2046
2049
2067
2067
2064
2066
2067
2082
2103
2095
2064
2043
2057
2084
2121
2129
2108
2069
2015
1961
1912
1918
1982
2046
2075
2076
2070
2066
2038
1998
1981
2024
2079
2126
2160
2158
2143
2130
2104
2050
2054
2097
2125
2108
2089
2084
2073
2048
2015
1990
1976
1972
1961
1978
2042
2083
2076
2049
2033
2013
1996
2028
2069
2096
2092
2076
2081
2085
2065
2044
2029
2056
2079
2061
2016
1970
1927
1898
1913
1937
1952
1978
1979
1996
2018
2006
2021
2060
2063
2045
2024
2005
1979
1999
2034
2040
2043
2069
2134
2183
2170
2142
2129
2148
2160
2150
2142
2128
2137
2182
2184
2174
2144
2076
2048
2076
2111
2123
2124
2135
2148
2156
2145
2143
2163
2194
2221
2202
2163
2117
2087
2077
2095
2129
2153
2171
2179
2201
2209
2200
2218
2247
2267
2254
2236
2199
2142
2080
2027
1980
1958
1937
1916
1938
1983
2016
2007
1985
1976
1999
2018
2035
2049
2044
2034
2015
2006
2048
2102
2112
2077
2022
1991
1976
1966
1962
1978
1999
2013
2022
2003
1972
1948
1924
1916
1911
1891
1860
1839
1817
1793
1797
1828
1858
1879
1898
1930
1908
1844
1809
1851
1914
1964
1997
1977
1939
1911
1929
1981
2039
2049
2029
1989
1938
1918
1949
1986
1982
2001
2031
2019
2000
2014
2014
1989
1952
1935
1920
1889
1905
1939
1984
2011
2019
2022
2016
2019
2023
2026
2004
1996
1983
1954
1940
1959
1964
1944
1909
1884
1875
1879
1906
1961
2012
2043
2045
2018
1980
1935
1894
1885
1907
1956
1998
2008
1989
1961
1921
1909
1911
1908
1944
1998
2018
2013
1978
1932
1902
1885
1905
1943
1954
1950
1943
1965
1975
1965
1931
1905
1888
1898
1917
1923
1924
1931
1931
1924
1935
1978
2046
2101
2108
2080
2045
2004
1971
1959
1961
2001
2067
2103
2082
2038
2003
1996
1992
1992
1995
2001
1993
1958
1928
1906
1924
1957
1974
2001
2003
2000
1980
1970
1968
1971
1989
2001
2010
2028
2033
1984
1923
1863
1833
1863
1898
1952
1980
1958
1924
1902
1913
1911
1903
1903
1923
1954
1991
2007
2013
1997
1966
1951
1956
1977
1965
1927
1921
1946
1973
2006
2036
2045
2056
2030
2004
2010
2027
2030
2038
2053
2044
1995
1980
1980
1959
1965
2003
2044
2060
2070
2076
2068
2081
2079
2057
2057
2091
2104
2084
2066
2067
2063
2052
2041
2068
2054
2037
2051
2042
2047
2039
2020
2045
2048
2031
2034
2058
2072
2064
2065
2082
2118
2132
2111
2079
2054
2061
2100
2135
2163
2161
2138
2121
2103
2080
2056
2060
2104
2151
2156
2136
2096
2081
2109
2174
2207
2199
2189
2170
2138
2132
2160
2193
2190
2159
2113
2086
2088
2090
2103
2127
2121
2124
2148
2182
2190
2172
2133
2099
2123
2164
2177
2171
2147
2148
2189
2206
2185
2169
2182
2184
2157
2125
2114
2128
2160
2209
2246
2275
2269
2250
2215
2183
2177
2204
2235
2254
2249
2224
2196
2188
2196
2206
2209
2229
2252
2267
2288
2303
2292
2277
2264
2288
2308
2305
2308
2304
2292
2289
2303
2289
2272
2288
2326
2336
2321
2308
2284
2258
2225
2204
2182
2140
2139
2181
2232
2252
2238
2211
2207
2229
2236
2224
2220
2212
2191
2137
2095
2110
2166
2239
2266
2267
2274
2285
2283
2256
2237
2249
2269
2305
2342
2364
2377
2387
2402
2420
2435
2450
2459
2474
2460
2418
2379
2334
2283
2255
2259
2288
2300
2279
2245
2245
2260
2262
2247
2219
2196
2186
2157
2108
2070
2048
2053
2072
2088
2087
2093
2095
2088
2096
2114
2143
2171
2191
2206
2179
2132
2122
2146
2154
2156
2179
2193
2191
2212
2232
2244
2253
2275
2319
2348
2338
2315
2269
2211
2189
2201
2202
2209
2209
2203
2215
2190
2162
2203
2271
2335
2344
2341
2342
2322
2298
2295
2316
2354
2366
2344
2316
2317
2334
2352
2347
2328
2313
2289
2260
2229
2226
2253
2299
2354
2382
2343
2292
2265
2250
2247
2258
2281
2317
2345
2336
2323
2316
2302
2304
2293
2287
2309
2336
2351
2363
2329
2270
2251
2255
2253
2268
2304
2303
2280
2274
2277
2295
2351
2374
2363
2348
2322
2305
2308
2323
2346
2343
2329
2317
2311
2295
2273
2243
2227
2257
2319
2373
2408
2428
2428
2420
2387
2332
2271
2199
2142
2124
2131
2160
2216
2288
2356
2403
2443
2462
2462
2451
2431
2405
2364
2317
2284
2255
2235
2212
2203
2219
2261
2307
2357
2395
2382
2332
2291
2273
2273
2306
2352
2369
2364
2345
2327
2358
2405
2436
2436
2410
2379
2354
2326
2316
2366
2440
2470
2464
2448
2430
2405
2390
2380
2370
2354
2329
2290
2284
2334
2411
2467
2474
2451
2410
2371
2362
2342
2368
2422
2480
2510
2476
2432
2412
2420
2428
2433
2459
2497
2493
2462
2445
2435
2402
2376
2393
2425
2445
2451
2444
2412
2376
2363
2382
2410
2412
2402
2386
2385
2404
2417
2409
2423
2452
2471
2464
2455
2469
2482
2465
2414
2372
2382
2426
2460
2441
2383
2328
2317
2361
2408
2412
2402
2364
2294
2236
2224
2253
2284
2313
2326
2326
2323
2313
2297
2289
2283
2276
2282
2291
2277
2258
2246
2236
2219
2206
2199
2210
2220
2229
2231
2218
2210
2206
2174
2129
2094
2106
2130
2168
2215
2234
2209
2172
2137
2114
2084
2030
1988
2005
2073
2146
2209
2245
2203
2147
2133
2120
2105
2089
2099
2100
2069
2046
2077
2128
2131
2116
2104
2094
2080
2103
2147
2204
2216
2200
2181
2159
2136
2132
2130
2084
2065
2107
2160
2203
2198
2159
2116
2093
2111
2106
2073
2073
2104
2129
2151
2149
2130
2129
2151
2154
2149
2147
2161
2168
2162
2162
2149
2139
2109
2082
2044
2012
2023
2075
2158
2218
2249
2283
2294
2255
2208
2180
2153
2151
2179
2196
2200
2183
2148
2114
2097
2117
2133
2150
2178
2188
2199
2195
2164
2120
2099
2122
2179
2218
2218
2191
2172
2168
2165
2124
2072
2049
2048
2054
2083
2130
2189
2221
2199
2161
2137
2132
2148
2178
2200
2209
2209
2211
2211
2212
2198
2158
2115
2082
2067
2074
2093
2092
2083
2092
2125
2152
2152
2142
2141
2132
2108
2105
2125
2138
2153
2182
2204
2191
2166
2113
2066
2057
2089
2149
2176
2154
2134
2117
2107
2119
2131
2134
2142
2138
2136
2142
2134
2090
2054
2054
2091
2120
2125
2125
2146
2156
2146
2138
2129
2119
2120
2138
2155
2156
2164
2180
2183
2175
2171
2161
2129
2098
2087
2087
2095
2108
2118
2109
2122
2141
2148
2144
2128
2106
2081
2051
2044
2057
2077
2108
2149
2198
2236
2235
2211
2156
2095
2048
2031
2062
2111
2138
2168
2195
2225
2230
2204
2184
2182
2172
2156
2163
2225
2253
2242
2222
2222
2212
2165
2128
2134
2161
2175
2160
2100
2065
2093
2137
2174
2159
2151
2153
2160
2157
2147
2135
2127
2120
2114
2108
2105
2107
2109
2109
2082
2054
2038
2015
1989
1988
2028
2040
2005
1980
1965
1978
2030
2086
2108
2096
2041
1957
1930
1955
2004
2046
2092
2090
2054
2024
2008
2022
2040
2040
2024
2036
2043
2043
2072
2097
2070
2019
1994
2009
2052
2085
2080
2085
2084
2069
2054
2034
2039
2030
2016
2024
2044
2049
2018
1990
2031
2102
2150
2154
2147
2140
2129
2130
2131
2118
2118
2122
2115
2093
2077
2083
2086
2086
2100
2109
2135
2183
2199
2163
2104
2062
2065
2088
2075
2057
2030
2020
2023
2038
2071
2110
2131
2116
2117
2128
2177
2234
2261
2257
2268
2299
2335
2395
2438
2439
2405
2365
2356
2361
2376
2357
2311
2293
2295
2279
2250
2217
2159
2113
2113
2142
2191
2207
2190
2161
2124
2099
2086
2074
2068
2055
2068
2095
2088
2076
2060
2091
2115
2111
2091
2058
2040
2059
2081
2108
2131
2139
2145
2140
2140
2180
2203
2184
2148
2138
2131
2127
2119
2121
2092
2059
2067
2123
2174
2184
2176
2170
2143
2115
2117
2131
2151
2165
2185
2205
2198
2191
2197
2204
2204
2201
2180
2149
2122
2110
2117
2131
2153
2187
2219
2216
2177
2140
2138
2144
2139
2134
2151
2183
2207
2209
2186
2145
2104
2103
2128
2162
2166
2140
2137
2180
2218
2217
2213
2209
2212
2213
2205
2183
2184
2208
2193
2160
2121
2102
2134
2193
2252
2289
2297
2303
2309
2314
2307
2275
2240
2191
2145
2081
2082
2113
2136
2169
2222
2242
2201
2152
2157
2192
2232
2251
2236
2209
2186
2161
2147
2150
2167
2193
2197
2189
2188
2173
2153
2153
2171
2180
2170
2184
2205
2229
2242
2217
2174
2153
2165
2163
2131
2119
2150
2185
2235
2277
2288
2274
2255
2246
2203
2199
2222
2240
2237
2218
2203
2175
2184
2223
2265
2302
2300
2282
2277
2277
2278
2264
2252
2247
2238
2218
2225
2257
2279
2277
2276
2286
2270
2243
2231
2239
2274
2305
2327
2325
2302
2274
2249
2240
2240
2254
2253
2252
2260
2276
2285
2281
2249
2213
2215
2259
2330
2408
2452
2465
2468
2439
2380
2348
2362
2369
2333
2281
2267
2285
2318
2350
2368
2353
2319
2319
2345
2352
2338
2334
2317
2281
2252
2240
2288
2371
2433
2465
2481
2433
2371
2352
2366
2398
2420
2381
2316
2279
2264
2253
2261
2268
2276
2306
2319
2283
2247
2239
2269
2300
2296
2258
2213
2157
2135
2155
2178
2212
2221
2208
2202
2178
2159
2167
2194
2205
2170
2145
2134
2114
2097
2075
2026
2000
2030
2087
2139
2128
2090
2075
2099
2126
2120
2085
2073
2101
2117
2097
2094
2112
2133
2149
2127
2078
2039
2034
2060
2108
2147
2142
2089
2025
2007
2023
2048
2047
2056
2066
2076
2054
2031
2026
2017
2004
1987
2003
2027
2046
2049
2047
2065
2088
2083
2067
2074
2095
2098
2091
2056
2038
2042
2026
1982
1938
1944
1971
1962
1948
1981
2035
2079
2087
2068
2015
1958
1955
1994
2012
2032
2055
2082
2094
2088
2079
2050
2039
2044
2047
2067
2086
2098
2088
2070
2051
2035
2045
2071
2083
2065
1995
1907
1883
1943
2015
2068
2067
2042
2000
1979
1993
2000
2002
2004
2019
2023
2013
1996
1985
2009
2043
2068
2061
2042
2050
2065
2079
2093
2087
2070
2026
1993
1963
1955
1966
1983
2020
2006
1939
1903
1925
1986
2049
2088
2096
2075
2061
2065
2083
2115
2125
2085
2005
1956
1970
2015
2049
2066
2070
2023
1992
2019
2042
2037
2013
1974
1960
1962
1969
1989
2033
2094
2083
2038
2009
2002
1994
2001
2030
2058
2054
2015
1977
1992
2023
2042
2070
2085
2065
2053
2052
2056
2069
2053
2008
1954
1932
1947
1966
1980
2006
2039
2047
2042
2020
1981
1932
1893
1904
1948
1982
2002
2039
2065
2057
2039
2026
2051
2086
2096
2068
2048
2046
2023
2014
2033
2027
2014
2002
2016
2046
2065
2056
2033
2016
1999
1994
2010
2031
2057
2087
2102
2115
2129
2087
2028
2029
2046
2057
2057
2041
1997
1966
1942
1966
2006
2013
2009
2014
2022
2046
2080
2063
2024
1990
1985
2005
2048
2095
2118
2108
2087
2068
2046
2039
2050
2060
2064
2049
2069
2092
2080
2058
2060
2095
2129
2122
2081
2024
2000
2038
2099
2152
2152
2095
2041
2040
2053
2066
2083
2095
2105
2113
2114
2095
2086
2096
2108
2118
2115
2098
2091
2100
2098
2086
2065
2078
2113
2152
2151
2119
2067
2029
2023
2039
2050
2061
2079
2066
2049
2049
2040
2016
1999
1990
1998
2027
2052
2030
2002
1998
2025
2077
2099
2095
2072
2031
2012
2026
2039
2016
1987
1975
1955
1939
1953
1995
2033
2060
2071
2039
1988
1959
1973
2041
2115
2169
2200
2197
2175
2155
2143
2130
2104
2075
2049
2061
2104
2157
2181
2179
2133
2064
2013
2007
2021
2048
2074
2085
2068
2033
2002
1998
2011
2029
2057
2072
2085
2127
2184
2220
2202
2146
2088
2068
2081
2094
2109
2147
2171
2151
2109
2088
2097
2099
2088
2082
2095
2111
2110
2111
2124
2143
2142
2154
2177
2201
2241
2303
2349
2343
2324
2301
2293
2302
2281
2241
2206
2181
2158
2175
2232
2273
2278
2264
2254
2261
2258
2215
2144
2098
2065
2030
1997
1957
1930
1925
1934
1944
1950
1949
1959
1987
2017
2032
2017
2001
2013
2014
2026
2024
1974
1946
1967
2005
2050
2092
2100
2091
2107
2119
2112
2120
2113
2095
2083
2089
2103
2130
2163
2193
2200
2190
2174
2149
2132
2150
2163
2155
2162
2184
2196
2172
2131
2114
2110
2102
2132
2177
2200
2180
2152
2144
2156
2173
2183
2192
2188
2174
2170
2177
2177
2168
2141
2126
2151
2168
2104
2033
2019
2041
2092
2134
2142
2132
2137
2155
2160
2169
2165
2169
2170
2151
2154
2160
2142
2124
2107
2119
2157
2147
2093
2056
2068
2117
2170
2177
2152
2138
2151
2190
2200
2161
2111
2117
2139
2139
2124
2119
2140
2170
2195
2204
2197
2189
2185
2187
2160
2114
2087
2076
2082
2064
2039
2057
2068
2060
2056
2040
2020
2007
2039
2082
2088
2073
2079
2108
2116
2095
2089
2112
2146
2177
2204
2217
2163
2097
2069
2071
2071
2086
2109
2107
2127
2154
2183
2189
2175
2162
2164
2154
2129
2127
2125
2107
2093
2083
2106
2162
2181
2156
2126
2087
2066
2063
2063
2075
2119
2167
2187
2177
2165
2150
2130
2136
2149
2164
2160
2139
2123
2119
2131
2135
2144
2148
2185
2215
2199
2181
2161
2133
2137
2161
2185
2185
2178
2166
2142
2130
2097
2061
2046
2049
2049
2076
2126
2167
2226
2274
2296
2278
2255
2221
2201
2209
2217
2240
2237
2232
2243
2224
2193
2203
2226
2241
2222
2179
2146
2139
2149
2161
2178
2195
2187
2182
2182
2163
2142
2151
2165
2172
2164
2158
2161
2182
2208
2186
2135
2120
2137
2153
2150
2114
2053
2008
1999
2035
2082
2100
2096
2099
2076
2052
2048
2045
2038
1998
1922
1856
1823
1857
1932
2002
2058
2065
2016
1964
1935
1954
2029
2096
2078
2011
1953
1941
1963
1983
1999
2007
1991
1972
1947
1919
1907
1923
1942
1941
1932
1913
1895
1910
1950
1973
1954
1895
1846
1816
1794
1809
1840
1888
1931
1950
1943
1943
1956
1979
2002
2005
1994
1959
1929
1944
1981
2007
1985
1949
1930
1953
1981
1964
1906
1840
1802
1807
1811
1772
1760
1804
1851
1912
1940
1960
1984
1985
1990
1993
1963
1901
1847
1823
1841
1880
1896
1917
1965
2004
1991
1954
1917
1906
1917
1934
1957
1982
1986
1994
1981
1945
1899
1880
1896
1916
1936
1935
1922
1906
1886
1858
1869
1899
1938
1977
1976
1956
1908
1851
1833
1866
1901
1899
1874
1859
1878
1912
1951
1979
2013
2035
2021
1985
1968
1980
1994
1985
1980
1999
2039
2091
2112
2073
2023
2017
1995
1957
1948
1960
1991
1999
1964
1946
1949
1973
2004
2024
2012
1995
1984
1976
1986
1991
1974
1952
1965
2017
2066
2082
2039
2011
1998
1979
1961
1947
1941
1942
1923
1882
1902
1949
1965
1937
1903
1936
2016
2085
2103
2063
2023
1995
1966
1956
1957
1948
1941
1937
1950
1983
2009
2026
2053
2066
2071
2069
2067
2049
2015
1988
1951
1890
1862
1867
1891
1929
1940
1941
1936
1933
1938
1975
2019
2036
2024
2001
1993
2014
2033
2019
1988
1963
1984
2021
2029
2006
1983
1962
1966
1960
1931
1914
1924
1973
2022
2068
2063
1989
1895
1835
1831
1859
1888
1910
1925
1928
1914
1918
1931
1938
1946
1980
2004
1991
1985
1988
2003
2005
1990
1964
1963
2001
2049
2094
2129
2138
2109
2048
2009
1996
1980
1972
1947
1932
1929
1958
2000
2027
2023
2011
2011
2035
2067
2080
2065
2028
1991
1972
1973
1996
2007
2004
2006
2033
2053
2054
2061
2059
2041
2008
1966
1940
1923
1916
1917
1908
1907
1919
1935
1942
1938
1939
1931
1916
1904
1885
1874
1884
1908
1937
1963
1966
1954
1922
1885
1901
1958
2008
2019
2011
1995
1960
1948
1939
1923
1873
1825
1807
1782
1774
1813
1853
1869
1901
1963
2010
2034
2031
2011
1992
1963
1952
1941
1936
1953
1955
1958
1975
1971
1951
1943
1950
1934
1901
1872
1886
1957
2031
2052
2007
1959
1947
1982
2037
2030
1967
1917
1892
1873
1862
1868
1899
1939
1949
1924
1892
1882
1878
1881
1887
1877
1860
1858
1849
1826
1860
1918
1953
1978
2012
2016
2003
2013
2060
2093
2059
2020
2009
1976
1948
1974
2014
2047
2064
2072
2052
2015
1968
1948
1946
1938
1916
1880
1881
1905
1905
1880
1851
1835
1818
1837
1852
1844
1830
1805
1757
1695
1659
1664
1698
1760
1803
1826
1833
1823
1777
1699
1644
1631
1679
1764
1804
1792
1764
1752
1774
1792
1811
1842
1871
1872
1856
1823
1796
1761
1701
1642
1687
1804
1869
1838
1773
1705
1675
1699
1743
1804
1854
1862
1851
1830
1800
1780
1773
1774
1815
1869
1886
1865
1855
1868
1868
1848
1821
1806
1822
1851
1859
1835
1813
1802
1820
1881
1929
1929
1926
1913
1911
1916
1912
1881
1828
1806
1814
1805
1789
1804
1844
1883
1886
1857
1833
1832
1841
1829
1802
1792
1830
1892
1931
1936
1914
1888
1858
1836
1825
1806
1790
1792
1813
1838
1843
1826
1768
1720
1733
1761
1782
1801
1813
1817
1826
1860
1890
1895
1885
1880
1874
1887
1859
1827
1822
1852
1905
1952
1938
1885
1854
1836
1818
1798
1792
1794
1824
1875
1908
1923
1920
1882
1829
1792
1779
1801
1849
1878
1859
1853
1862
1856
1862
1854
1841
1861
1914
1963
1967
1918
1823
1770
1772
1787
1809
1821
1822
1841
1854
1850
1858
1882
1896
1913
1911
1922
1933
1941
1960
1968
1923
1840
1812
1827
1788
1775
1814
1890
1962
1985
1990
2006
2016
1999
1958
1934
1917
1872
1838
1826
1843
1875
1916
1942
1931
1917
1915
1917
1932
1941
1952
1971
1993
2008
2020
1993
1934
1904
1935
1966
1970
1959
1936
1908
1904
1938
1955
1935
1913
1928
1948
1955
1951
1946
1954
1974
2014
2048
2057
2019
1965
1928
1939
1963
1956
1954
1969
2003
2032
2022
1975
1920
1887
1874
1904
1956
1957
1925
1893
1893
1935
1972
1966
1966
1961
1928
1879
1862
1857
1860
1876
1880
1860
1851
1844
1823
1814
1799
1769
1739
1757
1788
1831
1848
1842
1834
1819
1803
1799
1764
1733
1724
1757
1813
1857
1889
1877
1798
1702
1652
1645
1681
1747
1784
1785
1779
1751
1722
1717
1720
1687
1674
1718
1781
1825
1837
1809
1763
1731
1698
1661
1656
1702
1772
1813
1816
1817
1845
1875
1875
1825
1770
1736
1709
1710
1726
1752
1792
1842
1870
1853
1817
1767
1725
1716
1752
1792
1828
1832
1813
1799
1793
1787
1811
1824
1808
1794
1801
1780
1725
1677
1675
1706
1741
1781
1772
1740
1736
1764
1793
1799
1820
1859
1882
1860
1827
1801
1771
1739
1707
1665
1630
1640
1673
1706
1732
1755
1765
1755
1730
1716
1725
1760
1795
1826
1825
1805
1796
1823
1861
1846
1766
1716
1746
1789
1812
1811
1816
1815
1807
1810
1810
1812
1813
1808
1801
1823
1879
1951
1950
1892
1843
1808
1796
1802
1810
1815
1822
1824
1825
1816
1796
1787
1816
1815
1784
1750
1705
1669
1649
1647
1656
1679
1691
1722
1765
1794
1817
1840
1839
1835
1843
1824
1744
1702
1722
1750
1747
1753
1790
1832
1845
1825
1783
1750
1729
1729
1738
1768
1804
1810
1805
1800
1778
1760
1763
1762
1761
1755
1754
1755
1743
1731
1747
1755
1763
1776
1791
1826
1851
1883
1906
1877
1815
1754
1719
1721
1753
1787
1790
1765
1746
1746
1779
1811
1811
1805
1800
1814
1809
1773
1747
1740
1750
1794
1852
1875
1852
1792
1738
1727
1745
1739
1699
1690
1735
1808
1879
1927
1941
1913
1883
1873
1853
1828
1807
1773
1742
1725
1739
1770
1798
1821
1824
1802
1747
1717
1734
1772
1807
1807
1783
1772
1788
1801
1786
1762
1754
1753
1746
1746
1761
1752
1741
1760
1801
1815
1823
1813
1778
1746
1775
1789
1768
1750
1753
1752
1760
1793
1801
1828
1868
1861
1847
1848
1850
1821
1793
1784
1788
1812
1816
1817
1832
1860
1874
1874
1870
1838
1812
1833
1857
1865
1845
1820
1798
1782
1804
1861
1924
1952
1939
1894
1853
1884
1921
1948
1972
1934
1865
1833
1874
1952
2024
2079
2117
2143
2163
2173
2166
2156
2145
2131
2112
2117
2129
2121
2110
2107
2115
2127
2150
2151
2134
2090
2056
2072
2111
2158
2182
2180
2149
2091
2057
2078
2125
2140
2135
2139
2131
2093
2059
2042
2029
2037
2061
2089
2117
2110
2110
2122
2120
2113
2104
2120
2122
2110
2083
2058
2067
2053
2010
2012
2036
2039
2023
2027
2030
2044
2090
2093
2063
2074
2114
2167
2201
2212
2168
2112
2080
2056
2048
2045
2039
2018
1997
1991
2002
2019
2014
1977
1935
1946
2000
2045
2068
2066
2080
2096
2102
2094
2106
2122
2129
2144
2165
2197
2221
2216
2198
2173
2179
2212
2258
2279
2270
2257
2217
2170
2128
2105
2117
2131
2105
2075
2034
1997
1990
1993
2013
2026
1989
1949
1926
1882
1810
1749
1722
1745
1797
1851
1885
1921
1928
1893
1852
1854
1877
1896
1920
1951
1974
1964
1936
1919
1929
1935
1944
1945
1937
1926
1927
1945
1975
1977
1979
1986
1994
2007
2046
2073
2052
2009
1961
1937
1932
1962
2013
2029
2014
2027
2059
2075
2083
2088
2108
2129
2102
2043
2013
2010
2014
1999
1989
2000
2018
2037
2044
2028
1997
1991
2027
2047
2033
2046
2083
2111
2105
2120
2119
2084
2036
2012
2025
2026
2033
2063
2083
2097
2102
2095
2093
2102
2123
2148
2163
2141
2070
1986
1913
1876
1890
1931
1988
2038
2056
2029
1967
1914
1921
1985
2083
2177
2222
2199
2160
2142
2126
2087
2046
2014
1994
1981
1954
1938
1962
2018
2069
2092
2068
2034
2016
2033
2044
2069
2064
2046
2058
2044
2030
2042
2048
2061
2084
2100
2116
2138
2157
2161
2149
2112
2064
2042
2062
2092
2104
2099
2062
2017
2025
2053
2087
2111
2132
2132
2094
2026
2004
2033
2061
2094
2120
2132
2133
2125
2113
2122
2123
2101
2086
2062
2037
2043
2082
2120
2133
2120
2087
2078
2068
2058
2079
2123
2159
2154
2146
2149
2180
2203
2169
2090
2015
2000
2038
2083
2138
2177
2180
2161
2133
2128
2159
2204
2216
2190
2193
2210
2179
2112
2065
2063
2065
2077
2134
2179
2165
2111
2062
2087
2152
2193
2195
2160
2133
2136
2139
2152
2172
2188
2217
2252
2264
2263
2275
2275
2267
2245
2223
2224
2229
2200
2185
2198
2195
2189
2189
2191
2223
2271
2265
2212
2138
2091
2081
2085
2088
2080
2063
2056
2085
2130
2163
2148
2142
2169
2190
2164
2131
2118
2135
2183
2224
2240
2214
2158
2126
2113
2098
2062
2063
2098
2124
2121
2101
2070
2084
2129
2161
2152
2111
2037
1965
1900
1849
1861
1942
2043
2107
2113
2112
2100
2101
2095
2074
2067
2077
2085
2116
2156
2167
2152
2147
2136
2128
2111
2063
2016
2005
1994
1987
1983
1975
1972
1965
1995
2049
2115
2145
2107
2065
2062
2091
2097
2097
2111
2092
2059
2043
2049
2079
2115
2140
2151
2146
2132
2123
2116
2104
2083
2051
2032
2034
2064
2088
2079
2052
1980
1917
1878
1864
1852
1838
1833
1854
1873
1879
1870
1852
1839
1828
1827
1846
1845
1822
1818
1840
1874
1880
1886
1890
1874
1830
1804
1810
1836
1867
1932
1985
1993
1952
1910
1899
1899
1937
1951
1927
1896
1854
1808
1822
1867
1895
1904
1925
1954
1992
1976
1929
1914
1927
1955
1988
2014
2024
2021
2013
2014
2044
2066
2027
1949
1902
1886
1897
1907
1928
1940
1946
1935
1915
1889
1881
1912
1955
1967
1956
1932
1888
1855
1839
1841
1857
1872
1900
1945
2009
2086
2109
2078
2038
2007
2024
2047
2050
2063
2063
2044
2046
2056
2055
2031
2000
1954
1902
1860
1868
1924
1976
2014
2024
2015
2012
2033
2028
1985
1938
1960
2020
2092
2130
2111
2066
2040
2054
2119
2159
2171
2177
2152
2102
2058
2033
2039
2054
2067
2065
2076
2081
2075
2065
2044
2033
2058
2070
2073
2064
2032
2014
2043
2080
2097
2090
2066
2047
2035
2036
2063
2098
2130
2134
2120
2089
2038
1992
1961
1973
2019
2049
2057
2098
2142
2175
2193
2181
2164
2141
2108
2091
2126
2137
2099
2066
2064
2059
2032
2012
2032
2086
2135
2135
2122
2107
2113
2134
2124
2104
2091
2089
2104
2128
2143
2179
2223
2221
2190
2157
2140
2140
2142
2156
2159
2175
2207
2219
2183
2145
2094
2061
2095
2137
2173
2198
2195
2181
2178
2176
2163
2152
2145
2153
2157
2141
2127
2135
2135
2117
2079
2078
2136
2208
2241
2222
2180
2161
2157
2149
2163
2194
2180
2169
2135
2064
2042
2091
2199
2266
2307
2323
2313
2282
2249
2264
2253
2210
2161
2151
2176
2185
2203
2205
2198
2199
2223
2265
2310
2303
2272
2242
2264
2288
2282
2265
2247
2208
2139
2111
2149
2215
2248
2212
2192
2223
2248
2267
2289
2302
2297
2316
2315
2283
2222
2156
2153
2197
2237
2264
2285
2288
2281
2272
2241
2191
2162
2161
2163
2172
2208
2251
2231
2149
2065
2064
2128
2223
2312
2362
2353
2320
2318
2348
2384
2422
2452
2458
2430
2400
2390
2403
2397
2403
2415
2417
2388
2346
2303
2278
2278
2316
2346
2318
2241
2172
2115
2078
2107
2158
2159
2117
2068
2028
1995
1989
2036
2094
2133
2178
2224
2228
2204
2168
2138
2147
2164
2169
2151
2115
2098
2093
2114
2157
2181
2177
2198
2239
2230
2251
2281
2253
2193
2111
2046
1995
1986
2056
2163
2231
2236
2191
2137
2132
2155
2187
2198
2194
2191
2187
2197
2206
2202
2187
2188
2205
2202
2202
2219
2240
2258
2276
2248
2192
2126
2126
2178
2208
2189
2167
2145
2142
2145
2142
2124
2135
2179
2218
2261
2284
2282
2276
2269
2261
2261
2282
2309
2330
2326
2297
2267
2275
2297
2299
2277
2269
2284
2271
2242
2225
2241
2250
2232
2201
2212
2270
2325
2320
2277
2239
2256
2260
2244
2227
2226
2249
2277
2285
2283
2294
2288
2264
2215
2174
2185
2251
2287
2231
2170
2160
2191
2198
2211
2232
2248
2277
2309
2297
2262
2225
2202
2178
2143
2107
2069
2075
2131
2196
2230
2226
2203
2190
2185
2173
2164
2174
2201
2238
2271
2297
2295
2226
2124
2061
2078
2107
2125
2132
2149
2174
2196
2196
2153
2094
2102
2165
2254
2332
2346
2312
2272
2244
2234
2230
2228
2203
2165
2157
2180
2208
2233
2231
2209
2183
2139
2104
2118
2201
2284
2312
2299
2241
2185
2193
2245
2312
2349
2321
2237
2164
2162
2207
2238
2218
2213
2216
2208
2183
2162
2177
2199
2214
2235
2258
2280
2312
2329
2306
2260
2232
2237
2257
2283
2289
2277
2247
2220
2219
2227
2210
2180
2177
2237
2301
2320
2323
2302
2252
2208
2207
2209
2187
2187
2224
2273
2310
2348
2379
2377
2336
2280
2251
2258
2278
2276
2271
2290
2323
2346
2352
2329
2295
2281
2278
2300
2281
2237
2198
2181
2192
2177
2156
2155
2190
2222
2225
2224
2223
2215
2194
2166
2144
2118
2119
2126
2109
2069
2070
2092
2092
2088
2078
2083
2077
2082
2103
2130
2168
2143
2098
2042
1973
1949
1998
2080
2117
2094
2047
1988
1945
1936
1965
2022
2104
2153
2141
2087
2017
1947
1934
1969
2024
2083
2131
2150
2166
2196
2235
2223
2152
2083
2026
1991
1991
1982
1959
1944
1932
1916
1890
1878
1885
1890
1890
1881
1859
1834
1820
1799
1784
1759
1755
1763
1762
1741
1696
1632
1597
1603
1641
1668
1688
1728
1784
1804
1798
1802
1849
1880
1866
1843
1814
1755
1684
1655
1681
1732
1775
1797
1795
1774
1758
1756
1732
1713
1724
1760
1760
1731
1709
1700
1691
1707
1771
1869
1931
1958
1954
1903
1856
1865
1906
1930
1909
1866
1839
1820
1791
1755
1735
1715
1712
1703
1687
1674
1652
1630
1616
1633
1646
1666
1676
1690
1699
1704
1700
1712
1766
1832
1842
1847
1842
1805
1783
1776
1766
1733
1688
1678
1696
1705
1710
1748
1787
1805
1826
1865
1871
1857
1857
1849
1846
1830
1841
1877
1897
1862
1804
1771
1780
1802
1834
1871
1914
1943
1958
1951
1945
1958
1997
2040
2050
2019
1934
1828
1769
1781
1817
1826
1818
1808
1805
1829
1839
1832
1802
1735
1695
1704
1706
1712
1772
1825
1811
1782
1769
1793
1814
1822
1842
1853
1864
1824
1762
1716
1677
1670
1670
1676
1696
1757
1838
1893
1927
1932
1902
1872
1848
1827
1827
1868
1909
1912
1906
1906
1912
1904
1882
1855
1837
1839
1859
1873
1894
1924
1971
2028
2060
2078
2112
2136
2153
2176
2184
2168
2194
2199
2184
2142
2116
2123
2127
2136
2130
2086
2033
2001
2012
2036
2045
2074
2113
2119
2107
2068
2019
1966
1952
1969
1999
2053
2108
2150
2171
2163
2136
2099
2063
2021
1989
1958
1919
1880
1866
1908
1958
1983
1980
1968
1961
1946
1923
1920
1961
1996
2015
2060
2054
1987
1921
1910
1954
2046
2131
2123
2057
1989
1944
1905
1877
1900
1937
1930
1896
1854
1877
1901
1940
1960
1956
1941
1894
1832
1784
1755
1741
1769
1803
1825
1860
1903
1920
1866
1792
1755
1746
1770
1800
1802
1791
1768
1747
1757
1778
1774
1761
1748
1730
1724
1718
1710
1719
1744
1749
1749
1737
1740
1771
1791
1792
1782
1773
1771
1774
1783
1802
1843
1866
1812
1728
1697
1724
1814
1925
1975
1968
1945
1897
1835
1821
1853
1888
1894
1855
1806
1765
1748
1754
1791
1830
1840
1856
1903
1972
2023
2055
2052
2028
2042
2067
2092
2152
2221
2267
2285
2302
2325
2350
2372
2358
2318
2282
2238
2176
2124
2110
2117
2106
2072
2011
1975
2004
2052
2057
2034
1995
1977
2001
2008
2006
1988
1954
1920
1907
1927
1962
2005
2021
1984
1939
1955
2008
2042
2043
2075
2106
2094
2087
2113
2132
2180
2211
2185
2154
2138
2148
2176
2181
2158
2172
2206
2215
2198
2211
2289
2339
2341
2321
2286
2250
2207
2193
2209
2192
2176
2179
2195
2162
2122
2141
2195
2264
2325
2367
2381
2357
2311
2260
2254
2279
2280
2236
2184
2147
2129
2146
2172
2198
2204
2193
2162
2165
2192
2209
2229
2272
2324
2343
2316
2288
2269
2249
2244
2243
2215
2173
2162
2163
2163
2187
2208
2183
2129
2099
2103
2136
2159
2177
2194
2188
2165
2146
2159
2195
2226
2247
2275
2303
2321
2325
2284
2238
2207
2166
2132
2147
2182
2192
2192
2184
2176
2164
2183
2190
2171
2139
2109
2087
2098
2152
2201
2191
2155
2161
2176
2187
2222
2255
2261
2277
2284
2268
2208
2145
2156
2202
2234
2217
2185
2175
2183
2190
2208
2225
2240
2246
2226
2200
2162
2169
2222
2260
2189
2083
2037
2063
2085
2116
2165
2214
2230
2220
2229
2229
2218
2196
2165
2152
2175
2200
2203
2207
2210
2232
2288
2336
2336
2298
2243
2208
2220
2228
2214
2201
2191
2188
2184
2195
2229
2243
2213
2208
2240
2268
2271
2272
2293
2322
2298
2264
2229
2172
2142
2158
2174
2190
2183
2180
2198
2223
2241
2242
2244
2237
2211
2193
2248
2342
2390
2362
2326
2316
2307
2304
2304
2276
2267
2263
2265
2292
2304
2303
2305
2314
2324
2310
2297
2282
2275
2271
2271
2302
2334
2352
2329
2269
2205
2164
2153
2155
2160
2174
2192
2209
2224
2237
2261
2270
2229
2170
2163
2178
2212
2230
2225
2212
2221
2217
2194
2189
2224
2273
2301
2295
2289
2274
2241
2195
2143
2123
2123
2117
2091
2047
2027
2035
2028
1985
1945
1945
1959
1987
2066
2155
2211
2230
2194
2154
2140
2143
2141
2128
2105
2074
2042
2036
2040
2045
2049
2048
2060
2104
2168
2189
2154
2096
2079
2119
2164
2171
2158
2151
2164
2201
2231
2235
2228
2248
2247
2235
2219
2227
2273
2328
2365
2371
2364
2357
2362
2384
2406
2440
2458
2459
2460
2454
2431
2407
2421
2480
2507
2470
2415
2364
2342
2358
2376
2381
2406
2405
2380
2379
2390
2369
2369
2424
2481
2462
2421
2380
2392
2444
2472
2454
2402
2354
2352
2366
2348
2319
2299
2297
2289
2278
2290
2300
2340
2380
2412
2426
2416
2403
2383
2369
2353
2329
2316
2327
2323
2286
2266
2294
2305
2312
2343
2366
2359
2337
2332
2335
2359
2384
2398
2395
2403
2375
2329
2321
2333
2320
2293
2263
2201
2100
2024
2043
2118
2201
2268
2268
2231
2194
2206
2279
2354
2382
2346
2285
2266
2274
2266
2264
2298
2336
2355
2356
2329
2298
2292
2316
2362
2432
2508
2540
2488
2391
2343
2343
2331
2299
2292
2300
2330
2379
2429
2445
2419
2397
2375
2335
2291
2256
2211
2171
2152
2157
2172
2198
2192
2164
2136
2146
2123
2073
2079
2144
2196
2176
2139
2119
2135
2195
2251
2251
2242
2242
2248
2214
2124
2019
1975
2006
2092
2189
2244
2230
2165
2126
2151
2193
2191
2201
2195
2163
2166
2172
2160
2109
2039
2011
2065
2120
2147
2142
2137
2143
2169
2202
2233
2247
2235
2219
2217
2240
2256
2248
2237
2229
2242
2258
2265
2250
2190
2144
2142
2163
2198
2206
2180
2147
2134
2155
2194
2206
2227
2278
2347
2404
2400
2356
2329
2295
2279
2255
2236
2221
2212
2209
2207
2188
2175
2197
2226
2216
2179
2150
2177
2235
2270
2288
2320
2306
2278
2228
2188
2165
2125
2106
2135
2151
2147
2135
2114
2111
2124
2114
2096
2114
2136
2169
2216
2239
2230
2219
2212
2204
2221
2247
2244
2219
2187
2151
2113
2099
2119
2148
2170
2161
2126
2073
2067
2104
2143
2173
2172
2163
2147
2135
2121
2124
2121
2104
2104
2113
2154
2199
2185
2137
2130
2156
2154
2138
2108
2090
2101
2148
2181
2156
2100
2074
2102
2156
2193
2191
2123
2028
1986
1985
2017
2063
2081
2147
2225
2271
2261
2218
2158
2093
2057
2064
2111
2147
2145
2134
2150
2179
2181
2153
2125
2127
2147
2174
2186
2199
2204
2191
2188
2156
2143
2177
2223
2249
2244
2205
2149
2133
2166
2193
2177
2166
2183
2183
2154
2125
2126
2161
2200
2195
2151
2070
2013
2024
2045
2044
2033
2060
2157
2257
2285
2253
2213
2189
2171
2168
2204
2262
2316
2348
2350
2355
2362
2357
2374
2406
2401
2384
2376
2374
2364
2378
2407
2441
2459
2436
2396
2361
2353
2347
2355
2364
2382
2386
2406
2443
2485
2517
2498
2445
2375
2321
2276
2266
2292
2328
2343
2328
2323
2312
2296
2279
2269
2297
2363
2419
2455
2455
2403
2343
2342
2372
2425
2470
2473
2466
2438
2395
2371
2392
2416
2397
2360
2361
2382
2421
2467
2500
2497
2460
2420
2404
2393
2408
2440
2465
2455
2424
2414
2426
2452
2486
2506
2523
2540
2548
2531
2496
2465
2456
2450
2447
2450
2445
2434
2426
2428
2443
2443
2435
2433
2423
2410
2381
2357
2361
2380
2400
2438
2497
2563
2602
2602
2562
2505
2428
2350
2304
2302
2333
2377
2435
2482
2510
2508
2484
2483
2487
2485
2465
2462
2480
2460
2441
2426
2433
2449
2455
2449
2458
2452
2450
2471
2443
2374
2363
2368
2345
2344
2377
2412
2422
2417
2401
2390
2394
2383
2388
2420
2445
2454
2456
2437
2410
2390
2381
2370
2356
2342
2335
2350
2352
2343
2336
2327
2333
2363
2376
2355
2327
2302
2297
2313
2329
2336
2375
2432
2443
2424
2389
2342
2311
2320
2352
2355
2360
2355
2348
2367
2411
2452
2448
2407
2344
2307
2311
2311
2299
2297
2303
2324
2358
2388
2407
2421
2410
2381
2365
2359
2337
2303
2262
2244
2265
2258
2231
2223
2234
2252
2266
2293
2275
2261
2273
2283
2288
2304
2297
2269
2246
2239
2234
2214
2198
2180
2160
2151
2159
2138
2090
2046
2034
2042
2073
2109
2100
2070
2037
2041
2074
2111
2102
2038
1980
1984
2004
2009
2024
2056
2106
2153
2180
2176
2142
2092
2047
2008
1966
1939
1937
1959
1974
1966
1951
1925
1896
1861
1828
1812
1830
1870
1905
1915
1925
1912
1900
1888
1866
1843
1869
1911
1930
1934
1918
1874
1861
1890
1903
1899
1886
1879
1888
1906
1909
1907
1896
1851
1792
1772
1778
1794
1803
1787
1748
1714
1700
1694
1706
1749
1820
1889
1916
1881
1851
1842
1866
1921
1958
1930
1881
1853
1867
1899
1930
1948
1959
1952
1910
1861
1834
1827
1841
1865
1896
1921
1939
1943
1918
1878
1834
1820
1831
1828
1817
1832
1845
1864
1884
1870
1854
1881
1924
1921
1871
1818
1800
1825
1846
1801
1732
1713
1760
1799
1813
1808
1828
1865
1896
1905
1905
1893
1880
1897
1920
1930
1941
1906
1835
1804
1838
1892
1938
1970
1956
1916
1901
1865
1828
1812
1859
1923
1932
1922
1934
1946
1968
2008
2036
2018
1989
1957
1919
1894
1877
1862
1843
1835
1828
1818
1834
1839
1828
1837
1873
1917
1949
1971
1969
1964
1967
1965
1961
1942
1919
1910
1908
1875
1827
1810
1810
1826
1867
1913
1955
1971
1955
1910
1856
1824
1837
1856
1853
1871
1905
1944
1978
1971
1930
1892
1874
1858
1857
1854
1859
1898
1910
1895
1856
1822
1823
1841
1895
1992
2069
2079
2048
1992
1943
1934
1954
1978
1997
1977
1949
1910
1888
1909
1937
1942
1955
1977
1984
1980
1981
1978
1960
1940
1956
2030
2065
2043
2000
1962
1909
1876
1861
1857
1879
1917
1963
1992
1992
1974
1980
2007
2021
2011
1992
1961
1944
1962
2016
2059
2076
2078
2062
2022
1998
1999
2016
1986
1914
1898
1940
1987
2021
2014
1987
1969
1985
1990
2000
1983
1957
1952
1942
1907
1847
1791
1775
1815
1870
1951
2006
2001
1966
1893
1834
1836
1863
1902
1952
2000
2016
1987
1953
1929
1897
1875
1879
1892
1888
1905
1938
1961
1947
1907
1883
1891
1909
1921
1937
1950
1957
1977
1972
1927
1905
1929
1974
1980
1983
2027
2049
2041
2032
2004
1981
1981
1994
2005
2011
2013
1994
1974
1950
1927
1938
1967
2008
2045
2045
2027
2014
2008
2017
2028
2048
2067
2061
2028
1974
1938
1928
1922
1934
1964
1982
1998
2036
2112
2184
2219
2212
2202
2214
2230
2234
2229
2238
2278
2288
2263
2214
2158
2121
2106
2089
2076
2052
2035
2044
2038
2015
1999
1967
1918
1865
1812
1784
1802
1831
1877
1899
1892
1880
1860
1845
1833
1840
1846
1832
1833
1839
1835
1850
1873
1878
1901
1928
1942
1937
1924
1904
1923
1983
2068
2097
2070
2042
2015
2017
2011
1991
2010
2065
2122
2138
2117
2118
2118
2093
2072
2041
2015
2030
2047
2050
2048
2042
2044
2041
2023
1992
2001
2041
2053
2066
2085
2108
2098
2087
2063
2021
1972
1951
1932
1938
1983
2043
2082
2104
2122
2119
2090
2039
2007
2027
2069
2071
2042
2049
2054
2067
2068
2072
2098
2063
1996
1971
1992
2046
2095
2095
2068
2036
1996
1986
1991
1996
2008
2034
2065
2071
2035
2007
2029
2060
2044
2024
2005
1979
1979
1994
2007
2029
2031
2022
2008
2016
2033
2058
2083
2070
2025
2009
2031
2068
2115
2150
2133
2100
2088
2054
1991
1955
1942
1965
2018
2062
2107
2143
2125
2059
1998
1972
1999
2068
2121
2116
2079
2053
2054
2042
2035
2025
2005
1984
1980
2014
2077
2157
2192
2174
2144
2117
2113
2138
2157
2177
2185
2170
2152
2165
2159
2137
2106
2069
2041
2025
1989
1961
2006
2093
2158
2149
2112
2108
2127
2144
2142
2136
2151
2156
2131
2122
2134
2146
2150
2153
2186
2197
2169
2135
2092
2031
1984
2025
2133
2214
2238
2225
2209
2215
2242
2263
2259
2255
2253
2232
2182
2115
2093
2142
2203
2250
2264
2236
2216
2229
2241
2229
2203
2200
2238
2269
2244
2223
2217
2229
2253
2284
2308
2307
2264
2233
2258
2286
2269
2231
2216
2191
2156
2142
2146
2134
2123
2137
2185
2218
2250
2240
2202
2130
2038
2001
2029
2053
2066
2090
2112
2115
2110
2125
2096
2055
2050
2028
1966
1927
1932
1979
2056
2104
2127
2130
2120
2125
2142
2140
2104
2044
2007
2008
2036
2049
2036
2031
2054
2092
2110
2096
2059
2023
2007
1983
1946
1907
1886
1876
1863
1863
1857
1856
1881
1934
1973
1967
1962
1974
2000
1981
1933
1898
1902
1927
1961
2015
2045
2027
2005
1993
1983
1949
1897
1863
1889
1936
1940
1897
1849
1830
1865
1925
1981
2008
1985
1956
1967
2023
2075
2100
2107
2098
2056
2001
1972
1971
2004
2064
2107
2127
2142
2135
2122
2135
2149
2141
2106
2062
2034
2016
2003
2004
2033
2068
2068
2070
2077
2069
2036
1988
1975
1977
1978
1973
1973
2002
2049
2084
2085
2056
2030
2001
1976
1996
2042
2087
2130
2125
2107
2085
2080
2083
2091
2103
2095
2082
2053
2019
2013
2042
2080
2103
2111
2092
2064
2032
1993
1953
1922
1901
1925
1956
1961
1954
1925
1891
1892
1931
1955
1968
1996
2025
2020
2002
1998
2025
2067
2088
2044
1996
1989
2007
2000
1971
1939
1923
1918
1909
1903
1881
1843
1826
1861
1893
1914
1917
1937
1956
1953
1911
1879
1867
1857
1865
1910
1978
2035
2049
2040
2010
1976
1946
1966
2003
2012
1982
1936
1902
1878
1870
1902
1947
1975
1971
2004
2036
2016
1966
1933
1953
2005
2043
2028
2002
1998
2017
2001
1963
1980
1993
1977
1977
1992
2034
2079
2075
2065
2063
2055
2044
2053
2076
2085
2086
2067
2056
2051
2045
2008
1983
2019
2045
2024
1981
1933
1933
1960
1998
2047
2089
2107
2098
2037
1953
1930
1963
2003
2030
2027
2000
1973
1943
1942
1973
1982
1981
1984
1972
1948
1939
1957
1964
1970
1994
1989
1952
1937
1954
1982
1988
1969
1941
1926
1933
1957
1957
1933
1896
1904
1941
1963
1966
1953
1954
1960
1944
1905
1848
1812
1815
1843
1864
1890
1891
1878
1893
1927
1946
1954
1972
1983
1992
1983
1961
1933
1914
1926
1949
1979
1998
1998
1989
1942
1884
1862
1888
1939
1987
2007
2015
2030
2056
2051
2018
1999
1977
1924
1888
1886
1900
1898
1881
1873
1894
1917
1941
1956
1966
1988
2015
2019
2002
1989
2033
2095
2132
2112
2052
2008
2027
2095
2151
2195
2213
2207
2199
2170
2146
2143
2146
2147
2135
2082
2009
1976
1966
1955
1936
1904
1859
1873
1944
1992
1988
1964
1924
1869
1802
1742
1725
1741
1770
1785
1775
1753
1747
1773
1773
1742
1730
1759
1815
1876
1907
1939
1969
1990
2023
2052
2082
2076
2046
2022
2018
1997
1981
1951
1930
1941
1962
1994
2033
2011
1985
1975
1943
1904
1892
1897
1885
1864
1878
1918
1941
1955
1998
2023
2019
2015
2022
2042
2037
2010
1989
2004
2029
2048
2043
2025
1996
1956
1903
1870
1894
1953
2008
2032
2040
2033
2026
2040
2038
2043
2032
2005
1972
1948
1934
1928
1944
1982
2002
2002
1999
2006
2036
2072
2079
2069
2033
1982
1961
1982
2011
2056
2101
2135
2136
2102
2059
2026
2009
2018
2010
1980
1974
1977
1998
2020
2029
2021
2025
2055
2072
2070
2068
2056
2036
2030
2064
2095
2116
2140
2135
2111
2106
2098
2067
2018
1977
1966
1962
1967
1991
2014
2046
2077
2084
2092
2107
2128
2151
2156
2168
2161
2128
2080
2032
1990
1983
2010
2057
2066
2067
2076
2108
2147
2155
2146
2123
2087
2069
2062
2068
2059
2074
2097
2104
2101
2087
2093
2138
2173
2143
2102
2079
2059
2094
2145
2173
2206
2223
2220
2216
2225
2219
2211
2213
2220
2211
2175
2142
2132
2122
2115
2102
2113
2140
2158
2167
2159
2133
2136
2156
2172
2201
2214
2190
2156
2141
2145
2158
2174
2167
2164
2160
2158
2155
2177
2196
2188
2183
2187
2177
2178
2196
2196
2171
2116
2084
2113
2179
2227
2240
2226
2189
2150
2151
2187
2238
2278
2296
2290
2282
2258
2225
2211
2197
2189
2202
2215
2203
2175
2146
2134
2192
2249
2274
2284
2240
2161
2098
2062
2068
2116
2141
2130
2135
2136
2122
2115
2126
2120
2077
2029
2003
2004
2004
2031
2071
2084
2080
2078
2078
2085
2098
2094
2074
2060
2032
2002
2011
2050
2072
2079
2075
2064
2059
2053
2031
1992
1968
1975
2000
1989
1960
1950
1956
1984
1994
1977
1959
1971
1998
2010
2017
2021
2018
2025
2058
2067
2040
2021
2009
2000
1995
1978
1970
1971
1986
1998
2012
2021
2025
2022
2022
2013
1997
1983
1966
1943
1931
1922
1916
1970
2037
2065
2072
2058
2031
2005
2013
2040
2041
2046
2064
2062
2042
2015
1983
1964
1946
1929
1923
1956
2021
2070
2080
2056
2034
2033
2004
1957
1950
1997
2034
2053
2044
2048
2061
2079
2074
2082
2105
2094
2077
2067
2053
2056
2072
2075
2066
2062
2085
2094
2077
2018
1954
1947
1974
2008
2033
2041
2041
2058
2041
2035
2068
2094
2093
2072
2050
2032
2016
2003
2017
2038
2053
2033
2001
1982
2008
2064
2093
2070
2034
1996
2017
2058
2066
2051
2046
2074
2102
2092
2109
2106
2065
2008
1963
1933
1929
1936
1957
1994
2026
2040
2052
2077
2089
2089
2096
2082
2040
1995
1971
1977
2014
2072
2123
2118
2100
2070
2023
2018
2058
2077
2062
2056
2033
1996
1985
2031
2106
2156
2143
2092
2028
2036
2084
2132
2150
2161
2169
2165
2144
2123
2124
2134
2141
2115
2076
2054
2044
2069
2120
2168
2170
2144
2133
2119
2115
2142
2162
2141
2119
2105
2065
2016
1980
1978
2010
2046
2066
2071
2068
2062
2059
2048
2046
2012
1966
1958
1953
1984
2007
2001
2013
2038
2064
2071
2055
2030
2017
2028
2048
2067
2056
2062
2093
2094
2066
2039
2019
2003
1977
1949
1925
1912
1938
1982
2002
1996
1989
2003
2029
2067
2100
2132
2140
2127
2103
2081
2082
2077
2055
2037
2034
2046
2034
2003
2011
2038
2059
2071
2099
2107
2086
2064
2041
2034
2023
2011
1979
1957
1980
2006
2005
1993
1993
1993
2012
2027
2030
2039
2041
2053
2060
2083
2110
2075
2043
2059
2108
2169
2243
2269
2234
2167
2078
2002
1962
1954
1972
2018
2081
2136
2151
2131
2127
2139
2162
2203
2230
2226
2192
2137
2109
2122
2168
2219
2240
2244
2227
2188
2131
2077
2044
2027
2025
2032
2046
2049
2055
2056
2018
1969
1943
1920
1886
1870
1865
1849
1843
1866
1893
1908
1894
1885
1885
1900
1927
1925
1892
1904
1922
1928
1949
1987
2035
2067
2062
2052
2053
2071
2084
2054
2036
2020
2004
2018
2040
2041
2037
2038
2034
2024
2046
2071
2082
2054
2016
2009
2016
2023
2056
2087
2077
2051
2053
2066
2059
2045
2026
2014
2017
2042
2049
2028
2015
2031
2038
2052
2070
2099
2124
2142
2120
2043
1960
1925
1930
1967
2028
2090
2120
2134
2149
2153
2117
2057
2027
2040
2064
2091
2114
2110
2083
2065
2072
2085
2104
2127
2151
2142
2128
2123
2137
2134
2138
2129
2092
2060
2073
2097
2069
2035
2005
2003
2043
2081
2099
2113
2107
2114
2130
2135
2131
2106
2076
2086
2115
2140
2162
2145
2101
2039
2030
2073
2099
2076
2045
2044
2052
2058
2046
2014
1970
1956
1968
1986
2033
2110
2169
2177
2123
2049
2015
2052
2116
2180
2182
2162
2141
2148
2167
2192
2191
2153
2118
2130
2156
2146
2149
2160
2194
2219
2202
2162
2130
2134
2183
2222
2218
2208
2201
2219
2270
2319
2312
2289
2270
2231
2172
2168
2199
2205
2147
2084
2080
2106
2125
2137
2154
2168
2192
2209
2221
2241
2219
2195
2210
2252
2269
2247
2233
2270
2317
2322
2277
2239
2235
2267
2284
2274
2233
2205
2219
2258
2282
2275
2248
2218
2209
2226
2261
2286
2314
2355
2391
2394
2358
2349
2372
2376
2360
2330
2283
2272
2300
2346
2381
2399
2386
2371
2377
2388
2393
2387
2396
2387
2366
2342
2332
2346
2333
2295
2243
2196
2163
2182
2215
2249
2310
2356
2343
2292
2231
2209
2203
2217
2253
2252
2229
2199
2178
2163
2163
2175
2200
2173
2135
2121
2113
2107
2102
2069
2012
1973
1962
1963
2011
2106
2168
2153
2104
2078
2093
2123
2141
2135
2127
2119
2106
2083
2066
2051
2050
2070
2090
2106
2111
2093
2069
2046
2054
2050
2036
2034
2048
2048
2060
2080
2080
2063
2046
2044
2026
2015
2040
2079
2070
2023
1979
1931
1909
1962
2040
2062
2040
2012
2012
2030
2036
2039
2040
2040
2045
2051
2054
2052
2033
1991
1939
1933
1969
2012
2051
2074
2078
2057
2026
2044
2083
2095
2062
1991
1932
1931
1951
1970
1990
2010
2028
2017
2012
2003
1958
1921
1922
1937
1972
2019
2048
2047
2038
2023
2019
2038
2048
2031
2003
1979
1977
1995
2019
2045
2040
2014
1993
1987
1987
1973
2005
2054
2067
2072
2054
2028
2017
2048
2094
2113
2075
2038
2022
2025
2029
2022
2021
2036
2066
2069
2046
2034
2044
2036
2031
2048
2061
2071
2061
2035
2009
2010
2023
2019
2028
2030
2019
2003
1990
1975
1938
1942
1995
2016
1997
1955
1946
1969
2000
2025
2032
2053
2075
2064
2047
2043
2055
2098
2143
2146
2113
2056
2006
1976
1972
1969
1974
2018
2073
2087
2060
2020
2024
2074
2127
2167
2212
2208
2160
2096
2056
2037
2019
2035
2054
2044
2070
2129
2181
2219
2196
2133
2103
2124
2138
2149
2158
2158
2154
2147
2142
2117
2103
2117
2124
2117
2088
2051
2055
2086
2103
2106
2100
2075
2054
2069
2082
2051
2015
1968
1917
1909
1943
1994
2048
2090
2115
2098
2059
2028
2022
2040
2035
2041
2057
2077
2106
2088
2054
2042
2063
2071
2082
2099
2080
2036
2013
2018
2033
2048
2063
2064
2058
2048
2036
2034
2023
1992
1980
1985
1998
2023
2046
2060
2095
2135
2137
2115
2091
2063
2065
2097
2140
2157
2135
2098
2063
2044
2013
1997
2011
2014
1999
1988
1970
1939
1920
1922
1949
2004
2060
2101
2070
2011
1984
2032
2090
2093
2078
2035
2009
2038
2075
2066
2036
2017
2004
2007
2028
2032
2045
2069
2106
2127
2158
2156
2143
2114
2076
2067
2071
2077
2089
2073
2037
2029
2050
2095
2140
2197
2259
2302
2322
2301
2292
2295
2269
2215
2172
2146
2123
2095
2074
2065
2070
2054
2020
2015
2032
2068
2093
2071
2020
1933
1868
1883
1929
1947
1931
1912
1898
1910
1936
1961
1992
2001
2001
2022
2034
2007
1953
1934
1982
2013
2006
1995
1995
2009
2001
2010
2038
2034
2021
2007
2023
2027
2015
1994
1995
2023
2051
2052
2048
2070
2097
2103
2096
2077
2056
2059
2062
2072
2081
2061
2024
2005
2004
2002
2022
2044
2019
1974
1973
2008
2038
2063
2079
2069
2033
1995
1993
2031
2084
2122
2124
2120
2130
2145
2150
2149
2123
2088
2083
2101
2096
2087
2102
2131
2124
2078
2022
1998
2015
2034
2048
2047
2036
2011
2002
2027
2063
2081
2075
2087
2113
2118
2103
2103
2113
2116
2117
2124
2129
2124
2114
2088
2051
2033
2052
2063
2052
2033
2005
1967
1958
1937
1913
1886
1923
2004
2071
2090
2088
2097
2118
2124
2132
2139
2154
2155
2142
2112
2084
2065
2067
2087
2110
2143
2178
2205
2193
2152
2113
2101
2094
2087
2076
2051
2029
2011
2001
2007
2023
2050
2095
2144
2135
2118
2132
2141
2119
2112
2139
2170
2153
2084
2012
2004
2042
2087
2114
2112
2096
2053
2008
1988
2001
2057
2116
2171
2186
2169
2165
2154
2133
2110
2102
2139
2202
2257
2275
2240
2190
2138
2128
2174
2232
2252
2210
2176
2191
2198
2165
2146
2143
2157
2177
2196
2220
2234
2245
2248
2237
2245
2239
2204
2171
2168
2193
2225
2222
2196
2206
2240
2289
2318
2317
2279
2226
2185
2186
2196
2201
2189
2156
2156
2202
2232
2224
2179
2136
2127
2168
2243
2304
2311
2280
2224
2176
2148
2157
2190
2217
2232
2230
2205
2177
2172
2175
2172
2141
2088
2060
2078
2102
2110
2110
2098
2077
2078
2108
2125
2118
2106
2107
2108
2097
2085
2074
2056
2050
2051
2052
2050
2053
2031
2011
1984
1959
1951
1949
1938
1969
2053
2111
2108
2077
2036
1970
1922
1907
1928
1968
1968
1944
1951
1977
1973
1971
1995
2015
1992
1959
1910
1862
1868
1904
1940
1978
1991
1973
1943
1922
1927
1956
1996
1996
1957
1909
1883
1871
1882
1901
1920
1943
1954
1977
2003
2014
1996
1965
1923
1892
1908
1921
1901
1892
1914
1932
1916
1902
1936
1975
1980
1978
1975
1968
1937
1905
1909
1942
1973
1972
1968
1977
2001
1983
1933
1888
1896
1944
1990
2019
2034
2029
2008
1997
1995
1997
1978
1966
1950
1938
1956
1987
2006
2004
1969
1926
1895
1895
1932
1964
1959
1974
1989
1988
2000
1998
1991
1992
2002
2010
2009
2001
2002
2009
2016
1996
1969
1956
1959
1951
1919
1868
1862
1903
1931
1944
1946
1957
1994
2047
2079
2063
2038
2023
2006
1990
1987
2001
2028
2063
2115
2174
2186
2150
2103
2056
2031
2053
2061
2054
2041
2007
1993
1992
2005
2047
2089
2117
2113
2067
2010
1986
1993
2003
2007
2020
2052
2068
2058
2063
2073
2051
2032
2007
1966
1947
1943
1960
1994
2020
2025
2046
2081
2107
2133
2145
2120
2080
2037
2001
2000
2019
2035
2021
2029
2068
2098
2099
2093
2064
2021
2029
2078
2114
2109
2074
2035
2046
2069
2087
2072
2032
1992
1988
1990
2003
2052
2115
2130
2099
2094
2124
2177
2193
2179
2144
2106
2089
2063
2040
2034
2032
2036
2045
2040
2059
2049
2012
1977
1927
1893
1893
1905
1932
1972
2022
2027
1965
1921
1924
1969
2026
2074
2080
2045
2022
1999
1976
1965
1971
1972
1987
2008
1999
1967
1932
1917
1952
1989
2015
2006
2008
2023
2020
1993
1968
1964
1963
1981
1998
2005
2019
2048
2074
2079
2064
2046
2019
1999
1998
2002
1989
1981
1990
2003
2023
2023
1988
1955
1918
1890
1874
1900
1943
1937
1910
1933
1987
2013
2028
2060
2076
2058
2052
2059
2057
2034
1997
2002
2023
2024
2015
1987
1943
1907
1887
1905
1945
1977
1998
2024
2050
2053
2026
1982
1937
1922
1919
1924
1951
2003
2023
1998
1962
1956
1994
2025
2044
2064
2082
2093
2114
2141
2161
2157
2158
2188
2242
2284
2278
2243
2227
2231
2236
2243
2255
2222
2157
2090
2015
1983
1996
2043
2076
2067
2046
2028
2008
1972
1949
1961
1952
1921
1890
1868
1873
1880
1897
1906
1899
1865
1842
1859
1879
1908
1936
1933
1929
1916
1908
1915
1911
1904
1880
1860
1926
2048
2127
2150
2127
2088
2060
2013
1977
1983
2008
2010
1978
1956
1985
2021
2040
2039
2025
1979
1948
1947
1967
1981
1998
2034
2056
2072
2100
2116
2116
2111
2092
2060
2051
2058
2061
2066
2065
2069
2063
2052
2030
2009
2018
2044
2073
2080
2057
2006
1970
1956
1968
2001
2040
2073
2079
2088
2111
2116
2095
2068
2030
1999
2002
2030
2038
2017
2003
2002
2027
2074
2092
2085
2072
2078
2097
2114
2121
2106
2090
2116
2124
2107
2114
2083
2031
2006
1975
1962
1983
2000
2022
2044
2049
2042
2033
2040
2053
2053
2032
2032
2055
2075
2088
2075
2048
2034
1996
1946
1951
1996
2019
2021
2036
2014
1989
1974
1974
1996
2011
2008
2040
2097
2130
2128
2127
2101
2056
2015
1990
1984
1994
2008
2005
2011
2035
2052
2050
2045
2024
2013
2033
2056
2074
2093
2115
2120
2097
2077
2092
2095
2090
2090
2090
2107
2141
2167
2169
2170
2150
2108
2062
2030
2001
1996
2017
2043
2090
2142
2139
2126
2144
2164
2183
2197
2195
2179
2176
2161
2173
2219
2262
2302
2327
2335
2322
2283
2235
2202
2185
2194
2224
2241
2247
2251
2257
2252
2277
2319
2339
2323
2297
2267
2225
2199
2200
2249
2298
2286
2256
2250
2272
2304
2325
2340
2350
2338
2332
2338
2331
2335
2323
2282
2232
2215
2223
2246
2292
2340
2332
2306
2306
2304
2289
2263
2199
2109
2065
2099
2155
2214
2254
2264
2234
2200
2174
2172
2166
2143
2151
2184
2195
2153
2107
2102
2119
2127
2134
2114
2071
2033
2020
2019
2001
1977
1972
2001
2025
2039
2048
2033
2001
2010
2054
2103
2124
2120
2115
2121
2083
2015
1957
1939
1914
1865
1835
1857
1897
1926
1947
1963
2009
2043
2013
1985
2019
2048
2057
2039
2009
1978
1944
1920
1914
1914
1909
1946
1992
2033
2050
2033
2017
2014
2004
1998
1997
1983
1945
1914
1887
1860
1853
1850
1856
1870
1890
1900
1904
1891
1903
1914
1898
1874
1866
1855
1854
1888
1916
1914
1889
1864
1851
1860
1876
1865
1818
1781
1759
1738
1732
1753
1786
1811
1811
1824
1836
1840
1830
1842
1831
1826
1832
1849
1897
1928
1916
1911
1901
1866
1854
1908
1977
2007
1995
1993
1980
1970
1961
1967
1954
1931
1918
1914
1916
1929
1950
1966
1957
1937
1952
1978
2006
2026
2000
1968
1942
1937
1937
1933
1925
1900
1893
1921
1935
1946
1946
1935
1924
1912
1927
1969
2027
2082
2053
1969
1908
1903
1949
2004
2020
2022
2034
2056
2080
2073
2051
2012
1989
2002
2021
2023
2036
2065
2093
2105
2081
2045
2007
1999
2000
2012
2016
2005
1983
1959
1977
2018
2043
2057
2038
2004
1981
1961
1946
1930
1937
1976
2020
2046
2050
2042
2005
1961
1941
1965
2033
2105
2131
2103
2048
2032
2028
1984
1940
1975
2051
2074
2035
2004
2033
2050
2024
1999
1989
2006
2046
2087
2097
2096
2089
2064
2062
2074
2087
2083
2059
2028
2021
2034
2040
2046
2074
2100
2130
2107
2069
2041
2035
2050
2087
2135
2151
2119
2079
2051
2042
2058
2069
2071
2077
2075
2062
2050
2075
2132
2181
2198
2178
2151
2107
2042
1956
1919
1986
2069
2146
2190
2149
2112
2108
2098
2100
2119
2117
2097
2085
2080
2051
2008
2008
2048
2077
2057
2046
2042
2043
2058
2067
2055
2041
2054
2068
2072
2061
2055
2056
2052
2043
2053
2073
2076
2054
2040
2061
2118
2152
2149
2143
2121
2095
2076
2048
2020
1994
1976
1988
2003
1988
1964
1950
1947
1968
1990
2026
2048
2050
2035
2024
2041
2066
2078
2040
1979
1958
1979
1982
2007
2051
2103
2139
2121
2077
2023
2020
2051
2068
2090
2122
2134
2115
2093
2078
2053
2027
2004
2004
2035
2054
2062
2065
2059
2077
2083
2075
2054
2040
2025
2012
1994
1953
1925
1934
1935
1920
1923
1934
1952
1982
2015
2011
1981
1948
1942
1977
2058
2127
2133
2104
2066
2056
2090
2157
2232
2282
2302
2311
2312
2294
2277
2262
2234
2191
2130
2098
2097
2088
2067
2045
2060
2113
2125
2071
2023
1993
1971
1958
1938
1918
1911
1900
1889
1881
1876
1832
1774
1775
1812
1848
1867
1856
1810
1757
1761
1806
1871
1916
1920
1909
1905
1902
1903
1923
1962
1977
1996
2034
2048
2048
2027
1992
1990
2030
2073
2083
2068
2027
2006
2020
2011
1997
2015
2049
2072
2028
1959
1928
1968
2035
2070
2103
2115
2104
2096
2089
2085
2073
2060
2043
2023
1996
2002
2011
1988
1951
1959
2017
2092
2113
2072
2012
1958
1924
1916
1947
2011
2066
2072
2055
2006
1959
1950
1980
2002
2034
2061
2043
2013
1997
1976
1961
1965
1982
1991
1971
1949
1979
2037
2027
1977
1940
1936
1959
2014
2066
2085
2076
2074
2089
2098
2099
2076
2031
1973
1913
1917
1990
2064
2099
2087
2057
2015
1996
2012
2031
2039
2055
2071
2060
2050
2002
1920
1883
1900
1936
2001
2064
2100
2096
2100
2105
2091
2076
2057
2019
1981
1982
2012
2035
2034
2024
2013
1994
1977
1952
1947
1970
2022
2074
2105
2116
2115
2079
2064
2082
2080
2070
2075
2090
2100
2111
2109
2112
2117
2107
2080
2077
2094
2112
2124
2102
2076
2076
2107
2137
2151
2127
2092
2063
2077
2092
2094
2086
2063
2081
2144
2195
2193
2152
2129
2136
2151
2161
2173
2210
2235
2230
2185
2125
2068
2050
2099
2171
2235
2275
2283
2278
2287
2286
2275
2236
2184
2155
2150
2147
2151
2167
2210
2271
2316
2331
2317
2295
2284
2279
2288
2285
2265
2225
2195
2223
2252
2255
2272
2293
2305
2291
2275
2292
2296
2243
2182
2158
2177
2186
2188
2183
2172
2214
2273
2263
2220
2205
2216
2202
2162
2127
2127
2166
2192
2186
2185
2191
2180
2185
2196
2178
2145
2119
2100
2087
2077
2049
2014
2003
2027
2046
2059
2059
2061
2082
2112
2110
2101
2099
2099
2073
2026
1986
1963
1930
1906
1893
1917
1979
2040
2067
2059
2036
2024
2030
2026
2006
1972
1930
1918
1955
1989
1947
1922
1962
2017
2016
2007
2029
2072
2124
2127
2088
2029
1970
1966
2025
2099
2150
2171
2135
2055
2000
1986
2003
2042
2045
2028
2027
2035
2022
1994
1986
1978
1965
1924
1888
1907
1960
2011
2021
2006
1982
1975
1994
2011
2013
2021
1993
1934
1907
1930
1959
1996
2035
2061
2063
2079
2076
2056
2007
1931
1894
1934
2009
2069
2102
2103
2089
2083
2086
2075
2048
2031
2037
2043
2053
2061
2068
2067
2061
2043
2040
2039
2020
1987
1973
1980
2019
2070
2115
2113
2078
2023
1981
1965
1966
1989
2050
2109
2149
2163
2144
2125
2112
2089
2049
2016
2024
2029
1991
1959
1979
2005
2020
2030
2040
2067
2080
2064
2063
2055
2040
2028
2048
2077
2079
2064
2039
2013
2000
2013
2024
2022
2044
2069
2078
2053
2038
2058
2082
2095
2101
2101
2089
2086
2070
2058
2068
2057
2033
2007
2010
2028
2047
2044
2015
1988
1996
2017
2051
2092
2096
2051
2034
2065
2094
2116
2130
2125
2095
2046
2015
2023
2040
2056
2052
2052
2055
2054
2065
2103
2164
2194
2146
2064
2004
1981
2005
2042
2056
2033
2017
2035
2035
2021
2025
2057
2100
2140
2149
2123
2088
2072
2050
2023
2014
2038
2079
2084
2070
2082
2102
2096
2071
2034
2004
2001
2014
2043
2068
2079
2081
2088
2069
2064
2075
2082
2074
2030
1937
1901
1973
2109
2224
2262
2206
2127
2083
2089
2119
2152
2132
2079
2051
2047
2066
2084
2079
2070
2048
2035
2058
2099
2117
2118
2133
2121
2074
2021
1978
1940
1958
1990
2001
2026
2061
2061
2034
2001
2010
2059
2146
2193
2173
2155
2130
2123
2149
2146
2122
2106
2079
2068
2065
2050
2041
2019
2019
2071
2144
2174
2167
2156
2157
2148
2159
2154
2155
2162
2168
2162
2157
2161
2144
2133
2147
2157
2137
2122
2123
2131
2155
2164
2126
2100
2110
2126
2148
2163
2180
2214
2251
2256
2219
2175
2147
2115
2091
2074
2082
2098
2108
2116
2126
2157
2163
2158
2160
2168
2170
2155
2132
2123
2124
2113
2113
2133
2125
2100
2074
2052
2037
2020
2046
2097
2130
2163
2177
2132
2067
2023
2021
2047
2072
2091
2102
2113
2134
2156
2171
2159
2130
2115
2099
2093
2067
2048
2056
2078
2110
2141
2151
2164
2163
2174
2171
2157
2135
2131
2134
2100
2058
2055
2076
2082
2104
2120
2109
2103
2096
2080
2063
2058
2093
2166
2204
2200
2169
2143
2133
2141
2143
2122
2097
2089
2120
2136
2118
2061
2045
2083
2102
2109
2118
2101
2062
2035
2043
2084
2152
2164
2108
2020
1964
1983
2055
2142
2199
2229
2259
2277
2289
2297
2342
2412
2429
2389
2351
2322
2300
2264
2215
2165
2153
2175
2181
2149
2098
2034
1999
2030
2075
2119
2151
2142
2093
2037
1987
1964
1951
1944
1955
1963
1956
1932
1924
1957
1994
2010
1996
2009
2037
2067
2076
2060
2040
2042
2065
2080
2088
2108
2110
2089
2049
2017
1991
1979
1995
1996
2001
2031
2067
2114
2126
2070
2010
1986
2032
2103
2138
2123
2120
2122
2129
2137
2128
2104
2100
2099
2096
2076
2056
2080
2116
2122
2105
2084
2059
2019
1992
1999
2035
2076
2103
2130
2143
2139
2110
2067
2055
2097
2132
2155
2147
2119
2075
2056
2063
2032
1996
1992
2031
2095
2120
2106
2113
2125
2091
2052
2023
2002
1990
2004
2041
2089
2129
2151
2166
2184
2176
2135
2090
2074
2095
2108
2106
2089
2057
2030
2034
2060
2105
2150
2156
2125
2097
2089
2097
2107
2083
2068
2068
2067
2060
2067
2116
2150
2150
2118
2081
2072
2086
2086
2085
2049
2020
2052
2095
2143
2162
2147
2149
2160
2138
2113
2089
2059
2059
2061
2092
2137
2154
2127
2100
2115
2154
2154
2147
2138
2119
2073
2037
2042
2063
2091
2104
2113
2131
2139
2109
2087
2101
2119
2137
2139
2155
2176
2180
2160
2142
2132
2118
2099
2100
2103
2096
2105
2110
2121
2150
2175
2196
2192
2173
2146
2129
2147
2164
2140
2139
2183
2245
2274
2245
2190
2164
2148
2161
2209
2243
2240
2233
2238
2226
2229
2241
2266
2285
2280
2253
2227
2231
2264
2292
2305
2283
2257
2224
2216
2223
2238
2281
2302
2289
2264
2237
2219
2219
2216
2245
2285
2293
2280
2296
2317
2294
2235
2179
2157
2107
2063
2053
2092
2170
2257
2308
2300
2259
2208
2182
2175
2176
2152
2119
2106
2120
2128
2117
2124
2146
2144
2114
2108
2100
2090
2116
2147
2164
2165
2166
2155
2134
2105
2078
2064
2019
1968
1974
2000
2011
2010
2025
2031
2040
2046
2046
2043
2035
2046
2064
2053
2035
2041
2030
1991
1971
1946
1909
1879
1881
1925
1983
2063
2125
2115
2081
2054
2046
2024
1998
1964
1921
1898
1897
1922
1925
1935
1937
1931
1925
1917
1914
1894
1879
1896
1923
1958
1992
1989
1995
2012
2051
2096
2108
2051
1967
1949
1989
2024
2050
2026
1972
1957
1985
2008
1992
2003
2029
2039
2055
2049
2036
2029
2009
2004
2048
2096
2104
2067
2015
2007
2039
2080
2080
2055
2042
2062
2079
2087
2080
2041
1989
1990
2032
2073
2106
2109
2128
2134
2105
2088
2075
2067
2083
2118
2165
2159
2094
2004
1969
1997
2048
2099
2123
2153
2202
2214
2163
2091
2030
2005
2036
2080
2095
2094
2113
2151
2167
2150
2117
2068
2046
2044
2053
2048
2046
2065
2065
2075
2083
2073
2052
2048
2077
2105
2104
2060
2004
2018
2067
2104
2110
2101
2092
2062
2002
1942
1967
2027
2058
2063
2058
2038
2021
2021
2037
2073
2062
2019
1994
1988
2019
2057
2086
2108
2120
2096
2058
2031
2056
2092
2083
2036
1968
1934
1933
1969
2063
2136
2166
2180
2153
2112
2086
2086
2084
2054
2032
2057
2090
2095
2090
2074
2076
2082
2061
2028
2012
2028
2042
2037
2027
2033
2030
2026
2065
2125
2159
2141
2098
2063
2047
2027
2006
1990
2020
2084
2133
2150
2146
2129
2096
2037
1988
1995
2027
2053
2044
2016
2018
2031
2016
1996
2001
1996
1969
1931
1941
1966
1992
2012
2056
2072
2083
2120
2140
2124
2091
2051
2025
1998
1993
2004
2020
2032
2036
2024
2033
2068
2105
2128
2134
2133
2133
2127
2108
2084
2066
2072
2093
2099
2118
2156
2158
2134
2106
2085
2074
2072
2065
2047
2042
2055
2079
2111
2133
2123
2095
2051
2041
2060
2087
2120
2131
2113
2054
2005
1990
1995
2019
2062
2089
2081
2059
2030
2002
1999
2020
2038
2042
2033
2031
2046
2049
2057
2051
2040
2066
2056
2016
1995
2013
2012
1998
1977
1969
1997
2069
2149
2195
2188
2152
2072
2003
1981
2001
2053
2115
2122
2109
2123
2144
2130
2100
2109
2119
2129
2146
2148
2118
2085
2070
2076
2104
2132
2166
2187
2174
2150
2120
2119
2117
2100
2103
2128
2153
2130
2097
2089
2083
2076
2082
2090
2123
2158
2151
2111
2066
2039
2052
2090
2139
2182
2180
2151
2161
2188
2183
2130
2069
2025
2040
2108
2189
2229
2226
2213
2191
2144
2103
2111
2122
2138
2135
2126
2091
2015
1957
1961
1996
2033
2053
2038
2007
1995
1992
1984
1993
2019
2044
2055
2025
1979
1967
2000
2059
2095
2080
2056
2048
2069
2083
2068
2074
2122
2141
2113
2056
2010
1999
1996
2005
2022
2044
2049
2049
2045
2050
2027
1954
1912
1948
2016
2087
2125
2128
2123
2098
2060
2021
1984
1970
1996
2031
2067
2078
2088
2100
2123
2154
2169
2157
2130
2088
2053
2037
2021
1999
2003
2046
2089
2109
2105
2089
2088
2110
2125
2100
2049
1992
1962
1985
2014
2048
2085
2100
2135
2177
2194
2179
2187
2188
2182
2193
2246
2293
2324
2343
2340
2328
2299
2247
2202
2202
2217
2229
2223
2191
2135
2095
2069
2053
2013
1977
1962
1973
1974
1968
1973
1979
1971
1963
1974
1992
2005
2004
1987
1939
1890
1846
1811
1783
1798
1826
1861
1931
1996
2014
2010
2009
2029
2047
2021
1988
1973
1952
1951
1986
2020
2017
1995
1972
1924
1884
1893
1941
2014
2074
2085
2072
2079
2113
2139
2132
2110
2109
2130
2142
2143
2121
2085
2096
2104
2083
2060
2068
2081
2053
2043
2038
2055
2105
2129
2124
2123
2138
2142
2125
2085
2063
2065
2075
2102
2132
2132
2120
2098
2066
2045
2050
2080
2107
2108
2108
2128
2146
2119
2054
1989
1946
1968
2060
2153
2201
2217
2246
2262
2240
2207
2201
2201
2205
2213
2206
2186
2170
2159
2125
2081
2048
2043
2077
2115
2131
2131
2132
2155
2200
2254
2296
2294
2277
2260
2237
2210
2184
2196
2192
2155
2120
2131
2188
2262
2291
2262
2246
2242
2237
2225
2240
2243
2191
2157
2178
2201
2190
2150
2101
2100
2141
2205
2250
2259
2246
2254
2273
2295
2293
2272
2256
2248
2264
2284
2287
2267
2253
2241
2249
2273
2287
2278
2286
2307
2333
2334
2325
2316
2323
2344
2339
2317
2293
2259
2220
2205
2218
2224
2238
2270
2320
2347
2343
2318
2297
2312
2344
2378
2401
2395
2365
2319
2280
2258
2269
2326
2394
2430
2407
2356
2333
2340
2364
2404
2450
2471
2449
2405
2364
2370
2384
2408
2437
2459
2466
2462
2470
2481
2498
2488
2463
2447
2442
2438
2427
2415
2423
2453
2484
2472
2470
2477
2463
2418
2378
2388
2392
2391
2404
2421
2443
2435
2424
2422
2414
2400
2404
2414
2436
2472
2488
2481
2466
2445
2446
2459
2432
2408
2424
2458
2452
2412
2380
2366
2365
2371
2364
2340
2311
2285
2300
2348
2365
2325
2276
2270
2285
2312
2336
2328
2336
2366
2406
2426
2393
2333
2274
2250
2253
2285
2320
2363
2389
2380
2323
2247
2183
2150
2140
2145
2140
2151
2197
2251
2279
2251
2231
2241
2227
2200
2207
2212
2205
2213
2240
2278
2299
2279
2249
2230
2237
2249
2241
2228
2218
2194
2178
2196
2230
2223
2193
2205
2256
2290
2283
2266
2257
2259
2243
2203
2148
2143
2167
2184
2197
2190
2168
2163
2195
2251
2300
2316
2311
2269
2214
2162
2106
2097
2150
2206
2214
2189
2142
2109
2111
2156
2214
2238
2251
2249
2231
2215
2206
2202
2197
2176
2141
2109
2106
2122
2139
2156
2189
2229
2248
2245
2238
2246
2233
2205
2195
2201
2199
2186
2156
2096
2059
2069
2051
2034
2068
2166
2261
2329
2348
2322
2267
2200
2146
2131
2151
2181
2215
2212
2181
2168
2170
2162
2172
2190
2191
2181
2172
2170
2185
2197
2176
2148
2137
2161
2196
2208
2181
2114
2080
2073
2086
2123
2180
2246
2271
2248
2203
2170
2131
2084
2085
2118
2109
2115
2153
2195
2208
2182
2150
2151
2168
2179
2163
2161
2152
2131
2120
2120
2123
2131
2165
2209
2234
2222
2209
2176
2140
2111
2079
2055
2060
2071
2072
2055
2064
2065
2087
2133
2161
2157
2150
2140
2155
2194
2193
2179
2186
2187
2160
2127
2102
2108
2120
2128
2145
2158
2144
2106
2069
2049
2044
2061
2108
2159
2182
2177
2118
2071
2046
2024
2011
2006
2021
2052
2080
2114
2141
2146
2126
2087
2067
2071
2056
2031
2042
2061
2072
2072
2083
2105
2117
2118
2101
2065
2049
2039
2044
2045
2026
2012
2039
2074
2083
2108
2123
2129
2144
2158
2177
2198
2175
2115
2046
1982
1967
2003
2057
2100
2117
2122
2140
2142
2126
2104
2058
2008
1978
1981
2018
2068
2106
2112
2094
2057
2038
2050
2072
2082
2070
2071
2083
2072
2062
2084
2095
2074
2035
2003
1998
1999
1993
2025
2079
2115
2100
2041
1996
1997
2034
2072
2090
2068
2013
1959
1933
1951
1982
1989
2027
2096
2139
2115
2071
2068
2060
2068
2091
2100
2099
2110
2118
2121
2119
2115
2107
2100
2072
2041
2015
2001
2040
2085
2112
2126
2148
2160
2140
2122
2107
2097
2089
2101
2104
2098
2110
2104
2068
2065
2090
2131
2141
2115
2074
2074
2112
2136
2146
2165
2188
2183
2172
2163
2168
2170
2161
2151
2157
2189
2223
2242
2198
2127
2090
2083
2084
2087
2115
2151
2189
2207
2219
2215
2204
2207
2213
2211
2212
2197
2176
2132
2092
2079
2073
2081
2110
2143
2154
2154
2173
2209
2204
2153
2083
2017
1987
2008
2034
2046
2031
2034
2086
2140
2144
2105
2067
2039
2025
2054
2081
2079
2069
2105
2180
2225
2213
2169
2091
2014
1996
2008
2032
2079
2121
2147
2191
2180
2139
2120
2111
2120
2138
2120
2107
2122
2130
2139
2141
2128
2112
2119
2142
2141
2118
2097
2105
2133
2123
2103
2079
2060
2056
2057
2085
2097
2091
2077
2039
2010
2017
2011
2020
2027
2052
2081
2100
2128
2172
2167
2114
2065
2057
2077
2088
2103
2115
2103
2102
2124
2159
2189
2212
2246
2247
2223
2210
2229
2280
2355
2405
2413
2382
2321
2279
2257
2238
2200
2139
2082
2071
2115
2142
2159
2181
2216
2234
2219
2192
2133
2080
2046
2040
2051
2061
2077
2084
2079
2076
2075
2084
2099
2098
2105
2110
2098
2085
2076
2054
2034
2048
2083
2098
2083
2058
2031
2019
2049
2094
2099
2067
2061
2106
2166
2200
2181
2129
2092
2083
2108
2143
2167
2162
2140
2146
2164
2188
2196
2202
2199
2195
2202
2224
2217
2165
2113
2091
2100
2105
2078
2050
2057
2105
2156
2167
2175
2193
2209
2219
2206
2196
2188
2163
2121
2068
2047
2069
2110
2166
2207
2236
2234
2221
2205
2219
2263
2310
2316
2290
2269
2269
2275
2244
2185
2134
2115
2159
2241
2311
2337
2331
2308
2303
2319
2341
2344
2330
2295
2255
2233
2216
2210
2232
2249
2273
2303
2339
2380
2421
2433
2411
2355
2309
2291
2297
2316
2352
2379
2379
2370
2374
2395
2374
2304
2254
2234
2219
2195
2171
2191
2234
2255
2241
2215
2235
2287
2304
2253
2191
2149
2147
2169
2198
2213
2223
2206
2189
2207
2224
2236
2257
2275
2269
2244
2195
2158
2172
2196
2221
2263
2308
2329
2354
2387
2403
2379
2355
2352
2350
2349
2356
2373
2382
2364
2331
2300
2285
2296
2302
2315
2325
2313
2292
2292
2290
2267
2245
2259
2250
2266
2322
2360
2352
2336
2328
2339
2343
2343
2331
2301
2287
2291
2297
2288
2261
2234
2206
2213
2249
2301
2361
2377
2355
2333
2307
2260
2203
2159
2133
2131
2156
2194
2237
2273
2281
2263
2232
2206
2211
2241
2281
2331
2366
2350
2329
2316
2315
2329
2353
2336
2296
2236
2191
2190
2201
2202
2203
2196
2182
2179
2207
2215
2200
2212
2240
2244
2250
2248
2206
2164
2139
2121
2106
2109
2106
2073
2035
2001
1972
1989
1998
1979
1997
2060
2119
2139
2104
2038
1956
1912
1916
1942
1962
1960
1956
1957
1971
1986
1987
1986
1978
1965
1940
1923
1955
1998
2038
2077
2073
2049
2024
2008
1987
1953
1915
1907
1914
1915
1909
1912
1938
1962
1968
1976
1962
1938
1947
1967
1969
1955
1939
1899
1860
1871
1902
1925
1904
1908
1949
1978
1992
2014
2019
1995
1961
1912
1857
1821
1845
1904
1925
1894
1864
1865
1878
1870
1865
1856
1847
1877
1905
1909
1927
1954
1977
1961
1924
1889
1872
1899
1922
1941
1967
2004
2015
2014
1989
1950
1945
1970
1988
1994
1998
1986
1969
1975
1983
1965
1956
1950
1937
1905
1886
1902
1908
1906
1937
1995
2037
2053
2047
2048
2063
2078
2064
2023
1983
1951
1931
1927
1934
1927
1912
1942
1994
2020
2008
1991
2004
2016
2009
1978
1926
1886
1890
1919
1937
1900
1842
1822
1819
1819
1882
1975
2059
2093
2094
2084
2066
2026
1986
1972
1985
2017
2045
2050
2038
2028
2033
2052
2068
2057
2025
1985
1925
1868
1870
1901
1929
1927
1909
1904
1914
1923
1935
1956
1978
2001
2028
2019
1971
1936
1895
1876
1903
1946
1978
1996
1998
1987
1998
2009
2016
2012
2001
1987
1988
2017
2049
2058
2039
1995
1952
1919
1898
1906
1907
1892
1853
1833
1841
1867
1925
1988
2024
2046
2055
2052
2048
2014
1975
1959
1981
2012
2044
2042
2036
2053
2055
2055
2062
2052
2037
2035
2035
2022
2011
2014
2026
2038
2028
1995
1981
1977
1984
2005
2000
1985
1986
2003
2011
2020
2037
2020
1979
1966
1976
1990
2010
2052
2111
2152
2138
2069
2016
2006
2000
1952
1869
1822
1845
1897
1960
2007
2052
2072
2059
2015
1976
1975
1979
1987
2013
2028
2024
2022
2017
2019
2006
1991
1975
2021
2103
2144
2109
2043
2002
2005
1998
2010
2031
1984
1928
1940
1995
2044
2036
2009
2006
2003
1996
1989
1987
1996
1995
1985
1968
1953
1940
1932
1939
1965
1985
1999
2018
2029
2026
2015
2016
2055
2104
2094
2078
2066
2020
1934
1873
1878
1941
1993
2013
2025
2041
2048
2049
2068
2095
2113
2116
2111
2103
2094
2090
2087
2067
2026
1985
1970
1981
2013
2033
2010
1983
1952
1939
1965
1966
1934
1939
1989
2017
1989
1955
1958
2001
2044
2073
2054
1981
1908
1889
1901
1947
1999
2031
2035
2011
1970
1944
1926
1873
1832
1829
1855
1876
1886
1904
1935
1944
1971
1996
1964
1914
1853
1795
1817
1866
1911
1931
1933
1941
1928
1914
1903
1906
1907
1936
1974
2014
2050
2044
2008
1996
2017
2033
2023
2003
1995
2013
2033
2027
2012
2021
2056
2111
2135
2105
2069
2035
1992
1951
1920
1909
1950
1988
2003
2010
2026
2057
2076
2024
1958
1913
1920
1971
2030
2088
2105
2102
2088
2072
2043
2001
1961
1940
1921
1897
1901
1944
1978
1983
1983
1988
1983
1980
2007
2031
2040
2020
1992
1975
1974
1964
1942
1931
1957
2022
2083
2121
2112
2073
2037
2054
2129
2195
2210
2204
2206
2198
2189
2174
2169
2181
2200
2221
2232
2210
2175
2163
2162
2189
2228
2240
2204
2139
2086
2072
2095
2137
2175
2171
2176
2200
2216
2238
2275
2278
2254
2215
2206
2222
2236
2262
2286
2300
2303
2313
2308
2290
2284
2288
2278
2264
2254
2256
2255
2277
2333
2374
2409
2430
2395
2348
2318
2311
2340
2397
2457
2494
2475
2433
2413
