# Generic Text File Format
# Version: 1
# StartDateTime: 2012-01-11 16:22:10
# SamplingFrequency: 1000
# SamplingResolution: 12
# EndOfHeader
1915
1908
1915
1917
1910
1903
1888
1876
1873
1870
1862
1849
1833
1824
1812
1796
1783
1769
1757
1753
1752
1766
1782
1797
1806
1804
1793
1768
1733
1697
1675
1670
1679
1704
1727
1749
1779
1815
1831
1823
1800
1783
1768
1773
1792
1816
1851
1870
1871
1879
1904
1933
1953
1967
1982
1986
1999
2018
2037
2048
2052
2056
2061
2068
2077
2084
2079
2069
2058
2057
2062
2065
2063
2056
2052
2056
2061
2060
2059
2061
2074
2076
2068
2062
2061
2071
2087
2092
2079
2060
2061
2074
2070
2056
2041
2033
2033
2049
2067
2074
2075
2093
2110
2111
2104
2101
2099
2099
2102
2110
2120
2131
2129
2123
2118
2124
2115
2099
2094
2099
2103
2113
2125
2136
2151
2164
2157
2142
2119
2100
2094
2101
2107
2115
2125
2138
2143
2134
2125
2112
2102
2094
2094
2102
2110
2118
2124
2135
2145
2149
2145
2151
2152
2146
2140
2142
2155
2156
2151
2144
2134
2131
2144
2169
2187
2196
2199
2198
2192
2178
2162
2154
2149
2144
2160
2183
2194
2209
2211
2215
2220
2221
2218
2213
2217
2229
2239
2234
2222
2212
2212
2215
2225
2228
2232
2236
2253
2265
2262
2263
2264
2254
2245
2249
2247
2244
2239
2240
2243
2242
2234
2238
2259
2274
2276
2270
2264
2261
2254
2247
2245
2247
2250
2248
2246
2241
2239
2242
2257
2277
2287
2276
2263
2256
2264
2268
2253
2226
2211
2212
2219
2226
2237
2252
2264
2257
2229
2192
2179
2185
2194
2200
2198
2198
2208
2220
2222
2219
2208
2208
2221
2229
2229
2225
2215
2207
2201
2194
2190
2194
2208
2224
2236
2229
2210
2190
2194
2215
2224
2218
2212
2228
2243
2237
2224
2221
2212
2205
2199
2198
2201
2212
2219
2210
2215
2226
2232
2230
2233
2232
2233
2240
2246
2256
2266
2269
2272
2274
2278
2276
2281
2279
2261
2239
2230
2237
2243
2244
2243
2239
2238
2238
2236
2233
2230
2227
2228
2223
2215
2211
2208
2207
2208
2207
2196
2184
2187
2202
2222
2237
2252
2269
2265
2223
2154
2118
2117
2132
2150
2168
2177
2176
2175
2181
2182
2181
2182
2182
2180
2169
2151
2142
2146
2154
2156
2155
2154
2159
2168
2172
2176
2185
2182
2165
2147
2135
2145
2167
2174
2173
2182
2188
2183
2179
2181
2197
2206
2198
2187
2170
2148
2127
2128
2136
2132
2132
2131
2130
2133
2137
2144
2148
2141
2128
2112
2102
2087
2072
2060
2056
2065
2076
2083
2087
2098
2114
2140
2173
2209
2240
2263
2295
2329
2364
2396
2434
2486
2539
2581
2620
2659
2681
2670
2641
2608
2576
2533
2485
2428
2359
2292
2247
2230
2221
2200
2167
2128
2099
2087
2083
2089
2098
2096
2096
2094
2100
2099
2086
2069
2054
2051
2055
2067
2087
2103
2103
2091
2080
2072
2057
2036
2028
2035
2045
2052
2057
2062
2073
2075
2070
2050
2031
2031
2037
2040
2049
2062
2070
2077
2081
2087
2090
2084
2082
2082
2090
2094
2091
2088
2090
2090
2088
2086
2086
2077
2071
2073
2080
2085
2094
2108
2124
2138
2144
2137
2126
2123
2116
2090
2063
2049
2056
2072
2093
2118
2141
2142
2134
2129
2131
2127
2125
2134
2139
2139
2137
2137
2133
2128
2126
2120
2119
2121
2129
2128
2121
2121
2127
2127
2127
2126
2121
2122
2141
2156
2168
2174
2172
2164
2167
2178
2187
2196
2192
2185
2169
2148
2124
2108
2103
2121
2144
2157
2160
2160
2160
2167
2169
2164
2159
2151
2148
2150
2159
2160
2163
2180
2190
2187
2175
2164
2158
2162
2177
2187
2199
2200
2190
2189
2201
2206
2195
2176
2173
2180
2181
2174
2173
2179
2189
2198
2208
2212
2218
2217
2214
2215
2213
2210
2220
2242
2258
2252
2239
2224
2224
2243
2262
2272
2273
2279
2270
2262
2264
2271
2271
2264
2248
2237
2243
2251
2248
2243
2241
2248
2266
2290
2307
2306
2297
2284
2272
2263
2254
2242
2231
2236
2248
2255
2260
2273
2280
2279
2270
2255
2249
2263
2276
2282
2284
2278
2268
2264
2265
2263
2256
2248
2239
2242
2262
2270
2263
2273
2289
2302
2301
2294
2286
2287
2298
2307
2316
2316
2299
2267
2229
2207
2209
2224
2235
2247
2251
2245
2258
2256
2248
2246
2242
2247
2261
2271
2264
2249
2242
2249
2259
2280
2299
2314
2324
2337
2336
2307
2242
2188
2170
2162
2158
2168
2184
2201
2215
2223
2232
2248
2264
2257
2238
2233
2233
2226
2215
2194
2177
2176
2179
2179
2183
2188
2198
2204
2204
2208
2214
2208
2198
2189
2181
2177
2175
2183
2198
2214
2217
2204
2187
2183
2189
2186
2185
2200
2225
2236
2237
2247
2252
2246
2226
2211
2211
2226
2234
2244
2244
2242
2243
2251
2256
2256
2256
2260
2261
2244
2228
2230
2226
2217
2219
2230
2240
2239
2234
2227
2223
2214
2203
2198
2206
2219
2233
2233
2228
2230
2237
2247
2258
2261
2255
2246
2242
2242
2248
2250
2246
2237
2231
2226
2220
2216
2211
2207
2209
2220
2230
2237
2245
2247
2243
2232
2220
2220
2220
2213
2207
2210
2206
2203
2208
2218
2229
2228
2229
2229
2222
2210
2209
2219
2232
2243
2252
2253
2230
2196
2176
2168
2181
2193
2190
2177
2184
2201
2203
2189
2171
2163
2174
2190
2196
2184
2188
2208
2226
2237
2230
2216
2203
2191
2164
2149
2147
2164
2178
2183
2177
2167
2164
2171
2177
2187
2198
2190
2177
2175
2172
2168
2164
2168
2172
2174
2176
2177
2176
2165
2155
2153
2158
2170
2181
2179
2176
2172
2174
2164
2147
2139
2144
2144
2141
2142
2150
2161
2160
2169
2179
2171
2157
2149
2146
2149
2163
2178
2193
2205
2219
2221
2208
2184
2158
2130
2118
2116
2127
2127
2124
2122
2123
2139
2147
2153
2157
2162
2165
2159
2157
2163
2167
2167
2169
2181
2190
2185
2172
2160
2147
2137
2130
2137
2147
2148
2148
2147
2150
2169
2180
2177
2178
2173
2156
2139
2152
2171
2183
2180
2173
2174
2174
2172
2173
2177
2189
2199
2208
2216
2218
2210
2189
2170
2165
2168
2166
2163
2166
2171
2187
2207
2205
2191
2177
2173
2179
2198
2225
2241
2246
2239
2224
2212
2200
2187
2173
2165
2167
2178
2188
2181
2178
2172
2174
2190
2209
2224
2235
2232
2223
2212
2204
2209
2218
2221
2214
2209
2206
2209
2213
2208
2196
2188
2180
2174
2165
2151
2132
2117
2115
2121
2121
2125
2131
2132
2127
2119
2113
2103
2102
2100
2104
2115
2118
2122
2131
2138
2136
2132
2132
2133
2135
2136
2129
2113
2082
2072
2079
2095
2117
2129
2136
2141
2137
2133
2134
2131
2123
2109
2097
2091
2085
2093
2101
2101
2100
2096
2094
2094
2090
2082
2095
2101
2110
2131
2136
2116
2096
2091
2094
2105
2115
2109
2093
2082
2079
2079
2079
2070
2050
2034
2022
2014
2014
2032
2052
2062
2074
2088
2109
2127
2141
2167
2200
2237
2274
2314
2359
2399
2452
2512
2574
2637
2696
2737
2744
2715
2662
2595
2532
2486
2444
2389
2328
2277
2245
2218
2198
2169
2139
2119
2107
2103
2102
2093
2084
2069
2056
2048
2031
2019
2021
2034
2044
2046
2040
2048
2062
2069
2066
2051
2036
2023
2017
2020
2030
2033
2043
2044
2041
2038
2044
2050
2048
2042
2040
2044
2049
2055
2068
2084
2100
2110
2091
2048
1993
1978
1994
2017
2020
2005
1990
1990
1989
1984
1972
1961
1952
1940
1939
1951
1965
1976
1978
1980
1979
1974
1970
1975
1977
1972
1970
1970
1977
1987
1979
1966
1969
1981
1994
2009
2026
2036
2018
1985
1967
1952
1941
1940
1958
1969
1966
1957
1955
1961
1969
1978
1986
1992
1992
1992
1997
2013
2019
2018
2012
2010
2012
2020
2020
2011
1993
1983
1980
1979
1972
1980
2012
2047
2074
2088
2092
2063
2009
1974
1971
1980
1994
2004
2011
2023
2029
2023
2024
2028
2030
2030
2020
2005
2018
2041
2049
2043
2037
2035
2037
2039
2046
2052
2056
2067
2086
2087
2080
2075
2084
2104
2111
2113
2117
2127
2140
2162
2186
2176
2130
2087
2069
2073
2093
2096
2094
2080
2086
2105
2116
2108
2092
2096
2113
2133
2145
2152
2161
2169
2161
2136
2112
2104
2115
2121
2129
2141
2149
2149
2152
2157
2161
2158
2152
2155
2154
2145
2138
2150
2155
2144
2134
2128
2122
2127
2135
2138
2142
2152
2159
2163
2161
2172
2186
2197
2188
2170
2165
2177
2189
2210
2228
2224
2193
2147
2119
2116
2114
2129
2149
2164
2174
2163
2131
2113
2104
2090
2092
2098
2104
2109
2126
2142
2152
2148
2149
2161
2158
2135
2105
2084
2078
2073
2070
2073
2081
2090
2106
2121
2134
2123
2090
2062
2044
2036
2039
2052
2061
2055
2032
2011
2005
2015
2029
2042
2050
2052
2049
2033
2009
1988
1979
1980
1991
2016
2044
2047
2041
2034
2036
2048
2052
2047
2037
2017
1994
1985
1988
1993
1989
1984
1973
1970
1982
1990
1993
1993
1991
1994
1998
2011
2023
2036
2049
2048
2034
2018
2004
2000
2003
2013
2014
2004
1984
1976
1984
2000
2035
2075
2094
2078
2038
1996
1976
1986
1984
1981
1990
2006
2014
2011
2010
2013
2014
2011
2008
2004
2006
2009
2009
2009
2006
2001
2001
2006
2015
2023
2028
2032
2028
2027
2026
2015
2001
1996
2009
2020
2022
2018
2014
2018
2021
2020
2022
2038
2062
2073
2064
2057
2054
2056
2060
2070
2072
2065
2046
2034
2037
2046
2050
2059
2072
2068
2049
2018
1999
1996
2000
2013
2034
2059
2081
2093
2085
2069
2066
2075
2072
2066
2065
2061
2052
2046
2039
2036
2035
2038
2038
2043
2048
2041
2029
2034
2051
2050
2041
2038
2039
2039
2048
2061
2074
2076
2065
2048
2040
2046
2057
2053
2040
2040
2039
2030
2019
2019
2025
2033
2035
2033
2031
2031
2031
2030
2025
2030
2035
2050
2068
2077
2087
2092
2092
2098
2105
2099
2076
2055
2048
2040
2028
2015
2012
2014
2023
2037
2037
2033
2032
2032
2024
2023
2023
2029
2035
2039
2042
2041
2044
2047
2050
2060
2067
2069
2065
2064
2061
2052
2053
2056
2056
2051
2046
2037
2027
2021
2026
2031
2040
2049
2048
2043
2045
2050
2048
2038
2034
2037
2028
2011
2002
2015
2030
2032
2036
2050
2064
2073
2070
2063
2058
2056
2048
2033
2022
2033
2045
2044
2043
2039
2035
2032
2024
2021
2019
2015
2019
2024
2019
2019
2021
2028
2041
2042
2048
2062
2060
2014
1968
1962
1979
1997
2012
2016
2010
2001
1995
1991
1992
1993
1989
1987
1999
2006
1993
1970
1956
1956
1959
1961
1968
1979
1996
2016
2017
2008
1999
1992
1974
1966
1977
1991
2003
2020
2043
2069
2074
2064
2055
2031
1989
1964
1970
1968
1936
1907
1904
1916
1925
1944
1967
1973
1976
1970
1960
1955
1958
1969
1972
1969
1973
1984
1991
1999
2014
2017
2008
2005
2008
2006
2006
2001
1998
1997
1990
1980
1975
1963
1958
1970
1982
1987
1999
2016
2009
1988
1964
1949
1945
1947
1953
1961
1970
1982
1988
1993
2003
2009
2008
2002
2002
2001
2010
2025
2022
2013
2029
2055
2077
2087
2072
2059
2072
2073
2070
2063
2049
2029
2015
1999
1982
1976
1981
1995
2004
2006
2007
2016
2023
2013
2000
1998
2000
1998
1988
1979
1980
1997
2022
2043
2040
2029
2025
2026
2020
2020
2039
2037
1992
1946
1930
1942
1949
1954
1959
1961
1962
1968
1973
1971
1972
1985
1992
1995
1987
1967
1944
1938
1949
1950
1955
1963
1963
1953
1947
1958
1974
1991
2012
2019
1995
1958
1932
1929
1944
1952
1953
1958
1963
1975
1987
1998
2003
2003
2009
2029
2049
2061
2077
2099
2122
2136
2134
2126
2120
2116
2108
2104
2117
2136
2150
2147
2137
2134
2142
2129
2100
2076
2064
2058
2055
2069
2087
2110
2135
2164
2195
2225
2263
2288
2309
2333
2363
2385
2419
2473
2538
2604
2663
2714
2748
2756
2721
2680
2648
2619
2585
2536
2475
2402
2338
2289
2248
2226
2254
2289
2293
2264
2240
2238
2242
2252
2267
2281
2269
2241
2212
2194
2187
2188
2202
2204
2191
2174
2163
2152
2150
2152
2157
2169
2180
2195
2194
2178
2162
2157
2159
2158
2147
2130
2130
2142
2160
2168
2161
2166
2183
2184
2165
2144
2129
2122
2124
2134
2160
2170
2161
2151
2142
2127
2117
2127
2140
2155
2163
2159
2159
2156
2147
2135
2135
2147
2159
2175
2179
2176
2165
2146
2143
2155
2161
2175
2184
2190
2191
2186
2185
2200
2218
2222
2206
2174
2151
2145
2141
2146
2149
2150
2141
2133
2123
2123
2137
2160
2175
2174
2153
2126
2107
2111
2130
2150
2154
2142
2123
2113
2118
2135
2147
2152
2145
2131
2121
2130
2142
2144
2130
2116
2122
2120
2113
2115
2117
2117
2108
2090
2078
2078
2094
2110
2123
2134
2134
2118
2098
2086
2084
2080
2073
2085
2093
2092
2087
2087
2095
2094
2100
2108
2125
2125
2114
2114
2122
2124
2117
2107
2098
2088
2086
2080
2086
2099
2110
2113
2115
2104
2085
2078
2072
2067
2070
2080
2085
2087
2093
2102
2099
2087
2071
2063
2066
2071
2093
2122
2127
2118
2106
2095
2093
2088
2091
2100
2102
2108
2106
2102
2106
2121
2150
2176
2199
2210
2209
2217
2232
2247
2230
2168
2091
2053
2059
2065
2072
2074
2074
2072
2060
2055
2067
2076
2086
2098
2094
2081
2074
2082
2099
2109
2106
2096
2089
2101
2100
2090
2081
2076
2060
2041
2042
2047
2051
2053
2046
2044
2045
2046
2048
2049
2038
2023
2018
2023
2027
2023
2014
2007
2007
1996
1983
1974
1964
1951
1951
1957
1955
1951
1946
1931
1914
1907
1912
1916
1916
1908
1902
1923
1942
1939
1922
1907
1902
1899
1878
1839
1818
1831
1852
1855
1850
1850
1865
1876
1878
1876
1862
1846
1844
1851
1855
1846
1842
1850
1862
1868
1862
1848
1838
1825
1832
1843
1847
1848
1850
1850
1849
1852
1867
1874
1875
1875
1873
1883
1894
1890
1878
1875
1880
1867
1860
1842
1819
1821
1849
1862
1862
1861
1864
1858
1852
1851
1849
1844
1848
1860
1872
1879
1887
1898
1908
1916
1919
1916
1905
1892
1887
1889
1897
1904
1907
1906
1909
1901
1886
1890
1917
1943
1954
1953
1951
1932
1899
1878
1882
1891
1892
1890
1886
1880
1882
1893
1899
1895
1885
1875
1880
1896
1904
1898
1894
1895
1900
1903
1896
1890
1884
1886
1888
1895
1895
1887
1884
1889
1882
1870
1858
1853
1856
1854
1845
1853
1871
1868
1867
1871
1882
1887
1893
1909
1926
1916
1901
1894
1892
1892
1896
1903
1906
1899
1891
1900
1900
1891
1878
1871
1874
1881
1880
1867
1857
1856
1862
1877
1890
1895
1890
1871
1860
1866
1858
1843
1829
1823
1826
1826
1827
1846
1873
1877
1854
1831
1819
1813
1814
1834
1862
1877
1868
1862
1879
1865
1832
1805
1799
1814
1835
1848
1854
1849
1840
1840
1842
1844
1845
1843
1842
1842
1839
1828
1826
1836
1852
1868
1881
1882
1877
1868
1852
1846
1844
1833
1819
1809
1803
1805
1821
1838
1840
1833
1826
1820
1820
1828
1842
1857
1860
1850
1826
1800
1789
1788
1790
1793
1794
1799
1811
1824
1832
1838
1839
1834
1829
1824
1820
1815
1808
1796
1782
1769
1781
1788
1795
1794
1791
1799
1804
1802
1800
1801
1811
1820
1829
1835
1827
1808
1793
1789
1797
1805
1811
1823
1837
1837
1828
1825
1819
1814
1829
1839
1834
1816
1801
1799
1807
1804
1790
1790
1795
1798
1798
1804
1816
1816
1816
1827
1835
1832
1833
1839
1838
1823
1812
1807
1811
1824
1836
1841
1838
1824
1808
1796
1790
1784
1778
1771
1767
1757
1749
1735
1723
1725
1742
1757
1763
1763
1756
1774
1801
1815
1817
1817
1815
1808
1799
1783
1773
1769
1773
1782
1792
1799
1819
1844
1850
1842
1835
1826
1817
1815
1822
1836
1848
1865
1883
1896
1918
1924
1883
1828
1804
1810
1829
1842
1846
1851
1858
1858
1861
1870
1871
1853
1838
1842
1853
1861
1864
1877
1904
1926
1927
1924
1928
1920
1889
1868
1865
1875
1884
1894
1905
1907
1898
1882
1875
1889
1906
1921
1926
1913
1899
1884
1886
1903
1919
1927
1933
1935
1941
1939
1937
1956
1976
1989
1988
1991
1998
2005
2001
1996
1989
1982
1971
1963
1972
1993
1999
1987
1971
1969
1971
1963
1944
1937
1943
1950
1959
1967
1971
1975
1980
1975
1972
1966
1945
1919
1903
1913
1939
1965
1974
1971
1959
1929
1905
1898
1903
1921
1930
1933
1931
1935
1937
1938
1938
1941
1944
1942
1941
1947
1949
1953
1957
1956
1949
1945
1949
1958
1959
1958
1951
1936
1939
1960
1970
1967
1966
1971
1968
1966
1945
1913
1890
1876
1876
1886
1900
1919
1932
1937
1942
1946
1950
1955
1961
1966
1967
1978
1991
1996
1990
1976
1961
1941
1912
1892
1894
1914
1940
1959
1971
1976
1994
2019
2042
2067
2101
2142
2188
2237
2288
2334
2377
2426
2483
2539
2584
2613
2623
2607
2573
2517
2470
2444
2412
2353
2268
2184
2114
2073
2053
2037
2015
1980
1954
1945
1946
1948
1946
1955
1972
1978
1967
1950
1947
1942
1936
1931
1934
1934
1934
1936
1942
1943
1941
1947
1953
1963
1981
1979
1959
1936
1919
1910
1916
1928
1942
1950
1968
1978
1985
1982
1972
1966
1969
1977
1976
1977
1978
1971
1957
1948
1954
1956
1963
1969
1966
1977
1996
2001
1999
2001
1997
1982
1973
1976
1975
1972
1972
1980
1998
2002
1991
1971
1971
1971
1968
1961
1961
1965
1966
1972
1988
1993
1996
1999
2011
2036
2059
2056
2033
2004
1985
1967
1957
1958
1962
1965
1973
1988
2014
2034
2034
2028
2029
2020
1996
1966
1947
1938
1943
1957
1968
1971
1971
1976
1988
1998
1998
2002
2011
2010
1997
1976
1962
1965
1980
1998
2012
2013
2008
2006
2003
1995
1986
1976
1967
1967
1981
1999
2021
2042
2044
2031
2022
2034
2049
2043
2028
2015
2012
2013
2009
1996
1982
1984
1988
1991
2001
2007
2005
2000
2008
2026
2046
2059
2065
2069
2064
2059
2048
2025
2018
2028
2034
2034
2031
2027
2027
2031
2035
2037
2048
2070
2082
2086
2084
2058
2023
2008
2020
2036
2046
2057
2055
2047
2052
2066
2080
2082
2086
2090
2092
2091
2091
2094
2096
2093
2089
2088
2086
2081
2074
2078
2078
2076
2068
2064
2068
2071
2069
2051
2026
2025
2042
2062
2075
2084
2089
2089
2099
2100
2085
2066
2062
2064
2059
2050
2042
2032
2035
2043
2043
2038
2030
2032
2051
2056
2054
2044
2040
2042
2045
2056
2062
2059
2048
2028
2012
2005
1998
1992
1990
1983
1975
1967
1965
1960
1947
1945
1956
1955
1957
1958
1963
1976
1978
1974
1967
1959
1963
1968
1963
1953
1942
1932
1927
1931
1934
1930
1919
1909
1906
1911
1916
1923
1928
1926
1925
1924
1927
1923
1922
1920
1925
1930
1932
1929
1921
1923
1929
1920
1914
1914
1922
1938
1945
1933
1919
1918
1913
1899
1885
1871
1875
1890
1897
1901
1903
1900
1902
1903
1901
1902
1908
1916
1917
1912
1903
1894
1890
1890
1895
1895
1897
1909
1917
1915
1908
1914
1931
1939
1950
1954
1942
1910
1890
1891
1906
1913
1926
1939
1942
1938
1931
1925
1922
1910
1889
1890
1913
1925
1925
1925
1931
1943
1949
1949
1944
1950
1966
1969
1960
1943
1928
1928
1948
1967
1984
1996
2002
2003
1990
1955
1912
1893
1904
1921
1928
1933
1937
1935
1935
1939
1936
1934
1933
1935
1952
1970
1974
1962
1942
1935
1937
1944
1950
1951
1957
1966
1974
1980
1976
1960
1943
1936
1940
1946
1952
1951
1956
1980
1998
1984
1970
1963
1970
1974
1978
1977
1978
1975
1963
1943
1924
1918
1921
1917
1926
1938
1955
1981
1991
1988
1986
1990
1999
1984
1948
1923
1923
1933
1942
1940
1936
1933
1937
1944
1949
1962
1972
1978
1986
1992
1984
1975
1968
1960
1955
1955
1955
1950
1940
1934
1935
1938
1940
1936
1933
1937
1936
1954
1973
1973
1968
1963
1951
1955
1963
1961
1959
1963
1960
1955
1960
1961
1950
1944
1953
1968
1979
1987
1994
1997
1981
1966
1957
1954
1952
1952
1953
1959
1965
1965
1961
1955
1947
1941
1939
1945
1951
1947
1946
1955
1967
1975
1992
2003
2006
1998
1981
1967
1966
1972
1978
1979
1983
1991
2000
1999
1994
1985
1975
1974
1972
1974
1986
2005
2009
2003
2001
1989
1981
1978
1977
1976
1974
1973
1989
2011
2025
2036
2050
2050
2025
1994
1974
1961
1958
1962
1966
1961
1959
1964
1969
1971
1980
1986
1993
1994
1989
1982
1991
2000
2017
2041
2047
2020
1985
1966
1954
1945
1941
1941
1946
1952
1961
1966
1970
1977
1979
1977
1966
1953
1951
1955
1965
1985
1987
1983
1980
1988
1992
1994
2001
2004
2009
2018
2019
2017
2011
1996
1990
1994
2000
2004
2013
2028
2030
2015
1990
1976
1971
1973
1984
1991
1994
1991
1986
1989
2006
2016
2024
2020
2015
2013
2014
2024
2040
2043
2032
2021
2027
2038
2049
2056
2048
2029
2012
2000
2003
2012
2015
2021
2019
2023
2031
2049
2063
2075
2073
2056
2041
2045
2056
2051
2043
2046
2050
2054
2056
2061
2068
2072
2082
2090
2091
2097
2097
2086
2065
2059
2064
2062
2054
2050
2050
2051
2060
2072
2079
2083
2084
2078
2070
2065
2064
2061
2051
2032
2015
2017
2029
2028
2022
2016
2012
2028
2023
2005
1988
1986
1986
1997
2016
2023
2022
2021
2025
2036
2045
2040
2030
2027
2028
2014
2003
2013
2030
2038
2045
2055
2044
2019
1996
1984
1992
2012
2030
2027
2012
1993
1985
1986
2001
2020
2032
2033
2029
2025
2021
2018
2017
2014
2010
2013
2019
2025
2023
2026
2040
2059
2060
2046
2038
2048
2051
2041
2038
2045
2050
2041
2029
2028
2026
2019
2013
2002
1985
1970
1982
2003
2000
1988
1978
1983
2013
2059
2108
2152
2188
2231
2276
2311
2343
2372
2417
2485
2545
2591
2624
2650
2674
2671
2646
2606
2556
2514
2469
2404
2337
2280
2241
2218
2191
2158
2124
2090
2068
2055
2057
2067
2069
2056
2045
2045
2042
2033
2021
2009
2005
2002
1999
1997
1991
1988
1998
2006
2007
2002
2003
2016
2026
2025
2023
2039
2044
2036
2030
2030
2026
2038
2064
2071
2041
2006
1995
2003
2016
2028
2033
2027
2014
2014
2017
2021
2025
2024
2021
2027
2043
2050
2054
2060
2062
2055
2050
2040
2031
2035
2052
2071
2075
2073
2081
2100
2117
2124
2113
2083
2041
2015
2009
2017
2027
2039
2053
2063
2065
2057
2043
2035
2033
2032
2033
2036
2040
2055
2072
2079
2085
2084
2072
2058
2056
2064
2075
2078
2080
2073
2067
2064
2067
2066
2065
2067
2077
2093
2097
2098
2099
2097
2089
2078
2065
2051
2055
2075
2089
2091
2093
2095
2092
2078
2066
2066
2076
2080
2077
2083
2100
2111
2103
2080
2055
2047
2056
2064
2063
2061
2057
2050
2057
2079
2088
2093
2098
2099
2107
2115
2115
2106
2096
2098
2102
2107
2108
2107
2102
2093
2087
2096
2109
2113
2108
2105
2106
2107
2102
2111
2127
2139
2152
2166
2180
2184
2172
2151
2139
2138
2148
2161
2163
2154
2151
2162
2166
2155
2145
2155
2173
2185
2188
2186
2189
2196
2204
2217
2217
2207
2194
2200
2205
2203
2204
2208
2207
2201
2187
2179
2176
2182
2210
2243
2258
2255
2252
2268
2269
2240
2199
2176
2163
2170
2192
2207
2210
2207
2202
2199
2197
2194
2186
2177
2167
2161
2163
2170
2170
2189
2204
2207
2204
2192
2181
2185
2211
2241
2248
2223
2195
2181
2176
2175
2177
2181
2181
2184
2191
2202
2202
2188
2178
2169
2166
2167
2169
2168
2172
2170
2158
2154
2149
2139
2149
2165
2171
2168
2169
2171
2178
2181
2170
2154
2133
2139
2162
2170
2170
2157
2131
2103
2081
2063
2059
2069
2084
2095
2099
2101
2102
2111
2112
2118
2133
2146
2148
2141
2133
2124
2121
2121
2120
2121
2131
2142
2145
2140
2132
2120
2110
2114
2123
2119
2111
2106
2102
2094
2097
2103
2116
2121
2125
2142
2155
2159
2155
2143
2129
2127
2120
2120
2124
2127
2136
2138
2137
2127
2105
2097
2103
2107
2114
2136
2154
2159
2159
2155
2141
2119
2099
2099
2112
2117
2124
2131
2140
2148
2149
2152
2151
2145
2134
2128
2130
2129
2120
2113
2110
2113
2117
2107
2096
2087
2088
2099
2115
2127
2124
2115
2112
2114
2111
2107
2109
2116
2122
2117
2102
2104
2127
2150
2159
2154
2155
2146
2115
2089
2084
2096
2116
2133
2141
2138
2126
2119
2115
2114
2119
2133
2132
2118
2103
2086
2084
2117
2153
2188
2207
2206
2193
2190
2209
2203
2188
2173
2167
2173
2175
2162
2154
2156
2160
2157
2159
2165
2168
2168
2176
2186
2186
2187
2199
2197
2184
2170
2165
2171
2167
2166
2177
2181
2168
2165
2178
2183
2184
2183
2174
2159
2153
2156
2166
2178
2175
2176
2176
2165
2146
2131
2126
2124
2122
2125
2135
2152
2167
2173
2170
2160
2150
2136
2126
2137
2148
2145
2125
2099
2080
2074
2076
2076
2073
2067
2067
2070
2073
2069
2061
2045
2037
2050
2071
2085
2090
2093
2084
2075
2071
2068
2080
2094
2105
2111
2110
2109
2104
2095
2094
2094
2095
2092
2091
2091
2096
2099
2099
2105
2118
2136
2147
2150
2161
2164
2158
2172
2189
2201
2201
2199
2210
2225
2225
2203
2181
2167
2166
2169
2163
2158
2159
2162
2175
2180
2180
2181
2195
2202
2196
2196
2214
2232
2222
2205
2192
2187
2182
2189
2201
2200
2211
2216
2212
2211
2212
2212
2220
2223
2221
2211
2190
2183
2184
2185
2188
2191
2194
2195
2192
2192
2201
2209
2217
2229
2243
2266
2279
2263
2226
2187
2173
2188
2211
2224
2224
2222
2217
2207
2194
2184
2176
2175
2186
2193
2191
2195
2198
2195
2191
2191
2204
2220
2231
2230
2229
2230
2225
2225
2227
2226
2221
2214
2220
2227
2233
2237
2246
2253
2256
2260
2256
2257
2256
2255
2244
2234
2223
2209
2203
2220
2242
2246
2240
2241
2251
2260
2255
2243
2238
2244
2235
2225
2218
2227
2244
2246
2234
2221
2211
2203
2205
2207
2193
2180
2177
2167
2160
2175
2190
2198
2202
2200
2198
2191
2187
2187
2187
2188
2194
2200
2199
2194
2189
2191
2194
2190
2188
2190
2200
2209
2210
2194
2171
2155
2161
2168
2165
2170
2183
2199
2214
2220
2214
2218
2219
2220
2215
2204
2203
2204
2198
2193
2195
2206
2213
2214
2216
2221
2219
2210
2198
2183
2182
2193
2202
2213
2213
2223
2228
2216
2197
2189
2198
2211
2214
2223
2221
2216
2205
2204
2224
2259
2301
2350
2392
2430
2470
2513
2561
2608
2652
2696
2738
2777
2791
2774
2748
2720
2684
2646
2599
2539
2478
2422
2367
2328
2295
2268
2252
2244
2235
2222
2215
2206
2191
2175
2166
2168
2180
2189
2202
2209
2204
2203
2204
2202
2198
2194
2190
2188
2190
2189
2178
2163
2155
2169
2182
2202
2231
2255
2268
2261
2249
2237
2222
2202
2191
2182
2168
2167
2180
2185
2181
2178
2190
2201
2200
2186
2171
2168
2176
2181
2195
2213
2228
2252
2271
2262
2247
2237
2237
2236
2236
2246
2247
2239
2237
2242
2251
2242
2238
2232
2227
2221
2220
2224
2240
2264
2282
2276
2261
2247
2241
2237
2243
2259
2268
2268
2267
2275
2283
2267
2240
2220
2204
2191
2188
2195
2213
2230
2227
2224
2222
2225
2230
2234
2243
2250
2254
2246
2238
2231
2230
2245
2263
2264
2255
2265
2282
2275
2258
2245
2239
2233
2228
2230
2238
2242
2242
2243
2243
2243
2244
2251
2251
2254
2259
2260
2255
2242
2234
2241
2251
2247
2246
2252
2259
2273
2289
2295
2296
2302
2308
2312
2302
2277
2255
2257
2275
2291
2298
2292
2294
2294
2298
2309
2319
2325
2315
2302
2297
2292
2295
2307
2330
2345
2329
2305
2296
2302
2305
2313
2320
2328
2327
2313
2309
2317
2329
2338
2346
2352
2357
2356
2347
2340
2348
2359
2374
2387
2400
2406
2398
2383
2357
2351
2356
2356
2352
2357
2371
2382
2389
2397
2405
2410
2407
2394
2382
2372
2369
2366
2363
2364
2358
2357
2365
2377
2393
2395
2383
2371
2359
2347
2345
2355
2377
2398
2409
2419
2422
2420
2398
2371
2351
2346
2343
2328
2305
2285
2282
2274
2272
2283
2296
2297
2302
2314
2314
2304
2291
2289
2291
2289
2295
2304
2310
2310
2309
2302
2287
2267
2258
2249
2246
2245
2241
2240
2243
2244
2243
2230
2219
2210
2208
2207
2211
2230
2242
2237
2228
2222
2223
2233
2235
2230
2213
2199
2207
2228
2241
2225
2185
2146
2127
2130
2136
2140
2146
2157
2168
2174
2174
2181
2191
2203
2217
2221
2220
2218
2203
2174
2146
2126
2125
2145
2172
2184
2175
2167
2165
2178
2188
2188
2186
2188
2189
2192
2183
2178
2177
2168
2165
2177
2188
2193
2192
2200
2212
2226
2229
2224
2224
2236
2245
2242
2237
2226
2202
2183
2180
2204
2237
2250
2235
2246
2264
2261
2249
2240
2236
2236
2241
2245
2242
2243
2257
2270
2285
2280
2265
2261
2262
2258
2247
2243
2242
2239
2246
2264
2275
2271
2260
2249
2243
2234
2236
2247
2257
2261
2265
2267
2263
2261
2271
2280
2287
2291
2288
2292
2297
2299
2294
2289
2284
2275
2273
2271
2267
2265
2262
2248
2237
2253
2267
2271
2266
2261
2266
2279
2295
2294
2275
2258
2258
2264
2271
2281
2288
2288
2288
2287
2285
2289
2302
2316
2300
2265
2251
2259
2256
2261
2273
2276
2270
2268
2261
2248
2245
2248
2250
2256
2263
2260
2244
2235
2238
2245
2250
2249
2252
2252
2250
2247
2246
2248
2257
2268
2285
2298
2298
2286
2268
2263
2259
2251
2246
2252
2264
2278
2284
2273
2246
2223
2221
2227
2236
2243
2248
2248
2253
2249
2237
2229
2237
2250
2253
2242
2229
2224
2223
2221
2227
2231
2230
2227
2226
2230
2226
2224
2229
2246
2251
2250
2250
2247
2240
2234
2239
2253
2257
2251
2256
2270
2274
2249
2224
2215
2219
2222
2225
2218
2200
2177
2164
2166
2176
2185
2185
2184
2191
2198
2209
2215
2215
2214
2213
2215
2211
2204
2207
2215
2227
2228
2224
2213
2202
2202
2205
2207
2199
2197
2209
2223
2240
2248
2239
2222
2208
2202
2207
2208
2196
2191
2202
2212
2222
2223
2208
2191
2188
2188
2193
2189
2180
2177
2173
2173
2171
2165
2160
2160
2166
2183
2209
2218
2203
2193
2189
2188
2182
2178
2181
2174
2163
2151
2134
2123
2127
2147
2170
2188
2199
2208
2206
2202
2208
2224
2228
2219
2205
2195
2183
2166
2155
2151
2156
2159
2165
2182
2194
2197
2193
2185
2191
2207
2211
2182
2145
2123
2126
2137
2145
2162
2182
2193
2199
2196
2193
2195
2188
2188
2205
2221
2239
2272
2295
2300
2298
2291
2285
2278
2278
2287
2303
2317
2314
2308
2314
2315
2299
2274
2255
2254
2249
2236
2228
2230
2238
2250
2256
2259
2251
2242
2239
2247
2252
2254
2255
2240
2221
2215
2210
2196
2185
2189
2194
2190
2181
2186
2203
2219
2220
2216
2208
2192
2184
2181
2187
2189
2197
2204
2207
2208
2208
2208
2205
2204
2205
2197
2172
2150
2154
2158
2147
2144
2144
2144
2142
2146
2145
2149
2157
2168
2169
2165
2157
2145
2141
2143
2146
2143
2139
2140
2146
2154
2150
2146
2147
2146
2155
2175
2186
2178
2155
2133
2118
2108
2100
2089
2081
2085
2098
2114
2140
2177
2219
2252
2280
2306
2339
2383
2423
2462
2501
2540
2584
2633
2681
2712
2711
2687
2654
2612
2569
2531
2482
2416
2361
2313
2270
2236
2205
2179
2152
2119
2095
2080
2071
2072
2082
2088
2092
2095
2096
2095
2086
2075
2082
2079
2057
2039
2027
2017
2017
2030
2046
2056
2050
2028
2009
2003
2010
2020
2036
2046
2059
2079
2095
2102
2097
2094
2100
2094
2077
2060
2057
2064
2074
2077
2080
2081
2080
2085
2083
2077
2066
2063
2068
2069
2055
2045
2053
2063
2069
2065
2060
2054
2052
2055
2051
2044
2052
2065
2075
2084
2093
2084
2068
2058
2054
2052
2058
2067
2069
2068
2061
2045
2036
2035
2048
2064
2087
2103
2115
2121
2122
2109
2107
2103
2101
2113
2130
2145
2155
2168
2172
2148
2107
2075
2069
2084
2101
2118
2127
2130
2129
2127
2127
2128
2132
2139
2142
2142
2145
2141
2131
2117
2118
2149
2181
2194
2199
2196
2188
2176
2163
2161
2163
2168
2169
2156
2146
2146
2146
2145
2152
2160
2154
2146
2139
2137
2136
2138
2137
2137
2147
2151
2158
2155
2142
2138
2145
2156
2151
2132
2113
2101
2101
2090
2092
2104
2117
2131
2146
2154
2145
2129
2119
2119
2129
2141
2152
2153
2159
2179
2184
2160
2133
2128
2138
2146
2148
2146
2151
2163
2168
2163
2164
2171
2173
2169
2164
2162
2157
2145
2138
2142
2140
2130
2124
2128
2137
2142
2145
2152
2161
2167
2170
2173
2168
2164
2163
2151
2127
2104
2100
2098
2092
2087
2087
2090
2093
2093
2090
2088
2094
2103
2114
2124
2130
2132
2125
2123
2118
2110
2101
2100
2114
2132
2127
2114
2114
2127
2121
2092
2075
2068
2057
2049
2039
2026
2021
2029
2030
2040
2056
2071
2077
2066
2047
2036
2046
2062
2070
2047
2007
1979
1967
1969
1967
1960
1957
1957
1947
1953
1968
1979
1992
1990
1978
1975
1968
1958
1958
1967
1967
1964
1954
1939
1922
1903
1888
1882
1882
1886
1906
1917
1921
1923
1915
1914
1912
1907
1914
1914
1900
1899
1907
1905
1907
1910
1898
1882
1871
1868
1881
1881
1873
1866
1867
1880
1891
1898
1914
1929
1937
1931
1923
1904
1871
1844
1839
1863
1884
1900
1916
1922
1922
1924
1927
1926
1921
1916
1908
1898
1904
1919
1927
1919
1910
1899
1885
1884
1882
1884
1891
1907
1915
1908
1897
1900
1904
1911
1913
1918
1917
1912
1904
1898
1889
1883
1895
1906
1909
1910
1921
1931
1928
1913
1909
1913
1917
1916
1916
1919
1925
1926
1925
1917
1910
1914
1906
1879
1851
1844
1844
1850
1859
1880
1890
1887
1895
1910
1934
1944
1929
1900
1882
1881
1888
1889
1889
1886
1889
1897
1909
1925
1934
1941
1933
1906
1877
1866
1856
1851
1854
1864
1874
1881
1896
1897
1892
1881
1876
1880
1893
1907
1924
1918
1906
1903
1908
1918
1916
1899
1880
1861
1850
1856
1867
1871
1880
1889
1889
1890
1893
1894
1895
1896
1906
1913
1923
1932
1929
1912
1884
1871
1878
1886
1884
1889
1891
1885
1877
1871
1886
1905
1923
1939
1933
1918
1893
1860
1836
1839
1855
1860
1871
1883
1895
1894
1889
1887
1873
1858
1853
1852
1865
1875
1866
1861
1863
1862
1871
1886
1892
1881
1865
1864
1880
1890
1895
1894
1885
1873
1865
1875
1895
1913
1922
1928
1927
1921
1896
1867
1841
1830
1837
1861
1888
1890
1873
1862
1865
1874
1873
1874
1879
1880
1876
1871
1877
1888
1882
1871
1868
1876
1875
1872
1876
1874
1874
1871
1874
1873
1886
1897
1892
1892
1891
1893
1898
1896
1891
1880
1875
1884
1890
1901
1910
1913
1906
1904
1918
1929
1926
1910
1890
1875
1869
1868
1875
1885
1893
1891
1880
1877
1878
1879
1868
1857
1856
1873
1887
1899
1905
1902
1899
1896
1889
1884
1893
1909
1920
1920
1902
1876
1854
1840
1838
1855
1874
1886
1888
1890
1885
1874
1862
1862
1868
1874
1885
1902
1904
1885
1865
1862
1861
1854
1857
1868
1873
1873
1872
1879
1886
1875
1856
1837
1836
1838
1838
1839
1839
1837
1837
1841
1843
1850
1853
1846
1845
1843
1847
1856
1870
1878
1880
1878
1870
1861
1860
1871
1882
1880
1862
1843
1844
1850
1845
1852
1862
1863
1861
1858
1860
1862
1867
1858
1853
1860
1872
1875
1872
1861
1852
1856
1855
1855
1862
1876
1894
1900
1904
1917
1922
1916
1894
1855
1830
1822
1822
1824
1836
1859
1868
1860
1851
1843
1845
1838
1830
1833
1852
1866
1865
1877
1888
1894
1894
1878
1858
1850
1850
1856
1870
1877
1879
1888
1890
1870
1855
1867
1883
1891
1902
1920
1937
1925
1905
1892
1895
1908
1923
1931
1938
1934
1930
1925
1923
1921
1925
1934
1942
1949
1943
1928
1933
1947
1937
1895
1867
1863
1877
1893
1904
1909
1895
1884
1893
1904
1909
1901
1901
1900
1887
1867
1857
1855
1863
1879
1878
1863
1844
1834
1831
1835
1837
1843
1849
1854
1838
1827
1833
1838
1844
1851
1858
1860
1855
1846
1836
1830
1842
1858
1863
1865
1871
1879
1881
1865
1860
1865
1867
1866
1866
1869
1868
1862
1852
1849
1849
1845
1837
1845
1861
1881
1905
1910
1902
1900
1904
1927
1959
1980
1992
2007
2015
2031
2066
2094
2114
2129
2128
2124
2113
2101
2090
2081
2086
2096
2110
2126
2135
2136
2155
2186
2216
2235
2253
2285
2333
2371
2403
2427
2457
2505
2570
2634
2683
2722
2751
2753
2723
2683
2653
2623
2582
2528
2466
2409
2362
2323
2295
2260
2220
2186
2163
2142
2125
2120
2122
2119
2128
2139
2121
2091
2070
2062
2083
2099
2099
2093
2075
2049
2027
2025
2034
2051
2070
2078
2088
2094
2084
2057
2032
2018
2010
2005
2007
2014
2029
2050
2064
2071
2067
2067
2057
2039
2028
2025
2023
2022
2025
2018
2003
1983
1974
1977
1974
1983
2004
2019
2039
2051
2052
2059
2071
2067
2054
2041
2039
2025
2012
2003
2004
2000
1994
1994
2000
2004
2006
2004
2006
2016
2030
2044
2053
2054
2048
2038
2016
1989
1975
1989
2035
2076
2089
2089
2091
2102
2114
2121
2114
2107
2113
2127
2136
2132
2113
2085
2067
2054
2050
2054
2057
2067
2074
2071
2072
2073
2071
2066
2070
2077
2084
2087
2084
2078
2072
2068
2071
2073
2068
2069
2078
2075
2068
2061
2054
2041
2029
2027
2039
2052
2053
2051
2050
2045
2037
2036
2035
2033
2032
2030
2023
2028
2033
2023
2012
2013
2014
2016
2024
2033
2043
2038
2037
2039
2032
2013
2001
2001
1998
1999
1991
1989
2002
2019
2037
2051
2060
2062
2072
2078
2075
2067
2050
2030
2014
1998
1991
1995
2002
1992
1960
1926
1900
1878
1868
1869
1870
1870
1872
1873
1880
1881
1884
1896
1902
1901
1900
1899
1900
1903
1905
1906
1888
1863
1848
1838
1829
1848
1885
1913
1916
1917
1915
1903
1890
1899
1902
1895
1898
1913
1923
1924
1915
1901
1888
1875
1868
1864
1867
1873
1875
1877
1882
1884
1889
1906
1907
1884
1869
1857
1855
1860
1871
1873
1872
1868
1862
1852
1831
1813
1799
1795
1797
1801
1808
1812
1817
1832
1836
1825
1812
1802
1797
1798
1799
1806
1809
1802
1797
1799
1803
1791
1793
1804
1820
1823
1801
1774
1766
1772
1783
1793
1801
1816
1823
1816
1798
1780
1779
1787
1802
1807
1810
1805
1790
1781
1786
1779
1778
1783
1785
1790
1795
1795
1790
1782
1775
1779
1782
1785
1785
1788
1790
1803
1821
1841
1860
1859
1843
1826
1811
1811
1817
1825
1831
1827
1817
1808
1800
1803
1815
1826
1831
1835
1839
1844
1861
1860
1833
1806
1788
1793
1807
1815
1821
1831
1847
1848
1825
1801
1797
1804
1817
1827
1842
1857
1873
1875
1859
1834
1824
1822
1825
1827
1823
1816
1818
1821
1827
1830
1825
1837
1861
1874
1880
1880
1881
1886
1898
1915
1919
1923
1927
1928
1926
1924
1921
1909
1894
1884
1886
1894
1905
1909
1906
1905
1926
1950
1960
1957
1948
1941
1936
1928
1913
1894
1879
1879
1886
1891
1894
1897
1893
1885
1884
1891
1896
1898
1892
1883
1878
1873
1871
1865
1862
1865
1870
1868
1866
1864
1869
1882
1886
1874
1859
1868
1889
1893
1887
1879
1858
1837
1836
1838
1831
1823
1832
1854
1873
1890
1907
1929
1947
1940
1894
1834
1818
1825
1834
1835
1841
1846
1849
1847
1853
1862
1875
1874
1871
1869
1871
1867
1856
1853
1860
1867
1882
1899
1909
1918
1918
1922
1924
1926
1927
1923
1924
1924
1903
1875
1859
1861
1868
1874
1876
1879
1881
1882
1896
1897
1886
1865
1842
1864
1895
1896
1882
1879
1886
1905
1910
1911
1916
1911
1896
1874
1870
1873
1879
1881
1890
1908
1920
1923
1911
1885
1882
1885
1877
1868
1868
1873
1886
1892
1894
1898
1896
1890
1878
1867
1865
1876
1885
1889
1894
1896
1895
1892
1891
1909
1914
1911
1903
1898
1898
1890
1886
1876
1856
1845
1845
1855
1867
1880
1894
1904
1905
1906
1902
1901
1908
1924
1935
1932
1921
1915
1923
1917
1913
1921
1922
1924
1927
1923
1916
1926
1930
1923
1917
1939
1968
1996
2006
1994
1983
1990
1998
2000
2004
2016
2013
2003
2007
2017
2024
2040
2053
2063
2071
2080
2071
2046
2013
2005
2022
2031
2038
2042
2040
2034
2012
2007
2012
2010
2015
2008
1994
1985
1988
1996
1994
2000
2016
2038
2056
2056
2049
2029
2007
1994
1995
1994
1993
1991
1989
1992
1991
1983
1975
1969
1967
1965
1968
1979
1992
1989
1982
1976
1975
1980
1981
1985
1990
1991
1994
2001
1997
1985
1962
1943
1944
1961
1977
1989
1988
1982
1979
1974
1967
1960
1959
1970
1988
1986
1982
1979
1983
1988
2000
2018
2010
1984
1959
1955
1974
2000
2020
2017
2006
2003
2015
2008
1989
1968
1970
1980
1989
1990
1987
1987
1993
2003
2028
2052
2043
2027
2019
2018
2024
2028
2029
2034
2043
2039
2044
2061
2065
2036
2010
2000
1989
1996
2013
2022
2022
2016
2011
2004
2005
2011
2015
2014
2007
2001
2007
2009
2009
2006
1990
1972
1962
1973
1996
2028
2049
2045
2035
2028
2013
1984
1958
1958
1964
1967
1964
1976
2000
2003
1986
1970
1953
1939
1936
1945
1959
1969
1979
1985
1999
2004
2018
2030
2031
2023
2003
1970
1939
1922
1927
1934
1935
1938
1939
1939
1944
1954
1976
1986
1972
1950
1936
1930
1926
1932
1940
1952
1964
1965
1957
1949
1952
1958
1960
1957
1947
1943
1942
1948
1958
1960
1956
1957
1947
1923
1905
1918
1941
1968
1992
2000
1996
2001
2017
2033
2067
2101
2123
2129
2140
2161
2201
2253
2306
2359
2406
2449
2480
2490
2473
2448
2416
2385
2356
2323
2278
2229
2177
2127
2084
2040
2006
1990
1971
1955
1933
1910
1920
1939
1951
1955
1954
1958
1959
1970
1970
1963
1951
1947
1947
1943
1940
1936
1928
1928
1935
1943
1954
1968
1973
1966
1952
1942
1943
1955
1970
1974
1979
1992
2001
2006
2002
1976
1942
1935
1942
1945
1944
1939
1937
1948
1969
1985
1975
1956
1944
1961
1982
1984
1973
1967
1978
1985
1989
1984
1976
1975
1983
1994
1999
1997
1995
1996
2003
2009
2003
1987
1978
1977
1978
1978
1978
1978
1988
2007
2015
2011
2001
1996
1993
1991
1993
1987
1980
1983
1981
1972
1968
1971
1982
1990
1992
1998
2000
2007
2005
1998
1980
1953
1961
1986
1994
1994
1996
2002
2013
2021
2016
1999
1982
1978
1979
1986
1988
1983
1986
2002
2020
2038
2048
2040
2030
2017
2004
2023
2038
2039
2032
2029
2035
2049
2049
2045
2045
2051
2054
2060
2062
2046
2024
2013
2004
2013
2030
2045
2058
2053
2048
2050
2052
2056
2053
2048
2053
2066
2070
2073
2074
2074
2074
2082
2085
2083
2079
2079
2091
2095
2096
2092
2079
2074
2072
2065
2062
2070
2088
2101
2096
2088
2084
2084
2087
2086
2089
2100
2118
2142
2149
2151
2156
2151
2144
2147
2151
2139
2139
2142
2142
2140
2138
2126
2113
2116
2128
2131
2122
2114
2114
2114
2121
2137
2136
2138
2154
2167
2170
2158
2144
2143
2131
2117
2115
2124
2124
2111
2101
2101
2114
2130
2132
2126
2113
2102
2102
2109
2106
2101
2099
2103
2107
2106
2099
2092
2088
2082
2080
2075
2078
2079
2079
2085
2087
2088
2089
2087
2070
2058
2078
2092
2099
2114
2126
2120
2108
2076
2049
2040
2038
2026
2021
2021
2023
2026
2029
2027
2026
2034
2039
2036
2028
2018
2008
2000
1998
2008
2022
2025
2024
2033
2052
2052
2030
2017
2017
2016
2007
1996
1990
1990
1991
1990
1990
1988
1967
1959
1969
1974
1987
2006
2020
2016
2008
1995
1981
1982
1986
1997
1998
1988
1980
1977
1975
1984
1995
1996
1990
1979
1975
1991
1997
1997
1999
1996
1983
1982
1985
1992
2005
2014
2016
2010
2003
1999
2001
1997
2005
2023
2025
2021
2014
2002
1996
2002
2027
2048
2053
2049
2043
2042
2040
2045
2051
2040
2025
2018
2015
2013
2019
2027
2032
2025
2016
2009
2012
2023
2027
2025
2026
2029
2026
2036
2050
2053
2056
2056
2046
2032
2029
2036
2046
2041
2030
2016
2012
1999
1991
1999
2008
2020
2036
2051
2051
2044
2031
2020
2006
2016
2032
2030
2027
2028
2028
2025
2018
2016
2015
2013
2018
2021
2026
2030
2026
2013
2006
2016
2030
2033
2035
2033
2025
2034
2045
2051
2044
2042
2040
2045
2043
2032
2019
1996
1983
1980
1990
2000
2007
2011
2018
2025
2014
1991
1977
1974
1980
1987
1992
1999
2021
2043
2041
2031
2025
2021
2021
2020
2010
2000
1992
2000
2007
2012
2010
1993
1979
1983
2011
2047
2064
2063
2069
2069
2049
2014
1982
1963
1961
1975
1990
1987
1968
1952
1947
1949
1955
1955
1949
1945
1949
1945
1936
1936
1946
1954
1953
1944
1942
1955
1971
1987
2002
2003
2003
2001
1996
1990
1975
1953
1946
1951
1968
1979
1979
1975
1972
1973
1973
1976
1976
1964
1949
1941
1954
1961
1964
1968
1971
1967
1958
1953
1952
1952
1954
1951
1940
1933
1944
1960
1968
1969
1966
1955
1944
1939
1949
1958
1946
1930
1924
1924
1924
1934
1957
1977
1990
1994
1974
1930
1894
1898
1930
1943
1947
1949
1940
1925
1915
1914
1922
1922
1921
1926
1930
1935
1938
1948
1954
1960
1968
1970
1967
1968
1971
1977
1976
1964
1948
1942
1940
1937
1937
1940
1949
1953
1962
1975
1980
1986
1990
1990
1990
1989
1981
1970
1963
1963
1959
1946
1942
1938
1935
1940
1949
1954
1954
1958
1965
1973
1991
2005
1996
1990
1996
2004
2009
2010
2010
1994
1981
1981
1994
2014
2016
2006
2000
1999
1995
1999
2021
2034
2030
2017
2003
2002
2006
1998
1989
1988
1996
2008
2020
2025
2029
2030
2026
2030
2027
2019
2002
1993
1999
2007
2008
2011
2019
2027
2023
2010
2006
2026
2048
2050
2051
2053
2055
2053
2050
2051
2061
2063
2056
2048
2046
2054
2062
2062
2049
2038
2050
2077
2088
2078
2072
2072
2079
2093
2102
2110
2126
2128
2128
2139
2155
2156
2148
2155
2164
2172
2177
2191
2203
2211
2204
2190
2179
2176
2170
2171
2177
2172
2161
2157
2159
2164
2162
2151
2132
2120
2116
2117
2120
2117
2114
2113
2113
2119
2129
2142
2157
2157
2136
2116
2100
2087
2080
2073
2078
2088
2084
2073
2058
2049
2042
2041
2049
2066
2080
2085
2071
2050
2031
2026
2034
2050
2043
2015
1987
1982
1985
1987
1989
1992
1989
1969
1951
1962
1988
2019
2037
2050
2053
2042
2023
2001
1968
1931
1929
1956
1978
1988
1988
1984
1985
1985
1985
1986
1995
2014
2012
2000
2000
2002
1992
1984
1979
1976
1972
1965
1973
1994
2003
2007
2008
2003
2006
2027
2060
2099
2128
2154
2191
2233
2266
2295
2337
2393
2462
2534
2600
2669
2713
2711
2677
2653
2619
2565
2478
2374
2280
2211
2166
2146
2124
2104
2086
2062
2038
2022
2013
2012
2015
2016
2023
2030
2032
2032
2033
2035
2030
2024
2016
2006
1997
2000
2019
2035
2037
2029
2022
2025
2040
2061
2080
2082
2088
2096
2107
2122
2125
2105
2067
2023
1994
1981
1987
1991
1998
2005
2003
2001
2003
2003
2007
2009
2014
2011
1998
1991
1996
2008
2016
2019
2011
2007
2007
2019
2037
2051
2069
2090
2086
2060
2032
2022
2019
2027
2032
2032
2034
2030
2030
2049
2071
2082
2080
2068
2051
2046
2041
2030
2039
2039
2039
2046
2056
2063
2074
2073
2070
2071
2070
2068
2061
2059
2064
2063
2054
2045
2048
2055
2068
2078
2080
2079
2080
2079
2077
2082
2083
2079
2078
2084
2088
2099
2121
2130
2126
2116
2106
2108
2101
2075
2057
2061
2070
2069
2057
2054
2062
2063
2061
2060
2068
2075
2088
2094
2098
2101
2093
2081
2068
2074
2091
2105
2102
2095
2096
2096
2090
2079
2067
2071
2092
2116
2123
2113
2093
2081
2082
2090
2095
2091
2092
2099
2114
2128
2141
2154
2161
2157
2138
2115
2108
2107
2103
2102
2105
2119
2132
2139
2144
2150
2146
2149
2159
2164
2169
2179
2179
2178
2184
2188
2194
2207
2225
2224
2206
2201
2209
2211
2214
2224
2228
2215
2190
2173
2165
2166
2179
2179
2194
2200
2189
2182
2190
2199
2202
2204
2211
2214
2199
2180
2168
2157
2152
2153
2166
2188
2201
2200
2196
2196
2194
2186
2180
2177
2169
2162
2158
2161
2158
2155
2152
2147
2148
2148
2150
2154
2153
2135
2112
2103
2116
2119
2119
2119
2121
2125
2127
2127
2124
2119
2110
2096
2090
2096
2105
2111
2110
2100
2081
2066
2061
2061
2067
2066
2059
2055
2041
2018
1989
1969
1962
1966
1972
1978
1982
1986
1986
1992
1998
1992
1983
1975
1973
1977
1977
1973
1974
1965
1950
1949
1955
1955
1956
1970
1984
1994
2006
2024
2032
2033
2035
2034
2031
2031
2033
2032
2025
2007
1990
1988
1997
2007
2014
2015
2004
1991
1984
1985
1986
1984
1979
1985
1996
2008
2014
2027
2033
2023
2009
1996
1986
1982
1980
1986
1994
2005
1998
1983
1976
1983
1994
2000
2001
2006
2011
2014
2011
2008
2015
2029
2037
2038
2040
2044
2044
2034
2015
1995
1985
1986
1993
1988
1985
1993
2005
2013
2008
1992
1974
1993
2022
2039
2043
2044
2046
2040
2022
2006
2005
1995
1986
1996
2024
2047
2060
2055
2048
2043
2039
2033
2038
2066
2091
2105
2115
2118
2089
2027
1984
1964
1954
1970
2002
2031
2052
2063
2059
2058
2043
2026
2012
2016
2035
2045
2053
2063
2061
2054
2054
2054
2049
2040
2034
2030
2029
2029
2036
2048
2047
2032
2019
2029
2050
2068
2079
2080
2073
2061
2048
2040
2035
2039
2046
2041
2030
2022
2016
2017
2022
2020
2019
2021
2027
2029
2025
2022
2016
2020
2034
2061
2092
2102
2093
2084
2091
2088
2063
2039
2031
2041
2050
2051
2059
2063
2062
2057
2054
2048
2038
2028
2036
2039
2038
2035
2035
2035
2039
2047
2047
2036
2024
2017
2016
2020
2021
2034
2050
2056
2059
2060
2057
2055
2070
2079
2065
2053
2059
2073
2086
2087
2086
2080
2073
2067
2067
2066
2072
2082
2093
2090
2076
2069
2079
2092
2086
2088
2094
2103
2103
2097
2083
2061
2033
2018
2012
2026
2048
2062
2064
2061
2065
2061
2056
2048
2042
2043
2048
2049
2050
2058
2063
2069
2075
2077
2077
2074
2065
2058
2049
2048
2065
2070
2062
2072
2095
2112
2104
2082
2070
2072
2074
2074
2081
2087
2091
2088
2083
2093
2107
2108
2104
2099
2098
2094
2084
2075
2075
2085
2103
2108
2100
2082
2068
2058
2042
2034
2050
2068
2086
2107
2128
2131
2123
2108
2088
2072
2075
2091
2097
2113
2119
2121
2138
2138
2120
2096
2079
2070
2072
2091
2103
2107
2110
2107
2102
2103
2101
2102
2109
2115
2120
2110
2101
2101
2098
2092
2094
2108
2122
2120
2109
2088
2071
2066
2079
2103
2118
2126
2123
2119
2116
2107
2096
2090
2082
2073
2076
2091
2108
2109
2096
2082
2076
2083
2098
2112
2117
2111
2111
2118
2115
2103
2088
2077
2086
2093
2097
2109
2126
2121
2099
2080
2070
2070
2077
2087
2093
2097
2098
2103
2108
2120
2128
2119
2103
2100
2096
2091
2090
2103
2119
2123
2136
2133
2115
2103
2099
2103
2110
2123
2140
2152
2145
2135
2123
2111
2095
2092
2107
2123
2130
2131
2136
2150
2152
2150
2148
2150
2168
2187
2193
2188
2179
2162
2148
2143
2128
2117
2107
2114
2132
2150
2168
2171
2150
2131
2131
2134
2133
2131
2123
2117
2113
2105
2100
2107
2117
2127
2125
2116
2120
2117
2115
2114
2121
2127
2127
2130
2132
2123
2112
2106
2112
2103
2083
2073
2078
2089
2091
2083
2077
2073
2073
2074
2075
2072
2065
2068
2082
2097
2098
2090
2079
2063
2049
2044
2055
2063
2076
2086
2087
2096
2100
2100
2091
2083
2076
2081
2098
2108
2108
2107
2106
2101
2081
2057
2040
2037
2053
2069
2080
2088
2094
2080
2056
2041
2051
2048
2020
1998
1994
1996
1995
1989
1990
2013
2035
2053
2076
2099
2127
2152
2173
2201
2236
2281
2322
2354
2377
2414
2475
2540
2596
2639
2665
2675
2656
2612
2565
2524
2482
2433
2367
2302
2257
2222
2185
2149
2121
2103
2082
2056
2029
2003
1995
1999
2011
2021
2029
2033
2041
2054
2065
2068
2068
2059
2030
2003
1992
2004
2020
2033
2033
2020
2008
2009
2017
2019
2018
2022
2027
2028
2029
2024
2021
2028
2032
2032
2031
2027
2019
2018
2021
2024
2032
2040
2047
2056
2059
2054
2044
2040
2050
2060
2053
2039
2041
2043
2047
2047
2044
2030
2008
1995
1986
1976
1970
1995
2022
2041
2056
2068
2079
2087
2083
2070
2063
2059
2055
2066
2082
2090
2089
2076
2059
2046
2044
2048
2051
2063
2076
2077
2069
2060
2057
2053
2047
2041
2038
2035
2036
2044
2051
2055
2064
2073
2081
2088
2088
2085
2087
2087
2078
2073
2073
2077
2090
2111
2124
2118
2098
2066
2042
2030
2023
2029
2051
2066
2070
2059
2049
2047
2050
2054
2061
2076
2092
2099
2097
2091
2095
2111
2125
2122
2110
2102
2090
2075
2063
2063
2079
2106
2125
2137
2141
2138
2124
2106
2101
2114
2128
2128
2122
2114
2113
2107
2114
2121
2140
2152
2156
2153
2148
2150
2149
2152
2171
2192
2202
2187
2159
2136
2131
2138
2149
2163
2180
2189
2186
2176
2173
2179
2175
2169
2167
2166
2169
2177
2186
2200
2217
2228
2231
2242
2255
2267
2243
2210
2189
2180
2181
2188
2194
2198
2195
2191
2183
2174
2163
2157
2169
2183
2200
2204
2204
2207
2203
2190
2189
2201
2200
2210
2220
2217
2203
2191
2190
2189
2195
2204
2209
2208
2200
2185
2163
2169
2182
2172
2157
2157
2167
2164
2158
2145
2131
2131
2136
2140
2149
2160
2164
2158
2161
2169
2163
2142
2124
2110
2097
2085
2085
2096
2102
2100
2100
2108
2103
2091
2087
2076
2070
2078
2079
2063
2043
2036
2033
2050
2077
2079
2086
2099
2101
2087
2065
2055
2054
2052
2055
2048
2041
2039
2040
2047
2058
2063
2065
2058
2045
2043
2044
2038
2034
2039
2051
2057
2049
2030
2010
2004
2004
2008
2031
2053
2068
2072
2076
2086
2072
2043
2011
1993
1998
2016
2022
2027
2032
2035
2039
2045
2055
2067
2070
2069
2069
2057
2035
2021
2027
2039
2044
2043
2041
2040
2042
2049
2055
2068
2067
2057
2046
2034
2026
2031
2054
2075
2079
2074
2065
2061
2062
2067
2083
2100
2120
2133
2121
2086
2044
2013
2008
2018
2033
2035
2028
2021
2014
2005
2020
2046
2077
2093
2105
2108
2096
2074
2061
2051
2041
2047
2061
2070
2072
2069
2064
2066
2068
2078
2094
2106
2095
2078
2071
2067
2058
2054
2046
2054
2066
2066
2062
2067
2079
2079
2070
2067
2064
2055
2040
2035
2047
2068
2074
2075
2081
2088
2096
2098
2094
2081
2070
2055
2039
2032
2034
2036
2041
2045
2055
2055
2048
2042
2053
2061
2070
2073
2065
2062
2057
2040
2033
2041
2048
2046
2037
2033
2030
2037
2052
2059
2063
2060
2047
2039
2041
2044
2047
2039
2030
2038
2037
2024
2021
2027
2034
2048
2058
2062
2063
2066
2063
2059
2054
2042
2022
2002
2004
2024
2035
2046
2060
2048
2027
2008
2016
2022
2014
2011
2019
2039
2056
2053
2038
2028
2026
2025
2022
2019
2018
2019
2015
2007
2009
2020
2032
2033
2028
2023
2016
2012
2013
2016
2023
2026
2032
2045
2062
2075
2063
2047
2030
2023
2019
2022
2024
2042
2047
2045
2034
2015
2006
2011
2015
2019
2019
2014
2011
2017
2029
2041
2050
2050
2045
2040
2045
2045
2044
2040
2038
2032
2031
2036
2042
2044
2054
2070
2073
2049
2011
1994
1993
1996
1994
2001
2015
2025
2025
2024
2024
2010
1992
1979
1994
2016
2039
2050
2049
2045
2037
2034
2037
2029
2016
2014
2023
2037
2047
2051
2046
2035
2023
2018
2007
1987
1972
1979
1982
1986
1991
2003
2011
2012
2011
2012
2015
2007
1995
1991
1987
1984
1986
1998
2019
2034
2030
2020
2003
1984
1976
1975
1979
1994
2019
2047
2054
2044
2035
2033
2038
2037
2041
2034
2018
2031
2058
2068
2065
2056
2054
2046
2033
2025
2024
2024
2034
2056
2080
2098
2122
2144
2132
2096
2054
2024
2020
2023
2023
2027
2035
2056
2078
2079
2074
2062
2050
2035
2033
2037
2037
2036
2035
2043
2063
2083
2090
2082
2067
2059
2056
2044
2046
2048
2045
2049
2059
2070
2082
2095
2096
2091
2082
2081
2087
2094
2094
2095
2103
2105
2103
2099
2098
2100
2106
2118
2133
2140
2143
2151
2156
2149
2133
2114
2100
2103
2104
2103
2118
2116
2110
2112
2124
2137
2143
2140
2141
2149
2151
2149
2159
2181
2196
2189
2172
2172
2173
2158
2141
2125
2116
2126
2141
2134
2132
2134
2128
2117
2122
2138
2135
2118
2103
2103
2110
2118
2126
2131
2136
2138
2122
2099
2078
2070
2070
2068
2070
2079
2092
2099
2092
2079
2078
2096
2112
2104
2089
2078
2073
2072
2075
2087
2097
2106
2106
2096
2084
2086
2083
2077
2076
2079
2080
2073
2085
2110
2130
2125
2094
2049
2021
2023
2044
2068
2072
2065
2058
2058
2068
2076
2075
2075
2077
2078
2080
2078
2077
2083
2099
2104
2089
2068
2047
2030
2032
2042
2041
2034
2030
2027
2026
2027
2029
2042
2052
2068
2097
2125
2146
2173
2212
2249
2290
2334
2379
2415
2463
2513
2558
2604
2633
2633
2608
2575
2540
2505
2459
2399
2337
2274
2220
2180
2161
2142
2113
2072
2034
2000
1970
1962
1955
1942
1937
1951
1980
2013
2026
2022
2015
2010
2022
2028
2022
2020
2028
2034
2031
2014
2000
1991
1979
1969
1961
1957
1967
1992
2011
2017
2011
1997
1987
1983
1976
1979
1983
1985
1986
1986
1992
1999
2008
2020
2037
2044
2029
2000
1978
1975
1988
2006
2008
1999
1987
1989
1995
1993
2003
2007
2011
2012
2001
1995
2001
2018
2023
2021
2021
2030
2050
2061
2066
2064
2067
2075
2077
2070
2058
2061
2077
2076
2053
2019
2001
1997
2007
2018
2017
2010
2010
2023
2042
2060
2059
2052
2049
2050
2058
2059
2054
2048
2046
2044
2040
2044
2054
2056
2050
2051
2059
2064
2060
2047
2040
2052
2063
2060
2055
2050
2057
2068
2069
2068
2057
2046
2049
2062
2084
2095
2076
2051
2038
2041
2047
2049
2050
2066
2076
2075
2072
2076
2096
2114
2124
2128
2114
2091
2079
2085
2092
2102
2109
2111
2114
2104
2096
2084
2063
2053
2060
2079
2101
2121
2132
2127
2116
2107
2104
2112
2126
2146
2144
2139
2134
2124
2116
2115
2130
2141
2140
2129
2123
2134
2140
2148
2146
2133
2130
2143
2155
2161
2169
2178
2188
2194
2194
2196
2193
2192
2196
2206
2210
2204
2189
2171
2175
2190
2199
2206
2207
2207
2210
2216
2208
2188
2171
2171
2179
2183
2192
2197
2195
2189
2190
2199
2211
2216
2223
2226
2223
2214
2202
2192
2181
2172
2175
2190
2198
2184
2166
2166
2181
2194
2193
2180
2169
2162
2155
2167
2180
2181
2174
2169
2165
2174
2188
2189
2177
2167
2158
2146
2140
2135
2134
2143
2157
2167
2168
2173
2187
2183
2156
2112
2086
2089
2094
2100
2088
2066
2052
2058
2086
2108
2112
2129
2140
2123
2104
2086
2078
2079
2093
2109
2117
2116
2113
2111
2098
2077
2055
2045
2048
2059
2066
2072
2079
2079
2072
2068
2065
2064
2063
2057
2053
2060
2077
2085
2102
2120
2125
2122
2114
2119
2125
2121
2109
2106
2123
2134
2130
2127
2126
2126
2140
2141
2140
2140
2123
2104
2100
2116
2136
2147
2135
2120
2119
2129
2141
2150
2165
2163
2156
2171
2187
2196
2205
2200
2185
2173
2170
2171
2175
2171
2162
2149
2137
2129
2135
2148
2145
2150
2160
2173
2179
2178
2171
2165
2159
2159
2168
2172
2172
2167
2156
2163
2183
2185
2179
2171
2164
2157
2156
2148
2147
2154
2160
2162
2169
2177
2182
2184
2178
2167
2180
2196
2212
2212
2192
2169
2158
2157
2158
2169
2182
2202
2210
2212
2212
2205
2190
2174
2172
2182
2193
2194
2190
2193
2193
2198
2201
2184
2156
2155
2146
2117
2107
2120
2128
2120
2127
2142
2152
2162
2161
2166
2169
2163
2161
2159
2155
2161
2171
2180
2183
2184
2190
2182
2169
2172
2178
2172
2168
2165
2158
2158
2179
2195
2195
2200
2201
2201
2205
2207
2193
2181
2191
2210
2222
2217
2211
2209
2204
2203
2204
2209
2211
2228
2244
2235
2214
2193
2182
2169
2152
2147
2147
2156
2166
2173
2192
2215
2228
2217
2197
2179
2165
2158
2161
2165
2177
2192
2208
2213
2221
2230
2230
2226
2206
2176
2167
2166
2172
2172
2167
2163
2165
2169
2177
2179
2171
2164
2157
2154
2150
2152
2171
2190
2204
2200
2187
2176
2188
2204
2205
2190
2163
2148
2145
2160
2170
2163
2145
2138
2137
2127
2112
2098
2096
2102
2105
2092
2085
2083
2086
2090
2087
2061
2028
2023
2035
2054
2075
2078
2067
2057
2051
2052
2064
2063
2063
2073
2077
2068
2063
2066
2078
2078
2073
2074
2067
2048
2024
2002
1988
1974
1973
1981
1983
1986
1987
1988
1995
2011
2028
2035
2026
2006
1990
1987
2005
2020
2014
2005
1996
2000
2011
2012
2004
2000
2002
1995
1991
1985
1979
1977
1978
1982
1981
1974
1975
1978
1978
1971
1977
1975
1975
1972
1970
1979
1987
1994
1994
1990
1990
2013
2039
2043
2038
2042
2054
2043
2010
1994
1995
1997
1998
2004
2006
2005
1996
1984
1992
2003
2020
2037
2041
2035
2018
2000
1991
2000
2007
2007
2011
2023
2026
2019
2019
2021
2017
1998
1974
1957
1943
1930
1941
1968
1994
2003
1997
1987
1983
1978
1975
1975
1968
1965
1969
1964
1954
1951
1955
1967
1968
1951
1922
1921
1941
1950
1957
1966
1979
1984
1985
1986
1985
1987
1997
1999
1992
1973
1962
1958
1958
1958
1963
1973
1967
1958
1973
1996
2015
2006
1997
2008
2008
2001
1999
2001
2003
2004
2023
2041
2041
2034
2019
2004
1992
1995
1998
1999
2006
1997
1983
1977
1985
1996
2000
2000
1998
2003
2008
2015
2019
2023
2026
2029
2034
2038
2043
2047
2039
2025
2013
2016
2018
2018
2015
2017
2016
2014
2026
2042
2037
2021
2019
2024
2034
2052
2076
2064
2044
2039
2033
2032
2033
2031
2031
2052
2077
2078
2072
2065
2057
2063
2079
2092
2085
2067
2063
2081
2082
2068
2071
2091
2081
2059
2061
2092
2124
2147
2172
2209
2257
2307
2354
2403
2444
2483
2528
2574
2624
2663
2664
2634
2594
2548
2507
2466
2424
2370
2319
2274
2240
2212
2186
2163
2147
2127
2107
2092
2063
2039
2042
2066
2091
2095
2087
2088
2095
2091
2075
2064
2061
2052
2045
2049
2055
2051
2047
2064
2080
2087
2090
2090
2086
2084
2090
2099
2107
2123
2143
2137
2124
2104
2091
2083
2097
2117
2134
2148
2167
2185
2192
2166
2136
2115
2108
2107
2093
2077
2077
2098
2120
2138
2150
2175
2205
2218
2216
2195
2159
2137
2127
2107
2094
2089
2110
2137
2158
2178
2187
2172
2150
2134
2133
2137
2141
2145
2147
2147
2137
2138
2140
2134
2142
2165
2187
2196
2183
2173
2166
2161
2153
2134
2114
2104
2109
2120
2134
2141
2136
2127
2125
2138
2153
2160
2169
2186
2199
2195
2184
2169
2159
2154
2154
2152
2144
2139
2155
2189
2210
2197
2178
2169
2173
2182
2180
2170
2160
2161
2169
2168
2171
2168
2161
2154
2153
2168
2176
2170
2163
2166
2185
2191
2186
2186
2195
2210
2230
2227
2200
2172
2159
2148
2152
2179
2208
2220
2227
2227
2216
2200
2193
2198
2203
2204
2209
2216
2207
2190
2172
2163
2160
2162
2159
2158
2158
2174
2199
2220
2237
2254
2246
2242
2247
2250
2239
2220
2206
2210
2222
2230
2233
2240
2234
2232
2237
2243
2242
2234
2230
2243
2258
2265
2269
2265
2267
2265
2261
2258
2238
2215
2207
2212
2224
2225
2219
2224
2240
2253
2246
2222
2205
2201
2206
2203
2203
2210
2225
2250
2260
2251
2231
2201
2182
2189
2203
2215
2210
2182
2158
2137
2114
2088
2060
2033
2009
2001
2003
1998
1986
1979
1993
2002
1999
1983
1971
1974
1975
1982
2007
2023
2020
2016
2024
2028
2009
1964
1931
1910
1904
1909
1916
1927
1933
1935
1941
1946
1951
1950
1945
1942
1943
1934
1912
1892
1886
1881
1879
1880
1880
1878
1884
1905
1916
1915
1910
1901
1901
1903
1895
1879
1869
1875
1891
1897
1888
1876
1863
1865
1879
1881
1878
1870
1868
1881
1892
1873
1847
1836
1835
1842
1855
1864
1862
1860
1855
1860
1885
1908
1928
1929
1921
1908
1889
1875
1875
1877
1877
1877
1877
1889
1909
1918
1914
1913
1917
1919
1918
1921
1922
1919
1923
1933
1944
1941
1938
1930
1914
1898
1907
1936
1948
1944
1934
1926
1929
1937
1950
1956
1969
1984
2006
2013
2007
2009
2006
1987
1950
1921
1921
1925
1935
1953
1964
1967
1966
1969
1970
1971
1973
1971
1963
1964
1976
1975
1981
1992
2008
2024
2036
2046
2049
2042
2023
2006
2004
1999
1990
1993
2008
2025
2030
2034
2047
2052
2031
2017
2017
2024
2034
2039
2045
2044
2045
2038
2037
2032
2034
2037
2034
2056
2081
2095
2091
2074
2059
2042
2029
2017
2011
2023
2044
2066
2079
2076
2063
2046
2034
2030
2037
2043
2046
2049
2043
2050
2063
2065
2064
2067
2086
2100
2090
2076
2066
2058
2048
2029
2017
2015
2053
2089
2079
2051
2027
2010
2011
2021
2027
2036
2049
2055
2063
2064
2080
2092
2084
2060
2037
2030
2044
2063
2078
2088
2085
2073
2051
2036
2023
2031
2050
2069
2084
2086
2076
2063
2058
2063
2061
2065
2078
2079
2077
2073
2083
2085
2081
2082
2091
2099
2093
2078
2068
2071
2085
2093
2090
2090
2086
2074
2074
2070
2064
2062
2060
2058
2064
2073
2074
2069
2058
2057
2055
2046
2049
2063
2080
2087
2100
2115
2113
2101
2094
2092
2095
2102
2108
2113
2102
2086
2066
2055
2070
2085
2085
2076
2067
2068
2070
2080
2088
2089
2089
2090
2092
2094
2105
2118
2132
2127
2105
2092
2088
2085
2085
2083
2077
2091
2107
2118
2124
2113
2102
2104
2115
2112
2105
2107
2114
2108
2093
2079
2075
2074
2081
2079
2082
2090
2102
2112
2115
2103
2090
2073
2053
2044
2043
2062
2091
2124
2138
2123
2089
2054
2041
2059
2084
2102
2114
2121
2120
2112
2105
2112
2123
2124
2136
2142
2137
2125
2101
2080
2083
2102
2121
2141
2165
2172
2160
2146
2138
2129
2128
2136
2143
2145
2145
2151
2150
2143
2142
2143
2146
2155
2167
2179
2176
2171
2163
2151
2156
2164
2172
2181
2190
2191
2178
2144
2129
2127
2126
2132
2142
2148
2151
2157
2156
2164
2164
2162
2158
2143
2120
2105
2108
2114
2122
2124
2113
2103
2089
2079
2086
2095
2105
2108
2108
2107
2099
2092
2092
2097
2104
2115
2128
2121
2102
2091
2081
2067
2056
2055
2062
2066
2067
2072
2072
2070
2072
2072
2086
2095
2092
2106
2134
2155
2161
2160
2145
2117
2091
2082
2074
2062
2058
2058
2060
2050
2038
2039
2050
2060
2059
2052
2035
2020
2017
2020
2028
2045
2058
2065
2059
2050
2044
2059
2085
2121
2159
2197
2233
2268
2312
2355
2399
2441
2482
2531
2583
2634
2687
2714
2723
2700
2664
2607
2554
2511
2459
2403
2353
2313
2284
2257
2210
2132
2064
2025
2011
2008
2008
2010
2023
2037
2054
2067
2064
2054
2037
2021
2016
2016
2014
2011
2016
2016
2013
2005
2008
2016
2020
2021
2018
2013
2012
2014
2012
2005
2000
2006
2022
2034
2042
2044
2053
2063
2056
2043
2031
2024
2036
2047
2044
2030
2014
2013
2016
2020
2030
2050
2070
2072
2058
2049
2046
2051
2051
2044
2027
2021
2023
2013
2008
2017
2032
2044
2045
2041
2039
2046
2057
2067
2073
2065
2048
2033
2032
2031
2032
2030
2037
2046
2040
2035
2048
2061
2073
2087
2091
2066
2035
2027
2032
2027
2024
2029
2027
2029
2042
2054
2058
2051
2051
2053
2053
2051
2059
2063
2067
2076
2070
2041
2029
2045
2052
2050
2060
2081
2099
2099
2090
2075
2057
2046
2055
2064
2066
2065
2060
2058
2059
2066
2066
2056
2052
2049
2055
2071
2084
2096
2109
2106
2098
2107
2111
2110
2120
2136
2143
2124
2104
2087
2075
2072
2078
2088
2095
2089
2093
2108
2120
2115
2098
2092
2093
2107
2119
2122
2122
2121
2119
2118
2111
2113
2125
2133
2134
2133
2128
2139
2143
2132
2126
2139
2150
2158
2165
2174
2177
2167
2154
2154
2157
2166
2178
2195
2197
2185
2165
2159
2159
2165
2179
2183
2179
2174
2182
2206
2226
2228
2218
2211
2202
2184
2173
2168
2179
2197
2201
2192
2189
2195
2204
2205
2203
2198
2159
2118
2102
2108
2119
2128
2141
2150
2152
2147
2146
2149
2152
2157
2162
2161
2158
2150
2127
2100
2083
2081
2093
2099
2097
2086
2076
2077
2091
2101
2103
2112
2122
2118
2101
2079
2062
2052
2047
2051
2059
2065
2072
2087
2097
2085
2055
2031
2028
2034
2050
2065
2070
2075
2070
2055
2044
2035
2024
2016
2025
2049
2055
2035
2011
2002
2003
2003
1992
1979
1969
1965
1960
1960
1954
1952
1947
1940
1945
1959
1953
1924
1909
1911
1922
1939
1955
1957
1948
1943
1945
1943
1937
1935
1929
1925
1948
1967
1968
1974
1978
1980
1982
1981
1987
2002
1998
1971
1942
1936
1946
1956
1960
1965
1969
1971
1967
1972
1987
1987
1982
1988
1991
1983
1974
1978
1975
1955
1935
1929
1948
1970
1977
1975
1974
1972
1964
1958
1958
1946
1939
1944
1959
1973
1983
1988
1998
2003
2008
2010
2002
1993
1978
1971
1965
1963
1960
1951
1950
1963
1972
1976
1993
2017
2032
2041
2043
2033
2023
2026
2038
2052
2039
2018
2010
2020
2015
2012
2015
2020
2012
2006
1994
1980
1980
1987
1993
2004
2006
2004
1999
1991
1987
2001
2013
2025
2035
2036
2041
2039
2046
2047
2050
2050
2032
2011
1993
1985
1985
1992
2012
2035
2046
2050
2048
2043
2045
2045
2028
2011
2012
2024
2031
2038
2052
2073
2082
2079
2072
2062
2048
2028
1992
1991
2006
2014
2014
2023
2043
2058
2065
2062
2055
2040
2011
1984
1959
1940
1927
1923
1929
1942
1956
1959
1950
1934
1930
1944
1954
1954
1940
1923
1907
1913
1923
1933
1940
1948
1955
1958
1976
1978
1954
1925
1918
1933
1951
1949
1946
1947
1956
1952
1946
1940
1929
1933
1940
1948
1958
1961
1955
1952
1952
1952
1944
1937
1955
1973
1977
1985
1999
2003
2003
2015
2024
2017
2010
1983
1960
1955
1972
1987
1992
2003
2020
2030
2023
2003
1980
1977
1992
2009
2024
2024
2016
2001
1993
1989
1995
2013
2028
2040
2052
2045
2036
2037
2037
2038
2051
2054
2049
2042
2035
2050
2084
2095
2075
2046
2025
2033
2034
2022
2013
2035
2064
2080
2090
2104
2126
2126
2097
2067
2048
2044
2047
2053
2053
2055
2070
2092
2114
2113
2099
2079
2086
2119
2120
2108
2103
2096
2086
2068
2047
2036
2040
2043
2044
2044
2054
2068
2083
2094
2090
2070
2056
2048
2030
2021
2032
2042
2034
2026
2037
2054
2062
2066
2071
2078
2081
2076
2072
2068
2063
2073
2093
2115
2132
2135
2114
2070
2041
2011
1979
1974
1998
2024
2045
2048
2043
2046
2044
2037
2032
2036
2040
2042
2053
2066
2079
2087
2090
2084
2071
2060
2051
2038
2036
2053
2062
2057
2049
2044
2039
2034
2029
2043
2075
2104
2135
2165
2207
2256
2304
2346
2380
2418
2479
2550
2622
2677
2714
2714
2662
2593
2538
2514
2494
2460
2408
2337
2261
2205
2158
2110
2066
2029
2020
2014
2008
2011
2021
2035
2037
2036
2046
2052
2050
2045
2036
2028
2034
2046
2058
2056
2057
2072
2076
2056
2038
2033
2053
2064
2063
2066
2067
2072
2078
2086
2089
2094
2101
2106
2105
2083
2056
2050
2054
2067
2073
2072
2083
2104
2125
2131
2130
2129
2109
2079
2060
2051
2050
2052
2058
2064
2068
2068
2075
2087
2100
2114
2117
2112
2105
2103
2106
2120
2126
2114
2100
2082
2066
2056
2052
2065
2091
2117
2123
2117
2118
2124
2119
2112
2108
2102
2097
2104
2125
2151
2158
2140
2118
2102
2086
2073
2070
2068
2068
2079
2107
2130
2137
2140
2152
2167
2159
2122
2080
2053
2048
2051
2056
2069
2079
2087
2107
2124
2128
2118
2104
2096
2091
2091
2102
2116
2120
2119
2126
2125
2125
2126
2122
2114
2100
2089
2099
2116
2124
2117
2112
2127
2144
2155
2147
2143
2143
2140
2133
2125
2131
2133
2126
2127
2126
2113
2107
2124
2152
2157
2153
2151
2147
2141
2135
2138
2153
2169
2185
2188
2175
2154
2145
2147
2146
2152
2163
2177
2185
2196
2207
2218
2225
2214
2196
2187
2185
2192
2200
2206
2218
2244
2270
2276
2258
2236
2227
2227
2237
2242
2243
2215
2187
2173
2180
2196
2217
2245
2272
2286
2279
2265
2241
2232
2229
2232
2237
2245
2255
2261
2255
2250
2257
2260
2253
2248
2244
2241
2225
2209
2189
2174
2191
2209
2208
2212
2222
2238
2252
2252
2249
2238
2220
2205
2194
2187
2179
2174
2172
2168
2164
2161
2164
2165
2166
2163
2162
2163
2167
2177
2172
2165
2160
2157
2158
2176
2192
2177
2155
2139
2134
2130
2117
2100
2087
2071
2057
2050
2054
2060
2067
2073
2085
2079
2074
2092
2103
2096
2089
2085
2088
2085
2080
2074
2062
2052
2050
2051
2056
2064
2076
2088
2073
2056
2060
2063
2056
2055
2065
2083
2098
2098
2088
2082
2076
2066
2061
2069
2070
2056
2049
2050
2062
2071
2062
2048
2047
2053
2062
2058
2047
2031
2026
2041
2049
2049
2046
2044
2060
2068
2071
2063
2049
2032
2039
2068
2095
2100
2078
2071
2093
2106
2106
2116
2122
2120
2098
2067
2055
2069
2088
2088
2082
2085
2096
2085
2063
2045
2049
2059
2072
2093
2109
2122
2134
2138
2129
2117
2103
2100
2107
2108
2103
2098
2098
2109
2118
2114
2097
2078
2075
2083
2088
2089
2083
2077
2081
2111
2159
2200
2227
2243
2242
2218
2165
2101
2056
2035
2034
2039
2053
2063
2067
2066
2068
2079
2086
2092
2098
2099
2110
2133
2154
2151
2125
2107
2103
2106
2106
2103
2096
2096
2109
2113
2116
2123
2130
2139
2144
2155
2162
2163
2167
2162
2160
2160
2145
2125
2094
2066
2050
2056
2083
2100
2078
2041
2015
2001
2002
2011
2021
2030
2030
2030
2023
2011
2011
2020
2034
2053
2077
2104
2099
2070
2043
2030
2029
2034
2029
2033
2054
2057
2038
2024
2022
2020
2010
2003
2010
2022
2040
2053
2066
2079
2077
2078
2072
2066
2085
2103
2095
2067
2030
2005
2014
2034
2057
2075
2083
2087
2091
2105
2128
2144
2137
2117
2085
2060
2073
2094
2116
2136
2144
2108
2054
2034
2033
2044
2045
2052
2067
2086
2104
2115
2103
2088
2088
2085
2083
2099
2128
2146
2144
2138
2121
2097
2099
2114
2128
2126
2117
2116
2129
2143
2136
2127
2116
2098
2081
2076
2084
2109
2133
2148
2151
2152
2163
2174
2190
2195
2191
2184
2185
2199
2213
2201
2187
2195
2204
2202
2202
2205
2212
2212
2213
2221
2212
2213
2220
2218
2224
2225
2223
2230
2233
2228
2211
2200
2193
2183
2183
2195
2206
2212
2210
2206
2200
2189
2179
2192
2203
2194
2181
2166
2150
2144
2142
2148
2165
2182
2192
2198
2187
2164
2151
2161
2166
2165
2168
2173
2172
2170
2174
2177
2173
2169
2177
2193
2200
2185
2163
2141
2126
2118
2130
2154
2173
2191
2197
2187
2176
2187
2198
2203
2211
2211
2194
2179
2173
2176
2186
2200
2198
2179
2154
2135
2138
2134
2138
2152
2179
2200
2214
2209
2196
2189
2186
2183
2180
2176
2165
2165
2174
2180
2179
2162
2140
2121
2122
2134
2146
2171
2198
2219
2235
2253
2277
2310
2343
2366
2383
2406
2450
2500
2553
2609
2664
2706
2718
2702
2677
2649
2630
2608
2564
2510
2454
2404
2369
2339
2303
2273
2250
2229
2214
2207
2195
2189
2178
2161
2147
2145
2144
2139
2134
2132
2135
2134
2125
2113
2105
2113
2126
2144
2151
2141
2131
2131
2135
2134
2126
2124
2127
2137
2152
2171
2179
2148
2113
2098
2105
2112
2101
2088
2082
2094
2108
2126
2138
2142
2155
2163
2171
2180
2174
2150
2126
2115
2108
2104
2102
2104
2106
2108
2116
2114
2103
2084
2086
2100
2122
2144
2140
2125
2129
2129
2126
2128
2136
2159
2176
2147
2111
2089
2075
2074
2081
2098
2117
2144
2169
2173
2168
2171
2173
2173
2169
2167
2174
2175
2179
2177
2164
2139
2105
2077
2069
2081
2089
2099
2111
2120
2131
2136
2145
2153
2163
2161
2147
2136
2131
2122
2119
2131
2146
2153
2150
2150
2147
2138
2116
2095
2094
2105
2116
2126
2133
2138
2147
2150
2134
2114
2107
2118
2126
2118
2111
2103
2108
2122
2131
2130
2131
2141
2141
2142
2143
2146
2154
2171
2174
2168
2169
2171
2166
2159
2167
2187
2206
2211
2197
2184
2168
2150
2120
2128
2163
2192
2217
2231
2243
2245
2226
2192
2167
2153
2152
2163
2174
2188
2193
2195
2198
2205
2219
2231
2242
2238
2236
2240
2226
2210
2206
2205
2205
2214
2223
2233
2246
2257
2252
2245
2241
2244
2254
2272
2286
2281
2273
2253
2220
2188
2176
2201
2222
2222
2222
2230
2237
2244
2253
2264
2258
2254
2259
2261
2235
2209
2199
2196
2202
2212
2227
2249
2266
2277
2303
2320
2297
2239
2185
2157
2144
2125
2118
2124
2132
2138
2149
2149
2139
2133
2139
2133
2126
2138
2145
2136
2140
2150
2161
2164
2160
2151
2133
2124
2121
2107
2087
2082
2104
2124
2134
2139
2143
2140
2133
2127
2121
2123
2132
2117
2092
2091
2101
2097
2074
2056
2049
2057
2069
2077
2078
2076
2073
2069
2066
2062
2052
2047
2046
2048
2056
2067
2072
2063
2047
2038
2032
2036
2048
2053
2046
2037
2041
2061
2085
2096
2078
2062
2058
2064
2063
2061
2060
2060
2068
2081
2098
2111
2107
2084
2072
2078
2095
2095
2083
2080
2077
2079
2081
2078
2077
2077
2071
2058
2055
2062
2065
2060
2052
2050
2064
2080
2081
2073
2092
2108
2099
2087
2082
2074
2068
2067
2071
2066
2057
2068
2085
2114
2135
2121
2106
2102
2106
2107
2105
2089
2065
2045
2044
2049
2052
2056
2064
2072
2067
2057
2052
2060
2070
2079
2089
2089
2083
2079
2082
2078
2076
2086
2095
2103
2104
2100
2104
2100
2094
2095
2107
2124
2122
2110
2095
2083
2078
2078
2075
2082
2096
2100
2084
2066
2054
2057
2066
2065
2070
2084
2102
2109
2105
2092
2083
2076
2085
2107
2107
2086
2063
2054
2063
2067
2072
2077
2086
2092
2092
2095
2103
2100
2080
2057
2044
2038
2036
2043
2087
2126
2152
2172
2189
2199
2188
2160
2140
2131
2133
2140
2150
2153
2143
2145
2160
2168
2168
2162
2148
2138
2136
2142
2144
2145
2144
2148
2149
2142
2136
2142
2152
2157
2155
2161
2165
2167
2161
2159
2147
2156
2174
2179
2183
2191
2179
2159
2147
2145
2155
2165
2161
2160
2161
2157
2155
2155
2159
2161
2169
2165
2157
2158
2154
2137
2114
2102
2096
2103
2120
2145
2163
2169
2169
2163
2153
2147
2151
2156
2167
2178
2180
2166
2143
2131
2127
2121
2127
2133
2123
2115
2125
2136
2148
2143
2158
2185
2210
2230
2232
2219
2197
2178
2156
2130
2107
2115
2144
2167
2173
2168
2177
2193
2197
2193
2193
2189
2194
2197
2190
2180
2177
2172
2172
2179
2181
2175
2180
2181
2175
2162
2151
2152
2162
2169
2184
2196
2198
2189
2164
2141
2133
2136
2143
2154
2160
2155
2143
2130
2123
2115
2109
2106
2099
2107
2121
2129
2145
2154
2151
2144
2146
2153
2146
2128
2113
2118
2111
2096
2081
2073
2095
2118
2130
2132
2126
2117
2116
2118
2127
2144
2135
2124
2120
2119
2120
2130
2133
2122
2095
2080
2071
2067
2063
2054
2048
2059
2088
2118
2134
2127
2129
2140
2130
2103
2083
2076
2080
2086
2094
2105
2109
2102
2106
2122
2133
2117
2088
2076
2061
2044
2033
2026
2017
2017
2018
2028
2042
2061
2078
2102
2135
2166
2201
2252
2306
2349
2385
2421
2456
2493
2536
2577
2615
2648
2666
2664
2638
2598
2552
2512
2476
2434
2371
2304
2244
2210
2183
2152
2113
2081
2061
2047
2043
2051
2054
2062
2080
2096
2114
2122
2101
2056
2027
2017
2013
2013
2017
2024
2023
2022
2031
2023
2000
1983
1972
1990
2005
2008
2009
2014
2027
2041
2049
2047
2060
2074
2070
2066
2053
2034
2025
2026
2033
2043
2053
2064
2078
2070
2052
2035
2026
2013
1987
1973
1984
1997
2009
2019
2017
2030
2051
2066
2065
2060
2049
2044
2050
2050
2042
2044
2057
2073
2085
2089
2079
2062
2049
2047
2047
2043
2050
2059
2070
2079
2082
2085
2081
2073
2085
2094
2090
2081
2072
2067
2061
2064
2070
2067
2064
2070
2084
2101
2116
2111
2106
2096
2092
2097
2108
2115
2102
2082
2077
2070
2050
2037
2038
2049
2059
2076
2090
2081
2066
2044
2047
2056
2063
2070
2074
2083
2088
2085
2084
2082
2073
2065
2065
2075
2072
2061
2058
2058
2077
2105
2122
2145
2170
2181
2166
2143
2125
2103
2085
2073
2084
2112
2137
2140
2131
2129
2126
2134
2159
2176
2166
2138
2122
2119
2119
2119
2118
2108
2102
2113
2123
2140
2172
2188
2171
2159
2150
2132
2122
2144
2170
2175
2169
2168
2167
2166
2170
2180
2188
2186
2178
2172
2173
2180
2176
2174
2172
2178
2181
2180
2181
2182
2194
2209
2221
2224
2215
2207
2192
2172
2155
2157
2163
2156
2149
2154
2162
2172
2182
2185
2179
2173
2159
2149
2160
2180
2184
2165
2150
2140
2138
2153
2168
2167
2164
2167
2171
2174
2179
2187
2192
2180
2178
2179
2163
2147
2127
2108
2105
2119
2127
2123
2120
2119
2108
2095
2094
2103
2116
2120
2111
2096
2086
2085
2089
2063
2037
2014
2003
2002
1997
1996
2005
2019
2031
2040
2049
2066
2068
2054
2027
1991
1951
1935
1941
1942
1951
1958
1955
1961
1971
1979
1976
1969
1969
1973
1983
1984
1988
1996
2015
2020
1997
1971
1980
1992
1969
1937
1933
1941
1946
1939
1935
1934
1936
1941
1949
1964
1976
1984
1986
1988
1993
1994
1982
1959
1940
1934
1950
1983
2011
2024
2020
2015
2006
1998
1994
1994
2005
2010
2008
2002
2001
2006
2004
2006
2012
2020
2024
2027
2043
2071
2088
2069
2038
2004
1982
1967
1966
1974
1986
2004
2024
2041
2044
2040
2036
2038
2028
2012
2004
2009
2012
2012
2014
2018
2028
2034
2044
2036
2027
2024
2042
2062
2058
2049
2033
2019
2007
2006
2024
2048
2064
2067
2054
2033
2021
2021
2012
2008
2007
2015
2033
2046
2045
2040
2038
2049
2065
2064
2061
2064
2063
2048
2029
2028
2039
2054
2067
2075
2074
2064
2057
2067
2085
2109
2124
2126
2118
2106
2108
2101
2069
2042
2051
2069
2078
2078
2054
2029
2021
2023
2038
2051
2058
2058
2050
2034
2019
2022
2031
2046
2064
2065
2056
2043
2036
2034
2031
2031
2030
2039
2040
2035
2027
2037
2043
2045
2043
2035
2035
2029
2015
2013
2030
2049
2067
2065
2066
2090
2112
2101
2083
2078
2084
2099
2110
2100
2081
2067
2065
2073
2074
2081
2085
2098
2126
2137
2104
2046
1998
1979
1993
2016
2041
2063
2078
2078
2084
2093
2105
2118
2119
2090
2059
2052
2052
2044
2043
2052
2067
2082
2093
2102
2090
2070
2061
2042
2022
2015
2008
2018
2044
2079
2110
2145
2177
2188
2186
2181
2172
2157
2139
2123
2115
2126
2138
2132
2116
2108
2097
2090
2102
2109
2102
2099
2101
2106
2111
2119
2139
2170
2178
2153
2139
2127
2116
2118
2132
2149
2151
2136
2132
2138
2150
2173
2192
2195
2188
2190
2198
2202
2205
2210
2209
2201
2196
2201
2206
2192
2172
2167
2177
2196
2198
2188
2188
2199
2202
2209
2217
2218
2211
2200
2182
2168
2160
2172
2186
2200
2219
2232
2246
2244
2227
2204
2198
2215
2237
2243
2245
2249
2245
2239
2246
2258
2273
2269
2248
2233
2236
2252
2257
2247
2242
2247
2248
2249
2254
2259
2259
2268
2285
2301
2305
2313
2322
2311
2289
2272
2275
2286
2294
2284
2274
2272
2270
2275
2277
2287
2299
2301
2293
2284
2274
2257
2254
2263
2276
2278
2281
2281
2273
2253
2232
2234
2244
2248
2249
2251
2244
2256
2248
2226
2221
2242
2265
2269
2260
2243
2218
2205
2208
2219
2231
2242
2249
2243
2230
2212
2196
2200
2212
2225
2233
2229
2219
2204
2184
2172
2177
2192
2202
2208
2217
2223
2221
2218
2209
2204
2213
2220
2222
2211
2196
2190
2184
2185
2200
2219
2226
2216
2190
2150
2111
2095
2101
2093
2082
2076
2067
2057
2051
2068
2092
2103
2097
2079
2057
2053
2067
2075
2069
2069
2071
2073
2083
2105
2138
2180
2215
2253
2286
2316
2347
2376
2409
2455
2522
2603
2670
2713
2720
2686
2631
2568
2524
2504
2464
2404
2341
2292
2248
2204
2161
2127
2093
2083
2095
2089
2070
2055
2045
2036
2038
2055
2069
2069
2060
2051
2044
2033
2014
2004
2015
2007
1993
1988
1996
1993
2007
2035
2041
2022
2008
2024
2046
2060
2051
2039
2035
2048
2060
2060
2058
2049
2041
2041
2051
2061
2051
2044
2061
2080
2095
2106
2102
2086
2075
2053
2050
2056
2068
2081
2098
2118
2098
2058
2018
1996
1993
2006
2019
2025
2020
2024
2032
2043
2048
2048
2059
2063
2052
2042
2037
2038
2041
2054
2064
2064
2074
2085
2095
2100
2094
2096
2074
2023
1990
1997
2024
2068
2107
2126
2123
2111
2104
2114
2121
2109
2083
2055
2037
2032
2038
2034
2035
2042
2050
2053
2049
2044
2049
2061
2071
2073
2062
2043
2040
2060
2090
2110
2107
2090
2085
2088
2085
2071
2063
2066
2071
2071
2082
2088
2090
2094
2093
2078
2074
2084
2095
2102
2102
2097
2096
2108
2115
2115
2103
2091
2077
2075
2084
2090
2098
2093
2079
2066
2052
2046
2060
2076
2090
2103
2122
2149
2169
2168
2149
2136
2130
2129
2136
2142
2150
2143
2134
2120
2106
2107
2115
2125
2136
2142
2156
2147
2140
2136
2126
2128
2128
2122
2118
2111
2107
2121
2151
2178
2192
2199
2205
2197
2171
2139
2124
2121
2110
2104
2112
2129
2143
2146
2148
2137
2124
2105
2095
2093
2101
2124
2146
2142
2124
2107
2099
2094
2093
2108
2128
2138
2118
2100
2075
2059
2045
2031
2036
2057
2076
2072
2062
2057
2066
2075
2081
2083
2073
2059
2053
2041
2028
2021
2014
2005
2004
2014
2032
2046
2056
2052
2031
1995
1964
1955
1972
1989
1991
1982
1972
1971
1965
1977
1988
1986
1973
1952
1941
1950
1962
1966
1966
1963
1957
1945
1926
1910
1918
1921
1904
1900
1909
1904
1903
1902
1898
1890
1887
1882
1887
1901
1916
1929
1922
1914
1909
1900
1882
1870
1881
1887
1886
1902
1927
1946
1941
1926
1912
1907
1910
1905
1893
1883
1891
1903
1916
1939
1955
1955
1944
1921
1889
1860
1849
1859
1875
1886
1897
1912
1925
1930
1929
1929
1928
1937
1945
1938
1909
1887
1899
1917
1921
1922
1929
1931
1927
1917
1897
1885
1895
1916
1935
1941
1945
1960
1985
1992
1963
1925
1896
1889
1902
1920
1930
1920
1908
1911
1922
1928
1928
1928
1944
1967
1987
1997
1986
1962
1958
1969
1988
1991
1985
1986
1982
1973
1961
1967
1986
2001
2007
2002
1993
1980
1971
1959
1954
1955
1965
1974
1985
1991
1996
2001
2000
2005
2006
2000
2011
2016
2007
1987
1969
1961
1953
1947
1943
1941
1946
1956
1957
1953
1949
1940
1934
1944
1958
1964
1967
1969
1981
1985
1975
1959
1945
1944
1942
1954
1965
1970
1948
1920
1904
1911
1935
1967
1980
1975
1977
1981
1986
1986
1987
1990
1979
1956
1945
1957
1969
1977
1977
1971
1972
1980
1979
1973
1960
1947
1947
1943
1928
1918
1923
1940
1955
1953
1940
1935
1932
1928
1928
1922
1910
1919
1930
1934
1929
1931
1947
1970
1995
2018
2034
2023
2003
1987
1978
1970
1966
1969
1969
1967
1963
1960
1962
1970
1973
1960
1950
1938
1927
1932
1940
1958
1976
1984
1978
1986
2000
2014
2013
2005
1998
1999
2001
1997
1984
1960
1936
1923
1920
1927
1935
1947
1957
1970
1978
1971
1954
1935
1921
1916
1926
1953
1977
1991
1985
1966
1947
1942
1961
1987
2014
2032
2023
2011
2019
2026
2019
2000
1968
1944
1932
1936
1955
1968
1974
1983
1999
2010
2014
2010
2009
2010
2004
1995
1989
1988
1993
2010
2035
2043
2040
2045
2040
2026
2020
2034
2042
2031
2026
2030
2021
2021
2039
2064
2083
2106
2124
2113
2085
2055
2041
2039
2042
2044
2051
2061
2066
2074
2080
2073
2070
2079
2088
2096
2089
2067
2044
2027
2010
2006
2004
2013
2021
2008
1993
1978
1967
1957
1946
1933
1925
1930
1941
1950
1948
1937
1921
1920
1934
1943
1951
1956
1964
1971
1993
1999
1974
1937
1913
1909
1922
1936
1942
1941
1952
1974
1983
1969
1958
1942
1923
1910
1904
1904
1908
1917
1924
1930
1945
1968
1985
1999
2000
1989
1970
1961
1947
1941
1948
1956
1955
1961
1977
1985
1987
1974
1956
1933
1916
1920
1944
1961
1953
1938
1924
1922
1925
1928
1935
1940
1954
1965
1975
1997
2027
2059
2096
2130
2156
2195
2241
2291
2332
2371
2416
2463
2513
2545
2541
2515
2477
2434
2394
2347
2302
2259
2201
2146
2106
2078
2058
2046
2030
2012
1981
1952
1930
1916
1913
1921
1927
1926
1932
1944
1956
1961
1956
1951
1946
1938
1929
1940
1958
1976
1985
1979
1969
1964
1974
1988
1982
1971
1954
1942
1927
1912
1910
1917
1927
1935
1933
1935
1938
1938
1940
1954
1973
1984
1987
1984
1980
1973
1975
1984
1976
1966
1960
1957
1951
1950
1944
1950
1954
1955
1962
1974
1989
1995
1992
1985
1975
1972
1976
1989
1998
1998
1992
1989
1974
1957
1943
1935
1928
1936
1956
1981
2004
2017
2027
2042
2036
2015
2002
1999
1998
1982
1977
1987
1985
1972
1975
1977
1973
1974
1984
1995
2008
2007
1991
1990
2002
2022
2031
2023
2009
2004
2008
2008
1997
1986
1976
1973
1979
1994
2014
2033
2033
2015
1995
1995
2010
2025
2024
2013
2012
2019
2030
2043
2052
2046
2036
2040
2054
2051
2033
2036
2059
2079
2079
2068
2053
2039
2039
2033
2023
2021
2015
2004
2004
2020
2021
2018
2015
2019
2034
2050
2057
2062
2055
2039
2027
2035
2055
2062
2053
2055
2069
2089
2109
2106
2083
2060
2057
2062
2071
2079
2086
2099
2110
2117
2110
2103
2112
2121
2140
2155
2153
2143
2118
2097
2101
2106
2099
2095
2095
2102
2112
2128
2145
2141
2127
2117
2112
2120
2129
2134
2136
2141
2142
2137
2131
2128
2117
2124
2144
2159
2160
2155
2138
2130
2136
2142
2131
2118
2119
2126
2134
2140
2132
2120
2106
2093
2090
2097
2111
2114
2118
2125
2132
2143
2147
2156
2168
2168
2149
2121
2095
2080
2082
2079
2079
2074
2060
2041
2023
2016
2014
2025
2026
2023
2026
2034
2048
2068
2075
2065
2053
2048
2054
2059
2043
2030
2038
2054
2067
2063
2052
2039
2033
2039
2051
2067
2075
2069
2058
2031
1992
1976
1978
1987
1992
1992
1981
1972
1966
1969
1984
1996
1999
1992
1981
1981
1988
1992
1992
2004
2023
2040
2053
2053
2040
2028
2037
2042
2021
1999
1992
1985
1977
1969
1953
1964
1974
1990
2008
2015
2012
2016
2022
2035
2034
2023
2016
2030
2037
2029
2012
2000
2000
2014
2038
2057
2060
2068
2085
2084
2070
2050
2032
2024
2012
2005
2011
2025
2040
2048
2045
2042
2050
2068
2077
2068
2044
2016
2007
2011
2011
2012
2025
2031
2034
2029
2035
2058
2075
2070
2065
2069
2070
2057
2042
2040
2048
2052
2056
2066
2064
2050
2035
2037
2046
2056
2072
2077
2062
2053
2052
2048
2044
2039
2044
2051
2048
2060
2073
2076
2088
2076
2032
1996
1984
1986
2005
2021
2030
2046
2068
2084
2088
2092
2092
2090
2093
2081
2044
2021
2021
2027
2037
2043
2026
2008
2003
2014
2033
2054
2079
2091
2100
2106
2108
2099
2084
2059
2034
2020
2024
2026
2017
2017
2030
2039
2049
2060
2057
2050
2036
2019
2016
2030
2060
2091
2100
2089
2074
2065
2058
2047
2037
2051
2069
2073
2068
2061
2045
2028
2010
1994
1992
2000
2009
2023
2035
2057
2072
2066
2057
2054
2046
2042
2028
2012
2004
2012
2018
2014
2007
1996
1990
1995
2016
2031
2028
2031
2040
2047
2050
2037
2010
1989
1983
2001
2013
2021
2011
1998
2024
2041
2035
2021
2012
2011
2006
2011
2033
2051
2055
2056
2051
2050
2060
2068
2067
2059
2070
2076
2072
2062
2040
2014
2010
2024
2028
2029
2032
2020
2008
2019
2042
2069
2085
2081
2075
2068
2061
2064
2050
2034
2023
2019
2044
2081
2107
2110
2085
2062
2057
2052
2041
2028
2016
2011
2027
2050
2076
2097
2108
2100
2089
2081
2069
2052
2039
2032
2033
2029
2022
2017
2012
2023
2044
2067
2088
2102
2091
2069
2051
2040
2034
2037
2053
2067
2074
2065
2042
2025
2022
2031
2053
2082
2092
2076
2058
2041
2032
2041
2049
2058
2069
2062
2060
2062
2063
2073
2073
2052
2030
2027
2022
2031
2040
2029
2016
2029
2050
2058
2061
2071
2065
2053
2041
2033
2030
2038
2042
2031
2015
2003
1994
1993
1998
1985
1977
2000
2037
2053
2041
2029
2023
2024
2036
2048
2042
2041
2060
2087
2100
2099
2101
2091
2064
2036
2027
2033
2033
2038
2060
2096
2110
2104
2087
2059
2035
2037
2052
2053
2058
2052
2041
2023
2017
2020
2026
2039
2057
2064
2058
2053
2031
2014
2023
2023
2022
2021
2030
2040
2032
2008
1986
1966
1946
1942
1941
1942
1952
1952
1944
1942
1946
1959
1978
1994
2007
2011
1993
1975
1967
1964
1954
1946
1947
1952
1950
1958
1967
1968
1964
1963
1960
1971
1988
1998
2001
1998
1992
1989
1995
1991
1983
1976
1954
1943
1945
1960
1979
1996
2009
1997
1972
1949
1943
1959
1988
1999
1980
1949
1934
1928
1926
1920
1921
1924
1915
1903
1881
1865
1852
1824
1794
1785
1775
1767
1780
1800
1827
1866
1903
1944
1967
1991
2027
2053
2069
2096
2155
2220
2288
2365
2441
2495
2517
2487
2455
2425
2394
2358
2310
2248
2184
2117
2059
2021
1991
1957
1927
1909
1902
1887
1864
1843
1827
1830
1836
1850
1868
1883
1897
1909
1904
1895
1887
1871
1847
1830
1821
1820
1818
1825
1836
1840
1849
1864
1877
1874
1844
1808
1796
1797
1795
1792
1794
1809
1832
1859
1880
1896
1906
1910
1899
1877
1870
1868
1862
1860
1852
1856
1859
1864
1882
1880
1875
1878
1878
1869
1860
1871
1887
1898
1900
1910
1927
1931
1915
1885
1858
1849
1848
1850
1860
1871
1886
1896
1892
1885
1884
1878
1884
1891
1900
1904
1914
1922
1923
1923
1924
1921
1915
1910
1906
1912
1933
1964
1984
1973
1952
1935
1935
1949
1961
1968
1967
1952
1938
1938
1934
1918
1907
1910
1920
1923
1932
1935
1927
1921
1920
1927
1934
1940
1939
1927
1915
1904
1905
1909
1929
1950
1974
1996
1991
1972
1953
1941
1939
1947
1958
1963
1967
1976
1991
1991
1972
1953
1945
1959
1972
1972
1975
1973
1957
1941
1934
1937
1955
1974
1978
1964
1945
1935
1922
1920
1930
1927
1920
1915
1909
1896
1885
1881
1899
1935
1974
1986
1983
1977
1964
1953
1954
1974
1994
2004
2001
1993
1988
1991
2000
2010
2003
1992
1972
1966
1978
1997
2015
2016
2003
1994
2001
2014
2018
2009
2022
2044
2073
2081
2054
2026
2017
2029
2025
2007
1998
2002
2012
2012
2003
1997
2000
2001
2000
2017
2042
2063
2080
2076
2064
2056
2045
2031
2013
2005
2005
2009
2020
2021
2010
1995
1980
1961
1952
1955
1955
1947
1943
1939
1934
1940
1960
1990
2010
2017
1997
1974
1964
1970
1965
1936
1905
1893
1886
1879
1872
1873
1890
1909
1934
1961
1982
2008
2016
1993
1942
1899
1867
1858
1867
1873
1875
1867
1846
1831
1824
1830
1843
1847
1837
1831
1842
1854
1855
1861
1874
1875
1867
1853
1834
1828
1864
1901
1911
1907
1895
1878
1852
1829
1811
1798
1799
1819
1839
1844
1834
1819
1815
1839
1872
1899
1900
1897
1892
1878
1873
1878
1879
1879
1882
1873
1852
1844
1837
1818
1801
1814
1839
1859
1871
1886
1898
1894
1889
1883
1887
1893
1904
1926
1945
1950
1951
1952
1950
1946
1937
1918
1894
1883
1897
1924
1945
1957
1948
1939
1932
1919
1908
1910
1924
1948
1973
1988
1980
1954
1935
1924
1918
1923
1929
1931
1929
1927
1922
1921
1933
1949
1964
1973
1961
1949
1942
1944
1957
1964
1965
1958
1960
1959
1957
1960
1956
1953
1970
1990
1991
1976
1959
1943
1947
1965
1977
1972
1962
1952
1942
1938
1945
1950
1936
1925
1927
1940
1943
1942
1937
1929
1914
1902
1896
1903
1933
1947
1931
1923
1926
1942
1966
1997
2005
1997
1986
1969
1952
1943
1933
1921
1918
1928
1944
1948
1935
1917
1905
1888
1889
1904
1921
1935
1941
1936
1928
1922
1924
1932
1929
1933
1935
1938
1937
1929
1913
1908
1916
1926
1924
1917
1907
1905
1910
1916
1921
1932
1940
1941
1933
1919
1905
1899
1896
1906
1923
1913
1893
1877
1861
1845
1842
1868
1893
1897
1891
1885
1890
1901
1912
1912
1896
1874
1859
1866
1882
1896
1912
1910
1891
1886
1892
1909
1925
1934
1930
1921
1921
1918
1897
1869
1865
1876
1884
1898
1920
1942
1940
1924
1909
1908
1914
1913
1905
1907
1911
1919
1933
1933
1911
1888
1871
1867
1885
1908
1919
1914
1910
1921
1953
1988
1997
1995
1985
1968
1962
1955
1939
1924
1921
1936
1949
1952
1957
1948
1940
1952
1972
1981
1974
1961
1950
1949
1964
1990
2008
2015
2011
2003
2006
2008
2007
2011
1999
1988
1989
2002
2015
2025
2025
2008
1984
1963
1955
1963
1980
2004
2028
2048
2054
2046
2018
1980
1956
1956
1964
1982
2005
2006
1991
1960
1942
1928
1930
1947
1954
1955
1969
1976
1981
1972
1942
1915
1920
1940
1943
1929
1912
1905
1903
1904
1922
1947
1958
1937
1917
1914
1917
1923
1921
1910
1905
1908
1908
1909
1902
1888
1882
1886
1890
1886
1875
1878
1890
1904
1909
1908
1902
1892
1887
1891
1896
1890
1877
1864
1864
1868
1878
1888
1884
1872
1864
1870
1875
1872
1865
1870
1881
1884
1886
1883
1873
1858
1851
1848
1849
1854
1875
1895
1911
1921
1926
1941
1954
1958
1964
1970
1962
1946
1929
1918
1903
1898
1909
1919
1916
1901
1895
1905
1924
1932
1944
1950
1936
1921
1910
1907
1897
1879
1872
1879
1883
1886
1890
1886
1878
1876
1888
1902
1903
1892
1891
1908
1918
1904
1881
1864
1870
1882
1889
1891
1888
1882
1870
1860
1868
1884
1895
1894
1889
1886
1885
1873
1866
1850
1833
1830
1849
1885
1914
1937
1951
1943
1920
1891
1871
1870
1885
1897
1897
1891
1886
1886
1888
1889
1897
1896
1884
1863
1852
1853
1857
1868
1883
1891
1900
1899
1872
1830
1822
1851
1884
1906
1914
1903
1887
1866
1860
1869
1885
1884
1871
1862
1856
1845
1839
1847
1868
1889
1892
1888
1907
1943
1984
2028
2075
2124
2162
2185
2212
2270
2337
2379
2412
2446
2474
2478
2453
2410
2358
2307
2264
2222
2166
2109
2071
2048
2024
1995
1970
1946
1913
1873
1837
1812
1799
1793
1786
1780
1788
1794
1791
1784
1784
1796
1809
1808
1793
1780
1800
1814
1815
1816
1813
1812
1816
1809
1796
1786
1787
1796
1820
1841
1857
1853
1848
1839
1824
1811
1807
1811
1810
1801
1793
1793
1797
1808
1818
1828
1830
1835
1850
1860
1858
1852
1851
1829
1798
1769
1754
1765
1781
1790
1786
1782
1784
1785
1788
1791
1789
1793
1809
1815
1827
1843
1851
1853
1852
1843
1849
1856
1857
1855
1858
1867
1862
1848
1847
1865
1886
1892
1884
1870
1859
1856
1862
1872
1879
1891
1898
1900
1896
1894
1890
1893
1902
1911
1909
1904
1903
1897
1889
1875
1863
1881
1908
1930
1935
1926
1913
1905
1901
1909
1927
1950
1968
1974
1965
1949
1932
1908
1894
1899
1923
1954
1951
1938
1963
1977
1959
1938
1926
1923
1925
1936
1943
1940
1942
1949
1951
1944
1940
1942
1940
1945
1951
1950
1953
1956
1969
1983
1978
1966
1962
1973
1977
1977
1970
1957
1957
1956
1964
1986
1997
1998
1993
1987
1980
1981
2000
2018
2029
2035
2044
2053
2053
2044
2025
1996
1977
1977
1975
1961
1948
1948
1952
1969
2000
2019
2039
2053
2053
2063
2074
2064
2062
2066
2065
2055
2037
2021
2010
2008
2015
2016
2018
2023
2026
2029
2020
2006
2000
1996
2002
2017
2030
2043
2039
2037
2055
2070
2063
2052
2051
2046
2025
2001
1995
2014
2030
2027
2014
2003
1985
1967
1946
1939
1955
1986
2010
2012
2006
2008
2010
1997
1983
1981
1979
1972
1965
1952
1957
1979
1985
1977
1960
1943
1926
1920
1936
1950
1948
1938
1946
1957
1961
1963
1952
1932
1911
1908
1912
1908
1905
1909
1912
1914
1917
1923
1936
1938
1929
1922
1923
1924
1921
1913
1903
1898
1898
1899
1888
1875
1870
1863
1858
1862
1865
1872
1872
1867
1867
1872
1867
1869
1884
1892
1890
1878
1875
1875
1874
1876
1876
1885
1894
1893
1882
1877
1867
1858
1872
1885
1888
1891
1891
1913
1954
1982
1984
1975
1960
1930
1892
1872
1859
1860
1864
1872
1873
1875
1881
1896
1912
1923
1920
1921
1919
1913
1915
1924
1928
1922
1915
1906
1893
1888
1893
1906
1924
1931
1934
1938
1938
1939
1949
1967
1972
1948
1911
1879
1869
1878
1901
1929
1957
1975
1974
1972
1955
1951
1952
1953
1957
1957
1968
1972
1957
1941
1932
1930
1934
1935
1929
1934
1939
1938
1945
1947
1946
1942
1937
1933
1929
1930
1936
1955
1966
1979
1998
2005
1997
1978
1974
1988
1993
1992
1996
1995
1987
1959
1935
1921
1916
1920
1912
1923
1945
1953
1945
1936
1927
1925
1941
1962
1976
1974
1964
1963
1971
1976
1968
1954
1944
1938
1938
1940
1940
1935
1942
1948
1946
1954
1961
1965
1964
1951
1945
1954
1963
1964
1964
1957
1958
1962
1963
1962
1959
1956
1950
1958
1963
1965
1956
1952
1963
1970
1961
1949
1946
1952
1960
1959
1963
1968
1980
2000
2017
2007
1976
1961
1953
1942
1926
1930
1949
1960
1969
1977
1979
1980
1973
1969
1968
1964
1962
1963
1963
1960
1953
1956
1960
1954
1956
1970
1977
1982
1976
1965
1962
1976
2013
2039
2029
2019
2020
2011
2002
1992
1976
1954
1938
1937
1941
1942
1944
1943
1948
1961
1967
1970
1976
1972
1968
1971
1975
1973
1962
1940
1927
1932
1938
1942
1945
1945
1961
1969
1970
1969
1965
1954
1936
1925
1930
1943
1947
1946
1955
1959
1946
1923
1915
1923
1939
1952
1962
1966
1965
1954
1940
1926
1916
1933
1954
1963
1977
1992
2007
1992
1968
1950
1947
1950
1962
1972
1965
1958
1952
1951
1938
1925
1912
1906
1913
1930
1949
1964
1959
1949
1939
1942
1952
1959
1968
1968
1973
1987
1992
1982
1958
1955
1969
1986
2003
2012
2026
2043
2053
2042
2030
2036
2043
2041
2034
2040
2056
2062
2058
2049
2020
2001
1993
2005
2030
2046
2046
2045
2047
2050
2052
2050
2052
2057
2067
2079
2086
2070
2051
2026
2006
1987
1982
1985
1989
1987
1991
1996
1992
1988
2001
2013
2018
2020
2022
2020
2022
2043
2061
2045
2016
1987
1952
1923
1902
1900
1919
1946
1980
2022
2044
2042
2034
2025
2029
2042
2040
2032
2013
1993
1978
1964
1954
1952
1956
1967
1989
2016
2027
2020
2017
2020
2035
2028
2029
2042
2031
2006
1997
2001
2013
2016
2006
1992
1986
1989
1990
1993
1998
2005
2002
1996
1985
1970
1968
1971
1968
1959
1947
1938
1942
1944
1937
1955
1973
1996
2032
2071
2107
2135
2170
2218
2257
2274
2286
2322
2379
2447
2526
2604
2639
2622
2578
2533
2504
2480
2449
2408
2348
2280
2220
2172
2122
2079
2047
2018
2002
1995
1982
1962
1948
1940
1936
1945
1958
1968
1971
1969
1972
1980
1984
1981
1976
1972
1972
1971
1960
1943
1941
1952
1962
1967
1966
1967
1967
1971
1978
1974
1974
1979
1983
1983
1989
2006
2020
2019
2009
1998
1975
1949
1936
1941
1951
1965
1966
1962
1966
1963
1931
1924
1950
1980
2003
2023
2038
2057
2059
2037
2008
1989
1963
1953
1960
1950
1943
1964
1976
1976
1974
1971
1979
1995
2002
2002
1991
1978
1984
1994
1990
1975
1959
1949
1949
1968
1992
2013
2029
2026
2016
2007
1999
1990
1998
2017
2034
2031
2018
2005
2005
2001
1993
1995
2000
2005
2003
1984
1968
1976
1993
2003
2015
2019
2016
2012
2012
2019
2023
2020
2008
2000
2005
2017
2031
2033
2028
2019
2002
1983
1976
1998
2030
2047
2054
2053
2030
2003
1994
2003
2017
2027
2033
2027
2011
2017
2036
2048
2045
2045
2044
2042
2039
2026
2013
2023
2041
2057
2061
2057
2048
2038
2029
2027
2041
2054
2064
2061
2058
2071
2079
2084
2086
2089
2082
2068
2050
2043
2060
2082
2088
2075
2062
2061
2079
2096
2113
2131
2143
2140
2125
2104
2089
2089
2096
2103
2108
2124
2149
2148
2120
2092
2084
2093
2087
2092
2120
2146
2161
2164
2153
2136
2114
2097
2082
2070
2072
2067
2058
2076
2115
2148
2165
2184
2209
2218
2208
2193
2179
2165
2139
2106
2085
2084
2086
2081
2073
2067
2072
2087
2107
2124
2121
2105
2097
2086
2066
2054
2055
2056
2067
2087
2101
2095
2097
2114
2126
2106
2068
2041
2026
2013
2002
2000
1999
1986
1973
1972
1987
2005
2010
2017
2015
2009
2002
1998
1995
1999
2002
2006
2013
2011
1999
1990
1987
1986
1983
1964
1938
1926
1922
1920
1923
1940
1962
1972
1971
1963
1952
1947
1956
1955
1952
1948
1957
1969
1961
1943
1943
1952
1952
1945
1945
1963
1970
1960
1949
1945
1944
1938
1928
1924
1924
1928
1933
1937
1955
1967
1964
1953
1958
1956
1955
1957
1962
1964
1958
1950
1951
1945
1930
1920
1921
1925
1927
1938
1964
1989
1993
1991
1999
2007
2001
1986
1969
1959
1956
1951
1959
1976
1994
2004
2002
1981
1948
1935
1942
1948
1958
1962
1969
1971
1967
1969
1983
1999
2010
2013
2004
1998
1993
1998
2016
2023
2013
2005
1999
1994
1985
1975
1970
1987
2005
2022
2032
2046
2059
2056
2032
2012
1997
1982
1978
1976
1966
1955
1950
1956
1982
2014
2034
2041
2037
2031
2029
2030
2028
2028
2018
2007
1995
1984
1978
1980
1994
1994
1989
1975
1973
1989
2004
2003
2003
2019
2022
2015
2012
2017
2025
2019
2001
1986
1983
1987
1993
1987
1982
2001
2031
2051
2049
2047
2044
2026
2013
2020
2019
1996
1967
1957
1968
1986
1992
1983
1975
1972
1982
1999
2005
2006
2005
1993
1979
1969
1967
1977
1996
2008
2012
2009
1999
1987
1976
1966
1959
1970
1995
2009
2006
2000
1986
1971
1969
1975
1987
1987
1981
1989
2000
2010
2020
2035
2026
2009
1996
1986
1988
1990
1985
1989
2005
2017
2016
2026
2025
2007
1991
1990
2003
1996
1977
1960
1943
1938
1951
1970
1978
1990
2002
2013
2017
2010
2008
2006
1991
1980
1973
1968
1960
1967
1976
1971
1979
1980
1966
1949
1944
1955
1975
1994
2006
2014
2020
2034
2028
1998
1977
1962
1948
1938
1956
1981
1997
1997
1999
2010
2018
2020
2024
2039
2048
2049
2043
2036
2025
1999
1970
1952
1967
1991
2005
2005
1999
1988
1972
1965
1977
2004
2023
2028
2042
2064
2064
2048
2030
2020
2017
2019
2015
2011
2011
2016
2019
2024
2031
2025
1998
1957
1934
1942
1962
1989
2011
2012
2013
2027
2030
2028
2025
2029
2034
2042
2042
2032
2009
2003
2009
2011
2004
2005
2020
2040
2051
2047
2052
2055
2042
2033
2033
2048
2052
2040
2016
2014
2028
2032
2030
2035
2042
2049
2061
2068
2073
2075
2076
2072
2062
2051
2041
2052
2074
2090
2083
2064
2054
2062
2077
2071
2059
2065
2071
2078
2071
2062
2057
2055
2051
2044
2036
2032
2024
2018
2018
2024
2027
2025
2023
2026
2030
2039
2046
2047
2040
2041
2049
2047
2030
2008
2002
2009
2016
2026
2023
2014
2011
2029
2043
2053
2056
2043
2011
1978
1975
1988
1997
2011
2016
2016
2009
1989
1974
1979
1984
1985
1991
1985
1985
1994
2000
2004
2019
2045
2050
2048
2035
2011
1991
1982
1980
1996
2013
2015
2016
2026
2045
2062
2051
2019
1992
1981
1972
1966
1968
1966
1956
1948
1935
1928
1928
1928
1940
1940
1932
1932
1941
1947
1953
1967
2007
2062
2113
2149
2169
2182
2192
2205
2242
2312
2399
2483
2544
2601
2639
2648
2626
2582
2522
2464
2417
2357
2296
2243
2177
2110
2081
2062
2029
1992
1959
1949
1944
1948
1948
1939
1934
1936
1947
1973
1997
2000
1984
1960
1951
1960
1967
1965
1958
1952
1956
1957
1957
1951
1955
1965
1964
1961
1958
1951
1953
1955
1956
1969
1980
1973
1971
1965
1957
1960
1955
1940
1914
1898
1912
1936
1949
1957
1961
1969
1980
1995
1993
1990
1991
1993
1989
1968
1951
1954
1959
1952
1954
1963
1973
1977
1981
1979
1978
1970
1955
1942
1943
1950
1969
1987
1995
2003
2009
2008
1989
1957
1936
1923
1908
1927
1955
1961
1952
1948
1942
1935
1934
1942
1942
1942
1961
1979
1990
1990
1982
1970
1958
1952
1950
1947
1940
1944
1965
1986
1997
1995
1993
2010
2013
1983
1948
1937
1931
1929
1919
1919
1916
1904
1901
1896
1914
1940
1952
1951
1941
1923
1918
1921
1920
1925
1939
1945
1953
1954
1952
1946
1931
1935
1948
1963
1969
1967
1962
1961
1976
1981
1972
1966
1974
1979
1962
1940
1933
1936
1932
1945
1982
2018
2008
1976
1957
1945
1940
1931
1916
1916
1929
1928
1926
1942
1961
1977
1984
1990
1995
1990
1991
1980
1964
1957
1972
1990
1996
2002
2007
2008
2005
2006
2005
2022
2049
2061
2071
2072
2060
2043
2024
2018
2018
2008
2000
2014
2025
2037
2052
2060
2067
2069
2075
2088
2101
2107
2116
2129
2123
2103
2072
2039
2024
2017
2004
1994
1999
2016
2039
2058
2074
2080
2070
2051
2038
2029
2025
2027
2033
2029
2026
2054
2091
2119
2126
2120
2108
2100
2097
2095
2073
2036
2017
2023
2041
2051
2051
2041
2025
2015
2000
1980
1956
1941
1941
1954
1972
1975
1971
1972
1984
1996
1992
1985
1965
1943
1930
1916
1913
1919
1925
1925
1922
1924
1929
1933
1938
1954
1982
1999
1990
1980
1969
1960
1957
1951
1956
1973
1971
1953
1933
1917
1921
1940
1977
2005
2000
1982
1970
1963
1959
1956
1957
1959
1960
1965
1971
1967
1969
1980
1991
2005
2014
2022
2025
2000
1960
1945
1965
2000
2032
2039
2024
2010
2011
2011
2014
2027
2038
2035
2017
2006
2013
2015
2003
1985
1967
1953
1970
2006
2039
2047
2047
2048
2048
2043
2031
2021
2020
2039
2064
2070
2063
2052
2044
2039
2035
2041
2054
2070
2071
2064
2057
2048
2026
2011
2003
2003
1996
1992
1987
1986
1993
2008
2032
2057
2073
2078
2082
2079
2074
2067
2057
2054
2061
2058
2056
2056
2055
2047
2043
2052
2053
2042
2031
2043
2063
2068
2062
2060
2064
2061
2051
2049
2055
2056
2046
2027
2005
1994
1997
2017
2036
2040
2035
2032
2038
2053
2056
2065
2071
2072
2066
2063
2068
2069
2068
2068
2086
2115
2125
2108
2079
2052
2024
2010
2011
2026
2036
2030
2032
2055
2075
2077
2075
2083
2090
2081
2060
2044
2044
2046
2038
2019
2009
2015
2032
2047
2068
2093
2116
2107
2084
2068
2051
2033
2030
2028
2022
2017
2022
2034
2050
2069
2089
2104
2091
2054
2032
2029
2033
2033
2032
2021
2022
2046
2063
2058
2061
2067
2078
2081
2070
2056
2055
2053
2052
2066
2071
2068
2063
2063
2058
2066
2078
2072
2055
2046
2048
2066
2066
2049
2031
2017
2010
2016
2037
2061
2074
2078
2072
2064
2056
2057
2063
2063
2061
2058
2061
2067
2074
2080
2093
2083
2064
2051
2047
2052
2056
2053
2055
2060
2071
2080
2068
2058
2075
2085
2084
2082
2078
2061
2055
2057
2052
2048
2039
2020
2027
2051
2072
2084
2102
2119
2123
2119
2116
2112
2112
2104
2088
2092
2093
2081
2065
2056
2052
2052
2063
2079
2092
2101
2111
2113
2110
2098
2091
2089
2086
2078
2081
2084
2089
2097
2097
2091
2087
2087
2105
2131
2153
2145
2120
2100
2088
2092
2098
2096
2102
2114
2117
2129
2140
2133
2122
2120
2118
2104
2090
2078
2072
2084
2116
2149
2168
2184
2202
2207
2180
2153
2140
2149
2161
2161
2150
2144
2132
2119
2113
2113
2116
2128
2156
2184
2175
2140
2109
2093
2087
2093
2091
2090
2091
2099
2118
2139
2160
2159
2143
2119
2102
2086
2071
2064
2072
2092
2117
2129
2128
2119
2114
2109
2091
2071
2064
2053
2046
2042
2063
2086
2089
2089
2090
2081
2076
2070
2068
2067
2072
2082
2083
2076
2074
2098
2130
2152
2158
2151
2134
2107
2086
2074
2078
2095
2094
2091
2094
2096
2085
2056
2037
2048
2071
2093
2102
2102
2091
2074
2048
2051
2074
2078
2087
2093
2090
2076
2060
2049
2044
2040
2028
2012
2015
2026
2034
2041
2039
2031
2048
2068
2065
2055
2062
2090
2129
2178
2240
2299
2353
2395
2433
2470
2514
2565
2616
2663
2687
2671
2646
2625
2599
2570
2528
2464
2385
2315
2255
2219
2195
2169
2135
2103
2071
2051
2039
2034
2040
2045
2051
2057
2059
2070
2082
2078
2056
2044
2040
2030
2032
2038
2041
2028
2008
1996
2010
2032
2055
2072
2079
2081
2087
2087
2075
2070
2061
2053
2043
2038
2039
2039
2033
2032
2035
2041
2044
2050
2056
2061
2069
2076
2085
2092
2097
2094
2081
2068
2068
2078
2092
2092
2107
2112
2108
2095
2074
2044
2019
2009
2018
2025
2043
2057
2062
2068
2074
2084
2098
2102
2100
2096
2087
2075
2080
2096
2099
2099
2106
2115
2120
2118
2116
2124
2124
2098
2061
2036
2036
2061
2098
2111
2111
2116
2118
2114
2120
2137
2159
2166
2149
2122
2096
2090
2098
2108
2108
2109
2101
2095
2094
2094
2096
2093
2095
2085
2067
2059
2072
2082
2093
2106
2130
2152
2141
2099
2067
2052
2050
2066
2090
2111
2120
2129
2124
2117
2115
2115
2107
2106
2115
2129
2124
2104
2094
2093
2099
2109
2107
2093
2073
2076
2101
2104
2098
2101
2108
2115
2123
2138
2146
2146
2135
2122
2110
2113
2129
2143
2153
2148
2148
2159
2168
2162
2156
2150
2156
2171
2172
2184
2192
2187
2185
2184
2180
2183
2190
2188
2181
2175
2174
2180
2192
2195
2198
2216
2233
2230
2227
2230
2227
2220
2226
2250
2269
2277
2271
2265
2256
2238
2205
2183
2187
2188
2201
2214
2202
2190
2183
2176
2171
2166
2173
2179
2181
2181
2185
2190
2188
2174
2168
2170
2169
2178
2194
2218
2231
2215
2180
2164
2159
2153
2146
2143
2146
2154
2163
2167
2169
2167
2170
2181
2177
2156
2126
2098
2069
2045
2034
2040
2054
2051
2059
2091
2122
2149
2161
2149
2132
2122
2116
2107
2100
2087
2077
2067
2051
2044
2032
2023
2039
2054
2069
2084
2073
2055
2043
2024
2015
2023
2036
2038
2038
2032
2014
1998
2004
2028
2043
2035
2023
2019
2034
2042
2039
2035
2027
2010
1990
1981
1978
1967
1959
1965
1994
2022
2028
2030
2035
2029
2017
2007
2006
2004
2001
1991
1983
1986
1998
2005
1999
1986
1999
2014
2012
2004
2005
2012
2018
2022
2022
2012
2008
2025
2049
2053
2030
2002
2009
2027
2025
2024
2027
2031
2037
2037
2031
2023
2027
2036
2038
2032
2035
2054
2064
2064
2066
2072
2067
2054
2037
2026
2033
2043
2055
2062
2055
2041
2021
2005
1996
1988
1978
1981
1984
1990
1999
2036
2071
2076
2078
2074
2049
2020
2004
2000
2010
2020
2020
2015
2001
1997
2020
2041
2041
2029
2018
2015
2021
2016
2009
2020
2044
2047
2041
2045
2064
2082
2083
2066
2050
2040
2043
2050
2054
2057
2074
2093
2088
2065
2062
2060
2045
2037
2035
2040
2060
2083
2077
2050
2021
2001
1998
2003
2020
2044
2057
2048
2033
2019
2004
2008
2032
2066
2091
2093
2081
2066
2064
2076
2077
2059
2019
1985
1973
1987
2008
2023
2032
2033
2029
2030
2031
2037
2043
2052
2053
2054
2057
2057
2050
2037
2031
2035
2039
2033
2030
2028
2026
2030
2033
2019
2012
2016
2017
2026
2035
2029
2020
2039
2047
2040
2055
2062
2058
2044
2030
2021
2026
2035
2044
2045
2050
2067
2060
2032
2006
1989
1984
1984
1995
2005
2032
2071
2084
2073
2052
2025
1998
1987
1993
2007
1998
1976
1966
1973
1990
2008
2020
2020
2014
2011
2013
2034
2053
2058
2057
2043
2022
2000
1981
1975
1972
1973
1995
2021
2034
2038
2031
2019
2012
2011
2030
2058
2089
2103
2085
2056
2033
2025
2027
2048
2064
2059
2055
2052
2048
2042
2040
2048
2062
2076
2086
2100
2104
2097
2083
2071
2068
2063
2055
2070
2083
2082
2087
2098
2100
2095
2089
2084
2074
2070
2087
2109
2117
2120
2120
2126
2129
2125
2127
2144
2166
2184
2193
2197
2197
2188
2179
2181
2180
2196
2208
2200
2175
2161
2149
2151
2158
2159
2169
2188
2198
2189
2179
2171
2160
2156
2167
2185
2196
2204
2205
2218
2220
2200
2165
2144
2129
2131
2126
2109
2099
2111
2136
2151
2141
2133
2135
2136
2138
2131
2121
2121
2142
2163
2173
2173
2171
2156
2127
2102
2087
2087
2101
2121
2136
2152
2179
2188
2169
2137
2108
2110
2133
2156
2178
2209
2231
2223
2188
2167
2146
2134
2138
2150
2150
2147
2136
2136
2142
2147
2153
2163
2160
2155
2152
2150
2162
2178
2184
2180
2159
2152
2151
2156
2165
2159
2150
2145
2137
2122
2101
2092
2096
2114
2126
2142
2154
2173
2204
2232
2261
2292
2314
2335
2355
2389
2431
2473
2521
2569
2612
2651
2682
2694
2679
2658
2624
2579
2526
2490
2465
2409
2322
2254
2211
2189
2171
2160
2142
2113
2079
2055
2050
2050
2050
2053
2063
2077
2087
2098
2119
2136
2146
2142
2145
2138
2111
2089
2078
2064
2053
2065
2077
2083
2089
2112
2139
2157
2160
2152
2132
2094
2069
2051
2028
2018
2023
2051
2074
2061
2045
2062
2098
2124
2127
2124
2119
2118
2127
2137
2139
2133
2131
2128
2119
2112
2117
2123
2135
2139
2126
2116
2115
2104
2093
2096
2107
2107
2099
2088
2079
2077
2076
2078
2084
2097
2102
2081
2061
2071
2078
2073
2072
2066
2047
2035
2032
2026
2019
2023
2031
2039
2042
2050
2057
2059
2055
2051
2048
2050
2062
2073
2069
2053
2042
2034
2027
2022
2014
2015
2032
2056
2065
2059
2052
2060
2072
2075
2081
2088
2085
2070
2055
2057
2074
2087
2076
2045
2027
2047
2068
2089
2103
2098
2082
2073
2081
2093
2087
2072
2068
2072
2073
2071
2066
2067
2065
2059
2072
2092
