# Generic Text File Format
# Version: 1
# StartDateTime: 2012-05-02 16:20:48
# SamplingFrequency: 1000
# SamplingResolution: 12
# EndOfHeader
1770
1761
1779
1807
1834
1889
1947
1987
2023
2077
2155
2226
2283
2342
2404
2472
2550
2637
2712
2766
2801
2825
2845
2875
2915
2925
2886
2847
2808
2756
2685
2608
2583
2581
2547
2519
2517
2477
2371
2241
2121
2017
1917
1812
1730
1678
1618
1572
1550
1506
1461
1444
1479
1526
1541
1572
1599
1604
1596
1629
1688
1747
1797
1828
1852
1881
1923
1965
1986
1982
1966
1935
1942
1966
1976
1981
1993
2006
2043
2037
1987
1961
1982
2024
2054
2069
2082
2063
2054
2062
2082
2061
2024
2042
2059
2052
2062
2074
2072
2069
2087
2109
2129
2146
2111
2089
2116
2130
2164
2202
2175
2119
2092
2109
2128
2151
2195
2234
2235
2207
2187
2182
2177
2168
2135
2121
2138
2174
2238
2285
2268
2219
2194
2196
2171
2139
2158
2158
2129
2139
2170
2182
2165
2139
2135
2158
2185
2198
2184
2158
2165
2205
2201
2189
2199
2190
2161
2146
2154
2149
2144
2153
2145
2158
2167
2174
2183
2211
2218
2198
2190
2215
2237
2233
2232
2231
2217
2214
2255
2295
2321
2325
2304
2283
2279
2264
2234
2196
2176
2188
2233
2290
2326
2333
2341
2318
2248
2232
2269
2270
2250
2265
2321
2342
2316
2251
2209
2226
2243
2254
2265
2275
2265
2263
2286
2295
2270
2241
2231
2247
2277
2253
2217
2216
2246
2268
2261
2264
2253
2216
2166
2153
2143
2154
2194
2246
2287
2286
2230
2167
2131
2161
2227
2244
2203
2152
2116
2104
2111
2132
2162
2176
2173
2184
2207
2211
2197
2178
2148
2128
2109
2110
2119
2150
2171
2149
2103
2119
2171
2196
2201
2199
2184
2176
2182
2184
2184
2176
2191
2208
2216
2222
2212
2204
2180
2153
2144
2139
2132
2113
2113
2114
2104
2130
2177
2180
2169
2208
2242
2214
2166
2130
2119
2093
2114
2179
2238
2249
2231
2198
2179
2188
2168
2122
2098
2103
2125
2153
2177
2189
2181
2163
2164
2176
2197
2199
2174
2143
2112
2115
2127
2198
2236
2227
2224
2212
2217
2242
2266
2282
2271
2257
2249
2260
2265
2258
2250
2243
2252
2280
2298
2311
2324
2337
2326
2279
2269
2300
2329
2320
2284
2251
2255
2268
2260
2277
2318
2290
2252
2249
2263
2304
2361
2361
2323
2280
2254
2245
2277
2317
2338
2325
2308
2287
2328
2360
2333
2315
2324
2349
2349
2327
2320
2309
2296
2288
2279
2271
2232
2217
2260
2287
2269
2242
2240
2281
2360
2407
2393
2369
2356
2338
2292
2250
2292
2331
2280
2236
2277
2320
2336
2347
2375
2370
2325
2276
2269
2303
2334
2348
2347
2328
2294
2269
2272
2276
2273
2264
2256
2250
2267
2299
2322
2294
2241
2208
2205
2220
2221
2237
2248
2238
2208
2195
2201
2204
2171
2122
2072
2037
2018
2005
2008
2024
2035
2041
2023
2000
2014
2037
2058
2047
2018
1993
1989
1997
2002
2022
2019
2005
2000
1980
1965
1979
2014
2030
2016
1995
1996
2004
1993
1970
1964
2025
2081
2086
2052
2035
2014
1990
1981
1955
1935
1937
1964
1990
1997
1982
1979
1983
1958
1915
1884
1883
1911
1914
1912
1942
1976
1998
2038
2081
2099
2107
2120
2149
2213
2281
2318
2366
2446
2532
2593
2663
2736
2798
2840
2849
2858
2864
2865
2853
2837
2812
2768
2724
2701
2667
2598
2533
2486
2420
2353
2292
2244
2184
2085
1976
1878
1788
1718
1654
1598
1558
1565
1600
1612
1589
1573
1572
1576
1557
1562
1602
1665
1716
1720
1751
1803
1811
1777
1784
1828
1870
1870
1852
1856
1878
1866
1832
1850
1883
1898
1900
1922
1959
2002
2016
1998
1985
1967
1947
1938
1941
1977
2005
1991
1978
1984
1997
1992
1996
1999
1981
1960
1964
1995
2018
2030
2056
2087
2113
2098
2061
1998
1984
2055
2079
2054
2044
2048
2057
2081
2084
2062
2033
2005
2005
2032
2061
2097
2124
2127
2129
2142
2144
2125
2084
2069
2107
2164
2179
2154
2147
2140
2141
2170
2163
2116
2085
2103
2129
2136
2149
2161
2158
2154
2177
2226
2265
2228
2188
2160
2148
2141
2129
2126
2136
2154
2151
2175
2185
2174
2160
2168
2173
2177
2172
2153
2135
2124
2126
2156
2180
2165
2158
2177
2179
2166
2161
2171
2190
2204
2207
2196
2183
2177
2185
2191
2203
2235
2251
2252
2260
2252
2247
2246
2247
2266
2291
2326
2346
2340
2311
2247
2188
2165
2192
2226
2248
2259
2260
2277
2290
2301
2309
2331
2344
2352
2349
2337
2306
2273
2221
2196
2171
2168
2177
2195
2213
2237
2276
2261
2227
2196
2181
2181
2184
2171
2171
2181
2181
2162
2139
2132
2133
2142
2152
2179
2191
2192
2180
2179
2164
2133
2102
2097
2069
2037
2062
2101
2185
2211
2171
2140
2134
2114
2104
2112
2146
2210
2216
2164
2114
2097
2103
2108
2122
2123
2112
2093
2084
2082
2101
2103
2117
2144
2159
2150
2139
2126
2124
2104
2101
2144
2161
2116
2098
2099
2086
2073
2096
2121
2110
2083
2045
2011
2000
2009
2039
2092
2136
2150
2148
2138
2125
2100
2099
2095
2118
2110
2090
2096
2133
2163
2158
2136
2109
2096
2100
2104
2133
2144
2155
2181
2218
2214
2179
2151
2159
2178
2202
2208
2234
2272
2279
2245
2209
2177
2159
2154
2164
2176
2206
2204
2214
2200
2182
2213
2220
2217
2227
2196
2171
2146
2146
2179
2219
2249
2242
2223
2230
2262
2291
2247
2191
2189
2208
2205
2195
2190
2220
2275
2301
2272
2222
2193
2187
2181
2193
2225
2252
2249
2234
2246
2275
2304
2324
2321
2298
2270
2256
2258
2258
2256
2265
2276
2282
2256
2245
2258
2264
2291
2294
2260
2254
2277
2285
2249
2208
2185
2170
2182
2223
2248
2236
2243
2276
2295
2276
2238
2202
2201
2228
2243
2238
2223
2204
2169
2143
2165
2207
2236
2252
2291
2283
2257
2229
2190
2164
2157
2151
2134
2102
2081
2097
2121
2140
2154
2154
2159
2156
2135
2127
2153
2149
2099
2074
2094
2133
2138
2127
2106
2096
2081
2078
2079
2087
2129
2152
2129
2103
2081
2090
2080
2068
2092
2104
2073
2058
2051
2070
2101
2086
2055
2037
2035
2031
2021
2000
2007
2033
2062
2101
2114
2125
2155
2202
2271
2335
2381
2408
2446
2523
2605
2697
2779
2811
2827
2825
2862
2927
2956
2946
2947
2938
2923
2897
2861
2806
2728
2641
2582
2583
2596
2581
2527
2460
2400
2334
2276
2219
2140
2014
1868
1773
1701
1642
1585
1550
1524
1536
1573
1638
1697
1720
1721
1723
1758
1826
1879
1882
1874
1883
1890
1885
1884
1901
1900
1873
1841
1842
1869
1896
1910
1887
1880
1917
1956
1948
1921
1899
1908
1928
1938
1933
1926
1942
1975
2023
2021
1987
1948
1920
1899
1910
1930
1949
1948
1962
2000
2025
2020
1975
1915
1899
1915
1951
1996
1981
1939
1920
1932
1950
1978
2004
2007
1982
1968
1973
1978
2007
2044
2062
2040
2019
2024
2058
2066
2045
2018
1991
1995
1979
1941
1948
1967
2010
2049
2071
2077
2059
2048
2060
2086
2093
2075
2037
2029
2049
2030
2025
2033
2029
2025
2024
2064
2107
2107
2097
2089
2078
2083
2122
2153
2167
2164
2150
2131
2122
2128
2154
2180
2174
2134
2109
2120
2152
2154
2135
2118
2124
2142
2167
2154
2101
2072
2067
2088
2130
2154
2170
2189
2178
2147
2140
2125
2103
2112
2165
2221
2230
2203
2166
2179
2186
2119
2039
2012
2058
2102
2132
2149
2160
2159
2138
2109
2107
2113
2111
2124
2128
2102
2061
2059
2066
2048
2022
2046
2089
2115
2103
2080
2078
2103
2113
2086
2044
2021
2015
1990
1986
2004
1993
1957
1934
1961
1982
2005
2021
2019
2009
1994
1970
1946
1948
1980
1977
1945
1922
1933
1951
1967
1976
1956
1927
1910
1898
1913
1952
1999
2005
1988
1974
1959
1943
1909
1893
1890
1896
1912
1925
1923
1919
1923
1918
1894
1879
1914
1958
1970
1987
2023
2007
1970
1981
1996
1986
1950
1930
1959
1972
1957
1931
1927
1917
1876
1834
1819
1849
1894
1940
1965
1972
1953
1927
1926
1949
1941
1922
1913
1916
1922
1926
1947
1947
1928
1920
1936
1926
1902
1922
1961
1980
1971
1964
1949
1942
1942
1958
1951
1949
1960
1949
1928
1931
1946
1950
1933
1901
1907
1907
1918
1940
1951
1935
1932
1955
1937
1892
1852
1836
1865
1899
1918
1902
1880
1894
1910
1908
1883
1882
1917
1949
1981
1991
2016
2058
2047
2006
1962
1926
1944
1978
1991
1947
1903
1883
1875
1880
1892
1898
1905
1904
1933
1969
2009
1992
1959
1987
2020
2018
1991
1972
1989
2039
2036
1989
1974
1976
1959
1939
1953
1976
1924
1890
1924
1974
2016
2014
1992
1987
2026
2082
2061
2014
2038
2104
2131
2088
2013
1952
1910
1912
1949
1995
2034
2061
2073
2089
2124
2153
2128
2066
2037
2096
2161
2186
2192
2189
2160
2148
2149
2196
2221
2195
2178
2196
2188
2148
2122
2140
2170
2211
2257
2273
2263
2249
2232
2250
2241
2227
2218
2236
2278
2315
2301
2270
2258
2281
2322
2363
2414
2462
2463
2421
2372
2366
2394
2431
2426
2387
2368
2395
2424
2448
2453
2478
2489
2499
2504
2483
2477
2480
2485
2523
2560
2590
2626
2642
2650
2630
2606
2608
2620
2599
2554
2537
2532
2558
2575
2564
2589
2607
2588
2549
2537
2546
2543
2543
2535
2521
2534
2597
2663
2683
2710
2782
2848
2885
2919
2975
3021
3067
3120
3184
3259
3334
3419
3468
3490
3472
3469
3499
3527
3542
3527
3484
3464
3448
3442
3420
3395
3360
3301
3214
3131
3081
3044
2995
2945
2879
2776
2674
2566
2463
2394
2321
2268
2247
2239
2227
2211
2203
2205
2232
2241
2258
2285
2331
2370
2373
2375
2373
2384
2386
2388
2418
2424
2409
2405
2417
2432
2444
2449
2426
2386
2344
2378
2441
2457
2462
2483
2526
2509
2431
2397
2385
2341
2285
2242
2239
2294
2373
2416
2445
2464
2487
2461
2412
2369
2328
2324
2341
2357
2351
2329
2346
2376
2397
2408
2372
2313
2288
2283
2289
2278
2275
2263
2250
2280
2298
2296
2314
2329
2312
2253
2215
2255
2325
2368
2400
2406
2385
2374
2358
2356
2356
2332
2285
2287
2338
2371
2336
2310
2332
2335
2332
2316
2317
2311
2291
2284
2286
2304
2346
2395
2385
2356
2350
2370
2412
2377
2316
2291
2316
2345
2374
2409
2361
2261
2195
2214
2259
2289
2293
2268
2248
2248
2263
2285
2298
2325
2340
2326
2324
2309
2292
2273
2247
2235
2223
2224
2241
2250
2262
2273
2281
2282
2294
2315
2317
2316
2289
2222
2171
2200
2223
2226
2248
2266
2274
2288
2317
2325
2278
2227
2190
2183
2184
2192
2221
2242
2252
2271
2297
2296
2279
2280
2287
2255
2233
2236
2243
2235
2237
2240
2225
2229
2259
2266
2232
2183
2153
2114
2089
2116
2151
2151
2110
2059
2060
2081
2074
2041
2032
2009
1991
2004
1995
1973
1985
2006
1985
1957
1949
1968
1968
1934
1909
1935
1984
2030
2046
2020
1982
1956
1932
1915
1915
1902
1869
1862
1877
1913
1930
1925
1901
1882
1869
1857
1864
1896
1932
1913
1880
1863
1843
1837
1855
1849
1846
1843
1824
1802
1788
1773
1742
1732
1763
1804
1838
1835
1801
1780
1786
1803
1806
1785
1766
1762
1778
1793
1786
1764
1744
1736
1736
1750
1767
1784
1766
1738
1716
1706
1706
1722
1730
1708
1697
1695
1704
1695
1682
1661
1640
1659
1695
1706
1702
1695
1693
1715
1744
1745
1741
1724
1715
1752
1785
1794
1793
1783
1780
1762
1741
1721
1712
1695
1657
1641
1668
1704
1707
1704
1719
1699
1665
1665
1694
1699
1677
1677
1697
1720
1739
1762
1797
1812
1772
1698
1654
1648
1682
1707
1714
1708
1735
1750
1759
1747
1704
1664
1685
1681
1638
1592
1582
1611
1617
1632
1612
1569
1577
1609
1652
1673
1667
1661
1650
1637
1628
1636
1667
1699
1710
1690
1657
1648
1667
1672
1660
1652
1639
1617
1620
1639
1651
1652
1645
1616
1581
1564
1576
1592
1570
1583
1615
1626
1628
1638
1629
1595
1593
1610
1608
1620
1648
1677
1674
1676
1689
1695
1694
1708
1726
1742
1739
1710
1688
1701
1720
1755
1773
1778
1773
1754
1750
1745
1723
1706
1701
1710
1743
1762
1758
1741
1749
1752
1742
1708
1697
1720
1750
1758
1780
1782
1780
1768
1732
1715
1703
1692
1682
1701
1721
1738
1784
1854
1882
1854
1820
1797
1768
1728
1722
1753
1798
1832
1823
1801
1777
1770
1789
1788
1767
1755
1784
1809
1786
1759
1765
1744
1704
1713
1720
1713
1691
1666
1682
1710
1718
1753
1784
1790
1781
1771
1775
1766
1743
1721
1725
1752
1779
1800
1795
1783
1770
1789
1823
1867
1923
1974
1997
2006
2055
2124
2186
2221
2253
2301
2363
2440
2511
2566
2613
2679
2753
2804
2825
2819
2812
2789
2769
2779
2781
2747
2741
2726
2704
2657
2593
2500
2444
2422
2374
2278
2172
2067
1975
1903
1841
1780
1701
1624
1552
1507
1503
1504
1506
1556
1570
1569
1574
1573
1583
1625
1670
1689
1725
1785
1822
1842
1848
1848
1851
1862
1874
1866
1844
1841
1855
1873
1910
1941
1921
1872
1820
1803
1799
1805
1832
1859
1859
1851
1841
1833
1815
1796
1786
1807
1873
1944
2001
2005
1967
1933
1900
1868
1853
1842
1832
1836
1878
1916
1930
1945
1959
1969
1979
1966
1941
1903
1904
1927
1951
1971
1978
1970
1961
1961
1979
1986
1972
1946
1942
1958
1980
1985
1991
2007
2037
2097
2117
2087
2035
1965
1938
1948
1994
2058
2105
2102
2070
2043
2031
2036
2048
2032
2041
2067
2106
2137
2125
2096
2084
2081
2075
2078
2068
2059
2086
2109
2100
2074
2030
2012
2042
2054
2071
2125
2152
2144
2134
2105
2061
2060
2060
2046
2035
2033
2045
2067
2093
2117
2139
2132
2096
2072
2083
2061
2052
2063
2055
2018
2010
2033
2064
2091
2107
2109
2110
2105
2105
2063
1996
1959
1978
2032
2091
2115
2087
2051
2034
2050
2070
2088
2102
2095
2076
2073
2083
2068
2019
1975
1960
1971
2021
2062
2071
2059
2070
2090
2064
2005
1947
1917
1936
1962
1963
1969
2006
2032
2035
2011
1991
1984
1983
1961
1938
1974
1999
1995
2019
2021
1997
1954
1945
1980
2035
2056
2027
1986
1949
1920
1896
1916
1942
1954
1957
1975
2026
2056
2012
1935
1878
1858
1862
1867
1879
1873
1861
1856
1879
1912
1948
1934
1899
1858
1851
1898
1945
1947
1928
1923
1951
1967
1965
1946
1906
1867
1911
1972
1998
1972
1916
1888
1915
1952
1970
1980
1975
1925
1886
1887
1892
1889
1887
1878
1869
1857
1843
1851
1880
1892
1893
1910
1915
1897
1888
1875
1885
1920
1946
1937
1919
1917
1913
1900
1899
1905
1892
1860
1848
1864
1864
1872
1906
1952
1934
1900
1871
1852
1832
1813
1821
1835
1862
1887
1871
1833
1788
1762
1735
1697
1650
1648
1702
1753
1722
1686
1694
1719
1732
1734
1734
1753
1769
1774
1751
1690
1644
1664
1696
1723
1738
1743
1743
1728
1675
1643
1662
1670
1638
1593
1556
1551
1561
1555
1538
1526
1500
1481
1480
1487
1497
1501
1490
1486
1516
1552
1547
1496
1468
1455
1433
1423
1449
1483
1488
1476
1464
1462
1459
1463
1462
1434
1408
1422
1459
1477
1478
1476
1453
1412
1382
1406
1437
1459
1504
1548
1547
1510
1471
1439
1415
1397
1384
1370
1361
1338
1355
1402
1419
1376
1328
1307
1304
1331
1362
1347
1327
1307
1296
1325
1395
1478
1541
1529
1486
1517
1569
1614
1648
1658
1614
1532
1480
1454
1428
1376
1359
1367
1374
1409
1439
1434
1423
1432
1443
1446
1430
1394
1366
1349
1338
1352
1385
1387
1373
1351
1325
1324
1328
1338
1343
1347
1355
1360
1361
1359
1355
1345
1306
1261
1245
1254
1286
1361
1423
1409
1365
1303
1259
1255
1296
1325
1324
1318
1347
1391
1419
1438
1446
1439
1423
1414
1406
1403
1422
1444
1422
1382
1376
1389
1402
1417
1413
1409
1404
1405
1405
1444
1479
1467
1447
1449
1451
1429
1412
1425
1463
1486
1490
1488
1510
1505
1496
1487
1478
1443
1412
1381
1374
1362
1382
1435
1505
1539
1533
1541
1580
1617
1640
1662
1693
1774
1871
1954
2033
2110
2196
2273
2342
2405
2447
2471
2497
2527
2564
2558
2529
2506
2501
2495
2477
2450
2428
2395
2359
2301
2213
2134
2072
2041
1995
1904
1817
1738
1637
1532
1448
1370
1323
1309
1264
1214
1204
1233
1261
1259
1241
1295
1384
1410
1416
1434
1464
1497
1508
1524
1568
1615
1680
1701
1686
1660
1674
1681
1675
1674
1676
1685
1676
1651
1634
1640
1665
1687
1687
1674
1668
1674
1705
1735
1751
1756
1751
1737
1727
1726
1739
1726
1709
1712
1712
1710
1707
1728
1743
1744
1752
1783
1803
1798
1776
1747
1763
1812
1845
1838
1832
1856
1868
1856
1824
1774
1746
1785
1858
1883
1879
1862
1873
1915
1964
2013
2013
1937
1848
1811
1817
1824
1838
1838
1827
1836
1865
1887
1907
1895
1870
1861
1857
1888
1954
2004
1962
1885
1874
1939
1969
1946
1938
1949
1988
2010
2008
2006
2027
2046
2031
2007
1997
1987
1991
2013
2028
2029
2056
2085
2082
2057
2023
2007
2006
1996
1971
1959
1970
1984
2020
2055
2076
2102
2128
2111
2096
2092
2069
2043
2039
2068
2115
2117
2095
2089
2107
2088
2052
2057
2095
2131
2151
2171
2177
2197
2217
2235
2259
2259
2258
2276
2264
2245
2250
2266
2257
2234
2248
2268
2262
2240
2201
2179
2168
2169
2168
2161
2152
2154
2183
2207
2191
2164
2195
2215
2231
2243
2263
2263
2250
2207
2140
2136
2166
2151
2125
2102
2112
2131
2147
2159
2159
2153
2144
2143
2112
2031
2012
2068
2080
2057
2064
2078
2058
2045
2055
2089
2134
2198
2261
2305
2330
2346
2376
2363
2278
2184
2139
2127
2108
2086
2063
2066
2076
2108
2128
2146
2172
2163
2146
2139
2134
2124
2124
2100
2042
2004
2010
2057
2128
2196
2215
2182
2149
2131
2102
2070
2069
2090
2101
2085
2072
2051
2035
2067
2104
2113
2154
2185
2191
2178
2128
2068
2039
2063
2102
2122
2122
2120
2146
2176
2181
2160
2092
2044
2040
2080
2142
2144
2116
2120
2154
2169
2171
2166
2170
2152
2117
2118
2157
2196
2190
2182
2172
2183
2172
2126
2131
2169
2174
2136
2101
2073
2056
2089
2107
2101
2115
2157
2191
2203
2201
2221
2202
2168
2176
2163
2102
2059
2065
2096
2152
2201
2220
2214
2211
2199
2182
2171
2165
2168
2163
2176
2195
2198
2172
2133
2144
2169
2179
2176
2164
2167
2187
2191
2175
2158
2156
2145
2164
2178
2190
2199
2188
2177
2169
2169
2178
2189
2211
2221
2197
2173
2153
2162
2211
2259
2250
2221
2204
2182
2178
2189
2171
2149
2139
2131
2155
2204
2247
2252
2210
2172
2149
2142
2169
2232
2265
2259
2251
2234
2198
2187
2201
2214
2208
2201
2221
2229
2217
2204
2204
2247
2299
2301
2305
2282
2268
2268
2264
2255
2264
2272
2262
2253
2281
2302
2274
2227
2191
2172
2194
2235
2273
2273
2245
2210
2204
2222
2246
2251
2255
2241
2233
2246
2227
2197
2188
2190
2205
2206
2213
2222
2229
2222
2210
2212
2229
2253
2246
2213
2167
2127
2123
2109
2125
2164
2209
2258
2275
2219
2168
2159
2181
2210
2220
2231
2237
2247
2252
2269
2296
2327
2348
2334
2322
2312
2298
2285
2289
2330
2351
2334
2291
2251
2208
2203
2237
2273
2320
2360
2352
2302
2263
2272
2301
2298
2267
2243
2227
2201
2202
2222
2224
2203
2211
2251
2267
2270
2295
2363
2432
2490
2531
2584
2645
2703
2756
2804
2844
2902
2986
3083
3171
3208
3200
3200
3211
3209
3191
3157
3118
3112
3119
3096
3055
3029
2977
2899
2849
2825
2780
2702
2593
2459
2337
2238
2137
2018
1904
1836
1804
1780
1762
1744
1732
1739
1757
1767
1789
1822
1851
1875
1924
1968
1976
1999
2048
2094
2125
2122
2082
2036
2029
2016
2016
2041
2088
2144
2156
2114
2078
2095
2122
2137
2159
2194
2223
2219
2214
2194
2159
2170
2195
2202
2181
2138
2120
2116
2120
2132
2155
2186
2213
2202
2137
2104
2130
2155
2158
2145
2135
2133
2116
2093
2124
2164
2140
2104
2104
2140
2212
2236
2178
2117
2097
2100
2147
2196
2202
2179
2158
2161
2177
2181
2164
2136
2134
2150
2149
2164
2195
2202
2186
2183
2198
2193
2170
2109
2106
2160
2208
2238
2259
2270
2240
2185
2178
2191
2191
2198
2222
2231
2227
2201
2140
2122
2159
2225
2264
2275
2274
2277
2292
2290
2260
2240
2248
2237
2210
2177
2195
2237
2262
2274
2265
2258
2242
2251
2269
2268
2264
2280
2308
2324
2335
2339
2331
2313
2295
2278
2272
2287
2301
2313
2282
2252
2250
2274
2300
2328
2349
2343
2332
2300
2268
2240
2204
2203
2196
2180
2201
2207
2195
2172
2167
2172
2169
2177
2201
2257
2261
2246
2264
2269
2251
2235
2248
2246
2231
2200
2169
2189
2205
2218
2220
2222
2194
2170
2165
2168
2183
2176
2165
2149
2145
2143
2135
2111
2109
2146
2172
2137
2088
2060
2038
2027
2024
2034
2055
2078
2116
2152
2202
2217
2204
2168
2140
2116
2092
2077
2078
2072
2055
2050
2045
2041
2052
2058
2078
2110
2125
2135
2143
2147
2137
2142
2149
2160
2144
2119
2113
2132
2134
2131
2154
2192
2190
2162
2163
2196
2244
2275
2272
2225
2175
2153
2168
2218
2246
2197
2170
2202
2235
2261
2294
2289
2284
2278
2274
2282
2279
2287
2287
2309
2319
2291
2265
2238
2194
2177
2202
2235
2251
2264
2272
2272
2262
2275
2309
2305
2267
2234
2237
2239
2233
2232
2245
2267
2276
2258
2238
2215
2227
2256
2268
2258
2241
2244
2258
2245
2205
2174
2157
2178
2192
2202
2227
2259
2274
2258
2223
2205
2199
2173
2168
2190
2220
2243
2247
2263
2264
2258
2255
2237
2192
2153
2117
2102
2149
2207
2207
2207
2195
2181
2153
2131
2121
2101
2107
2155
2204
2204
2160
2120
2115
2149
2185
2206
2209
2233
2258
2248
2216
2188
2181
2199
2192
2166
2143
2131
2117
2115
2125
2140
2157
2162
2148
2125
2128
2144
2175
2182
2171
2158
2155
2157
2130
2097
2094
2107
2122
2130
2138
2138
2138
2146
2143
2130
2141
2164
2176
2177
2175
2165
2165
2181
2190
2166
2142
2115
2087
2080
2080
2085
2139
2192
2178
2131
2073
2043
2044
2063
2057
2031
1992
1968
1937
1918
1946
2005
2056
2089
2114
2120
2101
2078
2063
2078
2078
2057
2046
2029
2008
1998
1991
1984
1971
1980
1982
1992
2012
2007
2002
2023
2053
2081
2120
2143
2109
2038
1987
1967
1978
2024
2081
2095
2096
2059
1999
1925
1880
1880
1916
1931
1924
1926
1963
1986
1984
1977
1975
1982
2003
2025
2034
2024
2013
2024
2021
2021
2013
1994
1970
1952
1962
1970
1973
1990
2003
1999
1979
1971
1966
1975
2008
2033
2051
2096
2161
2218
2259
2305
2374
2441
2490
2539
2588
2659
2739
2798
2812
2798
2816
2863
2906
2927
2933
2922
2920
2904
2854
2756
2667
2606
2558
2527
2503
2460
2407
2330
2239
2126
2015
1904
1825
1744
1633
1547
1508
1487
1478
1470
1488
1533
1569
1596
1598
1595
1599
1630
1696
1751
1773
1810
1856
1879
1861
1853
1873
1892
1896
1891
1886
1853
1849
1881
1924
1932
1943
1940
1910
1879
1885
1920
1951
1928
1887
1859
1885
1963
2008
2009
1997
1958
1954
1953
1939
1953
1988
1997
1973
1939
1936
1973
2003
2004
1997
2009
2005
1992
1992
1999
2012
2045
2078
2056
2019
2015
2052
2078
2086
2076
2080
2109
2120
2118
2128
2126
2095
2082
2065
2029
2042
2085
2108
2110
2118
2115
2110
2118
2103
2080
2086
2112
2133
2138
2142
2152
2138
2118
2119
2109
2108
2129
2120
2113
2124
2137
2154
2172
2183
2177
2167
2150
2153
2164
2168
2147
2132
2136
2147
2166
2192
2181
2151
2116
2119
2160
2190
2193
2172
2179
2190
2169
2142
2138
2142
2154
2170
2178
2173
2180
2177
2182
2173
2142
2139
2160
2171
2163
2170
2160
2143
2107
2063
2048
2067
2098
2116
2104
2084
2067
2038
2017
2060
2131
2153
2153
2141
2107
2091
2092
2074
2065
2083
2089
2073
2061
2060
2079
2088
2082
2065
2020
1997
2009
2046
2105
2088
2016
1945
1920
1940
1967
1986
2018
2023
1976
1930
1934
1974
2010
2019
2010
2008
2007
1994
1963
1938
1972
2012
2032
2035
2034
2025
1980
1942
1902
1901
1914
1902
1897
1888
1884
1899
1920
1921
1932
1927
1918
1913
1907
1901
1904
1891
1879
1882
1910
1939
1941
1931
1934
1932
1920
1924
1947
1958
1907
1857
1854
1898
1921
1914
1917
1909
1917
1934
1922
1901
1888
1878
1856
1827
1835
1874
1893
1887
1908
1951
1967
1956
1941
1948
1998
2036
2027
1997
1978
1948
1942
1974
2014
2024
2000
1980
1971
1986
2012
2011
1999
2014
2037
2040
2002
1971
1972
2003
2029
2052
2080
2082
2038
1987
1959
1960
1961
1939
1921
1917
1930
1958
1965
1953
1950
1954
1947
1942
1942
1951
1964
1966
1978
1999
1993
1974
1955
1964
2001
1993
1936
1896
1899
1948
2024
2051
2052
2024
1995
1955
1917
1933
1958
1993
2005
1991
1978
1958
1942
1940
1949
1958
1983
2013
2012
2004
2011
2003
1997
1997
2025
2033
2005
1976
1976
1991
1978
1950
1963
1997
2013
1998
1967
1956
1961
1953
1943
1949
2010
2059
2063
2054
2069
2096
2085
2066
2061
2055
2042
2003
1999
2039
2066
2067
2065
2044
2044
2047
2048
2059
2092
2123
2115
2086
2097
2126
2127
2127
2122
2083
2053
2055
2030
1984
1949
1940
1944
1965
2014
2091
2124
2096
2077
2105
2112
2082
2053
2036
2037
2037
2025
1994
1971
1969
1982
2002
2009
1995
1976
1961
1954
1955
1965
1979
1994
2001
1992
1978
1979
1960
1914
1898
1924
1961
1971
1929
1880
1865
1869
1887
1913
1931
1923
1918
1949
1977
1994
1998
2003
1978
1957
1957
1956
1964
1967
1967
1979
1964
1933
1904
1873
1874
1911
1961
2003
2012
1970
1928
1911
1898
1887
1902
1932
1972
2007
2021
2052
2126
2216
2248
2258
2288
2352
2412
2448
2493
2562
2632
2696
2746
2799
2847
2888
2935
2958
2957
2919
2876
2836
2781
2724
2682
2654
2607
2580
2534
2495
2455
2403
2339
2256
2180
2101
1992
1867
1760
1679
1610
1559
1532
1528
1518
1516
1548
1594
1656
1681
1699
1734
1753
1776
1808
1811
1798
1786
1814
1833
1820
1817
1814
1833
1865
1888
1889
1878
1865
1846
1840
1837
1844
1861
1892
1925
1923
1907
1875
1842
1828
1850
1873
1901
1942
1961
1934
1908
1933
1928
1904
1892
1877
1886
1912
1942
1935
1908
1887
1892
1912
1918
1904
1904
1930
1968
1987
1955
1943
1935
1908
1889
1873
1841
1826
1851
1895
1897
1896
1907
1915
1940
1969
1997
2007
2008
2018
2039
2053
2064
2043
1990
1915
1875
1886
1928
1974
2008
1994
1967
1948
1934
1916
1915
1939
1949
1940
1927
1931
1929
1907
1897
1901
1944
1988
2000
2002
2007
2014
2011
2003
1985
1977
2011
2041
2023
2007
1997
2038
2106
2149
2131
2070
2030
1983
1974
1996
1994
1981
1965
1968
1969
1974
1991
2002
2030
2073
2103
2124
2130
2106
2059
2031
2042
2061
2060
2049
2065
2095
2102
2083
2066
2052
2054
2075
2095
2094
2056
2035
2045
2018
2007
2029
2047
2077
2091
2098
2111
2117
2122
2124
2087
2045
2043
2066
2083
2079
2075
2083
2080
2072
2050
2024
1986
1940
1926
1945
1972
1994
2012
2024
2028
2040
2028
2003
1987
1990
1988
1978
1978
1980
1979
1975
1960
1958
1969
1979
1987
1961
1937
1964
1981
1984
1986
1981
2003
2007
1984
1966
1967
1990
2024
2028
1996
1942
1918
1934
1937
1948
1955
1936
1917
1931
1954
1983
2017
2024
1968
1915
1919
1949
1967
1964
1944
1919
1915
1953
1968
1946
1928
1925
1930
1928
1932
1921
1897
1914
1957
1987
1970
1953
1964
1978
1976
1980
1972
1975
1968
1951
1945
1937
1944
1965
1989
2005
2021
2029
2007
1974
1999
2000
1966
1916
1865
1842
1859
1888
1934
1974
2045
2091
2066
2033
1999
1970
1954
1941
1924
1883
1863
1898
1936
1939
1964
2011
2033
2045
2067
2076
2082
2098
2086
2068
2058
2058
2030
1990
1952
1932
1952
1980
1976
1971
1984
2007
2004
1984
1997
1991
1960
1936
1955
2025
2027
1957
1914
1940
2013
2075
2116
2099
2058
2042
2057
2054
2033
1991
1956
1975
2001
2014
2053
2071
2030
1992
1974
1978
1992
1989
1990
1994
1988
2001
2023
2029
2047
2051
2059
2082
2112
2091
2040
2001
1990
1995
1993
1979
1973
1982
1977
1989
2048
2108
2107
2096
2064
2028
2017
2030
2044
2056
2077
2102
2100
2051
2017
2021
2030
2027
2039
2093
2137
2135
2100
2057
2014
2023
2060
2087
2078
2059
2046
2036
2027
1999
2006
2043
2082
2055
1975
1903
1904
1967
2010
2043
2070
2052
2020
2002
1997
1989
2001
2024
2010
1993
1955
1930
1943
1959
1970
1984
2009
2046
2078
2102
2092
2066
2036
2006
1990
2008
2003
1982
1985
2009
2008
1994
1982
1985
1976
1961
1979
2016
2027
2015
2024
2008
1953
1918
1931
1927
1887
1878
1885
1911
1953
1982
2022
2050
2056
2053
2060
2089
2138
2175
2200
2233
2288
2381
2502
2620
2664
2673
2720
2773
2800
2825
2856
2870
2875
2893
2922
2931
2916
2866
2794
2748
2734
2701
2654
2651
2652
2616
2549
2446
2373
2303
2227
2185
2114
2010
1886
1794
1719
1656
1639
1654
1670
1679
1674
1667
1659
1645
1643
1699
1803
1876
1884
1868
1845
1840
1846
1881
1942
1996
2031
2036
2053
2066
2032
2003
2038
2056
2067
2077
2039
1991
1938
1920
1917
1937
1983
2016
2045
2033
1990
1946
1959
1999
2050
2076
2045
1978
1932
1950
1982
1992
1996
2003
2006
1992
1980
1952
1941
1955
1939
1910
1862
1829
1845
1874
1888
1882
1886
1874
1873
1889
1890
1884
1879
1866
1864
1863
1841
1833
1833
1798
1768
1808
1852
1881
1921
1954
1955
1972
1985
2004
2038
2066
2102
2167
2191
2177
2159
2137
2115
2102
2087
2105
2157
2180
2166
2156
2162
2174
2185
2185
2182
2194
2234
2313
2385
2381
2335
2314
2307
2305
2333
2346
2337
2329
2316
2300
2279
2294
2330
2384
2421
2430
2416
2399
2390
2375
2364
2346
2350
2358
2338
2305
2264
2228
2215
2224
2190
2167
2199
2215
2188
2203
2265
2294
2299
2320
2347
2319
2263
2223
2188
2178
2174
2170
2167
2182
2205
2234
2232
2224
2240
2254
2236
2210
2186
2179
2183
2184
2195
2205
2207
2184
2168
2188
2207
2182
2174
2171
2157
2160
2160
2157
2147
2113
2088
2092
2116
2115
2085
2062
2043
2045
2067
2064
2009
1944
1924
1954
2007
2066
2097
2088
2051
2031
2037
2028
2009
2019
2055
2076
2042
2015
2015
2045
2069
2103
2148
2162
2174
2177
2173
2180
2179
2161
2149
2150
2180
2181
2138
2119
2152
2211
2235
2225
2207
2174
2160
2217
2292
2319
2322
2355
2396
2422
2448
2459
2444
2446
2459
2448
2408
2361
2333
2332
2312
2301
2314
2334
2363
2370
2370
2378
2397
2407
2384
2372
2378
2357
2330
2308
2315
2321
2337
2344
2367
2390
2401
2351
2272
2222
2204
2199
2202
2193
2182
2204
2202
2197
2191
2188
2187
2165
2136
2115
2104
2102
2128
2163
2193
2181
2160
2155
2169
2186
2187
2181
2173
2147
2108
2094
2105
2140
2186
2221
2240
2228
2214
2160
2131
2120
2111
2100
2107
2146
2161
2123
2066
2042
2049
2050
2027
2016
2041
2084
2127
2157
2158
2150
2152
2172
2177
2190
2230
2231
2165
2146
2168
2177
2135
2105
2112
2146
2178
2199
2162
2102
2067
2034
2008
2029
2070
2076
2065
2031
2000
2035
2132
2206
2175
2095
2051
2075
2131
2160
2108
2067
2057
2020
1967
1950
1971
1984
1971
1950
1929
1911
1908
1912
1922
1920
1924
1949
1985
2013
1990
1947
1948
1948
1931
1911
1900
1902
1923
1942
1943
1931
1912
1933
1950
1921
1891
1870
1823
1788
1804
1842
1878
1926
1944
1918
1890
1881
1863
1824
1808
1808
1813
1817
1835
1856
1883
1929
1970
1968
1976
1997
1986
1966
1930
1890
1855
1836
1848
1860
1883
1884
1882
1868
1828
1814
1815
1793
1773
1764
1747
1734
1733
1748
1800
1857
1889
1877
1859
1863
1908
1972
2028
2094
2149
2191
2242
2290
2361
2445
2511
2566
2612
2633
2656
2678
2689
2695
2697
2671
2631
2600
2596
2594
2557
2500
2443
2383
2316
2266
2196
2122
2069
2034
2003
1945
1846
1753
1689
1592
1479
1410
1390
1375
1366
1355
1359
1389
1442
1448
1407
1412
1479
1548
1605
1654
1678
1690
1715
1747
1724
1680
1655
1646
1684
1734
1767
1789
1787
1807
1825
1817
1775
1741
1741
1772
1782
1767
1770
1770
1748
1740
1742
1752
1773
1806
1831
1804
1764
1774
1814
1876
1923
1919
1914
1912
1919
1917
1916
1909
1914
1898
1823
1771
1770
1797
1826
1842
1874
1880
1876
1856
1823
1792
1790
1788
1767
1764
1796
1822
1846
1850
1841
1849
1875
1900
1915
1905
1871
1840
1809
1782
1774
1794
1797
1814
1847
1854
1805
1781
1788
1825
1864
1891
1871
1856
1855
1851
1845
1884
1949
1968
1952
1945
1902
1881
1902
1948
1964
1971
1967
1941
1921
1921
1933
1956
1940
1920
1889
1846
1830
1870
1899
1902
1894
1869
1881
1911
1945
2006
2041
2015
1959
1907
1890
1908
1957
1972
1950
1934
1907
1887
1888
1918
1981
1998
1952
1927
1915
1906
1876
1844
1880
1967
2044
2058
2031
1997
1960
1945
1942
1941
1933
1930
1918
1927
1938
1976
2022
2009
1950
1897
1868
1871
1872
1880
1926
1994
2016
2005
1968
1923
1891
1874
1875
1907
1948
1978
1983
1955
1926
1910
1889
1859
1843
1832
1825
1839
1855
1859
1879
1900
1887
1854
1815
1781
1789
1832
1860
1875
1862
1828
1805
1795
1792
1790
1793
1805
1802
1779
1786
1814
1843
1833
1802
1790
1805
1825
1830
1828
1825
1845
1870
1880
1872
1842
1834
1858
1831
1775
1769
1825
1887
1902
1891
1878
1884
1891
1840
1778
1794
1850
1874
1857
1839
1836
1827
1849
1884
1901
1878
1848
1845
1884
1913
1924
1940
1945
1923
1884
1896
1934
1960
1983
2001
1990
1950
1928
1918
1921
1922
1889
1864
1875
1898
1916
1949
1958
1938
1925
1900
1856
1819
1840
1924
2009
2036
2012
1984
1976
1983
1988
1974
1955
1950
1949
1938
1929
1942
1939
1905
1894
1908
1916
1943
1973
1983
1976
1957
1975
1997
1987
1959
1939
1949
1958
1943
1955
1982
1996
1980
1955
1943
1946
1968
2019
2044
2030
2051
2052
2037
2011
1993
1968
1975
2005
2048
2100
2133
2121
2095
2070
2065
2073
2085
2100
2104
2081
2047
2029
2035
2033
2053
2061
2075
2108
2134
2129
2122
2117
2107
2113
2153
2178
2137
2087
2080
2067
2060
2046
2019
2011
2044
2096
2125
2080
2011
1993
2006
2003
2012
2043
2057
2072
2092
2083
2070
2077
2078
2073
2073
2049
2007
1978
1963
1978
2019
2061
2102
2124
2123
2119
2123
2102
2102
2122
2140
2176
2210
2192
2147
2110
2070
2037
2023
2048
2085
2109
2097
2064
2056
2061
2050
2034
2063
2108
2106
2114
2120
2118
2099
2095
2074
2049
2032
2009
1988
1978
1967
1954
1954
1964
1976
1951
1927
1892
1870
1880
1914
1957
1984
1988
1999
2038
2098
2143
2194
2290
2365
2412
2482
2545
2585
2636
2717
2809
2879
2915
2939
2956
2950
2947
2965
2952
2898
2837
2805
2770
2695
2612
2544
2495
2443
2428
2441
2407
2343
2273
2177
2059
1942
1825
1717
1635
1598
1588
1560
1540
1547
1571
1621
1690
1744
1777
1816
1845
1841
1831
1828
1830
1849
1888
1895
1882
1872
1898
1943
1991
2025
2025
2006
2019
2031
2006
1985
1963
1943
1961
1964
1932
1917
1946
1981
1991
1971
1989
2021
2014
1988
1971
1988
2009
2017
2009
2006
2019
2024
2017
2005
1976
1958
1974
2002
2008
1991
1985
2017
2037
2034
2003
1972
1964
1987
1992
1972
1965
1990
2006
2025
2016
2002
1992
1961
1971
2029
2060
2052
2044
2018
1980
1957
1955
1947
1960
1968
1999
2050
2073
2051
2024
2013
2019
2025
2024
2042
2064
2081
2100
2123
2132
2111
2083
2076
2076
2106
2163
2190
2154
2104
2117
2137
2135
2126
2137
2143
2158
2160
2153
2144
2153
2199
2225
2211
2198
2214
2198
2174
2144
2139
2159
2188
2202
2185
2169
2218
2270
2279
2258
2227
2208
2195
2173
2150
2150
2124
2104
2104
2095
2080
2108
2192
2255
2245
2215
2174
2150
2163
2180
2178
2148
2124
2132
2154
2168
2170
2141
2096
2070
2081
2123
2160
2175
2180
2168
2174
2157
2103
2045
2029
2051
2055
2052
2017
1996
1987
1986
1987
1990
2026
2054
2097
2146
2139
2108
2080
2066
2059
2038
2026
2055
2110
2165
2168
2149
2112
2089
2080
2079
2097
2089
2071
2055
2059
2063
2070
2060
2020
1990
1948
1915
1936
1974
1983
1974
1982
2016
2046
2040
2009
1988
2019
2068
2092
2071
2022
2011
2026
2025
2038
2073
2099
2060
2029
2021
1999
2000
1995
1958
1926
1946
1962
1953
1951
1971
2012
2039
2032
2024
2030
2057
2067
2032
1992
1980
2003
2037
2050
2042
2012
1984
1994
2028
2063
2088
2096
2030
1974
2008
2028
2030
2046
2074
2056
2023
2005
2000
1993
1982
1972
1970
1986
1999
1991
1971
1964
1962
1965
1948
1947
1985
2020
2031
2025
2019
2015
2026
1993
1956
1970
2003
2043
2068
2046
2019
2016
2007
1989
1945
1900
1919
1975
2006
2021
2048
2044
2018
1981
1954
1961
1991
2013
2025
2016
1974
1931
1917
1960
2007
2041
2043
2029
2019
2024
2015
1982
1943
1932
1932
1933
1942
1962
1999
2036
2042
2018
1991
1993
2018
2054
2073
2073
2068
2064
2072
2069
2067
2066
2038
1979
1907
1877
1929
1999
2068
2111
2101
2064
2027
2012
2005
2021
2052
2087
2117
2128
2108
2096
2101
2107
2099
2095
2106
2125
2170
2197
2178
2171
2177
2146
2100
2082
2095
2119
2158
2188
2144
2061
2004
2047
2127
2163
2147
2111
2119
2113
2088
2070
2038
2010
2036
2085
2122
2111
2086
2067
2066
2085
2109
2099
2089
2112
2119
2109
2103
2106
2102
2085
2058
2038
2034
2051
2069
2066
2067
2079
2081
2065
2045
2027
2013
2013
2013
2005
2015
2037
2060
2054
2005
1970
2019
2055
2030
2017
2012
1993
1955
1936
1935
1907
1895
1896
1927
1933
1937
1966
2018
2073
2112
2155
2224
2316
2403
2464
2512
2575
2651
2723
2776
2825
2850
2876
2920
2966
2968
2949
2908
2852
2818
2822
2809
2764
2703
2651
2601
2538
2493
2478
2437
2372
2290
2192
2090
1975
1848
1734
1639
1580
1553
1520
1478
1468
1500
1556
1621
1640
1630
1643
1642
1653
1708
1775
1826
1881
1908
1894
1875
1870
1870
1844
1855
1902
1918
1893
1866
1868
1902
1921
1915
1898
1905
1925
1936
1912
1889
1910
1908
1871
1844
1861
1888
1893
1877
1896
1905
1913
1925
1924
1884
1852
1875
1914
1952
1955
1937
1936
1944
1944
1929
1951
1967
1942
1936
1944
1922
1893
1903
1944
1943
1920
1923
1931
1952
1959
1959
1963
1961
1944
1928
1914
1938
1954
1954
1950
1961
1979
1995
1990
1982
1966
1979
2008
2010
2011
2003
1973
1933
1953
1992
1997
1983
1985
1999
2019
2022
2029
2016
1993
1982
1971
1954
1939
1957
1986
1989
1970
1941
1915
1913
1956
2001
2009
1970
1932
1930
1975
2060
2085
2064
2035
2004
1996
2014
2049
2074
2082
2094
2112
2143
2168
2161
2149
2143
2133
2109
2059
2022
2019
2031
2043
2031
2002
2007
2029
2054
2075
2073
2051
2042
2046
2044
2050
2073
2081
2065
2033
2015
2023
2039
2059
2081
2078
2026
1990
1980
1996
2008
2006
2010
2025
2047
2052
2052
2064
2093
2113
2119
2118
2109
2097
2076
2073
2084
2084
2079
2070
2065
2044
2033
2020
1990
1969
1990
2014
2031
2041
2044
2031
2016
2005
2000
1995
2006
2013
2002
1983
1984
1994
2009
2016
1977
1959
1965
1967
1989
2004
2018
2021
2008
1995
1988
1981
1984
2005
1996
1978
1996
2028
2033
2014
1991
1965
1936
1912
1920
1924
1940
1927
1931
1977
2038
2066
2058
2049
2011
1952
1918
1945
1975
2003
2014
2006
2002
1994
1975
1960
1956
1949
1918
1905
1916
1949
2003
2033
2037
2029
2023
2012
2002
2013
2017
2015
2005
2003
2006
1979
1910
1845
1861
1923
1996
2026
2030
2053
2058
2037
2034
2056
2090
2093
2090
2085
2070
2044
2024
2022
2019
2010
1988
1965
1990
2021
2054
2070
2074
2070
2068
2073
2050
1986
1936
1941
1992
2049
2058
2032
2003
2011
2032
2035
2032
2044
2023
2000
1985
2003
2047
2066
2043
2021
2012
2010
2027
2032
2029
2013
1997
1978
1995
2062
2131
2144
2120
2096
2072
2076
2067
2036
2030
2044
2029
2013
2008
2007
2039
2055
2030
2032
2054
2074
2068
2072
2104
2107
2078
2061
2067
2090
2108
2113
2097
2081
2063
2076
2081
2064
2041
2051
2079
2061
2057
2061
2063
2063
2030
2008
2031
2065
2079
2051
2025
2033
2038
2022
2038
2064
2065
2055
2055
2045
2033
2020
2008
2012
2031
2031
2021
2022
2037
2049
2053
2045
2024
2002
1990
1973
1993
2020
2034
2053
2086
2109
2109
2075
2062
2040
2020
2035
2061
2078
2080
2076
2060
2020
2011
2005
1992
1986
2005
2015
2026
2045
2069
2060
2023
1986
1979
1978
1973
1975
1970
1980
1981
1969
1985
1993
1981
1967
1966
1979
1981
1972
1984
2028
2075
2115
2169
2213
2237
2264
2292
2346
2410
2476
2547
2611
2675
2766
2856
2927
2969
2987
2989
2984
3019
3080
3084
3053
2994
2923
2845
2775
2720
2705
2698
2668
2640
2587
2507
2416
2295
2151
2022
1911
1809
1730
1667
1644
1647
1654
1658
1640
1622
1623
1638
1643
1640
1660
1677
1705
1731
1740
1767
1809
1840
1847
1870
1873
1868
1848
1839
1863
1908
1910
1932
1974
2003
1990
1966
1976
2001
1991
1976
1989
1986
1994
2040
2060
2049
2036
2023
2007
1998
2001
1992
1991
1999
2006
2019
2038
2026
2028
2045
2064
2080
2078
2027
1995
2001
2002
2004
2027
2054
2073
2082
2068
2057
2042
2031
2016
2005
2012
2020
2030
2020
2019
2034
2021
2030
2048
2047
2038
2036
2049
2070
2089
2094
2092
2077
2062
2072
2088
2103
2093
2064
2013
2015
2082
2128
2151
2118
2072
2058
2054
2044
2039
2052
2049
2046
2065
2070
2061
2071
2099
2113
2115
2113
2113
2131
2144
2132
2113
2117
2139
2140
2129
2126
2122
2125
2125
2106
2090
2080
2083
2077
2107
2154
2192
2182
2132
2103
2106
2118
2131
2136
2142
2156
2171
2167
2154
2138
2126
2105
2084
2092
2110
2105
2085
2100
2106
2083
2056
2024
2024
2067
2099
2121
2127
2135
2133
2131
2126
2120
2119
2135
2148
2148
2125
2080
2049
2053
2058
2076
2124
2126
2098
2084
2097
2112
2150
2158
2125
2091
2074
2087
2112
2101
2066
2036
2045
2062
2090
2116
2120
2115
2088
2050
2007
1963
1940
1960
2002
2044
2075
2090
2064
2025
2003
1956
1930
1923
1892
1905
1970
2005
1995
1992
1980
1969
1979
1998
1991
1971
1967
1994
2023
2019
2001
1992
1995
2012
2003
1987
1978
1974
1973
1977
1962
1941
1938
1975
2020
2038
2020
2042
2067
2056
2030
2002
1990
1996
1995
1985
1992
2014
2034
2033
2025
2049
2073
2051
2024
2019
2013
1993
1984
1985
1988
1977
1973
2000
2028
2059
2068
2050
2028
2010
1993
2012
2034
2061
2099
2117
2087
2039
2021
2068
2076
2035
1977
1947
1987
2049
2083
2105
2116
2118
2100
2058
2041
2039
2021
2014
2022
2026
2035
2052
2051
2038
2050
2071
2082
2097
2127
2147
2149
2157
2152
2156
2156
2167
2174
2121
2044
2032
2070
2105
2114
2095
2078
2087
2114
2118
2090
2078
2094
2103
2102
2089
2073
2074
2095
2091
2075
2057
2035
2047
2068
2102
2120
2086
2043
2038
2064
2094
2111
2111
2107
2116
2121
2112
2101
2085
2068
2078
2093
2083
2063
2069
2109
2144
2160
2170
2145
2134
2102
2078
2058
2024
1993
1969
1950
1944
1960
2012
2084
2140
2147
2132
2145
2149
2117
2107
2126
2132
2158
2203
2202
2150
2095
2078
2099
2119
2101
2070
2079
2111
2122
2115
2100
2105
2124
2143
2127
2079
2068
2087
2089
2090
2090
2082
2084
2067
2040
2021
1986
2002
2039
2031
2004
2012
2076
2137
2141
2133
2135
2112
2088
2054
2058
2099
2151
2157
2103
2061
2044
2021
2025
2033
2013
1999
2012
2050
2072
2075
2089
2104
2132
2139
2120
2098
2133
2204
2275
2344
2401
2487
2606
2702
2764
2817
2861
2916
2974
3013
3025
3045
3066
3085
3104
3111
3087
3057
3020
2970
2918
2873
2834
2788
2734
2681
2653
2583
2473
2356
2256
2151
2061
1971
1885
1819
1767
1745
1736
1732
1751
1766
1783
1767
1726
1716
1732
1746
1763
1767
1772
1818
1886
1925
1916
1901
1919
1956
1977
1979
2004
2027
2032
2030
2019
2021
1987
1929
1923
1965
2035
2074
2087
2066
2048
2015
1973
1942
1933
1957
1985
2011
2008
1996
1975
1965
1962
1978
1982
1977
1980
2009
2043
2052
2057
2079
2107
2108
2063
2026
2041
2044
2029
2010
1994
1991
1991
2002
1994
1999
2007
2023
2027
2004
2010
2034
2047
2063
2062
2022
1998
2003
2017
2010
2003
2009
2051
2081
2066
2047
2018
1978
1964
2010
2073
2092
2080
2066
2052
2047
2030
2021
2034
2030
1995
1966
1997
2016
2027
2044
2074
2082
2062
2024
1981
1969
1988
2038
2081
2103
2090
2071
2067
2077
2105
2131
2150
2168
2171
2139
2092
2066
2067
2078
2066
2070
2104
2131
2127
2113
2105
2117
2122
2102
2064
2052
2044
2081
2128
2116
2071
2041
2042
2062
2070
2055
2021
2009
2043
2096
2097
2071
2047
2073
2132
2158
2160
2135
2085
2044
2062
2076
2083
2088
2076
2071
2090
2106
2132
2145
2117
2095
2073
2042
2018
2009
1987
1993
2042
2072
2051
2030
2040
2052
2046
2020
2008
2014
2027
2045
2043
2044
2043
2046
2021
1987
1985
2009
2004
2012
2015
1983
1937
1933
1944
1927
1916
1935
1968
1978
1976
1977
1980
1966
1933
1904
1914
1937
1963
1957
1936
1930
1932
1935
1959
1985
2011
2007
1978
1924
1883
1910
1962
2012
2042
2018
1958
1930
1937
1972
2004
1998
1952
1932
1944
1952
1976
1988
2005
2019
2026
2023
2008
1986
1981
1973
1972
1971
1969
1964
1974
1964
1951
1949
1955
1948
1933
1971
2032
2062
2036
1990
1956
1973
2011
2031
2005
1975
1949
1930
1916
1932
1946
1943
1944
1958
1991
2039
2050
2026
2023
2037
2040
2045
2030
2028
2040
2042
2026
2016
2019
2065
2142
2162
2104
2006
1946
1932
1937
1929
1942
1962
1973
1991
2018
2047
2050
2043
2072
2106
2091
2056
2038
2046
2048
2049
2039
2015
2010
2024
2031
2039
2049
2055
2077
2099
2117
2138
2115
2094
2083
2068
2047
2029
2019
2031
2067
2100
2085
2036
1993
1983
1984
2002
2033
2054
2055
2067
2080
2089
2081
2101
2135
2110
2087
2059
2013
2006
2055
2113
2124
2105
2075
2046
2026
2017
2002
1968
1972
2004
2020
2012
1995
1969
1984
2006
2020
2048
2084
2075
2037
1985
1980
1978
1950
1937
1963
1977
1973
1972
1993
2014
2020
2000
1995
1985
1978
1983
1999
2007
2001
2012
2027
2012
1984
1979
1997
2027
2031
2021
2011
1998
1992
1999
2015
2026
2022
1998
1984
1988
1981
1962
1969
1998
2013
1995
1990
2003
1998
1971
1949
1929
1911
1899
1896
1899
1906
1914
1906
1919
1977
2044
2105
2124
2124
2144
2207
2283
2354
2442
2524
2589
2640
2682
2736
2800
2858
2910
2950
2988
3015
3003
2983
2959
2930
2879
2798
2727
2695
2674
2652
2607
2567
2520
2453
2367
2285
2197
2087
1979
1884
1793
1705
1638
1604
1589
1574
1575
1590
1597
1613
1638
1668
1714
1759
1769
1767
1809
1874
1899
1879
1880
1903
1934
1957
1946
1915
1894
1922
1962
1995
2008
2011
2012
2022
2022
1997
1998
2018
2010
2020
2041
2044
2003
1947
1901
1896
1914
1953
1998
2027
2015
1997
1975
1995
1999
1992
2000
2022
2051
2049
2043
2031
2028
2028
2042
2045
2046
2048
2027
2006
1995
1993
2000
2032
2059
2083
2070
2021
1993
2016
2062
2075
2090
2095
2095
2089
2057
2036
2048
2051
2048
2048
2070
2064
2043
2035
2030
2048
2106
2155
2144
2140
2147
2133
2122
2136
2164
2168
2137
2117
2142
2140
2110
2080
2021
2005
2027
2065
2089
2103
2118
2138
2135
2128
2141
2162
2181
2168
2153
2168
2165
2146
2129
2124
2144
2183
2206
2184
2162
2172
2191
2192
2175
2155
2154
2149
2127
2126
2151
2162
2174
2171
2141
2099
2085
2074
2086
2125
2171
2200
2206
2192
2190
2184
2199
2217
2213
2197
2198
2196
2185
2165
2144
2151
2177
2188
2200
2221
2231
2222
2190
2145
2123
2098
2105
2130
2142
2128
2107
2112
2102
2131
2179
2175
2128
2089
2079
2081
2084
2089
2088
2085
2086
2087
2088
2082
2077
2086
2107
2082
2054
2056
2055
2044
2011
1979
1997
2034
2056
2068
2053
2021
2016
2042
2075
2117
2151
2111
2067
2023
1985
1969
1969
1992
2007
2011
1989
1970
1972
1967
1960
1943
1955
1997
2014
2000
1997
2016
2008
1989
1974
1972
1987
2031
2082
2105
2115
2131
2118
2078
2037
2024
2034
2055
2050
2038
2053
2035
2014
1988
1989
2016
2023
2020
2019
1997
1984
1994
2010
2014
2028
2044
2091
2125
2132
2128
2098
2077
2072
2046
2014
2019
2062
2098
2096
2059
2052
2076
2092
2070
2049
2035
2028
2020
2010
2024
2045
2040
2035
2051
2078
2096
2081
2058
2020
1967
1924
1932
1968
2019
2022
1993
1975
2008
2079
2133
2169
2192
2158
2115
2100
2096
2099
2121
2139
2130
2118
2111
2074
2034
2021
2043
2067
2083
2068
2069
2064
2086
2104
2101
2087
2078
2071
2065
2077
2103
2077
2032
1996
1981
2009
2060
2089
2087
2112
2151
2155
2138
2125
2099
2094
2101
2074
2043
2037
2055
2073
2084
2082
2059
2043
2039
2065
2128
2164
2166
2138
2102
2078
2072
2069
2060
2051
2057
2055
2065
2072
2044
2011
2022
2035
2030
2039
2051
2046
2050
2060
2040
2006
1981
1991
2017
2030
2031
2037
2080
2094
2060
2045
2032
2031
2017
2027
2055
2051
2042
2054
2056
2057
2056
2045
2019
2014
2039
2073
2076
2062
2058
2078
2097
2097
2088
2083
2078
2048
2007
2008
2024
2052
2079
2060
2029
2022
2039
2083
2108
2094
2041
1984
1973
1984
1967
1953
1968
1976
1991
1986
1975
1988
2020
2054
2090
2109
2117
2131
2171
2228
2288
2346
2395
2428
2474
2537
2589
2638
2694
2759
2837
2910
2947
2960
2960
2957
2959
2941
2944
2956
2981
2982
2945
2887
2811
2731
2642
2573
2522
2474
2419
2356
2291
2205
2093
1975
1857
1746
1665
1623
1586
1568
1578
1580
1589
1621
1644
1662
1692
1721
1758
1800
1828
1852
1874
1876
1855
1869
1925
1970
1970
1942
1923
1923
1935
1942
1943
1945
1939
1934
1921
1893
1884
1910
1944
1965
1980
1974
1938
1914
1905
1902
1915
1947
1985
2000
1985
1965
1967
1978
1980
1980
1964
1952
1961
1978
1973
1977
1970
1959
1966
1975
1989
2001
1992
1994
1988
1991
2012
2022
2025
2043
2041
2008
1978
1973
1994
2038
2082
2100
2075
2011
2000
2032
2057
2079
2067
2019
1994
1994
2016
2040
2060
2087
2098
2082
2055
2052
2067
2057
2050
2038
2037
2026
2020
2029
2064
2104
2112
2096
2091
2125
2154
2148
2136
2099
2075
2070
2073
2090
2109
2115
2124
2144
2139
2121
2103
2097
2117
2145
2165
2161
2148
2134
2118
2094
2089
2083
2084
2110
2137
2141
2140
2141
2118
2094
2123
2172
2203
2184
2128
2074
2068
2086
2129
2151
2149
2134
2107
2108
2134
2151
2183
2198
2181
2169
2145
2110
2094
2111
2153
2172
2186
2180
2177
2186
2174
2144
2114
2096
2073
2091
2098
2090
2068
2051
2067
2094
2105
2081
2084
2100
2108
2116
2120
2143
2162
2148
2116
2063
2020
2003
2021
2044
2048
2029
2026
2042
2061
2060
2044
2008
1978
1958
1964
1980
1974
1973
1999
2022
2045
2043
2049
2043
2035
2035
2030
2027
2012
1961
1939
1982
2052
2112
2106
2048
1980
1953
1979
2007
2029
2064
2094
2072
1994
1965
1982
2021
2040
2048
2030
1998
1989
2006
2012
1987
1981
1998
2005
1985
1974
1990
2010
2030
2047
2059
2048
2019
1993
1982
1971
1981
2025
2059
2029
2010
2000
1985
1967
1970
2010
2047
2063
2050
2054
2063
2056
2037
2012
2009
2057
2067
2028
1997
1997
2010
2013
2006
2011
2008
2019
2029
2028
2017
2034
2064
2094
2097
2084
2063
2051
2046
2036
2030
2028
2040
2086
2131
2138
2111
2060
2018
1999
2012
2017
2001
2020
2028
2006
1965
1924
1902
1931
1997
2044
2033
2034
2063
2092
2126
2122
2100
2075
2050
2051
2069
2083
2106
2124
2128
2115
2089
2068
2040
2015
1980
1969
1985
2034
2061
2056
2065
2077
2067
2065
2080
2084
2096
2110
2104
2099
2093
2107
2118
2108
2114
2104
2088
2076
2069
2048
2023
2018
2034
2041
2019
2006
2024
2064
2100
2113
2104
2093
2091
2093
2078
2068
2092
2124
2131
2074
2029
2012
2013
2019
2055
2093
2083
2050
2043
2017
2007
2020
2038
2054
2053
2072
2080
2081
2078
2076
2064
2046
2043
2052
2046
2031
2013
2001
2005
1999
1969
1975
2039
2076
2074
2091
2099
2087
2076
2059
2048
2048
2046
2046
2065
2065
2041
2029
2031
2024
2015
1999
1994
2021
2062
2085
2060
2023
2001
1984
2000
2039
2064
2056
2035
1994
1946
1924
1948
1987
1998
1998
2026
2046
2011
1966
1948
1964
2014
2080
2144
2160
2139
2146
2181
2236
2311
2390
2458
2494
2528
2601
2680
2734
2779
2838
2900
2945
2976
2975
2961
2945
2922
2917
2897
2853
2832
2817
2767
2692
2624
2605
2602
2578
2532
2469
2386
2284
2146
2014
1894
1797
1730
1684
1656
1674
1690
1678
1678
1659
1648
1666
1698
1716
1706
1701
1738
1794
1862
1914
1919
1904
1877
1875
1898
1923
1941
1939
1925
1903
1905
1921
1962
1998
2025
2021
2023
2011
2007
2004
1977
1958
1955
1983
2004
2011
2016
2034
2048
2057
2076
2068
2004
1959
1952
1998
2011
1987
1969
1979
2002
2044
2088
2084
2060
2040
2021
2014
2028
2045
2064
2070
2055
2041
2047
2062
2091
2102
2083
2051
2027
2021
2057
2104
2105
2071
2048
2036
2041
2059
2076
2072
2084
2102
2097
2079
2087
2116
2130
2116
2097
2069
2046
2060
2085
2097
2088
2088
2100
2109
2116
2137
2159
2166
2166
2155
2139
2115
2101
2097
2073
2058
2064
2092
2132
2161
2195
2185
2158
2125
2102
2081
2085
2119
2154
2161
2176
2166
2152
2160
2170
2157
2166
2165
2155
2155
2161
2149
2135
2148
2172
2166
2155
2139
2123
2136
2150
2144
2126
2125
2112
2118
2126
2107
2098
2112
2122
2135
2158
2148
2156
2163
2150
2159
2189
2218
2210
2183
2152
2159
2185
2200
2199
2180
2146
2126
2119
2111
2106
2147
2157
2096
2051
2058
2080
2054
2022
2052
2078
2083
2077
2072
2061
2071
2080
2059
2049
2037
2025
2015
2000
2020
2045
2055
2057
2051
2057
2078
2128
2121
2048
1986
1969
1989
2011
2017
2015
2002
1986
1947
1931
1967
2008
2046
2049
2041
2026
1997
1963
1942
1929
1950
1980
1966
1956
1953
1966
2010
2058
2082
2070
2049
2030
2042
2067
2075
2074
2049
2016
2021
2042
2041
2010
1979
1974
1996
2018
2017
1998
1994
1996
2025
2053
2047
2044
2049
2039
2017
2021
2012
1986
1982
2002
2027
2045
2034
2028
2026
2014
1996
1997
1995
1986
1998
2022
2048
2058
2034
1975
1939
1944
1982
2025
2060
2062
2057
2066
2081
2072
2088
2093
2069
2049
2031
2000
1989
2000
2003
2021
2013
2025
2056
2036
2015
2045
2076
2069
2050
2022
2002
2012
2032
2028
2019
2035
2060
2070
2061
2051
2017
1991
2001
2026
2034
2027
2030
2036
2035
2048
2066
2066
2039
2030
2053
2098
2113
2052
2002
1994
2011
2030
2030
2023
2038
2042
2000
1939
1937
1964
1989
2020
2044
2047
2055
2058
2042
2022
2043
2084
2096
2081
2079
2082
2053
2008
1997
2024
2080
2116
2131
2110
2078
2047
2045
2033
2038
2038
2043
2069
2079
2099
2098
2088
2085
2083
2116
2152
2142
2115
2094
2105
2118
2107
2092
2074
2053
2033
2029
2049
2069
2073
2068
2048
2017
1997
2000
2017
2048
2071
2095
2114
2110
2080
2049
2040
2054
2070
2057
2025
2038
2035
2016
2015
2041
2068
2078
2054
2000
1951
1956
2001
2041
2070
2072
2045
2028
2049
2046
2035
2055
2080
2089
2096
2095
2075
2076
2088
2068
2046
2050
2068
2073
2064
2058
2054
2060
2059
2058
2056
2063
2069
2057
2043
2026
2014
1971
1904
1891
1952
2054
2113
2132
2129
2124
2131
2149
2177
2213
2277
2344
2417
2478
2532
2590
2633
2640
2647
2681
2744
2802
2831
2844
2891
2963
3011
3020
3002
2963
2887
2804
2753
2722
2672
2605
2537
2479
2429
2361
2286
2212
2133
2030
1931
1847
1779
1741
1708
1677
1671
1694
1719
1706
1689
1691
1703
1730
1771
1795
1820
1857
1912
1925
1910
1897
1895
1890
1896
1930
1951
1947
1948
1942
1949
1976
1973
1949
1936
1944
1960
1948
1950
1990
2011
1993
1972
1975
1996
2014
2010
2025
2038
2049
2083
2088
2078
2070
2062
2041
2002
1981
1970
1939
1934
1961
2026
2080
2068
2030
2003
1996
2009
2014
2028
2061
2098
2108
2094
2075
2053
2052
2064
2069
2064
2035
2011
2004
2025
2061
2069
2062
2085
2092
2083
2070
2069
2092
2070
2045
2062
2096
2113
2091
2067
2047
2036
2040
2060
2061
2072
2069
2057
2074
2102
2101
2096
2105
2123
2125
2098
2080
2069
2073
2092
2103
2099
2099
2084
2084
2114
2151
2140
2098
2084
2092
2130
2167
2142
2097
2072
2090
2109
2104
2082
2069
2097
2141
2143
2103
2080
2108
2151
2163
2138
2108
2122
2150
2151
2142
2137
2157
2172
2158
2127
2119
2133
2124
2119
2134
2131
2116
2099
2102
2106
2104
2108
2111
2128
2153
2143
2133
2126
2108
2092
2099
2104
2082
2046
2053
2078
2089
2122
2143
2150
2147
2135
2106
2041
1991
1973
1973
2008
2035
2029
2033
2033
2018
2023
2039
2064
2080
2097
2108
2082
2046
2014
2010
2016
2040
2041
2044
2062
2070
2060
2033
2011
1999
2013
2020
2006
1996
2024
2049
2059
2059
2048
2047
2040
2027
2021
2017
2014
2014
2016
2019
2028
2041
2034
2016
1996
1980
1991
2028
2061
2065
2041
2011
1981
1964
1960
1977
1974
1948
1938
1964
2002
2041
2060
2049
2015
1970
1947
1958
1980
1980
1963
1940
1919
1914
1940
1958
1956
1945
1930
1934
1947
1948
1952
1967
1968
1999
2072
2120
2106
2067
2029
2012
2024
2033
2037
2040
2004
1994
2014
2032
2027
2019
2008
2018
2039
2039
2031
2039
2055
2077
2085
2093
2107
2096
2062
2042
2034
2047
2080
2087
2067
2035
2019
2041
2082
2090
2086
2072
2056
2057
2079
2111
2106
2076
2051
2025
1990
1982
1996
2025
2060
2085
2082
2101
2119
2130
2148
2140
2119
2091
2083
2093
2107
2100
2088
2072
2064
2065
2052
2039
2056
2101
2118
2091
2087
2106
2118
2095
2055
2064
2103
2122
2111
2101
2126
2143
2126
2115
2119
2130
2144
2168
2181
2190
2172
2146
2133
2108
2083
2100
2140
2181
2195
2186
2177
2192
2220
2236
2214
2182
2159
2155
2159
2155
2151
2149
2162
2177
2183
2189
2193
2181
2150
2125
2109
2085
2053
2044
2079
2146
2196
2205
2176
2168
2160
2140
2126
2113
2118
2138
2156
2161
2141
2115
2108
2097
2078
2086
2106
2121
2143
2160
2174
2202
2216
2211
2192
2135
2061
2033
2051
2102
2154
2171
2146
2127
2105
2094
2081
2093
2136
2167
2182
2183
2167
2167
2188
2197
2166
2119
2103
2128
2143
2144
2137
2135
2153
2160
2142
2135
2140
2121
2095
2107
2126
2090
2069
2096
2112
2104
2104
2120
2132
2151
2183
2210
2233
2262
2301
2341
2391
2451
2526
2589
2640
2692
2729
2762
2815
2863
2892
2903
2913
2911
2918
2923
2922
2933
2946
2953
2931
2893
2825
2748
2729
2739
2716
2673
2601
2485
2378
2311
2245
2132
1999
1887
1810
1773
1749
1728
1743
1750
1727
1686
1685
1729
1824
1931
1992
2013
2012
2028
2059
2077
2065
2038
2010
2003
1997
1997
2016
2044
2067
2050
2023
2015
2025
2042
2044
2046
2066
2079
2086
2105
2094
2077
2046
2015
2019
2043
2066
2076
2086
2104
2099
2057
2049
2052
2060
2080
2104
2099
2080
2075
2104
2115
2081
2058
2075
2091
2107
2113
2102
2077
2081
2091
2101
2111
2105
2099
2099
2110
2115
2070
2008
1975
2011
2096
2157
2160
2144
2127
2131
2153
2159
2150
2130
2111
2100
2102
2117
2133
2134
2118
2097
2093
2113
2131
2095
2067
2062
2036
2024
2012
2033
2102
2148
2176
2199
2212
2200
2184
2184
2184
2200
2207
2180
2167
2197
2223
2206
2189
2153
2120
2131
2163
2147
2141
2146
2133
2131
2147
2165
2175
2177
2176
2195
2190
2155
2146
2160
2175
2197
2191
2180
2174
2193
2215
2228
2236
2246
2217
2185
2162
2172
2180
2152
2121
2102
2088
2094
2127
2157
2172
2171
2163
2163
2189
2219
2246
2225
2188
2154
2098
2099
2118
2128
2159
2176
2181
2179
2164
2168
2184
2167
2158
2153
2117
2077
2084
2112
2131
2103
2059
2039
2062
2107
2117
2094
2101
2119
2119
2091
2068
2075
2072
2053
2033
2019
2033
2062
2084
2087
2081
2050
2031
2039
2042
2060
2066
2046
2038
2059
2086
2099
2095
2091
2089
2070
2017
1974
1974
1998
2012
1998
1997
2022
2044
2043
1998
1964
1981
2045
2099
2092
2104
2124
2118
2085
2023
1987
2006
2034
2058
2047
2024
2014
2028
2054
2084
2095
2059
2020
1996
1959
1944
1977
2008
2015
2021
2023
2049
2084
2104
2091
2073
2064
2060
2061
2054
2054
2063
2071
2094
2087
2065
2050
2045
2022
2001
2021
2031
2020
1989
1968
1962
1973
1991
2022
2061
2056
2053
2044
2067
2095
2093
2072
2035
2028
2069
2116
2134
2098
2096
2092
2064
2051
2075
2082
2064
2054
2058
2063
2064
2068
2084
2097
2092
2071
2020
2001
2018
2026
2041
2086
2150
2196
2204
2195
2172
2117
2075
2063
2069
2074
2092
2117
2122
2136
2128
2116
2096
2092
2113
2129
2112
2080
2049
2028
2032
2035
2033
2049
2055
2053
2094
2124
2130
2120
2112
2090
2081
2096
2097
2083
2069
2080
2089
2078
2065
2045
2032
2049
2075
2086
2064
2050
2021
1982
1954
1984
2066
2095
2116
2145
2138
2113
2089
2089
2100
2107
2117
2135
2147
2150
2140
2115
2083
2064
2086
2127
2158
2160
2142
2110
2123
2100
2050
2063
2096
2121
2156
2155
2140
2142
2142
2143
2142
2149
2151
2147
2126
2099
2071
2041
2033
2038
2062
2084
2103
2072
2031
2024
2083
2129
2075
1995
1972
1997
2021
2045
2071
2088
2088
2073
2070
2096
2100
2074
2040
2048
2048
2011
1991
2009
2015
2008
2041
2092
2140
2150
2120
2084
2074
2091
2126
2140
2126
2109
2125
2140
2140
2124
2089
2076
2094
2085
2072
2077
2075
2106
2137
2140
2151
2167
2178
2162
2138
2099
2066
2049
2026
2014
2033
2067
2080
2069
2069
2063
2079
2133
2176
2196
2211
2255
2290
2307
2338
2406
2503
2575
2623
2678
2743
2802
2865
2920
2955
2987
3000
3002
3006
3018
3019
2981
2939
2915
2894
2865
2821
2773
2736
2711
2694
2642
2554
2451
2350
2250
2144
2032
1914
1809
1760
1731
1697
1676
1684
1690
1685
1682
1701
1703
1735
1796
1862
1902
1914
1905
1871
1875
1902
1917
1911
1910
1940
1952
1961
1990
2008
2016
2014
2013
2025
2041
2025
1973
1963
2000
2051
2069
2060
2036
2024
2041
2052
2039
2053
2076
2063
2038
2030
2020
2022
2045
2046
2021
1992
1984
1996
2014
2033
2034
2026
2033
2032
2045
2055
2038
2039
2057
2063
2061
2075
2074
2041
2019
2016
2012
2026
2040
2061
2076
2058
2038
2033
2030
2040
2058
2073
2068
2040
2014
2001
1995
2031
2034
2014
2010
2029
2039
2045
2048
2058
2075
2104
2108
2074
2047
2066
2068
2062
2079
2122
2153
2167
2094
1973
1945
1978
2032
2097
2121
2136
2152
2150
2143
2140
2117
2080
2043
2021
2024
2036
2053
2066
2090
2103
2081
2060
2054
2084
2109
2104
2105
2094
2093
2103
2083
2048
2030
2029
2039
2063
2082
2082
2068
2054
2051
2032
2010
2026
2040
2052
2039
2012
2013
1996
2000
2034
2063
2061
2059
2071
2070
2033
2000
1990
2005
1987
1941
1926
1940
1954
1958
1935
1907
1927
1963
1988
1998
2008
2043
2036
2008
1979
1972
1984
2015
2032
2019
1992
1971
1936
1915
1939
1956
1937
1921
1912
1927
1961
1978
1966
1954
1967
1996
1972
1926
1904
1921
1956
1979
1917
1867
1851
1852
1853
1866
1888
1886
1869
1892
1932
1950
1944
1926
1904
1885
1868
1863
1894
1934
1948
1939
1947
1952
1916
1886
1850
1817
1802
1815
1853
1871
1877
1901
1892
1887
1898
1912
1922
1905
1880
1870
1866
1884
1880
1846
1845
1845
1834
1819
1822
1838
1864
1869
1873
1895
1885
1858
1855
1854
1870
1891
1900
1880
1862
1850
1829
1827
1832
1851
1874
1889
1911
1923
1908
1886
1853
1801
1759
1760
1795
1852
1859
1846
1838
1815
1814
1841
1863
1842
1831
1847
1863
1872
1861
1851
1846
1840
1877
1909
1906
1888
1864
1845
1828
1809
1804
1830
1867
1876
1879
1857
1828
1834
1860
1849
1822
1808
1825
1843
1850
1827
1762
1723
1749
1804
1852
1848
1829
1843
1847
1862
1885
1920
1924
1900
1890
1899
1887
1865
1864
1891
1890
1862
1837
1836
1829
1846
1874
1887
1865
1827
1794
1793
1823
1861
1871
1864
1868
1890
1894
1852
1831
1874
1902
1927
1961
1939
1915
1910
1935
1945
1949
1960
1962
1945
1915
1900
1906
1931
1934
1934
1931
1918
1912
1921
1926
1899
1880
1867
1866
1882
1870
1874
1890
1894
1912
1944
1980
1998
1966
1923
1912
1931
1945
1932
1893
1868
1856
1883
1933
1974
1964
1948
1928
1922
1944
1938
1928
1947
2008
2068
2085
2086
2051
1995
1938
1928
1944
1958
1943
1913
1897
1893
1885
1885
1915
1951
1975
1991
2005
2018
2022
2012
2015
2026
2019
2007
1996
1995
2015
2036
2031
2000
1973
1957
1964
1963
1944
1947
1999
2023
2034
2025
1982
1964
1960
1945
1960
1997
1988
1941
1911
1880
1892
1923
1914
1890
1851
1813
1832
1897
1942
1957
1948
1939
1942
1937
1929
1921
1904
1887
1880
1875
1889
1931
1952
1955
1935
1907
1884
1878
1897
1918
1908
1889
1879
1896
1911
1901
1900
1924
1942
1943
1944
1965
1962
1935
1903
1915
1950
1941
1909
1919
1958
1974
1979
1967
1924
1891
1868
1834
1831
1852
1870
1871
1861
1843
1879
1950
2008
2041
2069
2113
2154
2190
2250
2321
2388
2438
2484
2539
2611
2668
2713
2754
2808
2871
2913
2945
2934
2897
2887
2896
2922
2896
2802
2717
2668
2629
2596
2565
2498
2407
2306
2227
2147
2068
1995
1891
1737
1604
1538
1496
1452
1438
1455
1488
1505
1546
1583
1582
1596
1634
1694
1743
1734
1707
1727
1784
1851
1884
1856
1820
1805
1797
1811
1856
1897
1912
1915
1927
1938
1949
1991
2008
1966
1937
1946
1978
1978
1955
1934
1928
1993
2058
2051
2026
2005
1998
2034
2046
2006
1973
1984
1991
1986
2003
2062
2079
2095
2106
2077
2042
2041
2037
2047
2089
2112
2102
2087
2085
2088
2099
2110
2071
2019
2019
2058
2071
2068
2061
2046
2045
2053
2067
2075
2042
2024
2024
2013
2008
2028
2040
2041
2050
2049
2053
2064
2063
2043
2028
2038
2051
2066
2057
2049
2077
2124
2148
2119
2074
2045
2053
2058
2077
2100
2119
2129
2150
2162
2111
2056
2076
2114
2155
2194
2189
2155
2108
2079
2076
2084
2084
2078
2075
2076
2109
2144
2132
2103
2109
2134
2154
2148
2133
2118
2145
2175
2135
2060
2032
2064
2069
2033
2039
2073
2092
2103
2104
2094
2092
2106
2118
2122
2108
2111
2128
2158
2188
2170
2150
2137
2123
2101
2081
2060
2027
2047
2056
2053
2105
2165
2170
2130
2090
2092
2092
2091
2086
2078
2057
2032
2031
2052
2073
2070
2069
2072
2085
2079
2044
2008
1978
1951
1941
1940
1968
1994
2006
2008
2006
2006
1994
1992
1994
1994
2021
2059
2079
2076
2062
2037
1998
1954
1915
1876
1857
1850
1877
1929
1943
1920
1920
1908
1887
1888
1884
1868
1830
1821
1853
1893
1882
1871
1892
1887
1844
1790
1756
1738
1728
1730
1737
1749
1767
1774
1777
1765
1778
1790
1753
1693
1663
1645
1641
1677
1715
1756
1768
1744
1749
1776
1796
1795
1772
1779
1779
1762
1737
1718
1703
1703
1699
1695
1706
1744
1792
1801
1795
1790
1783
1771
1768
1771
1755
1725
1716
1724
1751
1779
1799
1794
1728
1672
1669
1706
1749
1758
1761
1764
1774
1765
1753
1757
1765
1773
1769
1755
1740
1734
1779
1813
1816
1808
1798
1780
1767
1772
1785
1806
1835
1832
1809
1784
1774
1784
1775
1779
1787
1751
1723
1730
1758
1796
1836
1867
1857
1838
1818
1792
1785
1822
1855
1856
1832
1798
1762
1743
1751
1782
1823
1824
1795
1779
1791
1797
1809
1822
1816
1797
1770
1767
1801
1836
1847
1854
1852
1831
1832
1856
1886
1890
1895
1894
1868
1843
1838
1831
1846
1876
1864
1830
1819
1811
1809
1856
1915
1960
1984
1975
1937
1901
1881
1880
1896
1883
1842
1825
1846
1878
1879
1870
1879
1887
1876
1874
1888
1936
1957
1938
1912
1911
1902
1877
1873
1889
1919
1933
1920
1904
1898
1905
1945
1969
1971
1967
1952
1913
1886
1884
1908
1926
1937
1922
1906
1928
1935
1920
1907
1910
1944
1988
1991
1983
1979
1975
1998
2042
2068
2048
2024
1999
1975
1968
1942
1931
1959
1997
2008
1971
1942
1953
1998
2017
1997
1958
1929
1922
1924
1906
1884
1852
1811
1812
1844
1891
1919
1904
1891
1915
1924
1943
1958
1970
1957
1942
1963
1969
1977
1972
1960
1976
2013
2057
2093
2114
2169
2229
2245
2207
2170
2144
2157
2180
2169
2153
2155
2166
2169
2185
2216
2228
2204
2160
2135
2136
2142
2143
2132
2146
2165
2173
2189
2235
2237
2165
2082
2066
2070
2074
2077
2082
2093
2124
2160
2183
2195
2219
2257
2305
2345
2392
2447
2506
2565
2640
2723
2802
2849
2888
2950
2973
2973
2986
3042
3081
3097
3094
3069
3033
2975
2901
2856
2855
2818
2751
2689
2627
2566
2508
2455
2355
2208
2074
1953
1845
1764
1700
1663
1652
1644
1627
1636
1665
1662
1644
1655
1670
1689
1701
1728
1771
1805
1843
1885
1926
1957
1961
1965
1962
1962
1973
1972
1989
2015
2030
2003
1976
1994
2030
2047
2061
2056
2034
2017
2014
2020
2045
2056
2046
2032
2025
2040
2062
2070
2065
2066
2070
2082
2084
2107
2124
2094
2045
2032
2025
2036
2067
2062
2053
2058
2050
2064
2114
2145
2147
2124
2104
2077
2058
2050
2069
2109
2117
2113
2123
2137
2111
2063
2019
1978
1956
1968
2027
2104
2109
2071
2055
2074
2094
2103
2107
2081
2050
2079
2139
2178
2168
2138
2142
2177
2196
2199
2184
2174
2167
2160
2148
2137
2130
2132
2156
2158
2126
2093
2088
2101
2108
2135
2163
2180
2187
2201
2218
2226
2213
2175
2139
2137
2157
2191
2231
2248
2215
2185
2194
2218
2242
2219
2190
2182
2194
2217
2242
2233
2197
2156
2125
2104
2100
2112
2119
2121
2122
2137
2135
2093
2066
2079
2103
2137
2184
2205
2175
2140
2116
2103
2120
2146
2137
2076
2030
2039
2060
2059
2070
2083
2072
2052
2039
2038
2028
2029
2044
2052
2065
2072
2060
2024
1996
2017
2068
2087
2051
2021
1996
1974
1954
1945
1955
1964
1996
2027
2031
2027
2024
2002
1983
1999
2035
2039
2011
1988
1998
2021
2058
2079
2082
2088
2066
2031
1979
1939
1914
1928
1932
1922
1912
1934
1969
2006
2020
2046
2079
2099
2086
2067
2066
2081
2096
2097
2104
2113
2128
2111
2073
2051
2043
2034
2022
2015
2025
2029
2018
2008
2007
1993
1981
2010
2067
2098
2100
2066
2030
2033
2052
2034
2015
2019
2027
2051
2071
2072
2053
2043
2028
2000
1978
1967
1983
2016
2064
2098
2097
2065
2035
2009
1980
1951
1949
1980
2031
2039
2017
2028
2073
2122
2141
2141
2164
2158
2133
2119
2111
2099
2082
2067
2059
2058
2062
2051
2044
2063
2073
2063
2049
2059
2060
2075
2108
2143
2162
2165
2135
2108
2086
2083
2097
2094
2074
2068
2078
2080
2078
2086
2091
2097
2078
2051
2046
2029
2014
2050
2098
2093
2069
2040
2013
2002
2014
2043
2052
2048
2045
2048
2042
2026
2016
2000
1987
1994
2012
2028
2014
1977
1961
1967
2001
2055
2117
2143
2083
2006
1986
2022
2046
2038
2045
2036
2029
2026
2041
2063
2071
2046
1997
1959
1955
1982
2015
2010
1980
1959
1961
1960
1975
2004
2027
2054
2071
2059
2051
2050
2052
2024
1977
1977
2013
2070
2112
2105
2069
2041
2043
2060
2046
2045
2042
2033
2041
2055
2064
2066
2057
2054
2056
2058
2059
2067
2076
2078
2097
2084
2065
2107
2165
2178
2154
2129
2106
2109
2123
2123
2113
2129
2144
2147
2152
2179
2220
2240
2216
2177
2150
2121
2109
2113
2123
2135
2171
2206
2167
2107
2089
2091
2083
2087
2131
2182
2199
2189
2182
2179
2175
2153
2116
2109
2134
2162
2184
2184
2163
2175
2176
2163
2168
2172
2160
2145
2143
2155
2162
2145
2136
2127
2116
2130
2145
2125
2101
2106
2115
2132
2139
2122
2080
2050
2024
2001
1993
2005
2028
2059
2084
2099
2079
2095
2134
2195
2262
2287
2286
2319
2388
2458
2528
2597
2645
2694
2750
2795
2822
2838
2854
2873
2890
2914
2916
2909
2904
2898
2885
2836
2765
2720
2682
2625
2557
2506
2472
2435
2366
2261
2141
2036
1935
1820
1718
1655
1623
1596
1591
1583
1566
1554
1571
1636
1673
1643
1631
1666
1705
1758
1789
1806
1833
1872
1887
1887
1895
1940
2012
2045
2040
2025
2017
2002
1992
1992
1982
1973
1989
2023
2062
2058
2051
2064
2080
2072
2075
2096
2110
2111
2093
2069
2068
2069
2077
2085
2056
2023
2002
1984
1980
1999
2056
2107
2143
2174
2198
2201
2188
2174
2172
2160
2144
2133
2135
2134
2123
2116
2136
2148
2144
2150
2159
2157
2146
2142
2134
2103
2081
2081
2084
2067
2064
2076
2094
2123
2140
2169
2157
2095
2040
2026
2048
2091
2132
2142
2106
2114
2170
2177
2142
2117
2127
2152
2159
2159
2148
2155
2166
2163
2173
2186
2216
2207
2172
2137
2146
2137
2130
2125
2102
2088
2119
2157
2184
2184
2150
2113
2092
2122
2194
2235
2222
2174
2125
2099
2118
2119
2107
2082
2065
2058
2066
2086
2126
2149
2147
2150
2178
2186
2166
2142
2123
2099
2103
2143
2157
2115
2061
2037
2038
2064
2092
2114
2125
2129
2112
2100
2113
2134
2143
2130
2092
2063
2072
2084
2082
2080
2090
2083
2050
2030
2032
2033
2030
2039
2025
2021
2021
2014
1967
1921
1929
1975
2017
2040
2042
2052
2036
2023
2021
1999
1981
1961
1939
1922
1929
1942
1954
1958
1936
1922
1942
1943
1923
1900
1884
1906
1933
1940
1927
1932
1958
1970
1967
1951
1951
1949
1928
1906
1887
1911
1930
1924
1918
1915
1881
1867
1886
1909
1920
1901
1848
1836
1844
1850
1848
1843
1854
1877
1925
1971
1978
1954
1939
1924
1900
1873
1875
1876
1870
1879
1896
1908
1924
1916
1894
1881
1884
1915
1951
1940
1919
1930
1935
1951
1951
1932
1893
1876
1890
1906
1905
1900
1923
1954
1962
1953
1961
1957
1915
1896
1899
1920
1956
1975
1968
1955
1938
1929
1921
1898
1885
1884
1895
1921
1958
1984
1994
1985
1965
1944
1940
1953
1974
1963
1941
1951
1975
1984
1963
1943
1943
1932
1926
1944
1980
2015
2035
2033
2017
1998
1981
1971
1960
1976
1990
2008
2047
2054
2046
2016
1974
1969
1965
1962
1947
1951
1970
1992
2012
1999
1980
2009
2016
2029
2055
2045
2018
1998
1996
2000
2004
2011
2015
2009
2011
2006
1979
1969
1971
1961
1949
1967
2005
2030
2012
2017
2028
2038
2050
2068
2064
2056
2048
2060
2058
2046
2033
2016
2035
2072
2052
2034
2027
2023
2040
2072
2108
2136
2151
2173
2186
2165
2142
2123
2116
2113
2111
2106
2099
2078
2040
2006
2022
2055
2050
2049
2041
2028
2023
2008
1992
1966
1966
2035
2118
2158
2159
2156
2138
2131
2112
2095
2082
2084
2067
2051
2054
2061
2063
2069
2059
2041
2031
2049
2063
2055
2045
2035
2034
2018
1996
1982
1971
1974
1995
2017
2041
2071
2085
2073
2053
2029
2008
1995
2003
2011
2012
2024
2028
2012
1995
1986
1983
1987
2004
2000
1996
1988
1961
1956
1986
1988
1997
2030
2048
2048
2038
2052
2105
2164
2202
2240
2293
2361
2446
2521
2584
2646
2684
2721
2768
2790
2805
2842
2885
2933
2962
2963
2966
2968
2948
2908
2845
2785
2740
2702
2661
2620
2580
2518
2457
2375
2274
2145
2002
1890
1798
1727
1685
1650
1616
1591
1575
1568
1578
1630
1704
1739
1739
1755
1750
1753
1777
1799
1826
1867
1898
1875
1833
1821
1830
1876
1895
1884
1927
1976
1983
1966
1948
1925
1938
1976
2014
2030
2001
1959
1961
1986
2008
2000
1992
2003
2024
2014
1983
1972
1958
1928
1922
1952
1986
2000
1986
1959
1938
1934
1959
1968
1978
1999
2013
2013
2029
2036
2058
2080
2085
2086
2052
1987
1933
1932
1985
2063
2111
2091
2050
2009
1994
2001
2016
2022
2022
2011
1994
1964
1978
2036
2101
2096
2050
2025
2062
2081
2076
2056
2027
2007
2013
2034
2043
2037
2020
1999
1963
1916
1908
1977
2085
2173
2216
2207
2162
2133
2107
2075
2055
2040
2019
2012
2043
2082
2098
2088
2098
2107
2100
2101
2118
2091
2052
2041
2066
2112
2174
2222
2209
2189
2185
2161
2139
2137
2144
2130
2112
2108
2124
2146
2172
2140
2094
2121
2172
2188
2199
2188
2198
2191
2179
2160
2143
2135
2139
2171
2202
2208
2205
2197
2179
2172
2150
2142
2158
2165
2141
2093
2087
2102
2123
2144
2153
2154
2157
2148
2154
2165
2158
2138
2118
2114
2098
2108
2159
2194
2188
2149
2108
2073
2080
2073
2042
1998
1949
1900
1871
1890
1952
2032
2097
2130
2100
2069
2067
2059
2038
2018
2019
2040
2047
2007
1951
1913
1909
1919
1934
1975
2013
2023
2027
2023
2030
2049
2064
2046
2002
1961
1963
1983
1991
2006
2020
2003
1976
1943
1949
1993
2031
2059
2054
2063
2064
2055
2053
2041
2039
2033
2036
2062
2099
2119
2093
2039
2009
2000
2007
2009
1994
2008
2029
2042
2046
2056
2043
2008
1991
1996
1988
1981
1990
2034
2074
2061
2024
1987
1958
1976
1964
1955
1987
2019
2042
2051
2050
2048
2029
2020
2031
2034
1996
1942
1908
1930
1995
2037
2012
1996
2019
2033
2061
2095
2105
2092
2085
2085
2083
2075
2075
2066
2056
2074
2089
2051
1993
2001
2051
2075
2065
2034
2019
2025
2053
2080
2100
2092
2061
2045
2064
2050
2027
2007
1997
1994
2016
2014
2002
2015
2048
2065
2071
2063
2049
2031
2014
2017
2045
2053
2032
2007
1996
1998
2001
2001
1994
1981
1980
1976
1963
1956
1968
2012
2037
2028
2027
2006
1979
1968
1969
1971
1991
2016
2021
2026
2044
2081
2086
2069
2058
2040
2014
1999
1984
1970
1984
2008
2039
2066
2079
2103
2134
2125
2089
2081
2104
2098
2068
2043
2052
2084
2125
2153
2145
2142
2104
2033
2004
1997
2011
2039
2077
2086
2040
1995
2014
2047
2063
2023
1967
1961
1998
2045
2090
2110
2084
2037
2007
2010
2015
2000
1994
1999
2013
2019
2014
2002
1994
2016
2052
2048
2024
2008
2011
2019
2044
2046
2048
2063
2071
2041
2030
2046
2072
2061
2025
1990
1995
2007
2018
2021
2021
2019
2014
2008
1971
1961
2010
2040
2037
2045
2062
2056
2038
2028
2017
2015
2040
2049
2028
2011
2010
2012
2026
2021
2010
2012
2025
2013
2031
2068
2111
2161
2200
2234
2291
2396
2514
2593
2635
2692
2744
2780
2800
2818
2854
2896
2931
2943
2938
2925
2893
2876
2864
2861
2868
2883
2855
2785
2729
2666
2572
2479
2437
2408
2365
2306
2237
2117
1975
1853
1753
1682
1659
1670
1670
1691
1685
1649
1620
1582
1602
1640
1685
1753
1834
1885
1902
1921
1960
1971
1927
1898
1900
1903
1908
1931
1966
1978
1971
1954
1935
1950
1977
1987
2004
2018
2017
1996
1976
1985
2011
2031
2035
2006
1960
1947
1966
1968
1980
2013
2042
2048
2061
2078
2073
2012
1975
2005
2046
2049
2032
2042
2024
1997
1993
1999
2043
2095
2105
2084
2073
2077
2074
2054
2031
2002
1965
1949
1971
1980
1997
2051
2085
2095
2085
2073
2048
2027
2018
2033
2029
2048
2083
2103
2060
1998
2006
2070
2125
2130
2110
2086
2056
2064
2091
2097
2105
2123
2118
2114
2107
2096
2079
2100
2163
2218
2201
2115
2056
2033
2024
2042
2080
2120
2120
2126
2160
2176
2164
2178
2192
2186
2174
2147
2136
2166
2219
2233
2205
2141
2081
2081
2111
2138
2139
2148
2146
2155
2160
2167
2185
2182
2153
2130
2121
2122
2138
2163
2176
2194
2173
2142
2137
2146
2131
2108
2098
2099
2113
2113
2102
2091
2091
2069
2060
2095
2154
2185
2140
2070
2037
2060
2080
2092
2090
2076
2062
2036
2004
2010
2054
2118
2149
2133
2083
2024
1981
1976
1983
1981
1996
2001
1994
1984
2002
2013
1999
1951
1929
1939
1973
2014
2037
2034
2023
1998
1998
1994
1947
1895
1858
1884
1935
1984
1980
1946
1942
1980
1981
1946
1942
1961
1942
1914
1878
1853
1861
1902
1954
1979
1964
1948
1944
1973
2014
2027
2014
2008
2004
1970
1934
1934
1936
1940
1956
1972
1958
1928
1907
1895
1880
1870
1886
1918
1945
1962
1961
1948
1937
1961
1974
1957
1950
1961
1968
1966
1926
1879
1862
1864
1864
1886
1914
1932
1935
1949
1985
2008
1987
1950
1920
1914
1915
1937
1964
1963
1953
1922
1896
1886
1882
1882
1884
1907
1975
2022
1995
1924
1898
1919
1926
1980
2027
2053
2053
2015
1978
1954
1926
1903
1898
1906
1913
1900
1875
1857
1841
1861
1913
1977
2021
2034
2019
1988
1958
1942
1929
1924
1925
1950
1980
1998
2015
2005
1982
1942
1903
1899
1932
1976
2000
2007
1997
1960
1916
1898
1895
1893
1894
1894
1892
1884
1889
1901
1930
1950
1967
1951
1951
1980
1995
1986
1959
1913
1889
1883
1881
1895
1936
1989
2033
2062
2020
1953
1900
1864
1905
1982
2036
2075
2076
2057
2063
2099
2083
2038
1995
1987
2033
2102
2133
2116
2092
2075
2065
2052
2064
2069
2057
2052
2067
2073
2083
2078
2080
2095
2107
2119
2107
2064
2042
2057
2068
2062
2073
2073
2086
2109
2115
2104
2078
2038
2008
1975
1970
2020
2067
2057
2023
1980
1952
1958
1976
2003
2036
2057
2056
2026
2004
1999
2009
2040
2042
2022
2006
1986
1966
1978
2000
2003
2016
2009
1995
1976
1972
1985
1971
1949
1915
1859
1830
1857
1884
1865
1849
1828
1839
1856
1854
1835
1832
1853
1885
1904
1893
1861
1838
1848
1880
1884
1865
1870
1879
1867
1862
1854
1854
1887
1923
1945
1939
1916
1898
1854
1784
1754
1800
1875
1858
1859
1923
2000
2051
2109
2199
2292
2358
2420
2494
2554
2596
2629
2670
2708
2739
2771
2819
2844
2830
2783
2739
2698
2647
2591
2530
2480
2453
2422
2382
2331
2285
2260
2182
2070
1980
1911
1816
1708
1624
1529
1446
1396
1357
1330
1304
1276
1255
1257
1287
1306
1342
1402
1473
1513
1541
1548
1571
1612
1646
1678
1705
1740
1756
1704
1639
1631
1639
1653
1682
1709
1749
1789
1786
1756
1726
1712
1723
1731
1738
1754
1798
1845
1859
1843
1813
1800
1800
1785
1780
1769
1770
1756
1747
1749
1750
1762
1775
1792
1812
1811
1810
1816
1801
1783
1774
1772
1781
1792
1792
1801
1831
1846
1869
1897
1901
1873
1824
1784
1796
1810
1818
1839
1853
1862
1860
1859
1854
1830
1803
1783
1780
1803
1826
1842
1839
1811
1796
1824
1860
1864
1870
1897
1909
1900
1877
1870
1882
1889
1921
1915
1872
1878
1888
1875
1883
1885
1879
1891
1893
1895
1898
1912
1954
1986
1957
1929
1954
1994
2004
1999
1986
1962
1960
1984
2002
2016
2017
2018
2035
2030
1980
1908
1873
1884
1926
1976
2028
2031
1988
1966
1955
1966
1999
2037
2064
2049
2051
2065
2061
2030
2003
1995
1993
1988
1986
2001
2004
1998
1989
2001
2019
2009
1975
1953
1974
2001
1996
1990
1996
1990
1992
2003
1985
1956
1953
1956
1985
2029
2060
2051
2039
2046
2038
2013
1984
1970
1969
1986
2002
1970
1916
1877
1905
1959
1977
1961
1938
1935
1925
1915
1898
1891
1922
1925
1917
1932
1938
1945
1938
1931
1922
1918
1959
2009
2005
1935
1872
1869
1889
1899
1902
1914
1943
1997
2043
2071
2045
1985
1940
1941
1956
1959
1967
1960
1943
1926
1916
1892
1861
1901
2001
2087
2102
2093
2078
2057
2029
2019
2012
1995
1981
1979
1973
1980
1963
1956
1980
2002
1992
1988
2010
2021
2031
2017
1993
1989
1988
2003
2000
2012
2058
2087
2089
2081
2068
2078
2080
2087
2090
2063
2044
2037
2040
2046
2047
2039
2035
2048
2056
2054
2061
2060
2046
2035
2044
2065
2053
2035
2044
2063
2065
2056
2076
2078
2063
2067
2095
2053
1989
2003
2034
2035
2046
2076
2126
2155
2123
2066
2027
2006
1987
1976
1966
1996
2032
2030
2021
2024
2014
2017
2057
2071
2046
2030
2011
1990
1987
2005
2027
2026
2013
2008
1996
1987
1988
1986
2000
2034
2067
2092
2068
2037
2011
1992
1988
1995
2011
2033
2060
2085
2112
2117
2098
2080
2059
2046
2071
2065
2075
2106
2129
2129
2077
1999
1982
2033
2077
2076
2053
2031
2021
2046
2054
2048
2051
2087
2126
2138
2137
2134
2146
2151
2143
2168
2185
2202
2196
2155
2103
2065
2072
2136
2226
2220
2165
2142
2155
2168
2181
2192
2180
2160
2162
2185
2197
2225
2236
2196
2164
2163
2160
2144
2143
2163
2163
2152
2143
2143
2131
2115
2089
2053
2061
2083
2073
2067
2070
2089
2131
2172
2172
2130
2079
2061
2104
2169
2162
2121
2140
2155
2120
2061
2023
2059
2138
2197
2238
2247
2239
2230
2218
2197
2170
2160
2158
2144
2140
2133
2121
2110
2132
2155
2160
2176
2199
2184
2151
2136
2143
2161
2169
2169
2193
2206
2161
2105
2082
2117
2148
2130
2120
2135
2147
2142
2130
2113
2103
2107
2122
2132
2127
2118
2106
2098
2130
2191
2273
2332
2379
2412
2443
2461
2510
2569
2597
2663
2747
2830
2905
2956
2995
3034
3051
3065
3064
3073
3128
3116
3062
3017
2945
2871
2816
2763
2718
2652
2589
2553
2525
2498
2460
2417
2334
2211
2043
1880
1764
1738
1739
1724
1704
1688
1689
1713
1713
1723
1748
1742
1763
1809
1857
1883
1899
1904
1911
1935
1972
2002
2025
2055
2090
2115
2135
2137
2118
2087
2070
2059
2050
2058
2080
2081
2047
1993
1958
2007
2084
2125
2115
2103
2090
2086
2105
2129
2135
2114
2091
2109
2095
2066
2071
2100
2125
2120
2100
2084
2074
2072
2121
2188
2211
2194
2203
2216
2197
2155
2108
2082
2065
2071
2106
2124
2119
2107
2105
2128
2131
2125
2129
2153
2180
2167
2143
2138
2145
2135
2138
2148
2135
2111
2121
2136
2145
2155
2130
2146
2177
2172
2140
2114
2110
2124
2126
2138
2159
2176
2189
2184
2172
2185
2211
2232
2243
2262
2254
2253
2275
2268
2235
2207
2185
2200
2219
2223
2228
2239
2246
2242
2235
2241
2242
2236
2257
2293
2290
2272
2279
2299
2282
2220
2173
2174
2214
2257
2276
2276
2284
2290
2320
2348
2357
2351
2340
2325
2319
2307
2297
2284
2282
2292
2312
2315
2308
2318
2323
2318
2319
2321
2290
2254
2227
2201
2192
2226
2285
2312
2286
2262
2241
2229
2221
2242
2278
2301
2286
2274
2254
2236
2213
2199
2192
2207
2240
2259
2235
2214
2195
2187
2198
2212
2221
2226
2220
2224
2206
2153
2133
2134
2126
2104
2092
2116
2170
2194
2176
2147
2133
2143
2162
2171
2139
2110
2129
2151
2145
2118
2091
2099
2107
2088
2081
2093
2121
2184
2224
2229
2205
2172
2129
2094
2093
2117
2136
2151
2168
2175
2153
2108
2076
2074
2095
2104
2102
2119
2133
2123
2088
2092
2109
2113
2129
2120
2102
2084
2067
2070
2101
2147
2167
2145
2123
2128
2133
2128
2104
2078
2085
2097
2095
2096
2093
2103
2139
2161
2147
2146
2170
2182
2161
2135
2105
2068
2044
2045
2068
2109
2161
2202
2196
2162
2126
2096
2093
2100
2077
2053
2068
2098
2116
2126
2126
2121
2122
2128
2121
2115
2110
2107
2128
2124
2118
2128
2141
2155
2168
2169
2156
2130
2105
2092
2088
2078
2068
2070
2077
2090
2108
2131
2146
2160
2154
2136
2110
2097
2092
2084
2071
2083
2083
2103
2139
2150
2144
2141
2184
2213
2177
2121
2092
2081
2094
2123
2121
2100
2061
2052
2085
2118
2132
2142
2143
2109
2062
2041
2053
2068
2061
2062
2079
2116
2138
2132
2143
2121
2090
2055
2043
2071
2086
2080
2084
2107
2118
2128
2129
2124
2110
2114
2133
2148
2114
2046
2031
2072
2112
2119
2103
2096
2125
2148
2153
2166
2174
2163
2147
2169
2196
2197
2156
2088
2044
2056
2075
2069
2058
2064
2109
2137
2124
2092
2082
2075
2085
2128
2165
2161
2135
2106
2079
2052
2068
2103
2105
2084
2098
2137
2161
2117
2074
2100
2144
2166
2152
2117
2101
2124
2104
2065
2050
2073
2093
2078
2074
2068
2068
2073
2077
2099
2114
2105
2091
2092
2122
2141
2105
2064
2067
2100
2133
2153
2155
2141
2102
2087
2099
2120
2093
2050
2064
2112
2154
2150
2119
2101
2090
2046
1993
1948
1971
2005
2051
2090
2089
2107
2138
2192
2246
2264
2301
2363
2390
2409
2437
2477
2529
2592
2661
2743
2849
2932
2979
3002
3000
3000
3007
3003
2968
2914
2849
2800
2816
2852
2865
2816
2737
2658
2583
2505
2421
2328
2224
2104
1982
1864
1775
1771
1767
1720
1655
1635
1633
1634
1628
1611
1577
1562
1597
1655
1716
1741
1786
1856
1897
1922
1929
1916
1898
1892
1902
1946
1991
2001
1976
1951
1953
1984
2013
2019
2022
2009
1993
1979
1973
1968
1984
2006
2034
2059
2068
2044
1979
1913
1907
1982
2064
2088
2050
2003
1976
1984
2019
2051
2022
1982
1962
1927
1896
1908
1935
1951
1936
1943
1979
2006
2002
1994
1998
2002
2003
1989
1968
1969
1989
1990
2004
2026
2031
2014
2004
2005
2006
1989
2012
2056
2069
2041
2011
2031
2086
2116
2097
2079
2051
2025
2033
2032
2025
2004
1967
1957
1960
1966
1980
2002
2013
2031
2042
2070
2103
2130
2127
2112
2079
2042
2011
2017
2044
2070
2078
2080
2085
2081
2079
2075
2064
2038
2025
2037
2081
2110
2102
2087
2080
2085
2091
2093
2099
2087
2077
2096
2112
2098
2078
2074
2081
2108
2152
2190
2169
2135
2116
2111
2098
2068
2055
2068
2067
2080
2109
2136
2153
2163
2134
2124
2129
2113
2085
2070
2060
2048
2036
2015
2006
2023
2063
2099
2100
2101
2095
2090
2083
2086
2092
2065
2028
2018
2018
2040
2066
2048
2020
2022
2029
2018
2032
2061
2072
2033
1970
1961
1978
1993
2004
1995
1997
2017
2015
2013
2034
2045
2011
1959
1912
1900
1944
2004
2025
2012
2003
1995
1998
1992
1967
1950
1953
1926
1871
1857
1886
1925
1980
1994
2022
2061
2024
1981
1968
1963
1950
1954
1967
1955
1956
1952
1962
1967
1955
1920
1890
1875
1895
1940
1975
1992
1974
1945
1936
1957
1987
1986
1957
1939
1931
1895
1886
1920
1975
2023
2031
2008
1987
1990
1975
1953
1931
1935
1945
1942
1950
1973
1955
1954
1975
1976
1962
1939
1948
1958
1977
1981
1960
1949
1935
1921
1930
1949
1973
2004
2014
2014
2009
2007
1978
1973
1968
1964
2004
2013
1987
1924
1906
1926
1947
1972
1978
1973
1994
2052
2093
2083
2060
2055
2024
1986
1976
1979
1988
2012
2043
2052
2045
2019
1989
1970
1962
1987
2007
1990
1948
1909
1918
1934
1963
1977
1974
1975
1976
1967
1968
1999
2042
2038
2003
1996
2003
2004
2003
1989
1942
1919
1950
1988
2017
2028
2008
1967
1955
1997
2034
2018
2022
2028
2022
2018
2023
2019
2008
1985
1990
1995
2003
2012
1995
1954
1929
1945
1969
1992
2020
2065
2081
2072
2083
2084
2074
2075
2062
2039
2052
2088
2093
2075
2072
2076
2048
2017
2014
2016
2025
2051
2048
2008
1995
2030
2061
2045
2038
2039
2037
2029
2010
1978
1980
2002
2005
2029
2056
2055
2022
2001
1999
2000
1984
1971
1970
2006
2073
2093
2061
2022
2006
2007
2012
1995
1970
1934
1912
1931
1976
2014
2037
2038
2020
1983
1929
1882
1847
1863
1933
2000
2034
2057
2077
2077
2080
2073
2074
2068
2054
2042
2037
2062
2058
2045
2054
2049
2018
1966
1961
1978
1975
1982
1997
2003
1997
1982
1991
2028
2085
2130
2147
2152
2151
2176
2237
2312
2394
2475
2533
2580
2628
2681
2699
2708
2737
2789
2853
2887
2893
2896
2903
2895
2855
2801
2751
2699
2639
2573
2528
2503
2484
2435
2346
2240
2161
2073
1967
1860
1775
1710
1661
1619
1583
1549
1544
1537
1529
1527
1517
1526
1568
1596
1658
1737
1767
1781
1796
1794
1780
1767
1811
1877
1931
1969
1962
1939
1935
1936
1936
1928
1928
1964
1980
1916
1845
1827
1844
1905
1943
1924
1914
1949
1939
1881
1820
1808
1862
1927
1957
1960
1959
1965
1962
1951
1941
1952
1944
1957
1987
1990
1970
1934
1887
1845
1821
1786
1799
1877
1959
1991
1962
1941
1951
1971
2000
2024
2049
2052
2030
2008
2024
2013
2023
2025
2008
1990
1980
1976
1975
1967
1952
1966
1990
1990
1976
1971
1970
1961
1967
1982
1998
2032
2051
2032
2014
1992
1980
2003
2023
2030
2007
1978
2000
2035
2084
2113
2100
2068
2032
2023
2053
2097
2089
2043
2018
2000
1960
1885
1824
1871
2002
2127
2158
2140
2126
2105
2097
2110
2125
2144
2152
2132
2092
2064
2040
2018
1996
2000
2014
2033
2063
2101
2123
2123
2139
2137
2104
2069
2084
2111
2116
2129
2136
2134
2121
2102
2106
2116
2111
2105
2088
2088
2083
2062
2045
2056
2085
2121
2142
2155
2177
2156
2124
2114
2121
2131
2168
2196
2148
2066
2030
2026
2021
2001
2037
2079
2062
2028
2017
2035
2040
2055
2090
2113
2090
2058
2013
1976
1992
2025
2046
2053
2039
2032
2033
2031
2038
2055
2051
2029
1997
1997
2012
2015
1998
1982
1984
1982
1993
2036
2078
2065
2036
2043
2057
2077
2087
2080
2080
2089
2090
2057
2024
1996
2013
2019
2049
2082
2100
2115
2112
2128
2132
2123
2111
2095
2073
2055
2027
2017
2025
2067
2117
2134
2105
2087
2115
2176
2198
2164
2117
2095
2098
2103
2094
2098
2079
2054
2054
2080
2124
2137
2133
2113
2102
2097
2092
2086
2089
2112
2131
2136
2128
2131
2150
2148
2123
2081
2031
1987
1976
2011
2090
2177
2228
2200
2150
2135
2152
2156
2161
2155
2126
2119
2114
2104
2114
2100
2071
2042
2037
2046
2065
2104
2133
2142
2127
2112
2125
2132
2146
2160
2156
2142
2129
2159
2202
2176
2125
2105
2124
2157
2142
2104
2092
2118
2157
2165
2169
2187
2171
2146
2136
2140
2141
2143
2142
2136
2141
2132
2114
2104
2104
2116
2147
2153
2143
2134
2156
2199
2210
2157
2115
2141
2194
2224
2220
2187
2169
2147
2152
2179
2176
2158
2159
2165
2156
2133
2121
2123
2149
2193
2245
2274
2264
2224
2181
2147
2120
2144
2188
2205
2200
2158
2124
2133
2146
2157
2164
2161
2146
2152
2159
2171
2199
2230
2220
2190
2177
2142
2083
2019
2014
2061
2113
2144
2152
2138
2117
2107
2124
2157
2179
2165
2112
2101
2119
2092
2067
2079
2105
2131
2134
2130
2107
2120
2127
2090
2064
2041
2055
2105
2140
2138
2119
2128
2160
2188
2174
2129
2075
2047
2052
2068
2085
2094
2082
2056
2037
2048
2057
2051
2009
1959
1942
1971
2021
2085
2143
2147
2137
2145
2201
2276
2348
2429
2488
2545
2618
2685
2732
2766
2807
2871
2928
2978
3016
3046
3036
3014
3006
2975
2934
2903
2880
2842
2803
2758
2708
2663
2626
2568
2527
2487
2409
2303
2178
2061
1975
1900
1836
1786
1756
1710
1663
1628
1630
1671
1716
1750
1796
1851
1872
1912
1956
1951
1940
1926
1912
1915
1922
1928
1958
2004
2027
2013
1992
1962
2006
2060
2066
2024
1992
2000
1987
1953
1947
1961
1962
1995
2022
2013
2002
2033
2067
2079
2089
2092
2080
2072
2093
2112
2105
2089
2079
2078
2074
2062
2037
2032
2044
2040
2000
1972
1971
1995
1996
1999
2029
2070
2081
2033
1980
1976
2014
2051
2077
2082
2092
2098
2079
2051
2029
2035
2058
2064
2045
2040
2041
2073
2075
2054
2083
2141
2133
2129
2124
2113
2083
2043
2030
2047
2062
2087
2089
2058
2034
2024
2030
2043
2037
2019
2010
2014
2006
1995
1990
1991
2025
2069
2126
2165
2149
2096
2030
2010
2061
2114
2153
2170
2125
2071
2046
2017
2006
2016
2063
2104
2131
2149
2148
2139
2106
2075
2081
2106
2140
2134
2108
2100
2098
2113
2159
2129
2083
2065
2075
2117
2150
2147
2114
2105
2129
2151
2162
2157
2134
2101
2061
2040
2022
2027
2078
2127
2152
2144
2124
2120
2118
2101
2087
2103
2128
2126
2117
2106
2085
2064
2054
2075
2070
2073
2079
2055
2009
1998
2028
2059
2064
2074
2058
2027
2018
2039
2052
2044
2024
1984
1963
1952
1963
1975
1990
2010
2038
2033
2002
1987
2006
2006
1979
1945
1953
1957
1945
1917
1896
1905
1930
1947
1957
1937
1932
1947
1959
1967
1959
1942
1931
1912
1915
1934
1945
1944
1961
1986
1973
1913
1886
1883
1877
1887
1875
1861
1851
1860
1881
1883
1891
1932
1959
1945
1919
1921
1949
1951
1920
1906
1899
1904
1900
1915
1944
1971
1950
1925
1912
1896
1902
1908
1916
1923
1870
1806
1787
1826
1871
1923
1954
1943
1902
1892
1901
1919
1908
1899
1888
1897
1899
1891
1876
1870
1875
1888
1894
1896
1897
1892
1884
1860
1822
1856
1946
1992
1969
1910
1822
1776
1799
1852
1917
1949
1925
1899
1905
1905
1908
1925
1946
1954
1949
1942
1959
1980
1977
1951
1915
1890
1907
1927
1937
1904
1845
1847
1878
1872
1827
1803
1803
1831
1888
1944
1957
1966
1957
1928
1900
1885
1876
1863
1886
1897
1910
1912
1909
1894
1867
1858
1857
1850
1880
1899
1898
1926
1950
1936
1907
1874
1843
1844
1870
1929
1970
1977
1975
1977
1948
1915
1890
1910
1929
1922
1916
1923
1946
1958
1952
1941
1914
1896
1905
1933
1969
1963
1959
1970
1954
1914
1889
1880
1867
1851
1856
1879
1916
1939
1954
1961
1940
1895
1857
1819
1787
1827
1888
1894
1888
1900
1855
1786
1789
1814
1832
1849
1851
1854
1866
1881
1901
1929
1947
1952
1963
1952
1917
1892
1864
1835
1856
1866
1857
1883
1920
1934
1959
1970
1973
1980
1949
1893
1881
1902
1892
1887
1889
1903
1912
1921
1932
1916
1867
1832
1828
1853
1877
1865
1846
1825
1818
1819
1846
1877
1877
1899
1938
1977
2022
2086
2150
2204
2249
2302
2365
2421
2499
2584
2652
2712
2763
2786
2806
2826
2840
2839
2832
2853
2867
2831
2769
2732
2691
2634
2591
2576
2564
2508
2439
2347
2277
2248
2224
2167
2034
1897
1783
1704
1624
1583
1562
1533
1533
1563
1571
1579
1596
1620
1624
1650
1701
1739
1768
1779
1773
1782
1815
1864
1868
1833
1818
1847
1877
1875
1884
1900
1910
1939
1944
1941
1943
1952
1947
1924
1929
1944
1923
1871
1830
1839
1871
1890
1920
1927
1925
1921
1922
1947
1966
1962
1953
1963
1984
2016
2027
2016
2000
1955
1926
1959
1986
1976
1987
2029
2030
1995
1971
1984
2003
2020
2039
2036
2010
1996
1986
1983
1999
1997
2014
2066
2100
2097
2061
2013
1980
1989
2025
2046
2038
2058
2102
2114
2099
2077
2063
2069
2067
2047
2042
2040
2038
2037
2026
2032
2062
2093
2094
2089
2069
2044
2031
2059
2078
2087
2088
2114
2141
2145
2135
2123
2121
2127
2127
2111
2076
2055
2041
2030
2029
2061
2130
2179
2156
2103
2043
2034
2068
2100
2129
2163
2187
2191
2204
2224
2239
2237
2212
2189
2162
2163
2157
2143
2106
2062
1996
1980
1992
2012
2059
2105
2168
2204
2192
2194
2192
2191
2191
2210
2240
2248
2209
2163
2147
2155
2141
2120
2108
2104
2103
2115
2118
2104
2084
2045
2023
2045
2072
2082
2078
2087
2075
2062
2053
2042
2054
2045
2052
2063
2054
2083
2107
2089
2059
2018
1976
1954
1964
1983
1998
2008
2012
1996
1983
1976
1994
2028
2055
2016
1955
1968
2006
2041
2052
2023
1983
1961
1972
2012
2050
2054
2031
1997
1967
1949
1927
1930
1945
1977
1987
2001
2011
1982
1946
1955
2028
2100
2090
2061
2042
2018
2027
2036
2036
2032
2022
1998
2002
2006
1996
1992
1996
1981
1946
1918
1915
1942
1972
2007
2042
2050
2021
1995
1994
2024
2058
2080
2071
2048
2042
2049
2037
2016
2023
2008
2011
2016
2031
2028
2008
1981
1968
2000
2046
2087
2088
2080
2094
2090
2068
2042
2014
2001
2022
2057
2071
2065
2039
2018
2013
2012
2042
2063
2045
2014
2013
2031
2030
2046
2074
2083
2075
2062
2053
2064
2096
2085
2047
2029
2039
2039
2023
2011
2004
2000
1973
1972
2019
2059
2059
2041
2032
2029
2033
2054
2078
2080
2068
2059
2038
2004
2003
2043
2088
2098
2077
2061
2036
2027
2046
2077
2096
2099
2102
2086
2069
2056
2053
2035
2036
2045
2044
2049
2071
2104
2126
2124
2140
2143
2113
2079
2045
2023
2038
2052
2043
2043
2063
2087
2067
2039
2023
2018
2037
2062
2078
2088
2099
2114
2119
2124
2132
2131
2118
2080
2049
2039
2050
2063
2048
2019
2011
2000
1998
2024
2027
2001
1963
1926
1919
1958
1998
2022
2041
2050
2043
2025
2015
2013
1994
1985
1979
1994
1990
1990
1966
1951
1975
2036
2076
2048
2020
2015
2049
2093
2123
2113
2097
2081
2088
2079
2045
2007
1995
2031
2081
2122
2121
2088
2079
2086
2069
2042
2012
1991
1991
1973
1944
1955
1963
1958
1958
1964
1960
1943
1917
1898
1889
1893
1925
1944
1930
1904
1880
1859
1886
1949
2024
2082
2128
2155
2164
2199
2288
2374
2419
2465
2547
2638
2719
2793
2836
2815
2775
2810
2877
2918
2920
2931
2929
2896
2847
2789
2737
2689
2632
2571
2553
2586
2609
2565
2462
2328
2210
2126
2047
1939
1842
1771
1680
1595
1547
1526
1528
1528
1525
1523
1553
1590
1620
1644
1670
1698
1729
1755
1789
1814
1842
1872
1887
1886
1883
1890
1903
1900
1906
1932
1933
1895
1858
1858
1877
1914
1954
1967
1944
1901
1880
1878
1892
1924
1956
1964
1967
1968
1963
1976
2001
2012
2031
2024
1973
1922
1913
1961
2013
2022
2007
2016
2039
2048
2046
2041
2016
1981
1983
1970
1960
1989
2025
2022
2021
2017
2007
2009
2006
1999
2003
2024
2015
1996
1974
1976
1994
2021
2033
2025
2005
2009
2035
2060
2046
2025
2030
2025
2004
2004
2023
2054
2053
2072
2112
2119
2120
2117
2090
2056
2039
2046
2056
2029
2009
2025
2064
2068
2039
2036
2063
2094
2097
2071
2062
2086
2130
2140
2118
2089
2099
2115
2108
2097
2075
2096
2118
2107
2072
2061
2091
2109
2106
2112
2114
2105
2091
2099
2113
2111
2113
2137
2158
2170
2176
2165
2150
2148
2161
2194
2210
2186
2150
2130
2114
2125
2156
2191
2178
2139
2108
2110
2125
2126
2138
2146
2148
2158
2180
2201
2193
2165
2113
2108
2137
2171
2177
2171
2184
2172
2110
2059
2046
2073
2096
2116
2144
2149
2121
2076
2047
2042
2033
2056
2097
2097
2060
2045
2060
2071
2070
2087
2094
2080
2058
2044
2019
2020
2021
2014
2048
2082
2067
2028
2020
2036
2022
2019
2037
2053
2053
2034
2021
2021
1989
1948
1921
1906
1926
1970
2008
2040
2040
2027
2022
2031
2032
2026
2017
2021
2031
2033
2027
2024
2021
2030
2034
2022
2032
2050
2039
2031
2030
2027
2050
2087
2074
2057
2055
2046
2053
2052
2054
2035
1999
1992
2024
2065
2072
2045
2029
2044
2068
2081
2091
2085
2068
2056
2046
2042
2056
2042
2022
2003
1970
1922
1907
1932
1977
2017
2048
2065
2073
2050
2018
1993
1978
2001
2022
2037
2056
2053
2043
2036
2042
2033
2051
2071
2078
2097
2130
2139
2109
2081
2071
2055
2029
2007
2009
2033
2039
2029
2016
2027
2056
2068
2062
2050
2028
1993
1969
1970
1987
2022
2067
2079
2082
2083
2078
2066
2044
2037
2052
2052
2052
2058
2053
2025
2004
1988
2002
2046
2063
2040
2028
2024
2034
2019
2017
2026
2026
2023
2013
2001
2019
2055
2085
2102
2108
2100
2099
2103
2085
2073
2092
2106
2078
2069
2103
2130
2145
2122
2089
2078
2095
2122
2148
2134
2095
2050
2059
2098
2102
2057
2040
2081
2093
2094
2103
2094
2092
2104
2090
2060
2035
2048
2066
2072
2066
2058
2048
2041
2025
2010
2020
2028
2016
1992
1981
2019
2078
2101
2072
2047
2039
2022
2000
1987
2000
1991
1981
1982
1972
1970
1982
2016
2056
2073
2055
2042
2035
2020
2024
2039
2058
2082
2097
2112
2129
2136
2162
2168
2099
2052
2063
2077
2071
2049
2003
1979
1995
2039
2083
2084
2088
2071
2038
2020
2022
2024
2026
2052
2062
2051
2049
2040
2033
2031
2011
1985
1991
2046
2111
2163
2210
2247
2273
2288
2326
2420
2515
2588
2636
2686
2751
2806
2852
2914
2955
2974
2982
3005
3041
3047
3011
2966
2930
2893
2831
2748
2680
2638
2611
2582
2536
2468
2384
2297
2193
2068
1937
1828
1746
1703
1700
1675
1644
1633
1624
1615
1614
1638
1676
1725
1741
1732
1736
1755
1784
1813
1835
1860
1894
1914
1924
1918
1910
1895
1888
1900
1926
1934
1910
1926
1971
1969
1954
1954
1956
1937
1967
2039
2068
2029
1990
1979
2011
2055
2054
2041
2029
2021
2024
2007
1977
1966
1962
1946
1955
1995
2044
2076
2078
2045
2031
2059
2070
2045
2024
1994
2001
2028
2052
2066
2065
2045
2040
2032
2027
2039
2059
2052
2054
2065
2057
2037
2060
2097
2126
2122
2098
2059
2045
2073
2108
2113
2101
2101
2094
2072
2043
2017
2029
2067
2106
2139
2170
2180
2145
2102
2099
2104
2099
2107
2133
2153
2160
2142
2107
2095
2129
2145
2163
2182
2185
2180
2176
2157
2146
2153
2168
2183
2194
2184
2167
2164
2146
2154
2198
2233
2227
2206
2228
2226
2231
2238
2217
2192
2166
2168
2172
2165
2188
2219
2218
2225
2231
2232
2219
2191
2176
2169
2164
2184
2214
2236
2236
2210
2158
2093
2086
2135
2176
2192
2137
2082
2065
2077
2074
2082
2123
2160
2170
2158
2152
2161
2152
2152
2131
2080
2041
2012
2035
2057
2050
2070
2086
2091
2093
2093
2069
2030
2008
2006
1995
1981
1969
1984
2001
2010
2014
2003
1975
1955
1962
1984
1973
1987
2038
2085
2104
2094
2105
2087
2046
2027
2038
2059
2049
2015
1980
1967
1957
1961
1965
1965
1947
1927
1919
1918
1931
1957
1969
1968
1964
1959
1957
1944
1922
1910
1934
1976
1982
1959
1942
1933
1926
1928
1957
1988
2005
1993
1968
1960
1965
1962
1944
1926
1922
1942
1940
1944
1951
1960
1958
1944
1930
1952
1971
1976
1984
1996
2012
2008
1994
1989
1993
1964
1913
1905
1924
1970
2005
1989
1951
1941
1950
1974
1999
1976
1961
1986
2018
2064
2090
2095
2095
2076
2045
2015
1994
1991
1985
1991
1999
1991
1999
2010
2028
2044
2047
2062
2065
2050
2024
2013
2026
2044
2069
2091
2087
2065
2059
2071
2062
2048
2033
2016
2003
2004
2024
2033
2017
1998
1993
1980
1949
1934
1956
1987
2003
2012
2015
2020
2019
2033
2051
2066
2059
2047
2038
2022
2011
2010
2004
2001
2004
2012
2016
2030
2022
2017
2026
2041
2078
2101
2084
2057
2059
2052
2056
2092
2105
2074
2040
2026
2027
2028
2020
2003
2002
2009
2016
2035
2054
2080
2118
2135
2123
2090
2059
2052
2064
2064
2045
2016
1982
1963
1968
1974
1979
2007
2043
2072
2085
2067
2035
2016
2011
2030
2066
2076
2057
2059
2068
2049
2031
2025
2019
2009
1997
2011
2028
2022
1996
1956
1943
1977
1994
1987
1984
2011
2005
1998
2017
2011
1981
1979
1998
2025
2042
2044
2051
2067
2092
2078
2054
2038
2035
2023
1996
1972
1988
2024
2055
2052
2046
2031
2006
2000
1998
1986
2011
2047
2064
2062
2054
2023
1980
1964
1970
1976
1971
1953
1974
2016
2059
2115
2163
2220
2280
2356
2412
2453
2515
2582
2646
2701
2732
2769
2795
2803
2831
2873
2902
2898
2849
2809
2789
2791
2801
2780
2736
2679
2618
2568
2531
2480
2416
2370
2316
2218
2117
2013
1907
1802
1711
1658
1654
1671
1658
1640
1640
1638
1631
1653
1688
1712
1736
1746
1740
1742
1782
1841
1896
1914
1914
1925
1942
1949
1968
1962
1959
1980
1996
2011
2010
2006
1997
1996
1985
1969
1961
1977
2006
2006
2006
1988
1976
1966
1940
1940
1964
1992
2018
2034
2040
2004
1971
1951
1936
1937
1987
2030
2046
2065
2069
2048
2047
2028
2005
1995
2013
2025
2051
2095
2115
2101
2107
2144
2145
2118
2127
2160
2179
2169
2120
2066
2065
2080
2062
2044
2038
2022
2029
2053
2072
2110
2131
2105
2067
2043
2020
2017
2041
2065
2086
2097
2111
2123
2125
2115
2099
2080
2072
2079
2095
2086
2067
2057
2026
2005
2023
2022
2025
2070
2119
2137
2141
2125
2108
2100
2077
2073
2089
2091
2095
2104
2106
2084
2084
2108
2121
2106
2093
2087
2080
2063
2048
2047
2056
2048
2039
2046
2048
2064
2092
2143
2170
2151
2139
2144
2119
2080
2081
2121
2162
2151
2126
2109
2123
2144
2162
2165
2161
2155
2149
2140
2123
2106
2097
2080
2075
2101
2129
2185
2244
2227
2153
2083
2090
2165
2231
2252
2199
2136
2108
2102
2111
2112
2108
2132
2160
2160
2144
2159
2179
2188
2193
2194
2181
2176
2190
2212
2223
2221
2194
2154
2108
2096
2084
2079
2095
2109
2116
2114
2113
2086
2035
2014
2038
2063
2105
2153
2173
2171
2170
2159
2144
2151
2179
2165
2140
2128
2131
2120
2105
2095
2084
2081
2057
2039
2063
2110
2130
2126
2114
2131
2160
2162
2153
2106
2047
2003
2026
2068
2083
2079
2085
2086
2061
2023
1993
2005
2058
2111
2133
2123
2105
2083
2084
2061
2038
2012
2003
1996
2011
2050
2063
2049
2049
2051
2068
2086
2059
2010
2002
2058
2108
2107
2070
2005
1981
2005
2036
2060
2058
2054
2084
2116
2096
2052
2021
2036
2037
2029
2040
2053
2050
2023
1981
1970
1995
2056
2106
2098
2035
1972
1965
2004
2046
2060
2079
2137
2133
2074
2049
2069
2108
2111
2068
2013
1991
2024
2081
2099
2078
2070
2118
2157
2132
2095
2064
2045
2022
2009
2023
2051
2060
2035
2016
2022
2032
2035
2053
2090
2114
2089
2054
2014
2003
2024
2022
2036
2067
2074
2069
2026
1977
1945
1942
1951
1973
2023
2100
2136
2119
2092
2097
2111
2121
2162
2170
2169
2175
2167
2179
2153
2117
2117
2123
2125
2129
2134
2146
2124
2066
2037
2068
2144
2208
2196
2166
2119
2076
2070
2068
2082
2089
2112
2146
2176
2155
2086
2053
2055
2066
2090
2120
2112
2099
2131
2174
2195
2168
2103
2072
2064
2048
2059
2052
2048
2075
2102
2109
2130
2150
2153
2157
2150
2159
2158
2141
2107
2083
2108
2173
2203
2201
2171
2148
2141
2165
2211
2222
2191
2149
2112
2114
2140
2191
2222
2180
2138
2133
2125
2106
2083
2061
2077
2109
2164
2221
2264
2310
2351
2398
2465
2539
2615
2672
2723
2777
2837
2881
2937
2996
3028
3048
3036
3029
3022
2981
2913
2823
2750
2708
2646
2577
2555
2564
2550
2526
2497
2438
2346
2253
2147
2047
1936
1821
1780
1775
1788
1823
1839
1835
1807
1789
1784
1786
1804
1831
1877
1907
1931
1972
1992
2011
2031
2055
2072
2090
2101
2101
2083
2039
2010
2003
2009
2024
2069
2104
2092
2062
2036
2023
2005
2023
2045
2052
2090
2139
2158
2114
2049
2003
1966
1951
1952
1962
1967
1975
1999
2041
2069
2072
2067
2059
2046
2038
2042
2025
2019
2025
2036
2042
2053
2085
2138
2142
2121
2114
2131
2176
2205
2170
2107
2071
2072
2053
2027
2014
2014
2041
2068
2069
2071
2080
2106
2125
2153
2176
2166
2125
2095
2086
2103
2135
2135
2114
2104
2120
2148
2143
2126
2109
2122
2156
2176
2165
2165
2185
2198
2222
2233
2230
2202
2177
2172
2178
2161
2139
2105
2102
2121
2120
2110
2122
2158
2191
2193
2204
2211
2180
2152
2157
2189
2234
2233
2228
2214
2224
2253
2279
2257
2203
2173
2179
2188
2173
2147
2125
2116
2112
2092
2063
2058
2070
2075
2070
2090
2117
2127
2124
2125
2128
2129
2109
2067
2017
1988
1992
1973
1965
2007
2063
2082
2084
2095
2112
2107
2066
2023
2003
1960
1931
1944
1959
1993
2007
1976
1941
1898
1872
1901
1941
1930
1916
1904
1901
1891
1912
1954
1966
1957
1945
1935
1924
1917
1914
1912
1916
1912
1892
1886
1867
1853
1865
1886
1901
1883
1899
1950
1973
1945
1871
1813
1834
1893
1920
1898
1849
1816
1821
1841
1864
1895
1908
1865
1844
1817
1779
1738
1723
1746
1779
1813
1838
1827
1828
1856
1862
1855
1825
1813
1833
1855
1857
1831
1814
1832
1842
1855
1872
1885
1870
1853
1870
1880
1874
1851
1837
1825
1825
1844
1859
1853
1846
1817
1788
1796
1845
1906
1934
1899
1858
1851
1883
1934
1940
1917
1893
1873
1865
1853
1855
1868
1892
1902
1894
1883
1868
1860
1861
1863
1885
1903
1885
1861
1854
1864
1861
1861
1882
1898
1910
1906
1918
1932
1935
1920
1893
1901
1941
1966
1948
1907
1879
1874
1865
1851
1866
1875
1864
1846
1835
1835
1849
1854
1862
1868
1855
1832
1837
1881
1924
1926
1921
1914
1911
1933
1963
1977
1957
1926
1904
1890
1872
1883
1903
1918
1941
1946
1959
1981
1956
1942
1956
1957
1966
1963
1927
1907
1917
1940
1959
1980
2010
2005
1986
1998
2014
2015
2010
1998
1997
2018
2024
2013
1992
1997
1997
1986
1989
2012
2036
2020
2004
1985
1999
2034
2050
2034
2023
2022
2003
1989
1979
1971
1970
1963
1943
1911
1897
1896
1897
1927
1953
1930
1894
1903
1939
1972
1976
1954
1962
1988
1965
1950
1951
1933
1931
1952
1963
1959
1943
1934
1959
1989
2000
2031
2062
2035
2001
2001
2005
2026
2044
2059
2054
2030
2011
1997
2009
2018
2040
2040
1998
1962
1946
1963
2013
2052
2036
1984
1943
1920
1896
1915
1947
1948
1916
1884
1892
1920
1965
1986
1990
2003
2040
2091
2134
2164
2184
2228
2277
2326
2383
2441
2510
2565
2598
2651
2722
2797
2866
2891
2895
2904
2884
2860
2835
2821
2810
2811
2779
2743
2722
2721
2704
2658
2600
2536
2469
2385
2290
2183
2087
2005
1930
1847
1776
1736
1690
1637
1611
1621
1651
1704
1734
1736
1743
1780
1822
1832
1876
1953
1993
2007
1998
1972
1962
1965
1980
2002
2038
2080
2103
2103
2087
2065
2027
1986
1973
1972
1974
1988
2017
2017
1969
1927
1960
2006
2043
2039
2027
2027
2048
2069
2074
2082
2097
2095
2090
2077
2049
2031
2041
2091
2117
2091
2050
2042
2047
2054
2044
2030
2042
2070
2093
2087
2076
2089
2099
2087
2076
2065
2052
2032
2019
2029
2049
2079
2104
2114
2125
2091
2056
2045
2047
2051
2039
2022
2009
2022
2041
2044
2069
2122
2146
2125
2103
2106
2130
2127
2122
2132
2130
2103
2087
2100
2132
2133
2112
2067
2031
2030
2058
2102
2129
2140
2149
2155
2161
2148
2149
2147
2135
2136
2143
2142
2132
2149
2181
2178
2149
2124
2113
2150
2193
2236
2232
2199
2148
2121
2113
2126
2156
2146
2111
2088
2085
2098
2112
2127
2130
2122
2105
2083
2081
2110
2114
2109
2100
2096
2124
2146
2145
2158
2149
2140
2112
2101
2127
2148
2145
2142
2130
2119
2103
2077
2070
2080
2099
2092
2048
2024
2043
2067
2084
2102
2113
2125
2143
2123
2073
2048
2011
1995
2018
2011
1989
1990
2000
2002
2011
2004
1969
1946
1938
1943
1962
1967
1955
1977
1990
1974
1971
1967
1951
1937
1927
1921
1914
1904
1909
1933
1953
1967
1982
2003
2019
1996
1968
1954
1968
1985
1989
1989
1980
1958
1921
1873
1878
1929
1969
1989
2009
2008
1981
1958
1955
1970
2002
2020
2010
2023
2042
2035
2017
1996
1971
1967
1989
2000
2016
2041
2063
2076
2069
2063
2039
2004
1994
1974
1929
1942
1978
2007
2049
2072
2068
2068
2068
2069
2053
2029
2015
2009
2015
2022
2043
2067
2064
2033
2025
2054
2078
2088
2079
2065
2046
2029
2024
2046
2056
2017
1999
2008
2028
2050
2046
2027
2024
2036
2035
2030
2023
2022
2033
2071
2112
2107
2047
1987
1966
1988
1989
1973
1993
2047
2077
2067
2028
1994
1995
1996
1993
1992
1980
1964
1952
1954
1982
2002
2036
2066
2069
2054
2033
2019
2008
2003
2022
2055
2060
2042
2026
2021
2006
1982
1971
1979
1961
1940
1958
1982
2000
2027
2018
1996
1990
2006
2007
2003
1993
1990
1993
2007
2018
2020
2023
2034
2051
2072
2108
2126
2111
2098
2070
2033
2010
2008
2013
2016
2024
2045
2051
2050
2040
1997
1980
1982
2003
2036
2067
2070
2063
2051
2043
2068
2073
2055
2031
2032
2040
2047
2061
2059
2031
1993
1975
1951
1936
1941
1922
1920
1958
2000
2032
2040
2027
2018
2008
1968
1934
1936
1959
1958
1946
1956
1985
2016
2021
2008
1966
1938
1943
1957
1975
2000
2011
1992
1965
1938
1933
1954
1959
1956
1972
2006
2039
2076
2088
2062
2040
2019
2000
1994
1980
1978
1985
1976
1959
1943
1956
1964
1973
2009
2031
2020
2026
2034
2019
1993
1966
1957
1965
1961
1947
1947
1971
1976
1942
1916
1894
1909
1942
1986
2043
2114
2186
2254
2318
2369
2419
2479
2534
2594
2653
2726
2808
2865
2908
2917
2911
2923
2944
2949
2924
2887
2840
2814
2775
2721
2658
2594
2538
2501
2457
2408
2342
2263
2197
2112
1996
1873
1768
1694
1646
1599
1565
1548
1544
1548
1572
1598
1608
1624
1651
1655
1662
1695
1750
1789
1786
1778
1778
1786
1814
1844
1865
1852
1854
1860
1854
1856
1883
1938
1967
1976
1979
1994
1982
1962
1939
1920
1895
1864
1855
1860
1871
1897
1894
1886
1882
1883
1864
1867
1902
1939
1966
1982
1989
1971
1943
1940
1976
2009
2030
2029
1995
1968
1959
1946
1926
