# bioPlux Text File Format
# Version: 1
# StartDateTime: 2011-07-18 09:08:23
# SamplingFrequency: 1000
# SampledChannels: 1 2 3 4
# SamplingResolution: 12
# AcquiringDevice: 00:07:80:42:0F:95
# EndOfHeader
0	0	0	2783	4	1700	1685
1	0	0	2537	4	1702	1684
2	0	0	2280	4	1703	1684
3	0	0	2075	4	1701	1684
4	0	0	1862	3	1704	1684
5	0	0	1602	4	1707	1684
6	0	0	1301	4	1706	1685
7	0	0	1083	3	1710	1684
8	0	0	996	4	1710	1684
9	0	0	924	4	1714	1684
10	0	0	805	5	1713	1684
11	0	0	1125	5	1714	1684
12	0	0	1585	4	1713	1684
13	0	0	2020	5	1711	1684
14	0	0	2671	4	1708	1685
15	0	0	3130	5	1706	1684
16	0	0	3294	5	1702	1684
17	0	0	3339	4	1700	1685
18	0	0	3304	4	1698	1684
19	0	0	3108	4	1699	1684
20	0	0	2795	4	1698	1685
21	0	0	2476	4	1700	1684
22	0	0	2181	4	1701	1685
23	0	0	1974	4	1702	1684
24	0	0	1751	4	1702	1684
25	0	0	1454	3	1705	1684
26	0	0	1097	4	1707	1684
27	0	0	856	3	1710	1684
28	0	0	792	5	1712	1685
29	0	0	734	4	1715	1684
30	0	0	639	5	1715	1684
31	0	0	1067	4	1713	1685
32	0	0	1619	4	1713	1685
33	0	0	2118	5	1709	1684
34	0	0	2872	4	1706	1685
35	0	0	3372	5	1704	1684
36	0	0	3540	5	1701	1684
37	0	0	3544	4	1698	1684
38	0	0	3460	4	1697	1684
39	0	0	3193	4	1697	1684
40	0	0	2804	4	1697	1684
41	0	0	2439	4	1698	1684
42	0	0	2131	3	1700	1685
43	0	0	1918	4	1701	1685
44	0	0	1695	4	1703	1685
45	0	0	1368	3	1704	1684
46	0	0	972	4	1707	1684
47	0	0	723	4	1711	1685
48	0	0	667	5	1712	1684
49	0	0	614	2	1715	1685
50	0	0	537	5	1715	1684
51	0	0	1022	5	1714	1684
52	0	0	1622	4	1712	1684
53	0	0	2164	5	1709	1684
54	0	0	2928	5	1704	1684
55	0	0	3402	5	1702	1684
56	0	0	3671	5	1699	1684
57	0	0	3624	3	1698	1685
58	0	0	3511	4	1696	1684
59	0	0	3218	4	1696	1684
60	0	0	2784	4	1694	1684
61	0	0	2404	4	1696	1684
62	0	0	2090	3	1699	1684
63	0	0	1877	4	1700	1684
64	0	0	1653	4	1703	1684
65	0	0	1324	4	1703	1684
66	0	0	920	4	1706	1684
67	0	0	664	4	1710	1685
68	0	0	613	4	1711	1684
69	0	0	563	4	1715	1685
70	0	0	507	5	1715	1685
71	0	0	1015	4	1714	1684
72	0	0	1635	4	1713	1685
73	0	0	2198	4	1707	1684
74	0	0	2950	5	1705	1684
75	0	0	3415	5	1701	1684
76	0	0	3690	5	1699	1685
77	0	0	3666	4	1697	1684
78	0	0	3552	4	1694	1684
79	0	0	3239	4	1694	1684
80	0	0	2791	4	1694	1684
81	0	0	2407	3	1695	1684
82	0	0	2084	3	1697	1685
83	0	0	1867	3	1698	1685
84	0	0	1637	3	1701	1684
85	0	0	1305	3	1704	1684
86	0	0	898	3	1707	1685
87	0	0	645	4	1708	1685
88	0	0	596	5	1710	1684
89	0	0	562	4	1713	1684
90	0	0	498	4	1713	1684
91	0	0	1013	5	1711	1684
92	0	0	1643	4	1711	1684
93	0	0	2215	5	1706	1684
94	0	0	2962	5	1702	1684
95	0	0	3423	5	1700	1684
96	0	0	3694	4	1697	1684
97	0	0	3692	4	1696	1684
98	0	0	3574	4	1693	1684
99	0	0	3266	4	1694	1685
100	0	0	2810	4	1693	1684
101	0	0	2411	4	1694	1684
102	0	0	2084	3	1697	1685
103	0	0	1862	4	1697	1684
104	0	0	1640	4	1698	1684
105	0	0	1314	3	1701	1684
106	0	0	905	4	1705	1685
107	0	0	645	3	1707	1684
108	0	0	599	4	1709	1684
109	0	0	552	3	1712	1684
110	0	0	499	5	1712	1684
111	0	0	1014	5	1711	1684
112	0	0	1643	5	1709	1685
113	0	0	2215	5	1706	1685
114	0	0	2968	5	1701	1684
115	0	0	3423	5	1699	1684
116	0	0	3694	5	1697	1684
117	0	0	3692	4	1694	1685
118	0	0	3577	4	1693	1684
119	0	0	3237	4	1693	1685
120	0	0	2779	4	1693	1684
121	0	0	2389	3	1692	1684
122	0	0	2074	3	1695	1685
123	0	0	1856	4	1695	1684
124	0	0	1625	4	1697	1684
125	0	0	1308	4	1702	1684
126	0	0	888	4	1704	1684
127	0	0	622	4	1706	1685
0	0	0	570	4	1708	1685
1	0	0	519	3	1712	1684
2	0	0	458	4	1710	1684
3	0	0	995	5	1709	1684
4	0	0	1633	3	1710	1685
5	0	0	2214	5	1704	1684
6	0	0	2969	5	1700	1684
7	0	0	3422	5	1697	1684
8	0	0	3695	5	1694	1684
9	0	0	3716	4	1693	1685
10	0	0	3591	4	1691	1684
11	0	0	3271	4	1691	1684
12	0	0	2813	4	1691	1684
13	0	0	2403	4	1692	1685
14	0	0	2075	3	1694	1684
15	0	0	1851	4	1696	1684
16	0	0	1622	3	1696	1684
17	0	0	1276	3	1700	1684
18	0	0	862	3	1702	1684
19	0	0	599	3	1705	1684
20	0	0	553	5	1707	1684
21	0	0	506	4	1710	1684
22	0	0	450	4	1711	1685
23	0	0	991	5	1709	1684
24	0	0	1631	4	1707	1685
25	0	0	2220	5	1703	1684
26	0	0	2975	5	1699	1684
27	0	0	3431	5	1696	1685
28	0	0	3698	5	1693	1684
29	0	0	3735	4	1693	1685
30	0	0	3611	4	1689	1684
31	0	0	3299	4	1690	1685
32	0	0	2819	3	1691	1684
33	0	0	2409	4	1691	1684
34	0	0	2077	4	1692	1685
35	0	0	1858	4	1693	1684
36	0	0	1619	4	1696	1684
37	0	0	1272	4	1699	1684
38	0	0	857	4	1702	1685
39	0	0	593	3	1703	1685
40	0	0	552	5	1706	1685
41	0	0	506	4	1708	1684
42	0	0	447	5	1709	1684
43	0	0	1001	4	1709	1684
44	0	0	1654	3	1707	1684
45	0	0	2240	4	1703	1684
46	0	0	2988	6	1698	1684
47	0	0	3439	5	1695	1685
48	0	0	3703	5	1693	1684
49	0	0	3757	3	1690	1684
50	0	0	3631	4	1689	1684
51	0	0	3289	4	1691	1685
52	0	0	2817	4	1689	1683
53	0	0	2407	4	1690	1685
54	0	0	2079	3	1692	1684
55	0	0	1864	4	1693	1684
56	0	0	1638	4	1693	1684
57	0	0	1286	4	1698	1684
58	0	0	855	4	1702	1685
59	0	0	591	3	1704	1685
60	0	0	549	4	1705	1684
61	0	0	499	4	1707	1684
62	0	0	446	5	1710	1685
63	0	0	993	4	1707	1684
64	0	0	1647	5	1706	1685
65	0	0	2242	4	1701	1684
66	0	0	2991	4	1696	1684
67	0	0	3437	5	1694	1684
68	0	0	3705	5	1691	1685
69	0	0	3761	3	1689	1685
70	0	0	3631	4	1687	1684
71	0	0	3289	4	1687	1684
72	0	0	2800	4	1688	1684
73	0	0	2393	4	1690	1685
74	0	0	2068	4	1691	1685
75	0	0	1851	4	1693	1684
76	0	0	1617	4	1694	1684
77	0	0	1277	4	1697	1685
78	0	0	853	4	1700	1685
79	0	0	586	4	1703	1685
80	0	0	540	4	1703	1684
81	0	0	482	3	1707	1684
82	0	0	436	5	1707	1684
83	0	0	992	4	1705	1685
84	0	0	1639	4	1704	1684
85	0	0	2232	5	1699	1684
86	0	0	2987	5	1696	1684
87	0	0	3435	5	1693	1684
88	0	0	3703	5	1689	1684
89	0	0	3753	4	1688	1685
90	0	0	3621	4	1687	1684
91	0	0	3282	4	1686	1684
92	0	0	2798	4	1688	1685
93	0	0	2388	4	1688	1685
94	0	0	2065	4	1689	1685
95	0	0	1847	4	1691	1685
96	0	0	1609	4	1692	1684
97	0	0	1258	4	1695	1684
98	0	0	839	4	1700	1684
99	0	0	568	2	1701	1684
100	0	0	527	4	1702	1684
101	0	0	488	3	1704	1684
102	0	0	429	4	1705	1685
103	0	0	987	4	1705	1684
104	0	0	1640	5	1704	1685
105	0	0	2239	4	1700	1684
106	0	0	2992	5	1694	1684
107	0	0	3443	5	1693	1685
108	0	0	3706	5	1690	1684
109	0	0	3772	4	1688	1685
110	0	0	3635	4	1685	1684
111	0	0	3299	4	1685	1685
112	0	0	2817	3	1685	1684
113	0	0	2402	3	1688	1684
114	0	0	2073	4	1688	1685
115	0	0	1855	4	1689	1684
116	0	0	1629	4	1692	1684
117	0	0	1273	4	1694	1684
118	0	0	842	4	1696	1684
119	0	0	571	3	1700	1685
120	0	0	525	5	1702	1684
121	0	0	475	3	1703	1684
122	0	0	424	4	1705	1684
123	0	0	992	5	1703	1684
124	0	0	1652	4	1702	1685
125	0	0	2247	5	1698	1685
126	0	0	2996	6	1695	1684
127	0	0	3445	5	1692	1684
0	0	0	3709	5	1688	1684
1	0	0	3784	4	1685	1685
2	0	0	3650	4	1683	1684
3	0	0	3316	3	1684	1684
4	0	0	2825	4	1685	1684
5	0	0	2412	4	1685	1684
6	0	0	2085	3	1687	1685
7	0	0	1863	5	1688	1684
8	0	0	1627	3	1690	1684
9	0	0	1272	4	1694	1684
10	0	0	839	4	1698	1685
11	0	0	575	4	1700	1685
12	0	0	533	5	1699	1684
13	0	0	492	4	1704	1685
14	0	0	437	4	1703	1684
15	0	0	996	5	1702	1684
16	0	0	1657	5	1701	1685
17	0	0	2245	5	1697	1684
18	0	0	2996	5	1693	1685
19	0	0	3446	5	1689	1684
20	0	0	3710	5	1684	1684
21	0	0	3781	4	1685	1685
22	0	0	3644	4	1682	1684
23	0	0	3298	4	1683	1684
24	0	0	2820	4	1684	1685
25	0	0	2407	3	1686	1685
26	0	0	2077	3	1685	1685
27	0	0	1853	4	1687	1684
28	0	0	1623	4	1688	1684
29	0	0	1260	4	1691	1684
30	0	0	828	3	1697	1684
31	0	0	565	4	1698	1685
32	0	0	521	4	1699	1684
33	0	0	476	3	1703	1684
34	0	0	424	6	1703	1684
35	0	0	989	5	1702	1684
36	0	0	1649	5	1700	1684
37	0	0	2248	5	1694	1684
38	0	0	2991	5	1690	1684
39	0	0	3444	5	1687	1684
40	0	0	3711	4	1685	1685
41	0	0	3776	5	1683	1686
42	0	0	3645	4	1680	1684
43	0	0	3311	4	1681	1684
44	0	0	2815	3	1681	1684
45	0	0	2399	4	1683	1684
46	0	0	2069	4	1685	1684
47	0	0	1843	4	1686	1684
48	0	0	1615	4	1687	1684
49	0	0	1270	3	1690	1684
50	0	0	835	4	1695	1684
51	0	0	556	4	1697	1684
52	0	0	508	4	1698	1685
53	0	0	438	3	1701	1684
54	0	0	408	5	1702	1684
55	0	0	988	5	1701	1685
56	0	0	1642	5	1699	1684
57	0	0	2244	5	1693	1684
58	0	0	2995	5	1689	1684
59	0	0	3446	4	1686	1684
60	0	0	3710	5	1685	1684
61	0	0	3788	4	1683	1684
62	0	0	3651	4	1679	1684
63	0	0	3294	4	1681	1685
64	0	0	2803	3	1681	1684
65	0	0	2388	3	1683	1684
66	0	0	2058	4	1682	1684
67	0	0	1842	4	1683	1684
68	0	0	1612	4	1686	1684
69	0	0	1257	4	1689	1684
70	0	0	831	4	1693	1684
71	0	0	563	4	1695	1685
72	0	0	522	4	1698	1685
73	0	0	475	3	1701	1684
74	0	0	419	5	1700	1684
75	0	0	993	5	1698	1684
76	0	0	1658	5	1698	1684
77	0	0	2258	6	1693	1684
78	0	0	3003	5	1690	1685
79	0	0	3454	5	1687	1685
80	0	0	3713	5	1683	1684
81	0	0	3789	4	1681	1684
82	0	0	3658	4	1680	1684
83	0	0	3302	4	1679	1684
84	0	0	2830	5	1680	1684
85	0	0	2410	4	1680	1684
86	0	0	2075	4	1681	1685
87	0	0	1849	4	1683	1684
88	0	0	1620	4	1685	1684
89	0	0	1258	3	1688	1684
90	0	0	825	4	1691	1684
91	0	0	560	3	1693	1684
92	0	0	518	5	1696	1685
93	0	0	464	4	1699	1684
94	0	0	404	4	1699	1684
95	0	0	982	5	1699	1685
96	0	0	1652	5	1696	1684
97	0	0	2256	5	1691	1684
98	0	0	3004	5	1688	1684
99	0	0	3452	4	1684	1684
100	0	0	3717	5	1682	1684
101	0	0	3798	4	1678	1684
102	0	0	3660	4	1676	1684
103	0	0	3312	4	1677	1684
104	0	0	2816	3	1678	1684
105	0	0	2399	4	1679	1684
106	0	0	2066	4	1680	1684
107	0	0	1843	4	1681	1684
108	0	0	1608	4	1683	1685
109	0	0	1255	4	1688	1684
110	0	0	820	3	1692	1684
111	0	0	552	4	1693	1685
112	0	0	508	4	1693	1684
113	0	0	456	4	1699	1685
114	0	0	410	4	1697	1684
115	0	0	986	5	1696	1684
116	0	0	1649	5	1693	1685
117	0	0	2261	5	1690	1684
118	0	0	3001	5	1685	1684
119	0	0	3451	5	1683	1684
120	0	0	3717	5	1681	1684
121	0	0	3786	4	1679	1685
122	0	0	3652	4	1676	1684
123	0	0	3299	4	1676	1684
124	0	0	2800	3	1677	1684
125	0	0	2391	4	1679	1685
126	0	0	2063	3	1679	1684
127	0	0	1847	4	1681	1685
0	0	0	1613	4	1682	1684
1	0	0	1250	4	1685	1684
2	0	0	817	4	1689	1684
3	0	0	553	4	1691	1684
4	0	0	514	4	1693	1684
5	0	0	469	4	1697	1684
6	0	0	418	4	1696	1684
7	0	0	987	5	1694	1684
8	0	0	1653	4	1695	1685
9	0	0	2265	5	1689	1684
10	0	0	3004	5	1685	1684
11	0	0	3454	5	1682	1684
12	0	0	3719	5	1678	1684
13	0	0	3801	4	1677	1684
14	0	0	3670	4	1676	1684
15	0	0	3318	4	1675	1684
16	0	0	2816	3	1677	1684
17	0	0	2401	3	1678	1684
18	0	0	2066	4	1679	1684
19	0	0	1848	4	1680	1685
20	0	0	1624	3	1682	1684
21	0	0	1269	4	1684	1684
22	0	0	832	4	1689	1685
23	0	0	562	4	1691	1684
24	0	0	521	4	1692	1684
25	0	0	458	4	1693	1684
26	0	0	415	4	1696	1684
27	0	0	991	4	1694	1684
28	0	0	1662	5	1693	1685
29	0	0	2273	5	1688	1684
30	0	0	3011	5	1684	1684
31	0	0	3457	5	1680	1684
32	0	0	3721	5	1679	1684
33	0	0	3800	5	1676	1685
34	0	0	3668	4	1674	1684
35	0	0	3323	4	1673	1685
36	0	0	2819	4	1675	1684
37	0	0	2409	4	1676	1684
38	0	0	2078	4	1677	1685
39	0	0	1853	4	1679	1684
40	0	0	1613	4	1680	1684
41	0	0	1260	3	1683	1684
42	0	0	821	4	1687	1684
43	0	0	548	4	1689	1684
44	0	0	504	5	1691	1684
45	0	0	454	4	1692	1684
46	0	0	409	4	1694	1684
47	0	0	985	4	1692	1684
48	0	0	1654	5	1690	1684
49	0	0	2266	5	1687	1685
50	0	0	3015	5	1682	1684
51	0	0	3456	5	1680	1684
52	0	0	3719	5	1677	1684
53	0	0	3793	4	1676	1685
54	0	0	3660	4	1671	1684
55	0	0	3297	4	1672	1684
56	0	0	2806	4	1673	1684
57	0	0	2390	4	1675	1684
58	0	0	2065	4	1674	1684
59	0	0	1845	4	1677	1684
60	0	0	1611	4	1680	1684
61	0	0	1252	3	1681	1684
62	0	0	809	3	1686	1684
63	0	0	538	4	1688	1684
64	0	0	498	5	1688	1684
65	0	0	443	4	1692	1684
66	0	0	404	4	1693	1684
67	0	0	988	5	1691	1685
68	0	0	1649	5	1691	1684
69	0	0	2262	4	1685	1684
70	0	0	3012	5	1683	1684
71	0	0	3455	5	1680	1684
72	0	0	3721	5	1675	1684
73	0	0	3801	4	1672	1685
74	0	0	3666	4	1670	1684
75	0	0	3317	4	1670	1684
76	0	0	2810	4	1673	1684
77	0	0	2392	4	1674	1684
78	0	0	2066	4	1676	1685
79	0	0	1845	4	1675	1684
80	0	0	1608	3	1677	1684
81	0	0	1246	4	1681	1684
82	0	0	812	4	1685	1684
83	0	0	545	4	1684	1684
84	0	0	507	4	1690	1685
85	0	0	451	4	1691	1684
86	0	0	420	4	1692	1684
87	0	0	1003	5	1691	1685
88	0	0	1660	5	1690	1684
89	0	0	2275	4	1685	1684
90	0	0	3020	5	1680	1684
91	0	0	3465	5	1676	1684
92	0	0	3724	5	1674	1684
93	0	0	3816	4	1671	1685
94	0	0	3680	4	1670	1684
95	0	0	3306	4	1668	1684
96	0	0	2807	4	1671	1684
97	0	0	2394	4	1673	1684
98	0	0	2069	4	1675	1685
99	0	0	1850	4	1675	1684
100	0	0	1620	4	1676	1684
101	0	0	1259	4	1679	1684
102	0	0	827	3	1684	1685
103	0	0	556	4	1685	1684
104	0	0	519	4	1687	1684
105	0	0	463	3	1690	1684
106	0	0	412	4	1692	1684
107	0	0	994	4	1690	1685
108	0	0	1667	5	1688	1684
109	0	0	2276	5	1683	1684
110	0	0	3020	5	1679	1684
111	0	0	3464	4	1676	1684
112	0	0	3724	5	1674	1684
113	0	0	3818	4	1672	1684
114	0	0	3683	4	1670	1685
115	0	0	3320	4	1669	1684
116	0	0	2825	4	1671	1684
117	0	0	2405	4	1670	1685
118	0	0	2074	4	1673	1684
119	0	0	1849	4	1673	1684
120	0	0	1621	3	1674	1684
121	0	0	1264	3	1680	1684
122	0	0	823	4	1682	1684
123	0	0	553	4	1685	1684
124	0	0	508	5	1686	1684
125	0	0	435	3	1689	1684
126	0	0	394	5	1689	1684
127	0	0	985	5	1689	1684
0	0	0	1660	4	1687	1684
1	0	0	2273	5	1682	1684
2	0	0	3019	4	1677	1685
3	0	0	3465	5	1674	1685
4	0	0	3727	5	1673	1684
5	0	0	3821	4	1670	1685
6	0	0	3679	4	1667	1684
7	0	0	3325	4	1668	1684
8	0	0	2822	4	1668	1684
9	0	0	2397	3	1669	1684
10	0	0	2062	4	1672	1684
11	0	0	1836	4	1671	1684
12	0	0	1603	3	1674	1684
13	0	0	1238	4	1679	1684
14	0	0	798	4	1681	1684
15	0	0	534	3	1683	1684
16	0	0	499	5	1684	1684
17	0	0	444	4	1688	1684
18	0	0	394	5	1689	1684
19	0	0	983	5	1687	1684
20	0	0	1654	4	1687	1684
21	0	0	2267	4	1681	1684
22	0	0	3015	5	1676	1684
23	0	0	3462	5	1673	1684
24	0	0	3727	5	1671	1685
25	0	0	3815	4	1668	1684
26	0	0	3678	4	1667	1684
27	0	0	3311	3	1665	1684
28	0	0	2815	4	1668	1684
29	0	0	2396	3	1670	1685
30	0	0	2071	4	1671	1684
31	0	0	1851	4	1671	1684
32	0	0	1619	3	1674	1685
33	0	0	1249	4	1677	1684
34	0	0	812	4	1681	1684
35	0	0	547	4	1681	1684
36	0	0	509	4	1684	1684
37	0	0	453	4	1687	1684
38	0	0	406	5	1688	1684
39	0	0	991	5	1687	1685
40	0	0	1660	5	1684	1684
41	0	0	2281	5	1679	1684
42	0	0	3017	4	1676	1684
43	0	0	3464	5	1673	1684
44	0	0	3728	5	1669	1684
45	0	0	3813	4	1667	1684
46	0	0	3680	4	1665	1684
47	0	0	3328	3	1667	1684
48	0	0	2819	4	1667	1684
49	0	0	2403	3	1667	1684
50	0	0	2069	4	1669	1684
51	0	0	1846	4	1671	1685
52	0	0	1613	4	1672	1684
53	0	0	1248	4	1676	1684
54	0	0	809	3	1681	1685
55	0	0	542	4	1681	1684
56	0	0	502	4	1685	1684
57	0	0	442	3	1686	1684
58	0	0	411	5	1687	1684
59	0	0	1000	5	1685	1684
60	0	0	1671	4	1684	1684
61	0	0	2293	5	1679	1684
62	0	0	3025	4	1676	1684
63	0	0	3468	5	1672	1684
64	0	0	3731	4	1672	1684
65	0	0	3813	5	1665	1684
66	0	0	3678	4	1666	1684
67	0	0	3317	3	1665	1685
68	0	0	2814	4	1666	1685
69	0	0	2402	4	1668	1685
70	0	0	2073	4	1669	1685
71	0	0	1848	3	1670	1684
72	0	0	1616	4	1672	1684
73	0	0	1253	3	1676	1684
74	0	0	811	4	1679	1684
75	0	0	540	3	1681	1684
76	0	0	502	5	1682	1684
77	0	0	446	4	1686	1684
78	0	0	401	5	1686	1684
79	0	0	987	5	1684	1684
80	0	0	1660	5	1682	1684
81	0	0	2287	5	1680	1684
82	0	0	3030	5	1675	1684
83	0	0	3468	5	1672	1684
84	0	0	3730	5	1669	1684
85	0	0	3827	4	1666	1685
86	0	0	3689	4	1665	1684
87	0	0	3325	4	1665	1684
88	0	0	2822	4	1666	1684
89	0	0	2401	4	1667	1684
90	0	0	2073	4	1668	1684
91	0	0	1849	4	1669	1684
92	0	0	1618	4	1672	1684
93	0	0	1250	3	1674	1684
94	0	0	808	3	1677	1684
95	0	0	539	4	1680	1684
96	0	0	498	4	1681	1684
97	0	0	435	4	1685	1684
98	0	0	402	5	1685	1684
99	0	0	997	4	1684	1684
100	0	0	1658	5	1682	1684
101	0	0	2281	5	1679	1685
102	0	0	3025	5	1673	1684
103	0	0	3466	4	1669	1684
104	0	0	3729	5	1668	1685
105	0	0	3815	4	1666	1684
106	0	0	3680	4	1662	1685
107	0	0	3323	3	1665	1684
108	0	0	2808	4	1665	1684
109	0	0	2390	4	1666	1684
110	0	0	2064	4	1667	1684
111	0	0	1842	4	1669	1684
112	0	0	1610	3	1671	1684
113	0	0	1239	4	1673	1684
114	0	0	805	4	1677	1684
115	0	0	540	3	1678	1684
116	0	0	504	5	1681	1684
117	0	0	443	4	1685	1685
118	0	0	405	5	1684	1685
119	0	0	999	4	1683	1684
120	0	0	1665	4	1683	1685
121	0	0	2289	5	1677	1684
122	0	0	3032	4	1673	1684
123	0	0	3473	5	1670	1684
124	0	0	3732	5	1667	1684
125	0	0	3817	4	1664	1684
126	0	0	3680	4	1663	1684
127	0	0	3315	4	1662	1684
0	0	0	2811	3	1665	1684
1	0	0	2398	4	1665	1685
2	0	0	2073	4	1666	1684
3	0	0	1851	4	1667	1684
4	0	0	1619	3	1671	1684
5	0	0	1246	4	1672	1684
6	0	0	812	4	1676	1685
7	0	0	546	4	1678	1685
8	0	0	507	5	1680	1684
9	0	0	449	4	1683	1684
10	0	0	408	4	1682	1684
11	0	0	1001	5	1683	1684
12	0	0	1666	5	1680	1684
13	0	0	2288	5	1676	1684
14	0	0	3031	5	1672	1684
15	0	0	3473	4	1668	1684
16	0	0	3732	5	1667	1684
17	0	0	3826	4	1664	1684
18	0	0	3688	4	1662	1684
19	0	0	3324	4	1662	1684
20	0	0	2814	4	1663	1684
21	0	0	2393	4	1664	1684
22	0	0	2064	4	1665	1684
23	0	0	1845	4	1667	1684
24	0	0	1613	4	1667	1684
25	0	0	1246	3	1671	1684
26	0	0	814	4	1676	1685
27	0	0	543	3	1677	1684
28	0	0	506	4	1680	1685
29	0	0	444	4	1683	1684
30	0	0	419	4	1683	1684
31	0	0	1012	4	1682	1685
32	0	0	1677	5	1679	1684
33	0	0	2293	4	1676	1684
34	0	0	3033	4	1670	1684
35	0	0	3476	5	1669	1684
36	0	0	3733	5	1665	1685
37	0	0	3812	4	1661	1684
38	0	0	3684	4	1661	1684
39	0	0	3313	4	1661	1685
40	0	0	2813	4	1663	1685
41	0	0	2396	3	1663	1685
42	0	0	2066	4	1664	1684
43	0	0	1845	4	1666	1684
44	0	0	1612	3	1669	1684
45	0	0	1243	3	1669	1684
46	0	0	805	4	1674	1684
47	0	0	542	4	1677	1684
48	0	0	513	5	1677	1684
49	0	0	449	4	1681	1684
50	0	0	414	4	1681	1684
51	0	0	1000	5	1681	1685
52	0	0	1664	5	1678	1684
53	0	0	2285	4	1675	1685
54	0	0	3029	6	1669	1684
55	0	0	3473	5	1666	1684
56	0	0	3734	5	1665	1685
57	0	0	3824	4	1661	1684
58	0	0	3689	4	1661	1684
59	0	0	3316	4	1661	1684
60	0	0	2827	4	1660	1684
61	0	0	2405	4	1662	1685
62	0	0	2074	4	1663	1685
63	0	0	1848	4	1663	1684
64	0	0	1622	3	1666	1684
65	0	0	1252	4	1668	1684
66	0	0	811	4	1672	1685
67	0	0	545	4	1676	1685
68	0	0	508	5	1676	1684
69	0	0	433	4	1680	1685
70	0	0	400	4	1681	1685
71	0	0	997	5	1680	1684
72	0	0	1670	5	1677	1684
73	0	0	2302	5	1673	1684
74	0	0	3034	5	1668	1684
75	0	0	3476	5	1664	1684
76	0	0	3737	5	1662	1685
77	0	0	3842	4	1659	1684
78	0	0	3701	4	1659	1684
79	0	0	3334	4	1659	1684
80	0	0	2822	4	1660	1684
81	0	0	2407	4	1660	1685
82	0	0	2077	4	1663	1685
83	0	0	1850	4	1662	1684
84	0	0	1614	4	1665	1684
85	0	0	1242	4	1668	1684
86	0	0	799	4	1672	1684
87	0	0	534	4	1672	1684
88	0	0	500	5	1675	1684
89	0	0	440	4	1679	1684
90	0	0	407	5	1679	1684
91	0	0	995	5	1678	1684
92	0	0	1664	5	1675	1684
93	0	0	2294	4	1670	1684
94	0	0	3029	5	1667	1684
95	0	0	3473	5	1665	1684
96	0	0	3735	5	1660	1684
97	0	0	3827	4	1658	1684
98	0	0	3696	4	1658	1684
99	0	0	3324	4	1659	1685
100	0	0	2821	4	1659	1685
101	0	0	2403	4	1660	1684
102	0	0	2071	4	1661	1685
103	0	0	1847	4	1661	1684
104	0	0	1619	4	1664	1684
105	0	0	1247	3	1666	1684
106	0	0	799	4	1670	1684
107	0	0	534	4	1673	1684
108	0	0	501	4	1673	1684
109	0	0	431	4	1676	1684
110	0	0	403	4	1678	1684
111	0	0	1001	4	1677	1684
112	0	0	1671	5	1675	1684
113	0	0	2307	4	1671	1685
114	0	0	3038	5	1665	1684
115	0	0	3479	4	1663	1684
116	0	0	3738	5	1660	1684
117	0	0	3837	4	1658	1685
118	0	0	3699	4	1656	1684
119	0	0	3331	4	1656	1684
120	0	0	2817	4	1657	1684
121	0	0	2399	4	1658	1684
122	0	0	2066	4	1660	1684
123	0	0	1839	4	1660	1684
124	0	0	1597	4	1663	1684
125	0	0	1227	3	1666	1684
126	0	0	791	4	1669	1685
127	0	0	526	3	1671	1684
0	0	0	500	5	1673	1684
1	0	0	435	4	1675	1684
2	0	0	409	4	1677	1684
3	0	0	999	4	1676	1685
4	0	0	1671	5	1673	1684
5	0	0	2308	5	1670	1685
6	0	0	3045	5	1665	1684
7	0	0	3480	3	1662	1684
8	0	0	3739	5	1659	1684
9	0	0	3835	4	1657	1684
10	0	0	3699	4	1655	1684
11	0	0	3327	4	1656	1684
12	0	0	2819	4	1656	1684
13	0	0	2400	4	1658	1685
14	0	0	2075	3	1658	1684
15	0	0	1850	4	1659	1684
16	0	0	1613	4	1661	1684
17	0	0	1242	4	1664	1684
18	0	0	805	4	1668	1684
19	0	0	540	4	1670	1684
20	0	0	505	4	1671	1684
21	0	0	440	4	1676	1684
22	0	0	411	4	1676	1684
23	0	0	1014	4	1673	1684
24	0	0	1675	5	1672	1685
25	0	0	2306	4	1667	1684
26	0	0	3043	5	1664	1684
27	0	0	3480	4	1660	1684
28	0	0	3739	5	1658	1684
29	0	0	3832	4	1655	1684
30	0	0	3696	4	1652	1684
31	0	0	3335	4	1653	1684
32	0	0	2825	2	1655	1684
33	0	0	2408	4	1657	1685
34	0	0	2079	4	1656	1684
35	0	0	1852	4	1658	1684
36	0	0	1621	4	1659	1684
37	0	0	1249	4	1662	1684
38	0	0	812	4	1666	1685
39	0	0	543	4	1669	1684
40	0	0	513	4	1671	1684
41	0	0	439	4	1674	1685
42	0	0	410	4	1675	1684
43	0	0	1015	4	1672	1685
44	0	0	1681	4	1671	1684
45	0	0	2320	5	1667	1684
46	0	0	3052	5	1662	1684
47	0	0	3489	5	1660	1684
48	0	0	3742	5	1656	1684
49	0	0	3842	4	1654	1684
50	0	0	3702	4	1652	1685
51	0	0	3326	6	1651	1684
52	0	0	2812	4	1653	1684
53	0	0	2392	3	1655	1685
54	0	0	2069	4	1657	1685
55	0	0	1846	4	1656	1684
56	0	0	1610	4	1658	1685
57	0	0	1239	2	1662	1684
58	0	0	806	4	1665	1685
59	0	0	539	4	1667	1684
60	0	0	505	4	1669	1684
61	0	0	438	3	1673	1684
62	0	0	402	5	1674	1684
63	0	0	1012	5	1670	1684
64	0	0	1682	4	1671	1684
65	0	0	2303	5	1665	1684
66	0	0	3043	5	1661	1684
67	0	0	3484	4	1658	1684
68	0	0	3740	5	1655	1685
69	0	0	3835	4	1653	1684
70	0	0	3697	4	1652	1685
71	0	0	3317	4	1652	1684
72	0	0	2826	4	1651	1684
73	0	0	2408	4	1652	1685
74	0	0	2077	3	1653	1684
75	0	0	1853	4	1656	1684
76	0	0	1618	4	1658	1684
77	0	0	1239	4	1661	1685
78	0	0	803	4	1665	1684
79	0	0	543	4	1666	1684
80	0	0	512	5	1668	1684
81	0	0	440	4	1671	1684
82	0	0	415	4	1672	1684
83	0	0	1012	5	1670	1685
84	0	0	1670	5	1668	1684
85	0	0	2291	5	1664	1684
86	0	0	3037	5	1659	1684
87	0	0	3478	5	1657	1685
88	0	0	3738	5	1653	1684
89	0	0	3808	4	1651	1684
90	0	0	3677	5	1649	1684
91	0	0	3315	4	1650	1684
92	0	0	2816	3	1650	1684
93	0	0	2408	4	1652	1685
94	0	0	2079	4	1652	1684
95	0	0	1853	4	1656	1684
96	0	0	1630	4	1657	1684
97	0	0	1284	3	1660	1685
98	0	0	844	4	1665	1684
99	0	0	579	4	1666	1684
100	0	0	543	4	1668	1684
101	0	0	438	4	1670	1684
102	0	0	410	5	1672	1684
103	0	0	1012	4	1670	1684
104	0	0	1678	5	1668	1684
105	0	0	2312	5	1663	1684
106	0	0	3040	5	1660	1684
107	0	0	3482	4	1656	1684
108	0	0	3743	5	1653	1684
109	0	0	3801	4	1652	1685
110	0	0	3675	4	1650	1684
111	0	0	3302	4	1650	1684
112	0	0	2816	4	1650	1684
113	0	0	2409	3	1651	1685
114	0	0	2083	4	1651	1684
115	0	0	1860	4	1652	1684
116	0	0	1634	4	1655	1684
117	0	0	1262	4	1660	1685
118	0	0	829	3	1661	1684
119	0	0	569	4	1664	1684
120	0	0	538	5	1666	1685
121	0	0	459	3	1670	1684
122	0	0	442	5	1669	1684
123	0	0	1032	4	1668	1684
124	0	0	1687	5	1666	1684
125	0	0	2313	5	1662	1684
126	0	0	3047	5	1658	1684
127	0	0	3482	4	1654	1684
0	0	0	3741	5	1651	1684
1	0	0	3801	4	1649	1684
2	0	0	3663	4	1649	1684
3	0	0	3298	4	1649	1684
4	0	0	2809	4	1650	1684
5	0	0	2404	3	1652	1685
6	0	0	2081	4	1651	1684
7	0	0	1856	4	1653	1685
8	0	0	1617	5	1655	1684
9	0	0	1254	3	1657	1684
10	0	0	826	4	1662	1685
11	0	0	570	4	1663	1684
12	0	0	543	4	1665	1684
13	0	0	466	4	1668	1684
14	0	0	458	5	1669	1684
15	0	0	1049	4	1666	1684
16	0	0	1685	5	1664	1684
17	0	0	2305	5	1660	1684
18	0	0	3044	5	1657	1684
19	0	0	3480	5	1653	1684
20	0	0	3739	5	1651	1684
21	0	0	3778	4	1647	1684
22	0	0	3651	4	1646	1684
23	0	0	3291	4	1648	1684
24	0	0	2805	3	1649	1685
25	0	0	2398	3	1649	1685
26	0	0	2085	4	1650	1684
27	0	0	1862	4	1651	1684
28	0	0	1628	4	1653	1684
29	0	0	1254	4	1657	1684
30	0	0	834	3	1658	1685
31	0	0	580	4	1662	1684
32	0	0	547	5	1662	1684
33	0	0	471	3	1665	1684
34	0	0	457	4	1666	1684
35	0	0	1052	5	1666	1684
36	0	0	1692	5	1663	1684
37	0	0	2308	5	1660	1685
38	0	0	3045	5	1656	1684
39	0	0	3484	5	1652	1684
40	0	0	3741	5	1651	1685
41	0	0	3783	5	1647	1684
42	0	0	3651	4	1645	1684
43	0	0	3293	4	1646	1684
44	0	0	2807	4	1647	1684
45	0	0	2403	4	1648	1684
46	0	0	2082	4	1648	1684
47	0	0	1862	4	1650	1684
48	0	0	1630	4	1652	1684
49	0	0	1261	4	1656	1685
50	0	0	841	4	1658	1684
51	0	0	588	4	1661	1685
52	0	0	560	5	1662	1684
53	0	0	474	4	1666	1684
54	0	0	465	5	1666	1684
55	0	0	1057	4	1664	1685
56	0	0	1705	5	1663	1684
57	0	0	2320	4	1658	1684
58	0	0	3053	5	1654	1684
59	0	0	3488	5	1650	1684
60	0	0	3742	5	1648	1684
61	0	0	3796	4	1645	1685
62	0	0	3657	4	1646	1684
63	0	0	3283	4	1645	1684
64	0	0	2804	4	1644	1684
65	0	0	2404	3	1647	1684
66	0	0	2087	4	1649	1684
67	0	0	1874	4	1650	1684
68	0	0	1642	4	1651	1684
69	0	0	1270	4	1655	1685
70	0	0	842	3	1657	1685
71	0	0	590	4	1661	1684
72	0	0	563	5	1661	1684
73	0	0	479	4	1665	1684
74	0	0	459	5	1664	1684
75	0	0	1046	4	1664	1684
76	0	0	1693	5	1661	1684
77	0	0	2308	5	1658	1684
78	0	0	3045	5	1653	1684
79	0	0	3484	5	1649	1684
80	0	0	3741	5	1648	1685
81	0	0	3782	4	1646	1684
82	0	0	3652	4	1643	1684
83	0	0	3287	4	1644	1684
84	0	0	2817	4	1645	1685
85	0	0	2414	4	1645	1684
86	0	0	2094	4	1648	1685
87	0	0	1871	4	1648	1684
88	0	0	1640	4	1651	1684
89	0	0	1263	4	1654	1685
90	0	0	839	4	1656	1684
91	0	0	594	4	1658	1685
92	0	0	567	4	1661	1684
93	0	0	478	4	1663	1684
94	0	0	468	5	1664	1684
95	0	0	1053	4	1663	1684
96	0	0	1696	5	1661	1684
97	0	0	2321	5	1656	1684
98	0	0	3045	5	1652	1684
99	0	0	3484	5	1649	1685
100	0	0	3740	5	1647	1684
101	0	0	3771	4	1644	1684
102	0	0	3644	4	1643	1684
103	0	0	3282	4	1642	1684
104	0	0	2804	4	1643	1684
105	0	0	2406	3	1645	1685
106	0	0	2089	4	1646	1684
107	0	0	1865	4	1646	1684
108	0	0	1632	4	1649	1684
109	0	0	1264	4	1654	1684
110	0	0	841	3	1655	1684
111	0	0	590	4	1658	1684
112	0	0	564	4	1659	1684
113	0	0	485	3	1662	1684
114	0	0	473	6	1662	1684
115	0	0	1055	4	1662	1684
116	0	0	1696	5	1658	1684
117	0	0	2317	5	1654	1684
118	0	0	3044	4	1650	1684
119	0	0	3482	4	1647	1684
120	0	0	3740	5	1646	1685
121	0	0	3777	5	1641	1684
122	0	0	3648	4	1642	1685
123	0	0	3288	4	1640	1684
124	0	0	2815	4	1641	1684
125	0	0	2418	4	1645	1685
126	0	0	2094	4	1644	1684
127	0	0	1873	4	1647	1685
0	0	0	1644	3	1648	1684
1	0	0	1273	5	1649	1684
2	0	0	846	4	1654	1684
3	0	0	596	4	1655	1684
4	0	0	569	5	1658	1684
5	0	0	482	4	1661	1684
6	0	0	476	4	1663	1685
7	0	0	1057	4	1660	1684
8	0	0	1703	5	1657	1684
9	0	0	2323	5	1654	1684
10	0	0	3054	5	1650	1684
11	0	0	3484	5	1647	1684
12	0	0	3740	4	1644	1684
13	0	0	3761	4	1641	1684
14	0	0	3637	4	1640	1684
15	0	0	3288	4	1639	1684
16	0	0	2813	3	1641	1684
17	0	0	2413	4	1643	1684
18	0	0	2099	4	1643	1684
19	0	0	1878	4	1646	1685
20	0	0	1641	4	1646	1684
21	0	0	1280	4	1649	1684
22	0	0	867	3	1653	1685
23	0	0	618	4	1654	1684
24	0	0	593	5	1658	1684
25	0	0	514	4	1660	1684
26	0	0	512	4	1660	1684
27	0	0	1081	4	1659	1684
28	0	0	1697	5	1656	1683
29	0	0	2303	5	1652	1684
30	0	0	3040	5	1648	1684
31	0	0	3476	5	1647	1684
32	0	0	3736	5	1644	1685
33	0	0	3716	4	1640	1684
34	0	0	3594	4	1640	1684
35	0	0	3254	3	1639	1684
36	0	0	2812	4	1641	1684
37	0	0	2421	3	1643	1684
38	0	0	2111	3	1643	1683
39	0	0	1892	4	1643	1684
40	0	0	1672	4	1645	1684
41	0	0	1318	5	1650	1684
42	0	0	928	4	1651	1685
43	0	0	700	4	1653	1684
44	0	0	679	5	1657	1685
45	0	0	599	4	1658	1684
46	0	0	589	5	1659	1684
47	0	0	1121	4	1658	1684
48	0	0	1696	5	1656	1684
49	0	0	2257	5	1652	1684
50	0	0	2995	5	1648	1684
51	0	0	3454	5	1646	1684
52	0	0	3592	5	1643	1684
53	0	0	3548	5	1642	1684
54	0	0	3431	4	1640	1684
55	0	0	3139	3	1641	1684
56	0	0	2771	4	1640	1684
57	0	0	2425	4	1641	1684
58	0	0	2132	4	1643	1684
59	0	0	1928	4	1645	1685
60	0	0	1723	5	1645	1684
61	0	0	1463	4	1646	1684
62	0	0	1211	4	1650	1684
63	0	0	1078	4	1651	1684
64	0	0	1086	5	1651	1684
65	0	0	1065	4	1654	1684
66	0	0	1088	5	1654	1684
67	0	0	1437	4	1653	1684
68	0	0	1793	5	1653	1684
69	0	0	2094	5	1650	1684
70	0	0	2449	5	1649	1684
71	0	0	2681	5	1647	1684
72	0	0	2783	4	1647	1684
73	0	0	2824	5	1645	1684
74	0	0	2813	4	1644	1684
75	0	0	2766	5	1644	1684
76	0	0	2705	4	1644	1685
77	0	0	2528	4	1642	1684
78	0	0	2313	4	1643	1683
79	0	0	2131	4	1643	1684
80	0	0	1943	4	1645	1684
81	0	0	1747	4	1646	1685
82	0	0	1566	4	1646	1684
83	0	0	1448	4	1649	1685
84	0	0	1411	4	1649	1684
85	0	0	1332	4	1651	1684
86	0	0	1249	5	1651	1684
87	0	0	1436	5	1652	1684
88	0	0	1712	5	1650	1684
89	0	0	1993	5	1648	1684
90	0	0	2361	5	1648	1684
91	0	0	2611	5	1646	1684
92	0	0	2733	5	1645	1684
93	0	0	2788	5	1643	1684
94	0	0	2793	5	1643	1684
95	0	0	2761	5	1643	1684
96	0	0	2710	4	1642	1684
97	0	0	2530	4	1642	1684
98	0	0	2313	4	1641	1684
99	0	0	2127	4	1643	1684
100	0	0	1937	4	1644	1684
101	0	0	1742	4	1644	1684
102	0	0	1558	4	1646	1684
103	0	0	1443	4	1647	1684
104	0	0	1404	4	1649	1685
105	0	0	1325	4	1651	1684
106	0	0	1246	6	1651	1684
107	0	0	1437	5	1651	1685
108	0	0	1708	4	1650	1684
109	0	0	1982	4	1649	1685
110	0	0	2345	5	1646	1683
111	0	0	2601	5	1644	1684
112	0	0	2725	4	1644	1685
113	0	0	2778	5	1643	1684
114	0	0	2784	5	1643	1685
115	0	0	2758	6	1641	1684
116	0	0	2715	5	1641	1684
117	0	0	2535	4	1641	1685
118	0	0	2315	4	1642	1683
119	0	0	2134	4	1643	1684
120	0	0	1944	4	1643	1685
121	0	0	1743	4	1645	1684
122	0	0	1560	4	1645	1684
123	0	0	1440	4	1646	1684
124	0	0	1398	4	1645	1684
125	0	0	1314	4	1649	1684
126	0	0	1232	5	1648	1684
127	0	0	1424	5	1648	1684
0	0	0	1698	5	1648	1684
1	0	0	1971	4	1646	1684
2	0	0	2331	5	1645	1684
3	0	0	2589	4	1644	1685
4	0	0	2719	5	1643	1684
5	0	0	2774	5	1642	1684
6	0	0	2779	4	1640	1684
7	0	0	2752	5	1640	1685
8	0	0	2712	4	1641	1685
9	0	0	2532	3	1640	1684
10	0	0	2315	4	1640	1684
11	0	0	2127	4	1642	1685
12	0	0	1938	4	1642	1684
13	0	0	1739	4	1643	1684
14	0	0	1556	3	1645	1685
15	0	0	1442	4	1644	1684
16	0	0	1400	4	1647	1684
17	0	0	1316	4	1648	1684
18	0	0	1233	4	1649	1684
19	0	0	1422	5	1649	1684
20	0	0	1701	5	1649	1684
21	0	0	1986	4	1647	1684
22	0	0	2347	5	1644	1684
23	0	0	2601	5	1644	1684
24	0	0	2728	5	1643	1684
25	0	0	2784	5	1641	1684
26	0	0	2792	5	1640	1684
27	0	0	2760	5	1639	1684
28	0	0	2716	4	1639	1685
29	0	0	2535	4	1639	1684
30	0	0	2317	4	1638	1684
31	0	0	2133	3	1639	1684
32	0	0	1939	4	1641	1684
33	0	0	1742	4	1642	1685
34	0	0	1557	4	1643	1684
35	0	0	1440	4	1643	1684
36	0	0	1402	4	1645	1684
37	0	0	1322	4	1645	1684
38	0	0	1238	5	1647	1685
39	0	0	1431	5	1647	1684
40	0	0	1709	4	1647	1685
41	0	0	1987	5	1644	1684
42	0	0	2349	5	1643	1684
43	0	0	2600	4	1642	1684
44	0	0	2726	5	1641	1684
45	0	0	2787	5	1641	1685
46	0	0	2793	5	1639	1684
47	0	0	2759	5	1639	1684
48	0	0	2718	3	1639	1685
49	0	0	2534	4	1638	1684
50	0	0	2320	4	1638	1684
51	0	0	2134	4	1639	1684
52	0	0	1940	3	1641	1684
53	0	0	1744	4	1641	1684
54	0	0	1562	4	1642	1684
55	0	0	1445	4	1643	1684
56	0	0	1402	3	1645	1684
57	0	0	1320	4	1647	1684
58	0	0	1237	5	1645	1684
59	0	0	1429	5	1647	1684
60	0	0	1701	5	1644	1684
61	0	0	1985	5	1643	1684
62	0	0	2347	5	1643	1685
63	0	0	2595	6	1640	1684
64	0	0	2719	5	1641	1684
65	0	0	2779	5	1639	1685
66	0	0	2787	5	1637	1684
67	0	0	2757	5	1636	1684
68	0	0	2713	4	1636	1684
69	0	0	2532	4	1637	1684
70	0	0	2315	4	1635	1684
71	0	0	2130	3	1638	1684
72	0	0	1937	5	1638	1684
73	0	0	1735	4	1639	1684
74	0	0	1551	3	1640	1684
75	0	0	1436	4	1642	1684
76	0	0	1394	4	1643	1684
77	0	0	1307	4	1646	1684
78	0	0	1221	6	1645	1684
79	0	0	1416	5	1646	1684
80	0	0	1690	5	1645	1685
81	0	0	1972	5	1643	1684
82	0	0	2335	5	1641	1684
83	0	0	2588	4	1640	1684
84	0	0	2712	4	1638	1684
85	0	0	2775	4	1636	1684
86	0	0	2784	4	1637	1684
87	0	0	2755	7	1636	1684
88	0	0	2709	4	1635	1684
89	0	0	2530	3	1636	1684
90	0	0	2313	4	1635	1684
91	0	0	2122	4	1637	1684
92	0	0	1932	4	1638	1684
93	0	0	1731	5	1638	1684
94	0	0	1551	3	1639	1684
95	0	0	1435	4	1641	1684
96	0	0	1394	4	1642	1684
97	0	0	1312	4	1643	1684
98	0	0	1229	6	1643	1684
99	0	0	1420	4	1643	1684
100	0	0	1694	4	1644	1684
101	0	0	1972	4	1642	1684
102	0	0	2336	5	1640	1684
103	0	0	2591	5	1638	1684
104	0	0	2715	5	1639	1684
105	0	0	2779	5	1635	1684
106	0	0	2790	5	1636	1684
107	0	0	2759	5	1635	1684
108	0	0	2713	5	1635	1684
109	0	0	2531	3	1635	1684
110	0	0	2314	4	1635	1683
111	0	0	2135	4	1635	1684
112	0	0	1944	4	1635	1684
113	0	0	1748	6	1636	1684
114	0	0	1563	4	1638	1684
115	0	0	1446	4	1641	1685
116	0	0	1403	4	1642	1684
117	0	0	1309	4	1643	1684
118	0	0	1225	4	1643	1684
119	0	0	1421	4	1642	1684
120	0	0	1702	5	1642	1684
121	0	0	1977	5	1640	1684
122	0	0	2334	5	1638	1684
123	0	0	2589	4	1638	1684
124	0	0	2720	4	1638	1684
125	0	0	2782	5	1635	1684
126	0	0	2791	5	1634	1684
127	0	0	2762	5	1633	1684
0	0	0	2718	4	1632	1684
1	0	0	2532	4	1634	1684
2	0	0	2308	4	1635	1684
3	0	0	2124	3	1634	1685
4	0	0	1935	4	1636	1684
5	0	0	1738	4	1637	1684
6	0	0	1560	4	1638	1685
7	0	0	1442	3	1639	1683
8	0	0	1400	4	1639	1684
9	0	0	1314	4	1640	1684
10	0	0	1235	5	1640	1683
11	0	0	1425	5	1642	1684
12	0	0	1695	5	1640	1684
13	0	0	1970	5	1640	1684
14	0	0	2325	5	1639	1684
15	0	0	2581	5	1636	1684
16	0	0	2709	5	1636	1684
17	0	0	2775	5	1635	1684
18	0	0	2784	5	1633	1684
19	0	0	2754	5	1632	1684
20	0	0	2710	4	1632	1685
21	0	0	2531	4	1634	1684
22	0	0	2310	4	1633	1684
23	0	0	2117	3	1633	1684
24	0	0	1922	4	1634	1684
25	0	0	1726	4	1636	1684
26	0	0	1549	5	1637	1684
27	0	0	1436	4	1637	1684
28	0	0	1394	4	1639	1684
29	0	0	1307	5	1640	1684
30	0	0	1232	4	1640	1684
31	0	0	1422	4	1641	1684
32	0	0	1696	4	1639	1684
33	0	0	1974	3	1639	1685
34	0	0	2324	5	1637	1685
35	0	0	2580	5	1635	1684
36	0	0	2710	5	1635	1684
37	0	0	2770	5	1634	1684
38	0	0	2777	5	1633	1684
39	0	0	2750	5	1632	1684
40	0	0	2712	4	1632	1684
41	0	0	2534	4	1631	1686
42	0	0	2312	4	1632	1684
43	0	0	2124	3	1632	1684
44	0	0	1931	5	1634	1684
45	0	0	1732	4	1633	1684
46	0	0	1555	3	1636	1684
47	0	0	1437	4	1637	1684
48	0	0	1395	3	1638	1685
49	0	0	1309	4	1641	1684
50	0	0	1231	5	1638	1684
51	0	0	1421	4	1639	1684
52	0	0	1694	5	1639	1684
53	0	0	1973	4	1639	1685
54	0	0	2339	5	1637	1684
55	0	0	2590	5	1634	1684
56	0	0	2715	4	1634	1685
57	0	0	2777	5	1633	1684
58	0	0	2785	4	1633	1685
59	0	0	2758	5	1630	1684
60	0	0	2718	4	1632	1684
61	0	0	2534	4	1631	1684
62	0	0	2317	4	1631	1684
63	0	0	2128	4	1632	1684
64	0	0	1934	4	1633	1685
65	0	0	1740	4	1635	1684
66	0	0	1560	4	1635	1684
67	0	0	1445	4	1636	1684
68	0	0	1402	4	1637	1684
69	0	0	1309	5	1638	1684
70	0	0	1227	5	1638	1684
71	0	0	1424	5	1639	1684
72	0	0	1696	5	1639	1684
73	0	0	1973	5	1637	1684
74	0	0	2334	5	1635	1684
75	0	0	2590	5	1634	1684
76	0	0	2716	4	1633	1684
77	0	0	2776	5	1632	1684
78	0	0	2784	5	1631	1684
79	0	0	2759	5	1630	1684
80	0	0	2719	4	1631	1685
81	0	0	2536	4	1631	1684
82	0	0	2315	4	1630	1684
83	0	0	2129	3	1632	1684
84	0	0	1939	4	1633	1684
85	0	0	1737	4	1634	1684
86	0	0	1555	3	1635	1684
87	0	0	1437	4	1637	1684
88	0	0	1395	4	1636	1684
89	0	0	1306	4	1637	1684
90	0	0	1230	4	1637	1684
91	0	0	1422	4	1639	1685
92	0	0	1696	5	1638	1684
93	0	0	1978	4	1637	1685
94	0	0	2334	5	1633	1684
95	0	0	2584	5	1634	1684
96	0	0	2714	5	1633	1684
97	0	0	2775	5	1631	1684
98	0	0	2784	5	1630	1684
99	0	0	2760	5	1628	1684
100	0	0	2712	4	1629	1684
101	0	0	2528	3	1629	1684
102	0	0	2307	4	1630	1684
103	0	0	2119	4	1630	1684
104	0	0	1928	4	1631	1684
105	0	0	1729	4	1633	1685
106	0	0	1547	3	1634	1684
107	0	0	1432	4	1633	1684
108	0	0	1386	5	1634	1684
109	0	0	1299	4	1637	1684
110	0	0	1223	4	1637	1684
111	0	0	1415	4	1638	1684
112	0	0	1692	5	1636	1684
113	0	0	1976	4	1635	1684
114	0	0	2330	5	1635	1685
115	0	0	2579	5	1634	1684
116	0	0	2705	5	1632	1685
117	0	0	2765	5	1631	1684
118	0	0	2774	5	1631	1685
119	0	0	2751	4	1628	1684
120	0	0	2710	4	1628	1684
121	0	0	2527	4	1628	1684
122	0	0	2309	4	1628	1684
123	0	0	2120	4	1630	1684
124	0	0	1927	4	1629	1684
125	0	0	1728	4	1631	1684
126	0	0	1550	3	1632	1684
127	0	0	1435	4	1633	1684
0	0	0	1395	4	1634	1684
1	0	0	1304	4	1636	1684
2	0	0	1227	5	1638	1685
3	0	0	1417	4	1638	1684
4	0	0	1691	5	1637	1685
5	0	0	1973	5	1635	1684
6	0	0	2336	5	1633	1684
7	0	0	2585	5	1632	1684
8	0	0	2713	5	1631	1684
9	0	0	2776	5	1629	1684
10	0	0	2788	5	1628	1684
11	0	0	2766	5	1628	1684
12	0	0	2720	4	1628	1684
13	0	0	2531	3	1627	1684
14	0	0	2311	4	1628	1684
15	0	0	2125	4	1629	1684
16	0	0	1934	4	1629	1683
17	0	0	1739	4	1631	1684
18	0	0	1558	4	1632	1685
19	0	0	1440	4	1632	1684
20	0	0	1398	4	1633	1684
21	0	0	1306	4	1636	1684
22	0	0	1234	5	1635	1684
23	0	0	1427	4	1636	1684
24	0	0	1694	4	1635	1684
25	0	0	1972	5	1634	1684
26	0	0	2329	5	1633	1684
27	0	0	2574	5	1630	1684
28	0	0	2706	4	1630	1684
29	0	0	2772	5	1629	1684
30	0	0	2785	5	1629	1684
31	0	0	2759	5	1627	1684
32	0	0	2716	4	1626	1684
33	0	0	2533	3	1627	1684
34	0	0	2321	4	1627	1684
35	0	0	2137	4	1628	1684
36	0	0	1943	4	1629	1684
37	0	0	1748	4	1629	1684
38	0	0	1567	4	1632	1684
39	0	0	1449	4	1631	1684
40	0	0	1405	4	1634	1684
41	0	0	1316	4	1635	1685
42	0	0	1239	5	1634	1684
43	0	0	1426	4	1635	1684
44	0	0	1689	5	1635	1684
45	0	0	1970	5	1632	1684
46	0	0	2324	5	1632	1684
47	0	0	2570	5	1629	1684
48	0	0	2698	4	1630	1684
49	0	0	2758	5	1628	1684
50	0	0	2765	5	1628	1684
51	0	0	2740	5	1627	1684
52	0	0	2698	4	1626	1684
53	0	0	2514	4	1627	1684
54	0	0	2304	4	1627	1684
55	0	0	2124	4	1627	1684
56	0	0	1932	4	1628	1684
57	0	0	1736	4	1629	1684
58	0	0	1562	4	1630	1684
59	0	0	1441	4	1632	1684
60	0	0	1402	4	1633	1684
61	0	0	1311	3	1633	1684
62	0	0	1239	5	1634	1684
63	0	0	1436	4	1634	1684
64	0	0	1701	5	1634	1684
65	0	0	1973	5	1633	1685
66	0	0	2326	5	1631	1684
67	0	0	2576	5	1630	1685
68	0	0	2699	3	1629	1684
69	0	0	2757	5	1627	1684
70	0	0	2765	5	1627	1684
71	0	0	2741	5	1627	1685
72	0	0	2696	4	1626	1684
73	0	0	2518	3	1627	1684
74	0	0	2307	4	1626	1684
75	0	0	2129	4	1628	1684
76	0	0	1940	4	1630	1685
77	0	0	1747	4	1627	1684
78	0	0	1572	3	1629	1684
79	0	0	1453	4	1630	1684
80	0	0	1409	4	1630	1684
81	0	0	1313	4	1633	1684
82	0	0	1242	4	1634	1684
83	0	0	1434	3	1633	1684
84	0	0	1701	5	1633	1684
85	0	0	1979	5	1633	1684
86	0	0	2332	5	1629	1684
87	0	0	2583	5	1630	1684
88	0	0	2705	4	1629	1684
89	0	0	2765	4	1625	1684
90	0	0	2772	5	1626	1684
91	0	0	2743	5	1625	1684
92	0	0	2699	4	1626	1684
93	0	0	2522	3	1626	1684
94	0	0	2309	4	1625	1684
95	0	0	2133	4	1626	1684
96	0	0	1944	4	1627	1684
97	0	0	1748	3	1628	1684
98	0	0	1574	3	1629	1684
99	0	0	1460	4	1630	1684
100	0	0	1420	4	1631	1684
101	0	0	1327	4	1632	1684
102	0	0	1264	4	1632	1684
103	0	0	1453	4	1633	1684
104	0	0	1717	4	1633	1684
105	0	0	1987	5	1631	1684
106	0	0	2328	5	1630	1684
107	0	0	2563	5	1629	1684
108	0	0	2687	5	1628	1684
109	0	0	2741	5	1626	1684
110	0	0	2749	5	1625	1684
111	0	0	2730	5	1624	1684
112	0	0	2690	4	1625	1684
113	0	0	2513	4	1626	1685
114	0	0	2300	4	1625	1684
115	0	0	2116	4	1626	1684
116	0	0	1930	4	1624	1684
117	0	0	1740	4	1627	1684
118	0	0	1572	4	1630	1685
119	0	0	1461	4	1630	1684
120	0	0	1421	4	1631	1684
121	0	0	1335	4	1630	1684
122	0	0	1267	5	1631	1684
123	0	0	1448	4	1633	1684
124	0	0	1708	4	1632	1684
125	0	0	1973	6	1629	1684
126	0	0	2308	5	1628	1684
127	0	0	2546	5	1627	1684
0	0	0	2668	4	1626	1684
1	0	0	2727	4	1626	1684
2	0	0	2739	5	1627	1684
3	0	0	2718	4	1625	1685
4	0	0	2673	4	1625	1684
5	0	0	2499	4	1624	1684
6	0	0	2293	4	1625	1685
7	0	0	2109	5	1625	1684
8	0	0	1928	4	1625	1684
9	0	0	1740	4	1626	1684
10	0	0	1569	4	1629	1685
11	0	0	1459	4	1629	1684
12	0	0	1420	4	1630	1684
13	0	0	1333	4	1632	1684
14	0	0	1268	4	1632	1684
15	0	0	1455	5	1631	1684
16	0	0	1712	4	1631	1684
17	0	0	1983	6	1629	1684
18	0	0	2316	5	1629	1684
19	0	0	2549	5	1627	1684
20	0	0	2670	4	1627	1685
21	0	0	2726	5	1625	1684
22	0	0	2729	5	1624	1684
23	0	0	2700	5	1624	1684
24	0	0	2651	4	1623	1684
25	0	0	2473	4	1623	1684
26	0	0	2269	4	1624	1684
27	0	0	2096	4	1625	1684
28	0	0	1922	4	1624	1684
29	0	0	1743	4	1625	1684
30	0	0	1581	4	1628	1685
31	0	0	1478	4	1629	1684
32	0	0	1443	4	1629	1684
33	0	0	1357	4	1632	1684
34	0	0	1294	5	1629	1684
35	0	0	1482	5	1629	1684
36	0	0	1737	5	1630	1684
37	0	0	2001	5	1629	1684
38	0	0	2331	5	1627	1684
39	0	0	2557	4	1626	1684
40	0	0	2671	5	1625	1684
41	0	0	2723	5	1624	1684
42	0	0	2726	5	1623	1684
43	0	0	2703	5	1623	1684
44	0	0	2659	4	1624	1684
45	0	0	2487	4	1622	1684
46	0	0	2282	4	1624	1684
47	0	0	2116	4	1624	1685
48	0	0	1932	3	1623	1684
49	0	0	1713	4	1625	1684
50	0	0	1506	4	1628	1684
51	0	0	1371	4	1628	1684
52	0	0	1328	4	1630	1684
53	0	0	1228	4	1632	1684
54	0	0	1152	4	1632	1684
55	0	0	1399	4	1632	1684
56	0	0	1726	5	1632	1684
57	0	0	2058	6	1630	1684
58	0	0	2468	5	1628	1684
59	0	0	2732	5	1626	1684
60	0	0	2846	5	1625	1684
61	0	0	2886	5	1622	1684
62	0	0	2864	4	1622	1684
63	0	0	2808	5	1621	1684
64	0	0	2737	4	1619	1684
65	0	0	2511	4	1619	1685
66	0	0	2252	4	1620	1684
67	0	0	2036	3	1621	1684
68	0	0	1825	4	1623	1684
69	0	0	1609	4	1626	1684
70	0	0	1417	4	1627	1684
71	0	0	1304	4	1628	1684
72	0	0	1287	4	1630	1684
73	0	0	1191	4	1630	1684
74	0	0	1128	5	1632	1684
75	0	0	1393	5	1633	1684
76	0	0	1719	4	1632	1684
77	0	0	2052	5	1629	1684
78	0	0	2466	5	1627	1683
79	0	0	2738	5	1625	1684
80	0	0	2862	5	1625	1685
81	0	0	2896	5	1622	1684
82	0	0	2870	4	1621	1684
83	0	0	2815	5	1619	1684
84	0	0	2742	4	1618	1684
85	0	0	2506	4	1619	1684
86	0	0	2246	4	1619	1684
87	0	0	2031	4	1621	1684
88	0	0	1814	4	1622	1684
89	0	0	1590	4	1626	1685
90	0	0	1395	4	1628	1684
91	0	0	1286	4	1627	1684
92	0	0	1271	5	1629	1684
93	0	0	1174	4	1632	1684
94	0	0	1113	5	1633	1684
95	0	0	1386	5	1633	1684
96	0	0	1719	5	1631	1684
97	0	0	2057	4	1629	1684
98	0	0	2472	5	1627	1684
99	0	0	2746	5	1624	1684
100	0	0	2866	5	1623	1684
101	0	0	2912	5	1621	1684
102	0	0	2893	4	1620	1684
103	0	0	2837	5	1618	1684
104	0	0	2768	4	1618	1685
105	0	0	2525	4	1619	1684
106	0	0	2255	4	1617	1684
107	0	0	2035	4	1621	1684
108	0	0	1813	3	1620	1684
109	0	0	1590	4	1623	1684
110	0	0	1396	4	1625	1684
111	0	0	1276	4	1626	1684
112	0	0	1256	5	1630	1685
113	0	0	1158	4	1632	1684
114	0	0	1089	5	1631	1684
115	0	0	1363	5	1632	1684
116	0	0	1712	5	1631	1684
117	0	0	2060	5	1629	1684
118	0	0	2489	5	1627	1684
119	0	0	2772	5	1625	1684
120	0	0	2896	4	1623	1684
121	0	0	2937	5	1620	1684
122	0	0	2915	4	1619	1684
123	0	0	2857	5	1616	1684
124	0	0	2781	4	1617	1684
125	0	0	2541	4	1618	1684
126	0	0	2271	4	1617	1683
127	0	0	2046	4	1619	1684
0	0	0	1822	3	1621	1684
1	0	0	1594	4	1624	1684
2	0	0	1392	4	1624	1685
3	0	0	1273	4	1627	1684
4	0	0	1251	4	1629	1684
5	0	0	1149	4	1630	1684
6	0	0	1087	4	1632	1684
7	0	0	1366	5	1632	1684
8	0	0	1711	5	1630	1684
9	0	0	2058	5	1628	1684
10	0	0	2492	5	1625	1684
11	0	0	2779	5	1624	1684
12	0	0	2902	5	1621	1684
13	0	0	2947	5	1620	1684
14	0	0	2924	4	1619	1684
15	0	0	2863	6	1617	1684
16	0	0	2794	4	1616	1684
17	0	0	2547	4	1616	1684
18	0	0	2269	4	1617	1684
19	0	0	2043	4	1617	1684
20	0	0	1815	4	1620	1684
21	0	0	1578	4	1622	1684
22	0	0	1370	4	1624	1684
23	0	0	1250	4	1626	1685
24	0	0	1223	4	1627	1684
25	0	0	1124	5	1630	1684
26	0	0	1057	4	1631	1684
27	0	0	1336	5	1630	1684
28	0	0	1690	6	1629	1684
29	0	0	2041	4	1627	1684
30	0	0	2479	4	1626	1684
31	0	0	2771	5	1623	1684
32	0	0	2900	5	1620	1684
33	0	0	2944	5	1619	1684
34	0	0	2921	5	1618	1684
35	0	0	2862	5	1617	1684
36	0	0	2782	4	1616	1684
37	0	0	2535	4	1616	1685
38	0	0	2258	4	1616	1684
39	0	0	2034	4	1618	1684
40	0	0	1804	4	1618	1684
41	0	0	1568	4	1620	1684
42	0	0	1361	4	1622	1684
43	0	0	1245	4	1624	1684
44	0	0	1224	4	1626	1684
45	0	0	1117	5	1629	1684
46	0	0	1053	4	1629	1684
47	0	0	1336	5	1631	1684
48	0	0	1691	5	1629	1684
49	0	0	2050	5	1627	1684
50	0	0	2487	5	1624	1684
51	0	0	2785	4	1623	1684
52	0	0	2913	5	1621	1684
53	0	0	2958	5	1619	1685
54	0	0	2930	5	1617	1684
55	0	0	2866	5	1615	1684
56	0	0	2787	4	1616	1684
57	0	0	2541	4	1615	1684
58	0	0	2267	6	1617	1684
59	0	0	2035	4	1617	1684
60	0	0	1804	3	1619	1684
61	0	0	1569	4	1621	1684
62	0	0	1368	4	1624	1684
63	0	0	1250	4	1625	1684
64	0	0	1225	5	1626	1684
65	0	0	1121	3	1628	1684
66	0	0	1061	4	1630	1684
67	0	0	1338	4	1629	1684
68	0	0	1695	4	1628	1684
69	0	0	2062	5	1626	1685
70	0	0	2502	5	1625	1684
71	0	0	2792	5	1621	1684
72	0	0	2925	5	1620	1685
73	0	0	2963	5	1617	1684
74	0	0	2939	4	1617	1684
75	0	0	2877	5	1615	1684
76	0	0	2796	4	1616	1684
77	0	0	2545	4	1615	1684
78	0	0	2265	4	1615	1684
79	0	0	2038	4	1616	1684
80	0	0	1809	4	1617	1684
81	0	0	1575	4	1620	1684
82	0	0	1366	4	1624	1684
83	0	0	1243	4	1624	1684
84	0	0	1221	5	1625	1684
85	0	0	1116	3	1627	1684
86	0	0	1051	5	1630	1684
87	0	0	1338	5	1629	1684
88	0	0	1698	4	1628	1684
89	0	0	2064	5	1626	1684
90	0	0	2506	5	1624	1684
91	0	0	2792	5	1622	1684
92	0	0	2920	5	1620	1684
93	0	0	2964	7	1617	1684
94	0	0	2938	4	1615	1684
95	0	0	2878	4	1615	1684
96	0	0	2797	4	1613	1684
97	0	0	2544	4	1615	1684
98	0	0	2265	4	1614	1684
99	0	0	2033	3	1615	1684
100	0	0	1799	3	1618	1684
101	0	0	1562	4	1619	1684
102	0	0	1352	4	1620	1684
103	0	0	1231	4	1623	1684
104	0	0	1209	4	1625	1685
105	0	0	1103	3	1628	1684
106	0	0	1038	5	1629	1683
107	0	0	1327	5	1629	1685
108	0	0	1679	5	1628	1684
109	0	0	2037	5	1627	1684
110	0	0	2483	4	1624	1684
111	0	0	2775	5	1622	1684
112	0	0	2909	5	1616	1684
113	0	0	2953	5	1616	1684
114	0	0	2931	4	1617	1684
115	0	0	2870	5	1614	1684
116	0	0	2788	4	1614	1684
117	0	0	2540	4	1613	1684
118	0	0	2265	4	1616	1684
119	0	0	2027	4	1616	1684
120	0	0	1793	4	1617	1684
121	0	0	1555	4	1620	1684
122	0	0	1349	4	1622	1684
123	0	0	1227	4	1623	1685
124	0	0	1207	5	1624	1684
125	0	0	1101	4	1627	1684
126	0	0	1040	4	1630	1685
127	0	0	1331	4	1627	1684
0	0	0	1695	5	1627	1684
1	0	0	2056	4	1625	1684
2	0	0	2501	4	1624	1684
3	0	0	2796	5	1621	1683
4	0	0	2923	5	1620	1684
5	0	0	2970	5	1616	1684
6	0	0	2945	4	1616	1684
7	0	0	2884	4	1613	1684
8	0	0	2798	4	1614	1685
9	0	0	2541	4	1611	1684
10	0	0	2264	4	1614	1684
11	0	0	2032	3	1614	1684
12	0	0	1801	4	1618	1684
13	0	0	1563	4	1620	1685
14	0	0	1356	4	1622	1685
15	0	0	1232	4	1621	1684
16	0	0	1212	4	1624	1685
17	0	0	1103	4	1627	1685
18	0	0	1045	4	1629	1685
19	0	0	1338	5	1628	1684
20	0	0	1696	5	1626	1684
21	0	0	2058	5	1624	1685
22	0	0	2504	5	1623	1684
23	0	0	2802	4	1621	1685
24	0	0	2936	5	1617	1684
25	0	0	2985	5	1616	1684
26	0	0	2964	4	1615	1685
27	0	0	2906	5	1614	1685
28	0	0	2819	4	1613	1684
29	0	0	2563	4	1614	1684
30	0	0	2275	4	1614	1684
31	0	0	2043	4	1614	1685
32	0	0	1809	4	1616	1684
33	0	0	1565	3	1618	1685
34	0	0	1348	4	1620	1684
35	0	0	1224	4	1622	1684
36	0	0	1203	4	1624	1684
37	0	0	1093	4	1626	1685
38	0	0	1033	4	1627	1685
39	0	0	1330	4	1628	1685
40	0	0	1688	5	1626	1684
41	0	0	2054	4	1624	1684
42	0	0	2493	5	1622	1685
43	0	0	2790	5	1619	1684
44	0	0	2927	5	1619	1684
45	0	0	2976	5	1615	1684
46	0	0	2953	4	1615	1685
47	0	0	2895	4	1614	1685
48	0	0	2812	4	1613	1684
49	0	0	2553	4	1612	1685
50	0	0	2266	4	1613	1684
51	0	0	2029	4	1614	1684
52	0	0	1800	4	1614	1684
53	0	0	1556	4	1618	1684
54	0	0	1343	4	1622	1685
55	0	0	1222	4	1623	1685
56	0	0	1192	5	1623	1684
57	0	0	1078	4	1626	1684
58	0	0	1019	5	1627	1684
59	0	0	1311	4	1627	1684
60	0	0	1675	5	1626	1684
61	0	0	2048	4	1624	1684
62	0	0	2495	4	1622	1684
63	0	0	2791	5	1619	1684
64	0	0	2922	5	1619	1684
65	0	0	2968	5	1615	1684
66	0	0	2952	5	1614	1685
67	0	0	2890	5	1613	1684
68	0	0	2807	4	1613	1684
69	0	0	2552	4	1613	1684
70	0	0	2268	4	1614	1684
71	0	0	2029	5	1613	1685
72	0	0	1795	3	1616	1684
73	0	0	1551	4	1619	1684
74	0	0	1336	4	1621	1685
75	0	0	1213	4	1622	1684
76	0	0	1190	5	1623	1685
77	0	0	1080	3	1627	1684
78	0	0	1018	5	1627	1685
79	0	0	1312	5	1627	1684
80	0	0	1681	5	1628	1685
81	0	0	2054	6	1624	1684
82	0	0	2501	5	1621	1684
83	0	0	2794	5	1620	1685
84	0	0	2925	5	1617	1684
85	0	0	2969	5	1616	1684
86	0	0	2943	4	1612	1684
87	0	0	2886	4	1613	1685
88	0	0	2808	4	1612	1685
89	0	0	2559	4	1612	1685
90	0	0	2274	4	1613	1684
91	0	0	2030	4	1614	1684
92	0	0	1793	4	1614	1684
93	0	0	1552	4	1619	1684
94	0	0	1339	4	1619	1684
95	0	0	1221	4	1622	1685
96	0	0	1202	4	1623	1684
97	0	0	1088	4	1627	1684
98	0	0	1028	5	1626	1684
99	0	0	1327	5	1625	1684
100	0	0	1686	4	1625	1684
101	0	0	2063	4	1623	1684
102	0	0	2511	5	1621	1684
103	0	0	2797	5	1619	1684
104	0	0	2931	5	1616	1684
105	0	0	2981	5	1615	1684
106	0	0	2961	4	1614	1684
107	0	0	2902	5	1611	1684
108	0	0	2821	4	1611	1684
109	0	0	2565	4	1611	1685
110	0	0	2280	4	1612	1684
111	0	0	2044	3	1613	1685
112	0	0	1808	4	1616	1684
113	0	0	1562	3	1618	1684
114	0	0	1348	4	1619	1684
115	0	0	1223	4	1621	1684
116	0	0	1199	5	1623	1684
117	0	0	1083	4	1626	1684
118	0	0	1019	5	1626	1684
119	0	0	1317	5	1625	1684
120	0	0	1676	5	1626	1685
121	0	0	2054	4	1623	1684
122	0	0	2503	5	1620	1684
123	0	0	2796	5	1618	1684
124	0	0	2925	5	1616	1684
125	0	0	2976	4	1614	1685
126	0	0	2958	3	1614	1685
127	0	0	2899	5	1612	1685
0	0	0	2811	4	1612	1684
1	0	0	2551	3	1610	1684
2	0	0	2268	4	1612	1684
3	0	0	2024	4	1613	1684
4	0	0	1789	4	1615	1684
5	0	0	1543	4	1616	1684
6	0	0	1332	4	1619	1684
7	0	0	1207	4	1622	1684
8	0	0	1185	5	1623	1684
9	0	0	1071	4	1624	1684
10	0	0	1012	4	1625	1684
11	0	0	1312	5	1626	1684
12	0	0	1675	4	1627	1685
13	0	0	2046	5	1623	1684
14	0	0	2493	5	1621	1684
15	0	0	2794	5	1618	1684
16	0	0	2928	4	1617	1684
17	0	0	2979	5	1615	1685
18	0	0	2959	4	1613	1684
19	0	0	2896	4	1611	1684
20	0	0	2807	4	1612	1684
21	0	0	2545	4	1611	1684
22	0	0	2259	4	1611	1685
23	0	0	2021	4	1613	1684
24	0	0	1785	3	1614	1684
25	0	0	1538	3	1617	1684
26	0	0	1323	4	1618	1684
27	0	0	1201	4	1621	1684
28	0	0	1184	4	1622	1684
29	0	0	1065	4	1626	1684
30	0	0	1002	5	1625	1684
31	0	0	1305	5	1625	1684
32	0	0	1671	5	1625	1684
33	0	0	2048	5	1623	1685
34	0	0	2499	4	1620	1685
35	0	0	2802	5	1618	1684
36	0	0	2935	5	1615	1684
37	0	0	2983	5	1614	1685
38	0	0	2960	4	1613	1684
39	0	0	2891	5	1611	1684
40	0	0	2805	4	1612	1685
41	0	0	2548	4	1609	1684
42	0	0	2265	4	1611	1684
43	0	0	2031	3	1611	1684
44	0	0	1798	4	1614	1684
45	0	0	1551	4	1617	1684
46	0	0	1334	4	1618	1684
47	0	0	1211	4	1620	1684
48	0	0	1194	4	1621	1684
49	0	0	1075	4	1625	1684
50	0	0	1016	4	1626	1685
51	0	0	1318	4	1625	1685
52	0	0	1682	5	1624	1684
53	0	0	2065	4	1622	1685
54	0	0	2506	5	1622	1684
55	0	0	2797	5	1619	1684
56	0	0	2933	5	1616	1684
57	0	0	2985	5	1614	1684
58	0	0	2962	4	1611	1685
59	0	0	2900	4	1609	1684
60	0	0	2811	4	1611	1683
61	0	0	2556	4	1612	1684
62	0	0	2276	4	1611	1684
63	0	0	2029	3	1613	1684
64	0	0	1793	3	1614	1684
65	0	0	1549	4	1617	1685
66	0	0	1336	4	1618	1684
67	0	0	1215	4	1620	1684
68	0	0	1197	4	1622	1684
69	0	0	1088	4	1624	1684
70	0	0	1031	5	1627	1684
71	0	0	1323	5	1626	1685
72	0	0	1682	4	1625	1684
73	0	0	2062	5	1623	1684
74	0	0	2510	5	1621	1684
75	0	0	2809	5	1619	1684
76	0	0	2946	5	1614	1684
77	0	0	2995	5	1613	1684
78	0	0	2972	4	1611	1685
79	0	0	2915	5	1613	1684
80	0	0	2827	4	1612	1684
81	0	0	2566	4	1611	1684
82	0	0	2278	4	1612	1684
83	0	0	2037	4	1612	1684
84	0	0	1800	3	1613	1684
85	0	0	1553	4	1616	1684
86	0	0	1337	4	1616	1684
87	0	0	1213	4	1620	1684
88	0	0	1186	5	1621	1684
89	0	0	1069	4	1625	1684
90	0	0	1014	5	1625	1684
91	0	0	1317	4	1625	1685
92	0	0	1685	5	1625	1685
93	0	0	2064	4	1622	1685
94	0	0	2504	5	1619	1684
95	0	0	2799	5	1616	1685
96	0	0	2936	5	1615	1685
97	0	0	2982	5	1613	1684
98	0	0	2957	4	1611	1684
99	0	0	2895	4	1611	1684
100	0	0	2807	4	1611	1683
101	0	0	2552	4	1611	1684
102	0	0	2273	4	1607	1684
103	0	0	2029	4	1611	1685
104	0	0	1795	4	1614	1685
105	0	0	1547	4	1615	1685
106	0	0	1335	4	1618	1684
107	0	0	1212	4	1618	1684
108	0	0	1194	5	1621	1684
109	0	0	1075	3	1623	1684
110	0	0	1020	4	1625	1684
111	0	0	1319	4	1624	1684
112	0	0	1681	4	1624	1685
113	0	0	2062	5	1621	1684
114	0	0	2513	4	1619	1684
115	0	0	2807	5	1619	1684
116	0	0	2937	5	1615	1684
117	0	0	2986	5	1612	1684
118	0	0	2967	5	1612	1685
119	0	0	2917	5	1609	1685
120	0	0	2819	4	1610	1685
121	0	0	2560	4	1608	1684
122	0	0	2274	4	1609	1684
123	0	0	2032	4	1610	1684
124	0	0	1798	3	1613	1684
125	0	0	1557	4	1616	1684
126	0	0	1341	3	1617	1684
127	0	0	1214	4	1620	1685
0	0	0	1197	4	1621	1684
1	0	0	1083	4	1624	1684
2	0	0	1028	5	1624	1685
3	0	0	1329	5	1623	1684
4	0	0	1687	5	1623	1684
5	0	0	2069	5	1621	1684
6	0	0	2516	5	1620	1684
7	0	0	2805	4	1617	1685
8	0	0	2939	5	1614	1684
9	0	0	2986	5	1614	1684
10	0	0	2967	4	1612	1684
11	0	0	2908	5	1609	1684
12	0	0	2814	4	1609	1684
13	0	0	2547	4	1610	1685
14	0	0	2265	4	1610	1684
15	0	0	2026	4	1612	1684
16	0	0	1788	4	1614	1684
17	0	0	1543	4	1615	1685
18	0	0	1331	4	1617	1685
19	0	0	1204	4	1619	1684
20	0	0	1178	4	1623	1684
21	0	0	1060	3	1624	1684
22	0	0	1005	4	1624	1685
23	0	0	1312	4	1626	1685
24	0	0	1669	4	1622	1684
25	0	0	2050	5	1620	1684
26	0	0	2501	5	1620	1684
27	0	0	2791	5	1616	1684
28	0	0	2925	5	1614	1684
29	0	0	2972	5	1612	1684
30	0	0	2949	4	1611	1684
31	0	0	2892	4	1611	1684
32	0	0	2801	4	1609	1684
33	0	0	2540	4	1609	1684
34	0	0	2257	4	1609	1684
35	0	0	2011	4	1611	1684
36	0	0	1772	3	1612	1684
37	0	0	1530	3	1615	1685
38	0	0	1320	4	1616	1684
39	0	0	1195	4	1619	1685
40	0	0	1179	4	1620	1684
41	0	0	1057	4	1624	1684
42	0	0	1004	4	1625	1684
43	0	0	1308	5	1624	1684
44	0	0	1669	5	1623	1684
45	0	0	2050	5	1621	1684
46	0	0	2501	5	1619	1684
47	0	0	2794	5	1616	1684
48	0	0	2925	5	1613	1684
49	0	0	2973	5	1612	1684
50	0	0	2953	4	1611	1684
51	0	0	2897	5	1608	1684
52	0	0	2804	4	1609	1685
53	0	0	2542	4	1610	1685
54	0	0	2260	4	1610	1684
55	0	0	2015	4	1612	1685
56	0	0	1780	3	1614	1685
57	0	0	1536	4	1615	1685
58	0	0	1328	4	1617	1685
59	0	0	1209	4	1618	1684
60	0	0	1194	4	1619	1684
61	0	0	1075	3	1623	1684
62	0	0	1018	5	1623	1685
63	0	0	1321	5	1622	1684
64	0	0	1687	5	1622	1684
65	0	0	2054	4	1621	1684
66	0	0	2503	5	1617	1684
67	0	0	2793	4	1616	1684
68	0	0	2930	5	1614	1684
69	0	0	2978	5	1611	1684
70	0	0	2957	4	1610	1684
71	0	0	2912	5	1607	1684
72	0	0	2816	4	1610	1684
73	0	0	2550	4	1609	1685
74	0	0	2268	4	1607	1684
75	0	0	2031	4	1610	1684
76	0	0	1792	3	1613	1684
77	0	0	1546	4	1615	1684
78	0	0	1334	4	1616	1684
79	0	0	1210	4	1620	1685
80	0	0	1198	4	1619	1684
81	0	0	1074	3	1622	1684
82	0	0	1029	5	1624	1685
83	0	0	1331	5	1623	1684
84	0	0	1692	5	1620	1684
85	0	0	2071	5	1619	1684
86	0	0	2515	4	1618	1685
87	0	0	2805	5	1615	1684
88	0	0	2941	4	1614	1685
89	0	0	2990	5	1611	1684
90	0	0	2969	4	1609	1684
91	0	0	2912	4	1608	1684
92	0	0	2816	4	1607	1684
93	0	0	2553	4	1608	1684
94	0	0	2271	4	1609	1684
95	0	0	2030	4	1609	1684
96	0	0	1794	4	1611	1684
97	0	0	1549	4	1614	1685
98	0	0	1332	4	1614	1684
99	0	0	1208	4	1616	1684
100	0	0	1188	5	1619	1684
101	0	0	1068	4	1621	1684
102	0	0	1019	4	1623	1684
103	0	0	1324	5	1622	1684
104	0	0	1681	4	1622	1684
105	0	0	2065	4	1619	1684
106	0	0	2507	5	1616	1684
107	0	0	2798	5	1615	1684
108	0	0	2928	5	1613	1684
109	0	0	2972	5	1611	1684
110	0	0	2947	4	1610	1684
111	0	0	2893	4	1608	1684
112	0	0	2802	3	1609	1684
113	0	0	2535	3	1608	1684
114	0	0	2249	4	1608	1684
115	0	0	2007	4	1609	1684
116	0	0	1776	4	1611	1684
117	0	0	1529	4	1615	1684
118	0	0	1318	4	1616	1684
119	0	0	1200	4	1617	1684
120	0	0	1183	4	1617	1684
121	0	0	1058	3	1622	1685
122	0	0	1015	5	1622	1684
123	0	0	1323	4	1623	1684
124	0	0	1684	5	1620	1684
125	0	0	2063	5	1620	1684
126	0	0	2500	5	1617	1684
127	0	0	2788	4	1616	1685
0	0	0	2919	5	1611	1684
1	0	0	2971	5	1609	1684
2	0	0	2947	4	1610	1684
3	0	0	2896	5	1607	1684
4	0	0	2799	4	1607	1684
5	0	0	2539	4	1607	1684
6	0	0	2257	4	1608	1684
7	0	0	2014	4	1608	1684
8	0	0	1785	3	1611	1684
9	0	0	1541	4	1613	1685
10	0	0	1328	4	1614	1684
11	0	0	1206	4	1617	1685
12	0	0	1188	4	1618	1684
13	0	0	1065	4	1622	1684
14	0	0	1019	4	1622	1684
15	0	0	1320	4	1622	1684
16	0	0	1680	5	1621	1684
17	0	0	2067	5	1618	1684
18	0	0	2516	5	1616	1685
19	0	0	2805	4	1614	1685
20	0	0	2937	5	1612	1684
21	0	0	2979	5	1610	1684
22	0	0	2952	4	1608	1684
23	0	0	2891	5	1608	1684
24	0	0	2798	3	1607	1685
25	0	0	2542	4	1606	1684
26	0	0	2268	4	1607	1684
27	0	0	2030	4	1609	1684
28	0	0	1797	4	1610	1685
29	0	0	1551	4	1613	1684
30	0	0	1338	4	1615	1684
31	0	0	1213	5	1616	1684
32	0	0	1192	5	1618	1684
33	0	0	1066	3	1621	1685
34	0	0	1029	4	1621	1684
35	0	0	1340	5	1621	1685
36	0	0	1699	5	1620	1684
37	0	0	2080	5	1619	1684
38	0	0	2527	5	1615	1684
39	0	0	2812	5	1614	1684
40	0	0	2937	5	1610	1684
41	0	0	2982	5	1610	1684
42	0	0	2961	4	1608	1684
43	0	0	2908	4	1607	1684
44	0	0	2815	4	1606	1684
45	0	0	2551	4	1607	1684
46	0	0	2272	4	1607	1684
47	0	0	2025	4	1608	1684
48	0	0	1788	3	1610	1684
49	0	0	1547	3	1613	1685
50	0	0	1335	4	1612	1684
51	0	0	1214	4	1616	1684
52	0	0	1199	5	1618	1684
53	0	0	1069	4	1621	1684
54	0	0	1032	4	1621	1685
55	0	0	1344	5	1621	1685
56	0	0	1698	5	1620	1684
57	0	0	2079	5	1618	1684
58	0	0	2525	5	1615	1684
59	0	0	2812	4	1613	1685
60	0	0	2937	5	1611	1684
61	0	0	2981	5	1608	1684
62	0	0	2959	4	1608	1684
63	0	0	2901	5	1607	1684
64	0	0	2801	4	1606	1685
65	0	0	2536	4	1606	1684
66	0	0	2259	4	1607	1684
67	0	0	2018	4	1607	1684
68	0	0	1778	3	1610	1684
69	0	0	1531	4	1612	1685
70	0	0	1323	4	1613	1685
71	0	0	1205	4	1615	1684
72	0	0	1187	4	1616	1684
73	0	0	1058	4	1620	1684
74	0	0	1019	4	1621	1685
75	0	0	1331	5	1620	1684
76	0	0	1689	5	1620	1685
77	0	0	2070	4	1618	1684
78	0	0	2516	5	1615	1684
79	0	0	2804	5	1614	1685
80	0	0	2928	5	1610	1685
81	0	0	2970	5	1608	1684
82	0	0	2951	4	1608	1684
83	0	0	2892	4	1606	1685
84	0	0	2792	4	1605	1685
85	0	0	2528	4	1606	1684
86	0	0	2250	4	1605	1684
87	0	0	2016	4	1606	1684
88	0	0	1781	3	1609	1684
89	0	0	1532	3	1611	1685
90	0	0	1327	4	1613	1685
91	0	0	1209	3	1615	1684
92	0	0	1189	5	1617	1684
93	0	0	1059	4	1620	1685
94	0	0	1025	4	1621	1685
95	0	0	1339	5	1619	1685
96	0	0	1698	5	1619	1684
97	0	0	2069	5	1614	1684
98	0	0	2514	5	1614	1684
99	0	0	2803	5	1612	1685
100	0	0	2931	5	1610	1684
101	0	0	2976	5	1609	1684
102	0	0	2948	4	1607	1684
103	0	0	2894	5	1605	1684
104	0	0	2799	4	1605	1684
105	0	0	2531	4	1605	1685
106	0	0	2246	4	1604	1684
107	0	0	2004	4	1605	1684
108	0	0	1774	4	1609	1684
109	0	0	1529	4	1611	1684
110	0	0	1320	4	1611	1684
111	0	0	1204	4	1614	1684
112	0	0	1189	5	1615	1684
113	0	0	1066	4	1619	1684
114	0	0	1030	5	1620	1685
115	0	0	1341	4	1618	1684
116	0	0	1702	4	1619	1684
117	0	0	2086	4	1616	1685
118	0	0	2527	5	1613	1685
119	0	0	2808	4	1612	1684
120	0	0	2935	5	1609	1685
121	0	0	2978	5	1608	1684
122	0	0	2953	4	1606	1684
123	0	0	2894	5	1605	1684
124	0	0	2799	4	1603	1684
125	0	0	2536	4	1605	1684
126	0	0	2252	4	1605	1684
127	0	0	2017	4	1607	1684
0	0	0	1787	4	1607	1685
1	0	0	1537	3	1610	1685
2	0	0	1328	3	1612	1685
3	0	0	1210	4	1615	1685
4	0	0	1195	5	1615	1684
5	0	0	1069	4	1617	1684
6	0	0	1038	5	1620	1685
7	0	0	1344	5	1619	1684
8	0	0	1703	5	1619	1684
9	0	0	2084	4	1615	1684
10	0	0	2524	4	1612	1684
11	0	0	2807	4	1612	1684
12	0	0	2934	5	1609	1684
13	0	0	2974	5	1607	1684
14	0	0	2949	4	1604	1684
15	0	0	2894	5	1605	1684
16	0	0	2792	4	1605	1684
17	0	0	2527	4	1605	1684
18	0	0	2245	4	1604	1684
19	0	0	2002	4	1606	1684
20	0	0	1775	4	1609	1684
21	0	0	1530	3	1610	1684
22	0	0	1321	4	1611	1684
23	0	0	1206	4	1614	1684
24	0	0	1192	5	1615	1684
25	0	0	1064	4	1618	1685
26	0	0	1029	4	1620	1684
27	0	0	1337	4	1618	1685
28	0	0	1695	5	1618	1684
29	0	0	2083	4	1615	1684
30	0	0	2529	5	1613	1685
31	0	0	2811	5	1609	1684
32	0	0	2938	5	1609	1685
33	0	0	2976	6	1607	1684
34	0	0	2950	4	1606	1684
35	0	0	2891	6	1603	1684
36	0	0	2791	4	1604	1684
37	0	0	2527	4	1603	1684
38	0	0	2250	3	1605	1684
39	0	0	2002	4	1605	1684
40	0	0	1770	4	1608	1685
41	0	0	1531	3	1610	1686
42	0	0	1327	4	1611	1684
43	0	0	1212	4	1612	1684
44	0	0	1199	5	1614	1684
45	0	0	1074	4	1617	1684
46	0	0	1040	4	1618	1685
47	0	0	1355	4	1618	1684
48	0	0	1711	4	1618	1685
49	0	0	2088	5	1614	1684
50	0	0	2533	6	1612	1684
51	0	0	2816	5	1611	1684
52	0	0	2938	5	1607	1684
53	0	0	2976	5	1607	1684
54	0	0	2950	4	1605	1684
55	0	0	2890	5	1603	1684
56	0	0	2790	4	1603	1684
57	0	0	2520	4	1602	1684
58	0	0	2238	4	1604	1684
59	0	0	2000	3	1605	1684
60	0	0	1768	5	1606	1684
61	0	0	1524	4	1609	1684
62	0	0	1320	4	1610	1684
63	0	0	1208	4	1614	1685
64	0	0	1197	6	1614	1684
65	0	0	1067	5	1616	1684
66	0	0	1033	4	1617	1684
67	0	0	1348	5	1617	1683
68	0	0	1710	4	1617	1684
69	0	0	2093	5	1614	1684
70	0	0	2530	5	1612	1684
71	0	0	2809	4	1609	1685
72	0	0	2934	5	1607	1684
73	0	0	2976	5	1606	1684
74	0	0	2949	4	1605	1684
75	0	0	2894	5	1603	1684
76	0	0	2790	4	1602	1684
77	0	0	2520	4	1602	1684
78	0	0	2245	3	1605	1685
79	0	0	2001	3	1605	1684
80	0	0	1770	4	1607	1684
81	0	0	1527	3	1608	1684
82	0	0	1322	4	1610	1684
83	0	0	1207	4	1611	1684
84	0	0	1194	5	1614	1684
85	0	0	1069	3	1617	1684
86	0	0	1039	4	1619	1684
87	0	0	1352	5	1618	1684
88	0	0	1714	5	1616	1684
89	0	0	2104	5	1613	1684
90	0	0	2537	5	1611	1684
91	0	0	2815	4	1609	1684
92	0	0	2940	5	1607	1685
93	0	0	2979	5	1605	1684
94	0	0	2948	4	1604	1684
95	0	0	2889	5	1603	1684
96	0	0	2789	4	1601	1684
97	0	0	2524	4	1603	1684
98	0	0	2246	4	1602	1684
99	0	0	2006	4	1603	1684
100	0	0	1774	4	1606	1684
101	0	0	1528	4	1608	1684
102	0	0	1321	4	1609	1684
103	0	0	1203	4	1611	1684
104	0	0	1193	4	1613	1684
105	0	0	1067	4	1617	1684
106	0	0	1039	4	1616	1684
107	0	0	1357	5	1616	1684
108	0	0	1717	5	1616	1684
109	0	0	2100	5	1612	1684
110	0	0	2543	5	1611	1684
111	0	0	2819	4	1609	1684
112	0	0	2942	5	1608	1684
113	0	0	2979	5	1604	1684
114	0	0	2949	4	1603	1684
115	0	0	2893	5	1603	1683
116	0	0	2789	4	1601	1684
117	0	0	2522	4	1602	1684
118	0	0	2243	4	1603	1684
119	0	0	2004	3	1602	1684
120	0	0	1771	4	1604	1684
121	0	0	1527	4	1606	1684
122	0	0	1322	4	1608	1684
123	0	0	1209	4	1612	1685
124	0	0	1200	5	1611	1684
125	0	0	1072	4	1617	1684
126	0	0	1043	4	1617	1685
127	0	0	1358	5	1615	1684
0	0	0	1710	5	1614	1684
1	0	0	2097	5	1612	1684
2	0	0	2542	5	1610	1684
3	0	0	2816	4	1608	1684
4	0	0	2938	5	1606	1684
5	0	0	2976	5	1604	1684
6	0	0	2946	4	1602	1684
7	0	0	2889	5	1602	1684
8	0	0	2784	4	1599	1684
9	0	0	2515	3	1601	1684
10	0	0	2241	3	1603	1685
11	0	0	2006	4	1602	1684
12	0	0	1775	4	1604	1684
13	0	0	1538	3	1607	1684
14	0	0	1336	4	1608	1683
15	0	0	1224	4	1612	1685
16	0	0	1212	5	1613	1684
17	0	0	1076	5	1615	1684
18	0	0	1048	5	1616	1684
19	0	0	1370	5	1615	1684
20	0	0	1723	4	1615	1684
21	0	0	2106	4	1612	1684
22	0	0	2544	5	1610	1684
23	0	0	2816	5	1609	1684
24	0	0	2935	4	1605	1683
25	0	0	2971	5	1604	1684
26	0	0	2941	3	1602	1684
27	0	0	2881	5	1600	1684
28	0	0	2775	4	1599	1684
29	0	0	2508	4	1601	1684
30	0	0	2237	4	1601	1684
31	0	0	1999	4	1602	1684
32	0	0	1771	4	1604	1684
33	0	0	1530	4	1606	1684
34	0	0	1327	4	1609	1684
35	0	0	1218	4	1610	1685
36	0	0	1206	4	1613	1683
37	0	0	1072	4	1614	1684
38	0	0	1050	4	1617	1684
39	0	0	1370	5	1614	1683
40	0	0	1721	4	1616	1685
41	0	0	2101	5	1612	1684
42	0	0	2540	5	1609	1684
43	0	0	2811	5	1607	1684
44	0	0	2931	5	1604	1684
45	0	0	2973	5	1604	1684
46	0	0	2945	4	1601	1684
47	0	0	2896	5	1600	1684
48	0	0	2794	4	1600	1684
49	0	0	2521	4	1601	1684
50	0	0	2242	4	1601	1684
51	0	0	2002	4	1602	1684
52	0	0	1771	4	1603	1684
53	0	0	1527	4	1605	1684
54	0	0	1330	4	1606	1684
55	0	0	1224	3	1610	1685
56	0	0	1218	6	1612	1684
57	0	0	1087	3	1613	1684
58	0	0	1059	4	1614	1684
59	0	0	1374	4	1613	1683
60	0	0	1729	4	1613	1684
61	0	0	2113	5	1611	1684
62	0	0	2550	5	1608	1684
63	0	0	2820	5	1606	1684
64	0	0	2935	5	1605	1685
65	0	0	2970	5	1602	1684
66	0	0	2937	4	1601	1684
67	0	0	2873	5	1600	1684
68	0	0	2767	4	1600	1684
69	0	0	2499	4	1600	1684
70	0	0	2220	3	1600	1683
71	0	0	1982	4	1601	1684
72	0	0	1757	4	1603	1684
73	0	0	1521	4	1604	1684
74	0	0	1319	4	1607	1684
75	0	0	1205	4	1610	1684
76	0	0	1195	4	1610	1684
77	0	0	1057	4	1614	1685
78	0	0	1039	5	1614	1684
79	0	0	1357	5	1614	1684
80	0	0	1712	5	1613	1684
81	0	0	2090	5	1611	1684
82	0	0	2526	5	1607	1684
83	0	0	2800	5	1605	1684
84	0	0	2917	5	1604	1684
85	0	0	2954	5	1602	1684
86	0	0	2923	4	1599	1684
87	0	0	2868	5	1598	1684
88	0	0	2763	4	1598	1684
89	0	0	2491	4	1598	1684
90	0	0	2219	3	1600	1684
91	0	0	1986	4	1602	1684
92	0	0	1759	3	1602	1684
93	0	0	1516	4	1604	1684
94	0	0	1318	4	1606	1685
95	0	0	1210	4	1608	1684
96	0	0	1202	5	1610	1684
97	0	0	1068	3	1612	1684
98	0	0	1046	4	1613	1684
99	0	0	1366	5	1612	1684
100	0	0	1723	4	1613	1684
101	0	0	2108	4	1610	1684
102	0	0	2540	5	1607	1684
103	0	0	2810	5	1604	1684
104	0	0	2929	5	1603	1684
105	0	0	2960	4	1601	1684
106	0	0	2928	4	1601	1684
107	0	0	2875	5	1598	1684
108	0	0	2776	4	1597	1684
109	0	0	2506	4	1597	1684
110	0	0	2232	3	1599	1684
111	0	0	1989	3	1600	1684
112	0	0	1764	4	1601	1684
113	0	0	1525	4	1604	1684
114	0	0	1328	4	1605	1684
115	0	0	1219	4	1608	1684
116	0	0	1215	5	1609	1684
117	0	0	1088	4	1611	1684
118	0	0	1074	5	1613	1684
119	0	0	1391	5	1613	1684
120	0	0	1747	4	1610	1684
121	0	0	2136	5	1609	1684
122	0	0	2565	5	1606	1684
123	0	0	2828	4	1605	1684
124	0	0	2937	5	1602	1684
125	0	0	2968	5	1601	1684
126	0	0	2930	4	1599	1684
127	0	0	2874	6	1597	1684
0	0	0	2771	4	1598	1684
1	0	0	2500	4	1596	1684
2	0	0	2222	3	1598	1684
3	0	0	1988	4	1599	1684
4	0	0	1764	3	1602	1685
5	0	0	1524	3	1604	1684
6	0	0	1324	4	1606	1684
7	0	0	1216	3	1608	1685
8	0	0	1215	6	1611	1684
9	0	0	1084	4	1612	1684
10	0	0	1063	5	1613	1684
11	0	0	1380	5	1612	1684
12	0	0	1738	4	1613	1684
13	0	0	2123	5	1608	1684
14	0	0	2549	5	1607	1684
15	0	0	2812	4	1604	1684
16	0	0	2927	5	1602	1684
17	0	0	2960	4	1600	1684
18	0	0	2920	4	1598	1685
19	0	0	2867	5	1597	1685
20	0	0	2756	4	1597	1684
21	0	0	2486	4	1598	1684
22	0	0	2212	4	1598	1684
23	0	0	1969	4	1600	1684
24	0	0	1751	4	1600	1684
25	0	0	1520	4	1604	1684
26	0	0	1319	4	1605	1684
27	0	0	1208	3	1607	1685
28	0	0	1201	5	1608	1684
29	0	0	1064	3	1611	1684
30	0	0	1055	4	1613	1684
31	0	0	1376	5	1613	1685
32	0	0	1729	5	1611	1684
33	0	0	2117	5	1608	1684
34	0	0	2553	5	1605	1684
35	0	0	2819	6	1604	1684
36	0	0	2931	5	1602	1684
37	0	0	2960	5	1599	1684
38	0	0	2919	4	1599	1684
39	0	0	2847	5	1596	1684
40	0	0	2742	4	1596	1684
41	0	0	2477	4	1596	1684
42	0	0	2208	3	1599	1684
43	0	0	1968	4	1599	1684
44	0	0	1741	4	1601	1684
45	0	0	1510	3	1603	1684
46	0	0	1315	4	1606	1684
47	0	0	1213	3	1607	1684
48	0	0	1210	5	1610	1683
49	0	0	1081	4	1611	1684
50	0	0	1064	4	1612	1685
51	0	0	1388	4	1611	1684
52	0	0	1737	3	1613	1684
53	0	0	2121	6	1608	1684
54	0	0	2550	5	1606	1684
55	0	0	2816	5	1605	1685
56	0	0	2928	5	1602	1684
57	0	0	2961	4	1600	1685
58	0	0	2926	4	1599	1684
59	0	0	2872	5	1595	1684
60	0	0	2761	5	1595	1684
61	0	0	2487	4	1597	1684
62	0	0	2220	4	1599	1684
63	0	0	1986	4	1599	1684
64	0	0	1764	5	1599	1684
65	0	0	1537	3	1603	1684
66	0	0	1338	4	1606	1684
67	0	0	1235	4	1605	1684
68	0	0	1228	5	1607	1684
69	0	0	1082	4	1613	1685
70	0	0	1068	5	1614	1684
71	0	0	1398	4	1612	1685
72	0	0	1754	4	1611	1684
73	0	0	2140	4	1608	1684
74	0	0	2567	5	1606	1684
75	0	0	2829	6	1604	1684
76	0	0	2935	5	1601	1684
77	0	0	2966	4	1600	1685
78	0	0	2929	4	1598	1684
79	0	0	2867	5	1596	1684
80	0	0	2761	4	1594	1684
81	0	0	2492	4	1595	1684
82	0	0	2222	4	1595	1684
83	0	0	1986	4	1598	1684
84	0	0	1760	4	1601	1685
85	0	0	1525	5	1602	1684
86	0	0	1328	4	1605	1684
87	0	0	1227	4	1604	1684
88	0	0	1225	4	1608	1684
89	0	0	1088	4	1610	1684
90	0	0	1074	4	1611	1684
91	0	0	1405	4	1610	1684
92	0	0	1760	4	1609	1684
93	0	0	2139	5	1607	1684
94	0	0	2566	4	1605	1684
95	0	0	2824	5	1603	1684
96	0	0	2930	4	1599	1684
97	0	0	2957	5	1599	1684
98	0	0	2917	5	1597	1684
99	0	0	2858	5	1597	1684
100	0	0	2740	4	1596	1684
101	0	0	2470	4	1596	1684
102	0	0	2205	4	1596	1684
103	0	0	1967	5	1597	1684
104	0	0	1741	4	1599	1684
105	0	0	1508	4	1601	1684
106	0	0	1318	4	1604	1685
107	0	0	1214	4	1605	1684
108	0	0	1211	4	1606	1684
109	0	0	1077	3	1612	1685
110	0	0	1066	5	1611	1684
111	0	0	1390	5	1612	1685
112	0	0	1743	4	1608	1684
113	0	0	2126	5	1607	1684
114	0	0	2548	5	1604	1684
115	0	0	2804	4	1603	1684
116	0	0	2910	4	1600	1684
117	0	0	2939	5	1599	1684
118	0	0	2900	4	1597	1684
119	0	0	2835	4	1592	1684
120	0	0	2726	3	1594	1684
121	0	0	2462	3	1594	1684
122	0	0	2191	4	1595	1684
123	0	0	1961	4	1594	1684
124	0	0	1741	4	1600	1684
125	0	0	1506	4	1601	1684
126	0	0	1308	4	1603	1684
127	0	0	1205	4	1606	1685
0	0	0	1207	5	1608	1684
1	0	0	1064	3	1609	1684
2	0	0	1055	4	1610	1684
3	0	0	1383	4	1609	1684
4	0	0	1738	5	1610	1684
5	0	0	2125	5	1606	1684
6	0	0	2546	5	1604	1684
7	0	0	2800	4	1601	1684
8	0	0	2907	5	1600	1685
9	0	0	2937	4	1596	1684
10	0	0	2902	4	1597	1684
11	0	0	2848	5	1594	1684
12	0	0	2736	4	1593	1684
13	0	0	2472	3	1594	1684
14	0	0	2204	4	1596	1684
15	0	0	1972	4	1596	1684
16	0	0	1757	4	1599	1684
17	0	0	1525	3	1601	1684
18	0	0	1332	3	1603	1684
19	0	0	1231	4	1604	1684
20	0	0	1230	5	1606	1684
21	0	0	1097	5	1610	1684
22	0	0	1091	4	1610	1684
23	0	0	1419	5	1609	1684
24	0	0	1772	5	1608	1684
25	0	0	2152	5	1607	1684
26	0	0	2579	5	1604	1684
27	0	0	2834	4	1602	1684
28	0	0	2942	5	1599	1684
29	0	0	2969	4	1597	1684
30	0	0	2932	4	1594	1684
31	0	0	2875	5	1594	1684
32	0	0	2760	3	1594	1684
33	0	0	2492	4	1595	1685
34	0	0	2221	4	1596	1684
35	0	0	1983	4	1595	1684
36	0	0	1762	4	1599	1685
37	0	0	1527	4	1600	1684
38	0	0	1337	4	1604	1685
39	0	0	1235	4	1605	1684
40	0	0	1235	4	1606	1684
41	0	0	1098	4	1609	1684
42	0	0	1091	4	1610	1684
43	0	0	1423	4	1609	1684
44	0	0	1772	4	1609	1685
45	0	0	2156	5	1606	1684
46	0	0	2577	5	1603	1684
47	0	0	2829	4	1601	1685
48	0	0	2935	5	1599	1684
49	0	0	2963	5	1597	1684
50	0	0	2924	4	1595	1684
51	0	0	2867	5	1594	1685
52	0	0	2745	3	1594	1684
53	0	0	2471	4	1593	1685
54	0	0	2204	4	1595	1684
55	0	0	1967	3	1595	1684
56	0	0	1744	4	1598	1684
57	0	0	1517	4	1599	1684
58	0	0	1327	4	1601	1684
59	0	0	1230	5	1605	1684
60	0	0	1234	4	1606	1684
61	0	0	1094	3	1608	1684
62	0	0	1088	4	1610	1684
63	0	0	1418	6	1609	1684
64	0	0	1762	5	1609	1684
65	0	0	2139	5	1605	1684
66	0	0	2560	5	1603	1684
67	0	0	2816	5	1602	1684
68	0	0	2917	5	1598	1684
69	0	0	2944	5	1597	1685
70	0	0	2906	4	1596	1684
71	0	0	2855	5	1594	1684
72	0	0	2741	3	1593	1684
73	0	0	2472	4	1595	1685
74	0	0	2207	4	1593	1684
75	0	0	1966	3	1596	1684
76	0	0	1745	4	1598	1684
77	0	0	1514	4	1601	1685
78	0	0	1327	4	1602	1684
79	0	0	1236	4	1604	1685
80	0	0	1242	4	1606	1684
81	0	0	1108	4	1610	1684
82	0	0	1103	4	1609	1685
83	0	0	1439	5	1609	1684
84	0	0	1794	5	1609	1684
85	0	0	2182	4	1605	1684
86	0	0	2606	4	1602	1684
87	0	0	2857	4	1601	1684
88	0	0	2958	5	1598	1684
89	0	0	2980	5	1596	1684
90	0	0	2936	4	1596	1684
91	0	0	2877	5	1594	1684
92	0	0	2762	3	1594	1684
93	0	0	2490	4	1594	1684
94	0	0	2222	4	1594	1684
95	0	0	1993	4	1596	1684
96	0	0	1772	4	1596	1684
97	0	0	1546	4	1600	1684
98	0	0	1360	4	1603	1684
99	0	0	1258	4	1603	1684
100	0	0	1249	5	1606	1684
101	0	0	1103	3	1608	1684
102	0	0	1105	5	1610	1684
103	0	0	1436	5	1609	1684
104	0	0	1788	5	1608	1685
105	0	0	2167	5	1606	1684
106	0	0	2583	5	1603	1684
107	0	0	2834	5	1602	1684
108	0	0	2935	5	1598	1684
109	0	0	2959	5	1597	1684
110	0	0	2919	4	1596	1685
111	0	0	2862	5	1593	1684
112	0	0	2747	3	1593	1684
113	0	0	2469	4	1593	1684
114	0	0	2200	4	1593	1684
115	0	0	1967	4	1595	1684
116	0	0	1748	4	1597	1684
117	0	0	1518	3	1599	1684
118	0	0	1330	4	1601	1684
119	0	0	1229	4	1604	1684
120	0	0	1227	5	1605	1684
121	0	0	1089	4	1608	1684
122	0	0	1089	4	1610	1684
123	0	0	1416	5	1608	1685
124	0	0	1764	5	1606	1684
125	0	0	2156	5	1605	1684
126	0	0	2571	5	1603	1684
127	0	0	2817	3	1600	1684
0	0	0	2918	5	1597	1684
1	0	0	2936	6	1596	1684
2	0	0	2893	4	1594	1684
3	0	0	2833	5	1593	1684
4	0	0	2720	4	1592	1684
5	0	0	2447	3	1592	1684
6	0	0	2184	5	1593	1684
7	0	0	1955	4	1594	1684
8	0	0	1738	4	1597	1684
9	0	0	1506	3	1597	1684
10	0	0	1317	4	1600	1684
11	0	0	1216	4	1603	1685
12	0	0	1217	4	1605	1684
13	0	0	1076	4	1608	1684
14	0	0	1082	4	1609	1684
15	0	0	1415	4	1608	1683
16	0	0	1764	5	1608	1685
17	0	0	2152	5	1605	1684
18	0	0	2568	5	1601	1684
19	0	0	2816	4	1600	1684
20	0	0	2913	5	1597	1684
21	0	0	2936	5	1595	1684
22	0	0	2892	5	1593	1684
23	0	0	2833	4	1593	1684
24	0	0	2719	3	1592	1684
25	0	0	2453	4	1593	1684
26	0	0	2189	4	1594	1684
27	0	0	1960	4	1594	1684
28	0	0	1743	4	1596	1684
29	0	0	1510	2	1599	1684
30	0	0	1320	4	1601	1684
31	0	0	1223	4	1603	1684
32	0	0	1229	5	1604	1684
33	0	0	1090	4	1608	1684
34	0	0	1098	3	1607	1684
35	0	0	1428	5	1608	1684
36	0	0	1780	6	1605	1684
37	0	0	2173	5	1603	1684
38	0	0	2597	5	1602	1684
39	0	0	2848	4	1600	1684
40	0	0	2947	5	1596	1684
41	0	0	2963	5	1594	1684
42	0	0	2913	4	1594	1684
43	0	0	2845	4	1590	1684
44	0	0	2733	4	1591	1684
45	0	0	2470	4	1593	1684
46	0	0	2208	4	1591	1684
47	0	0	1975	4	1594	1684
48	0	0	1755	4	1597	1684
49	0	0	1529	4	1597	1684
50	0	0	1339	4	1601	1685
51	0	0	1239	3	1602	1684
52	0	0	1240	4	1604	1684
53	0	0	1102	4	1609	1684
54	0	0	1110	3	1607	1684
55	0	0	1447	4	1609	1685
56	0	0	1790	5	1608	1684
57	0	0	2177	5	1605	1684
58	0	0	2595	5	1602	1684
59	0	0	2842	5	1598	1684
60	0	0	2939	5	1597	1684
61	0	0	2953	6	1595	1684
62	0	0	2902	4	1595	1684
63	0	0	2843	5	1591	1684
64	0	0	2724	3	1591	1684
65	0	0	2453	4	1592	1684
66	0	0	2193	4	1592	1684
67	0	0	1962	4	1594	1684
68	0	0	1739	4	1598	1684
69	0	0	1509	4	1599	1685
70	0	0	1318	4	1601	1684
71	0	0	1221	4	1603	1684
72	0	0	1226	4	1604	1684
73	0	0	1090	3	1607	1684
74	0	0	1094	4	1608	1684
75	0	0	1426	5	1607	1684
76	0	0	1769	5	1607	1684
77	0	0	2157	5	1602	1684
78	0	0	2574	5	1599	1684
79	0	0	2816	4	1599	1684
80	0	0	2911	5	1597	1684
81	0	0	2931	5	1594	1684
82	0	0	2879	4	1594	1684
83	0	0	2820	5	1592	1684
84	0	0	2705	4	1589	1684
85	0	0	2436	4	1590	1684
86	0	0	2174	4	1592	1685
87	0	0	1945	4	1595	1683
88	0	0	1725	4	1597	1684
89	0	0	1496	4	1597	1684
90	0	0	1314	4	1600	1684
91	0	0	1220	4	1602	1684
92	0	0	1227	5	1603	1684
93	0	0	1086	3	1607	1684
94	0	0	1091	5	1608	1684
95	0	0	1428	5	1607	1684
96	0	0	1779	5	1606	1684
97	0	0	2164	4	1603	1684
98	0	0	2577	5	1602	1684
99	0	0	2819	5	1598	1684
100	0	0	2914	5	1597	1685
101	0	0	2931	5	1593	1684
102	0	0	2886	4	1594	1684
103	0	0	2829	5	1591	1684
104	0	0	2710	4	1590	1684
105	0	0	2439	4	1591	1684
106	0	0	2179	4	1591	1684
107	0	0	1951	4	1593	1684
108	0	0	1736	4	1595	1684
109	0	0	1502	3	1598	1684
110	0	0	1318	4	1600	1684
111	0	0	1226	4	1601	1684
112	0	0	1236	4	1603	1684
113	0	0	1097	4	1607	1684
114	0	0	1109	4	1609	1685
115	0	0	1444	5	1607	1684
116	0	0	1792	4	1607	1684
117	0	0	2178	5	1604	1684
118	0	0	2592	5	1602	1684
119	0	0	2836	5	1599	1684
120	0	0	2933	5	1595	1684
121	0	0	2953	5	1594	1684
122	0	0	2907	4	1592	1684
123	0	0	2848	5	1591	1684
124	0	0	2726	4	1590	1684
125	0	0	2452	4	1592	1684
126	0	0	2188	4	1591	1684
127	0	0	1962	3	1593	1684
0	0	0	1748	4	1597	1684
1	0	0	1520	4	1598	1684
2	0	0	1339	4	1599	1684
3	0	0	1245	4	1603	1684
4	0	0	1252	5	1604	1684
5	0	0	1111	3	1607	1684
6	0	0	1123	5	1608	1685
7	0	0	1459	4	1607	1684
8	0	0	1808	4	1608	1684
9	0	0	2185	6	1603	1684
10	0	0	2601	5	1602	1684
11	0	0	2844	5	1599	1684
12	0	0	2937	5	1597	1684
13	0	0	2952	5	1594	1684
14	0	0	2895	4	1592	1684
15	0	0	2836	5	1591	1684
16	0	0	2719	4	1589	1684
17	0	0	2448	4	1591	1684
18	0	0	2181	5	1592	1684
19	0	0	1951	5	1592	1684
20	0	0	1738	4	1596	1684
21	0	0	1511	4	1597	1684
22	0	0	1321	4	1600	1684
23	0	0	1225	3	1603	1685
24	0	0	1229	4	1603	1684
25	0	0	1084	4	1608	1684
26	0	0	1097	5	1606	1684
27	0	0	1434	5	1606	1684
28	0	0	1780	5	1606	1684
29	0	0	2170	5	1603	1684
30	0	0	2573	5	1601	1684
31	0	0	2813	5	1600	1684
32	0	0	2910	5	1596	1685
33	0	0	2926	5	1593	1684
34	0	0	2880	5	1592	1684
35	0	0	2819	5	1590	1684
36	0	0	2701	4	1589	1684
37	0	0	2433	4	1591	1684
38	0	0	2166	3	1593	1685
39	0	0	1931	4	1595	1684
40	0	0	1719	3	1595	1684
41	0	0	1497	4	1597	1684
42	0	0	1319	4	1599	1684
43	0	0	1232	5	1602	1685
44	0	0	1243	6	1603	1684
45	0	0	1107	4	1606	1684
46	0	0	1121	4	1608	1685
47	0	0	1452	5	1606	1684
48	0	0	1795	5	1605	1684
49	0	0	2178	5	1603	1684
50	0	0	2584	4	1602	1685
51	0	0	2825	5	1599	1684
52	0	0	2916	5	1596	1684
53	0	0	2931	5	1594	1684
54	0	0	2877	4	1593	1685
55	0	0	2816	4	1591	1684
56	0	0	2687	4	1590	1684
57	0	0	2415	4	1591	1684
58	0	0	2152	4	1591	1684
59	0	0	1926	4	1592	1684
60	0	0	1721	4	1594	1684
61	0	0	1500	4	1596	1684
62	0	0	1321	4	1599	1684
63	0	0	1236	4	1601	1684
64	0	0	1252	4	1604	1684
65	0	0	1116	4	1606	1684
66	0	0	1140	4	1606	1684
67	0	0	1481	4	1607	1685
68	0	0	1825	5	1605	1684
69	0	0	2217	5	1603	1684
70	0	0	2617	5	1601	1684
71	0	0	2841	5	1598	1685
72	0	0	2925	5	1597	1684
73	0	0	2935	5	1594	1684
74	0	0	2878	4	1593	1684
75	0	0	2816	4	1590	1684
76	0	0	2694	4	1589	1684
77	0	0	2430	4	1590	1684
78	0	0	2174	4	1592	1684
79	0	0	1945	3	1592	1684
80	0	0	1735	4	1595	1684
81	0	0	1515	4	1599	1684
82	0	0	1339	4	1599	1684
83	0	0	1251	4	1601	1684
84	0	0	1264	4	1604	1684
85	0	0	1131	4	1607	1684
86	0	0	1151	5	1606	1684
87	0	0	1489	4	1605	1684
88	0	0	1833	5	1606	1685
89	0	0	2215	5	1604	1684
90	0	0	2610	5	1602	1684
91	0	0	2831	5	1599	1684
92	0	0	2909	5	1595	1684
93	0	0	2913	6	1594	1684
94	0	0	2861	4	1593	1684
95	0	0	2795	4	1590	1684
96	0	0	2673	4	1589	1684
97	0	0	2409	4	1590	1684
98	0	0	2150	4	1590	1684
99	0	0	1922	4	1593	1684
100	0	0	1710	3	1595	1684
101	0	0	1485	4	1598	1684
102	0	0	1308	4	1598	1684
103	0	0	1226	4	1601	1684
104	0	0	1241	4	1603	1684
105	0	0	1102	4	1606	1684
106	0	0	1124	5	1607	1684
107	0	0	1466	5	1606	1685
108	0	0	1803	5	1605	1684
109	0	0	2190	4	1603	1684
110	0	0	2593	5	1600	1684
111	0	0	2816	5	1599	1684
112	0	0	2898	4	1596	1684
113	0	0	2905	5	1594	1684
114	0	0	2853	4	1591	1684
115	0	0	2793	4	1590	1684
116	0	0	2667	4	1590	1684
117	0	0	2392	4	1590	1683
118	0	0	2137	4	1592	1684
119	0	0	1911	3	1594	1684
120	0	0	1708	3	1595	1684
121	0	0	1498	4	1598	1685
122	0	0	1324	4	1599	1684
123	0	0	1238	4	1601	1685
124	0	0	1253	5	1605	1684
125	0	0	1112	4	1607	1684
126	0	0	1139	5	1608	1684
127	0	0	1488	5	1606	1684
0	0	0	1831	4	1607	1685
1	0	0	2219	4	1604	1685
2	0	0	2620	5	1601	1684
3	0	0	2847	5	1600	1684
4	0	0	2925	5	1595	1684
5	0	0	2931	5	1593	1684
6	0	0	2875	4	1591	1684
7	0	0	2817	5	1590	1684
8	0	0	2695	3	1592	1684
9	0	0	2425	4	1592	1685
10	0	0	2169	5	1593	1683
11	0	0	1939	4	1593	1684
12	0	0	1739	4	1595	1684
13	0	0	1525	4	1599	1684
14	0	0	1348	4	1599	1684
15	0	0	1261	4	1601	1685
16	0	0	1269	4	1605	1684
17	0	0	1124	4	1608	1684
18	0	0	1155	5	1607	1684
19	0	0	1499	5	1608	1684
20	0	0	1843	4	1606	1684
21	0	0	2228	5	1604	1684
22	0	0	2631	5	1603	1684
23	0	0	2859	4	1599	1684
24	0	0	2941	5	1596	1684
25	0	0	2942	5	1594	1684
26	0	0	2878	3	1593	1684
27	0	0	2813	4	1591	1684
28	0	0	2690	4	1589	1684
29	0	0	2419	4	1591	1684
30	0	0	2157	4	1591	1684
31	0	0	1933	4	1594	1684
32	0	0	1724	4	1594	1685
33	0	0	1501	4	1596	1684
34	0	0	1330	4	1599	1685
35	0	0	1244	4	1601	1684
36	0	0	1258	4	1602	1684
37	0	0	1113	4	1607	1685
38	0	0	1142	4	1607	1684
39	0	0	1485	4	1607	1684
40	0	0	1826	5	1606	1684
41	0	0	2205	5	1602	1684
42	0	0	2608	5	1601	1684
43	0	0	2834	5	1597	1684
44	0	0	2915	5	1595	1684
45	0	0	2924	5	1594	1684
46	0	0	2864	4	1591	1684
47	0	0	2799	4	1589	1683
48	0	0	2673	4	1589	1684
49	0	0	2395	4	1590	1684
50	0	0	2133	3	1591	1684
51	0	0	1905	4	1594	1684
52	0	0	1694	4	1594	1684
53	0	0	1473	4	1598	1684
54	0	0	1303	4	1598	1684
55	0	0	1222	4	1602	1684
56	0	0	1243	4	1604	1684
57	0	0	1106	4	1608	1684
58	0	0	1128	5	1609	1684
59	0	0	1467	5	1606	1684
60	0	0	1811	5	1606	1684
61	0	0	2203	4	1603	1684
62	0	0	2599	5	1600	1685
63	0	0	2822	5	1597	1684
64	0	0	2902	5	1594	1684
65	0	0	2900	4	1594	1684
66	0	0	2842	4	1593	1685
67	0	0	2775	4	1591	1684
68	0	0	2650	4	1590	1684
69	0	0	2378	4	1589	1684
70	0	0	2117	4	1590	1684
71	0	0	1895	4	1592	1684
72	0	0	1690	4	1595	1685
73	0	0	1472	4	1598	1684
74	0	0	1304	4	1599	1684
75	0	0	1222	4	1600	1684
76	0	0	1242	5	1602	1684
77	0	0	1104	4	1606	1684
78	0	0	1133	5	1607	1684
79	0	0	1479	5	1605	1684
80	0	0	1825	5	1605	1684
81	0	0	2213	4	1603	1684
82	0	0	2612	4	1599	1684
83	0	0	2841	5	1599	1684
84	0	0	2924	5	1595	1684
85	0	0	2933	5	1594	1684
86	0	0	2875	4	1592	1684
87	0	0	2814	5	1589	1685
88	0	0	2688	4	1590	1684
89	0	0	2416	4	1590	1685
90	0	0	2154	4	1589	1684
91	0	0	1929	4	1591	1684
92	0	0	1722	4	1594	1684
93	0	0	1502	3	1597	1684
94	0	0	1325	4	1598	1684
95	0	0	1243	4	1600	1685
96	0	0	1262	5	1604	1684
97	0	0	1126	3	1606	1684
98	0	0	1157	5	1609	1684
99	0	0	1498	5	1606	1684
100	0	0	1842	6	1605	1684
101	0	0	2234	5	1603	1684
102	0	0	2636	5	1600	1683
103	0	0	2867	5	1597	1684
104	0	0	2948	5	1596	1684
105	0	0	2954	4	1591	1684
106	0	0	2885	4	1591	1684
107	0	0	2812	5	1590	1684
108	0	0	2686	4	1591	1684
109	0	0	2416	4	1590	1684
110	0	0	2155	4	1591	1684
111	0	0	1922	4	1593	1685
112	0	0	1721	4	1595	1684
113	0	0	1499	4	1597	1684
114	0	0	1326	4	1601	1684
115	0	0	1246	5	1601	1684
116	0	0	1267	5	1603	1684
117	0	0	1127	4	1605	1684
118	0	0	1154	5	1607	1684
119	0	0	1492	5	1606	1684
120	0	0	1836	5	1604	1684
121	0	0	2227	5	1603	1684
122	0	0	2624	5	1601	1684
123	0	0	2846	5	1599	1684
124	0	0	2931	5	1596	1684
125	0	0	2936	4	1594	1684
126	0	0	2875	4	1592	1684
127	0	0	2803	4	1589	1684
0	0	0	2676	3	1589	1684
1	0	0	2400	4	1590	1684
2	0	0	2137	4	1589	1684
3	0	0	1912	4	1591	1684
4	0	0	1700	4	1594	1684
5	0	0	1482	4	1596	1684
6	0	0	1309	4	1599	1684
7	0	0	1224	4	1601	1684
8	0	0	1242	5	1603	1684
9	0	0	1099	4	1606	1685
10	0	0	1129	5	1605	1684
11	0	0	1472	5	1606	1684
12	0	0	1809	4	1606	1684
13	0	0	2202	5	1602	1684
14	0	0	2602	5	1600	1684
15	0	0	2826	5	1598	1685
16	0	0	2908	5	1594	1684
17	0	0	2917	5	1593	1684
18	0	0	2860	4	1592	1684
19	0	0	2804	5	1589	1684
20	0	0	2674	4	1589	1685
21	0	0	2391	4	1589	1684
22	0	0	2131	4	1591	1684
23	0	0	1901	4	1592	1685
24	0	0	1694	3	1595	1684
25	0	0	1480	4	1596	1684
26	0	0	1309	4	1598	1684
27	0	0	1228	5	1600	1684
28	0	0	1244	5	1603	1684
29	0	0	1107	3	1607	1684
30	0	0	1136	4	1607	1684
31	0	0	1482	5	1606	1684
32	0	0	1822	5	1605	1684
33	0	0	2215	5	1603	1684
34	0	0	2625	5	1600	1684
35	0	0	2853	5	1596	1684
36	0	0	2935	5	1597	1684
37	0	0	2939	6	1593	1684
38	0	0	2875	4	1592	1684
39	0	0	2807	4	1590	1684
40	0	0	2687	4	1589	1684
41	0	0	2415	4	1590	1684
42	0	0	2162	3	1591	1684
43	0	0	1939	4	1592	1684
44	0	0	1731	4	1594	1684
45	0	0	1507	4	1597	1684
46	0	0	1334	4	1598	1684
47	0	0	1251	4	1601	1684
48	0	0	1265	5	1604	1684
49	0	0	1120	3	1606	1684
50	0	0	1151	4	1608	1685
51	0	0	1501	5	1605	1684
52	0	0	1848	5	1606	1684
53	0	0	2234	4	1601	1684
54	0	0	2638	4	1601	1684
55	0	0	2866	5	1598	1684
56	0	0	2947	5	1595	1684
57	0	0	2952	4	1593	1684
58	0	0	2888	4	1591	1684
59	0	0	2820	4	1590	1684
60	0	0	2694	4	1588	1684
61	0	0	2420	4	1590	1684
62	0	0	2162	3	1590	1684
63	0	0	1929	4	1591	1684
64	0	0	1719	4	1595	1684
65	0	0	1497	4	1596	1684
66	0	0	1326	3	1598	1684
67	0	0	1243	4	1602	1685
68	0	0	1257	4	1604	1685
69	0	0	1111	3	1606	1684
70	0	0	1140	4	1607	1685
71	0	0	1485	5	1605	1684
72	0	0	1828	4	1605	1684
73	0	0	2220	4	1602	1685
74	0	0	2625	5	1600	1684
75	0	0	2845	5	1597	1684
76	0	0	2924	5	1595	1684
77	0	0	2929	5	1593	1684
78	0	0	2872	4	1590	1684
79	0	0	2812	5	1588	1684
80	0	0	2682	4	1589	1684
81	0	0	2400	4	1588	1684
82	0	0	2135	4	1590	1684
83	0	0	1903	3	1592	1684
84	0	0	1696	4	1595	1684
85	0	0	1479	4	1596	1684
86	0	0	1304	4	1598	1685
87	0	0	1219	4	1601	1684
88	0	0	1232	4	1600	1684
89	0	0	1086	4	1606	1684
90	0	0	1122	5	1606	1684
91	0	0	1470	5	1605	1684
92	0	0	1814	4	1604	1684
93	0	0	2209	5	1603	1684
94	0	0	2608	5	1599	1685
95	0	0	2833	5	1596	1684
96	0	0	2913	5	1595	1684
97	0	0	2921	5	1592	1684
98	0	0	2865	4	1591	1684
99	0	0	2797	4	1589	1684
100	0	0	2672	4	1590	1685
101	0	0	2395	4	1590	1684
102	0	0	2135	4	1591	1684
103	0	0	1908	4	1591	1683
104	0	0	1701	3	1595	1685
105	0	0	1477	4	1596	1684
106	0	0	1303	4	1597	1684
107	0	0	1221	4	1600	1684
108	0	0	1240	4	1602	1684
109	0	0	1094	4	1607	1684
110	0	0	1130	5	1605	1684
111	0	0	1483	4	1606	1684
112	0	0	1832	5	1605	1684
113	0	0	2228	4	1603	1684
114	0	0	2627	5	1599	1685
115	0	0	2856	5	1597	1684
116	0	0	2944	5	1594	1684
117	0	0	2953	5	1594	1684
118	0	0	2893	4	1591	1684
119	0	0	2833	4	1589	1684
120	0	0	2701	4	1587	1684
121	0	0	2422	4	1590	1684
122	0	0	2157	4	1589	1684
123	0	0	1926	3	1591	1684
124	0	0	1722	4	1593	1683
125	0	0	1497	4	1596	1684
126	0	0	1319	4	1598	1684
127	0	0	1234	4	1600	1684
0	0	0	1248	4	1602	1684
1	0	0	1104	4	1606	1684
2	0	0	1137	4	1606	1684
3	0	0	1481	5	1605	1685
4	0	0	1828	4	1604	1684
5	0	0	2225	4	1602	1684
6	0	0	2633	5	1600	1684
7	0	0	2857	5	1596	1685
8	0	0	2941	5	1595	1684
9	0	0	2947	4	1592	1684
10	0	0	2888	4	1591	1684
11	0	0	2823	4	1588	1685
12	0	0	2692	4	1589	1684
13	0	0	2414	4	1589	1684
14	0	0	2149	4	1588	1684
15	0	0	1915	4	1590	1684
16	0	0	1704	4	1593	1685
17	0	0	1490	4	1596	1685
18	0	0	1313	4	1597	1684
19	0	0	1227	4	1600	1684
20	0	0	1239	4	1601	1684
21	0	0	1086	4	1605	1684
22	0	0	1125	4	1604	1684
23	0	0	1479	5	1604	1684
24	0	0	1821	5	1604	1684
25	0	0	2214	4	1602	1684
26	0	0	2613	5	1597	1685
27	0	0	2832	5	1596	1684
28	0	0	2917	5	1594	1684
29	0	0	2927	4	1591	1684
30	0	0	2865	4	1590	1684
31	0	0	2802	4	1589	1684
32	0	0	2669	4	1588	1684
33	0	0	2387	4	1588	1684
34	0	0	2128	4	1588	1684
35	0	0	1894	3	1590	1684
36	0	0	1686	4	1592	1684
37	0	0	1463	4	1594	1684
38	0	0	1288	4	1597	1684
39	0	0	1204	4	1598	1684
40	0	0	1220	4	1601	1684
41	0	0	1072	4	1604	1686
42	0	0	1100	5	1602	1684
43	0	0	1450	5	1603	1684
44	0	0	1798	5	1601	1684
45	0	0	2200	4	1599	1684
46	0	0	2602	5	1597	1684
47	0	0	2826	5	1595	1684
48	0	0	2911	5	1591	1684
49	0	0	2923	5	1590	1684
50	0	0	2865	4	1589	1684
51	0	0	2800	4	1585	1684
52	0	0	2671	4	1586	1684
53	0	0	2395	4	1587	1684
54	0	0	2133	4	1585	1684
55	0	0	1894	3	1587	1684
56	0	0	1684	4	1591	1684
57	0	0	1459	4	1592	1684
58	0	0	1287	4	1595	1684
59	0	0	1208	4	1598	1684
60	0	0	1226	5	1600	1683
61	0	0	1083	4	1603	1684
62	0	0	1119	5	1601	1684
63	0	0	1465	5	1601	1684
64	0	0	1813	5	1601	1684
65	0	0	2216	5	1599	1684
66	0	0	2626	5	1595	1684
67	0	0	2861	5	1593	1685
68	0	0	2944	5	1591	1684
69	0	0	2954	5	1588	1685
70	0	0	2899	4	1587	1685
71	0	0	2830	5	1585	1684
72	0	0	2698	3	1582	1684
73	0	0	2419	3	1584	1684
74	0	0	2161	4	1586	1685
75	0	0	1937	4	1587	1684
76	0	0	1731	4	1589	1684
77	0	0	1503	3	1590	1684
78	0	0	1323	4	1595	1684
79	0	0	1242	4	1597	1684
80	0	0	1261	3	1599	1684
81	0	0	1115	4	1602	1685
82	0	0	1154	5	1601	1684
83	0	0	1507	5	1602	1684
84	0	0	1855	5	1601	1684
85	0	0	2260	5	1598	1683
86	0	0	2663	5	1595	1684
87	0	0	2887	5	1593	1684
88	0	0	2972	5	1590	1684
89	0	0	2983	5	1589	1684
90	0	0	2927	2	1587	1684
91	0	0	2866	4	1586	1685
92	0	0	2731	4	1586	1684
93	0	0	2455	4	1587	1684
94	0	0	2189	5	1586	1684
95	0	0	1953	4	1588	1683
96	0	0	1739	4	1592	1684
97	0	0	1517	4	1592	1685
98	0	0	1338	4	1595	1684
99	0	0	1254	4	1596	1684
100	0	0	1271	3	1601	1684
101	0	0	1125	4	1604	1685
102	0	0	1156	6	1603	1684
103	0	0	1510	5	1603	1684
104	0	0	1855	5	1603	1684
105	0	0	2260	4	1600	1684
106	0	0	2662	5	1596	1684
107	0	0	2883	5	1595	1684
108	0	0	2970	5	1593	1684
109	0	0	2978	5	1590	1684
110	0	0	2915	5	1589	1684
111	0	0	2850	4	1588	1684
112	0	0	2716	4	1588	1684
113	0	0	2436	4	1587	1684
114	0	0	2172	4	1587	1684
115	0	0	1940	3	1589	1684
116	0	0	1723	4	1593	1684
117	0	0	1496	3	1595	1685
118	0	0	1317	3	1597	1684
119	0	0	1233	4	1599	1685
120	0	0	1252	3	1602	1684
121	0	0	1104	4	1605	1684
122	0	0	1139	5	1606	1684
123	0	0	1491	4	1606	1685
124	0	0	1833	5	1603	1684
125	0	0	2240	4	1601	1684
126	0	0	2647	5	1597	1685
127	0	0	2875	5	1596	1684
0	0	0	2961	5	1593	1684
1	0	0	2974	5	1591	1684
2	0	0	2911	4	1590	1684
3	0	0	2844	4	1588	1684
4	0	0	2714	4	1588	1684
5	0	0	2433	4	1588	1684
6	0	0	2174	4	1589	1684
7	0	0	1943	4	1591	1684
8	0	0	1726	3	1593	1684
9	0	0	1498	4	1596	1684
10	0	0	1316	4	1596	1684
11	0	0	1226	4	1599	1684
12	0	0	1241	4	1603	1685
13	0	0	1095	4	1604	1684
14	0	0	1131	5	1606	1684
15	0	0	1487	5	1602	1684
16	0	0	1837	5	1604	1685
17	0	0	2235	4	1602	1685
18	0	0	2637	5	1598	1685
19	0	0	2863	4	1596	1684
20	0	0	2949	5	1593	1684
21	0	0	2963	5	1590	1684
22	0	0	2904	3	1589	1684
23	0	0	2847	4	1589	1684
24	0	0	2716	4	1588	1684
25	0	0	2435	4	1587	1685
26	0	0	2174	4	1588	1684
27	0	0	1939	3	1590	1684
28	0	0	1719	4	1593	1684
29	0	0	1491	4	1594	1684
30	0	0	1316	5	1596	1684
31	0	0	1228	4	1599	1684
32	0	0	1248	5	1601	1684
33	0	0	1108	3	1604	1684
34	0	0	1143	5	1605	1684
35	0	0	1495	5	1603	1684
36	0	0	1837	5	1603	1684
37	0	0	2235	5	1601	1684
38	0	0	2644	5	1598	1684
39	0	0	2872	5	1596	1684
40	0	0	2961	5	1595	1685
41	0	0	2968	5	1592	1684
42	0	0	2906	4	1591	1684
43	0	0	2848	4	1589	1684
44	0	0	2717	4	1587	1684
45	0	0	2439	5	1588	1684
46	0	0	2173	4	1590	1684
47	0	0	1938	4	1590	1684
48	0	0	1719	4	1593	1685
49	0	0	1490	4	1595	1684
50	0	0	1310	4	1598	1684
51	0	0	1220	4	1601	1684
52	0	0	1231	4	1604	1684
53	0	0	1071	4	1604	1684
54	0	0	1110	5	1606	1684
55	0	0	1462	6	1604	1684
56	0	0	1806	5	1604	1684
57	0	0	2208	4	1602	1684
58	0	0	2628	5	1597	1684
59	0	0	2860	5	1595	1684
60	0	0	2942	6	1593	1684
61	0	0	2948	5	1592	1684
62	0	0	2884	4	1590	1685
63	0	0	2808	5	1588	1684
64	0	0	2683	4	1587	1684
65	0	0	2403	4	1587	1684
66	0	0	2143	4	1588	1684
67	0	0	1910	4	1591	1684
68	0	0	1689	3	1593	1685
69	0	0	1464	4	1596	1684
70	0	0	1283	4	1598	1684
71	0	0	1197	4	1600	1684
72	0	0	1212	4	1602	1684
73	0	0	1057	4	1605	1684
74	0	0	1097	5	1606	1684
75	0	0	1448	4	1607	1684
76	0	0	1793	5	1605	1684
77	0	0	2201	5	1601	1684
78	0	0	2613	5	1600	1685
79	0	0	2841	5	1597	1684
80	0	0	2927	5	1594	1684
81	0	0	2938	5	1592	1684
82	0	0	2884	4	1591	1684
83	0	0	2825	4	1589	1684
84	0	0	2689	4	1588	1684
85	0	0	2404	4	1588	1684
86	0	0	2145	4	1589	1684
87	0	0	1916	4	1590	1684
88	0	0	1699	3	1593	1684
89	0	0	1470	4	1595	1684
90	0	0	1291	4	1598	1684
91	0	0	1205	4	1599	1684
92	0	0	1222	4	1602	1684
93	0	0	1072	4	1606	1684
94	0	0	1114	5	1605	1684
95	0	0	1466	5	1605	1684
96	0	0	1817	4	1605	1684
97	0	0	2225	5	1601	1684
98	0	0	2632	4	1600	1685
99	0	0	2859	5	1597	1684
100	0	0	2944	5	1594	1684
101	0	0	2953	5	1592	1684
102	0	0	2895	4	1588	1684
103	0	0	2838	4	1590	1684
104	0	0	2703	4	1587	1684
105	0	0	2416	4	1588	1684
106	0	0	2153	4	1589	1684
107	0	0	1921	4	1590	1684
108	0	0	1708	4	1592	1685
109	0	0	1478	4	1595	1684
110	0	0	1297	4	1597	1684
111	0	0	1207	4	1600	1684
112	0	0	1224	4	1602	1684
113	0	0	1070	4	1605	1684
114	0	0	1119	5	1607	1685
115	0	0	1470	4	1605	1684
116	0	0	1814	5	1605	1684
117	0	0	2217	5	1603	1684
118	0	0	2627	4	1599	1685
119	0	0	2850	5	1596	1684
120	0	0	2940	5	1594	1685
121	0	0	2950	5	1592	1684
122	0	0	2891	4	1588	1684
123	0	0	2833	4	1591	1685
124	0	0	2692	4	1588	1684
125	0	0	2407	4	1588	1684
126	0	0	2142	5	1588	1684
127	0	0	1906	4	1591	1684
0	0	0	1689	3	1592	1684
1	0	0	1463	4	1595	1685
2	0	0	1282	4	1598	1684
3	0	0	1193	4	1601	1684
4	0	0	1201	5	1602	1684
5	0	0	1045	4	1604	1685
6	0	0	1088	5	1605	1684
7	0	0	1442	5	1604	1684
8	0	0	1790	5	1603	1684
9	0	0	2193	5	1602	1684
10	0	0	2604	5	1599	1685
11	0	0	2830	5	1595	1684
12	0	0	2920	4	1595	1684
13	0	0	2937	5	1591	1684
14	0	0	2882	4	1590	1685
15	0	0	2821	4	1589	1684
16	0	0	2686	4	1588	1685
17	0	0	2396	4	1587	1684
18	0	0	2132	4	1588	1684
19	0	0	1896	4	1591	1684
20	0	0	1677	3	1592	1685
21	0	0	1450	4	1594	1684
22	0	0	1275	4	1597	1684
23	0	0	1185	4	1599	1684
24	0	0	1200	4	1601	1685
25	0	0	1047	3	1605	1684
26	0	0	1088	5	1605	1685
27	0	0	1441	4	1605	1685
28	0	0	1785	5	1603	1684
29	0	0	2194	5	1600	1684
30	0	0	2616	5	1598	1684
31	0	0	2849	5	1595	1685
32	0	0	2931	5	1591	1684
33	0	0	2939	5	1590	1684
34	0	0	2875	4	1589	1684
35	0	0	2815	4	1588	1685
36	0	0	2685	4	1586	1684
37	0	0	2403	4	1587	1684
38	0	0	2141	4	1589	1684
39	0	0	1915	4	1590	1685
40	0	0	1700	4	1593	1684
41	0	0	1470	4	1596	1685
42	0	0	1290	4	1596	1684
43	0	0	1200	4	1598	1684
44	0	0	1217	5	1601	1684
45	0	0	1060	3	1605	1685
46	0	0	1110	4	1604	1684
47	0	0	1465	5	1606	1684
48	0	0	1814	4	1603	1684
49	0	0	2218	6	1601	1684
50	0	0	2625	4	1598	1684
51	0	0	2855	5	1595	1684
52	0	0	2944	5	1593	1684
53	0	0	2961	5	1591	1684
54	0	0	2906	4	1590	1685
55	0	0	2857	4	1588	1685
56	0	0	2725	3	1588	1685
57	0	0	2427	4	1587	1684
58	0	0	2160	4	1588	1684
59	0	0	1927	5	1591	1684
60	0	0	1710	3	1592	1684
61	0	0	1477	4	1594	1684
62	0	0	1300	4	1598	1685
63	0	0	1215	3	1599	1684
64	0	0	1226	5	1602	1684
65	0	0	1070	4	1603	1685
66	0	0	1118	5	1604	1684
67	0	0	1469	5	1604	1684
68	0	0	1810	5	1603	1684
69	0	0	2214	6	1601	1684
70	0	0	2621	5	1598	1685
71	0	0	2851	5	1596	1684
72	0	0	2940	5	1591	1684
73	0	0	2950	5	1591	1684
74	0	0	2889	3	1590	1685
75	0	0	2825	4	1589	1684
76	0	0	2691	4	1589	1684
77	0	0	2409	4	1587	1684
78	0	0	2151	4	1588	1684
79	0	0	1920	4	1590	1685
80	0	0	1704	4	1593	1685
81	0	0	1469	4	1593	1684
82	0	0	1285	4	1597	1684
83	0	0	1202	4	1599	1684
84	0	0	1218	4	1601	1685
85	0	0	1058	3	1604	1684
86	0	0	1103	4	1604	1685
87	0	0	1457	5	1604	1684
88	0	0	1800	4	1603	1684
89	0	0	2210	4	1601	1685
90	0	0	2614	5	1599	1685
91	0	0	2839	5	1596	1684
92	0	0	2925	5	1593	1684
93	0	0	2936	5	1590	1684
94	0	0	2877	5	1588	1684
95	0	0	2823	4	1587	1685
96	0	0	2690	3	1587	1684
97	0	0	2398	3	1588	1685
98	0	0	2134	4	1590	1684
99	0	0	1898	5	1590	1684
100	0	0	1686	3	1592	1684
101	0	0	1459	4	1594	1685
102	0	0	1281	4	1595	1684
103	0	0	1195	4	1599	1685
104	0	0	1210	4	1602	1684
105	0	0	1052	3	1605	1685
106	0	0	1101	4	1603	1684
107	0	0	1451	5	1604	1684
108	0	0	1803	5	1603	1685
109	0	0	2216	4	1601	1684
110	0	0	2619	4	1597	1685
111	0	0	2850	5	1595	1684
112	0	0	2937	5	1592	1684
113	0	0	2951	5	1589	1684
114	0	0	2892	4	1588	1684
115	0	0	2838	4	1588	1685
116	0	0	2699	4	1587	1684
117	0	0	2405	4	1586	1684
118	0	0	2145	4	1588	1684
119	0	0	1908	4	1591	1684
120	0	0	1698	4	1592	1684
121	0	0	1477	4	1597	1685
122	0	0	1300	4	1596	1684
123	0	0	1215	4	1599	1684
124	0	0	1231	5	1600	1684
125	0	0	1077	4	1604	1685
126	0	0	1128	4	1604	1684
127	0	0	1478	5	1605	1685
0	0	0	1821	4	1602	1684
1	0	0	2232	5	1600	1684
2	0	0	2641	5	1598	1684
3	0	0	2865	5	1594	1684
4	0	0	2951	5	1592	1684
5	0	0	2958	5	1590	1684
6	0	0	2898	4	1590	1684
7	0	0	2839	4	1588	1684
8	0	0	2702	4	1588	1684
9	0	0	2416	4	1587	1684
10	0	0	2162	3	1588	1684
11	0	0	1932	4	1590	1684
12	0	0	1721	4	1592	1685
13	0	0	1498	4	1595	1684
14	0	0	1318	4	1597	1685
15	0	0	1229	4	1599	1684
16	0	0	1234	4	1601	1684
17	0	0	1071	4	1603	1684
18	0	0	1120	5	1604	1684
19	0	0	1477	5	1603	1684
20	0	0	1821	5	1601	1684
21	0	0	2230	5	1600	1684
22	0	0	2638	4	1597	1684
23	0	0	2859	5	1595	1684
24	0	0	2946	5	1592	1684
25	0	0	2955	4	1590	1684
26	0	0	2886	4	1588	1684
27	0	0	2814	4	1587	1684
28	0	0	2685	4	1588	1685
29	0	0	2399	4	1586	1684
30	0	0	2142	4	1588	1684
31	0	0	1907	4	1591	1684
32	0	0	1689	3	1591	1684
33	0	0	1463	4	1594	1684
34	0	0	1287	4	1595	1684
35	0	0	1202	4	1598	1684
36	0	0	1216	4	1601	1684
37	0	0	1058	4	1602	1684
38	0	0	1100	5	1603	1684
39	0	0	1453	5	1603	1684
40	0	0	1790	5	1603	1684
41	0	0	2196	5	1601	1684
42	0	0	2606	5	1597	1685
43	0	0	2830	4	1593	1684
44	0	0	2917	5	1591	1684
45	0	0	2931	5	1591	1684
46	0	0	2874	4	1589	1685
47	0	0	2816	4	1587	1684
48	0	0	2681	4	1585	1684
49	0	0	2398	3	1586	1684
50	0	0	2140	3	1588	1684
51	0	0	1909	4	1590	1684
52	0	0	1694	4	1592	1684
53	0	0	1468	4	1595	1684
54	0	0	1291	4	1597	1684
55	0	0	1202	3	1598	1684
56	0	0	1218	5	1601	1684
57	0	0	1066	3	1603	1684
58	0	0	1110	4	1603	1684
59	0	0	1466	5	1603	1685
60	0	0	1810	7	1603	1684
61	0	0	2211	5	1599	1684
62	0	0	2623	5	1597	1685
63	0	0	2851	5	1596	1684
64	0	0	2942	6	1593	1684
65	0	0	2952	5	1591	1684
66	0	0	2889	4	1588	1684
67	0	0	2838	4	1586	1685
68	0	0	2707	4	1586	1684
69	0	0	2416	4	1586	1684
70	0	0	2157	4	1587	1684
71	0	0	1927	3	1589	1684
72	0	0	1710	4	1591	1684
73	0	0	1484	4	1595	1685
74	0	0	1307	4	1596	1684
75	0	0	1228	4	1599	1684
76	0	0	1240	4	1601	1684
77	0	0	1082	4	1603	1684
78	0	0	1136	4	1604	1684
79	0	0	1493	4	1605	1685
80	0	0	1838	6	1602	1684
81	0	0	2244	5	1599	1684
82	0	0	2647	5	1597	1684
83	0	0	2870	4	1594	1684
84	0	0	2951	5	1592	1684
85	0	0	2961	5	1591	1684
86	0	0	2903	4	1589	1684
87	0	0	2848	4	1585	1684
88	0	0	2713	4	1586	1685
89	0	0	2418	4	1587	1684
90	0	0	2157	3	1587	1684
91	0	0	1925	4	1590	1684
92	0	0	1711	4	1591	1685
93	0	0	1487	4	1593	1684
94	0	0	1312	4	1596	1685
95	0	0	1227	5	1599	1684
96	0	0	1242	5	1601	1685
97	0	0	1087	4	1604	1684
98	0	0	1140	4	1603	1684
99	0	0	1489	5	1602	1684
100	0	0	1829	4	1602	1684
101	0	0	2234	5	1600	1684
102	0	0	2630	5	1597	1685
103	0	0	2856	5	1595	1684
104	0	0	2940	5	1591	1684
105	0	0	2952	5	1589	1684
106	0	0	2892	4	1589	1685
107	0	0	2839	4	1587	1684
108	0	0	2697	4	1587	1684
109	0	0	2405	3	1588	1685
110	0	0	2144	5	1588	1684
111	0	0	1909	4	1590	1684
112	0	0	1702	4	1592	1684
113	0	0	1476	4	1595	1684
114	0	0	1299	4	1596	1684
115	0	0	1214	4	1597	1684
116	0	0	1224	4	1601	1684
117	0	0	1066	3	1603	1684
118	0	0	1120	5	1603	1684
119	0	0	1479	5	1603	1684
120	0	0	1826	5	1603	1684
121	0	0	2235	5	1600	1684
122	0	0	2635	5	1597	1684
123	0	0	2856	5	1595	1684
124	0	0	2932	5	1593	1684
125	0	0	2936	5	1590	1684
126	0	0	2867	4	1589	1685
127	0	0	2800	5	1586	1684
0	0	0	2670	4	1587	1684
1	0	0	2399	4	1587	1684
2	0	0	2144	3	1588	1685
3	0	0	1910	4	1588	1684
4	0	0	1697	4	1591	1684
5	0	0	1471	4	1594	1684
6	0	0	1295	4	1597	1684
7	0	0	1209	4	1598	1684
8	0	0	1224	4	1600	1684
9	0	0	1065	4	1604	1685
10	0	0	1120	5	1603	1684
11	0	0	1472	5	1604	1684
12	0	0	1819	5	1602	1684
13	0	0	2233	5	1599	1685
14	0	0	2628	4	1597	1685
15	0	0	2848	5	1595	1684
16	0	0	2935	5	1593	1684
17	0	0	2949	5	1591	1684
18	0	0	2892	5	1588	1684
19	0	0	2832	5	1588	1684
20	0	0	2696	4	1587	1684
21	0	0	2420	4	1588	1684
22	0	0	2162	4	1587	1684
23	0	0	1922	4	1589	1684
24	0	0	1707	4	1591	1684
25	0	0	1485	4	1595	1684
26	0	0	1311	3	1596	1685
27	0	0	1229	4	1599	1684
28	0	0	1246	4	1599	1684
29	0	0	1092	4	1604	1685
30	0	0	1141	4	1602	1684
31	0	0	1488	4	1603	1685
32	0	0	1831	4	1602	1685
33	0	0	2242	5	1599	1684
34	0	0	2639	5	1597	1684
35	0	0	2860	5	1595	1684
36	0	0	2950	5	1591	1684
37	0	0	2959	5	1592	1685
38	0	0	2897	4	1589	1684
39	0	0	2837	4	1589	1684
40	0	0	2698	4	1587	1684
41	0	0	2416	4	1586	1684
42	0	0	2162	4	1588	1684
43	0	0	1921	4	1589	1684
44	0	0	1702	4	1592	1685
45	0	0	1474	4	1593	1684
46	0	0	1297	4	1596	1685
47	0	0	1217	4	1599	1684
48	0	0	1237	4	1601	1684
49	0	0	1083	3	1603	1684
50	0	0	1141	5	1603	1684
51	0	0	1489	5	1604	1684
52	0	0	1827	5	1602	1684
53	0	0	2233	6	1599	1684
54	0	0	2634	5	1597	1685
55	0	0	2849	5	1593	1684
56	0	0	2935	4	1592	1684
57	0	0	2945	4	1589	1684
58	0	0	2887	5	1589	1685
59	0	0	2842	4	1587	1684
60	0	0	2700	4	1588	1685
61	0	0	2398	4	1587	1684
62	0	0	2139	4	1588	1684
63	0	0	1910	4	1590	1684
64	0	0	1696	3	1591	1684
65	0	0	1471	4	1593	1684
66	0	0	1300	3	1596	1685
67	0	0	1218	4	1598	1685
68	0	0	1232	4	1600	1684
69	0	0	1074	4	1602	1685
70	0	0	1130	5	1604	1684
71	0	0	1482	4	1604	1685
72	0	0	1818	5	1602	1684
73	0	0	2227	5	1601	1684
74	0	0	2627	4	1597	1685
75	0	0	2845	5	1595	1684
76	0	0	2931	4	1592	1684
77	0	0	2947	5	1589	1684
78	0	0	2888	5	1589	1685
79	0	0	2837	5	1588	1684
80	0	0	2695	4	1585	1684
81	0	0	2400	3	1586	1684
82	0	0	2144	4	1589	1684
83	0	0	1917	5	1589	1685
84	0	0	1703	4	1591	1684
85	0	0	1477	3	1594	1685
86	0	0	1303	4	1596	1684
87	0	0	1215	4	1597	1684
88	0	0	1227	4	1600	1684
89	0	0	1067	4	1604	1685
90	0	0	1123	5	1603	1684
91	0	0	1477	4	1604	1684
92	0	0	1821	5	1601	1684
93	0	0	2224	5	1600	1685
94	0	0	2628	6	1597	1685
95	0	0	2848	5	1594	1684
96	0	0	2933	4	1592	1684
97	0	0	2947	5	1590	1684
98	0	0	2891	4	1589	1684
99	0	0	2836	5	1587	1684
100	0	0	2696	4	1586	1684
101	0	0	2419	3	1587	1685
102	0	0	2166	4	1589	1685
103	0	0	1935	4	1589	1684
104	0	0	1720	5	1591	1685
105	0	0	1493	4	1592	1684
106	0	0	1315	4	1595	1684
107	0	0	1229	4	1597	1684
108	0	0	1240	5	1602	1685
109	0	0	1085	3	1603	1684
110	0	0	1141	5	1604	1684
111	0	0	1495	4	1603	1684
112	0	0	1837	5	1602	1684
113	0	0	2245	5	1598	1685
114	0	0	2644	5	1597	1685
115	0	0	2862	5	1593	1684
116	0	0	2942	4	1592	1684
117	0	0	2957	5	1591	1684
118	0	0	2895	4	1590	1685
119	0	0	2833	5	1587	1684
120	0	0	2696	4	1586	1685
121	0	0	2414	4	1585	1684
122	0	0	2161	4	1587	1684
123	0	0	1934	4	1588	1684
124	0	0	1712	4	1592	1684
125	0	0	1483	3	1595	1684
126	0	0	1302	3	1595	1684
127	0	0	1215	4	1597	1684
0	0	0	1231	4	1598	1684
1	0	0	1077	4	1604	1685
2	0	0	1135	5	1602	1684
3	0	0	1487	4	1603	1685
4	0	0	1825	5	1602	1684
5	0	0	2227	5	1597	1684
6	0	0	2628	4	1597	1685
7	0	0	2845	5	1594	1685
8	0	0	2933	5	1592	1684
9	0	0	2947	5	1590	1685
10	0	0	2883	4	1586	1685
11	0	0	2820	5	1587	1685
12	0	0	2679	4	1585	1684
13	0	0	2392	4	1586	1684
14	0	0	2136	4	1588	1684
15	0	0	1903	4	1588	1684
16	0	0	1687	4	1591	1684
17	0	0	1458	4	1593	1684
18	0	0	1285	4	1596	1684
19	0	0	1204	4	1597	1684
20	0	0	1218	4	1597	1684
21	0	0	1060	4	1603	1685
22	0	0	1113	4	1602	1684
23	0	0	1467	5	1602	1684
24	0	0	1809	5	1602	1684
25	0	0	2216	5	1597	1685
26	0	0	2614	4	1597	1684
27	0	0	2839	5	1593	1685
28	0	0	2928	5	1591	1684
29	0	0	2939	5	1590	1684
30	0	0	2882	4	1586	1684
31	0	0	2835	4	1588	1685
32	0	0	2690	4	1586	1684
33	0	0	2399	4	1587	1684
34	0	0	2141	5	1587	1684
35	0	0	1911	4	1587	1684
36	0	0	1698	3	1590	1685
37	0	0	1473	4	1593	1684
38	0	0	1302	2	1595	1685
39	0	0	1224	4	1598	1684
40	0	0	1236	4	1599	1684
41	0	0	1078	3	1601	1684
42	0	0	1141	4	1602	1684
43	0	0	1490	5	1603	1684
44	0	0	1831	5	1599	1684
45	0	0	2247	5	1598	1684
46	0	0	2640	4	1596	1684
47	0	0	2860	5	1593	1684
48	0	0	2945	5	1591	1684
49	0	0	2957	5	1588	1684
50	0	0	2900	5	1587	1684
51	0	0	2845	4	1586	1684
52	0	0	2701	4	1586	1685
53	0	0	2411	4	1586	1684
54	0	0	2159	4	1586	1684
55	0	0	1933	3	1588	1684
56	0	0	1716	4	1590	1684
57	0	0	1495	4	1594	1684
58	0	0	1320	4	1594	1684
59	0	0	1236	5	1597	1684
60	0	0	1249	4	1600	1684
61	0	0	1087	3	1601	1684
62	0	0	1152	4	1602	1684
63	0	0	1503	4	1602	1684
64	0	0	1844	4	1602	1684
65	0	0	2250	4	1598	1684
66	0	0	2643	4	1597	1685
67	0	0	2862	5	1594	1684
68	0	0	2945	5	1591	1684
69	0	0	2956	5	1589	1684
70	0	0	2897	4	1588	1685
71	0	0	2846	3	1586	1684
72	0	0	2700	4	1585	1684
73	0	0	2405	4	1586	1684
74	0	0	2151	4	1586	1684
75	0	0	1915	4	1588	1684
76	0	0	1700	4	1591	1685
77	0	0	1478	4	1591	1684
78	0	0	1305	4	1595	1685
79	0	0	1225	4	1599	1684
80	0	0	1239	4	1598	1684
81	0	0	1082	3	1602	1684
82	0	0	1138	5	1601	1684
83	0	0	1486	5	1602	1684
84	0	0	1819	4	1600	1684
85	0	0	2232	5	1595	1684
86	0	0	2630	5	1595	1685
87	0	0	2847	4	1593	1684
88	0	0	2934	5	1593	1684
89	0	0	2945	5	1588	1684
90	0	0	2889	4	1587	1684
91	0	0	2828	4	1587	1684
92	0	0	2682	4	1584	1684
93	0	0	2403	4	1585	1684
94	0	0	2154	4	1588	1684
95	0	0	1920	4	1589	1684
96	0	0	1708	3	1590	1685
97	0	0	1487	4	1592	1684
98	0	0	1311	4	1595	1685
99	0	0	1228	4	1598	1684
100	0	0	1235	4	1598	1684
101	0	0	1073	4	1602	1684
102	0	0	1134	5	1603	1684
103	0	0	1486	5	1601	1684
104	0	0	1818	4	1601	1684
105	0	0	2228	5	1598	1684
106	0	0	2624	4	1595	1685
107	0	0	2841	5	1593	1684
108	0	0	2924	5	1590	1684
109	0	0	2936	5	1589	1684
110	0	0	2881	5	1586	1684
111	0	0	2826	4	1586	1684
112	0	0	2687	4	1585	1684
113	0	0	2405	4	1586	1684
114	0	0	2155	4	1586	1684
115	0	0	1918	4	1590	1684
116	0	0	1708	3	1592	1684
117	0	0	1488	4	1594	1685
118	0	0	1314	4	1595	1685
119	0	0	1230	4	1597	1685
120	0	0	1235	4	1599	1684
121	0	0	1075	4	1601	1685
122	0	0	1141	5	1602	1684
123	0	0	1500	4	1602	1684
124	0	0	1841	5	1600	1684
125	0	0	2254	5	1597	1684
126	0	0	2654	4	1597	1684
127	0	0	2871	5	1593	1684
0	0	0	2957	5	1592	1684
1	0	0	2973	4	1589	1685
2	0	0	2908	4	1587	1684
3	0	0	2848	3	1587	1684
4	0	0	2708	4	1586	1684
5	0	0	2426	4	1585	1684
6	0	0	2172	3	1587	1684
7	0	0	1935	4	1589	1684
8	0	0	1717	3	1590	1685
9	0	0	1490	4	1594	1685
10	0	0	1318	4	1595	1684
11	0	0	1234	4	1597	1684
12	0	0	1247	4	1598	1684
13	0	0	1090	4	1602	1685
14	0	0	1154	4	1602	1684
15	0	0	1506	4	1601	1684
16	0	0	1843	4	1600	1684
17	0	0	2248	4	1597	1684
18	0	0	2641	5	1597	1684
19	0	0	2851	5	1592	1684
20	0	0	2928	5	1592	1684
21	0	0	2935	5	1588	1684
22	0	0	2874	4	1586	1684
23	0	0	2823	4	1586	1684
24	0	0	2680	4	1585	1684
25	0	0	2387	4	1584	1684
26	0	0	2131	4	1587	1684
27	0	0	1903	4	1588	1684
28	0	0	1688	3	1589	1684
29	0	0	1465	3	1592	1685
30	0	0	1291	3	1595	1684
31	0	0	1208	4	1595	1684
32	0	0	1220	4	1598	1685
33	0	0	1055	4	1600	1684
34	0	0	1122	5	1599	1684
35	0	0	1478	5	1601	1684
36	0	0	1818	5	1599	1684
37	0	0	2228	4	1597	1684
38	0	0	2626	3	1596	1684
39	0	0	2839	5	1592	1683
40	0	0	2916	5	1591	1684
41	0	0	2926	5	1590	1684
42	0	0	2864	4	1585	1684
43	0	0	2819	3	1585	1684
44	0	0	2678	4	1585	1684
45	0	0	2385	4	1585	1684
46	0	0	2133	4	1586	1684
47	0	0	1902	4	1587	1685
48	0	0	1695	1	1588	1684
49	0	0	1470	4	1591	1684
50	0	0	1296	4	1594	1684
51	0	0	1213	5	1597	1684
52	0	0	1226	4	1600	1684
53	0	0	1065	3	1600	1684
54	0	0	1129	5	1601	1684
55	0	0	1484	5	1601	1684
56	0	0	1822	5	1598	1684
57	0	0	2235	4	1596	1684
58	0	0	2633	5	1595	1685
59	0	0	2849	5	1591	1684
60	0	0	2931	4	1589	1684
61	0	0	2939	5	1587	1684
62	0	0	2872	4	1588	1685
63	0	0	2802	3	1583	1684
64	0	0	2668	4	1584	1684
65	0	0	2396	4	1585	1684
66	0	0	2149	4	1585	1684
67	0	0	1920	4	1587	1684
68	0	0	1717	4	1589	1684
69	0	0	1495	4	1592	1684
70	0	0	1318	4	1594	1684
71	0	0	1234	4	1595	1684
72	0	0	1240	4	1597	1684
73	0	0	1079	3	1601	1684
74	0	0	1147	5	1602	1684
75	0	0	1502	4	1602	1684
76	0	0	1845	5	1602	1684
77	0	0	2263	5	1596	1684
78	0	0	2652	5	1596	1685
79	0	0	2864	5	1592	1684
80	0	0	2944	4	1589	1684
81	0	0	2955	5	1587	1684
82	0	0	2888	4	1585	1684
83	0	0	2824	3	1584	1684
84	0	0	2680	4	1583	1684
85	0	0	2404	4	1584	1684
86	0	0	2146	4	1586	1684
87	0	0	1908	4	1587	1684
88	0	0	1702	4	1590	1684
89	0	0	1481	4	1591	1685
90	0	0	1303	4	1594	1684
91	0	0	1217	4	1594	1684
92	0	0	1223	4	1597	1684
93	0	0	1062	4	1600	1684
94	0	0	1131	5	1600	1684
95	0	0	1485	5	1601	1685
96	0	0	1822	4	1596	1685
97	0	0	2234	5	1595	1684
98	0	0	2618	5	1595	1684
99	0	0	2829	5	1591	1684
100	0	0	2915	5	1590	1684
101	0	0	2927	5	1587	1684
102	0	0	2866	4	1584	1684
103	0	0	2809	4	1584	1685
104	0	0	2667	4	1582	1684
105	0	0	2387	4	1585	1684
106	0	0	2133	4	1586	1685
107	0	0	1894	4	1585	1684
108	0	0	1684	4	1588	1684
109	0	0	1466	4	1592	1685
110	0	0	1294	4	1594	1684
111	0	0	1213	4	1594	1684
112	0	0	1225	4	1597	1685
113	0	0	1065	4	1600	1684
114	0	0	1123	5	1599	1684
115	0	0	1468	5	1601	1684
116	0	0	1805	5	1598	1684
117	0	0	2216	5	1596	1685
118	0	0	2608	4	1593	1684
119	0	0	2819	5	1590	1684
120	0	0	2904	5	1589	1684
121	0	0	2915	5	1587	1685
122	0	0	2852	4	1587	1684
123	0	0	2811	4	1583	1685
124	0	0	2664	4	1584	1684
125	0	0	2373	3	1584	1684
126	0	0	2126	4	1585	1684
127	0	0	1900	4	1585	1684
0	0	0	1693	4	1588	1684
1	0	0	1474	4	1590	1685
2	0	0	1301	5	1592	1684
3	0	0	1218	4	1595	1684
4	0	0	1226	4	1597	1684
5	0	0	1062	4	1600	1684
6	0	0	1132	5	1598	1684
7	0	0	1484	5	1601	1685
8	0	0	1819	4	1599	1684
9	0	0	2236	4	1595	1684
10	0	0	2627	5	1594	1685
11	0	0	2835	5	1591	1684
12	0	0	2920	5	1589	1683
13	0	0	2935	5	1586	1684
14	0	0	2871	4	1584	1684
15	0	0	2827	4	1583	1685
16	0	0	2686	4	1584	1685
17	0	0	2395	4	1583	1684
18	0	0	2144	4	1585	1684
19	0	0	1914	4	1586	1684
20	0	0	1700	4	1588	1684
21	0	0	1478	4	1592	1684
22	0	0	1308	4	1594	1685
23	0	0	1228	4	1595	1684
24	0	0	1240	4	1597	1684
25	0	0	1076	4	1598	1684
26	0	0	1139	5	1597	1684
27	0	0	1491	5	1598	1684
28	0	0	1821	5	1598	1684
29	0	0	2236	5	1594	1684
30	0	0	2633	5	1594	1684
31	0	0	2848	5	1590	1684
32	0	0	2935	5	1589	1684
33	0	0	2948	5	1587	1685
34	0	0	2885	4	1585	1684
35	0	0	2835	4	1584	1685
36	0	0	2692	4	1583	1684
37	0	0	2404	4	1584	1684
38	0	0	2158	4	1586	1685
39	0	0	1925	4	1587	1684
40	0	0	1711	4	1589	1684
41	0	0	1484	4	1589	1684
42	0	0	1310	3	1593	1685
43	0	0	1224	4	1596	1684
44	0	0	1226	4	1597	1684
45	0	0	1061	4	1600	1685
46	0	0	1128	5	1599	1684
47	0	0	1484	5	1601	1685
48	0	0	1824	5	1598	1684
49	0	0	2239	4	1594	1684
50	0	0	2642	5	1593	1684
51	0	0	2860	5	1590	1684
52	0	0	2941	5	1588	1684
53	0	0	2946	5	1587	1684
54	0	0	2874	4	1584	1684
55	0	0	2816	4	1583	1684
56	0	0	2680	4	1582	1684
57	0	0	2403	3	1584	1684
58	0	0	2151	4	1584	1685
59	0	0	1918	4	1586	1684
60	0	0	1708	3	1588	1685
61	0	0	1481	3	1590	1684
62	0	0	1306	3	1593	1684
63	0	0	1222	4	1594	1684
64	0	0	1224	4	1596	1685
65	0	0	1059	4	1599	1684
66	0	0	1124	5	1599	1684
67	0	0	1475	5	1597	1684
68	0	0	1815	4	1596	1684
69	0	0	2226	5	1596	1683
70	0	0	2622	5	1592	1684
71	0	0	2840	5	1589	1684
72	0	0	2929	4	1590	1685
73	0	0	2945	5	1585	1684
74	0	0	2881	4	1585	1684
75	0	0	2830	4	1584	1684
76	0	0	2689	4	1583	1684
77	0	0	2410	4	1584	1684
78	0	0	2161	4	1584	1684
79	0	0	1927	4	1587	1684
80	0	0	1709	3	1587	1684
81	0	0	1480	4	1591	1685
82	0	0	1305	5	1592	1684
83	0	0	1219	4	1593	1684
84	0	0	1234	4	1596	1684
85	0	0	1073	4	1599	1685
86	0	0	1138	5	1599	1684
87	0	0	1490	5	1599	1685
88	0	0	1827	5	1597	1684
89	0	0	2244	5	1594	1684
90	0	0	2633	5	1592	1684
91	0	0	2849	5	1590	1684
92	0	0	2934	5	1587	1684
93	0	0	2953	5	1586	1684
94	0	0	2894	4	1584	1684
95	0	0	2846	4	1582	1684
96	0	0	2706	4	1583	1684
97	0	0	2429	4	1583	1684
98	0	0	2177	4	1584	1684
99	0	0	1940	4	1586	1685
100	0	0	1731	4	1587	1684
101	0	0	1505	4	1589	1685
102	0	0	1324	3	1591	1684
103	0	0	1235	4	1594	1684
104	0	0	1238	4	1596	1684
105	0	0	1073	3	1599	1684
106	0	0	1140	5	1600	1684
107	0	0	1474	5	1597	1684
108	0	0	1807	4	1598	1684
109	0	0	2232	5	1595	1684
110	0	0	2628	4	1592	1684
111	0	0	2855	4	1589	1683
112	0	0	2951	5	1587	1684
113	0	0	2974	4	1586	1684
114	0	0	2922	4	1585	1684
115	0	0	2883	4	1582	1685
116	0	0	2738	4	1582	1684
117	0	0	2448	4	1583	1685
118	0	0	2192	4	1586	1685
119	0	0	1953	4	1586	1684
120	0	0	1733	4	1588	1684
121	0	0	1505	4	1589	1684
122	0	0	1320	4	1592	1684
123	0	0	1226	5	1593	1684
124	0	0	1218	4	1596	1684
125	0	0	1047	4	1598	1685
126	0	0	1118	4	1598	1684
127	0	0	1465	4	1598	1684
0	0	0	1801	4	1597	1684
1	0	0	2221	5	1593	1684
2	0	0	2621	5	1591	1684
3	0	0	2847	5	1591	1685
4	0	0	2948	7	1587	1684
5	0	0	2967	5	1585	1684
6	0	0	2917	4	1585	1685
7	0	0	2880	4	1584	1684
8	0	0	2733	4	1583	1684
9	0	0	2433	4	1582	1684
10	0	0	2180	3	1584	1684
11	0	0	1940	4	1586	1684
12	0	0	1713	4	1587	1684
13	0	0	1478	4	1589	1684
14	0	0	1294	4	1592	1684
15	0	0	1204	3	1592	1684
16	0	0	1207	3	1596	1684
17	0	0	1037	4	1598	1684
18	0	0	1104	4	1597	1684
19	0	0	1455	5	1598	1685
20	0	0	1791	5	1598	1684
21	0	0	2220	5	1595	1684
22	0	0	2629	4	1592	1684
23	0	0	2851	5	1589	1684
24	0	0	2945	4	1588	1685
25	0	0	2966	5	1588	1684
26	0	0	2905	4	1584	1684
27	0	0	2856	4	1584	1684
28	0	0	2716	4	1582	1684
29	0	0	2437	4	1583	1685
30	0	0	2185	4	1584	1684
31	0	0	1942	4	1585	1684
32	0	0	1722	4	1588	1684
33	0	0	1489	4	1589	1684
34	0	0	1305	4	1592	1684
35	0	0	1209	4	1593	1684
36	0	0	1197	4	1595	1684
37	0	0	1025	4	1597	1684
38	0	0	1087	5	1597	1684
39	0	0	1445	5	1597	1684
40	0	0	1782	4	1595	1684
41	0	0	2208	4	1595	1686
42	0	0	2607	4	1591	1684
43	0	0	2836	4	1590	1685
44	0	0	2937	5	1589	1684
45	0	0	2960	5	1586	1684
46	0	0	2904	4	1584	1685
47	0	0	2855	4	1583	1684
48	0	0	2710	4	1582	1684
49	0	0	2432	4	1583	1684
50	0	0	2182	3	1582	1684
51	0	0	1938	4	1585	1684
52	0	0	1716	4	1585	1684
53	0	0	1481	4	1589	1684
54	0	0	1296	4	1590	1684
55	0	0	1209	4	1593	1684
56	0	0	1210	4	1594	1683
57	0	0	1042	4	1597	1685
58	0	0	1114	4	1598	1684
59	0	0	1461	5	1597	1684
60	0	0	1799	5	1596	1684
61	0	0	2217	5	1593	1684
62	0	0	2610	5	1590	1684
63	0	0	2839	5	1590	1684
64	0	0	2936	6	1586	1684
65	0	0	2963	5	1585	1684
66	0	0	2911	4	1583	1684
67	0	0	2868	5	1583	1684
68	0	0	2722	4	1582	1684
69	0	0	2440	4	1582	1684
70	0	0	2182	3	1583	1684
71	0	0	1934	4	1584	1684
72	0	0	1710	4	1586	1685
73	0	0	1480	3	1589	1684
74	0	0	1298	4	1591	1684
75	0	0	1206	4	1592	1684
76	0	0	1208	4	1594	1684
77	0	0	1042	4	1594	1684
78	0	0	1107	4	1595	1684
79	0	0	1453	5	1597	1684
80	0	0	1796	5	1597	1684
81	0	0	2221	4	1595	1685
82	0	0	2615	5	1589	1684
83	0	0	2837	5	1588	1684
84	0	0	2936	5	1587	1684
85	0	0	2959	5	1585	1684
86	0	0	2902	4	1583	1684
87	0	0	2863	4	1581	1685
88	0	0	2716	4	1583	1684
89	0	0	2421	4	1581	1684
90	0	0	2165	4	1582	1684
91	0	0	1930	4	1583	1684
92	0	0	1710	4	1584	1684
93	0	0	1474	4	1587	1684
94	0	0	1290	4	1589	1684
95	0	0	1199	4	1593	1684
96	0	0	1199	3	1594	1685
97	0	0	1026	4	1596	1684
98	0	0	1095	4	1596	1684
99	0	0	1449	4	1595	1684
100	0	0	1783	5	1595	1684
101	0	0	2206	4	1592	1684
102	0	0	2608	5	1590	1684
103	0	0	2829	5	1588	1684
104	0	0	2931	5	1587	1685
105	0	0	2956	4	1585	1684
106	0	0	2902	3	1584	1684
107	0	0	2864	4	1583	1684
108	0	0	2717	4	1580	1684
109	0	0	2418	4	1580	1684
110	0	0	2162	4	1582	1684
111	0	0	1929	3	1585	1685
112	0	0	1712	4	1585	1684
113	0	0	1478	3	1587	1684
114	0	0	1298	4	1591	1684
115	0	0	1209	4	1592	1685
116	0	0	1210	3	1593	1683
117	0	0	1038	4	1597	1685
118	0	0	1105	5	1595	1684
119	0	0	1455	4	1596	1685
120	0	0	1790	5	1594	1684
121	0	0	2215	4	1592	1684
122	0	0	2615	5	1591	1685
123	0	0	2840	5	1588	1684
124	0	0	2940	5	1587	1684
125	0	0	2968	5	1582	1684
126	0	0	2913	4	1583	1685
127	0	0	2870	4	1582	1684
0	0	0	2725	4	1580	1684
1	0	0	2437	3	1581	1684
2	0	0	2183	4	1582	1684
3	0	0	1948	4	1584	1684
4	0	0	1730	4	1586	1684
5	0	0	1495	4	1587	1684
6	0	0	1310	3	1588	1684
7	0	0	1215	4	1591	1685
8	0	0	1206	4	1593	1685
9	0	0	1035	4	1595	1684
10	0	0	1104	5	1595	1684
11	0	0	1462	4	1595	1685
12	0	0	1800	5	1597	1684
13	0	0	2219	5	1591	1685
14	0	0	2620	5	1589	1685
15	0	0	2843	5	1588	1684
16	0	0	2938	5	1584	1684
17	0	0	2959	5	1583	1684
18	0	0	2900	4	1583	1684
19	0	0	2860	4	1581	1685
20	0	0	2722	4	1580	1684
21	0	0	2441	4	1582	1685
22	0	0	2188	4	1582	1684
23	0	0	1952	4	1583	1684
24	0	0	1734	4	1585	1684
25	0	0	1496	4	1587	1684
26	0	0	1307	4	1588	1685
27	0	0	1215	3	1591	1684
28	0	0	1209	4	1593	1684
29	0	0	1036	4	1597	1684
30	0	0	1100	4	1596	1685
31	0	0	1457	5	1594	1684
32	0	0	1797	5	1593	1684
33	0	0	2225	5	1592	1684
34	0	0	2614	5	1589	1684
35	0	0	2835	5	1586	1684
36	0	0	2933	4	1584	1684
37	0	0	2959	5	1583	1684
38	0	0	2906	4	1582	1685
39	0	0	2869	4	1581	1684
40	0	0	2722	4	1579	1684
41	0	0	2440	5	1581	1684
42	0	0	2184	4	1582	1684
43	0	0	1936	4	1583	1685
44	0	0	1713	4	1585	1684
45	0	0	1474	4	1586	1684
46	0	0	1292	4	1589	1685
47	0	0	1202	4	1590	1685
48	0	0	1204	4	1593	1684
49	0	0	1033	4	1596	1684
50	0	0	1102	5	1595	1684
51	0	0	1447	5	1594	1684
52	0	0	1785	5	1593	1684
53	0	0	2215	5	1591	1685
54	0	0	2617	5	1589	1684
55	0	0	2843	5	1587	1684
56	0	0	2935	5	1584	1684
57	0	0	2953	5	1583	1684
58	0	0	2895	4	1582	1684
59	0	0	2857	4	1582	1685
60	0	0	2717	4	1581	1684
61	0	0	2441	4	1581	1684
62	0	0	2183	4	1581	1684
63	0	0	1944	4	1583	1685
64	0	0	1719	4	1585	1684
65	0	0	1488	4	1586	1684
66	0	0	1302	3	1589	1684
67	0	0	1207	4	1591	1684
68	0	0	1206	4	1593	1684
69	0	0	1035	4	1594	1684
70	0	0	1115	5	1595	1684
71	0	0	1467	4	1596	1685
72	0	0	1806	4	1594	1685
73	0	0	2225	5	1592	1684
74	0	0	2616	5	1589	1684
75	0	0	2839	5	1586	1684
76	0	0	2940	5	1584	1684
77	0	0	2968	5	1582	1684
78	0	0	2919	4	1582	1684
79	0	0	2892	4	1581	1684
80	0	0	2740	4	1582	1685
81	0	0	2442	3	1579	1684
82	0	0	2187	4	1582	1684
83	0	0	1946	3	1584	1684
84	0	0	1722	4	1586	1684
85	0	0	1489	4	1587	1684
86	0	0	1303	3	1588	1684
87	0	0	1212	4	1592	1685
88	0	0	1212	3	1593	1685
89	0	0	1037	3	1593	1684
90	0	0	1111	5	1595	1684
91	0	0	1462	5	1594	1684
92	0	0	1798	5	1594	1684
93	0	0	2225	5	1591	1684
94	0	0	2625	5	1588	1684
95	0	0	2843	5	1585	1684
96	0	0	2941	5	1585	1684
97	0	0	2965	5	1583	1684
98	0	0	2912	4	1583	1684
99	0	0	2887	4	1581	1684
100	0	0	2736	4	1581	1685
101	0	0	2435	3	1579	1684
102	0	0	2180	3	1581	1684
103	0	0	1935	4	1582	1684
104	0	0	1709	3	1584	1684
105	0	0	1473	4	1586	1684
106	0	0	1291	3	1589	1684
107	0	0	1201	4	1591	1684
108	0	0	1205	4	1593	1684
109	0	0	1034	4	1595	1684
110	0	0	1105	5	1594	1684
111	0	0	1455	4	1594	1684
112	0	0	1787	5	1594	1684
113	0	0	2208	5	1592	1684
114	0	0	2614	5	1590	1685
115	0	0	2839	4	1587	1684
116	0	0	2935	5	1584	1685
117	0	0	2962	5	1584	1684
118	0	0	2896	4	1582	1684
119	0	0	2867	4	1580	1685
120	0	0	2721	4	1581	1684
121	0	0	2433	4	1581	1683
122	0	0	2179	4	1582	1684
123	0	0	1939	4	1583	1685
124	0	0	1719	4	1584	1684
125	0	0	1485	4	1587	1684
126	0	0	1299	3	1589	1684
127	0	0	1204	4	1590	1684
0	0	0	1191	4	1593	1684
1	0	0	1009	4	1594	1684
2	0	0	1085	4	1594	1684
3	0	0	1450	4	1595	1685
4	0	0	1793	4	1593	1685
5	0	0	2215	5	1591	1684
6	0	0	2612	5	1589	1684
7	0	0	2837	5	1587	1684
8	0	0	2940	5	1586	1685
9	0	0	2966	5	1584	1685
10	0	0	2911	4	1582	1684
11	0	0	2874	4	1579	1684
12	0	0	2728	4	1579	1684
13	0	0	2442	4	1579	1684
14	0	0	2185	4	1581	1684
15	0	0	1943	3	1582	1684
16	0	0	1717	3	1584	1684
17	0	0	1479	4	1586	1684
18	0	0	1295	4	1588	1684
19	0	0	1209	4	1590	1684
20	0	0	1212	4	1591	1684
21	0	0	1040	3	1594	1684
22	0	0	1106	4	1595	1684
23	0	0	1457	5	1594	1685
24	0	0	1795	4	1595	1685
25	0	0	2222	4	1590	1685
26	0	0	2625	5	1588	1685
27	0	0	2850	5	1586	1684
28	0	0	2947	5	1584	1684
29	0	0	2967	5	1583	1684
30	0	0	2914	4	1581	1685
31	0	0	2879	4	1578	1684
32	0	0	2735	4	1579	1684
33	0	0	2449	4	1580	1684
34	0	0	2196	4	1580	1684
35	0	0	1954	4	1582	1684
36	0	0	1727	4	1583	1684
37	0	0	1489	4	1585	1684
38	0	0	1305	4	1588	1684
39	0	0	1215	4	1588	1684
40	0	0	1213	3	1590	1684
41	0	0	1038	4	1593	1684
42	0	0	1108	5	1592	1684
43	0	0	1461	5	1593	1684
44	0	0	1800	4	1594	1684
45	0	0	2230	5	1591	1684
46	0	0	2623	5	1588	1685
47	0	0	2845	5	1586	1684
48	0	0	2944	5	1583	1684
49	0	0	2966	5	1580	1684
50	0	0	2918	4	1581	1683
51	0	0	2889	4	1578	1684
52	0	0	2737	4	1579	1684
53	0	0	2439	4	1580	1684
54	0	0	2181	4	1580	1684
55	0	0	1939	4	1581	1684
56	0	0	1717	3	1583	1684
57	0	0	1482	4	1585	1684
58	0	0	1300	4	1587	1684
59	0	0	1208	4	1589	1685
60	0	0	1204	4	1591	1684
61	0	0	1027	4	1594	1684
62	0	0	1104	5	1592	1684
63	0	0	1447	5	1592	1684
64	0	0	1787	5	1592	1684
65	0	0	2217	5	1591	1683
66	0	0	2611	5	1586	1684
67	0	0	2837	5	1584	1684
68	0	0	2937	5	1582	1684
69	0	0	2963	4	1581	1684
70	0	0	2903	4	1579	1684
71	0	0	2880	5	1578	1684
72	0	0	2729	4	1579	1684
73	0	0	2440	4	1579	1684
74	0	0	2178	3	1579	1684
75	0	0	1932	4	1580	1685
76	0	0	1710	4	1581	1684
77	0	0	1477	3	1584	1685
78	0	0	1295	4	1587	1684
79	0	0	1203	4	1588	1684
80	0	0	1203	4	1590	1684
81	0	0	1026	4	1593	1684
82	0	0	1106	4	1593	1684
83	0	0	1453	5	1593	1684
84	0	0	1791	5	1593	1684
85	0	0	2219	5	1590	1684
86	0	0	2619	5	1586	1684
87	0	0	2839	5	1584	1684
88	0	0	2940	5	1583	1684
89	0	0	2964	5	1581	1684
90	0	0	2911	4	1579	1684
91	0	0	2890	5	1579	1684
92	0	0	2741	4	1578	1684
93	0	0	2450	4	1578	1684
94	0	0	2194	4	1580	1685
95	0	0	1951	4	1581	1684
96	0	0	1729	4	1584	1684
97	0	0	1492	4	1584	1684
98	0	0	1301	4	1585	1684
99	0	0	1210	3	1588	1684
100	0	0	1196	3	1590	1684
101	0	0	1011	3	1592	1684
102	0	0	1092	5	1593	1684
103	0	0	1448	5	1592	1684
104	0	0	1786	4	1591	1684
105	0	0	2219	5	1590	1684
106	0	0	2626	5	1586	1684
107	0	0	2850	5	1584	1684
108	0	0	2950	5	1583	1684
109	0	0	2977	5	1581	1684
110	0	0	2918	4	1580	1685
111	0	0	2888	4	1578	1685
112	0	0	2739	4	1578	1684
113	0	0	2451	4	1578	1684
114	0	0	2196	3	1579	1684
115	0	0	1945	4	1580	1684
116	0	0	1720	4	1580	1684
117	0	0	1486	4	1584	1684
118	0	0	1307	4	1586	1684
119	0	0	1212	4	1588	1684
120	0	0	1204	4	1590	1684
121	0	0	1024	4	1592	1684
122	0	0	1101	4	1592	1685
123	0	0	1457	5	1593	1684
124	0	0	1792	3	1591	1684
125	0	0	2221	4	1588	1684
126	0	0	2617	5	1585	1684
127	0	0	2836	5	1584	1684
0	0	0	2932	5	1582	1684
1	0	0	2959	5	1581	1684
2	0	0	2909	4	1578	1684
3	0	0	2885	4	1578	1685
4	0	0	2736	4	1579	1684
5	0	0	2446	4	1578	1684
6	0	0	2193	3	1580	1684
7	0	0	1949	4	1581	1685
8	0	0	1718	4	1581	1684
9	0	0	1480	4	1583	1684
10	0	0	1294	4	1585	1684
11	0	0	1203	3	1587	1684
12	0	0	1196	4	1590	1684
13	0	0	1015	4	1591	1684
14	0	0	1097	5	1592	1684
15	0	0	1454	4	1590	1684
16	0	0	1786	5	1590	1684
17	0	0	2214	5	1589	1684
18	0	0	2613	5	1586	1684
19	0	0	2836	5	1583	1684
20	0	0	2941	5	1583	1685
21	0	0	2970	5	1582	1685
22	0	0	2912	4	1579	1684
23	0	0	2891	4	1579	1684
24	0	0	2737	4	1579	1684
25	0	0	2446	4	1578	1684
26	0	0	2194	4	1579	1684
27	0	0	1951	4	1579	1684
28	0	0	1722	4	1580	1684
29	0	0	1482	4	1584	1684
30	0	0	1300	4	1585	1684
31	0	0	1206	3	1588	1684
32	0	0	1197	4	1589	1684
33	0	0	1012	4	1591	1684
34	0	0	1094	6	1591	1684
35	0	0	1445	5	1592	1684
36	0	0	1787	5	1591	1685
37	0	0	2214	5	1588	1685
38	0	0	2616	5	1585	1684
39	0	0	2840	5	1583	1684
