# bioPlux Text File Format
# Version: 1
# StartDateTime: 2011-07-16 01:18:14
# SamplingFrequency: 1000
# SampledChannels: 1 2 3 4
# SamplingResolution: 12
# AcquiringDevice: 00:07:80:42:0F:8B
# EndOfHeader
0	0	0	2185	987	2777	49
1	0	0	2215	986	2773	47
2	0	0	2245	983	2766	58
3	0	0	2287	984	2766	62
4	0	0	2338	980	2769	47
5	0	0	2366	983	2773	45
6	0	0	2388	983	2779	49
7	0	0	2393	983	2780	53
8	0	0	2383	983	2781	54
9	0	0	2365	984	2780	66
10	0	0	2358	986	2777	64
11	0	0	2359	986	2772	59
12	0	0	2365	985	2767	49
13	0	0	2376	988	2766	45
14	0	0	2381	988	2769	51
15	0	0	2384	988	2774	53
16	0	0	2378	989	2778	64
17	0	0	2367	987	2780	59
18	0	0	2366	989	2781	57
19	0	0	2374	987	2780	45
20	0	0	2397	987	2777	43
21	0	0	2407	986	2771	44
22	0	0	2423	985	2767	48
23	0	0	2428	983	2766	65
24	0	0	2400	981	2769	62
25	0	0	2364	978	2774	63
26	0	0	2346	982	2778	51
27	0	0	2316	980	2782	53
28	0	0	2282	979	2782	55
29	0	0	2226	979	2780	65
30	0	0	2162	981	2778	63
31	0	0	2120	983	2773	64
32	0	0	2070	981	2767	63
33	0	0	2015	984	2766	57
34	0	0	1988	987	2770	43
35	0	0	2004	988	2775	54
36	0	0	2025	988	2777	65
37	0	0	2025	989	2781	62
38	0	0	2011	987	2781	59
39	0	0	2003	986	2781	57
40	0	0	2020	986	2777	43
41	0	0	2042	984	2771	42
42	0	0	2068	983	2767	45
43	0	0	2089	983	2765	56
44	0	0	2077	981	2769	51
45	0	0	2080	982	2773	62
46	0	0	2096	982	2777	50
47	0	0	2096	979	2781	50
48	0	0	2072	980	2781	51
49	0	0	2032	980	2780	53
50	0	0	1997	983	2776	62
51	0	0	1995	985	2771	66
52	0	0	1994	985	2767	66
53	0	0	1986	986	2764	45
54	0	0	1981	987	2769	54
55	0	0	1969	987	2773	48
56	0	0	1966	988	2777	62
57	0	0	1974	986	2780	60
58	0	0	1978	988	2781	60
59	0	0	1986	986	2780	59
60	0	0	2016	987	2776	42
61	0	0	2056	987	2771	42
62	0	0	2088	983	2767	43
63	0	0	2111	979	2765	57
64	0	0	2104	982	2768	57
65	0	0	2078	979	2773	60
66	0	0	2055	980	2777	50
67	0	0	2044	981	2781	52
68	0	0	2023	980	2781	53
69	0	0	2013	983	2781	51
70	0	0	2008	984	2778	60
71	0	0	1992	985	2772	63
72	0	0	1981	986	2767	62
73	0	0	1973	986	2766	48
74	0	0	1981	987	2769	50
75	0	0	2008	986	2774	47
76	0	0	2009	987	2777	51
77	0	0	2012	988	2780	60
78	0	0	2032	983	2781	61
79	0	0	2053	987	2780	62
80	0	0	2062	985	2778	53
81	0	0	2060	986	2772	48
82	0	0	2085	981	2767	43
83	0	0	2113	982	2766	57
84	0	0	2100	981	2768	57
85	0	0	2095	980	2773	62
86	0	0	2086	981	2777	63
87	0	0	2057	975	2781	53
88	0	0	2020	979	2782	53
89	0	0	2000	983	2780	52
90	0	0	2003	984	2777	65
91	0	0	2008	984	2772	63
92	0	0	2010	984	2767	65
93	0	0	2016	986	2766	71
94	0	0	2019	984	2771	56
95	0	0	1983	984	2774	48
96	0	0	1965	986	2777	50
97	0	0	1986	987	2781	59
98	0	0	2031	986	2781	59
99	0	0	2062	985	2780	59
100	0	0	2078	984	2777	62
101	0	0	2090	984	2773	47
102	0	0	2121	982	2767	46
103	0	0	2146	982	2766	48
104	0	0	2136	983	2769	51
105	0	0	2125	980	2773	57
106	0	0	2083	977	2777	60
107	0	0	2034	977	2781	56
108	0	0	2008	980	2783	56
109	0	0	2006	985	2780	52
110	0	0	2021	983	2778	51
111	0	0	2022	984	2773	57
112	0	0	2007	983	2768	58
113	0	0	2002	983	2766	67
114	0	0	1982	983	2769	61
115	0	0	1968	986	2773	56
116	0	0	1980	987	2777	51
117	0	0	2022	986	2780	50
118	0	0	2072	985	2780	55
119	0	0	2077	985	2781	57
120	0	0	2064	983	2776	55
121	0	0	2062	984	2772	51
122	0	0	2093	980	2765	46
123	0	0	2108	981	2765	45
124	0	0	2100	980	2768	44
125	0	0	2101	979	2771	60
126	0	0	2103	980	2776	58
127	0	0	2104	980	2779	59
0	0	0	2102	980	2781	60
1	0	0	2078	977	2779	59
2	0	0	2039	980	2776	57
3	0	0	1998	981	2771	54
4	0	0	1987	983	2766	61
5	0	0	1994	986	2764	59
6	0	0	2005	987	2766	66
7	0	0	2018	986	2772	62
8	0	0	2051	987	2776	54
9	0	0	2071	986	2779	54
10	0	0	2054	984	2779	52
11	0	0	2042	984	2779	52
12	0	0	2053	984	2776	51
13	0	0	2080	983	2772	51
14	0	0	2103	982	2765	49
15	0	0	2115	981	2765	51
16	0	0	2120	983	2766	52
17	0	0	2118	982	2771	46
18	0	0	2109	979	2775	54
19	0	0	2103	979	2779	60
20	0	0	2080	978	2779	63
21	0	0	2062	980	2779	62
22	0	0	2062	982	2776	62
23	0	0	2067	984	2771	54
24	0	0	2061	983	2765	56
25	0	0	2028	982	2764	50
26	0	0	1987	987	2766	55
27	0	0	1979	986	2771	63
28	0	0	1999	987	2776	56
29	0	0	2029	986	2779	57
30	0	0	2072	985	2780	55
31	0	0	2125	984	2779	48
32	0	0	2179	984	2777	51
33	0	0	2156	979	2772	50
34	0	0	2108	978	2766	52
35	0	0	2065	977	2765	50
36	0	0	2041	979	2767	63
37	0	0	2036	981	2771	52
38	0	0	2051	978	2777	53
39	0	0	2036	978	2780	58
40	0	0	2017	977	2781	63
41	0	0	1997	978	2780	59
42	0	0	1978	980	2777	57
43	0	0	1969	983	2773	55
44	0	0	1984	982	2767	54
45	0	0	2019	984	2766	57
46	0	0	2054	984	2770	62
47	0	0	2086	985	2773	64
48	0	0	2139	985	2777	54
49	0	0	2177	985	2780	54
50	0	0	2205	984	2780	54
51	0	0	2173	982	2780	47
52	0	0	2122	982	2776	49
53	0	0	2102	983	2772	55
54	0	0	2105	981	2766	55
55	0	0	2119	980	2764	51
56	0	0	2124	980	2767	55
57	0	0	2131	979	2772	49
58	0	0	2148	978	2777	53
59	0	0	2091	974	2779	57
60	0	0	2030	976	2781	59
61	0	0	2005	978	2780	61
62	0	0	1981	979	2776	57
63	0	0	1953	977	2773	58
64	0	0	1934	982	2767	55
65	0	0	1957	983	2765	59
66	0	0	2011	980	2767	53
67	0	0	2053	986	2771	55
68	0	0	2083	985	2777	59
69	0	0	2106	984	2779	60
70	0	0	2109	984	2781	55
71	0	0	2098	982	2780	48
72	0	0	2090	983	2777	50
73	0	0	2104	982	2773	48
74	0	0	2132	980	2767	50
75	0	0	2153	979	2765	54
76	0	0	2168	978	2768	52
77	0	0	2156	979	2773	59
78	0	0	2143	977	2777	49
79	0	0	2125	976	2781	52
80	0	0	2106	977	2781	53
81	0	0	2099	979	2780	67
82	0	0	2083	981	2777	66
83	0	0	2074	979	2773	65
84	0	0	2044	979	2767	57
85	0	0	2029	983	2766	49
86	0	0	2025	981	2769	51
87	0	0	2031	985	2772	56
88	0	0	2053	985	2777	61
89	0	0	2076	984	2780	61
90	0	0	2102	984	2781	61
91	0	0	2118	984	2780	55
92	0	0	2118	983	2778	48
93	0	0	2138	982	2773	43
94	0	0	2153	980	2767	51
95	0	0	2171	979	2766	51
96	0	0	2179	977	2768	51
97	0	0	2171	979	2772	62
98	0	0	2156	975	2778	47
99	0	0	2108	974	2781	52
100	0	0	2067	975	2781	54
101	0	0	2066	979	2781	55
102	0	0	2074	980	2778	65
103	0	0	2082	982	2773	63
104	0	0	2103	982	2767	62
105	0	0	2095	979	2766	47
106	0	0	2079	982	2768	40
107	0	0	2088	983	2773	53
108	0	0	2101	984	2777	51
109	0	0	2103	984	2781	62
110	0	0	2068	980	2781	61
111	0	0	2045	983	2781	58
112	0	0	2061	981	2778	45
113	0	0	2112	980	2774	46
114	0	0	2140	980	2767	45
115	0	0	2138	978	2766	60
116	0	0	2122	976	2768	55
117	0	0	2095	974	2773	53
118	0	0	2070	975	2778	62
119	0	0	2071	977	2780	50
120	0	0	2066	976	2781	51
121	0	0	2049	978	2780	51
122	0	0	2066	978	2779	64
123	0	0	2082	980	2773	63
124	0	0	2107	982	2767	65
125	0	0	2093	980	2764	67
126	0	0	2075	981	2768	41
127	0	0	2065	983	2773	53
0	0	0	2065	984	2777	50
1	0	0	2077	983	2780	59
2	0	0	2117	982	2781	59
3	0	0	2153	982	2780	60
4	0	0	2164	979	2778	57
5	0	0	2174	980	2773	44
6	0	0	2176	979	2766	41
7	0	0	2168	978	2767	40
8	0	0	2147	975	2767	55
9	0	0	2125	975	2773	61
10	0	0	2114	977	2777	64
11	0	0	2113	976	2781	53
12	0	0	2117	977	2782	51
13	0	0	2118	978	2780	53
14	0	0	2106	978	2779	53
15	0	0	2088	977	2775	63
16	0	0	2050	977	2768	64
17	0	0	2024	983	2766	60
18	0	0	2029	984	2767	45
19	0	0	2033	982	2774	42
20	0	0	2034	983	2777	46
21	0	0	2066	983	2780	48
22	0	0	2117	983	2781	59
23	0	0	2153	983	2779	56
24	0	0	2167	980	2779	56
25	0	0	2172	980	2774	54
26	0	0	2184	979	2768	48
27	0	0	2191	978	2766	50
28	0	0	2181	977	2769	45
29	0	0	2164	978	2773	57
30	0	0	2153	976	2777	60
31	0	0	2149	976	2781	60
32	0	0	2127	975	2781	58
33	0	0	2101	975	2780	59
34	0	0	2088	979	2779	55
35	0	0	2092	980	2774	52
36	0	0	2100	981	2768	58
37	0	0	2108	981	2766	57
38	0	0	2078	978	2768	63
39	0	0	2041	980	2773	58
40	0	0	2043	983	2778	52
41	0	0	2077	982	2781	52
42	0	0	2111	982	2782	49
43	0	0	2117	983	2780	53
44	0	0	2124	980	2779	56
45	0	0	2124	980	2774	54
46	0	0	2138	979	2768	53
47	0	0	2153	978	2766	51
48	0	0	2150	977	2768	50
49	0	0	2130	973	2773	49
50	0	0	2083	972	2777	58
51	0	0	2048	973	2781	60
52	0	0	2035	977	2782	59
53	0	0	2028	976	2781	61
54	0	0	2027	977	2778	57
55	0	0	2004	977	2774	59
56	0	0	1988	980	2767	58
57	0	0	2000	980	2765	55
58	0	0	1990	979	2767	56
59	0	0	1960	979	2773	54
60	0	0	1957	982	2776	59
61	0	0	1975	982	2779	60
62	0	0	2004	981	2780	54
63	0	0	2033	981	2780	47
64	0	0	2060	980	2777	47
65	0	0	2072	979	2772	47
66	0	0	2085	978	2767	52
67	0	0	2108	977	2764	59
68	0	0	2126	977	2767	53
69	0	0	2128	975	2771	51
70	0	0	2115	975	2776	51
71	0	0	2113	971	2780	55
72	0	0	2095	973	2781	55
73	0	0	2053	973	2779	64
74	0	0	1999	974	2777	67
75	0	0	1980	979	2772	59
76	0	0	1979	980	2767	57
77	0	0	1982	982	2764	53
78	0	0	1964	980	2768	53
79	0	0	1961	982	2772	61
80	0	0	1973	982	2776	64
81	0	0	1991	981	2778	58
82	0	0	2005	981	2780	57
83	0	0	2015	981	2779	54
84	0	0	1995	979	2777	45
85	0	0	1997	979	2772	51
86	0	0	2015	978	2766	52
87	0	0	2057	977	2764	52
88	0	0	2105	977	2766	51
89	0	0	2141	976	2771	50
90	0	0	2140	973	2776	47
91	0	0	2087	972	2778	49
92	0	0	2026	972	2781	51
93	0	0	1996	974	2779	53
94	0	0	1975	975	2777	64
95	0	0	1956	978	2775	63
96	0	0	1974	978	2767	60
97	0	0	2002	980	2765	51
98	0	0	2003	980	2767	55
99	0	0	1983	979	2771	54
100	0	0	1976	982	2776	47
101	0	0	1989	981	2778	61
102	0	0	2017	980	2780	63
103	0	0	2035	980	2780	60
104	0	0	2043	979	2778	44
105	0	0	2053	978	2773	43
106	0	0	2058	976	2766	44
107	0	0	2057	977	2764	65
108	0	0	2049	975	2767	60
109	0	0	2044	975	2770	61
110	0	0	2041	975	2776	65
111	0	0	2034	976	2778	51
112	0	0	2035	974	2780	50
113	0	0	2051	976	2780	51
114	0	0	2056	977	2778	63
115	0	0	2032	975	2774	64
116	0	0	2005	977	2766	67
117	0	0	1993	979	2766	66
118	0	0	1968	977	2768	53
119	0	0	1932	978	2772	55
120	0	0	1935	980	2777	45
121	0	0	1966	980	2780	57
122	0	0	1991	980	2781	58
123	0	0	2024	980	2781	61
124	0	0	2060	978	2778	59
125	0	0	2070	979	2775	48
126	0	0	2074	977	2768	47
127	0	0	2072	975	2766	38
0	0	0	2075	974	2769	63
1	0	0	2082	974	2772	67
2	0	0	2076	974	2778	59
3	0	0	2069	973	2781	54
4	0	0	2070	975	2782	56
5	0	0	2073	975	2782	53
6	0	0	2026	973	2779	54
7	0	0	1996	976	2774	64
8	0	0	1995	978	2767	61
9	0	0	1989	979	2766	64
10	0	0	1991	979	2769	58
11	0	0	2003	980	2772	47
12	0	0	2012	980	2777	51
13	0	0	2008	975	2780	50
14	0	0	1956	976	2781	54
15	0	0	1922	978	2781	56
16	0	0	1944	979	2778	55
17	0	0	1987	978	2774	50
18	0	0	2026	976	2767	47
19	0	0	2049	975	2766	48
20	0	0	2073	975	2768	57
21	0	0	2094	973	2772	55
22	0	0	2106	974	2778	56
23	0	0	2100	974	2780	61
24	0	0	2074	972	2782	57
25	0	0	2034	971	2782	56
26	0	0	1988	973	2778	56
27	0	0	1954	974	2774	52
28	0	0	1923	974	2767	57
29	0	0	1905	977	2766	57
30	0	0	1908	978	2768	57
31	0	0	1919	979	2772	53
32	0	0	1940	980	2778	52
33	0	0	1968	979	2780	53
34	0	0	1995	980	2781	51
35	0	0	2021	979	2781	51
36	0	0	2049	977	2778	55
37	0	0	2074	977	2774	51
38	0	0	2085	975	2768	50
39	0	0	2088	974	2765	47
40	0	0	2093	973	2769	59
41	0	0	2082	973	2773	43
42	0	0	2067	973	2777	56
43	0	0	2061	973	2780	56
44	0	0	2060	973	2781	63
45	0	0	2062	973	2782	63
46	0	0	2050	974	2779	61
47	0	0	2032	975	2775	58
48	0	0	2010	974	2768	52
49	0	0	1973	976	2766	58
50	0	0	1946	974	2768	54
51	0	0	1927	977	2773	57
52	0	0	1934	978	2777	56
53	0	0	1962	979	2779	52
54	0	0	1999	979	2781	54
55	0	0	2035	977	2781	49
56	0	0	2048	977	2778	50
57	0	0	2038	976	2773	48
58	0	0	2036	975	2766	57
59	0	0	2060	973	2764	50
60	0	0	2095	973	2766	54
61	0	0	2098	973	2771	51
62	0	0	2085	973	2776	48
63	0	0	2061	970	2778	52
64	0	0	2027	970	2780	57
65	0	0	1987	971	2780	67
66	0	0	1966	973	2778	64
67	0	0	1967	976	2773	56
68	0	0	1967	976	2768	52
69	0	0	1956	976	2765	60
70	0	0	1943	978	2767	49
71	0	0	1954	978	2772	47
72	0	0	1990	979	2776	60
73	0	0	2020	979	2779	57
74	0	0	2050	978	2781	58
75	0	0	2086	975	2780	45
76	0	0	2092	977	2778	44
77	0	0	2104	976	2773	44
78	0	0	2126	975	2767	48
79	0	0	2130	974	2764	51
80	0	0	2111	970	2767	59
81	0	0	2087	970	2772	59
82	0	0	2065	970	2776	50
83	0	0	2034	969	2779	50
84	0	0	2005	970	2780	52
85	0	0	1996	973	2780	63
86	0	0	1984	975	2778	68
87	0	0	1962	973	2773	62
88	0	0	1943	975	2767	59
89	0	0	1944	977	2765	52
90	0	0	1961	976	2767	50
91	0	0	1979	978	2772	47
92	0	0	1992	978	2776	63
93	0	0	1992	978	2779	59
94	0	0	2000	978	2780	60
95	0	0	2035	976	2781	58
96	0	0	2100	977	2779	44
97	0	0	2140	976	2774	46
98	0	0	2142	975	2768	46
99	0	0	2135	976	2764	57
100	0	0	2125	972	2767	60
101	0	0	2107	970	2771	60
102	0	0	2098	971	2776	47
103	0	0	2072	969	2780	51
104	0	0	2042	969	2780	53
105	0	0	2021	971	2779	47
106	0	0	2014	975	2777	63
107	0	0	1993	973	2773	63
108	0	0	1967	971	2767	62
109	0	0	1934	974	2764	51
110	0	0	1936	975	2767	41
111	0	0	1970	979	2771	50
112	0	0	2007	977	2776	49
113	0	0	2034	978	2778	61
114	0	0	2046	978	2780	60
115	0	0	2052	976	2781	58
116	0	0	2045	976	2779	44
117	0	0	2057	977	2775	39
118	0	0	2087	974	2768	45
119	0	0	2131	973	2766	56
120	0	0	2170	972	2767	63
121	0	0	2164	972	2772	59
122	0	0	2116	967	2777	62
123	0	0	2055	967	2779	49
124	0	0	2000	968	2781	59
125	0	0	1954	968	2782	53
126	0	0	1933	973	2778	63
127	0	0	1940	975	2774	69
0	0	0	1956	975	2768	62
1	0	0	1973	977	2765	49
2	0	0	1988	977	2767	51
3	0	0	1997	979	2771	47
4	0	0	2017	978	2776	46
5	0	0	2051	977	2778	64
6	0	0	2081	977	2781	55
7	0	0	2084	976	2780	59
8	0	0	2073	974	2778	51
9	0	0	2052	974	2774	39
10	0	0	2049	973	2768	45
11	0	0	2067	973	2765	55
12	0	0	2091	972	2769	56
13	0	0	2103	971	2772	56
14	0	0	2107	970	2777	63
15	0	0	2111	970	2780	50
16	0	0	2097	971	2782	50
17	0	0	2070	970	2781	49
18	0	0	2042	970	2779	65
19	0	0	2014	972	2775	63
20	0	0	1991	973	2768	62
21	0	0	1992	976	2766	66
22	0	0	1994	976	2768	55
23	0	0	1996	977	2772	48
24	0	0	1995	977	2777	47
25	0	0	1997	976	2780	60
26	0	0	2022	976	2781	61
27	0	0	2034	976	2782	58
28	0	0	2049	976	2779	62
29	0	0	2073	974	2775	49
30	0	0	2100	974	2769	43
31	0	0	2121	972	2766	48
32	0	0	2105	966	2768	50
33	0	0	2068	968	2772	62
34	0	0	2046	968	2777	63
35	0	0	2034	970	2780	54
36	0	0	2028	971	2782	53
37	0	0	2018	971	2781	53
38	0	0	2029	973	2780	55
39	0	0	2051	972	2775	59
40	0	0	2055	975	2768	62
41	0	0	2039	973	2766	60
42	0	0	2001	973	2768	45
43	0	0	1955	974	2773	44
44	0	0	1939	978	2778	47
45	0	0	1958	977	2780	47
46	0	0	2002	976	2782	56
47	0	0	2036	977	2781	59
48	0	0	2048	975	2779	58
49	0	0	2061	974	2775	52
50	0	0	2079	972	2769	46
51	0	0	2105	971	2766	47
52	0	0	2117	970	2768	46
53	0	0	2121	970	2772	63
54	0	0	2122	970	2777	59
55	0	0	2107	970	2780	60
56	0	0	2094	970	2782	59
57	0	0	2082	971	2782	56
58	0	0	2072	972	2781	52
59	0	0	2044	970	2775	56
60	0	0	2008	971	2769	58
61	0	0	1997	974	2766	60
62	0	0	2005	976	2768	64
63	0	0	2008	974	2773	47
64	0	0	1985	973	2778	51
65	0	0	1993	978	2780	50
66	0	0	2011	976	2782	54
67	0	0	2001	976	2781	55
68	0	0	2023	974	2780	57
69	0	0	2055	974	2775	55
70	0	0	2083	971	2770	52
71	0	0	2085	971	2767	44
72	0	0	2073	970	2768	41
73	0	0	2073	966	2773	60
74	0	0	2060	969	2778	56
75	0	0	2057	969	2780	60
76	0	0	2067	971	2783	59
77	0	0	2074	970	2782	59
78	0	0	2049	968	2780	56
79	0	0	2023	971	2776	59
80	0	0	1996	969	2769	55
81	0	0	1972	973	2767	67
82	0	0	1968	975	2768	63
83	0	0	1973	975	2772	63
84	0	0	1978	976	2777	51
85	0	0	1985	976	2781	51
86	0	0	2014	975	2782	52
87	0	0	2061	975	2782	51
88	0	0	2110	975	2780	55
89	0	0	2124	974	2775	50
90	0	0	2104	971	2769	49
91	0	0	2094	971	2766	47
92	0	0	2093	970	2769	50
93	0	0	2081	966	2773	48
94	0	0	2072	968	2777	49
95	0	0	2069	968	2780	57
96	0	0	2033	966	2783	59
97	0	0	2003	970	2782	61
98	0	0	1995	968	2780	59
99	0	0	1996	973	2775	56
100	0	0	1987	973	2769	53
101	0	0	2005	974	2766	54
102	0	0	2027	976	2768	60
103	0	0	2030	975	2773	56
104	0	0	2021	974	2777	60
105	0	0	2031	975	2780	59
106	0	0	2042	976	2782	54
107	0	0	2045	975	2781	47
108	0	0	2035	970	2780	49
109	0	0	2055	974	2776	48
110	0	0	2074	971	2769	51
111	0	0	2076	972	2766	53
112	0	0	2067	970	2769	48
113	0	0	2073	971	2773	53
114	0	0	2082	969	2777	52
115	0	0	2073	967	2780	55
116	0	0	2042	966	2782	58
117	0	0	2014	966	2781	63
118	0	0	2002	969	2779	59
119	0	0	1997	972	2776	60
120	0	0	1995	972	2769	53
121	0	0	1986	974	2767	60
122	0	0	1989	974	2768	55
123	0	0	1995	972	2773	56
124	0	0	1975	973	2777	59
125	0	0	1978	975	2779	55
126	0	0	2004	976	2782	55
127	0	0	2041	974	2781	48
0	0	0	2075	975	2780	51
1	0	0	2088	973	2775	48
2	0	0	2094	970	2769	53
3	0	0	2103	972	2766	52
4	0	0	2119	969	2768	52
5	0	0	2138	968	2773	59
6	0	0	2139	966	2777	56
7	0	0	2091	965	2780	56
8	0	0	2047	968	2782	57
9	0	0	2004	966	2780	62
10	0	0	1965	971	2780	64
11	0	0	1962	972	2776	60
12	0	0	1980	972	2769	55
13	0	0	1974	974	2766	51
14	0	0	1966	974	2768	58
15	0	0	1967	975	2773	55
16	0	0	1985	974	2777	62
17	0	0	2027	975	2780	58
18	0	0	2068	976	2782	55
19	0	0	2086	974	2781	53
20	0	0	2074	975	2780	49
21	0	0	2069	972	2776	50
22	0	0	2113	971	2769	51
23	0	0	2168	969	2766	56
24	0	0	2170	967	2769	51
25	0	0	2119	964	2773	58
26	0	0	2049	963	2777	46
27	0	0	1997	965	2781	52
28	0	0	2001	967	2782	53
29	0	0	2028	969	2783	54
30	0	0	2016	967	2781	67
31	0	0	1980	968	2776	68
32	0	0	1946	968	2770	60
33	0	0	1932	972	2767	47
34	0	0	1944	973	2770	48
35	0	0	1978	974	2773	53
36	0	0	1995	974	2777	51
37	0	0	2011	974	2781	61
38	0	0	2041	974	2782	63
39	0	0	2072	973	2782	63
40	0	0	2075	970	2779	47
41	0	0	2063	972	2776	48
42	0	0	2069	970	2769	44
43	0	0	2079	967	2766	55
44	0	0	2090	967	2768	66
45	0	0	2100	967	2771	62
46	0	0	2093	967	2777	64
47	0	0	2081	967	2780	55
48	0	0	2054	965	2782	53
49	0	0	2031	965	2782	54
50	0	0	2017	968	2780	63
51	0	0	2013	970	2776	63
52	0	0	2030	971	2769	68
53	0	0	2049	972	2767	67
54	0	0	2028	971	2769	58
55	0	0	1998	969	2771	43
56	0	0	1975	972	2777	47
57	0	0	1987	973	2780	60
58	0	0	2015	973	2781	59
59	0	0	2057	972	2781	62
60	0	0	2082	971	2779	62
61	0	0	2098	973	2776	54
62	0	0	2114	971	2769	48
63	0	0	2114	968	2766	42
64	0	0	2108	967	2767	64
65	0	0	2107	966	2772	66
66	0	0	2114	966	2777	63
67	0	0	2120	966	2779	55
68	0	0	2116	965	2783	53
69	0	0	2072	965	2783	54
70	0	0	2053	967	2779	53
71	0	0	2032	968	2776	63
72	0	0	2001	968	2769	63
73	0	0	1975	969	2766	66
74	0	0	1971	970	2769	52
75	0	0	1993	974	2772	64
76	0	0	2033	972	2777	49
77	0	0	2040	973	2780	52
78	0	0	2030	972	2781	51
79	0	0	2035	971	2781	56
80	0	0	2050	971	2779	56
81	0	0	2060	971	2776	48
82	0	0	2067	969	2770	47
83	0	0	2096	968	2766	51
84	0	0	2118	964	2768	47
85	0	0	2125	967	2773	51
86	0	0	2115	965	2776	59
87	0	0	2082	963	2780	62
88	0	0	2048	964	2782	58
89	0	0	2009	963	2782	56
90	0	0	1978	965	2779	55
91	0	0	1974	970	2776	55
92	0	0	1986	969	2769	62
93	0	0	1996	971	2766	59
94	0	0	2002	970	2767	64
95	0	0	2000	976	2772	56
96	0	0	1993	972	2777	54
97	0	0	1980	974	2780	52
98	0	0	1988	972	2783	56
99	0	0	1999	972	2781	55
100	0	0	2011	969	2780	56
101	0	0	2036	971	2777	55
102	0	0	2055	970	2769	49
103	0	0	2075	968	2766	49
104	0	0	2094	965	2768	48
105	0	0	2104	968	2772	56
106	0	0	2094	966	2777	53
107	0	0	2095	966	2780	61
108	0	0	2101	966	2782	61
109	0	0	2089	966	2782	60
110	0	0	2062	966	2780	58
111	0	0	2026	964	2776	59
112	0	0	2004	968	2769	58
113	0	0	1994	971	2766	62
114	0	0	2010	971	2769	60
115	0	0	2021	973	2773	62
116	0	0	2009	971	2777	57
117	0	0	1997	973	2781	54
118	0	0	1995	972	2782	50
119	0	0	2011	972	2782	47
120	0	0	2055	970	2780	55
121	0	0	2067	970	2776	53
122	0	0	2067	968	2770	51
123	0	0	2070	968	2766	52
124	0	0	2085	966	2768	56
125	0	0	2097	968	2772	47
126	0	0	2103	965	2776	55
127	0	0	2088	964	2780	61
0	0	0	2064	965	2783	65
1	0	0	2031	965	2782	63
2	0	0	1978	964	2780	64
3	0	0	1977	970	2776	57
4	0	0	2002	969	2770	50
5	0	0	2013	971	2766	58
6	0	0	2016	971	2768	54
7	0	0	2013	972	2772	66
8	0	0	2010	968	2777	60
9	0	0	2013	972	2779	57
10	0	0	2035	971	2781	57
11	0	0	2083	972	2782	46
12	0	0	2108	972	2780	48
13	0	0	2120	969	2776	49
14	0	0	2139	969	2768	63
15	0	0	2129	968	2767	51
16	0	0	2109	968	2768	49
17	0	0	2103	968	2772	48
18	0	0	2103	965	2776	48
19	0	0	2090	963	2780	51
20	0	0	2075	966	2782	54
21	0	0	2060	965	2781	63
22	0	0	2035	964	2780	71
23	0	0	2005	966	2776	64
24	0	0	1987	968	2770	49
25	0	0	1981	971	2766	51
26	0	0	1990	970	2768	55
27	0	0	2000	971	2772	50
28	0	0	2001	972	2776	61
29	0	0	2009	972	2780	60
30	0	0	2023	971	2781	58
31	0	0	2043	970	2782	47
32	0	0	2066	972	2780	43
33	0	0	2076	969	2776	45
34	0	0	2096	968	2770	47
35	0	0	2116	968	2766	60
36	0	0	2131	968	2768	63
37	0	0	2147	964	2772	64
38	0	0	2158	963	2776	48
39	0	0	2153	968	2779	51
40	0	0	2133	963	2782	53
41	0	0	2109	964	2782	65
42	0	0	2084	966	2780	65
43	0	0	2071	967	2776	62
44	0	0	2031	966	2770	65
45	0	0	1994	966	2767	53
46	0	0	1990	968	2769	40
47	0	0	1993	972	2772	40
48	0	0	1987	970	2776	59
49	0	0	1995	971	2779	58
50	0	0	2016	971	2782	61
51	0	0	2045	969	2781	61
52	0	0	2094	969	2780	47
53	0	0	2124	967	2776	44
54	0	0	2123	968	2770	43
55	0	0	2120	966	2766	55
56	0	0	2127	966	2767	52
57	0	0	2139	965	2772	62
58	0	0	2116	961	2776	50
59	0	0	2089	963	2779	50
60	0	0	2077	964	2782	53
61	0	0	2053	964	2782	54
62	0	0	2026	967	2780	62
63	0	0	2018	967	2776	61
64	0	0	2023	970	2770	65
65	0	0	2021	968	2767	58
66	0	0	1991	966	2769	43
67	0	0	1962	971	2772	58
68	0	0	1966	970	2777	48
69	0	0	1979	968	2779	56
70	0	0	2002	969	2782	57
71	0	0	2044	969	2781	63
72	0	0	2074	967	2780	51
73	0	0	2043	964	2776	51
74	0	0	2031	966	2770	43
75	0	0	2060	966	2766	51
76	0	0	2104	964	2767	53
77	0	0	2136	959	2771	55
78	0	0	2159	963	2776	61
79	0	0	2145	962	2779	57
80	0	0	2111	961	2782	59
81	0	0	2084	963	2782	58
82	0	0	2058	963	2779	61
83	0	0	2031	963	2776	63
84	0	0	2011	967	2770	64
85	0	0	2002	968	2766	60
86	0	0	1996	968	2768	55
87	0	0	1999	967	2771	55
88	0	0	2007	970	2777	50
89	0	0	1998	970	2779	56
90	0	0	1984	969	2781	59
91	0	0	1978	969	2781	57
92	0	0	1999	967	2779	50
93	0	0	2027	964	2776	53
94	0	0	2043	970	2770	43
95	0	0	2071	965	2766	49
96	0	0	2087	964	2768	49
97	0	0	2083	964	2772	53
98	0	0	2071	963	2776	58
99	0	0	2054	962	2780	55
100	0	0	2019	960	2781	57
101	0	0	1975	961	2782	56
102	0	0	1943	963	2780	60
103	0	0	1939	967	2776	61
104	0	0	1953	967	2771	61
105	0	0	1982	970	2766	60
106	0	0	2002	967	2767	54
107	0	0	2003	969	2771	50
108	0	0	1996	968	2776	52
109	0	0	1993	969	2779	54
110	0	0	2003	969	2781	57
111	0	0	2019	968	2781	57
112	0	0	2043	970	2780	55
113	0	0	2080	969	2776	51
114	0	0	2121	966	2770	48
115	0	0	2151	963	2766	49
116	0	0	2153	964	2767	40
117	0	0	2125	959	2771	56
118	0	0	2093	958	2776	54
119	0	0	2080	961	2780	62
120	0	0	2056	961	2781	59
121	0	0	2029	961	2782	60
122	0	0	1962	961	2780	56
123	0	0	1928	965	2777	54
124	0	0	1936	968	2770	56
125	0	0	1944	967	2766	60
126	0	0	1950	967	2767	64
127	0	0	1964	970	2771	59
0	0	0	1995	969	2777	59
1	0	0	2025	970	2779	56
2	0	0	2032	968	2782	50
3	0	0	2034	969	2781	51
4	0	0	2077	965	2780	54
5	0	0	2094	967	2777	57
6	0	0	2048	962	2770	54
7	0	0	2010	964	2766	50
8	0	0	2013	964	2768	44
9	0	0	2018	963	2772	55
10	0	0	2026	962	2776	54
11	0	0	2042	962	2779	56
12	0	0	2043	961	2781	63
13	0	0	2041	963	2783	64
14	0	0	2056	965	2780	62
15	0	0	2057	965	2777	48
16	0	0	2025	964	2771	53
17	0	0	1999	964	2767	53
18	0	0	1997	971	2768	53
19	0	0	2019	966	2772	69
20	0	0	2032	970	2776	63
21	0	0	2033	970	2779	60
22	0	0	2011	967	2781	46
23	0	0	2012	968	2783	48
24	0	0	2038	966	2780	48
25	0	0	2064	967	2776	45
26	0	0	2087	965	2770	59
27	0	0	2108	966	2767	59
28	0	0	2110	963	2767	52
29	0	0	2126	963	2771	47
30	0	0	2146	962	2776	47
31	0	0	2146	962	2780	50
32	0	0	2113	960	2781	63
33	0	0	2064	960	2782	65
34	0	0	2025	960	2780	63
35	0	0	2000	964	2777	64
36	0	0	1993	966	2770	51
37	0	0	1985	966	2766	50
38	0	0	1987	967	2767	53
39	0	0	2009	970	2771	65
40	0	0	2037	969	2776	62
41	0	0	2057	968	2779	63
42	0	0	2073	968	2781	60
43	0	0	2087	968	2783	48
44	0	0	2090	968	2780	45
45	0	0	2084	967	2777	43
46	0	0	2082	965	2770	51
47	0	0	2092	965	2767	58
48	0	0	2095	962	2767	54
49	0	0	2091	963	2771	49
50	0	0	2122	962	2776	49
51	0	0	2166	962	2779	47
52	0	0	2173	962	2781	51
53	0	0	2155	962	2782	67
54	0	0	2145	964	2780	68
55	0	0	2148	964	2777	65
56	0	0	2160	967	2771	51
57	0	0	2168	966	2767	52
58	0	0	2170	967	2767	48
59	0	0	2209	968	2772	47
60	0	0	2255	968	2775	64
61	0	0	2300	968	2779	55
62	0	0	2339	967	2781	62
63	0	0	2361	967	2782	52
64	0	0	2367	964	2781	47
65	0	0	2375	966	2777	44
66	0	0	2407	965	2770	45
67	0	0	2444	963	2767	32
68	0	0	2465	963	2768	47
69	0	0	2481	963	2771	55
70	0	0	2492	961	2776	54
71	0	0	2496	961	2779	60
72	0	0	2477	962	2782	62
73	0	0	2456	962	2782	63
74	0	0	2444	964	2781	61
75	0	0	2434	964	2777	50
76	0	0	2426	965	2771	51
77	0	0	2400	962	2766	57
78	0	0	2348	963	2767	62
79	0	0	2311	967	2771	59
80	0	0	2328	968	2776	57
81	0	0	2348	967	2779	55
82	0	0	2327	966	2782	50
83	0	0	2322	966	2781	52
84	0	0	2328	967	2780	47
85	0	0	2346	964	2776	57
86	0	0	2328	961	2770	49
87	0	0	2269	960	2767	52
88	0	0	2235	958	2767	47
89	0	0	2187	956	2772	45
90	0	0	2153	957	2776	51
91	0	0	2108	957	2779	51
92	0	0	2053	958	2782	63
93	0	0	2004	958	2782	65
94	0	0	1977	960	2781	62
95	0	0	1965	962	2777	54
96	0	0	1969	965	2771	48
97	0	0	1983	965	2766	52
98	0	0	1988	966	2767	62
99	0	0	1978	966	2770	69
100	0	0	1975	966	2776	61
101	0	0	1996	968	2779	56
102	0	0	2011	966	2781	47
103	0	0	2025	967	2781	47
104	0	0	2040	964	2781	48
105	0	0	2068	964	2776	45
106	0	0	2078	965	2770	52
107	0	0	2074	963	2766	56
108	0	0	2077	961	2767	54
109	0	0	2092	964	2770	36
110	0	0	2101	958	2776	45
111	0	0	2095	960	2779	48
112	0	0	2077	960	2781	66
113	0	0	2051	960	2782	66
114	0	0	2004	958	2780	65
115	0	0	1963	960	2777	68
116	0	0	1961	964	2771	52
117	0	0	1967	964	2766	50
118	0	0	1982	965	2767	55
119	0	0	1996	968	2770	59
120	0	0	2009	966	2775	62
121	0	0	2028	967	2779	58
122	0	0	2038	966	2782	58
123	0	0	2050	967	2783	48
124	0	0	2083	965	2780	45
125	0	0	2128	967	2776	44
126	0	0	2139	965	2771	58
127	0	0	2113	959	2766	61
0	0	0	2074	958	2767	63
1	0	0	2057	960	2770	44
2	0	0	2062	960	2776	46
3	0	0	2062	959	2779	48
4	0	0	2065	962	2781	50
5	0	0	2068	960	2781	68
6	0	0	2058	962	2779	66
7	0	0	2019	959	2776	63
8	0	0	1980	960	2772	52
9	0	0	1965	964	2766	51
10	0	0	1997	966	2768	48
11	0	0	2018	967	2772	49
12	0	0	2030	966	2775	64
13	0	0	2053	970	2780	61
14	0	0	2081	966	2781	63
15	0	0	2099	966	2782	48
16	0	0	2113	964	2781	48
17	0	0	2123	963	2777	44
18	0	0	2141	963	2770	40
19	0	0	2141	961	2766	56
20	0	0	2146	960	2767	67
21	0	0	2143	959	2770	52
22	0	0	2102	955	2776	48
23	0	0	2060	959	2779	48
24	0	0	2034	957	2781	49
25	0	0	2014	959	2782	61
26	0	0	2021	963	2779	64
27	0	0	2036	961	2776	64
28	0	0	2029	963	2771	62
29	0	0	2027	963	2766	53
30	0	0	2046	964	2768	49
31	0	0	2026	964	2770	45
32	0	0	1995	963	2775	61
33	0	0	1978	966	2778	59
34	0	0	1992	965	2781	60
35	0	0	2022	964	2782	59
36	0	0	2066	965	2779	48
37	0	0	2102	965	2777	46
38	0	0	2129	960	2770	40
39	0	0	2141	961	2767	55
40	0	0	2165	960	2768	54
41	0	0	2205	958	2769	54
42	0	0	2217	958	2776	52
43	0	0	2144	954	2779	50
44	0	0	2045	955	2782	51
45	0	0	1982	957	2782	53
46	0	0	1971	960	2780	60
47	0	0	1987	962	2777	62
48	0	0	1995	962	2771	64
49	0	0	1998	963	2767	58
50	0	0	1992	964	2767	52
51	0	0	1989	967	2770	56
52	0	0	1986	965	2775	48
53	0	0	1979	966	2778	62
54	0	0	1982	965	2781	59
55	0	0	2004	963	2781	61
56	0	0	2050	965	2780	50
57	0	0	2091	964	2777	47
58	0	0	2108	961	2771	44
59	0	0	2133	960	2766	54
60	0	0	2142	958	2767	54
61	0	0	2129	955	2771	56
62	0	0	2101	959	2776	51
63	0	0	2058	954	2780	51
64	0	0	2018	956	2781	51
65	0	0	2006	958	2781	52
66	0	0	2014	960	2780	62
67	0	0	2029	965	2777	59
68	0	0	2045	962	2771	66
69	0	0	2055	959	2766	54
70	0	0	2062	966	2767	50
71	0	0	2079	964	2770	56
72	0	0	2077	964	2776	52
73	0	0	2069	965	2779	56
74	0	0	2062	964	2781	57
75	0	0	2054	963	2781	57
76	0	0	2041	962	2780	54
77	0	0	2046	965	2776	54
78	0	0	2071	962	2770	46
79	0	0	2078	960	2767	51
80	0	0	2084	959	2767	52
81	0	0	2094	960	2770	47
82	0	0	2099	959	2775	55
83	0	0	2105	957	2779	59
84	0	0	2099	958	2781	56
85	0	0	2079	957	2781	56
86	0	0	2047	958	2780	55
87	0	0	2013	963	2777	58
88	0	0	1999	962	2772	60
89	0	0	2002	963	2766	62
90	0	0	2016	964	2767	54
91	0	0	2035	965	2771	68
92	0	0	2042	966	2776	57
93	0	0	2049	964	2779	51
94	0	0	2058	963	2782	51
95	0	0	2075	965	2782	54
96	0	0	2090	962	2780	56
97	0	0	2071	960	2777	57
98	0	0	2060	960	2771	54
99	0	0	2077	959	2766	52
100	0	0	2102	960	2767	58
101	0	0	2124	958	2771	47
102	0	0	2112	960	2775	56
103	0	0	2088	956	2779	63
104	0	0	2080	957	2781	61
105	0	0	2081	959	2781	60
106	0	0	2066	957	2780	59
107	0	0	2037	960	2777	54
108	0	0	2021	960	2772	55
109	0	0	2001	959	2766	55
110	0	0	1984	963	2767	61
111	0	0	1996	967	2771	69
112	0	0	1996	967	2775	57
113	0	0	1970	963	2778	54
114	0	0	1971	963	2781	51
115	0	0	1993	965	2781	51
116	0	0	2019	963	2781	52
117	0	0	2019	962	2776	57
118	0	0	2025	960	2770	52
119	0	0	2055	958	2766	56
120	0	0	2061	958	2767	50
121	0	0	2057	959	2770	43
122	0	0	2044	957	2775	53
123	0	0	2044	956	2779	54
124	0	0	2016	954	2781	63
125	0	0	1975	955	2783	66
126	0	0	1945	956	2781	63
127	0	0	1932	959	2777	51
0	0	0	1934	960	2771	55
1	0	0	1939	962	2766	55
2	0	0	1936	963	2767	50
3	0	0	1938	964	2771	55
4	0	0	1951	962	2775	64
5	0	0	1971	964	2778	59
6	0	0	1991	963	2781	47
7	0	0	1999	964	2782	47
8	0	0	2006	964	2780	47
9	0	0	2016	961	2777	49
10	0	0	2032	960	2771	59
11	0	0	2048	959	2766	55
12	0	0	2060	958	2767	63
13	0	0	2068	958	2771	42
14	0	0	2079	956	2775	44
15	0	0	2106	957	2780	51
16	0	0	2137	957	2781	66
17	0	0	2106	953	2782	62
18	0	0	2042	954	2781	67
19	0	0	1988	956	2777	63
20	0	0	1951	958	2771	48
21	0	0	1937	959	2766	52
22	0	0	1926	963	2767	52
23	0	0	1924	962	2770	60
24	0	0	1936	964	2775	66
25	0	0	1951	962	2778	60
26	0	0	1973	963	2781	60
27	0	0	2014	961	2781	46
28	0	0	2054	962	2780	46
29	0	0	2065	960	2777	46
30	0	0	2067	959	2771	56
31	0	0	2061	958	2767	60
32	0	0	2054	959	2767	64
33	0	0	2057	956	2771	46
34	0	0	2064	956	2775	48
35	0	0	2070	956	2778	47
36	0	0	2052	954	2781	52
37	0	0	2022	954	2781	64
38	0	0	2010	958	2780	61
39	0	0	1998	960	2777	66
40	0	0	1976	958	2772	67
41	0	0	1974	962	2767	52
42	0	0	1992	960	2767	51
43	0	0	2001	962	2771	43
44	0	0	1994	964	2775	58
45	0	0	2003	963	2779	58
46	0	0	2023	962	2782	61
47	0	0	2050	963	2781	51
48	0	0	2049	962	2780	50
49	0	0	2071	959	2777	47
50	0	0	2077	960	2771	47
51	0	0	2065	958	2766	56
52	0	0	2069	956	2767	64
53	0	0	2084	957	2770	62
54	0	0	2092	957	2775	54
55	0	0	2081	956	2778	51
56	0	0	2072	956	2781	53
57	0	0	2054	955	2782	50
58	0	0	2030	957	2780	59
59	0	0	2003	956	2777	62
60	0	0	1989	960	2773	62
61	0	0	1988	961	2767	58
62	0	0	2000	962	2767	59
63	0	0	1992	960	2771	51
64	0	0	1993	959	2775	57
65	0	0	2028	962	2778	59
66	0	0	2068	961	2781	58
67	0	0	2058	960	2781	57
68	0	0	2044	961	2781	53
69	0	0	2059	959	2777	53
70	0	0	2081	959	2771	47
71	0	0	2096	958	2767	52
72	0	0	2101	957	2767	61
73	0	0	2102	957	2770	62
74	0	0	2089	954	2775	61
75	0	0	2063	953	2778	58
76	0	0	2022	953	2782	58
77	0	0	2001	956	2781	54
78	0	0	2004	957	2779	58
79	0	0	2008	959	2777	59
80	0	0	2002	958	2771	60
81	0	0	1980	958	2766	57
82	0	0	1976	960	2767	61
83	0	0	1990	963	2771	51
84	0	0	1994	959	2775	53
85	0	0	1992	962	2779	53
86	0	0	1991	964	2781	57
87	0	0	1998	959	2781	54
88	0	0	2012	961	2779	56
89	0	0	2031	959	2777	51
90	0	0	2039	958	2771	46
91	0	0	2046	958	2766	47
92	0	0	2052	957	2768	59
93	0	0	2065	956	2770	57
94	0	0	2074	956	2775	54
95	0	0	2049	949	2778	57
96	0	0	2010	952	2781	57
97	0	0	1982	954	2782	60
98	0	0	1996	957	2780	55
99	0	0	2035	958	2777	53
100	0	0	2054	958	2772	59
101	0	0	2041	958	2766	59
102	0	0	2021	959	2767	63
103	0	0	1993	958	2769	48
104	0	0	1952	958	2775	53
105	0	0	1933	962	2778	50
106	0	0	1955	961	2781	51
107	0	0	1986	960	2782	53
108	0	0	2007	959	2780	50
109	0	0	2017	960	2777	51
110	0	0	2043	960	2771	53
111	0	0	2068	957	2767	50
112	0	0	2075	956	2767	43
113	0	0	2076	954	2771	55
114	0	0	2067	954	2775	52
115	0	0	2057	955	2778	55
116	0	0	2057	955	2782	61
117	0	0	2055	955	2782	61
118	0	0	2015	952	2781	60
119	0	0	1944	954	2778	53
120	0	0	1894	955	2772	53
121	0	0	1879	958	2768	60
122	0	0	1897	960	2767	68
123	0	0	1939	961	2769	58
124	0	0	1951	961	2775	62
125	0	0	1961	961	2778	58
126	0	0	1979	961	2781	47
127	0	0	1991	961	2782	48
0	0	0	1984	960	2779	48
1	0	0	1972	956	2777	56
2	0	0	1963	958	2772	53
3	0	0	1968	957	2766	51
4	0	0	2008	953	2767	57
5	0	0	2044	955	2770	49
6	0	0	2013	943	2775	47
7	0	0	1965	951	2779	55
8	0	0	1945	955	2781	67
9	0	0	1937	955	2781	65
10	0	0	1920	954	2781	63
11	0	0	1905	957	2777	59
12	0	0	1907	957	2772	53
13	0	0	1916	959	2767	53
14	0	0	1918	959	2767	58
15	0	0	1935	960	2770	54
16	0	0	1961	960	2774	61
17	0	0	1972	961	2778	61
18	0	0	1978	961	2781	47
19	0	0	1981	960	2782	47
20	0	0	1952	957	2781	45
21	0	0	1954	957	2777	45
22	0	0	1987	958	2772	60
23	0	0	2023	956	2766	55
24	0	0	2045	955	2766	61
25	0	0	2028	952	2770	45
26	0	0	2002	952	2774	47
27	0	0	1969	950	2778	49
28	0	0	1927	952	2781	51
29	0	0	1900	953	2780	65
30	0	0	1898	956	2780	68
31	0	0	1901	960	2776	64
32	0	0	1901	954	2772	49
33	0	0	1888	957	2766	52
34	0	0	1883	961	2766	52
35	0	0	1887	959	2769	62
36	0	0	1910	962	2775	65
37	0	0	1944	961	2778	61
38	0	0	1974	962	2781	59
39	0	0	1999	960	2782	54
40	0	0	2034	958	2781	47
41	0	0	2033	953	2777	44
42	0	0	1987	954	2771	58
43	0	0	1966	956	2767	59
44	0	0	1966	954	2766	59
45	0	0	1980	954	2769	60
46	0	0	2017	954	2775	47
47	0	0	2046	953	2778	49
48	0	0	2023	951	2781	52
49	0	0	1975	950	2781	59
50	0	0	1929	952	2781	65
51	0	0	1898	952	2777	65
52	0	0	1888	957	2771	67
53	0	0	1871	955	2767	54
54	0	0	1853	957	2767	48
55	0	0	1855	959	2770	42
56	0	0	1892	960	2775	59
57	0	0	1940	960	2778	58
58	0	0	1973	959	2780	58
59	0	0	1975	960	2781	51
60	0	0	1959	958	2780	51
61	0	0	1958	956	2777	46
62	0	0	1975	957	2772	43
63	0	0	2005	956	2766	55
64	0	0	2026	956	2765	57
65	0	0	2020	954	2769	58
66	0	0	2008	952	2774	55
67	0	0	1991	952	2779	53
68	0	0	1973	954	2780	53
69	0	0	1956	951	2782	51
70	0	0	1921	952	2780	59
71	0	0	1883	952	2778	60
72	0	0	1862	955	2772	65
73	0	0	1864	961	2766	57
74	0	0	1873	960	2766	61
75	0	0	1884	960	2770	60
76	0	0	1899	960	2775	55
77	0	0	1920	960	2778	54
78	0	0	1946	959	2780	57
79	0	0	1964	961	2781	57
80	0	0	1976	959	2780	54
81	0	0	2006	958	2778	52
82	0	0	2049	957	2773	48
83	0	0	2073	956	2766	50
84	0	0	2064	952	2766	60
85	0	0	2013	949	2769	55
86	0	0	1988	953	2775	56
87	0	0	1984	952	2777	56
88	0	0	1971	951	2781	59
89	0	0	1945	949	2781	59
90	0	0	1906	951	2780	55
91	0	0	1875	953	2778	56
92	0	0	1875	957	2772	60
93	0	0	1897	957	2766	61
94	0	0	1896	958	2766	65
95	0	0	1878	957	2770	59
96	0	0	1861	958	2774	52
97	0	0	1859	959	2778	51
98	0	0	1875	959	2780	53
99	0	0	1902	959	2782	51
100	0	0	1934	959	2781	59
101	0	0	1989	957	2777	56
102	0	0	2036	956	2772	50
103	0	0	2067	956	2766	51
104	0	0	2049	952	2766	46
105	0	0	2001	950	2769	47
106	0	0	1972	951	2774	52
107	0	0	1967	952	2777	59
108	0	0	1966	952	2782	60
109	0	0	1953	952	2781	59
110	0	0	1920	951	2780	61
111	0	0	1873	952	2778	54
112	0	0	1843	953	2772	58
113	0	0	1831	958	2766	56
114	0	0	1849	958	2766	66
115	0	0	1871	958	2770	55
116	0	0	1891	958	2774	59
117	0	0	1898	959	2778	47
118	0	0	1875	956	2780	50
119	0	0	1864	958	2781	50
120	0	0	1875	958	2780	53
121	0	0	1910	957	2777	58
122	0	0	1951	956	2772	52
123	0	0	1987	955	2766	50
124	0	0	2028	954	2766	43
125	0	0	2066	952	2769	53
126	0	0	2046	949	2774	54
127	0	0	2016	949	2778	54
0	0	0	1977	949	2780	65
1	0	0	1941	949	2781	63
2	0	0	1894	949	2780	62
3	0	0	1864	953	2778	49
4	0	0	1869	955	2771	55
5	0	0	1865	956	2767	53
6	0	0	1871	958	2766	63
7	0	0	1870	957	2769	65
8	0	0	1873	958	2774	61
9	0	0	1889	960	2777	59
10	0	0	1922	958	2780	47
11	0	0	1961	958	2781	51
12	0	0	1990	958	2780	55
13	0	0	1996	957	2776	58
14	0	0	1993	955	2771	53
15	0	0	2002	955	2766	52
16	0	0	2016	954	2765	52
17	0	0	2027	953	2769	44
18	0	0	2017	949	2773	52
19	0	0	1998	949	2777	55
20	0	0	1978	949	2780	63
21	0	0	1966	952	2781	61
22	0	0	1968	954	2780	63
23	0	0	1981	952	2777	52
24	0	0	1985	955	2771	52
25	0	0	1973	953	2767	57
26	0	0	1944	955	2765	52
27	0	0	1928	957	2769	69
28	0	0	1933	959	2773	58
29	0	0	1976	958	2777	56
30	0	0	2034	958	2780	46
31	0	0	2073	957	2781	49
32	0	0	2083	956	2780	50
33	0	0	2060	954	2776	58
34	0	0	2033	953	2771	55
35	0	0	2032	954	2765	60
36	0	0	2029	952	2765	55
37	0	0	2014	951	2767	38
38	0	0	2005	951	2773	49
39	0	0	1999	950	2776	53
40	0	0	1994	952	2779	63
41	0	0	1972	950	2780	66
42	0	0	1954	951	2779	64
43	0	0	1953	954	2776	63
44	0	0	1959	955	2771	51
45	0	0	1970	956	2765	52
46	0	0	1977	955	2765	50
47	0	0	1971	955	2769	65
48	0	0	1958	959	2772	59
49	0	0	1963	958	2775	62
50	0	0	1984	957	2779	46
51	0	0	2010	956	2780	49
52	0	0	2034	956	2780	46
53	0	0	2060	956	2776	47
54	0	0	2072	951	2771	61
55	0	0	2073	953	2765	58
56	0	0	2060	953	2765	62
57	0	0	2062	952	2768	40
58	0	0	2053	950	2772	46
59	0	0	2046	951	2777	47
60	0	0	2026	948	2779	49
61	0	0	2012	953	2779	63
62	0	0	2007	953	2779	65
63	0	0	1989	952	2775	64
64	0	0	1976	952	2771	49
65	0	0	1946	952	2764	51
66	0	0	1900	955	2764	49
67	0	0	1889	955	2767	66
68	0	0	1912	957	2771	59
69	0	0	1950	957	2775	60
70	0	0	1972	957	2778	63
71	0	0	1967	955	2780	48
72	0	0	1977	956	2778	43
73	0	0	1983	956	2776	44
74	0	0	2000	954	2770	53
75	0	0	2033	953	2764	56
76	0	0	2064	951	2763	64
77	0	0	2101	951	2767	64
78	0	0	2099	948	2772	43
79	0	0	2052	947	2776	47
80	0	0	1998	947	2779	51
81	0	0	1970	949	2779	60
82	0	0	1967	952	2778	60
83	0	0	1970	952	2775	67
84	0	0	1963	954	2770	67
85	0	0	1952	955	2764	53
86	0	0	1940	955	2764	51
87	0	0	1954	956	2767	47
88	0	0	1972	956	2771	55
89	0	0	1996	957	2775	58
90	0	0	2027	957	2778	59
91	0	0	2049	955	2780	49
92	0	0	2055	956	2778	46
93	0	0	2063	956	2776	48
94	0	0	2081	953	2769	43
95	0	0	2111	953	2764	54
96	0	0	2136	950	2764	57
97	0	0	2133	953	2766	55
98	0	0	2119	949	2771	48
99	0	0	2099	948	2775	51
100	0	0	2078	947	2777	53
101	0	0	2045	949	2778	54
102	0	0	2039	952	2778	61
103	0	0	2054	953	2775	63
104	0	0	2055	953	2770	65
105	0	0	2017	951	2763	57
106	0	0	1978	952	2763	59
107	0	0	1964	955	2766	50
108	0	0	1954	956	2771	59
109	0	0	1973	959	2774	52
110	0	0	1994	957	2777	59
111	0	0	2010	955	2778	57
112	0	0	2040	955	2777	52
113	0	0	2068	957	2775	47
114	0	0	2071	953	2769	42
115	0	0	2062	953	2763	52
116	0	0	2057	950	2763	46
117	0	0	2051	949	2766	57
118	0	0	2038	949	2770	60
119	0	0	2039	949	2774	53
120	0	0	2044	949	2778	53
121	0	0	2052	950	2779	56
122	0	0	2055	951	2777	58
123	0	0	2042	950	2775	60
124	0	0	2011	951	2768	51
125	0	0	1991	951	2763	55
126	0	0	1975	954	2762	56
127	0	0	1984	957	2766	56
0	0	0	1998	958	2770	61
1	0	0	2016	956	2774	56
2	0	0	2037	958	2777	54
3	0	0	2057	956	2777	59
4	0	0	2049	955	2776	51
5	0	0	2054	955	2773	48
6	0	0	2088	953	2768	44
7	0	0	2117	951	2763	49
8	0	0	2125	951	2762	57
9	0	0	2131	950	2765	56
10	0	0	2126	949	2770	58
11	0	0	2127	950	2774	56
12	0	0	2123	950	2775	52
13	0	0	2101	946	2778	52
14	0	0	2061	947	2776	61
15	0	0	2008	948	2774	61
16	0	0	1985	950	2768	60
17	0	0	1970	952	2763	55
18	0	0	1957	953	2763	56
19	0	0	1966	955	2766	57
20	0	0	1977	955	2770	55
21	0	0	1992	955	2773	54
22	0	0	2027	951	2776	58
23	0	0	2082	954	2777	55
24	0	0	2107	953	2777	54
25	0	0	2121	953	2774	52
26	0	0	2135	952	2768	46
27	0	0	2140	953	2762	48
28	0	0	2148	951	2762	44
29	0	0	2163	949	2764	57
30	0	0	2168	948	2769	52
31	0	0	2155	950	2773	56
32	0	0	2154	948	2777	55
33	0	0	2150	949	2777	54
34	0	0	2112	947	2777	54
35	0	0	2049	946	2774	56
36	0	0	1996	949	2768	62
37	0	0	1961	947	2762	64
38	0	0	1956	955	2762	60
39	0	0	1987	954	2765	60
40	0	0	2029	955	2770	58
41	0	0	2067	955	2773	52
42	0	0	2117	954	2775	55
43	0	0	2131	955	2778	53
44	0	0	2135	954	2776	55
45	0	0	2135	954	2773	56
46	0	0	2136	951	2768	50
47	0	0	2147	947	2763	50
48	0	0	2169	951	2762	55
49	0	0	2181	949	2764	61
50	0	0	2173	948	2769	48
51	0	0	2178	948	2774	59
52	0	0	2178	949	2775	58
53	0	0	2127	946	2778	57
54	0	0	2072	946	2777	55
55	0	0	2042	950	2774	53
56	0	0	2048	951	2768	55
57	0	0	2061	952	2763	56
58	0	0	2089	953	2762	66
59	0	0	2130	954	2765	63
60	0	0	2147	954	2769	50
61	0	0	2153	955	2773	56
62	0	0	2144	955	2775	53
63	0	0	2134	954	2777	50
64	0	0	2143	953	2776	55
65	0	0	2164	952	2772	59
66	0	0	2184	954	2767	52
67	0	0	2202	949	2763	58
68	0	0	2221	950	2762	48
69	0	0	2234	949	2765	48
70	0	0	2214	946	2769	53
71	0	0	2189	946	2774	53
72	0	0	2157	948	2776	65
73	0	0	2128	947	2777	59
74	0	0	2127	950	2777	59
75	0	0	2144	950	2774	58
76	0	0	2163	952	2769	53
77	0	0	2161	954	2764	55
78	0	0	2140	951	2763	53
79	0	0	2132	954	2766	59
80	0	0	2128	952	2768	61
81	0	0	2139	955	2774	56
82	0	0	2165	952	2777	49
83	0	0	2186	954	2778	48
84	0	0	2208	953	2777	49
85	0	0	2240	952	2774	51
86	0	0	2258	951	2769	57
87	0	0	2268	951	2762	55
88	0	0	2279	948	2762	56
89	0	0	2242	944	2765	41
90	0	0	2222	948	2768	47
91	0	0	2222	946	2773	53
92	0	0	2227	948	2776	54
93	0	0	2225	946	2777	66
94	0	0	2234	948	2777	64
95	0	0	2208	947	2773	62
96	0	0	2190	952	2769	53
97	0	0	2167	947	2764	55
98	0	0	2152	954	2762	58
99	0	0	2166	953	2765	64
100	0	0	2178	954	2770	65
101	0	0	2190	955	2773	61
102	0	0	2205	954	2776	58
103	0	0	2226	955	2778	51
104	0	0	2221	952	2777	43
105	0	0	2224	951	2774	49
106	0	0	2242	950	2768	58
107	0	0	2277	948	2763	57
108	0	0	2279	948	2761	63
109	0	0	2254	945	2764	47
110	0	0	2236	948	2767	49
111	0	0	2236	949	2772	52
112	0	0	2243	945	2775	59
113	0	0	2236	947	2776	67
114	0	0	2230	949	2775	64
115	0	0	2215	949	2771	61
116	0	0	2190	947	2767	53
117	0	0	2173	950	2761	52
118	0	0	2162	953	2759	47
119	0	0	2160	952	2762	64
120	0	0	2167	955	2766	55
121	0	0	2192	953	2771	61
122	0	0	2212	954	2774	58
123	0	0	2230	953	2774	47
124	0	0	2262	952	2774	45
125	0	0	2283	952	2770	43
126	0	0	2295	948	2766	61
127	0	0	2305	949	2760	59
0	0	0	2307	950	2759	63
1	0	0	2304	947	2763	59
2	0	0	2305	947	2768	50
3	0	0	2305	947	2771	50
4	0	0	2274	943	2775	51
5	0	0	2236	946	2776	67
6	0	0	2219	948	2775	64
7	0	0	2213	949	2773	62
8	0	0	2196	950	2766	59
9	0	0	2188	949	2761	49
10	0	0	2168	951	2760	48
11	0	0	2159	954	2763	56
12	0	0	2167	953	2767	69
13	0	0	2195	953	2771	60
14	0	0	2236	954	2774	59
15	0	0	2262	953	2776	46
16	0	0	2297	952	2775	48
17	0	0	2332	952	2771	43
18	0	0	2335	948	2767	47
19	0	0	2334	949	2760	56
20	0	0	2319	947	2759	57
21	0	0	2309	947	2762	64
22	0	0	2302	947	2766	43
23	0	0	2295	946	2770	47
24	0	0	2278	946	2774	49
25	0	0	2268	946	2774	53
26	0	0	2236	944	2775	64
27	0	0	2198	947	2772	66
28	0	0	2177	948	2767	62
29	0	0	2163	950	2761	47
30	0	0	2162	949	2760	53
31	0	0	2165	952	2762	52
32	0	0	2176	953	2766	62
33	0	0	2206	952	2770	62
34	0	0	2240	953	2773	62
35	0	0	2258	953	2774	61
36	0	0	2256	952	2774	44
37	0	0	2254	951	2771	44
38	0	0	2269	950	2766	45
39	0	0	2293	947	2760	60
40	0	0	2311	947	2759	65
41	0	0	2322	947	2762	56
42	0	0	2316	945	2766	51
43	0	0	2304	945	2771	47
44	0	0	2292	946	2773	48
45	0	0	2257	944	2775	52
46	0	0	2226	946	2775	62
47	0	0	2209	948	2771	62
48	0	0	2202	949	2766	64
49	0	0	2205	949	2762	50
50	0	0	2204	951	2760	48
51	0	0	2195	951	2762	48
52	0	0	2179	952	2767	51
53	0	0	2183	952	2770	64
54	0	0	2222	951	2774	61
55	0	0	2262	951	2775	57
56	0	0	2270	952	2775	47
57	0	0	2254	949	2771	44
58	0	0	2245	949	2766	45
59	0	0	2244	946	2761	44
60	0	0	2236	947	2760	51
61	0	0	2242	946	2761	60
62	0	0	2266	943	2767	61
63	0	0	2270	945	2770	48
64	0	0	2247	944	2773	55
65	0	0	2227	946	2774	52
66	0	0	2208	947	2774	50
67	0	0	2204	948	2771	63
68	0	0	2181	947	2766	65
69	0	0	2168	950	2760	68
70	0	0	2175	953	2760	59
71	0	0	2208	951	2762	48
72	0	0	2232	951	2766	50
73	0	0	2220	951	2770	57
74	0	0	2200	951	2773	55
75	0	0	2202	953	2775	58
76	0	0	2222	951	2774	57
77	0	0	2264	950	2771	47
78	0	0	2289	950	2767	46
79	0	0	2283	948	2760	42
80	0	0	2286	948	2760	57
81	0	0	2285	945	2762	58
82	0	0	2302	944	2766	57
83	0	0	2316	945	2770	63
84	0	0	2299	942	2774	54
85	0	0	2258	944	2775	55
86	0	0	2204	944	2775	50
87	0	0	2162	944	2772	61
88	0	0	2133	946	2767	64
89	0	0	2118	949	2761	61
90	0	0	2129	951	2760	58
91	0	0	2140	951	2764	60
92	0	0	2134	951	2766	47
93	0	0	2132	952	2772	48
94	0	0	2146	951	2775	57
95	0	0	2184	953	2776	57
96	0	0	2210	951	2775	60
97	0	0	2216	950	2772	49
98	0	0	2223	949	2767	43
99	0	0	2250	946	2762	42
100	0	0	2267	946	2760	56
101	0	0	2280	944	2762	59
102	0	0	2282	945	2766	64
103	0	0	2280	945	2771	61
104	0	0	2245	941	2774	51
105	0	0	2216	944	2776	48
106	0	0	2196	946	2775	55
107	0	0	2184	947	2772	62
108	0	0	2174	948	2766	62
109	0	0	2166	949	2761	62
110	0	0	2159	950	2760	49
111	0	0	2160	950	2762	59
112	0	0	2167	951	2766	47
113	0	0	2156	950	2770	48
114	0	0	2142	952	2773	56
115	0	0	2151	951	2775	56
116	0	0	2176	951	2774	59
117	0	0	2211	949	2772	52
118	0	0	2227	948	2766	48
119	0	0	2220	947	2760	46
120	0	0	2193	944	2759	36
121	0	0	2151	943	2762	47
122	0	0	2132	944	2767	49
123	0	0	2138	944	2770	58
124	0	0	2154	944	2773	57
125	0	0	2116	942	2775	54
126	0	0	2075	944	2774	55
127	0	0	2052	944	2771	56
0	0	0	2036	948	2767	59
1	0	0	2041	948	2760	62
2	0	0	2052	951	2759	62
3	0	0	2048	950	2762	53
4	0	0	2062	951	2766	61
5	0	0	2091	951	2770	51
6	0	0	2120	952	2773	54
7	0	0	2115	948	2775	55
8	0	0	2086	948	2774	51
9	0	0	2086	950	2771	53
10	0	0	2115	948	2768	50
11	0	0	2154	946	2761	53
12	0	0	2183	945	2759	47
13	0	0	2204	945	2762	46
14	0	0	2208	943	2768	48
15	0	0	2201	943	2771	55
16	0	0	2181	943	2773	61
17	0	0	2152	943	2775	58
18	0	0	2127	943	2775	59
19	0	0	2091	943	2772	59
20	0	0	2076	947	2767	58
21	0	0	2073	948	2761	60
22	0	0	2068	948	2760	63
23	0	0	2065	949	2763	66
24	0	0	2086	950	2767	61
25	0	0	2104	950	2771	57
26	0	0	2114	950	2774	55
27	0	0	2120	950	2775	53
28	0	0	2134	950	2774	48
29	0	0	2142	950	2772	52
30	0	0	2142	948	2766	55
31	0	0	2145	946	2761	57
32	0	0	2162	944	2760	43
33	0	0	2185	945	2762	53
34	0	0	2197	944	2767	48
35	0	0	2192	944	2770	54
36	0	0	2165	941	2773	57
37	0	0	2130	939	2775	60
38	0	0	2099	943	2774	59
39	0	0	2069	943	2772	57
40	0	0	2055	946	2768	55
41	0	0	2051	948	2760	55
42	0	0	2062	948	2760	54
43	0	0	2087	950	2762	51
44	0	0	2096	950	2767	64
45	0	0	2096	950	2771	59
46	0	0	2102	950	2774	58
47	0	0	2106	949	2776	46
48	0	0	2091	949	2775	48
49	0	0	2092	948	2773	46
50	0	0	2119	948	2767	49
51	0	0	2169	947	2761	59
52	0	0	2190	944	2759	55
53	0	0	2193	945	2762	55
54	0	0	2175	943	2767	52
55	0	0	2165	943	2772	48
56	0	0	2151	942	2774	52
57	0	0	2112	940	2775	56
58	0	0	2076	941	2775	64
59	0	0	2055	943	2773	63
60	0	0	2032	944	2767	62
61	0	0	2014	946	2761	50
62	0	0	2012	947	2759	47
63	0	0	2017	949	2762	48
64	0	0	2027	950	2766	59
65	0	0	2052	948	2770	60
66	0	0	2067	949	2774	58
67	0	0	2100	947	2775	56
68	0	0	2126	949	2775	41
69	0	0	2144	948	2771	44
70	0	0	2155	947	2768	45
71	0	0	2159	947	2761	59
72	0	0	2157	941	2759	65
73	0	0	2165	944	2762	64
74	0	0	2171	943	2766	52
75	0	0	2160	943	2771	47
76	0	0	2142	942	2773	49
77	0	0	2125	941	2775	52
78	0	0	2105	943	2775	64
79	0	0	2087	943	2773	66
80	0	0	2081	947	2768	65
81	0	0	2081	947	2763	49
82	0	0	2076	948	2760	52
83	0	0	2056	947	2763	60
84	0	0	2034	946	2766	57
85	0	0	2013	950	2770	61
86	0	0	2029	949	2773	59
87	0	0	2084	946	2776	58
88	0	0	2111	948	2775	47
89	0	0	2129	948	2773	48
90	0	0	2151	945	2768	47
91	0	0	2195	945	2762	63
92	0	0	2224	942	2759	52
93	0	0	2210	943	2763	56
94	0	0	2192	942	2767	50
95	0	0	2189	943	2772	50
96	0	0	2204	941	2774	50
97	0	0	2217	940	2776	51
98	0	0	2224	944	2775	67
99	0	0	2246	945	2772	65
100	0	0	2288	946	2767	66
101	0	0	2300	947	2762	49
102	0	0	2285	950	2761	55
103	0	0	2291	949	2763	55
104	0	0	2322	951	2768	53
105	0	0	2351	947	2770	61
106	0	0	2390	949	2774	63
107	0	0	2421	946	2775	58
108	0	0	2439	948	2775	50
109	0	0	2448	947	2772	48
110	0	0	2457	944	2768	43
111	0	0	2461	945	2761	45
112	0	0	2470	943	2760	65
113	0	0	2476	940	2763	65
114	0	0	2468	942	2766	53
115	0	0	2454	944	2770	49
116	0	0	2442	942	2774	48
117	0	0	2421	943	2776	50
118	0	0	2384	940	2776	56
119	0	0	2343	941	2773	64
120	0	0	2290	941	2768	63
121	0	0	2251	943	2763	65
122	0	0	2220	945	2761	45
123	0	0	2187	944	2763	51
124	0	0	2171	948	2767	43
125	0	0	2168	948	2771	58
126	0	0	2160	951	2774	56
127	0	0	2146	946	2775	60
0	0	0	2134	948	2775	60
1	0	0	2128	946	2772	48
2	0	0	2124	947	2767	45
3	0	0	2131	945	2761	47
4	0	0	2126	945	2759	57
5	0	0	2099	941	2763	64
6	0	0	2082	942	2765	66
7	0	0	2072	943	2770	60
8	0	0	2058	941	2772	51
9	0	0	2049	943	2775	51
10	0	0	2033	943	2775	55
11	0	0	2032	944	2772	60
12	0	0	2008	942	2767	61
13	0	0	2004	945	2762	63
14	0	0	2031	945	2759	60
15	0	0	2048	946	2762	59
16	0	0	2052	947	2766	54
17	0	0	2036	948	2771	50
18	0	0	2039	947	2774	57
19	0	0	2056	947	2775	59
20	0	0	2059	947	2775	59
21	0	0	2053	946	2772	54
22	0	0	2067	947	2767	48
23	0	0	2106	944	2763	43
24	0	0	2117	944	2760	47
25	0	0	2119	943	2762	56
26	0	0	2109	941	2766	56
27	0	0	2106	940	2770	61
28	0	0	2077	938	2773	53
29	0	0	2052	939	2775	57
30	0	0	2030	939	2775	60
31	0	0	2001	941	2772	54
32	0	0	1992	944	2769	62
33	0	0	1977	940	2761	61
34	0	0	1951	944	2759	67
35	0	0	1965	946	2763	51
36	0	0	1990	947	2766	59
37	0	0	2014	949	2770	52
38	0	0	2036	947	2774	54
39	0	0	2040	947	2776	52
40	0	0	2054	948	2776	55
41	0	0	2037	945	2772	53
42	0	0	2035	945	2768	48
43	0	0	2069	943	2763	50
44	0	0	2103	942	2760	54
45	0	0	2141	942	2763	55
46	0	0	2142	942	2766	54
47	0	0	2116	937	2771	58
48	0	0	2099	941	2773	59
49	0	0	2090	938	2776	59
50	0	0	2064	940	2776	58
51	0	0	2046	942	2773	60
52	0	0	2046	942	2768	56
53	0	0	2049	944	2763	56
54	0	0	2012	943	2761	54
55	0	0	1966	944	2763	67
56	0	0	1952	947	2767	68
57	0	0	1954	947	2771	56
58	0	0	1967	947	2773	51
59	0	0	1992	944	2776	51
60	0	0	2040	947	2776	54
61	0	0	2076	945	2772	54
62	0	0	2101	944	2768	57
63	0	0	2121	943	2761	49
64	0	0	2132	942	2760	58
65	0	0	2152	941	2762	60
66	0	0	2144	941	2766	54
67	0	0	2133	940	2771	43
68	0	0	2129	941	2774	50
69	0	0	2103	936	2776	49
70	0	0	2069	938	2776	54
71	0	0	2043	940	2772	65
72	0	0	2039	942	2768	64
73	0	0	2054	945	2763	64
74	0	0	2046	945	2761	48
75	0	0	2027	945	2763	45
76	0	0	2013	945	2767	50
77	0	0	2010	948	2771	57
78	0	0	2006	946	2774	61
79	0	0	2020	947	2776	62
80	0	0	2069	946	2776	63
81	0	0	2096	944	2773	51
82	0	0	2114	944	2769	46
83	0	0	2116	945	2763	41
84	0	0	2108	940	2760	47
85	0	0	2101	941	2763	55
86	0	0	2089	937	2766	53
87	0	0	2076	940	2770	60
88	0	0	2067	940	2774	54
89	0	0	2058	941	2776	56
90	0	0	2050	942	2776	52
91	0	0	2045	942	2773	57
92	0	0	2051	943	2768	63
93	0	0	2045	941	2763	60
94	0	0	2003	942	2760	52
95	0	0	1985	944	2763	47
96	0	0	2002	943	2766	55
97	0	0	2028	946	2771	50
98	0	0	2055	946	2774	51
99	0	0	2072	946	2777	55
100	0	0	2085	946	2775	54
101	0	0	2108	945	2774	52
102	0	0	2125	944	2768	49
103	0	0	2131	943	2762	46
104	0	0	2132	939	2760	45
105	0	0	2139	940	2763	48
106	0	0	2149	939	2766	47
107	0	0	2143	940	2771	60
108	0	0	2123	937	2774	59
109	0	0	2090	936	2776	62
110	0	0	2036	937	2776	59
111	0	0	2000	940	2773	59
112	0	0	1991	943	2768	57
113	0	0	1984	944	2762	56
114	0	0	1984	945	2760	70
115	0	0	1995	945	2763	64
116	0	0	2009	945	2767	51
117	0	0	2017	946	2771	55
118	0	0	2008	945	2774	47
119	0	0	2009	944	2776	55
120	0	0	2014	945	2776	51
121	0	0	2031	944	2773	53
122	0	0	2060	944	2768	52
123	0	0	2077	942	2763	50
124	0	0	2095	940	2760	54
125	0	0	2122	941	2763	48
126	0	0	2125	939	2766	47
127	0	0	2113	939	2771	56
0	0	0	2097	939	2774	59
1	0	0	2089	939	2776	63
2	0	0	2085	941	2776	61
3	0	0	2057	938	2773	58
4	0	0	2014	939	2769	54
5	0	0	1988	944	2763	57
6	0	0	2002	944	2761	58
7	0	0	2025	943	2763	64
8	0	0	2046	947	2766	58
9	0	0	2058	945	2771	58
10	0	0	2081	945	2774	54
11	0	0	2114	943	2776	47
12	0	0	2129	944	2776	50
13	0	0	2127	943	2773	54
14	0	0	2139	942	2769	57
15	0	0	2143	940	2763	57
16	0	0	2102	938	2760	57
17	0	0	2073	938	2763	57
18	0	0	2069	939	2766	41
19	0	0	2088	938	2772	49
20	0	0	2098	940	2774	56
21	0	0	2068	939	2776	64
22	0	0	2015	936	2776	64
23	0	0	1972	938	2772	68
24	0	0	1962	943	2770	57
25	0	0	1969	940	2763	51
26	0	0	1963	946	2761	49
27	0	0	1955	944	2763	56
28	0	0	1957	946	2767	58
29	0	0	1966	944	2772	62
30	0	0	1999	946	2775	64
31	0	0	2037	945	2776	48
32	0	0	2068	944	2776	45
33	0	0	2101	943	2773	45
34	0	0	2116	943	2768	48
35	0	0	2113	941	2762	59
36	0	0	2108	938	2760	51
37	0	0	2107	939	2762	57
38	0	0	2107	938	2767	36
39	0	0	2088	936	2770	48
40	0	0	2075	940	2774	49
41	0	0	2069	938	2776	55
42	0	0	2049	938	2776	65
43	0	0	2037	940	2774	65
44	0	0	2028	941	2769	62
45	0	0	2025	942	2763	48
46	0	0	2018	944	2761	53
47	0	0	2024	943	2763	39
48	0	0	2033	944	2767	72
49	0	0	2044	944	2771	62
50	0	0	2048	945	2774	63
51	0	0	2060	943	2776	59
52	0	0	2075	943	2777	47
53	0	0	2100	943	2774	48
54	0	0	2130	942	2769	45
55	0	0	2147	941	2763	47
56	0	0	2147	935	2760	53
57	0	0	2134	937	2763	63
58	0	0	2115	937	2768	56
59	0	0	2095	937	2771	50
60	0	0	2085	939	2775	49
61	0	0	2075	938	2777	53
62	0	0	2058	939	2776	52
63	0	0	2051	941	2775	63
64	0	0	2065	941	2769	63
65	0	0	2090	942	2763	64
66	0	0	2069	939	2761	52
67	0	0	2044	943	2763	47
68	0	0	2052	945	2767	48
69	0	0	2057	943	2771	58
70	0	0	2067	944	2774	57
71	0	0	2107	943	2776	59
72	0	0	2121	944	2777	59
73	0	0	2092	940	2774	52
74	0	0	2076	941	2769	44
75	0	0	2082	940	2763	39
76	0	0	2110	939	2761	50
77	0	0	2132	937	2763	65
78	0	0	2139	938	2767	50
79	0	0	2115	935	2771	64
80	0	0	2077	933	2775	55
81	0	0	2052	935	2777	54
82	0	0	2037	938	2777	54
83	0	0	2041	939	2775	60
84	0	0	2043	940	2770	61
85	0	0	2045	941	2764	60
86	0	0	2063	942	2762	61
87	0	0	2085	944	2764	55
88	0	0	2105	944	2767	44
89	0	0	2106	944	2772	52
90	0	0	2110	942	2775	54
91	0	0	2103	944	2777	54
92	0	0	2087	942	2777	58
93	0	0	2081	943	2774	55
94	0	0	2111	942	2770	50
95	0	0	2150	938	2764	47
96	0	0	2159	938	2761	39
97	0	0	2140	936	2764	47
98	0	0	2128	937	2767	52
99	0	0	2147	936	2772	57
100	0	0	2157	939	2776	54
101	0	0	2131	935	2777	59
102	0	0	2092	935	2778	56
103	0	0	2050	936	2775	53
104	0	0	2037	940	2770	59
105	0	0	2031	941	2764	57
106	0	0	2015	941	2761	58
107	0	0	2013	943	2764	55
108	0	0	2032	943	2767	54
109	0	0	2063	943	2772	54
110	0	0	2093	943	2775	52
111	0	0	2102	943	2777	56
112	0	0	2113	942	2777	55
113	0	0	2131	942	2775	56
114	0	0	2151	943	2771	51
115	0	0	2166	936	2764	52
116	0	0	2172	938	2762	52
117	0	0	2169	939	2765	49
118	0	0	2154	938	2767	52
119	0	0	2132	933	2772	56
120	0	0	2119	937	2775	55
121	0	0	2109	935	2777	63
122	0	0	2094	938	2777	62
123	0	0	2077	937	2775	60
124	0	0	2051	938	2770	57
125	0	0	2043	941	2764	56
126	0	0	2046	941	2761	60
127	0	0	2033	940	2764	57
0	0	0	2005	943	2767	59
1	0	0	2009	943	2772	55
2	0	0	2020	943	2776	52
3	0	0	2038	943	2778	47
4	0	0	2050	943	2776	50
5	0	0	2058	942	2775	54
6	0	0	2059	941	2770	54
7	0	0	2064	940	2764	52
8	0	0	2107	938	2761	52
9	0	0	2152	938	2764	55
10	0	0	2155	936	2767	47
11	0	0	2119	935	2772	52
12	0	0	2075	934	2775	52
13	0	0	2035	932	2777	67
14	0	0	1992	935	2778	64
15	0	0	1959	936	2774	63
16	0	0	1956	939	2771	60
17	0	0	1972	940	2766	53
18	0	0	1988	940	2763	56
19	0	0	1986	943	2765	54
20	0	0	1980	942	2769	70
21	0	0	1995	942	2772	62
22	0	0	2013	944	2776	56
23	0	0	2008	942	2777	47
24	0	0	2001	944	2777	47
25	0	0	2000	943	2774	47
26	0	0	2017	939	2770	48
27	0	0	2045	939	2763	57
28	0	0	2053	938	2761	55
29	0	0	2048	938	2764	62
30	0	0	2044	937	2767	43
31	0	0	2033	934	2771	47
32	0	0	2009	933	2775	50
33	0	0	1978	934	2777	53
34	0	0	1964	937	2778	65
35	0	0	1956	938	2774	63
36	0	0	1958	941	2771	60
37	0	0	1938	937	2765	50
38	0	0	1915	938	2762	43
39	0	0	1908	941	2764	44
40	0	0	1913	942	2767	57
41	0	0	1920	942	2772	59
42	0	0	1940	944	2776	62
43	0	0	1965	940	2777	61
44	0	0	1984	941	2777	44
45	0	0	1995	941	2775	43
46	0	0	1997	939	2770	42
47	0	0	2004	939	2765	57
48	0	0	2019	937	2762	63
49	0	0	2002	935	2764	66
50	0	0	1995	936	2767	63
51	0	0	1992	935	2772	47
52	0	0	1992	935	2775	47
53	0	0	1997	938	2777	47
54	0	0	1971	933	2777	64
55	0	0	1940	933	2774	59
56	0	0	1928	939	2771	64
57	0	0	1932	940	2764	56
58	0	0	1939	939	2761	53
59	0	0	1935	942	2764	45
60	0	0	1912	936	2767	55
61	0	0	1890	939	2771	60
62	0	0	1886	942	2775	59
63	0	0	1913	942	2777	63
64	0	0	1940	938	2777	47
65	0	0	1979	942	2775	41
66	0	0	2006	939	2770	41
67	0	0	2014	937	2764	41
68	0	0	2023	936	2761	51
69	0	0	2034	935	2763	66
70	0	0	2036	937	2767	55
71	0	0	2030	935	2771	47
72	0	0	2022	934	2775	50
73	0	0	1998	932	2777	55
74	0	0	1965	934	2778	49
75	0	0	1968	938	2774	57
76	0	0	1956	936	2770	64
77	0	0	1928	937	2764	67
78	0	0	1927	942	2761	55
79	0	0	1930	942	2764	45
80	0	0	1942	942	2767	51
81	0	0	1955	941	2771	55
82	0	0	1960	940	2776	59
83	0	0	1976	940	2777	61
84	0	0	1992	940	2778	59
85	0	0	2006	939	2775	48
86	0	0	2004	939	2770	43
87	0	0	2006	938	2765	46
88	0	0	2028	937	2763	53
89	0	0	2041	935	2764	50
90	0	0	2041	935	2769	52
91	0	0	2013	930	2772	58
92	0	0	1989	933	2776	53
93	0	0	1968	935	2778	55
94	0	0	1938	935	2778	52
95	0	0	1926	937	2776	57
96	0	0	1913	937	2772	59
97	0	0	1903	941	2765	64
98	0	0	1902	939	2763	61
99	0	0	1906	940	2765	50
100	0	0	1906	941	2769	57
101	0	0	1907	941	2772	54
102	0	0	1918	941	2776	50
103	0	0	1929	939	2778	52
104	0	0	1949	938	2778	53
105	0	0	1972	939	2775	56
106	0	0	1978	938	2770	50
107	0	0	2001	938	2765	52
108	0	0	2032	937	2761	49
109	0	0	2062	935	2764	48
110	0	0	2085	935	2767	56
111	0	0	2128	935	2772	55
112	0	0	2118	930	2774	63
113	0	0	2054	931	2776	57
114	0	0	1993	932	2778	61
115	0	0	1968	936	2775	56
116	0	0	1963	937	2770	59
117	0	0	1938	935	2765	59
118	0	0	1922	940	2762	60
119	0	0	1920	939	2764	60
120	0	0	1905	939	2768	63
121	0	0	1900	940	2771	54
122	0	0	1914	940	2775	45
123	0	0	1939	940	2776	48
124	0	0	1983	940	2777	51
125	0	0	2000	939	2775	50
126	0	0	1981	938	2772	55
127	0	0	1990	940	2765	52
0	0	0	2016	936	2761	52
1	0	0	2033	937	2764	44
2	0	0	2043	934	2767	44
3	0	0	2047	933	2772	50
4	0	0	2026	931	2775	55
5	0	0	1990	933	2777	64
6	0	0	1949	931	2777	64
7	0	0	1926	935	2775	62
8	0	0	1930	936	2772	49
9	0	0	1925	936	2765	51
10	0	0	1913	940	2762	52
11	0	0	1902	941	2764	58
12	0	0	1915	940	2769	69
13	0	0	1921	940	2771	62
14	0	0	1945	940	2776	56
15	0	0	1990	943	2779	46
16	0	0	2000	938	2778	48
17	0	0	2011	938	2775	44
18	0	0	2035	935	2772	56
19	0	0	2051	935	2765	60
20	0	0	2061	938	2762	62
21	0	0	2064	934	2764	62
22	0	0	2065	934	2768	47
23	0	0	2064	931	2773	48
24	0	0	2058	932	2776	51
25	0	0	2036	931	2778	65
26	0	0	2009	932	2778	67
27	0	0	1990	934	2777	64
28	0	0	1978	937	2772	51
29	0	0	1982	938	2766	48
30	0	0	1980	938	2762	52
31	0	0	1981	942	2765	64
32	0	0	1995	939	2768	69
33	0	0	2011	941	2774	60
34	0	0	2025	940	2777	64
35	0	0	2037	940	2778	47
36	0	0	2037	939	2779	46
37	0	0	2044	938	2776	49
38	0	0	2048	936	2773	56
39	0	0	2053	937	2766	57
40	0	0	2044	935	2764	62
41	0	0	2041	934	2765	53
42	0	0	2057	933	2769	46
43	0	0	2068	932	2773	48
44	0	0	2062	931	2777	50
45	0	0	2044	933	2779	69
46	0	0	2039	937	2779	65
47	0	0	2037	936	2776	65
48	0	0	2019	933	2773	64
49	0	0	1984	935	2767	51
50	0	0	1971	939	2763	52
51	0	0	1971	939	2766	38
52	0	0	1980	940	2768	55
53	0	0	2006	939	2774	61
54	0	0	2032	939	2776	58
55	0	0	2036	939	2779	47
56	0	0	2045	939	2779	48
57	0	0	2069	936	2776	47
58	0	0	2088	936	2772	49
59	0	0	2108	937	2766	58
60	0	0	2094	935	2763	61
61	0	0	2089	937	2764	67
62	0	0	2106	934	2769	43
63	0	0	2131	934	2773	49
64	0	0	2133	931	2776	48
65	0	0	2089	930	2778	50
66	0	0	2033	931	2778	66
67	0	0	1985	932	2776	67
68	0	0	1969	936	2772	63
69	0	0	1976	937	2767	50
70	0	0	1989	937	2764	47
71	0	0	1987	941	2765	45
72	0	0	1982	938	2768	52
73	0	0	1986	938	2773	56
74	0	0	2018	940	2777	57
75	0	0	2046	940	2778	59
76	0	0	2066	939	2779	49
77	0	0	2075	938	2776	48
78	0	0	2081	935	2773	44
79	0	0	2086	936	2767	55
80	0	0	2110	934	2764	59
81	0	0	2146	935	2765	59
82	0	0	2161	933	2767	56
83	0	0	2146	927	2773	50
84	0	0	2104	930	2777	48
85	0	0	2049	929	2779	54
86	0	0	1995	929	2780	60
87	0	0	1966	932	2776	59
88	0	0	1954	935	2772	64
89	0	0	1968	937	2766	56
90	0	0	2003	938	2764	52
91	0	0	2036	938	2766	60
92	0	0	2038	938	2769	48
93	0	0	2026	939	2773	59
94	0	0	2014	939	2777	58
95	0	0	2021	939	2779	58
96	0	0	2052	936	2779	54
97	0	0	2082	938	2778	53
98	0	0	2094	939	2772	46
99	0	0	2097	936	2767	47
100	0	0	2099	934	2764	54
101	0	0	2112	933	2766	52
102	0	0	2108	932	2769	61
103	0	0	2088	931	2773	53
104	0	0	2063	930	2777	61
105	0	0	2050	934	2780	59
106	0	0	2040	935	2780	57
107	0	0	2039	934	2777	61
108	0	0	2048	935	2773	59
109	0	0	2030	935	2767	62
110	0	0	2012	938	2764	55
111	0	0	2009	937	2766	59
112	0	0	2007	938	2770	49
113	0	0	2003	939	2773	52
114	0	0	2032	938	2777	56
115	0	0	2052	938	2780	55
116	0	0	2053	938	2779	55
117	0	0	2063	936	2777	55
118	0	0	2076	936	2774	53
119	0	0	2087	935	2767	47
120	0	0	2103	933	2764	48
121	0	0	2115	932	2765	56
122	0	0	2122	931	2769	51
123	0	0	2113	931	2773	55
124	0	0	2085	928	2777	59
125	0	0	2051	930	2780	61
126	0	0	2012	928	2780	57
127	0	0	1976	932	2778	56
0	0	0	1957	931	2773	57
1	0	0	1953	936	2767	59
2	0	0	1984	936	2764	64
3	0	0	2030	937	2766	49
4	0	0	2066	938	2769	58
5	0	0	2064	935	2774	55
6	0	0	2038	936	2777	53
7	0	0	2034	938	2780	51
8	0	0	2038	937	2780	51
9	0	0	2045	936	2777	59
10	0	0	2060	936	2773	54
11	0	0	2089	935	2767	47
12	0	0	2125	934	2764	46
13	0	0	2133	932	2764	47
14	0	0	2122	933	2768	51
15	0	0	2110	931	2773	56
16	0	0	2084	928	2777	58
17	0	0	2035	930	2779	55
18	0	0	2009	930	2779	56
19	0	0	2004	934	2777	58
20	0	0	2007	934	2773	58
21	0	0	1995	934	2768	59
22	0	0	1985	936	2764	57
23	0	0	1986	936	2764	66
24	0	0	1989	944	2769	48
25	0	0	2015	937	2773	57
26	0	0	2054	936	2777	53
27	0	0	2076	939	2779	49
28	0	0	2073	936	2779	53
29	0	0	2075	939	2776	57
30	0	0	2095	935	2773	54
31	0	0	2122	934	2767	50
32	0	0	2158	932	2764	49
33	0	0	2169	931	2766	56
34	0	0	2145	930	2769	56
35	0	0	2128	929	2774	54
36	0	0	2110	929	2777	66
37	0	0	2080	929	2779	60
38	0	0	2059	931	2780	60
39	0	0	2056	933	2777	58
40	0	0	2039	930	2774	53
41	0	0	2011	933	2768	55
42	0	0	2004	935	2764	59
43	0	0	2020	935	2766	65
44	0	0	2028	936	2769	56
45	0	0	2030	937	2774	63
46	0	0	2057	937	2777	48
47	0	0	2090	936	2780	49
48	0	0	2100	936	2779	50
49	0	0	2095	935	2777	51
50	0	0	2085	933	2773	59
51	0	0	2081	933	2768	55
52	0	0	2081	933	2764	54
53	0	0	2071	933	2765	43
54	0	0	2074	929	2768	44
55	0	0	2071	930	2774	52
56	0	0	2053	929	2776	56
57	0	0	2046	931	2779	67
58	0	0	2042	932	2779	63
59	0	0	2032	932	2777	62
60	0	0	2021	933	2773	49
61	0	0	2016	933	2767	53
62	0	0	2015	936	2764	53
63	0	0	2006	935	2765	65
64	0	0	1998	936	2770	65
65	0	0	2001	937	2774	61
66	0	0	2011	935	2777	61
67	0	0	2028	937	2780	46
68	0	0	2053	935	2779	47
69	0	0	2081	934	2777	52
70	0	0	2097	934	2774	59
71	0	0	2109	933	2766	56
72	0	0	2114	932	2764	58
73	0	0	2101	930	2765	53
74	0	0	2086	931	2768	43
75	0	0	2077	929	2775	52
76	0	0	2077	927	2777	48
77	0	0	2080	930	2778	66
78	0	0	2074	931	2779	65
79	0	0	2064	932	2777	64
80	0	0	2038	930	2773	63
81	0	0	2011	933	2768	50
82	0	0	2013	936	2765	49
83	0	0	2020	935	2766	54
84	0	0	2019	936	2770	60
85	0	0	2021	933	2774	64
86	0	0	2032	937	2777	62
87	0	0	2046	935	2780	48
88	0	0	2061	935	2780	45
89	0	0	2090	936	2777	45
90	0	0	2094	932	2774	42
91	0	0	2089	933	2767	57
92	0	0	2084	931	2765	58
93	0	0	2096	931	2764	51
94	0	0	2106	930	2767	45
95	0	0	2105	929	2774	49
96	0	0	2097	928	2777	49
97	0	0	2059	927	2780	50
98	0	0	2017	927	2779	66
99	0	0	1995	930	2777	64
100	0	0	1998	932	2773	63
101	0	0	2015	933	2768	52
102	0	0	2022	934	2763	52
103	0	0	2046	935	2766	49
104	0	0	2081	935	2770	64
105	0	0	2075	932	2773	58
106	0	0	2045	933	2776	59
107	0	0	2039	935	2780	61
108	0	0	2055	933	2779	49
109	0	0	2081	934	2777	48
110	0	0	2114	933	2774	46
111	0	0	2156	931	2768	54
112	0	0	2186	931	2763	58
113	0	0	2183	929	2765	64
114	0	0	2182	929	2768	52
115	0	0	2182	928	2773	55
116	0	0	2127	925	2777	54
117	0	0	2061	926	2780	50
118	0	0	2043	928	2779	58
119	0	0	2038	931	2778	62
120	0	0	2015	930	2773	66
121	0	0	2008	931	2768	58
122	0	0	2005	933	2764	58
123	0	0	2011	933	2766	61
124	0	0	2009	935	2769	52
125	0	0	2012	938	2773	61
126	0	0	2028	937	2776	59
127	0	0	2049	935	2779	61
0	0	0	2062	932	2779	49
1	0	0	2089	931	2777	48
2	0	0	2122	933	2773	46
3	0	0	2152	933	2767	56
4	0	0	2159	931	2763	53
5	0	0	2150	930	2766	58
6	0	0	2126	927	2768	52
7	0	0	2088	926	2774	51
8	0	0	2053	925	2778	52
9	0	0	2035	927	2779	50
10	0	0	2029	928	2780	60
11	0	0	2018	929	2777	59
12	0	0	2014	932	2774	62
13	0	0	2017	932	2768	59
14	0	0	2023	933	2763	54
15	0	0	2038	933	2765	47
16	0	0	2050	934	2769	56
17	0	0	2057	935	2774	56
18	0	0	2058	934	2777	55
19	0	0	2054	934	2778	56
20	0	0	2054	934	2780	55
21	0	0	2056	932	2777	51
22	0	0	2075	933	2773	50
23	0	0	2119	931	2767	47
24	0	0	2163	930	2764	53
25	0	0	2210	928	2765	51
26	0	0	2197	925	2768	61
27	0	0	2149	925	2773	54
28	0	0	2120	926	2777	55
29	0	0	2101	926	2779	54
30	0	0	2059	919	2780	56
31	0	0	2020	927	2778	57
32	0	0	1996	932	2773	58
33	0	0	1997	931	2768	59
34	0	0	2010	933	2764	61
35	0	0	2021	934	2766	56
36	0	0	2020	934	2769	52
37	0	0	2030	935	2773	54
38	0	0	2049	936	2776	54
39	0	0	2068	934	2779	52
40	0	0	2092	933	2780	57
41	0	0	2131	932	2777	57
42	0	0	2128	931	2774	50
43	0	0	2111	929	2768	51
44	0	0	2133	929	2764	47
45	0	0	2150	928	2766	56
46	0	0	2128	926	2769	49
47	0	0	2103	925	2773	52
48	0	0	2096	927	2777	59
49	0	0	2087	928	2780	61
50	0	0	2075	926	2780	61
51	0	0	2050	926	2777	55
52	0	0	2016	931	2773	58
53	0	0	2000	931	2768	55
54	0	0	2004	932	2764	62
55	0	0	2019	934	2766	57
56	0	0	2027	934	2769	61
57	0	0	2026	932	2774	56
58	0	0	2033	933	2777	51
59	0	0	2051	934	2780	50
60	0	0	2079	932	2780	53
61	0	0	2113	932	2777	62
62	0	0	2143	931	2773	56
63	0	0	2156	930	2768	53
64	0	0	2162	929	2764	50
65	0	0	2158	929	2766	53
66	0	0	2151	927	2768	53
67	0	0	2142	930	2773	50
68	0	0	2133	926	2777	67
69	0	0	2115	925	2779	66
70	0	0	2092	926	2780	62
71	0	0	2069	922	2777	61
72	0	0	2052	928	2775	55
73	0	0	2045	931	2769	53
74	0	0	2042	933	2764	54
75	0	0	2021	931	2766	66
76	0	0	2007	933	2769	69
77	0	0	2015	933	2773	59
78	0	0	2035	934	2777	46
79	0	0	2061	933	2780	46
80	0	0	2091	932	2780	45
81	0	0	2130	932	2777	48
82	0	0	2159	932	2773	58
83	0	0	2166	930	2767	60
84	0	0	2171	928	2764	55
85	0	0	2174	927	2766	43
86	0	0	2168	922	2768	40
87	0	0	2151	926	2773	48
88	0	0	2137	928	2776	52
89	0	0	2111	924	2779	67
90	0	0	2089	926	2780	65
91	0	0	2074	927	2777	67
92	0	0	2065	930	2774	49
93	0	0	2068	929	2768	50
94	0	0	2051	930	2765	51
95	0	0	2046	933	2766	70
96	0	0	2061	933	2768	56
97	0	0	2061	933	2773	61
98	0	0	2077	932	2778	63
99	0	0	2120	933	2779	47
100	0	0	2168	932	2780	44
101	0	0	2176	932	2777	45
102	0	0	2184	932	2773	59
103	0	0	2207	930	2768	51
104	0	0	2200	925	2764	62
105	0	0	2140	923	2766	67
106	0	0	2080	924	2769	45
107	0	0	2075	928	2773	47
108	0	0	2103	926	2777	48
109	0	0	2106	926	2780	61
110	0	0	2080	925	2780	64
111	0	0	2059	927	2778	64
112	0	0	2050	927	2774	50
113	0	0	2056	931	2768	48
114	0	0	2071	931	2765	51
115	0	0	2079	932	2765	72
116	0	0	2067	929	2770	67
117	0	0	2035	930	2773	61
118	0	0	2030	933	2777	60
119	0	0	2038	932	2780	50
120	0	0	2041	932	2780	45
121	0	0	2058	931	2778	48
122	0	0	2087	932	2774	54
123	0	0	2113	930	2767	61
124	0	0	2131	928	2764	60
125	0	0	2151	927	2766	56
126	0	0	2149	926	2769	47
127	0	0	2117	921	2774	48
0	0	0	2083	924	2776	49
1	0	0	2067	926	2780	61
2	0	0	2066	927	2779	67
3	0	0	2063	928	2777	66
4	0	0	2067	929	2774	63
5	0	0	2045	927	2768	49
6	0	0	1997	927	2765	50
7	0	0	1968	930	2765	42
8	0	0	1966	931	2769	58
9	0	0	1955	934	2773	59
10	0	0	1958	932	2777	62
11	0	0	1976	932	2780	50
12	0	0	2003	931	2779	49
13	0	0	2043	930	2777	50
14	0	0	2075	929	2775	42
15	0	0	2081	929	2768	52
16	0	0	2087	928	2764	54
17	0	0	2100	925	2765	61
18	0	0	2105	926	2768	53
19	0	0	2114	926	2773	49
20	0	0	2104	924	2776	50
21	0	0	2061	922	2779	50
22	0	0	2018	923	2778	60
23	0	0	1990	926	2777	61
24	0	0	1984	929	2773	63
25	0	0	1984	929	2767	56
26	0	0	2009	929	2763	53
27	0	0	2009	930	2764	50
28	0	0	1986	927	2767	48
29	0	0	1983	933	2771	57
30	0	0	2019	932	2775	57
31	0	0	2073	932	2778	60
32	0	0	2081	931	2777	53
33	0	0	2076	931	2776	51
34	0	0	2079	929	2772	47
35	0	0	2090	929	2767	49
36	0	0	2106	927	2761	51
37	0	0	2118	925	2763	50
38	0	0	2134	925	2766	53
39	0	0	2110	922	2771	51
40	0	0	2065	922	2775	54
41	0	0	2058	925	2778	55
42	0	0	2043	924	2778	54
43	0	0	2023	925	2776	57
44	0	0	1997	925	2773	58
45	0	0	2003	929	2768	59
46	0	0	2019	929	2764	58
47	0	0	2033	930	2764	57
48	0	0	2046	930	2767	52
49	0	0	2044	932	2773	52
50	0	0	2036	931	2777	55
51	0	0	2023	931	2778	53
52	0	0	2032	930	2779	59
53	0	0	2070	930	2778	55
54	0	0	2104	929	2774	53
55	0	0	2144	928	2768	47
56	0	0	2169	926	2764	49
57	0	0	2164	924	2765	57
58	0	0	2124	921	2768	54
59	0	0	2072	922	2772	57
60	0	0	2038	923	2777	59
61	0	0	2034	926	2779	56
62	0	0	2042	925	2779	58
63	0	0	2038	925	2777	55
64	0	0	2031	926	2773	53
65	0	0	2025	929	2768	59
66	0	0	2018	928	2764	63
67	0	0	2025	930	2764	52
68	0	0	2045	930	2768	55
69	0	0	2056	927	2772	49
70	0	0	2041	929	2776	48
71	0	0	2030	931	2778	47
72	0	0	2038	931	2779	52
73	0	0	2055	929	2776	59
74	0	0	2089	930	2773	54
75	0	0	2115	928	2767	52
76	0	0	2113	927	2762	39
77	0	0	2096	924	2764	40
78	0	0	2082	924	2767	53
79	0	0	2070	923	2771	53
80	0	0	2044	921	2775	65
81	0	0	2020	922	2777	63
82	0	0	1993	922	2777	63
83	0	0	1968	923	2775	50
84	0	0	1953	928	2771	54
85	0	0	1961	927	2765	53
86	0	0	1989	929	2761	63
87	0	0	2025	930	2763	72
88	0	0	2070	931	2766	55
89	0	0	2104	930	2769	63
90	0	0	2124	930	2774	50
91	0	0	2134	930	2777	46
92	0	0	2160	930	2777	45
93	0	0	2188	929	2775	58
94	0	0	2188	927	2771	61
95	0	0	2190	928	2766	57
96	0	0	2222	925	2762	47
97	0	0	2267	923	2763	54
98	0	0	2311	924	2766	49
99	0	0	2327	924	2770	50
100	0	0	2329	922	2775	64
101	0	0	2339	924	2777	61
102	0	0	2315	922	2778	65
103	0	0	2291	926	2776	50
104	0	0	2298	926	2773	52
105	0	0	2309	927	2767	55
106	0	0	2317	928	2763	67
107	0	0	2333	930	2764	64
108	0	0	2349	929	2767	63
109	0	0	2371	929	2771	60
110	0	0	2400	930	2776	46
111	0	0	2419	930	2778	46
112	0	0	2417	929	2778	49
113	0	0	2422	927	2775	58
114	0	0	2433	929	2771	60
115	0	0	2441	926	2765	59
116	0	0	2453	925	2762	53
117	0	0	2477	923	2763	48
118	0	0	2472	923	2766	52
119	0	0	2452	922	2771	49
120	0	0	2444	923	2774	63
121	0	0	2426	923	2777	63
122	0	0	2400	922	2778	66
123	0	0	2352	922	2775	66
124	0	0	2290	922	2772	50
125	0	0	2232	923	2766	53
126	0	0	2185	925	2761	49
127	0	0	2150	924	2765	70
0	0	0	2126	928	2767	60
1	0	0	2105	927	2771	58
2	0	0	2068	927	2775	52
3	0	0	2072	929	2777	47
4	0	0	2087	929	2778	49
5	0	0	2092	928	2775	44
6	0	0	2091	926	2771	59
7	0	0	2100	926	2765	60
8	0	0	2123	925	2761	55
9	0	0	2121	923	2763	54
10	0	0	2106	923	2766	54
11	0	0	2094	922	2770	46
12	0	0	2094	922	2774	51
13	0	0	2079	922	2776	61
14	0	0	2059	922	2777	61
15	0	0	2037	922	2777	66
16	0	0	2001	922	2771	52
17	0	0	1979	927	2767	54
18	0	0	1993	927	2763	50
19	0	0	1998	927	2762	62
20	0	0	1984	928	2767	64
21	0	0	1998	928	2771	60
22	0	0	2041	928	2775	63
23	0	0	2066	929	2777	55
24	0	0	2080	927	2778	51
25	0	0	2078	927	2776	51
26	0	0	2071	927	2772	52
27	0	0	2093	924	2767	54
28	0	0	2117	924	2762	59
29	0	0	2113	922	2764	50
30	0	0	2091	922	2767	57
31	0	0	2078	923	2771	53
32	0	0	2074	921	2775	56
33	0	0	2072	922	2778	57
34	0	0	2050	921	2778	58
35	0	0	2041	924	2776	56
36	0	0	2015	922	2772	61
37	0	0	1979	922	2767	60
38	0	0	1942	925	2762	58
39	0	0	1938	927	2765	47
40	0	0	1969	927	2767	59
41	0	0	2025	930	2771	55
42	0	0	2077	928	2775	56
43	0	0	2096	929	2778	55
44	0	0	2090	928	2777	56
45	0	0	2090	926	2776	58
46	0	0	2094	926	2773	48
47	0	0	2109	923	2767	50
48	0	0	2109	923	2763	49
49	0	0	2103	923	2764	62
50	0	0	2097	922	2768	61
51	0	0	2085	924	2771	58
52	0	0	2089	922	2775	57
53	0	0	2101	922	2778	55
54	0	0	2078	919	2777	51
55	0	0	2037	921	2777	56
56	0	0	2013	922	2772	61
57	0	0	2004	926	2767	61
58	0	0	2015	926	2763	59
59	0	0	2043	928	2763	52
60	0	0	2068	928	2767	57
61	0	0	2075	927	2772	50
62	0	0	2086	928	2776	54
63	0	0	2088	928	2777	50
64	0	0	2089	927	2777	58
65	0	0	2083	928	2776	57
66	0	0	2078	927	2772	55
67	0	0	2081	924	2766	47
68	0	0	2101	923	2763	45
69	0	0	2112	923	2762	55
70	0	0	2099	920	2767	46
71	0	0	2073	919	2771	59
72	0	0	2044	918	2774	62
73	0	0	1997	917	2777	61
74	0	0	1963	920	2778	53
75	0	0	1970	923	2777	54
76	0	0	1985	924	2773	54
77	0	0	2010	925	2767	66
78	0	0	2037	926	2763	65
79	0	0	2048	926	2762	55
80	0	0	2056	926	2767	67
81	0	0	2069	927	2772	51
82	0	0	2070	926	2776	50
83	0	0	2074	927	2778	51
84	0	0	2071	927	2778	61
85	0	0	2033	923	2776	55
86	0	0	2012	926	2772	52
87	0	0	2014	924	2766	45
88	0	0	2030	923	2763	41
89	0	0	2054	922	2764	39
90	0	0	2066	921	2767	58
91	0	0	2072	921	2772	60
92	0	0	2090	921	2775	62
93	0	0	2107	921	2778	59
94	0	0	2102	921	2778	51
95	0	0	2076	920	2777	53
96	0	0	2029	921	2773	57
97	0	0	1984	921	2766	64
98	0	0	1960	924	2763	64
99	0	0	1951	926	2763	67
100	0	0	1954	927	2766	64
101	0	0	1977	927	2772	50
102	0	0	2023	927	2774	47
103	0	0	2072	927	2778	45
104	0	0	2100	926	2779	61
105	0	0	2108	925	2776	62
106	0	0	2096	925	2773	52
107	0	0	2105	924	2767	57
108	0	0	2116	923	2763	40
109	0	0	2135	921	2764	49
110	0	0	2137	921	2767	54
111	0	0	2131	920	2771	62
112	0	0	2118	919	2775	65
113	0	0	2086	917	2778	63
114	0	0	2056	919	2778	65
115	0	0	2043	923	2777	50
116	0	0	2034	923	2774	50
117	0	0	2039	924	2768	53
118	0	0	2052	925	2763	64
119	0	0	2054	926	2764	59
120	0	0	2046	925	2767	58
121	0	0	2024	925	2771	47
122	0	0	2007	927	2775	48
123	0	0	2027	926	2778	45
124	0	0	2045	926	2778	43
125	0	0	2062	925	2776	55
126	0	0	2092	924	2773	58
127	0	0	2107	924	2767	61
0	0	0	2129	922	2764	45
1	0	0	2133	921	2763	43
2	0	0	2113	920	2767	42
3	0	0	2100	919	2772	47
4	0	0	2088	919	2775	64
5	0	0	2080	920	2778	64
6	0	0	2058	919	2778	65
7	0	0	2028	920	2775	55
8	0	0	2011	921	2774	51
9	0	0	2008	924	2768	49
10	0	0	2010	924	2763	60
11	0	0	2022	926	2763	63
12	0	0	2060	926	2767	59
13	0	0	2078	926	2771	63
14	0	0	2068	926	2775	50
15	0	0	2073	927	2778	49
16	0	0	2092	926	2778	47
17	0	0	2101	924	2776	53
18	0	0	2124	923	2772	53
19	0	0	2143	923	2766	59
20	0	0	2109	919	2762	56
21	0	0	2054	917	2762	56
22	0	0	2032	920	2766	56
23	0	0	2045	919	2770	47
24	0	0	2048	920	2775	53
25	0	0	2042	920	2777	60
26	0	0	2032	921	2778	61
27	0	0	2013	920	2776	62
28	0	0	1994	921	2772	55
29	0	0	1980	924	2767	55
30	0	0	1988	924	2762	50
31	0	0	2016	924	2761	63
32	0	0	2060	926	2766	66
33	0	0	2068	923	2771	56
34	0	0	2038	924	2775	53
35	0	0	2030	926	2777	56
36	0	0	2046	926	2777	49
37	0	0	2077	924	2775	51
38	0	0	2112	922	2772	53
39	0	0	2130	922	2766	50
40	0	0	2134	921	2761	52
41	0	0	2134	921	2761	50
42	0	0	2136	919	2765	56
43	0	0	2136	918	2770	51
44	0	0	2136	918	2775	56
45	0	0	2132	919	2776	60
46	0	0	2095	917	2777	60
47	0	0	2044	917	2775	63
48	0	0	1999	919	2771	55
49	0	0	1973	923	2766	59
50	0	0	1971	924	2762	53
51	0	0	1986	925	2761	47
52	0	0	2011	925	2765	50
53	0	0	2016	925	2769	57
54	0	0	2027	925	2774	56
55	0	0	2055	925	2776	60
56	0	0	2072	926	2776	57
57	0	0	2090	925	2776	54
58	0	0	2108	924	2772	51
59	0	0	2131	924	2766	49
60	0	0	2154	921	2762	50
61	0	0	2168	920	2762	52
62	0	0	2160	917	2766	56
63	0	0	2119	916	2770	55
64	0	0	2091	917	2774	58
65	0	0	2065	916	2777	51
66	0	0	2038	917	2776	53
67	0	0	2006	918	2775	53
68	0	0	1989	922	2771	55
69	0	0	2000	922	2767	52
70	0	0	2032	923	2762	50
71	0	0	2052	924	2762	60
72	0	0	2050	926	2765	69
73	0	0	2055	926	2769	59
74	0	0	2072	926	2774	58
75	0	0	2084	924	2776	55
76	0	0	2084	924	2776	51
77	0	0	2076	923	2775	49
78	0	0	2065	922	2771	56
79	0	0	2087	924	2766	56
80	0	0	2125	920	2762	53
81	0	0	2167	919	2761	45
82	0	0	2196	920	2765	44
83	0	0	2184	914	2771	48
84	0	0	2150	915	2774	54
85	0	0	2128	917	2777	55
86	0	0	2106	916	2776	61
87	0	0	2069	917	2775	64
88	0	0	2028	918	2771	58
89	0	0	2023	923	2767	56
90	0	0	2014	922	2762	58
91	0	0	2011	923	2762	49
92	0	0	2021	924	2765	64
93	0	0	2011	924	2771	56
94	0	0	2019	925	2774	59
95	0	0	2041	924	2776	55
96	0	0	2075	924	2776	55
97	0	0	2109	923	2775	51
98	0	0	2119	922	2772	52
99	0	0	2118	922	2767	48
100	0	0	2128	921	2762	52
101	0	0	2136	919	2762	61
102	0	0	2135	918	2765	57
103	0	0	2117	917	2770	58
104	0	0	2112	918	2775	53
105	0	0	2092	916	2777	55
106	0	0	2065	917	2777	53
107	0	0	2048	918	2776	56
108	0	0	2043	920	2772	62
109	0	0	2036	921	2768	60
110	0	0	2036	922	2763	61
111	0	0	2052	923	2763	48
112	0	0	2071	923	2766	53
113	0	0	2076	923	2771	53
114	0	0	2076	924	2775	52
115	0	0	2070	925	2777	59
116	0	0	2066	923	2778	59
117	0	0	2076	922	2776	55
118	0	0	2100	923	2772	52
119	0	0	2119	921	2768	44
120	0	0	2126	916	2762	47
121	0	0	2131	920	2763	58
122	0	0	2133	918	2766	64
123	0	0	2140	917	2771	58
124	0	0	2130	916	2775	61
125	0	0	2098	915	2777	52
126	0	0	2071	916	2778	52
127	0	0	2057	919	2776	52
0	0	0	2061	921	2773	57
1	0	0	2056	920	2767	67
2	0	0	2039	920	2762	63
3	0	0	2009	920	2763	57
4	0	0	1997	923	2766	53
5	0	0	2013	925	2770	51
6	0	0	2045	923	2774	51
7	0	0	2066	923	2777	51
8	0	0	2065	923	2778	61
9	0	0	2062	921	2775	58
10	0	0	2063	922	2772	56
11	0	0	2086	918	2767	42
12	0	0	2110	919	2762	42
13	0	0	2131	918	2763	52
14	0	0	2137	918	2765	64
15	0	0	2134	917	2770	63
16	0	0	2124	917	2775	63
17	0	0	2100	915	2777	65
18	0	0	2052	914	2778	52
19	0	0	2012	916	2776	51
20	0	0	1996	920	2772	48
21	0	0	1996	918	2767	67
22	0	0	1976	919	2763	63
23	0	0	1958	922	2761	52
24	0	0	1952	922	2765	58
25	0	0	1960	922	2769	47
26	0	0	1992	924	2774	50
27	0	0	2011	924	2777	48
28	0	0	2025	922	2777	58
29	0	0	2027	920	2776	59
30	0	0	2021	922	2772	55
31	0	0	2024	920	2767	44
32	0	0	2040	921	2763	44
33	0	0	2063	917	2763	45
34	0	0	2072	916	2766	43
35	0	0	2065	916	2770	62
36	0	0	2042	912	2774	65
37	0	0	2014	915	2776	64
38	0	0	1984	915	2778	52
39	0	0	1974	917	2776	52
40	0	0	1987	919	2772	48
41	0	0	1987	919	2768	49
42	0	0	1961	919	2763	62
43	0	0	1941	920	2763	71
44	0	0	1938	921	2765	69
45	0	0	1938	923	2770	51
46	0	0	1944	921	2775	47
47	0	0	1953	922	2778	48
48	0	0	1993	922	2778	46
49	0	0	2045	924	2776	57
50	0	0	2065	920	2772	57
51	0	0	2040	917	2767	60
52	0	0	2024	918	2763	50
53	0	0	2029	919	2764	53
54	0	0	2031	916	2766	40
55	0	0	2030	916	2771	59
56	0	0	2021	914	2775	58
57	0	0	1997	914	2777	66
58	0	0	1979	914	2777	64
59	0	0	1937	914	2776	58
60	0	0	1884	915	2773	53
61	0	0	1864	916	2767	52
62	0	0	1866	921	2762	58
63	0	0	1878	921	2762	60
64	0	0	1894	922	2766	62
65	0	0	1920	922	2771	62
66	0	0	1947	919	2774	54
67	0	0	1958	922	2778	49
68	0	0	1970	921	2777	47
69	0	0	1978	921	2776	55
70	0	0	1986	920	2773	59
71	0	0	1996	918	2768	58
72	0	0	2009	923	2763	53
73	0	0	2026	917	2763	48
74	0	0	2033	916	2767	43
75	0	0	2017	915	2772	48
76	0	0	2011	914	2775	58
77	0	0	2020	915	2778	64
78	0	0	2018	916	2779	61
79	0	0	1990	914	2777	61
80	0	0	1960	916	2774	57
81	0	0	1946	918	2770	54
82	0	0	1926	918	2764	50
83	0	0	1907	919	2764	56
84	0	0	1902	923	2768	65
85	0	0	1913	922	2771	58
86	0	0	1933	921	2775	59
87	0	0	1962	922	2778	55
88	0	0	1980	922	2779	53
89	0	0	1986	919	2777	51
90	0	0	1997	920	2775	49
91	0	0	2011	919	2769	51
92	0	0	2009	919	2763	54
93	0	0	2010	919	2764	59
94	0	0	2007	919	2767	53
95	0	0	2007	915	2772	51
96	0	0	2027	915	2776	56
97	0	0	2029	914	2778	55
98	0	0	2002	914	2778	58
99	0	0	1980	915	2778	62
100	0	0	1965	918	2774	57
101	0	0	1958	922	2769	58
102	0	0	1950	920	2764	61
103	0	0	1937	918	2764	55
104	0	0	1912	919	2767	61
105	0	0	1903	922	2772	58
106	0	0	1919	923	2776	55
107	0	0	1950	922	2778	59
108	0	0	1980	921	2780	56
109	0	0	2000	920	2777	54
110	0	0	2013	920	2774	51
111	0	0	2021	917	2769	50
112	0	0	2007	915	2764	51
113	0	0	1993	915	2763	66
114	0	0	1980	916	2767	51
115	0	0	1967	914	2772	55
116	0	0	1954	918	2776	57
117	0	0	1966	915	2779	54
118	0	0	1976	915	2779	52
119	0	0	1986	919	2777	54
120	0	0	2000	918	2775	64
121	0	0	1998	916	2769	68
122	0	0	1940	915	2764	61
123	0	0	1884	917	2764	64
124	0	0	1861	919	2767	46
125	0	0	1873	921	2773	48
126	0	0	1899	921	2775	54
127	0	0	1917	920	2778	60
0	0	0	1937	920	2778	62
1	0	0	1947	921	2777	56
2	0	0	1957	919	2774	53
3	0	0	1991	919	2769	41
4	0	0	2044	917	2764	45
5	0	0	2077	915	2763	51
6	0	0	2090	915	2767	66
7	0	0	2099	915	2772	56
8	0	0	2079	915	2776	61
9	0	0	2059	913	2779	53
10	0	0	2021	912	2779	53
11	0	0	1967	913	2777	53
12	0	0	1915	914	2775	54
13	0	0	1887	916	2769	63
14	0	0	1889	919	2764	66
15	0	0	1901	919	2764	61
16	0	0	1913	920	2768	44
17	0	0	1923	921	2772	54
18	0	0	1929	920	2776	47
19	0	0	1923	922	2779	47
20	0	0	1915	920	2779	62
21	0	0	1927	919	2778	61
22	0	0	1966	919	2775	58
23	0	0	1995	918	2770	44
24	0	0	2014	915	2765	43
25	0	0	2030	915	2764	42
26	0	0	2061	913	2767	66
27	0	0	2083	913	2771	59
28	0	0	2077	913	2776	63
29	0	0	2063	913	2779	65
30	0	0	2031	912	2779	55
31	0	0	2009	914	2778	52
32	0	0	1989	911	2775	51
33	0	0	1968	917	2769	64
34	0	0	1951	918	2765	62
35	0	0	1932	918	2765	64
36	0	0	1926	920	2767	65
37	0	0	1930	920	2772	53
38	0	0	1937	922	2777	51
39	0	0	1945	921	2779	47
40	0	0	1949	919	2779	61
41	0	0	1967	919	2778	55
42	0	0	1998	917	2774	57
43	0	0	2032	917	2769	44
44	0	0	2050	916	2764	47
45	0	0	2035	915	2764	46
46	0	0	2030	915	2767	49
47	0	0	2030	911	2771	59
48	0	0	2020	914	2776	64
49	0	0	1999	912	2779	63
50	0	0	1982	914	2779	57
51	0	0	1976	915	2778	54
52	0	0	1966	915	2775	53
53	0	0	1944	915	2770	63
54	0	0	1933	918	2765	63
55	0	0	1934	917	2764	71
56	0	0	1949	919	2768	61
57	0	0	1960	919	2772	53
58	0	0	1974	920	2776	56
59	0	0	2000	921	2780	54
60	0	0	2024	919	2779	55
61	0	0	2046	919	2778	55
62	0	0	2031	915	2775	55
63	0	0	2016	916	2770	51
64	0	0	2023	915	2765	49
65	0	0	2043	914	2765	57
66	0	0	2046	914	2769	53
67	0	0	2058	913	2773	57
68	0	0	2072	912	2776	58
69	0	0	2062	914	2780	61
70	0	0	2037	911	2780	60
71	0	0	1989	913	2779	58
72	0	0	1953	915	2775	53
73	0	0	1949	917	2770	48
74	0	0	1955	918	2765	54
75	0	0	1944	918	2765	53
76	0	0	1945	919	2768	67
77	0	0	1945	919	2772	57
78	0	0	1960	920	2777	58
79	0	0	1984	919	2779	51
80	0	0	1996	918	2779	54
81	0	0	2017	919	2778	51
82	0	0	2052	917	2775	53
83	0	0	2073	917	2770	56
84	0	0	2094	915	2765	52
85	0	0	2086	911	2766	46
86	0	0	2051	912	2768	56
87	0	0	2030	911	2772	49
88	0	0	2009	909	2777	58
89	0	0	1994	912	2779	56
90	0	0	1996	913	2780	63
91	0	0	1987	915	2778	62
92	0	0	1973	914	2775	55
93	0	0	1941	912	2770	55
94	0	0	1917	915	2765	56
95	0	0	1929	918	2764	53
96	0	0	1968	919	2768	61
97	0	0	1995	919	2772	56
98	0	0	1999	920	2776	61
99	0	0	1998	919	2780	56
100	0	0	2002	919	2780	55
101	0	0	1996	918	2779	48
102	0	0	1989	918	2774	50
103	0	0	1995	916	2770	53
104	0	0	2017	913	2765	60
105	0	0	2030	914	2764	64
106	0	0	2020	913	2768	61
107	0	0	2018	912	2772	58
108	0	0	2018	911	2776	51
109	0	0	2010	911	2779	51
110	0	0	2004	913	2779	62
111	0	0	1988	913	2778	63
112	0	0	1979	916	2775	61
113	0	0	1963	914	2770	63
114	0	0	1956	917	2765	60
115	0	0	1959	918	2765	54
116	0	0	1965	919	2768	51
117	0	0	1993	919	2772	51
118	0	0	2039	923	2776	62
119	0	0	2060	918	2779	60
120	0	0	2041	917	2779	59
121	0	0	2019	916	2778	56
122	0	0	2012	917	2775	44
123	0	0	2039	916	2770	44
124	0	0	2070	915	2765	48
125	0	0	2078	913	2764	65
126	0	0	2071	913	2767	57
127	0	0	2056	913	2772	60
0	0	0	2040	911	2776	49
1	0	0	2017	911	2779	49
2	0	0	2001	912	2779	52
3	0	0	1999	911	2778	54
4	0	0	1978	911	2774	63
5	0	0	1955	912	2770	67
6	0	0	1951	916	2765	63
7	0	0	1961	916	2765	43
8	0	0	1974	916	2768	51
9	0	0	1993	918	2772	51
10	0	0	1994	920	2776	49
11	0	0	1992	917	2779	64
12	0	0	2017	918	2779	60
13	0	0	2055	917	2778	59
14	0	0	2078	916	2774	45
15	0	0	2083	917	2770	43
16	0	0	2078	913	2765	44
17	0	0	2070	913	2764	52
18	0	0	2070	911	2767	55
19	0	0	2073	911	2771	63
20	0	0	2078	910	2776	67
21	0	0	2075	910	2779	51
22	0	0	2054	909	2779	48
23	0	0	2008	910	2778	52
24	0	0	1961	911	2775	64
25	0	0	1935	913	2770	63
26	0	0	1938	915	2764	60
27	0	0	1950	920	2765	42
28	0	0	1957	917	2767	57
29	0	0	1969	917	2771	48
30	0	0	1984	919	2776	53
31	0	0	2010	917	2778	63
32	0	0	2032	919	2778	61
33	0	0	2053	918	2777	61
34	0	0	2055	914	2774	47
35	0	0	2058	915	2769	40
36	0	0	2069	912	2764	46
37	0	0	2077	913	2763	60
38	0	0	2096	912	2766	62
39	0	0	2107	910	2770	63
40	0	0	2053	906	2775	63
41	0	0	2003	908	2778	51
42	0	0	1985	909	2778	52
43	0	0	1953	908	2778	51
44	0	0	1925	911	2773	64
45	0	0	1892	913	2769	65
46	0	0	1882	916	2764	64
47	0	0	1915	916	2763	65
48	0	0	1952	914	2767	51
49	0	0	1967	918	2771	49
50	0	0	1967	915	2775	49
51	0	0	1973	917	2778	62
52	0	0	2004	916	2778	62
53	0	0	2034	917	2777	59
54	0	0	2049	915	2774	55
55	0	0	2069	915	2769	46
56	0	0	2075	914	2764	46
57	0	0	2078	913	2763	40
58	0	0	2074	912	2766	61
59	0	0	2078	911	2771	60
60	0	0	2064	908	2775	63
61	0	0	2021	909	2778	51
62	0	0	1984	908	2779	52
63	0	0	1953	910	2777	51
64	0	0	1950	914	2774	52
65	0	0	1963	914	2769	63
66	0	0	1985	914	2764	69
67	0	0	2015	917	2763	58
68	0	0	2026	915	2766	56
69	0	0	2033	916	2771	45
70	0	0	2035	915	2775	48
71	0	0	2031	915	2778	50
72	0	0	2041	917	2778	60
73	0	0	2039	915	2777	63
74	0	0	2028	914	2773	55
75	0	0	2019	916	2769	45
76	0	0	2025	913	2764	42
77	0	0	2036	911	2763	44
78	0	0	2044	913	2767	57
79	0	0	2046	907	2770	56
80	0	0	2045	909	2775	63
81	0	0	2021	907	2777	64
82	0	0	1994	908	2778	55
83	0	0	1969	910	2777	52
84	0	0	1961	913	2774	45
85	0	0	1966	912	2769	62
86	0	0	1975	915	2763	66
87	0	0	1988	916	2763	63
88	0	0	2005	916	2765	65
89	0	0	2014	916	2771	50
90	0	0	1999	913	2775	52
91	0	0	1988	916	2778	47
92	0	0	2006	917	2779	57
93	0	0	2041	915	2777	57
94	0	0	2073	915	2773	58
95	0	0	2081	914	2769	48
96	0	0	2069	912	2764	49
97	0	0	2074	911	2763	52
98	0	0	2084	910	2766	37
99	0	0	2077	909	2770	56
100	0	0	2069	908	2775	62
101	0	0	2056	911	2777	63
102	0	0	2031	909	2778	55
103	0	0	1999	910	2777	56
104	0	0	1969	910	2775	50
105	0	0	1963	910	2769	48
106	0	0	1976	914	2763	61
107	0	0	1976	915	2763	53
108	0	0	1954	913	2766	63
109	0	0	1922	913	2770	52
110	0	0	1911	917	2775	53
111	0	0	1930	916	2777	48
112	0	0	1968	916	2778	47
113	0	0	1999	916	2776	55
114	0	0	2021	914	2775	52
115	0	0	2046	912	2768	57
116	0	0	2080	912	2763	47
117	0	0	2098	911	2762	55
118	0	0	2120	912	2765	52
119	0	0	2096	906	2770	56
120	0	0	2055	905	2775	59
121	0	0	2048	911	2777	62
122	0	0	2055	910	2777	62
123	0	0	2048	909	2777	59
124	0	0	1997	909	2775	52
125	0	0	1943	908	2769	53
126	0	0	1908	912	2763	57
127	0	0	1902	915	2763	51
0	0	0	1917	916	2765	50
1	0	0	1961	917	2771	57
2	0	0	2008	913	2775	54
3	0	0	2006	915	2777	51
4	0	0	1999	915	2777	47
5	0	0	2013	915	2776	51
6	0	0	2030	914	2774	52
7	0	0	2022	914	2768	55
8	0	0	2022	911	2764	51
9	0	0	2034	910	2762	43
10	0	0	2057	911	2767	55
11	0	0	2066	910	2769	51
12	0	0	2041	907	2774	57
13	0	0	2005	907	2777	60
14	0	0	1993	910	2777	63
15	0	0	1997	910	2777	57
16	0	0	2004	911	2773	56
17	0	0	1999	912	2769	52
18	0	0	1992	914	2764	58
19	0	0	1984	913	2762	65
20	0	0	1969	916	2765	57
21	0	0	1964	914	2769	64
22	0	0	1976	913	2774	55
23	0	0	2008	915	2777	51
24	0	0	2033	915	2777	47
25	0	0	2026	914	2776	54
26	0	0	2020	913	2773	51
27	0	0	2042	911	2769	58
28	0	0	2079	910	2763	50
29	0	0	2101	910	2763	53
30	0	0	2097	909	2766	56
31	0	0	2085	910	2770	49
32	0	0	2088	909	2774	53
33	0	0	2078	908	2777	59
34	0	0	2073	910	2777	59
35	0	0	2037	908	2776	61
36	0	0	1974	906	2773	58
37	0	0	1933	911	2768	51
38	0	0	1935	913	2763	52
39	0	0	1959	913	2762	57
40	0	0	1983	913	2765	61
41	0	0	1992	915	2769	59
42	0	0	1978	917	2773	55
43	0	0	1985	915	2777	52
44	0	0	2016	914	2777	48
45	0	0	2048	914	2777	49
46	0	0	2069	914	2773	55
47	0	0	2089	912	2768	53
48	0	0	2103	911	2763	56
49	0	0	2096	909	2762	56
50	0	0	2086	911	2764	53
51	0	0	2091	908	2770	56
52	0	0	2092	910	2773	51
53	0	0	2098	908	2777	56
54	0	0	2093	907	2778	56
55	0	0	2040	906	2776	63
56	0	0	2001	908	2774	59
57	0	0	1992	912	2769	59
58	0	0	1978	910	2763	54
59	0	0	1959	912	2762	52
60	0	0	1960	915	2765	63
61	0	0	1968	916	2770	60
62	0	0	1987	915	2774	59
63	0	0	2011	915	2778	58
64	0	0	2025	914	2777	56
65	0	0	2032	915	2775	51
66	0	0	2053	911	2774	51
67	0	0	2068	912	2768	49
68	0	0	2073	912	2763	51
69	0	0	2072	910	2762	61
70	0	0	2076	908	2765	50
71	0	0	2083	908	2770	53
72	0	0	2080	908	2775	54
73	0	0	2058	903	2777	53
74	0	0	2027	906	2778	56
75	0	0	2006	909	2777	61
76	0	0	1994	912	2774	62
77	0	0	1996	911	2768	56
78	0	0	2030	910	2764	58
79	0	0	2059	907	2763	59
80	0	0	2059	914	2766	48
81	0	0	2066	914	2770	55
82	0	0	2057	915	2773	56
83	0	0	2034	911	2777	60
84	0	0	2012	912	2777	56
85	0	0	1997	913	2776	54
86	0	0	2008	911	2774	55
87	0	0	2035	914	2768	48
88	0	0	2069	906	2763	50
89	0	0	2108	910	2763	48
90	0	0	2109	910	2765	54
91	0	0	2073	903	2770	55
92	0	0	2048	906	2773	58
93	0	0	2038	908	2778	50
94	0	0	2021	905	2777	52
95	0	0	1974	905	2778	51
96	0	0	1942	907	2774	59
97	0	0	1952	911	2768	60
98	0	0	1965	911	2764	61
99	0	0	1964	913	2762	50
100	0	0	1980	912	2766	41
101	0	0	2017	915	2770	49
102	0	0	2028	916	2774	49
103	0	0	2031	913	2777	55
104	0	0	2044	914	2778	64
105	0	0	2052	913	2776	58
106	0	0	2064	912	2774	51
107	0	0	2077	911	2770	45
108	0	0	2089	910	2764	45
109	0	0	2075	906	2764	56
110	0	0	2036	906	2765	57
111	0	0	2043	907	2769	64
112	0	0	2080	907	2773	60
113	0	0	2112	906	2777	61
114	0	0	2104	904	2778	53
115	0	0	2025	903	2777	52
116	0	0	1953	904	2774	55
117	0	0	1929	911	2768	64
118	0	0	1937	911	2763	63
119	0	0	1969	912	2762	55
120	0	0	1988	913	2766	57
121	0	0	1978	914	2770	52
122	0	0	1977	913	2774	48
123	0	0	1996	911	2777	47
124	0	0	2017	913	2778	52
125	0	0	2032	912	2776	60
126	0	0	2038	912	2774	56
127	0	0	2035	911	2769	48
0	0	0	2026	909	2764	45
1	0	0	2034	907	2762	50
2	0	0	2055	908	2765	65
3	0	0	2077	908	2770	59
4	0	0	2089	907	2774	60
5	0	0	2080	907	2778	63
6	0	0	2060	903	2778	48
7	0	0	2023	905	2777	48
8	0	0	2015	908	2774	54
9	0	0	2017	910	2769	64
10	0	0	2012	911	2764	65
11	0	0	1988	908	2763	57
12	0	0	1954	910	2767	58
13	0	0	1948	913	2770	50
14	0	0	1966	914	2775	47
15	0	0	1994	909	2777	49
16	0	0	2033	913	2779	59
17	0	0	2064	912	2776	59
18	0	0	2071	911	2773	58
19	0	0	2061	910	2769	47
20	0	0	2054	913	2764	43
21	0	0	2051	907	2763	44
22	0	0	2040	906	2765	42
23	0	0	2040	910	2769	61
24	0	0	2053	906	2774	63
25	0	0	2053	907	2777	66
26	0	0	2044	907	2778	51
27	0	0	2014	905	2777	51
28	0	0	1989	910	2774	53
29	0	0	1981	911	2768	50
30	0	0	1979	909	2764	66
31	0	0	1992	911	2762	64
32	0	0	2022	911	2767	68
33	0	0	2042	912	2769	52
34	0	0	2050	912	2774	51
35	0	0	2036	915	2777	46
36	0	0	2041	912	2778	47
37	0	0	2060	911	2777	57
38	0	0	2085	906	2774	60
39	0	0	2102	910	2769	56
40	0	0	2103	909	2764	43
41	0	0	2101	908	2762	51
42	0	0	2103	906	2766	51
43	0	0	2101	906	2770	61
44	0	0	2101	905	2774	63
45	0	0	2102	909	2777	66
46	0	0	2085	905	2778	64
47	0	0	2056	904	2777	54
48	0	0	2030	907	2774	52
49	0	0	2023	910	2770	50
50	0	0	2010	908	2764	60
51	0	0	1991	909	2762	62
52	0	0	1968	908	2765	57
53	0	0	1963	914	2770	61
54	0	0	1977	911	2775	54
55	0	0	1992	912	2778	49
56	0	0	2014	912	2778	49
57	0	0	2036	911	2777	53
58	0	0	2050	911	2773	55
59	0	0	2073	909	2769	58
60	0	0	2096	908	2764	49
61	0	0	2124	907	2763	48
62	0	0	2102	903	2766	40
63	0	0	2071	906	2770	50
64	0	0	2065	906	2774	59
65	0	0	2060	906	2778	61
66	0	0	2037	903	2778	64
67	0	0	2009	905	2777	60
68	0	0	2008	911	2774	56
69	0	0	2011	909	2769	54
70	0	0	1993	911	2764	54
71	0	0	1972	909	2763	55
72	0	0	1958	909	2766	58
73	0	0	1941	911	2769	64
74	0	0	1942	912	2775	53
75	0	0	1970	909	2778	52
76	0	0	2013	911	2778	53
77	0	0	2037	910	2777	52
78	0	0	2060	911	2773	53
79	0	0	2085	909	2770	53
80	0	0	2102	907	2764	56
81	0	0	2105	908	2763	45
82	0	0	2106	905	2766	55
83	0	0	2115	905	2771	47
84	0	0	2118	907	2774	53
85	0	0	2098	902	2778	57
86	0	0	2037	902	2778	59
87	0	0	1986	901	2777	62
88	0	0	1953	905	2774	58
89	0	0	1945	909	2770	57
90	0	0	1966	909	2765	53
91	0	0	1976	909	2763	61
92	0	0	1966	911	2765	48
93	0	0	1960	912	2770	59
94	0	0	1969	912	2774	59
95	0	0	1993	912	2777	56
96	0	0	2028	911	2779	53
97	0	0	2042	911	2777	54
98	0	0	2025	906	2774	51
99	0	0	1991	905	2770	55
100	0	0	1980	906	2764	52
101	0	0	1995	906	2763	50
102	0	0	2001	906	2767	58
103	0	0	1995	905	2770	55
104	0	0	1985	904	2775	59
105	0	0	1980	904	2777	55
106	0	0	1974	905	2778	59
107	0	0	1949	903	2777	60
108	0	0	1929	906	2774	59
109	0	0	1926	909	2770	59
110	0	0	1918	906	2765	55
111	0	0	1899	908	2763	51
112	0	0	1877	908	2766	53
113	0	0	1868	911	2770	60
114	0	0	1908	911	2774	55
115	0	0	1957	912	2777	56
116	0	0	1967	911	2779	52
117	0	0	1975	908	2777	51
118	0	0	1996	908	2775	51
119	0	0	1995	908	2770	51
120	0	0	1989	906	2764	51
121	0	0	1999	905	2763	57
122	0	0	2022	903	2766	57
123	0	0	2019	904	2770	58
124	0	0	1992	902	2775	53
125	0	0	1952	902	2777	54
126	0	0	1925	903	2778	56
127	0	0	1932	904	2778	58
0	0	0	1941	906	2775	61
1	0	0	1920	905	2770	58
2	0	0	1903	908	2764	59
3	0	0	1899	910	2763	57
4	0	0	1902	910	2765	62
5	0	0	1913	907	2770	57
6	0	0	1925	910	2774	59
7	0	0	1940	911	2777	58
8	0	0	1960	910	2778	55
9	0	0	1976	909	2777	55
10	0	0	1973	909	2774	52
11	0	0	1949	907	2770	48
12	0	0	1941	906	2764	53
13	0	0	1949	905	2762	53
14	0	0	1965	904	2767	49
15	0	0	1981	904	2771	52
16	0	0	1989	904	2774	55
17	0	0	1989	903	2778	54
18	0	0	1955	901	2778	53
19	0	0	1930	904	2777	57
20	0	0	1922	906	2774	61
21	0	0	1922	907	2769	64
22	0	0	1919	909	2764	62
23	0	0	1932	908	2764	65
24	0	0	1945	912	2766	55
25	0	0	1949	910	2770	56
26	0	0	1945	910	2775	54
27	0	0	1943	912	2777	55
28	0	0	1969	909	2778	59
29	0	0	2007	908	2778	56
30	0	0	2042	908	2775	57
31	0	0	2051	908	2770	46
32	0	0	2030	903	2764	51
33	0	0	2009	903	2763	52
34	0	0	2007	904	2765	66
35	0	0	2026	904	2770	60
36	0	0	2029	903	2774	59
37	0	0	2007	902	2777	58
38	0	0	1980	901	2778	51
39	0	0	1953	902	2777	55
40	0	0	1930	902	2775	60
41	0	0	1910	905	2771	65
42	0	0	1904	909	2765	62
43	0	0	1909	909	2763	53
44	0	0	1916	910	2765	62
45	0	0	1926	909	2770	52
46	0	0	1932	910	2774	50
47	0	0	1935	908	2776	54
48	0	0	1949	909	2778	62
49	0	0	1970	908	2777	59
50	0	0	2005	908	2775	59
51	0	0	2021	907	2771	43
52	0	0	2018	903	2764	48
53	0	0	2022	904	2763	49
54	0	0	2031	904	2766	45
55	0	0	2016	901	2770	66
56	0	0	1982	900	2773	60
57	0	0	1942	901	2776	61
58	0	0	1916	901	2778	49
59	0	0	1895	901	2778	51
60	0	0	1874	903	2776	55
61	0	0	1872	904	2770	54
62	0	0	1884	907	2765	64
63	0	0	1893	908	2763	63
64	0	0	1905	908	2765	58
65	0	0	1927	907	2770	54
66	0	0	1961	909	2774	50
67	0	0	2004	909	2777	49
68	0	0	2043	908	2778	49
69	0	0	2071	908	2777	60
70	0	0	2073	907	2775	61
71	0	0	2069	906	2769	52
72	0	0	2087	903	2764	43
73	0	0	2118	904	2763	40
74	0	0	2131	904	2765	40
75	0	0	2130	901	2769	54
76	0	0	2143	902	2775	62
77	0	0	2171	903	2778	63
78	0	0	2177	903	2777	64
79	0	0	2171	904	2778	51
80	0	0	2184	903	2775	52
81	0	0	2210	906	2769	48
82	0	0	2217	905	2764	63
83	0	0	2216	907	2763	68
84	0	0	2225	908	2765	70
85	0	0	2259	907	2769	64
86	0	0	2295	909	2774	49
87	0	0	2326	911	2777	45
88	0	0	2355	912	2778	47
89	0	0	2383	907	2777	58
90	0	0	2405	907	2775	62
91	0	0	2407	905	2770	59
92	0	0	2413	904	2764	45
93	0	0	2404	903	2764	39
94	0	0	2377	902	2765	42
95	0	0	2371	901	2770	49
96	0	0	2346	900	2774	64
97	0	0	2327	899	2777	65
98	0	0	2308	900	2779	64
99	0	0	2288	903	2777	51
100	0	0	2256	903	2774	51
101	0	0	2233	903	2769	52
102	0	0	2204	901	2764	66
103	0	0	2167	903	2762	66
104	0	0	2112	904	2765	63
105	0	0	2051	903	2770	67
106	0	0	1991	904	2774	47
107	0	0	1958	905	2777	50
108	0	0	1982	907	2778	45
109	0	0	2015	908	2777	59
110	0	0	2030	907	2775	55
111	0	0	2023	905	2770	57
112	0	0	2009	905	2765	47
113	0	0	1998	903	2763	46
114	0	0	2001	903	2766	47
115	0	0	2025	901	2769	44
116	0	0	2022	901	2773	63
117	0	0	1984	896	2777	63
118	0	0	1929	898	2778	63
119	0	0	1894	900	2777	52
120	0	0	1870	901	2775	51
121	0	0	1848	903	2771	51
122	0	0	1857	903	2764	49
123	0	0	1883	906	2763	57
124	0	0	1902	910	2765	65
125	0	0	1916	909	2769	60
126	0	0	1940	911	2773	50
127	0	0	1956	907	2777	50
0	0	0	1957	907	2778	48
1	0	0	1958	906	2777	46
2	0	0	1950	907	2773	58
3	0	0	1951	904	2769	57
4	0	0	1969	901	2764	56
5	0	0	2013	902	2763	41
6	0	0	2031	901	2765	48
7	0	0	2025	903	2769	49
8	0	0	2009	898	2774	62
9	0	0	1982	896	2777	60
10	0	0	1961	900	2778	65
11	0	0	1945	901	2777	65
12	0	0	1936	904	2774	52
13	0	0	1928	904	2770	52
14	0	0	1922	901	2765	50
15	0	0	1915	901	2762	67
16	0	0	1899	905	2765	63
17	0	0	1893	908	2769	56
18	0	0	1890	908	2773	62
19	0	0	1902	906	2778	54
20	0	0	1924	906	2778	48
21	0	0	1938	905	2777	47
22	0	0	1960	908	2773	56
23	0	0	1975	905	2769	60
24	0	0	1995	903	2764	57
25	0	0	2032	902	2761	45
26	0	0	2057	902	2766	56
27	0	0	2059	900	2769	46
28	0	0	2041	900	2773	47
29	0	0	2004	898	2776	61
30	0	0	1961	898	2776	63
31	0	0	1908	899	2776	65
32	0	0	1871	901	2773	59
33	0	0	1895	904	2768	56
34	0	0	1931	905	2763	54
35	0	0	1940	905	2760	50
36	0	0	1926	903	2763	52
37	0	0	1920	906	2767	53
38	0	0	1907	908	2772	60
39	0	0	1913	902	2774	54
40	0	0	1947	903	2775	51
41	0	0	1990	907	2774	50
42	0	0	2019	907	2771	44
43	0	0	2033	904	2767	54
44	0	0	2037	902	2761	53
45	0	0	2041	900	2759	64
46	0	0	2035	901	2762	55
47	0	0	2044	900	2766	49
48	0	0	2081	900	2771	51
49	0	0	2076	898	2774	56
50	0	0	2053	898	2775	59
51	0	0	2004	898	2776	61
52	0	0	1944	900	2773	63
53	0	0	1914	903	2767	56
54	0	0	1925	905	2762	57
55	0	0	1951	905	2759	54
56	0	0	1962	904	2763	53
57	0	0	1963	906	2766	55
58	0	0	1953	905	2771	59
59	0	0	1941	906	2774	56
60	0	0	1952	907	2775	58
61	0	0	1972	905	2775	54
62	0	0	2000	904	2772	47
63	0	0	2022	904	2768	51
64	0	0	2048	903	2762	51
65	0	0	2069	901	2759	48
66	0	0	2033	897	2762	55
67	0	0	1978	897	2767	52
68	0	0	1954	900	2772	56
69	0	0	1968	900	2774	56
70	0	0	1992	900	2776	58
71	0	0	1987	900	2774	59
72	0	0	1960	900	2772	60
73	0	0	1950	904	2767	60
74	0	0	1959	904	2762	56
75	0	0	1959	904	2759	62
76	0	0	1944	907	2761	49
77	0	0	1959	906	2766	62
78	0	0	1990	907	2770	55
79	0	0	2016	906	2774	58
80	0	0	2023	905	2774	56
81	0	0	2013	904	2774	54
82	0	0	1999	905	2771	52
83	0	0	2001	903	2766	52
84	0	0	2011	902	2761	47
85	0	0	2017	900	2759	48
86	0	0	2021	899	2763	50
87	0	0	2024	900	2765	56
88	0	0	2033	899	2771	60
89	0	0	2044	899	2774	58
90	0	0	2046	900	2775	58
91	0	0	2040	900	2774	53
92	0	0	2008	900	2772	57
93	0	0	1985	900	2768	61
94	0	0	1953	901	2761	63
95	0	0	1948	905	2759	63
96	0	0	1958	905	2762	64
97	0	0	1967	905	2766	56
98	0	0	1958	905	2770	51
99	0	0	1966	904	2774	52
100	0	0	1982	906	2776	51
101	0	0	2000	905	2774	60
102	0	0	2010	904	2772	55
103	0	0	2036	903	2768	53
104	0	0	2043	902	2761	46
105	0	0	2030	900	2759	51
106	0	0	2025	898	2763	49
107	0	0	2022	900	2766	47
108	0	0	2009	898	2771	61
109	0	0	1989	897	2774	63
110	0	0	1980	899	2775	61
111	0	0	1973	899	2774	50
112	0	0	1960	901	2772	55
113	0	0	1975	903	2768	53
114	0	0	1987	903	2762	57
115	0	0	1992	904	2761	67
116	0	0	1967	901	2762	66
117	0	0	1924	902	2767	66
118	0	0	1902	906	2771	47
119	0	0	1935	907	2774	47
120	0	0	1993	905	2775	48
121	0	0	2030	903	2775	52
122	0	0	2042	903	2772	61
123	0	0	2054	903	2767	59
124	0	0	2069	902	2761	58
125	0	0	2078	900	2759	47
126	0	0	2079	899	2762	51
127	0	0	2079	898	2767	47
0	0	0	2066	897	2771	60
1	0	0	2046	896	2773	63
2	0	0	2012	896	2775	64
3	0	0	1977	897	2775	63
4	0	0	1955	899	2773	48
5	0	0	1950	901	2767	50
6	0	0	1974	903	2763	53
7	0	0	2008	903	2759	72
8	0	0	2015	904	2762	60
9	0	0	2011	907	2766	58
10	0	0	2011	905	2771	59
11	0	0	2008	905	2774	47
12	0	0	1997	904	2775	48
13	0	0	1994	903	2775	47
14	0	0	2005	903	2772	59
15	0	0	2038	901	2767	56
16	0	0	2078	901	2761	56
17	0	0	2116	900	2759	41
18	0	0	2115	901	2762	47
19	0	0	2106	898	2767	51
20	0	0	2080	896	2771	50
21	0	0	2059	898	2774	63
22	0	0	2040	895	2774	65
23	0	0	1994	896	2775	64
24	0	0	1956	897	2771	52
25	0	0	1945	900	2769	48
26	0	0	1953	901	2761	49
27	0	0	1974	904	2760	53
28	0	0	1985	902	2762	70
29	0	0	1978	905	2766	64
30	0	0	1974	904	2771	64
31	0	0	1996	904	2774	49
32	0	0	2024	904	2775	46
33	0	0	2042	904	2774	46
34	0	0	2038	903	2772	48
35	0	0	2032	901	2768	59
36	0	0	2027	900	2761	56
37	0	0	2027	899	2760	52
38	0	0	2046	899	2762	53
39	0	0	2067	898	2765	39
40	0	0	2081	897	2770	45
41	0	0	2067	895	2773	59
42	0	0	2041	893	2774	62
43	0	0	2000	896	2774	65
44	0	0	1971	899	2772	67
45	0	0	1986	901	2767	49
46	0	0	1998	901	2761	54
47	0	0	2008	902	2759	50
48	0	0	2020	895	2761	64
49	0	0	2027	904	2766	63
50	0	0	2048	904	2770	58
51	0	0	2049	904	2773	61
52	0	0	2033	901	2774	47
53	0	0	2028	900	2774	44
54	0	0	2032	903	2772	47
55	0	0	2051	900	2767	53
56	0	0	2075	899	2761	59
57	0	0	2092	898	2758	63
58	0	0	2096	898	2760	55
59	0	0	2091	897	2765	46
60	0	0	2107	897	2770	49
61	0	0	2107	897	2773	47
62	0	0	2100	897	2774	62
63	0	0	2070	896	2773	64
64	0	0	2033	897	2772	67
65	0	0	2029	900	2768	54
66	0	0	2043	902	2762	53
67	0	0	2050	902	2759	41
68	0	0	2042	903	2760	63
69	0	0	2037	903	2765	57
70	0	0	2044	903	2770	53
71	0	0	2062	903	2773	48
72	0	0	2075	905	2775	45
73	0	0	2090	900	2773	48
74	0	0	2105	901	2772	58
75	0	0	2096	902	2767	56
76	0	0	2105	900	2761	56
77	0	0	2137	899	2759	44
78	0	0	2163	895	2760	44
79	0	0	2175	896	2766	46
80	0	0	2166	895	2770	52
81	0	0	2149	896	2773	65
82	0	0	2132	895	2774	65
83	0	0	2097	894	2773	64
84	0	0	2051	895	2772	53
85	0	0	2015	897	2766	52
86	0	0	2007	901	2761	51
87	0	0	2023	901	2758	52
88	0	0	2037	895	2760	72
89	0	0	2055	901	2765	65
90	0	0	2060	903	2769	60
91	0	0	2058	903	2773	49
92	0	0	2065	902	2773	46
93	0	0	2083	895	2772	48
94	0	0	2108	900	2771	51
95	0	0	2126	901	2766	61
96	0	0	2138	899	2760	60
97	0	0	2142	900	2757	61
98	0	0	2149	897	2760	49
99	0	0	2131	894	2764	50
100	0	0	2105	895	2769	50
101	0	0	2085	893	2773	66
102	0	0	2051	894	2774	66
103	0	0	2027	895	2773	65
104	0	0	2019	899	2771	63
105	0	0	2025	899	2768	51
106	0	0	2025	898	2763	50
107	0	0	2015	901	2759	54
108	0	0	2022	902	2761	65
109	0	0	2022	902	2766	65
110	0	0	2004	901	2771	61
111	0	0	1990	903	2774	61
112	0	0	2004	903	2776	46
113	0	0	2040	902	2775	45
114	0	0	2070	901	2772	49
115	0	0	2094	900	2767	55
116	0	0	2111	899	2762	60
117	0	0	2136	898	2759	65
118	0	0	2162	894	2762	42
119	0	0	2146	893	2766	47
120	0	0	2106	892	2770	50
121	0	0	2058	892	2774	50
122	0	0	2016	893	2774	61
123	0	0	1983	895	2774	63
124	0	0	1975	898	2772	67
125	0	0	1980	900	2768	53
126	0	0	2006	899	2762	53
127	0	0	2023	901	2759	49
0	0	0	2016	900	2761	49
1	0	0	2001	902	2766	65
2	0	0	2005	902	2770	60
3	0	0	1985	900	2773	62
4	0	0	1994	902	2775	50
5	0	0	2008	901	2774	47
6	0	0	2016	900	2771	47
7	0	0	2042	900	2767	55
8	0	0	2057	900	2760	57
9	0	0	2092	898	2758	58
10	0	0	2128	896	2759	66
11	0	0	2139	894	2764	52
12	0	0	2115	893	2769	47
13	0	0	2076	893	2773	52
14	0	0	2043	893	2774	57
15	0	0	2017	894	2774	59
16	0	0	2003	897	2772	62
17	0	0	1996	899	2768	63
18	0	0	1975	897	2761	57
19	0	0	1953	898	2759	52
20	0	0	1945	901	2761	47
21	0	0	1954	901	2765	64
22	0	0	1969	900	2770	59
23	0	0	2000	901	2774	58
24	0	0	2001	901	2775	60
25	0	0	2011	901	2774	54
26	0	0	2018	900	2772	50
27	0	0	2031	899	2768	51
28	0	0	2034	898	2761	53
29	0	0	2030	897	2760	55
30	0	0	2029	897	2762	59
31	0	0	2024	895	2766	57
32	0	0	2018	895	2771	53
33	0	0	2018	894	2773	54
34	0	0	2015	895	2775	54
35	0	0	2003	894	2775	57
36	0	0	1975	894	2772	60
37	0	0	1952	896	2768	61
38	0	0	1946	898	2761	57
39	0	0	1934	897	2759	56
40	0	0	1930	901	2762	59
41	0	0	1930	901	2767	55
42	0	0	1941	902	2770	52
43	0	0	1952	901	2772	51
44	0	0	1960	901	2775	54
45	0	0	1978	900	2774	57
46	0	0	2004	900	2773	54
47	0	0	2031	899	2768	50
48	0	0	2057	898	2761	48
49	0	0	2059	896	2759	53
50	0	0	2032	892	2761	57
51	0	0	1992	892	2765	60
52	0	0	1985	895	2770	56
53	0	0	2007	894	2772	55
54	0	0	2021	895	2774	54
55	0	0	2017	895	2774	55
56	0	0	1993	894	2771	61
57	0	0	1949	894	2767	59
58	0	0	1930	898	2761	58
59	0	0	1934	899	2757	62
60	0	0	1955	901	2760	55
61	0	0	1972	901	2765	55
62	0	0	1979	901	2769	53
63	0	0	1975	901	2773	53
64	0	0	1965	901	2773	57
65	0	0	1970	899	2774	56
66	0	0	1979	900	2772	55
67	0	0	1987	899	2767	49
68	0	0	1997	897	2761	47
69	0	0	2011	896	2758	50
70	0	0	2020	895	2760	57
71	0	0	2025	894	2764	46
72	0	0	2036	894	2769	56
73	0	0	2052	894	2772	62
74	0	0	2048	893	2775	58
75	0	0	2010	893	2775	53
76	0	0	1961	893	2772	56
77	0	0	1913	895	2769	59
78	0	0	1877	897	2761	55
79	0	0	1887	899	2759	59
80	0	0	1907	899	2763	61
81	0	0	1919	900	2765	52
82	0	0	1946	901	2770	48
83	0	0	1991	901	2774	48
84	0	0	2039	900	2775	50
85	0	0	2038	898	2775	50
86	0	0	2001	895	2772	59
87	0	0	1985	896	2768	54
88	0	0	1972	897	2761	53
89	0	0	1974	895	2759	50
90	0	0	1984	896	2761	51
91	0	0	1997	894	2764	55
92	0	0	2012	893	2769	58
93	0	0	2000	891	2773	62
94	0	0	1977	892	2775	64
95	0	0	1958	894	2775	62
96	0	0	1946	896	2772	53
97	0	0	1962	897	2768	54
98	0	0	1984	898	2762	53
99	0	0	1987	899	2759	65
100	0	0	1985	899	2762	65
101	0	0	1965	897	2765	69
102	0	0	1951	898	2770	57
103	0	0	1927	898	2772	46
104	0	0	1911	899	2775	49
105	0	0	1922	899	2775	48
106	0	0	1947	899	2773	59
107	0	0	1975	898	2768	60
108	0	0	2009	896	2762	60
109	0	0	2028	895	2759	39
110	0	0	2049	894	2761	47
111	0	0	2064	894	2766	45
112	0	0	2052	892	2771	44
113	0	0	2039	892	2773	60
114	0	0	2007	890	2775	64
115	0	0	1974	891	2776	66
116	0	0	1955	893	2773	51
117	0	0	1949	896	2769	48
118	0	0	1950	898	2763	49
119	0	0	1965	898	2760	56
120	0	0	1975	897	2763	64
121	0	0	1958	899	2766	60
122	0	0	1957	898	2770	58
123	0	0	1960	900	2773	49
124	0	0	1954	900	2775	50
125	0	0	1954	897	2776	48
126	0	0	1962	898	2774	45
127	0	0	1991	897	2769	60
0	0	0	2029	896	2763	57
1	0	0	2051	895	2760	53
2	0	0	2061	894	2761	43
3	0	0	2062	894	2766	46
4	0	0	2051	892	2771	48
5	0	0	2029	890	2773	55
6	0	0	2008	891	2776	63
7	0	0	1998	894	2775	63
8	0	0	1993	894	2773	67
9	0	0	1986	896	2770	53
10	0	0	1975	897	2763	51
11	0	0	1972	898	2760	45
12	0	0	1971	897	2763	65
13	0	0	1980	898	2767	63
14	0	0	1987	899	2771	60
15	0	0	1979	899	2775	60
16	0	0	1984	899	2776	50
17	0	0	1989	898	2775	47
18	0	0	1984	898	2774	47
19	0	0	2009	896	2769	54
20	0	0	2042	896	2763	53
21	0	0	2061	894	2760	54
22	0	0	2052	892	2762	52
23	0	0	2031	891	2767	48
24	0	0	2009	890	2771	49
25	0	0	1988	892	2774	52
26	0	0	2000	892	2776	58
27	0	0	2021	892	2775	59
28	0	0	1999	893	2773	61
29	0	0	2005	895	2769	56
30	0	0	2031	896	2763	59
31	0	0	2049	897	2761	55
32	0	0	2045	897	2762	50
33	0	0	2023	896	2767	56
34	0	0	1989	895	2770	56
35	0	0	1967	895	2773	56
36	0	0	1955	898	2775	56
37	0	0	1954	898	2775	56
38	0	0	1971	897	2773	49
39	0	0	1996	896	2769	54
40	0	0	2011	895	2761	53
41	0	0	2030	894	2760	57
42	0	0	2043	891	2761	53
43	0	0	2055	892	2766	50
44	0	0	2058	892	2771	53
45	0	0	2033	889	2773	51
46	0	0	2018	890	2776	58
47	0	0	1999	893	2776	60
48	0	0	1977	892	2773	63
49	0	0	1959	894	2770	55
50	0	0	1963	896	2763	55
51	0	0	1979	897	2760	55
52	0	0	2029	896	2763	55
53	0	0	2073	899	2767	58
54	0	0	2055	895	2771	58
55	0	0	2016	896	2773	57
56	0	0	1996	896	2777	54
57	0	0	1990	898	2776	55
58	0	0	1992	899	2774	50
59	0	0	1996	897	2770	51
60	0	0	2011	894	2763	50
61	0	0	2045	893	2759	50
62	0	0	2080	890	2763	56
63	0	0	2100	892	2767	52
64	0	0	2080	889	2771	59
65	0	0	2027	888	2775	56
66	0	0	1972	888	2776	53
67	0	0	1935	890	2775	53
68	0	0	1923	895	2774	62
69	0	0	1934	894	2770	58
70	0	0	1941	896	2764	62
71	0	0	1928	896	2762	64
72	0	0	1939	894	2763	50
73	0	0	1958	897	2767	47
74	0	0	1963	899	2771	55
75	0	0	1968	899	2774	55
76	0	0	1995	897	2776	55
77	0	0	2033	897	2776	60
78	0	0	2063	898	2774	53
79	0	0	2074	895	2769	50
80	0	0	2087	894	2764	47
81	0	0	2105	892	2760	53
82	0	0	2097	891	2762	52
83	0	0	2078	888	2766	53
84	0	0	2041	888	2771	57
85	0	0	2025	891	2774	59
86	0	0	2025	891	2777	58
87	0	0	2000	891	2776	52
88	0	0	1978	892	2774	59
89	0	0	1969	894	2770	59
90	0	0	1969	894	2764	61
91	0	0	1966	896	2761	63
92	0	0	1981	896	2763	53
93	0	0	1997	898	2766	64
94	0	0	2008	897	2771	51
95	0	0	2002	897	2774	50
96	0	0	1991	897	2776	54
97	0	0	1995	898	2776	61
98	0	0	2019	896	2774	57
99	0	0	2066	895	2769	51
100	0	0	2101	894	2765	46
101	0	0	2122	893	2760	42
102	0	0	2137	892	2762	54
103	0	0	2130	889	2767	44
104	0	0	2101	886	2771	60
105	0	0	2064	888	2774	61
106	0	0	2035	889	2776	60
107	0	0	2015	890	2776	52
108	0	0	2003	891	2773	53
109	0	0	1988	892	2770	53
110	0	0	1980	896	2764	55
111	0	0	1983	896	2760	61
112	0	0	1967	894	2763	60
113	0	0	1958	898	2767	62
114	0	0	1986	896	2771	48
115	0	0	2029	897	2775	47
116	0	0	2055	895	2776	47
117	0	0	2066	896	2776	48
118	0	0	2064	894	2774	57
119	0	0	2037	892	2770	51
120	0	0	2034	893	2764	54
121	0	0	2062	893	2761	45
122	0	0	2103	892	2763	53
123	0	0	2111	891	2766	42
124	0	0	2083	886	2771	60
125	0	0	2060	889	2775	62
126	0	0	2062	888	2776	63
127	0	0	2071	891	2776	66
0	0	0	2076	891	2775	55
1	0	0	2030	889	2770	49
2	0	0	1985	892	2764	52
3	0	0	1979	894	2761	63
4	0	0	1977	896	2763	68
5	0	0	1974	895	2767	62
6	0	0	1962	897	2771	57
7	0	0	1959	897	2775	49
8	0	0	1967	897	2777	46
9	0	0	1986	893	2776	44
10	0	0	2007	893	2774	58
11	0	0	2016	894	2770	60
12	0	0	2031	893	2764	60
13	0	0	2042	891	2761	47
14	0	0	2058	891	2763	43
15	0	0	2074	888	2767	47
16	0	0	2072	891	2772	47
17	0	0	2068	890	2774	59
18	0	0	2065	889	2776	66
19	0	0	2065	891	2776	63
20	0	0	2050	888	2775	50
21	0	0	2018	890	2771	48
22	0	0	1992	892	2765	51
23	0	0	1962	889	2761	51
24	0	0	1930	893	2763	58
25	0	0	1928	894	2767	60
26	0	0	1962	896	2771	56
27	0	0	2006	896	2775	48
28	0	0	2049	896	2776	47
29	0	0	2072	896	2776	47
30	0	0	2087	895	2774	58
31	0	0	2086	895	2769	60
32	0	0	2081	893	2764	57
33	0	0	2100	891	2760	45
34	0	0	2096	890	2762	44
35	0	0	2071	885	2767	53
36	0	0	2040	888	2771	44
37	0	0	2025	889	2774	64
38	0	0	2018	889	2776	66
39	0	0	1998	889	2777	66
40	0	0	1982	887	2775	49
41	0	0	1971	892	2771	49
42	0	0	1969	893	2765	49
43	0	0	1987	893	2761	54
44	0	0	1995	895	2762	57
45	0	0	2007	896	2767	71
46	0	0	2026	895	2771	63
47	0	0	2041	898	2775	51
48	0	0	2038	894	2776	48
49	0	0	2041	894	2776	48
50	0	0	2052	891	2775	45
51	0	0	2062	894	2770	56
52	0	0	2079	892	2764	56
53	0	0	2082	892	2760	57
54	0	0	2076	891	2762	47
55	0	0	2076	887	2767	40
56	0	0	2075	888	2771	44
57	0	0	2085	889	2774	58
58	0	0	2093	892	2776	65
59	0	0	2065	887	2777	66
60	0	0	2021	885	2775	65
61	0	0	1995	891	2771	52
62	0	0	1998	893	2764	48
63	0	0	2014	894	2762	51
64	0	0	2023	896	2763	60
65	0	0	2021	894	2767	56
66	0	0	2020	896	2772	62
67	0	0	2019	895	2775	59
68	0	0	2021	896	2777	51
69	0	0	2019	895	2777	45
70	0	0	2018	894	2775	44
71	0	0	2025	895	2771	55
72	0	0	2050	893	2765	57
73	0	0	2077	889	2761	59
74	0	0	2098	890	2763	55
75	0	0	2114	887	2767	54
76	0	0	2117	889	2771	48
77	0	0	2088	884	2775	49
78	0	0	2051	885	2777	61
79	0	0	2029	888	2775	62
80	0	0	2013	887	2775	66
81	0	0	2019	893	2771	53
82	0	0	2033	892	2766	53
83	0	0	2045	895	2761	51
84	0	0	2051	894	2762	55
85	0	0	2055	897	2767	61
86	0	0	2027	893	2771	61
87	0	0	2010	895	2774	58
88	0	0	2014	895	2776	50
89	0	0	2048	894	2775	49
90	0	0	2085	893	2774	43
91	0	0	2091	892	2770	54
92	0	0	2075	892	2764	56
93	0	0	2085	890	2761	55
94	0	0	2090	890	2762	59
95	0	0	2087	889	2766	56
96	0	0	2082	891	2771	52
97	0	0	2065	887	2774	48
98	0	0	2036	886	2776	59
99	0	0	2015	886	2776	59
100	0	0	1995	887	2774	64
101	0	0	1975	890	2769	64
102	0	0	1961	892	2764	59
103	0	0	1965	893	2759	53
104	0	0	1986	894	2762	57
105	0	0	2016	896	2766	48
106	0	0	2042	895	2771	56
107	0	0	2051	895	2774	56
108	0	0	2052	894	2776	57
109	0	0	2057	893	2776	52
110	0	0	2079	893	2774	48
111	0	0	2108	893	2771	47
112	0	0	2144	891	2765	52
113	0	0	2161	889	2761	51
114	0	0	2157	889	2763	57
115	0	0	2140	887	2767	61
116	0	0	2111	885	2771	54
117	0	0	2077	886	2775	57
118	0	0	2053	886	2776	59
119	0	0	2036	886	2777	54
120	0	0	2013	886	2775	58
121	0	0	2003	889	2771	58
122	0	0	1996	892	2766	61
123	0	0	2007	893	2761	60
124	0	0	2023	892	2763	55
125	0	0	2036	896	2766	60
126	0	0	2043	894	2771	54
127	0	0	2018	893	2774	54
0	0	0	2031	894	2777	54
1	0	0	2074	895	2777	60
2	0	0	2098	891	2774	55
3	0	0	2088	892	2771	51
4	0	0	2083	891	2765	45
5	0	0	2104	890	2761	47
6	0	0	2135	887	2763	56
7	0	0	2151	887	2767	50
8	0	0	2136	884	2771	59
9	0	0	2109	885	2774	62
10	0	0	2091	887	2776	58
11	0	0	2080	887	2777	54
12	0	0	2050	886	2775	56
13	0	0	2023	888	2771	59
14	0	0	2011	891	2765	63
15	0	0	2021	892	2761	59
16	0	0	2044	891	2763	54
17	0	0	2061	893	2767	49
18	0	0	2069	893	2771	52
19	0	0	2073	894	2776	51
20	0	0	2073	894	2776	55
21	0	0	2076	893	2776	58
22	0	0	2082	896	2775	56
23	0	0	2098	890	2771	54
24	0	0	2113	890	2765	47
25	0	0	2121	889	2761	48
26	0	0	2125	887	2762	48
27	0	0	2125	885	2766	55
28	0	0	2132	888	2771	63
29	0	0	2141	888	2775	63
30	0	0	2137	887	2776	58
31	0	0	2115	885	2777	53
32	0	0	2063	888	2775	56
33	0	0	2042	890	2771	55
34	0	0	2040	891	2765	60
35	0	0	2021	890	2762	64
36	0	0	2009	890	2763	58
37	0	0	2019	896	2767	56
38	0	0	2035	894	2772	53
39	0	0	2040	894	2774	51
40	0	0	2049	892	2776	50
41	0	0	2081	893	2777	48
42	0	0	2124	893	2775	55
43	0	0	2147	892	2771	55
44	0	0	2146	890	2765	57
45	0	0	2139	889	2761	44
46	0	0	2143	888	2762	41
47	0	0	2143	888	2766	44
48	0	0	2135	887	2771	59
49	0	0	2103	884	2775	64
50	0	0	2060	885	2776	63
51	0	0	2054	888	2776	64
52	0	0	2043	888	2775	51
53	0	0	2017	887	2771	53
54	0	0	2002	891	2766	53
55	0	0	2011	890	2761	63
56	0	0	2026	891	2762	61
57	0	0	2042	893	2766	63
58	0	0	2063	892	2771	60
59	0	0	2069	893	2774	45
60	0	0	2088	893	2776	49
61	0	0	2118	891	2777	44
62	0	0	2127	890	2775	63
63	0	0	2137	893	2771	59
64	0	0	2155	890	2764	58
65	0	0	2193	889	2761	46
66	0	0	2191	887	2763	39
67	0	0	2165	884	2767	54
68	0	0	2145	885	2771	47
69	0	0	2132	886	2775	61
70	0	0	2124	887	2776	64
71	0	0	2104	885	2776	66
72	0	0	2099	888	2776	49
73	0	0	2086	888	2772	51
74	0	0	2078	888	2766	49
75	0	0	2063	889	2761	49
76	0	0	2048	891	2763	61
77	0	0	2050	892	2767	74
78	0	0	2070	893	2771	65
79	0	0	2087	892	2775	48
80	0	0	2100	893	2777	49
81	0	0	2118	896	2777	47
82	0	0	2135	892	2776	48
83	0	0	2140	890	2772	57
84	0	0	2130	889	2765	59
85	0	0	2136	889	2762	61
86	0	0	2153	887	2763	50
87	0	0	2160	888	2767	42
88	0	0	2148	886	2771	49
89	0	0	2154	886	2774	58
90	0	0	2158	885	2775	61
91	0	0	2142	885	2776	63
92	0	0	2128	888	2774	68
93	0	0	2121	887	2771	55
94	0	0	2086	886	2764	49
95	0	0	2056	888	2759	49
96	0	0	2033	888	2761	60
97	0	0	2009	889	2766	58
98	0	0	2002	892	2769	61
99	0	0	2028	892	2773	61
100	0	0	2080	892	2776	53
101	0	0	2120	892	2776	49
102	0	0	2141	892	2774	45
103	0	0	2130	888	2771	53
104	0	0	2117	888	2764	51
105	0	0	2119	887	2759	58
106	0	0	2133	887	2761	51
107	0	0	2184	886	2765	47
108	0	0	2204	885	2770	49
109	0	0	2180	883	2773	49
110	0	0	2162	886	2775	58
111	0	0	2148	888	2776	62
112	0	0	2140	886	2774	70
113	0	0	2101	884	2771	55
114	0	0	2062	886	2765	56
115	0	0	2040	888	2761	53
116	0	0	2040	891	2762	53
117	0	0	2055	890	2765	55
118	0	0	2063	891	2770	60
119	0	0	2084	892	2773	55
120	0	0	2117	891	2775	52
121	0	0	2161	890	2775	50
122	0	0	2189	890	2774	51
123	0	0	2196	888	2770	52
124	0	0	2188	888	2764	43
125	0	0	2169	887	2759	53
126	0	0	2163	886	2761	49
127	0	0	2149	883	2765	47
0	0	0	2132	886	2770	49
1	0	0	2121	884	2774	51
2	0	0	2092	884	2775	59
3	0	0	2091	886	2775	58
4	0	0	2107	887	2774	65
5	0	0	2122	889	2770	55
6	0	0	2105	887	2764	53
7	0	0	2090	889	2760	53
8	0	0	2083	892	2761	48
9	0	0	2086	891	2764	58
10	0	0	2091	889	2769	60
11	0	0	2103	891	2772	60
12	0	0	2129	891	2775	53
13	0	0	2151	891	2775	51
14	0	0	2168	889	2773	51
15	0	0	2189	892	2770	52
16	0	0	2200	884	2764	52
17	0	0	2191	887	2759	52
18	0	0	2176	885	2760	53
19	0	0	2159	883	2764	56
20	0	0	2150	885	2769	52
21	0	0	2144	886	2772	52
22	0	0	2132	884	2776	55
23	0	0	2138	883	2775	56
24	0	0	2153	887	2774	58
25	0	0	2160	886	2770	60
26	0	0	2156	888	2764	62
27	0	0	2153	889	2760	55
28	0	0	2143	889	2761	59
29	0	0	2116	887	2765	58
30	0	0	2095	890	2769	53
31	0	0	2091	891	2773	56
32	0	0	2095	890	2775	57
33	0	0	2092	888	2776	56
34	0	0	2075	887	2774	53
35	0	0	2085	887	2771	50
36	0	0	2108	886	2765	54
37	0	0	2143	886	2760	48
38	0	0	2158	884	2761	46
39	0	0	2171	883	2765	60
40	0	0	2179	884	2770	57
41	0	0	2187	885	2773	56
42	0	0	2185	884	2776	56
43	0	0	2147	879	2776	52
44	0	0	2097	883	2774	56
45	0	0	2080	886	2770	62
46	0	0	2087	888	2764	62
47	0	0	2095	889	2761	61
48	0	0	2100	888	2761	58
49	0	0	2113	887	2765	59
50	0	0	2109	891	2770	49
51	0	0	2115	891	2772	50
52	0	0	2134	890	2775	53
53	0	0	2161	889	2775	59
54	0	0	2178	889	2773	56
55	0	0	2193	889	2769	53
56	0	0	2208	884	2765	43
57	0	0	2203	887	2759	44
58	0	0	2174	882	2760	40
59	0	0	2150	884	2765	56
60	0	0	2150	884	2769	60
61	0	0	2169	885	2773	63
62	0	0	2171	885	2774	60
63	0	0	2176	885	2776	50
64	0	0	2171	887	2775	52
65	0	0	2147	884	2771	53
66	0	0	2136	887	2766	54
67	0	0	2109	885	2760	62
68	0	0	2095	889	2761	65
69	0	0	2108	890	2766	58
70	0	0	2114	890	2770	49
71	0	0	2127	890	2774	47
72	0	0	2132	889	2775	47
73	0	0	2148	889	2776	46
74	0	0	2184	889	2775	59
75	0	0	2200	888	2771	58
76	0	0	2217	887	2766	55
77	0	0	2226	887	2760	43
78	0	0	2223	885	2761	40
79	0	0	2210	887	2765	50
80	0	0	2201	884	2769	59
81	0	0	2194	884	2773	63
82	0	0	2191	882	2775	66
83	0	0	2187	883	2775	64
84	0	0	2157	883	2774	52
85	0	0	2099	883	2771	49
86	0	0	2052	885	2765	52
87	0	0	2060	888	2760	67
88	0	0	2082	887	2761	61
89	0	0	2094	887	2764	71
90	0	0	2104	890	2769	60
91	0	0	2095	892	2774	47
92	0	0	2099	889	2775	48
93	0	0	2122	890	2776	45
94	0	0	2134	890	2774	59
95	0	0	2153	888	2770	56
96	0	0	2172	886	2764	61
97	0	0	2183	885	2760	47
98	0	0	2189	883	2761	43
99	0	0	2188	884	2765	47
100	0	0	2181	883	2769	46
101	0	0	2169	882	2773	55
102	0	0	2155	883	2775	61
103	0	0	2146	879	2775	63
104	0	0	2131	882	2774	53
105	0	0	2112	886	2770	49
106	0	0	2092	884	2765	53
107	0	0	2063	887	2761	50
108	0	0	2038	888	2761	63
109	0	0	2029	888	2765	63
110	0	0	2048	888	2770	63
111	0	0	2078	889	2773	47
112	0	0	2103	890	2775	48
113	0	0	2115	889	2776	48
114	0	0	2099	887	2774	60
115	0	0	2094	888	2770	59
116	0	0	2112	886	2764	59
117	0	0	2158	885	2759	44
118	0	0	2163	880	2761	46
119	0	0	2143	881	2764	47
120	0	0	2146	883	2769	48
121	0	0	2148	883	2773	61
122	0	0	2127	881	2775	62
123	0	0	2077	880	2776	65
124	0	0	2029	882	2774	52
125	0	0	2017	886	2772	50
126	0	0	2032	887	2764	47
127	0	0	2040	888	2761	48
0	0	0	2035	888	2761	68
1	0	0	2052	885	2765	59
2	0	0	2095	890	2770	62
3	0	0	2147	889	2773	48
4	0	0	2115	885	2776	51
5	0	0	2089	888	2776	48
6	0	0	2082	888	2775	47
7	0	0	2097	887	2771	55
8	0	0	2169	890	2765	51
9	0	0	2201	884	2760	56
10	0	0	2168	881	2762	55
11	0	0	2159	882	2766	53
12	0	0	2148	881	2770	48
13	0	0	2117	879	2774	57
14	0	0	2096	880	2775	59
15	0	0	2077	882	2776	62
16	0	0	2071	885	2774	64
17	0	0	2061	884	2771	55
18	0	0	2060	886	2766	49
19	0	0	2029	883	2761	53
20	0	0	1993	883	2762	56
21	0	0	1987	888	2765	57
22	0	0	1999	888	2769	59
23	0	0	2023	888	2773	55
24	0	0	2044	888	2776	55
25	0	0	2075	888	2776	52
26	0	0	2090	884	2775	47
27	0	0	2092	885	2772	54
28	0	0	2100	885	2765	49
