# bioPlux Text File Format
# Version: 1
# StartDateTime: 2011-07-16 09:32:10
# SamplingFrequency: 1000
# SampledChannels: 1 2 3 4
# SamplingResolution: 12
# AcquiringDevice: 00:07:80:42:0F:8B
# EndOfHeader
0	0	0	1996	10	3776	79
1	0	0	2132	9	3776	81
2	0	0	2287	9	3776	84
3	0	0	2443	9	3775	88
4	0	0	2550	7	3776	83
5	0	0	2605	10	3776	85
6	0	0	2604	7	3776	83
7	0	0	2524	7	3777	84
8	0	0	2384	6	3775	86
9	0	0	2219	5	3776	86
10	0	0	2035	4	3777	84
11	0	0	1861	6	3776	82
12	0	0	1746	4	3777	88
13	0	0	1661	6	3776	86
14	0	0	1605	6	3776	87
15	0	0	1580	8	3776	88
16	0	0	1583	10	3777	81
17	0	0	1632	10	3776	80
18	0	0	1724	10	3777	80
19	0	0	1846	9	3776	85
20	0	0	1988	9	3776	87
21	0	0	2122	9	3776	85
22	0	0	2283	8	3777	81
23	0	0	2440	11	3777	81
24	0	0	2554	10	3776	83
25	0	0	2610	9	3776	85
26	0	0	2610	9	3777	84
27	0	0	2533	6	3776	84
28	0	0	2399	6	3777	84
29	0	0	2235	6	3778	84
30	0	0	2053	6	3775	84
31	0	0	1880	7	3777	85
32	0	0	1766	6	3778	85
33	0	0	1682	6	3776	85
34	0	0	1625	8	3777	85
35	0	0	1599	4	3778	82
36	0	0	1604	10	3778	87
37	0	0	1650	9	3777	88
38	0	0	1740	10	3777	86
39	0	0	1853	9	3776	85
40	0	0	1989	9	3778	80
41	0	0	2123	11	3777	79
42	0	0	2280	9	3778	79
43	0	0	2434	8	3776	84
44	0	0	2542	9	3776	85
45	0	0	2591	9	3777	84
46	0	0	2598	9	3778	80
47	0	0	2522	7	3778	82
48	0	0	2390	6	3776	82
49	0	0	2226	6	3775	85
50	0	0	2046	5	3777	87
51	0	0	1877	6	3778	83
52	0	0	1757	6	3776	82
53	0	0	1675	9	3776	84
54	0	0	1616	6	3775	87
55	0	0	1586	6	3777	87
56	0	0	1594	9	3778	85
57	0	0	1650	8	3778	83
58	0	0	1739	9	3776	79
59	0	0	1851	10	3777	77
60	0	0	1979	9	3777	84
61	0	0	2122	10	3778	82
62	0	0	2276	11	3778	84
63	0	0	2435	9	3778	87
64	0	0	2545	9	3777	80
65	0	0	2596	10	3779	80
66	0	0	2604	8	3778	85
67	0	0	2528	4	3778	87
68	0	0	2395	5	3779	86
69	0	0	2233	6	3777	85
70	0	0	2057	5	3779	84
71	0	0	1892	5	3779	85
72	0	0	1776	8	3778	87
73	0	0	1696	6	3779	84
74	0	0	1640	6	3777	83
75	0	0	1613	7	3779	81
76	0	0	1613	12	3778	82
77	0	0	1659	10	3778	87
78	0	0	1743	9	3776	85
79	0	0	1856	9	3779	85
80	0	0	1989	7	3779	85
81	0	0	2117	13	3778	79
82	0	0	2270	9	3779	83
83	0	0	2418	9	3777	79
84	0	0	2517	8	3778	85
85	0	0	2570	8	3779	85
86	0	0	2577	10	3778	82
87	0	0	2505	6	3778	83
88	0	0	2377	5	3779	84
89	0	0	2220	8	3778	85
90	0	0	2048	6	3778	87
91	0	0	1886	7	3778	87
92	0	0	1773	7	3778	86
93	0	0	1693	8	3777	83
94	0	0	1635	7	3778	85
95	0	0	1610	8	3778	87
96	0	0	1617	13	3778	86
97	0	0	1662	11	3779	86
98	0	0	1742	10	3780	82
99	0	0	1850	9	3778	79
100	0	0	1989	8	3779	78
101	0	0	2117	11	3777	86
102	0	0	2265	10	3779	87
103	0	0	2414	10	3779	83
104	0	0	2520	10	3778	81
105	0	0	2568	10	3779	81
106	0	0	2575	11	3779	85
107	0	0	2500	4	3779	87
108	0	0	2369	6	3780	85
109	0	0	2215	6	3779	85
110	0	0	2044	5	3779	83
111	0	0	1893	7	3779	84
112	0	0	1781	5	3780	85
113	0	0	1698	6	3778	87
114	0	0	1644	5	3778	85
115	0	0	1618	8	3779	82
116	0	0	1619	10	3779	80
117	0	0	1669	10	3780	83
118	0	0	1751	11	3780	86
119	0	0	1863	10	3779	85
120	0	0	1989	10	3779	85
121	0	0	2113	8	3779	79
122	0	0	2264	10	3780	81
123	0	0	2413	9	3780	80
124	0	0	2515	9	3779	81
125	0	0	2563	9	3779	84
126	0	0	2566	9	3780	85
127	0	0	2491	6	3780	85
0	0	0	2364	7	3782	85
1	0	0	2216	5	3781	85
2	0	0	2048	9	3779	84
3	0	0	1896	3	3780	83
4	0	0	1791	6	3780	85
5	0	0	1713	7	3780	84
6	0	0	1656	6	3779	84
7	0	0	1632	7	3779	85
8	0	0	1630	9	3780	85
9	0	0	1671	10	3781	87
10	0	0	1749	10	3781	81
11	0	0	1856	10	3780	79
12	0	0	1988	10	3779	80
13	0	0	2112	11	3780	81
14	0	0	2258	10	3781	83
15	0	0	2403	10	3782	85
16	0	0	2506	9	3780	84
17	0	0	2548	10	3780	81
18	0	0	2551	7	3780	82
19	0	0	2478	5	3781	85
20	0	0	2354	6	3781	86
21	0	0	2208	6	3782	85
22	0	0	2048	7	3780	84
23	0	0	1899	7	3780	85
24	0	0	1792	7	3781	84
25	0	0	1718	7	3783	84
26	0	0	1662	6	3780	85
27	0	0	1634	7	3777	83
28	0	0	1634	9	3779	83
29	0	0	1681	11	3781	80
30	0	0	1760	9	3782	80
31	0	0	1864	10	3782	85
32	0	0	1991	10	3780	85
33	0	0	2110	10	3780	86
34	0	0	2254	10	3780	80
35	0	0	2399	8	3782	80
36	0	0	2494	9	3780	80
37	0	0	2535	9	3781	86
38	0	0	2540	8	3782	85
39	0	0	2463	4	3782	86
40	0	0	2341	6	3782	84
41	0	0	2200	7	3784	85
42	0	0	2037	6	3778	87
43	0	0	1893	6	3780	87
44	0	0	1798	7	3782	86
45	0	0	1728	6	3781	84
46	0	0	1672	6	3781	81
47	0	0	1645	8	3781	84
48	0	0	1647	9	3781	87
49	0	0	1684	11	3782	88
50	0	0	1767	10	3782	86
51	0	0	1869	9	3781	79
52	0	0	1990	10	3782	79
53	0	0	2110	9	3783	79
54	0	0	2255	8	3782	81
55	0	0	2390	10	3781	83
56	0	0	2483	10	3781	86
57	0	0	2523	11	3782	84
58	0	0	2530	6	3783	82
59	0	0	2456	6	3783	81
60	0	0	2340	7	3783	83
61	0	0	2199	5	3782	86
62	0	0	2039	6	3782	86
63	0	0	1895	6	3781	87
64	0	0	1804	4	3783	81
65	0	0	1733	6	3783	86
66	0	0	1683	7	3783	85
67	0	0	1659	4	3783	83
68	0	0	1656	9	3783	81
69	0	0	1694	8	3783	79
70	0	0	1768	11	3785	80
71	0	0	1868	10	3784	81
72	0	0	1986	10	3782	85
73	0	0	2108	9	3782	87
74	0	0	2246	11	3783	86
75	0	0	2378	9	3782	77
76	0	0	2464	9	3782	80
77	0	0	2504	9	3780	83
78	0	0	2513	7	3783	83
79	0	0	2443	7	3784	84
80	0	0	2326	6	3783	83
81	0	0	2185	6	3783	84
82	0	0	2033	6	3785	83
83	0	0	1898	6	3784	85
84	0	0	1804	6	3783	87
85	0	0	1740	6	3784	80
86	0	0	1690	6	3783	82
87	0	0	1666	7	3784	88
88	0	0	1669	6	3785	81
89	0	0	1704	11	3784	84
90	0	0	1776	10	3783	86
91	0	0	1880	10	3783	86
92	0	0	1993	9	3783	79
93	0	0	2105	8	3783	80
94	0	0	2244	11	3784	80
95	0	0	2391	9	3786	80
96	0	0	2477	9	3783	83
97	0	0	2517	10	3783	83
98	0	0	2520	5	3784	85
99	0	0	2448	5	3784	83
100	0	0	2328	6	3783	84
101	0	0	2190	6	3785	87
102	0	0	2040	7	3783	86
103	0	0	1902	5	3783	86
104	0	0	1811	6	3784	84
105	0	0	1746	5	3783	82
106	0	0	1697	6	3783	87
107	0	0	1676	6	3783	87
108	0	0	1675	7	3783	85
109	0	0	1713	8	3785	84
110	0	0	1782	10	3784	80
111	0	0	1880	10	3784	79
112	0	0	1998	10	3784	80
113	0	0	2118	11	3784	85
114	0	0	2256	9	3785	88
115	0	0	2384	10	3784	88
116	0	0	2472	10	3784	80
117	0	0	2512	8	3784	85
118	0	0	2512	7	3783	83
119	0	0	2441	7	3785	90
120	0	0	2321	8	3783	86
121	0	0	2189	6	3784	87
122	0	0	2038	6	3784	84
123	0	0	1905	7	3784	82
124	0	0	1816	7	3784	88
125	0	0	1750	6	3787	83
126	0	0	1704	6	3788	87
127	0	0	1682	6	3784	83
0	0	0	1681	7	3783	79
1	0	0	1721	9	3786	80
2	0	0	1790	9	3784	88
3	0	0	1884	10	3785	87
4	0	0	1996	10	3784	86
5	0	0	2105	8	3785	80
6	0	0	2245	10	3786	80
7	0	0	2375	11	3784	79
8	0	0	2458	8	3786	83
9	0	0	2492	9	3786	88
10	0	0	2496	7	3785	85
11	0	0	2427	5	3786	85
12	0	0	2315	6	3785	84
13	0	0	2179	5	3786	86
14	0	0	2034	6	3783	86
15	0	0	1902	6	3785	82
16	0	0	1812	6	3786	84
17	0	0	1747	6	3784	84
18	0	0	1697	8	3785	83
19	0	0	1682	8	3786	88
20	0	0	1680	11	3785	86
21	0	0	1716	10	3785	87
22	0	0	1786	10	3785	83
23	0	0	1878	11	3785	80
24	0	0	1998	10	3787	76
25	0	0	2109	15	3786	81
26	0	0	2248	9	3786	87
27	0	0	2379	9	3785	88
28	0	0	2465	8	3786	85
29	0	0	2495	9	3784	79
30	0	0	2496	9	3786	83
31	0	0	2431	7	3786	85
32	0	0	2319	6	3787	87
33	0	0	2188	6	3785	86
34	0	0	2043	6	3785	84
35	0	0	1911	7	3787	84
36	0	0	1824	7	3786	85
37	0	0	1759	7	3787	86
38	0	0	1710	7	3785	85
39	0	0	1685	7	3784	85
40	0	0	1685	8	3784	83
41	0	0	1729	10	3787	84
42	0	0	1795	10	3786	84
43	0	0	1887	9	3786	85
44	0	0	2001	8	3787	83
45	0	0	2105	7	3784	86
46	0	0	2239	10	3787	79
47	0	0	2368	10	3786	79
48	0	0	2448	9	3786	81
49	0	0	2488	9	3783	77
50	0	0	2490	8	3785	87
51	0	0	2419	4	3787	87
52	0	0	2304	6	3786	86
53	0	0	2176	4	3787	86
54	0	0	2033	5	3786	83
55	0	0	1906	2	3786	86
56	0	0	1824	7	3787	85
57	0	0	1766	7	3786	90
58	0	0	1721	6	3786	86
59	0	0	1700	7	3786	84
60	0	0	1698	10	3788	86
61	0	0	1733	10	3786	87
62	0	0	1801	10	3786	89
63	0	0	1895	11	3786	80
64	0	0	2007	9	3787	77
65	0	0	2110	8	3786	81
66	0	0	2242	9	3788	82
67	0	0	2368	9	3786	83
68	0	0	2447	8	3786	87
69	0	0	2478	9	3786	80
70	0	0	2476	8	3788	83
71	0	0	2405	7	3787	84
72	0	0	2296	6	3788	85
73	0	0	2172	8	3786	87
74	0	0	2033	6	3786	61
75	0	0	1907	8	3786	87
76	0	0	1828	6	3787	87
77	0	0	1766	7	3787	91
78	0	0	1725	8	3787	78
79	0	0	1705	7	3786	79
80	0	0	1700	8	3786	85
81	0	0	1738	11	3788	87
82	0	0	1802	9	3786	83
83	0	0	1890	9	3787	84
84	0	0	1996	10	3787	80
85	0	0	2097	12	3787	82
86	0	0	2229	8	3787	83
87	0	0	2355	9	3787	85
88	0	0	2432	10	3788	86
89	0	0	2464	9	3786	84
90	0	0	2470	8	3787	81
91	0	0	2403	7	3787	82
92	0	0	2296	6	3787	87
93	0	0	2168	6	3788	89
94	0	0	2026	6	3786	87
95	0	0	1903	6	3788	82
96	0	0	1830	4	3788	82
97	0	0	1768	6	3787	83
98	0	0	1721	7	3787	82
99	0	0	1697	7	3788	87
100	0	0	1700	12	3787	83
101	0	0	1733	11	3787	83
102	0	0	1799	9	3787	80
103	0	0	1889	10	3788	83
104	0	0	1996	10	3787	84
105	0	0	2096	8	3787	85
106	0	0	2225	9	3788	83
107	0	0	2348	9	3787	81
108	0	0	2426	7	3787	80
109	0	0	2449	9	3786	87
110	0	0	2456	7	3789	87
111	0	0	2392	6	3789	88
112	0	0	2289	6	3787	80
113	0	0	2167	7	3787	83
114	0	0	2029	6	3788	81
115	0	0	1908	6	3788	84
116	0	0	1831	6	3787	88
117	0	0	1777	7	3787	87
118	0	0	1736	9	3788	88
119	0	0	1715	4	3790	82
120	0	0	1713	12	3787	80
121	0	0	1742	10	3787	83
122	0	0	1809	10	3787	82
123	0	0	1897	11	3786	83
124	0	0	2001	9	3786	85
125	0	0	2104	10	3789	81
126	0	0	2231	8	3788	82
127	0	0	2347	10	3787	82
0	0	0	2429	11	3788	86
1	0	0	2453	11	3787	87
2	0	0	2457	7	3787	83
3	0	0	2392	5	3789	82
4	0	0	2286	5	3788	82
5	0	0	2166	4	3788	89
6	0	0	2029	5	3787	88
7	0	0	1916	7	3788	89
8	0	0	1844	7	3788	82
9	0	0	1792	7	3787	80
10	0	0	1748	6	3787	83
11	0	0	1720	6	3786	87
12	0	0	1714	7	3787	85
13	0	0	1742	9	3788	86
14	0	0	1811	10	3787	82
15	0	0	1893	10	3787	82
16	0	0	1998	10	3787	84
17	0	0	2097	8	3789	87
18	0	0	2224	10	3788	86
19	0	0	2344	8	3789	84
20	0	0	2411	9	3787	79
21	0	0	2442	9	3789	77
22	0	0	2447	10	3788	86
23	0	0	2382	7	3788	87
24	0	0	2279	6	3787	86
25	0	0	2162	6	3787	82
26	0	0	2033	8	3787	82
27	0	0	1917	7	3788	80
28	0	0	1843	6	3788	84
29	0	0	1786	6	3788	91
30	0	0	1742	8	3788	84
31	0	0	1724	8	3788	82
32	0	0	1728	7	3787	81
33	0	0	1763	8	3788	84
34	0	0	1822	11	3786	82
35	0	0	1905	10	3789	84
36	0	0	2007	12	3788	82
37	0	0	2099	11	3788	82
38	0	0	2222	10	3788	79
39	0	0	2335	9	3787	88
40	0	0	2408	8	3787	79
41	0	0	2429	10	3787	87
42	0	0	2433	7	3787	82
43	0	0	2362	4	3789	83
44	0	0	2257	6	3787	80
45	0	0	2143	6	3787	84
46	0	0	2016	7	3787	85
47	0	0	1907	5	3787	88
48	0	0	1843	4	3788	90
49	0	0	1795	7	3786	90
50	0	0	1758	7	3787	83
51	0	0	1739	7	3787	80
52	0	0	1739	10	3789	86
53	0	0	1771	9	3788	84
54	0	0	1836	10	3788	84
55	0	0	1917	10	3788	83
56	0	0	2016	8	3787	83
57	0	0	2106	7	3787	84
58	0	0	2227	8	3788	86
59	0	0	2347	9	3788	82
60	0	0	2415	10	3788	84
61	0	0	2432	8	3787	78
62	0	0	2433	7	3788	88
63	0	0	2368	6	3788	87
64	0	0	2262	6	3788	88
65	0	0	2143	6	3788	88
66	0	0	2023	5	3787	82
67	0	0	1913	7	3787	82
68	0	0	1851	5	3789	85
69	0	0	1810	7	3788	87
70	0	0	1774	6	3788	87
71	0	0	1755	8	3787	83
72	0	0	1751	7	3787	83
73	0	0	1777	10	3788	83
74	0	0	1838	9	3788	84
75	0	0	1918	10	3788	85
76	0	0	2015	7	3787	82
77	0	0	2098	11	3787	81
78	0	0	2215	8	3789	81
79	0	0	2329	6	3787	80
80	0	0	2385	12	3789	86
81	0	0	2400	7	3787	85
82	0	0	2396	7	3788	87
83	0	0	2328	5	3789	82
84	0	0	2221	7	3788	84
85	0	0	2119	6	3789	83
86	0	0	2003	6	3789	85
87	0	0	1906	6	3788	88
88	0	0	1854	7	3789	86
89	0	0	1820	7	3788	86
90	0	0	1800	10	3789	83
91	0	0	1789	8	3787	82
92	0	0	1792	11	3787	84
93	0	0	1828	11	3788	83
94	0	0	1891	10	3788	84
95	0	0	1969	10	3788	81
96	0	0	2058	10	3787	80
97	0	0	2132	10	3789	85
98	0	0	2238	11	3789	85
99	0	0	2339	9	3788	86
100	0	0	2374	10	3788	82
101	0	0	2368	10	3788	81
102	0	0	2345	4	3789	83
103	0	0	2266	8	3789	88
104	0	0	2158	6	3788	87
105	0	0	2052	5	3788	87
106	0	0	1948	6	3788	86
107	0	0	1869	8	3788	83
108	0	0	1836	8	3789	83
109	0	0	1822	8	3790	86
110	0	0	1815	9	3788	82
111	0	0	1821	8	3788	84
112	0	0	1832	12	3788	83
113	0	0	1875	10	3789	83
114	0	0	1938	10	3788	83
115	0	0	2017	12	3788	85
116	0	0	2109	10	3788	84
117	0	0	2178	8	3788	83
118	0	0	2276	12	3789	82
119	0	0	2360	12	3789	81
120	0	0	2392	8	3788	79
121	0	0	2367	8	3788	88
122	0	0	2340	8	3788	90
123	0	0	2248	6	3788	86
124	0	0	2135	6	3788	79
125	0	0	2029	5	3787	84
126	0	0	1930	5	3788	84
127	0	0	1848	7	3788	87
0	0	0	1827	6	3789	87
1	0	0	1816	8	3788	79
2	0	0	1809	8	3788	81
3	0	0	1812	10	3788	88
4	0	0	1820	8	3788	87
5	0	0	1858	11	3789	85
6	0	0	1919	10	3788	81
7	0	0	1988	10	3786	80
8	0	0	2070	10	3788	81
9	0	0	2138	9	3790	82
10	0	0	2233	10	3789	84
11	0	0	2326	10	3788	87
12	0	0	2358	7	3788	84
13	0	0	2351	10	3790	83
14	0	0	2329	7	3789	84
15	0	0	2248	6	3790	83
16	0	0	2141	6	3788	85
17	0	0	2045	5	3790	87
18	0	0	1952	6	3789	85
19	0	0	1885	8	3789	85
20	0	0	1867	6	3789	84
21	0	0	1858	9	3789	79
22	0	0	1858	11	3790	82
23	0	0	1864	10	3788	88
24	0	0	1878	11	3787	83
25	0	0	1915	10	3790	82
26	0	0	1975	10	3787	79
27	0	0	2039	8	3789	85
28	0	0	2111	10	3788	88
29	0	0	2167	8	3788	89
30	0	0	2254	8	3789	82
31	0	0	2332	10	3787	79
32	0	0	2358	10	3788	78
33	0	0	2340	9	3790	85
34	0	0	2317	7	3790	89
35	0	0	2238	6	3790	87
36	0	0	2136	6	3788	83
37	0	0	2034	4	3789	82
38	0	0	1934	8	3788	83
39	0	0	1859	7	3788	83
40	0	0	1834	5	3789	87
41	0	0	1817	8	3788	85
42	0	0	1807	9	3788	82
43	0	0	1804	11	3790	81
44	0	0	1808	11	3787	82
45	0	0	1837	10	3789	86
46	0	0	1896	11	3789	83
47	0	0	1971	10	3788	81
48	0	0	2060	8	3789	81
49	0	0	2131	11	3788	80
50	0	0	2233	9	3790	86
51	0	0	2335	10	3789	81
52	0	0	2383	15	3788	86
53	0	0	2381	10	3790	85
54	0	0	2366	8	3789	83
55	0	0	2290	10	3788	84
56	0	0	2186	6	3788	83
57	0	0	2086	8	3788	88
58	0	0	1983	3	3789	86
59	0	0	1898	7	3788	83
60	0	0	1861	7	3788	84
61	0	0	1841	7	3789	84
62	0	0	1823	9	3789	85
63	0	0	1826	7	3789	86
64	0	0	1832	12	3788	82
65	0	0	1866	8	3790	81
66	0	0	1921	11	3788	80
67	0	0	1991	10	3790	85
68	0	0	2076	11	3789	87
69	0	0	2144	11	3786	86
70	0	0	2238	9	3790	84
71	0	0	2326	10	3788	79
72	0	0	2363	11	3788	82
73	0	0	2354	10	3789	86
74	0	0	2334	7	3790	87
75	0	0	2257	5	3790	87
76	0	0	2153	6	3788	84
77	0	0	2049	6	3788	83
78	0	0	1946	4	3788	85
79	0	0	1867	8	3788	83
80	0	0	1833	6	3790	86
81	0	0	1818	8	3790	86
82	0	0	1808	8	3788	83
83	0	0	1812	10	3788	83
84	0	0	1820	9	3788	84
85	0	0	1859	8	3789	86
86	0	0	1922	9	3788	84
87	0	0	2000	9	3790	86
88	0	0	2089	12	3789	80
89	0	0	2165	11	3787	80
90	0	0	2261	8	3789	79
91	0	0	2355	10	3788	86
92	0	0	2395	10	3789	86
93	0	0	2376	7	3790	87
94	0	0	2350	7	3788	80
95	0	0	2275	4	3790	82
96	0	0	2173	5	3790	84
97	0	0	2064	6	3788	85
98	0	0	1951	6	3789	87
99	0	0	1861	6	3788	85
100	0	0	1819	5	3789	83
101	0	0	1792	7	3790	85
102	0	0	1772	7	3789	86
103	0	0	1773	10	3789	87
104	0	0	1781	9	3790	86
105	0	0	1820	7	3789	81
106	0	0	1885	10	3788	80
107	0	0	1960	10	3788	81
108	0	0	2050	7	3789	86
109	0	0	2127	10	3788	88
110	0	0	2224	8	3789	87
111	0	0	2328	9	3789	84
112	0	0	2378	10	3789	78
113	0	0	2375	8	3789	83
114	0	0	2368	7	3787	83
115	0	0	2295	6	3790	88
116	0	0	2190	6	3788	86
117	0	0	2085	6	3791	86
118	0	0	1977	6	3788	84
119	0	0	1890	7	3788	83
120	0	0	1857	6	3790	85
121	0	0	1839	8	3789	84
122	0	0	1835	8	3789	84
123	0	0	1843	7	3789	81
124	0	0	1853	14	3788	80
125	0	0	1888	13	3788	84
126	0	0	1949	10	3789	86
127	0	0	2018	10	3788	87
0	0	0	2099	10	3789	85
1	0	0	2158	11	3790	80
2	0	0	2249	11	3789	80
3	0	0	2339	10	3787	80
4	0	0	2378	10	3789	82
5	0	0	2367	12	3789	83
6	0	0	2344	7	3788	84
7	0	0	2270	10	3791	82
8	0	0	2159	8	3788	83
9	0	0	2045	6	3789	85
10	0	0	1933	8	3789	86
11	0	0	1845	7	3789	86
12	0	0	1806	10	3789	84
13	0	0	1787	8	3785	84
14	0	0	1776	9	3788	83
15	0	0	1784	12	3788	88
16	0	0	1796	11	3788	85
17	0	0	1839	10	3790	87
18	0	0	1907	9	3789	81
19	0	0	1985	10	3789	81
20	0	0	2077	12	3789	80
21	0	0	2157	9	3789	86
22	0	0	2254	12	3791	85
23	0	0	2352	8	3788	86
24	0	0	2394	10	3789	83
25	0	0	2393	10	3789	80
26	0	0	2376	7	3790	82
27	0	0	2302	7	3789	84
28	0	0	2197	6	3790	88
29	0	0	2083	7	3789	87
30	0	0	1973	3	3789	86
31	0	0	1881	6	3790	84
32	0	0	1841	11	3790	85
33	0	0	1820	7	3790	86
34	0	0	1804	8	3789	86
35	0	0	1809	11	3789	81
36	0	0	1817	9	3790	84
37	0	0	1856	12	3791	81
38	0	0	1915	10	3790	85
39	0	0	1991	7	3789	86
40	0	0	2072	12	3789	86
41	0	0	2141	9	3791	80
42	0	0	2233	11	3790	80
43	0	0	2331	10	3789	81
44	0	0	2380	7	3790	84
45	0	0	2367	11	3790	82
46	0	0	2346	8	3789	85
47	0	0	2273	9	3790	86
48	0	0	2163	6	3789	85
49	0	0	2051	6	3789	85
50	0	0	1947	7	3789	88
51	0	0	1858	8	3789	87
52	0	0	1822	8	3789	85
53	0	0	1810	8	3789	83
54	0	0	1803	9	3789	83
55	0	0	1808	15	3788	84
56	0	0	1820	9	3789	87
57	0	0	1861	13	3790	86
58	0	0	1930	10	3790	81
59	0	0	2008	11	3789	80
60	0	0	2097	12	3789	80
61	0	0	2165	9	3791	81
62	0	0	2254	10	3790	85
63	0	0	2342	10	3789	85
64	0	0	2389	10	3788	85
65	0	0	2379	11	3789	84
66	0	0	2352	8	3789	86
67	0	0	2275	8	3789	85
68	0	0	2165	6	3788	87
69	0	0	2052	6	3789	87
70	0	0	1941	8	3789	87
71	0	0	1848	8	3789	84
72	0	0	1807	8	3789	86
73	0	0	1791	8	3790	87
74	0	0	1779	8	3789	83
75	0	0	1785	10	3790	85
76	0	0	1795	9	3791	81
77	0	0	1834	15	3788	80
78	0	0	1902	10	3791	82
79	0	0	1980	11	3789	85
80	0	0	2073	7	3789	87
81	0	0	2151	10	3791	87
82	0	0	2249	8	3789	80
83	0	0	2346	10	3789	81
84	0	0	2394	7	3789	82
85	0	0	2385	15	3788	83
86	0	0	2363	7	3792	87
87	0	0	2291	4	3789	85
88	0	0	2184	7	3789	85
89	0	0	2075	6	3789	85
90	0	0	1963	7	3789	85
91	0	0	1871	7	3792	87
92	0	0	1831	7	3790	84
93	0	0	1814	8	3789	84
94	0	0	1803	8	3791	83
95	0	0	1813	14	3789	80
96	0	0	1829	10	3790	87
97	0	0	1867	8	3790	88
98	0	0	1929	10	3788	87
99	0	0	2001	11	3786	83
100	0	0	2084	12	3789	82
101	0	0	2150	11	3787	80
102	0	0	2241	9	3789	80
103	0	0	2335	10	3789	85
104	0	0	2380	11	3788	87
105	0	0	2366	9	3790	80
106	0	0	2340	7	3788	81
107	0	0	2262	8	3790	84
108	0	0	2148	6	3790	86
109	0	0	2031	4	3789	86
110	0	0	1922	6	3789	85
111	0	0	1837	5	3790	86
112	0	0	1805	7	3791	83
113	0	0	1793	9	3789	85
114	0	0	1789	8	3791	89
115	0	0	1803	10	3789	87
116	0	0	1821	10	3788	82
117	0	0	1865	10	3790	80
118	0	0	1934	10	3789	79
119	0	0	2007	10	3787	82
120	0	0	2097	10	3789	83
121	0	0	2170	10	3791	86
122	0	0	2260	8	3790	85
123	0	0	2356	10	3789	80
124	0	0	2406	8	3790	81
125	0	0	2401	10	3788	79
126	0	0	2372	6	3791	89
127	0	0	2292	8	3791	87
0	0	0	2177	7	3789	86
1	0	0	2060	4	3790	86
2	0	0	1952	6	3790	86
3	0	0	1858	9	3790	85
4	0	0	1821	8	3788	85
5	0	0	1804	8	3789	85
6	0	0	1797	11	3788	87
7	0	0	1809	10	3790	85
8	0	0	1816	9	3791	81
9	0	0	1853	14	3789	85
10	0	0	1916	9	3790	86
11	0	0	1989	8	3790	87
12	0	0	2076	10	3789	80
13	0	0	2156	10	3792	78
14	0	0	2246	16	3788	80
15	0	0	2343	10	3789	82
16	0	0	2384	9	3791	86
17	0	0	2370	7	3789	86
18	0	0	2341	7	3788	88
19	0	0	2269	7	3790	82
20	0	0	2159	6	3789	86
21	0	0	2045	8	3790	87
22	0	0	1939	6	3790	84
23	0	0	1853	7	3788	88
24	0	0	1823	8	3790	86
25	0	0	1813	9	3789	84
26	0	0	1810	10	3790	79
27	0	0	1819	10	3791	87
28	0	0	1834	11	3788	84
29	0	0	1874	10	3791	87
30	0	0	1939	10	3791	83
31	0	0	2011	14	3789	82
32	0	0	2099	8	3789	80
33	0	0	2172	11	3791	85
34	0	0	2259	11	3790	87
35	0	0	2352	10	3790	86
36	0	0	2388	10	3791	86
37	0	0	2369	8	3789	81
38	0	0	2338	7	3790	82
39	0	0	2255	8	3790	83
40	0	0	2141	6	3791	87
41	0	0	2027	7	3792	89
42	0	0	1924	4	3789	86
43	0	0	1839	7	3791	83
44	0	0	1806	7	3791	84
45	0	0	1797	8	3789	84
46	0	0	1790	8	3791	89
47	0	0	1801	10	3790	84
48	0	0	1814	10	3791	84
49	0	0	1863	12	3790	82
50	0	0	1939	11	3789	84
51	0	0	2022	8	3790	85
52	0	0	2116	10	3791	87
53	0	0	2187	10	3790	86
54	0	0	2275	7	3790	81
55	0	0	2370	10	3790	81
56	0	0	2404	8	3789	81
57	0	0	2366	7	3791	87
58	0	0	2323	6	3790	88
59	0	0	2233	7	3791	87
60	0	0	2111	5	3789	82
61	0	0	2000	6	3791	83
62	0	0	1899	5	3789	82
63	0	0	1822	5	3791	84
64	0	0	1816	10	3791	87
65	0	0	1819	9	3789	87
66	0	0	1830	10	3790	84
67	0	0	1848	7	3790	84
68	0	0	1864	10	3790	83
69	0	0	1906	11	3790	83
70	0	0	1973	10	3790	87
71	0	0	2046	10	3791	81
72	0	0	2130	10	3790	82
73	0	0	2191	10	3791	81
74	0	0	2269	7	3790	84
75	0	0	2351	10	3790	83
76	0	0	2379	10	3791	83
77	0	0	2333	7	3791	87
78	0	0	2292	5	3789	80
79	0	0	2197	7	3790	80
80	0	0	2072	10	3789	81
81	0	0	1965	6	3789	87
82	0	0	1873	7	3789	89
83	0	0	1811	6	3789	88
84	0	0	1818	8	3791	82
85	0	0	1827	10	3791	80
86	0	0	1844	10	3789	85
87	0	0	1871	9	3790	87
88	0	0	1893	9	3790	85
89	0	0	1941	7	3790	84
90	0	0	2009	11	3790	84
91	0	0	2083	10	3790	82
92	0	0	2161	11	3788	83
93	0	0	2218	10	3789	82
94	0	0	2298	13	3791	85
95	0	0	2375	9	3789	83
96	0	0	2383	8	3790	85
97	0	0	2331	8	3790	84
98	0	0	2290	7	3791	86
99	0	0	2188	3	3790	86
100	0	0	2062	6	3790	88
101	0	0	1953	7	3790	83
102	0	0	1861	6	3790	85
103	0	0	1793	7	3791	83
104	0	0	1797	11	3790	82
105	0	0	1813	9	3791	88
106	0	0	1829	13	3789	91
107	0	0	1864	10	3790	84
108	0	0	1883	11	3791	80
109	0	0	1930	8	3792	82
110	0	0	1998	10	3791	83
111	0	0	2074	8	3790	85
112	0	0	2144	11	3790	87
113	0	0	2198	10	3791	83
114	0	0	2277	7	3790	82
115	0	0	2360	10	3790	83
116	0	0	2376	12	3789	88
117	0	0	2326	7	3788	87
118	0	0	2288	6	3789	84
119	0	0	2191	4	3791	83
120	0	0	2061	6	3790	83
121	0	0	1948	6	3790	82
122	0	0	1858	8	3789	86
123	0	0	1798	7	3789	87
124	0	0	1814	9	3791	87
125	0	0	1832	10	3790	82
126	0	0	1850	11	3791	82
127	0	0	1878	11	3791	83
0	0	0	1895	9	3789	83
1	0	0	1941	10	3791	87
2	0	0	2011	10	3790	87
3	0	0	2088	10	3790	83
4	0	0	2168	8	3790	83
5	0	0	2217	10	3790	82
6	0	0	2292	8	3790	84
7	0	0	2372	10	3789	85
8	0	0	2379	7	3790	83
9	0	0	2320	9	3789	81
10	0	0	2269	8	3790	83
11	0	0	2167	4	3791	86
12	0	0	2043	6	3791	85
13	0	0	1933	7	3789	89
14	0	0	1853	6	3790	80
15	0	0	1791	7	3791	83
16	0	0	1806	12	3791	81
17	0	0	1828	10	3791	82
18	0	0	1855	13	3790	88
19	0	0	1884	11	3790	87
20	0	0	1902	10	3788	86
21	0	0	1948	10	3791	80
22	0	0	2015	10	3790	80
23	0	0	2091	11	3792	82
24	0	0	2163	9	3790	86
25	0	0	2210	9	3792	85
26	0	0	2287	10	3791	84
27	0	0	2366	10	3790	83
28	0	0	2377	8	3790	83
29	0	0	2317	4	3790	85
30	0	0	2266	5	3790	88
31	0	0	2178	0	3791	85
32	0	0	2050	8	3789	83
33	0	0	1941	6	3790	83
34	0	0	1852	6	3790	83
35	0	0	1788	7	3791	87
36	0	0	1798	10	3790	88
37	0	0	1823	10	3791	88
38	0	0	1843	10	3790	84
39	0	0	1869	8	3790	80
40	0	0	1886	10	3789	82
41	0	0	1939	8	3791	83
42	0	0	2008	10	3790	86
43	0	0	2083	10	3791	85
44	0	0	2162	8	3790	83
45	0	0	2210	10	3792	81
46	0	0	2285	8	3792	82
47	0	0	2366	10	3789	82
48	0	0	2374	7	3790	84
49	0	0	2319	7	3790	80
50	0	0	2267	6	3791	83
51	0	0	2173	4	3791	82
52	0	0	2048	6	3790	86
53	0	0	1941	7	3789	87
54	0	0	1850	8	3789	88
55	0	0	1788	7	3790	84
56	0	0	1800	10	3790	83
57	0	0	1822	10	3789	82
58	0	0	1849	11	3789	85
59	0	0	1888	10	3790	90
60	0	0	1915	9	3792	87
61	0	0	1963	10	3791	86
62	0	0	2029	10	3789	81
63	0	0	2101	9	3791	82
64	0	0	2170	10	3791	87
65	0	0	2219	10	3788	84
66	0	0	2294	10	3791	85
67	0	0	2378	10	3790	86
68	0	0	2383	7	3790	82
69	0	0	2329	8	3789	81
70	0	0	2283	8	3792	85
71	0	0	2182	5	3791	86
72	0	0	2051	6	3790	85
73	0	0	1940	7	3790	84
74	0	0	1847	6	3790	83
75	0	0	1784	7	3792	83
76	0	0	1795	10	3790	88
77	0	0	1809	10	3790	88
78	0	0	1828	10	3790	86
79	0	0	1860	10	3792	85
80	0	0	1895	10	3789	81
81	0	0	1950	10	3791	84
82	0	0	2024	10	3791	83
83	0	0	2098	10	3791	86
84	0	0	2167	10	3791	85
85	0	0	2223	10	3788	86
86	0	0	2299	11	3791	80
87	0	0	2381	10	3790	79
88	0	0	2388	5	3791	82
89	0	0	2331	8	3789	85
90	0	0	2274	7	3790	83
91	0	0	2177	5	3791	85
92	0	0	2045	6	3790	82
93	0	0	1941	6	3790	87
94	0	0	1850	6	3792	87
95	0	0	1789	7	3789	87
96	0	0	1806	10	3790	84
97	0	0	1827	9	3791	82
98	0	0	1856	7	3787	84
99	0	0	1893	12	3789	81
100	0	0	1920	10	3791	85
101	0	0	1967	9	3791	86
102	0	0	2026	10	3789	79
103	0	0	2091	10	3789	80
104	0	0	2165	14	3789	80
105	0	0	2216	11	3790	83
106	0	0	2281	10	3791	85
107	0	0	2363	10	3790	85
108	0	0	2371	8	3790	82
109	0	0	2303	8	3789	79
110	0	0	2255	6	3791	84
111	0	0	2158	5	3789	84
112	0	0	2028	7	3789	84
113	0	0	1925	6	3790	85
114	0	0	1840	7	3790	83
115	0	0	1783	6	3791	84
116	0	0	1792	9	3790	83
117	0	0	1822	9	3791	87
118	0	0	1845	8	3790	85
119	0	0	1877	12	3790	86
120	0	0	1899	10	3790	79
121	0	0	1946	11	3790	82
122	0	0	2017	10	3790	85
123	0	0	2093	12	3790	86
124	0	0	2163	14	3790	84
125	0	0	2215	10	3790	83
126	0	0	2282	10	3790	82
127	0	0	2362	10	3790	83
0	0	0	2376	8	3790	86
1	0	0	2308	7	3790	84
2	0	0	2261	5	3791	85
3	0	0	2168	5	3790	83
4	0	0	2040	7	3790	83
5	0	0	1931	7	3790	86
6	0	0	1842	7	3791	88
7	0	0	1782	7	3791	87
8	0	0	1794	9	3791	88
9	0	0	1816	9	3790	83
10	0	0	1846	10	3789	84
11	0	0	1873	14	3790	80
12	0	0	1901	11	3791	85
13	0	0	1952	10	3790	87
14	0	0	2024	10	3790	86
15	0	0	2094	12	3790	83
16	0	0	2161	10	3790	82
17	0	0	2221	10	3791	81
18	0	0	2287	10	3790	83
19	0	0	2369	9	3790	85
20	0	0	2379	8	3789	85
21	0	0	2310	7	3791	87
22	0	0	2260	7	3791	83
23	0	0	2166	6	3791	87
24	0	0	2038	5	3790	85
25	0	0	1933	8	3791	87
26	0	0	1849	7	3790	85
27	0	0	1790	7	3791	83
28	0	0	1802	10	3790	84
29	0	0	1822	9	3790	87
30	0	0	1848	12	3790	83
31	0	0	1873	11	3791	86
32	0	0	1892	11	3791	85
33	0	0	1938	10	3791	82
34	0	0	2007	10	3790	81
35	0	0	2077	12	3790	81
36	0	0	2151	9	3791	86
37	0	0	2203	10	3791	83
38	0	0	2277	10	3790	85
39	0	0	2359	10	3790	83
40	0	0	2366	8	3789	83
41	0	0	2304	7	3791	86
42	0	0	2261	7	3791	85
43	0	0	2167	6	3791	85
44	0	0	2035	6	3791	85
45	0	0	1927	10	3790	81
46	0	0	1840	6	3790	85
47	0	0	1776	7	3794	85
48	0	0	1788	10	3791	86
49	0	0	1815	9	3791	87
50	0	0	1844	11	3790	83
51	0	0	1886	10	3788	83
52	0	0	1920	10	3791	81
53	0	0	1968	11	3791	87
54	0	0	2035	10	3791	87
55	0	0	2105	8	3790	86
56	0	0	2167	10	3790	84
57	0	0	2227	10	3791	79
58	0	0	2294	10	3791	81
59	0	0	2376	10	3791	82
60	0	0	2381	5	3790	88
61	0	0	2314	6	3790	86
62	0	0	2267	8	3790	83
63	0	0	2175	6	3792	84
64	0	0	2048	6	3790	85
65	0	0	1936	7	3791	87
66	0	0	1844	7	3790	86
67	0	0	1784	7	3789	85
68	0	0	1800	10	3791	83
69	0	0	1825	10	3790	83
70	0	0	1847	7	3790	84
71	0	0	1891	8	3791	92
72	0	0	1914	10	3789	89
73	0	0	1960	10	3791	87
74	0	0	2025	10	3791	81
75	0	0	2093	10	3791	80
76	0	0	2163	10	3790	81
77	0	0	2215	10	3791	84
78	0	0	2279	10	3791	85
79	0	0	2366	10	3790	84
80	0	0	2377	9	3789	83
81	0	0	2320	6	3791	84
82	0	0	2267	7	3790	82
83	0	0	2174	6	3791	87
84	0	0	2045	6	3790	85
85	0	0	1935	4	3791	84
86	0	0	1849	6	3792	83
87	0	0	1781	7	3790	86
88	0	0	1794	9	3791	85
89	0	0	1818	10	3790	86
90	0	0	1847	10	3791	88
91	0	0	1879	10	3791	81
92	0	0	1896	10	3791	79
93	0	0	1941	9	3791	81
94	0	0	2004	11	3790	84
95	0	0	2078	9	3791	85
96	0	0	2153	10	3790	86
97	0	0	2214	10	3791	84
98	0	0	2279	10	3791	81
99	0	0	2357	10	3790	81
100	0	0	2372	10	3790	84
101	0	0	2317	7	3790	85
102	0	0	2263	7	3788	86
103	0	0	2172	7	3791	85
104	0	0	2046	7	3788	86
105	0	0	1935	6	3790	87
106	0	0	1843	6	3790	89
107	0	0	1780	7	3788	87
108	0	0	1790	10	3791	84
109	0	0	1821	9	3790	82
110	0	0	1850	10	3790	83
111	0	0	1882	11	3790	86
112	0	0	1901	10	3791	86
113	0	0	1939	10	3791	87
114	0	0	2009	11	3791	81
115	0	0	2083	12	3789	80
116	0	0	2155	10	3790	83
117	0	0	2208	10	3791	81
118	0	0	2272	11	3788	84
119	0	0	2360	10	3790	85
120	0	0	2383	9	3790	83
121	0	0	2321	6	3790	83
122	0	0	2273	7	3790	84
123	0	0	2183	7	3791	88
124	0	0	2054	6	3790	86
125	0	0	1943	7	3790	84
126	0	0	1856	7	3791	82
127	0	0	1787	7	3788	83
0	0	0	1792	10	3788	86
1	0	0	1814	10	3791	88
2	0	0	1842	15	3790	87
3	0	0	1862	11	3789	81
4	0	0	1888	9	3791	79
5	0	0	1933	11	3791	81
6	0	0	2005	10	3790	81
7	0	0	2078	10	3792	86
8	0	0	2151	9	3788	86
9	0	0	2208	9	3791	83
10	0	0	2278	10	3788	82
11	0	0	2365	10	3790	81
12	0	0	2382	10	3790	82
13	0	0	2325	7	3790	87
14	0	0	2273	6	3790	85
15	0	0	2180	7	3792	81
16	0	0	2054	6	3791	82
17	0	0	1946	7	3792	87
18	0	0	1852	6	3790	87
19	0	0	1787	7	3790	87
20	0	0	1797	10	3788	83
21	0	0	1827	10	3791	81
22	0	0	1857	10	3792	79
23	0	0	1892	10	3791	88
24	0	0	1917	9	3791	85
25	0	0	1960	10	3788	86
26	0	0	2022	10	3790	85
27	0	0	2093	11	3790	81
28	0	0	2165	9	3792	80
29	0	0	2221	10	3790	83
30	0	0	2288	10	3790	83
31	0	0	2372	10	3790	83
32	0	0	2385	9	3790	84
33	0	0	2324	8	3789	84
34	0	0	2275	5	3791	81
35	0	0	2185	5	3791	86
36	0	0	2051	6	3790	87
37	0	0	1943	7	3791	86
38	0	0	1855	6	3791	84
39	0	0	1782	7	3790	79
40	0	0	1790	10	3789	82
41	0	0	1818	10	3790	86
42	0	0	1840	10	3790	85
43	0	0	1875	11	3790	90
44	0	0	1903	11	3790	80
45	0	0	1949	10	3788	81
46	0	0	2019	11	3790	81
47	0	0	2091	11	3790	82
48	0	0	2158	10	3789	84
49	0	0	2211	9	3790	87
50	0	0	2277	11	3788	85
51	0	0	2366	10	3791	81
52	0	0	2385	8	3788	78
53	0	0	2326	7	3790	81
54	0	0	2275	6	3792	83
55	0	0	2184	6	3786	83
56	0	0	2055	5	3790	83
57	0	0	1948	6	3791	85
58	0	0	1857	7	3792	86
59	0	0	1793	7	3791	83
60	0	0	1801	10	3788	87
61	0	0	1827	10	3790	83
62	0	0	1853	10	3790	81
63	0	0	1878	10	3787	82
64	0	0	1902	9	3791	79
65	0	0	1943	10	3791	86
66	0	0	2007	10	3790	85
67	0	0	2083	10	3790	82
68	0	0	2158	10	3790	79
69	0	0	2214	10	3791	80
70	0	0	2276	3	3787	78
71	0	0	2355	9	3790	84
72	0	0	2378	7	3792	87
73	0	0	2321	7	3788	85
74	0	0	2270	7	3791	83
75	0	0	2185	7	3791	84
76	0	0	2059	7	3790	85
77	0	0	1952	6	3792	87
78	0	0	1861	5	3788	87
79	0	0	1790	6	3791	82
80	0	0	1790	12	3789	83
81	0	0	1810	10	3791	81
82	0	0	1840	9	3791	85
83	0	0	1868	11	3791	87
84	0	0	1893	10	3791	84
85	0	0	1939	10	3791	82
86	0	0	2004	10	3790	85
87	0	0	2074	10	3790	80
88	0	0	2150	11	3789	80
89	0	0	2211	9	3791	87
90	0	0	2278	10	3791	84
91	0	0	2362	10	3790	85
92	0	0	2383	9	3790	79
93	0	0	2324	7	3788	85
94	0	0	2270	7	3790	82
95	0	0	2184	5	3790	86
96	0	0	2054	6	3790	86
97	0	0	1948	6	3790	86
98	0	0	1855	6	3789	81
99	0	0	1785	7	3788	81
100	0	0	1793	10	3790	85
101	0	0	1819	10	3790	85
102	0	0	1844	10	3790	85
103	0	0	1868	10	3788	85
104	0	0	1890	8	3790	80
105	0	0	1935	12	3790	82
106	0	0	2004	10	3790	86
107	0	0	2080	10	3790	86
108	0	0	2149	10	3788	87
109	0	0	2212	10	3790	80
110	0	0	2277	11	3790	80
111	0	0	2369	12	3787	82
112	0	0	2399	10	3790	83
113	0	0	2338	7	3790	87
114	0	0	2279	7	3791	85
115	0	0	2193	6	3790	86
116	0	0	2063	6	3791	83
117	0	0	1945	7	3789	85
118	0	0	1861	6	3790	87
119	0	0	1791	6	3792	83
120	0	0	1793	7	3791	84
121	0	0	1817	10	3791	84
122	0	0	1844	14	3790	80
123	0	0	1879	11	3790	86
124	0	0	1902	11	3791	88
125	0	0	1947	10	3791	86
126	0	0	2012	10	3790	85
127	0	0	2085	8	3791	81
0	0	0	2157	11	3790	80
1	0	0	2216	10	3790	80
2	0	0	2279	11	3789	85
3	0	0	2360	10	3790	87
4	0	0	2382	8	3790	86
5	0	0	2320	8	3790	82
6	0	0	2271	5	3789	80
7	0	0	2184	6	3791	85
8	0	0	2055	6	3790	87
9	0	0	1940	6	3790	86
10	0	0	1850	7	3790	85
11	0	0	1777	7	3791	85
12	0	0	1785	10	3789	84
13	0	0	1810	11	3791	86
14	0	0	1835	11	3789	87
15	0	0	1875	12	3791	88
16	0	0	1905	10	3790	84
17	0	0	1951	11	3790	81
18	0	0	2017	10	3788	81
19	0	0	2089	8	3791	84
20	0	0	2156	11	3791	83
21	0	0	2216	10	3790	88
22	0	0	2279	10	3792	80
23	0	0	2369	10	3790	84
24	0	0	2393	8	3790	77
25	0	0	2328	7	3790	79
26	0	0	2281	7	3790	90
27	0	0	2193	7	3791	86
28	0	0	2056	6	3790	86
29	0	0	1944	6	3791	81
30	0	0	1853	6	3791	83
31	0	0	1781	7	3790	85
32	0	0	1781	10	3788	86
33	0	0	1804	11	3790	85
34	0	0	1832	10	3790	82
35	0	0	1874	11	3790	84
36	0	0	1904	8	3791	85
37	0	0	1948	12	3789	85
38	0	0	2011	10	3790	87
39	0	0	2081	11	3790	82
40	0	0	2157	11	3791	80
41	0	0	2217	10	3790	80
42	0	0	2279	10	3789	79
43	0	0	2368	10	3791	84
44	0	0	2391	12	3790	82
45	0	0	2332	8	3790	87
46	0	0	2283	6	3791	80
47	0	0	2195	8	3787	83
48	0	0	2060	8	3790	83
49	0	0	1949	4	3791	88
50	0	0	1858	7	3791	84
51	0	0	1785	6	3790	88
52	0	0	1786	10	3789	84
53	0	0	1814	10	3790	81
54	0	0	1843	10	3790	85
55	0	0	1869	10	3791	81
56	0	0	1892	10	3790	83
57	0	0	1935	11	3789	83
58	0	0	2006	9	3790	82
59	0	0	2082	10	3791	79
60	0	0	2158	10	3791	89
61	0	0	2221	8	3791	87
62	0	0	2279	10	3791	86
63	0	0	2367	10	3790	82
64	0	0	2386	9	3791	80
65	0	0	2322	9	3792	79
66	0	0	2265	7	3791	87
67	0	0	2181	6	3792	89
68	0	0	2053	7	3790	87
69	0	0	1935	5	3790	85
70	0	0	1853	7	3792	83
71	0	0	1783	6	3790	86
72	0	0	1783	10	3788	84
73	0	0	1810	10	3791	86
74	0	0	1837	9	3790	57
75	0	0	1874	11	3790	87
76	0	0	1899	11	3791	87
77	0	0	1947	10	3792	84
78	0	0	2017	10	3791	81
79	0	0	2091	9	3789	82
80	0	0	2166	13	3792	83
81	0	0	2225	9	3790	86
82	0	0	2277	10	3790	83
83	0	0	2361	10	3790	83
84	0	0	2387	8	3791	80
85	0	0	2326	8	3789	86
86	0	0	2270	7	3790	87
87	0	0	2183	6	3792	88
88	0	0	2052	6	3790	84
89	0	0	1939	6	3790	82
90	0	0	1848	8	3790	82
91	0	0	1774	7	3791	85
92	0	0	1775	8	3791	88
93	0	0	1801	12	3790	87
94	0	0	1836	10	3791	88
95	0	0	1870	10	3791	79
96	0	0	1890	8	3791	81
97	0	0	1931	10	3792	82
98	0	0	2004	10	3791	86
99	0	0	2068	10	3787	87
100	0	0	2142	10	3790	84
101	0	0	2209	11	3791	83
102	0	0	2270	10	3791	81
103	0	0	2358	10	3789	83
104	0	0	2385	9	3790	83
105	0	0	2326	8	3790	84
106	0	0	2269	7	3791	83
107	0	0	2187	6	3791	83
108	0	0	2061	5	3790	81
109	0	0	1956	7	3789	87
110	0	0	1868	6	3791	88
111	0	0	1796	6	3790	87
112	0	0	1791	10	3791	83
113	0	0	1816	11	3790	81
114	0	0	1845	10	3790	83
115	0	0	1875	11	3792	83
116	0	0	1902	9	3790	83
117	0	0	1943	11	3790	86
118	0	0	2008	11	3790	84
119	0	0	2076	12	3790	80
120	0	0	2146	10	3789	82
121	0	0	2207	11	3790	83
122	0	0	2264	10	3792	83
123	0	0	2348	9	3791	84
124	0	0	2381	7	3791	85
125	0	0	2327	7	3790	83
126	0	0	2272	7	3791	85
127	0	0	2194	6	3791	84
0	0	0	2070	5	3790	87
1	0	0	1960	6	3790	85
2	0	0	1872	4	3791	83
3	0	0	1803	7	3792	79
4	0	0	1796	10	3791	81
5	0	0	1820	10	3790	87
6	0	0	1845	12	3790	87
7	0	0	1874	10	3789	89
8	0	0	1898	11	3791	77
9	0	0	1937	10	3791	79
10	0	0	1998	10	3791	84
11	0	0	2069	7	3791	80
12	0	0	2142	7	3790	86
13	0	0	2206	10	3791	84
14	0	0	2268	16	3790	80
15	0	0	2359	11	3790	82
16	0	0	2387	10	3788	86
17	0	0	2334	6	3789	87
18	0	0	2289	7	3791	85
19	0	0	2212	7	3791	85
20	0	0	2086	6	3790	83
21	0	0	1971	6	3787	83
22	0	0	1876	5	3789	87
23	0	0	1795	7	3791	83
24	0	0	1786	14	3791	87
25	0	0	1809	10	3789	84
26	0	0	1827	10	3790	79
27	0	0	1854	10	3791	84
28	0	0	1886	9	3791	82
29	0	0	1933	9	3791	86
30	0	0	1996	10	3790	88
31	0	0	2068	10	3790	87
32	0	0	2136	7	3791	80
33	0	0	2200	10	3791	80
34	0	0	2265	10	3791	81
35	0	0	2349	10	3790	83
36	0	0	2381	11	3790	88
37	0	0	2339	6	3789	83
38	0	0	2292	7	3791	81
39	0	0	2218	8	3790	83
40	0	0	2088	6	3790	86
41	0	0	1974	8	3790	87
42	0	0	1885	5	3790	83
43	0	0	1806	7	3791	83
44	0	0	1798	9	3791	83
45	0	0	1812	10	3789	79
46	0	0	1836	10	3790	88
47	0	0	1868	9	3790	91
48	0	0	1887	8	3791	84
49	0	0	1925	10	3792	80
50	0	0	1992	10	3789	81
51	0	0	2067	12	3790	81
52	0	0	2138	10	3789	85
53	0	0	2197	11	3791	84
54	0	0	2257	11	3791	88
55	0	0	2349	10	3789	85
56	0	0	2389	10	3790	82
57	0	0	2346	3	3791	86
58	0	0	2292	7	3791	85
59	0	0	2219	6	3790	85
60	0	0	2095	6	3791	84
61	0	0	1977	6	3789	83
62	0	0	1882	5	3790	86
63	0	0	1804	6	3791	86
64	0	0	1796	10	3790	86
65	0	0	1813	11	3791	88
66	0	0	1834	10	3789	80
67	0	0	1859	10	3791	80
68	0	0	1879	10	3791	81
69	0	0	1918	10	3790	88
70	0	0	1988	10	3791	87
71	0	0	2062	10	3788	81
72	0	0	2135	7	3791	82
73	0	0	2201	11	3790	81
74	0	0	2256	10	3790	81
75	0	0	2345	10	3791	83
76	0	0	2385	11	3791	82
77	0	0	2341	6	3790	83
78	0	0	2285	8	3791	85
79	0	0	2215	5	3791	83
80	0	0	2092	5	3790	86
81	0	0	1978	6	3791	87
82	0	0	1887	3	3791	88
83	0	0	1809	7	3790	88
84	0	0	1795	10	3790	81
85	0	0	1811	10	3790	83
86	0	0	1834	8	3790	87
87	0	0	1855	9	3789	88
88	0	0	1879	11	3791	88
89	0	0	1918	10	3790	84
90	0	0	1978	10	3790	80
91	0	0	2051	10	3790	81
92	0	0	2129	7	3791	81
93	0	0	2201	10	3791	88
94	0	0	2258	10	3790	86
95	0	0	2345	10	3791	85
96	0	0	2383	7	3790	84
97	0	0	2340	7	3788	86
98	0	0	2294	7	3790	84
99	0	0	2219	6	3790	86
100	0	0	2094	6	3789	87
101	0	0	1979	6	3790	83
102	0	0	1887	6	3790	81
103	0	0	1811	8	3790	88
104	0	0	1798	12	3790	86
105	0	0	1813	10	3789	86
106	0	0	1832	10	3790	89
107	0	0	1862	8	3790	79
108	0	0	1896	11	3792	81
109	0	0	1935	10	3791	81
110	0	0	1995	10	3791	88
111	0	0	2062	10	3791	84
112	0	0	2131	8	3791	85
113	0	0	2201	10	3791	85
114	0	0	2263	10	3791	80
115	0	0	2358	10	3790	83
116	0	0	2392	10	3791	80
117	0	0	2353	4	3790	83
118	0	0	2302	7	3791	84
119	0	0	2223	6	3790	84
120	0	0	2091	6	3790	83
121	0	0	1971	6	3791	82
122	0	0	1874	7	3789	84
123	0	0	1795	7	3790	87
124	0	0	1779	9	3790	87
125	0	0	1798	10	3790	84
126	0	0	1824	10	3791	80
127	0	0	1859	11	3792	84
0	0	0	1903	10	3790	90
1	0	0	1941	11	3790	88
2	0	0	2002	10	3790	85
3	0	0	2075	10	3789	80
4	0	0	2144	11	3791	80
5	0	0	2212	14	3790	82
6	0	0	2263	10	3791	85
7	0	0	2351	10	3790	85
8	0	0	2388	11	3791	85
9	0	0	2340	7	3789	86
10	0	0	2288	6	3790	83
11	0	0	2214	5	3790	87
12	0	0	2085	5	3790	86
13	0	0	1971	7	3790	86
14	0	0	1876	8	3792	84
15	0	0	1794	7	3791	86
16	0	0	1779	10	3790	87
17	0	0	1798	9	3791	86
18	0	0	1826	8	3789	88
19	0	0	1856	9	3788	90
20	0	0	1883	10	3790	81
21	0	0	1925	10	3790	82
22	0	0	1992	10	3790	82
23	0	0	2064	10	3789	87
24	0	0	2134	9	3791	91
25	0	0	2205	10	3791	87
26	0	0	2258	10	3790	88
27	0	0	2347	10	3790	80
28	0	0	2393	7	3790	83
29	0	0	2348	4	3788	87
30	0	0	2288	7	3791	87
31	0	0	2208	10	3790	92
32	0	0	2090	5	3791	85
33	0	0	1971	7	3790	86
34	0	0	1878	4	3790	85
35	0	0	1800	6	3791	83
36	0	0	1784	10	3790	89
37	0	0	1808	10	3790	84
38	0	0	1833	10	3789	79
39	0	0	1860	10	3791	81
40	0	0	1881	8	3791	85
41	0	0	1917	10	3790	87
42	0	0	1985	9	3790	86
43	0	0	2065	11	3790	86
44	0	0	2133	11	3790	79
45	0	0	2205	11	3791	80
46	0	0	2262	10	3790	84
47	0	0	2353	10	3792	87
48	0	0	2394	11	3792	84
49	0	0	2351	8	3790	86
50	0	0	2294	7	3790	82
51	0	0	2222	7	3791	85
52	0	0	2093	5	3790	85
53	0	0	1971	6	3790	87
54	0	0	1881	8	3790	85
55	0	0	1800	7	3791	83
56	0	0	1787	10	3790	85
57	0	0	1806	11	3791	85
58	0	0	1831	10	3790	88
59	0	0	1856	8	3790	91
60	0	0	1884	8	3791	83
61	0	0	1920	10	3790	79
62	0	0	1987	8	3790	82
63	0	0	2065	11	3789	79
64	0	0	2138	9	3791	86
65	0	0	2205	11	3791	86
66	0	0	2262	10	3790	87
67	0	0	2356	12	3790	79
68	0	0	2397	10	3792	78
69	0	0	2347	8	3790	83
70	0	0	2288	6	3791	88
71	0	0	2211	6	3790	85
72	0	0	2084	7	3791	84
73	0	0	1965	3	3787	86
74	0	0	1874	8	3790	83
75	0	0	1794	6	3791	85
76	0	0	1783	10	3790	87
77	0	0	1806	11	3790	85
78	0	0	1831	10	3791	83
79	0	0	1862	9	3791	80
80	0	0	1895	11	3790	81
81	0	0	1934	10	3790	85
82	0	0	1999	11	3790	87
83	0	0	2075	10	3791	85
84	0	0	2149	14	3791	77
85	0	0	2220	10	3790	82
86	0	0	2276	10	3790	79
87	0	0	2361	11	3790	81
88	0	0	2400	11	3792	85
89	0	0	2355	8	3791	88
90	0	0	2299	7	3791	83
91	0	0	2228	6	3790	81
92	0	0	2097	7	3791	84
93	0	0	1976	8	3790	85
94	0	0	1879	7	3790	84
95	0	0	1794	6	3790	84
96	0	0	1781	10	3791	85
97	0	0	1805	12	3790	83
98	0	0	1827	10	3790	90
99	0	0	1862	14	3791	85
100	0	0	1892	10	3791	87
101	0	0	1927	10	3790	80
102	0	0	1994	10	3791	81
103	0	0	2070	8	3791	81
104	0	0	2143	12	3791	79
105	0	0	2211	9	3791	86
106	0	0	2263	11	3788	87
107	0	0	2349	8	3789	84
108	0	0	2392	10	3792	81
109	0	0	2344	7	3791	80
110	0	0	2291	7	3790	82
111	0	0	2225	6	3790	88
112	0	0	2096	7	3790	86
113	0	0	1974	7	3792	85
114	0	0	1879	6	3791	85
115	0	0	1794	7	3791	85
116	0	0	1782	10	3790	84
117	0	0	1806	11	3790	87
118	0	0	1831	10	3792	87
119	0	0	1863	7	3790	82
120	0	0	1894	9	3791	84
121	0	0	1921	10	3790	79
122	0	0	1984	11	3789	84
123	0	0	2055	12	3790	86
124	0	0	2124	9	3791	87
125	0	0	2199	9	3791	83
126	0	0	2257	10	3790	80
127	0	0	2350	10	3789	82
0	0	0	2396	11	3790	82
1	0	0	2352	7	3791	83
2	0	0	2289	7	3790	86
3	0	0	2219	6	3790	83
4	0	0	2092	4	3791	83
5	0	0	1975	7	3788	81
6	0	0	1883	7	3791	86
7	0	0	1801	7	3792	85
8	0	0	1784	7	3790	84
9	0	0	1803	8	3791	84
10	0	0	1831	9	3791	84
11	0	0	1857	11	3790	85
12	0	0	1886	9	3791	86
13	0	0	1922	10	3791	86
14	0	0	1988	10	3790	81
15	0	0	2053	10	3791	80
16	0	0	2127	11	3791	80
17	0	0	2201	10	3791	82
18	0	0	2254	10	3790	88
19	0	0	2346	10	3790	87
20	0	0	2389	10	3790	85
21	0	0	2350	7	3790	80
22	0	0	2293	7	3790	83
23	0	0	2221	6	3790	84
24	0	0	2094	6	3790	87
25	0	0	1979	4	3790	87
26	0	0	1886	7	3790	85
27	0	0	1799	5	3791	84
28	0	0	1781	9	3790	84
29	0	0	1799	8	3791	85
30	0	0	1830	7	3791	86
31	0	0	1856	11	3790	82
32	0	0	1887	9	3791	84
33	0	0	1923	10	3790	80
34	0	0	1989	10	3791	79
35	0	0	2065	11	3790	81
36	0	0	2141	11	3790	85
37	0	0	2208	8	3791	88
38	0	0	2259	10	3790	84
39	0	0	2349	10	3790	79
40	0	0	2392	8	3790	79
41	0	0	2350	6	3791	81
42	0	0	2293	6	3791	87
43	0	0	2223	7	3791	86
44	0	0	2096	6	3790	86
45	0	0	1973	7	3792	82
46	0	0	1878	7	3791	84
47	0	0	1795	5	3790	86
48	0	0	1779	14	3790	84
49	0	0	1796	9	3790	85
50	0	0	1819	8	3790	87
51	0	0	1852	11	3791	82
52	0	0	1883	11	3790	85
53	0	0	1921	9	3790	86
54	0	0	1992	10	3790	87
55	0	0	2073	7	3790	81
56	0	0	2147	11	3790	82
57	0	0	2218	10	3791	81
58	0	0	2272	10	3790	80
59	0	0	2362	13	3791	86
60	0	0	2398	10	3792	87
61	0	0	2356	7	3790	83
62	0	0	2301	5	3791	79
63	0	0	2224	6	3792	84
64	0	0	2087	4	3791	84
65	0	0	1962	7	3790	83
66	0	0	1870	3	3790	87
67	0	0	1787	7	3791	84
68	0	0	1776	10	3790	84
69	0	0	1799	10	3790	85
70	0	0	1827	11	3790	80
71	0	0	1861	7	3790	86
72	0	0	1894	10	3791	85
73	0	0	1931	12	3790	79
74	0	0	1997	10	3790	81
75	0	0	2070	10	3792	79
76	0	0	2138	11	3791	85
77	0	0	2206	11	3791	85
78	0	0	2261	10	3791	86
79	0	0	2356	10	3790	79
80	0	0	2396	9	3790	78
81	0	0	2357	8	3791	84
82	0	0	2300	6	3791	83
83	0	0	2229	6	3790	87
84	0	0	2100	5	3790	86
85	0	0	1975	5	3790	85
86	0	0	1878	8	3790	87
87	0	0	1792	7	3791	85
88	0	0	1777	10	3790	87
89	0	0	1803	10	3790	84
90	0	0	1839	7	3790	80
91	0	0	1874	10	3791	85
92	0	0	1904	10	3791	82
93	0	0	1934	10	3790	83
94	0	0	1996	11	3792	86
95	0	0	2070	10	3791	86
96	0	0	2142	11	3789	80
97	0	0	2214	11	3792	79
98	0	0	2267	10	3791	79
99	0	0	2353	10	3790	81
100	0	0	2392	10	3792	88
101	0	0	2345	4	3790	86
102	0	0	2285	7	3791	83
103	0	0	2215	7	3789	79
104	0	0	2087	6	3790	84
105	0	0	1969	6	3790	85
106	0	0	1876	6	3791	87
107	0	0	1793	6	3791	86
108	0	0	1779	10	3791	83
109	0	0	1801	10	3790	83
110	0	0	1831	12	3791	86
111	0	0	1861	12	3790	87
112	0	0	1889	11	3791	85
113	0	0	1922	10	3790	80
114	0	0	1996	11	3790	80
115	0	0	2077	7	3790	80
116	0	0	2145	12	3790	82
117	0	0	2211	10	3791	87
118	0	0	2259	10	3790	83
119	0	0	2349	10	3790	85
120	0	0	2398	8	3791	81
121	0	0	2354	7	3790	83
122	0	0	2288	7	3791	83
123	0	0	2215	7	3789	85
124	0	0	2092	10	3790	86
125	0	0	1972	6	3791	85
126	0	0	1875	6	3791	85
127	0	0	1791	7	3790	84
0	0	0	1772	9	3790	83
1	0	0	1796	11	3791	86
2	0	0	1825	7	3790	84
3	0	0	1851	11	3790	79
4	0	0	1882	8	3791	82
5	0	0	1921	11	3790	79
6	0	0	1984	8	3790	87
7	0	0	2062	9	3791	85
8	0	0	2140	8	3791	89
9	0	0	2215	9	3791	81
10	0	0	2262	9	3790	80
11	0	0	2350	9	3792	81
12	0	0	2396	14	3791	80
13	0	0	2359	9	3790	86
14	0	0	2297	8	3792	83
15	0	0	2227	6	3790	85
16	0	0	2102	7	3790	82
17	0	0	1980	9	3791	85
18	0	0	1882	7	3790	87
19	0	0	1798	7	3791	85
20	0	0	1779	9	3790	81
21	0	0	1800	11	3791	83
22	0	0	1830	7	3791	81
23	0	0	1854	12	3790	85
24	0	0	1884	8	3791	87
25	0	0	1920	11	3790	83
26	0	0	1986	8	3791	82
27	0	0	2063	11	3792	81
28	0	0	2131	11	3790	81
29	0	0	2202	11	3792	80
30	0	0	2252	11	3792	80
31	0	0	2346	15	3789	84
32	0	0	2399	10	3791	90
33	0	0	2362	10	3790	80
34	0	0	2301	5	3791	84
35	0	0	2233	6	3790	80
36	0	0	2101	6	3790	86
37	0	0	1982	6	3791	87
38	0	0	1890	8	3790	85
39	0	0	1806	8	3790	83
40	0	0	1789	7	3790	84
41	0	0	1806	10	3790	86
42	0	0	1829	10	3791	88
43	0	0	1855	10	3791	84
44	0	0	1889	8	3790	84
45	0	0	1924	10	3791	81
46	0	0	1985	9	3790	80
47	0	0	2054	11	3790	86
48	0	0	2125	10	3788	84
49	0	0	2193	8	3791	86
50	0	0	2240	10	3790	79
51	0	0	2327	10	3790	79
52	0	0	2370	8	3792	82
53	0	0	2342	8	3790	83
54	0	0	2296	6	3791	87
55	0	0	2241	6	3790	84
56	0	0	2129	6	3790	85
57	0	0	2019	8	3790	85
58	0	0	1930	8	3790	84
59	0	0	1843	5	3791	86
60	0	0	1811	7	3791	84
61	0	0	1820	10	3788	83
62	0	0	1833	8	3790	83
63	0	0	1850	12	3790	77
64	0	0	1869	8	3791	89
65	0	0	1891	11	3791	84
66	0	0	1941	10	3790	87
67	0	0	1997	12	3790	81
68	0	0	2069	13	3790	77
69	0	0	2146	8	3791	80
70	0	0	2208	7	3790	76
71	0	0	2296	10	3790	87
72	0	0	2359	8	3790	87
73	0	0	2360	9	3788	85
74	0	0	2332	8	3791	84
75	0	0	2285	6	3790	82
76	0	0	2181	8	3791	85
77	0	0	2072	6	3791	83
78	0	0	1975	7	3789	85
79	0	0	1881	6	3791	84
80	0	0	1828	7	3790	84
81	0	0	1820	7	3791	84
82	0	0	1823	10	3792	86
83	0	0	1829	11	3788	88
84	0	0	1842	10	3791	82
85	0	0	1864	10	3790	82
86	0	0	1916	12	3791	81
87	0	0	1984	10	3791	80
88	0	0	2053	9	3791	84
89	0	0	2134	11	3791	85
90	0	0	2197	10	3790	84
91	0	0	2300	7	3791	80
92	0	0	2370	13	3790	80
93	0	0	2378	8	3789	83
94	0	0	2349	7	3792	83
95	0	0	2302	7	3790	85
96	0	0	2202	5	3791	86
97	0	0	2092	5	3791	83
98	0	0	1989	7	3790	84
99	0	0	1888	8	3791	87
100	0	0	1828	7	3791	86
101	0	0	1813	8	3790	87
102	0	0	1812	10	3790	84
103	0	0	1809	11	3790	80
104	0	0	1818	8	3791	81
105	0	0	1841	10	3791	86
106	0	0	1894	10	3790	86
107	0	0	1967	10	3791	85
108	0	0	2041	11	3791	80
109	0	0	2126	12	3791	80
110	0	0	2194	10	3791	79
111	0	0	2284	10	3790	81
112	0	0	2358	6	3791	90
113	0	0	2366	9	3790	86
114	0	0	2339	7	3791	85
115	0	0	2303	6	3790	83
116	0	0	2210	6	3790	85
117	0	0	2099	8	3790	85
118	0	0	1994	6	3789	88
119	0	0	1891	9	3791	83
120	0	0	1830	7	3791	84
121	0	0	1812	8	3790	82
122	0	0	1808	14	3789	84
123	0	0	1807	10	3791	87
124	0	0	1822	11	3791	87
125	0	0	1843	10	3790	82
126	0	0	1898	7	3791	81
127	0	0	1968	10	3791	83
0	0	0	2041	9	3790	81
1	0	0	2127	10	3791	87
2	0	0	2189	10	3791	85
3	0	0	2284	9	3791	84
4	0	0	2362	11	3790	81
5	0	0	2379	9	3791	86
6	0	0	2353	11	3791	83
7	0	0	2318	6	3791	86
8	0	0	2223	6	3791	84
9	0	0	2109	7	3790	81
10	0	0	2002	7	3790	84
11	0	0	1900	9	3791	87
12	0	0	1830	6	3790	88
13	0	0	1815	7	3792	84
14	0	0	1809	11	3790	86
15	0	0	1812	8	3791	81
16	0	0	1821	14	3791	82
17	0	0	1841	11	3790	86
18	0	0	1892	8	3791	85
19	0	0	1969	10	3791	88
20	0	0	2046	10	3791	84
21	0	0	2124	9	3791	80
22	0	0	2191	10	3790	82
23	0	0	2289	8	3790	83
24	0	0	2364	10	3791	80
25	0	0	2376	10	3792	83
26	0	0	2351	8	3791	86
27	0	0	2311	6	3790	83
28	0	0	2216	7	3792	85
29	0	0	2101	7	3790	86
30	0	0	1996	7	3791	88
31	0	0	1893	5	3791	85
32	0	0	1829	7	3790	84
33	0	0	1815	7	3792	82
34	0	0	1806	9	3791	80
35	0	0	1812	10	3792	82
36	0	0	1826	11	3791	86
37	0	0	1843	10	3792	85
38	0	0	1890	10	3791	81
39	0	0	1955	12	3790	80
40	0	0	2033	10	3792	84
41	0	0	2116	9	3791	86
42	0	0	2187	12	3791	86
43	0	0	2288	7	3790	83
44	0	0	2363	11	3791	81
45	0	0	2382	10	3791	81
46	0	0	2361	8	3791	87
47	0	0	2324	7	3790	84
48	0	0	2232	7	3791	86
49	0	0	2115	7	3791	80
50	0	0	2008	8	3791	85
51	0	0	1897	8	3792	82
52	0	0	1830	7	3790	85
53	0	0	1809	5	3791	88
54	0	0	1804	9	3792	88
55	0	0	1805	11	3792	85
56	0	0	1821	9	3791	77
57	0	0	1845	10	3791	81
58	0	0	1892	11	3792	86
59	0	0	1954	10	3790	86
60	0	0	2033	10	3793	87
61	0	0	2124	10	3792	83
62	0	0	2196	10	3790	81
63	0	0	2288	7	3791	82
64	0	0	2363	10	3791	80
65	0	0	2378	9	3792	83
66	0	0	2354	8	3792	84
67	0	0	2314	6	3791	83
68	0	0	2220	7	3790	83
69	0	0	2109	6	3791	85
70	0	0	2005	6	3790	83
71	0	0	1900	10	3791	86
72	0	0	1831	7	3790	83
73	0	0	1809	7	3791	83
74	0	0	1803	9	3791	80
75	0	0	1805	10	3791	81
76	0	0	1821	10	3791	87
77	0	0	1840	10	3790	85
78	0	0	1890	10	3791	84
79	0	0	1967	10	3792	78
80	0	0	2041	10	3788	80
81	0	0	2124	8	3791	84
82	0	0	2193	10	3790	85
83	0	0	2309	11	3788	86
84	0	0	2408	9	3792	86
85	0	0	2408	8	3791	83
86	0	0	2353	8	3791	86
87	0	0	2282	6	3791	86
88	0	0	2145	8	3791	86
89	0	0	2005	4	3790	86
90	0	0	1895	5	3792	85
91	0	0	1809	5	3791	84
92	0	0	1780	11	3790	82
93	0	0	1808	7	3791	86
94	0	0	1841	10	3791	84
95	0	0	1871	10	3792	89
96	0	0	1901	11	3790	84
97	0	0	1926	10	3790	82
98	0	0	1981	11	3789	82
99	0	0	2056	9	3792	87
100	0	0	2127	10	3790	86
101	0	0	2201	10	3790	86
102	0	0	2246	10	3791	83
103	0	0	2339	10	3791	81
104	0	0	2399	9	3791	82
105	0	0	2368	6	3792	83
106	0	0	2297	8	3791	85
107	0	0	2233	5	3790	86
108	0	0	2110	6	3790	84
109	0	0	1980	7	3791	84
110	0	0	1880	7	3790	85
111	0	0	1792	8	3791	87
112	0	0	1768	10	3790	87
113	0	0	1791	10	3790	84
114	0	0	1824	9	3791	82
115	0	0	1855	11	3790	81
116	0	0	1888	10	3792	84
117	0	0	1920	10	3792	87
118	0	0	1982	10	3790	86
119	0	0	2054	10	3791	80
120	0	0	2128	11	3791	81
121	0	0	2206	12	3792	82
122	0	0	2253	11	3789	83
123	0	0	2344	10	3790	85
124	0	0	2402	9	3792	84
125	0	0	2370	7	3790	81
126	0	0	2304	10	3791	86
127	0	0	2240	10	3790	85
0	0	0	2114	6	3790	88
1	0	0	1983	5	3791	89
2	0	0	1886	7	3790	80
3	0	0	1802	8	3791	82
4	0	0	1776	11	3790	81
5	0	0	1802	10	3790	91
6	0	0	1833	9	3792	88
7	0	0	1863	10	3790	88
8	0	0	1900	11	3791	80
9	0	0	1930	10	3790	80
10	0	0	1987	10	3790	82
11	0	0	2056	8	3791	84
12	0	0	2122	11	3790	80
13	0	0	2192	11	3791	81
14	0	0	2232	14	3790	82
15	0	0	2316	10	3790	87
16	0	0	2365	9	3792	85
17	0	0	2338	7	3791	87
18	0	0	2288	7	3791	87
19	0	0	2238	6	3790	84
20	0	0	2138	4	3791	83
21	0	0	2038	6	3791	86
22	0	0	1949	6	3791	87
23	0	0	1863	6	3791	86
24	0	0	1816	7	3790	88
25	0	0	1814	8	3792	87
26	0	0	1818	10	3790	82
27	0	0	1828	10	3790	79
28	0	0	1851	10	3791	80
29	0	0	1876	11	3790	86
30	0	0	1931	9	3792	85
31	0	0	1998	8	3789	84
32	0	0	2075	10	3791	81
33	0	0	2157	9	3792	80
34	0	0	2220	10	3790	82
35	0	0	2310	8	3791	84
36	0	0	2382	11	3790	80
37	0	0	2395	10	3791	86
38	0	0	2365	8	3792	81
39	0	0	2322	6	3790	84
40	0	0	2219	7	3792	85
41	0	0	2103	5	3790	86
42	0	0	1990	6	3790	85
43	0	0	1888	3	3791	84
44	0	0	1818	7	3790	79
45	0	0	1798	7	3790	82
46	0	0	1796	9	3791	85
47	0	0	1801	10	3790	82
48	0	0	1820	14	3791	83
49	0	0	1837	10	3790	80
50	0	0	1892	10	3790	81
51	0	0	1963	10	3790	82
52	0	0	2040	11	3792	80
53	0	0	2126	7	3793	85
54	0	0	2191	10	3792	84
55	0	0	2283	7	3790	83
56	0	0	2358	11	3791	79
57	0	0	2377	10	3791	83
58	0	0	2349	7	3791	86
59	0	0	2316	8	3790	86
60	0	0	2225	11	3789	83
61	0	0	2114	7	3791	85
62	0	0	2009	6	3791	84
63	0	0	1906	1	3790	85
64	0	0	1834	7	3791	84
65	0	0	1814	7	3790	88
66	0	0	1807	9	3790	87
67	0	0	1815	8	3791	82
68	0	0	1829	11	3791	82
69	0	0	1845	10	3790	82
70	0	0	1894	11	3791	86
71	0	0	1966	11	3791	87
72	0	0	2042	9	3791	86
73	0	0	2122	8	3791	81
74	0	0	2183	10	3790	82
75	0	0	2279	10	3790	83
76	0	0	2361	7	3791	84
77	0	0	2377	10	3791	85
78	0	0	2350	3	3791	83
79	0	0	2314	6	3789	82
80	0	0	2226	6	3790	84
81	0	0	2115	7	3790	85
82	0	0	2007	5	3790	86
83	0	0	1901	3	3790	86
84	0	0	1830	6	3792	82
85	0	0	1804	11	3790	83
86	0	0	1801	10	3790	82
87	0	0	1806	7	3791	85
88	0	0	1819	8	3791	88
89	0	0	1844	7	3791	86
90	0	0	1891	11	3790	80
91	0	0	1961	11	3790	80
92	0	0	2042	10	3790	81
93	0	0	2129	7	3792	82
94	0	0	2192	10	3790	86
95	0	0	2288	15	3790	84
96	0	0	2366	11	3790	85
97	0	0	2389	10	3792	83
98	0	0	2362	8	3791	82
99	0	0	2329	7	3790	84
100	0	0	2242	7	3791	86
101	0	0	2129	10	3789	86
102	0	0	2016	6	3789	84
103	0	0	1910	6	3791	83
104	0	0	1837	6	3790	87
105	0	0	1811	7	3792	87
106	0	0	1805	7	3791	89
107	0	0	1805	10	3792	82
108	0	0	1813	8	3792	80
109	0	0	1832	10	3790	81
110	0	0	1877	10	3790	86
111	0	0	1947	10	3791	83
112	0	0	2025	9	3791	85
113	0	0	2112	5	3791	85
114	0	0	2178	10	3790	79
115	0	0	2270	15	3789	80
116	0	0	2351	14	3791	79
117	0	0	2374	10	3788	83
118	0	0	2353	8	3791	87
119	0	0	2318	7	3790	85
120	0	0	2226	6	3790	83
121	0	0	2119	8	3791	84
122	0	0	2010	7	3789	86
123	0	0	1904	5	3791	86
124	0	0	1831	7	3790	86
125	0	0	1812	7	3793	84
126	0	0	1810	10	3791	88
127	0	0	1810	10	3789	81
0	0	0	1829	10	3791	86
1	0	0	1850	10	3790	86
2	0	0	1902	10	3790	86
3	0	0	1972	8	3790	79
4	0	0	2046	9	3792	81
5	0	0	2130	8	3791	82
6	0	0	2195	10	3790	86
7	0	0	2287	10	3790	85
8	0	0	2365	11	3790	86
9	0	0	2383	10	3791	88
10	0	0	2363	8	3791	81
11	0	0	2329	6	3791	82
12	0	0	2230	10	3790	84
13	0	0	2119	6	3791	84
14	0	0	2005	8	3791	86
15	0	0	1897	4	3792	85
16	0	0	1820	6	3790	84
17	0	0	1798	9	3791	86
18	0	0	1791	9	3791	83
19	0	0	1798	10	3789	82
20	0	0	1817	10	3791	87
21	0	0	1839	11	3790	80
22	0	0	1885	10	3790	81
23	0	0	1952	10	3791	85
24	0	0	2030	11	3790	86
25	0	0	2117	9	3792	86
26	0	0	2186	10	3790	86
27	0	0	2284	8	3791	78
28	0	0	2370	8	3790	79
29	0	0	2397	10	3792	83
30	0	0	2375	8	3791	89
31	0	0	2340	6	3794	86
32	0	0	2247	5	3791	85
33	0	0	2131	4	3790	85
34	0	0	2020	7	3790	86
35	0	0	1912	6	3791	84
36	0	0	1837	6	3791	86
37	0	0	1814	6	3792	85
38	0	0	1809	10	3791	82
39	0	0	1811	10	3788	83
40	0	0	1822	9	3791	88
41	0	0	1841	9	3790	85
42	0	0	1892	9	3791	84
43	0	0	1960	8	3790	86
44	0	0	2032	9	3790	80
45	0	0	2116	10	3792	78
46	0	0	2179	10	3791	78
47	0	0	2274	10	3790	84
48	0	0	2356	10	3791	86
49	0	0	2379	9	3791	85
50	0	0	2349	6	3791	87
51	0	0	2307	7	3791	81
52	0	0	2216	5	3792	83
53	0	0	2104	8	3791	84
54	0	0	2000	8	3791	87
55	0	0	1898	6	3791	86
56	0	0	1828	6	3790	85
57	0	0	1807	5	3791	84
58	0	0	1809	12	3790	81
59	0	0	1811	10	3792	85
60	0	0	1821	11	3792	84
61	0	0	1846	10	3790	84
62	0	0	1904	10	3790	82
63	0	0	1974	12	3790	78
64	0	0	2054	11	3791	82
65	0	0	2139	10	3791	86
66	0	0	2205	10	3791	84
67	0	0	2297	10	3790	86
68	0	0	2379	10	3792	82
69	0	0	2399	10	3792	79
70	0	0	2360	4	3791	83
71	0	0	2318	12	3789	89
72	0	0	2226	7	3791	88
73	0	0	2107	6	3791	89
74	0	0	1996	6	3792	87
75	0	0	1893	7	3790	83
76	0	0	1818	6	3791	83
77	0	0	1799	8	3790	85
78	0	0	1799	10	3792	87
79	0	0	1801	10	3792	83
80	0	0	1817	14	3790	84
81	0	0	1836	10	3792	83
82	0	0	1888	10	3790	85
83	0	0	1956	10	3790	85
84	0	0	2035	11	3792	85
85	0	0	2121	10	3790	84
86	0	0	2188	16	3789	82
87	0	0	2287	10	3791	80
88	0	0	2370	10	3791	83
89	0	0	2397	9	3792	86
90	0	0	2364	7	3790	86
91	0	0	2328	7	3791	88
92	0	0	2235	3	3791	83
93	0	0	2110	6	3791	83
94	0	0	2001	6	3791	82
95	0	0	1897	4	3791	86
96	0	0	1821	7	3792	86
97	0	0	1804	7	3791	86
98	0	0	1803	10	3790	84
99	0	0	1814	9	3792	85
100	0	0	1835	9	3790	81
101	0	0	1857	11	3796	84
102	0	0	1906	13	3792	83
103	0	0	1976	10	3791	85
104	0	0	2051	9	3791	82
105	0	0	2136	10	3792	81
106	0	0	2193	10	3790	82
107	0	0	2284	11	3790	83
108	0	0	2370	9	3792	87
109	0	0	2391	10	3790	83
110	0	0	2361	7	3792	77
111	0	0	2319	6	3790	80
112	0	0	2225	7	3791	86
113	0	0	2106	6	3792	86
114	0	0	1997	7	3790	86
115	0	0	1895	6	3791	87
116	0	0	1818	7	3790	82
117	0	0	1802	8	3790	82
118	0	0	1798	9	3790	84
119	0	0	1806	10	3790	87
120	0	0	1826	10	3792	88
121	0	0	1848	10	3790	85
122	0	0	1900	10	3788	83
123	0	0	1965	11	3790	82
124	0	0	2043	10	3791	81
125	0	0	2131	11	3791	83
126	0	0	2193	10	3791	83
127	0	0	2284	10	3790	82
0	0	0	2361	10	3791	84
1	0	0	2393	8	3792	85
2	0	0	2369	7	3791	84
3	0	0	2329	7	3790	86
4	0	0	2236	5	3792	87
5	0	0	2116	3	3792	81
6	0	0	2006	5	3786	81
7	0	0	1893	7	3791	83
8	0	0	1815	7	3790	88
9	0	0	1800	8	3788	89
10	0	0	1793	11	3790	84
11	0	0	1807	9	3791	86
12	0	0	1822	10	3791	84
13	0	0	1839	10	3791	81
14	0	0	1890	10	3790	83
15	0	0	1951	10	3791	85
16	0	0	2030	9	3791	84
17	0	0	2117	7	3791	82
18	0	0	2188	10	3790	83
19	0	0	2273	11	3790	81
20	0	0	2353	7	3792	83
21	0	0	2383	10	3791	86
22	0	0	2352	7	3791	86
23	0	0	2322	6	3790	84
24	0	0	2235	6	3790	82
25	0	0	2117	3	3791	85
26	0	0	2007	6	3791	88
27	0	0	1903	7	3791	90
28	0	0	1828	7	3791	88
29	0	0	1808	7	3791	82
30	0	0	1802	9	3791	83
31	0	0	1807	10	3792	81
32	0	0	1826	11	3791	87
33	0	0	1849	10	3790	86
34	0	0	1896	11	3790	83
35	0	0	1967	8	3791	80
36	0	0	2043	9	3790	81
37	0	0	2128	10	3791	83
38	0	0	2193	11	3790	82
39	0	0	2281	8	3791	84
40	0	0	2361	9	3792	80
41	0	0	2386	8	3790	79
42	0	0	2353	7	3792	86
43	0	0	2313	7	3790	87
44	0	0	2228	5	3790	87
45	0	0	2112	7	3791	88
46	0	0	2005	7	3789	84
47	0	0	1900	1	3791	83
48	0	0	1829	6	3792	81
49	0	0	1811	9	3791	86
50	0	0	1810	10	3792	89
51	0	0	1816	10	3791	87
52	0	0	1826	10	3792	81
53	0	0	1847	13	3791	80
54	0	0	1895	9	3791	82
55	0	0	1961	9	3792	84
56	0	0	2038	10	3791	86
57	0	0	2123	10	3792	84
58	0	0	2189	10	3790	83
59	0	0	2275	11	3791	81
60	0	0	2364	9	3792	82
61	0	0	2391	10	3790	84
62	0	0	2363	8	3791	85
63	0	0	2327	7	3791	87
64	0	0	2242	6	3791	83
65	0	0	2125	3	3791	80
66	0	0	2015	6	3789	87
67	0	0	1906	5	3791	87
68	0	0	1828	6	3792	86
69	0	0	1809	9	3790	87
70	0	0	1807	10	3791	83
71	0	0	1807	10	3791	82
72	0	0	1824	10	3791	85
73	0	0	1843	10	3790	87
74	0	0	1890	12	3790	55
75	0	0	1958	8	3791	84
76	0	0	2035	8	3791	85
77	0	0	2120	10	3792	86
78	0	0	2184	8	3791	81
79	0	0	2270	9	3791	79
80	0	0	2355	9	3792	78
81	0	0	2382	8	3791	81
82	0	0	2354	8	3792	82
83	0	0	2324	7	3790	87
84	0	0	2231	6	3790	85
85	0	0	2118	6	3792	81
86	0	0	2007	6	3791	82
87	0	0	1906	6	3792	82
88	0	0	1829	11	3790	87
89	0	0	1806	3	3791	87
90	0	0	1806	10	3791	87
91	0	0	1811	9	3791	78
92	0	0	1834	10	3792	84
93	0	0	1855	10	3791	85
94	0	0	1902	10	3790	85
95	0	0	1964	10	3791	83
96	0	0	2040	8	3792	81
97	0	0	2120	10	3792	80
98	0	0	2180	10	3790	83
99	0	0	2271	10	3791	84
100	0	0	2359	10	3791	85
101	0	0	2386	10	3791	86
102	0	0	2361	8	3790	79
103	0	0	2329	8	3791	81
104	0	0	2244	4	3791	83
105	0	0	2130	6	3790	88
106	0	0	2017	6	3791	86
107	0	0	1905	6	3792	86
108	0	0	1828	8	3791	85
109	0	0	1803	3	3791	86
110	0	0	1799	10	3790	84
111	0	0	1805	11	3792	87
112	0	0	1826	10	3788	85
113	0	0	1841	10	3792	83
114	0	0	1884	13	3791	83
115	0	0	1953	11	3790	83
116	0	0	2032	11	3791	82
117	0	0	2118	9	3792	84
118	0	0	2180	10	3791	88
119	0	0	2266	11	3792	81
120	0	0	2351	10	3790	81
121	0	0	2386	11	3792	84
122	0	0	2360	7	3788	86
123	0	0	2327	7	3791	86
124	0	0	2242	3	3791	90
125	0	0	2129	6	3792	86
126	0	0	2019	4	3790	83
127	0	0	1914	6	3788	83
0	0	0	1838	8	3791	86
1	0	0	1813	3	3793	87
2	0	0	1806	10	3790	87
3	0	0	1811	10	3789	79
4	0	0	1826	10	3790	87
5	0	0	1847	11	3791	84
6	0	0	1893	7	3792	87
7	0	0	1956	10	3791	86
8	0	0	2033	10	3792	82
9	0	0	2114	10	3788	79
10	0	0	2178	12	3791	81
11	0	0	2267	8	3792	85
12	0	0	2356	11	3791	85
13	0	0	2388	10	3788	87
14	0	0	2358	7	3789	87
15	0	0	2317	8	3790	82
16	0	0	2234	1	3793	83
17	0	0	2118	7	3791	84
18	0	0	2005	7	3791	85
19	0	0	1903	6	3789	88
20	0	0	1822	8	3791	86
21	0	0	1801	3	3793	87
22	0	0	1800	9	3791	84
23	0	0	1806	10	3791	83
24	0	0	1820	10	3789	87
25	0	0	1835	10	3790	83
26	0	0	1885	11	3790	83
27	0	0	1957	10	3789	82
28	0	0	2031	9	3791	81
29	0	0	2116	10	3791	85
30	0	0	2181	10	3791	85
31	0	0	2272	11	3791	85
32	0	0	2353	10	3791	81
33	0	0	2387	9	3792	81
34	0	0	2359	7	3788	81
35	0	0	2322	6	3792	87
36	0	0	2238	6	3792	87
37	0	0	2122	6	3791	88
38	0	0	2015	6	3791	87
39	0	0	1907	10	3788	80
40	0	0	1826	7	3792	83
41	0	0	1805	12	3790	84
42	0	0	1805	10	3791	86
43	0	0	1808	10	3792	83
44	0	0	1818	10	3788	84
45	0	0	1837	9	3792	84
46	0	0	1886	10	3791	84
47	0	0	1955	10	3791	85
48	0	0	2032	10	3792	84
49	0	0	2114	10	3791	82
50	0	0	2181	9	3792	81
51	0	0	2264	12	3790	80
52	0	0	2352	10	3791	84
53	0	0	2386	9	3792	88
54	0	0	2366	7	3792	82
55	0	0	2334	7	3791	89
56	0	0	2249	3	3791	82
57	0	0	2130	6	3790	81
58	0	0	2015	6	3791	82
59	0	0	1913	6	3791	89
60	0	0	1834	6	3791	87
61	0	0	1818	8	3790	85
62	0	0	1811	10	3790	83
63	0	0	1811	8	3791	81
64	0	0	1830	10	3791	88
65	0	0	1850	10	3791	84
66	0	0	1894	10	3790	83
67	0	0	1956	10	3791	81
68	0	0	2030	10	3792	80
69	0	0	2109	10	3791	83
70	0	0	2174	10	3792	84
71	0	0	2259	14	3790	85
72	0	0	2352	10	3791	82
73	0	0	2391	10	3791	80
74	0	0	2369	7	3791	80
75	0	0	2335	7	3790	82
76	0	0	2250	5	3792	87
77	0	0	2127	6	3791	87
78	0	0	2020	6	3791	84
79	0	0	1917	5	3789	82
80	0	0	1834	7	3790	82
81	0	0	1806	6	3790	84
82	0	0	1798	10	3788	87
83	0	0	1804	10	3791	88
84	0	0	1826	10	3792	86
85	0	0	1848	8	3790	82
86	0	0	1888	10	3790	87
87	0	0	1953	11	3791	84
88	0	0	2026	10	3791	85
89	0	0	2109	7	3790	81
90	0	0	2173	10	3792	82
91	0	0	2256	11	3790	81
92	0	0	2352	10	3791	80
93	0	0	2390	10	3791	84
94	0	0	2369	8	3790	85
95	0	0	2340	6	3792	87
96	0	0	2255	3	3791	80
97	0	0	2132	6	3791	81
98	0	0	2019	7	3792	80
99	0	0	1917	6	3791	83
100	0	0	1840	6	3791	88
101	0	0	1818	7	3791	87
102	0	0	1810	9	3790	87
103	0	0	1814	10	3791	86
104	0	0	1826	10	3791	82
105	0	0	1845	10	3791	85
106	0	0	1888	9	3791	84
107	0	0	1954	11	3791	81
108	0	0	2028	10	3792	82
109	0	0	2115	10	3791	80
110	0	0	2180	10	3791	83
111	0	0	2261	9	3791	83
112	0	0	2351	10	3791	83
113	0	0	2389	9	3791	82
114	0	0	2360	7	3791	83
115	0	0	2323	7	3791	81
116	0	0	2243	6	3790	81
117	0	0	2126	7	3791	84
118	0	0	2014	5	3791	94
119	0	0	1919	5	3791	87
120	0	0	1836	5	3792	82
121	0	0	1814	7	3792	81
122	0	0	1813	11	3791	83
123	0	0	1815	9	3792	82
124	0	0	1826	10	3790	86
125	0	0	1837	10	3792	83
126	0	0	1879	11	3791	84
127	0	0	1948	13	3792	82
0	0	0	2023	10	3791	84
1	0	0	2103	10	3791	82
2	0	0	2175	10	3792	84
3	0	0	2264	8	3791	80
4	0	0	2349	11	3792	84
5	0	0	2387	10	3791	80
6	0	0	2363	8	3792	84
7	0	0	2332	7	3791	85
8	0	0	2253	4	3791	86
9	0	0	2140	7	3792	80
10	0	0	2025	6	3791	84
11	0	0	1920	6	3789	82
12	0	0	1834	7	3790	83
13	0	0	1805	7	3792	85
14	0	0	1804	10	3791	85
15	0	0	1811	11	3791	88
16	0	0	1823	10	3792	79
17	0	0	1839	11	3791	83
18	0	0	1884	10	3791	83
19	0	0	1951	13	3792	86
20	0	0	2027	11	3791	85
21	0	0	2111	10	3790	83
22	0	0	2174	10	3791	82
23	0	0	2259	9	3791	82
24	0	0	2352	13	3791	85
25	0	0	2388	10	3792	88
26	0	0	2366	7	3792	82
27	0	0	2332	8	3790	83
28	0	0	2254	4	3791	81
29	0	0	2137	7	3791	80
30	0	0	2030	6	3790	87
31	0	0	1929	5	3791	89
32	0	0	1840	8	3791	87
33	0	0	1813	8	3790	80
34	0	0	1802	11	3792	81
35	0	0	1803	11	3791	84
36	0	0	1824	12	3792	85
37	0	0	1844	11	3791	85
38	0	0	1886	10	3791	85
39	0	0	1956	11	3792	80
40	0	0	2026	11	3791	79
41	0	0	2102	10	3792	82
42	0	0	2173	10	3792	82
43	0	0	2255	5	3789	85
44	0	0	2347	11	3792	83
45	0	0	2386	9	3791	87
46	0	0	2359	7	3793	84
47	0	0	2326	7	3791	84
48	0	0	2247	6	3791	83
49	0	0	2134	9	3792	87
50	0	0	2022	6	3791	88
51	0	0	1917	7	3792	82
52	0	0	1833	7	3791	82
53	0	0	1810	7	3791	82
54	0	0	1809	10	3792	85
55	0	0	1813	8	3791	87
56	0	0	1822	11	3792	87
57	0	0	1840	10	3791	80
58	0	0	1883	9	3791	81
59	0	0	1944	12	3791	80
60	0	0	2019	12	3791	81
61	0	0	2104	10	3792	83
62	0	0	2176	9	3792	84
63	0	0	2258	11	3792	84
64	0	0	2353	9	3792	79
65	0	0	2398	10	3791	87
66	0	0	2374	8	3790	83
67	0	0	2344	7	3792	86
68	0	0	2260	6	3789	84
69	0	0	2145	7	3791	84
70	0	0	2033	7	3791	84
71	0	0	1929	7	3791	86
72	0	0	1841	6	3791	86
73	0	0	1812	8	3792	88
74	0	0	1806	9	3792	85
75	0	0	1810	9	3791	81
76	0	0	1820	10	3792	80
77	0	0	1839	10	3792	80
78	0	0	1880	11	3790	86
79	0	0	1945	10	3792	85
80	0	0	2028	9	3791	85
81	0	0	2106	11	3791	79
82	0	0	2177	10	3791	82
83	0	0	2258	10	3791	81
84	0	0	2344	10	3792	80
85	0	0	2385	11	3792	83
86	0	0	2365	2	3792	84
87	0	0	2330	7	3789	83
88	0	0	2255	7	3791	84
89	0	0	2142	6	3790	88
90	0	0	2035	6	3792	87
91	0	0	1926	8	3792	87
92	0	0	1841	7	3791	84
93	0	0	1811	8	3791	83
94	0	0	1804	10	3791	80
95	0	0	1812	8	3791	87
96	0	0	1824	12	3791	87
97	0	0	1843	10	3792	85
98	0	0	1884	12	3791	81
99	0	0	1942	10	3790	79
100	0	0	2019	8	3791	79
101	0	0	2101	10	3792	82
102	0	0	2163	10	3787	87
103	0	0	2247	11	3791	84
104	0	0	2340	10	3791	84
105	0	0	2378	9	3791	82
106	0	0	2351	7	3792	84
107	0	0	2313	7	3791	85
108	0	0	2240	6	3791	86
109	0	0	2128	7	3792	87
110	0	0	2021	5	3791	84
111	0	0	1926	6	3792	84
112	0	0	1846	7	3791	83
113	0	0	1819	8	3790	86
114	0	0	1811	9	3792	86
115	0	0	1809	11	3792	88
116	0	0	1822	8	3791	83
117	0	0	1838	10	3792	79
118	0	0	1882	8	3792	79
119	0	0	1947	6	3791	84
120	0	0	2022	10	3792	86
121	0	0	2105	9	3791	86
122	0	0	2173	10	3791	80
123	0	0	2252	10	3788	83
124	0	0	2339	10	3790	83
125	0	0	2386	10	3792	83
126	0	0	2364	8	3791	83
127	0	0	2329	7	3792	85
0	0	0	2253	7	3791	84
1	0	0	2145	5	3791	83
2	0	0	2032	7	3791	86
3	0	0	1927	6	3792	85
4	0	0	1841	6	3791	87
5	0	0	1812	7	3791	83
6	0	0	1811	10	3792	83
7	0	0	1813	8	3791	80
8	0	0	1831	8	3791	85
9	0	0	1848	10	3791	86
10	0	0	1883	12	3791	86
11	0	0	1948	7	3791	80
12	0	0	2017	9	3791	80
13	0	0	2103	10	3791	81
14	0	0	2179	10	3791	81
15	0	0	2258	10	3791	85
16	0	0	2350	9	3791	87
17	0	0	2387	11	3792	81
18	0	0	2357	7	3791	81
19	0	0	2325	8	3792	81
20	0	0	2253	6	3790	83
21	0	0	2139	3	3791	85
22	0	0	2026	6	3792	88
23	0	0	1926	7	3793	88
24	0	0	1839	7	3791	83
25	0	0	1811	7	3791	83
26	0	0	1812	9	3791	85
27	0	0	1807	9	3791	86
28	0	0	1821	12	3790	80
29	0	0	1838	10	3791	80
30	0	0	1879	10	3791	79
31	0	0	1942	10	3790	79
32	0	0	2010	13	3791	84
33	0	0	2096	11	3791	85
34	0	0	2166	10	3791	85
35	0	0	2252	10	3793	80
36	0	0	2347	8	3792	79
37	0	0	2391	9	3791	82
38	0	0	2368	8	3792	81
39	0	0	2342	8	3791	85
40	0	0	2265	6	3792	87
41	0	0	2148	5	3791	83
42	0	0	2033	7	3792	83
43	0	0	1926	5	3791	84
44	0	0	1840	8	3791	86
45	0	0	1804	8	3791	86
46	0	0	1805	7	3791	81
47	0	0	1805	10	3791	80
48	0	0	1823	11	3791	79
49	0	0	1839	10	3792	83
50	0	0	1881	11	3791	86
51	0	0	1942	7	3791	86
52	0	0	2018	11	3791	81
53	0	0	2106	10	3791	80
54	0	0	2178	10	3791	79
55	0	0	2257	10	3792	84
56	0	0	2346	7	3791	86
57	0	0	2389	10	3791	84
58	0	0	2368	7	3791	85
59	0	0	2335	6	3791	83
60	0	0	2259	6	3790	84
61	0	0	2149	4	3791	85
62	0	0	2031	5	3791	84
63	0	0	1921	10	3791	84
64	0	0	1833	6	3791	83
65	0	0	1811	8	3791	82
66	0	0	1807	9	3791	85
67	0	0	1814	11	3792	85
68	0	0	1832	10	3790	88
69	0	0	1846	10	3792	81
70	0	0	1887	11	3791	81
71	0	0	1953	10	3791	79
72	0	0	2026	11	3791	82
73	0	0	2107	10	3791	86
74	0	0	2178	10	3791	86
75	0	0	2256	11	3791	83
76	0	0	2347	11	3792	80
77	0	0	2395	10	3792	85
78	0	0	2375	8	3791	83
79	0	0	2340	7	3792	85
80	0	0	2260	3	3792	86
81	0	0	2140	7	3791	82
82	0	0	2030	6	3792	83
83	0	0	1933	5	3792	84
84	0	0	1844	6	3790	84
85	0	0	1812	7	3793	84
86	0	0	1807	9	3792	85
87	0	0	1816	11	3791	82
88	0	0	1827	10	3791	80
89	0	0	1838	10	3790	82
90	0	0	1881	9	3791	85
91	0	0	1944	9	3789	87
92	0	0	2020	10	3791	88
93	0	0	2099	11	3791	84
94	0	0	2165	9	3791	80
95	0	0	2249	10	3789	77
96	0	0	2342	15	3791	81
97	0	0	2389	10	3791	90
98	0	0	2366	8	3791	87
99	0	0	2332	7	3792	84
100	0	0	2261	9	3792	82
101	0	0	2151	4	3789	87
102	0	0	2043	6	3791	85
103	0	0	1932	5	3793	86
104	0	0	1841	5	3791	84
105	0	0	1806	8	3792	84
106	0	0	1804	9	3789	83
107	0	0	1805	10	3791	87
108	0	0	1813	10	3791	90
109	0	0	1829	10	3791	86
110	0	0	1875	9	3791	80
111	0	0	1941	8	3789	82
112	0	0	2023	10	3791	84
113	0	0	2099	10	3791	81
114	0	0	2168	9	3791	86
115	0	0	2246	9	3790	83
116	0	0	2340	8	3791	85
117	0	0	2387	8	3792	80
118	0	0	2363	8	3791	85
119	0	0	2330	8	3790	83
120	0	0	2258	7	3792	81
121	0	0	2148	8	3791	86
122	0	0	2033	7	3791	84
123	0	0	1928	6	3792	85
124	0	0	1844	7	3791	83
125	0	0	1812	8	3791	84
126	0	0	1803	6	3791	85
127	0	0	1803	11	3792	87
0	0	0	1814	10	3791	89
1	0	0	1836	9	3792	80
2	0	0	1879	11	3790	80
3	0	0	1944	8	3790	83
4	0	0	2022	9	3791	84
5	0	0	2101	11	3793	85
6	0	0	2171	11	3791	81
7	0	0	2248	10	3790	79
8	0	0	2337	8	3790	81
9	0	0	2384	10	3791	79
10	0	0	2364	8	3791	85
11	0	0	2330	7	3791	86
12	0	0	2263	5	3791	83
13	0	0	2151	8	3791	81
14	0	0	2036	6	3791	85
15	0	0	1933	7	3791	87
16	0	0	1841	7	3791	84
17	0	0	1815	7	3791	83
18	0	0	1814	8	3790	83
19	0	0	1815	9	3791	79
20	0	0	1829	10	3791	90
21	0	0	1844	9	3791	86
22	0	0	1880	9	3791	83
23	0	0	1937	10	3791	82
24	0	0	2012	10	3792	79
25	0	0	2093	10	3791	83
26	0	0	2166	10	3792	86
27	0	0	2247	10	3791	82
28	0	0	2342	12	3791	86
29	0	0	2391	10	3793	87
30	0	0	2372	8	3791	79
31	0	0	2337	8	3791	82
32	0	0	2273	5	3791	81
33	0	0	2158	6	3791	87
34	0	0	2044	6	3791	87
35	0	0	1939	6	3791	87
36	0	0	1844	4	3791	84
37	0	0	1814	9	3791	84
38	0	0	1811	10	3792	88
39	0	0	1813	10	3792	87
40	0	0	1828	11	3790	87
41	0	0	1845	10	3791	82
42	0	0	1879	11	3791	80
43	0	0	1936	8	3791	87
44	0	0	2010	11	3791	84
45	0	0	2089	10	3791	87
46	0	0	2157	10	3790	85
47	0	0	2235	11	3791	79
48	0	0	2330	12	3791	81
49	0	0	2378	10	3792	84
50	0	0	2364	8	3791	85
51	0	0	2334	7	3792	85
52	0	0	2265	10	3791	87
53	0	0	2153	4	3791	85
54	0	0	2044	6	3793	82
55	0	0	1938	7	3792	86
56	0	0	1844	7	3792	85
57	0	0	1808	8	3792	86
58	0	0	1802	9	3792	83
59	0	0	1807	10	3792	83
60	0	0	1818	11	3791	81
61	0	0	1830	11	3792	83
62	0	0	1870	8	3792	85
63	0	0	1932	12	3791	86
64	0	0	2008	9	3792	81
65	0	0	2089	10	3791	79
66	0	0	2163	11	3792	78
67	0	0	2240	14	3792	82
68	0	0	2332	14	3791	86
69	0	0	2383	10	3792	84
70	0	0	2364	10	3789	88
71	0	0	2337	7	3791	82
72	0	0	2269	6	3790	87
73	0	0	2162	6	3792	86
74	0	0	2051	4	3792	87
75	0	0	1951	6	3791	83
76	0	0	1861	7	3791	84
77	0	0	1824	8	3791	84
78	0	0	1811	7	3791	83
79	0	0	1814	11	3791	85
80	0	0	1820	11	3791	83
81	0	0	1834	10	3791	80
82	0	0	1868	10	3791	80
83	0	0	1933	9	3792	79
84	0	0	2004	10	3792	83
85	0	0	2085	10	3792	85
86	0	0	2160	10	3791	86
87	0	0	2238	10	3791	87
88	0	0	2333	11	3791	80
89	0	0	2382	10	3792	82
90	0	0	2365	8	3791	79
91	0	0	2335	8	3791	87
92	0	0	2273	8	3791	87
93	0	0	2165	10	3791	83
94	0	0	2056	6	3792	85
95	0	0	1951	8	3790	83
96	0	0	1865	7	3791	83
97	0	0	1824	9	3791	86
98	0	0	1814	11	3792	84
99	0	0	1811	8	3792	82
100	0	0	1816	10	3791	81
101	0	0	1828	8	3792	86
102	0	0	1865	10	3792	83
103	0	0	1927	14	3791	84
104	0	0	2004	10	3792	85
105	0	0	2083	10	3791	80
106	0	0	2159	9	3791	81
107	0	0	2232	10	3791	80
108	0	0	2328	11	3791	84
109	0	0	2380	8	3792	86
110	0	0	2366	10	3791	85
111	0	0	2345	9	3792	85
112	0	0	2283	7	3791	83
113	0	0	2172	7	3792	80
114	0	0	2059	5	3792	83
115	0	0	1956	6	3791	88
116	0	0	1863	6	3791	85
117	0	0	1816	7	3791	87
118	0	0	1808	6	3791	87
119	0	0	1805	8	3792	85
120	0	0	1819	9	3792	82
121	0	0	1829	14	3790	85
122	0	0	1863	11	3791	82
123	0	0	1925	11	3791	80
124	0	0	1999	8	3792	80
125	0	0	2077	10	3792	84
126	0	0	2152	8	3792	84
127	0	0	2233	7	3791	85
0	0	0	2329	11	3792	82
1	0	0	2377	8	3792	78
2	0	0	2369	9	3790	86
3	0	0	2344	5	3791	82
4	0	0	2278	7	3791	85
5	0	0	2171	5	3791	85
6	0	0	2062	6	3792	86
7	0	0	1958	6	3791	86
8	0	0	1864	6	3791	84
9	0	0	1825	7	3791	84
10	0	0	1815	8	3792	85
11	0	0	1813	9	3791	82
12	0	0	1822	10	3791	84
13	0	0	1843	8	3792	81
14	0	0	1873	7	3791	84
15	0	0	1928	11	3791	86
16	0	0	1995	9	3792	86
17	0	0	2073	10	3791	84
18	0	0	2147	10	3791	80
19	0	0	2225	11	3791	77
20	0	0	2322	7	3791	81
21	0	0	2372	8	3791	85
22	0	0	2363	10	3791	82
23	0	0	2343	9	3791	88
24	0	0	2287	6	3791	82
25	0	0	2180	7	3791	84
26	0	0	2068	6	3792	85
27	0	0	1966	5	3793	86
28	0	0	1864	6	3790	85
29	0	0	1819	7	3792	82
30	0	0	1807	6	3792	81
31	0	0	1808	8	3791	85
32	0	0	1816	10	3791	86
33	0	0	1822	9	3791	86
34	0	0	1856	7	3791	82
35	0	0	1911	12	3792	80
36	0	0	1982	10	3792	79
37	0	0	2069	10	3791	80
38	0	0	2146	10	3791	85
39	0	0	2225	9	3791	86
40	0	0	2314	11	3791	85
41	0	0	2369	11	3791	79
42	0	0	2360	10	3793	79
43	0	0	2337	8	3791	82
44	0	0	2284	6	3792	83
45	0	0	2185	8	3792	86
46	0	0	2075	4	3791	86
47	0	0	1972	6	3792	82
48	0	0	1876	8	3790	83
49	0	0	1827	8	3791	84
50	0	0	1814	8	3791	87
51	0	0	1811	8	3792	87
52	0	0	1816	10	3791	86
53	0	0	1828	7	3791	82
54	0	0	1858	8	3790	81
55	0	0	1914	10	3791	85
56	0	0	1988	9	3792	85
57	0	0	2067	10	3791	87
58	0	0	2139	14	3790	79
59	0	0	2215	10	3792	80
60	0	0	2309	9	3791	81
61	0	0	2366	8	3791	85
62	0	0	2363	10	3791	87
63	0	0	2339	8	3791	86
64	0	0	2287	7	3792	84
65	0	0	2186	6	3792	82
66	0	0	2076	7	3792	83
67	0	0	1974	6	3791	87
68	0	0	1878	5	3791	86
69	0	0	1834	7	3791	85
70	0	0	1815	6	3791	84
71	0	0	1807	8	3792	80
72	0	0	1806	10	3791	79
73	0	0	1815	12	3791	86
74	0	0	1847	11	3792	84
75	0	0	1909	8	3791	83
76	0	0	1976	11	3792	80
77	0	0	2054	10	3791	79
78	0	0	2136	10	3791	79
79	0	0	2217	9	3791	87
80	0	0	2314	8	3792	87
81	0	0	2376	11	3793	83
82	0	0	2376	11	3791	75
83	0	0	2349	8	3791	82
84	0	0	2296	7	3792	83
85	0	0	2194	6	3790	85
86	0	0	2084	12	3792	85
87	0	0	1977	6	3792	85
88	0	0	1880	3	3791	85
89	0	0	1830	8	3791	84
90	0	0	1813	10	3791	85
91	0	0	1806	9	3791	84
92	0	0	1809	10	3791	81
93	0	0	1815	11	3791	82
94	0	0	1845	7	3791	82
95	0	0	1902	12	3791	81
96	0	0	1975	10	3792	84
97	0	0	2057	10	3791	83
98	0	0	2134	10	3791	84
99	0	0	2210	8	3792	80
100	0	0	2309	8	3791	81
101	0	0	2375	10	3791	80
102	0	0	2375	9	3790	87
103	0	0	2356	9	3791	88
104	0	0	2304	7	3791	86
105	0	0	2198	2	3792	87
106	0	0	2087	5	3792	82
107	0	0	1981	7	3791	81
108	0	0	1880	6	3791	84
109	0	0	1833	7	3791	84
110	0	0	1809	8	3791	86
111	0	0	1804	10	3792	80
112	0	0	1812	10	3790	79
113	0	0	1824	10	3791	84
114	0	0	1850	9	3791	85
115	0	0	1903	8	3792	87
116	0	0	1972	9	3791	84
117	0	0	2050	11	3792	75
118	0	0	2129	10	3791	79
119	0	0	2206	8	3792	84
120	0	0	2306	10	3790	85
121	0	0	2372	10	3792	84
122	0	0	2377	10	3791	87
123	0	0	2360	9	3792	80
124	0	0	2308	8	3790	83
125	0	0	2207	6	3791	86
126	0	0	2096	6	3792	86
127	0	0	1984	7	3791	83
0	0	0	1882	6	3792	85
1	0	0	1828	8	3790	85
2	0	0	1807	8	3790	83
3	0	0	1796	7	3793	83
4	0	0	1803	10	3791	81
5	0	0	1807	10	3792	82
6	0	0	1839	10	3792	79
7	0	0	1900	10	3790	81
8	0	0	1972	11	3792	83
9	0	0	2054	10	3791	84
10	0	0	2134	15	3791	84
11	0	0	2212	12	3791	86
12	0	0	2309	10	3789	80
13	0	0	2369	8	3791	77
14	0	0	2374	10	3791	81
15	0	0	2356	8	3792	86
16	0	0	2306	9	3791	88
17	0	0	2207	5	3790	85
18	0	0	2100	6	3791	86
19	0	0	1994	6	3791	80
20	0	0	1888	6	3791	85
21	0	0	1832	6	3791	87
22	0	0	1808	10	3790	85
23	0	0	1799	6	3792	84
24	0	0	1801	8	3792	84
25	0	0	1814	9	3790	83
26	0	0	1842	10	3791	83
27	0	0	1901	9	3790	81
28	0	0	1974	8	3791	84
29	0	0	2054	10	3791	82
30	0	0	2128	8	3792	81
31	0	0	2205	12	3792	79
32	0	0	2300	9	3790	84
33	0	0	2367	9	3792	85
34	0	0	2371	9	3790	88
35	0	0	2354	8	3792	83
36	0	0	2307	5	3791	81
37	0	0	2213	10	3791	81
38	0	0	2106	5	3792	81
39	0	0	2000	6	3791	88
40	0	0	1897	6	3791	87
41	0	0	1838	7	3791	86
42	0	0	1817	7	3791	86
43	0	0	1807	6	3791	83
44	0	0	1811	10	3791	82
45	0	0	1818	8	3792	84
46	0	0	1843	11	3791	85
47	0	0	1898	10	3789	80
48	0	0	1970	8	3792	82
49	0	0	2048	10	3791	82
50	0	0	2129	10	3791	84
51	0	0	2207	9	3791	87
52	0	0	2309	14	3791	84
53	0	0	2380	10	3792	79
54	0	0	2393	10	3791	78
55	0	0	2378	9	3790	80
56	0	0	2327	8	3791	86
57	0	0	2228	7	3791	86
58	0	0	2120	4	3792	88
59	0	0	2011	7	3792	85
60	0	0	1902	8	3792	82
61	0	0	1839	7	3791	81
62	0	0	1812	6	3792	82
63	0	0	1797	8	3791	85
64	0	0	1797	10	3791	85
65	0	0	1804	12	3791	84
66	0	0	1833	12	3791	82
67	0	0	1887	10	3792	84
68	0	0	1959	10	3791	84
69	0	0	2043	10	3791	84
70	0	0	2125	10	3791	84
71	0	0	2206	12	3791	83
72	0	0	2304	11	3791	81
73	0	0	2371	13	3793	86
74	0	0	2383	10	3792	84
75	0	0	2370	8	3791	86
76	0	0	2319	5	3791	87
77	0	0	2224	7	3792	84
78	0	0	2116	7	3791	82
79	0	0	2009	7	3791	82
80	0	0	1909	7	3793	87
81	0	0	1843	5	3792	84
82	0	0	1811	8	3790	88
83	0	0	1799	6	3792	89
84	0	0	1803	10	3791	85
85	0	0	1814	10	3791	82
86	0	0	1839	10	3791	82
87	0	0	1892	10	3792	84
88	0	0	1956	13	3792	83
89	0	0	2039	10	3791	84
90	0	0	2118	8	3791	81
91	0	0	2193	14	3791	82
92	0	0	2294	9	3791	84
93	0	0	2364	10	3792	84
94	0	0	2378	9	3791	82
95	0	0	2366	7	3793	82
96	0	0	2320	5	3791	84
97	0	0	2225	4	3793	85
98	0	0	2115	7	3793	86
99	0	0	2008	6	3791	88
100	0	0	1897	5	3792	87
101	0	0	1836	7	3791	82
102	0	0	1811	5	3792	81
103	0	0	1794	3	3791	82
104	0	0	1799	10	3791	88
105	0	0	1807	8	3791	84
106	0	0	1831	12	3791	83
107	0	0	1887	10	3793	84
108	0	0	1955	15	3792	81
109	0	0	2036	9	3791	84
110	0	0	2124	7	3791	83
111	0	0	2198	15	3791	83
112	0	0	2297	11	3791	82
113	0	0	2373	13	3792	79
114	0	0	2382	11	3791	84
115	0	0	2371	7	3793	86
116	0	0	2324	7	3792	88
117	0	0	2221	5	3793	82
118	0	0	2112	6	3793	83
119	0	0	2002	6	3790	80
120	0	0	1897	6	3792	82
121	0	0	1842	8	3791	89
122	0	0	1817	8	3791	89
123	0	0	1805	11	3792	87
124	0	0	1802	10	3791	83
125	0	0	1811	10	3791	82
126	0	0	1833	11	3791	84
127	0	0	1892	12	3792	85
0	0	0	1965	15	3791	84
1	0	0	2046	10	3792	83
2	0	0	2127	10	3791	82
3	0	0	2205	10	3791	83
4	0	0	2302	9	3792	81
5	0	0	2369	15	3792	85
6	0	0	2380	8	3792	84
7	0	0	2360	7	3791	83
8	0	0	2312	7	3791	82
9	0	0	2213	6	3792	80
10	0	0	2104	5	3791	87
11	0	0	1995	7	3791	88
12	0	0	1895	5	3791	88
13	0	0	1834	7	3791	82
14	0	0	1812	7	3793	83
15	0	0	1806	11	3791	83
16	0	0	1809	10	3791	88
17	0	0	1819	8	3792	86
18	0	0	1845	10	3793	84
19	0	0	1900	11	3793	85
20	0	0	1968	9	3792	80
21	0	0	2049	10	3791	83
22	0	0	2131	10	3791	83
23	0	0	2204	10	3791	83
24	0	0	2306	9	3792	84
25	0	0	2373	8	3792	83
26	0	0	2375	10	3791	81
27	0	0	2353	7	3791	84
28	0	0	2305	7	3791	86
29	0	0	2208	5	3793	87
30	0	0	2100	4	3792	83
31	0	0	1987	10	3791	84
32	0	0	1884	4	3792	81
33	0	0	1824	7	3791	83
34	0	0	1805	8	3793	85
35	0	0	1804	9	3792	85
36	0	0	1810	10	3791	88
37	0	0	1824	10	3792	81
38	0	0	1848	10	3791	81
39	0	0	1902	10	3793	80
40	0	0	1969	10	3793	85
41	0	0	2051	10	3791	87
42	0	0	2132	8	3792	88
43	0	0	2205	15	3791	82
44	0	0	2306	11	3792	79
45	0	0	2373	8	3791	83
46	0	0	2370	10	3792	85
47	0	0	2348	8	3791	84
48	0	0	2296	7	3791	84
49	0	0	2191	8	3792	83
50	0	0	2079	5	3792	82
51	0	0	1978	6	3791	87
52	0	0	1878	6	3791	87
53	0	0	1825	11	3791	87
54	0	0	1805	7	3792	81
55	0	0	1797	8	3791	79
56	0	0	1803	11	3791	85
57	0	0	1821	11	3789	87
58	0	0	1848	10	3792	84
59	0	0	1903	12	3789	85
60	0	0	1978	8	3791	85
61	0	0	2062	10	3791	80
62	0	0	2141	11	3789	83
63	0	0	2214	10	3792	80
64	0	0	2311	9	3790	84
65	0	0	2379	12	3792	81
66	0	0	2384	11	3791	82
67	0	0	2360	8	3792	82
68	0	0	2307	6	3793	87
69	0	0	2198	6	3792	85
70	0	0	2082	6	3793	86
71	0	0	1971	6	3791	84
72	0	0	1874	5	3793	83
73	0	0	1822	7	3793	82
74	0	0	1809	8	3792	81
75	0	0	1809	10	3792	85
76	0	0	1820	9	3791	89
77	0	0	1840	10	3792	84
78	0	0	1865	9	3794	81
79	0	0	1920	11	3792	81
80	0	0	1987	8	3792	80
81	0	0	2065	10	3791	86
82	0	0	2143	11	3788	86
83	0	0	2217	10	3791	83
84	0	0	2315	12	3789	84
85	0	0	2378	11	3790	86
86	0	0	2379	8	3791	87
87	0	0	2352	9	3789	87
88	0	0	2302	6	3792	87
89	0	0	2193	7	3790	84
90	0	0	2081	8	3792	84
91	0	0	1976	6	3792	82
92	0	0	1875	6	3791	86
93	0	0	1816	6	3791	87
94	0	0	1797	7	3792	86
95	0	0	1796	9	3792	79
96	0	0	1815	10	3791	83
97	0	0	1836	11	3791	80
98	0	0	1867	7	3791	84
99	0	0	1922	10	3792	85
100	0	0	1989	12	3792	84
101	0	0	2065	10	3791	84
102	0	0	2144	12	3792	77
103	0	0	2215	9	3792	79
104	0	0	2315	11	3790	82
105	0	0	2382	11	3791	84
106	0	0	2378	8	3793	82
107	0	0	2347	6	3791	85
108	0	0	2299	6	3791	83
109	0	0	2194	6	3794	83
110	0	0	2082	6	3792	84
111	0	0	1984	6	3791	86
112	0	0	1887	8	3791	85
113	0	0	1835	6	3792	87
114	0	0	1820	8	3793	83
115	0	0	1819	9	3792	80
116	0	0	1817	10	3791	87
117	0	0	1827	10	3792	87
118	0	0	1856	10	3791	85
119	0	0	1917	14	3793	79
120	0	0	1983	14	3792	79
121	0	0	2062	10	3791	80
122	0	0	2141	12	3791	86
123	0	0	2208	10	3792	87
124	0	0	2304	9	3791	85
125	0	0	2367	12	3790	85
126	0	0	2368	10	3791	81
127	0	0	2343	8	3792	83
0	0	0	2297	6	3792	79
1	0	0	2200	6	3791	87
2	0	0	2087	3	3791	84
3	0	0	1982	6	3791	85
4	0	0	1879	6	3793	83
5	0	0	1825	7	3790	84
6	0	0	1808	8	3791	86
7	0	0	1807	9	3793	87
8	0	0	1810	11	3791	82
9	0	0	1819	10	3792	84
10	0	0	1847	7	3791	80
11	0	0	1903	11	3791	85
12	0	0	1975	7	3791	85
13	0	0	2054	10	3791	85
14	0	0	2135	12	3790	85
15	0	0	2206	7	3791	80
16	0	0	2304	10	3791	79
17	0	0	2373	11	3792	83
18	0	0	2382	8	3792	86
19	0	0	2352	8	3791	86
20	0	0	2306	6	3792	84
21	0	0	2204	5	3792	85
22	0	0	2091	3	3791	84
23	0	0	1986	6	3791	86
24	0	0	1883	5	3793	85
25	0	0	1829	6	3792	89
26	0	0	1810	5	3791	84
27	0	0	1806	7	3791	82
28	0	0	1812	10	3791	81
29	0	0	1824	10	3791	85
30	0	0	1854	10	3791	88
31	0	0	1915	10	3792	84
32	0	0	1978	10	3792	80
33	0	0	2064	10	3791	81
34	0	0	2143	12	3791	79
35	0	0	2212	12	3791	84
36	0	0	2306	10	3793	85
37	0	0	2368	7	3791	88
38	0	0	2374	9	3791	82
39	0	0	2350	8	3791	82
40	0	0	2307	7	3790	81
41	0	0	2208	5	3791	84
42	0	0	2093	3	3792	86
43	0	0	1987	6	3793	85
44	0	0	1884	7	3791	85
45	0	0	1826	7	3792	84
46	0	0	1810	8	3792	82
47	0	0	1806	3	3793	85
48	0	0	1807	10	3791	83
49	0	0	1821	14	3790	84
50	0	0	1850	11	3790	82
51	0	0	1907	11	3791	81
52	0	0	1974	8	3791	83
53	0	0	2052	10	3792	84
54	0	0	2133	12	3791	85
55	0	0	2204	11	3792	85
56	0	0	2303	8	3791	80
57	0	0	2368	7	3792	80
58	0	0	2379	9	3791	80
59	0	0	2360	9	3792	86
60	0	0	2309	5	3795	87
61	0	0	2203	7	3791	87
62	0	0	2087	5	3793	85
63	0	0	1979	6	3791	82
64	0	0	1877	7	3792	83
65	0	0	1823	7	3791	84
66	0	0	1814	8	3793	87
67	0	0	1811	8	3792	81
68	0	0	1813	10	3791	83
69	0	0	1827	10	3791	86
70	0	0	1853	12	3790	83
71	0	0	1909	10	3791	84
72	0	0	1982	8	3792	85
73	0	0	2061	10	3793	83
74	0	0	2146	7	3791	57
75	0	0	2213	8	3792	85
76	0	0	2311	10	3791	83
77	0	0	2380	10	3792	82
78	0	0	2383	10	3794	84
79	0	0	2361	7	3792	87
80	0	0	2309	5	3791	86
81	0	0	2208	6	3792	85
82	0	0	2093	4	3792	83
83	0	0	1989	6	3791	82
84	0	0	1887	6	3791	81
85	0	0	1831	4	3792	86
86	0	0	1813	7	3792	87
87	0	0	1810	7	3792	83
88	0	0	1822	12	3791	84
89	0	0	1838	10	3791	79
90	0	0	1860	11	3791	79
91	0	0	1909	11	3793	85
92	0	0	1975	10	3792	83
93	0	0	2056	10	3793	84
94	0	0	2140	11	3791	85
95	0	0	2216	8	3792	79
96	0	0	2316	10	3791	81
97	0	0	2382	8	3792	84
98	0	0	2379	5	3789	87
99	0	0	2349	11	3791	83
100	0	0	2303	8	3791	84
101	0	0	2202	4	3791	84
102	0	0	2090	6	3793	85
103	0	0	1986	6	3791	84
104	0	0	1880	7	3791	86
105	0	0	1825	8	3791	84
106	0	0	1809	9	3792	84
107	0	0	1810	8	3792	76
108	0	0	1810	10	3791	85
109	0	0	1820	10	3794	86
110	0	0	1849	10	3793	81
111	0	0	1907	10	3790	86
112	0	0	1980	10	3792	79
113	0	0	2062	10	3791	81
114	0	0	2144	10	3792	80
115	0	0	2210	10	3791	86
116	0	0	2310	9	3792	87
117	0	0	2380	10	3793	85
118	0	0	2374	1	3791	83
119	0	0	2342	7	3791	84
120	0	0	2298	8	3791	84
121	0	0	2192	6	3792	85
122	0	0	2082	6	3792	86
123	0	0	1975	6	3791	84
124	0	0	1876	6	3791	84
125	0	0	1822	8	3791	84
126	0	0	1812	9	3792	87
127	0	0	1810	8	3792	86
0	0	0	1814	11	3791	85
1	0	0	1828	10	3791	82
2	0	0	1850	10	3791	82
3	0	0	1904	10	3792	81
4	0	0	1974	11	3792	85
5	0	0	2051	10	3787	87
6	0	0	2132	10	3791	85
7	0	0	2201	12	3791	84
8	0	0	2297	10	3792	79
9	0	0	2366	10	3792	80
10	0	0	2372	8	3791	83
11	0	0	2340	6	3793	88
12	0	0	2295	7	3793	87
13	0	0	2196	3	3789	86
14	0	0	2087	6	3792	83
15	0	0	1988	6	3791	84
16	0	0	1884	4	3793	83
17	0	0	1831	7	3793	87
18	0	0	1817	7	3792	84
19	0	0	1816	10	3793	85
20	0	0	1827	10	3791	84
21	0	0	1844	8	3792	83
22	0	0	1872	10	3793	84
23	0	0	1921	11	3792	85
24	0	0	1990	10	3792	86
25	0	0	2064	10	3791	81
26	0	0	2146	11	3791	80
27	0	0	2214	8	3792	77
28	0	0	2307	10	3792	83
29	0	0	2378	10	3792	82
30	0	0	2388	10	3791	84
31	0	0	2356	7	3791	85
32	0	0	2309	6	3792	82
33	0	0	2204	7	3792	83
34	0	0	2089	6	3793	84
35	0	0	1977	6	3793	87
36	0	0	1878	6	3791	86
37	0	0	1819	7	3792	84
38	0	0	1810	5	3792	83
39	0	0	1812	12	3791	87
40	0	0	1824	8	3792	83
41	0	0	1845	9	3792	87
42	0	0	1870	10	3792	83
43	0	0	1920	10	3791	82
44	0	0	1991	10	3792	80
45	0	0	2068	10	3791	83
46	0	0	2150	9	3792	84
47	0	0	2215	10	3792	85
48	0	0	2307	11	3792	85
49	0	0	2378	12	3791	79
50	0	0	2379	9	3791	81
51	0	0	2351	5	3793	79
52	0	0	2306	7	3794	85
53	0	0	2200	6	3791	86
54	0	0	2085	6	3793	86
55	0	0	1981	6	3791	85
56	0	0	1881	4	3791	82
57	0	0	1822	10	3791	80
58	0	0	1809	7	3792	83
59	0	0	1811	10	3791	87
60	0	0	1816	10	3791	87
61	0	0	1836	10	3792	81
62	0	0	1864	12	3791	80
63	0	0	1919	10	3794	81
64	0	0	1984	12	3792	83
65	0	0	2061	10	3791	83
66	0	0	2145	10	3792	82
67	0	0	2205	10	3792	81
68	0	0	2305	8	3792	81
69	0	0	2373	10	3792	77
70	0	0	2371	8	3793	85
71	0	0	2342	6	3792	86
72	0	0	2297	10	3791	87
73	0	0	2195	5	3792	82
74	0	0	2080	6	3791	82
75	0	0	1976	6	3791	83
76	0	0	1877	6	3792	87
77	0	0	1814	7	3791	88
78	0	0	1805	9	3794	85
79	0	0	1807	10	3792	83
80	0	0	1813	10	3792	81
81	0	0	1838	10	3791	83
82	0	0	1862	10	3792	82
83	0	0	1918	9	3792	84
84	0	0	1983	10	3792	83
85	0	0	2068	10	3793	81
86	0	0	2151	8	3792	81
87	0	0	2206	11	3791	82
88	0	0	2305	9	3792	80
89	0	0	2374	11	3792	85
90	0	0	2370	8	3792	84
91	0	0	2338	6	3792	82
92	0	0	2297	7	3792	81
93	0	0	2200	5	3792	83
94	0	0	2084	6	3791	88
95	0	0	1977	6	3792	88
96	0	0	1878	7	3792	87
97	0	0	1820	5	3792	81
98	0	0	1811	8	3792	79
99	0	0	1814	10	3791	83
100	0	0	1819	11	3791	86
101	0	0	1836	10	3791	86
102	0	0	1856	10	3792	86
103	0	0	1914	9	3791	82
104	0	0	1983	10	3793	81
105	0	0	2059	10	3791	82
106	0	0	2140	10	3791	84
107	0	0	2201	11	3791	84
108	0	0	2299	10	3792	83
109	0	0	2372	10	3791	84
110	0	0	2372	7	3791	85
111	0	0	2338	7	3792	83
112	0	0	2291	5	3792	85
113	0	0	2189	6	3791	85
114	0	0	2075	5	3793	84
115	0	0	1975	6	3793	82
116	0	0	1877	3	3794	82
117	0	0	1819	6	3792	86
118	0	0	1809	7	3793	86
119	0	0	1815	9	3791	87
120	0	0	1825	9	3793	87
121	0	0	1841	12	3792	80
122	0	0	1860	11	3791	80
123	0	0	1922	9	3792	79
124	0	0	1993	10	3793	84
125	0	0	2070	10	3792	85
126	0	0	2146	11	3790	84
127	0	0	2204	10	3792	82
0	0	0	2303	9	3792	78
1	0	0	2370	11	3792	84
2	0	0	2374	9	3791	87
3	0	0	2345	8	3792	87
4	0	0	2300	7	3791	84
5	0	0	2197	7	3793	83
6	0	0	2079	7	3793	85
7	0	0	1975	6	3793	85
8	0	0	1871	6	3791	86
9	0	0	1814	7	3791	87
10	0	0	1804	8	3792	80
11	0	0	1805	9	3793	79
12	0	0	1810	10	3791	80
13	0	0	1831	11	3791	85
14	0	0	1859	7	3794	84
15	0	0	1918	10	3792	82
16	0	0	1986	9	3793	84
17	0	0	2061	11	3792	79
18	0	0	2143	10	3792	79
19	0	0	2206	11	3791	80
20	0	0	2305	8	3791	85
21	0	0	2378	10	3793	86
22	0	0	2383	9	3792	87
23	0	0	2349	7	3792	80
24	0	0	2302	6	3792	83
25	0	0	2196	5	3793	84
26	0	0	2072	6	3793	87
27	0	0	1966	6	3792	85
28	0	0	1867	8	3791	83
29	0	0	1812	5	3794	81
30	0	0	1811	10	3791	83
31	0	0	1817	10	3793	83
32	0	0	1825	11	3792	82
33	0	0	1848	10	3792	87
34	0	0	1869	10	3792	81
35	0	0	1920	10	3792	80
36	0	0	1986	11	3793	79
37	0	0	2064	10	3791	84
38	0	0	2146	10	3791	85
39	0	0	2210	8	3794	84
40	0	0	2307	10	3791	84
41	0	0	2376	10	3793	84
42	0	0	2373	8	3792	80
43	0	0	2342	7	3792	82
44	0	0	2298	6	3792	86
45	0	0	2189	6	3793	84
46	0	0	2071	5	3793	83
47	0	0	1963	6	3792	80
48	0	0	1867	7	3791	83
49	0	0	1814	7	3792	86
50	0	0	1810	9	3791	87
51	0	0	1815	10	3792	84
52	0	0	1815	10	3791	80
53	0	0	1830	10	3791	81
54	0	0	1856	10	3792	85
55	0	0	1915	10	3792	90
56	0	0	1989	10	3793	85
57	0	0	2065	9	3791	86
58	0	0	2145	7	3792	80
59	0	0	2212	10	3793	80
60	0	0	2305	8	3791	84
61	0	0	2369	10	3792	85
62	0	0	2377	9	3792	84
63	0	0	2338	3	3792	84
64	0	0	2288	7	3792	82
65	0	0	2182	6	3792	86
66	0	0	2064	6	3793	83
67	0	0	1963	5	3791	85
68	0	0	1866	3	3793	88
69	0	0	1808	7	3793	85
70	0	0	1805	9	3789	88
71	0	0	1816	10	3792	83
72	0	0	1826	11	3792	86
73	0	0	1846	7	3794	87
74	0	0	1871	9	3793	85
75	0	0	1921	11	3792	83
76	0	0	1988	10	3792	79
77	0	0	2063	11	3791	80
78	0	0	2143	7	3793	87
79	0	0	2202	10	3792	84
80	0	0	2299	10	3793	86
81	0	0	2371	10	3793	84
82	0	0	2370	7	3793	78
83	0	0	2334	8	3792	79
84	0	0	2289	6	3792	83
85	0	0	2193	6	3793	88
86	0	0	2078	6	3792	85
87	0	0	1974	6	3793	85
88	0	0	1877	9	3792	83
89	0	0	1812	7	3792	84
90	0	0	1805	8	3793	83
91	0	0	1810	9	3792	87
92	0	0	1816	7	3791	85
93	0	0	1837	10	3791	84
94	0	0	1862	10	3793	82
95	0	0	1916	10	3792	82
96	0	0	1988	10	3790	85
97	0	0	2059	11	3792	86
98	0	0	2142	10	3792	85
99	0	0	2202	10	3793	80
100	0	0	2299	11	3792	77
101	0	0	2373	10	3792	83
102	0	0	2383	9	3793	87
103	0	0	2349	8	3791	85
104	0	0	2302	6	3793	85
105	0	0	2203	6	3792	80
106	0	0	2087	6	3790	83
107	0	0	1979	7	3791	84
108	0	0	1877	8	3791	85
109	0	0	1816	7	3793	85
110	0	0	1809	9	3791	83
111	0	0	1814	10	3792	79
112	0	0	1826	10	3791	83
113	0	0	1848	5	3794	87
114	0	0	1873	11	3793	85
115	0	0	1930	10	3791	85
116	0	0	1996	10	3789	81
117	0	0	2068	12	3792	79
118	0	0	2149	11	3792	80
119	0	0	2206	10	3789	85
120	0	0	2297	9	3792	83
121	0	0	2367	10	3792	88
122	0	0	2370	9	3791	77
123	0	0	2339	7	3794	77
124	0	0	2300	7	3793	81
125	0	0	2197	6	3793	81
126	0	0	2082	6	3791	88
127	0	0	1978	6	3793	86
0	0	0	1879	8	3791	85
1	0	0	1820	6	3791	81
2	0	0	1809	8	3793	80
3	0	0	1812	10	3790	88
4	0	0	1823	11	3791	91
5	0	0	1844	11	3792	85
6	0	0	1870	10	3789	84
7	0	0	1920	9	3791	81
8	0	0	1990	11	3791	83
9	0	0	2066	10	3791	84
10	0	0	2146	11	3792	84
11	0	0	2205	9	3792	83
12	0	0	2294	11	3792	80
13	0	0	2367	10	3793	78
14	0	0	2373	9	3791	85
15	0	0	2339	7	3792	84
16	0	0	2300	6	3791	87
17	0	0	2199	6	3791	87
18	0	0	2083	6	3791	81
19	0	0	1977	6	3792	82
20	0	0	1878	7	3791	83
21	0	0	1816	7	3791	83
22	0	0	1806	8	3791	84
23	0	0	1807	10	3789	83
24	0	0	1820	7	3792	84
25	0	0	1844	10	3791	79
26	0	0	1866	10	3791	84
27	0	0	1924	10	3793	83
28	0	0	1990	10	3790	85
29	0	0	2064	10	3793	81
30	0	0	2146	14	3791	81
31	0	0	2208	10	3791	78
32	0	0	2300	10	3792	82
33	0	0	2373	10	3791	85
34	0	0	2385	9	3791	83
35	0	0	2345	7	3792	81
36	0	0	2293	6	3792	83
37	0	0	2190	7	3791	83
38	0	0	2079	6	3791	87
39	0	0	1973	6	3791	87
40	0	0	1874	7	3792	87
41	0	0	1816	7	3792	86
42	0	0	1808	9	3792	80
43	0	0	1813	11	3791	84
44	0	0	1820	10	3791	84
45	0	0	1838	8	3793	83
46	0	0	1861	10	3793	85
47	0	0	1913	9	3792	80
48	0	0	1987	11	3793	79
49	0	0	2065	9	3791	84
50	0	0	2148	9	3792	84
51	0	0	2208	10	3791	85
52	0	0	2295	8	3792	80
53	0	0	2373	10	3791	80
54	0	0	2375	8	3792	83
55	0	0	2338	7	3792	84
56	0	0	2290	6	3792	85
57	0	0	2186	5	3793	87
58	0	0	2068	6	3791	86
59	0	0	1965	8	3792	82
60	0	0	1869	5	3792	83
61	0	0	1812	7	3792	86
62	0	0	1807	8	3793	88
63	0	0	1810	10	3793	85
64	0	0	1823	7	3791	83
65	0	0	1838	10	3792	82
66	0	0	1859	11	3791	83
67	0	0	1912	9	3792	84
68	0	0	1985	10	3791	85
69	0	0	2061	10	3791	83
70	0	0	2146	9	3791	81
71	0	0	2205	10	3793	78
72	0	0	2301	10	3791	80
73	0	0	2376	9	3791	84
74	0	0	2379	7	3793	84
75	0	0	2343	5	3792	85
76	0	0	2300	7	3793	82
77	0	0	2199	6	3793	80
78	0	0	2083	6	3794	82
79	0	0	1975	6	3792	87
80	0	0	1876	6	3791	87
81	0	0	1817	7	3791	86
82	0	0	1806	8	3792	81
83	0	0	1811	10	3791	79
84	0	0	1829	10	3791	88
85	0	0	1852	10	3791	86
86	0	0	1877	12	3792	84
87	0	0	1929	11	3792	80
88	0	0	1994	12	3791	82
89	0	0	2064	10	3792	81
90	0	0	2143	10	3792	83
91	0	0	2205	11	3792	84
92	0	0	2297	11	3793	83
93	0	0	2373	10	3791	87
94	0	0	2380	9	3793	78
95	0	0	2343	7	3791	83
96	0	0	2308	10	3792	86
97	0	0	2209	5	3792	88
98	0	0	2093	6	3790	88
99	0	0	1987	6	3790	84
100	0	0	1889	4	3791	80
101	0	0	1827	7	3793	80
102	0	0	1819	8	3792	80
103	0	0	1822	9	3792	87
104	0	0	1828	10	3791	88
105	0	0	1844	8	3793	79
106	0	0	1860	10	3793	81
107	0	0	1909	8	3793	92
108	0	0	1976	10	3791	1022
109	0	0	2084	10	3793	1978
110	0	0	2204	10	3792	2609
111	0	0	2291	13	3792	3008
112	0	0	2391	10	3793	3259
113	0	0	2459	10	3791	3422
114	0	0	2450	7	3791	3540
115	0	0	2406	5	3794	3618
116	0	0	2353	6	3793	3679
117	0	0	2247	6	3793	3720
118	0	0	2117	6	3792	3759
119	0	0	2007	9	3789	3787
120	0	0	1903	5	3791	3811
121	0	0	1843	7	3793	3829
122	0	0	1828	8	3793	3843
123	0	0	1831	9	3793	3856
124	0	0	1836	9	3791	3868
125	0	0	1856	10	3793	3879
126	0	0	1880	10	3793	3888
127	0	0	1929	11	3792	3892
0	0	0	1994	10	3792	3900
1	0	0	2062	10	3791	3905
2	0	0	2140	10	3791	3910
3	0	0	2204	11	3792	3917
4	0	0	2296	9	3792	3921
5	0	0	2371	10	3792	3926
6	0	0	2378	11	3790	3928
7	0	0	2343	7	3791	3931
8	0	0	2309	7	3793	3933
9	0	0	2213	5	3793	3937
10	0	0	2097	6	3792	3941
11	0	0	1989	6	3791	3941
12	0	0	1887	6	3791	3943
13	0	0	1824	8	3792	3945
14	0	0	1813	6	3792	3948
15	0	0	1810	10	3791	3952
16	0	0	1815	10	3791	3951
17	0	0	1830	9	3791	3951
18	0	0	1849	11	3793	3951
19	0	0	1902	10	3792	3956
20	0	0	1969	9	3792	3958
21	0	0	2048	10	3791	3960
22	0	0	2129	9	3791	3959
23	0	0	2195	11	3792	3959
24	0	0	2286	9	3792	3960
25	0	0	2361	10	3791	3962
26	0	0	2381	9	3793	3962
27	0	0	2348	8	3792	3963
28	0	0	2303	8	3792	3965
29	0	0	2207	7	3793	3966
30	0	0	2090	6	3792	3966
31	0	0	1990	5	3793	3968
32	0	0	1888	7	3792	3968
33	0	0	1828	6	3792	3968
34	0	0	1817	7	3793	3969
35	0	0	1820	10	3792	3971
36	0	0	1824	10	3793	3971
37	0	0	1839	7	3791	3970
38	0	0	1855	12	3792	3971
39	0	0	1904	10	3791	3972
40	0	0	1968	10	3794	3972
41	0	0	2041	10	3794	3970
42	0	0	2116	10	3791	3973
43	0	0	2171	10	3791	3975
44	0	0	2270	10	3792	3974
45	0	0	2349	10	3792	3975
46	0	0	2363	9	3791	3975
47	0	0	2327	7	3789	3976
48	0	0	2289	8	3792	3975
49	0	0	2198	6	3792	3976
50	0	0	2081	6	3791	3977
51	0	0	1972	6	3792	3978
52	0	0	1877	6	3793	3981
53	0	0	1815	7	3792	3976
54	0	0	1810	8	3792	3978
55	0	0	1811	10	3793	3980
56	0	0	1810	11	3792	3979
57	0	0	1824	10	3792	3979
58	0	0	1850	10	3792	3979
59	0	0	1904	11	3792	3980
60	0	0	1976	10	3791	3980
61	0	0	2055	11	3792	3980
62	0	0	2135	10	3792	3981
63	0	0	2198	11	3792	3981
64	0	0	2286	9	3793	3982
65	0	0	2357	10	3794	3981
66	0	0	2376	8	3791	3980
67	0	0	2348	7	3789	3984
68	0	0	2307	6	3791	3984
69	0	0	2214	7	3793	3983
70	0	0	2100	8	3791	3982
71	0	0	1992	6	3793	3984
72	0	0	1890	6	3791	3983
73	0	0	1821	7	3792	3982
74	0	0	1806	8	3792	3983
75	0	0	1810	10	3794	3984
76	0	0	1813	10	3792	3983
77	0	0	1828	10	3792	3985
78	0	0	1849	10	3791	3984
79	0	0	1899	10	3792	3986
80	0	0	1963	8	3793	3986
81	0	0	2028	8	3792	3984
82	0	0	2109	10	3791	3985
83	0	0	2176	9	3792	3984
84	0	0	2268	10	3793	3988
85	0	0	2354	11	3791	3985
86	0	0	2375	10	3792	3985
87	0	0	2345	8	3792	3985
88	0	0	2307	4	3792	3985
89	0	0	2214	6	3793	3987
90	0	0	2094	6	3794	3986
91	0	0	1995	7	3792	3987
92	0	0	1900	6	3792	3988
93	0	0	1833	6	3791	3988
94	0	0	1812	8	3792	3985
95	0	0	1812	10	3792	3988
96	0	0	1815	10	3792	3987
97	0	0	1835	10	3792	3991
98	0	0	1855	7	3791	3987
99	0	0	1898	11	3792	3988
100	0	0	1965	12	3794	3987
101	0	0	2040	10	3791	3988
102	0	0	2118	10	3791	3988
103	0	0	2181	9	3791	3988
104	0	0	2275	10	3792	3988
105	0	0	2359	10	3791	3988
106	0	0	2375	10	3793	3990
107	0	0	2347	8	3792	3988
108	0	0	2310	3	3791	3989
109	0	0	2216	6	3792	3989
110	0	0	2101	5	3793	3991
111	0	0	1997	6	3792	3988
112	0	0	1895	6	3792	3987
113	0	0	1829	3	3794	3988
114	0	0	1810	6	3792	3990
115	0	0	1807	10	3791	3991
116	0	0	1814	10	3792	3990
117	0	0	1832	12	3792	3989
118	0	0	1850	7	3791	3989
119	0	0	1895	10	3792	3991
120	0	0	1957	12	3791	3990
121	0	0	2037	10	3790	3990
122	0	0	2123	10	3792	3991
123	0	0	2189	7	3792	3990
124	0	0	2281	10	3792	3992
125	0	0	2358	10	3791	3989
126	0	0	2372	9	3793	3992
127	0	0	2340	6	3791	3991
0	0	0	2303	3	3792	3991
1	0	0	2216	6	3793	3991
2	0	0	2102	6	3791	3991
3	0	0	1997	7	3792	3991
4	0	0	1892	6	3791	3988
5	0	0	1825	6	3791	3992
6	0	0	1807	8	3792	3989
7	0	0	1806	10	3793	3992
8	0	0	1808	7	3791	3992
9	0	0	1823	10	3792	3991
10	0	0	1843	7	3791	3991
11	0	0	1887	11	3792	3995
12	0	0	1956	10	3792	3992
13	0	0	2033	10	3791	3991
14	0	0	2113	10	3791	3992
15	0	0	2184	7	3792	3992
16	0	0	2273	9	3793	3993
17	0	0	2350	10	3791	3993
18	0	0	2365	11	3792	3992
19	0	0	2331	7	3790	3992
20	0	0	2301	7	3792	3995
21	0	0	2214	7	3793	3992
22	0	0	2102	7	3792	3995
23	0	0	1997	6	3796	3992
24	0	0	1895	6	3793	3994
25	0	0	1824	6	3793	3991
26	0	0	1809	9	3792	3992
27	0	0	1811	10	3791	3994
28	0	0	1812	9	3791	3992
29	0	0	1830	10	3792	3992
30	0	0	1857	6	3792	3993
31	0	0	1899	10	3793	3994
32	0	0	1963	10	3792	3995
33	0	0	2039	11	3792	3993
34	0	0	2121	11	3793	3991
35	0	0	2180	10	3791	3995
36	0	0	2270	8	3793	3993
37	0	0	2355	8	3791	3993
38	0	0	2379	8	3791	3994
39	0	0	2345	7	3793	3995
40	0	0	2303	8	3793	3993
41	0	0	2212	7	3793	3994
42	0	0	2096	6	3791	3995
43	0	0	1990	6	3791	3993
44	0	0	1891	5	3791	3994
45	0	0	1817	5	3791	3994
46	0	0	1805	10	3793	3995
47	0	0	1804	10	3791	3993
48	0	0	1806	9	3793	3995
49	0	0	1827	7	3791	3995
50	0	0	1851	9	3791	3995
51	0	0	1903	9	3793	3994
52	0	0	1968	10	3791	3995
53	0	0	2043	10	3791	3994
54	0	0	2127	10	3793	3996
55	0	0	2189	10	3793	3996
56	0	0	2283	13	3792	3994
57	0	0	2364	10	3792	3996
58	0	0	2382	7	3791	3992
59	0	0	2353	6	3791	3993
60	0	0	2315	7	3791	3995
61	0	0	2226	6	3792	3994
62	0	0	2109	7	3792	3997
63	0	0	2001	5	3793	3999
64	0	0	1899	3	3791	3995
65	0	0	1833	3	3792	3994
66	0	0	1819	8	3792	3996
67	0	0	1815	10	3792	3997
68	0	0	1820	8	3791	3996
69	0	0	1839	10	3793	3995
70	0	0	1859	11	3792	3997
71	0	0	1905	11	3792	3995
72	0	0	1966	10	3791	3996
73	0	0	2040	10	3791	3995
74	0	0	2122	9	3791	3995
75	0	0	2184	12	3792	3995
76	0	0	2276	10	3792	3992
77	0	0	2354	10	3791	3997
78	0	0	2375	10	3791	3995
79	0	0	2352	7	3791	3996
80	0	0	2312	7	3792	3999
81	0	0	2222	6	3793	3995
82	0	0	2106	6	3792	3996
83	0	0	1999	6	3792	3993
84	0	0	1899	5	3791	3995
85	0	0	1826	8	3792	3993
86	0	0	1817	8	3792	3993
87	0	0	1812	10	3791	3998
88	0	0	1815	10	3791	3995
89	0	0	1839	7	3791	3995
90	0	0	1858	11	3792	3999
91	0	0	1912	10	3792	3995
92	0	0	1974	10	3792	3995
93	0	0	2046	11	3791	3996
94	0	0	2130	10	3792	3995
95	0	0	2192	10	3793	3997
96	0	0	2277	10	3792	3997
97	0	0	2358	10	3792	3998
98	0	0	2375	9	3792	3996
99	0	0	2343	8	3792	3996
100	0	0	2312	6	3793	3997
101	0	0	2228	5	3792	3995
102	0	0	2112	6	3794	3992
103	0	0	1999	5	3792	3996
104	0	0	1899	5	3791	3997
105	0	0	1826	4	3790	3997
106	0	0	1812	9	3793	3996
107	0	0	1811	10	3791	3997
108	0	0	1809	10	3792	3996
109	0	0	1833	11	3792	3997
110	0	0	1852	12	3792	3995
111	0	0	1900	8	3793	3993
112	0	0	1966	10	3791	3998
113	0	0	2041	11	3793	3998
114	0	0	2122	10	3794	3998
115	0	0	2182	10	3791	3997
116	0	0	2270	11	3792	3998
117	0	0	2356	10	3793	3997
118	0	0	2377	10	3792	3996
119	0	0	2346	7	3792	3996
120	0	0	2309	6	3793	3997
121	0	0	2223	7	3792	3998
122	0	0	2109	6	3793	3998
123	0	0	2002	5	3791	3996
124	0	0	1905	7	3792	4000
125	0	0	1834	6	3793	3997
126	0	0	1816	8	3793	3999
127	0	0	1822	10	3793	3999
0	0	0	1823	11	3792	3998
1	0	0	1833	10	3791	3998
2	0	0	1849	8	3792	3996
3	0	0	1894	10	3792	3996
4	0	0	1960	10	3790	3997
5	0	0	2039	11	3792	3997
6	0	0	2123	11	3792	3997
7	0	0	2185	8	3792	3997
8	0	0	2271	9	3793	3998
9	0	0	2359	10	3791	3996
10	0	0	2381	10	3793	3999
11	0	0	2342	7	3791	3996
12	0	0	2303	8	3792	3997
13	0	0	2211	6	3793	3998
14	0	0	2099	1	3791	3999
15	0	0	1993	7	3791	3997
16	0	0	1888	6	3791	4000
17	0	0	1816	8	3792	3995
18	0	0	1803	7	3792	3998
19	0	0	1805	10	3791	3996
20	0	0	1812	10	3791	3998
21	0	0	1833	10	3792	3997
22	0	0	1851	10	3793	3994
23	0	0	1899	11	3792	3998
24	0	0	1968	11	3792	3994
25	0	0	2044	10	3791	3997
26	0	0	2127	10	3793	3999
27	0	0	2195	10	3793	3999
28	0	0	2282	11	3793	3998
29	0	0	2369	10	3793	3999
30	0	0	2392	10	3791	3997
31	0	0	2357	8	3792	3998
32	0	0	2321	5	3793	3997
33	0	0	2228	4	3793	3999
34	0	0	2110	6	3791	3996
35	0	0	2000	8	3792	3997
36	0	0	1900	8	3792	3998
37	0	0	1823	8	3792	3997
38	0	0	1810	9	3793	3999
39	0	0	1804	11	3792	3994
40	0	0	1816	11	3793	3999
41	0	0	1838	11	3791	4000
42	0	0	1856	14	3792	3997
43	0	0	1900	10	3793	3999
44	0	0	1963	10	3791	3997
45	0	0	2036	11	3791	3998
46	0	0	2119	10	3791	3999
47	0	0	2183	11	3793	3999
48	0	0	2271	10	3792	3998
49	0	0	2355	10	3791	3999
50	0	0	2382	10	3792	3998
51	0	0	2349	9	3792	3998
52	0	0	2316	7	3792	3997
53	0	0	2227	5	3792	3999
54	0	0	2113	7	3792	3999
55	0	0	2005	7	3793	4000
56	0	0	1905	9	3792	3998
57	0	0	1834	10	3792	3999
58	0	0	1820	6	3793	4000
59	0	0	1818	10	3794	3998
60	0	0	1822	8	3793	3999
61	0	0	1850	14	3792	3997
62	0	0	1873	12	3792	3999
63	0	0	1918	11	3793	4000
64	0	0	1978	10	3791	3999
65	0	0	2051	7	3792	3998
66	0	0	2126	10	3791	4000
67	0	0	2195	7	3791	3998
68	0	0	2284	8	3792	4000
69	0	0	2369	10	3791	3999
70	0	0	2383	8	3791	4000
71	0	0	2346	7	3791	3999
72	0	0	2312	5	3793	3999
73	0	0	2220	3	3792	3999
74	0	0	2102	6	3791	3999
75	0	0	1994	8	3792	3999
76	0	0	1895	6	3792	3999
77	0	0	1822	7	3792	3998
78	0	0	1806	6	3792	3998
79	0	0	1803	10	3791	3999
80	0	0	1808	10	3792	3999
81	0	0	1831	10	3791	3999
82	0	0	1857	13	3792	3999
83	0	0	1907	10	3793	4000
84	0	0	1974	10	3791	3999
85	0	0	2046	8	3792	4000
86	0	0	2125	10	3790	3999
87	0	0	2184	11	3792	3999
88	0	0	2273	8	3792	3999
89	0	0	2359	10	3792	3997
90	0	0	2383	10	3791	3999
91	0	0	2352	7	3791	4000
92	0	0	2318	5	3791	3998
93	0	0	2227	5	3793	3999
94	0	0	2105	6	3791	3999
95	0	0	1997	6	3792	4000
96	0	0	1898	8	3792	3998
97	0	0	1826	7	3791	4000
98	0	0	1805	6	3792	3999
99	0	0	1807	10	3793	4000
100	0	0	1814	10	3791	3999
101	0	0	1835	10	3792	3999
102	0	0	1862	9	3793	4000
103	0	0	1904	8	3792	4000
104	0	0	1970	11	3793	4000
105	0	0	2042	8	3792	3999
106	0	0	2116	11	3791	3998
107	0	0	2177	9	3792	4000
108	0	0	2260	9	3792	4001
109	0	0	2346	14	3791	3999
110	0	0	2380	8	3793	4000
111	0	0	2345	4	3792	4000
112	0	0	2313	7	3792	3999
113	0	0	2225	7	3793	4000
114	0	0	2107	6	3790	4000
115	0	0	1997	6	3792	3999
116	0	0	1892	6	3791	4000
117	0	0	1822	7	3791	4001
118	0	0	1807	7	3792	3999
119	0	0	1805	10	3791	4001
120	0	0	1814	10	3791	4000
121	0	0	1835	8	3791	3999
122	0	0	1855	7	3791	4001
123	0	0	1907	9	3792	3999
124	0	0	1972	11	3794	4000
125	0	0	2042	11	3791	3999
126	0	0	2129	10	3792	4000
127	0	0	2195	8	3794	4002
0	0	0	2285	9	3792	4000
1	0	0	2369	10	3792	3999
2	0	0	2387	7	3791	3999
3	0	0	2349	6	3791	3999
4	0	0	2309	8	3792	4000
5	0	0	2221	6	3792	4000
6	0	0	2107	7	3792	4000
7	0	0	1995	6	3793	4000
8	0	0	1893	5	3791	4000
9	0	0	1815	8	3792	4000
10	0	0	1800	9	3792	4001
11	0	0	1804	10	3792	4000
12	0	0	1809	8	3792	3998
13	0	0	1826	11	3792	3999
14	0	0	1848	11	3792	4000
15	0	0	1895	10	3792	4000
16	0	0	1963	11	3792	4000
17	0	0	2035	10	3792	4000
18	0	0	2124	9	3791	3999
19	0	0	2188	7	3791	4001
20	0	0	2274	10	3793	4000
21	0	0	2363	10	3791	4000
22	0	0	2384	10	3791	4000
23	0	0	2356	7	3791	3999
24	0	0	2320	5	3792	4000
25	0	0	2229	8	3792	4000
26	0	0	2113	5	3791	4000
27	0	0	2003	6	3791	3999
28	0	0	1904	5	3791	3999
29	0	0	1827	5	3792	4001
30	0	0	1808	11	3792	4000
31	0	0	1808	12	3791	4000
32	0	0	1814	10	3792	3999
33	0	0	1837	7	3791	4000
34	0	0	1857	8	3792	4001
35	0	0	1901	10	3793	4000
36	0	0	1965	11	3791	4000
37	0	0	2038	10	3791	3999
38	0	0	2120	10	3792	4000
39	0	0	2184	10	3793	4001
40	0	0	2266	8	3793	4000
41	0	0	2353	10	3793	4000
42	0	0	2376	10	3792	4000
43	0	0	2344	7	3794	4000
44	0	0	2311	6	3794	4000
45	0	0	2223	7	3792	4001
46	0	0	2106	6	3793	4001
47	0	0	1998	6	3791	3999
48	0	0	1897	6	3792	4001
49	0	0	1819	8	3793	4001
50	0	0	1802	9	3792	4001
51	0	0	1803	10	3792	4000
52	0	0	1815	7	3791	4000
53	0	0	1842	7	3791	4001
54	0	0	1863	11	3791	4000
55	0	0	1907	10	3792	4000
56	0	0	1973	11	3791	4000
57	0	0	2041	10	3793	4001
58	0	0	2123	9	3793	4003
59	0	0	2192	9	3793	4000
60	0	0	2278	11	3793	4000
61	0	0	2362	10	3792	4000
62	0	0	2383	10	3791	3999
63	0	0	2348	7	3792	4002
64	0	0	2313	5	3793	4000
65	0	0	2227	6	3793	4000
66	0	0	2108	6	3792	4000
67	0	0	2002	7	3792	4000
68	0	0	1903	7	3792	4000
69	0	0	1820	8	3792	4001
70	0	0	1802	10	3793	4001
71	0	0	1802	11	3792	4000
72	0	0	1815	11	3793	4001
73	0	0	1838	11	3793	4000
74	0	0	1856	11	3791	4002
75	0	0	1902	10	3792	4001
76	0	0	1971	10	3791	4000
77	0	0	2043	13	3793	4002
78	0	0	2125	10	3793	4000
79	0	0	2188	10	3794	4001
80	0	0	2267	8	3792	4001
81	0	0	2351	10	3791	4003
82	0	0	2384	11	3792	4000
83	0	0	2356	7	3792	4000
84	0	0	2318	9	3791	4002
85	0	0	2232	6	3793	4001
86	0	0	2118	6	3791	4004
87	0	0	2007	7	3793	4002
88	0	0	1904	7	3791	4001
89	0	0	1826	7	3791	4001
90	0	0	1810	8	3792	4000
91	0	0	1813	10	3791	4003
92	0	0	1815	10	3791	3999
93	0	0	1829	10	3792	3999
94	0	0	1848	8	3792	4001
95	0	0	1893	8	3792	4000
96	0	0	1965	10	3793	4001
97	0	0	2039	11	3792	4000
98	0	0	2123	10	3791	4000
99	0	0	2182	11	3791	4002
100	0	0	2260	9	3792	4001
101	0	0	2347	11	3791	4001
102	0	0	2375	8	3793	4001
103	0	0	2344	8	3792	4000
104	0	0	2308	7	3791	4002
105	0	0	2222	4	3792	4001
106	0	0	2110	6	3791	3999
107	0	0	2001	5	3793	4002
108	0	0	1901	5	3791	4000
109	0	0	1820	8	3791	3999
110	0	0	1803	8	3792	4003
111	0	0	1807	10	3791	4004
112	0	0	1815	10	3791	4000
113	0	0	1833	10	3793	3999
114	0	0	1858	11	3793	4002
115	0	0	1903	8	3792	4001
116	0	0	1970	10	3791	4001
117	0	0	2043	9	3792	4002
118	0	0	2123	12	3792	4001
119	0	0	2185	10	3790	3999
120	0	0	2269	8	3792	4000
121	0	0	2358	10	3791	4003
122	0	0	2386	10	3792	4001
123	0	0	2355	6	3791	4000
124	0	0	2323	8	3791	3999
125	0	0	2243	6	3793	4001
126	0	0	2124	6	3791	3999
127	0	0	2012	6	3791	4000
0	0	0	1908	5	3792	4001
1	0	0	1829	10	3791	3999
2	0	0	1810	6	3792	4002
3	0	0	1810	11	3793	4001
4	0	0	1817	11	3792	4000
5	0	0	1838	10	3792	4001
6	0	0	1860	8	3792	4002
7	0	0	1904	12	3792	4001
8	0	0	1972	14	3793	4002
9	0	0	2042	11	3792	4000
10	0	0	2124	10	3791	4000
11	0	0	2182	10	3790	3999
12	0	0	2263	10	3792	4001
13	0	0	2348	11	3792	4003
14	0	0	2380	10	3791	4000
15	0	0	2350	8	3792	4000
16	0	0	2317	10	3791	3999
17	0	0	2230	4	3792	4001
18	0	0	2113	5	3791	4001
19	0	0	1999	6	3793	4002
20	0	0	1900	10	3792	3999
21	0	0	1824	7	3791	4000
22	0	0	1809	7	3793	4003
23	0	0	1808	10	3791	4001
24	0	0	1817	10	3792	4003
25	0	0	1841	10	3793	3999
26	0	0	1864	9	3790	3999
27	0	0	1903	10	3792	4001
28	0	0	1966	10	3791	4001
29	0	0	2040	10	3791	4001
30	0	0	2123	10	3792	4001
31	0	0	2188	10	3792	4002
32	0	0	2266	7	3792	4000
33	0	0	2355	10	3791	4001
34	0	0	2383	10	3792	4000
35	0	0	2355	10	3791	4001
36	0	0	2318	7	3791	3999
37	0	0	2231	4	3792	4001
38	0	0	2115	7	3792	4000
39	0	0	2004	7	3793	4002
40	0	0	1901	5	3791	4002
41	0	0	1822	5	3790	3999
42	0	0	1805	11	3792	4002
43	0	0	1807	10	3792	4001
44	0	0	1814	12	3793	4004
45	0	0	1836	9	3791	4003
46	0	0	1863	11	3791	4001
47	0	0	1904	10	3792	4001
48	0	0	1971	11	3792	4001
49	0	0	2040	10	3792	4001
50	0	0	2121	10	3792	4002
51	0	0	2186	10	3793	4001
52	0	0	2268	15	3792	4001
53	0	0	2356	10	3792	4003
54	0	0	2378	10	3791	4001
55	0	0	2348	8	3792	4003
56	0	0	2309	6	3792	3999
57	0	0	2232	7	3792	4001
58	0	0	2119	6	3792	4001
59	0	0	2007	5	3791	4001
60	0	0	1906	8	3791	4001
61	0	0	1828	5	3791	3999
62	0	0	1809	13	3793	4001
63	0	0	1812	3	3791	4001
64	0	0	1822	10	3791	4001
65	0	0	1840	8	3792	4001
66	0	0	1855	10	3792	4001
67	0	0	1896	10	3792	4002
68	0	0	1956	10	3792	4001
69	0	0	2031	7	3792	4003
70	0	0	2113	10	3790	4000
71	0	0	2179	11	3791	4001
72	0	0	2262	13	3792	4002
73	0	0	2353	10	3791	4001
74	0	0	2386	7	3793	4005
75	0	0	2347	8	3791	4003
76	0	0	2312	7	3791	4001
77	0	0	2230	5	3792	4002
78	0	0	2112	6	3791	4000
79	0	0	2000	6	3792	4001
80	0	0	1899	6	3792	4003
81	0	0	1822	7	3792	4003
82	0	0	1804	11	3792	4001
83	0	0	1807	11	3791	4001
84	0	0	1820	10	3791	4001
85	0	0	1839	14	3791	4001
86	0	0	1862	12	3793	4002
87	0	0	1900	10	3793	4003
88	0	0	1964	10	3792	4001
89	0	0	2040	10	3792	4000
90	0	0	2124	14	3791	4000
91	0	0	2190	11	3791	4001
92	0	0	2266	11	3792	4003
93	0	0	2355	10	3791	4001
94	0	0	2388	10	3792	4001
95	0	0	2356	11	3791	4000
96	0	0	2315	8	3792	4001
97	0	0	2231	11	3793	4002
98	0	0	2115	6	3791	4001
99	0	0	2009	6	3791	4002
100	0	0	1909	10	3791	4001
101	0	0	1823	7	3791	4001
102	0	0	1802	11	3792	4003
103	0	0	1804	7	3792	4001
104	0	0	1819	10	3791	4001
105	0	0	1843	12	3791	4001
106	0	0	1862	10	3792	4001
107	0	0	1900	13	3792	4002
108	0	0	1966	10	3792	4001
109	0	0	2034	10	3791	4002
110	0	0	2111	15	3791	4001
111	0	0	2174	11	3791	4001
112	0	0	2256	14	3792	4002
113	0	0	2346	10	3792	4003
114	0	0	2379	11	3791	4000
115	0	0	2352	7	3792	4003
116	0	0	2321	6	3792	4003
117	0	0	2241	6	3792	4003
118	0	0	2125	6	3792	4003
119	0	0	2016	7	3791	4001
120	0	0	1909	6	3792	4000
121	0	0	1825	7	3792	4003
122	0	0	1809	11	3792	4003
123	0	0	1810	11	3793	4002
124	0	0	1816	9	3792	4002
125	0	0	1837	15	3791	4000
126	0	0	1854	12	3793	4002
127	0	0	1897	8	3792	4003
0	0	0	1963	11	3792	4001
1	0	0	2041	7	3793	4003
2	0	0	2118	10	3792	4003
3	0	0	2182	10	3794	4000
4	0	0	2261	13	3793	4002
5	0	0	2349	10	3791	4001
6	0	0	2382	10	3791	4002
7	0	0	2354	7	3792	4001
8	0	0	2319	6	3793	4002
9	0	0	2236	4	3792	4001
10	0	0	2117	7	3793	4002
11	0	0	2006	7	3792	4002
12	0	0	1905	6	3792	4001
13	0	0	1824	7	3792	4003
14	0	0	1805	11	3792	4002
15	0	0	1804	13	3792	4001
16	0	0	1811	7	3792	4001
17	0	0	1839	11	3791	4003
18	0	0	1867	10	3794	4000
19	0	0	1904	8	3791	4001
20	0	0	1967	11	3792	4001
21	0	0	2038	7	3791	4001
22	0	0	2113	10	3792	4001
23	0	0	2174	12	3792	4002
24	0	0	2254	8	3792	4002
25	0	0	2347	10	3790	4001
26	0	0	2388	10	3792	4002
27	0	0	2363	7	3793	4003
28	0	0	2327	6	3794	4002
29	0	0	2245	8	3793	4003
30	0	0	2126	6	3791	4000
31	0	0	2016	5	3792	4003
32	0	0	1916	5	3791	3999
33	0	0	1836	7	3792	4002
34	0	0	1814	8	3791	4002
35	0	0	1811	10	3791	4002
36	0	0	1816	11	3791	4001
37	0	0	1831	10	3792	4001
38	0	0	1850	10	3792	4002
39	0	0	1893	10	3792	4000
40	0	0	1964	10	3792	4003
41	0	0	2036	7	3791	4002
42	0	0	2114	11	3792	4001
43	0	0	2186	11	3792	4001
44	0	0	2268	10	3792	4002
45	0	0	2354	12	3793	4001
46	0	0	2385	9	3793	4003
47	0	0	2347	7	3792	4000
48	0	0	2310	6	3792	4002
49	0	0	2234	7	3793	4002
50	0	0	2119	6	3791	4001
51	0	0	2007	7	3789	4002
52	0	0	1912	8	3792	4002
53	0	0	1833	6	3790	4003
54	0	0	1812	8	3793	4001
55	0	0	1813	10	3791	4001
56	0	0	1818	10	3793	4000
57	0	0	1829	9	3792	4005
58	0	0	1846	11	3789	4003
59	0	0	1890	8	3792	4003
60	0	0	1956	10	3792	4003
61	0	0	2033	7	3791	4001
62	0	0	2114	10	3792	4002
63	0	0	2183	10	3792	4003
64	0	0	2257	12	3792	4003
65	0	0	2344	10	3791	4002
66	0	0	2384	8	3792	4001
67	0	0	2355	7	3792	4003
68	0	0	2314	6	3792	4002
69	0	0	2234	8	3791	4002
70	0	0	2122	6	3791	4002
71	0	0	2008	4	3792	4002
72	0	0	1911	6	3792	4003
73	0	0	1830	6	3791	4002
74	0	0	1804	8	3792	4002
75	0	0	1805	10	3791	4001
76	0	0	1810	9	3792	4003
77	0	0	1826	10	3790	4004
78	0	0	1845	8	3793	4002
79	0	0	1889	11	3792	4002
80	0	0	1958	10	3791	4002
81	0	0	2031	10	3793	4001
82	0	0	2108	9	3791	4001
83	0	0	2175	11	3788	4003
84	0	0	2253	11	3791	4001
85	0	0	2347	10	3791	4001
86	0	0	2384	11	3789	4002
87	0	0	2351	6	3791	3999
88	0	0	2312	8	3791	4003
89	0	0	2234	8	3792	4003
90	0	0	2124	6	3791	4001
91	0	0	2016	8	3791	4000
92	0	0	1918	5	3791	3999
93	0	0	1834	7	3790	4003
94	0	0	1809	7	3791	4003
95	0	0	1809	10	3791	4002
96	0	0	1818	11	3791	4004
97	0	0	1843	7	3791	4001
98	0	0	1860	11	3791	4001
99	0	0	1901	12	3792	4002
100	0	0	1965	10	3791	4002
101	0	0	2038	12	3791	4000
102	0	0	2117	10	3793	4004
103	0	0	2188	11	3790	4003
104	0	0	2263	7	3791	4003
105	0	0	2349	10	3791	4002
106	0	0	2381	6	3791	4001
107	0	0	2356	7	3792	4001
108	0	0	2323	9	3792	4002
109	0	0	2247	7	3791	4001
110	0	0	2128	6	3792	4003
111	0	0	2018	4	3792	4002
112	0	0	1915	6	3791	4003
113	0	0	1828	6	3792	4003
114	0	0	1805	5	3792	4003
115	0	0	1806	10	3791	4001
116	0	0	1813	8	3792	4002
117	0	0	1841	10	3792	4004
118	0	0	1864	8	3791	4003
119	0	0	1901	7	3790	4003
120	0	0	1968	10	3791	4001
121	0	0	2039	12	3791	4001
122	0	0	2118	10	3793	4004
123	0	0	2182	10	3791	4003
124	0	0	2254	11	3792	4003
125	0	0	2347	10	3791	4004
126	0	0	2385	9	3792	4002
127	0	0	2352	7	3792	4003
0	0	0	2319	7	3793	4003
1	0	0	2242	3	3791	4003
2	0	0	2128	6	3792	4004
3	0	0	2019	4	3792	4001
4	0	0	1920	6	3791	4001
5	0	0	1831	7	3793	4003
6	0	0	1806	7	3791	4003
7	0	0	1806	10	3793	4003
8	0	0	1811	10	3791	4002
9	0	0	1831	7	3791	4002
10	0	0	1854	11	3791	4002
11	0	0	1899	7	3791	4002
12	0	0	1961	10	3792	4001
13	0	0	2031	8	3792	4002
14	0	0	2111	11	3791	4002
15	0	0	2176	11	3791	4002
16	0	0	2252	7	3792	4003
17	0	0	2344	10	3792	4002
18	0	0	2384	10	3791	4002
19	0	0	2354	6	3791	4002
20	0	0	2323	7	3791	4002
21	0	0	2251	5	3793	4003
22	0	0	2133	7	3791	4001
23	0	0	2021	6	3792	4003
24	0	0	1920	5	3793	4002
25	0	0	1835	7	3791	4002
26	0	0	1812	7	3791	4002
27	0	0	1814	10	3791	4001
28	0	0	1821	11	3792	4002
29	0	0	1833	7	3791	4001
30	0	0	1850	10	3791	4001
31	0	0	1891	8	3792	4002
32	0	0	1957	10	3791	4001
33	0	0	2029	10	3791	4003
34	0	0	2111	12	3791	4001
35	0	0	2175	10	3791	4002
36	0	0	2253	7	3792	4003
37	0	0	2342	10	3791	4001
38	0	0	2380	10	3791	4004
39	0	0	2351	7	3790	4001
40	0	0	2315	5	3791	4001
41	0	0	2243	4	3791	4002
42	0	0	2128	6	3791	4002
43	0	0	2019	6	3791	4002
44	0	0	1926	8	3791	4001
45	0	0	1838	6	3792	4002
46	0	0	1809	3	3793	4002
47	0	0	1809	3	3792	4001
48	0	0	1817	10	3791	4002
49	0	0	1831	11	3790	4002
50	0	0	1849	12	3791	4002
51	0	0	1890	8	3793	4002
52	0	0	1958	10	3791	4001
53	0	0	2031	10	3791	4001
54	0	0	2113	10	3792	4004
55	0	0	2181	10	3792	4003
56	0	0	2251	10	3792	4003
57	0	0	2347	9	3792	4002
58	0	0	2387	11	3791	4002
59	0	0	2360	7	3792	4004
60	0	0	2322	5	3792	4003
61	0	0	2243	4	3793	4002
62	0	0	2124	6	3793	4003
63	0	0	2011	6	3791	4002
64	0	0	1914	5	3792	4004
65	0	0	1826	6	3793	4004
66	0	0	1802	8	3792	4003
67	0	0	1805	7	3791	4001
68	0	0	1815	11	3791	4002
69	0	0	1835	11	3790	4001
70	0	0	1858	10	3791	4002
71	0	0	1898	10	3793	4003
72	0	0	1961	11	3791	4003
73	0	0	2032	11	3792	4003
74	0	0	2108	11	3793	4001
75	0	0	2176	10	3792	4002
76	0	0	2255	8	3793	4002
77	0	0	2349	10	3791	4003
78	0	0	2389	10	3791	4001
79	0	0	2366	7	3792	4004
80	0	0	2332	6	3792	4003
81	0	0	2257	7	3792	4003
82	0	0	2137	6	3791	4002
83	0	0	2017	7	3791	4002
84	0	0	1916	8	3790	4002
85	0	0	1831	5	3792	4002
86	0	0	1805	8	3793	4002
87	0	0	1809	3	3791	4001
88	0	0	1817	9	3794	4003
89	0	0	1841	10	3793	4004
90	0	0	1858	11	3792	4003
91	0	0	1896	8	3794	4003
92	0	0	1962	10	3791	4002
93	0	0	2039	9	3794	4003
94	0	0	2120	10	3792	4004
95	0	0	2180	10	3792	4004
96	0	0	2253	10	3793	4003
97	0	0	2345	9	3791	4002
98	0	0	2389	10	3791	4002
99	0	0	2359	8	3791	4002
100	0	0	2328	7	3792	4003
101	0	0	2252	4	3792	4003
102	0	0	2135	5	3792	4001
103	0	0	2023	6	3794	4003
104	0	0	1920	5	3792	4002
105	0	0	1832	6	3791	4002
106	0	0	1805	8	3793	4003
107	0	0	1803	10	3791	4002
108	0	0	1815	10	3791	4003
109	0	0	1841	10	3791	4002
110	0	0	1860	11	3792	4002
111	0	0	1900	1	3793	4002
112	0	0	1962	10	3793	4004
113	0	0	2032	11	3791	4002
114	0	0	2119	10	3792	4003
115	0	0	2185	11	3792	4003
116	0	0	2260	10	3793	4003
117	0	0	2346	10	3792	4002
118	0	0	2386	10	3794	4004
119	0	0	2355	7	3792	4006
120	0	0	2321	8	3792	4000
121	0	0	2248	6	3793	4003
122	0	0	2133	6	3791	4002
123	0	0	2020	4	3793	4003
124	0	0	1922	8	3792	4004
125	0	0	1835	5	3792	4003
126	0	0	1807	7	3791	4002
127	0	0	1801	10	3791	4003
0	0	0	1809	10	3791	4002
1	0	0	1829	10	3792	4003
2	0	0	1854	10	3793	4004
3	0	0	1894	12	3793	4002
4	0	0	1954	10	3791	4003
5	0	0	2029	8	3792	4003
6	0	0	2107	10	3792	4000
7	0	0	2177	11	3792	4002
8	0	0	2247	10	3792	4003
9	0	0	2339	10	3791	4002
10	0	0	2383	10	3791	4002
11	0	0	2347	10	3791	4003
12	0	0	2310	7	3792	4001
13	0	0	2240	5	3791	4004
14	0	0	2130	6	3791	4002
15	0	0	2019	7	3791	4002
16	0	0	1918	6	3793	4002
17	0	0	1832	6	3792	4002
18	0	0	1806	8	3791	4003
19	0	0	1806	9	3792	4005
20	0	0	1811	11	3791	4003
21	0	0	1831	10	3792	4003
22	0	0	1849	11	3794	4003
23	0	0	1889	12	3791	4002
24	0	0	1953	10	3791	4002
25	0	0	2027	9	3792	4002
26	0	0	2104	10	3792	4003
27	0	0	2173	10	3791	4002
28	0	0	2251	10	3793	4003
29	0	0	2341	10	3791	4002
30	0	0	2383	10	3791	4002
31	0	0	2350	8	3793	4003
32	0	0	2317	7	3791	4001
33	0	0	2245	6	3792	4003
34	0	0	2129	6	3793	4003
35	0	0	2013	7	3791	4002
36	0	0	1917	10	3791	4002
37	0	0	1835	7	3791	4001
38	0	0	1812	9	3792	4000
39	0	0	1814	10	3791	3999
40	0	0	1822	8	3791	4001
41	0	0	1836	12	3791	4002
42	0	0	1853	11	3791	4002
43	0	0	1889	10	3791	4002
44	0	0	1950	9	3791	4002
45	0	0	2024	10	3791	4002
46	0	0	2102	13	3791	4003
47	0	0	2180	13	3792	4001
48	0	0	2255	12	3792	4003
49	0	0	2346	10	3792	4003
50	0	0	2391	10	3791	4002
51	0	0	2363	7	3791	4002
52	0	0	2330	7	3793	4004
53	0	0	2255	7	3791	4002
54	0	0	2140	6	3793	4003
55	0	0	2029	5	3791	4002
56	0	0	1925	7	3791	4002
57	0	0	1838	5	3791	4000
58	0	0	1812	5	3791	4002
59	0	0	1811	13	3792	3999
60	0	0	1815	9	3792	4002
61	0	0	1836	10	3792	4004
62	0	0	1859	11	3791	4001
63	0	0	1895	10	3791	4002
64	0	0	1959	11	3791	4001
65	0	0	2032	10	3792	4003
66	0	0	2107	10	3792	4004
67	0	0	2174	9	3791	4001
68	0	0	2249	10	3791	4003
69	0	0	2343	10	3793	4003
70	0	0	2385	7	3791	4002
71	0	0	2353	11	3791	4002
72	0	0	2323	7	3792	4003
73	0	0	2253	6	3791	4003
74	0	0	2134	6	3791	4002
75	0	0	2017	5	3792	4002
76	0	0	1918	5	3792	4001
77	0	0	1832	7	3792	4002
78	0	0	1807	8	3791	4003
79	0	0	1806	12	3792	4001
80	0	0	1813	10	3791	4002
81	0	0	1834	7	3792	4002
82	0	0	1858	10	3791	4000
83	0	0	1896	11	3793	4004
84	0	0	1955	10	3791	4002
85	0	0	2026	13	3792	4004
86	0	0	2102	10	3792	4003
87	0	0	2172	9	3792	4002
88	0	0	2246	10	3791	4003
89	0	0	2340	10	3791	4002
90	0	0	2385	11	3791	4003
91	0	0	2356	9	3791	4003
92	0	0	2326	7	3791	4001
93	0	0	2255	7	3791	4003
94	0	0	2136	6	3791	4002
95	0	0	2019	6	3791	4003
96	0	0	1917	6	3791	4003
97	0	0	1830	6	3792	4003
98	0	0	1803	8	3791	4002
99	0	0	1804	10	3791	4002
100	0	0	1814	11	3790	4002
101	0	0	1837	7	3792	4003
102	0	0	1861	10	3793	4002
103	0	0	1898	10	3792	4003
104	0	0	1959	9	3791	4002
105	0	0	2030	11	3792	4004
106	0	0	2104	10	3792	4003
107	0	0	2170	11	3791	4003
108	0	0	2246	10	3792	4003
109	0	0	2336	10	3791	4003
110	0	0	2380	9	3791	4000
111	0	0	2356	5	3793	4001
112	0	0	2323	8	3791	4002
113	0	0	2254	7	3792	4003
114	0	0	2136	5	3791	4002
115	0	0	2022	6	3791	4002
116	0	0	1917	5	3792	4002
117	0	0	1834	8	3791	4003
118	0	0	1806	8	3792	4005
119	0	0	1806	12	3791	4002
120	0	0	1814	10	3791	4002
121	0	0	1826	8	3791	4001
122	0	0	1847	10	3791	4002
123	0	0	1881	10	3791	4002
124	0	0	1949	10	3791	4002
125	0	0	2023	10	3791	4002
126	0	0	2104	7	3792	4002
127	0	0	2180	11	3789	4002
0	0	0	2247	13	3792	4003
1	0	0	2341	10	3790	4001
2	0	0	2387	8	3791	4004
3	0	0	2360	6	3793	4006
4	0	0	2323	8	3792	4004
5	0	0	2259	6	3792	4004
6	0	0	2144	6	3791	3999
7	0	0	2028	5	3791	4003
8	0	0	1924	5	3792	4002
9	0	0	1837	7	3792	4005
10	0	0	1807	7	3792	4003
11	0	0	1809	10	3791	4002
12	0	0	1821	11	3791	4003
13	0	0	1840	10	3792	4003
14	0	0	1859	10	3793	4004
15	0	0	1893	9	3793	4003
16	0	0	1950	9	3791	4002
17	0	0	2024	10	3789	4003
18	0	0	2104	8	3791	3999
19	0	0	2175	10	3791	4004
20	0	0	2245	10	3793	4002
21	0	0	2339	10	3791	4003
22	0	0	2386	10	3791	4002
23	0	0	2362	8	3791	4001
24	0	0	2326	8	3789	4003
25	0	0	2253	6	3793	4002
26	0	0	2136	7	3791	4002
27	0	0	2021	5	3791	4003
28	0	0	1921	6	3792	4002
29	0	0	1835	7	3792	4004
30	0	0	1801	7	3792	4003
31	0	0	1798	10	3791	4000
32	0	0	1810	9	3791	4004
33	0	0	1832	10	3792	4002
34	0	0	1859	10	3790	4003
35	0	0	1893	9	3793	4002
36	0	0	1951	10	3791	4003
37	0	0	2023	11	3791	4003
38	0	0	2100	10	3792	4003
39	0	0	2171	9	3791	4003
40	0	0	2240	10	3792	4002
41	0	0	2328	9	3792	4002
42	0	0	2372	9	3791	4002
43	0	0	2351	7	3792	4003
44	0	0	2320	7	3793	4003
45	0	0	2255	6	3792	4003
46	0	0	2142	7	3792	4003
47	0	0	2028	4	3791	4002
48	0	0	1927	6	3792	4002
49	0	0	1835	7	3792	4005
50	0	0	1805	10	3790	4002
51	0	0	1806	9	3791	4002
52	0	0	1814	11	3791	4001
53	0	0	1832	10	3789	4004
54	0	0	1856	11	3792	4004
55	0	0	1893	12	3792	4003
56	0	0	1953	8	3792	4003
57	0	0	2026	11	3791	4002
58	0	0	2108	10	3791	4002
59	0	0	2177	9	3792	4004
60	0	0	2248	10	3793	4004
61	0	0	2338	10	3791	4002
62	0	0	2382	10	3792	4003
63	0	0	2357	7	3790	4001
64	0	0	2323	8	3792	4003
65	0	0	2257	6	3792	4002
66	0	0	2138	8	3791	4003
67	0	0	2026	6	3788	4004
68	0	0	1929	6	3791	4003
69	0	0	1841	6	3792	4005
70	0	0	1809	6	3789	4003
71	0	0	1810	10	3791	4003
72	0	0	1815	11	3791	4003
73	0	0	1833	8	3791	4002
74	0	0	1854	10	3792	4003
75	0	0	1886	10	3793	4003
76	0	0	1943	10	3791	4002
77	0	0	2019	11	3792	4004
78	0	0	2099	10	3792	4004
79	0	0	2169	11	3791	4004
80	0	0	2246	10	3792	4003
81	0	0	2340	11	3791	4002
82	0	0	2387	11	3791	4002
83	0	0	2362	7	3792	4002
84	0	0	2328	7	3791	4002
85	0	0	2258	7	3789	4004
86	0	0	2139	6	3791	4003
87	0	0	2024	6	3791	4002
88	0	0	1923	6	3789	4003
89	0	0	1834	6	3790	4002
90	0	0	1804	10	3792	4003
91	0	0	1809	10	3792	4004
92	0	0	1819	10	3792	4002
93	0	0	1837	10	3792	4003
94	0	0	1857	10	3792	4004
95	0	0	1888	10	3791	3999
96	0	0	1948	9	3792	4004
97	0	0	2021	11	3791	4004
98	0	0	2099	10	3791	4002
99	0	0	2175	10	3791	4004
100	0	0	2243	10	3789	4002
101	0	0	2338	10	3791	4003
102	0	0	2387	10	3792	4003
103	0	0	2359	8	3789	4003
104	0	0	2320	8	3792	4005
105	0	0	2255	5	3793	4003
106	0	0	2136	6	3791	4002
107	0	0	2024	6	3792	3999
108	0	0	1924	6	3790	4003
109	0	0	1836	7	3791	4002
110	0	0	1812	8	3789	4002
111	0	0	1815	10	3792	4005
112	0	0	1816	10	3792	4002
113	0	0	1828	10	3790	4002
114	0	0	1850	10	3792	4004
115	0	0	1886	10	3791	4003
116	0	0	1953	10	3791	4002
