# bioPlux Text File Format
# Version: 1
# StartDateTime: 2011-07-18 12:38:00
# SamplingFrequency: 1000
# SampledChannels: 1 2 3 4
# SamplingResolution: 12
# AcquiringDevice: 00:07:80:42:0F:8B
# EndOfHeader
0	0	0	1902	8	3711	72
1	0	0	2148	10	3712	71
2	0	0	2376	12	3711	72
3	0	0	2610	10	3710	73
4	0	0	2777	10	3711	73
5	0	0	2859	8	3710	73
6	0	0	2907	11	3710	71
7	0	0	3092	8	3710	72
8	0	0	2940	6	3710	73
9	0	0	2606	6	3710	73
10	0	0	2287	5	3712	72
11	0	0	1866	7	3712	71
12	0	0	1517	6	3712	71
13	0	0	1313	6	3713	74
14	0	0	1217	7	3712	71
15	0	0	1189	8	3711	73
16	0	0	1217	6	3711	73
17	0	0	1204	10	3709	72
18	0	0	1381	10	3709	73
19	0	0	1668	8	3710	73
20	0	0	1904	8	3712	72
21	0	0	2144	9	3711	73
22	0	0	2362	8	3711	73
23	0	0	2594	10	3709	73
24	0	0	2765	10	3710	72
25	0	0	2857	9	3712	70
26	0	0	2913	10	3711	73
27	0	0	3109	11	3712	71
28	0	0	2958	6	3712	70
29	0	0	2614	7	3711	72
30	0	0	2301	4	3711	73
31	0	0	1882	6	3711	73
32	0	0	1519	5	3713	72
33	0	0	1321	6	3711	73
34	0	0	1230	6	3711	73
35	0	0	1196	8	3712	71
36	0	0	1231	6	3709	72
37	0	0	1217	12	3712	71
38	0	0	1391	8	3708	73
39	0	0	1675	10	3710	76
40	0	0	1905	8	3712	72
41	0	0	2149	9	3710	70
42	0	0	2386	12	3711	72
43	0	0	2616	9	3710	72
44	0	0	2776	10	3711	73
45	0	0	2855	9	3712	72
46	0	0	2900	10	3710	72
47	0	0	3088	12	3711	73
48	0	0	2943	12	3710	71
49	0	0	2605	6	3711	73
50	0	0	2298	5	3712	71
51	0	0	1878	7	3710	72
52	0	0	1525	6	3711	72
53	0	0	1325	8	3712	72
54	0	0	1228	7	3710	74
55	0	0	1196	6	3712	73
56	0	0	1233	6	3711	73
57	0	0	1221	9	3711	73
58	0	0	1392	10	3710	72
59	0	0	1677	8	3712	71
60	0	0	1910	10	3711	75
61	0	0	2149	9	3711	71
62	0	0	2375	9	3713	71
63	0	0	2608	10	3712	71
64	0	0	2777	9	3713	71
65	0	0	2858	10	3712	71
66	0	0	2910	10	3711	73
67	0	0	3093	7	3711	73
68	0	0	2949	4	3711	73
69	0	0	2611	5	3712	74
70	0	0	2307	7	3710	72
71	0	0	1890	7	3711	73
72	0	0	1526	7	3711	73
73	0	0	1320	6	3710	73
74	0	0	1221	8	3710	73
75	0	0	1190	7	3710	73
76	0	0	1220	7	3710	72
77	0	0	1201	7	3712	70
78	0	0	1379	9	3712	71
79	0	0	1669	9	3713	71
80	0	0	1905	9	3713	74
81	0	0	2144	11	3713	72
82	0	0	2366	10	3713	72
83	0	0	2593	10	3711	74
84	0	0	2759	10	3712	72
85	0	0	2850	12	3711	72
86	0	0	2899	11	3712	70
87	0	0	3083	7	3711	71
88	0	0	2936	7	3710	73
89	0	0	2595	8	3710	74
90	0	0	2298	7	3710	72
91	0	0	1892	4	3711	73
92	0	0	1531	7	3713	71
93	0	0	1326	6	3711	73
94	0	0	1231	10	3711	73
95	0	0	1199	7	3710	73
96	0	0	1233	5	3711	72
97	0	0	1212	8	3711	73
98	0	0	1385	10	3711	73
99	0	0	1675	9	3712	71
100	0	0	1912	9	3712	69
101	0	0	2140	14	3712	72
102	0	0	2360	10	3711	72
103	0	0	2592	10	3710	75
104	0	0	2759	11	3712	71
105	0	0	2851	7	3711	72
106	0	0	2905	10	3710	72
107	0	0	3088	8	3711	73
108	0	0	2941	6	3710	73
109	0	0	2604	6	3710	72
110	0	0	2295	6	3710	73
111	0	0	1888	5	3712	72
112	0	0	1528	3	3712	71
113	0	0	1325	6	3713	70
114	0	0	1229	7	3711	73
115	0	0	1203	5	3712	71
116	0	0	1240	6	3712	72
117	0	0	1219	10	3712	70
118	0	0	1386	10	3710	72
119	0	0	1669	10	3712	71
120	0	0	1904	7	3710	72
121	0	0	2143	9	3712	72
122	0	0	2366	8	3710	72
123	0	0	2595	10	3710	72
124	0	0	2753	10	3711	73
125	0	0	2841	7	3712	71
126	0	0	2882	9	3712	71
127	0	0	3070	7	3709	72
0	0	0	2932	9	3710	72
1	0	0	2597	6	3711	73
2	0	0	2296	6	3712	72
3	0	0	1894	5	3713	72
4	0	0	1530	4	3713	71
5	0	0	1322	6	3712	71
6	0	0	1227	5	3710	73
7	0	0	1202	5	3712	71
8	0	0	1242	6	3709	74
9	0	0	1226	8	3710	73
10	0	0	1391	7	3709	73
11	0	0	1677	14	3709	72
12	0	0	1904	11	3710	72
13	0	0	2141	8	3711	72
14	0	0	2362	8	3712	72
15	0	0	2593	10	3711	72
16	0	0	2750	14	3711	72
17	0	0	2846	11	3711	72
18	0	0	2890	11	3712	71
19	0	0	3072	8	3711	72
20	0	0	2933	6	3711	72
21	0	0	2603	7	3713	71
22	0	0	2297	6	3712	68
23	0	0	1885	6	3711	73
24	0	0	1536	6	3712	71
25	0	0	1338	6	3711	73
26	0	0	1241	7	3712	71
27	0	0	1211	8	3710	71
28	0	0	1253	7	3712	70
29	0	0	1234	8	3711	73
30	0	0	1394	10	3710	74
31	0	0	1670	7	3710	73
32	0	0	1901	10	3711	71
33	0	0	2141	9	3712	71
34	0	0	2362	10	3713	71
35	0	0	2596	10	3711	73
36	0	0	2762	15	3711	72
37	0	0	2846	9	3712	76
38	0	0	2883	8	3709	74
39	0	0	3066	11	3712	71
40	0	0	2927	6	3710	73
41	0	0	2599	5	3711	72
42	0	0	2297	4	3710	74
43	0	0	1892	6	3711	73
44	0	0	1541	6	3712	72
45	0	0	1335	6	3710	72
46	0	0	1240	3	3710	72
47	0	0	1206	7	3711	72
48	0	0	1252	9	3712	72
49	0	0	1239	10	3712	71
50	0	0	1399	9	3712	71
51	0	0	1668	11	3711	73
52	0	0	1887	8	3711	73
53	0	0	2118	10	3712	72
54	0	0	2345	8	3713	71
55	0	0	2578	11	3710	71
56	0	0	2748	9	3712	71
57	0	0	2841	10	3711	72
58	0	0	2882	10	3710	73
59	0	0	3074	10	3712	72
60	0	0	2928	6	3710	72
61	0	0	2597	4	3711	72
62	0	0	2292	6	3711	72
63	0	0	1888	6	3712	69
64	0	0	1537	6	3712	71
65	0	0	1335	6	3711	73
66	0	0	1241	7	3712	72
67	0	0	1211	7	3711	72
68	0	0	1261	8	3711	74
69	0	0	1249	10	3713	71
70	0	0	1408	11	3711	73
71	0	0	1676	8	3712	72
72	0	0	1907	9	3712	76
73	0	0	2146	10	3712	72
74	0	0	2367	10	3712	71
75	0	0	2586	11	3711	73
76	0	0	2750	9	3713	71
77	0	0	2837	10	3713	71
78	0	0	2876	11	3710	73
79	0	0	3055	10	3711	72
80	0	0	2924	6	3712	72
81	0	0	2599	2	3709	74
82	0	0	2296	9	3711	72
83	0	0	1889	6	3711	74
84	0	0	1532	4	3713	72
85	0	0	1336	8	3712	71
86	0	0	1244	5	3714	71
87	0	0	1216	8	3713	75
88	0	0	1268	9	3712	71
89	0	0	1253	10	3711	72
90	0	0	1406	10	3710	74
91	0	0	1667	11	3710	74
92	0	0	1882	12	3710	71
93	0	0	2119	11	3711	73
94	0	0	2346	10	3711	73
95	0	0	2572	10	3710	73
96	0	0	2752	13	3711	75
97	0	0	2841	10	3711	76
98	0	0	2876	10	3711	74
99	0	0	3059	10	3710	73
100	0	0	2925	6	3712	71
101	0	0	2594	7	3711	73
102	0	0	2297	10	3711	73
103	0	0	1896	7	3712	72
104	0	0	1541	5	3713	71
105	0	0	1336	6	3711	73
106	0	0	1242	8	3711	71
107	0	0	1211	8	3711	78
108	0	0	1263	8	3714	72
109	0	0	1251	10	3710	74
110	0	0	1400	10	3710	73
111	0	0	1673	11	3710	75
112	0	0	1894	11	3712	71
113	0	0	2134	10	3711	74
114	0	0	2352	10	3711	73
115	0	0	2580	12	3711	73
116	0	0	2744	10	3711	72
117	0	0	2827	10	3712	71
118	0	0	2862	11	3710	73
119	0	0	3046	9	3711	74
120	0	0	2920	7	3711	72
121	0	0	2598	7	3711	73
122	0	0	2300	6	3712	71
123	0	0	1902	5	3711	72
124	0	0	1553	7	3711	74
125	0	0	1351	8	3712	72
126	0	0	1258	7	3710	73
127	0	0	1218	7	3712	71
0	0	0	1252	8	3711	74
1	0	0	1238	10	3711	73
2	0	0	1394	9	3710	72
3	0	0	1661	10	3710	72
4	0	0	1897	9	3711	73
5	0	0	2138	10	3712	70
6	0	0	2361	9	3713	72
7	0	0	2590	10	3711	74
8	0	0	2759	13	3711	72
9	0	0	2841	10	3713	69
10	0	0	2857	10	3712	71
11	0	0	3034	10	3710	72
12	0	0	2906	6	3710	73
13	0	0	2590	6	3710	73
14	0	0	2293	6	3710	73
15	0	0	1898	6	3712	69
16	0	0	1549	6	3712	71
17	0	0	1350	6	3710	73
18	0	0	1257	6	3709	75
19	0	0	1221	11	3710	72
20	0	0	1267	7	3711	72
21	0	0	1251	10	3711	74
22	0	0	1405	10	3711	72
23	0	0	1678	9	3711	73
24	0	0	1897	10	3711	73
25	0	0	2137	10	3713	71
26	0	0	2362	10	3711	73
27	0	0	2585	11	3711	73
28	0	0	2742	11	3710	72
29	0	0	2822	7	3710	72
30	0	0	2850	10	3710	70
31	0	0	3028	10	3711	73
32	0	0	2900	7	3710	73
33	0	0	2580	6	3708	75
34	0	0	2278	7	3710	72
35	0	0	1888	6	3712	72
36	0	0	1547	6	3711	74
37	0	0	1350	6	3711	72
38	0	0	1256	6	3711	73
39	0	0	1219	7	3711	73
40	0	0	1258	8	3712	71
41	0	0	1240	8	3711	73
42	0	0	1390	10	3711	73
43	0	0	1657	11	3710	72
44	0	0	1891	11	3710	73
45	0	0	2131	10	3711	71
46	0	0	2339	10	3711	72
47	0	0	2574	10	3710	71
48	0	0	2745	10	3710	73
49	0	0	2825	7	3711	72
50	0	0	2858	9	3709	71
51	0	0	3034	11	3711	73
52	0	0	2911	6	3710	73
53	0	0	2591	7	3711	72
54	0	0	2289	3	3711	73
55	0	0	1887	5	3712	69
56	0	0	1549	6	3713	71
57	0	0	1348	6	3712	72
58	0	0	1250	6	3712	72
59	0	0	1215	11	3711	72
60	0	0	1264	8	3712	72
61	0	0	1250	10	3712	71
62	0	0	1403	10	3710	72
63	0	0	1678	10	3710	73
64	0	0	1898	7	3711	72
65	0	0	2133	11	3711	72
66	0	0	2353	10	3711	73
67	0	0	2575	9	3712	71
68	0	0	2727	14	3710	72
69	0	0	2810	10	3711	73
70	0	0	2830	10	3714	71
71	0	0	3009	10	3712	72
72	0	0	2895	6	3711	73
73	0	0	2574	7	3710	73
74	0	0	2282	6	3711	73
75	0	0	1893	6	3712	69
76	0	0	1555	6	3713	72
77	0	0	1358	7	3711	73
78	0	0	1258	6	3711	73
79	0	0	1225	5	3711	72
80	0	0	1261	7	3710	71
81	0	0	1249	9	3711	73
82	0	0	1391	10	3710	73
83	0	0	1665	10	3708	74
84	0	0	1895	10	3712	71
85	0	0	2129	9	3712	70
86	0	0	2351	10	3712	74
87	0	0	2584	10	3711	72
88	0	0	2736	11	3711	73
89	0	0	2825	10	3712	71
90	0	0	2841	10	3712	68
91	0	0	3017	10	3713	71
92	0	0	2895	6	3712	71
93	0	0	2575	7	3710	73
94	0	0	2288	4	3711	72
95	0	0	1896	7	3712	70
96	0	0	1557	5	3712	71
97	0	0	1359	7	3711	73
98	0	0	1268	7	3710	75
99	0	0	1235	8	3712	72
100	0	0	1274	8	3712	72
101	0	0	1256	10	3712	72
102	0	0	1410	10	3710	74
103	0	0	1677	10	3710	73
104	0	0	1899	9	3711	73
105	0	0	2132	9	3713	71
106	0	0	2351	10	3713	71
107	0	0	2578	10	3712	72
108	0	0	2731	11	3711	72
109	0	0	2814	9	3712	71
110	0	0	2831	10	3712	70
111	0	0	3009	9	3712	71
112	0	0	2894	7	3710	73
113	0	0	2576	6	3710	73
114	0	0	2284	6	3712	72
115	0	0	1897	7	3709	74
116	0	0	1551	5	3712	72
117	0	0	1350	6	3711	72
118	0	0	1255	7	3711	73
119	0	0	1225	7	3712	71
120	0	0	1269	8	3712	71
121	0	0	1251	9	3712	72
122	0	0	1396	10	3711	73
123	0	0	1674	11	3711	72
124	0	0	1905	8	3711	72
125	0	0	2130	11	3713	70
126	0	0	2356	9	3712	72
127	0	0	2579	11	3714	71
0	0	0	2732	10	3712	71
1	0	0	2808	10	3709	73
2	0	0	2823	10	3712	71
3	0	0	3004	11	3712	70
4	0	0	2888	6	3710	72
5	0	0	2569	7	3710	72
6	0	0	2283	6	3711	73
7	0	0	1899	6	3712	71
8	0	0	1558	6	3710	73
9	0	0	1362	6	3711	73
10	0	0	1273	8	3711	72
11	0	0	1243	9	3713	71
12	0	0	1287	8	3712	71
13	0	0	1271	7	3712	70
14	0	0	1417	10	3711	73
15	0	0	1679	11	3711	72
16	0	0	1902	8	3713	70
17	0	0	2127	10	3711	72
18	0	0	2338	10	3713	72
19	0	0	2555	10	3711	74
20	0	0	2719	10	3711	73
21	0	0	2806	11	3711	73
22	0	0	2832	12	3712	71
23	0	0	3010	10	3714	73
24	0	0	2891	5	3710	72
25	0	0	2578	6	3712	71
26	0	0	2287	6	3712	72
27	0	0	1901	6	3712	71
28	0	0	1561	8	3710	74
29	0	0	1364	6	3711	72
30	0	0	1271	8	3713	72
31	0	0	1242	8	3712	73
32	0	0	1288	8	3711	73
33	0	0	1262	11	3708	73
34	0	0	1408	10	3711	73
35	0	0	1675	10	3710	72
36	0	0	1905	11	3712	71
37	0	0	2136	11	3712	71
38	0	0	2355	11	3712	71
39	0	0	2573	10	3711	72
40	0	0	2729	10	3712	69
41	0	0	2813	11	3710	72
42	0	0	2830	10	3711	54
43	0	0	3007	10	3710	73
44	0	0	2897	6	3711	73
45	0	0	2582	7	3711	72
46	0	0	2290	6	3712	72
47	0	0	1905	6	3712	71
48	0	0	1562	7	3710	74
49	0	0	1366	6	3711	72
50	0	0	1275	6	3711	73
51	0	0	1240	8	3709	75
52	0	0	1277	8	3710	73
53	0	0	1258	10	3709	72
54	0	0	1403	5	3710	73
55	0	0	1677	10	3710	72
56	0	0	1902	10	3709	73
57	0	0	2132	11	3711	71
58	0	0	2348	9	3710	73
59	0	0	2568	10	3711	72
60	0	0	2730	10	3711	73
61	0	0	2810	10	3709	75
62	0	0	2820	10	3711	71
63	0	0	2993	11	3710	72
64	0	0	2887	6	3712	71
65	0	0	2574	7	3711	73
66	0	0	2284	6	3712	73
67	0	0	1903	4	3712	69
68	0	0	1561	6	3710	72
69	0	0	1368	6	3712	71
70	0	0	1273	7	3710	71
71	0	0	1242	8	3711	73
72	0	0	1282	8	3712	71
73	0	0	1260	10	3708	73
74	0	0	1410	10	3712	71
75	0	0	1677	14	3710	72
76	0	0	1899	10	3711	72
77	0	0	2140	10	3712	71
78	0	0	2353	10	3711	73
79	0	0	2575	10	3713	71
80	0	0	2726	10	3712	71
81	0	0	2804	10	3712	71
82	0	0	2814	9	3713	71
83	0	0	2990	10	3712	69
84	0	0	2883	5	3710	72
85	0	0	2571	6	3710	71
86	0	0	2283	6	3711	73
87	0	0	1901	6	3711	73
88	0	0	1564	6	3711	73
89	0	0	1362	6	3709	71
90	0	0	1264	7	3712	71
91	0	0	1235	7	3710	71
92	0	0	1278	8	3712	69
93	0	0	1269	8	3711	71
94	0	0	1416	10	3711	73
95	0	0	1680	7	3711	72
96	0	0	1902	9	3710	75
97	0	0	2132	9	3713	70
98	0	0	2346	10	3713	70
99	0	0	2563	10	3711	72
100	0	0	2720	7	3714	72
101	0	0	2800	10	3712	68
102	0	0	2806	9	3711	72
103	0	0	2986	10	3711	72
104	0	0	2884	8	3710	73
105	0	0	2580	6	3710	75
106	0	0	2293	7	3710	72
107	0	0	1906	6	3711	71
108	0	0	1563	8	3710	72
109	0	0	1366	7	3711	73
110	0	0	1270	6	3711	73
111	0	0	1236	8	3711	73
112	0	0	1273	8	3712	72
113	0	0	1266	10	3711	72
114	0	0	1415	10	3711	73
115	0	0	1681	7	3711	72
116	0	0	1903	10	3711	73
117	0	0	2140	10	3712	72
118	0	0	2351	9	3711	71
119	0	0	2563	10	3712	71
120	0	0	2714	10	3710	73
121	0	0	2787	10	3708	75
122	0	0	2797	10	3711	76
123	0	0	2977	11	3711	73
124	0	0	2876	6	3710	73
125	0	0	2574	6	3711	73
126	0	0	2288	6	3712	71
127	0	0	1909	6	3712	72
0	0	0	1566	6	3711	72
1	0	0	1369	6	3712	71
2	0	0	1278	6	3711	73
3	0	0	1247	10	3712	72
4	0	0	1288	9	3712	72
5	0	0	1274	10	3712	71
6	0	0	1421	9	3710	73
7	0	0	1688	10	3710	73
8	0	0	1903	10	3712	69
9	0	0	2131	10	3712	68
10	0	0	2339	10	3711	73
11	0	0	2552	10	3712	69
12	0	0	2712	12	3712	72
13	0	0	2791	10	3711	73
14	0	0	2813	10	3712	71
15	0	0	2998	12	3712	73
16	0	0	2894	7	3712	71
17	0	0	2582	7	3710	71
18	0	0	2293	8	3712	73
19	0	0	1910	4	3713	72
20	0	0	1569	5	3712	70
21	0	0	1378	6	3711	74
22	0	0	1279	6	3712	71
23	0	0	1242	7	3712	69
24	0	0	1278	9	3711	76
25	0	0	1268	10	3712	71
26	0	0	1412	9	3710	73
27	0	0	1677	9	3710	73
28	0	0	1910	13	3712	71
29	0	0	2139	9	3712	70
30	0	0	2351	10	3711	71
31	0	0	2568	10	3712	69
32	0	0	2728	13	3713	72
33	0	0	2808	11	3713	72
34	0	0	2812	10	3712	74
35	0	0	2986	10	3712	71
36	0	0	2883	6	3712	71
37	0	0	2572	5	3711	73
38	0	0	2287	6	3712	68
39	0	0	1905	6	3712	74
40	0	0	1562	6	3712	71
41	0	0	1362	8	3711	73
42	0	0	1267	7	3711	71
43	0	0	1239	9	3712	72
44	0	0	1282	10	3710	72
45	0	0	1271	10	3711	72
46	0	0	1418	10	3712	70
47	0	0	1680	9	3711	72
48	0	0	1905	13	3712	71
49	0	0	2131	9	3712	73
50	0	0	2345	10	3712	70
51	0	0	2566	11	3711	72
52	0	0	2726	8	3711	72
53	0	0	2804	11	3713	68
54	0	0	2807	10	3712	70
55	0	0	2982	10	3710	72
56	0	0	2887	7	3710	72
57	0	0	2580	6	3711	71
58	0	0	2296	5	3711	72
59	0	0	1918	6	3711	75
60	0	0	1577	5	3711	72
61	0	0	1378	6	3711	71
62	0	0	1281	7	3712	69
63	0	0	1236	11	3712	72
64	0	0	1277	10	3712	72
65	0	0	1274	11	3710	72
66	0	0	1418	10	3711	72
67	0	0	1690	9	3711	73
68	0	0	1928	12	3713	72
69	0	0	2149	10	3713	71
70	0	0	2351	10	3712	71
71	0	0	2567	10	3710	72
72	0	0	2720	9	3711	73
73	0	0	2805	13	3711	72
74	0	0	2812	11	3712	71
75	0	0	2985	11	3710	72
76	0	0	2889	6	3712	71
77	0	0	2572	7	3711	74
78	0	0	2280	9	3712	73
79	0	0	1905	6	3712	71
80	0	0	1572	7	3710	73
81	0	0	1382	6	3711	73
82	0	0	1286	7	3712	72
83	0	0	1253	9	3712	71
84	0	0	1295	9	3712	73
85	0	0	1282	9	3712	71
86	0	0	1416	9	3712	71
87	0	0	1675	9	3711	72
88	0	0	1900	13	3712	71
89	0	0	2125	10	3713	71
90	0	0	2345	10	3710	74
91	0	0	2563	10	3711	73
92	0	0	2723	10	3709	73
93	0	0	2807	11	3710	72
94	0	0	2811	9	3711	71
95	0	0	2985	11	3711	71
96	0	0	2889	8	3710	73
97	0	0	2577	6	3712	69
98	0	0	2292	7	3712	73
99	0	0	1927	6	3712	71
100	0	0	1589	8	3711	72
101	0	0	1391	6	3712	71
102	0	0	1287	5	3712	71
103	0	0	1249	7	3712	71
104	0	0	1294	8	3713	71
105	0	0	1281	10	3710	73
106	0	0	1415	7	3711	72
107	0	0	1689	10	3709	72
108	0	0	1911	10	3710	72
109	0	0	2136	8	3711	75
110	0	0	2344	7	3712	68
111	0	0	2560	11	3712	71
112	0	0	2719	10	3712	72
113	0	0	2803	9	3712	69
114	0	0	2804	11	3711	73
115	0	0	2979	10	3712	71
116	0	0	2884	6	3711	73
117	0	0	2575	7	3710	74
118	0	0	2284	6	3713	71
119	0	0	1900	5	3712	71
120	0	0	1560	8	3715	71
121	0	0	1361	4	3712	72
122	0	0	1272	6	3712	72
123	0	0	1248	4	3711	73
124	0	0	1304	11	3711	70
125	0	0	1299	10	3711	73
126	0	0	1433	7	3710	73
127	0	0	1691	10	3712	72
0	0	0	1906	8	3711	72
1	0	0	2133	11	3712	68
2	0	0	2345	10	3711	71
3	0	0	2565	8	3712	71
4	0	0	2724	10	3712	72
5	0	0	2796	8	3713	72
6	0	0	2796	10	3712	66
7	0	0	2973	10	3713	71
8	0	0	2880	4	3712	71
9	0	0	2578	6	3712	72
10	0	0	2289	4	3712	72
11	0	0	1918	6	3712	68
12	0	0	1590	6	3711	72
13	0	0	1391	8	3712	71
14	0	0	1283	6	3712	71
15	0	0	1251	4	3711	73
16	0	0	1296	10	3712	71
17	0	0	1287	10	3711	73
18	0	0	1427	7	3710	73
19	0	0	1692	10	3708	74
20	0	0	1912	8	3711	73
21	0	0	2132	10	3711	72
22	0	0	2345	11	3713	70
23	0	0	2558	10	3712	71
24	0	0	2714	10	3712	71
25	0	0	2793	11	3713	71
26	0	0	2791	10	3712	72
27	0	0	2969	10	3712	72
28	0	0	2879	6	3710	72
29	0	0	2580	6	3711	76
30	0	0	2296	7	3710	74
31	0	0	1926	6	3712	71
32	0	0	1583	6	3711	72
33	0	0	1383	7	3711	73
34	0	0	1289	7	3708	75
35	0	0	1257	4	3711	73
36	0	0	1304	10	3711	74
37	0	0	1296	10	3711	74
38	0	0	1431	9	3712	71
39	0	0	1684	10	3711	71
40	0	0	1912	10	3713	71
41	0	0	2132	9	3713	68
42	0	0	2342	10	3713	70
43	0	0	2550	14	3711	72
44	0	0	2706	10	3711	73
45	0	0	2788	11	3712	75
46	0	0	2787	10	3712	71
47	0	0	2962	10	3712	71
48	0	0	2869	6	3710	73
49	0	0	2571	6	3711	76
50	0	0	2286	3	3711	72
51	0	0	1914	6	3711	74
52	0	0	1578	6	3711	72
53	0	0	1380	5	3711	72
54	0	0	1279	6	3712	72
55	0	0	1258	6	3713	71
56	0	0	1305	10	3712	72
57	0	0	1297	10	3711	72
58	0	0	1444	10	3712	71
59	0	0	1704	7	3709	74
60	0	0	1922	7	3711	72
61	0	0	2135	10	3712	71
62	0	0	2345	10	3712	71
63	0	0	2554	11	3711	72
64	0	0	2710	10	3711	76
65	0	0	2794	7	3711	72
66	0	0	2798	11	3711	74
67	0	0	2971	10	3710	72
68	0	0	2887	6	3710	73
69	0	0	2578	8	3710	73
70	0	0	2292	5	3709	75
71	0	0	1918	7	3711	72
72	0	0	1587	9	3711	71
73	0	0	1395	6	3712	72
74	0	0	1298	6	3712	71
75	0	0	1262	5	3712	71
76	0	0	1300	9	3713	72
77	0	0	1285	10	3710	76
78	0	0	1421	9	3712	71
79	0	0	1685	9	3710	72
80	0	0	1907	7	3709	74
81	0	0	2130	10	3711	73
82	0	0	2337	10	3711	72
83	0	0	2549	10	3711	74
84	0	0	2707	11	3712	68
85	0	0	2787	10	3711	71
86	0	0	2784	8	3712	68
87	0	0	2959	10	3710	74
88	0	0	2873	6	3711	73
89	0	0	2571	6	3713	70
90	0	0	2285	6	3714	72
91	0	0	1919	6	3712	71
92	0	0	1581	6	3712	72
93	0	0	1374	7	3713	71
94	0	0	1283	8	3712	72
95	0	0	1256	7	3709	74
96	0	0	1311	10	3711	74
97	0	0	1308	10	3712	72
98	0	0	1447	10	3710	73
99	0	0	1699	10	3711	71
100	0	0	1920	9	3711	71
101	0	0	2141	10	3710	74
102	0	0	2340	10	3711	71
103	0	0	2551	10	3710	73
104	0	0	2707	7	3711	72
105	0	0	2788	11	3712	68
106	0	0	2788	10	3712	71
107	0	0	2956	10	3713	71
108	0	0	2873	6	3711	73
109	0	0	2573	7	3713	69
110	0	0	2289	6	3712	71
111	0	0	1935	6	3711	73
112	0	0	1592	6	3712	71
113	0	0	1385	8	3711	73
114	0	0	1292	6	3710	72
115	0	0	1264	8	3712	71
116	0	0	1310	7	3710	73
117	0	0	1299	10	3711	73
118	0	0	1427	10	3710	72
119	0	0	1690	10	3711	73
120	0	0	1914	8	3712	70
121	0	0	2138	10	3712	71
122	0	0	2339	10	3711	74
123	0	0	2551	10	3712	72
124	0	0	2709	10	3712	68
125	0	0	2786	11	3712	72
126	0	0	2791	11	3712	74
127	0	0	2960	10	3711	72
0	0	0	2881	6	3710	72
1	0	0	2580	6	3712	72
2	0	0	2297	7	3712	70
3	0	0	1936	7	3711	72
4	0	0	1593	6	3711	72
5	0	0	1384	8	3711	73
6	0	0	1296	8	3710	73
7	0	0	1263	5	3709	75
8	0	0	1303	10	3714	74
9	0	0	1291	11	3711	72
10	0	0	1413	9	3711	73
11	0	0	1667	7	3711	72
12	0	0	1883	7	3712	71
13	0	0	2105	9	3713	71
14	0	0	2322	10	3711	75
15	0	0	2541	10	3711	72
16	0	0	2709	11	3711	73
17	0	0	2799	8	3712	71
18	0	0	2801	9	3712	72
19	0	0	2975	10	3711	73
20	0	0	2905	7	3711	73
21	0	0	2607	10	3710	70
22	0	0	2321	4	3711	73
23	0	0	1956	5	3712	74
24	0	0	1610	6	3711	74
25	0	0	1399	6	3710	73
26	0	0	1290	6	3712	72
27	0	0	1256	4	3712	71
28	0	0	1297	12	3712	71
29	0	0	1280	10	3712	74
30	0	0	1397	11	3712	71
31	0	0	1654	11	3711	73
32	0	0	1878	11	3712	72
33	0	0	2112	11	3712	74
34	0	0	2320	10	3711	74
35	0	0	2541	10	3712	71
36	0	0	2707	13	3711	70
37	0	0	2797	8	3711	73
38	0	0	2800	10	3712	74
39	0	0	2969	10	3711	75
40	0	0	2904	5	3710	72
41	0	0	2616	6	3710	72
42	0	0	2330	8	3712	72
43	0	0	1968	6	3712	71
44	0	0	1614	6	3712	73
45	0	0	1400	6	3712	71
46	0	0	1289	6	3712	72
47	0	0	1243	8	3711	76
48	0	0	1280	8	3712	71
49	0	0	1284	7	3711	75
50	0	0	1401	10	3710	73
51	0	0	1651	10	3710	71
52	0	0	1877	10	3712	68
53	0	0	2110	8	3711	73
54	0	0	2326	10	3712	72
55	0	0	2549	11	3711	72
56	0	0	2718	10	3710	71
57	0	0	2805	10	3712	73
58	0	0	2797	11	3711	72
59	0	0	2965	8	3712	71
60	0	0	2890	7	3712	71
61	0	0	2599	7	3712	72
62	0	0	2314	8	3712	71
63	0	0	1948	6	3712	71
64	0	0	1607	6	3712	69
65	0	0	1397	6	3711	73
66	0	0	1291	7	3712	72
67	0	0	1244	8	3711	76
68	0	0	1276	8	3711	72
69	0	0	1274	12	3709	74
70	0	0	1395	10	3709	73
71	0	0	1644	11	3710	73
72	0	0	1871	10	3711	76
73	0	0	2104	11	3711	73
74	0	0	2319	10	3711	75
75	0	0	2544	10	3711	72
76	0	0	2715	11	3712	71
77	0	0	2808	10	3711	76
78	0	0	2809	9	3712	72
79	0	0	2973	7	3711	74
80	0	0	2898	6	3711	73
81	0	0	2603	8	3712	71
82	0	0	2319	5	3711	75
83	0	0	1952	6	3711	73
84	0	0	1589	7	3711	71
85	0	0	1382	6	3712	72
86	0	0	1279	8	3712	72
87	0	0	1244	8	3708	78
88	0	0	1286	10	3712	71
89	0	0	1292	10	3712	71
90	0	0	1405	10	3710	73
91	0	0	1655	10	3711	71
92	0	0	1877	11	3712	71
93	0	0	2096	7	3712	71
94	0	0	2311	10	3712	71
95	0	0	2525	10	3712	71
96	0	0	2703	10	3713	69
97	0	0	2800	10	3713	71
98	0	0	2804	9	3712	71
99	0	0	2977	12	3710	72
100	0	0	2915	8	3710	73
101	0	0	2619	8	3711	73
102	0	0	2332	7	3711	72
103	0	0	1959	5	3711	74
104	0	0	1599	6	3710	71
105	0	0	1381	4	3712	71
106	0	0	1275	6	3712	71
107	0	0	1237	10	3711	73
108	0	0	1283	9	3712	72
109	0	0	1284	8	3709	71
110	0	0	1399	7	3712	71
111	0	0	1648	9	3710	75
112	0	0	1874	9	3712	69
113	0	0	2101	9	3713	71
114	0	0	2319	10	3712	69
115	0	0	2542	10	3712	72
116	0	0	2713	12	3711	73
117	0	0	2807	10	3711	75
118	0	0	2805	9	3712	72
119	0	0	2974	10	3712	72
120	0	0	2908	6	3710	73
121	0	0	2614	8	3710	73
122	0	0	2333	5	3711	72
123	0	0	1961	7	3712	71
124	0	0	1603	6	3712	72
125	0	0	1390	5	3711	73
126	0	0	1277	6	3712	70
127	0	0	1236	9	3712	71
0	0	0	1289	8	3712	71
1	0	0	1283	10	3711	72
2	0	0	1392	10	3711	73
3	0	0	1642	12	3711	73
4	0	0	1867	11	3711	72
5	0	0	2092	8	3711	74
6	0	0	2310	12	3712	67
7	0	0	2535	10	3712	71
8	0	0	2710	12	3711	72
9	0	0	2799	11	3711	72
10	0	0	2797	9	3712	71
11	0	0	2964	10	3710	72
12	0	0	2901	6	3710	73
13	0	0	2609	6	3710	71
14	0	0	2328	7	3711	72
15	0	0	1959	2	3712	71
16	0	0	1612	3	3713	72
17	0	0	1389	7	3711	73
18	0	0	1280	7	3712	71
19	0	0	1240	7	3712	69
20	0	0	1278	8	3712	71
21	0	0	1277	11	3710	74
22	0	0	1390	8	3712	71
23	0	0	1638	7	3711	72
24	0	0	1865	11	3711	72
25	0	0	2087	9	3712	71
26	0	0	2303	10	3710	72
27	0	0	2530	10	3711	72
28	0	0	2704	11	3712	68
29	0	0	2805	7	3711	72
30	0	0	2805	8	3712	71
31	0	0	2972	10	3709	76
32	0	0	2920	6	3711	73
33	0	0	2631	4	3710	73
34	0	0	2336	5	3711	73
35	0	0	1955	5	3713	71
36	0	0	1603	5	3713	72
37	0	0	1381	7	3711	73
38	0	0	1276	7	3712	71
39	0	0	1245	4	3712	71
40	0	0	1279	11	3711	73
41	0	0	1281	10	3710	72
42	0	0	1394	9	3710	73
43	0	0	1648	11	3710	72
44	0	0	1873	11	3711	72
45	0	0	2098	10	3712	71
46	0	0	2320	10	3711	63
47	0	0	2550	8	3712	72
48	0	0	2720	9	3710	71
49	0	0	2810	11	3712	71
50	0	0	2810	10	3712	71
51	0	0	2978	10	3711	72
52	0	0	2918	6	3711	72
53	0	0	2625	6	3712	71
54	0	0	2336	5	3711	74
55	0	0	1970	7	3710	72
56	0	0	1613	7	3711	74
57	0	0	1394	6	3711	73
58	0	0	1287	6	3710	73
59	0	0	1244	8	3711	74
60	0	0	1282	10	3711	72
61	0	0	1282	10	3710	74
62	0	0	1391	11	3712	71
63	0	0	1638	7	3709	74
64	0	0	1866	9	3711	74
65	0	0	2094	10	3712	71
66	0	0	2308	10	3711	71
67	0	0	2532	10	3711	73
68	0	0	2713	11	3712	68
69	0	0	2810	8	3712	74
70	0	0	2815	10	3712	72
71	0	0	2977	10	3709	76
72	0	0	2912	6	3710	73
73	0	0	2620	5	3710	73
74	0	0	2320	5	3710	74
75	0	0	1953	6	3711	73
76	0	0	1604	6	3712	71
77	0	0	1385	6	3712	72
78	0	0	1277	7	3711	72
79	0	0	1248	9	3711	71
80	0	0	1288	11	3711	73
81	0	0	1295	10	3710	75
82	0	0	1401	10	3712	71
83	0	0	1646	12	3711	72
84	0	0	1870	12	3712	71
85	0	0	2098	11	3713	71
86	0	0	2314	10	3712	71
87	0	0	2549	13	3713	69
88	0	0	2723	11	3712	72
89	0	0	2814	8	3712	73
90	0	0	2813	13	3711	72
91	0	0	2974	11	3710	71
92	0	0	2912	6	3710	73
93	0	0	2623	6	3710	76
94	0	0	2329	4	3710	72
95	0	0	1956	7	3711	73
96	0	0	1606	6	3711	71
97	0	0	1385	6	3711	73
98	0	0	1280	8	3712	72
99	0	0	1237	7	3712	72
100	0	0	1268	11	3712	71
101	0	0	1271	9	3712	71
102	0	0	1387	10	3711	72
103	0	0	1640	7	3712	71
104	0	0	1864	9	3712	73
105	0	0	2091	13	3711	73
106	0	0	2307	10	3711	71
107	0	0	2530	10	3711	73
108	0	0	2705	10	3710	73
109	0	0	2802	10	3712	71
110	0	0	2804	10	3711	72
111	0	0	2972	10	3710	71
112	0	0	2920	9	3712	71
113	0	0	2626	6	3712	69
114	0	0	2322	7	3711	71
115	0	0	1958	7	3712	72
116	0	0	1617	6	3711	69
117	0	0	1396	6	3714	74
118	0	0	1288	8	3712	76
119	0	0	1242	5	3712	74
120	0	0	1274	11	3712	71
121	0	0	1279	9	3712	71
122	0	0	1389	10	3710	72
123	0	0	1639	9	3710	71
124	0	0	1865	11	3710	73
125	0	0	2092	11	3712	70
126	0	0	2315	10	3711	74
127	0	0	2538	15	3710	72
0	0	0	2711	10	3711	76
1	0	0	2805	9	3711	76
2	0	0	2806	9	3712	71
3	0	0	2969	10	3710	69
4	0	0	2916	6	3711	73
5	0	0	2627	4	3712	71
6	0	0	2338	4	3711	73
7	0	0	1976	6	3712	71
8	0	0	1620	6	3711	71
9	0	0	1400	6	3711	73
10	0	0	1290	5	3712	71
11	0	0	1242	8	3711	74
12	0	0	1276	8	3713	72
13	0	0	1280	10	3710	72
14	0	0	1383	11	3712	71
15	0	0	1633	10	3711	72
16	0	0	1857	12	3712	70
17	0	0	2085	8	3712	72
18	0	0	2307	9	3711	69
19	0	0	2543	11	3712	71
20	0	0	2715	10	3712	72
21	0	0	2811	8	3713	71
22	0	0	2809	8	3712	71
23	0	0	2972	10	3711	72
24	0	0	2914	7	3712	71
25	0	0	2610	6	3712	75
26	0	0	2324	8	3710	72
27	0	0	1962	4	3712	72
28	0	0	1607	6	3713	71
29	0	0	1390	6	3709	72
30	0	0	1286	6	3711	73
31	0	0	1241	7	3712	70
32	0	0	1272	9	3711	74
33	0	0	1276	10	3711	71
34	0	0	1388	10	3710	72
35	0	0	1641	10	3711	73
36	0	0	1862	10	3712	71
37	0	0	2087	8	3711	72
38	0	0	2304	10	3713	71
39	0	0	2528	10	3711	72
40	0	0	2704	10	3712	70
41	0	0	2804	11	3713	72
42	0	0	2806	9	3712	70
43	0	0	2970	10	3710	72
44	0	0	2919	8	3711	73
45	0	0	2631	7	3708	75
46	0	0	2345	5	3709	72
47	0	0	1980	7	3712	71
48	0	0	1614	6	3710	72
49	0	0	1385	5	3711	73
50	0	0	1275	6	3713	70
51	0	0	1231	7	3709	72
52	0	0	1275	8	3712	71
53	0	0	1285	10	3711	72
54	0	0	1390	8	3711	72
55	0	0	1633	9	3711	75
56	0	0	1859	12	3712	71
57	0	0	2086	9	3712	71
58	0	0	2307	11	3713	71
59	0	0	2533	9	3711	73
60	0	0	2707	9	3711	71
61	0	0	2806	10	3709	72
62	0	0	2808	9	3712	72
63	0	0	2968	10	3710	73
64	0	0	2914	6	3711	72
65	0	0	2616	6	3712	71
66	0	0	2327	5	3709	72
67	0	0	1972	6	3711	74
68	0	0	1614	6	3710	72
69	0	0	1400	6	3712	68
70	0	0	1291	4	3711	73
71	0	0	1243	7	3711	72
72	0	0	1273	8	3712	72
73	0	0	1272	11	3711	72
74	0	0	1378	10	3711	73
75	0	0	1631	8	3712	71
76	0	0	1858	11	3709	72
77	0	0	2075	11	3710	73
78	0	0	2294	10	3711	72
79	0	0	2525	10	3710	73
80	0	0	2710	10	3710	71
81	0	0	2807	11	3711	73
82	0	0	2811	10	3711	73
83	0	0	2972	10	3710	72
84	0	0	2924	7	3712	71
85	0	0	2626	5	3709	71
86	0	0	2334	5	3709	72
87	0	0	1977	6	3712	71
88	0	0	1620	6	3712	71
89	0	0	1390	5	3712	72
90	0	0	1271	7	3712	72
91	0	0	1214	7	3714	72
92	0	0	1241	10	3712	71
93	0	0	1244	10	3711	72
94	0	0	1350	8	3711	72
95	0	0	1607	9	3711	72
96	0	0	1840	11	3711	73
97	0	0	2068	13	3711	72
98	0	0	2290	10	3710	73
99	0	0	2524	8	3711	72
100	0	0	2697	10	3711	73
101	0	0	2796	10	3712	70
102	0	0	2795	11	3711	73
103	0	0	2953	10	3712	71
104	0	0	2894	7	3712	71
105	0	0	2605	7	3711	71
106	0	0	2323	6	3712	72
107	0	0	1969	9	3712	71
108	0	0	1611	6	3712	71
109	0	0	1395	6	3712	71
110	0	0	1285	5	3711	73
111	0	0	1232	7	3712	72
112	0	0	1255	13	3711	73
113	0	0	1258	10	3712	72
114	0	0	1361	9	3710	73
115	0	0	1611	10	3710	74
116	0	0	1841	10	3713	72
117	0	0	2066	11	3711	72
118	0	0	2287	10	3713	72
119	0	0	2510	11	3711	73
120	0	0	2691	9	3712	71
121	0	0	2788	11	3713	74
122	0	0	2790	15	3712	71
123	0	0	2949	10	3711	72
124	0	0	2905	6	3711	72
125	0	0	2613	10	3711	73
126	0	0	2323	7	3712	74
127	0	0	1959	7	3712	72
0	0	0	1602	7	3711	72
1	0	0	1373	6	3710	73
2	0	0	1254	8	3710	73
3	0	0	1205	7	3712	71
4	0	0	1237	9	3711	73
5	0	0	1238	11	3710	74
6	0	0	1344	7	3712	71
7	0	0	1584	13	3711	74
8	0	0	1816	9	3711	74
9	0	0	2049	13	3711	73
10	0	0	2268	10	3711	73
11	0	0	2495	10	3711	73
12	0	0	2675	11	3712	72
13	0	0	2774	10	3712	71
14	0	0	2774	11	3712	71
15	0	0	2925	10	3711	72
16	0	0	2868	6	3710	72
17	0	0	2589	7	3709	72
18	0	0	2302	8	3712	71
19	0	0	1942	7	3709	72
20	0	0	1592	6	3711	72
21	0	0	1368	5	3711	73
22	0	0	1253	6	3711	74
23	0	0	1206	6	3712	71
24	0	0	1239	16	3711	73
25	0	0	1247	10	3710	73
26	0	0	1353	8	3711	73
27	0	0	1595	11	3712	71
28	0	0	1820	10	3714	75
29	0	0	2041	11	3713	72
30	0	0	2268	11	3712	71
31	0	0	2494	8	3713	71
32	0	0	2673	9	3714	72
33	0	0	2773	11	3712	74
34	0	0	2776	8	3711	72
35	0	0	2936	10	3710	73
36	0	0	2897	6	3710	72
37	0	0	2615	5	3710	71
38	0	0	2324	6	3712	71
39	0	0	1960	5	3712	72
40	0	0	1598	6	3711	72
41	0	0	1369	6	3711	73
42	0	0	1254	6	3712	73
43	0	0	1205	7	3713	71
44	0	0	1236	11	3712	72
45	0	0	1243	11	3711	72
46	0	0	1346	8	3712	71
47	0	0	1596	10	3711	73
48	0	0	1827	8	3713	71
49	0	0	2057	9	3711	73
50	0	0	2286	10	3709	74
51	0	0	2519	11	3711	73
52	0	0	2698	12	3711	75
53	0	0	2791	12	3712	71
54	0	0	2792	12	3709	72
55	0	0	2931	10	3709	71
56	0	0	2895	6	3710	73
57	0	0	2613	7	3709	72
58	0	0	2321	7	3712	71
59	0	0	1963	5	3712	71
60	0	0	1618	6	3713	71
61	0	0	1397	4	3712	71
62	0	0	1274	6	3712	71
63	0	0	1226	3	3713	71
64	0	0	1256	9	3712	71
65	0	0	1255	10	3711	73
66	0	0	1365	7	3712	71
67	0	0	1615	9	3712	72
68	0	0	1844	9	3710	72
69	0	0	2070	10	3711	73
70	0	0	2290	10	3710	73
71	0	0	2518	10	3711	72
72	0	0	2696	9	3712	72
73	0	0	2797	11	3712	71
74	0	0	2807	9	3710	72
75	0	0	2969	10	3712	71
76	0	0	2930	7	3710	72
77	0	0	2643	6	3711	71
78	0	0	2355	4	3712	71
79	0	0	2005	8	3710	74
80	0	0	1643	6	3711	73
81	0	0	1408	6	3711	73
82	0	0	1289	6	3712	72
83	0	0	1245	7	3711	71
84	0	0	1277	8	3711	73
85	0	0	1276	10	3710	73
86	0	0	1382	10	3710	72
87	0	0	1629	9	3712	71
88	0	0	1864	12	3710	71
89	0	0	2091	10	3711	73
90	0	0	2316	9	3711	73
91	0	0	2546	10	3711	73
92	0	0	2727	8	3712	72
93	0	0	2829	11	3710	73
94	0	0	2828	8	3711	73
95	0	0	2977	14	3712	71
96	0	0	2949	6	3711	73
97	0	0	2663	5	3712	72
98	0	0	2364	7	3712	71
99	0	0	2013	6	3712	71
100	0	0	1655	6	3712	71
101	0	0	1424	6	3711	75
102	0	0	1308	6	3712	72
103	0	0	1261	7	3711	73
104	0	0	1296	9	3712	71
105	0	0	1309	11	3710	73
106	0	0	1405	8	3712	71
107	0	0	1650	9	3712	70
108	0	0	1885	9	3711	72
109	0	0	2107	9	3713	71
110	0	0	2323	10	3711	72
111	0	0	2552	9	3714	71
112	0	0	2733	9	3714	75
113	0	0	2832	9	3713	72
114	0	0	2837	10	3713	71
115	0	0	2994	10	3711	73
116	0	0	2955	6	3712	71
117	0	0	2668	4	3710	72
118	0	0	2380	6	3710	71
119	0	0	2019	4	3711	74
120	0	0	1654	6	3712	71
121	0	0	1419	8	3710	73
122	0	0	1302	5	3710	73
123	0	0	1262	6	3711	74
124	0	0	1295	11	3711	73
125	0	0	1307	9	3712	71
126	0	0	1405	9	3712	71
127	0	0	1646	10	3712	68
0	0	0	1875	9	3711	73
1	0	0	2100	12	3712	72
2	0	0	2311	10	3712	71
3	0	0	2536	10	3712	71
4	0	0	2720	8	3712	70
5	0	0	2824	10	3711	73
6	0	0	2829	11	3710	72
7	0	0	2992	11	3710	71
8	0	0	2964	7	3710	73
9	0	0	2682	6	3710	74
10	0	0	2388	5	3711	74
11	0	0	2041	7	3712	71
12	0	0	1671	6	3711	73
13	0	0	1427	4	3712	72
14	0	0	1307	6	3712	71
15	0	0	1254	7	3711	73
16	0	0	1290	7	3711	73
17	0	0	1303	10	3711	73
18	0	0	1402	10	3711	72
19	0	0	1643	7	3711	72
20	0	0	1874	11	3710	72
21	0	0	2103	11	3712	71
22	0	0	2316	10	3711	73
23	0	0	2544	10	3711	75
24	0	0	2722	9	3712	72
25	0	0	2823	10	3710	70
26	0	0	2829	7	3711	73
27	0	0	2993	10	3711	72
28	0	0	2963	3	3711	73
29	0	0	2681	6	3710	74
30	0	0	2387	3	3712	71
31	0	0	2036	7	3711	73
32	0	0	1670	6	3711	73
33	0	0	1437	8	3711	73
34	0	0	1313	6	3712	71
35	0	0	1262	7	3713	71
36	0	0	1285	7	3712	71
37	0	0	1294	10	3711	74
38	0	0	1388	10	3710	73
39	0	0	1625	11	3710	72
40	0	0	1861	10	3710	72
41	0	0	2088	7	3710	73
42	0	0	2311	10	3712	71
43	0	0	2535	8	3710	73
44	0	0	2717	11	3711	73
45	0	0	2816	11	3711	73
46	0	0	2819	11	3712	67
47	0	0	2976	10	3711	75
48	0	0	2947	6	3712	71
49	0	0	2661	5	3711	72
50	0	0	2375	6	3711	72
51	0	0	2014	3	3713	71
52	0	0	1642	6	3712	71
53	0	0	1410	6	3711	73
54	0	0	1291	5	3712	72
55	0	0	1238	7	3710	72
56	0	0	1268	8	3711	72
57	0	0	1279	10	3712	72
58	0	0	1375	10	3710	73
59	0	0	1619	10	3711	72
60	0	0	1839	8	3707	71
61	0	0	2069	8	3712	72
62	0	0	2293	10	3712	71
63	0	0	2517	9	3711	73
64	0	0	2698	10	3712	71
65	0	0	2801	10	3713	71
66	0	0	2813	7	3712	72
67	0	0	2967	10	3711	73
68	0	0	2938	10	3711	72
69	0	0	2659	7	3710	72
70	0	0	2367	6	3709	74
71	0	0	2011	6	3712	72
72	0	0	1640	6	3711	73
73	0	0	1398	6	3712	71
74	0	0	1279	4	3712	71
75	0	0	1217	5	3712	72
76	0	0	1243	7	3710	73
77	0	0	1252	10	3710	74
78	0	0	1346	10	3710	72
79	0	0	1593	7	3711	71
80	0	0	1824	8	3711	72
81	0	0	2055	8	3711	74
82	0	0	2269	9	3711	73
83	0	0	2493	10	3711	73
84	0	0	2675	10	3712	71
85	0	0	2771	10	3715	71
86	0	0	2771	3	3713	70
87	0	0	2932	10	3712	71
88	0	0	2902	7	3712	72
89	0	0	2619	4	3710	73
90	0	0	2341	6	3712	72
91	0	0	1992	4	3711	73
92	0	0	1622	7	3710	73
93	0	0	1378	7	3710	73
94	0	0	1253	8	3711	72
95	0	0	1198	6	3709	73
96	0	0	1227	9	3712	72
97	0	0	1234	9	3711	73
98	0	0	1327	7	3711	72
99	0	0	1574	8	3712	71
100	0	0	1810	8	3712	71
101	0	0	2041	10	3714	71
102	0	0	2252	10	3711	72
103	0	0	2474	10	3711	72
104	0	0	2657	11	3710	72
105	0	0	2761	9	3712	71
106	0	0	2779	10	3712	71
107	0	0	2935	10	3711	73
108	0	0	2900	8	3710	73
109	0	0	2624	6	3711	71
110	0	0	2332	7	3712	71
111	0	0	1977	4	3712	72
112	0	0	1614	5	3711	73
113	0	0	1374	7	3710	72
114	0	0	1251	8	3711	72
115	0	0	1204	6	3710	74
116	0	0	1234	10	3712	71
117	0	0	1244	9	3711	74
118	0	0	1336	10	3712	71
119	0	0	1579	10	3711	72
120	0	0	1809	10	3712	72
121	0	0	2033	8	3711	73
122	0	0	2249	9	3710	73
123	0	0	2474	10	3713	71
124	0	0	2657	10	3710	73
125	0	0	2749	11	3712	73
126	0	0	2760	10	3711	73
127	0	0	2913	10	3710	72
0	0	0	2887	7	3710	73
1	0	0	2621	8	3710	71
2	0	0	2335	6	3711	74
3	0	0	1978	4	3712	71
4	0	0	1615	6	3711	73
5	0	0	1376	6	3712	70
6	0	0	1258	8	3713	72
7	0	0	1209	7	3712	71
8	0	0	1236	10	3712	71
9	0	0	1251	10	3711	73
10	0	0	1349	5	3708	74
11	0	0	1588	12	3710	73
12	0	0	1819	10	3710	73
13	0	0	2041	8	3712	71
14	0	0	2260	10	3710	72
15	0	0	2488	9	3712	72
16	0	0	2674	10	3711	73
17	0	0	2777	10	3709	73
18	0	0	2790	10	3711	73
19	0	0	2935	7	3710	72
20	0	0	2910	7	3711	73
21	0	0	2639	6	3712	71
22	0	0	2351	7	3710	73
23	0	0	2002	6	3712	71
24	0	0	1642	6	3711	73
25	0	0	1413	6	3711	73
26	0	0	1297	8	3712	72
27	0	0	1244	5	3712	73
28	0	0	1265	10	3711	73
29	0	0	1271	9	3711	71
30	0	0	1367	10	3710	73
31	0	0	1609	10	3712	71
32	0	0	1835	10	3710	73
33	0	0	2059	8	3712	72
34	0	0	2280	11	3711	73
35	0	0	2508	10	3711	73
36	0	0	2686	10	3712	72
37	0	0	2787	7	3712	71
38	0	0	2800	10	3711	72
39	0	0	2946	8	3710	73
40	0	0	2923	6	3711	73
41	0	0	2665	8	3712	72
42	0	0	2385	6	3711	49
43	0	0	2037	6	3712	71
44	0	0	1677	6	3711	72
45	0	0	1441	6	3711	74
46	0	0	1321	6	3712	73
47	0	0	1269	7	3711	74
48	0	0	1296	9	3712	71
49	0	0	1303	10	3710	73
50	0	0	1399	8	3710	72
51	0	0	1644	10	3712	71
52	0	0	1881	9	3712	72
53	0	0	2106	10	3712	71
54	0	0	2316	10	3711	73
55	0	0	2538	8	3713	71
56	0	0	2721	9	3712	69
57	0	0	2822	8	3713	71
58	0	0	2833	10	3713	71
59	0	0	2984	11	3711	73
60	0	0	2964	7	3710	72
61	0	0	2696	5	3709	73
62	0	0	2404	6	3711	73
63	0	0	2062	5	3712	71
64	0	0	1710	6	3711	73
65	0	0	1480	4	3711	72
66	0	0	1360	8	3710	71
67	0	0	1305	7	3713	71
68	0	0	1328	9	3711	73
69	0	0	1337	11	3711	74
70	0	0	1429	11	3711	72
71	0	0	1666	10	3712	71
72	0	0	1900	9	3711	73
73	0	0	2118	10	3713	71
74	0	0	2331	10	3713	70
75	0	0	2560	8	3711	73
76	0	0	2727	11	3711	72
77	0	0	2831	10	3712	70
78	0	0	2846	12	3711	71
79	0	0	2997	11	3718	71
80	0	0	2994	6	3712	72
81	0	0	2727	5	3710	74
82	0	0	2440	6	3710	72
83	0	0	2094	6	3711	73
84	0	0	1740	6	3711	73
85	0	0	1506	5	3712	73
86	0	0	1389	6	3712	73
87	0	0	1338	7	3711	72
88	0	0	1364	11	3711	74
89	0	0	1377	10	3712	71
90	0	0	1473	9	3712	71
91	0	0	1709	10	3712	71
92	0	0	1937	10	3712	70
93	0	0	2160	10	3711	73
94	0	0	2371	10	3711	73
95	0	0	2600	10	3711	73
96	0	0	2785	14	3710	72
97	0	0	2899	10	3711	73
98	0	0	2917	11	3711	72
99	0	0	3077	10	3710	73
100	0	0	3065	7	3710	73
101	0	0	2797	5	3711	73
102	0	0	2514	6	3711	72
103	0	0	2172	6	3711	73
104	0	0	1807	6	3713	71
105	0	0	1578	6	3711	73
106	0	0	1461	7	3712	72
107	0	0	1417	7	3713	71
108	0	0	1442	10	3713	71
109	0	0	1472	10	3712	71
110	0	0	1573	7	3710	73
111	0	0	1813	10	3712	72
112	0	0	2068	9	3710	70
113	0	0	2308	11	3710	74
114	0	0	2540	10	3711	73
115	0	0	2781	11	3710	72
116	0	0	2989	7	3710	73
117	0	0	3135	11	3712	70
118	0	0	3157	10	3711	72
119	0	0	3250	16	3710	73
120	0	0	3111	6	3711	73
121	0	0	2703	6	3712	71
122	0	0	2342	6	3712	69
123	0	0	1973	6	3713	71
124	0	0	1598	6	3712	72
125	0	0	1349	6	3713	72
126	0	0	1217	6	3712	71
127	0	0	1153	6	3711	71
0	0	0	1173	10	3712	71
1	0	0	1179	9	3710	73
2	0	0	1273	9	3710	73
3	0	0	1515	9	3709	73
4	0	0	1753	10	3711	70
5	0	0	1976	10	3711	73
6	0	0	2195	10	3712	72
7	0	0	2425	9	3711	73
8	0	0	2616	7	3711	72
9	0	0	2732	11	3712	69
10	0	0	2748	12	3713	71
11	0	0	2905	10	3712	71
12	0	0	2895	7	3709	75
13	0	0	2619	6	3712	71
14	0	0	2339	7	3714	71
15	0	0	1989	6	3712	72
16	0	0	1619	6	3711	73
17	0	0	1368	6	3710	73
18	0	0	1241	5	3711	72
19	0	0	1182	6	3710	71
20	0	0	1200	9	3711	73
21	0	0	1204	9	3710	74
22	0	0	1304	11	3709	72
23	0	0	1550	7	3710	73
24	0	0	1799	9	3709	74
25	0	0	2021	12	3712	72
26	0	0	2244	10	3712	70
27	0	0	2471	11	3713	71
28	0	0	2668	9	3713	70
29	0	0	2786	11	3710	70
30	0	0	2806	11	3715	72
31	0	0	2971	10	3711	71
32	0	0	2966	7	3708	75
33	0	0	2675	7	3711	73
34	0	0	2380	6	3710	72
35	0	0	2018	7	3712	71
36	0	0	1635	6	3710	73
37	0	0	1385	6	3710	73
38	0	0	1261	4	3711	72
39	0	0	1207	7	3712	72
40	0	0	1230	9	3712	71
41	0	0	1241	9	3712	71
42	0	0	1337	12	3711	74
43	0	0	1589	10	3712	72
44	0	0	1835	10	3712	71
45	0	0	2068	10	3713	71
46	0	0	2288	10	3712	72
47	0	0	2522	10	3709	75
48	0	0	2712	10	3712	71
49	0	0	2830	10	3709	74
50	0	0	2846	11	3712	72
51	0	0	3004	10	3710	73
52	0	0	2998	7	3710	72
53	0	0	2715	6	3712	71
54	0	0	2410	6	3712	74
55	0	0	2051	7	3713	71
56	0	0	1667	6	3711	73
57	0	0	1417	6	3711	73
58	0	0	1292	6	3712	71
59	0	0	1247	8	3713	71
60	0	0	1275	10	3713	71
61	0	0	1287	10	3713	72
62	0	0	1390	8	3712	71
63	0	0	1637	10	3712	71
64	0	0	1886	10	3712	70
65	0	0	2127	10	3712	70
66	0	0	2354	12	3711	73
67	0	0	2595	12	3711	72
68	0	0	2798	10	3712	72
69	0	0	2915	11	3709	74
70	0	0	2927	11	3712	70
71	0	0	3097	11	3710	72
72	0	0	3092	8	3712	71
73	0	0	2813	6	3711	76
74	0	0	2507	6	3711	71
75	0	0	2149	6	3710	74
76	0	0	1747	6	3712	72
77	0	0	1481	7	3712	71
78	0	0	1347	7	3712	71
79	0	0	1286	7	3713	71
80	0	0	1308	10	3712	72
81	0	0	1330	10	3710	73
82	0	0	1418	10	3712	72
83	0	0	1671	8	3711	72
84	0	0	1918	10	3712	70
85	0	0	2148	10	3708	73
86	0	0	2371	9	3712	71
87	0	0	2612	10	3712	71
88	0	0	2818	9	3712	71
89	0	0	2937	10	3712	69
90	0	0	2958	10	3710	72
91	0	0	3122	10	3711	73
92	0	0	3118	7	3711	73
93	0	0	2819	7	3711	73
94	0	0	2506	6	3710	75
95	0	0	2129	9	3714	71
96	0	0	1736	6	3713	71
97	0	0	1467	6	3710	73
98	0	0	1317	4	3711	72
99	0	0	1245	7	3710	73
100	0	0	1260	10	3709	73
101	0	0	1263	8	3707	73
102	0	0	1349	11	3710	73
103	0	0	1596	10	3709	74
104	0	0	1835	9	3709	74
105	0	0	2064	12	3709	74
106	0	0	2290	10	3711	73
107	0	0	2538	11	3712	71
108	0	0	2744	8	3712	72
109	0	0	2852	8	3707	73
110	0	0	2871	10	3711	71
111	0	0	3032	7	3712	71
112	0	0	3009	7	3711	73
113	0	0	2705	6	3709	75
114	0	0	2380	6	3710	74
115	0	0	2007	8	3710	73
116	0	0	1612	5	3711	73
117	0	0	1347	7	3711	73
118	0	0	1204	6	3712	72
119	0	0	1138	5	3711	71
120	0	0	1152	12	3708	73
121	0	0	1160	9	3711	74
122	0	0	1259	10	3709	72
123	0	0	1512	10	3711	73
124	0	0	1773	10	3712	71
125	0	0	2013	10	3709	72
126	0	0	2254	10	3713	71
127	0	0	2502	11	3712	72
0	0	0	2708	10	3712	71
1	0	0	2826	10	3714	71
2	0	0	2839	10	3711	73
3	0	0	3006	9	3712	71
4	0	0	3000	6	3712	71
5	0	0	2711	5	3711	73
6	0	0	2390	6	3708	72
7	0	0	2007	6	3709	69
8	0	0	1599	7	3710	71
9	0	0	1325	7	3712	71
10	0	0	1184	6	3709	75
11	0	0	1118	5	3711	71
12	0	0	1138	9	3711	74
13	0	0	1148	8	3711	73
14	0	0	1248	10	3712	71
15	0	0	1504	10	3708	74
16	0	0	1764	10	3713	69
17	0	0	2008	12	3708	73
18	0	0	2249	10	3712	71
19	0	0	2509	11	3714	72
20	0	0	2723	11	3712	75
21	0	0	2844	15	3711	71
22	0	0	2876	11	3712	71
23	0	0	3038	10	3710	76
24	0	0	3029	6	3711	72
25	0	0	2727	6	3709	72
26	0	0	2399	6	3711	71
27	0	0	2015	6	3711	74
28	0	0	1599	6	3711	74
29	0	0	1328	6	3711	73
30	0	0	1176	6	3710	72
31	0	0	1109	6	3712	71
32	0	0	1124	13	3711	72
33	0	0	1137	9	3711	72
34	0	0	1241	10	3711	73
35	0	0	1495	10	3711	73
36	0	0	1761	10	3713	72
37	0	0	2009	10	3711	71
38	0	0	2266	9	3712	71
39	0	0	2522	13	3710	72
40	0	0	2742	10	3710	72
41	0	0	2867	10	3712	71
42	0	0	2888	9	3711	72
43	0	0	3061	10	3710	73
44	0	0	3066	8	3710	73
45	0	0	2757	6	3710	72
46	0	0	2421	6	3712	68
47	0	0	2027	6	3711	73
48	0	0	1602	6	3711	74
49	0	0	1325	6	3711	73
50	0	0	1177	6	3712	71
51	0	0	1108	7	3714	72
52	0	0	1124	10	3712	71
53	0	0	1130	8	3712	71
54	0	0	1228	13	3710	73
55	0	0	1497	10	3709	72
56	0	0	1759	10	3711	76
57	0	0	2011	10	3711	72
58	0	0	2267	10	3710	73
59	0	0	2530	7	3711	72
60	0	0	2754	10	3707	73
61	0	0	2897	9	3710	72
62	0	0	2929	10	3711	72
63	0	0	3100	12	3707	73
64	0	0	3103	6	3711	73
65	0	0	2786	6	3708	75
66	0	0	2449	6	3713	72
67	0	0	2057	5	3712	73
68	0	0	1617	6	3712	71
69	0	0	1328	3	3713	72
70	0	0	1173	6	3712	71
71	0	0	1099	6	3711	73
72	0	0	1118	9	3711	72
73	0	0	1126	7	3710	73
74	0	0	1224	10	3710	73
75	0	0	1494	11	3709	72
76	0	0	1762	10	3710	72
77	0	0	2022	10	3712	70
78	0	0	2280	10	3711	73
79	0	0	2554	9	3711	72
80	0	0	2780	11	3712	68
81	0	0	2918	10	3712	70
82	0	0	2945	10	3712	70
83	0	0	3117	10	3712	71
84	0	0	3123	11	3711	72
85	0	0	2812	7	3712	71
86	0	0	2463	6	3712	74
87	0	0	2063	8	3709	76
88	0	0	1616	8	3710	73
89	0	0	1319	5	3710	73
90	0	0	1163	7	3712	68
91	0	0	1093	5	3712	72
92	0	0	1109	10	3712	70
93	0	0	1116	8	3710	73
94	0	0	1215	10	3709	74
95	0	0	1487	10	3712	69
96	0	0	1758	8	3712	69
97	0	0	2009	11	3712	71
98	0	0	2276	9	3712	72
99	0	0	2560	8	3713	71
100	0	0	2797	9	3713	75
101	0	0	2949	8	3713	74
102	0	0	2973	9	3713	71
103	0	0	3150	10	3710	75
104	0	0	3156	7	3710	71
105	0	0	2836	6	3711	74
106	0	0	2481	5	3711	76
107	0	0	2075	6	3709	73
108	0	0	1623	6	3710	73
109	0	0	1324	3	3711	72
110	0	0	1159	7	3712	68
111	0	0	1084	7	3710	74
112	0	0	1094	10	3712	71
113	0	0	1102	8	3712	72
114	0	0	1201	10	3712	71
115	0	0	1472	11	3712	71
116	0	0	1758	10	3712	72
117	0	0	2024	10	3713	71
118	0	0	2298	10	3712	67
119	0	0	2583	11	3711	71
120	0	0	2818	11	3712	72
121	0	0	2954	11	3711	74
122	0	0	2968	11	3712	71
123	0	0	3129	10	3710	73
124	0	0	3133	5	3710	73
125	0	0	2821	9	3712	72
126	0	0	2466	7	3710	75
127	0	0	2064	5	3712	71
0	0	0	1602	6	3711	73
1	0	0	1283	5	3711	73
2	0	0	1112	8	3712	72
3	0	0	1035	7	3713	71
4	0	0	1049	10	3712	71
5	0	0	1061	9	3713	72
6	0	0	1161	11	3712	72
7	0	0	1435	13	3712	71
8	0	0	1708	9	3711	73
9	0	0	1968	12	3711	73
10	0	0	2246	11	3711	72
11	0	0	2533	9	3711	72
12	0	0	2787	12	3712	72
13	0	0	2936	10	3712	71
14	0	0	2957	10	3708	73
15	0	0	3128	12	3710	72
16	0	0	3136	7	3710	73
17	0	0	2814	8	3712	71
18	0	0	2449	6	3711	75
19	0	0	2021	5	3712	72
20	0	0	1563	7	3711	73
21	0	0	1251	5	3712	71
22	0	0	1081	10	3712	72
23	0	0	1004	6	3713	71
24	0	0	1015	10	3710	73
25	0	0	1028	8	3712	71
26	0	0	1126	11	3711	75
27	0	0	1404	11	3710	73
28	0	0	1693	9	3710	71
29	0	0	1964	11	3712	71
30	0	0	2235	8	3712	71
31	0	0	2525	10	3712	72
32	0	0	2776	9	3712	72
33	0	0	2924	11	3711	73
34	0	0	2960	10	3710	73
35	0	0	3154	11	3710	73
36	0	0	3176	7	3710	73
37	0	0	2853	6	3709	73
38	0	0	2486	6	3712	71
39	0	0	2059	6	3710	71
40	0	0	1583	4	3712	72
41	0	0	1244	7	3712	71
42	0	0	1058	7	3712	72
43	0	0	977	7	3711	68
44	0	0	992	10	3711	73
45	0	0	1016	5	3712	71
46	0	0	1120	15	3709	73
47	0	0	1392	8	3711	73
48	0	0	1697	10	3711	69
49	0	0	1983	10	3710	73
50	0	0	2268	8	3711	73
51	0	0	2565	10	3712	70
52	0	0	2833	11	3712	71
53	0	0	2999	11	3712	67
54	0	0	3037	10	3711	73
55	0	0	3231	8	3712	71
56	0	0	3252	9	3712	71
57	0	0	2929	4	3711	73
58	0	0	2562	5	3711	69
59	0	0	2139	6	3711	73
60	0	0	1655	5	3712	71
61	0	0	1330	6	3712	72
62	0	0	1144	5	3711	72
63	0	0	1056	7	3711	75
64	0	0	1061	11	3711	73
65	0	0	1067	8	3710	73
66	0	0	1169	10	3710	74
67	0	0	1465	10	3712	71
68	0	0	1781	10	3710	74
69	0	0	2080	9	3712	72
70	0	0	2373	10	3711	73
71	0	0	2683	11	3711	74
72	0	0	2955	10	3713	71
73	0	0	3114	10	3713	73
74	0	0	3150	10	3712	70
75	0	0	3339	10	3710	73
76	0	0	3373	6	3712	72
77	0	0	3054	6	3709	73
78	0	0	2683	6	3711	72
79	0	0	2253	6	3711	74
80	0	0	1758	3	3712	72
81	0	0	1413	6	3710	74
82	0	0	1220	7	3712	71
83	0	0	1128	6	3711	73
84	0	0	1138	10	3711	72
85	0	0	1152	8	3710	73
86	0	0	1241	10	3712	72
87	0	0	1534	9	3711	72
88	0	0	1851	9	3712	68
89	0	0	2150	10	3713	71
90	0	0	2456	10	3713	71
91	0	0	2789	9	3711	74
92	0	0	3076	7	3711	72
93	0	0	3260	10	3711	72
94	0	0	3314	11	3712	70
95	0	0	3527	10	3710	75
96	0	0	3571	6	3710	74
97	0	0	3216	4	3711	72
98	0	0	2783	6	3711	72
99	0	0	2282	4	3711	72
100	0	0	1718	6	3711	73
101	0	0	1311	6	3712	72
102	0	0	1080	4	3713	72
103	0	0	963	6	3711	68
104	0	0	966	10	3711	73
105	0	0	966	7	3711	73
106	0	0	1064	10	3711	73
107	0	0	1370	10	3710	75
108	0	0	1685	9	3711	72
109	0	0	1996	10	3711	70
110	0	0	2305	10	3712	71
111	0	0	2634	9	3711	73
112	0	0	2918	6	3711	72
113	0	0	3107	10	3712	72
114	0	0	3163	10	3711	74
115	0	0	3382	11	3710	73
116	0	0	3420	6	3708	75
117	0	0	3067	6	3710	75
118	0	0	2666	6	3711	74
119	0	0	2209	8	3711	74
120	0	0	1671	6	3711	73
121	0	0	1281	6	3711	74
122	0	0	1058	6	3712	72
123	0	0	940	6	3712	72
124	0	0	936	10	3712	72
125	0	0	935	7	3711	72
126	0	0	1025	10	3711	71
127	0	0	1340	10	3711	72
0	0	0	1675	13	3711	75
1	0	0	2007	10	3710	72
2	0	0	2340	10	3710	73
3	0	0	2692	10	3711	71
4	0	0	2971	7	3711	72
5	0	0	3138	9	3711	72
6	0	0	3187	12	3711	72
7	0	0	3396	11	3710	72
8	0	0	3451	8	3710	73
9	0	0	3099	3	3711	73
10	0	0	2680	6	3713	71
11	0	0	2198	6	3711	72
12	0	0	1631	7	3711	73
13	0	0	1222	6	3711	71
14	0	0	985	6	3712	71
15	0	0	855	7	3711	73
16	0	0	841	10	3710	72
17	0	0	829	6	3710	73
18	0	0	916	9	3709	73
19	0	0	1230	7	3711	72
20	0	0	1572	8	3711	72
21	0	0	1895	10	3709	74
22	0	0	2232	10	3711	73
23	0	0	2598	10	3711	73
24	0	0	2918	10	3712	68
25	0	0	3128	8	3712	72
26	0	0	3199	10	3711	72
27	0	0	3449	11	3712	71
28	0	0	3514	3	3709	74
29	0	0	3130	3	3711	73
30	0	0	2681	5	3712	72
31	0	0	2165	6	3709	75
32	0	0	1554	8	3710	73
33	0	0	1101	6	3711	71
34	0	0	833	7	3712	69
35	0	0	687	7	3710	73
36	0	0	658	7	3709	72
37	0	0	636	6	3710	73
38	0	0	724	9	3709	73
39	0	0	1061	11	3712	69
40	0	0	1427	10	3711	72
41	0	0	1772	10	3709	74
42	0	0	2135	9	3712	71
43	0	0	2530	10	3712	71
44	0	0	2876	7	3712	71
45	0	0	3104	10	3712	71
46	0	0	3191	11	3713	71
47	0	0	3441	11	3710	73
48	0	0	3526	7	3712	68
49	0	0	3152	7	3712	68
50	0	0	2698	7	3711	73
51	0	0	2155	6	3709	72
52	0	0	1521	6	3710	73
53	0	0	1047	6	3712	69
54	0	0	755	5	3712	69
55	0	0	596	7	3711	76
56	0	0	552	10	3710	74
57	0	0	526	6	3709	73
58	0	0	617	10	3710	74
59	0	0	974	8	3712	71
60	0	0	1361	9	3712	71
61	0	0	1735	10	3712	71
62	0	0	2114	10	3711	73
63	0	0	2531	11	3711	73
64	0	0	2902	7	3710	73
65	0	0	3155	9	3711	72
66	0	0	3245	7	3710	74
67	0	0	3490	9	3709	73
68	0	0	3603	6	3709	72
69	0	0	3204	8	3712	72
70	0	0	2732	6	3711	76
71	0	0	2170	5	3710	74
72	0	0	1498	5	3710	73
73	0	0	991	5	3710	73
74	0	0	675	7	3712	68
75	0	0	492	7	3710	77
76	0	0	431	7	3711	75
77	0	0	375	5	3712	71
78	0	0	470	10	3711	72
79	0	0	850	8	3711	73
80	0	0	1266	10	3712	71
81	0	0	1656	10	3710	74
82	0	0	2072	10	3711	73
83	0	0	2520	8	3708	74
84	0	0	2920	8	3708	74
85	0	0	3196	10	3710	73
86	0	0	3304	10	3709	75
87	0	0	3552	10	3709	72
88	0	0	3740	7	3711	69
89	0	0	3321	8	3710	76
90	0	0	2805	5	3711	74
91	0	0	2208	6	3710	76
92	0	0	1487	5	3710	73
93	0	0	947	7	3711	73
94	0	0	595	8	3712	72
95	0	0	393	6	3712	71
96	0	0	318	7	3712	72
97	0	0	263	6	3710	73
98	0	0	348	10	3709	72
99	0	0	733	8	3708	74
100	0	0	1170	10	3710	75
101	0	0	1587	10	3709	75
102	0	0	2019	10	3710	72
103	0	0	2512	11	3710	72
104	0	0	2952	8	3708	74
105	0	0	3260	10	3710	76
106	0	0	3390	11	3710	74
107	0	0	3626	10	3709	72
108	0	0	3813	7	3710	72
109	0	0	3467	4	3710	73
110	0	0	2916	5	3712	71
111	0	0	2282	6	3712	74
112	0	0	1517	6	3711	72
113	0	0	941	7	3711	73
114	0	0	560	8	3710	76
115	0	0	333	7	3710	76
116	0	0	245	6	3709	73
117	0	0	193	6	3710	74
118	0	0	277	7	3709	73
119	0	0	680	10	3710	76
120	0	0	1143	8	3708	75
121	0	0	1584	7	3710	74
122	0	0	2053	10	3710	73
123	0	0	2557	11	3710	73
124	0	0	3042	10	3710	76
125	0	0	3394	10	3712	71
126	0	0	3549	9	3710	74
127	0	0	3753	10	3712	72
0	0	0	3892	11	3711	73
1	0	0	3635	8	3712	72
2	0	0	3065	6	3711	73
3	0	0	2402	8	3710	75
4	0	0	1576	6	3710	73
5	0	0	935	7	3710	73
6	0	0	543	8	3710	73
7	0	0	322	6	3710	73
8	0	0	203	5	3710	73
9	0	0	139	6	3709	74
10	0	0	129	10	3709	71
11	0	0	580	9	3711	73
12	0	0	1068	9	3709	69
13	0	0	1539	10	3711	73
14	0	0	2049	10	3710	72
15	0	0	2614	10	3711	71
16	0	0	3141	11	3712	71
17	0	0	3510	10	3711	73
18	0	0	3705	10	3712	71
19	0	0	3856	7	3710	73
20	0	0	3952	10	3710	71
21	0	0	3773	3	3710	77
22	0	0	3183	5	3709	73
23	0	0	2487	6	3710	73
24	0	0	1605	6	3709	73
25	0	0	930	6	3709	71
26	0	0	546	5	3711	73
27	0	0	324	7	3711	74
28	0	0	207	6	3709	75
29	0	0	144	8	3709	73
30	0	0	112	8	3710	73
31	0	0	416	12	3711	73
32	0	0	942	9	3711	73
33	0	0	1449	10	3711	72
34	0	0	1996	7	3710	72
35	0	0	2604	9	3710	72
36	0	0	3176	8	3711	75
37	0	0	3565	10	3711	71
38	0	0	3794	10	3712	72
39	0	0	3921	10	3712	72
40	0	0	3992	10	3710	69
41	0	0	3924	6	3710	73
42	0	0	3316	6	3709	74
43	0	0	2565	6	3710	73
44	0	0	1599	5	3709	73
45	0	0	923	5	3710	71
46	0	0	544	7	3711	73
47	0	0	328	7	3709	73
48	0	0	211	8	3709	72
49	0	0	148	6	3710	73
50	0	0	116	8	3709	73
51	0	0	269	12	3710	72
52	0	0	820	10	3710	72
53	0	0	1341	10	3709	69
54	0	0	1927	8	3709	72
55	0	0	2601	11	3709	73
56	0	0	3209	7	3709	73
57	0	0	3587	11	3709	74
58	0	0	3811	10	3709	71
59	0	0	3936	11	3710	71
60	0	0	4004	10	3711	72
61	0	0	4030	10	3709	72
62	0	0	3433	6	3710	71
63	0	0	2644	9	3707	72
64	0	0	1617	4	3710	73
65	0	0	934	5	3709	75
66	0	0	554	5	3710	72
67	0	0	335	4	3712	73
68	0	0	217	6	3709	72
69	0	0	154	6	3709	73
70	0	0	119	7	3709	71
71	0	0	130	7	3707	73
72	0	0	664	9	3709	72
73	0	0	1216	10	3709	72
74	0	0	1860	10	3709	73
75	0	0	2605	10	3709	72
76	0	0	3236	10	3708	72
77	0	0	3606	11	3709	72
78	0	0	3822	10	3711	71
79	0	0	3941	9	3709	73
80	0	0	4008	11	3709	72
81	0	0	4047	9	3710	69
82	0	0	3586	5	3710	73
83	0	0	2734	6	3709	72
84	0	0	1654	6	3710	73
85	0	0	959	6	3710	71
86	0	0	567	4	3710	73
87	0	0	343	4	3710	75
88	0	0	225	6	3709	72
89	0	0	161	6	3709	73
90	0	0	129	7	3709	72
91	0	0	114	6	3711	72
92	0	0	478	8	3710	73
93	0	0	1095	8	3710	73
94	0	0	1782	12	3708	72
95	0	0	2587	10	3709	71
96	0	0	3229	9	3711	73
97	0	0	3605	9	3710	72
98	0	0	3824	10	3711	72
99	0	0	3945	10	3710	73
100	0	0	4012	10	3710	73
101	0	0	4053	9	3710	73
102	0	0	3681	6	3710	73
103	0	0	2751	6	3712	72
104	0	0	1612	4	3712	72
105	0	0	943	6	3709	71
106	0	0	560	5	3709	72
107	0	0	343	5	3710	73
108	0	0	223	7	3709	72
109	0	0	168	6	3708	73
110	0	0	133	8	3708	73
111	0	0	119	7	3709	74
112	0	0	195	9	3710	75
113	0	0	797	11	3709	72
114	0	0	1537	8	3711	73
115	0	0	2391	10	3711	70
116	0	0	3117	9	3710	73
117	0	0	3545	9	3712	72
118	0	0	3791	12	3707	72
119	0	0	3933	8	3710	73
120	0	0	4009	11	3709	71
121	0	0	4054	7	3709	73
122	0	0	3766	6	3709	72
123	0	0	2813	6	3708	72
124	0	0	1644	6	3708	72
125	0	0	967	6	3708	72
126	0	0	578	7	3709	72
127	0	0	359	5	3709	73
0	0	0	237	8	3708	71
1	0	0	175	7	3709	73
2	0	0	144	7	3709	72
3	0	0	129	7	3711	72
4	0	0	121	7	3712	70
5	0	0	614	9	3711	72
6	0	0	1401	10	3710	73
7	0	0	2317	10	3710	72
8	0	0	3079	9	3710	72
9	0	0	3526	9	3709	74
10	0	0	3786	13	3708	72
11	0	0	3936	9	3709	72
12	0	0	4020	8	3708	72
13	0	0	4064	11	3709	72
14	0	0	3821	7	3710	72
15	0	0	2803	6	3708	75
16	0	0	1628	5	3709	73
17	0	0	957	4	3709	73
18	0	0	580	5	3709	74
19	0	0	361	7	3710	73
20	0	0	246	5	3709	72
21	0	0	186	9	3711	73
22	0	0	154	7	3711	70
23	0	0	140	7	3710	73
24	0	0	134	5	3711	72
25	0	0	135	7	3709	71
26	0	0	138	8	3710	73
27	0	0	141	7	3709	74
28	0	0	496	8	3709	74
29	0	0	1189	11	3709	72
30	0	0	1733	9	3709	63
31	0	0	2522	10	3708	72
32	0	0	3213	10	3709	73
33	0	0	3064	5	3711	73
34	0	0	2285	5	3710	73
35	0	0	1421	6	3709	71
36	0	0	867	5	3709	73
37	0	0	551	4	3710	73
38	0	0	377	5	3711	73
39	0	0	282	6	3711	73
40	0	0	233	7	3710	75
41	0	0	209	6	3709	71
42	0	0	199	6	3710	74
43	0	0	196	6	3710	73
44	0	0	193	7	3710	73
45	0	0	198	7	3710	72
46	0	0	200	8	3709	73
47	0	0	206	8	3709	72
48	0	0	812	11	3709	71
49	0	0	1584	10	3710	72
50	0	0	2182	8	3708	71
51	0	0	2912	7	3709	72
52	0	0	2843	7	3709	72
53	0	0	1653	7	3710	75
54	0	0	1018	7	3712	70
55	0	0	663	7	3709	71
56	0	0	469	6	3710	73
57	0	0	364	7	3709	73
58	0	0	306	4	3709	75
59	0	0	276	7	3710	72
60	0	0	266	6	3708	71
61	0	0	260	7	3708	72
62	0	0	261	7	3708	73
63	0	0	262	4	3708	74
64	0	0	261	8	3709	73
65	0	0	270	8	3708	69
66	0	0	275	8	3709	72
67	0	0	281	7	3709	72
68	0	0	291	8	3709	74
69	0	0	1280	11	3710	73
70	0	0	2368	5	3709	71
71	0	0	3172	9	3711	71
72	0	0	3649	7	3710	73
73	0	0	3928	8	3709	75
74	0	0	4087	10	3709	72
75	0	0	4091	6	3708	71
76	0	0	2775	6	3709	74
77	0	0	1680	5	3709	74
78	0	0	1063	6	3709	73
79	0	0	718	6	3709	73
80	0	0	521	6	3708	69
81	0	0	411	6	3709	73
82	0	0	355	8	3709	72
83	0	0	326	7	3707	71
84	0	0	313	7	3710	72
85	0	0	309	7	3708	67
86	0	0	306	8	3710	72
87	0	0	578	9	3710	69
88	0	0	1937	10	3708	72
89	0	0	2925	9	3710	72
90	0	0	3512	10	3709	68
91	0	0	3859	9	3710	71
92	0	0	4059	10	3709	76
93	0	0	4092	12	3708	71
94	0	0	4090	8	3708	73
95	0	0	4091	10	3709	69
96	0	0	3856	6	3708	73
97	0	0	2701	5	3709	73
98	0	0	1683	4	3710	74
99	0	0	1072	4	3709	73
100	0	0	720	6	3710	72
101	0	0	519	6	3708	73
102	0	0	416	6	3708	73
103	0	0	357	7	3707	71
104	0	0	330	4	3710	73
105	0	0	989	10	3710	69
106	0	0	1981	10	3709	73
107	0	0	2945	8	3710	73
108	0	0	3520	8	3710	71
109	0	0	3856	9	3709	72
110	0	0	4049	9	3708	72
111	0	0	4092	12	3708	73
112	0	0	4093	10	3707	74
113	0	0	4092	12	3708	72
114	0	0	4091	8	3708	72
115	0	0	4090	10	3708	72
116	0	0	3923	5	3709	72
117	0	0	2923	6	3712	74
118	0	0	2000	5	3707	73
119	0	0	1249	4	3710	72
120	0	0	812	6	3709	72
121	0	0	558	8	3710	73
122	0	0	419	7	3710	71
123	0	0	344	5	3708	72
124	0	0	306	4	3710	73
125	0	0	830	10	3710	72
126	0	0	1613	9	3708	72
127	0	0	2592	7	3708	71
0	0	0	3300	10	3707	70
1	0	0	3713	8	3709	72
2	0	0	3951	9	3708	72
3	0	0	4091	10	3708	73
4	0	0	4092	9	3705	75
5	0	0	4091	9	3707	71
6	0	0	4091	9	3708	73
7	0	0	4091	11	3708	72
8	0	0	4088	7	3708	73
9	0	0	3176	5	3708	73
10	0	0	2347	5	3708	72
11	0	0	1578	6	3710	73
12	0	0	988	5	3708	72
13	0	0	647	6	3710	73
14	0	0	453	6	3710	74
15	0	0	349	6	3706	72
16	0	0	661	9	3708	72
17	0	0	1212	9	3707	71
18	0	0	1965	10	3708	73
19	0	0	2850	10	3708	71
20	0	0	3435	9	3707	72
21	0	0	3781	9	3707	71
22	0	0	3978	11	3708	70
23	0	0	4087	8	3710	72
24	0	0	4091	9	3708	75
25	0	0	4092	9	3707	72
26	0	0	4093	10	3710	73
27	0	0	4091	10	3709	72
28	0	0	3345	5	3709	73
29	0	0	2415	5	3710	75
30	0	0	1716	7	3709	73
31	0	0	1201	6	3709	74
32	0	0	896	6	3709	72
33	0	0	713	7	3707	72
34	0	0	695	9	3708	70
35	0	0	1280	9	3706	72
36	0	0	2060	13	3708	72
37	0	0	2839	9	3708	73
38	0	0	3417	10	3709	72
39	0	0	3753	14	3708	70
40	0	0	3944	9	3709	74
41	0	0	4052	11	3709	72
42	0	0	4091	10	3708	72
43	0	0	4090	7	3710	72
44	0	0	4089	9	3709	72
45	0	0	4092	15	3708	72
46	0	0	4091	9	3710	74
47	0	0	4092	10	3708	72
48	0	0	3671	2	3710	72
49	0	0	2846	6	3708	72
50	0	0	2216	7	3709	73
51	0	0	1731	7	3708	73
52	0	0	1422	6	3707	72
53	0	0	1231	5	3707	72
54	0	0	1173	10	3708	69
55	0	0	1645	9	3708	72
56	0	0	2318	9	3708	72
57	0	0	2971	10	3708	72
58	0	0	3474	7	3710	72
59	0	0	3760	10	3710	72
60	0	0	3922	10	3710	76
61	0	0	4012	13	3710	73
62	0	0	4062	11	3710	72
63	0	0	4080	11	3708	72
64	0	0	4092	11	3708	70
65	0	0	4092	12	3708	74
66	0	0	4091	11	3708	72
67	0	0	4092	11	3708	72
68	0	0	3396	4	3708	73
69	0	0	2566	6	3708	71
70	0	0	1933	6	3710	75
71	0	0	1450	10	3709	74
72	0	0	1135	6	3708	73
73	0	0	924	4	3710	72
74	0	0	850	11	3709	75
75	0	0	1278	9	3710	73
76	0	0	1887	10	3709	73
77	0	0	1939	6	3709	72
78	0	0	1073	3	3710	73
79	0	0	627	6	3710	76
80	0	0	955	8	3708	74
81	0	0	2023	11	3709	72
82	0	0	2900	10	3707	71
83	0	0	3407	8	3708	72
84	0	0	3701	11	3708	68
85	0	0	3874	10	3709	76
86	0	0	3966	15	3709	73
87	0	0	4013	10	3708	73
88	0	0	3512	6	3708	73
89	0	0	2315	10	3707	73
90	0	0	1339	6	3709	73
91	0	0	783	4	3710	72
92	0	0	462	6	3708	73
93	0	0	287	3	3710	73
94	0	0	190	6	3710	70
95	0	0	139	6	3712	71
96	0	0	114	6	3709	73
97	0	0	104	7	3708	72
98	0	0	100	7	3708	73
99	0	0	990	11	3708	73
100	0	0	2176	9	3707	72
101	0	0	2978	9	3708	72
102	0	0	3457	10	3709	71
103	0	0	3738	10	3708	72
104	0	0	3900	12	3708	73
105	0	0	3988	10	3708	71
106	0	0	4036	11	3708	72
107	0	0	4060	11	3709	72
108	0	0	3986	4	3708	72
109	0	0	2952	6	3709	74
110	0	0	1859	6	3710	73
111	0	0	1082	5	3708	72
112	0	0	637	7	3709	73
113	0	0	384	5	3708	73
114	0	0	241	11	3707	72
115	0	0	169	5	3709	75
116	0	0	131	5	3708	73
117	0	0	113	7	3707	72
118	0	0	328	7	3708	72
119	0	0	1318	11	3707	72
120	0	0	2432	8	3708	71
121	0	0	3136	11	3709	71
122	0	0	3545	9	3708	72
123	0	0	3791	8	3709	72
124	0	0	3928	9	3709	72
125	0	0	4003	10	3708	72
126	0	0	4044	10	3710	73
127	0	0	3705	6	3708	72
0	0	0	2704	6	3708	73
1	0	0	1905	7	3709	72
2	0	0	1355	6	3709	71
3	0	0	1009	7	3709	73
4	0	0	860	7	3708	72
5	0	0	794	6	3707	73
6	0	0	852	11	3707	72
7	0	0	1371	10	3708	71
8	0	0	2024	9	3708	72
9	0	0	2661	10	3708	73
10	0	0	3259	10	3708	73
11	0	0	3614	9	3709	72
12	0	0	3819	12	3709	71
13	0	0	3933	11	3708	72
14	0	0	3995	3	3708	72
15	0	0	4027	10	3709	72
16	0	0	4046	11	3709	72
17	0	0	4050	10	3709	73
18	0	0	4049	10	3710	73
19	0	0	3912	6	3707	72
20	0	0	3027	6	3708	73
21	0	0	2329	5	3708	73
22	0	0	1847	6	3708	71
23	0	0	1533	7	3707	72
24	0	0	1384	6	3708	72
25	0	0	1324	4	3708	73
26	0	0	1371	10	3708	71
27	0	0	1811	10	3709	72
28	0	0	2367	12	3708	71
29	0	0	2907	9	3709	72
30	0	0	3386	10	3709	72
31	0	0	3665	10	3709	72
32	0	0	3824	10	3710	73
33	0	0	3912	10	3709	73
34	0	0	3957	10	3708	72
35	0	0	3981	9	3708	72
36	0	0	3994	10	3708	72
37	0	0	3995	11	3708	74
38	0	0	3995	8	3709	73
39	0	0	3707	1	3708	73
40	0	0	2862	5	3709	73
41	0	0	2207	5	3711	74
42	0	0	1774	5	3708	47
43	0	0	1501	6	3708	72
44	0	0	1377	7	3708	73
45	0	0	1325	6	3709	74
46	0	0	1372	10	3708	72
47	0	0	1770	10	3708	72
48	0	0	2276	10	3709	72
49	0	0	2747	10	3708	73
50	0	0	3237	8	3709	73
51	0	0	3557	8	3709	73
52	0	0	3743	11	3708	73
53	0	0	3842	12	3709	73
54	0	0	3896	10	3706	69
55	0	0	3925	10	3709	72
56	0	0	3939	9	3709	73
57	0	0	3943	11	3709	73
58	0	0	3943	12	3708	72
59	0	0	3438	6	3707	72
60	0	0	2649	6	3707	73
61	0	0	2018	5	3707	72
62	0	0	1618	7	3708	71
63	0	0	1385	7	3709	73
64	0	0	1291	8	3709	74
65	0	0	1284	3	3709	73
66	0	0	1336	9	3708	73
67	0	0	1696	11	3711	73
68	0	0	2160	11	3708	72
69	0	0	2590	10	3707	67
70	0	0	3044	9	3709	72
71	0	0	3426	10	3708	69
72	0	0	3647	10	3708	73
73	0	0	3771	12	3708	73
74	0	0	3840	11	3707	72
75	0	0	3873	10	3709	75
76	0	0	3893	10	3707	71
77	0	0	3901	10	3707	72
78	0	0	3724	7	3706	72
79	0	0	3156	7	3708	73
80	0	0	2427	6	3708	73
81	0	0	1869	6	3708	72
82	0	0	1506	5	3710	74
83	0	0	1293	6	3709	73
84	0	0	1206	8	3709	72
85	0	0	1176	6	3707	72
86	0	0	1236	9	3707	72
87	0	0	1589	10	3709	73
88	0	0	2026	7	3708	72
89	0	0	2404	7	3707	72
90	0	0	2824	8	3708	73
91	0	0	3251	10	3708	71
92	0	0	3535	11	3710	73
93	0	0	3692	11	3707	71
94	0	0	3781	10	3708	73
95	0	0	3829	11	3707	72
96	0	0	3850	10	3708	73
97	0	0	3864	9	3710	73
98	0	0	3488	6	3709	73
99	0	0	2934	6	3708	73
100	0	0	2237	6	3709	73
101	0	0	1703	5	3708	72
102	0	0	1355	6	3707	72
103	0	0	1154	7	3708	73
104	0	0	1076	7	3707	72
105	0	0	1053	6	3707	73
106	0	0	1105	7	3707	72
107	0	0	1446	10	3706	69
108	0	0	1862	7	3708	72
109	0	0	2247	10	3707	74
110	0	0	2652	10	3707	72
111	0	0	3076	7	3708	72
112	0	0	3421	9	3707	72
113	0	0	3615	7	3708	72
114	0	0	3727	11	3708	72
115	0	0	3787	10	3708	72
116	0	0	3820	11	3708	72
117	0	0	3774	6	3707	71
118	0	0	3279	6	3709	72
119	0	0	2752	6	3707	73
120	0	0	2097	6	3709	73
121	0	0	1591	6	3705	72
122	0	0	1277	6	3707	71
123	0	0	1101	3	3707	73
124	0	0	1035	8	3707	71
125	0	0	1017	7	3707	73
126	0	0	1078	7	3707	72
127	0	0	1394	10	3707	72
0	0	0	1783	8	3708	72
1	0	0	2147	10	3709	72
2	0	0	2523	8	3708	73
3	0	0	2919	10	3708	73
4	0	0	3284	10	3707	73
5	0	0	3523	9	3709	72
6	0	0	3631	10	3708	72
7	0	0	3703	11	3708	72
8	0	0	3763	9	3709	75
9	0	0	3614	7	3707	73
10	0	0	3109	7	3707	73
11	0	0	2600	6	3707	73
12	0	0	1976	6	3707	73
13	0	0	1495	5	3707	72
14	0	0	1201	5	3707	73
15	0	0	1035	7	3707	72
16	0	0	984	8	3709	73
17	0	0	988	8	3707	72
18	0	0	1048	7	3708	73
19	0	0	1350	9	3709	73
20	0	0	1729	7	3708	73
21	0	0	2068	7	3707	72
22	0	0	2430	11	3708	72
23	0	0	2814	9	3709	70
24	0	0	3163	9	3707	73
25	0	0	3390	8	3708	73
26	0	0	3477	10	3707	73
27	0	0	3585	10	3707	73
28	0	0	3693	8	3707	73
29	0	0	3463	6	3707	72
30	0	0	2968	3	3707	72
31	0	0	2486	6	3707	72
32	0	0	1883	6	3707	72
33	0	0	1406	7	3706	72
34	0	0	1129	7	3708	74
35	0	0	977	8	3708	73
36	0	0	938	10	3710	73
37	0	0	958	10	3707	73
38	0	0	1017	9	3708	71
39	0	0	1302	7	3708	72
40	0	0	1663	8	3709	72
41	0	0	1984	9	3707	72
42	0	0	2330	15	3707	72
43	0	0	2689	11	3707	72
44	0	0	3021	11	3705	73
45	0	0	3242	8	3708	72
46	0	0	3338	10	3707	72
47	0	0	3477	10	3707	72
48	0	0	3627	10	3706	71
49	0	0	3315	5	3705	73
50	0	0	2854	2	3708	72
51	0	0	2387	6	3708	72
52	0	0	1804	6	3710	72
53	0	0	1351	3	3708	74
54	0	0	1088	6	3708	74
55	0	0	948	4	3709	72
56	0	0	910	9	3708	73
57	0	0	924	6	3708	73
58	0	0	985	9	3708	71
59	0	0	1266	10	3708	72
60	0	0	1627	8	3708	72
61	0	0	1950	10	3708	72
62	0	0	2286	9	3707	73
63	0	0	2637	8	3707	73
64	0	0	2946	10	3707	73
65	0	0	3144	8	3709	72
66	0	0	3231	10	3707	71
67	0	0	3382	15	3707	70
68	0	0	3532	8	3707	72
69	0	0	3212	5	3706	72
70	0	0	2772	4	3709	72
71	0	0	2300	8	3708	73
72	0	0	1722	6	3714	71
73	0	0	1276	8	3707	72
74	0	0	1011	5	3708	74
75	0	0	877	6	3708	72
76	0	0	844	10	3706	73
77	0	0	854	6	3707	73
78	0	0	916	9	3707	74
79	0	0	1214	11	3708	74
80	0	0	1568	12	3708	72
81	0	0	1874	10	3706	73
82	0	0	2200	10	3707	72
83	0	0	2550	10	3707	72
84	0	0	2868	12	3708	73
85	0	0	3073	10	3709	76
86	0	0	3165	7	3709	72
87	0	0	3318	10	3708	74
88	0	0	3453	9	3707	72
89	0	0	3148	6	3708	73
90	0	0	2721	6	3709	72
91	0	0	2272	5	3706	75
92	0	0	1720	6	3707	72
93	0	0	1288	6	3707	73
94	0	0	1028	6	3705	74
95	0	0	892	6	3708	73
96	0	0	854	9	3707	73
97	0	0	858	5	3709	73
98	0	0	913	9	3708	75
99	0	0	1189	10	3708	74
100	0	0	1522	9	3708	72
101	0	0	1839	9	3707	72
102	0	0	2180	8	3708	72
103	0	0	2540	9	3708	71
104	0	0	2870	8	3708	73
105	0	0	3081	10	3710	73
106	0	0	3155	10	3708	72
107	0	0	3306	8	3710	72
108	0	0	3432	8	3707	71
109	0	0	3108	5	3708	72
110	0	0	2647	6	3707	72
111	0	0	2160	6	3707	75
112	0	0	1579	5	3707	73
113	0	0	1157	6	3707	72
114	0	0	911	6	3708	72
115	0	0	790	5	3708	72
116	0	0	791	9	3707	73
117	0	0	845	4	3709	73
118	0	0	923	9	3708	77
119	0	0	1192	9	3708	73
120	0	0	1531	9	3708	72
121	0	0	1811	10	3708	72
122	0	0	2113	10	3708	72
123	0	0	2421	12	3707	70
124	0	0	2701	11	3710	74
125	0	0	2876	10	3708	71
126	0	0	2958	10	3707	72
127	0	0	3111	12	3707	71
0	0	0	3250	8	3708	75
1	0	0	2968	7	3710	73
2	0	0	2571	6	3708	74
3	0	0	2150	6	3707	73
4	0	0	1611	7	3707	75
5	0	0	1202	7	3708	79
6	0	0	965	7	3709	74
7	0	0	845	6	3708	73
8	0	0	812	9	3709	72
9	0	0	827	9	3709	74
10	0	0	875	10	3708	72
11	0	0	1142	9	3709	72
12	0	0	1473	10	3707	73
13	0	0	1765	10	3707	72
14	0	0	2081	9	3708	73
15	0	0	2393	11	3708	75
16	0	0	2699	11	3707	71
17	0	0	2898	9	3708	73
18	0	0	2978	10	3707	72
19	0	0	3124	8	3707	72
20	0	0	3249	10	3706	72
21	0	0	2959	7	3710	74
22	0	0	2551	6	3708	72
23	0	0	2129	6	3711	74
24	0	0	1579	5	3707	73
25	0	0	1156	7	3707	72
26	0	0	915	6	3707	71
27	0	0	790	6	3708	73
28	0	0	760	9	3708	73
29	0	0	791	6	3708	74
30	0	0	832	11	3708	79
31	0	0	1096	11	3707	72
32	0	0	1424	10	3707	73
33	0	0	1723	10	3707	72
34	0	0	2044	16	3707	71
35	0	0	2371	10	3708	73
36	0	0	2677	10	3707	71
37	0	0	2877	10	3708	72
38	0	0	2959	10	3707	72
39	0	0	3096	13	3708	72
40	0	0	3224	5	3711	73
41	0	0	2938	7	3707	71
42	0	0	2536	6	3708	72
43	0	0	2116	6	3708	73
44	0	0	1569	8	3708	71
45	0	0	1151	8	3707	69
46	0	0	912	6	3710	71
47	0	0	785	6	3708	73
48	0	0	757	9	3708	72
49	0	0	759	7	3708	73
50	0	0	809	11	3707	72
51	0	0	1089	11	3705	71
52	0	0	1428	10	3707	73
53	0	0	1719	13	3707	70
54	0	0	2029	13	3708	72
55	0	0	2356	10	3709	72
56	0	0	2656	8	3707	70
57	0	0	2858	10	3708	73
58	0	0	2949	10	3708	72
59	0	0	3091	8	3707	72
60	0	0	3221	11	3708	72
61	0	0	2943	5	3711	71
62	0	0	2535	6	3708	74
63	0	0	2122	6	3708	73
64	0	0	1578	8	3706	70
65	0	0	1154	7	3708	75
66	0	0	909	5	3709	72
67	0	0	782	6	3708	72
68	0	0	748	8	3708	73
69	0	0	760	7	3706	72
70	0	0	811	10	3707	73
71	0	0	1085	10	3708	72
72	0	0	1421	10	3707	73
73	0	0	1712	10	3707	72
74	0	0	2024	11	3708	72
75	0	0	2356	10	3708	72
76	0	0	2659	11	3708	70
77	0	0	2861	12	3709	72
78	0	0	2954	9	3708	72
79	0	0	3099	11	3707	72
80	0	0	3240	8	3708	72
81	0	0	2954	7	3709	71
82	0	0	2541	6	3707	73
83	0	0	2127	5	3707	73
84	0	0	1573	7	3708	73
85	0	0	1145	5	3709	73
86	0	0	896	5	3707	71
87	0	0	761	6	3709	74
88	0	0	722	8	3707	73
89	0	0	739	9	3708	73
90	0	0	787	10	3708	74
91	0	0	1056	10	3707	72
92	0	0	1395	10	3709	72
93	0	0	1686	10	3708	73
94	0	0	2014	9	3708	72
95	0	0	2354	11	3708	72
96	0	0	2655	9	3707	72
97	0	0	2790	9	3709	73
98	0	0	2893	10	3708	71
99	0	0	3097	10	3707	72
100	0	0	3331	10	3707	72
101	0	0	3108	6	3708	72
102	0	0	2697	2	3709	73
103	0	0	2254	6	3708	73
104	0	0	1651	3	3707	73
105	0	0	1152	6	3708	74
106	0	0	831	7	3708	70
107	0	0	640	6	3709	73
108	0	0	545	6	3708	73
109	0	0	528	7	3707	72
110	0	0	550	8	3709	72
111	0	0	804	11	3707	70
112	0	0	1165	9	3709	72
113	0	0	1487	11	3707	72
114	0	0	1852	10	3708	71
115	0	0	2243	10	3707	73
116	0	0	2617	8	3707	72
117	0	0	2883	10	3707	72
118	0	0	3036	13	3707	72
119	0	0	3217	9	3709	72
120	0	0	3416	10	3707	72
121	0	0	3159	7	3708	73
122	0	0	2719	6	3709	73
123	0	0	2246	6	3708	73
124	0	0	1628	7	3708	73
125	0	0	1109	6	3708	74
126	0	0	779	7	3707	73
127	0	0	596	6	3708	74
0	0	0	521	7	3709	73
1	0	0	535	7	3707	72
2	0	0	561	8	3707	72
3	0	0	827	10	3708	71
4	0	0	1191	9	3708	73
5	0	0	1507	10	3707	75
6	0	0	1860	10	3707	71
7	0	0	2241	10	3708	75
8	0	0	2622	10	3708	71
9	0	0	2894	10	3707	72
10	0	0	3050	10	3707	72
11	0	0	3248	10	3707	72
12	0	0	3461	10	3708	73
13	0	0	3208	5	3707	74
14	0	0	2766	5	3709	73
15	0	0	2291	6	3708	73
16	0	0	1667	7	3708	73
17	0	0	1146	4	3707	72
18	0	0	811	5	3706	74
19	0	0	617	8	3705	72
20	0	0	525	7	3707	74
21	0	0	507	7	3707	73
22	0	0	539	8	3709	72
23	0	0	806	11	3705	75
24	0	0	1192	13	3707	72
25	0	0	1531	10	3707	72
26	0	0	1889	11	3707	72
27	0	0	2271	8	3707	72
28	0	0	2647	8	3706	73
29	0	0	2919	10	3709	71
30	0	0	3071	7	3708	72
31	0	0	3257	11	3708	72
32	0	0	3460	8	3711	72
33	0	0	3196	6	3708	74
34	0	0	2758	6	3708	72
35	0	0	2288	6	3708	71
36	0	0	1675	6	3707	73
37	0	0	1180	4	3707	73
38	0	0	850	6	3706	75
39	0	0	656	6	3708	75
40	0	0	578	7	3708	73
41	0	0	566	9	3708	74
42	0	0	592	9	3708	72
43	0	0	864	10	3708	72
44	0	0	1236	10	3706	74
45	0	0	1572	10	3709	73
46	0	0	1926	11	3708	72
47	0	0	2296	10	3709	72
48	0	0	2654	9	3709	72
49	0	0	2908	10	3708	73
50	0	0	3049	10	3710	72
51	0	0	3207	14	3707	72
52	0	0	3406	10	3708	73
53	0	0	3164	5	3708	71
54	0	0	2750	6	3708	72
55	0	0	2296	6	3707	75
56	0	0	1696	6	3707	72
57	0	0	1210	6	3706	72
58	0	0	906	6	3708	73
59	0	0	732	6	3706	72
60	0	0	662	8	3708	72
61	0	0	662	7	3708	73
62	0	0	684	10	3708	73
63	0	0	943	9	3708	75
64	0	0	1298	10	3706	73
65	0	0	1615	9	3708	73
66	0	0	1957	11	3708	72
67	0	0	2312	10	3708	72
68	0	0	2660	10	3709	72
69	0	0	2902	10	3706	73
70	0	0	3033	10	3708	72
71	0	0	3183	12	3707	72
72	0	0	3367	10	3706	71
73	0	0	3116	5	3708	71
74	0	0	2706	7	3708	71
75	0	0	2269	7	3706	73
76	0	0	1693	6	3707	73
77	0	0	1236	6	3707	74
78	0	0	952	6	3708	70
79	0	0	792	6	3704	72
80	0	0	728	7	3708	72
81	0	0	724	6	3708	73
82	0	0	744	10	3706	75
83	0	0	995	9	3708	71
84	0	0	1334	10	3709	72
85	0	0	1645	9	3707	72
86	0	0	1979	11	3708	72
87	0	0	2334	10	3706	73
88	0	0	2657	8	3708	72
89	0	0	2889	10	3706	73
90	0	0	3008	11	3707	71
91	0	0	3134	11	3708	71
92	0	0	3288	9	3704	75
93	0	0	3021	7	3707	69
94	0	0	2605	7	3706	73
95	0	0	2189	6	3708	74
96	0	0	1635	6	3708	73
97	0	0	1193	6	3705	75
98	0	0	933	6	3709	72
99	0	0	795	6	3710	73
100	0	0	752	8	3708	73
101	0	0	774	5	3709	73
102	0	0	812	10	3708	73
103	0	0	1066	8	3708	71
104	0	0	1410	10	3706	72
105	0	0	1706	9	3707	72
106	0	0	2022	10	3707	72
107	0	0	2340	10	3706	71
108	0	0	2648	10	3707	70
109	0	0	2862	11	3708	70
110	0	0	2963	10	3707	72
111	0	0	3097	10	3708	72
112	0	0	3229	7	3708	71
113	0	0	2957	6	3709	71
114	0	0	2543	6	3708	73
115	0	0	2137	5	3710	72
116	0	0	1596	6	3707	72
117	0	0	1168	5	3708	73
118	0	0	929	6	3708	73
119	0	0	807	6	3707	69
120	0	0	780	9	3706	72
121	0	0	823	5	3708	72
122	0	0	867	9	3706	71
123	0	0	1115	10	3708	72
124	0	0	1448	9	3707	72
125	0	0	1729	9	3707	72
126	0	0	2040	7	3708	73
127	0	0	2363	9	3706	73
0	0	0	2660	10	3707	72
1	0	0	2864	10	3711	71
2	0	0	2960	11	3708	72
3	0	0	3083	7	3710	73
4	0	0	3222	8	3710	75
5	0	0	2955	8	3709	72
6	0	0	2548	6	3708	72
7	0	0	2141	6	3708	71
8	0	0	1600	5	3707	74
9	0	0	1181	6	3707	72
10	0	0	935	5	3708	72
11	0	0	807	6	3707	72
12	0	0	768	8	3707	73
13	0	0	792	6	3707	73
14	0	0	831	11	3707	73
15	0	0	1072	10	3706	72
16	0	0	1405	13	3707	71
17	0	0	1690	10	3707	72
18	0	0	1996	11	3708	72
19	0	0	2316	10	3708	72
20	0	0	2624	8	3710	73
21	0	0	2821	10	3712	72
22	0	0	2910	10	3709	72
23	0	0	3013	11	3707	72
24	0	0	3164	11	3708	73
25	0	0	2910	5	3708	72
26	0	0	2515	5	3707	71
27	0	0	2118	6	3707	73
28	0	0	1586	5	3707	72
29	0	0	1173	7	3707	72
30	0	0	937	6	3707	70
31	0	0	822	6	3707	72
32	0	0	784	8	3707	74
33	0	0	809	6	3707	73
34	0	0	853	12	3708	74
35	0	0	1100	8	3708	72
36	0	0	1432	10	3707	72
37	0	0	1719	10	3708	73
38	0	0	2021	7	3708	72
39	0	0	2340	11	3708	72
40	0	0	2636	11	3710	72
41	0	0	2827	10	3707	71
42	0	0	2917	11	3709	72
43	0	0	3025	11	3707	71
44	0	0	3176	10	3707	72
45	0	0	2936	5	3708	76
46	0	0	2545	7	3708	71
47	0	0	2141	5	3707	73
48	0	0	1618	6	3707	71
49	0	0	1200	8	3708	73
50	0	0	945	6	3708	72
51	0	0	815	6	3707	71
52	0	0	764	7	3708	74
53	0	0	787	4	3711	72
54	0	0	827	9	3707	71
55	0	0	1075	8	3710	74
56	0	0	1395	10	3707	71
57	0	0	1676	10	3708	73
58	0	0	1973	10	3708	71
59	0	0	2286	9	3709	72
60	0	0	2581	10	3709	76
61	0	0	2785	10	3708	72
62	0	0	2883	10	3707	69
63	0	0	3001	10	3707	71
64	0	0	3154	10	3707	72
65	0	0	2914	7	3708	74
66	0	0	2523	7	3707	71
67	0	0	2130	6	3708	73
68	0	0	1598	5	3708	73
69	0	0	1186	8	3712	73
70	0	0	930	7	3709	72
71	0	0	791	12	3712	71
72	0	0	743	8	3708	73
73	0	0	762	5	3708	73
74	0	0	800	12	3708	72
75	0	0	1033	10	3709	72
76	0	0	1361	10	3706	72
77	0	0	1643	9	3708	73
78	0	0	1949	10	3707	72
79	0	0	2277	13	3708	73
80	0	0	2582	10	3708	75
81	0	0	2787	11	3707	72
82	0	0	2893	9	3709	76
83	0	0	3007	8	3706	70
84	0	0	3172	11	3709	68
85	0	0	2970	6	3708	72
86	0	0	2645	6	3708	71
87	0	0	2231	6	3708	71
88	0	0	1658	5	3708	73
89	0	0	1187	6	3708	72
90	0	0	894	6	3709	74
91	0	0	733	5	3707	73
92	0	0	666	7	3707	72
93	0	0	691	7	3707	72
94	0	0	725	11	3708	72
95	0	0	958	9	3707	71
96	0	0	1283	10	3708	73
97	0	0	1587	10	3707	72
98	0	0	1919	9	3707	72
99	0	0	2242	10	3708	72
100	0	0	2548	10	3708	75
101	0	0	2759	10	3708	72
102	0	0	2857	10	3709	71
103	0	0	2960	10	3708	73
104	0	0	3121	11	3709	72
105	0	0	2886	7	3709	74
106	0	0	2498	6	3710	73
107	0	0	2105	6	3708	73
108	0	0	1565	6	3709	73
109	0	0	1139	6	3708	75
110	0	0	880	5	3708	75
111	0	0	738	6	3708	73
112	0	0	690	6	3708	73
113	0	0	707	6	3707	72
114	0	0	728	11	3708	73
115	0	0	969	10	3709	72
116	0	0	1304	10	3706	73
117	0	0	1597	9	3709	72
118	0	0	1920	11	3709	73
119	0	0	2259	11	3708	73
120	0	0	2585	10	3709	73
121	0	0	2816	11	3708	73
122	0	0	2948	9	3710	76
123	0	0	3089	10	3706	74
124	0	0	3278	10	3708	72
125	0	0	3043	7	3708	75
126	0	0	2637	6	3706	71
127	0	0	2227	6	3707	72
0	0	0	1656	6	3708	74
1	0	0	1193	6	3709	71
2	0	0	915	6	3708	72
3	0	0	767	6	3708	72
4	0	0	705	7	3708	73
5	0	0	703	5	3707	73
6	0	0	720	8	3708	73
7	0	0	963	9	3709	73
8	0	0	1307	10	3708	73
9	0	0	1617	7	3708	72
10	0	0	1964	10	3707	73
11	0	0	2345	10	3708	72
12	0	0	2717	11	3708	74
13	0	0	2931	10	3710	72
14	0	0	3026	10	3707	73
15	0	0	3139	10	3708	72
16	0	0	3317	9	3708	75
17	0	0	3066	6	3708	73
18	0	0	2641	6	3708	72
19	0	0	2228	6	3707	73
20	0	0	1641	7	3708	73
21	0	0	1157	4	3708	73
22	0	0	844	7	3709	75
23	0	0	666	7	3710	74
24	0	0	593	6	3710	73
25	0	0	605	5	3708	73
26	0	0	623	6	3710	72
27	0	0	889	8	3709	72
28	0	0	1262	10	3710	72
29	0	0	1591	10	3710	75
30	0	0	1936	10	3708	73
31	0	0	2311	11	3709	72
32	0	0	2675	11	3708	73
33	0	0	2930	10	3707	72
34	0	0	3080	10	3705	72
35	0	0	3216	11	3707	72
36	0	0	3432	7	3709	72
37	0	0	3202	6	3708	71
38	0	0	2780	6	3710	73
39	0	0	2346	5	3709	73
40	0	0	1747	3	3707	74
41	0	0	1244	2	3710	72
42	0	0	920	6	3710	73
43	0	0	733	6	3709	71
44	0	0	636	7	3708	73
45	0	0	623	6	3706	74
46	0	0	632	9	3707	74
47	0	0	886	10	3712	71
48	0	0	1270	13	3709	72
49	0	0	1604	8	3707	73
50	0	0	1964	10	3708	76
51	0	0	2355	6	3709	72
52	0	0	2735	9	3708	71
53	0	0	3006	10	3708	72
54	0	0	3167	10	3709	74
55	0	0	3327	10	3707	72
56	0	0	3560	8	3710	71
57	0	0	3328	6	3709	75
58	0	0	2886	6	3709	71
59	0	0	2432	6	3710	73
60	0	0	1805	6	3708	71
61	0	0	1274	5	3708	71
62	0	0	926	6	3709	69
63	0	0	725	7	3709	73
64	0	0	617	7	3708	73
65	0	0	600	6	3708	75
66	0	0	604	9	3706	75
67	0	0	857	10	3708	72
68	0	0	1243	8	3708	71
69	0	0	1582	10	3707	73
70	0	0	1955	10	3708	73
71	0	0	2349	10	3709	72
72	0	0	2748	8	3709	74
73	0	0	3047	10	3710	72
74	0	0	3207	10	3708	72
75	0	0	3372	10	3710	76
76	0	0	3626	6	3711	72
77	0	0	3380	6	3709	72
78	0	0	2908	5	3708	71
79	0	0	2435	6	3709	71
80	0	0	1766	3	3705	73
81	0	0	1201	3	3707	72
82	0	0	828	7	3708	75
83	0	0	601	7	3707	72
84	0	0	484	6	3707	72
85	0	0	483	6	3706	73
86	0	0	484	9	3707	71
87	0	0	754	9	3708	74
88	0	0	1147	10	3709	72
89	0	0	1492	7	3708	72
90	0	0	1879	10	3708	76
91	0	0	2281	10	3707	73
92	0	0	2694	10	3709	72
93	0	0	3008	10	3709	71
94	0	0	3196	9	3709	72
95	0	0	3380	11	3707	72
96	0	0	3663	7	3707	72
97	0	0	3403	6	3708	74
98	0	0	2918	6	3707	72
99	0	0	2407	10	3707	72
100	0	0	1689	6	3706	75
101	0	0	1079	7	3708	72
102	0	0	659	5	3707	75
103	0	0	396	6	3707	72
104	0	0	253	10	3707	73
105	0	0	208	6	3706	71
106	0	0	175	14	3708	73
107	0	0	449	11	3709	75
108	0	0	876	10	3710	72
109	0	0	1245	7	3708	72
110	0	0	1657	9	3710	72
111	0	0	2106	7	3710	73
112	0	0	2557	13	3708	73
113	0	0	2899	10	3709	73
114	0	0	3107	10	3707	72
115	0	0	3301	10	3706	71
116	0	0	3613	10	3707	73
117	0	0	3351	7	3707	72
118	0	0	2830	6	3707	74
119	0	0	2282	5	3707	73
120	0	0	1507	6	3706	71
121	0	0	889	11	3709	73
122	0	0	539	7	3708	76
123	0	0	337	6	3708	74
124	0	0	230	7	3709	72
125	0	0	174	9	3712	72
126	0	0	146	6	3708	73
127	0	0	133	11	3710	73
0	0	0	581	10	3708	72
1	0	0	979	8	3707	73
2	0	0	1435	10	3708	70
3	0	0	1923	15	3708	71
4	0	0	2417	10	3708	73
5	0	0	2797	10	3707	73
6	0	0	3040	8	3708	73
7	0	0	3258	10	3708	72
8	0	0	3618	11	3707	72
9	0	0	3368	7	3708	76
10	0	0	2800	6	3708	72
11	0	0	2224	5	3707	72
12	0	0	1387	6	3709	72
13	0	0	828	7	3709	73
14	0	0	516	7	3708	72
15	0	0	337	6	3708	74
16	0	0	243	7	3708	73
17	0	0	192	6	3706	71
18	0	0	167	3	3708	73
19	0	0	156	7	3708	72
20	0	0	277	10	3707	74
21	0	0	694	8	3706	73
22	0	0	1196	10	3708	72
23	0	0	1740	11	3708	72
24	0	0	2302	10	3707	72
25	0	0	2749	10	3709	72
26	0	0	3038	9	3707	72
27	0	0	3296	11	3709	71
28	0	0	3664	8	3706	74
29	0	0	3494	7	3709	76
30	0	0	2866	6	3708	74
31	0	0	2228	6	3710	73
32	0	0	1350	7	3712	73
33	0	0	818	5	3708	72
34	0	0	523	6	3708	76
35	0	0	356	6	3707	75
36	0	0	262	7	3707	73
37	0	0	219	6	3705	71
38	0	0	196	8	3708	73
39	0	0	185	7	3708	77
40	0	0	183	7	3707	75
41	0	0	490	11	3707	72
42	0	0	1049	8	3707	70
43	0	0	1670	11	3708	72
44	0	0	2325	10	3709	76
45	0	0	2833	7	3708	74
46	0	0	3182	10	3708	72
47	0	0	3453	9	3708	72
48	0	0	3767	12	3709	76
49	0	0	3737	6	3709	75
50	0	0	3047	6	3708	76
51	0	0	2326	5	3708	72
52	0	0	1415	7	3708	73
53	0	0	868	8	3708	76
54	0	0	563	6	3708	76
55	0	0	383	8	3707	76
56	0	0	296	7	3708	73
57	0	0	251	8	3708	74
58	0	0	223	4	3707	73
59	0	0	213	7	3708	73
60	0	0	210	7	3707	75
61	0	0	505	10	3709	73
62	0	0	1148	5	3705	74
63	0	0	1842	8	3709	73
64	0	0	2610	10	3707	72
65	0	0	3235	10	3708	71
66	0	0	3657	11	3710	72
67	0	0	3901	7	3707	72
68	0	0	4038	8	3706	73
69	0	0	4091	10	3708	72
70	0	0	3609	7	3709	72
71	0	0	2871	5	3707	72
72	0	0	1790	5	3707	74
73	0	0	1090	4	3708	74
74	0	0	690	6	3708	75
75	0	0	469	6	3707	71
76	0	0	343	7	3707	72
77	0	0	283	7	3707	73
78	0	0	247	4	3708	74
79	0	0	232	4	3708	73
80	0	0	460	12	3708	74
81	0	0	1033	10	3708	73
82	0	0	1745	11	3709	72
83	0	0	2544	8	3709	73
84	0	0	3251	10	3709	72
85	0	0	3664	10	3708	72
86	0	0	3909	11	3709	72
87	0	0	4046	11	3708	73
88	0	0	4092	8	3708	73
89	0	0	4091	10	3708	72
90	0	0	4091	6	3707	72
91	0	0	3355	7	3706	72
92	0	0	2189	5	3707	75
93	0	0	1316	4	3708	77
94	0	0	819	4	3709	75
95	0	0	538	6	3708	75
96	0	0	383	6	3708	74
97	0	0	297	6	3708	71
98	0	0	254	6	3709	73
99	0	0	234	6	3708	72
100	0	0	557	9	3708	71
101	0	0	1146	11	3708	73
102	0	0	1877	11	3708	73
103	0	0	2682	12	3708	70
104	0	0	3331	10	3708	71
105	0	0	3712	10	3707	72
106	0	0	3931	10	3707	71
107	0	0	4055	9	3707	74
108	0	0	4090	10	3708	76
109	0	0	4092	10	3708	71
110	0	0	4091	6	3707	71
111	0	0	3459	6	3706	73
112	0	0	2250	7	3708	72
113	0	0	1353	4	3710	75
114	0	0	836	6	3709	73
115	0	0	545	6	3710	73
116	0	0	384	7	3708	73
117	0	0	295	5	3709	72
118	0	0	251	5	3708	73
119	0	0	231	4	3708	72
120	0	0	719	9	3707	72
121	0	0	1356	11	3707	73
122	0	0	2137	9	3708	71
123	0	0	2932	13	3707	70
124	0	0	3473	9	3708	72
125	0	0	3791	9	3706	71
126	0	0	3972	10	3708	73
127	0	0	4073	10	3708	73
0	0	0	4092	14	3708	72
1	0	0	4092	10	3710	73
2	0	0	4091	10	3708	72
3	0	0	3769	7	3708	72
4	0	0	2549	5	3708	75
5	0	0	1534	5	3709	73
6	0	0	935	3	3709	74
7	0	0	594	6	3707	70
8	0	0	402	6	3707	73
9	0	0	299	6	3707	72
10	0	0	244	6	3707	72
11	0	0	218	7	3708	73
12	0	0	837	9	3708	72
13	0	0	1482	9	3707	72
14	0	0	2264	9	3707	74
15	0	0	3038	12	3708	71
16	0	0	3521	11	3709	74
17	0	0	3814	11	3708	70
18	0	0	3982	11	3708	72
19	0	0	4070	10	3708	72
20	0	0	4092	11	3709	70
21	0	0	4090	8	3709	76
22	0	0	4091	12	3706	72
23	0	0	3773	6	3707	71
24	0	0	2552	8	3707	73
25	0	0	1519	10	3708	72
26	0	0	926	6	3708	74
27	0	0	581	6	3706	72
28	0	0	388	5	3707	73
29	0	0	285	6	3707	72
30	0	0	229	6	3708	73
31	0	0	203	7	3707	72
32	0	0	733	12	3707	72
33	0	0	1368	8	3707	73
34	0	0	2137	8	3707	73
35	0	0	2921	14	3708	70
36	0	0	3450	9	3708	74
37	0	0	3765	9	3708	72
38	0	0	3947	11	3708	72
39	0	0	4047	8	3708	72
40	0	0	4093	11	3707	72
41	0	0	4090	9	3708	74
42	0	0	4091	10	3707	72
43	0	0	3661	4	3708	73
44	0	0	2416	4	3706	72
45	0	0	1422	7	3708	73
46	0	0	864	6	3708	75
47	0	0	541	6	3712	72
48	0	0	360	3	3708	73
49	0	0	261	6	3707	71
50	0	0	212	7	3707	73
51	0	0	183	6	3708	73
52	0	0	487	9	3708	72
53	0	0	1077	10	3708	73
54	0	0	1838	10	3708	69
55	0	0	2665	7	3707	72
56	0	0	3294	8	3708	73
57	0	0	3669	11	3707	72
58	0	0	3887	10	3707	72
59	0	0	4009	10	3707	70
60	0	0	4080	9	3708	72
61	0	0	4092	10	3708	72
62	0	0	4093	6	3708	73
63	0	0	3427	6	3707	73
64	0	0	2148	5	3707	72
65	0	0	1267	7	3708	72
66	0	0	767	4	3708	75
67	0	0	486	5	3708	75
68	0	0	328	6	3707	73
69	0	0	243	4	3707	73
70	0	0	199	8	3708	74
71	0	0	177	6	3709	75
72	0	0	202	10	3707	72
73	0	0	773	9	3707	72
74	0	0	1537	7	3707	72
75	0	0	2399	11	3707	72
76	0	0	3146	9	3708	72
77	0	0	3576	10	3707	74
78	0	0	3835	11	3708	72
79	0	0	3981	7	3707	72
80	0	0	4060	12	3707	74
81	0	0	4094	10	3708	73
82	0	0	4091	6	3706	76
83	0	0	3358	6	3708	73
84	0	0	2092	6	3708	72
85	0	0	1236	5	3708	74
86	0	0	747	5	3710	73
87	0	0	478	6	3707	63
88	0	0	324	6	3708	73
89	0	0	243	5	3707	73
90	0	0	782	7	3707	72
91	0	0	2224	10	3708	72
92	0	0	3041	9	3709	72
93	0	0	3511	9	3707	72
94	0	0	3789	10	3708	72
95	0	0	3948	8	3708	73
96	0	0	4040	8	3708	73
97	0	0	4080	10	3708	71
98	0	0	4088	11	3707	72
99	0	0	4090	7	3707	72
100	0	0	4092	9	3708	72
101	0	0	4093	7	3708	72
102	0	0	3505	7	3708	71
103	0	0	2990	5	3708	72
104	0	0	2505	5	3708	73
105	0	0	2198	4	3708	75
106	0	0	2008	7	3708	73
107	0	0	1893	6	3707	74
108	0	0	1835	7	3707	72
109	0	0	1804	5	3707	73
110	0	0	1734	7	3707	74
111	0	0	1836	12	3707	72
112	0	0	1972	12	3706	71
113	0	0	2068	10	3707	72
114	0	0	2171	7	3707	72
115	0	0	2252	8	3708	75
116	0	0	2309	11	3709	71
117	0	0	2294	7	3708	72
118	0	0	2240	6	3708	74
119	0	0	2226	7	3707	72
120	0	0	2221	5	3708	74
121	0	0	2009	5	3708	73
122	0	0	1774	6	3707	71
123	0	0	1589	6	3707	72
124	0	0	1366	5	3707	72
125	0	0	1210	4	3708	75
126	0	0	1132	9	3707	72
127	0	0	1112	8	3706	76
0	0	0	1114	9	3708	73
1	0	0	1141	5	3705	72
2	0	0	1168	12	3707	73
3	0	0	1278	9	3708	74
4	0	0	1406	10	3707	71
5	0	0	1512	11	3708	72
6	0	0	1621	5	3705	74
7	0	0	1721	10	3707	72
8	0	0	1811	10	3710	73
9	0	0	1865	10	3708	71
10	0	0	1883	9	3709	72
11	0	0	1885	9	3709	71
12	0	0	1919	11	3707	72
13	0	0	1833	6	3708	73
14	0	0	1681	6	3707	67
15	0	0	1539	5	3708	73
16	0	0	1356	5	3706	71
17	0	0	1211	6	3706	73
18	0	0	1129	6	3708	72
19	0	0	1097	7	3707	71
20	0	0	1101	12	3707	72
21	0	0	1144	10	3709	73
22	0	0	1179	10	3711	73
23	0	0	1264	12	3708	73
24	0	0	1398	10	3708	72
25	0	0	1521	11	3708	73
26	0	0	1644	12	3710	73
27	0	0	1756	10	3708	71
28	0	0	1865	9	3709	72
29	0	0	1947	11	3707	69
30	0	0	1987	10	3707	73
31	0	0	2010	8	3707	73
32	0	0	2070	11	3706	72
33	0	0	1989	6	3708	72
34	0	0	1831	6	3707	72
35	0	0	1680	7	3706	72
36	0	0	1488	6	3708	76
37	0	0	1331	4	3707	75
38	0	0	1233	4	3708	76
39	0	0	1188	5	3708	73
40	0	0	1184	12	3707	73
41	0	0	1220	9	3707	71
42	0	0	1247	11	3707	47
43	0	0	1339	9	3708	73
44	0	0	1483	11	3707	72
45	0	0	1609	11	3707	73
46	0	0	1730	8	3708	73
47	0	0	1845	9	3706	72
48	0	0	1968	9	3708	72
49	0	0	2049	10	3707	72
50	0	0	2091	11	3707	72
51	0	0	2108	10	3708	76
52	0	0	2172	8	3707	73
53	0	0	2097	4	3708	73
54	0	0	1933	6	3707	72
55	0	0	1764	6	3707	71
56	0	0	1549	6	3708	72
57	0	0	1369	6	3709	72
58	0	0	1262	4	3709	74
59	0	0	1211	7	3708	69
60	0	0	1199	10	3708	73
61	0	0	1240	11	3708	72
62	0	0	1265	11	3706	72
63	0	0	1364	9	3709	74
64	0	0	1518	10	3707	72
65	0	0	1660	11	3706	72
66	0	0	1799	10	3708	76
67	0	0	1928	14	3706	72
68	0	0	2050	8	3708	73
69	0	0	2138	10	3707	68
70	0	0	2181	10	3707	74
71	0	0	2198	10	3708	71
72	0	0	2266	9	3709	72
73	0	0	2174	3	3708	73
74	0	0	2003	7	3708	72
75	0	0	1839	8	3708	73
76	0	0	1620	3	3708	73
77	0	0	1439	6	3706	72
78	0	0	1335	4	3708	74
79	0	0	1286	7	3706	64
80	0	0	1282	10	3708	73
81	0	0	1320	9	3706	71
82	0	0	1340	10	3705	72
83	0	0	1444	8	3707	71
84	0	0	1597	10	3707	73
85	0	0	1736	10	3707	74
86	0	0	1876	10	3708	72
87	0	0	2008	10	3708	72
88	0	0	2140	9	3708	73
89	0	0	2233	11	3708	72
90	0	0	2275	10	3708	72
91	0	0	2297	8	3708	72
92	0	0	2364	10	3712	74
93	0	0	2271	4	3709	73
94	0	0	2089	8	3708	73
95	0	0	1906	6	3707	73
96	0	0	1674	4	3708	73
97	0	0	1483	6	3707	72
98	0	0	1372	7	3707	73
99	0	0	1329	7	3707	72
100	0	0	1325	10	3707	73
101	0	0	1363	12	3706	73
102	0	0	1392	9	3705	72
103	0	0	1496	7	3708	73
104	0	0	1658	10	3707	73
105	0	0	1804	10	3707	72
106	0	0	1951	8	3708	73
107	0	0	2093	14	3707	71
108	0	0	2222	11	3710	73
109	0	0	2313	7	3707	72
110	0	0	2356	10	3708	72
111	0	0	2366	12	3707	73
112	0	0	2434	10	3707	72
113	0	0	2344	6	3708	73
114	0	0	2164	6	3706	73
115	0	0	1991	7	3708	72
116	0	0	1764	6	3708	71
117	0	0	1577	7	3707	72
118	0	0	1476	7	3709	72
119	0	0	1433	7	3707	72
120	0	0	1428	10	3709	73
121	0	0	1466	10	3708	74
122	0	0	1498	10	3708	76
123	0	0	1598	11	3708	73
124	0	0	1751	10	3708	74
125	0	0	1889	7	3709	72
126	0	0	2029	11	3708	72
127	0	0	2165	13	3707	72
0	0	0	2289	14	3708	73
1	0	0	2376	9	3707	73
2	0	0	2420	10	3707	71
3	0	0	2435	10	3707	74
4	0	0	2502	11	3709	72
5	0	0	2416	7	3708	72
6	0	0	2239	6	3708	72
7	0	0	2073	5	3707	73
8	0	0	1851	7	3707	70
9	0	0	1663	7	3707	72
10	0	0	1560	8	3708	73
11	0	0	1518	8	3707	73
12	0	0	1515	8	3707	73
13	0	0	1559	12	3707	72
14	0	0	1584	10	3709	76
15	0	0	1680	13	3708	72
16	0	0	1829	16	3708	73
17	0	0	1959	10	3707	73
18	0	0	2091	14	3707	72
19	0	0	2222	11	3708	73
20	0	0	2345	8	3708	73
21	0	0	2426	10	3707	75
22	0	0	2463	7	3708	72
23	0	0	2464	13	3707	72
24	0	0	2524	10	3709	75
25	0	0	2440	9	3708	73
26	0	0	2265	6	3706	75
27	0	0	2096	4	3708	76
28	0	0	1874	7	3708	74
29	0	0	1697	7	3709	73
30	0	0	1599	7	3708	72
31	0	0	1560	7	3708	72
32	0	0	1559	9	3708	72
33	0	0	1597	10	3708	74
34	0	0	1617	10	3708	73
35	0	0	1716	13	3708	72
36	0	0	1871	10	3707	72
37	0	0	2000	8	3708	73
38	0	0	2135	10	3706	71
39	0	0	2262	10	3708	75
40	0	0	2383	9	3708	72
41	0	0	2462	10	3707	69
42	0	0	2496	10	3707	74
43	0	0	2504	11	3707	72
44	0	0	2567	12	3708	71
45	0	0	2478	8	3709	73
46	0	0	2303	6	3708	74
47	0	0	2134	6	3708	72
48	0	0	1920	7	3707	72
49	0	0	1745	4	3708	74
50	0	0	1648	11	3708	73
51	0	0	1607	6	3707	74
52	0	0	1607	10	3707	73
53	0	0	1643	15	3706	72
54	0	0	1665	12	3707	71
55	0	0	1758	13	3706	72
56	0	0	1906	14	3706	71
57	0	0	2033	10	3707	73
58	0	0	2165	11	3707	72
59	0	0	2292	12	3708	71
60	0	0	2413	13	3708	71
61	0	0	2485	10	3709	71
62	0	0	2517	10	3708	72
63	0	0	2526	15	3707	72
64	0	0	2592	12	3708	69
65	0	0	2508	4	3708	73
66	0	0	2336	6	3708	72
67	0	0	2173	6	3707	72
68	0	0	1961	7	3707	72
69	0	0	1783	8	3708	71
70	0	0	1681	8	3707	73
71	0	0	1642	7	3706	72
72	0	0	1641	7	3707	72
73	0	0	1676	10	3707	74
74	0	0	1698	10	3708	72
75	0	0	1787	8	3707	74
76	0	0	1936	10	3708	73
77	0	0	2058	11	3708	73
78	0	0	2188	7	3708	71
79	0	0	2311	9	3709	73
80	0	0	2426	9	3709	73
81	0	0	2496	10	3709	73
82	0	0	2533	7	3708	72
83	0	0	2541	10	3708	73
84	0	0	2607	10	3709	75
85	0	0	2524	6	3707	72
86	0	0	2358	7	3707	73
87	0	0	2196	5	3707	73
88	0	0	1990	5	3708	74
89	0	0	1807	5	3708	73
90	0	0	1707	6	3708	72
91	0	0	1664	7	3707	73
92	0	0	1663	11	3706	72
93	0	0	1695	10	3708	73
94	0	0	1708	10	3711	74
95	0	0	1805	8	3706	73
96	0	0	1958	13	3708	74
97	0	0	2090	9	3708	73
98	0	0	2226	10	3709	72
99	0	0	2345	10	3708	73
100	0	0	2453	8	3708	73
101	0	0	2529	11	3707	72
102	0	0	2560	8	3708	73
103	0	0	2564	10	3708	72
104	0	0	2627	12	3704	72
105	0	0	2544	8	3707	72
106	0	0	2378	6	3707	73
107	0	0	2220	5	3707	73
108	0	0	2014	6	3708	72
109	0	0	1842	7	3706	72
110	0	0	1742	8	3708	73
111	0	0	1697	8	3708	73
112	0	0	1691	10	3710	73
113	0	0	1729	10	3708	73
114	0	0	1753	8	3709	72
115	0	0	1842	9	3708	72
116	0	0	1984	10	3708	72
117	0	0	2108	7	3708	72
118	0	0	2237	10	3708	71
119	0	0	2354	10	3708	72
120	0	0	2464	10	3707	72
121	0	0	2542	10	3708	72
122	0	0	2577	12	3707	72
123	0	0	2587	9	3707	72
124	0	0	2653	10	3708	73
125	0	0	2571	8	3708	73
126	0	0	2403	6	3707	72
127	0	0	2244	5	3709	75
0	0	0	2030	6	3708	71
1	0	0	1852	6	3710	74
2	0	0	1747	8	3708	74
3	0	0	1694	7	3708	73
4	0	0	1686	9	3708	73
5	0	0	1728	9	3709	71
6	0	0	1745	11	3708	73
7	0	0	1840	10	3707	74
8	0	0	1984	9	3707	72
9	0	0	2109	8	3708	73
10	0	0	2239	9	3708	75
11	0	0	2356	11	3704	72
12	0	0	2472	11	3708	72
13	0	0	2552	10	3707	72
14	0	0	2588	10	3709	73
15	0	0	2596	10	3708	75
16	0	0	2667	10	3709	72
17	0	0	2584	5	3709	73
18	0	0	2412	6	3708	73
19	0	0	2257	8	3707	72
20	0	0	2056	6	3708	72
21	0	0	1880	6	3707	73
22	0	0	1770	7	3708	73
23	0	0	1720	7	3707	72
24	0	0	1709	10	3708	73
25	0	0	1732	10	3707	72
26	0	0	1741	10	3708	72
27	0	0	1835	12	3707	73
28	0	0	1984	10	3707	73
29	0	0	2104	8	3707	73
30	0	0	2230	10	3708	75
31	0	0	2356	10	3708	72
32	0	0	2473	10	3709	72
33	0	0	2549	10	3708	72
34	0	0	2588	10	3707	72
35	0	0	2597	7	3708	72
36	0	0	2667	11	3707	73
37	0	0	2583	7	3708	73
38	0	0	2412	6	3708	74
39	0	0	2253	8	3709	72
40	0	0	2042	5	3707	72
41	0	0	1867	6	3708	73
42	0	0	1766	7	3708	73
43	0	0	1721	6	3707	73
44	0	0	1714	12	3705	75
45	0	0	1748	10	3707	74
46	0	0	1762	10	3708	73
47	0	0	1853	11	3707	72
48	0	0	1992	10	3708	73
49	0	0	2107	7	3709	72
50	0	0	2226	7	3707	73
51	0	0	2345	10	3710	73
52	0	0	2459	7	3710	74
53	0	0	2536	9	3708	72
54	0	0	2573	12	3708	72
55	0	0	2579	11	3709	67
56	0	0	2651	12	3707	73
57	0	0	2577	6	3709	72
58	0	0	2411	6	3707	73
59	0	0	2252	6	3707	73
60	0	0	2041	6	3707	74
61	0	0	1868	7	3708	72
62	0	0	1768	3	3709	72
63	0	0	1723	7	3709	73
64	0	0	1722	8	3707	73
65	0	0	1751	7	3707	73
66	0	0	1765	10	3707	73
67	0	0	1847	7	3709	72
68	0	0	1989	11	3708	73
69	0	0	2109	14	3707	72
70	0	0	2229	11	3708	72
71	0	0	2346	9	3711	73
72	0	0	2454	8	3708	72
73	0	0	2524	10	3710	72
74	0	0	2557	10	3707	72
75	0	0	2557	10	3708	73
76	0	0	2622	11	3707	73
77	0	0	2552	7	3708	70
78	0	0	2391	6	3707	72
79	0	0	2243	7	3708	72
80	0	0	2045	5	3708	74
81	0	0	1880	7	3709	73
82	0	0	1789	7	3708	73
83	0	0	1750	7	3708	73
84	0	0	1741	10	3708	72
85	0	0	1772	7	3708	72
86	0	0	1786	12	3708	73
87	0	0	1857	7	3708	72
88	0	0	1999	10	3709	73
89	0	0	2113	8	3708	73
90	0	0	2226	8	3708	73
91	0	0	2332	10	3707	73
92	0	0	2440	7	3708	72
93	0	0	2511	10	3707	73
94	0	0	2545	11	3708	72
95	0	0	2553	10	3708	71
96	0	0	2613	11	3707	73
97	0	0	2542	1	3709	73
98	0	0	2393	7	3709	73
99	0	0	2244	6	3708	73
100	0	0	2056	6	3708	71
101	0	0	1892	6	3707	71
102	0	0	1801	7	3712	70
103	0	0	1764	6	3708	73
104	0	0	1763	15	3707	72
105	0	0	1797	11	3707	72
106	0	0	1815	11	3707	73
107	0	0	1892	8	3708	71
108	0	0	2020	10	3707	72
109	0	0	2125	14	3706	72
110	0	0	2232	12	3707	72
111	0	0	2335	11	3707	73
112	0	0	2434	9	3708	72
113	0	0	2496	10	3707	73
114	0	0	2526	11	3708	72
115	0	0	2525	11	3709	72
116	0	0	2587	12	3707	73
117	0	0	2520	6	3709	72
118	0	0	2373	6	3710	72
119	0	0	2234	7	3708	73
120	0	0	2060	4	3708	71
121	0	0	1901	5	3709	74
122	0	0	1812	4	3709	72
123	0	0	1778	7	3707	73
124	0	0	1778	10	3707	70
125	0	0	1811	11	3706	72
126	0	0	1824	10	3707	73
127	0	0	1901	8	3708	74
0	0	0	2028	7	3707	72
1	0	0	2130	10	3707	73
2	0	0	2235	10	3707	72
3	0	0	2339	10	3708	74
4	0	0	2436	8	3709	73
5	0	0	2496	10	3711	73
6	0	0	2522	10	3708	73
7	0	0	2524	12	3707	72
8	0	0	2577	8	3709	74
9	0	0	2513	6	3711	74
10	0	0	2367	7	3708	72
11	0	0	2231	6	3708	72
12	0	0	2061	8	3707	72
13	0	0	1915	6	3708	73
14	0	0	1837	1	3708	73
15	0	0	1806	1	3707	73
16	0	0	1801	10	3707	71
17	0	0	1836	11	3707	71
18	0	0	1852	10	3708	72
19	0	0	1924	10	3708	73
20	0	0	2041	10	3709	72
21	0	0	2143	12	3708	73
22	0	0	2248	10	3708	71
23	0	0	2337	11	3708	69
24	0	0	2430	12	3709	72
25	0	0	2490	10	3710	73
26	0	0	2516	13	3712	71
27	0	0	2520	12	3708	72
28	0	0	2575	10	3706	74
29	0	0	2513	6	3708	73
30	0	0	2372	8	3708	72
31	0	0	2242	6	3709	72
32	0	0	2071	6	3706	73
33	0	0	1932	8	3708	73
34	0	0	1853	6	3709	73
35	0	0	1816	8	3707	73
36	0	0	1814	10	3707	73
37	0	0	1841	10	3707	71
38	0	0	1845	9	3708	74
39	0	0	1912	10	3708	72
40	0	0	2032	11	3708	73
41	0	0	2132	10	3708	75
42	0	0	2237	10	3709	73
43	0	0	2334	8	3708	73
44	0	0	2425	12	3709	72
45	0	0	2489	10	3709	73
46	0	0	2511	11	3707	72
47	0	0	2518	11	3707	72
48	0	0	2581	10	3708	72
49	0	0	2520	8	3708	72
50	0	0	2380	7	3707	72
51	0	0	2248	6	3707	73
52	0	0	2077	8	3707	73
53	0	0	1930	7	3709	72
54	0	0	1846	6	3708	72
55	0	0	1814	7	3709	73
56	0	0	1813	9	3711	73
57	0	0	1841	11	3707	71
58	0	0	1845	9	3708	73
59	0	0	1909	10	3711	74
60	0	0	2023	10	3708	73
61	0	0	2122	8	3708	73
62	0	0	2227	10	3708	72
63	0	0	2328	9	3708	72
64	0	0	2420	10	3707	72
65	0	0	2480	10	3707	73
66	0	0	2513	11	3707	72
67	0	0	2514	10	3708	74
68	0	0	2572	10	3707	73
69	0	0	2497	6	3708	73
70	0	0	2353	5	3708	73
71	0	0	2227	6	3708	72
72	0	0	2057	5	3707	73
73	0	0	1911	7	3708	73
74	0	0	1831	7	3708	72
75	0	0	1800	8	3708	73
76	0	0	1800	11	3708	72
77	0	0	1832	14	3707	69
78	0	0	1851	8	3708	72
79	0	0	1918	4	3709	72
80	0	0	2036	10	3708	72
81	0	0	2131	10	3707	73
82	0	0	2232	14	3706	72
83	0	0	2324	10	3708	73
84	0	0	2413	10	3706	73
85	0	0	2474	10	3707	72
86	0	0	2502	8	3708	73
87	0	0	2504	10	3708	76
88	0	0	2564	10	3707	71
89	0	0	2501	7	3708	72
90	0	0	2359	7	3708	73
91	0	0	2226	7	3708	72
92	0	0	2048	10	3708	70
93	0	0	1904	6	3708	73
94	0	0	1831	8	3708	73
95	0	0	1805	8	3708	73
96	0	0	1804	11	3707	72
97	0	0	1834	10	3707	72
98	0	0	1846	9	3708	73
99	0	0	1914	11	3705	72
100	0	0	2031	10	3707	73
101	0	0	2134	13	3707	72
102	0	0	2238	10	3708	75
103	0	0	2325	11	3708	71
104	0	0	2417	10	3708	73
105	0	0	2478	10	3708	72
106	0	0	2502	10	3708	73
107	0	0	2496	14	3708	70
108	0	0	2555	10	3711	72
109	0	0	2487	6	3707	72
110	0	0	2341	6	3708	72
111	0	0	2207	6	3708	73
112	0	0	2037	7	3708	73
113	0	0	1903	6	3709	72
114	0	0	1826	8	3707	73
115	0	0	1798	8	3709	74
116	0	0	1793	10	3707	73
117	0	0	1821	11	3707	72
118	0	0	1846	11	3709	73
119	0	0	1920	11	3707	71
120	0	0	2036	10	3708	72
121	0	0	2137	6	3705	74
122	0	0	2231	11	3707	72
123	0	0	2328	10	3708	71
124	0	0	2416	10	3708	73
125	0	0	2474	11	3708	72
126	0	0	2497	13	3709	72
127	0	0	2490	10	3711	74
0	0	0	2539	11	3707	71
1	0	0	2468	7	3707	71
2	0	0	2326	6	3707	73
3	0	0	2198	6	3707	72
4	0	0	2035	7	3707	72
5	0	0	1907	7	3709	72
6	0	0	1837	7	3707	74
7	0	0	1814	8	3707	73
8	0	0	1821	10	3708	73
9	0	0	1852	11	3708	73
10	0	0	1872	9	3710	72
11	0	0	1942	11	3709	73
12	0	0	2052	10	3710	73
13	0	0	2139	11	3709	73
14	0	0	2229	11	3709	72
15	0	0	2318	10	3708	72
16	0	0	2399	7	3709	73
17	0	0	2452	11	3708	72
18	0	0	2469	11	3706	72
19	0	0	2459	7	3708	73
20	0	0	2504	9	3707	71
21	0	0	2435	6	3709	72
22	0	0	2299	8	3707	72
23	0	0	2175	9	3708	72
24	0	0	2022	5	3708	69
25	0	0	1898	8	3708	71
26	0	0	1836	7	3708	73
27	0	0	1822	10	3708	72
28	0	0	1837	9	3710	73
29	0	0	1877	11	3708	72
30	0	0	1906	10	3711	72
31	0	0	1977	11	3709	73
32	0	0	2086	11	3708	75
33	0	0	2177	10	3708	73
34	0	0	2254	10	3708	73
35	0	0	2332	11	3709	73
36	0	0	2401	10	3709	73
37	0	0	2445	10	3709	72
38	0	0	2452	10	3707	72
39	0	0	2424	10	3707	72
40	0	0	2460	10	3708	70
41	0	0	2393	8	3708	73
42	0	0	2266	7	3708	72
43	0	0	2153	7	3708	72
44	0	0	2011	5	3710	72
45	0	0	1898	7	3708	71
46	0	0	1843	9	3710	72
47	0	0	1836	12	3707	73
48	0	0	1853	10	3708	73
49	0	0	1897	8	3710	72
50	0	0	1922	9	3708	70
51	0	0	1986	11	3708	72
52	0	0	2089	11	3707	72
53	0	0	2179	9	3707	73
54	0	0	2259	10	3708	72
55	0	0	2328	10	3708	69
56	0	0	2390	11	3709	73
57	0	0	2422	11	3707	72
58	0	0	2434	11	3709	72
59	0	0	2413	8	3709	72
60	0	0	2442	11	3707	72
61	0	0	2373	4	3709	73
62	0	0	2248	6	3708	72
63	0	0	2132	6	3708	73
64	0	0	1998	4	3711	72
65	0	0	1896	7	3709	72
66	0	0	1852	7	3709	73
67	0	0	1852	10	3709	72
68	0	0	1868	10	3707	73
69	0	0	1912	8	3707	72
70	0	0	1939	11	3706	73
71	0	0	2000	11	3706	74
72	0	0	2099	12	3706	71
73	0	0	2180	11	3707	72
74	0	0	2258	8	3710	72
75	0	0	2319	11	3707	72
76	0	0	2367	12	3708	72
77	0	0	2399	11	3707	73
78	0	0	2402	10	3708	73
79	0	0	2381	8	3709	72
80	0	0	2403	10	3707	74
81	0	0	2341	7	3709	73
82	0	0	2225	7	3708	72
83	0	0	2119	7	3708	72
84	0	0	1996	6	3708	72
85	0	0	1902	7	3708	72
86	0	0	1865	8	3707	73
87	0	0	1865	11	3708	73
88	0	0	1885	13	3708	72
89	0	0	1924	10	3708	73
90	0	0	1954	11	3708	71
91	0	0	2019	11	3708	73
92	0	0	2117	10	3707	73
93	0	0	2189	10	3707	72
94	0	0	2260	8	3709	72
95	0	0	2319	11	3708	71
96	0	0	2370	11	3707	73
97	0	0	2401	10	3708	73
98	0	0	2403	8	3709	73
99	0	0	2377	10	3709	73
100	0	0	2395	13	3708	76
101	0	0	2325	7	3710	75
102	0	0	2212	7	3708	73
103	0	0	2116	8	3706	72
104	0	0	2004	6	3708	72
105	0	0	1917	7	3708	71
106	0	0	1882	8	3708	72
107	0	0	1887	10	3707	72
108	0	0	1909	10	3707	72
109	0	0	1955	8	3707	72
110	0	0	1985	10	3709	71
111	0	0	2048	11	3707	72
112	0	0	2139	11	3708	73
113	0	0	2206	11	3708	72
114	0	0	2271	10	3707	74
115	0	0	2326	10	3709	71
116	0	0	2372	9	3708	72
117	0	0	2398	11	3707	72
118	0	0	2394	12	3708	72
119	0	0	2362	11	3708	76
120	0	0	2370	9	3707	70
121	0	0	2311	6	3705	73
122	0	0	2203	7	3707	72
123	0	0	2108	7	3707	72
124	0	0	2001	7	3706	72
125	0	0	1924	7	3708	74
126	0	0	1893	9	3708	72
127	0	0	1900	10	3707	75
0	0	0	1927	11	3707	72
1	0	0	1980	10	3707	72
2	0	0	2016	9	3706	74
3	0	0	2087	12	3705	72
4	0	0	2182	10	3708	71
5	0	0	2257	13	3708	73
6	0	0	2324	11	3707	72
7	0	0	2374	11	3708	73
8	0	0	2415	12	3704	73
9	0	0	2436	10	3708	72
10	0	0	2425	8	3706	73
11	0	0	2397	11	3708	73
12	0	0	2409	10	3707	71
13	0	0	2347	6	3708	72
14	0	0	2238	7	3707	73
15	0	0	2145	7	3708	69
16	0	0	2041	7	3706	72
17	0	0	1961	7	3708	71
18	0	0	1936	9	3706	72
19	0	0	1944	11	3708	72
20	0	0	1974	8	3709	73
21	0	0	2020	11	3707	72
22	0	0	2057	10	3706	75
23	0	0	2118	10	3704	72
24	0	0	2207	12	3706	73
25	0	0	2283	12	3706	74
26	0	0	2345	11	3707	72
27	0	0	2392	10	3708	71
28	0	0	2428	10	3704	72
29	0	0	2444	10	3708	72
30	0	0	2430	10	3708	72
31	0	0	2396	10	3706	72
32	0	0	2401	8	3708	71
33	0	0	2334	7	3708	71
34	0	0	2228	8	3707	73
35	0	0	2136	7	3708	72
36	0	0	2034	7	3708	72
37	0	0	1966	7	3707	69
38	0	0	1940	9	3707	72
39	0	0	1943	12	3707	73
40	0	0	1969	8	3707	73
41	0	0	2017	10	3706	72
42	0	0	2057	10	3707	71
43	0	0	2114	10	3704	72
44	0	0	2191	10	3706	72
45	0	0	2254	8	3708	73
46	0	0	2307	11	3707	72
47	0	0	2354	10	3707	72
48	0	0	2383	11	3707	73
49	0	0	2386	9	3707	72
50	0	0	2372	7	3708	73
51	0	0	2334	8	3708	72
52	0	0	2338	9	3708	70
53	0	0	2275	8	3709	73
54	0	0	2174	5	3707	73
55	0	0	2089	6	3706	72
56	0	0	2002	6	3707	73
57	0	0	1937	7	3707	72
58	0	0	1915	9	3707	71
59	0	0	1925	10	3706	72
60	0	0	1953	11	3707	74
61	0	0	1995	8	3707	72
62	0	0	2031	10	3706	70
63	0	0	2091	12	3705	72
64	0	0	2168	7	3706	72
65	0	0	2232	9	3709	73
66	0	0	2292	10	3708	72
67	0	0	2332	8	3708	71
68	0	0	2363	11	3709	71
69	0	0	2370	10	3709	73
70	0	0	2346	8	3708	73
71	0	0	2308	9	3708	73
72	0	0	2304	8	3707	72
73	0	0	2234	7	3707	72
74	0	0	2134	6	3706	72
75	0	0	2054	7	3708	72
76	0	0	1965	4	3707	72
77	0	0	1907	7	3707	69
78	0	0	1884	10	3707	72
79	0	0	1895	10	3706	72
80	0	0	1923	8	3707	72
81	0	0	1959	9	3707	72
82	0	0	1999	10	3707	72
83	0	0	2056	10	3707	72
84	0	0	2131	10	3707	72
85	0	0	2187	16	3707	73
86	0	0	2231	9	3708	72
87	0	0	2280	11	3708	70
88	0	0	2310	11	3708	72
89	0	0	2315	11	3707	73
90	0	0	2293	8	3706	72
91	0	0	2254	9	3707	72
92	0	0	2254	10	3707	71
93	0	0	2196	7	3707	72
94	0	0	2107	8	3706	73
95	0	0	2030	7	3708	72
96	0	0	1942	5	3707	72
97	0	0	1881	6	3707	72
98	0	0	1869	10	3708	72
99	0	0	1879	11	3707	72
100	0	0	1906	10	3707	72
101	0	0	1949	11	3707	72
102	0	0	1981	12	3708	72
103	0	0	2040	11	3707	72
104	0	0	2115	10	3708	72
105	0	0	2175	10	3707	74
106	0	0	2225	11	3707	72
107	0	0	2263	11	3707	72
108	0	0	2292	10	3706	72
109	0	0	2305	10	3706	72
110	0	0	2282	7	3706	73
111	0	0	2250	10	3707	72
112	0	0	2249	8	3707	74
113	0	0	2186	7	3707	72
114	0	0	2092	6	3706	72
115	0	0	2004	6	3706	72
116	0	0	1924	7	3708	71
117	0	0	1870	8	3708	72
118	0	0	1862	10	3708	71
119	0	0	1878	11	3707	72
120	0	0	1907	8	3708	71
121	0	0	1949	11	3708	71
122	0	0	1981	11	3707	76
123	0	0	2038	10	3705	72
124	0	0	2112	10	3706	73
125	0	0	2165	10	3706	72
126	0	0	2214	12	3707	74
127	0	0	2255	11	3706	72
0	0	0	2280	12	3704	71
1	0	0	2287	11	3706	72
2	0	0	2272	11	3706	74
3	0	0	2243	10	3707	72
4	0	0	2242	9	3707	75
5	0	0	2179	7	3708	72
6	0	0	2086	7	3707	71
7	0	0	2011	7	3708	72
8	0	0	1926	9	3708	73
9	0	0	1864	7	3706	72
10	0	0	1853	11	3707	71
11	0	0	1868	10	3707	73
12	0	0	1898	10	3706	72
13	0	0	1947	11	3707	71
14	0	0	1987	11	3707	74
15	0	0	2041	9	3704	71
16	0	0	2116	11	3705	72
17	0	0	2174	10	3705	72
18	0	0	2227	11	3707	69
19	0	0	2254	11	3706	72
20	0	0	2271	11	3707	71
21	0	0	2276	10	3705	71
22	0	0	2254	7	3707	73
23	0	0	2219	9	3708	70
24	0	0	2217	9	3707	71
25	0	0	2160	7	3706	71
26	0	0	2073	6	3706	73
27	0	0	1999	7	3706	72
28	0	0	1923	8	3707	72
29	0	0	1870	8	3704	74
30	0	0	1859	11	3703	75
31	0	0	1876	10	3703	73
32	0	0	1898	10	3706	72
33	0	0	1945	13	3706	72
34	0	0	1975	11	3707	72
35	0	0	2021	11	3705	72
36	0	0	2092	11	3707	72
37	0	0	2148	10	3707	72
38	0	0	2199	13	3707	73
39	0	0	2239	10	3708	72
40	0	0	2263	11	3706	73
41	0	0	2272	10	3708	73
42	0	0	2249	11	3707	74
43	0	0	2213	10	3707	73
44	0	0	2209	9	3707	76
45	0	0	2154	6	3707	72
46	0	0	2067	6	3706	73
47	0	0	1996	7	3706	71
48	0	0	1915	7	3706	73
49	0	0	1866	7	3706	74
50	0	0	1857	11	3705	71
51	0	0	1877	12	3706	72
52	0	0	1904	11	3706	72
53	0	0	1948	13	3707	73
54	0	0	1982	11	3707	73
55	0	0	2032	12	3708	72
56	0	0	2104	10	3707	72
57	0	0	2155	10	3707	72
58	0	0	2202	13	3708	72
59	0	0	2231	11	3708	73
60	0	0	2256	11	3706	71
61	0	0	2264	10	3707	73
62	0	0	2240	9	3706	73
63	0	0	2203	11	3706	73
64	0	0	2199	8	3706	75
65	0	0	2142	7	3708	73
66	0	0	2058	7	3706	73
67	0	0	1988	7	3706	72
68	0	0	1918	9	3706	73
69	0	0	1867	7	3707	71
70	0	0	1856	11	3708	71
71	0	0	1876	10	3707	72
72	0	0	1903	11	3707	73
73	0	0	1944	11	3707	73
74	0	0	1976	11	3708	72
75	0	0	2027	13	3707	73
76	0	0	2095	9	3706	73
77	0	0	2144	10	3707	73
78	0	0	2187	10	3707	72
79	0	0	2220	8	3707	73
80	0	0	2248	10	3707	72
81	0	0	2252	12	3706	72
82	0	0	2229	8	3705	72
83	0	0	2194	9	3706	72
84	0	0	2194	9	3706	71
85	0	0	2138	8	3707	73
86	0	0	2058	6	3708	71
87	0	0	1988	10	3707	73
88	0	0	1911	8	3708	73
89	0	0	1863	7	3708	72
90	0	0	1854	11	3708	72
91	0	0	1872	10	3708	73
92	0	0	1901	10	3704	75
93	0	0	1938	10	3706	74
94	0	0	1970	10	3707	73
95	0	0	2015	10	3708	73
96	0	0	2079	11	3706	72
97	0	0	2134	12	3706	72
98	0	0	2179	10	3705	72
99	0	0	2218	11	3707	72
100	0	0	2244	9	3707	73
101	0	0	2244	12	3706	72
102	0	0	2226	9	3707	73
103	0	0	2195	9	3707	71
104	0	0	2198	8	3707	72
105	0	0	2139	7	3708	73
106	0	0	2054	7	3709	75
107	0	0	1985	7	3705	75
108	0	0	1916	8	3706	74
109	0	0	1868	8	3706	74
110	0	0	1853	10	3707	72
111	0	0	1868	11	3706	73
112	0	0	1894	10	3706	73
113	0	0	1932	10	3705	71
114	0	0	1964	10	3706	72
115	0	0	2020	11	3707	72
116	0	0	2088	10	3706	73
117	0	0	2141	11	3706	71
118	0	0	2183	10	3707	72
119	0	0	2216	8	3707	73
120	0	0	2242	11	3707	71
121	0	0	2250	11	3707	73
122	0	0	2227	9	3707	73
123	0	0	2195	6	3709	72
124	0	0	2199	8	3709	69
125	0	0	2143	6	3709	72
126	0	0	2057	6	3707	73
127	0	0	1973	8	3707	73
0	0	0	1898	6	3706	75
1	0	0	1847	7	3707	69
2	0	0	1841	10	3707	72
3	0	0	1861	11	3708	72
4	0	0	1896	7	3708	71
5	0	0	1941	7	3707	72
6	0	0	1975	10	3709	74
7	0	0	2017	10	3711	72
8	0	0	2076	11	3707	72
9	0	0	2124	10	3708	71
10	0	0	2169	7	3709	72
11	0	0	2204	10	3708	71
12	0	0	2230	11	3708	71
13	0	0	2239	10	3708	73
14	0	0	2217	9	3708	73
15	0	0	2188	7	3707	71
16	0	0	2185	9	3708	72
17	0	0	2133	7	3707	69
18	0	0	2052	7	3708	72
19	0	0	1985	4	3704	75
20	0	0	1913	3	3707	72
21	0	0	1862	8	3707	71
22	0	0	1859	13	3707	74
23	0	0	1873	10	3708	72
24	0	0	1899	13	3708	74
25	0	0	1938	8	3709	72
26	0	0	1967	10	3708	71
27	0	0	2012	10	3708	72
28	0	0	2076	10	3708	73
29	0	0	2125	11	3709	71
30	0	0	2170	10	3709	71
31	0	0	2201	13	3708	72
32	0	0	2229	8	3709	72
33	0	0	2237	7	3708	73
34	0	0	2219	9	3708	76
35	0	0	2193	6	3709	72
36	0	0	2189	9	3708	72
37	0	0	2135	6	3708	72
38	0	0	2054	7	3708	72
39	0	0	1990	8	3707	72
40	0	0	1919	5	3707	73
41	0	0	1863	7	3708	73
42	0	0	1856	10	3709	69
43	0	0	1871	10	3709	73
44	0	0	1896	11	3708	71
45	0	0	1937	9	3709	71
46	0	0	1973	11	3708	71
47	0	0	2021	11	3708	74
48	0	0	2090	10	3708	73
49	0	0	2143	12	3708	73
50	0	0	2187	11	3707	70
51	0	0	2212	13	3708	74
52	0	0	2235	9	3708	72
53	0	0	2234	7	3708	73
54	0	0	2214	8	3709	72
55	0	0	2182	10	3709	72
56	0	0	2188	12	3708	73
57	0	0	2135	7	3703	73
58	0	0	2055	6	3708	73
59	0	0	1986	8	3708	73
60	0	0	1918	7	3707	73
61	0	0	1871	8	3709	72
62	0	0	1864	10	3709	72
63	0	0	1877	10	3710	72
64	0	0	1899	12	3708	73
65	0	0	1934	7	3707	72
66	0	0	1963	10	3709	75
67	0	0	2016	11	3708	74
68	0	0	2085	10	3708	73
69	0	0	2134	10	3710	71
70	0	0	2181	9	3706	74
71	0	0	2214	11	3708	74
72	0	0	2233	10	3708	72
73	0	0	2235	11	3707	74
74	0	0	2220	7	3708	73
75	0	0	2184	7	3708	72
76	0	0	2182	9	3709	74
77	0	0	2129	7	3708	74
78	0	0	2039	5	3709	72
79	0	0	1964	7	3709	72
80	0	0	1895	5	3708	75
81	0	0	1854	8	3709	73
82	0	0	1846	11	3712	72
83	0	0	1866	10	3708	73
84	0	0	1899	7	3707	72
85	0	0	1935	11	3707	69
86	0	0	1971	11	3707	72
87	0	0	2019	10	3707	75
88	0	0	2079	11	3708	72
89	0	0	2129	10	3707	72
90	0	0	2171	11	3707	71
91	0	0	2204	11	3708	76
92	0	0	2222	11	3708	73
93	0	0	2226	10	3709	73
94	0	0	2208	7	3708	72
95	0	0	2177	10	3709	72
96	0	0	2177	13	3709	74
97	0	0	2130	7	3709	76
98	0	0	2052	7	3708	73
99	0	0	1986	6	3708	72
100	0	0	1915	7	3708	69
101	0	0	1869	7	3709	75
102	0	0	1868	10	3708	71
103	0	0	1881	11	3708	72
104	0	0	1911	9	3708	73
105	0	0	1950	8	3708	73
106	0	0	1977	10	3709	72
107	0	0	2021	11	3708	74
108	0	0	2085	11	3709	72
109	0	0	2135	13	3712	72
110	0	0	2175	9	3708	73
111	0	0	2207	11	3710	69
112	0	0	2230	11	3709	75
113	0	0	2233	9	3710	72
114	0	0	2217	8	3711	74
115	0	0	2182	8	3708	73
116	0	0	2186	9	3708	72
117	0	0	2128	7	3708	75
118	0	0	2050	7	3708	73
119	0	0	1986	6	3708	72
120	0	0	1918	8	3708	72
121	0	0	1869	9	3708	72
122	0	0	1863	10	3708	72
123	0	0	1872	11	3708	73
124	0	0	1904	11	3709	72
125	0	0	1949	8	3708	73
126	0	0	1984	10	3708	72
127	0	0	2036	11	3707	75
0	0	0	2102	10	3708	72
1	0	0	2145	10	3709	72
2	0	0	2178	12	3709	72
3	0	0	2204	11	3709	73
4	0	0	2216	8	3709	75
5	0	0	2219	11	3708	73
6	0	0	2200	7	3708	72
7	0	0	2169	10	3708	76
8	0	0	2176	11	3708	71
9	0	0	2125	7	3708	77
10	0	0	2052	9	3709	72
11	0	0	1984	11	3708	70
12	0	0	1915	4	3708	73
13	0	0	1871	8	3710	74
14	0	0	1861	7	3709	74
15	0	0	1875	10	3708	72
16	0	0	1898	10	3709	72
17	0	0	1932	12	3710	76
18	0	0	1967	12	3710	73
19	0	0	2022	11	3708	74
20	0	0	2090	10	3707	72
21	0	0	2137	10	3708	72
22	0	0	2178	12	3709	76
23	0	0	2213	13	3709	75
24	0	0	2224	13	3707	71
25	0	0	2229	11	3707	73
26	0	0	2207	8	3708	71
27	0	0	2172	8	3709	72
28	0	0	2163	8	3709	71
29	0	0	2110	7	3710	73
30	0	0	2030	8	3708	72
31	0	0	1967	7	3708	74
32	0	0	1909	8	3708	73
33	0	0	1869	8	3710	75
34	0	0	1864	10	3709	71
35	0	0	1881	12	3708	73
36	0	0	1911	10	3708	72
37	0	0	1950	12	3708	76
38	0	0	1982	9	3709	72
39	0	0	2025	10	3708	71
40	0	0	2082	11	3707	72
41	0	0	2131	10	3709	71
42	0	0	2172	11	3709	49
43	0	0	2202	9	3708	72
44	0	0	2225	11	3708	71
45	0	0	2230	12	3709	72
46	0	0	2213	6	3710	72
47	0	0	2178	10	3708	71
48	0	0	2176	10	3709	72
49	0	0	2127	7	3708	70
50	0	0	2051	7	3709	73
51	0	0	1985	6	3708	74
52	0	0	1920	8	3710	76
53	0	0	1877	7	3708	71
54	0	0	1878	10	3708	71
55	0	0	1888	10	3707	72
56	0	0	1914	12	3708	73
57	0	0	1956	10	3709	75
58	0	0	1979	10	3708	72
59	0	0	2024	11	3708	72
60	0	0	2084	11	3708	72
61	0	0	2132	11	3709	71
62	0	0	2174	11	3709	72
63	0	0	2204	7	3708	72
64	0	0	2225	11	3708	71
65	0	0	2230	12	3708	73
66	0	0	2206	8	3709	72
67	0	0	2175	12	3709	70
68	0	0	2176	10	3710	72
69	0	0	2126	7	3707	71
70	0	0	2048	7	3708	73
71	0	0	1980	8	3708	73
72	0	0	1916	10	3709	73
73	0	0	1870	7	3710	72
74	0	0	1861	10	3708	72
75	0	0	1879	7	3707	72
76	0	0	1907	12	3708	73
77	0	0	1951	10	3709	73
78	0	0	1986	10	3708	72
79	0	0	2033	11	3708	72
80	0	0	2089	11	3708	72
81	0	0	2130	11	3708	71
82	0	0	2171	10	3710	75
83	0	0	2191	10	3709	72
84	0	0	2213	11	3709	72
85	0	0	2218	11	3709	72
86	0	0	2205	9	3710	71
87	0	0	2175	8	3708	71
88	0	0	2174	9	3709	73
89	0	0	2131	7	3708	71
90	0	0	2059	8	3708	73
91	0	0	1992	8	3707	73
92	0	0	1922	10	3708	70
93	0	0	1873	7	3709	72
94	0	0	1864	10	3708	72
95	0	0	1874	12	3708	73
96	0	0	1901	12	3708	73
97	0	0	1941	7	3709	72
98	0	0	1972	9	3709	74
99	0	0	2025	12	3708	72
100	0	0	2096	12	3709	73
101	0	0	2143	10	3708	73
102	0	0	2183	7	3710	73
103	0	0	2208	10	3709	72
104	0	0	2228	11	3708	72
105	0	0	2233	10	3708	73
106	0	0	2214	10	3708	73
107	0	0	2183	7	3707	72
108	0	0	2182	9	3708	75
109	0	0	2135	6	3707	72
110	0	0	2053	7	3707	73
111	0	0	1985	8	3707	72
112	0	0	1919	7	3707	72
113	0	0	1871	6	3709	74
114	0	0	1864	11	3708	74
115	0	0	1881	8	3709	72
116	0	0	1911	11	3710	72
117	0	0	1955	11	3710	72
118	0	0	1984	10	3710	69
119	0	0	2025	11	3710	72
120	0	0	2081	11	3708	73
121	0	0	2128	11	3708	72
122	0	0	2170	10	3710	73
123	0	0	2201	9	3708	72
124	0	0	2232	10	3708	74
125	0	0	2240	10	3709	73
126	0	0	2218	11	3708	72
127	0	0	2184	11	3708	72
0	0	0	2184	10	3708	72
1	0	0	2133	7	3708	72
2	0	0	2050	7	3708	73
3	0	0	1985	8	3708	72
4	0	0	1916	7	3708	72
5	0	0	1868	6	3710	74
6	0	0	1853	9	3711	72
7	0	0	1866	11	3710	72
8	0	0	1892	10	3708	72
9	0	0	1928	7	3709	72
10	0	0	1952	12	3709	73
11	0	0	1999	10	3708	73
12	0	0	2056	11	3708	72
13	0	0	2109	10	3707	72
14	0	0	2145	13	3709	73
15	0	0	2176	9	3708	72
16	0	0	2203	10	3708	72
17	0	0	2212	9	3708	72
18	0	0	2200	10	3708	72
19	0	0	2170	9	3708	72
20	0	0	2176	10	3708	73
21	0	0	2132	7	3712	74
22	0	0	2048	7	3708	73
23	0	0	1971	6	3708	73
24	0	0	1893	3	3709	74
25	0	0	1830	6	3709	73
26	0	0	1813	9	3708	72
27	0	0	1813	11	3707	75
28	0	0	1829	10	3707	72
29	0	0	1852	11	3707	72
30	0	0	1767	7	3708	72
31	0	0	1535	8	3707	76
32	0	0	1577	10	3707	73
33	0	0	1698	10	3707	72
34	0	0	2038	9	3708	74
35	0	0	2534	12	3708	73
36	0	0	3161	11	3709	73
37	0	0	3543	10	3709	71
38	0	0	3772	7	3708	72
39	0	0	3895	7	3709	72
40	0	0	3967	12	3710	73
41	0	0	4000	13	3709	71
42	0	0	4018	10	3708	73
43	0	0	4028	10	3708	72
44	0	0	3066	8	3708	73
45	0	0	1830	6	3709	73
46	0	0	1036	7	3706	76
47	0	0	593	7	3709	73
48	0	0	337	5	3708	71
49	0	0	197	8	3704	74
50	0	0	123	7	3709	72
51	0	0	84	7	3708	71
52	0	0	67	10	3709	73
53	0	0	293	14	3707	71
54	0	0	996	10	3709	73
55	0	0	1814	9	3710	72
56	0	0	2715	10	3709	74
57	0	0	3279	11	3710	71
58	0	0	3615	10	3708	74
59	0	0	3810	9	3708	74
60	0	0	3918	12	3709	74
61	0	0	3976	11	3708	71
62	0	0	4007	11	3708	72
63	0	0	3932	7	3708	72
64	0	0	2849	4	3708	75
65	0	0	1666	7	3708	72
66	0	0	946	6	3708	71
67	0	0	540	6	3706	75
68	0	0	312	6	3710	73
69	0	0	189	6	3709	73
70	0	0	111	8	3709	73
71	0	0	85	6	3710	73
72	0	0	67	7	3708	72
73	0	0	396	10	3709	72
74	0	0	1095	12	3709	74
75	0	0	1849	9	3709	73
76	0	0	2727	10	3707	71
77	0	0	3292	7	3708	72
78	0	0	3625	9	3712	70
79	0	0	3816	9	3708	72
80	0	0	3926	9	3708	72
81	0	0	3983	10	3707	69
82	0	0	4014	14	3707	72
83	0	0	3861	6	3708	72
84	0	0	2760	6	3708	72
85	0	0	1621	5	3708	72
86	0	0	924	6	3707	71
87	0	0	529	6	3707	73
88	0	0	308	3	3708	73
89	0	0	186	4	3708	75
90	0	0	120	7	3709	74
91	0	0	90	7	3709	72
92	0	0	76	8	3708	73
93	0	0	471	9	3710	74
94	0	0	1168	10	3709	73
95	0	0	1941	12	3708	72
96	0	0	2800	4	3708	72
97	0	0	3335	11	3707	73
98	0	0	3651	10	3707	71
99	0	0	3835	11	3707	71
100	0	0	3937	9	3708	72
101	0	0	3993	10	3708	67
102	0	0	4020	9	3709	72
103	0	0	3780	8	3708	73
104	0	0	2682	6	3707	71
105	0	0	1568	4	3709	73
106	0	0	897	6	3709	69
107	0	0	517	6	3709	73
108	0	0	300	6	3708	76
109	0	0	187	8	3708	73
110	0	0	125	5	3707	73
111	0	0	95	7	3707	71
112	0	0	81	7	3707	73
113	0	0	496	8	3708	73
114	0	0	1178	8	3708	73
115	0	0	1950	10	3708	71
116	0	0	2800	11	3709	72
117	0	0	3342	11	3708	73
118	0	0	3658	9	3709	73
119	0	0	3840	11	3709	72
120	0	0	3943	9	3709	72
121	0	0	3997	10	3708	69
122	0	0	4025	10	3710	71
123	0	0	3629	5	3710	75
124	0	0	2555	4	3708	73
125	0	0	1472	6	3710	71
126	0	0	853	6	3708	72
127	0	0	494	6	3708	73
0	0	0	293	3	3708	73
1	0	0	185	8	3707	72
2	0	0	127	4	3708	72
3	0	0	99	6	3709	73
4	0	0	119	7	3707	72
5	0	0	638	9	3708	71
6	0	0	1299	11	3709	72
7	0	0	2022	12	3708	72
8	0	0	2825	10	3708	72
9	0	0	3357	11	3708	73
10	0	0	3671	8	3709	73
11	0	0	3849	9	3707	72
12	0	0	3949	8	3709	72
13	0	0	4005	10	3708	72
14	0	0	4008	8	3708	73
15	0	0	3399	4	3708	73
16	0	0	2396	8	3708	72
17	0	0	1392	3	3708	72
18	0	0	810	6	3707	72
19	0	0	470	4	3708	73
20	0	0	285	5	3706	71
21	0	0	183	7	3706	73
22	0	0	130	6	3708	72
23	0	0	104	7	3707	72
24	0	0	330	8	3709	71
25	0	0	871	7	3709	73
26	0	0	1476	12	3708	72
27	0	0	2116	8	3709	73
28	0	0	2821	10	3708	72
29	0	0	3357	10	3706	73
30	0	0	3671	9	3710	75
31	0	0	3852	11	3707	72
32	0	0	3953	10	3708	72
33	0	0	4015	10	3708	70
34	0	0	3799	6	3707	72
35	0	0	3184	6	3708	72
36	0	0	2310	6	3710	73
37	0	0	1385	3	3707	73
38	0	0	811	6	3708	73
39	0	0	474	6	3708	73
40	0	0	291	5	3707	71
41	0	0	187	5	3706	71
42	0	0	136	7	3708	72
43	0	0	109	7	3708	72
44	0	0	604	10	3708	73
45	0	0	1109	12	3708	72
46	0	0	1643	10	3708	72
47	0	0	2174	3	3708	73
48	0	0	2760	11	3708	72
49	0	0	3256	10	3708	73
50	0	0	3590	8	3708	73
51	0	0	3728	10	3706	72
52	0	0	3888	9	3709	74
53	0	0	3971	10	3707	72
54	0	0	3547	6	3709	72
55	0	0	2981	9	3708	72
56	0	0	2233	5	3707	72
57	0	0	1458	5	3708	73
58	0	0	908	6	3708	72
59	0	0	570	4	3708	73
60	0	0	367	8	3708	72
61	0	0	350	8	3707	72
62	0	0	315	11	3708	73
63	0	0	498	11	3708	74
64	0	0	948	9	3708	73
65	0	0	1365	8	3708	73
66	0	0	1805	8	3708	72
67	0	0	2240	9	3709	72
68	0	0	2710	9	3708	72
69	0	0	3102	7	3709	72
70	0	0	3353	11	3708	74
71	0	0	3443	10	3706	72
72	0	0	3708	13	3708	73
73	0	0	3736	6	3708	73
74	0	0	3262	6	3708	73
75	0	0	2782	5	3709	73
76	0	0	2164	7	3708	72
77	0	0	1534	7	3709	76
78	0	0	1105	6	3708	72
79	0	0	844	6	3709	72
80	0	0	697	8	3708	73
81	0	0	689	11	3708	72
82	0	0	663	8	3709	73
83	0	0	832	11	3709	72
84	0	0	1213	12	3708	73
85	0	0	1561	10	3708	72
86	0	0	1918	15	3708	72
87	0	0	2279	15	3709	72
88	0	0	2662	10	3707	73
89	0	0	2967	8	3709	74
90	0	0	3160	11	3708	71
91	0	0	3211	11	3707	72
92	0	0	3461	11	3709	73
93	0	0	3401	6	3708	73
94	0	0	3013	4	3710	72
95	0	0	2623	6	3709	71
96	0	0	2115	8	3712	71
97	0	0	1599	9	3709	73
98	0	0	1251	6	3708	73
99	0	0	1056	3	3710	72
100	0	0	952	7	3708	68
101	0	0	962	9	3710	74
102	0	0	936	13	3708	73
103	0	0	1079	11	3707	73
104	0	0	1406	6	3709	72
105	0	0	1707	11	3708	69
106	0	0	2006	11	3709	73
107	0	0	2294	8	3708	74
108	0	0	2604	9	3706	73
109	0	0	2853	7	3710	72
110	0	0	2999	11	3709	68
111	0	0	3030	9	3712	71
112	0	0	3241	13	3709	72
113	0	0	3179	7	3708	73
114	0	0	2836	4	3709	72
115	0	0	2498	7	3708	68
116	0	0	2055	7	3710	74
117	0	0	1626	6	3708	73
118	0	0	1350	7	3709	72
119	0	0	1199	5	3707	73
120	0	0	1128	7	3708	74
121	0	0	1152	9	3709	73
122	0	0	1156	11	3708	73
123	0	0	1291	10	3709	73
124	0	0	1576	7	3707	72
125	0	0	1828	10	3708	74
126	0	0	2076	10	3710	72
127	0	0	2318	8	3709	71
0	0	0	2572	10	3710	73
1	0	0	2768	9	3708	72
2	0	0	2880	7	3709	74
3	0	0	2890	8	3712	71
4	0	0	3062	9	3709	72
5	0	0	2992	6	3708	73
6	0	0	2698	7	3707	72
7	0	0	2399	7	3708	68
8	0	0	2024	6	3709	73
9	0	0	1665	7	3709	72
10	0	0	1439	6	3707	72
11	0	0	1317	7	3708	73
12	0	0	1265	9	3708	72
13	0	0	1300	11	3707	71
14	0	0	1313	9	3708	73
15	0	0	1433	10	3708	72
16	0	0	1674	10	3707	74
17	0	0	1899	10	3709	73
18	0	0	2117	10	3710	72
19	0	0	2322	13	3710	73
20	0	0	2534	10	3708	72
21	0	0	2704	8	3709	72
22	0	0	2796	10	3709	76
23	0	0	2800	10	3708	72
24	0	0	2954	9	3708	72
25	0	0	2887	6	3707	73
26	0	0	2609	4	3707	72
27	0	0	2346	8	3708	75
28	0	0	2014	8	3707	73
29	0	0	1687	5	3708	73
30	0	0	1488	6	3708	72
31	0	0	1386	7	3707	74
32	0	0	1352	7	3708	72
33	0	0	1390	11	3708	71
34	0	0	1398	9	3709	72
35	0	0	1494	9	3710	73
36	0	0	1718	12	3708	72
37	0	0	1913	9	3708	73
38	0	0	2116	10	3708	73
39	0	0	2312	11	3709	72
40	0	0	2518	10	3707	73
41	0	0	2683	11	3707	71
42	0	0	2771	12	3707	74
43	0	0	2776	12	3708	71
44	0	0	2927	12	3708	72
45	0	0	2874	7	3707	73
46	0	0	2615	6	3708	75
47	0	0	2361	6	3708	71
48	0	0	2029	5	3709	73
49	0	0	1711	4	3708	74
50	0	0	1521	6	3709	73
51	0	0	1416	5	3709	73
52	0	0	1368	5	3709	71
53	0	0	1395	10	3709	73
54	0	0	1397	12	3708	73
55	0	0	1497	10	3709	73
56	0	0	1722	10	3707	73
57	0	0	1922	8	3707	73
58	0	0	2120	10	3708	73
59	0	0	2313	8	3712	69
60	0	0	2527	11	3707	72
61	0	0	2691	8	3708	73
62	0	0	2781	9	3708	73
63	0	0	2792	10	3708	72
64	0	0	2940	9	3709	72
65	0	0	2889	6	3708	73
66	0	0	2632	8	3707	72
67	0	0	2383	8	3708	75
68	0	0	2054	7	3708	71
69	0	0	1719	6	3709	73
70	0	0	1508	6	3710	73
71	0	0	1396	6	3708	73
72	0	0	1340	6	3708	73
73	0	0	1356	11	3708	73
74	0	0	1354	11	3708	73
75	0	0	1459	10	3707	73
76	0	0	1696	10	3708	73
77	0	0	1901	9	3708	73
78	0	0	2103	10	3709	73
79	0	0	2305	12	3708	73
80	0	0	2517	14	3708	73
81	0	0	2690	10	3708	73
82	0	0	2787	9	3709	73
83	0	0	2799	8	3709	73
84	0	0	2962	9	3710	72
85	0	0	2916	7	3708	72
86	0	0	2657	5	3710	73
87	0	0	2397	6	3709	75
88	0	0	2065	5	3710	74
89	0	0	1725	6	3710	73
90	0	0	1504	6	3708	73
91	0	0	1385	6	3709	75
92	0	0	1331	6	3707	72
93	0	0	1357	11	3708	71
94	0	0	1349	10	3708	73
95	0	0	1446	10	3709	72
96	0	0	1677	12	3708	73
97	0	0	1887	8	3708	73
98	0	0	2099	10	3711	73
99	0	0	2307	11	3709	73
100	0	0	2526	10	3710	71
101	0	0	2701	8	3709	73
102	0	0	2797	10	3708	74
103	0	0	2817	11	3710	73
104	0	0	2983	9	3709	73
105	0	0	2943	6	3707	73
106	0	0	2684	6	3707	72
107	0	0	2420	4	3707	72
108	0	0	2070	7	3706	70
109	0	0	1730	7	3708	73
110	0	0	1503	7	3709	72
111	0	0	1374	6	3707	73
112	0	0	1308	7	3708	72
113	0	0	1316	9	3710	73
114	0	0	1300	11	3708	72
115	0	0	1390	9	3708	73
116	0	0	1625	10	3709	75
117	0	0	1844	7	3709	72
118	0	0	2070	11	3708	70
119	0	0	2288	7	3708	72
120	0	0	2527	9	3708	72
121	0	0	2718	10	3708	72
122	0	0	2835	10	3708	73
123	0	0	2858	11	3709	72
124	0	0	3032	11	3708	72
125	0	0	2998	6	3708	72
126	0	0	2728	5	3707	73
127	0	0	2452	5	3707	72
0	0	0	2091	6	3710	74
1	0	0	1719	3	3708	71
2	0	0	1470	6	3708	73
3	0	0	1331	8	3708	73
4	0	0	1261	9	3707	72
5	0	0	1273	9	3709	73
6	0	0	1259	13	3710	72
7	0	0	1348	16	3707	73
8	0	0	1579	10	3708	73
9	0	0	1806	10	3708	73
10	0	0	2039	9	3711	72
11	0	0	2268	10	3709	72
12	0	0	2519	10	3707	72
13	0	0	2732	10	3708	73
14	0	0	2864	10	3707	74
15	0	0	2901	10	3707	72
16	0	0	3107	10	3709	73
17	0	0	3088	6	3707	72
18	0	0	2808	7	3708	73
19	0	0	2508	5	3708	72
20	0	0	2115	6	3707	72
21	0	0	1703	7	3708	69
22	0	0	1434	7	3710	73
23	0	0	1277	5	3709	73
24	0	0	1190	5	3709	73
25	0	0	1191	9	3707	73
26	0	0	1172	5	3708	72
27	0	0	1268	10	3708	73
28	0	0	1515	14	3707	72
29	0	0	1755	11	3706	72
30	0	0	1999	8	3707	73
31	0	0	2259	7	3709	72
32	0	0	2534	7	3707	72
33	0	0	2770	10	3707	73
34	0	0	2925	11	3708	72
35	0	0	2978	10	3707	73
36	0	0	3202	10	3709	73
37	0	0	3194	6	3708	73
38	0	0	2902	6	3708	72
39	0	0	2594	6	3709	76
40	0	0	2166	4	3707	74
41	0	0	1711	3	3709	73
42	0	0	1399	6	3708	72
43	0	0	1214	6	3708	73
44	0	0	1102	7	3707	72
45	0	0	1080	12	3708	73
46	0	0	1024	3	3708	73
47	0	0	1111	16	3706	73
48	0	0	1388	10	3707	72
49	0	0	1655	11	3707	72
50	0	0	1931	9	3707	73
51	0	0	2229	7	3708	72
52	0	0	2550	10	3707	72
53	0	0	2829	10	3708	73
54	0	0	3021	11	3708	72
55	0	0	3097	10	3707	72
56	0	0	3369	12	3709	72
57	0	0	3379	2	3709	73
58	0	0	3063	6	3708	73
59	0	0	2723	8	3707	72
60	0	0	2250	4	3708	74
61	0	0	1728	1	3708	73
62	0	0	1362	8	3704	73
63	0	0	1117	6	3707	72
64	0	0	958	7	3706	72
65	0	0	904	6	3707	72
66	0	0	825	4	3708	74
67	0	0	911	10	3709	73
68	0	0	1221	11	3707	73
69	0	0	1527	9	3708	70
70	0	0	1839	9	3707	72
71	0	0	2179	8	3712	72
72	0	0	2573	10	3710	73
73	0	0	2909	14	3708	72
74	0	0	3154	11	3709	71
75	0	0	3265	10	3709	72
76	0	0	3574	10	3709	73
77	0	0	3676	6	3708	73
78	0	0	3309	2	3710	72
79	0	0	2905	5	3708	71
80	0	0	2346	6	3708	73
81	0	0	1731	4	3708	73
82	0	0	1269	5	3707	73
83	0	0	952	7	3707	73
84	0	0	736	7	3708	71
85	0	0	651	7	3707	73
86	0	0	554	7	3709	73
87	0	0	639	10	3708	73
88	0	0	985	9	3708	73
89	0	0	1337	11	3711	72
90	0	0	1713	9	3708	73
91	0	0	2132	9	3710	72
92	0	0	2607	10	3708	73
93	0	0	3035	8	3710	73
94	0	0	3356	9	3709	72
95	0	0	3512	9	3706	73
96	0	0	3750	8	3708	72
97	0	0	3885	10	3707	73
98	0	0	3624	6	3707	73
99	0	0	3142	3	3708	73
100	0	0	2480	6	3708	73
101	0	0	1734	6	3709	72
102	0	0	1154	6	3708	73
103	0	0	757	6	3708	72
104	0	0	473	8	3709	72
105	0	0	338	6	3712	72
106	0	0	226	6	3709	73
107	0	0	271	9	3708	73
108	0	0	683	9	3708	73
109	0	0	1110	11	3707	72
110	0	0	1563	11	3708	73
111	0	0	2058	9	3710	73
112	0	0	2644	9	3709	72
113	0	0	3184	11	3707	72
114	0	0	3566	10	3708	72
115	0	0	3788	10	3708	72
