# bioPlux Text File Format
# Version: 1
# StartDateTime: 2011-07-18 14:31:02
# SamplingFrequency: 1000
# SampledChannels: 1 2 3 4
# SamplingResolution: 12
# AcquiringDevice: 00:07:80:42:0F:8B
# EndOfHeader
0	0	0	1985	831	2749	58
1	0	0	2011	833	2749	59
2	0	0	2001	831	2750	58
3	0	0	1985	830	2752	57
4	0	0	1948	829	2755	58
5	0	0	1904	830	2758	59
6	0	0	1861	830	2759	59
7	0	0	1812	831	2759	58
8	0	0	1804	835	2758	58
9	0	0	1814	836	2754	58
10	0	0	1798	831	2750	59
11	0	0	1795	834	2749	59
12	0	0	1810	835	2751	59
13	0	0	1808	835	2752	56
14	0	0	1822	835	2755	57
15	0	0	1849	834	2757	58
16	0	0	1876	834	2759	58
17	0	0	1932	837	2759	57
18	0	0	1986	834	2757	57
19	0	0	2016	835	2753	56
20	0	0	2060	831	2750	56
21	0	0	2082	835	2749	56
22	0	0	2093	831	2750	57
23	0	0	2075	829	2752	58
24	0	0	2012	829	2755	58
25	0	0	1940	828	2757	57
26	0	0	1914	832	2758	56
27	0	0	1929	834	2760	58
28	0	0	1946	834	2758	59
29	0	0	1950	835	2754	58
30	0	0	1950	835	2750	58
31	0	0	1938	831	2750	58
32	0	0	1892	831	2751	58
33	0	0	1895	835	2753	58
34	0	0	1970	834	2755	57
35	0	0	2040	831	2757	57
36	0	0	2058	832	2759	58
37	0	0	2018	831	2759	57
38	0	0	1993	831	2757	56
39	0	0	1986	832	2755	56
40	0	0	2008	832	2750	57
41	0	0	2056	832	2750	58
42	0	0	2087	831	2750	57
43	0	0	2081	831	2752	57
44	0	0	2057	829	2756	60
45	0	0	1999	827	2757	57
46	0	0	1920	829	2759	56
47	0	0	1885	831	2759	57
48	0	0	1870	831	2758	59
49	0	0	1867	834	2754	58
50	0	0	1871	833	2750	60
51	0	0	1859	834	2750	59
52	0	0	1859	835	2750	58
53	0	0	1852	834	2752	57
54	0	0	1867	834	2756	57
55	0	0	1902	834	2757	58
56	0	0	1934	833	2759	58
57	0	0	1980	832	2759	57
58	0	0	2028	833	2757	55
59	0	0	2053	833	2754	57
60	0	0	2063	831	2749	57
61	0	0	2052	829	2748	56
62	0	0	2022	827	2750	57
63	0	0	2006	830	2751	59
64	0	0	1999	831	2755	57
65	0	0	1976	829	2758	59
66	0	0	1929	828	2758	56
67	0	0	1870	827	2759	58
68	0	0	1818	829	2757	58
69	0	0	1780	829	2754	59
70	0	0	1739	830	2752	58
71	0	0	1740	834	2748	58
72	0	0	1752	831	2750	59
73	0	0	1785	834	2752	57
74	0	0	1817	833	2755	58
75	0	0	1833	834	2757	58
76	0	0	1834	831	2758	56
77	0	0	1816	831	2759	56
78	0	0	1834	832	2757	58
79	0	0	1869	832	2754	55
80	0	0	1920	830	2750	58
81	0	0	2008	831	2748	58
82	0	0	2075	829	2750	58
83	0	0	2078	829	2753	56
84	0	0	2032	827	2755	57
85	0	0	1980	828	2757	59
86	0	0	1931	828	2759	58
87	0	0	1893	831	2759	58
88	0	0	1882	830	2758	58
89	0	0	1835	829	2753	58
90	0	0	1770	829	2750	60
91	0	0	1735	830	2750	58
92	0	0	1735	832	2750	58
93	0	0	1767	833	2753	57
94	0	0	1795	832	2755	59
95	0	0	1800	833	2757	59
96	0	0	1856	832	2759	58
97	0	0	1901	832	2759	58
98	0	0	1930	833	2758	59
99	0	0	1954	831	2754	55
100	0	0	1966	831	2750	57
101	0	0	1953	829	2750	59
102	0	0	1952	828	2750	58
103	0	0	1956	830	2752	57
104	0	0	1944	829	2755	57
105	0	0	1914	827	2757	59
106	0	0	1873	827	2758	58
107	0	0	1837	827	2759	58
108	0	0	1802	828	2758	58
109	0	0	1777	830	2754	57
110	0	0	1758	830	2750	61
111	0	0	1772	832	2750	59
112	0	0	1826	831	2751	58
113	0	0	1847	829	2753	56
114	0	0	1809	831	2755	56
115	0	0	1785	832	2757	57
116	0	0	1825	832	2759	58
117	0	0	1922	832	2758	58
118	0	0	1980	831	2757	57
119	0	0	1979	831	2753	55
120	0	0	1980	832	2749	57
121	0	0	1987	830	2748	57
122	0	0	2002	828	2750	59
123	0	0	1998	827	2752	56
124	0	0	1962	828	2755	57
125	0	0	1920	827	2757	58
126	0	0	1868	827	2759	58
127	0	0	1819	828	2760	59
0	0	0	1778	828	2758	58
1	0	0	1760	829	2754	57
2	0	0	1775	832	2750	60
3	0	0	1771	829	2749	59
4	0	0	1758	832	2751	57
5	0	0	1783	833	2752	57
6	0	0	1815	831	2755	57
7	0	0	1845	831	2757	58
8	0	0	1883	832	2759	58
9	0	0	1933	828	2759	57
10	0	0	1962	830	2757	57
11	0	0	1960	831	2753	56
12	0	0	1967	832	2750	55
13	0	0	1993	829	2749	59
14	0	0	2053	827	2750	57
15	0	0	2095	829	2752	58
16	0	0	2032	823	2755	56
17	0	0	1922	826	2758	64
18	0	0	1839	826	2759	58
19	0	0	1778	828	2760	58
20	0	0	1755	828	2758	57
21	0	0	1734	827	2755	57
22	0	0	1712	828	2750	59
23	0	0	1717	832	2749	58
24	0	0	1745	830	2750	58
25	0	0	1789	831	2753	57
26	0	0	1844	828	2754	59
27	0	0	1892	832	2757	58
28	0	0	1901	830	2759	57
29	0	0	1903	830	2759	57
30	0	0	1920	830	2757	57
31	0	0	1932	830	2754	56
32	0	0	1987	828	2750	59
33	0	0	2027	829	2748	58
34	0	0	2035	830	2751	59
35	0	0	2015	826	2752	57
36	0	0	1969	823	2755	57
37	0	0	1887	825	2758	55
38	0	0	1824	826	2759	58
39	0	0	1807	828	2759	59
40	0	0	1806	830	2757	58
41	0	0	1798	831	2753	57
42	0	0	1774	828	2751	62
43	0	0	1775	832	2749	58
44	0	0	1844	830	2751	58
45	0	0	1901	832	2752	59
46	0	0	1895	827	2755	58
47	0	0	1884	829	2758	60
48	0	0	1888	831	2760	56
49	0	0	1900	830	2759	58
50	0	0	1924	830	2758	56
51	0	0	1962	831	2754	56
52	0	0	1997	830	2750	58
53	0	0	2013	829	2749	59
54	0	0	1987	826	2750	59
55	0	0	1949	826	2752	57
56	0	0	1935	826	2755	59
57	0	0	1930	827	2758	60
58	0	0	1915	829	2758	59
59	0	0	1925	830	2760	58
60	0	0	1906	826	2758	58
61	0	0	1870	826	2755	57
62	0	0	1845	827	2750	58
63	0	0	1804	829	2749	58
64	0	0	1819	830	2751	58
65	0	0	1859	830	2752	57
66	0	0	1869	828	2755	57
67	0	0	1845	829	2758	63
68	0	0	1870	830	2758	58
69	0	0	1935	830	2759	57
70	0	0	1971	829	2757	57
71	0	0	1956	826	2754	56
72	0	0	1936	825	2750	60
73	0	0	1905	825	2749	60
74	0	0	1875	826	2750	58
75	0	0	1889	828	2752	57
76	0	0	1898	826	2755	58
77	0	0	1880	827	2758	59
78	0	0	1899	828	2759	59
79	0	0	1908	828	2759	59
80	0	0	1870	826	2759	58
81	0	0	1853	827	2754	58
82	0	0	1892	830	2751	56
83	0	0	1958	830	2749	58
84	0	0	2018	831	2750	60
85	0	0	2097	830	2752	57
86	0	0	2203	829	2755	57
87	0	0	2322	831	2758	63
88	0	0	2432	829	2759	58
89	0	0	2549	829	2760	57
90	0	0	2680	829	2757	57
91	0	0	2816	826	2755	56
92	0	0	2969	828	2750	55
93	0	0	3096	827	2749	57
94	0	0	3156	828	2750	59
95	0	0	3172	828	2752	57
96	0	0	3184	828	2755	59
97	0	0	3166	828	2757	58
98	0	0	3148	829	2760	58
99	0	0	3123	829	2759	59
100	0	0	3093	829	2758	58
101	0	0	3084	830	2755	58
102	0	0	3080	830	2751	59
103	0	0	3063	830	2750	57
104	0	0	3034	828	2750	59
105	0	0	2987	826	2752	57
106	0	0	2925	825	2756	57
107	0	0	2916	831	2757	56
108	0	0	2934	826	2759	58
109	0	0	2854	824	2759	58
110	0	0	2802	825	2757	57
111	0	0	2761	826	2754	55
112	0	0	2713	826	2749	56
113	0	0	2653	823	2749	58
114	0	0	2604	823	2749	58
115	0	0	2530	824	2752	57
116	0	0	2436	825	2755	59
117	0	0	2332	823	2757	58
118	0	0	2269	824	2760	60
119	0	0	2239	826	2759	57
120	0	0	2223	826	2758	58
121	0	0	2213	829	2754	58
122	0	0	2188	825	2752	57
123	0	0	2121	825	2749	55
124	0	0	2049	825	2750	60
125	0	0	1998	825	2752	57
126	0	0	1974	826	2755	59
127	0	0	1955	827	2757	57
0	0	0	1968	828	2759	57
1	0	0	2002	827	2759	58
2	0	0	2000	825	2757	57
3	0	0	1977	825	2754	57
4	0	0	1989	827	2750	59
5	0	0	2057	825	2749	59
6	0	0	2128	826	2750	59
7	0	0	2148	824	2751	59
8	0	0	2104	824	2755	58
9	0	0	2087	826	2757	58
10	0	0	2052	823	2760	57
11	0	0	1969	823	2759	59
12	0	0	1899	823	2758	58
13	0	0	1846	824	2754	59
14	0	0	1812	826	2750	59
15	0	0	1816	829	2750	58
16	0	0	1813	828	2750	59
17	0	0	1800	826	2752	56
18	0	0	1829	828	2755	58
19	0	0	1863	827	2758	57
20	0	0	1883	828	2759	56
21	0	0	1904	827	2758	56
22	0	0	1923	828	2757	57
23	0	0	1949	826	2754	57
24	0	0	1988	825	2750	58
25	0	0	2027	826	2750	57
26	0	0	2043	825	2750	58
27	0	0	2046	826	2752	56
28	0	0	2032	825	2755	57
29	0	0	2001	821	2757	59
30	0	0	1975	823	2759	55
31	0	0	1926	822	2760	58
32	0	0	1866	823	2758	58
33	0	0	1806	823	2755	57
34	0	0	1772	825	2752	57
35	0	0	1772	828	2749	57
36	0	0	1800	828	2752	57
37	0	0	1849	827	2752	57
38	0	0	1894	829	2755	57
39	0	0	1917	827	2758	55
40	0	0	1921	827	2759	55
41	0	0	1924	827	2759	57
42	0	0	1954	826	2757	55
43	0	0	2023	825	2755	55
44	0	0	2048	825	2750	57
45	0	0	2059	826	2750	57
46	0	0	2092	826	2750	58
47	0	0	2081	822	2752	58
48	0	0	2014	821	2755	59
49	0	0	1926	822	2757	58
50	0	0	1875	823	2759	58
51	0	0	1863	826	2759	58
52	0	0	1877	827	2758	58
53	0	0	1884	827	2755	58
54	0	0	1888	828	2751	58
55	0	0	1878	826	2750	56
56	0	0	1882	828	2750	59
57	0	0	1901	827	2752	56
58	0	0	1911	827	2755	57
59	0	0	1925	829	2757	56
60	0	0	1945	826	2759	57
61	0	0	1969	827	2759	57
62	0	0	1987	826	2758	57
63	0	0	1996	826	2754	57
64	0	0	2031	825	2751	56
65	0	0	2090	825	2749	58
66	0	0	2116	825	2751	58
67	0	0	2106	825	2753	58
68	0	0	2100	827	2755	57
69	0	0	2084	822	2757	58
70	0	0	2009	822	2759	58
71	0	0	1938	822	2760	60
72	0	0	1896	824	2758	59
73	0	0	1872	827	2754	57
74	0	0	1897	826	2751	57
75	0	0	1935	827	2750	59
76	0	0	1938	825	2751	59
77	0	0	1912	824	2752	57
78	0	0	1891	825	2755	57
79	0	0	1898	825	2758	56
80	0	0	1936	826	2759	57
81	0	0	1996	825	2759	58
82	0	0	2065	825	2758	57
83	0	0	2107	825	2754	57
84	0	0	2130	826	2750	57
85	0	0	2156	825	2750	56
86	0	0	2183	826	2749	60
87	0	0	2203	825	2754	57
88	0	0	2157	821	2755	58
89	0	0	2095	821	2758	59
90	0	0	2024	822	2759	56
91	0	0	1965	823	2760	59
92	0	0	1947	824	2758	59
93	0	0	1933	825	2754	59
94	0	0	1918	824	2751	58
95	0	0	1910	825	2750	58
96	0	0	1888	824	2751	59
97	0	0	1867	825	2752	57
98	0	0	1875	826	2755	55
99	0	0	1907	826	2758	58
100	0	0	2003	825	2759	58
101	0	0	2096	826	2760	56
102	0	0	2134	825	2758	36
103	0	0	2151	825	2754	55
104	0	0	2195	824	2750	58
105	0	0	2214	823	2750	59
106	0	0	2169	820	2750	58
107	0	0	2133	823	2752	57
108	0	0	2161	826	2754	57
109	0	0	2205	825	2758	58
110	0	0	2169	821	2759	57
111	0	0	2098	822	2760	59
112	0	0	2065	824	2758	58
113	0	0	2046	823	2755	56
114	0	0	2004	823	2752	58
115	0	0	1974	825	2749	59
116	0	0	1985	826	2750	57
117	0	0	1990	827	2752	58
118	0	0	2013	827	2755	57
119	0	0	2058	827	2758	57
120	0	0	2081	825	2759	57
121	0	0	2111	825	2760	58
122	0	0	2150	824	2758	58
123	0	0	2173	824	2754	57
124	0	0	2181	824	2751	59
125	0	0	2194	825	2750	57
126	0	0	2227	825	2752	57
127	0	0	2269	823	2753	58
0	0	0	2247	820	2755	58
1	0	0	2178	820	2757	60
2	0	0	2146	824	2759	55
3	0	0	2143	824	2759	58
4	0	0	2128	825	2758	59
5	0	0	2110	823	2754	58
6	0	0	2066	823	2751	59
7	0	0	2035	824	2750	59
8	0	0	2010	822	2752	57
9	0	0	1984	823	2752	57
10	0	0	2007	826	2755	57
11	0	0	2064	826	2757	58
12	0	0	2095	824	2759	57
13	0	0	2128	825	2758	57
14	0	0	2153	825	2758	57
15	0	0	2187	825	2754	56
16	0	0	2229	824	2750	59
17	0	0	2245	824	2748	59
18	0	0	2263	822	2750	59
19	0	0	2252	820	2753	58
20	0	0	2219	824	2755	58
21	0	0	2230	823	2757	58
22	0	0	2224	821	2761	59
23	0	0	2200	822	2758	55
24	0	0	2184	822	2758	58
25	0	0	2139	821	2754	58
26	0	0	2095	822	2750	61
27	0	0	2087	826	2750	55
28	0	0	2088	825	2750	58
29	0	0	2095	825	2752	56
30	0	0	2092	825	2755	58
31	0	0	2102	826	2758	57
32	0	0	2116	824	2759	55
33	0	0	2160	824	2759	57
34	0	0	2215	824	2758	57
35	0	0	2229	824	2755	55
36	0	0	2228	824	2751	56
37	0	0	2237	822	2749	55
38	0	0	2247	823	2749	58
39	0	0	2265	823	2753	57
40	0	0	2311	824	2755	58
41	0	0	2341	823	2757	57
42	0	0	2358	824	2759	55
43	0	0	2324	820	2759	58
44	0	0	2244	822	2758	59
45	0	0	2116	820	2755	59
46	0	0	2054	821	2751	59
47	0	0	2041	823	2750	56
48	0	0	2020	823	2749	58
49	0	0	2022	825	2752	57
50	0	0	2042	823	2756	57
51	0	0	2155	824	2758	57
52	0	0	2281	823	2759	55
53	0	0	2349	824	2759	56
54	0	0	2381	824	2757	57
55	0	0	2389	820	2755	59
56	0	0	2426	823	2750	58
57	0	0	2424	819	2750	58
58	0	0	2354	818	2749	58
59	0	0	2293	819	2752	57
60	0	0	2276	823	2755	58
61	0	0	2279	822	2758	57
62	0	0	2252	821	2759	55
63	0	0	2228	821	2759	56
64	0	0	2212	824	2758	58
65	0	0	2199	822	2755	59
66	0	0	2168	821	2751	59
67	0	0	2130	823	2750	56
68	0	0	2137	824	2750	58
69	0	0	2153	824	2752	57
70	0	0	2151	824	2755	58
71	0	0	2131	821	2758	57
72	0	0	2125	824	2759	54
73	0	0	2221	823	2758	56
74	0	0	2365	823	2758	57
75	0	0	2440	820	2755	57
76	0	0	2439	821	2749	57
77	0	0	2432	822	2749	56
78	0	0	2416	820	2750	57
79	0	0	2378	818	2752	57
80	0	0	2352	820	2755	59
81	0	0	2332	820	2758	57
82	0	0	2310	820	2759	56
83	0	0	2283	820	2759	59
84	0	0	2252	820	2758	58
85	0	0	2222	824	2755	59
86	0	0	2176	820	2751	59
87	0	0	2160	825	2749	56
88	0	0	2171	824	2750	58
89	0	0	2204	824	2752	57
90	0	0	2250	826	2754	58
91	0	0	2269	821	2758	57
92	0	0	2284	825	2759	56
93	0	0	2278	823	2759	56
94	0	0	2286	821	2757	57
95	0	0	2312	822	2754	55
96	0	0	2358	821	2750	59
97	0	0	2424	821	2749	56
98	0	0	2445	821	2750	58
99	0	0	2437	821	2752	58
100	0	0	2431	822	2755	58
101	0	0	2398	820	2757	58
102	0	0	2362	820	2760	58
103	0	0	2334	820	2759	62
104	0	0	2289	820	2759	58
105	0	0	2241	820	2755	61
106	0	0	2223	823	2751	59
107	0	0	2207	822	2751	59
108	0	0	2182	821	2750	57
109	0	0	2161	823	2753	57
110	0	0	2178	825	2754	56
111	0	0	2220	825	2757	58
112	0	0	2256	823	2759	56
113	0	0	2277	823	2759	57
114	0	0	2324	822	2758	57
115	0	0	2348	821	2755	55
116	0	0	2357	822	2750	57
117	0	0	2380	820	2749	56
118	0	0	2374	818	2749	58
119	0	0	2319	818	2751	59
120	0	0	2279	819	2755	59
121	0	0	2252	819	2758	56
122	0	0	2227	820	2759	60
123	0	0	2205	821	2760	58
124	0	0	2190	823	2758	58
125	0	0	2172	818	2755	58
126	0	0	2115	820	2752	58
127	0	0	2059	819	2750	56
0	0	0	2028	822	2750	59
1	0	0	2046	824	2752	56
2	0	0	2119	821	2755	56
3	0	0	2208	824	2758	56
4	0	0	2238	822	2759	60
5	0	0	2192	820	2759	56
6	0	0	2156	820	2758	57
7	0	0	2149	821	2754	56
8	0	0	2163	821	2751	56
9	0	0	2190	820	2749	60
10	0	0	2206	820	2750	59
11	0	0	2182	818	2752	58
12	0	0	2139	816	2755	57
13	0	0	2101	818	2759	58
14	0	0	2042	819	2759	62
15	0	0	2000	819	2759	57
16	0	0	1988	823	2758	58
17	0	0	2005	822	2755	58
18	0	0	2004	820	2752	56
19	0	0	1971	820	2750	58
20	0	0	1962	822	2750	58
21	0	0	1955	823	2752	57
22	0	0	1989	822	2754	57
23	0	0	2012	822	2757	55
24	0	0	2022	822	2759	58
25	0	0	2080	823	2758	57
26	0	0	2096	820	2758	58
27	0	0	2071	819	2755	57
28	0	0	2080	822	2750	58
29	0	0	2098	821	2750	55
30	0	0	2097	824	2749	60
31	0	0	2120	820	2752	60
32	0	0	2148	820	2755	56
33	0	0	2140	819	2758	56
34	0	0	2093	817	2759	61
35	0	0	2026	817	2759	58
36	0	0	1937	817	2758	60
37	0	0	1836	817	2755	58
38	0	0	1787	820	2752	56
39	0	0	1782	822	2750	59
40	0	0	1842	823	2749	57
41	0	0	1923	822	2751	59
42	0	0	1981	822	2755	56
43	0	0	2014	823	2758	57
44	0	0	2038	821	2759	59
45	0	0	2064	821	2759	57
46	0	0	2048	818	2758	53
47	0	0	2024	819	2754	55
48	0	0	2044	821	2750	59
49	0	0	2078	820	2749	59
50	0	0	2035	816	2749	59
51	0	0	1977	817	2752	58
52	0	0	1975	819	2755	57
53	0	0	2012	822	2757	59
54	0	0	2036	821	2759	59
55	0	0	2007	818	2758	55
56	0	0	1996	821	2758	58
57	0	0	1989	818	2755	59
58	0	0	1917	818	2751	59
59	0	0	1846	819	2750	58
60	0	0	1848	822	2750	59
61	0	0	1877	822	2753	56
62	0	0	1914	823	2755	57
63	0	0	1976	823	2757	57
64	0	0	2008	822	2759	58
65	0	0	2001	821	2760	58
66	0	0	2019	822	2758	57
67	0	0	2072	820	2754	56
68	0	0	2115	819	2750	57
69	0	0	2129	820	2749	59
70	0	0	2158	820	2750	58
71	0	0	2146	816	2752	56
72	0	0	2090	816	2755	58
73	0	0	2042	818	2757	59
74	0	0	2004	817	2759	58
75	0	0	1951	818	2759	59
76	0	0	1943	819	2758	58
77	0	0	1948	818	2755	58
78	0	0	1903	818	2752	57
79	0	0	1862	818	2750	59
80	0	0	1831	819	2750	59
81	0	0	1849	822	2752	57
82	0	0	1899	822	2754	57
83	0	0	1931	822	2758	57
84	0	0	1957	821	2759	59
85	0	0	2003	821	2759	57
86	0	0	2067	822	2758	57
87	0	0	2097	819	2754	56
88	0	0	2091	818	2750	59
89	0	0	2072	815	2749	55
90	0	0	2070	819	2750	58
91	0	0	2075	817	2753	58
92	0	0	2027	814	2755	57
93	0	0	1974	817	2757	59
94	0	0	1935	817	2760	57
95	0	0	1862	816	2760	56
96	0	0	1817	818	2758	59
97	0	0	1829	821	2755	59
98	0	0	1858	821	2750	61
99	0	0	1882	822	2750	58
100	0	0	1901	822	2750	58
101	0	0	1913	821	2752	58
102	0	0	1924	821	2754	59
103	0	0	1942	820	2757	58
104	0	0	1982	820	2759	55
105	0	0	2010	820	2759	55
106	0	0	2025	819	2758	57
107	0	0	2029	820	2755	58
108	0	0	2041	819	2751	58
109	0	0	2079	819	2749	60
110	0	0	2113	819	2751	58
111	0	0	2104	816	2752	60
112	0	0	2068	815	2754	60
113	0	0	2037	815	2757	57
114	0	0	1988	816	2759	55
115	0	0	1925	816	2759	58
116	0	0	1893	818	2758	58
117	0	0	1892	822	2755	59
118	0	0	1887	818	2751	59
119	0	0	1858	819	2750	56
120	0	0	1879	823	2750	58
121	0	0	1910	821	2751	58
122	0	0	1900	818	2755	57
123	0	0	1885	816	2757	57
124	0	0	1876	821	2759	56
125	0	0	1888	820	2759	53
126	0	0	1912	820	2759	57
127	0	0	1952	818	2754	56
0	0	0	1999	817	2750	57
1	0	0	2035	819	2749	58
2	0	0	2084	818	2750	58
3	0	0	2098	818	2752	58
4	0	0	2067	816	2754	58
5	0	0	2031	814	2758	57
6	0	0	1979	816	2759	57
7	0	0	1906	816	2759	59
8	0	0	1876	819	2758	58
9	0	0	1888	820	2755	58
10	0	0	1919	818	2751	59
11	0	0	1955	821	2750	60
12	0	0	1940	818	2750	57
13	0	0	1910	819	2753	57
14	0	0	1928	821	2754	57
15	0	0	1984	815	2757	56
16	0	0	1999	821	2759	58
17	0	0	2010	819	2759	55
18	0	0	2020	820	2758	56
19	0	0	2019	819	2754	59
20	0	0	2015	818	2750	59
21	0	0	2027	818	2749	55
22	0	0	2042	818	2750	58
23	0	0	2034	818	2753	58
24	0	0	2027	818	2754	58
25	0	0	1999	815	2757	55
26	0	0	1954	816	2759	56
27	0	0	1900	815	2759	57
28	0	0	1841	816	2758	59
29	0	0	1800	818	2755	58
30	0	0	1817	820	2750	59
31	0	0	1852	819	2749	57
32	0	0	1864	823	2750	58
33	0	0	1865	820	2751	58
34	0	0	1873	821	2754	57
35	0	0	1921	819	2757	55
36	0	0	1989	819	2759	56
37	0	0	2043	820	2758	56
38	0	0	2061	818	2756	57
39	0	0	2066	820	2754	56
40	0	0	2106	818	2750	55
41	0	0	2128	818	2749	56
42	0	0	2133	816	2750	58
43	0	0	2077	814	2752	58
44	0	0	2002	815	2755	57
45	0	0	1976	818	2758	58
46	0	0	1974	818	2759	58
47	0	0	1949	816	2760	58
48	0	0	1906	815	2758	59
49	0	0	1871	817	2756	57
50	0	0	1865	819	2752	61
51	0	0	1874	820	2749	60
52	0	0	1887	820	2751	58
53	0	0	1892	819	2751	58
54	0	0	1900	819	2755	56
55	0	0	1936	820	2757	57
56	0	0	1964	820	2759	59
57	0	0	2000	819	2759	56
58	0	0	2016	818	2758	57
59	0	0	2050	819	2755	56
60	0	0	2103	815	2751	57
61	0	0	2148	818	2749	56
62	0	0	2141	815	2749	57
63	0	0	2089	814	2752	56
64	0	0	2051	814	2754	58
65	0	0	2025	815	2757	58
66	0	0	1973	815	2759	58
67	0	0	1904	815	2759	57
68	0	0	1843	816	2758	59
69	0	0	1816	819	2756	57
70	0	0	1842	820	2751	59
71	0	0	1875	822	2749	59
72	0	0	1887	819	2750	60
73	0	0	1886	819	2752	57
74	0	0	1901	820	2754	57
75	0	0	1923	817	2757	56
76	0	0	1973	821	2759	60
77	0	0	2038	819	2758	58
78	0	0	2087	818	2758	57
79	0	0	2120	818	2754	55
80	0	0	2151	817	2750	56
81	0	0	2174	818	2749	60
82	0	0	2144	814	2749	58
83	0	0	2119	817	2752	57
84	0	0	2112	813	2754	58
85	0	0	2075	814	2757	58
86	0	0	2048	815	2759	58
87	0	0	2005	816	2758	62
88	0	0	1973	816	2758	58
89	0	0	1957	817	2755	56
90	0	0	1939	817	2750	56
91	0	0	1928	819	2750	58
92	0	0	1942	819	2749	57
93	0	0	1985	819	2752	57
94	0	0	2052	819	2754	57
95	0	0	2093	819	2757	55
96	0	0	2127	819	2759	60
97	0	0	2155	818	2758	60
98	0	0	2187	818	2758	57
99	0	0	2214	820	2754	55
100	0	0	2257	816	2750	59
101	0	0	2280	817	2749	58
102	0	0	2245	815	2749	62
103	0	0	2190	814	2752	57
104	0	0	2147	813	2754	58
105	0	0	2091	814	2757	59
106	0	0	2069	817	2759	58
107	0	0	2075	818	2759	61
108	0	0	2083	818	2758	58
109	0	0	2061	817	2755	56
110	0	0	2056	819	2752	56
111	0	0	2059	817	2750	62
112	0	0	2033	815	2750	60
113	0	0	2023	819	2751	57
114	0	0	2053	819	2754	57
115	0	0	2122	820	2757	56
116	0	0	2194	818	2759	59
117	0	0	2235	819	2759	55
118	0	0	2305	816	2758	57
119	0	0	2356	817	2755	56
120	0	0	2406	816	2751	61
121	0	0	2440	816	2749	59
122	0	0	2431	816	2749	60
123	0	0	2403	815	2752	57
124	0	0	2387	815	2754	59
125	0	0	2354	813	2756	59
126	0	0	2325	815	2759	60
127	0	0	2274	813	2759	59
0	0	0	2231	815	2758	58
1	0	0	2198	815	2755	58
2	0	0	2167	816	2751	60
3	0	0	2137	817	2750	60
4	0	0	2138	819	2749	60
5	0	0	2158	818	2752	57
6	0	0	2192	819	2754	55
7	0	0	2208	818	2757	57
8	0	0	2211	817	2759	57
9	0	0	2242	817	2759	58
10	0	0	2296	817	2757	57
11	0	0	2326	817	2753	53
12	0	0	2343	816	2750	59
13	0	0	2367	819	2749	59
14	0	0	2373	817	2750	60
15	0	0	2360	815	2752	58
16	0	0	2349	816	2754	57
17	0	0	2306	812	2757	58
18	0	0	2243	813	2759	62
19	0	0	2188	815	2759	59
20	0	0	2178	819	2759	58
21	0	0	2143	818	2755	56
22	0	0	2088	813	2750	59
23	0	0	2049	817	2750	59
24	0	0	2070	819	2751	58
25	0	0	2095	817	2752	57
26	0	0	2099	818	2754	59
27	0	0	2171	816	2756	57
28	0	0	2266	818	2759	59
29	0	0	2321	817	2759	59
30	0	0	2300	815	2758	58
31	0	0	2266	816	2755	56
32	0	0	2285	816	2750	58
33	0	0	2316	815	2749	57
34	0	0	2309	816	2749	59
35	0	0	2283	812	2752	58
36	0	0	2261	817	2755	56
37	0	0	2276	816	2758	58
38	0	0	2255	814	2759	59
39	0	0	2200	814	2759	62
40	0	0	2128	814	2758	59
41	0	0	2086	815	2755	55
42	0	0	2091	818	2752	61
43	0	0	2122	819	2749	58
44	0	0	2131	818	2750	59
45	0	0	2107	816	2752	20
46	0	0	2086	816	2755	56
47	0	0	2076	816	2757	57
48	0	0	2090	818	2759	57
49	0	0	2131	817	2759	57
50	0	0	2184	817	2759	57
51	0	0	2210	817	2755	56
52	0	0	2212	816	2750	58
53	0	0	2195	816	2750	58
54	0	0	2207	815	2750	60
55	0	0	2233	815	2751	59
56	0	0	2227	816	2755	57
57	0	0	2223	816	2757	58
58	0	0	2227	814	2759	59
59	0	0	2160	813	2759	57
60	0	0	2081	814	2758	59
61	0	0	2020	813	2755	58
62	0	0	1985	815	2752	58
63	0	0	2003	818	2750	59
64	0	0	2050	818	2750	59
65	0	0	2090	819	2752	57
66	0	0	2127	818	2755	55
67	0	0	2181	818	2758	56
68	0	0	2218	816	2758	59
69	0	0	2255	817	2759	56
70	0	0	2286	817	2759	57
71	0	0	2299	818	2755	56
72	0	0	2300	816	2750	55
73	0	0	2271	813	2749	58
74	0	0	2266	815	2749	57
75	0	0	2263	815	2752	59
76	0	0	2255	814	2754	59
77	0	0	2213	812	2758	58
78	0	0	2164	814	2759	58
79	0	0	2138	814	2759	56
80	0	0	2099	814	2758	59
81	0	0	2062	815	2755	58
82	0	0	2046	811	2752	58
83	0	0	2009	813	2750	60
84	0	0	1999	818	2750	57
85	0	0	2016	818	2752	58
86	0	0	2043	818	2756	58
87	0	0	2099	815	2757	57
88	0	0	2151	815	2759	57
89	0	0	2205	816	2759	57
90	0	0	2228	816	2758	57
91	0	0	2197	813	2755	57
92	0	0	2190	816	2750	56
93	0	0	2211	814	2749	60
94	0	0	2214	815	2750	56
95	0	0	2228	815	2752	57
96	0	0	2243	816	2754	58
97	0	0	2219	811	2757	59
98	0	0	2146	812	2759	60
99	0	0	2116	814	2759	58
100	0	0	2069	813	2758	59
101	0	0	2027	816	2755	58
102	0	0	2036	816	2751	63
103	0	0	2012	815	2749	58
104	0	0	2011	819	2750	57
105	0	0	2033	817	2752	57
106	0	0	2071	816	2754	57
107	0	0	2118	815	2757	57
108	0	0	2144	816	2759	58
109	0	0	2154	817	2757	59
110	0	0	2189	816	2758	61
111	0	0	2224	816	2755	57
112	0	0	2275	813	2750	59
113	0	0	2330	816	2749	59
114	0	0	2334	814	2750	56
115	0	0	2277	810	2752	58
116	0	0	2190	811	2754	58
117	0	0	2115	815	2757	58
118	0	0	2122	815	2759	58
119	0	0	2143	816	2759	58
120	0	0	2125	815	2759	58
121	0	0	2112	811	2755	58
122	0	0	2059	815	2751	58
123	0	0	1999	813	2750	58
124	0	0	1975	817	2750	60
125	0	0	2004	815	2753	56
126	0	0	2050	814	2754	58
127	0	0	2092	817	2757	58
0	0	0	2099	816	2759	57
1	0	0	2147	816	2759	56
2	0	0	2194	815	2759	57
3	0	0	2191	815	2755	55
4	0	0	2218	815	2750	57
5	0	0	2280	815	2750	55
6	0	0	2307	815	2748	58
7	0	0	2314	814	2752	55
8	0	0	2291	811	2754	55
9	0	0	2224	811	2757	58
10	0	0	2138	810	2759	59
11	0	0	2070	812	2759	57
12	0	0	2026	813	2758	59
13	0	0	2042	817	2755	57
14	0	0	2080	815	2751	58
15	0	0	2073	816	2750	60
16	0	0	2078	817	2750	60
17	0	0	2081	815	2752	56
18	0	0	2069	816	2755	56
19	0	0	2109	816	2758	58
20	0	0	2174	816	2759	57
21	0	0	2215	816	2760	57
22	0	0	2225	815	2758	57
23	0	0	2232	815	2755	56
24	0	0	2229	815	2750	58
25	0	0	2244	814	2749	61
26	0	0	2268	815	2749	58
27	0	0	2260	814	2751	59
28	0	0	2250	812	2754	58
29	0	0	2235	812	2757	59
30	0	0	2203	812	2759	59
31	0	0	2162	811	2760	53
32	0	0	2092	811	2758	59
33	0	0	2027	811	2755	58
34	0	0	1972	812	2751	59
35	0	0	1935	814	2750	59
36	0	0	1919	817	2750	58
37	0	0	1953	819	2753	57
38	0	0	2007	813	2754	57
39	0	0	2049	817	2757	56
40	0	0	2078	817	2759	57
41	0	0	2091	815	2759	58
42	0	0	2075	812	2758	57
43	0	0	2059	811	2754	56
44	0	0	2062	814	2750	58
45	0	0	2092	815	2749	59
46	0	0	2139	813	2749	60
47	0	0	2164	814	2752	59
48	0	0	2168	813	2754	57
49	0	0	2154	816	2757	59
50	0	0	2164	814	2759	58
51	0	0	2155	813	2759	59
52	0	0	2135	812	2758	59
53	0	0	2143	814	2755	59
54	0	0	2184	815	2751	61
55	0	0	2233	817	2750	58
56	0	0	2318	812	2751	59
57	0	0	2434	819	2751	58
58	0	0	2563	817	2755	56
59	0	0	2673	816	2757	58
60	0	0	2780	816	2759	58
61	0	0	2902	816	2758	55
62	0	0	3019	818	2759	57
63	0	0	3111	813	2755	56
64	0	0	3200	814	2750	55
65	0	0	3263	815	2749	57
66	0	0	3299	814	2750	60
67	0	0	3307	814	2753	55
68	0	0	3282	814	2754	56
69	0	0	3286	813	2757	60
70	0	0	3284	815	2759	59
71	0	0	3256	814	2759	55
72	0	0	3208	812	2758	59
73	0	0	3174	816	2755	56
74	0	0	3154	812	2751	61
75	0	0	3119	815	2750	59
76	0	0	3070	814	2750	62
77	0	0	3033	814	2752	57
78	0	0	2984	813	2755	60
79	0	0	2946	812	2757	59
80	0	0	2896	812	2759	57
81	0	0	2817	812	2758	55
82	0	0	2750	811	2758	57
83	0	0	2691	810	2755	55
84	0	0	2667	812	2750	57
85	0	0	2663	813	2749	58
86	0	0	2614	810	2749	61
87	0	0	2563	809	2752	56
88	0	0	2496	809	2755	58
89	0	0	2413	810	2758	58
90	0	0	2339	811	2759	59
91	0	0	2291	811	2760	58
92	0	0	2272	811	2758	58
93	0	0	2251	812	2756	58
94	0	0	2214	811	2752	57
95	0	0	2169	812	2750	59
96	0	0	2122	812	2750	55
97	0	0	2095	811	2752	57
98	0	0	2084	813	2754	57
99	0	0	2092	815	2757	59
100	0	0	2109	815	2759	57
101	0	0	2114	814	2759	53
102	0	0	2157	814	2758	57
103	0	0	2193	813	2755	57
104	0	0	2227	811	2751	59
105	0	0	2272	812	2749	58
106	0	0	2257	808	2750	55
107	0	0	2214	811	2753	57
108	0	0	2191	812	2755	56
109	0	0	2168	809	2757	58
110	0	0	2121	810	2759	62
111	0	0	2052	810	2759	58
112	0	0	1984	810	2759	56
113	0	0	1973	814	2755	57
114	0	0	1996	812	2751	61
115	0	0	1997	814	2750	61
116	0	0	2007	815	2750	56
117	0	0	2025	815	2752	58
118	0	0	2025	814	2754	60
119	0	0	2007	812	2757	57
120	0	0	2022	813	2759	57
121	0	0	2042	813	2759	55
122	0	0	2070	814	2758	57
123	0	0	2151	813	2755	57
124	0	0	2203	813	2751	57
125	0	0	2188	811	2749	60
126	0	0	2174	810	2750	59
127	0	0	2141	809	2752	57
0	0	0	2107	807	2754	58
1	0	0	2051	809	2757	58
2	0	0	1997	810	2759	59
3	0	0	1959	811	2759	56
4	0	0	1956	815	2758	58
5	0	0	1949	812	2755	58
6	0	0	1932	812	2752	57
7	0	0	1922	816	2750	58
8	0	0	1948	815	2750	56
9	0	0	1963	815	2752	57
10	0	0	1976	815	2755	57
11	0	0	1986	814	2756	56
12	0	0	2003	813	2759	57
13	0	0	2027	814	2759	56
14	0	0	2038	812	2758	57
15	0	0	2080	810	2755	57
16	0	0	2148	812	2750	58
17	0	0	2182	810	2749	58
18	0	0	2200	811	2749	58
19	0	0	2230	812	2752	57
20	0	0	2252	813	2755	59
21	0	0	2212	808	2756	58
22	0	0	2138	809	2759	57
23	0	0	2070	810	2759	55
24	0	0	2024	815	2758	58
25	0	0	2036	813	2755	59
26	0	0	2025	812	2751	59
27	0	0	2018	813	2750	58
28	0	0	2048	814	2750	58
29	0	0	2055	815	2752	57
30	0	0	2066	813	2755	59
31	0	0	2079	815	2756	56
32	0	0	2106	810	2759	57
33	0	0	2166	814	2758	56
34	0	0	2208	813	2758	57
35	0	0	2262	812	2755	56
36	0	0	2335	812	2751	57
37	0	0	2355	810	2749	55
38	0	0	2297	806	2749	56
39	0	0	2205	807	2752	55
40	0	0	2121	808	2755	59
41	0	0	2089	812	2757	58
42	0	0	2101	813	2759	59
43	0	0	2121	812	2759	56
44	0	0	2140	813	2758	59
45	0	0	2108	808	2756	59
46	0	0	1995	812	2750	57
47	0	0	1893	807	2749	59
48	0	0	1884	814	2749	56
49	0	0	1917	814	2752	58
50	0	0	1954	812	2754	57
51	0	0	2001	815	2756	56
52	0	0	2051	814	2759	58
53	0	0	2094	814	2758	56
54	0	0	2138	813	2758	60
55	0	0	2187	812	2755	57
56	0	0	2250	813	2750	56
57	0	0	2282	811	2750	58
58	0	0	2254	808	2750	58
59	0	0	2220	809	2752	58
60	0	0	2196	809	2755	57
61	0	0	2156	810	2758	58
62	0	0	2120	808	2759	59
63	0	0	2117	813	2760	59
64	0	0	2127	813	2758	58
65	0	0	2131	813	2755	57
66	0	0	2107	811	2752	58
67	0	0	2094	814	2750	59
68	0	0	2102	814	2750	58
69	0	0	2110	815	2752	57
70	0	0	2114	812	2754	57
71	0	0	2119	814	2757	57
72	0	0	2148	815	2759	57
73	0	0	2184	813	2760	57
74	0	0	2220	813	2757	57
75	0	0	2273	812	2755	55
76	0	0	2325	812	2751	58
77	0	0	2333	811	2749	59
78	0	0	2323	812	2750	58
79	0	0	2311	811	2751	59
80	0	0	2308	809	2754	58
81	0	0	2278	808	2756	60
82	0	0	2218	807	2759	59
83	0	0	2157	808	2759	59
84	0	0	2109	809	2758	59
85	0	0	2077	810	2755	59
86	0	0	2071	814	2751	62
87	0	0	2104	815	2750	58
88	0	0	2124	813	2750	59
89	0	0	2123	813	2752	56
90	0	0	2121	815	2754	57
91	0	0	2136	813	2756	57
92	0	0	2157	813	2759	57
93	0	0	2185	812	2759	57
94	0	0	2223	811	2759	57
95	0	0	2246	812	2755	56
96	0	0	2269	812	2751	62
97	0	0	2275	814	2749	58
98	0	0	2258	810	2749	59
99	0	0	2244	811	2752	57
100	0	0	2258	812	2754	58
101	0	0	2279	813	2756	58
102	0	0	2261	810	2759	58
103	0	0	2198	808	2759	58
104	0	0	2119	809	2758	58
105	0	0	2099	815	2755	58
106	0	0	2129	815	2750	58
107	0	0	2145	816	2750	59
108	0	0	2176	813	2750	59
109	0	0	2202	813	2752	57
110	0	0	2221	815	2754	57
111	0	0	2250	813	2757	58
112	0	0	2256	815	2759	57
113	0	0	2221	809	2760	57
114	0	0	2173	807	2758	57
115	0	0	2171	811	2755	58
116	0	0	2208	811	2751	58
117	0	0	2222	811	2749	57
118	0	0	2215	811	2750	58
119	0	0	2212	810	2752	58
120	0	0	2217	809	2755	59
121	0	0	2195	808	2757	62
122	0	0	2191	815	2759	59
123	0	0	2224	811	2759	60
124	0	0	2276	811	2758	58
125	0	0	2287	813	2755	58
126	0	0	2211	810	2751	60
127	0	0	2140	809	2749	60
0	0	0	2106	811	2750	58
1	0	0	2104	813	2752	56
2	0	0	2131	815	2754	56
3	0	0	2172	814	2757	57
4	0	0	2205	813	2759	57
5	0	0	2218	812	2759	58
6	0	0	2240	810	2759	57
7	0	0	2289	814	2755	54
8	0	0	2331	810	2751	60
9	0	0	2347	810	2749	58
10	0	0	2349	811	2749	59
11	0	0	2335	809	2753	60
12	0	0	2318	812	2754	58
13	0	0	2316	812	2757	59
14	0	0	2308	813	2759	58
15	0	0	2281	809	2759	59
16	0	0	2259	811	2758	58
17	0	0	2236	809	2756	60
18	0	0	2185	811	2752	58
19	0	0	2189	812	2749	59
20	0	0	2216	813	2750	59
21	0	0	2245	811	2753	57
22	0	0	2252	813	2754	58
23	0	0	2238	812	2758	57
24	0	0	2267	812	2759	57
25	0	0	2313	812	2759	57
26	0	0	2358	813	2758	56
27	0	0	2410	813	2755	58
28	0	0	2465	810	2751	58
29	0	0	2499	810	2749	60
30	0	0	2504	810	2749	57
31	0	0	2464	807	2752	59
32	0	0	2427	808	2754	60
33	0	0	2409	811	2758	58
34	0	0	2388	808	2759	60
35	0	0	2335	809	2759	59
36	0	0	2275	807	2758	59
37	0	0	2235	811	2755	58
38	0	0	2213	811	2752	58
39	0	0	2198	811	2750	59
40	0	0	2184	814	2750	58
41	0	0	2206	815	2751	58
42	0	0	2247	814	2754	59
43	0	0	2309	814	2757	55
44	0	0	2342	812	2758	58
45	0	0	2324	813	2759	57
46	0	0	2323	809	2758	57
47	0	0	2343	811	2755	57
48	0	0	2371	810	2751	57
49	0	0	2379	810	2749	58
50	0	0	2370	811	2749	57
51	0	0	2384	810	2752	57
52	0	0	2432	811	2755	59
53	0	0	2443	811	2756	58
54	0	0	2401	807	2759	58
55	0	0	2326	808	2759	56
56	0	0	2266	809	2758	59
57	0	0	2233	810	2755	59
58	0	0	2233	815	2752	57
59	0	0	2255	812	2749	59
60	0	0	2279	813	2750	59
61	0	0	2310	813	2752	57
62	0	0	2332	812	2754	59
63	0	0	2347	813	2757	55
64	0	0	2372	812	2759	57
65	0	0	2416	812	2759	58
66	0	0	2434	812	2758	57
67	0	0	2433	811	2755	55
68	0	0	2432	811	2752	56
69	0	0	2441	810	2749	58
70	0	0	2447	810	2750	60
71	0	0	2424	808	2751	59
72	0	0	2373	806	2754	58
73	0	0	2305	807	2757	59
74	0	0	2271	812	2759	58
75	0	0	2306	811	2759	59
76	0	0	2357	812	2759	62
77	0	0	2318	807	2755	57
78	0	0	2226	809	2751	58
79	0	0	2165	810	2749	59
80	0	0	2164	813	2750	58
81	0	0	2203	813	2752	58
82	0	0	2243	812	2754	57
83	0	0	2249	812	2758	58
84	0	0	2238	813	2759	55
85	0	0	2243	811	2760	57
86	0	0	2280	810	2758	57
87	0	0	2339	811	2755	56
88	0	0	2401	810	2751	58
89	0	0	2431	810	2749	58
90	0	0	2462	809	2749	59
91	0	0	2465	808	2752	57
92	0	0	2415	806	2754	59
93	0	0	2345	806	2756	59
94	0	0	2276	807	2758	59
95	0	0	2239	810	2758	59
96	0	0	2195	808	2759	59
97	0	0	2148	809	2755	58
98	0	0	2112	808	2751	60
99	0	0	2090	812	2749	59
100	0	0	2070	809	2750	60
101	0	0	2035	810	2752	57
102	0	0	2056	812	2754	56
103	0	0	2135	812	2757	57
104	0	0	2199	808	2758	57
105	0	0	2169	807	2758	57
106	0	0	2123	806	2758	58
107	0	0	2114	808	2755	56
108	0	0	2165	810	2751	58
109	0	0	2207	810	2749	57
110	0	0	2226	809	2749	58
111	0	0	2241	809	2751	58
112	0	0	2215	806	2754	59
113	0	0	2154	807	2756	56
114	0	0	2083	807	2758	58
115	0	0	2009	807	2759	58
116	0	0	1961	807	2758	57
117	0	0	1926	808	2755	59
118	0	0	1903	809	2750	56
119	0	0	1903	814	2748	59
120	0	0	1907	814	2749	57
121	0	0	1892	809	2751	59
122	0	0	1877	811	2754	57
123	0	0	1911	812	2756	56
124	0	0	1979	807	2758	58
125	0	0	2034	810	2757	57
126	0	0	2056	810	2757	60
127	0	0	2079	808	2755	58
0	0	0	2099	809	2749	60
1	0	0	2123	807	2748	57
2	0	0	2136	809	2749	58
3	0	0	2127	808	2751	59
4	0	0	2099	806	2754	58
5	0	0	2049	806	2756	57
6	0	0	1989	808	2758	59
7	0	0	1920	807	2759	58
8	0	0	1865	808	2758	59
9	0	0	1842	809	2755	58
10	0	0	1846	812	2751	60
11	0	0	1850	811	2749	57
12	0	0	1842	812	2750	59
13	0	0	1844	809	2751	57
14	0	0	1863	812	2754	58
15	0	0	1907	810	2757	57
16	0	0	1939	812	2758	57
17	0	0	1967	810	2758	57
18	0	0	2017	811	2758	59
19	0	0	2058	807	2754	54
20	0	0	2038	809	2749	58
21	0	0	2043	807	2748	58
22	0	0	2068	809	2749	59
23	0	0	2074	809	2751	59
24	0	0	2034	807	2753	57
25	0	0	1959	806	2755	56
26	0	0	1927	807	2758	59
27	0	0	1946	810	2759	59
28	0	0	1913	807	2757	58
29	0	0	1888	811	2755	60
30	0	0	1933	810	2750	55
31	0	0	1955	807	2749	58
32	0	0	1961	811	2749	58
33	0	0	1967	812	2751	59
34	0	0	1973	813	2753	56
35	0	0	1969	811	2757	58
36	0	0	1962	808	2758	57
37	0	0	1966	810	2758	59
38	0	0	1975	812	2757	56
39	0	0	1993	811	2754	57
40	0	0	2021	809	2749	56
41	0	0	2061	808	2748	59
42	0	0	2086	809	2749	58
43	0	0	2049	805	2752	57
44	0	0	2004	807	2754	57
45	0	0	1997	809	2756	59
46	0	0	1982	807	2758	58
47	0	0	1934	806	2758	61
48	0	0	1883	808	2758	59
49	0	0	1877	809	2755	59
50	0	0	1875	810	2750	60
51	0	0	1860	808	2749	59
52	0	0	1832	809	2749	59
53	0	0	1825	811	2751	59
54	0	0	1843	810	2753	56
55	0	0	1905	811	2756	57
56	0	0	1972	809	2758	57
57	0	0	2016	811	2758	58
58	0	0	2031	810	2757	58
59	0	0	2060	810	2755	55
60	0	0	2084	809	2751	57
61	0	0	2082	808	2748	56
62	0	0	2081	809	2750	58
63	0	0	2049	806	2750	59
64	0	0	2037	807	2753	58
65	0	0	2044	809	2756	60
66	0	0	2033	808	2758	58
67	0	0	2023	810	2758	58
68	0	0	1992	807	2757	58
69	0	0	1920	808	2754	57
70	0	0	1848	807	2751	60
71	0	0	1797	807	2748	58
72	0	0	1817	812	2749	58
73	0	0	1859	811	2751	59
74	0	0	1911	813	2753	56
75	0	0	1967	811	2756	58
76	0	0	1990	810	2759	57
77	0	0	1995	810	2758	57
78	0	0	2013	809	2758	58
79	0	0	2040	810	2755	59
80	0	0	2083	809	2750	59
81	0	0	2109	808	2748	58
82	0	0	2118	809	2749	58
83	0	0	2089	807	2750	59
84	0	0	2036	807	2753	56
85	0	0	1985	805	2756	59
86	0	0	1944	806	2759	59
87	0	0	1896	806	2758	60
88	0	0	1858	809	2758	58
89	0	0	1844	811	2756	56
90	0	0	1846	810	2750	60
91	0	0	1834	808	2749	59
92	0	0	1848	811	2749	58
93	0	0	1870	811	2751	59
94	0	0	1881	809	2753	58
95	0	0	1915	811	2756	58
96	0	0	1981	812	2758	57
97	0	0	2037	810	2758	58
98	0	0	2063	806	2758	56
99	0	0	2075	808	2754	57
100	0	0	2070	808	2750	59
101	0	0	2067	809	2749	58
102	0	0	2068	808	2748	35
103	0	0	2070	809	2752	57
104	0	0	2072	808	2754	55
105	0	0	2039	805	2756	59
106	0	0	1986	804	2758	58
107	0	0	1950	804	2758	59
108	0	0	1958	811	2757	58
109	0	0	1968	811	2754	58
110	0	0	1934	807	2750	59
111	0	0	1877	807	2749	60
112	0	0	1843	810	2749	58
113	0	0	1868	811	2751	59
114	0	0	1908	811	2754	58
115	0	0	1939	811	2756	58
116	0	0	1974	808	2758	57
117	0	0	2003	810	2759	55
118	0	0	2016	809	2757	57
119	0	0	2044	808	2754	56
120	0	0	2115	809	2750	59
121	0	0	2168	808	2749	59
122	0	0	2151	805	2748	58
123	0	0	2115	807	2750	58
124	0	0	2082	804	2753	55
125	0	0	2036	805	2756	59
126	0	0	1994	806	2758	58
127	0	0	1988	808	2757	59
0	0	0	1999	810	2757	58
1	0	0	2014	810	2755	58
2	0	0	1964	805	2750	61
3	0	0	1900	806	2749	59
4	0	0	1861	808	2749	59
5	0	0	1856	809	2752	57
6	0	0	1888	811	2754	60
7	0	0	1963	810	2756	59
8	0	0	2011	809	2758	58
9	0	0	1997	809	2758	57
10	0	0	2012	808	2759	57
11	0	0	2054	808	2754	55
12	0	0	2081	808	2750	58
13	0	0	2076	806	2748	57
14	0	0	2087	808	2749	60
15	0	0	2136	808	2750	58
16	0	0	2141	804	2754	56
17	0	0	2088	805	2757	58
18	0	0	2051	805	2758	58
19	0	0	2023	806	2758	59
20	0	0	1987	805	2758	59
21	0	0	1934	806	2755	59
22	0	0	1906	807	2751	60
23	0	0	1887	807	2749	56
24	0	0	1874	811	2749	58
25	0	0	1894	808	2753	57
26	0	0	1928	810	2754	57
27	0	0	1931	810	2757	57
28	0	0	1928	809	2758	58
29	0	0	1926	809	2759	55
30	0	0	1945	808	2758	56
31	0	0	1953	810	2754	53
32	0	0	1973	808	2750	58
33	0	0	2022	808	2748	58
34	0	0	2075	808	2749	59
35	0	0	2103	808	2750	59
36	0	0	2100	808	2753	55
37	0	0	2094	808	2756	58
38	0	0	2067	808	2758	57
39	0	0	2031	803	2759	59
40	0	0	1993	805	2758	58
41	0	0	1939	806	2755	58
42	0	0	1933	810	2752	57
43	0	0	1935	810	2749	59
44	0	0	1939	810	2750	59
45	0	0	1960	809	2752	57
46	0	0	1991	809	2754	56
47	0	0	2020	809	2756	57
48	0	0	2051	809	2757	57
49	0	0	2086	809	2758	58
50	0	0	2116	808	2757	58
51	0	0	2129	807	2755	57
52	0	0	2136	808	2751	57
53	0	0	2122	805	2748	57
54	0	0	2104	808	2748	58
55	0	0	2125	807	2750	58
56	0	0	2153	807	2754	59
57	0	0	2132	805	2756	59
58	0	0	2087	806	2758	59
59	0	0	2046	805	2758	59
60	0	0	1975	805	2758	58
61	0	0	1935	807	2755	59
62	0	0	1939	811	2751	58
63	0	0	1949	808	2749	58
64	0	0	1963	809	2749	59
65	0	0	1972	809	2751	59
66	0	0	1968	809	2754	59
67	0	0	1973	809	2756	57
68	0	0	1987	809	2757	56
69	0	0	2004	809	2758	57
70	0	0	2027	809	2757	57
71	0	0	2049	807	2754	57
72	0	0	2135	806	2751	57
73	0	0	2242	807	2748	59
74	0	0	2319	807	2748	59
75	0	0	2312	803	2751	59
76	0	0	2262	805	2754	59
77	0	0	2214	804	2757	56
78	0	0	2149	804	2758	58
79	0	0	2068	804	2758	59
80	0	0	1990	806	2758	58
81	0	0	1953	806	2756	57
82	0	0	1931	807	2750	59
83	0	0	1926	809	2748	61
84	0	0	1958	810	2750	59
85	0	0	2023	808	2750	58
86	0	0	2061	809	2754	57
87	0	0	2048	807	2757	57
88	0	0	2035	808	2758	57
89	0	0	2069	809	2758	57
90	0	0	2137	809	2757	56
91	0	0	2207	807	2754	60
92	0	0	2269	807	2751	56
93	0	0	2275	806	2748	57
94	0	0	2244	804	2749	58
95	0	0	2218	803	2751	59
96	0	0	2179	803	2754	57
97	0	0	2144	804	2757	58
98	0	0	2096	803	2758	59
99	0	0	2053	804	2759	59
100	0	0	2000	803	2757	58
101	0	0	1980	807	2755	58
102	0	0	1964	806	2751	60
103	0	0	1937	807	2747	58
104	0	0	1924	807	2749	58
105	0	0	1925	808	2751	58
106	0	0	1963	807	2754	56
107	0	0	2026	808	2756	55
108	0	0	2087	808	2758	57
109	0	0	2116	807	2758	57
110	0	0	2123	807	2757	56
111	0	0	2115	807	2755	55
112	0	0	2113	806	2751	58
113	0	0	2105	805	2748	58
114	0	0	2083	804	2749	58
115	0	0	2083	805	2751	60
116	0	0	2097	806	2755	56
117	0	0	2127	807	2756	56
118	0	0	2114	803	2759	58
119	0	0	2018	803	2758	63
120	0	0	1954	806	2758	59
121	0	0	1957	809	2755	58
122	0	0	1972	808	2752	58
123	0	0	1968	808	2749	61
124	0	0	1948	806	2749	60
125	0	0	1940	808	2751	59
126	0	0	1962	808	2753	58
127	0	0	2008	808	2757	57
0	0	0	2038	808	2758	58
1	0	0	2034	806	2758	57
2	0	0	2010	804	2757	58
3	0	0	2003	807	2755	57
4	0	0	2013	806	2751	58
5	0	0	2046	806	2749	58
6	0	0	2076	806	2749	58
7	0	0	2077	805	2751	59
8	0	0	2081	806	2754	59
9	0	0	2071	806	2756	56
10	0	0	2042	804	2758	58
11	0	0	2009	805	2758	59
12	0	0	1985	806	2757	58
13	0	0	1983	807	2756	58
14	0	0	1970	807	2750	57
15	0	0	1958	807	2749	59
16	0	0	1965	807	2749	59
17	0	0	1962	804	2750	60
18	0	0	1955	808	2754	58
19	0	0	1990	808	2756	55
20	0	0	2025	807	2758	57
21	0	0	2043	808	2758	57
22	0	0	2072	806	2757	57
23	0	0	2089	806	2755	55
24	0	0	2096	804	2750	57
25	0	0	2109	806	2749	58
26	0	0	2120	808	2749	58
27	0	0	2138	804	2751	58
28	0	0	2154	806	2754	58
29	0	0	2138	803	2756	57
30	0	0	2079	803	2758	58
31	0	0	1974	799	2758	58
32	0	0	1881	799	2757	60
33	0	0	1853	804	2755	59
34	0	0	1826	805	2751	58
35	0	0	1825	807	2749	58
36	0	0	1880	808	2748	59
37	0	0	1937	808	2750	59
38	0	0	1958	807	2753	58
39	0	0	1988	807	2756	60
40	0	0	2000	806	2758	57
41	0	0	2032	807	2758	57
42	0	0	2112	799	2757	60
43	0	0	2175	806	2755	57
44	0	0	2198	806	2751	58
45	0	0	2184	804	2749	58
46	0	0	2153	802	2748	58
47	0	0	2128	802	2752	57
48	0	0	2086	801	2754	58
49	0	0	2018	799	2756	57
50	0	0	2000	806	2759	58
51	0	0	2035	806	2758	59
52	0	0	2015	804	2758	57
53	0	0	1965	803	2755	59
54	0	0	1942	804	2750	62
55	0	0	1922	808	2749	59
56	0	0	1962	808	2749	59
57	0	0	1985	803	2751	62
58	0	0	1943	803	2753	57
59	0	0	1915	805	2757	57
60	0	0	1919	807	2758	58
61	0	0	1962	806	2758	57
62	0	0	2028	805	2757	57
63	0	0	2117	807	2755	56
64	0	0	2166	805	2750	57
65	0	0	2166	806	2749	58
66	0	0	2162	805	2748	58
67	0	0	2148	803	2751	57
68	0	0	2116	802	2754	59
69	0	0	2069	801	2756	59
70	0	0	2043	803	2758	58
71	0	0	2019	804	2759	58
72	0	0	2007	802	2758	59
73	0	0	2000	807	2755	58
74	0	0	2021	807	2751	58
75	0	0	2017	804	2749	59
76	0	0	1979	804	2749	59
77	0	0	1944	804	2750	58
78	0	0	1945	807	2754	57
79	0	0	1966	807	2756	54
80	0	0	1994	807	2758	58
81	0	0	2025	807	2758	57
82	0	0	2073	804	2757	56
83	0	0	2136	806	2755	57
84	0	0	2170	805	2751	57
85	0	0	2192	805	2749	57
86	0	0	2192	802	2748	58
87	0	0	2158	802	2752	57
88	0	0	2130	803	2754	59
89	0	0	2113	802	2756	55
90	0	0	2096	805	2757	58
91	0	0	2087	807	2759	61
92	0	0	2090	805	2757	59
93	0	0	2075	803	2756	59
94	0	0	2036	804	2751	57
95	0	0	1994	804	2749	61
96	0	0	1942	804	2749	58
97	0	0	1950	803	2752	59
98	0	0	2008	807	2754	57
99	0	0	2057	806	2756	54
100	0	0	2098	806	2759	57
101	0	0	2146	806	2758	58
102	0	0	2221	805	2758	55
103	0	0	2248	805	2754	56
104	0	0	2237	804	2750	59
105	0	0	2240	804	2748	58
106	0	0	2217	801	2750	59
107	0	0	2175	801	2750	57
108	0	0	2145	802	2753	61
109	0	0	2103	801	2756	57
110	0	0	2024	801	2757	59
111	0	0	1999	806	2758	59
112	0	0	1982	802	2758	58
113	0	0	1945	803	2755	57
114	0	0	1919	804	2751	57
115	0	0	1891	804	2748	60
116	0	0	1880	806	2749	59
117	0	0	1892	807	2752	58
118	0	0	1934	806	2754	58
119	0	0	1953	805	2757	57
120	0	0	1931	804	2758	57
121	0	0	1954	805	2758	56
122	0	0	2039	804	2757	58
123	0	0	2113	805	2754	55
124	0	0	2162	804	2751	56
125	0	0	2168	803	2748	58
126	0	0	2174	803	2748	59
127	0	0	2192	804	2750	59
0	0	0	2204	803	2752	59
1	0	0	2240	804	2757	56
2	0	0	2240	804	2758	59
3	0	0	2225	806	2758	59
4	0	0	2218	806	2758	58
5	0	0	2236	806	2755	60
6	0	0	2294	806	2752	56
7	0	0	2377	805	2748	56
8	0	0	2476	805	2749	58
9	0	0	2601	806	2750	59
10	0	0	2707	805	2752	59
11	0	0	2848	805	2756	56
12	0	0	2957	805	2758	56
13	0	0	3041	806	2757	57
14	0	0	3138	805	2757	57
15	0	0	3219	804	2754	58
16	0	0	3296	802	2750	56
17	0	0	3383	805	2748	57
18	0	0	3430	803	2749	57
19	0	0	3435	803	2750	59
20	0	0	3409	803	2752	59
21	0	0	3351	802	2756	57
22	0	0	3279	802	2758	58
23	0	0	3223	802	2758	56
24	0	0	3183	803	2759	60
25	0	0	3160	805	2756	59
26	0	0	3092	802	2751	60
27	0	0	3001	802	2749	59
28	0	0	2914	802	2749	59
29	0	0	2855	803	2752	58
30	0	0	2806	802	2754	59
31	0	0	2746	802	2756	57
32	0	0	2714	804	2758	57
33	0	0	2694	802	2758	57
34	0	0	2653	801	2758	58
35	0	0	2621	802	2754	55
36	0	0	2602	803	2750	56
37	0	0	2596	803	2748	56
38	0	0	2581	803	2749	55
39	0	0	2578	803	2751	59
40	0	0	2537	800	2753	59
41	0	0	2473	800	2756	56
42	0	0	2382	800	2758	59
43	0	0	2303	800	2758	58
44	0	0	2264	801	2758	59
45	0	0	2243	803	2755	58
46	0	0	2207	801	2751	59
47	0	0	2139	797	2748	60
48	0	0	2092	803	2750	59
49	0	0	2075	805	2751	58
50	0	0	2079	806	2753	58
51	0	0	2091	805	2757	56
52	0	0	2132	804	2758	56
53	0	0	2188	804	2758	60
54	0	0	2244	802	2758	57
55	0	0	2316	805	2755	56
56	0	0	2354	803	2751	57
57	0	0	2385	802	2748	58
58	0	0	2377	801	2748	58
59	0	0	2337	799	2750	57
60	0	0	2324	802	2753	57
61	0	0	2296	800	2756	56
62	0	0	2245	800	2757	58
63	0	0	2188	800	2758	57
64	0	0	2132	800	2758	60
65	0	0	2066	801	2756	62
66	0	0	2034	804	2751	60
67	0	0	2044	804	2749	59
68	0	0	2074	805	2749	59
69	0	0	2109	803	2751	59
70	0	0	2120	804	2754	57
71	0	0	2112	804	2756	57
72	0	0	2146	804	2757	56
73	0	0	2196	804	2758	57
74	0	0	2267	803	2758	57
75	0	0	2347	804	2755	52
76	0	0	2364	803	2750	60
77	0	0	2366	802	2748	58
78	0	0	2371	802	2749	59
79	0	0	2367	802	2751	58
80	0	0	2350	800	2754	55
81	0	0	2293	798	2756	60
82	0	0	2249	801	2757	59
83	0	0	2253	804	2758	59
84	0	0	2284	802	2758	58
85	0	0	2294	804	2755	59
86	0	0	2276	801	2752	59
87	0	0	2228	802	2749	57
88	0	0	2196	803	2749	58
89	0	0	2192	803	2750	58
90	0	0	2230	806	2753	57
91	0	0	2279	805	2757	56
92	0	0	2328	804	2757	57
93	0	0	2375	803	2759	58
94	0	0	2424	799	2758	56
95	0	0	2437	803	2755	57
96	0	0	2428	802	2751	59
97	0	0	2417	803	2748	57
98	0	0	2435	802	2749	59
99	0	0	2444	800	2751	58
100	0	0	2413	800	2754	56
101	0	0	2367	799	2756	60
102	0	0	2334	800	2758	57
103	0	0	2308	802	2757	58
104	0	0	2280	803	2758	59
105	0	0	2272	804	2755	56
106	0	0	2255	802	2751	63
107	0	0	2219	802	2750	59
108	0	0	2197	804	2749	59
109	0	0	2204	804	2751	58
110	0	0	2229	803	2754	57
111	0	0	2247	806	2756	60
112	0	0	2277	804	2757	57
113	0	0	2299	803	2758	57
114	0	0	2299	802	2758	57
115	0	0	2279	804	2755	58
116	0	0	2288	801	2751	59
117	0	0	2336	803	2748	56
118	0	0	2399	801	2748	58
119	0	0	2444	799	2750	59
120	0	0	2462	804	2753	58
121	0	0	2433	799	2757	58
122	0	0	2376	799	2757	58
123	0	0	2319	799	2758	58
124	0	0	2272	800	2758	58
125	0	0	2227	800	2756	56
126	0	0	2173	799	2751	63
127	0	0	2127	801	2749	59
0	0	0	2107	802	2749	59
1	0	0	2109	804	2751	59
2	0	0	2081	802	2754	57
3	0	0	2110	803	2756	59
4	0	0	2178	803	2757	58
5	0	0	2235	803	2758	58
6	0	0	2320	803	2757	57
7	0	0	2388	804	2755	56
8	0	0	2419	801	2751	58
9	0	0	2427	801	2748	57
10	0	0	2412	799	2748	58
11	0	0	2412	800	2751	58
12	0	0	2381	797	2753	63
13	0	0	2325	799	2756	59
14	0	0	2286	799	2757	58
15	0	0	2240	799	2757	58
16	0	0	2196	800	2758	60
17	0	0	2164	800	2756	57
18	0	0	2139	801	2751	63
19	0	0	2114	802	2749	56
20	0	0	2136	804	2749	59
21	0	0	2208	804	2752	57
22	0	0	2252	805	2753	57
23	0	0	2306	804	2756	57
24	0	0	2337	803	2757	57
25	0	0	2334	802	2758	57
26	0	0	2347	802	2757	59
27	0	0	2373	802	2755	55
28	0	0	2387	801	2750	59
29	0	0	2386	801	2749	58
30	0	0	2353	798	2748	56
31	0	0	2303	798	2751	60
32	0	0	2273	800	2754	57
33	0	0	2266	801	2756	59
34	0	0	2264	802	2758	59
35	0	0	2232	799	2758	58
36	0	0	2195	801	2758	59
37	0	0	2185	802	2756	59
38	0	0	2152	800	2751	59
39	0	0	2110	801	2748	59
40	0	0	2111	803	2750	59
41	0	0	2131	799	2751	58
42	0	0	2147	804	2754	58
43	0	0	2178	801	2756	58
44	0	0	2211	803	2758	57
45	0	0	2248	802	2758	24
46	0	0	2281	802	2758	58
47	0	0	2316	801	2755	55
48	0	0	2356	802	2750	59
49	0	0	2368	801	2749	58
50	0	0	2349	801	2748	58
51	0	0	2330	799	2751	60
52	0	0	2290	796	2753	57
53	0	0	2253	799	2756	55
54	0	0	2223	799	2758	58
55	0	0	2208	801	2759	59
56	0	0	2186	800	2758	59
57	0	0	2151	798	2755	59
58	0	0	2113	800	2752	58
59	0	0	2084	801	2749	59
60	0	0	2093	803	2748	59
61	0	0	2129	803	2751	60
62	0	0	2178	803	2754	58
63	0	0	2230	802	2756	57
64	0	0	2252	802	2758	58
65	0	0	2242	803	2758	57
66	0	0	2247	802	2757	57
67	0	0	2232	800	2755	57
68	0	0	2240	800	2750	55
69	0	0	2274	801	2747	58
70	0	0	2322	801	2748	56
71	0	0	2375	801	2750	59
72	0	0	2390	801	2753	58
73	0	0	2392	802	2756	55
74	0	0	2374	798	2758	59
75	0	0	2314	797	2758	59
76	0	0	2259	800	2758	59
77	0	0	2252	802	2755	61
78	0	0	2284	804	2751	56
79	0	0	2322	805	2748	56
80	0	0	2306	799	2749	58
81	0	0	2242	800	2750	59
82	0	0	2222	803	2753	58
83	0	0	2278	802	2756	55
84	0	0	2334	802	2757	57
85	0	0	2366	801	2757	57
86	0	0	2392	802	2757	57
87	0	0	2390	799	2754	58
88	0	0	2390	800	2750	55
89	0	0	2426	799	2748	58
90	0	0	2476	800	2748	59
91	0	0	2521	801	2750	60
92	0	0	2516	797	2753	58
93	0	0	2476	798	2756	60
94	0	0	2428	796	2758	60
95	0	0	2375	799	2759	58
96	0	0	2337	800	2758	62
97	0	0	2321	799	2755	58
98	0	0	2304	802	2752	58
99	0	0	2298	802	2749	59
100	0	0	2305	803	2749	59
101	0	0	2282	800	2750	60
102	0	0	2272	802	2753	60
103	0	0	2297	802	2756	57
104	0	0	2346	802	2757	56
105	0	0	2410	803	2758	58
106	0	0	2476	801	2756	59
107	0	0	2531	804	2755	55
108	0	0	2589	800	2751	59
109	0	0	2638	799	2748	55
110	0	0	2656	802	2748	58
111	0	0	2653	799	2750	59
112	0	0	2643	799	2754	61
113	0	0	2614	799	2756	55
114	0	0	2588	800	2757	57
115	0	0	2553	799	2758	58
116	0	0	2519	800	2758	59
117	0	0	2484	799	2756	57
118	0	0	2433	799	2752	59
119	0	0	2372	798	2749	59
120	0	0	2346	802	2749	59
121	0	0	2366	802	2751	57
122	0	0	2436	799	2753	56
123	0	0	2507	801	2756	54
124	0	0	2548	801	2757	56
125	0	0	2564	800	2758	58
126	0	0	2581	801	2758	61
127	0	0	2608	799	2755	57
0	0	0	2622	800	2751	58
1	0	0	2647	799	2748	56
2	0	0	2672	800	2748	58
3	0	0	2684	799	2750	59
4	0	0	2700	798	2753	57
5	0	0	2655	797	2756	57
6	0	0	2610	798	2757	58
7	0	0	2557	798	2758	58
8	0	0	2483	797	2757	59
9	0	0	2424	798	2756	58
10	0	0	2389	799	2751	59
11	0	0	2365	803	2749	59
12	0	0	2365	802	2749	59
13	0	0	2385	802	2751	61
14	0	0	2398	799	2753	58
15	0	0	2435	802	2756	56
16	0	0	2495	800	2757	65
17	0	0	2541	802	2759	427
18	0	0	2555	800	2758	1245
19	0	0	2529	796	2755	2047
20	0	0	2522	799	2751	2634
21	0	0	2560	798	2748	3027
22	0	0	2609	799	2748	3284
23	0	0	2611	798	2751	3447
24	0	0	2601	799	2753	3562
25	0	0	2569	796	2756	3644
26	0	0	2526	797	2757	3704
27	0	0	2485	796	2758	3748
28	0	0	2433	796	2757	3784
29	0	0	2390	796	2755	3810
30	0	0	2370	801	2752	3829
31	0	0	2363	800	2748	3848
32	0	0	2368	799	2748	3863
33	0	0	2387	801	2750	3874
34	0	0	2422	803	2753	3887
35	0	0	2471	803	2756	3895
36	0	0	2540	799	2757	3904
37	0	0	2646	798	2758	3910
38	0	0	2722	795	2756	3915
39	0	0	2717	798	2755	3920
40	0	0	2700	798	2751	3927
41	0	0	2701	798	2748	3931
42	0	0	2701	800	2748	3932
43	0	0	2728	799	2750	3936
44	0	0	2717	800	2753	3941
45	0	0	2699	798	2756	3943
46	0	0	2608	795	2757	3947
47	0	0	2501	794	2758	3947
48	0	0	2428	797	2758	3951
49	0	0	2415	800	2756	3952
50	0	0	2408	801	2751	3952
51	0	0	2395	800	2748	3955
52	0	0	2407	801	2748	3956
53	0	0	2429	800	2752	3959
54	0	0	2447	800	2753	3959
55	0	0	2482	800	2756	3961
56	0	0	2513	800	2757	3963
57	0	0	2556	798	2757	3962
58	0	0	2593	799	2758	3963
59	0	0	2619	800	2755	3967
60	0	0	2657	799	2750	3966
61	0	0	2680	798	2748	3968
62	0	0	2681	797	2748	3968
63	0	0	2659	797	2751	3967
64	0	0	2611	794	2753	3971
65	0	0	2553	795	2756	3969
66	0	0	2487	795	2757	3971
67	0	0	2425	799	2758	3971
68	0	0	2415	799	2758	3971
69	0	0	2439	800	2755	3975
70	0	0	2450	800	2751	3971
71	0	0	2424	800	2748	3973
72	0	0	2413	801	2748	3975
73	0	0	2426	800	2751	3975
74	0	0	2444	800	2753	3978
75	0	0	2444	799	2756	3976
76	0	0	2446	797	2757	3977
77	0	0	2468	799	2758	3975
78	0	0	2499	799	2757	3977
79	0	0	2534	800	2755	3979
80	0	0	2582	799	2750	3977
81	0	0	2592	800	2748	3976
82	0	0	2556	795	2748	3979
83	0	0	2509	795	2750	3979
84	0	0	2474	796	2754	3980
85	0	0	2445	797	2755	3979
86	0	0	2411	796	2757	3983
87	0	0	2374	795	2759	3982
88	0	0	2311	795	2758	3980
89	0	0	2251	794	2755	3981
90	0	0	2226	797	2752	3982
91	0	0	2195	798	2748	3983
92	0	0	2208	798	2748	3982
93	0	0	2251	800	2750	3984
94	0	0	2292	800	2753	3983
95	0	0	2333	796	2755	3983
96	0	0	2349	800	2757	3982
97	0	0	2332	799	2758	3983
98	0	0	2347	800	2757	3983
99	0	0	2383	796	2754	3984
100	0	0	2423	799	2750	3984
101	0	0	2465	797	2748	3988
102	0	0	2484	798	2748	3984
103	0	0	2455	792	2750	3984
104	0	0	2395	794	2753	3983
105	0	0	2311	794	2755	3984
106	0	0	2228	795	2757	3984
107	0	0	2186	796	2759	3986
108	0	0	2160	798	2758	3985
109	0	0	2129	796	2755	3986
110	0	0	2094	797	2752	3987
111	0	0	2062	796	2748	3985
112	0	0	2020	795	2748	3986
113	0	0	2020	798	2750	3987
114	0	0	2045	800	2753	3985
115	0	0	2067	799	2756	3988
116	0	0	2110	798	2758	3985
117	0	0	2153	798	2758	3987
118	0	0	2211	797	2757	3987
119	0	0	2265	797	2755	3984
120	0	0	2301	794	2751	3988
121	0	0	2312	798	2747	3986
122	0	0	2298	796	2748	3987
123	0	0	2272	795	2750	3988
124	0	0	2239	794	2754	3988
125	0	0	2200	794	2756	3988
126	0	0	2157	795	2758	3989
127	0	0	2134	798	2758	3988
0	0	0	2125	798	2757	3988
1	0	0	2107	799	2756	3987
2	0	0	2089	798	2752	3990
3	0	0	2086	799	2748	3986
4	0	0	2090	799	2749	3989
5	0	0	2103	800	2751	3989
6	0	0	2106	800	2753	3988
7	0	0	2092	798	2755	3988
8	0	0	2091	799	2757	3988
9	0	0	2110	798	2758	3990
10	0	0	2153	800	2757	3990
11	0	0	2222	798	2755	3990
12	0	0	2278	797	2751	3990
13	0	0	2301	796	2748	3988
14	0	0	2290	797	2747	3991
15	0	0	2270	800	2750	3987
16	0	0	2250	796	2753	3987
17	0	0	2211	795	2756	3990
18	0	0	2170	794	2758	3991
19	0	0	2155	798	2758	3989
20	0	0	2151	799	2758	3991
21	0	0	2169	796	2756	3988
22	0	0	2160	795	2751	3991
23	0	0	2132	797	2748	3987
24	0	0	2137	799	2749	3991
25	0	0	2152	800	2751	3991
26	0	0	2145	797	2753	3991
27	0	0	2128	799	2756	3990
28	0	0	2128	799	2757	3991
29	0	0	2153	798	2758	3987
30	0	0	2182	798	2757	3991
31	0	0	2193	795	2755	3990
32	0	0	2210	797	2751	3991
33	0	0	2225	796	2747	3990
34	0	0	2262	796	2748	3991
35	0	0	2295	796	2750	3992
36	0	0	2282	796	2753	3992
37	0	0	2215	794	2757	3992
38	0	0	2173	795	2757	3991
39	0	0	2156	795	2759	3993
40	0	0	2133	794	2758	3992
41	0	0	2099	796	2756	3992
42	0	0	2064	795	2752	3993
43	0	0	2033	798	2748	3993
44	0	0	2054	799	2750	3993
45	0	0	2107	796	2751	3991
46	0	0	2138	799	2753	3993
47	0	0	2121	798	2756	3994
48	0	0	2124	798	2757	3991
49	0	0	2160	796	2759	3993
50	0	0	2178	797	2758	3990
51	0	0	2182	798	2755	3991
52	0	0	2212	797	2751	3993
53	0	0	2239	796	2748	3993
54	0	0	2220	793	2748	3992
55	0	0	2167	793	2750	3995
56	0	0	2155	795	2753	3994
57	0	0	2164	794	2756	3993
58	0	0	2119	793	2758	3994
59	0	0	2031	793	2758	3993
60	0	0	1969	794	2758	3992
61	0	0	1959	799	2756	3993
62	0	0	2002	799	2752	3994
63	0	0	2030	798	2748	3994
64	0	0	2017	796	2749	3992
65	0	0	1999	798	2750	3993
66	0	0	2016	797	2753	3994
67	0	0	2026	797	2756	3994
68	0	0	2025	797	2757	3994
69	0	0	2037	798	2758	3993
70	0	0	2058	797	2757	3993
71	0	0	2132	794	2755	3992
72	0	0	2206	796	2751	3992
73	0	0	2222	795	2748	3995
74	0	0	2204	795	2749	3993
75	0	0	2190	796	2751	3995
76	0	0	2186	795	2754	3995
77	0	0	2147	792	2757	3995
78	0	0	2076	789	2758	3995
79	0	0	1979	791	2758	3994
80	0	0	1915	795	2758	3995
81	0	0	1932	797	2756	3994
82	0	0	1960	798	2752	3995
83	0	0	1939	795	2749	3993
84	0	0	1905	798	2749	3994
85	0	0	1943	800	2750	3994
86	0	0	1996	800	2753	3995
87	0	0	2019	796	2756	3993
88	0	0	2003	798	2757	3995
89	0	0	1989	798	2759	3996
90	0	0	1998	797	2758	3995
91	0	0	2048	797	2755	3995
92	0	0	2098	795	2751	3993
93	0	0	2117	796	2749	3996
94	0	0	2143	795	2748	3994
95	0	0	2156	795	2750	3995
96	0	0	2150	796	2753	3996
97	0	0	2157	795	2756	3994
98	0	0	2140	793	2757	3995
99	0	0	2063	792	2758	3995
100	0	0	1961	791	2758	3995
101	0	0	1922	795	2755	3995
102	0	0	1897	793	2752	3994
103	0	0	1879	796	2749	3993
104	0	0	1884	797	2749	3995
105	0	0	1899	796	2750	3995
106	0	0	1918	799	2753	3995
107	0	0	1952	798	2756	3996
108	0	0	1979	797	2757	3995
109	0	0	1980	795	2759	3996
110	0	0	1999	793	2757	3995
111	0	0	2026	796	2755	3996
112	0	0	2040	794	2751	3996
113	0	0	2051	795	2748	3994
114	0	0	2070	794	2747	3995
115	0	0	2092	795	2750	3999
116	0	0	2120	793	2753	3996
117	0	0	2104	794	2756	3995
118	0	0	2051	792	2757	3994
119	0	0	1972	793	2758	3995
120	0	0	1906	793	2759	3995
121	0	0	1887	796	2756	3997
122	0	0	1893	797	2751	3997
123	0	0	1889	798	2750	3996
124	0	0	1892	797	2749	3995
125	0	0	1864	794	2750	3995
126	0	0	1838	797	2753	3996
127	0	0	1861	796	2756	3995
0	0	0	1917	797	2757	3995
1	0	0	1978	797	2759	3996
2	0	0	2013	796	2757	3995
3	0	0	2055	794	2755	3996
4	0	0	2093	795	2751	3996
5	0	0	2120	795	2748	3996
6	0	0	2137	795	2747	3995
7	0	0	2137	795	2750	3999
8	0	0	2090	788	2753	3997
9	0	0	2039	793	2756	3996
10	0	0	2004	793	2757	3994
11	0	0	1991	796	2758	3995
12	0	0	1994	796	2758	3996
13	0	0	2021	796	2756	3997
14	0	0	2032	797	2751	3996
15	0	0	1987	793	2749	3997
16	0	0	1967	796	2748	3996
17	0	0	1974	797	2750	3997
18	0	0	1970	797	2753	3996
19	0	0	1972	799	2755	3997
20	0	0	1986	797	2758	3997
21	0	0	2025	795	2758	3996
22	0	0	2054	795	2758	3996
23	0	0	2076	797	2756	3997
24	0	0	2089	797	2751	3994
25	0	0	2107	794	2748	3995
26	0	0	2120	795	2748	3996
27	0	0	2114	794	2750	3997
28	0	0	2091	794	2753	4000
29	0	0	2068	792	2755	3996
30	0	0	2048	794	2757	3996
31	0	0	2022	794	2758	3996
32	0	0	2013	796	2759	3995
33	0	0	2017	798	2755	3996
34	0	0	1973	793	2752	3998
35	0	0	1889	793	2748	4000
36	0	0	1858	799	2748	3996
37	0	0	1862	797	2750	3995
38	0	0	1894	794	2754	3997
39	0	0	1950	796	2755	3996
40	0	0	2015	796	2757	3996
41	0	0	2082	796	2757	3996
42	0	0	2138	796	2758	3997
43	0	0	2180	795	2756	3999
44	0	0	2202	794	2751	3996
45	0	0	2189	794	2748	3996
46	0	0	2187	793	2749	3998
47	0	0	2211	794	2750	3998
48	0	0	2215	794	2752	3998
49	0	0	2173	793	2756	3998
50	0	0	2087	791	2757	3998
51	0	0	2005	792	2758	3997
52	0	0	1974	796	2757	3997
53	0	0	1994	794	2756	3997
54	0	0	2010	797	2751	3997
55	0	0	1981	793	2748	3996
56	0	0	1951	796	2748	3997
57	0	0	1956	797	2751	3997
58	0	0	1957	794	2754	3997
59	0	0	1966	797	2755	3997
60	0	0	1988	796	2758	3999
61	0	0	2002	795	2758	3996
62	0	0	2030	796	2757	3996
63	0	0	2061	795	2754	3997
64	0	0	2095	795	2751	3998
65	0	0	2124	794	2748	3998
66	0	0	2139	795	2749	4000
67	0	0	2137	793	2750	3996
68	0	0	2092	788	2753	3996
69	0	0	2039	791	2755	3999
70	0	0	2000	792	2757	3999
71	0	0	1965	793	2758	3996
72	0	0	1912	792	2758	3994
73	0	0	1870	792	2756	3997
74	0	0	1840	792	2752	3997
75	0	0	1807	793	2748	3999
76	0	0	1795	797	2749	3997
77	0	0	1837	796	2750	3997
78	0	0	1916	796	2753	3998
79	0	0	1966	795	2755	3999
80	0	0	1978	795	2758	3998
81	0	0	2004	795	2758	3997
82	0	0	2036	794	2757	3995
83	0	0	2045	795	2755	3998
84	0	0	2073	793	2750	3998
85	0	0	2126	793	2748	3998
86	0	0	2177	793	2747	3997
87	0	0	2161	790	2749	4000
88	0	0	2110	792	2752	3996
89	0	0	2048	790	2755	3996
90	0	0	1970	790	2757	3998
91	0	0	1906	792	2758	3997
92	0	0	1892	793	2758	3997
93	0	0	1897	796	2755	3996
94	0	0	1901	795	2750	3998
95	0	0	1878	791	2748	3999
96	0	0	1851	795	2748	3997
97	0	0	1859	795	2750	3997
98	0	0	1860	798	2752	3996
99	0	0	1870	793	2755	3998
100	0	0	1942	795	2757	3999
101	0	0	2020	795	2757	3995
102	0	0	2072	793	2757	3997
103	0	0	2101	796	2755	3994
104	0	0	2117	792	2751	3998
105	0	0	2142	795	2747	3999
106	0	0	2158	793	2748	3997
107	0	0	2163	792	2750	3998
108	0	0	2146	794	2752	3997
109	0	0	2103	789	2754	3998
110	0	0	2056	791	2758	3999
111	0	0	1994	791	2758	3997
112	0	0	1958	792	2758	3999
113	0	0	1922	792	2756	3999
114	0	0	1889	792	2751	3997
115	0	0	1890	796	2749	3999
116	0	0	1925	795	2748	3997
117	0	0	1953	795	2750	3998
118	0	0	1967	795	2753	3999
119	0	0	2014	791	2755	3998
120	0	0	2042	795	2758	3999
121	0	0	2074	794	2757	3997
122	0	0	2116	794	2757	3998
123	0	0	2126	793	2754	3999
124	0	0	2121	795	2750	3998
125	0	0	2158	792	2748	3998
126	0	0	2191	792	2749	4002
127	0	0	2191	792	2750	3998
0	0	0	2158	790	2753	3998
1	0	0	2115	790	2755	3998
2	0	0	2071	790	2757	3997
3	0	0	2016	790	2757	3997
4	0	0	1961	792	2758	3997
5	0	0	1936	794	2754	3999
6	0	0	1939	794	2751	4000
7	0	0	1917	792	2748	3999
8	0	0	1885	792	2749	3999
9	0	0	1874	795	2750	3995
10	0	0	1895	795	2752	3997
11	0	0	1950	795	2755	4000
12	0	0	1995	795	2757	3999
13	0	0	2041	794	2758	3997
14	0	0	2125	793	2757	3999
15	0	0	2161	794	2755	3999
16	0	0	2138	791	2750	3998
17	0	0	2124	793	2748	3997
18	0	0	2101	792	2748	3998
19	0	0	2075	792	2750	4000
20	0	0	2066	793	2752	3997
21	0	0	2055	794	2755	3999
22	0	0	2032	790	2757	3997
23	0	0	1980	790	2758	3999
24	0	0	1913	790	2757	3999
25	0	0	1860	792	2754	3999
26	0	0	1843	791	2751	3998
27	0	0	1821	793	2748	3998
28	0	0	1828	795	2748	3998
29	0	0	1883	793	2750	3999
30	0	0	1932	794	2752	3999
31	0	0	1960	797	2755	3998
32	0	0	1960	794	2757	3998
33	0	0	1956	794	2757	3999
34	0	0	1971	796	2757	3997
35	0	0	2010	793	2754	3999
36	0	0	2057	792	2751	3999
37	0	0	2121	793	2748	3998
38	0	0	2153	791	2749	3999
39	0	0	2144	795	2750	3997
40	0	0	2121	789	2752	3999
41	0	0	2077	791	2755	3999
42	0	0	2057	792	2757	4000
43	0	0	2025	790	2758	3997
44	0	0	1968	791	2757	3999
45	0	0	1911	791	2755	3998
46	0	0	1873	793	2750	3999
47	0	0	1837	792	2748	4007
48	0	0	1853	794	2748	3998
49	0	0	1902	796	2750	3998
50	0	0	1936	795	2752	3999
51	0	0	1983	797	2755	3999
52	0	0	2044	794	2757	3998
53	0	0	2088	794	2757	3998
54	0	0	2083	793	2757	3998
55	0	0	2080	795	2755	3999
56	0	0	2121	795	2750	3998
57	0	0	2156	792	2747	3998
58	0	0	2165	791	2747	3998
59	0	0	2172	789	2750	4000
60	0	0	2167	792	2752	3997
61	0	0	2114	789	2755	3999
62	0	0	2061	789	2757	3999
63	0	0	2043	793	2758	3998
64	0	0	2007	792	2757	3998
65	0	0	1942	789	2756	3998
66	0	0	1898	790	2751	3999
67	0	0	1887	794	2748	4000
68	0	0	1896	795	2748	3998
69	0	0	1896	794	2750	4000
70	0	0	1912	795	2753	3999
71	0	0	1925	796	2755	3999
72	0	0	1939	793	2756	3998
73	0	0	1930	790	2757	3998
74	0	0	1907	792	2756	3998
75	0	0	1893	792	2755	3996
76	0	0	1918	792	2750	3998
77	0	0	1994	791	2747	4001
78	0	0	2079	791	2747	3998
79	0	0	2127	795	2749	3998
80	0	0	2114	788	2752	4000
81	0	0	2062	791	2756	3999
82	0	0	2045	792	2757	3998
83	0	0	2063	791	2759	4000
84	0	0	2094	792	2756	3999
85	0	0	2123	794	2756	3999
86	0	0	2153	795	2752	4000
87	0	0	2209	794	2748	4000
88	0	0	2275	794	2748	3998
89	0	0	2340	796	2750	4000
90	0	0	2437	793	2752	3998
91	0	0	2550	796	2755	3999
92	0	0	2658	793	2756	3998
93	0	0	2766	793	2757	4001
94	0	0	2888	797	2756	3998
95	0	0	2980	792	2755	4000
96	0	0	3055	792	2751	3999
97	0	0	3163	792	2748	3999
98	0	0	3286	791	2748	3999
99	0	0	3354	792	2749	3998
100	0	0	3358	792	2753	3999
101	0	0	3294	789	2756	4001
102	0	0	3184	789	2755	4000
103	0	0	3103	789	2758	3998
104	0	0	3036	790	2757	4000
105	0	0	2970	792	2755	4000
106	0	0	2937	794	2751	3999
107	0	0	2911	793	2748	3999
108	0	0	2856	790	2748	3998
109	0	0	2797	792	2749	4000
110	0	0	2714	788	2752	4000
111	0	0	2614	789	2755	4000
112	0	0	2537	783	2756	3999
113	0	0	2486	790	2757	3998
114	0	0	2458	790	2757	3998
115	0	0	2450	791	2755	3998
116	0	0	2454	790	2750	3998
117	0	0	2500	791	2748	4000
118	0	0	2520	792	2747	3998
119	0	0	2496	789	2749	3998
120	0	0	2423	787	2753	3996
121	0	0	2300	786	2755	3999
122	0	0	2171	786	2756	3998
123	0	0	2096	786	2758	3997
124	0	0	2063	790	2757	3998
125	0	0	2053	793	2755	3998
126	0	0	2010	788	2750	4000
127	0	0	1945	790	2748	3999
0	0	0	1909	791	2748	3998
1	0	0	1908	793	2749	3998
2	0	0	1897	791	2753	4000
3	0	0	1861	788	2755	3998
4	0	0	1851	792	2756	3998
5	0	0	1887	791	2757	3999
6	0	0	1916	790	2757	3999
7	0	0	1933	792	2755	3999
8	0	0	1965	790	2751	3998
9	0	0	1995	790	2747	3999
10	0	0	1975	788	2747	3998
11	0	0	1929	788	2749	3998
12	0	0	1884	788	2752	4000
13	0	0	1850	790	2755	3998
14	0	0	1823	788	2756	3999
15	0	0	1770	788	2757	3999
16	0	0	1721	788	2757	3998
17	0	0	1678	789	2755	4000
18	0	0	1646	790	2750	3999
19	0	0	1634	791	2748	3999
20	0	0	1633	792	2748	3999
21	0	0	1650	792	2749	3999
22	0	0	1691	792	2752	3999
23	0	0	1734	792	2755	4000
24	0	0	1761	793	2756	3999
25	0	0	1767	792	2756	3999
26	0	0	1775	792	2756	3998
27	0	0	1815	791	2755	3999
28	0	0	1853	792	2750	3999
29	0	0	1868	790	2747	3999
30	0	0	1884	790	2747	3999
31	0	0	1892	789	2749	4000
32	0	0	1870	789	2752	3999
33	0	0	1807	788	2755	3999
34	0	0	1764	788	2756	3998
35	0	0	1722	787	2757	3999
36	0	0	1664	788	2757	4000
37	0	0	1626	790	2754	3999
38	0	0	1622	793	2750	3999
39	0	0	1615	791	2747	4000
40	0	0	1593	790	2747	3999
41	0	0	1592	792	2750	3999
42	0	0	1629	793	2751	3999
43	0	0	1698	792	2753	4000
44	0	0	1759	793	2756	3998
45	0	0	1802	792	2756	3999
46	0	0	1794	788	2756	3999
47	0	0	1794	791	2754	3999
48	0	0	1820	792	2750	4000
49	0	0	1898	790	2746	4000
50	0	0	1966	790	2747	3998
51	0	0	1944	786	2749	3998
52	0	0	1904	788	2751	3999
53	0	0	1874	788	2754	3999
54	0	0	1808	787	2756	3998
55	0	0	1763	789	2757	3996
56	0	0	1739	788	2757	3999
57	0	0	1656	787	2755	3999
58	0	0	1600	790	2751	4000
59	0	0	1626	792	2747	3999
60	0	0	1675	792	2748	4000
61	0	0	1705	792	2750	4003
62	0	0	1675	788	2751	3999
63	0	0	1664	792	2755	4000
64	0	0	1694	791	2756	3999
65	0	0	1730	790	2757	4000
66	0	0	1778	791	2757	3998
67	0	0	1853	790	2754	3999
68	0	0	1899	791	2749	3998
69	0	0	1926	790	2747	4000
70	0	0	1921	789	2747	3998
71	0	0	1917	791	2749	3998
72	0	0	1924	789	2752	4000
73	0	0	1891	787	2755	3999
74	0	0	1840	787	2757	4000
75	0	0	1786	787	2756	3998
76	0	0	1771	790	2756	3999
77	0	0	1756	788	2755	3999
78	0	0	1725	789	2751	4000
79	0	0	1688	789	2747	3995
80	0	0	1674	792	2747	4000
81	0	0	1685	791	2748	3998
82	0	0	1714	792	2750	3999
83	0	0	1753	791	2754	4000
84	0	0	1788	791	2756	3999
85	0	0	1801	790	2757	3998
86	0	0	1809	789	2756	3999
87	0	0	1808	791	2754	4000
88	0	0	1844	787	2750	3999
89	0	0	1889	789	2747	3999
90	0	0	1904	790	2747	3998
91	0	0	1914	790	2749	4000
92	0	0	1905	789	2752	4000
93	0	0	1878	787	2754	4000
94	0	0	1847	788	2757	4000
95	0	0	1826	788	2757	3999
96	0	0	1797	787	2756	3999
97	0	0	1729	787	2755	4000
98	0	0	1687	787	2750	4000
99	0	0	1692	791	2747	3999
100	0	0	1739	792	2748	4000
101	0	0	1760	791	2749	3999
102	0	0	1757	792	2751	3999
103	0	0	1758	789	2754	3999
104	0	0	1765	791	2756	3999
105	0	0	1764	789	2757	3998
106	0	0	1754	790	2756	3999
107	0	0	1773	790	2754	4000
108	0	0	1820	787	2749	4000
109	0	0	1922	788	2747	3999
110	0	0	2023	788	2747	3998
111	0	0	2057	790	2749	3999
112	0	0	1997	785	2752	4000
113	0	0	1917	785	2754	3999
114	0	0	1862	787	2756	3999
115	0	0	1820	788	2757	4001
116	0	0	1780	787	2757	3999
117	0	0	1754	788	2755	3999
118	0	0	1740	791	2750	3999
119	0	0	1761	792	2747	3999
120	0	0	1806	792	2748	3999
121	0	0	1845	791	2749	4000
122	0	0	1868	791	2752	4000
123	0	0	1910	789	2754	4000
124	0	0	1959	791	2756	4001
125	0	0	1978	794	2756	3999
126	0	0	1952	787	2757	3999
127	0	0	1921	787	2755	3999
0	0	0	1921	788	2750	4000
1	0	0	1948	790	2747	3999
2	0	0	2001	791	2747	4000
3	0	0	2053	789	2749	4000
4	0	0	2064	788	2752	4001
5	0	0	2018	784	2754	4000
6	0	0	1936	786	2757	4000
7	0	0	1829	783	2758	3999
8	0	0	1797	791	2757	4000
9	0	0	1808	791	2755	4001
10	0	0	1819	789	2750	3999
11	0	0	1822	791	2747	3999
12	0	0	1831	794	2747	3999
13	0	0	1852	791	2749	3999
14	0	0	1876	791	2751	3999
15	0	0	1887	788	2754	4000
16	0	0	1903	790	2755	3999
17	0	0	1930	792	2756	3999
18	0	0	1962	789	2756	3999
19	0	0	2005	790	2753	4000
20	0	0	2037	787	2749	4000
21	0	0	2041	789	2747	3999
22	0	0	2012	786	2747	4000
23	0	0	1949	787	2749	4001
24	0	0	1914	788	2752	4000
25	0	0	1920	789	2754	4001
26	0	0	1923	789	2756	3999
27	0	0	1891	787	2757	4000
28	0	0	1882	790	2757	4000
29	0	0	1876	790	2754	4001
30	0	0	1834	785	2750	4000
31	0	0	1784	788	2747	4000
32	0	0	1801	791	2747	4000
33	0	0	1855	791	2749	4000
34	0	0	1900	792	2752	4000
35	0	0	1953	790	2754	3999
36	0	0	2004	791	2755	3999
37	0	0	2025	791	2757	4001
38	0	0	2043	789	2757	4000
39	0	0	2075	789	2754	3999
40	0	0	2117	788	2750	4000
41	0	0	2156	789	2747	3999
42	0	0	2170	787	2747	4000
43	0	0	2185	787	2749	4000
44	0	0	2201	789	2752	4001
45	0	0	2169	786	2754	4000
46	0	0	2110	786	2756	3999
47	0	0	2055	783	2757	3999
48	0	0	2006	786	2757	3999
49	0	0	1948	787	2756	4001
50	0	0	1906	788	2750	4000
51	0	0	1893	791	2747	3999
52	0	0	1888	792	2748	3998
53	0	0	1891	792	2748	3999
54	0	0	1888	792	2752	4000
55	0	0	1907	791	2754	4000
56	0	0	1948	790	2756	4001
57	0	0	1998	793	2756	3999
58	0	0	2048	789	2756	4000
59	0	0	2079	789	2755	4001
60	0	0	2107	789	2750	3999
61	0	0	2141	788	2746	3999
62	0	0	2191	787	2748	4000
63	0	0	2254	789	2749	4000
64	0	0	2283	788	2750	4000
65	0	0	2261	784	2754	4000
66	0	0	2186	785	2755	3999
67	0	0	2078	785	2757	4000
68	0	0	1993	787	2756	4000
69	0	0	1969	790	2755	3998
70	0	0	1954	787	2750	4000
71	0	0	1924	787	2747	3999
72	0	0	1918	791	2747	3999
73	0	0	1934	790	2749	4000
74	0	0	1967	791	2751	3999
75	0	0	2020	791	2754	4000
76	0	0	2061	790	2755	3998
77	0	0	2083	789	2757	3999
78	0	0	2114	789	2756	4002
79	0	0	2124	789	2754	4000
80	0	0	2118	787	2749	4001
81	0	0	2136	788	2746	3999
82	0	0	2161	787	2747	4000
83	0	0	2193	788	2748	4000
84	0	0	2240	788	2752	4000
85	0	0	2247	788	2754	3999
86	0	0	2206	786	2755	4000
87	0	0	2163	785	2758	4001
88	0	0	2077	785	2756	3998
89	0	0	1989	787	2754	3998
90	0	0	1969	790	2750	4000
91	0	0	1967	790	2747	3999
92	0	0	1940	788	2747	3999
93	0	0	1936	792	2748	3999
94	0	0	1942	791	2750	4000
95	0	0	1973	781	2754	4000
96	0	0	2020	790	2756	4001
97	0	0	2064	791	2756	3999
98	0	0	2134	790	2756	3999
99	0	0	2186	790	2754	3997
100	0	0	2217	788	2749	4001
101	0	0	2254	788	2746	3999
102	0	0	2265	788	2746	3999
103	0	0	2232	786	2748	4000
104	0	0	2180	785	2751	4000
105	0	0	2111	785	2754	4000
106	0	0	2068	787	2755	3999
107	0	0	2076	789	2756	3999
108	0	0	2088	790	2756	4000
109	0	0	2067	786	2754	4000
110	0	0	1997	786	2750	4000
111	0	0	1919	784	2746	3999
112	0	0	1862	787	2747	3999
113	0	0	1837	788	2748	4000
114	0	0	1842	790	2750	3999
115	0	0	1881	790	2754	4000
116	0	0	1956	789	2755	4000
117	0	0	2070	790	2756	3997
118	0	0	2164	788	2755	4000
119	0	0	2197	790	2754	4000
120	0	0	2208	790	2748	4000
121	0	0	2210	788	2745	3999
122	0	0	2194	788	2746	3999
123	0	0	2177	787	2748	4000
124	0	0	2150	787	2750	3999
125	0	0	2102	784	2753	3998
126	0	0	2030	781	2755	3999
127	0	0	1985	787	2756	4001
0	0	0	1960	785	2757	4001
1	0	0	1911	785	2754	3998
2	0	0	1869	786	2750	4000
3	0	0	1818	787	2747	3999
4	0	0	1789	788	2747	4001
5	0	0	1799	791	2749	4000
6	0	0	1835	790	2751	3998
7	0	0	1873	790	2754	4001
8	0	0	1918	790	2755	3999
9	0	0	1956	788	2756	4000
10	0	0	1987	790	2755	4000
11	0	0	2010	788	2754	3997
12	0	0	2045	788	2748	4001
13	0	0	2065	788	2746	3998
14	0	0	2061	787	2747	4000
15	0	0	2051	788	2748	3998
16	0	0	2030	786	2751	3999
17	0	0	1998	785	2753	4001
18	0	0	1971	785	2755	4000
19	0	0	1934	787	2756	4001
20	0	0	1878	785	2756	4000
21	0	0	1799	786	2755	3998
22	0	0	1742	786	2750	4001
23	0	0	1704	787	2746	4000
24	0	0	1704	790	2747	4000
25	0	0	1741	792	2747	3999
26	0	0	1801	789	2751	3999
27	0	0	1818	789	2753	4000
28	0	0	1818	789	2755	4000
29	0	0	1835	790	2755	3999
30	0	0	1852	789	2755	3999
31	0	0	1878	787	2754	3999
32	0	0	1907	788	2748	4000
33	0	0	1935	787	2746	4000
34	0	0	1956	788	2746	4000
35	0	0	1942	785	2748	4000
36	0	0	1910	785	2751	4001
37	0	0	1872	785	2753	3999
38	0	0	1851	786	2756	4000
39	0	0	1817	783	2756	3999
40	0	0	1773	785	2755	4000
41	0	0	1730	786	2754	3998
42	0	0	1688	786	2749	4000
43	0	0	1660	787	2747	3999
44	0	0	1674	790	2746	3998
45	0	0	1711	789	2748	3999
46	0	0	1744	789	2750	3998
47	0	0	1737	789	2753	4000
48	0	0	1749	789	2755	3999
49	0	0	1782	789	2756	3999
50	0	0	1819	787	2756	3999
51	0	0	1871	788	2753	4000
52	0	0	1943	787	2750	4000
53	0	0	1990	787	2746	3999
54	0	0	1957	785	2746	4001
55	0	0	1892	784	2749	4000
56	0	0	1866	784	2750	3998
57	0	0	1846	785	2753	4000
58	0	0	1828	786	2755	4000
59	0	0	1812	785	2756	4000
60	0	0	1767	785	2755	3999
61	0	0	1707	785	2755	3999
62	0	0	1671	786	2750	4001
63	0	0	1652	789	2747	4002
64	0	0	1683	789	2747	4000
65	0	0	1717	789	2748	4000
66	0	0	1736	789	2751	3999
67	0	0	1768	789	2753	4000
68	0	0	1786	789	2756	4000
69	0	0	1799	788	2755	3999
70	0	0	1815	787	2756	4000
71	0	0	1819	788	2754	4001
72	0	0	1849	785	2748	4000
73	0	0	1884	787	2746	4000
74	0	0	1886	787	2747	4001
75	0	0	1887	789	2747	3997
76	0	0	1895	787	2751	4000
77	0	0	1874	785	2753	4000
78	0	0	1870	787	2755	3999
79	0	0	1881	787	2756	3999
80	0	0	1852	783	2757	3999
81	0	0	1792	785	2755	3999
82	0	0	1743	785	2749	4000
83	0	0	1703	785	2748	4001
84	0	0	1664	786	2747	4000
85	0	0	1689	788	2748	4000
86	0	0	1722	789	2753	4000
87	0	0	1754	788	2753	4001
88	0	0	1778	788	2755	4000
89	0	0	1810	789	2756	3999
90	0	0	1867	786	2756	3999
91	0	0	1921	788	2754	4002
92	0	0	1954	786	2749	4002
93	0	0	1980	787	2746	4001
94	0	0	1995	788	2745	3999
95	0	0	1964	782	2748	3999
96	0	0	1896	782	2751	4000
97	0	0	1832	784	2754	3999
98	0	0	1822	787	2755	3999
99	0	0	1847	787	2757	4001
100	0	0	1814	784	2757	4002
101	0	0	1769	784	2755	4003
102	0	0	1743	786	2750	4001
103	0	0	1712	786	2747	4000
104	0	0	1685	785	2747	4001
105	0	0	1673	787	2748	4000
106	0	0	1675	788	2751	4000
107	0	0	1711	788	2754	4000
108	0	0	1771	788	2755	4000
109	0	0	1821	787	2756	4000
110	0	0	1872	787	2756	4000
111	0	0	1903	786	2753	4000
112	0	0	1917	787	2750	4000
113	0	0	1952	787	2746	3999
114	0	0	1984	787	2746	4000
115	0	0	2009	786	2748	4000
116	0	0	2004	785	2751	4002
117	0	0	1966	784	2754	3999
118	0	0	1936	785	2756	4001
119	0	0	1900	782	2756	4000
120	0	0	1840	783	2756	4000
121	0	0	1790	785	2754	4002
122	0	0	1760	786	2750	4001
123	0	0	1730	786	2747	3999
124	0	0	1743	788	2746	4000
125	0	0	1738	784	2749	3999
126	0	0	1717	788	2751	4002
127	0	0	1753	788	2753	4000
0	0	0	1813	788	2755	4000
1	0	0	1847	787	2756	4000
2	0	0	1885	785	2756	3999
3	0	0	1907	787	2754	4001
4	0	0	1902	787	2750	4001
5	0	0	1882	785	2746	4000
6	0	0	1868	786	2746	4002
7	0	0	1868	786	2748	4001
8	0	0	1873	785	2750	4000
9	0	0	1858	785	2753	4000
10	0	0	1843	785	2755	4000
11	0	0	1821	785	2756	3999
12	0	0	1795	784	2756	4000
13	0	0	1769	785	2754	4000
14	0	0	1745	785	2750	3999
15	0	0	1720	786	2746	4000
16	0	0	1722	789	2746	3999
17	0	0	1737	788	2748	4000
18	0	0	1749	787	2750	4000
19	0	0	1771	788	2754	3998
20	0	0	1780	788	2756	4001
21	0	0	1783	789	2756	4000
22	0	0	1821	787	2756	4000
23	0	0	1915	787	2753	4001
24	0	0	1988	786	2749	4000
25	0	0	2040	785	2746	4000
26	0	0	2044	785	2745	3999
27	0	0	2017	784	2747	4000
28	0	0	1974	783	2751	4000
29	0	0	1896	781	2754	4000
30	0	0	1831	783	2755	3999
31	0	0	1799	784	2756	4001
32	0	0	1787	785	2757	4001
33	0	0	1768	783	2754	4000
34	0	0	1731	784	2749	4000
35	0	0	1715	788	2747	4000
36	0	0	1739	788	2746	3999
37	0	0	1756	787	2749	4000
38	0	0	1732	785	2751	4000
39	0	0	1714	788	2754	4001
40	0	0	1730	787	2755	4000
41	0	0	1787	787	2756	3999
42	0	0	1887	786	2755	4000
43	0	0	1932	787	2754	4001
44	0	0	1943	786	2750	4001
45	0	0	1950	786	2746	3999
46	0	0	1932	783	2746	3999
47	0	0	1922	785	2747	4000
48	0	0	1928	784	2750	3999
49	0	0	1948	787	2752	4000
50	0	0	1966	787	2755	4000
51	0	0	1938	784	2756	3999
52	0	0	1882	783	2755	4000
53	0	0	1819	783	2754	4000
54	0	0	1750	783	2749	3999
55	0	0	1706	784	2746	3999
56	0	0	1708	789	2746	3999
57	0	0	1723	787	2747	4000
58	0	0	1731	787	2751	3999
59	0	0	1761	787	2751	4000
60	0	0	1805	786	2754	4000
61	0	0	1846	786	2755	4000
62	0	0	1899	786	2755	4000
63	0	0	1948	786	2753	4000
64	0	0	1989	786	2748	4000
65	0	0	1997	785	2746	3999
66	0	0	1968	784	2746	4000
67	0	0	1965	784	2747	4000
68	0	0	1933	783	2750	4003
69	0	0	1880	783	2753	3999
70	0	0	1842	782	2755	3998
71	0	0	1812	783	2757	4001
72	0	0	1810	786	2757	3999
73	0	0	1798	785	2754	4001
74	0	0	1782	784	2750	4001
75	0	0	1748	784	2746	3999
76	0	0	1700	783	2747	4001
77	0	0	1688	789	2749	4000
78	0	0	1714	788	2750	3999
79	0	0	1747	788	2753	4000
80	0	0	1812	787	2755	4000
81	0	0	1878	785	2756	4001
82	0	0	1920	787	2756	4000
83	0	0	1946	786	2754	3999
84	0	0	1969	785	2748	4003
85	0	0	2008	785	2746	3999
86	0	0	2039	784	2747	4000
87	0	0	2059	785	2748	4000
88	0	0	2064	785	2751	4000
89	0	0	2017	782	2752	4000
90	0	0	1953	781	2755	4000
91	0	0	1904	782	2756	3999
92	0	0	1855	782	2756	4001
93	0	0	1841	786	2754	4002
94	0	0	1829	785	2749	4000
95	0	0	1807	784	2746	3999
96	0	0	1804	787	2747	4002
97	0	0	1824	787	2748	4003
98	0	0	1829	787	2750	3999
99	0	0	1858	787	2752	4001
100	0	0	1889	786	2755	4000
101	0	0	1924	784	2757	4000
102	0	0	1979	787	2755	4000
103	0	0	2022	786	2754	4000
104	0	0	2019	785	2748	4000
105	0	0	2037	786	2746	4000
106	0	0	2048	783	2746	3999
107	0	0	2039	784	2747	4001
108	0	0	2022	783	2750	3999
109	0	0	2013	785	2753	4000
110	0	0	1991	782	2754	3999
111	0	0	1947	782	2756	4000
112	0	0	1893	782	2756	4001
113	0	0	1841	783	2754	3999
114	0	0	1814	785	2749	3998
115	0	0	1831	783	2746	3999
116	0	0	1844	785	2747	4001
117	0	0	1843	786	2748	4002
118	0	0	1857	788	2750	3999
119	0	0	1883	787	2753	4000
120	0	0	1915	786	2755	4001
121	0	0	1938	787	2756	4000
122	0	0	1949	786	2755	4000
123	0	0	1964	785	2754	3999
124	0	0	1984	784	2749	3999
125	0	0	2011	784	2746	3999
126	0	0	2031	783	2746	3999
127	0	0	2081	784	2748	4001
0	0	0	2080	780	2750	3999
1	0	0	2034	782	2753	4001
2	0	0	1987	782	2755	4000
3	0	0	1941	782	2756	4001
4	0	0	1891	783	2755	4000
5	0	0	1842	783	2754	4000
6	0	0	1824	783	2749	4000
7	0	0	1829	786	2747	4001
8	0	0	1834	786	2746	3999
9	0	0	1857	787	2747	4000
10	0	0	1884	786	2750	3999
11	0	0	1893	786	2752	4001
12	0	0	1889	783	2754	3999
13	0	0	1907	785	2756	3999
14	0	0	1947	784	2756	4000
15	0	0	1962	784	2754	4000
16	0	0	1973	784	2749	4000
17	0	0	2009	782	2745	3999
18	0	0	2031	788	2745	4000
19	0	0	2048	784	2748	4001
20	0	0	2083	784	2750	3999
21	0	0	2090	784	2753	4000
22	0	0	2047	781	2755	4000
23	0	0	1966	780	2756	4000
24	0	0	1882	782	2756	4000
25	0	0	1803	782	2755	4000
26	0	0	1723	782	2749	4000
27	0	0	1664	782	2747	4000
28	0	0	1678	791	2746	4000
29	0	0	1729	788	2748	4000
30	0	0	1766	786	2750	4000
31	0	0	1792	786	2752	4001
32	0	0	1823	786	2755	4001
33	0	0	1872	782	2757	3999
34	0	0	1905	786	2755	4000
35	0	0	1937	783	2754	4000
36	0	0	1963	784	2749	4000
37	0	0	1999	783	2746	3999
38	0	0	2029	784	2747	4002
39	0	0	2013	781	2748	4001
40	0	0	1978	781	2750	3999
41	0	0	1942	781	2752	4002
42	0	0	1913	782	2755	4000
43	0	0	1890	786	2755	4000
44	0	0	1851	782	2755	4000
45	0	0	1785	782	2754	4001
46	0	0	1746	784	2749	4000
47	0	0	1753	786	2747	4000
48	0	0	1748	787	2745	4000
49	0	0	1722	786	2748	4000
50	0	0	1760	786	2750	4000
51	0	0	1825	785	2752	4000
52	0	0	1902	785	2755	4001
53	0	0	1951	783	2756	4000
54	0	0	1984	786	2755	4000
55	0	0	1987	784	2754	4000
56	0	0	1971	784	2748	4001
57	0	0	1984	783	2746	3999
58	0	0	1976	779	2746	3999
59	0	0	1964	785	2748	4000
60	0	0	1955	782	2750	4000
61	0	0	1944	784	2754	4001
62	0	0	1923	782	2755	4000
63	0	0	1869	781	2756	4002
64	0	0	1851	786	2756	4000
65	0	0	1837	782	2754	4004
66	0	0	1790	782	2749	4002
67	0	0	1741	782	2747	4000
68	0	0	1711	783	2746	4000
69	0	0	1722	787	2748	4000
70	0	0	1759	786	2750	4001
71	0	0	1822	785	2752	4002
72	0	0	1886	784	2754	4000
73	0	0	1910	785	2755	4000
74	0	0	1921	786	2756	4001
75	0	0	1928	784	2754	4001
76	0	0	1942	784	2750	4002
77	0	0	1956	783	2746	4000
78	0	0	1947	780	2747	4002
79	0	0	1938	782	2748	4002
80	0	0	1944	782	2750	4000
81	0	0	1931	783	2752	4001
82	0	0	1903	780	2755	4001
83	0	0	1835	781	2756	4000
84	0	0	1764	782	2756	4000
85	0	0	1707	781	2754	4000
86	0	0	1696	786	2750	4001
87	0	0	1724	784	2746	4000
88	0	0	1769	785	2746	4000
89	0	0	1794	784	2748	4000
90	0	0	1795	786	2750	4000
91	0	0	1811	785	2752	4002
92	0	0	1833	784	2755	4000
93	0	0	1847	785	2756	4000
94	0	0	1888	785	2756	4000
95	0	0	1943	784	2754	4001
96	0	0	1992	783	2749	4001
97	0	0	2035	783	2746	3999
98	0	0	2031	782	2745	4000
99	0	0	2052	783	2747	4000
100	0	0	2059	782	2751	4001
101	0	0	2006	779	2752	4000
102	0	0	1933	779	2755	4001
103	0	0	1856	781	2756	4000
104	0	0	1803	782	2756	4000
105	0	0	1802	784	2754	4000
106	0	0	1787	782	2750	4000
107	0	0	1781	784	2746	4000
108	0	0	1776	784	2747	4003
109	0	0	1780	786	2748	4000
110	0	0	1809	785	2750	4000
111	0	0	1827	784	2752	4001
112	0	0	1853	784	2754	4000
113	0	0	1891	784	2755	4000
114	0	0	1927	783	2755	4000
115	0	0	1947	782	2754	4001
116	0	0	1969	783	2748	4001
117	0	0	2002	782	2747	4001
118	0	0	2020	783	2746	4000
119	0	0	2032	784	2748	4001
120	0	0	2058	780	2750	4000
121	0	0	2019	779	2751	4001
122	0	0	1943	779	2755	4000
123	0	0	1877	780	2756	4000
124	0	0	1817	780	2755	4001
125	0	0	1787	781	2755	4000
126	0	0	1749	780	2748	3999
127	0	0	1708	782	2746	3999
0	0	0	1704	785	2746	4000
1	0	0	1721	784	2748	4001
2	0	0	1775	785	2750	4002
3	0	0	1831	785	2753	4001
4	0	0	1866	783	2754	4000
5	0	0	1895	783	2755	4000
6	0	0	1920	784	2755	4001
7	0	0	1935	782	2753	4000
8	0	0	1947	783	2748	4001
9	0	0	1989	783	2745	3999
10	0	0	2025	783	2745	4000
11	0	0	2034	781	2747	4000
12	0	0	2007	780	2750	3999
13	0	0	1979	781	2753	4001
14	0	0	1986	783	2754	4000
15	0	0	1980	781	2756	4002
16	0	0	1934	778	2756	4001
17	0	0	1873	780	2754	4001
18	0	0	1822	780	2750	4003
19	0	0	1768	780	2746	4000
20	0	0	1714	781	2746	4000
21	0	0	1686	782	2747	4000
22	0	0	1699	784	2750	4001
23	0	0	1725	783	2753	4000
24	0	0	1761	784	2754	4000
25	0	0	1782	782	2755	4000
26	0	0	1810	782	2754	4000
27	0	0	1870	783	2753	4002
28	0	0	1948	780	2749	4000
29	0	0	1981	780	2745	4000
30	0	0	1929	778	2746	3999
31	0	0	1878	778	2746	4000
32	0	0	1847	776	2750	4000
33	0	0	1821	779	2753	3999
34	0	0	1767	778	2754	4000
35	0	0	1723	780	2755	4000
36	0	0	1726	783	2756	4002
37	0	0	1762	784	2754	4000
38	0	0	1817	784	2750	4002
39	0	0	1875	784	2746	4000
40	0	0	1935	783	2746	4000
41	0	0	2024	784	2748	3999
42	0	0	2149	784	2749	4000
43	0	0	2306	783	2752	3999
44	0	0	2449	783	2754	4000
45	0	0	2542	784	2755	4000
46	0	0	2644	783	2755	3998
47	0	0	2783	782	2754	4001
48	0	0	2905	782	2749	3999
49	0	0	2987	781	2745	4000
50	0	0	3042	782	2745	4000
51	0	0	3094	780	2746	4000
52	0	0	3127	782	2749	4000
53	0	0	3142	782	2752	3999
54	0	0	3121	782	2754	3999
55	0	0	3094	782	2755	4000
56	0	0	3093	784	2756	4000
57	0	0	3080	784	2754	4000
58	0	0	3042	782	2749	3999
59	0	0	3012	783	2746	4000
60	0	0	2958	781	2745	4000
61	0	0	2905	779	2747	3999
62	0	0	2886	783	2750	3999
63	0	0	2866	777	2751	3999
64	0	0	2829	781	2755	4001
65	0	0	2793	779	2755	3999
66	0	0	2776	779	2755	3999
67	0	0	2773	782	2753	4000
68	0	0	2712	778	2748	3999
69	0	0	2629	777	2745	4000
70	0	0	2577	778	2746	3999
71	0	0	2562	780	2747	4001
72	0	0	2514	777	2749	4000
73	0	0	2459	777	2752	4002
74	0	0	2387	778	2754	4000
75	0	0	2318	778	2755	4000
76	0	0	2250	779	2755	3999
77	0	0	2183	779	2754	4000
78	0	0	2128	779	2749	4001
79	0	0	2072	779	2746	4000
80	0	0	2034	780	2745	4000
81	0	0	2034	783	2747	4002
82	0	0	2054	783	2750	4000
83	0	0	2082	782	2753	4000
84	0	0	2092	783	2754	4000
85	0	0	2084	781	2756	4002
86	0	0	2067	780	2755	4001
87	0	0	2076	784	2753	4000
88	0	0	2124	781	2748	4001
89	0	0	2178	780	2745	4000
90	0	0	2172	778	2745	4000
91	0	0	2131	775	2746	4000
92	0	0	2061	776	2749	3999
93	0	0	2001	778	2751	3999
94	0	0	1957	777	2754	4000
95	0	0	1903	777	2755	4000
96	0	0	1863	777	2755	4000
97	0	0	1847	778	2754	4000
98	0	0	1817	779	2749	4002
99	0	0	1800	780	2747	4001
100	0	0	1798	779	2746	3999
101	0	0	1821	781	2747	4000
102	0	0	1866	783	2750	4002
103	0	0	1893	782	2751	4000
104	0	0	1903	781	2755	4001
105	0	0	1913	781	2756	4000
106	0	0	1913	780	2755	4000
107	0	0	1924	781	2753	4000
108	0	0	1935	780	2748	4001
109	0	0	1955	779	2745	4000
110	0	0	1929	777	2746	3999
111	0	0	1881	778	2748	4000
112	0	0	1898	781	2749	4001
113	0	0	1943	779	2753	4002
114	0	0	1937	777	2754	4000
115	0	0	1868	777	2755	3998
116	0	0	1785	777	2755	4000
117	0	0	1709	777	2754	3999
118	0	0	1683	780	2749	4001
119	0	0	1665	779	2747	3999
120	0	0	1662	779	2745	4000
121	0	0	1696	780	2746	4000
122	0	0	1753	782	2749	4001
123	0	0	1806	782	2752	4002
124	0	0	1860	781	2754	4000
125	0	0	1893	781	2756	3999
126	0	0	1915	781	2755	3999
127	0	0	1923	780	2753	4001
0	0	0	1926	778	2749	4001
1	0	0	1959	777	2746	4000
2	0	0	1984	780	2745	4000
3	0	0	1959	774	2746	4001
4	0	0	1924	776	2749	4000
5	0	0	1886	775	2752	4002
6	0	0	1841	776	2755	4001
7	0	0	1807	779	2755	4000
8	0	0	1783	777	2755	4000
9	0	0	1761	779	2754	4000
10	0	0	1752	782	2749	4000
11	0	0	1753	782	2746	4001
12	0	0	1743	782	2746	4001
13	0	0	1749	780	2747	4000
14	0	0	1757	782	2749	4000
15	0	0	1780	781	2752	4002
16	0	0	1822	781	2753	4000
17	0	0	1885	781	2755	4000
18	0	0	1939	778	2755	4001
19	0	0	1985	780	2754	4001
20	0	0	1998	780	2748	4000
21	0	0	2004	780	2746	4001
22	0	0	2007	780	2745	4000
23	0	0	2020	779	2746	4000
24	0	0	2000	777	2749	4000
25	0	0	1945	776	2752	4004
26	0	0	1896	776	2754	4000
27	0	0	1871	777	2756	4001
28	0	0	1828	778	2755	3999
29	0	0	1790	781	2753	4001
30	0	0	1794	781	2748	4000
31	0	0	1783	779	2745	3995
32	0	0	1785	779	2745	4000
33	0	0	1795	782	2747	3999
34	0	0	1800	781	2749	4001
35	0	0	1816	782	2753	4001
36	0	0	1842	780	2754	4000
37	0	0	1869	781	2755	4000
38	0	0	1854	778	2755	4001
39	0	0	1859	778	2753	4000
40	0	0	1903	779	2748	4001
41	0	0	1937	780	2745	4000
42	0	0	1955	779	2745	4000
43	0	0	1943	777	2747	4000
44	0	0	1920	776	2749	4001
45	0	0	1877	775	2752	4000
46	0	0	1816	776	2754	3999
47	0	0	1753	777	2755	4000
48	0	0	1726	781	2755	4000
49	0	0	1766	782	2754	4001
50	0	0	1825	781	2749	4000
51	0	0	1862	782	2746	3999
52	0	0	1847	779	2746	4000
53	0	0	1833	781	2747	3999
54	0	0	1841	781	2749	4000
55	0	0	1884	782	2753	4001
56	0	0	1912	780	2754	4000
57	0	0	1927	780	2755	4001
58	0	0	1958	780	2756	4002
59	0	0	1994	781	2753	4001
60	0	0	2051	779	2748	4001
61	0	0	2074	781	2746	4002
62	0	0	2053	776	2745	3999
63	0	0	2025	777	2746	3999
64	0	0	2020	776	2749	4000
65	0	0	1990	776	2752	3998
66	0	0	1927	775	2753	4000
67	0	0	1863	775	2755	4000
68	0	0	1838	780	2755	4000
69	0	0	1841	780	2754	3998
70	0	0	1856	779	2748	4002
71	0	0	1865	781	2745	3999
72	0	0	1862	781	2745	4000
73	0	0	1866	781	2747	4000
74	0	0	1843	779	2750	3998
75	0	0	1859	779	2752	4001
76	0	0	1893	780	2753	4000
77	0	0	1911	779	2755	4000
78	0	0	1928	778	2755	4000
79	0	0	1962	778	2753	4000
80	0	0	2000	780	2748	3998
81	0	0	2055	778	2745	4000
82	0	0	2087	778	2745	4000
83	0	0	2077	776	2747	4000
84	0	0	2046	776	2749	3999
85	0	0	2020	776	2751	3999
86	0	0	1974	776	2754	4001
87	0	0	1925	773	2754	4001
88	0	0	1918	779	2755	4000
89	0	0	1872	776	2754	4001
90	0	0	1828	777	2748	3998
91	0	0	1819	781	2746	4001
92	0	0	1839	779	2745	4001
93	0	0	1850	781	2747	4002
94	0	0	1864	780	2749	4001
95	0	0	1889	780	2751	3999
96	0	0	1915	779	2753	4000
97	0	0	1965	778	2754	4001
98	0	0	2004	780	2755	4000
99	0	0	2028	778	2753	4000
100	0	0	2059	778	2748	3999
101	0	0	2103	778	2745	4000
102	0	0	2131	779	2744	4000
103	0	0	2135	775	2747	4001
104	0	0	2122	777	2749	4001
105	0	0	2078	775	2751	3999
106	0	0	2018	775	2754	3999
107	0	0	1969	775	2755	4002
108	0	0	1922	776	2756	4000
109	0	0	1875	777	2753	4001
110	0	0	1864	780	2749	3999
111	0	0	1873	781	2746	4001
112	0	0	1873	778	2746	3999
113	0	0	1865	780	2747	4000
114	0	0	1868	780	2749	4001
115	0	0	1881	779	2751	3999
116	0	0	1882	781	2754	3999
117	0	0	1925	778	2754	4000
118	0	0	1987	778	2755	4000
119	0	0	2025	777	2753	4000
120	0	0	2089	778	2748	3999
121	0	0	2172	779	2745	3999
122	0	0	2217	778	2745	4000
123	0	0	2220	775	2746	4001
124	0	0	2188	774	2749	4001
125	0	0	2128	775	2752	4002
126	0	0	2051	775	2753	4000
127	0	0	1989	775	2755	3999
0	0	0	1955	778	2755	4001
1	0	0	1975	780	2754	4001
2	0	0	2002	780	2749	3999
3	0	0	1976	775	2745	4000
4	0	0	1957	781	2745	4002
5	0	0	1960	775	2746	4001
6	0	0	1938	776	2749	4001
7	0	0	1931	779	2751	3999
8	0	0	1964	777	2754	3999
9	0	0	2006	779	2755	4003
10	0	0	2044	779	2755	4001
11	0	0	2054	777	2753	4003
12	0	0	2067	778	2748	3999
13	0	0	2096	776	2746	4001
14	0	0	2110	776	2744	4000
15	0	0	2148	777	2746	3999
16	0	0	2190	777	2749	4001
17	0	0	2184	776	2751	3999
18	0	0	2129	776	2754	4000
19	0	0	2054	775	2754	4000
20	0	0	1995	775	2755	4001
21	0	0	1981	779	2753	4001
22	0	0	1975	778	2749	3999
23	0	0	1948	777	2745	3999
24	0	0	1926	778	2744	4000
25	0	0	1938	776	2746	4001
26	0	0	1985	778	2749	4000
27	0	0	2024	779	2751	3999
28	0	0	2050	780	2753	3999
29	0	0	2091	779	2755	4001
30	0	0	2118	779	2755	4000
31	0	0	2140	779	2753	4001
32	0	0	2165	779	2749	4001
33	0	0	2197	777	2745	4000
34	0	0	2218	777	2745	4001
35	0	0	2221	777	2746	4002
36	0	0	2222	776	2748	4001
37	0	0	2220	777	2752	4001
38	0	0	2180	775	2753	4000
39	0	0	2138	776	2755	3999
40	0	0	2127	779	2755	4000
41	0	0	2089	775	2753	4000
42	0	0	2061	779	2748	4000
43	0	0	2053	778	2745	4000
44	0	0	2027	777	2746	3999
45	0	0	1992	774	2746	4001
46	0	0	1970	779	2749	4000
47	0	0	1991	779	2750	4000
48	0	0	2025	780	2753	4000
49	0	0	2066	778	2755	3999
50	0	0	2144	776	2754	4001
51	0	0	2203	778	2753	4000
52	0	0	2229	777	2748	4000
53	0	0	2236	778	2746	4002
54	0	0	2245	778	2745	4001
55	0	0	2248	779	2746	4000
56	0	0	2218	774	2749	4001
57	0	0	2171	775	2752	4001
58	0	0	2166	778	2753	4000
59	0	0	2183	779	2755	4000
60	0	0	2183	777	2755	4001
61	0	0	2151	774	2753	4000
62	0	0	2104	775	2748	4000
63	0	0	2047	775	2745	4000
64	0	0	2006	776	2746	3999
65	0	0	2003	779	2746	4000
66	0	0	2007	779	2749	4001
67	0	0	1989	777	2751	4000
68	0	0	1999	776	2753	4000
69	0	0	2063	779	2754	4002
70	0	0	2124	778	2755	4000
71	0	0	2156	776	2753	4000
72	0	0	2176	778	2749	4001
73	0	0	2178	776	2745	4000
74	0	0	2168	777	2744	3999
75	0	0	2159	776	2746	4001
76	0	0	2129	774	2748	4001
77	0	0	2083	773	2752	4000
78	0	0	2067	778	2754	4002
79	0	0	2060	774	2754	4001
80	0	0	2016	774	2755	4000
81	0	0	1947	775	2753	4000
82	0	0	1902	775	2748	4000
83	0	0	1881	776	2745	4000
84	0	0	1860	777	2745	3999
85	0	0	1856	777	2746	4001
86	0	0	1880	779	2749	4001
87	0	0	1930	778	2752	3996
88	0	0	1957	778	2753	4000
89	0	0	1971	775	2754	4000
90	0	0	1982	776	2754	4000
91	0	0	1970	776	2753	4001
92	0	0	1975	776	2749	4001
93	0	0	1999	777	2745	4000
94	0	0	2037	776	2745	4001
95	0	0	2077	774	2746	4001
96	0	0	2057	772	2748	4000
97	0	0	2001	773	2751	4000
98	0	0	1960	773	2753	4000
99	0	0	1911	772	2754	3999
100	0	0	1841	774	2755	4000
101	0	0	1786	775	2753	4000
102	0	0	1755	775	2748	3999
103	0	0	1740	779	2746	4001
104	0	0	1772	777	2744	3999
105	0	0	1807	780	2746	4001
106	0	0	1805	778	2749	4001
107	0	0	1810	778	2751	4000
108	0	0	1828	777	2753	4000
109	0	0	1867	778	2754	4001
110	0	0	1882	778	2754	4000
111	0	0	1897	779	2753	4000
112	0	0	1931	775	2748	4000
113	0	0	1962	776	2744	3999
114	0	0	1984	775	2744	4000
115	0	0	1995	778	2746	4000
116	0	0	1976	774	2749	4001
117	0	0	1938	773	2750	4000
118	0	0	1898	774	2754	4001
119	0	0	1851	770	2754	4001
120	0	0	1830	777	2754	4002
121	0	0	1824	776	2753	4001
122	0	0	1798	775	2748	3998
123	0	0	1753	775	2745	4000
124	0	0	1710	774	2745	4000
125	0	0	1680	776	2746	4000
126	0	0	1676	779	2748	4001
127	0	0	1716	777	2750	3998
0	0	0	1785	777	2753	4000
1	0	0	1840	775	2754	4000
2	0	0	1892	776	2754	3999
3	0	0	1949	775	2752	4001
4	0	0	1994	777	2749	4001
5	0	0	2038	775	2745	4000
6	0	0	2065	774	2744	4000
7	0	0	2041	770	2746	4000
8	0	0	1979	772	2748	4000
9	0	0	1907	772	2752	4002
10	0	0	1835	772	2753	4000
11	0	0	1794	773	2754	4000
12	0	0	1796	777	2754	3999
13	0	0	1787	773	2752	4001
14	0	0	1760	774	2748	4000
15	0	0	1745	775	2745	4000
16	0	0	1728	773	2745	4000
17	0	0	1737	776	2746	3999
18	0	0	1785	777	2749	4001
19	0	0	1845	776	2750	3999
20	0	0	1853	777	2753	4001
21	0	0	1852	777	2754	4000
22	0	0	1860	774	2754	4000
23	0	0	1843	775	2752	4001
24	0	0	1860	777	2747	4002
25	0	0	1920	775	2744	4000
26	0	0	1961	773	2744	4000
27	0	0	1981	776	2745	3999
28	0	0	1971	772	2748	4002
29	0	0	1921	772	2750	4002
30	0	0	1865	773	2753	4000
31	0	0	1823	773	2755	4000
32	0	0	1821	777	2755	4001
33	0	0	1823	775	2753	4001
34	0	0	1802	774	2749	4002
35	0	0	1763	773	2745	4000
36	0	0	1725	775	2745	4001
37	0	0	1734	778	2747	4003
38	0	0	1775	776	2749	4000
39	0	0	1820	777	2752	4002
40	0	0	1881	776	2753	4000
41	0	0	1916	776	2754	4000
42	0	0	1926	776	2755	4001
43	0	0	1949	775	2753	4002
44	0	0	1965	775	2748	4001
45	0	0	1964	773	2745	4002
46	0	0	1957	774	2744	4000
47	0	0	1932	772	2746	4000
48	0	0	1912	774	2748	4001
49	0	0	1929	776	2750	4003
50	0	0	1946	775	2753	4000
51	0	0	1896	771	2755	3998
52	0	0	1791	772	2754	3999
53	0	0	1713	772	2753	4001
54	0	0	1725	777	2748	3999
55	0	0	1746	777	2745	4000
56	0	0	1757	776	2745	4000
57	0	0	1769	779	2745	3999
58	0	0	1769	777	2749	4000
59	0	0	1792	777	2750	4003
60	0	0	1810	776	2752	4001
61	0	0	1826	776	2754	4000
62	0	0	1851	778	2753	3999
63	0	0	1859	774	2752	4002
64	0	0	1889	775	2749	4001
65	0	0	1945	776	2744	4000
66	0	0	1994	775	2744	4000
67	0	0	2019	775	2744	3999
68	0	0	2020	774	2748	4001
69	0	0	1996	772	2750	4001
70	0	0	1922	772	2753	3999
71	0	0	1813	772	2754	4000
72	0	0	1759	774	2753	3999
73	0	0	1743	772	2753	4000
74	0	0	1731	776	2748	3999
75	0	0	1735	776	2745	4000
76	0	0	1754	776	2744	4000
77	0	0	1783	777	2745	4001
78	0	0	1818	776	2748	4001
79	0	0	1840	777	2751	4001
80	0	0	1839	778	2752	4000
81	0	0	1856	776	2754	4003
82	0	0	1880	776	2754	4002
83	0	0	1887	775	2752	4000
84	0	0	1896	775	2747	4001
85	0	0	1939	775	2745	4001
86	0	0	1974	774	2744	4003
87	0	0	1994	775	2744	4001
88	0	0	1971	771	2748	4001
89	0	0	1918	771	2751	3999
90	0	0	1868	771	2753	4000
91	0	0	1825	770	2754	4002
92	0	0	1795	773	2753	3999
93	0	0	1778	773	2752	4001
94	0	0	1758	773	2748	3999
95	0	0	1725	774	2744	4000
96	0	0	1742	776	2744	4000
97	0	0	1774	777	2745	4000
98	0	0	1779	778	2748	4001
99	0	0	1788	776	2750	4000
100	0	0	1817	776	2753	4002
101	0	0	1872	777	2755	4000
102	0	0	1921	776	2753	4000
103	0	0	1959	775	2753	4001
104	0	0	1997	775	2747	4000
105	0	0	2032	774	2745	4001
106	0	0	2064	774	2744	3999
107	0	0	2071	774	2744	3999
108	0	0	2069	775	2748	4001
109	0	0	2074	774	2750	4000
110	0	0	2025	770	2752	4001
111	0	0	1933	774	2753	3999
112	0	0	1853	773	2753	4001
113	0	0	1817	774	2753	4001
114	0	0	1798	773	2749	4001
115	0	0	1754	772	2745	4000
116	0	0	1747	776	2744	4002
117	0	0	1777	777	2745	4001
118	0	0	1793	778	2748	4001
119	0	0	1795	776	2750	4000
120	0	0	1790	775	2753	4001
121	0	0	1818	777	2754	4001
122	0	0	1907	775	2753	4000
123	0	0	2000	777	2752	4002
124	0	0	2049	774	2747	4000
125	0	0	2052	772	2744	4000
126	0	0	2007	770	2743	4001
127	0	0	1997	775	2745	4001
0	0	0	2022	776	2748	4001
1	0	0	2016	771	2751	4001
2	0	0	1954	767	2752	4000
3	0	0	1906	772	2754	4000
4	0	0	1860	772	2754	4000
5	0	0	1832	774	2753	4002
6	0	0	1815	773	2749	4001
7	0	0	1809	775	2745	4000
8	0	0	1828	777	2744	4001
9	0	0	1863	777	2745	4000
10	0	0	1854	773	2748	4000
11	0	0	1824	773	2750	4000
12	0	0	1803	773	2752	4001
13	0	0	1818	775	2753	4001
14	0	0	1867	776	2754	4000
15	0	0	1904	779	2752	4001
16	0	0	1974	776	2747	4000
17	0	0	2081	774	2744	4000
18	0	0	2156	774	2744	4001
19	0	0	2166	773	2745	4001
20	0	0	2127	773	2747	4001
21	0	0	2075	770	2751	4002
22	0	0	2016	771	2752	4000
23	0	0	1969	767	2754	4003
24	0	0	1918	772	2754	4000
25	0	0	1897	774	2752	4001
26	0	0	1858	770	2748	4000
27	0	0	1811	771	2744	4000
28	0	0	1806	779	2743	4000
29	0	0	1818	775	2745	4000
30	0	0	1826	778	2747	4001
31	0	0	1843	775	2749	4000
32	0	0	1880	774	2752	4000
33	0	0	1929	778	2753	4000
34	0	0	1997	775	2754	4001
35	0	0	2086	775	2752	4002
36	0	0	2109	773	2747	4000
37	0	0	2103	771	2745	4001
38	0	0	2085	772	2743	4000
39	0	0	2077	772	2745	4000
40	0	0	2049	772	2747	4001
41	0	0	2007	770	2749	3999
42	0	0	1950	770	2752	4000
43	0	0	1927	774	2753	4001
44	0	0	1937	775	2754	4002
45	0	0	1904	771	2752	4001
46	0	0	1858	772	2747	4000
47	0	0	1815	772	2744	4004
48	0	0	1806	775	2743	4000
49	0	0	1825	776	2745	4000
50	0	0	1857	776	2748	4001
51	0	0	1903	775	2750	4002
52	0	0	1957	773	2752	4000
53	0	0	1975	774	2753	4000
54	0	0	2019	774	2754	4001
55	0	0	2087	773	2752	4001
56	0	0	2142	775	2747	4000
57	0	0	2175	771	2743	4000
58	0	0	2180	773	2743	4000
59	0	0	2174	773	2745	4000
60	0	0	2155	769	2747	4001
61	0	0	2104	769	2749	4000
62	0	0	2035	769	2752	4000
63	0	0	1966	771	2753	4000
64	0	0	1920	772	2753	4000
65	0	0	1911	774	2752	4000
66	0	0	1916	775	2748	4001
67	0	0	1918	773	2745	4001
68	0	0	1923	775	2745	4000
69	0	0	1955	775	2745	4001
70	0	0	1978	774	2748	4001
71	0	0	1995	775	2748	4001
72	0	0	2007	776	2751	3999
73	0	0	2016	776	2753	4000
74	0	0	2045	776	2753	4000
75	0	0	2108	773	2752	4001
76	0	0	2159	773	2747	4001
77	0	0	2178	773	2744	4000
78	0	0	2179	771	2743	4000
79	0	0	2134	771	2745	4002
80	0	0	2103	772	2747	4001
81	0	0	2100	772	2750	4000
82	0	0	2073	770	2752	4000
83	0	0	2036	770	2753	4001
84	0	0	1973	771	2754	4001
85	0	0	1899	768	2752	4000
86	0	0	1826	772	2747	4000
87	0	0	1791	772	2744	4000
88	0	0	1788	773	2743	4000
89	0	0	1760	771	2745	4002
90	0	0	1765	776	2747	4000
91	0	0	1860	775	2749	4000
92	0	0	1983	774	2752	4000
93	0	0	2057	774	2753	4000
94	0	0	2097	775	2753	4001
95	0	0	2145	774	2752	4001
96	0	0	2164	776	2747	4001
97	0	0	2162	770	2744	4000
98	0	0	2112	769	2743	4001
99	0	0	2075	770	2744	4000
100	0	0	2031	767	2747	4003
101	0	0	1988	769	2750	4001
102	0	0	1958	769	2752	4000
103	0	0	1952	771	2754	3999
104	0	0	1912	770	2754	4002
105	0	0	1874	772	2752	4001
106	0	0	1876	774	2748	4002
107	0	0	1898	775	2745	4001
108	0	0	1895	774	2744	4001
109	0	0	1891	774	2745	4003
110	0	0	1904	775	2748	4001
111	0	0	1940	774	2750	4002
112	0	0	1979	772	2752	4000
113	0	0	2002	771	2753	4000
114	0	0	2003	774	2753	4001
115	0	0	2017	772	2752	4001
116	0	0	2054	774	2748	4000
117	0	0	2104	770	2744	4000
118	0	0	2114	771	2744	4000
119	0	0	2093	771	2745	4002
120	0	0	2063	767	2747	4001
121	0	0	2035	769	2749	4001
122	0	0	1989	769	2753	4001
123	0	0	1926	770	2754	4000
124	0	0	1871	770	2754	4001
125	0	0	1836	770	2753	4002
126	0	0	1789	771	2748	4000
127	0	0	1765	772	2745	4001
0	0	0	1778	774	2743	4002
1	0	0	1798	773	2745	4001
2	0	0	1827	775	2747	4001
3	0	0	1881	774	2749	4000
4	0	0	1921	774	2752	4000
5	0	0	1943	772	2753	4000
6	0	0	1955	772	2753	4001
7	0	0	1950	767	2753	4003
8	0	0	1939	772	2748	4002
9	0	0	1977	771	2744	4000
10	0	0	2031	770	2743	4000
11	0	0	2049	771	2745	4001
12	0	0	2067	772	2747	4001
13	0	0	2097	774	2750	3999
14	0	0	2100	771	2753	4002
15	0	0	2046	769	2753	4002
16	0	0	1950	767	2755	4001
17	0	0	1884	770	2752	4002
18	0	0	1839	770	2747	4001
19	0	0	1810	771	2744	4000
20	0	0	1787	772	2744	4001
21	0	0	1819	774	2746	4001
22	0	0	1903	774	2747	4001
23	0	0	1947	773	2750	4000
24	0	0	1967	774	2752	4000
25	0	0	1996	773	2754	4000
26	0	0	2019	772	2755	4000
27	0	0	2058	773	2752	4002
28	0	0	2096	772	2747	4000
29	0	0	2091	772	2743	4000
30	0	0	2085	771	2743	4001
31	0	0	2069	770	2744	3999
32	0	0	2048	770	2747	4001
33	0	0	2008	768	2750	4000
34	0	0	1967	769	2752	4000
35	0	0	1937	767	2753	3999
36	0	0	1909	770	2753	4001
37	0	0	1900	771	2752	4001
38	0	0	1873	770	2747	4001
39	0	0	1837	771	2744	4001
40	0	0	1849	774	2744	4001
41	0	0	1903	774	2746	4001
42	0	0	1929	775	2747	4001
43	0	0	1950	774	2751	4001
44	0	0	1977	772	2752	4000
45	0	0	2036	773	2754	4001
46	0	0	2086	774	2754	4001
47	0	0	2063	769	2752	4000
48	0	0	2034	770	2747	4000
49	0	0	2045	770	2744	4000
50	0	0	2098	773	2743	3999
51	0	0	2135	771	2745	4000
52	0	0	2096	767	2747	4001
53	0	0	2040	767	2749	4001
54	0	0	2007	769	2752	4000
55	0	0	1974	769	2754	4000
56	0	0	1941	770	2753	3999
57	0	0	1906	768	2752	4001
58	0	0	1863	770	2749	4003
59	0	0	1833	767	2744	4000
60	0	0	1837	773	2744	4000
61	0	0	1879	774	2746	4001
62	0	0	1931	773	2748	4002
63	0	0	1947	773	2750	4000
64	0	0	1967	773	2752	4001
65	0	0	2003	771	2753	3999
66	0	0	2025	772	2753	4000
67	0	0	2033	769	2752	4000
68	0	0	2046	771	2747	3999
69	0	0	2088	771	2744	4000
70	0	0	2139	770	2744	4000
71	0	0	2150	772	2744	3999
72	0	0	2130	767	2747	4001
73	0	0	2098	768	2750	4000
74	0	0	2058	767	2752	4001
75	0	0	2004	769	2754	4001
76	0	0	1978	770	2755	4000
77	0	0	1946	768	2752	4000
78	0	0	1913	771	2749	4001
79	0	0	1909	774	2744	4000
80	0	0	1903	771	2744	4000
81	0	0	1931	773	2745	4001
82	0	0	1963	771	2747	4000
83	0	0	1988	771	2749	4001
84	0	0	2001	775	2751	3999
85	0	0	2021	773	2753	3999
86	0	0	2056	771	2753	4000
87	0	0	2093	769	2752	4001
88	0	0	2126	771	2747	4000
89	0	0	2155	771	2745	4001
90	0	0	2184	771	2744	4000
91	0	0	2187	769	2745	4000
92	0	0	2160	768	2747	4001
93	0	0	2124	767	2751	4001
94	0	0	2055	768	2752	4000
95	0	0	1961	768	2754	4000
96	0	0	1905	768	2754	4000
97	0	0	1847	768	2753	4001
98	0	0	1791	767	2748	4000
99	0	0	1751	772	2744	3999
100	0	0	1761	774	2743	4000
101	0	0	1801	773	2745	4001
102	0	0	1833	771	2747	4001
103	0	0	1862	768	2750	4000
104	0	0	1877	772	2752	4000
105	0	0	1909	773	2753	3999
106	0	0	1943	773	2754	4000
107	0	0	1949	771	2753	4001
108	0	0	1954	771	2748	4000
109	0	0	1999	773	2745	4002
110	0	0	2091	770	2744	3999
111	0	0	2154	770	2745	4001
112	0	0	2156	768	2747	4000
113	0	0	2126	768	2750	4000
114	0	0	2124	771	2752	4000
115	0	0	2177	771	2754	4000
116	0	0	2250	772	2754	4000
117	0	0	2315	772	2753	4001
118	0	0	2391	772	2748	4000
119	0	0	2478	772	2744	4000
120	0	0	2552	773	2743	4000
121	0	0	2628	772	2745	4000
122	0	0	2727	772	2748	4001
123	0	0	2802	772	2750	3999
124	0	0	2889	771	2753	3999
125	0	0	3006	772	2754	4002
126	0	0	3099	772	2755	4001
127	0	0	3193	772	2752	4001
0	0	0	3283	770	2748	4000
1	0	0	3332	771	2743	4000
2	0	0	3321	771	2743	3999
3	0	0	3291	768	2744	4000
4	0	0	3217	766	2748	4002
5	0	0	3145	767	2750	4000
6	0	0	3089	767	2752	4000
7	0	0	3015	768	2753	4000
8	0	0	2903	767	2754	4000
9	0	0	2792	767	2753	4002
10	0	0	2699	768	2748	4001
11	0	0	2623	768	2746	4001
12	0	0	2547	769	2744	4000
13	0	0	2481	768	2744	4000
14	0	0	2404	768	2748	4001
15	0	0	2291	767	2750	4005
16	0	0	2196	768	2753	3999
17	0	0	2177	770	2754	4000
18	0	0	2247	770	2755	4000
19	0	0	2349	770	2752	4001
20	0	0	2401	770	2748	4000
21	0	0	2379	766	2744	4002
22	0	0	2304	766	2743	4003
23	0	0	2250	768	2745	3999
24	0	0	2224	766	2748	4001
25	0	0	2199	767	2750	3998
26	0	0	2178	768	2752	4000
27	0	0	2155	767	2754	4001
28	0	0	2115	768	2754	4000
29	0	0	2063	767	2753	4003
30	0	0	2019	768	2748	4000
31	0	0	1984	768	2745	3999
32	0	0	1952	768	2744	4000
33	0	0	1929	769	2745	4000
34	0	0	1907	769	2748	4001
35	0	0	1900	771	2750	4001
36	0	0	1903	771	2753	4000
37	0	0	1925	767	2754	4003
38	0	0	1966	770	2754	4000
39	0	0	2029	768	2752	4001
40	0	0	2054	771	2748	4001
41	0	0	2070	769	2744	4000
42	0	0	2091	768	2743	4000
43	0	0	2109	768	2745	4000
44	0	0	2092	766	2748	4005
45	0	0	2031	765	2751	3999
46	0	0	1966	765	2754	4001
47	0	0	1911	766	2755	4002
48	0	0	1859	767	2755	4000
49	0	0	1847	769	2754	4002
50	0	0	1832	768	2748	4000
51	0	0	1819	769	2747	4001
52	0	0	1830	772	2745	4001
53	0	0	1836	771	2746	4000
54	0	0	1857	771	2748	4002
55	0	0	1877	772	2750	4001
56	0	0	1887	770	2753	4001
57	0	0	1913	771	2755	4001
58	0	0	1961	770	2754	4000
59	0	0	2014	769	2752	4001
60	0	0	2063	769	2748	4002
61	0	0	2109	769	2745	4000
62	0	0	2114	771	2744	4001
63	0	0	2103	770	2745	4000
64	0	0	2083	767	2748	4001
65	0	0	2055	766	2751	4002
66	0	0	2013	767	2753	4001
67	0	0	1964	766	2754	4001
68	0	0	1918	766	2754	4000
69	0	0	1871	766	2754	4005
70	0	0	1825	767	2748	3999
71	0	0	1815	770	2746	4001
72	0	0	1824	771	2746	4001
73	0	0	1837	771	2746	3999
74	0	0	1831	770	2748	4000
75	0	0	1830	771	2750	4000
76	0	0	1846	771	2753	4000
77	0	0	1884	772	2754	4002
78	0	0	1975	769	2754	4000
79	0	0	2033	769	2752	4002
80	0	0	2031	767	2749	4002
81	0	0	2018	769	2744	4000
82	0	0	2037	770	2744	4000
83	0	0	2055	768	2746	3999
84	0	0	2074	769	2747	4002
85	0	0	2065	768	2750	4001
86	0	0	2026	767	2753	4001
87	0	0	1995	769	2755	3999
88	0	0	1971	767	2755	3999
89	0	0	1943	767	2752	4001
90	0	0	1934	770	2749	4000
91	0	0	1933	771	2745	4001
92	0	0	1900	768	2744	4002
93	0	0	1872	769	2746	3999
94	0	0	1872	771	2747	4001
95	0	0	1849	768	2750	4000
96	0	0	1853	771	2753	4000
97	0	0	1889	770	2754	4001
98	0	0	1957	769	2754	3999
99	0	0	2008	767	2753	4002
100	0	0	2035	769	2749	4001
101	0	0	2068	767	2745	4003
102	0	0	2098	769	2744	4001
103	0	0	2083	766	2746	4001
104	0	0	2060	767	2747	4001
105	0	0	2019	766	2750	4000
106	0	0	1988	767	2753	4000
107	0	0	1955	765	2754	4001
108	0	0	1923	768	2754	3999
109	0	0	1918	769	2753	4001
110	0	0	1912	768	2748	3999
111	0	0	1875	767	2745	4000
112	0	0	1838	767	2745	4001
113	0	0	1812	768	2747	3999
114	0	0	1814	770	2748	4002
115	0	0	1856	770	2751	4000
116	0	0	1913	770	2753	4002
117	0	0	1961	769	2755	4001
118	0	0	2011	769	2754	3999
119	0	0	2034	769	2753	4001
120	0	0	2043	768	2748	4000
121	0	0	2059	768	2745	4001
122	0	0	2065	769	2744	4000
123	0	0	2063	768	2745	3999
124	0	0	2052	768	2747	4001
125	0	0	2024	766	2750	4001
126	0	0	1976	765	2753	4001
127	0	0	1915	765	2754	3999
0	0	0	1880	766	2755	4001
1	0	0	1851	767	2753	4001
2	0	0	1866	770	2749	4000
3	0	0	1897	771	2746	4002
4	0	0	1920	770	2745	4003
5	0	0	1931	770	2745	4000
6	0	0	1959	771	2748	4002
7	0	0	1982	770	2750	3999
8	0	0	2014	770	2752	4001
9	0	0	2063	770	2754	4000
10	0	0	2096	769	2755	3999
11	0	0	2102	769	2752	4002
12	0	0	2094	767	2748	3999
13	0	0	2069	766	2744	4003
14	0	0	2060	767	2744	4003
15	0	0	2094	767	2746	4003
16	0	0	2151	767	2748	4002
17	0	0	2161	768	2751	3999
18	0	0	2137	766	2753	4000
19	0	0	2083	765	2754	4001
20	0	0	2031	767	2755	4002
21	0	0	1993	767	2753	3999
22	0	0	1955	766	2749	4002
23	0	0	1910	768	2745	4000
24	0	0	1901	769	2744	4000
25	0	0	1924	770	2745	4001
26	0	0	1922	770	2748	4001
27	0	0	1936	769	2750	4000
28	0	0	1996	771	2752	4000
29	0	0	2084	769	2754	4000
30	0	0	2109	769	2754	4003
31	0	0	2090	767	2752	4003
32	0	0	2092	767	2748	4000
33	0	0	2121	767	2744	4003
34	0	0	2169	768	2744	3999
35	0	0	2180	768	2745	4001
36	0	0	2163	767	2748	4002
37	0	0	2143	766	2750	4000
38	0	0	2113	765	2753	4001
39	0	0	2066	765	2754	4001
40	0	0	2021	766	2754	4004
41	0	0	1990	766	2753	4002
42	0	0	1967	767	2748	4001
43	0	0	1925	766	2745	4000
44	0	0	1915	770	2744	4000
45	0	0	1959	770	2746	4001
46	0	0	2008	770	2748	4001
47	0	0	2037	770	2751	4000
48	0	0	2065	770	2751	4000
49	0	0	2076	769	2754	4000
50	0	0	2103	768	2754	4003
51	0	0	2140	768	2753	4000
52	0	0	2181	767	2748	4003
53	0	0	2218	768	2744	4000
54	0	0	2251	768	2745	3999
55	0	0	2243	767	2745	4001
56	0	0	2222	766	2748	4002
57	0	0	2197	765	2750	4000
58	0	0	2170	768	2751	4000
59	0	0	2127	763	2755	3999
60	0	0	2072	764	2754	4000
61	0	0	2041	767	2753	4001
62	0	0	2019	765	2748	4000
63	0	0	1966	765	2745	4002
64	0	0	1933	767	2745	4003
65	0	0	1935	768	2746	4003
66	0	0	1954	771	2748	4001
67	0	0	2003	769	2750	4000
68	0	0	2045	769	2752	4000
69	0	0	2110	769	2754	4000
70	0	0	2160	769	2754	4000
71	0	0	2190	768	2753	4000
72	0	0	2191	767	2749	4001
73	0	0	2181	767	2745	4002
74	0	0	2207	767	2744	4002
75	0	0	2241	767	2744	4006
76	0	0	2257	767	2748	4004
77	0	0	2246	767	2750	4000
78	0	0	2222	765	2753	3999
79	0	0	2191	766	2754	4000
80	0	0	2167	767	2754	4001
81	0	0	2161	768	2753	4001
82	0	0	2134	765	2748	4001
83	0	0	2077	765	2745	4000
84	0	0	2034	766	2744	4000
85	0	0	2038	770	2745	4001
86	0	0	2067	769	2748	4000
87	0	0	2108	769	2750	4000
88	0	0	2134	769	2752	4000
89	0	0	2152	769	2754	4001
90	0	0	2167	768	2755	4002
91	0	0	2196	768	2752	4000
92	0	0	2230	768	2749	4002
93	0	0	2276	763	2744	4003
94	0	0	2314	767	2744	4001
95	0	0	2334	766	2745	4000
96	0	0	2332	767	2748	4001
97	0	0	2310	764	2750	4001
98	0	0	2263	764	2752	4001
99	0	0	2217	764	2754	4001
100	0	0	2178	764	2753	4001
101	0	0	2146	765	2752	4000
102	0	0	2110	766	2748	4000
103	0	0	2081	767	2745	4000
104	0	0	2068	768	2744	4001
105	0	0	2099	767	2745	4000
106	0	0	2123	769	2748	4001
107	0	0	2107	767	2749	4001
108	0	0	2118	769	2752	4000
109	0	0	2204	767	2753	4004
110	0	0	2295	769	2753	4001
111	0	0	2332	768	2752	3999
112	0	0	2303	765	2748	4001
113	0	0	2302	768	2744	4000
114	0	0	2349	765	2743	3999
115	0	0	2382	767	2745	4002
116	0	0	2390	767	2747	4003
117	0	0	2357	762	2749	4002
118	0	0	2297	764	2752	4000
119	0	0	2227	763	2754	4001
120	0	0	2192	766	2755	4001
121	0	0	2191	769	2751	4001
122	0	0	2152	764	2749	4002
123	0	0	2080	765	2745	4000
124	0	0	2092	768	2744	4001
125	0	0	2128	769	2746	4003
126	0	0	2136	762	2748	3998
127	0	0	2167	769	2751	4001
0	0	0	2191	768	2752	3999
1	0	0	2197	767	2754	4001
2	0	0	2224	767	2754	4001
3	0	0	2264	766	2752	4001
4	0	0	2296	767	2748	4002
5	0	0	2324	766	2744	4003
6	0	0	2358	767	2744	4003
7	0	0	2350	765	2745	3999
8	0	0	2340	766	2746	4001
9	0	0	2334	768	2750	4000
10	0	0	2324	764	2753	4000
11	0	0	2293	764	2754	4002
12	0	0	2245	764	2754	4002
13	0	0	2187	764	2753	4003
14	0	0	2146	764	2748	4000
15	0	0	2118	766	2745	3999
16	0	0	2116	768	2744	4001
17	0	0	2112	768	2746	4002
18	0	0	2085	765	2746	4000
19	0	0	2081	767	2749	4003
20	0	0	2089	767	2752	4000
21	0	0	2106	766	2754	4002
22	0	0	2162	767	2754	4001
23	0	0	2214	768	2753	4003
24	0	0	2246	764	2748	4003
25	0	0	2302	766	2745	4003
26	0	0	2317	766	2743	4002
27	0	0	2295	763	2745	4001
28	0	0	2269	763	2747	4000
29	0	0	2219	763	2750	4000
30	0	0	2157	764	2752	4002
31	0	0	2107	762	2754	4002
32	0	0	2079	765	2754	3999
33	0	0	2062	765	2751	4001
34	0	0	2037	764	2749	4001
35	0	0	1984	763	2745	4000
36	0	0	1931	765	2743	3999
37	0	0	1932	769	2745	3999
38	0	0	1952	769	2747	4001
39	0	0	1949	767	2749	4000
40	0	0	1982	767	2752	4000
41	0	0	2033	766	2754	4004
42	0	0	2077	767	2754	4005
43	0	0	2104	766	2752	4004
44	0	0	2091	764	2748	4000
45	0	0	2079	765	2744	4001
46	0	0	2088	765	2744	4000
47	0	0	2076	764	2745	4000
48	0	0	2044	762	2747	4002
49	0	0	1990	761	2749	4001
50	0	0	1944	763	2752	4001
51	0	0	1914	762	2754	4002
52	0	0	1882	762	2754	4003
53	0	0	1849	762	2752	4001
54	0	0	1856	766	2748	4000
55	0	0	1851	763	2744	4000
56	0	0	1791	763	2744	4002
57	0	0	1775	768	2745	3999
58	0	0	1792	767	2747	4000
59	0	0	1800	766	2749	4002
60	0	0	1822	767	2752	4005
61	0	0	1885	765	2754	4003
62	0	0	1942	766	2753	3999
63	0	0	1944	765	2752	4002
64	0	0	1917	763	2747	4000
65	0	0	1916	765	2744	4003
66	0	0	1956	764	2743	4003
67	0	0	1976	765	2744	4006
68	0	0	2015	764	2746	4001
69	0	0	2060	764	2749	4000
70	0	0	2066	763	2752	4000
71	0	0	2012	761	2753	4002
72	0	0	1963	763	2753	4001
73	0	0	1935	765	2751	4001
74	0	0	1915	764	2748	4000
75	0	0	1884	762	2745	4000
76	0	0	1864	765	2744	3999
77	0	0	1850	764	2745	4003
78	0	0	1829	764	2746	4002
79	0	0	1835	766	2749	4000
80	0	0	1860	766	2752	4001
81	0	0	1886	766	2752	4000
82	0	0	1904	766	2753	4003
83	0	0	1956	766	2751	4003
84	0	0	2013	765	2748	4005
85	0	0	2041	765	2743	4000
86	0	0	2055	765	2743	4000
87	0	0	2060	765	2744	4003
88	0	0	2039	762	2747	4002
89	0	0	2001	760	2748	4000
90	0	0	1947	761	2751	4001
91	0	0	1905	762	2752	4001
92	0	0	1862	763	2753	4001
93	0	0	1847	765	2751	4000
94	0	0	1834	763	2747	4000
95	0	0	1813	767	2743	4000
96	0	0	1776	764	2743	4001
97	0	0	1770	766	2744	4001
98	0	0	1814	767	2746	4001
99	0	0	1829	766	2749	4004
100	0	0	1825	767	2750	4002
101	0	0	1857	767	2752	4003
102	0	0	1891	764	2752	4000
103	0	0	1950	765	2750	4001
104	0	0	2008	763	2746	4000
105	0	0	2051	763	2743	4001
106	0	0	2087	764	2743	4005
107	0	0	2084	763	2744	4001
108	0	0	2063	762	2745	4003
109	0	0	2030	762	2749	4001
110	0	0	1972	759	2751	3999
111	0	0	1927	762	2752	4001
112	0	0	1882	761	2753	4000
113	0	0	1831	763	2752	4003
114	0	0	1811	763	2747	4000
115	0	0	1780	763	2744	3999
116	0	0	1770	768	2743	4000
117	0	0	1813	766	2744	4000
118	0	0	1862	767	2745	4000
119	0	0	1908	766	2748	4000
120	0	0	1933	766	2750	4000
121	0	0	1943	766	2752	3999
122	0	0	1983	765	2752	3999
123	0	0	2014	765	2751	4005
124	0	0	2028	765	2746	4003
125	0	0	2048	764	2743	4004
126	0	0	2063	764	2742	4001
127	0	0	2064	765	2743	4001
0	0	0	2040	761	2745	4001
1	0	0	2015	762	2748	4001
2	0	0	1975	759	2750	4000
3	0	0	1909	762	2752	4000
4	0	0	1857	762	2752	4001
5	0	0	1840	765	2749	4002
6	0	0	1830	764	2746	4000
7	0	0	1799	762	2742	4000
8	0	0	1765	764	2742	3999
9	0	0	1772	766	2743	4001
10	0	0	1828	766	2744	4001
11	0	0	1880	766	2748	4002
12	0	0	1899	767	2750	4001
13	0	0	1904	766	2751	4001
14	0	0	1921	765	2752	4000
15	0	0	1963	766	2748	4004
16	0	0	2002	764	2745	4002
17	0	0	2049	763	2742	4003
18	0	0	2069	764	2742	4001
19	0	0	2083	764	2742	4000
20	0	0	2066	761	2744	4002
21	0	0	2037	761	2747	4001
22	0	0	1995	760	2749	4001
23	0	0	1959	762	2752	3999
24	0	0	1926	762	2752	4002
25	0	0	1893	763	2749	4001
26	0	0	1853	761	2746	4000
27	0	0	1814	762	2743	4002
28	0	0	1798	764	2742	4000
29	0	0	1781	764	2743	4000
30	0	0	1775	766	2745	4001
31	0	0	1822	766	2747	4000
32	0	0	1888	765	2749	4005
33	0	0	1947	764	2751	4003
34	0	0	1978	764	2751	4001
35	0	0	2010	764	2749	4001
36	0	0	2029	763	2745	4000
37	0	0	2064	762	2742	3999
38	0	0	2097	764	2741	3999
39	0	0	2108	763	2742	4004
40	0	0	2093	762	2744	4004
41	0	0	2041	760	2747	3999
42	0	0	1963	760	2748	4000
43	0	0	1912	761	2750	4001
44	0	0	1867	762	2750	4001
45	0	0	1820	762	2749	4001
46	0	0	1813	765	2743	4003
47	0	0	1823	765	2741	4001
48	0	0	1823	764	2741	3999
49	0	0	1820	766	2742	4000
50	0	0	1853	765	2744	4001
51	0	0	1900	765	2746	4001
52	0	0	1928	765	2748	4000
53	0	0	1977	764	2750	4001
54	0	0	2037	762	2750	4000
55	0	0	2078	762	2747	4000
56	0	0	2075	763	2744	4003
57	0	0	2066	763	2740	4003
58	0	0	2067	763	2740	4003
59	0	0	2073	763	2741	4000
60	0	0	2062	761	2744	4002
61	0	0	2027	760	2745	4006
62	0	0	2004	762	2748	4001
63	0	0	1973	760	2750	4002
64	0	0	1914	760	2750	4000
65	0	0	1869	761	2749	4002
66	0	0	1830	761	2744	4000
67	0	0	1824	765	2741	4001
68	0	0	1817	764	2741	4001
69	0	0	1804	764	2742	4001
70	0	0	1810	766	2744	4002
71	0	0	1832	765	2745	3999
72	0	0	1881	764	2748	4003
73	0	0	1938	764	2750	4004
74	0	0	1982	764	2749	4004
75	0	0	2011	764	2748	4004
76	0	0	2051	763	2744	4000
77	0	0	2080	763	2740	4000
78	0	0	2058	761	2740	3999
79	0	0	2073	762	2741	4000
80	0	0	2073	762	2743	4003
81	0	0	2034	759	2746	4003
82	0	0	1958	759	2748	4000
83	0	0	1922	761	2750	3999
84	0	0	1936	765	2750	3999
85	0	0	1912	761	2748	4001
86	0	0	1874	761	2744	4001
87	0	0	1831	762	2741	4000
88	0	0	1791	761	2740	4004
89	0	0	1755	761	2741	4000
90	0	0	1744	764	2743	4000
91	0	0	1789	765	2745	4003
92	0	0	1851	765	2747	4003
93	0	0	1903	765	2748	4000
94	0	0	1922	764	2749	4001
95	0	0	1934	764	2748	4000
96	0	0	1969	762	2743	4000
97	0	0	2020	762	2740	4003
98	0	0	2049	762	2739	4004
99	0	0	2041	761	2740	4003
100	0	0	2012	758	2743	4002
101	0	0	1945	758	2745	4000
102	0	0	1828	758	2747	4000
103	0	0	1715	759	2749	4001
104	0	0	1714	762	2749	4001
105	0	0	1723	764	2747	4000
106	0	0	1768	765	2744	4001
107	0	0	1817	764	2740	4000
108	0	0	1778	758	2740	3999
109	0	0	1742	762	2740	4002
110	0	0	1750	766	2742	4001
111	0	0	1784	765	2746	4000
112	0	0	1830	761	2747	4001
113	0	0	1862	762	2749	3999
114	0	0	1873	763	2749	4003
115	0	0	1890	762	2747	4003
116	0	0	1895	763	2743	4003
117	0	0	1909	762	2739	4004
118	0	0	1926	762	2738	4004
119	0	0	1939	762	2740	4003
120	0	0	1912	760	2743	4002
121	0	0	1857	757	2744	4000
122	0	0	1803	759	2747	3999
123	0	0	1758	757	2749	4001
124	0	0	1716	760	2749	4002
125	0	0	1702	762	2747	4000
126	0	0	1690	761	2744	4002
127	0	0	1669	761	2739	4000
0	0	0	1648	759	2739	3999
1	0	0	1643	763	2740	4000
2	0	0	1654	764	2742	4002
3	0	0	1687	764	2745	4000
4	0	0	1722	763	2746	4000
5	0	0	1734	762	2748	4001
6	0	0	1755	764	2748	4003
7	0	0	1798	763	2747	4003
8	0	0	1808	762	2743	4003
9	0	0	1824	761	2739	4000
10	0	0	1800	758	2738	4000
11	0	0	1759	758	2740	4003
12	0	0	1715	757	2742	4000
13	0	0	1664	758	2746	4000
14	0	0	1609	760	2747	4000
15	0	0	1544	758	2748	4001
16	0	0	1499	761	2749	4000
17	0	0	1498	761	2748	4001
18	0	0	1488	759	2743	4000
19	0	0	1462	760	2741	4002
20	0	0	1409	760	2739	4003
21	0	0	1350	760	2739	4002
22	0	0	1313	760	2743	4003
23	0	0	1344	763	2744	4003
24	0	0	1403	764	2747	4000
25	0	0	1459	759	2749	4002
26	0	0	1466	761	2748	4002
27	0	0	1444	759	2746	4001
28	0	0	1448	760	2742	4000
29	0	0	1451	762	2739	4000
30	0	0	1463	759	2738	4005
31	0	0	1450	758	2740	4005
32	0	0	1445	760	2741	4003
33	0	0	1430	758	2745	4001
34	0	0	1418	759	2747	4000
35	0	0	1401	757	2748	4000
36	0	0	1379	759	2748	4000
37	0	0	1333	759	2748	4002
38	0	0	1295	759	2743	4000
39	0	0	1270	759	2740	4000
40	0	0	1253	761	2738	4001
41	0	0	1243	759	2740	3999
42	0	0	1199	759	2741	4000
43	0	0	1162	758	2744	4000
44	0	0	1130	758	2746	4000
45	0	0	1112	758	2748	4001
46	0	0	1136	763	2748	4003
47	0	0	1196	759	2746	4005
48	0	0	1247	761	2742	4002
49	0	0	1300	761	2739	4003
50	0	0	1320	759	2738	4001
51	0	0	1317	759	2740	4001
52	0	0	1334	760	2741	4002
53	0	0	1339	757	2745	4002
54	0	0	1307	758	2746	4001
55	0	0	1248	755	2747	4001
56	0	0	1199	758	2748	4000
57	0	0	1205	761	2746	4001
58	0	0	1207	760	2743	4000
59	0	0	1181	759	2739	3999
60	0	0	1134	760	2738	3999
61	0	0	1093	759	2739	4000
62	0	0	1090	763	2741	4002
63	0	0	1137	763	2743	3999
64	0	0	1182	762	2747	4003
65	0	0	1205	762	2747	4005
66	0	0	1237	762	2748	4003
67	0	0	1246	761	2747	4000
68	0	0	1287	761	2742	4000
69	0	0	1340	760	2739	4003
70	0	0	1382	760	2739	4002
71	0	0	1410	760	2739	4003
72	0	0	1405	757	2742	4005
73	0	0	1378	755	2744	4001
74	0	0	1338	757	2746	4001
75	0	0	1261	755	2747	4001
76	0	0	1197	759	2748	4000
77	0	0	1169	759	2746	4003
78	0	0	1179	761	2743	4001
79	0	0	1178	759	2739	4000
80	0	0	1180	759	2738	4001
81	0	0	1179	760	2740	4001
82	0	0	1150	759	2741	4002
83	0	0	1120	760	2744	4003
84	0	0	1152	762	2747	3999
85	0	0	1233	762	2748	3999
86	0	0	1305	762	2748	3999
87	0	0	1334	761	2747	4001
88	0	0	1349	758	2743	4003
89	0	0	1383	760	2739	4002
90	0	0	1427	759	2737	4003
91	0	0	1433	758	2739	4001
92	0	0	1422	755	2741	4001
93	0	0	1389	755	2744	4000
94	0	0	1367	757	2746	4001
95	0	0	1330	758	2748	3999
96	0	0	1294	757	2748	4000
97	0	0	1234	757	2746	4001
98	0	0	1161	758	2744	4002
99	0	0	1144	763	2739	4001
100	0	0	1130	757	2737	4000
101	0	0	1134	762	2740	4001
102	0	0	1159	763	2742	4001
103	0	0	1184	762	2744	4003
104	0	0	1225	761	2746	4003
105	0	0	1290	760	2747	4004
106	0	0	1364	760	2748	4000
107	0	0	1351	757	2746	4000
108	0	0	1327	757	2742	4000
109	0	0	1366	759	2739	4000
110	0	0	1424	761	2738	4003
111	0	0	1462	760	2740	4001
112	0	0	1441	758	2741	4003
113	0	0	1403	756	2743	4000
114	0	0	1342	755	2746	4000
115	0	0	1292	758	2748	3999
116	0	0	1268	757	2748	4000
117	0	0	1237	757	2745	4000
118	0	0	1205	759	2742	3997
119	0	0	1230	759	2739	4001
120	0	0	1254	762	2738	3999
121	0	0	1248	759	2740	4000
122	0	0	1219	757	2741	4001
123	0	0	1218	761	2744	4000
124	0	0	1291	762	2746	4000
125	0	0	1364	762	2748	3999
126	0	0	1408	760	2748	4000
127	0	0	1409	757	2746	4003
0	0	0	1389	758	2742	4003
1	0	0	1423	759	2739	4003
2	0	0	1450	760	2738	4000
3	0	0	1460	757	2739	4000
4	0	0	1399	755	2741	4001
5	0	0	1315	756	2745	4002
6	0	0	1244	756	2746	4000
7	0	0	1228	756	2748	4001
8	0	0	1223	756	2749	4002
9	0	0	1217	760	2748	3998
10	0	0	1250	763	2744	4001
11	0	0	1244	758	2740	4000
12	0	0	1232	760	2739	4003
13	0	0	1265	761	2740	4002
14	0	0	1306	762	2741	3998
15	0	0	1345	762	2745	4001
16	0	0	1356	762	2747	4003
17	0	0	1378	760	2748	4002
18	0	0	1434	761	2748	4004
19	0	0	1459	760	2746	3999
20	0	0	1480	759	2743	4000
21	0	0	1525	758	2739	4001
22	0	0	1551	760	2738	3999
23	0	0	1576	759	2739	4004
24	0	0	1565	757	2742	4003
25	0	0	1531	754	2744	4001
26	0	0	1498	756	2747	4000
27	0	0	1458	756	2748	3999
28	0	0	1404	756	2749	4001
29	0	0	1368	756	2747	3999
30	0	0	1328	759	2744	4002
31	0	0	1293	758	2740	4000
32	0	0	1290	760	2739	4000
33	0	0	1295	759	2740	4001
34	0	0	1302	761	2741	4001
35	0	0	1310	760	2744	4002
36	0	0	1337	760	2746	4000
37	0	0	1410	758	2748	4000
38	0	0	1437	759	2749	4001
39	0	0	1434	758	2747	3999
40	0	0	1424	756	2743	4003
41	0	0	1417	758	2740	4003
42	0	0	1442	758	2739	4001
43	0	0	1462	758	2740	4001
44	0	0	1480	759	2743	4001
45	0	0	1473	756	2744	4000
46	0	0	1414	755	2747	4003
47	0	0	1366	756	2749	4000
48	0	0	1338	754	2749	4001
49	0	0	1316	757	2747	3998
50	0	0	1334	762	2744	4000
51	0	0	1388	762	2741	4001
52	0	0	1438	762	2739	3999
53	0	0	1519	759	2740	4001
54	0	0	1602	761	2742	3999
55	0	0	1675	762	2745	4000
56	0	0	1768	760	2747	4003
57	0	0	1895	759	2749	4003
58	0	0	2072	758	2749	4003
59	0	0	2261	759	2747	4001
60	0	0	2372	758	2743	4000
61	0	0	2427	760	2740	4000
62	0	0	2486	758	2739	4001
63	0	0	2516	759	2740	4002
64	0	0	2558	758	2742	4003
65	0	0	2574	759	2746	4002
66	0	0	2590	760	2747	4001
67	0	0	2643	763	2749	3999
68	0	0	2690	757	2749	4002
69	0	0	2708	761	2747	3999
70	0	0	2687	756	2745	3999
71	0	0	2629	758	2740	4002
72	0	0	2602	755	2740	4001
73	0	0	2549	757	2741	4001
74	0	0	2505	759	2742	4001
75	0	0	2506	762	2745	4002
76	0	0	2490	759	2747	4004
