# bioPlux Text File Format
# Version: 1
# StartDateTime: 2011-07-18 11:41:43
# SamplingFrequency: 1000
# SampledChannels: 1 2 3 4 5
# SamplingResolution: 12
# AcquiringDevice: 00:07:80:42:0F:95
# EndOfHeader
0	0	0	2301	4	576	404	3929
1	0	0	2130	4	574	404	3930
2	0	0	1965	4	571	403	3930
3	0	0	1829	4	569	404	3930
4	0	0	1738	4	567	403	3930
5	0	0	1641	4	565	403	3929
6	0	0	1585	4	567	404	3929
7	0	0	1607	5	567	403	3929
8	0	0	1660	4	568	403	3930
9	0	0	1741	5	569	403	3929
10	0	0	1847	5	571	403	3929
11	0	0	1970	5	574	404	3929
12	0	0	2101	5	578	403	3929
13	0	0	2223	4	580	403	3929
14	0	0	2300	5	582	403	3929
15	0	0	2443	5	584	404	3929
16	0	0	2549	5	585	403	3930
17	0	0	2567	6	584	403	3929
18	0	0	2545	3	581	403	3930
19	0	0	2436	4	578	404	3930
20	0	0	2265	4	576	404	3930
21	0	0	2098	4	574	404	3930
22	0	0	1950	4	570	403	3930
23	0	0	1818	3	569	404	3930
24	0	0	1727	4	566	403	3930
25	0	0	1636	4	565	404	3929
26	0	0	1584	4	566	403	3929
27	0	0	1601	5	566	403	3930
28	0	0	1653	4	566	403	3930
29	0	0	1739	5	569	403	3929
30	0	0	1843	5	572	404	3930
31	0	0	1968	4	575	405	3929
32	0	0	2103	5	578	403	3929
33	0	0	2222	5	579	404	3930
34	0	0	2285	5	584	403	3931
35	0	0	2372	5	583	403	3929
36	0	0	2485	5	583	404	3929
37	0	0	2532	5	585	404	3930
38	0	0	2523	5	582	403	3930
39	0	0	2452	4	579	403	3930
40	0	0	2296	5	577	403	3929
41	0	0	2120	4	574	404	3929
42	0	0	1961	4	571	403	3930
43	0	0	1830	4	569	404	3930
44	0	0	1739	4	567	403	3929
45	0	0	1639	4	566	403	3929
46	0	0	1581	4	565	404	3929
47	0	0	1596	5	564	403	3929
48	0	0	1647	4	568	404	3929
49	0	0	1735	4	568	404	3929
50	0	0	1840	5	571	404	3929
51	0	0	1967	5	575	403	3930
52	0	0	2099	5	576	403	3931
53	0	0	2218	4	579	403	3930
54	0	0	2289	4	583	403	3930
55	0	0	2424	5	585	403	3931
56	0	0	2525	5	584	403	3930
57	0	0	2543	5	584	403	3929
58	0	0	2522	4	581	404	3930
59	0	0	2417	4	580	403	3930
60	0	0	2252	4	577	403	3929
61	0	0	2085	4	574	403	3929
62	0	0	1938	4	571	404	3930
63	0	0	1812	4	569	404	3929
64	0	0	1721	4	566	404	3929
65	0	0	1628	4	567	403	3929
66	0	0	1581	4	567	403	3929
67	0	0	1602	5	567	403	3930
68	0	0	1653	4	568	404	3930
69	0	0	1738	5	569	404	3931
70	0	0	1843	5	571	404	3930
71	0	0	1971	5	573	403	3931
72	0	0	2109	5	576	403	3931
73	0	0	2228	4	579	403	3930
74	0	0	2249	5	582	403	3930
75	0	0	2378	5	583	403	3929
76	0	0	2505	5	583	403	3929
77	0	0	2547	5	583	404	3929
78	0	0	2531	4	582	403	3929
79	0	0	2467	4	578	403	3929
80	0	0	2295	4	577	403	3930
81	0	0	2116	4	574	404	3929
82	0	0	1952	4	572	404	3929
83	0	0	1818	4	568	403	3930
84	0	0	1735	4	566	404	3931
85	0	0	1646	4	567	404	3929
86	0	0	1599	4	565	403	3931
87	0	0	1619	5	566	404	3929
88	0	0	1671	5	566	404	3929
89	0	0	1757	5	569	403	3930
90	0	0	1856	5	571	403	3929
91	0	0	1976	5	573	404	3930
92	0	0	2103	5	577	403	3929
93	0	0	2218	5	580	404	3930
94	0	0	2290	5	582	403	3929
95	0	0	2425	4	582	404	3928
96	0	0	2528	4	583	404	3929
97	0	0	2540	5	583	403	3929
98	0	0	2516	4	581	404	3928
99	0	0	2414	4	578	403	3930
100	0	0	2248	4	577	403	3929
101	0	0	2082	4	573	403	3931
102	0	0	1939	4	572	404	3931
103	0	0	1815	3	569	404	3930
104	0	0	1733	3	567	403	3931
105	0	0	1646	4	565	403	3929
106	0	0	1592	4	567	403	3930
107	0	0	1608	5	566	404	3931
108	0	0	1660	4	567	403	3930
109	0	0	1746	5	569	403	3930
110	0	0	1851	5	573	404	3930
111	0	0	1975	5	576	404	3929
112	0	0	2107	5	578	404	3929
113	0	0	2208	3	580	403	3929
114	0	0	2228	5	582	403	3930
115	0	0	2372	5	583	403	3928
116	0	0	2499	5	584	404	3929
117	0	0	2527	5	584	404	3929
118	0	0	2543	4	581	404	3929
119	0	0	2447	4	578	403	3930
120	0	0	2277	4	576	403	3929
121	0	0	2107	4	573	405	3929
122	0	0	1949	4	570	404	3929
123	0	0	1819	3	569	404	3930
124	0	0	1732	4	566	404	3929
125	0	0	1639	4	565	403	3929
126	0	0	1588	4	565	404	3929
127	0	0	1609	5	567	403	3929
0	0	0	1663	5	567	404	3930
1	0	0	1744	5	568	404	3930
2	0	0	1840	5	571	404	3929
3	0	0	1961	5	573	404	3929
4	0	0	2092	5	577	403	3929
5	0	0	2210	5	580	404	3929
6	0	0	2282	4	582	403	3929
7	0	0	2419	5	584	404	3929
8	0	0	2518	5	584	403	3930
9	0	0	2534	5	583	403	3930
10	0	0	2510	3	581	403	3930
11	0	0	2405	4	579	403	3930
12	0	0	2245	4	577	403	3929
13	0	0	2084	4	574	404	3930
14	0	0	1945	4	572	404	3930
15	0	0	1819	3	568	404	3929
16	0	0	1738	4	566	404	3930
17	0	0	1649	4	566	403	3929
18	0	0	1597	4	566	403	3930
19	0	0	1617	5	565	403	3930
20	0	0	1668	5	566	403	3929
21	0	0	1754	5	569	404	3930
22	0	0	1856	5	571	403	3929
23	0	0	1979	5	574	403	3930
24	0	0	2109	5	577	403	3930
25	0	0	2180	4	578	403	3930
26	0	0	2236	5	582	403	3930
27	0	0	2396	6	583	403	3929
28	0	0	2512	5	583	403	3930
29	0	0	2528	5	584	404	3930
30	0	0	2563	4	581	403	3931
31	0	0	2452	4	578	403	3929
32	0	0	2279	4	577	404	3930
33	0	0	2109	4	575	404	3929
34	0	0	1960	4	573	404	3929
35	0	0	1833	4	569	403	3929
36	0	0	1743	4	568	404	3929
37	0	0	1644	5	566	404	3928
38	0	0	1590	4	565	403	3929
39	0	0	1612	5	566	404	3930
40	0	0	1665	5	567	404	3931
41	0	0	1744	5	568	404	3929
42	0	0	1846	4	572	403	3929
43	0	0	1972	5	573	403	3930
44	0	0	2106	5	576	403	3929
45	0	0	2223	4	579	403	3930
46	0	0	2291	5	583	404	3929
47	0	0	2423	5	583	404	3929
48	0	0	2522	4	584	404	3930
49	0	0	2536	5	583	403	3930
50	0	0	2510	4	581	403	3929
51	0	0	2410	4	578	404	3930
52	0	0	2244	5	576	403	3929
53	0	0	2080	4	573	404	3929
54	0	0	1935	4	572	404	3929
55	0	0	1812	4	569	404	3929
56	0	0	1734	4	567	403	3929
57	0	0	1650	4	566	404	3930
58	0	0	1598	5	565	403	3930
59	0	0	1615	5	567	403	3929
60	0	0	1660	4	567	403	3930
61	0	0	1741	5	569	404	3930
62	0	0	1843	5	572	403	3930
63	0	0	1963	5	573	403	3931
64	0	0	2086	5	576	404	3931
65	0	0	2146	5	579	404	3929
66	0	0	2235	5	582	404	3930
67	0	0	2400	3	584	403	3929
68	0	0	2516	5	584	403	3929
69	0	0	2558	5	585	404	3929
70	0	0	2551	4	581	403	3929
71	0	0	2441	4	578	403	3929
72	0	0	2265	4	576	403	3930
73	0	0	2095	4	574	404	3929
74	0	0	1944	4	572	404	3930
75	0	0	1818	4	568	404	3930
76	0	0	1734	4	567	403	3931
77	0	0	1643	4	566	404	3929
78	0	0	1592	5	567	403	3930
79	0	0	1615	5	566	404	3929
80	0	0	1665	5	567	403	3929
81	0	0	1751	5	569	404	3929
82	0	0	1853	5	571	404	3929
83	0	0	1974	5	574	403	3929
84	0	0	2107	5	575	404	3928
85	0	0	2221	4	579	403	3929
86	0	0	2289	5	582	404	3929
87	0	0	2422	5	582	403	3929
88	0	0	2523	5	584	403	3931
89	0	0	2538	5	585	403	3931
90	0	0	2514	4	581	403	3930
91	0	0	2412	4	579	403	3931
92	0	0	2248	5	575	403	3930
93	0	0	2094	4	573	404	3930
94	0	0	1955	4	573	403	3929
95	0	0	1829	4	569	404	3930
96	0	0	1741	4	567	404	3929
97	0	0	1651	4	565	404	3930
98	0	0	1601	4	565	403	3929
99	0	0	1619	4	567	404	3929
100	0	0	1668	5	568	404	3930
101	0	0	1752	5	569	404	3929
102	0	0	1853	5	571	403	3929
103	0	0	1972	5	573	403	3930
104	0	0	2059	5	576	403	3930
105	0	0	2155	5	580	403	3930
106	0	0	2251	5	582	403	3929
107	0	0	2409	5	583	404	3929
108	0	0	2506	4	585	403	3931
109	0	0	2573	5	583	403	3930
110	0	0	2551	4	581	404	3931
111	0	0	2433	4	578	403	3930
112	0	0	2258	4	577	403	3929
113	0	0	2089	4	573	403	3929
114	0	0	1944	4	570	403	3930
115	0	0	1818	4	569	403	3930
116	0	0	1732	4	568	403	3929
117	0	0	1644	4	566	404	3929
118	0	0	1592	4	565	404	3929
119	0	0	1609	5	566	404	3930
120	0	0	1659	5	567	404	3929
121	0	0	1746	5	569	404	3930
122	0	0	1845	5	571	403	3929
123	0	0	1970	5	574	404	3930
124	0	0	2106	5	577	403	3930
125	0	0	2221	5	579	404	3930
126	0	0	2287	5	582	403	3930
127	0	0	2418	4	583	403	3930
0	0	0	2517	5	584	404	3930
1	0	0	2531	5	584	403	3930
2	0	0	2508	4	580	404	3931
3	0	0	2402	4	578	403	3929
4	0	0	2240	3	577	403	3929
5	0	0	2079	4	573	403	3930
6	0	0	1932	4	572	404	3930
7	0	0	1804	4	569	404	3930
8	0	0	1723	5	566	404	3929
9	0	0	1635	4	565	403	3929
10	0	0	1581	3	566	403	3929
11	0	0	1598	5	567	403	3929
12	0	0	1650	5	566	403	3930
13	0	0	1736	5	569	403	3930
14	0	0	1843	5	571	403	3930
15	0	0	1964	5	573	403	3930
16	0	0	2041	5	577	403	3930
17	0	0	2171	5	580	403	3930
18	0	0	2272	5	582	403	3930
19	0	0	2423	5	585	404	3930
20	0	0	2550	5	584	403	3929
21	0	0	2588	5	583	403	3929
22	0	0	2552	4	581	404	3930
23	0	0	2429	4	578	403	3929
24	0	0	2258	4	577	403	3930
25	0	0	2088	4	574	404	3929
26	0	0	1938	4	571	403	3929
27	0	0	1810	4	568	403	3930
28	0	0	1722	4	566	403	3929
29	0	0	1635	4	566	404	3930
30	0	0	1590	5	565	403	3930
31	0	0	1610	4	567	404	3930
32	0	0	1668	5	567	404	3930
33	0	0	1759	5	570	403	3930
34	0	0	1864	5	571	404	3929
35	0	0	1985	5	572	403	3930
36	0	0	2115	5	575	404	3930
37	0	0	2228	5	578	403	3929
38	0	0	2298	5	582	404	3929
39	0	0	2431	5	583	403	3928
40	0	0	2533	4	582	404	3929
41	0	0	2549	5	584	403	3929
42	0	0	2521	4	581	404	3930
43	0	0	2414	4	578	403	3929
44	0	0	2243	4	576	403	3930
45	0	0	2084	4	575	404	3930
46	0	0	1939	4	571	403	3930
47	0	0	1812	4	569	404	3930
48	0	0	1722	4	567	404	3930
49	0	0	1635	4	565	404	3929
50	0	0	1591	4	566	403	3929
51	0	0	1615	5	566	403	3929
52	0	0	1667	5	566	404	3930
53	0	0	1753	5	569	403	3930
54	0	0	1855	5	571	403	3929
55	0	0	1938	6	574	403	3929
56	0	0	2038	5	576	403	3929
57	0	0	2185	5	579	404	3929
58	0	0	2287	5	582	403	3928
59	0	0	2421	5	584	404	3929
60	0	0	2565	5	584	404	3929
61	0	0	2582	5	584	403	3930
62	0	0	2546	4	581	404	3930
63	0	0	2426	4	579	404	3930
64	0	0	2257	4	577	403	3929
65	0	0	2092	5	574	403	3930
66	0	0	1944	4	571	404	3930
67	0	0	1817	4	568	403	3930
68	0	0	1730	4	567	404	3929
69	0	0	1639	4	565	403	3929
70	0	0	1589	4	566	404	3930
71	0	0	1611	4	567	404	3930
72	0	0	1660	5	567	403	3930
73	0	0	1743	5	569	403	3930
74	0	0	1847	5	571	403	3929
75	0	0	1971	4	574	403	3929
76	0	0	2109	5	576	403	3929
77	0	0	2229	5	579	404	3930
78	0	0	2299	5	583	403	3930
79	0	0	2433	5	584	403	3930
80	0	0	2533	4	585	403	3930
81	0	0	2550	5	583	403	3930
82	0	0	2524	4	581	404	3930
83	0	0	2416	4	579	403	3929
84	0	0	2248	4	576	403	3929
85	0	0	2082	4	573	404	3930
86	0	0	1935	4	571	404	3930
87	0	0	1810	4	569	404	3930
88	0	0	1725	4	567	404	3930
89	0	0	1639	4	565	403	3929
90	0	0	1590	4	566	403	3929
91	0	0	1611	4	566	403	3930
92	0	0	1661	5	568	403	3929
93	0	0	1746	5	569	403	3929
94	0	0	1852	5	572	404	3929
95	0	0	1916	4	575	404	3929
96	0	0	2061	5	577	403	3930
97	0	0	2213	5	578	404	3930
98	0	0	2299	5	582	403	3930
99	0	0	2446	5	582	403	3929
100	0	0	2571	5	584	403	3929
101	0	0	2578	5	583	403	3929
102	0	0	2542	4	581	404	3930
103	0	0	2428	4	579	403	3930
104	0	0	2262	4	576	404	3930
105	0	0	2097	4	574	404	3929
106	0	0	1952	4	572	403	3929
107	0	0	1824	3	570	404	3930
108	0	0	1734	4	567	403	3929
109	0	0	1641	4	564	404	3930
110	0	0	1586	4	566	403	3929
111	0	0	1608	5	565	403	3929
112	0	0	1665	5	566	404	3930
113	0	0	1755	5	569	404	3930
114	0	0	1858	5	571	404	3929
115	0	0	1980	5	573	404	3929
116	0	0	2114	5	576	403	3930
117	0	0	2235	5	580	403	3930
118	0	0	2309	5	583	404	3930
119	0	0	2440	3	584	403	3929
120	0	0	2536	5	585	403	3930
121	0	0	2550	4	584	404	3930
122	0	0	2524	4	581	403	3929
123	0	0	2417	4	578	403	3929
124	0	0	2254	4	575	404	3929
125	0	0	2093	4	573	403	3929
126	0	0	1952	4	573	403	3929
127	0	0	1830	4	570	403	3929
0	0	0	1743	4	567	403	3929
1	0	0	1655	4	566	404	3931
2	0	0	1605	4	565	405	3930
3	0	0	1619	5	566	403	3930
4	0	0	1668	5	565	403	3930
5	0	0	1753	5	569	403	3930
6	0	0	1821	5	572	404	3930
7	0	0	1917	5	575	404	3930
8	0	0	2068	5	576	403	3930
9	0	0	2212	5	580	403	3929
10	0	0	2280	5	582	403	3929
11	0	0	2462	5	584	403	3929
12	0	0	2564	4	584	403	3928
13	0	0	2570	5	584	403	3929
14	0	0	2540	4	580	403	3929
15	0	0	2429	4	578	404	3929
16	0	0	2263	4	576	403	3930
17	0	0	2099	4	574	404	3930
18	0	0	1948	4	571	403	3930
19	0	0	1826	4	569	404	3931
20	0	0	1743	4	567	403	3930
21	0	0	1656	4	566	403	3929
22	0	0	1605	4	565	404	3929
23	0	0	1623	5	566	403	3929
24	0	0	1672	5	566	403	3929
25	0	0	1758	5	570	403	3929
26	0	0	1855	5	573	403	3929
27	0	0	1973	5	574	404	3930
28	0	0	2104	5	577	403	3930
29	0	0	2222	5	581	404	3929
30	0	0	2293	5	583	403	3929
31	0	0	2425	5	583	404	3930
32	0	0	2528	5	585	404	3929
33	0	0	2539	5	584	403	3929
34	0	0	2510	4	580	403	3930
35	0	0	2410	4	579	403	3929
36	0	0	2248	4	577	403	3929
37	0	0	2088	4	573	404	3929
38	0	0	1948	4	571	404	3930
39	0	0	1824	4	568	404	3930
40	0	0	1737	4	567	403	3929
41	0	0	1650	4	566	403	3929
42	0	0	1604	4	566	404	3929
43	0	0	1620	5	567	403	3929
44	0	0	1670	5	565	403	3929
45	0	0	1752	5	570	404	3930
46	0	0	1786	4	571	403	3929
47	0	0	1917	5	573	404	3929
48	0	0	2084	5	577	403	3930
49	0	0	2219	5	575	404	3929
50	0	0	2303	5	582	404	3930
51	0	0	2461	4	583	404	3929
52	0	0	2557	5	583	403	3930
53	0	0	2561	5	583	404	3930
54	0	0	2530	4	581	403	3930
55	0	0	2424	4	580	403	3929
56	0	0	2262	4	576	404	3930
57	0	0	2098	4	573	403	3929
58	0	0	1957	4	572	403	3929
59	0	0	1836	4	568	404	3929
60	0	0	1750	4	566	404	3929
61	0	0	1657	4	567	403	3929
62	0	0	1602	4	565	403	3930
63	0	0	1618	5	566	404	3930
64	0	0	1664	5	569	404	3929
65	0	0	1749	5	569	404	3930
66	0	0	1845	6	571	404	3929
67	0	0	1964	5	574	403	3930
68	0	0	2092	5	576	404	3930
69	0	0	2211	5	578	403	3930
70	0	0	2280	5	582	403	3930
71	0	0	2413	5	584	404	3929
72	0	0	2518	5	583	403	3929
73	0	0	2536	5	583	403	3929
74	0	0	2520	4	583	403	3929
75	0	0	2421	4	580	404	3929
76	0	0	2260	4	576	404	3929
77	0	0	2102	4	573	404	3929
78	0	0	1962	4	571	404	3929
79	0	0	1839	4	570	403	3929
80	0	0	1755	4	566	403	3928
81	0	0	1666	4	565	404	3928
82	0	0	1611	4	565	403	3929
83	0	0	1626	5	565	402	3929
84	0	0	1676	5	568	403	3931
85	0	0	1718	5	569	404	3930
86	0	0	1786	5	570	404	3931
87	0	0	1930	5	573	404	3930
88	0	0	2089	5	577	404	3930
89	0	0	2208	5	581	403	3930
90	0	0	2324	5	582	403	3931
91	0	0	2452	5	582	403	3929
92	0	0	2539	5	581	403	3930
93	0	0	2545	5	582	404	3929
94	0	0	2520	4	581	403	3930
95	0	0	2425	4	578	403	3929
96	0	0	2270	4	577	403	3929
97	0	0	2112	4	573	404	3929
98	0	0	1964	4	571	404	3929
99	0	0	1839	4	568	403	3929
100	0	0	1755	4	566	404	3929
101	0	0	1662	5	565	404	3929
102	0	0	1608	4	566	403	3930
103	0	0	1625	5	565	404	3931
104	0	0	1672	5	566	403	3930
105	0	0	1754	5	569	403	3929
106	0	0	1846	5	570	403	3929
107	0	0	1960	5	575	403	3929
108	0	0	2084	5	576	404	3929
109	0	0	2204	5	580	404	3929
110	0	0	2271	5	581	403	3929
111	0	0	2401	5	582	404	3930
112	0	0	2501	5	584	404	3929
113	0	0	2520	5	583	404	3928
114	0	0	2506	4	581	403	3929
115	0	0	2412	4	579	404	3929
116	0	0	2257	4	575	404	3929
117	0	0	2100	4	573	404	3930
118	0	0	1961	4	572	404	3931
119	0	0	1838	4	568	404	3930
120	0	0	1752	4	567	404	3929
121	0	0	1662	3	566	404	3929
122	0	0	1604	4	566	403	3929
123	0	0	1617	5	566	404	3929
124	0	0	1667	5	569	403	3930
125	0	0	1684	5	568	403	3929
126	0	0	1791	5	571	403	3929
127	0	0	1942	5	572	404	3929
0	0	0	2089	5	573	403	3929
1	0	0	2225	5	578	403	3929
2	0	0	2316	5	581	403	3929
3	0	0	2440	5	583	404	3929
4	0	0	2535	5	583	404	3930
5	0	0	2544	5	582	404	3931
6	0	0	2520	4	581	403	3930
7	0	0	2428	4	577	404	3931
8	0	0	2268	5	577	403	3930
9	0	0	2105	4	574	404	3929
10	0	0	1961	4	571	404	3929
11	0	0	1835	4	568	403	3930
12	0	0	1750	4	566	404	3929
13	0	0	1662	3	566	404	3929
14	0	0	1606	5	566	403	3930
15	0	0	1620	5	568	403	3930
16	0	0	1667	5	567	403	3929
17	0	0	1747	5	568	404	3929
18	0	0	1842	5	570	404	3928
19	0	0	1958	5	574	404	3928
20	0	0	2086	5	576	403	3929
21	0	0	2203	5	579	403	3930
22	0	0	2269	5	582	404	3929
23	0	0	2400	5	583	404	3929
24	0	0	2502	5	583	403	3929
25	0	0	2526	5	585	403	3930
26	0	0	2515	4	581	403	3930
27	0	0	2426	3	578	403	3929
28	0	0	2274	5	575	404	3929
29	0	0	2116	5	573	404	3930
30	0	0	1974	4	571	404	3930
31	0	0	1850	4	569	403	3929
32	0	0	1766	4	566	404	3930
33	0	0	1674	4	566	403	3929
34	0	0	1619	4	565	403	3929
35	0	0	1630	5	564	404	3928
36	0	0	1634	4	566	403	3929
37	0	0	1678	5	569	403	3929
38	0	0	1800	4	571	403	3930
39	0	0	1950	5	574	403	3930
40	0	0	2076	5	575	403	3930
41	0	0	2241	5	579	404	3931
42	0	0	2306	5	582	403	3929
43	0	0	2422	5	583	404	3929
44	0	0	2511	5	584	403	3930
45	0	0	2522	5	583	403	3930
46	0	0	2503	4	580	403	3930
47	0	0	2410	4	579	403	3929
48	0	0	2260	4	576	403	3929
49	0	0	2103	3	574	404	3929
50	0	0	1964	4	571	404	3930
51	0	0	1844	4	568	403	3929
52	0	0	1761	4	566	403	3928
53	0	0	1672	3	567	403	3928
54	0	0	1617	4	566	404	3928
55	0	0	1626	5	566	404	3929
56	0	0	1664	5	566	403	3930
57	0	0	1744	5	569	403	3929
58	0	0	1837	4	571	403	3931
59	0	0	1948	5	574	403	3930
60	0	0	2075	5	577	404	3930
61	0	0	2195	5	578	403	3930
62	0	0	2265	5	582	403	3929
63	0	0	2393	6	584	404	3929
64	0	0	2499	5	583	403	3929
65	0	0	2524	5	583	403	3929
66	0	0	2514	4	580	403	3930
67	0	0	2422	4	579	404	3930
68	0	0	2265	4	577	403	3929
69	0	0	2103	4	572	404	3929
70	0	0	1957	4	571	404	3929
71	0	0	1838	4	570	404	3930
72	0	0	1753	4	567	403	3929
73	0	0	1664	4	566	403	3929
74	0	0	1609	4	566	403	3930
75	0	0	1621	5	565	403	3931
76	0	0	1607	5	567	403	3930
77	0	0	1693	5	569	403	3929
78	0	0	1822	4	571	404	3929
79	0	0	1961	5	574	404	3929
80	0	0	2109	5	576	404	3929
81	0	0	2258	5	578	403	3929
82	0	0	2312	5	581	403	3929
83	0	0	2430	4	583	404	3929
84	0	0	2524	5	584	404	3929
85	0	0	2540	5	582	404	3929
86	0	0	2521	4	580	403	3929
87	0	0	2427	4	578	403	3929
88	0	0	2277	4	577	403	3930
89	0	0	2116	4	574	405	3930
90	0	0	1972	4	570	404	3930
91	0	0	1851	4	569	404	3931
92	0	0	1759	4	566	403	3929
93	0	0	1666	4	565	403	3929
94	0	0	1609	4	566	404	3930
95	0	0	1622	5	567	404	3930
96	0	0	1667	5	567	404	3930
97	0	0	1749	4	569	404	3929
98	0	0	1844	5	570	404	3930
99	0	0	1965	5	574	404	3928
100	0	0	2092	5	575	404	3929
101	0	0	2209	5	577	403	3929
102	0	0	2276	5	582	403	3928
103	0	0	2401	5	583	403	3928
104	0	0	2508	5	584	403	3929
105	0	0	2524	5	583	403	3929
106	0	0	2506	4	580	403	3930
107	0	0	2415	4	578	404	3929
108	0	0	2256	4	576	403	3929
109	0	0	2091	4	573	404	3929
110	0	0	1950	4	571	403	3930
111	0	0	1827	4	569	403	3930
112	0	0	1743	4	566	403	3930
113	0	0	1660	4	566	403	3929
114	0	0	1606	4	566	403	3929
115	0	0	1583	4	566	404	3930
116	0	0	1599	5	566	403	3929
117	0	0	1704	5	568	404	3929
118	0	0	1835	6	572	404	3928
119	0	0	1951	5	571	403	3929
120	0	0	2126	5	577	404	3929
121	0	0	2251	5	578	403	3930
122	0	0	2307	5	582	403	3929
123	0	0	2428	5	583	404	3929
124	0	0	2524	4	583	403	3929
125	0	0	2536	5	583	403	3929
126	0	0	2515	4	580	403	3930
127	0	0	2416	4	579	403	3929
0	0	0	2249	4	576	403	3929
1	0	0	2089	3	573	404	3930
2	0	0	1946	4	572	404	3930
3	0	0	1820	5	570	404	3929
4	0	0	1733	4	567	403	3929
5	0	0	1642	4	567	403	3928
6	0	0	1590	4	567	404	3929
7	0	0	1604	5	567	404	3930
8	0	0	1650	5	566	403	3929
9	0	0	1740	5	569	404	3930
10	0	0	1842	3	571	404	3929
11	0	0	1960	4	574	404	3930
12	0	0	2089	5	576	404	3930
13	0	0	2211	5	577	403	3930
14	0	0	2279	5	582	403	3929
15	0	0	2409	5	583	403	3930
16	0	0	2520	4	582	404	3929
17	0	0	2543	5	582	403	3929
18	0	0	2520	4	581	403	3929
19	0	0	2423	4	577	404	3929
20	0	0	2259	4	574	403	3929
21	0	0	2095	4	573	404	3929
22	0	0	1951	4	572	404	3929
23	0	0	1826	4	569	403	3929
24	0	0	1740	4	567	404	3929
25	0	0	1648	4	567	404	3928
26	0	0	1592	4	566	404	3929
27	0	0	1566	4	566	404	3930
28	0	0	1592	5	566	403	3930
29	0	0	1694	5	568	403	3929
30	0	0	1815	5	571	403	3929
31	0	0	1955	5	574	404	3929
32	0	0	2098	5	575	403	3929
33	0	0	2226	5	579	404	3930
34	0	0	2295	5	581	404	3929
35	0	0	2428	5	583	403	3930
36	0	0	2532	5	583	403	3929
37	0	0	2553	5	582	404	3929
38	0	0	2534	4	581	404	3930
39	0	0	2430	4	579	403	3928
40	0	0	2265	4	577	403	3928
41	0	0	2087	4	573	404	3929
42	0	0	1946	4	571	403	3928
43	0	0	1872	4	569	403	3929
44	0	0	1784	4	565	403	3929
45	0	0	1681	4	566	403	3929
46	0	0	1617	4	566	403	3930
47	0	0	1622	5	567	404	3929
48	0	0	1667	5	566	404	3930
49	0	0	1745	5	570	403	3929
50	0	0	1843	5	572	404	3929
51	0	0	1966	4	573	404	3929
52	0	0	2103	4	575	403	3930
53	0	0	2223	5	577	403	3929
54	0	0	2293	5	582	403	3930
55	0	0	2423	4	583	403	3928
56	0	0	2534	5	583	403	3929
57	0	0	2551	5	583	404	3929
58	0	0	2523	4	580	403	3929
59	0	0	2427	4	580	404	3930
60	0	0	2265	5	574	404	3929
61	0	0	2099	4	573	403	3929
62	0	0	1950	4	572	404	3930
63	0	0	1824	4	568	404	3931
64	0	0	1738	4	568	403	3929
65	0	0	1648	4	565	404	3930
66	0	0	1581	3	567	403	3930
67	0	0	1550	5	566	403	3929
68	0	0	1611	5	566	403	3929
69	0	0	1724	5	568	403	3929
70	0	0	1845	5	569	404	3928
71	0	0	1998	4	572	404	3929
72	0	0	2140	5	577	404	3929
73	0	0	2250	5	578	403	3929
74	0	0	2312	5	581	403	3929
75	0	0	2439	5	583	403	3928
76	0	0	2543	4	582	403	3928
77	0	0	2559	5	582	403	3930
78	0	0	2529	4	579	404	3930
79	0	0	2431	4	579	404	3930
80	0	0	2267	3	578	404	3929
81	0	0	2098	4	574	404	3929
82	0	0	1951	4	571	404	3929
83	0	0	1824	4	569	404	3931
84	0	0	1730	4	566	404	3929
85	0	0	1641	4	565	403	3929
86	0	0	1585	4	565	403	3929
87	0	0	1598	5	565	403	3929
88	0	0	1652	5	566	403	3929
89	0	0	1743	5	568	403	3928
90	0	0	1847	5	570	404	3929
91	0	0	1975	5	572	404	3928
92	0	0	2113	5	575	404	3928
93	0	0	2235	5	578	404	3929
94	0	0	2309	5	581	404	3929
95	0	0	2442	5	581	403	3929
96	0	0	2547	5	582	403	3929
97	0	0	2565	5	582	404	3929
98	0	0	2539	4	580	403	3930
99	0	0	2435	4	577	403	3929
100	0	0	2266	4	577	404	3929
101	0	0	2096	2	574	404	3930
102	0	0	1944	4	571	404	3930
103	0	0	1814	4	568	404	3929
104	0	0	1721	4	567	404	3930
105	0	0	1629	5	566	404	3929
106	0	0	1526	3	565	403	3930
107	0	0	1532	4	566	403	3930
108	0	0	1609	5	566	403	3929
109	0	0	1729	5	569	403	3931
110	0	0	1838	6	571	403	3929
111	0	0	2012	4	573	403	3929
112	0	0	2145	5	576	404	3929
113	0	0	2252	5	578	404	3930
114	0	0	2320	5	581	403	3929
115	0	0	2452	5	583	404	3931
116	0	0	2558	3	583	403	3930
117	0	0	2575	5	583	403	3930
118	0	0	2541	4	580	404	3930
119	0	0	2432	4	577	403	3929
120	0	0	2262	4	576	403	3928
121	0	0	2092	4	574	404	3928
122	0	0	1938	4	572	404	3929
123	0	0	1805	4	570	403	3929
124	0	0	1716	4	567	403	3928
125	0	0	1621	4	567	404	3930
126	0	0	1563	4	567	403	3929
127	0	0	1576	4	566	403	3929
0	0	0	1629	5	567	404	3931
1	0	0	1723	4	569	404	3929
2	0	0	1834	5	571	404	3929
3	0	0	1968	4	573	404	3929
4	0	0	2116	5	577	404	3929
5	0	0	2245	5	579	403	3929
6	0	0	2322	5	582	403	3929
7	0	0	2453	5	583	403	3929
8	0	0	2563	3	584	403	3930
9	0	0	2575	5	584	403	3930
10	0	0	2542	4	581	403	3929
11	0	0	2430	4	578	403	3929
12	0	0	2255	4	576	403	3930
13	0	0	2082	4	576	403	3930
14	0	0	1925	4	573	404	3929
15	0	0	1793	4	569	403	3929
16	0	0	1702	4	567	403	3929
17	0	0	1603	4	566	403	3929
18	0	0	1499	4	565	403	3930
19	0	0	1531	5	565	403	3929
20	0	0	1619	5	567	403	3930
21	0	0	1729	5	569	403	3929
22	0	0	1873	5	570	403	3929
23	0	0	2026	5	573	404	3929
24	0	0	2163	5	575	403	3929
25	0	0	2283	5	578	404	3929
26	0	0	2359	5	581	404	3930
27	0	0	2487	5	583	404	3929
28	0	0	2586	5	583	404	3929
29	0	0	2594	5	584	404	3929
30	0	0	2556	4	581	403	3929
31	0	0	2439	4	579	404	3930
32	0	0	2257	6	577	403	3929
33	0	0	2080	2	573	404	3929
34	0	0	1921	4	572	403	3929
35	0	0	1784	4	570	404	3930
36	0	0	1690	4	567	403	3929
37	0	0	1592	4	567	403	3930
38	0	0	1542	4	566	404	3929
39	0	0	1564	5	566	404	3929
40	0	0	1623	5	567	404	3930
41	0	0	1727	5	568	403	3929
42	0	0	1849	5	572	404	3929
43	0	0	1990	5	573	404	3929
44	0	0	2136	5	576	404	3930
45	0	0	2267	5	577	404	3929
46	0	0	2351	5	581	403	3930
47	0	0	2489	5	584	403	3928
48	0	0	2594	4	584	404	3928
49	0	0	2601	4	584	404	3929
50	0	0	2559	4	580	404	3930
51	0	0	2431	4	578	403	3929
52	0	0	2248	4	575	403	3931
53	0	0	2068	4	574	404	3930
54	0	0	1907	3	571	403	3929
55	0	0	1768	4	568	404	3930
56	0	0	1671	4	567	403	3929
57	0	0	1533	4	565	403	3928
58	0	0	1472	5	565	403	3929
59	0	0	1526	5	566	403	3930
60	0	0	1617	5	566	404	3929
61	0	0	1721	5	569	403	3928
62	0	0	1895	5	569	404	3928
63	0	0	2034	5	573	403	3929
64	0	0	2172	5	576	403	3929
65	0	0	2298	5	578	403	3930
66	0	0	2378	5	582	403	3929
67	0	0	2513	5	583	403	3929
68	0	0	2617	6	584	403	3929
69	0	0	2621	4	583	404	3929
70	0	0	2575	4	581	404	3930
71	0	0	2443	4	578	403	3929
72	0	0	2252	4	576	403	3929
73	0	0	2059	4	573	404	3929
74	0	0	1892	4	571	404	3930
75	0	0	1752	4	568	403	3929
76	0	0	1654	4	567	404	3930
77	0	0	1563	3	567	403	3928
78	0	0	1519	5	565	403	3928
79	0	0	1551	5	566	404	3929
80	0	0	1620	5	565	404	3929
81	0	0	1729	5	568	403	3928
82	0	0	1852	5	571	404	3929
83	0	0	1999	5	572	404	3929
84	0	0	2155	5	576	403	3929
85	0	0	2296	5	578	403	3931
86	0	0	2391	5	582	404	3929
87	0	0	2537	5	584	404	3929
88	0	0	2639	5	584	403	3929
89	0	0	2642	5	583	403	3930
90	0	0	2591	4	582	403	3930
91	0	0	2452	4	580	404	3929
92	0	0	2254	4	577	403	3928
93	0	0	2058	4	573	404	3928
94	0	0	1883	4	571	404	3929
95	0	0	1737	4	568	403	3929
96	0	0	1630	4	567	403	3928
97	0	0	1486	4	565	403	3928
98	0	0	1454	5	565	403	3928
99	0	0	1517	5	565	404	3929
100	0	0	1607	5	566	403	3930
101	0	0	1747	5	568	403	3929
102	0	0	1892	5	571	403	3930
103	0	0	2036	5	573	404	3930
104	0	0	2183	4	577	404	3929
105	0	0	2324	5	578	403	3930
106	0	0	2411	5	581	404	3929
107	0	0	2547	5	584	404	3929
108	0	0	2646	5	583	404	3929
109	0	0	2648	4	585	404	3930
110	0	0	2593	4	582	403	3929
111	0	0	2445	4	579	403	3929
112	0	0	2240	4	577	403	3928
113	0	0	2043	4	573	403	3929
114	0	0	1866	4	572	403	3929
115	0	0	1721	4	569	404	3929
116	0	0	1615	4	567	403	3929
117	0	0	1517	4	566	403	3929
118	0	0	1471	4	565	404	3929
119	0	0	1506	5	566	403	3929
120	0	0	1590	5	568	404	3930
121	0	0	1709	5	567	403	3929
122	0	0	1848	5	572	403	3930
123	0	0	2012	5	573	403	3929
124	0	0	2175	5	577	403	3929
125	0	0	2323	5	579	404	3929
126	0	0	2423	5	583	403	3928
127	0	0	2573	5	584	404	3928
0	0	0	2672	5	584	403	3928
1	0	0	2660	4	584	404	3929
2	0	0	2600	4	581	403	3929
3	0	0	2444	4	579	403	3930
4	0	0	2232	4	576	403	3929
5	0	0	2025	4	574	403	3929
6	0	0	1844	4	570	403	3931
7	0	0	1695	4	569	404	3930
8	0	0	1549	3	566	403	3929
9	0	0	1434	4	566	403	3929
10	0	0	1421	5	565	403	3929
11	0	0	1479	5	565	403	3929
12	0	0	1564	5	565	404	3929
13	0	0	1742	5	568	403	3929
14	0	0	1887	5	571	403	3929
15	0	0	2046	4	574	404	3929
16	0	0	2208	5	576	403	3928
17	0	0	2361	5	578	404	3930
18	0	0	2461	5	582	404	3928
19	0	0	2609	5	583	403	3928
20	0	0	2703	5	583	403	3929
21	0	0	2689	4	583	405	3929
22	0	0	2622	4	581	404	3930
23	0	0	2459	4	580	404	3931
24	0	0	2239	4	575	404	3929
25	0	0	2022	4	575	403	3929
26	0	0	1834	4	570	404	3929
27	0	0	1678	4	568	403	3929
28	0	0	1566	4	565	403	3929
29	0	0	1463	4	566	403	3929
30	0	0	1420	4	565	403	3929
31	0	0	1464	4	565	404	3929
32	0	0	1558	5	566	404	3930
33	0	0	1689	5	568	404	3928
34	0	0	1846	5	568	403	3928
35	0	0	2027	4	573	404	3929
36	0	0	2205	5	577	403	3929
37	0	0	2364	5	579	403	3929
38	0	0	2484	5	582	404	3929
39	0	0	2643	5	582	403	3929
40	0	0	2736	4	585	404	3930
41	0	0	2714	4	584	404	3930
42	0	0	2632	4	582	404	3930
43	0	0	2452	4	579	403	3929
44	0	0	2220	4	577	403	3929
45	0	0	1998	5	574	403	3929
46	0	0	1799	4	571	404	3930
47	0	0	1631	4	568	404	3929
48	0	0	1464	4	567	403	3930
49	0	0	1374	5	565	404	3928
50	0	0	1368	5	564	402	3929
51	0	0	1429	5	563	403	3929
52	0	0	1557	5	566	403	3929
53	0	0	1723	4	567	403	3928
54	0	0	1880	5	570	403	3929
55	0	0	2051	4	573	404	3930
56	0	0	2225	5	576	403	3930
57	0	0	2381	5	579	404	3930
58	0	0	2503	5	583	403	3929
59	0	0	2669	5	584	403	3929
60	0	0	2767	4	585	404	3929
61	0	0	2741	4	584	404	3929
62	0	0	2656	4	583	403	3929
63	0	0	2466	4	580	403	3929
64	0	0	2221	4	577	403	3930
65	0	0	1992	4	574	404	3929
66	0	0	1795	4	570	404	3929
67	0	0	1627	4	569	404	3929
68	0	0	1509	4	566	403	3929
69	0	0	1406	4	565	404	3929
70	0	0	1373	6	564	403	3928
71	0	0	1428	4	564	404	3930
72	0	0	1534	5	566	403	3929
73	0	0	1684	5	568	403	3929
74	0	0	1854	5	570	403	3929
75	0	0	2050	3	572	404	3930
76	0	0	2240	4	576	404	3930
77	0	0	2407	5	578	403	3929
78	0	0	2537	5	584	404	3930
79	0	0	2702	5	585	404	3929
80	0	0	2798	6	584	403	3929
81	0	0	2775	4	584	404	3929
82	0	0	2679	4	582	403	3929
83	0	0	2474	4	579	403	3928
84	0	0	2224	4	577	402	3930
85	0	0	1985	5	574	403	3928
86	0	0	1774	3	571	404	3928
87	0	0	1559	4	567	403	3929
88	0	0	1414	4	566	403	3929
89	0	0	1340	4	565	403	3929
90	0	0	1340	5	564	403	3930
91	0	0	1392	5	564	404	3929
92	0	0	1561	5	565	403	3929
93	0	0	1710	5	567	403	3928
94	0	0	1879	5	569	403	3929
95	0	0	2072	6	573	404	3929
96	0	0	2270	5	575	404	3930
97	0	0	2442	5	580	403	3929
98	0	0	2577	6	582	403	3928
99	0	0	2748	5	584	404	3928
100	0	0	2843	4	585	403	3928
101	0	0	2804	4	584	404	3929
102	0	0	2697	4	582	403	3928
103	0	0	2479	4	580	403	3928
104	0	0	2217	4	577	403	3930
105	0	0	1967	4	574	403	3929
106	0	0	1750	4	570	403	3930
107	0	0	1573	4	569	403	3930
108	0	0	1446	5	566	403	3929
109	0	0	1340	4	564	404	3929
110	0	0	1313	5	564	403	3929
111	0	0	1379	5	565	403	3930
112	0	0	1498	5	565	403	3929
113	0	0	1664	5	567	404	3929
114	0	0	1854	5	569	404	3928
115	0	0	2066	5	572	403	3929
116	0	0	2275	5	575	404	3929
117	0	0	2453	5	580	403	3929
118	0	0	2596	5	582	404	3928
119	0	0	2773	4	584	403	3928
120	0	0	2866	4	585	404	3928
121	0	0	2828	4	585	404	3929
122	0	0	2718	4	582	404	3930
123	0	0	2487	3	578	403	3929
124	0	0	2214	4	575	403	3930
125	0	0	1956	4	574	404	3930
126	0	0	1728	4	570	404	3929
127	0	0	1488	4	569	404	3930
0	0	0	1356	4	565	403	3928
1	0	0	1271	4	564	403	3930
2	0	0	1263	5	565	404	3929
3	0	0	1355	4	565	403	3928
4	0	0	1515	5	565	403	3929
5	0	0	1684	5	569	403	3928
6	0	0	1876	5	570	403	3928
7	0	0	2091	5	573	403	3928
8	0	0	2305	5	576	403	3929
9	0	0	2488	5	578	403	3929
10	0	0	2642	5	582	403	3929
11	0	0	2824	5	584	404	3929
12	0	0	2911	5	584	403	3929
13	0	0	2864	4	585	404	3929
14	0	0	2736	4	582	403	3930
15	0	0	2497	4	579	403	3929
16	0	0	2212	4	577	403	3928
17	0	0	1942	5	573	404	3929
18	0	0	1711	4	572	403	3929
19	0	0	1523	4	569	404	3929
20	0	0	1390	4	566	403	3928
21	0	0	1280	4	564	403	3928
22	0	0	1254	5	564	403	3929
23	0	0	1331	5	564	404	3929
24	0	0	1467	5	565	403	3928
25	0	0	1651	5	566	403	3929
26	0	0	1859	5	569	404	3928
27	0	0	2091	5	573	403	3929
28	0	0	2319	4	575	404	3929
29	0	0	2515	5	579	403	3929
30	0	0	2677	5	582	403	3929
31	0	0	2869	5	584	404	3929
32	0	0	2956	5	585	403	3929
33	0	0	2903	4	584	404	3929
34	0	0	2771	4	582	403	3930
35	0	0	2514	4	579	403	3929
36	0	0	2214	4	577	403	3928
37	0	0	1935	4	575	403	3929
38	0	0	1660	4	572	404	3929
39	0	0	1432	4	569	403	3928
40	0	0	1312	5	565	403	3928
41	0	0	1222	4	564	404	3928
42	0	0	1200	5	564	403	3928
43	0	0	1340	5	565	403	3929
44	0	0	1485	5	564	404	3930
45	0	0	1662	5	566	403	3929
46	0	0	1873	5	569	404	3929
47	0	0	2107	6	573	404	3929
48	0	0	2335	5	576	403	3929
49	0	0	2537	5	579	403	3929
50	0	0	2710	5	583	403	3929
51	0	0	2912	5	585	404	3930
52	0	0	3003	5	585	403	3928
53	0	0	2944	4	585	403	3928
54	0	0	2792	4	582	404	3929
55	0	0	2518	4	580	403	3928
56	0	0	2204	4	577	404	3929
57	0	0	1911	4	574	404	3929
58	0	0	1657	3	571	403	3928
59	0	0	1456	4	569	403	3929
60	0	0	1308	4	565	403	3929
61	0	0	1191	4	563	403	3930
62	0	0	1174	5	564	403	3929
63	0	0	1260	5	564	403	3929
64	0	0	1413	5	566	403	3930
65	0	0	1617	5	568	403	3929
66	0	0	1854	5	571	403	3929
67	0	0	2113	6	572	403	3929
68	0	0	2366	5	576	403	3930
69	0	0	2578	5	579	403	3929
70	0	0	2761	5	584	404	3928
71	0	0	2965	5	585	403	3930
72	0	0	3051	5	586	404	3928
73	0	0	2981	4	586	403	3928
74	0	0	2819	4	584	403	3929
75	0	0	2530	4	579	404	3928
76	0	0	2205	4	577	403	3929
77	0	0	1896	5	574	404	3929
78	0	0	1569	4	571	403	3931
79	0	0	1360	4	568	404	3930
80	0	0	1231	4	566	403	3929
81	0	0	1128	4	566	404	3929
82	0	0	1143	6	562	404	3929
83	0	0	1268	5	564	403	3929
84	0	0	1416	5	566	404	3930
85	0	0	1619	5	567	403	3929
86	0	0	1863	5	570	403	3928
87	0	0	2133	5	573	404	3928
88	0	0	2395	5	577	403	3928
89	0	0	2621	5	580	403	3929
90	0	0	2816	5	584	403	3930
91	0	0	3032	5	585	404	3928
92	0	0	3116	5	586	404	3928
93	0	0	3034	4	586	403	3929
94	0	0	2854	4	583	403	3930
95	0	0	2544	4	581	403	3929
96	0	0	2193	4	577	404	3929
97	0	0	1869	4	574	404	3929
98	0	0	1593	4	571	404	3930
99	0	0	1375	4	568	403	3930
100	0	0	1215	4	565	404	3929
101	0	0	1092	5	564	403	3928
102	0	0	1083	4	563	403	3929
103	0	0	1188	5	562	403	3929
104	0	0	1361	5	565	403	3930
105	0	0	1587	5	566	403	3928
106	0	0	1854	5	569	403	3928
107	0	0	2146	5	572	404	3928
108	0	0	2428	5	577	403	3928
109	0	0	2663	5	579	403	3929
110	0	0	2870	5	583	404	3929
111	0	0	3101	5	585	404	3929
112	0	0	3181	5	585	403	3929
113	0	0	3093	4	585	404	3929
114	0	0	2894	4	584	402	3930
115	0	0	2554	4	580	403	3929
116	0	0	2184	5	576	403	3929
117	0	0	1819	4	573	404	3929
118	0	0	1488	4	570	404	3930
119	0	0	1276	3	569	403	3929
120	0	0	1134	3	567	403	3930
121	0	0	1004	4	563	404	3928
122	0	0	1052	5	564	403	3929
123	0	0	1178	5	564	404	3929
124	0	0	1353	5	565	402	3929
125	0	0	1586	4	566	404	3929
126	0	0	1865	5	570	403	3929
127	0	0	2170	5	573	404	3930
0	0	0	2461	5	577	403	3929
1	0	0	2713	5	580	403	3931
2	0	0	2940	5	584	403	3929
3	0	0	3186	5	585	403	3930
4	0	0	3265	5	586	403	3929
5	0	0	3160	4	587	403	3929
6	0	0	2936	4	583	402	3929
7	0	0	2576	4	580	403	3929
8	0	0	2177	4	577	403	3929
9	0	0	1811	4	573	404	3928
10	0	0	1500	4	570	404	3928
11	0	0	1254	4	568	404	3929
12	0	0	1072	4	564	403	3928
13	0	0	932	4	563	403	3928
14	0	0	935	5	562	403	3929
15	0	0	1072	5	563	403	3930
16	0	0	1279	5	564	402	3930
17	0	0	1542	5	566	403	3931
18	0	0	1847	5	570	403	3929
19	0	0	2180	5	573	404	3930
20	0	0	2495	5	577	403	3931
21	0	0	2760	5	580	403	3930
22	0	0	3016	5	585	403	3929
23	0	0	3285	5	584	404	3929
24	0	0	3358	5	586	403	3929
25	0	0	3239	4	587	404	3928
26	0	0	2989	4	584	403	3929
27	0	0	2590	4	580	403	3928
28	0	0	2164	4	576	403	3928
29	0	0	1724	5	575	403	3928
30	0	0	1390	5	570	403	3928
31	0	0	1158	4	568	403	3929
32	0	0	993	4	565	403	3927
33	0	0	876	4	564	404	3930
34	0	0	921	5	564	403	3930
35	0	0	1063	5	563	403	3929
36	0	0	1270	5	563	404	3930
37	0	0	1542	5	567	403	3929
38	0	0	1866	5	569	403	3930
39	0	0	2216	5	574	404	3929
40	0	0	2547	4	576	403	3928
41	0	0	2829	5	580	402	3929
42	0	0	3095	4	585	404	3929
43	0	0	3369	5	586	403	3928
44	0	0	3447	6	588	403	3928
45	0	0	3307	4	587	404	3929
46	0	0	3032	4	584	403	3929
47	0	0	2610	4	581	403	3928
48	0	0	2156	4	577	403	3929
49	0	0	1746	4	573	404	3929
50	0	0	1400	3	571	403	3929
51	0	0	1129	4	568	403	3930
52	0	0	926	4	563	403	3929
53	0	0	779	4	562	404	3930
54	0	0	796	4	563	403	3930
55	0	0	954	4	562	403	3929
56	0	0	1199	5	562	403	3929
57	0	0	1506	4	566	404	3930
58	0	0	1865	5	571	403	3928
59	0	0	2245	5	573	404	3928
60	0	0	2604	5	576	403	3928
61	0	0	2900	5	579	404	3929
62	0	0	3186	5	584	403	3928
63	0	0	3480	5	586	403	3930
64	0	0	3544	5	586	404	3928
65	0	0	3391	3	586	403	3929
66	0	0	3090	4	584	403	3929
67	0	0	2624	4	581	403	3930
68	0	0	2115	4	577	403	3929
69	0	0	1642	4	574	404	3929
70	0	0	1290	4	570	404	3930
71	0	0	1028	4	567	403	3929
72	0	0	821	3	564	403	3930
73	0	0	714	4	563	404	3929
74	0	0	748	5	562	403	3929
75	0	0	916	5	561	403	3929
76	0	0	1167	5	564	403	3929
77	0	0	1487	5	566	404	3930
78	0	0	1868	5	570	403	3928
79	0	0	2275	5	573	404	3928
80	0	0	2659	6	577	403	3928
81	0	0	2979	5	579	404	3929
82	0	0	3291	5	585	403	3929
83	0	0	3607	5	586	404	3929
84	0	0	3664	5	586	403	3930
85	0	0	3481	3	588	403	3928
86	0	0	3154	4	583	403	3930
87	0	0	2655	4	581	404	3929
88	0	0	2135	4	577	403	3929
89	0	0	1666	4	574	404	3929
90	0	0	1271	4	572	403	3930
91	0	0	959	4	566	403	3929
92	0	0	721	3	563	404	3928
93	0	0	551	4	561	403	3928
94	0	0	582	5	561	403	3929
95	0	0	787	5	562	404	3928
96	0	0	1082	5	563	403	3929
97	0	0	1444	4	565	403	3928
98	0	0	1862	5	568	403	3929
99	0	0	2312	6	573	404	3930
100	0	0	2724	4	577	403	3931
101	0	0	3064	5	581	403	3930
102	0	0	3398	4	585	403	3929
103	0	0	3682	5	587	404	3930
104	0	0	3833	4	587	404	3930
105	0	0	3614	5	587	403	3929
106	0	0	3236	4	584	403	3929
107	0	0	2674	3	582	403	3930
108	0	0	2050	3	578	403	3928
109	0	0	1545	4	571	404	3928
110	0	0	1139	5	570	404	3928
111	0	0	823	4	566	403	3930
112	0	0	601	3	565	403	3928
113	0	0	463	4	562	403	3928
114	0	0	506	5	561	404	3928
115	0	0	725	5	561	404	3929
116	0	0	1031	5	562	403	3930
117	0	0	1417	4	565	404	3929
118	0	0	1859	5	568	403	3930
119	0	0	2338	5	572	404	3929
120	0	0	2788	5	577	403	3929
121	0	0	3163	5	580	403	3930
122	0	0	3507	5	585	403	3928
123	0	0	3742	5	586	403	3929
124	0	0	3878	5	588	403	3930
125	0	0	3750	5	587	404	3929
126	0	0	3322	4	585	403	3929
127	0	0	2710	3	580	403	3928
0	0	0	2086	4	579	403	3929
1	0	0	1541	4	574	404	3928
2	0	0	1079	4	568	403	3929
3	0	0	715	4	567	403	3929
4	0	0	450	3	564	403	3930
5	0	0	268	3	561	403	3929
6	0	0	338	5	558	404	3929
7	0	0	603	5	561	403	3930
8	0	0	946	5	562	403	3929
9	0	0	1363	5	565	403	3929
10	0	0	1846	5	566	403	3929
11	0	0	2370	5	570	404	3929
12	0	0	2857	5	576	403	3929
13	0	0	3260	5	579	403	3929
14	0	0	3587	5	585	404	3928
15	0	0	3794	5	587	403	3929
16	0	0	3907	5	587	403	3929
17	0	0	3861	4	587	403	3929
18	0	0	3388	4	585	403	3929
19	0	0	2688	4	581	403	3928
20	0	0	1986	4	577	404	3929
21	0	0	1425	4	574	404	3930
22	0	0	959	4	571	404	3930
23	0	0	583	4	567	403	3929
24	0	0	381	4	563	404	3929
25	0	0	229	4	561	403	3929
26	0	0	257	5	560	404	3929
27	0	0	536	5	561	403	3929
28	0	0	899	5	562	403	3929
29	0	0	1352	4	565	403	3929
30	0	0	1877	5	567	404	3930
31	0	0	2437	4	572	404	3930
32	0	0	2958	5	575	404	3928
33	0	0	3392	5	580	403	3929
34	0	0	3676	4	585	404	3929
35	0	0	3845	5	587	404	3928
36	0	0	3937	5	586	404	3928
37	0	0	3941	4	589	404	3929
38	0	0	3442	4	584	403	3929
39	0	0	2731	4	581	403	3929
40	0	0	2022	3	578	403	3930
41	0	0	1410	4	572	403	3929
42	0	0	891	4	570	404	3930
43	0	0	520	4	567	403	3929
44	0	0	304	4	562	403	3929
45	0	0	187	4	561	403	3929
46	0	0	125	5	561	403	3929
47	0	0	382	5	560	403	3929
48	0	0	808	5	563	403	3930
49	0	0	1304	5	564	403	3928
50	0	0	1873	5	568	404	3928
51	0	0	2481	5	571	404	3929
52	0	0	3037	5	575	403	3928
53	0	0	3464	5	580	403	3929
54	0	0	3721	5	586	404	3929
55	0	0	3871	5	588	404	3929
56	0	0	3953	5	591	404	3930
57	0	0	3996	5	589	404	3930
58	0	0	3503	4	584	403	3929
59	0	0	2676	4	582	403	3929
60	0	0	1934	4	577	403	3929
61	0	0	1311	4	574	403	3929
62	0	0	786	4	571	404	3927
63	0	0	458	4	567	404	3929
64	0	0	273	4	563	403	3928
65	0	0	170	4	560	404	3928
66	0	0	117	4	562	403	3929
67	0	0	318	4	559	403	3929
68	0	0	762	5	562	403	3930
69	0	0	1294	4	564	403	3928
70	0	0	1897	5	568	403	3928
71	0	0	2534	5	572	403	3929
72	0	0	3118	5	575	404	3930
73	0	0	3519	5	578	404	3929
74	0	0	3754	5	586	405	3929
75	0	0	3889	5	587	403	3929
76	0	0	3966	6	590	403	3930
77	0	0	4004	5	589	403	3929
78	0	0	3565	4	585	403	3929
79	0	0	2766	4	581	403	3929
80	0	0	1978	4	577	404	3929
81	0	0	1298	4	573	404	3930
82	0	0	761	3	570	403	3929
83	0	0	442	4	566	403	3929
84	0	0	264	4	563	404	3929
85	0	0	167	4	562	403	3928
86	0	0	116	4	561	403	3928
87	0	0	248	4	560	403	3929
88	0	0	704	5	562	403	3929
89	0	0	1248	5	564	403	3929
90	0	0	1878	5	567	403	3929
91	0	0	2549	5	571	403	3929
92	0	0	3148	4	575	403	3930
93	0	0	3537	4	580	403	3930
94	0	0	3766	5	586	403	3929
95	0	0	3898	5	587	403	3929
96	0	0	3971	5	589	404	3930
97	0	0	4008	4	589	403	3929
98	0	0	3580	4	585	403	3929
99	0	0	2716	3	581	403	3928
100	0	0	1924	3	578	403	3929
101	0	0	1229	4	573	404	3928
102	0	0	717	3	570	404	3928
103	0	0	420	4	567	403	3929
104	0	0	254	4	562	403	3930
105	0	0	162	4	560	404	3929
106	0	0	114	4	560	403	3929
107	0	0	200	4	560	404	3930
108	0	0	673	5	561	403	3929
109	0	0	1241	5	564	403	3929
110	0	0	1882	4	567	403	3928
111	0	0	2566	5	572	404	3929
112	0	0	3176	5	575	404	3929
113	0	0	3555	5	581	404	3930
114	0	0	3777	4	586	403	3928
115	0	0	3905	5	589	403	3929
116	0	0	3978	5	591	403	3930
117	0	0	4014	4	589	404	3928
118	0	0	3624	4	586	403	3928
119	0	0	2768	4	582	404	3928
120	0	0	1915	3	577	403	3928
121	0	0	1191	3	573	403	3929
122	0	0	695	4	570	403	3929
123	0	0	407	4	567	403	3930
124	0	0	247	5	562	403	3929
125	0	0	160	3	559	403	3929
126	0	0	115	4	560	403	3929
127	0	0	186	4	559	403	3929
0	0	0	654	5	561	403	3929
1	0	0	1221	5	564	403	3928
2	0	0	1884	5	567	403	3928
3	0	0	2582	5	572	404	3929
4	0	0	3189	5	575	404	3929
5	0	0	3561	5	579	403	3929
6	0	0	3786	5	586	404	3929
7	0	0	3912	5	589	403	3928
8	0	0	3982	5	587	403	3928
9	0	0	4017	5	589	403	3929
10	0	0	3586	4	588	403	3929
11	0	0	2721	4	582	403	3929
12	0	0	1898	4	578	403	3930
13	0	0	1170	4	574	403	3929
14	0	0	685	4	570	403	3929
15	0	0	404	4	566	403	3929
16	0	0	247	4	561	403	3928
17	0	0	161	4	561	404	3928
18	0	0	117	4	561	403	3929
19	0	0	148	5	558	403	3929
20	0	0	622	5	562	403	3929
21	0	0	1203	5	564	404	3930
22	0	0	1890	5	569	404	3928
23	0	0	2602	5	572	403	3928
24	0	0	3204	5	576	403	3928
25	0	0	3574	5	581	403	3930
26	0	0	3793	5	587	403	3928
27	0	0	3918	5	589	403	3929
28	0	0	3985	5	589	404	3929
29	0	0	4022	5	589	403	3930
30	0	0	3647	4	586	403	3929
31	0	0	2772	4	582	403	3929
32	0	0	1919	3	578	403	3928
33	0	0	1176	4	573	404	3928
34	0	0	689	3	568	403	3928
35	0	0	409	4	567	404	3929
36	0	0	252	4	562	404	3928
37	0	0	165	4	561	403	3928
38	0	0	120	4	560	403	3929
39	0	0	139	5	559	403	3929
40	0	0	603	5	561	403	3928
41	0	0	1197	5	565	404	3929
42	0	0	1877	5	569	403	3928
43	0	0	2587	5	570	403	3930
44	0	0	3201	5	577	403	3930
45	0	0	3571	5	579	403	3929
46	0	0	3791	5	585	403	3929
47	0	0	3917	5	588	403	3929
48	0	0	3988	5	589	403	3929
49	0	0	4024	5	588	403	3929
50	0	0	3572	4	585	404	3928
51	0	0	2724	4	581	403	3928
52	0	0	1897	4	578	403	3928
53	0	0	1168	4	574	404	3928
54	0	0	686	4	570	404	3928
55	0	0	405	4	565	404	3929
56	0	0	251	4	562	403	3928
57	0	0	167	4	560	403	3928
58	0	0	123	4	561	403	3929
59	0	0	144	3	559	403	3929
60	0	0	611	5	561	403	3930
61	0	0	1194	5	564	403	3929
62	0	0	1880	5	567	403	3929
63	0	0	2590	5	571	404	3929
64	0	0	3198	4	576	404	3930
65	0	0	3571	5	579	403	3929
66	0	0	3794	5	586	404	3930
67	0	0	3922	5	589	403	3929
68	0	0	3991	5	589	403	3928
69	0	0	4027	5	589	404	3929
70	0	0	3663	4	585	403	3928
71	0	0	2793	4	581	403	3928
72	0	0	1941	4	579	403	3930
73	0	0	1199	4	575	403	3929
74	0	0	705	3	568	403	3929
75	0	0	421	4	566	403	3928
76	0	0	260	5	562	403	3928
77	0	0	172	4	561	403	3928
78	0	0	127	4	560	403	3929
79	0	0	151	4	559	403	3929
80	0	0	623	5	561	403	3929
81	0	0	1199	5	564	403	3929
82	0	0	1861	5	567	403	3928
83	0	0	2570	5	570	403	3929
84	0	0	3189	4	574	404	3929
85	0	0	3567	5	579	404	3928
86	0	0	3791	7	585	403	3928
87	0	0	3919	5	588	403	3928
88	0	0	3992	5	591	403	3928
89	0	0	4029	4	589	403	3928
90	0	0	3608	4	586	403	3928
91	0	0	2752	4	583	404	3929
92	0	0	1900	3	579	403	3930
93	0	0	1175	3	574	403	3929
94	0	0	693	4	570	404	3929
95	0	0	413	4	567	404	3930
96	0	0	257	4	561	403	3929
97	0	0	173	4	559	403	3930
98	0	0	129	4	559	404	3930
99	0	0	164	4	559	403	3929
100	0	0	625	5	561	403	3929
101	0	0	1199	5	563	404	3928
102	0	0	1866	5	567	403	3928
103	0	0	2571	5	572	404	3928
104	0	0	3184	4	576	403	3929
105	0	0	3565	5	580	403	3928
106	0	0	3793	5	586	404	3928
107	0	0	3921	5	589	403	3928
108	0	0	3995	5	588	403	3928
109	0	0	4032	4	588	404	3929
110	0	0	3678	4	587	403	3930
111	0	0	2806	4	581	403	3929
112	0	0	1941	4	578	403	3930
113	0	0	1193	4	574	404	3930
114	0	0	704	4	569	404	3929
115	0	0	422	4	566	403	3929
116	0	0	262	4	562	403	3929
117	0	0	177	4	559	403	3928
118	0	0	132	4	559	404	3929
119	0	0	146	5	558	403	3929
120	0	0	616	5	561	403	3928
121	0	0	1196	5	562	403	3929
122	0	0	1862	5	567	404	3928
123	0	0	2568	5	570	403	3928
124	0	0	3189	4	575	404	3928
125	0	0	3570	5	579	403	3928
126	0	0	3795	5	585	403	3929
127	0	0	3925	5	589	403	3929
0	0	0	3998	5	587	403	3928
1	0	0	4034	5	590	404	3929
2	0	0	3637	4	586	403	3929
3	0	0	2784	4	581	403	3929
4	0	0	1940	4	578	403	3929
5	0	0	1252	4	574	403	3929
6	0	0	740	4	570	404	3929
7	0	0	441	3	566	403	3929
8	0	0	275	4	562	403	3929
9	0	0	185	4	561	403	3928
10	0	0	137	4	559	403	3928
11	0	0	143	4	559	404	3928
12	0	0	599	5	561	403	3928
13	0	0	1177	5	563	403	3928
14	0	0	1853	5	567	403	3928
15	0	0	2563	5	569	403	3929
16	0	0	3181	5	575	404	3930
17	0	0	3566	5	579	403	3930
18	0	0	3796	5	585	403	3929
19	0	0	3925	5	587	403	3929
20	0	0	3999	5	589	403	3930
21	0	0	4036	5	589	404	3929
22	0	0	3677	4	586	403	3930
23	0	0	2809	4	581	403	3928
24	0	0	1959	4	578	403	3929
25	0	0	1211	3	574	403	3929
26	0	0	717	4	569	403	3929
27	0	0	431	4	565	404	3928
28	0	0	271	4	561	403	3928
29	0	0	183	4	560	403	3928
30	0	0	138	4	559	403	3928
31	0	0	136	5	559	404	3929
32	0	0	605	5	560	403	3929
33	0	0	1192	4	564	403	3929
34	0	0	1863	4	566	403	3929
35	0	0	2573	5	572	403	3929
36	0	0	3195	5	575	404	3929
37	0	0	3575	5	578	403	3929
38	0	0	3800	5	586	404	3930
39	0	0	3930	5	589	404	3929
40	0	0	4002	5	591	403	3928
41	0	0	4041	5	590	404	3929
42	0	0	3681	4	586	403	3929
43	0	0	2813	3	582	403	3927
44	0	0	1963	4	578	403	3929
45	0	0	1268	4	575	404	3929
46	0	0	750	4	569	403	3929
47	0	0	449	4	567	403	3929
48	0	0	281	4	562	403	3929
49	0	0	190	4	560	403	3929
50	0	0	142	4	559	404	3929
51	0	0	141	5	559	403	3929
52	0	0	591	5	560	403	3929
53	0	0	1175	5	563	403	3929
54	0	0	1861	5	566	403	3928
55	0	0	2580	5	570	403	3929
56	0	0	3197	5	575	404	3929
57	0	0	3577	5	578	403	3929
58	0	0	3804	5	586	404	3929
59	0	0	3934	5	588	403	3928
60	0	0	4003	5	588	403	3928
61	0	0	4042	5	589	403	3929
62	0	0	3715	4	585	403	3928
63	0	0	2839	4	584	404	3929
64	0	0	1977	4	578	404	3928
65	0	0	1222	4	575	403	3929
66	0	0	725	4	571	404	3930
67	0	0	437	4	566	404	3929
68	0	0	274	4	562	403	3929
69	0	0	187	4	561	403	3929
70	0	0	141	4	560	403	3929
71	0	0	133	5	559	403	3929
72	0	0	604	5	561	403	3929
73	0	0	1195	5	564	403	3928
74	0	0	1866	4	567	403	3928
75	0	0	2588	5	571	403	3928
76	0	0	3211	5	576	403	3929
77	0	0	3585	5	579	403	3928
78	0	0	3808	5	586	403	3929
79	0	0	3937	5	590	403	3928
80	0	0	4007	5	590	403	3928
81	0	0	4042	5	589	404	3929
82	0	0	3742	4	587	404	3929
83	0	0	2845	4	582	403	3929
84	0	0	2022	4	578	403	3929
85	0	0	1279	4	575	404	3930
86	0	0	754	4	570	403	3929
87	0	0	455	3	567	404	3929
88	0	0	286	4	563	404	3930
89	0	0	194	4	560	404	3928
90	0	0	145	4	560	403	3928
91	0	0	147	5	559	403	3929
92	0	0	617	5	561	403	3928
93	0	0	1204	5	563	403	3928
94	0	0	1883	5	567	404	3929
95	0	0	2609	5	571	403	3928
96	0	0	3219	5	576	403	3928
97	0	0	3595	5	580	403	3928
98	0	0	3812	5	587	404	3929
99	0	0	3937	5	589	404	3929
100	0	0	4008	5	590	403	3929
101	0	0	4045	5	590	403	3930
102	0	0	3760	4	587	403	3929
103	0	0	2880	4	583	404	3930
104	0	0	2010	4	581	404	3928
105	0	0	1247	4	575	403	3929
106	0	0	740	4	572	403	3929
107	0	0	447	4	568	403	3928
108	0	0	280	4	562	404	3928
109	0	0	190	5	561	403	3928
110	0	0	143	4	559	403	3928
111	0	0	120	5	559	404	3929
112	0	0	589	5	562	403	3929
113	0	0	1192	4	563	403	3928
114	0	0	1885	5	567	403	3929
115	0	0	2636	5	571	404	3930
116	0	0	3239	5	575	403	3929
117	0	0	3603	5	581	403	3929
118	0	0	3818	5	587	403	3929
119	0	0	3942	5	587	404	3929
120	0	0	4011	5	589	403	3929
121	0	0	4046	5	589	404	3929
122	0	0	3773	4	586	404	3928
123	0	0	2885	4	583	403	3928
124	0	0	2039	3	579	403	3928
125	0	0	1266	4	575	403	3929
126	0	0	751	4	570	403	3929
127	0	0	450	4	567	403	3928
0	0	0	284	5	561	404	3929
1	0	0	193	4	560	404	3928
2	0	0	144	4	559	403	3928
3	0	0	121	4	560	403	3929
4	0	0	558	5	561	403	3929
5	0	0	1163	5	564	403	3929
6	0	0	1873	5	567	403	3929
7	0	0	2622	5	569	404	3929
8	0	0	3231	5	577	404	3929
9	0	0	3600	5	579	403	3930
10	0	0	3816	5	586	403	3928
11	0	0	3940	5	588	403	3929
12	0	0	4011	5	590	404	3929
13	0	0	4045	5	588	404	3929
14	0	0	3808	4	587	404	3928
15	0	0	2901	4	583	403	3928
16	0	0	1998	4	579	404	3928
17	0	0	1218	4	575	403	3928
18	0	0	723	4	570	404	3928
19	0	0	438	4	566	403	3929
20	0	0	275	4	562	403	3928
21	0	0	188	3	559	403	3929
22	0	0	143	4	559	403	3929
23	0	0	121	4	559	404	3930
24	0	0	515	5	561	403	3928
25	0	0	1126	5	563	403	3929
26	0	0	1845	5	567	403	3929
27	0	0	2614	5	571	404	3929
28	0	0	3234	5	575	404	3929
29	0	0	3601	5	580	403	3929
30	0	0	3817	5	585	403	3928
31	0	0	3942	5	589	403	3928
32	0	0	4012	5	589	403	3928
33	0	0	4048	5	590	404	3929
34	0	0	3859	4	587	404	3929
35	0	0	3001	4	584	403	3928
36	0	0	2095	4	578	403	3928
37	0	0	1292	4	576	403	3928
38	0	0	762	4	570	403	3929
39	0	0	460	4	568	403	3930
40	0	0	289	4	561	403	3929
41	0	0	196	4	559	403	3929
42	0	0	146	4	560	403	3928
43	0	0	123	4	559	403	3929
44	0	0	592	7	561	403	3929
45	0	0	1318	5	564	403	3928
46	0	0	2175	4	568	403	3928
47	0	0	2958	5	573	404	3928
48	0	0	3434	5	577	403	3928
49	0	0	3722	6	582	403	3928
50	0	0	3888	5	588	404	3929
51	0	0	3982	5	593	404	3927
52	0	0	4031	5	594	402	3928
53	0	0	4057	5	595	404	3930
54	0	0	4059	4	591	403	3929
55	0	0	3125	4	587	403	3929
56	0	0	2094	3	581	403	3929
57	0	0	1240	3	577	403	3929
58	0	0	734	3	573	404	3929
59	0	0	442	4	568	404	3928
60	0	0	275	4	563	403	3928
61	0	0	186	3	561	403	3928
62	0	0	138	4	559	402	3928
63	0	0	116	4	558	403	3929
64	0	0	324	5	561	403	3929
65	0	0	998	5	562	403	3928
66	0	0	1801	4	567	403	3928
67	0	0	2669	5	571	404	3928
68	0	0	3260	5	576	403	3928
69	0	0	3615	5	581	403	3929
70	0	0	3823	5	587	403	3928
71	0	0	3944	5	592	403	3929
72	0	0	4010	5	592	403	3929
73	0	0	4045	5	590	404	3930
74	0	0	3961	4	588	403	3929
75	0	0	3016	4	583	403	3928
76	0	0	1975	4	580	403	3929
77	0	0	1164	4	575	404	3929
78	0	0	686	4	570	403	3929
79	0	0	415	4	566	403	3929
80	0	0	264	4	560	403	3928
81	0	0	180	3	557	404	3928
82	0	0	136	4	557	403	3929
83	0	0	115	4	557	403	3929
84	0	0	250	5	558	403	3929
85	0	0	958	5	561	403	3928
86	0	0	1784	5	568	404	3928
87	0	0	2618	5	569	402	3928
88	0	0	3231	5	575	403	3929
89	0	0	3602	5	579	404	3929
90	0	0	3817	5	587	404	3929
91	0	0	3941	5	590	404	3929
92	0	0	4010	5	591	404	3928
93	0	0	4047	5	591	404	3929
94	0	0	4046	4	588	403	3928
95	0	0	3108	4	584	404	3929
96	0	0	2057	4	579	405	3928
97	0	0	1226	4	575	403	3928
98	0	0	729	4	567	404	3928
99	0	0	439	4	567	403	3928
100	0	0	275	4	560	403	3928
101	0	0	188	4	558	403	3928
102	0	0	141	4	559	403	3928
103	0	0	119	4	555	404	3929
104	0	0	334	5	558	403	3929
105	0	0	996	5	560	403	3929
106	0	0	1779	5	564	403	3929
107	0	0	2621	5	570	403	3929
108	0	0	3233	5	574	404	3929
109	0	0	3601	5	579	403	3930
110	0	0	3819	5	586	403	3928
111	0	0	3943	5	590	404	3929
112	0	0	4013	5	589	403	3929
113	0	0	4046	5	590	404	3929
114	0	0	3706	4	586	403	3929
115	0	0	2658	3	580	403	3928
116	0	0	1616	4	577	403	3928
117	0	0	956	4	571	404	3929
118	0	0	569	4	565	403	3929
119	0	0	352	4	562	403	3928
120	0	0	231	4	556	403	3929
121	0	0	165	4	552	403	3929
122	0	0	132	4	553	404	3930
123	0	0	117	4	551	404	3929
124	0	0	111	4	553	403	3928
125	0	0	111	5	553	404	3929
126	0	0	849	5	559	404	3929
127	0	0	1680	5	562	404	3930
0	0	0	2433	5	566	403	3929
1	0	0	3098	5	571	403	3928
2	0	0	3525	4	577	404	3928
3	0	0	3779	5	582	404	3928
4	0	0	3928	5	584	403	3928
5	0	0	4008	5	585	403	3929
6	0	0	3560	4	581	404	3928
7	0	0	2646	4	576	404	3929
8	0	0	1731	4	573	403	3928
9	0	0	1035	3	568	404	3929
10	0	0	628	4	566	404	3930
11	0	0	393	4	560	403	3929
12	0	0	263	4	555	404	3929
13	0	0	194	4	556	403	3929
14	0	0	158	4	554	403	3930
15	0	0	141	4	556	403	3929
16	0	0	372	4	556	404	3930
17	0	0	1007	4	559	403	3928
18	0	0	1743	5	563	403	3928
19	0	0	2528	5	567	404	3928
20	0	0	3185	5	572	404	3930
21	0	0	3581	5	576	403	3928
22	0	0	3820	5	582	403	3928
23	0	0	3955	5	587	403	3929
24	0	0	4032	5	588	403	3928
25	0	0	4071	5	588	403	3929
26	0	0	3830	4	584	404	3930
27	0	0	2923	3	580	403	3929
28	0	0	2008	4	577	403	3930
29	0	0	1227	4	573	404	3930
30	0	0	741	4	569	404	3929
31	0	0	460	4	564	403	3930
32	0	0	303	4	560	403	3928
33	0	0	215	4	557	403	3929
34	0	0	171	4	556	404	3929
35	0	0	167	4	557	403	3929
36	0	0	650	5	559	403	3928
37	0	0	1280	4	560	403	3930
38	0	0	1981	5	565	405	3929
39	0	0	2734	5	569	404	3928
40	0	0	3317	5	575	404	3929
41	0	0	3665	5	578	404	3930
42	0	0	3865	4	584	403	3929
43	0	0	3981	5	589	403	3929
44	0	0	4044	5	590	404	3933
45	0	0	4077	5	587	403	3929
46	0	0	3908	4	587	403	3929
47	0	0	3030	3	582	403	3930
48	0	0	2101	4	578	404	3929
49	0	0	1322	4	574	404	3928
50	0	0	796	4	569	403	3929
51	0	0	488	4	566	403	3928
52	0	0	316	4	562	403	3928
53	0	0	223	4	560	403	3928
54	0	0	173	4	559	403	3929
55	0	0	155	5	560	403	3929
56	0	0	600	5	561	403	3929
57	0	0	1170	4	562	403	3928
58	0	0	1824	5	566	403	3929
59	0	0	2521	5	570	404	3929
60	0	0	3156	5	575	403	3930
61	0	0	3565	5	578	404	3929
62	0	0	3809	5	584	404	3930
63	0	0	3950	5	588	404	3929
64	0	0	4025	5	590	403	3929
65	0	0	4066	5	588	403	3929
66	0	0	3716	4	587	404	3930
67	0	0	2837	4	581	403	3929
68	0	0	1964	4	579	403	3929
69	0	0	1210	4	574	404	3930
70	0	0	730	4	570	403	3929
71	0	0	453	4	566	403	3929
72	0	0	298	3	561	403	3928
73	0	0	212	4	560	403	3929
74	0	0	167	4	559	404	3928
75	0	0	146	4	558	404	3929
76	0	0	455	5	561	403	3929
77	0	0	1010	4	565	403	3929
78	0	0	1694	5	566	404	3929
79	0	0	2410	5	571	404	3929
80	0	0	3053	5	576	403	3930
81	0	0	3503	5	579	403	3929
82	0	0	3771	5	585	403	3929
83	0	0	3928	5	589	403	3929
84	0	0	4016	5	589	403	3929
85	0	0	4063	5	588	403	3929
86	0	0	3757	4	585	404	3930
87	0	0	2928	3	582	403	3928
88	0	0	2111	4	578	404	3928
89	0	0	1391	4	575	404	3928
90	0	0	840	4	569	403	3929
91	0	0	516	4	566	403	3928
92	0	0	334	3	562	403	3929
93	0	0	233	4	559	404	3929
94	0	0	180	4	559	404	3929
95	0	0	342	5	559	403	3930
96	0	0	771	5	560	403	3929
97	0	0	1337	5	563	403	3929
98	0	0	1988	5	568	403	3929
99	0	0	2676	5	570	404	3930
100	0	0	3267	5	575	403	3929
101	0	0	3633	5	578	403	3928
102	0	0	3848	4	584	403	3930
103	0	0	3972	5	589	405	3929
104	0	0	4038	5	589	404	3928
105	0	0	4073	5	589	403	3929
106	0	0	3871	4	587	403	3928
107	0	0	3072	4	583	404	3928
108	0	0	2265	3	579	403	3930
109	0	0	1537	4	577	403	3930
110	0	0	956	4	570	403	3930
111	0	0	585	4	566	403	3929
112	0	0	370	4	563	403	3929
113	0	0	249	4	561	404	3928
114	0	0	187	4	561	403	3930
115	0	0	344	5	560	403	3929
116	0	0	787	5	562	403	3930
117	0	0	1318	3	563	403	3928
118	0	0	1921	5	567	403	3928
119	0	0	2571	5	572	404	3929
120	0	0	3176	5	576	403	3929
121	0	0	3574	4	580	403	3928
122	0	0	3809	4	586	404	3928
123	0	0	3947	5	589	404	3929
124	0	0	4023	5	588	404	3930
125	0	0	4063	5	589	404	3930
126	0	0	3757	4	588	403	3929
127	0	0	2949	4	584	403	3931
0	0	0	2113	4	581	404	3929
1	0	0	1410	4	577	404	3930
2	0	0	853	4	572	404	3929
3	0	0	518	3	569	404	3930
4	0	0	331	5	565	403	3929
5	0	0	228	3	562	403	3928
6	0	0	172	4	562	404	3929
7	0	0	296	5	561	403	3929
8	0	0	730	5	563	403	3928
9	0	0	1245	5	565	403	3928
10	0	0	1835	5	570	403	3928
11	0	0	2461	5	573	404	3929
12	0	0	3050	5	577	403	3929
13	0	0	3500	5	581	403	3928
14	0	0	3766	5	586	404	3929
15	0	0	3919	5	590	404	3929
16	0	0	4005	5	591	403	3929
17	0	0	4052	5	591	403	3930
18	0	0	3617	4	590	403	3929
19	0	0	2841	3	584	403	3929
20	0	0	2056	3	582	403	3929
21	0	0	1369	4	578	403	3930
22	0	0	830	4	573	403	3929
23	0	0	508	4	570	403	3930
24	0	0	324	4	565	403	3928
25	0	0	225	3	563	403	3929
26	0	0	171	4	563	403	3929
27	0	0	216	5	564	403	3929
28	0	0	618	5	566	403	3929
29	0	0	1104	5	566	403	3928
30	0	0	1697	5	571	404	3929
31	0	0	2328	5	574	405	3930
32	0	0	2909	5	579	403	3930
33	0	0	3398	5	582	403	3929
34	0	0	3707	5	589	404	3929
35	0	0	3887	5	591	404	3929
36	0	0	3990	5	591	404	3929
37	0	0	4044	5	592	403	3929
38	0	0	3679	4	590	404	3929
39	0	0	2913	4	585	404	3929
40	0	0	2158	3	582	404	3929
41	0	0	1501	4	578	403	3930
42	0	0	937	4	574	403	3929
43	0	0	572	4	572	404	3928
44	0	0	362	4	568	404	3931
45	0	0	246	3	563	403	3929
46	0	0	183	4	565	404	3929
47	0	0	419	4	564	403	3929
48	0	0	807	5	565	403	3929
49	0	0	1319	5	569	403	3929
50	0	0	1922	4	570	404	3929
51	0	0	2559	5	575	403	3929
52	0	0	3148	5	579	403	3929
53	0	0	3560	5	583	403	3929
54	0	0	3800	5	588	403	3929
55	0	0	3941	5	591	404	3929
56	0	0	4018	5	592	403	3929
57	0	0	4059	5	591	403	3929
58	0	0	3737	4	590	404	3930
59	0	0	2969	4	586	404	3928
60	0	0	2181	3	582	403	3929
61	0	0	1491	3	577	404	3930
62	0	0	930	4	575	403	3929
63	0	0	567	4	571	404	3930
64	0	0	356	4	568	404	3929
65	0	0	241	4	566	403	3929
66	0	0	179	4	564	405	3930
67	0	0	287	5	565	403	3930
68	0	0	720	5	566	404	3929
69	0	0	1238	5	569	403	3930
70	0	0	1814	5	571	404	3929
71	0	0	2424	5	576	403	3929
72	0	0	2990	5	580	403	3929
73	0	0	3449	5	583	403	3929
74	0	0	3736	5	589	404	3929
75	0	0	3902	4	592	403	3929
76	0	0	3995	5	594	404	3926
77	0	0	4030	4	595	403	3929
78	0	0	3573	4	590	403	3928
79	0	0	2830	4	586	403	3928
80	0	0	2052	4	583	403	3929
81	0	0	1383	4	579	403	3930
82	0	0	846	4	575	403	3930
83	0	0	517	3	571	403	3929
84	0	0	328	3	569	404	3929
85	0	0	226	4	564	404	3929
86	0	0	172	4	564	403	3929
87	0	0	263	5	565	403	3930
88	0	0	684	5	567	403	3929
89	0	0	1188	5	569	403	3930
90	0	0	1758	5	571	404	3930
91	0	0	2364	3	575	404	3929
92	0	0	2926	5	579	403	3930
93	0	0	3379	5	582	404	3930
94	0	0	3689	6	588	404	3928
95	0	0	3877	5	592	403	3929
96	0	0	3983	5	593	404	3929
97	0	0	4009	4	592	404	3930
98	0	0	3541	4	591	404	3931
99	0	0	2810	4	588	403	3930
100	0	0	2085	3	583	403	3929
101	0	0	1446	4	579	404	3930
102	0	0	902	4	575	404	3930
103	0	0	550	4	572	403	3929
104	0	0	349	4	568	404	3930
105	0	0	239	4	565	403	3929
106	0	0	180	4	565	403	3929
107	0	0	304	5	564	403	3930
108	0	0	705	4	566	403	3928
109	0	0	1182	5	570	403	3929
110	0	0	1766	5	571	403	3929
111	0	0	2363	5	577	404	3928
112	0	0	2896	5	580	403	3929
113	0	0	3376	5	583	403	3929
114	0	0	3693	5	589	403	3929
115	0	0	3880	5	592	404	3929
116	0	0	3986	5	592	404	3931
117	0	0	4041	4	593	403	3930
118	0	0	3595	4	590	404	3930
119	0	0	2886	4	587	403	3929
120	0	0	2159	3	584	404	3930
121	0	0	1530	4	580	404	3930
122	0	0	1004	4	574	404	3930
123	0	0	615	4	572	404	3929
124	0	0	385	4	569	403	3926
125	0	0	259	4	567	403	3929
126	0	0	192	4	566	404	3929
127	0	0	490	4	567	404	3929
0	0	0	875	5	566	403	3928
1	0	0	1359	5	569	404	3928
2	0	0	1910	5	571	403	3929
3	0	0	2510	5	576	404	3929
4	0	0	3056	5	578	403	3930
5	0	0	3492	5	583	403	3929
6	0	0	3760	5	589	404	3930
7	0	0	3920	5	593	404	3930
8	0	0	4006	5	593	404	3930
9	0	0	4053	5	592	403	3929
10	0	0	3703	4	590	403	3929
11	0	0	3010	4	586	403	3929
12	0	0	2301	3	582	403	3930
13	0	0	1670	4	581	403	3930
14	0	0	1150	4	574	404	3929
15	0	0	736	4	573	403	3929
16	0	0	454	4	569	403	3928
17	0	0	296	4	565	404	3929
18	0	0	208	4	566	404	3929
19	0	0	499	5	565	403	3930
20	0	0	869	4	567	404	3929
21	0	0	1326	5	568	404	3931
22	0	0	1843	5	571	403	3931
23	0	0	2391	5	576	404	3929
24	0	0	2908	5	580	403	3930
25	0	0	3339	5	583	404	3929
26	0	0	3662	5	589	404	3930
27	0	0	3857	5	592	404	3929
28	0	0	3970	5	593	403	3932
29	0	0	3938	4	592	403	3929
30	0	0	3508	4	590	404	3929
31	0	0	2834	4	586	403	3929
32	0	0	2106	3	585	403	3929
33	0	0	1489	3	581	404	3929
34	0	0	973	3	575	404	3929
35	0	0	592	4	572	404	3930
36	0	0	369	4	567	405	3929
37	0	0	248	2	567	404	3929
38	0	0	182	4	565	403	3929
39	0	0	416	5	565	404	3930
40	0	0	803	5	565	403	3929
41	0	0	1259	5	569	403	3930
42	0	0	1759	5	571	405	3929
43	0	0	2309	5	574	404	3929
44	0	0	2831	5	579	403	3930
45	0	0	3250	5	586	404	3929
46	0	0	3596	5	588	403	3929
47	0	0	3820	4	592	404	3930
48	0	0	3949	5	592	404	3930
49	0	0	3937	4	594	403	3929
50	0	0	3496	4	590	403	3929
51	0	0	2847	4	586	403	3928
52	0	0	2196	4	584	403	3929
53	0	0	1611	4	579	404	3930
54	0	0	1103	4	576	403	3931
55	0	0	710	4	572	404	3929
56	0	0	451	4	568	404	3929
57	0	0	292	3	567	403	3930
58	0	0	242	5	566	403	3930
59	0	0	523	5	564	403	3929
60	0	0	878	5	568	404	3929
61	0	0	1296	5	569	403	3928
62	0	0	1799	4	572	403	3929
63	0	0	2325	5	575	403	3930
64	0	0	2798	5	579	404	3929
65	0	0	3215	5	583	403	3928
66	0	0	3560	5	587	403	3928
67	0	0	3798	5	591	403	3928
68	0	0	3936	5	592	403	3929
69	0	0	3916	4	594	404	3930
70	0	0	3499	4	589	404	3929
71	0	0	2874	4	587	404	3929
72	0	0	2233	2	583	404	3930
73	0	0	1668	4	579	403	3930
74	0	0	1198	4	575	404	3930
75	0	0	825	3	573	403	3930
76	0	0	559	4	569	404	3931
77	0	0	354	4	568	404	3929
78	0	0	415	5	567	404	3929
79	0	0	672	5	567	404	3930
80	0	0	982	5	567	403	3928
81	0	0	1398	5	567	403	3930
82	0	0	1883	5	572	403	3929
83	0	0	2410	5	575	403	3929
84	0	0	2901	5	580	403	3929
85	0	0	3307	5	583	403	3929
86	0	0	3629	5	589	403	3929
87	0	0	3837	6	593	403	3929
88	0	0	3956	5	592	404	3930
89	0	0	3945	4	591	404	3930
90	0	0	3537	4	589	403	3929
91	0	0	2932	4	586	403	3929
92	0	0	2304	4	584	404	3933
93	0	0	1730	3	576	403	3929
94	0	0	1279	4	576	403	3930
95	0	0	910	4	570	403	3929
96	0	0	616	4	569	403	3928
97	0	0	422	4	566	404	3929
98	0	0	450	5	565	404	3929
99	0	0	686	5	566	404	3929
100	0	0	993	5	566	403	3928
101	0	0	1381	5	568	403	3929
102	0	0	1827	5	572	404	3929
103	0	0	2300	4	576	403	3930
104	0	0	2747	5	580	403	3930
105	0	0	3130	5	583	404	3930
106	0	0	3468	7	589	404	3929
107	0	0	3740	5	591	404	3929
108	0	0	3898	5	591	403	3933
109	0	0	3755	4	591	404	3930
110	0	0	3389	4	591	404	3930
111	0	0	2802	4	585	404	3929
112	0	0	2170	4	582	403	3929
113	0	0	1641	4	578	403	3930
114	0	0	1187	4	574	404	3928
115	0	0	818	4	572	403	3928
116	0	0	556	4	568	403	3930
117	0	0	368	4	567	404	3929
118	0	0	383	5	566	404	3929
119	0	0	596	5	565	403	3929
120	0	0	905	4	567	403	3929
121	0	0	1293	5	568	403	3929
122	0	0	1721	5	571	404	3930
123	0	0	2193	5	576	404	3931
124	0	0	2642	5	578	403	3928
125	0	0	3012	5	581	403	3929
126	0	0	3371	5	588	404	3929
127	0	0	3684	5	591	404	3929
0	0	0	3865	5	592	404	3929
1	0	0	3726	4	592	403	3930
2	0	0	3369	3	589	403	3929
3	0	0	2824	4	586	403	3928
4	0	0	2256	4	584	403	3929
5	0	0	1748	3	579	403	3929
6	0	0	1305	4	575	404	3929
7	0	0	958	4	573	404	3930
8	0	0	729	4	570	403	3929
9	0	0	552	4	567	403	3929
10	0	0	570	4	567	404	3929
11	0	0	770	5	566	403	3931
12	0	0	1061	5	569	403	3929
13	0	0	1414	5	570	403	3929
14	0	0	1855	5	571	404	3929
15	0	0	2315	4	575	404	3929
16	0	0	2721	5	580	403	3930
17	0	0	3084	5	584	404	3929
18	0	0	3409	5	589	403	3930
19	0	0	3705	5	591	404	3928
20	0	0	3879	5	591	404	3929
21	0	0	3739	4	591	403	3929
22	0	0	3390	4	589	404	3928
23	0	0	2875	4	585	404	3928
24	0	0	2318	5	583	403	3929
25	0	0	1824	4	579	405	3929
26	0	0	1400	4	575	404	3930
27	0	0	1063	3	572	404	3930
28	0	0	821	4	567	403	3929
29	0	0	610	3	566	403	3929
30	0	0	638	4	565	404	3929
31	0	0	839	5	566	404	3930
32	0	0	1092	5	567	403	3929
33	0	0	1436	5	570	403	3930
34	0	0	1842	5	572	404	3929
35	0	0	2294	5	576	404	3929
36	0	0	2708	5	578	403	3929
37	0	0	3045	5	582	403	3929
38	0	0	3362	5	587	403	3928
39	0	0	3675	5	591	403	3929
40	0	0	3855	4	591	405	3928
41	0	0	3686	4	590	404	3930
42	0	0	3354	4	588	404	3929
43	0	0	2860	4	585	403	3929
44	0	0	2321	4	581	403	3931
45	0	0	1822	3	580	404	3930
46	0	0	1434	4	575	403	3930
47	0	0	1109	4	572	404	3930
48	0	0	849	4	569	403	3929
49	0	0	665	4	566	403	3929
50	0	0	654	5	567	404	3929
51	0	0	820	5	566	403	3930
52	0	0	1091	5	567	403	3929
53	0	0	1431	5	569	403	3928
54	0	0	1808	5	572	404	3928
55	0	0	2220	5	576	403	3929
56	0	0	2612	5	579	404	3929
57	0	0	2944	5	582	404	3929
58	0	0	3224	5	588	404	3929
59	0	0	3525	5	590	404	3929
60	0	0	3622	5	590	405	3930
61	0	0	3470	4	591	404	3930
62	0	0	3212	4	589	404	3930
63	0	0	2735	4	585	404	3929
64	0	0	2178	3	583	404	3929
65	0	0	1716	4	579	403	3931
66	0	0	1341	4	575	404	3930
67	0	0	1036	4	572	403	3929
68	0	0	813	4	569	404	3928
69	0	0	651	4	567	404	3929
70	0	0	659	5	566	403	3929
71	0	0	836	5	566	404	3929
72	0	0	1083	5	568	403	3928
73	0	0	1400	5	569	403	3930
74	0	0	1751	4	571	404	3929
75	0	0	2142	5	575	403	3929
76	0	0	2528	5	580	403	3928
77	0	0	2840	5	584	403	3929
78	0	0	3145	5	588	404	3929
79	0	0	3452	5	590	404	3929
80	0	0	3554	4	592	403	3930
81	0	0	3449	4	591	404	3930
82	0	0	3191	4	588	403	3929
83	0	0	2759	4	585	403	3929
84	0	0	2272	4	581	404	3929
85	0	0	1841	4	579	404	3929
86	0	0	1489	4	575	404	3929
87	0	0	1213	4	572	403	3930
88	0	0	1019	4	568	403	3928
89	0	0	850	3	567	403	3929
90	0	0	839	4	567	404	3930
91	0	0	1000	5	566	404	3929
92	0	0	1237	5	567	403	3927
93	0	0	1526	5	570	403	3929
94	0	0	1889	5	572	404	3929
95	0	0	2266	5	575	403	3930
96	0	0	2609	5	579	403	3930
97	0	0	2916	5	581	403	3929
98	0	0	3191	5	586	403	3930
99	0	0	3496	5	590	403	3929
100	0	0	3612	5	591	403	3929
101	0	0	3501	4	592	403	3930
102	0	0	3249	4	590	403	3928
103	0	0	2827	4	585	403	3929
104	0	0	2346	4	583	404	3929
105	0	0	1903	4	579	404	3929
106	0	0	1539	4	576	403	3929
107	0	0	1261	4	572	404	3929
108	0	0	1074	4	569	403	3931
109	0	0	896	4	566	405	3929
110	0	0	894	5	566	404	3929
111	0	0	1032	5	566	404	3930
112	0	0	1228	5	568	404	3931
113	0	0	1507	5	570	403	3929
114	0	0	1829	6	573	403	3929
115	0	0	2186	4	575	404	3929
116	0	0	2534	5	578	404	3930
117	0	0	2835	5	582	403	3929
118	0	0	3096	5	587	404	3929
119	0	0	3381	6	589	403	3928
120	0	0	3483	5	591	404	3929
121	0	0	3373	4	592	403	3929
122	0	0	3139	4	589	403	3930
123	0	0	2753	5	585	403	3928
124	0	0	2313	5	584	404	3930
125	0	0	1879	3	578	403	3930
126	0	0	1550	4	574	404	3930
127	0	0	1271	4	571	404	3930
0	0	0	1043	4	568	403	3931
1	0	0	881	4	566	403	3929
2	0	0	863	5	566	403	3930
3	0	0	995	5	567	403	3930
4	0	0	1206	5	568	403	3929
5	0	0	1483	5	570	404	3929
6	0	0	1799	5	573	404	3929
7	0	0	2128	5	575	404	3930
8	0	0	2454	5	580	403	3929
9	0	0	2736	6	583	403	3929
10	0	0	2971	5	587	404	3929
11	0	0	3244	4	590	404	3928
12	0	0	3344	5	589	403	3933
13	0	0	3228	4	591	404	3929
14	0	0	3043	4	587	403	3929
15	0	0	2676	4	584	404	3929
16	0	0	2232	3	582	403	3929
17	0	0	1847	3	579	404	3929
18	0	0	1522	4	575	403	3930
19	0	0	1266	4	572	403	3929
20	0	0	1089	4	569	403	3930
21	0	0	959	3	568	404	3929
22	0	0	935	5	567	403	3929
23	0	0	1045	5	568	404	3930
24	0	0	1242	5	567	403	3929
25	0	0	1501	5	569	404	3930
26	0	0	1810	5	572	403	3929
27	0	0	2127	4	577	404	3928
28	0	0	2432	5	580	403	3931
29	0	0	2687	5	583	403	3929
30	0	0	2940	5	585	404	3929
31	0	0	3205	4	588	404	3929
32	0	0	3301	5	590	405	3929
33	0	0	3226	4	591	403	3930
34	0	0	3042	4	587	404	3929
35	0	0	2725	4	585	403	3929
36	0	0	2341	4	582	403	3929
37	0	0	1962	3	579	403	3929
38	0	0	1636	4	575	404	3930
39	0	0	1389	4	572	403	3929
40	0	0	1233	4	568	403	3930
41	0	0	1107	4	568	404	3930
42	0	0	1083	5	566	404	3929
43	0	0	1186	5	567	403	3929
44	0	0	1372	5	568	404	3929
45	0	0	1593	5	569	404	3929
46	0	0	1894	5	572	403	3929
47	0	0	2203	4	577	403	3929
48	0	0	2484	5	579	403	3930
49	0	0	2744	4	581	403	3931
50	0	0	2964	5	588	403	3929
51	0	0	3219	5	589	403	3930
52	0	0	3349	5	590	404	3930
53	0	0	3264	4	590	403	3929
54	0	0	3056	5	587	403	3929
55	0	0	2723	4	586	404	3929
56	0	0	2355	4	582	404	3929
57	0	0	2007	4	578	403	3929
58	0	0	1690	4	575	404	3929
59	0	0	1429	4	574	404	3929
60	0	0	1253	4	568	403	3928
61	0	0	1097	4	567	403	3928
62	0	0	1091	4	566	404	3929
63	0	0	1163	4	566	404	3930
64	0	0	1309	5	568	404	3929
65	0	0	1554	5	569	403	3931
66	0	0	1828	5	573	404	3930
67	0	0	2120	4	576	403	3929
68	0	0	2390	5	579	403	3930
69	0	0	2627	5	583	403	3929
70	0	0	2836	4	587	404	3929
71	0	0	3075	5	589	404	3929
72	0	0	3208	5	591	404	3930
73	0	0	3138	4	590	403	3929
74	0	0	2953	4	588	404	3929
75	0	0	2644	4	584	404	3928
76	0	0	2270	4	581	404	3930
77	0	0	1912	4	579	404	3929
78	0	0	1642	4	576	404	3930
79	0	0	1399	4	573	403	3929
80	0	0	1207	3	569	403	3929
81	0	0	1077	4	568	403	3929
82	0	0	1068	5	567	403	3930
83	0	0	1160	4	568	404	3930
84	0	0	1317	5	569	403	3931
85	0	0	1533	7	571	403	3929
86	0	0	1790	5	574	404	3929
87	0	0	2076	5	575	404	3929
88	0	0	2348	5	578	403	3930
89	0	0	2577	5	581	404	3929
90	0	0	2772	5	585	403	3929
91	0	0	3003	5	589	404	3929
92	0	0	3126	4	590	403	3929
93	0	0	3061	4	590	403	3930
94	0	0	2924	4	586	404	3929
95	0	0	2631	4	585	403	3930
96	0	0	2267	4	582	404	3930
97	0	0	1946	4	580	403	3929
98	0	0	1681	4	576	403	3930
99	0	0	1458	4	573	403	3929
100	0	0	1294	4	569	403	3929
101	0	0	1168	4	569	403	3929
102	0	0	1134	5	567	403	3929
103	0	0	1228	5	567	404	3929
104	0	0	1370	5	568	404	3931
105	0	0	1571	5	570	403	3929
106	0	0	1806	5	573	403	3929
107	0	0	2073	5	576	403	3929
108	0	0	2351	5	579	404	3930
109	0	0	2563	5	582	404	3929
110	0	0	2756	5	587	403	3930
111	0	0	2965	5	589	404	3929
112	0	0	3086	5	591	403	3929
113	0	0	3057	4	590	404	3930
114	0	0	2909	4	587	404	3929
115	0	0	2650	4	586	404	3930
116	0	0	2345	5	581	403	3930
117	0	0	2035	4	579	404	3929
118	0	0	1764	4	577	403	3930
119	0	0	1550	4	573	404	3929
120	0	0	1408	3	570	404	3929
121	0	0	1289	4	570	403	3929
122	0	0	1226	4	567	404	3930
123	0	0	1302	5	567	402	3929
124	0	0	1453	5	567	403	3928
125	0	0	1622	4	569	404	3929
126	0	0	1859	5	574	404	3929
127	0	0	2120	5	576	403	3930
0	0	0	2379	5	579	402	3929
1	0	0	2601	5	582	403	3929
2	0	0	2763	5	585	404	3929
3	0	0	2965	5	589	404	3930
4	0	0	3075	5	589	404	3930
5	0	0	3038	4	589	403	3930
6	0	0	2902	4	586	403	3930
7	0	0	2664	4	583	404	3929
8	0	0	2361	4	582	404	3929
9	0	0	2048	4	577	403	3930
10	0	0	1791	4	576	403	3931
11	0	0	1591	4	573	404	3929
12	0	0	1421	4	571	403	3930
13	0	0	1252	4	567	404	3929
14	0	0	1221	5	567	404	3930
15	0	0	1300	5	567	403	3929
16	0	0	1419	6	568	403	3929
17	0	0	1588	5	571	404	3928
18	0	0	1805	5	573	403	3929
19	0	0	2050	5	575	404	3929
20	0	0	2281	5	579	403	3930
21	0	0	2477	5	582	403	3930
22	0	0	2637	5	587	404	3931
23	0	0	2844	5	589	404	3929
24	0	0	2956	5	590	404	3930
25	0	0	2927	4	590	404	3931
26	0	0	2824	4	589	403	3929
27	0	0	2595	4	585	403	3929
28	0	0	2283	5	583	404	3928
29	0	0	1967	4	579	403	3930
30	0	0	1751	4	576	403	3929
31	0	0	1561	4	572	403	3929
32	0	0	1386	4	570	403	3929
33	0	0	1263	5	568	404	3929
34	0	0	1220	4	568	403	3929
35	0	0	1292	5	566	402	3930
36	0	0	1430	4	568	404	3930
37	0	0	1586	5	570	403	3930
38	0	0	1794	5	573	403	3930
39	0	0	2035	5	576	404	3930
40	0	0	2263	5	578	402	3930
41	0	0	2472	6	581	403	3929
42	0	0	2618	5	585	404	3929
43	0	0	2802	5	588	404	3929
44	0	0	2926	5	592	404	3930
45	0	0	2878	4	589	403	3930
46	0	0	2811	4	587	404	3929
47	0	0	2603	4	584	404	3930
48	0	0	2321	4	581	403	3930
49	0	0	2054	4	579	403	3929
50	0	0	1805	4	575	403	3930
51	0	0	1621	4	572	403	3929
52	0	0	1486	4	571	403	3930
53	0	0	1379	4	569	403	3930
54	0	0	1321	4	568	403	3930
55	0	0	1369	5	568	403	3930
56	0	0	1515	5	569	404	3929
57	0	0	1688	6	572	403	3930
58	0	0	1852	6	573	403	3929
59	0	0	2050	5	575	404	3928
60	0	0	2256	5	576	402	3930
61	0	0	2443	4	582	404	3931
62	0	0	2602	5	587	404	3929
63	0	0	2762	5	589	404	3929
64	0	0	2877	5	590	404	3929
65	0	0	2888	5	589	403	3930
66	0	0	2810	4	588	403	3929
67	0	0	2613	4	585	404	3930
68	0	0	2347	4	581	404	3930
69	0	0	2089	3	579	403	3929
70	0	0	1862	4	576	402	3930
71	0	0	1677	4	574	404	3930
72	0	0	1560	4	569	403	3930
73	0	0	1459	4	569	404	3929
74	0	0	1409	4	569	403	3929
75	0	0	1433	5	566	404	3930
76	0	0	1521	5	569	403	3929
77	0	0	1660	5	570	403	3929
78	0	0	1859	5	573	404	3930
79	0	0	2048	5	575	404	3929
80	0	0	2212	5	579	403	3929
81	0	0	2399	4	580	403	3930
82	0	0	2577	5	586	403	3929
83	0	0	2748	5	589	404	3929
84	0	0	2860	4	589	403	3928
85	0	0	2845	4	589	404	3930
86	0	0	2765	4	587	404	3930
87	0	0	2604	4	584	404	3929
88	0	0	2327	4	583	404	3930
89	0	0	2068	4	578	404	3929
90	0	0	1868	4	575	404	3930
91	0	0	1699	3	574	404	3929
92	0	0	1576	4	571	404	3929
93	0	0	1434	4	568	404	3929
94	0	0	1398	4	567	403	3928
95	0	0	1416	5	569	404	3930
96	0	0	1472	5	569	403	3930
97	0	0	1597	5	570	403	3929
98	0	0	1765	5	573	404	3929
99	0	0	1978	5	577	404	3930
100	0	0	2191	5	580	403	3928
101	0	0	2360	5	581	403	3929
102	0	0	2489	5	586	403	3929
103	0	0	2631	6	588	403	3930
104	0	0	2735	4	588	404	3932
105	0	0	2738	4	590	404	3930
106	0	0	2654	3	588	403	3929
107	0	0	2524	4	585	404	3930
108	0	0	2308	5	583	403	3933
109	0	0	2049	5	579	403	3931
110	0	0	1872	4	576	403	3930
111	0	0	1682	4	572	404	3930
112	0	0	1543	4	570	403	3929
113	0	0	1443	4	569	403	3929
114	0	0	1360	4	569	404	3930
115	0	0	1396	5	569	404	3929
116	0	0	1502	5	569	403	3929
117	0	0	1656	5	572	403	3928
118	0	0	1810	6	573	404	3930
119	0	0	1969	5	577	403	3930
120	0	0	2157	5	579	403	3930
121	0	0	2322	4	582	404	3929
122	0	0	2432	5	585	404	3931
123	0	0	2575	5	587	404	3931
124	0	0	2709	5	589	404	3930
125	0	0	2737	5	589	403	3930
126	0	0	2718	4	587	403	3929
127	0	0	2564	4	583	404	3929
0	0	0	2344	4	581	403	3930
1	0	0	2131	4	578	403	3929
2	0	0	1930	4	576	403	3930
3	0	0	1763	4	573	404	3929
4	0	0	1637	4	570	403	3929
5	0	0	1559	4	568	404	3929
6	0	0	1483	5	569	403	3930
7	0	0	1509	4	569	403	3930
8	0	0	1605	5	569	403	3929
9	0	0	1713	5	570	404	3930
10	0	0	1840	5	572	404	3930
11	0	0	1966	5	575	404	3931
12	0	0	2130	5	579	403	3932
13	0	0	2312	4	581	403	3931
14	0	0	2456	5	585	404	3929
15	0	0	2597	5	586	403	3929
16	0	0	2684	5	589	403	3930
17	0	0	2708	5	588	404	3929
18	0	0	2691	3	586	403	3931
19	0	0	2548	4	584	404	3929
20	0	0	2335	4	581	403	3929
21	0	0	2098	4	579	403	3930
22	0	0	1920	4	575	404	3930
23	0	0	1821	3	573	404	3930
24	0	0	1708	4	570	404	3929
25	0	0	1602	4	569	404	3930
26	0	0	1511	4	568	404	3931
27	0	0	1514	5	568	403	3930
28	0	0	1599	5	569	404	3927
29	0	0	1667	5	571	404	3930
30	0	0	1802	5	573	404	3930
31	0	0	1939	5	576	403	3930
32	0	0	2087	5	578	403	3930
33	0	0	2284	4	581	403	3929
34	0	0	2409	5	584	403	3929
35	0	0	2529	5	586	403	3930
36	0	0	2637	5	586	403	3929
37	0	0	2643	5	588	404	3929
38	0	0	2642	4	585	404	3929
39	0	0	2551	4	584	404	3930
40	0	0	2344	4	581	404	3930
41	0	0	2138	5	577	403	3930
42	0	0	1949	4	575	403	3930
43	0	0	1823	4	573	404	3930
44	0	0	1711	4	572	404	3928
45	0	0	1561	4	567	403	3930
46	0	0	1512	4	569	404	3931
47	0	0	1489	4	569	403	3930
48	0	0	1547	5	569	404	3929
49	0	0	1675	5	570	404	3929
50	0	0	1789	5	573	404	3929
51	0	0	1947	6	575	404	3930
52	0	0	2082	5	580	403	3930
53	0	0	2233	5	580	403	3929
54	0	0	2350	5	584	404	3929
55	0	0	2455	5	585	404	3929
56	0	0	2585	5	587	404	3929
57	0	0	2610	5	586	403	3930
58	0	0	2591	4	584	403	3930
59	0	0	2519	5	582	403	3930
60	0	0	2333	4	579	403	3930
61	0	0	2117	4	578	404	3931
62	0	0	1938	4	575	404	3930
63	0	0	1776	4	574	404	3929
64	0	0	1680	4	571	404	3930
65	0	0	1595	4	569	403	3931
66	0	0	1539	4	568	403	3930
67	0	0	1525	5	570	403	3930
68	0	0	1584	5	570	403	3929
69	0	0	1714	6	572	403	3929
70	0	0	1823	5	571	404	3929
71	0	0	1953	5	576	403	3930
72	0	0	2074	5	578	403	3929
73	0	0	2211	4	580	404	3930
74	0	0	2338	5	584	403	3929
75	0	0	2455	5	587	404	3930
76	0	0	2580	5	588	403	3930
77	0	0	2581	4	587	403	3931
78	0	0	2577	5	585	403	3930
79	0	0	2506	4	582	404	3929
80	0	0	2322	4	578	404	3930
81	0	0	2147	3	577	403	3930
82	0	0	1988	4	575	404	3929
83	0	0	1845	5	574	403	3929
84	0	0	1767	5	570	404	3929
85	0	0	1685	4	567	404	3930
86	0	0	1615	4	569	404	3931
87	0	0	1598	4	569	403	3930
88	0	0	1632	5	569	404	3929
89	0	0	1729	5	571	404	3930
90	0	0	1847	5	572	404	3931
91	0	0	1976	5	575	404	3930
92	0	0	2110	5	578	403	3931
93	0	0	2199	5	579	403	3930
94	0	0	2317	5	584	404	3930
95	0	0	2433	5	586	404	3930
96	0	0	2532	4	587	404	3930
97	0	0	2578	5	586	404	3930
98	0	0	2547	5	585	403	3930
99	0	0	2492	4	582	403	3929
100	0	0	2363	4	581	403	3929
101	0	0	2171	3	577	403	3930
102	0	0	2016	4	575	403	3931
103	0	0	1865	4	572	404	3929
104	0	0	1759	4	571	403	3930
105	0	0	1684	4	569	404	3930
106	0	0	1602	4	568	404	3929
107	0	0	1607	5	567	403	3930
108	0	0	1626	5	570	403	3929
109	0	0	1681	5	571	404	3930
110	0	0	1837	5	573	403	3931
111	0	0	1943	5	574	404	3931
112	0	0	2051	5	578	403	3930
113	0	0	2152	4	581	403	3931
114	0	0	2240	5	584	403	3930
115	0	0	2380	5	585	404	3929
116	0	0	2505	4	585	403	3930
117	0	0	2573	5	586	404	3930
118	0	0	2548	5	584	405	3930
119	0	0	2474	4	582	404	3929
120	0	0	2350	4	580	403	3929
121	0	0	2159	3	578	403	3930
122	0	0	2001	4	575	403	3929
123	0	0	1850	4	572	403	3929
124	0	0	1740	4	570	403	3933
125	0	0	1662	4	571	404	3931
126	0	0	1630	4	569	403	3930
127	0	0	1607	4	569	403	3930
0	0	0	1611	4	571	404	3931
1	0	0	1665	5	571	403	3930
2	0	0	1783	5	572	404	3930
3	0	0	1915	4	576	403	3930
4	0	0	2050	5	579	403	3930
5	0	0	2179	5	581	403	3929
6	0	0	2258	5	585	403	3929
7	0	0	2381	5	586	403	3929
8	0	0	2511	5	586	403	3930
9	0	0	2559	5	585	404	3930
10	0	0	2533	5	585	404	3929
11	0	0	2448	4	582	403	3930
12	0	0	2322	4	579	403	3931
13	0	0	2148	3	577	403	3930
14	0	0	2039	4	575	404	3930
15	0	0	1908	5	572	403	3930
16	0	0	1769	4	571	404	3930
17	0	0	1691	4	570	404	3930
18	0	0	1625	3	569	404	3931
19	0	0	1608	5	569	403	3930
20	0	0	1649	5	569	403	3930
21	0	0	1710	5	571	403	3929
22	0	0	1811	5	572	403	3930
23	0	0	1947	4	575	404	3930
24	0	0	2073	5	578	403	3931
25	0	0	2204	5	580	403	3929
26	0	0	2261	5	584	403	3930
27	0	0	2352	5	587	404	3931
28	0	0	2489	5	586	404	3930
29	0	0	2518	5	585	404	3930
30	0	0	2562	5	585	403	3930
31	0	0	2482	4	582	403	3930
32	0	0	2332	4	580	403	3930
33	0	0	2196	4	577	403	3931
34	0	0	2041	4	575	403	3931
35	0	0	1916	4	573	404	3931
36	0	0	1801	4	570	405	3930
37	0	0	1719	4	569	403	3930
38	0	0	1671	4	568	403	3931
39	0	0	1651	5	569	404	3930
40	0	0	1711	5	570	403	3930
41	0	0	1772	4	571	403	3929
42	0	0	1841	5	573	403	3929
43	0	0	1961	4	575	404	3929
44	0	0	2067	5	578	404	3929
45	0	0	2174	5	581	403	3929
46	0	0	2280	5	585	403	3930
47	0	0	2354	5	586	404	3930
48	0	0	2471	4	587	404	3930
49	0	0	2535	5	586	403	3930
50	0	0	2544	5	585	403	3930
51	0	0	2488	4	583	403	3930
52	0	0	2351	4	581	403	3930
53	0	0	2203	3	579	403	3930
54	0	0	2049	4	577	403	3931
55	0	0	1925	4	573	403	3930
56	0	0	1816	4	571	403	3931
57	0	0	1716	4	570	403	3931
58	0	0	1650	4	569	403	3930
59	0	0	1615	4	569	404	3931
60	0	0	1648	5	570	403	3920
61	0	0	1725	5	572	403	3930
62	0	0	1819	5	573	403	3930
63	0	0	1897	4	576	403	3930
64	0	0	1971	5	578	403	3930
65	0	0	2086	5	582	403	3931
66	0	0	2196	4	585	403	3930
67	0	0	2302	5	585	404	3930
68	0	0	2398	4	587	403	3931
69	0	0	2450	5	587	404	3930
70	0	0	2468	5	584	403	3930
71	0	0	2480	4	582	403	3931
72	0	0	2349	4	581	404	3931
73	0	0	2148	3	579	403	3930
74	0	0	1982	4	575	404	3930
75	0	0	1862	4	573	404	3929
76	0	0	1795	5	572	403	3934
77	0	0	1699	4	568	403	3929
78	0	0	1617	4	568	403	3929
79	0	0	1585	4	570	404	3930
80	0	0	1614	5	569	404	3931
81	0	0	1750	5	571	403	3930
82	0	0	1828	5	573	404	3931
83	0	0	1886	5	575	404	3931
84	0	0	1991	5	577	403	3930
85	0	0	2121	5	579	403	3930
86	0	0	2225	5	583	403	3930
87	0	0	2335	5	586	403	3930
88	0	0	2434	5	586	403	3930
89	0	0	2519	5	585	403	3930
90	0	0	2517	5	584	404	3929
91	0	0	2512	4	582	403	3930
92	0	0	2370	4	580	403	3924
93	0	0	2142	3	577	404	3930
94	0	0	2004	4	575	403	3930
95	0	0	1867	4	573	404	3931
96	0	0	1779	4	571	403	3930
97	0	0	1747	4	569	403	3931
98	0	0	1654	3	568	403	3931
99	0	0	1645	5	569	403	3930
100	0	0	1661	5	568	403	3930
101	0	0	1769	5	570	403	3930
102	0	0	1848	5	573	403	3930
103	0	0	1910	5	574	404	3931
104	0	0	1991	5	577	404	3930
105	0	0	2111	5	580	403	3929
106	0	0	2199	5	583	403	3929
107	0	0	2344	5	586	404	3929
108	0	0	2459	3	586	403	3931
109	0	0	2498	5	585	404	3931
110	0	0	2505	5	583	403	3929
111	0	0	2462	4	582	403	3930
112	0	0	2344	4	580	403	3931
113	0	0	2185	4	577	403	3931
114	0	0	2017	4	574	403	3931
115	0	0	1892	4	571	404	3930
116	0	0	1795	4	568	403	3930
117	0	0	1768	4	568	404	3930
118	0	0	1697	3	568	403	3931
119	0	0	1670	4	568	403	3930
120	0	0	1678	6	568	404	3930
121	0	0	1741	4	569	403	3930
122	0	0	1838	5	572	403	3929
123	0	0	1931	4	575	404	3930
124	0	0	2010	5	577	404	3929
125	0	0	2104	5	578	403	3931
126	0	0	2190	5	583	402	3929
127	0	0	2305	5	584	404	3930
0	0	0	2431	5	585	404	3931
1	0	0	2495	5	585	403	3929
2	0	0	2475	4	584	403	3930
3	0	0	2435	5	582	403	3931
4	0	0	2343	4	580	403	3930
5	0	0	2194	3	576	403	3931
6	0	0	2032	4	573	404	3930
7	0	0	1901	4	571	404	3930
8	0	0	1776	4	569	404	3931
9	0	0	1718	4	568	404	3931
10	0	0	1663	4	567	403	3931
11	0	0	1631	5	567	403	3930
12	0	0	1647	5	569	403	3927
13	0	0	1668	5	569	404	3930
14	0	0	1811	5	573	404	3930
15	0	0	1902	5	573	404	3930
16	0	0	1976	5	575	403	3929
17	0	0	2084	5	578	403	3930
18	0	0	2142	5	582	403	3931
19	0	0	2245	5	585	403	3930
20	0	0	2411	4	585	403	3931
21	0	0	2472	5	585	403	3931
22	0	0	2478	5	583	403	3930
23	0	0	2411	4	581	403	3930
24	0	0	2323	4	579	404	3930
25	0	0	2183	4	575	404	3931
26	0	0	2021	4	573	403	3930
27	0	0	1877	4	572	404	3931
28	0	0	1755	4	569	403	3931
29	0	0	1646	4	568	403	3929
30	0	0	1659	4	566	404	3930
31	0	0	1614	4	566	403	3930
32	0	0	1636	5	567	403	3929
33	0	0	1674	5	569	403	3931
34	0	0	1786	5	570	404	3931
35	0	0	1904	5	573	404	3931
36	0	0	2019	5	576	403	3931
37	0	0	2120	5	580	403	3932
38	0	0	2185	5	583	403	3930
39	0	0	2261	5	583	404	3930
40	0	0	2431	4	584	404	3931
41	0	0	2499	5	584	403	3930
42	0	0	2513	5	582	403	3930
43	0	0	2446	4	579	403	3931
44	0	0	2341	4	581	404	3935
45	0	0	2174	4	574	404	3931
46	0	0	2050	4	572	403	3930
47	0	0	1888	4	570	403	3930
48	0	0	1748	4	568	403	3929
49	0	0	1661	4	566	404	3930
50	0	0	1618	4	566	404	3931
51	0	0	1595	4	565	403	3930
52	0	0	1636	5	566	403	3931
53	0	0	1682	5	567	403	3930
54	0	0	1775	5	568	403	3930
55	0	0	1879	4	571	403	3931
56	0	0	1970	5	573	403	3931
57	0	0	2070	5	577	403	3930
58	0	0	2147	5	580	403	3930
59	0	0	2237	5	579	403	3931
60	0	0	2374	5	583	404	3932
61	0	0	2412	5	581	403	3931
62	0	0	2453	5	580	403	3930
63	0	0	2396	4	578	403	3930
64	0	0	2266	4	575	404	3930
65	0	0	2127	4	573	403	3931
66	0	0	1967	4	570	404	3930
67	0	0	1840	3	567	403	3929
68	0	0	1749	4	565	403	3930
69	0	0	1674	4	563	403	3930
70	0	0	1603	4	563	403	3931
71	0	0	1592	4	563	403	3931
72	0	0	1635	5	564	403	3930
73	0	0	1718	5	565	403	3931
74	0	0	1792	5	569	403	3930
75	0	0	1897	5	570	404	3930
76	0	0	1995	5	573	404	3931
77	0	0	2083	5	575	404	3930
78	0	0	2196	5	579	404	3929
79	0	0	2269	5	582	403	3930
80	0	0	2374	5	581	403	3930
81	0	0	2459	5	581	403	3930
82	0	0	2471	5	581	403	3929
83	0	0	2454	5	577	404	3930
84	0	0	2313	4	577	403	3930
85	0	0	2187	4	573	404	3931
86	0	0	2044	4	571	403	3931
87	0	0	1917	4	568	404	3931
88	0	0	1823	4	566	404	3930
89	0	0	1721	4	565	403	3930
90	0	0	1633	4	564	403	3931
91	0	0	1637	5	564	403	3932
92	0	0	1661	5	566	403	3931
93	0	0	1715	5	568	403	3930
94	0	0	1796	5	569	403	3930
95	0	0	1908	5	571	403	3931
96	0	0	2012	5	575	403	3930
97	0	0	2134	5	576	403	3930
98	0	0	2205	5	581	405	3930
99	0	0	2280	5	580	403	3930
100	0	0	2398	5	583	403	3930
101	0	0	2502	5	583	403	3931
102	0	0	2506	5	580	403	3932
103	0	0	2478	4	579	402	3931
104	0	0	2342	4	578	403	3931
105	0	0	2209	4	574	404	3931
106	0	0	2072	4	572	403	3931
107	0	0	1934	4	571	403	3930
108	0	0	1817	4	570	403	3928
109	0	0	1707	4	566	404	3931
110	0	0	1652	4	566	403	3931
111	0	0	1639	4	565	403	3931
112	0	0	1656	5	566	403	3930
113	0	0	1749	5	567	404	3930
114	0	0	1843	5	570	403	3931
115	0	0	1965	5	573	403	3930
116	0	0	2093	5	576	403	3930
117	0	0	2197	5	578	403	3930
118	0	0	2259	5	581	405	3930
119	0	0	2358	5	584	403	3931
120	0	0	2475	5	584	403	3931
121	0	0	2544	5	585	403	3931
122	0	0	2553	5	584	404	3930
123	0	0	2508	4	581	403	3930
124	0	0	2384	4	580	403	3934
125	0	0	2203	4	575	404	3931
126	0	0	2099	4	574	404	3931
127	0	0	1951	4	570	404	3930
0	0	0	1814	4	570	404	3930
1	0	0	1736	4	568	404	3931
2	0	0	1663	4	569	404	3930
3	0	0	1657	5	568	403	3931
4	0	0	1694	6	569	404	3929
5	0	0	1762	6	570	403	3929
6	0	0	1859	5	571	404	3930
7	0	0	1972	5	574	403	3931
8	0	0	2106	5	577	403	3931
9	0	0	2198	5	578	404	3930
10	0	0	2256	5	583	403	3931
11	0	0	2350	5	585	404	3931
12	0	0	2469	5	585	404	3927
13	0	0	2496	5	587	403	3930
14	0	0	2535	5	586	404	3931
15	0	0	2462	4	584	403	3929
16	0	0	2337	4	580	403	3930
17	0	0	2187	4	577	403	3930
18	0	0	2064	4	576	403	3929
19	0	0	1923	4	572	404	3929
20	0	0	1815	5	570	403	3929
21	0	0	1739	4	569	403	3930
22	0	0	1672	4	569	404	3929
23	0	0	1657	5	569	403	3931
24	0	0	1698	5	570	404	3931
25	0	0	1749	5	572	403	3930
26	0	0	1852	5	573	403	3931
27	0	0	1941	4	575	404	3931
28	0	0	2079	5	579	404	3937
29	0	0	2162	5	580	404	3930
30	0	0	2261	5	585	403	3930
31	0	0	2334	5	586	404	3930
32	0	0	2433	5	587	403	3930
33	0	0	2489	5	587	403	3929
34	0	0	2508	5	584	404	3929
35	0	0	2458	4	583	403	3930
36	0	0	2360	4	581	404	3930
37	0	0	2201	4	578	403	3930
38	0	0	2084	4	576	403	3929
39	0	0	1952	4	575	403	3929
40	0	0	1834	4	572	405	3930
41	0	0	1745	4	570	403	3930
42	0	0	1675	4	570	404	3931
43	0	0	1648	5	570	403	3930
44	0	0	1690	5	572	403	3934
45	0	0	1722	5	572	403	3930
46	0	0	1847	5	574	403	3930
47	0	0	1938	5	577	404	3930
48	0	0	2053	5	578	403	3929
49	0	0	2182	5	581	403	3929
50	0	0	2256	5	585	403	3930
51	0	0	2343	5	586	403	3931
52	0	0	2465	5	588	403	3929
53	0	0	2530	5	589	404	3930
54	0	0	2542	5	586	403	3929
55	0	0	2497	4	584	403	3929
56	0	0	2369	4	582	403	3929
57	0	0	2209	4	580	403	3930
58	0	0	2072	4	577	403	3931
59	0	0	1959	4	575	403	3930
60	0	0	1842	4	575	404	3921
61	0	0	1727	4	573	404	3931
62	0	0	1686	4	572	403	3930
63	0	0	1650	4	571	403	3930
64	0	0	1670	5	571	403	3931
65	0	0	1751	5	573	403	3930
66	0	0	1839	5	576	403	3929
67	0	0	1954	5	578	403	3930
68	0	0	2080	5	579	403	3929
69	0	0	2227	5	581	403	3929
70	0	0	2294	5	585	404	3929
71	0	0	2376	5	587	403	3929
72	0	0	2491	5	587	404	3930
73	0	0	2543	5	587	403	3929
74	0	0	2544	5	586	403	3930
75	0	0	2508	4	585	404	3930
76	0	0	2374	4	583	403	3940
77	0	0	2205	4	579	403	3931
78	0	0	2088	4	577	403	3931
79	0	0	1966	4	575	404	3929
80	0	0	1833	4	574	403	3929
81	0	0	1743	4	571	403	3929
82	0	0	1677	4	572	404	3929
83	0	0	1664	6	572	404	3929
84	0	0	1682	5	571	403	3929
85	0	0	1764	4	573	403	3929
86	0	0	1847	5	574	403	3929
87	0	0	1964	5	579	404	3930
88	0	0	2078	5	581	403	3929
89	0	0	2204	5	581	403	3930
90	0	0	2273	5	585	403	3930
91	0	0	2352	3	587	403	3930
92	0	0	2469	5	587	404	3931
93	0	0	2505	5	589	403	3931
94	0	0	2531	5	585	403	3930
95	0	0	2475	4	584	404	3930
96	0	0	2332	4	582	403	3931
97	0	0	2181	4	580	403	3930
98	0	0	2021	4	578	403	3931
99	0	0	1897	4	575	403	3929
100	0	0	1808	4	572	403	3929
101	0	0	1726	4	570	403	3929
102	0	0	1655	3	572	404	3930
103	0	0	1632	5	572	404	3930
104	0	0	1661	5	573	403	3929
105	0	0	1730	5	573	404	3928
106	0	0	1813	5	574	403	3929
107	0	0	1912	5	578	403	3930
108	0	0	2029	5	580	403	3926
109	0	0	2134	5	582	403	3930
110	0	0	2267	4	586	403	3930
111	0	0	2335	5	588	403	3929
112	0	0	2430	5	586	403	3930
113	0	0	2483	5	588	404	3931
114	0	0	2485	5	587	403	3929
115	0	0	2455	4	585	404	3930
116	0	0	2351	4	582	403	3930
117	0	0	2200	4	581	403	3930
118	0	0	2067	4	577	403	3929
119	0	0	1944	4	575	404	3929
120	0	0	1867	4	573	403	3929
121	0	0	1772	4	572	403	3929
122	0	0	1688	4	570	403	3930
123	0	0	1660	4	571	403	3929
124	0	0	1680	5	573	404	3933
125	0	0	1728	5	573	405	3930
126	0	0	1848	5	577	402	3930
127	0	0	1927	5	579	403	3930
0	0	0	2045	5	580	403	3930
1	0	0	2175	5	582	403	3929
2	0	0	2280	5	586	403	3930
3	0	0	2351	5	587	404	3930
4	0	0	2474	5	587	404	3930
5	0	0	2532	5	588	404	3929
6	0	0	2521	5	586	403	3929
7	0	0	2494	4	585	403	3929
8	0	0	2354	4	583	403	3929
9	0	0	2182	4	580	403	3930
10	0	0	2059	4	579	404	3930
11	0	0	1951	4	575	404	3929
12	0	0	1865	4	572	404	3930
13	0	0	1740	4	573	404	3931
14	0	0	1668	4	573	404	3930
15	0	0	1625	4	572	404	3929
16	0	0	1654	5	572	403	3930
17	0	0	1738	5	574	403	3930
18	0	0	1790	5	576	402	3930
19	0	0	1894	5	577	403	3930
20	0	0	2060	5	580	403	3929
21	0	0	2222	4	583	404	3931
22	0	0	2300	5	585	404	3929
23	0	0	2358	5	586	402	3929
24	0	0	2446	5	588	403	3930
25	0	0	2527	5	590	404	3930
26	0	0	2545	3	588	403	3929
27	0	0	2498	4	585	403	3929
28	0	0	2347	4	584	404	3919
29	0	0	2165	4	580	404	3930
30	0	0	2093	5	579	403	3929
31	0	0	1967	4	576	403	3930
32	0	0	1827	4	574	404	3930
33	0	0	1724	4	574	403	3930
34	0	0	1619	4	573	404	3930
35	0	0	1665	5	571	403	3929
36	0	0	1737	5	572	404	3931
37	0	0	1781	5	574	404	3929
38	0	0	1823	5	577	404	3930
39	0	0	1921	5	578	404	3931
40	0	0	2094	5	580	403	3929
41	0	0	2221	5	582	403	3930
42	0	0	2257	5	587	402	3929
43	0	0	2325	5	589	402	3929
44	0	0	2445	5	589	404	3931
45	0	0	2561	5	590	404	3929
46	0	0	2594	5	588	403	3929
47	0	0	2482	4	586	404	3930
48	0	0	2317	4	583	403	3930
49	0	0	2178	4	582	403	3930
50	0	0	2085	4	578	403	3930
51	0	0	1937	4	577	404	3929
52	0	0	1800	4	574	404	3930
53	0	0	1721	4	574	404	3930
54	0	0	1700	5	573	404	3930
55	0	0	1723	5	572	404	3929
56	0	0	1729	4	573	404	3930
57	0	0	1739	5	574	403	3929
58	0	0	1820	5	579	403	3929
59	0	0	1934	5	578	403	3930
60	0	0	2067	5	583	404	3928
61	0	0	2127	5	583	403	3929
62	0	0	2259	5	587	403	3929
63	0	0	2371	5	589	404	3930
64	0	0	2530	5	590	404	3930
65	0	0	2586	5	589	404	3930
66	0	0	2558	5	588	404	3929
67	0	0	2473	4	587	404	3930
68	0	0	2390	4	586	403	3930
69	0	0	2248	4	584	404	3930
70	0	0	2104	4	581	403	3931
71	0	0	1966	5	579	403	3929
72	0	0	1902	4	576	403	3930
73	0	0	1878	4	576	404	3930
74	0	0	1828	4	576	403	3930
75	0	0	1775	4	575	404	3929
76	0	0	1784	5	576	403	3938
77	0	0	1805	5	579	403	3929
78	0	0	1965	5	582	404	3929
79	0	0	2080	5	583	403	3930
80	0	0	2165	5	586	403	3930
81	0	0	2327	4	587	403	3931
82	0	0	2465	5	592	403	3931
83	0	0	2594	4	594	404	3930
84	0	0	2698	5	595	404	3931
85	0	0	2673	4	595	403	3930
86	0	0	2615	4	593	404	3929
87	0	0	2562	4	591	404	3930
88	0	0	2448	4	589	404	3929
89	0	0	2279	4	586	403	3930
90	0	0	2070	4	585	403	3929
91	0	0	1956	4	581	403	3930
92	0	0	1865	4	578	403	3925
93	0	0	1783	4	579	404	3928
94	0	0	1692	4	579	403	3929
95	0	0	1591	4	577	403	3929
96	0	0	1579	5	577	403	3930
97	0	0	1695	5	579	403	3930
98	0	0	1835	5	580	403	3931
99	0	0	1934	5	583	403	3930
100	0	0	2019	5	584	403	3929
101	0	0	2157	4	587	404	3930
102	0	0	2286	5	590	403	3929
103	0	0	2403	5	592	404	3930
104	0	0	2480	5	593	403	3931
105	0	0	2475	4	593	403	3929
106	0	0	2456	5	590	404	3929
107	0	0	2462	4	589	403	3929
108	0	0	2373	4	585	404	3932
109	0	0	2163	4	584	403	3930
110	0	0	2029	4	581	404	3930
111	0	0	1886	3	580	403	3929
112	0	0	1824	4	577	403	3929
113	0	0	1745	4	576	404	3929
114	0	0	1641	4	574	403	3930
115	0	0	1557	4	575	403	3930
116	0	0	1593	4	574	404	3930
117	0	0	1722	4	579	403	3929
118	0	0	1835	5	577	403	3930
119	0	0	1923	5	581	404	3931
120	0	0	2022	5	583	403	3930
121	0	0	2142	5	583	403	3931
122	0	0	2283	5	588	405	3929
123	0	0	2343	5	589	404	3929
124	0	0	2433	5	590	404	3925
125	0	0	2413	5	591	403	3929
126	0	0	2478	5	589	403	3929
127	0	0	2464	4	586	404	3929
0	0	0	2314	4	585	403	3929
1	0	0	2133	4	582	403	3930
2	0	0	1969	4	579	403	3931
3	0	0	1876	5	577	403	3930
4	0	0	1808	4	574	403	3930
5	0	0	1698	3	575	404	3931
6	0	0	1589	4	574	403	3930
7	0	0	1545	5	574	404	3929
8	0	0	1615	4	574	404	3929
9	0	0	1726	5	575	403	3929
10	0	0	1803	4	576	403	3929
11	0	0	1906	5	578	403	3930
12	0	0	1999	5	581	403	3936
13	0	0	2126	4	582	403	3929
14	0	0	2237	5	586	403	3929
15	0	0	2287	5	587	404	3929
16	0	0	2372	5	588	403	3929
17	0	0	2449	5	587	403	3929
18	0	0	2485	4	587	403	3931
19	0	0	2474	4	584	403	3930
20	0	0	2346	4	582	404	3930
21	0	0	2176	4	579	403	3931
22	0	0	2024	4	578	403	3930
23	0	0	1922	4	575	403	3930
24	0	0	1794	4	573	403	3930
25	0	0	1697	4	573	403	3930
26	0	0	1597	4	571	403	3930
27	0	0	1596	5	572	404	3930
28	0	0	1645	5	572	403	3930
29	0	0	1676	5	575	403	3929
30	0	0	1807	5	574	404	3929
31	0	0	1883	5	578	403	3930
32	0	0	2013	5	579	403	3928
33	0	0	2146	4	582	404	3928
34	0	0	2216	5	584	404	3929
35	0	0	2294	5	588	403	3930
36	0	0	2418	5	587	403	3930
37	0	0	2517	5	587	403	3930
38	0	0	2530	5	585	403	3930
39	0	0	2461	4	584	403	3930
40	0	0	2346	4	582	404	3930
41	0	0	2178	4	579	403	3930
42	0	0	2073	4	577	403	3929
43	0	0	1919	4	575	404	3929
44	0	0	1778	4	571	404	3929
45	0	0	1643	4	571	404	3930
46	0	0	1615	4	571	403	3930
47	0	0	1620	5	571	404	3930
48	0	0	1631	4	570	404	3929
49	0	0	1679	4	572	403	3929
50	0	0	1760	5	574	404	3929
51	0	0	1900	5	578	403	3931
52	0	0	2061	5	579	403	3930
53	0	0	2154	5	580	404	3930
54	0	0	2202	5	584	403	3930
55	0	0	2276	5	587	404	3931
56	0	0	2428	5	585	403	3930
57	0	0	2531	5	586	403	3929
58	0	0	2502	4	586	403	3930
59	0	0	2444	4	584	403	3929
60	0	0	2311	4	582	403	3931
61	0	0	2185	4	579	403	3930
62	0	0	2083	4	576	403	3930
63	0	0	1908	5	575	404	3929
64	0	0	1719	4	573	403	3929
65	0	0	1647	4	570	404	3930
66	0	0	1630	5	570	404	3929
67	0	0	1641	5	570	403	3930
68	0	0	1650	5	572	404	3930
69	0	0	1695	4	572	404	3930
70	0	0	1789	5	574	404	3931
71	0	0	1949	5	575	403	3931
72	0	0	2063	5	579	403	3929
73	0	0	2145	5	581	403	3930
74	0	0	2181	5	584	403	3930
75	0	0	2279	5	586	404	3930
76	0	0	2447	5	585	403	3940
77	0	0	2501	5	586	404	3929
78	0	0	2533	5	585	403	3930
79	0	0	2438	4	584	405	3929
80	0	0	2332	4	582	404	3929
81	0	0	2212	4	580	403	3929
82	0	0	2054	4	576	403	3930
83	0	0	1885	4	575	403	3929
84	0	0	1744	4	573	403	3930
85	0	0	1680	4	572	405	3930
86	0	0	1652	4	569	403	3930
87	0	0	1632	5	570	403	3930
88	0	0	1668	4	571	404	3930
89	0	0	1697	5	571	404	3930
90	0	0	1814	5	574	405	3930
91	0	0	1919	5	577	403	3930
92	0	0	2024	5	579	403	3920
93	0	0	2089	5	581	403	3929
94	0	0	2181	5	583	404	3929
95	0	0	2271	5	585	405	3929
96	0	0	2415	4	586	404	3930
97	0	0	2497	5	586	403	3929
98	0	0	2499	5	585	403	3930
99	0	0	2457	4	583	403	3930
100	0	0	2369	4	580	403	3929
101	0	0	2206	4	578	404	3931
102	0	0	2040	4	576	404	3929
103	0	0	1885	4	575	404	3930
104	0	0	1768	4	571	404	3930
105	0	0	1712	4	571	404	3930
106	0	0	1646	4	570	403	3930
107	0	0	1639	5	570	403	3929
108	0	0	1655	5	571	403	3929
109	0	0	1712	5	573	404	3929
110	0	0	1833	5	575	403	3929
111	0	0	1916	5	574	403	3930
112	0	0	1991	5	579	403	3930
113	0	0	2107	5	581	403	3929
114	0	0	2201	5	584	403	3929
115	0	0	2312	5	586	404	3929
116	0	0	2451	5	586	403	3930
117	0	0	2522	5	585	403	3929
118	0	0	2521	5	584	403	3930
119	0	0	2521	4	582	403	3930
120	0	0	2386	4	580	403	3930
121	0	0	2216	4	578	403	3931
122	0	0	2025	4	576	403	3930
123	0	0	1887	4	573	403	3930
124	0	0	1803	4	571	404	3920
125	0	0	1698	4	571	404	3931
126	0	0	1674	4	570	403	3930
127	0	0	1619	4	569	403	3929
0	0	0	1653	5	572	404	3929
1	0	0	1743	5	573	403	3929
2	0	0	1803	5	574	403	3929
3	0	0	1896	5	576	403	3929
4	0	0	1998	5	577	403	3928
5	0	0	2118	5	581	403	3929
6	0	0	2236	5	583	403	3929
7	0	0	2306	5	586	404	3930
8	0	0	2437	5	585	403	3930
9	0	0	2492	5	586	403	3930
10	0	0	2523	5	585	403	3930
11	0	0	2492	4	582	403	3930
12	0	0	2349	4	582	403	3931
13	0	0	2133	4	579	403	3930
14	0	0	2004	4	576	403	3931
15	0	0	1885	6	574	403	3929
16	0	0	1796	4	572	403	3929
17	0	0	1720	4	569	404	3930
18	0	0	1635	4	569	403	3929
19	0	0	1603	5	571	404	3930
20	0	0	1657	5	570	403	3929
21	0	0	1709	5	573	403	3929
22	0	0	1769	4	575	404	3929
23	0	0	1843	5	577	403	3930
24	0	0	1967	5	579	403	3929
25	0	0	2120	5	581	403	3930
26	0	0	2218	5	584	404	3930
27	0	0	2306	5	585	405	3930
28	0	0	2403	5	586	403	3931
29	0	0	2472	5	585	403	3929
30	0	0	2531	5	585	404	3929
31	0	0	2479	4	584	403	3929
32	0	0	2319	4	580	404	3930
33	0	0	2125	4	577	403	3930
34	0	0	1993	4	576	403	3929
35	0	0	1897	4	573	404	3929
36	0	0	1806	4	571	404	3929
37	0	0	1727	4	570	403	3930
38	0	0	1630	4	569	403	3930
39	0	0	1642	5	570	404	3931
40	0	0	1678	5	569	404	3930
41	0	0	1736	5	572	404	3930
42	0	0	1778	5	574	403	3931
43	0	0	1844	6	576	404	3931
44	0	0	1979	5	577	403	3920
45	0	0	2096	5	579	404	3929
46	0	0	2231	5	582	403	3929
47	0	0	2290	5	585	403	3930
48	0	0	2399	5	586	404	3930
49	0	0	2503	5	587	403	3929
50	0	0	2515	5	586	403	3929
51	0	0	2484	4	582	403	3930
52	0	0	2342	4	581	403	3929
53	0	0	2166	4	578	403	3930
54	0	0	2038	4	575	403	3929
55	0	0	1929	4	574	404	3929
56	0	0	1856	4	572	403	3930
57	0	0	1761	4	571	404	3931
58	0	0	1679	4	570	403	3931
59	0	0	1643	5	570	403	3930
60	0	0	1675	5	570	404	3929
61	0	0	1691	3	572	404	3930
62	0	0	1784	5	575	404	3931
63	0	0	1859	5	576	403	3930
64	0	0	1968	5	577	403	3929
65	0	0	2112	5	581	404	3931
66	0	0	2205	5	582	404	3929
67	0	0	2286	4	583	404	3930
68	0	0	2438	5	586	403	3930
69	0	0	2513	5	586	403	3930
70	0	0	2530	6	585	403	3929
71	0	0	2470	3	582	403	3929
72	0	0	2335	4	580	404	3930
73	0	0	2186	4	579	403	3930
74	0	0	2047	4	576	403	3930
75	0	0	1944	4	575	404	3931
76	0	0	1833	4	573	404	3921
77	0	0	1739	4	572	404	3930
78	0	0	1688	4	570	403	3930
79	0	0	1629	4	570	403	3930
80	0	0	1638	5	572	403	3929
81	0	0	1679	4	573	404	3930
82	0	0	1765	5	575	404	3930
83	0	0	1868	5	575	403	3930
84	0	0	1979	5	577	403	3929
85	0	0	2117	5	579	404	3930
86	0	0	2198	5	582	403	3929
87	0	0	2310	5	585	403	3929
88	0	0	2437	5	584	403	3930
89	0	0	2496	5	585	403	3929
90	0	0	2478	5	583	403	3929
91	0	0	2420	4	581	403	3931
92	0	0	2316	4	578	404	3931
93	0	0	2145	4	578	403	3931
94	0	0	2046	4	575	403	3929
95	0	0	1902	4	575	404	3929
96	0	0	1792	4	571	403	3930
97	0	0	1747	4	570	403	3930
98	0	0	1665	4	571	403	3930
99	0	0	1629	4	571	403	3930
100	0	0	1636	6	571	403	3929
101	0	0	1682	4	572	403	3929
102	0	0	1789	5	574	403	3929
103	0	0	1899	5	576	403	3929
104	0	0	2021	5	578	403	3929
105	0	0	2118	5	580	403	3929
106	0	0	2219	5	581	403	3930
107	0	0	2314	5	585	404	3929
108	0	0	2434	5	585	404	3941
109	0	0	2459	5	586	403	3930
110	0	0	2474	5	584	403	3931
111	0	0	2420	4	582	404	3930
112	0	0	2315	4	581	403	3929
113	0	0	2193	4	578	404	3930
114	0	0	2046	4	576	403	3929
115	0	0	1903	4	574	403	3930
116	0	0	1837	4	573	403	3930
117	0	0	1763	4	571	404	3930
118	0	0	1687	4	570	403	3929
119	0	0	1641	5	570	403	3929
120	0	0	1644	5	570	403	3929
121	0	0	1700	4	571	403	3930
122	0	0	1785	5	574	404	3930
123	0	0	1905	5	575	404	3930
124	0	0	1993	5	578	403	3929
125	0	0	2079	7	579	403	3930
126	0	0	2222	5	584	403	3930
127	0	0	2282	5	585	403	3930
0	0	0	2400	5	585	404	3930
1	0	0	2460	6	584	403	3929
2	0	0	2450	5	584	403	3929
3	0	0	2422	3	582	403	3929
4	0	0	2329	4	580	404	3929
5	0	0	2211	4	577	403	3931
6	0	0	2040	4	576	403	3929
7	0	0	1926	4	575	403	3930
8	0	0	1833	4	573	404	3930
9	0	0	1757	4	571	403	3929
10	0	0	1683	4	569	404	3930
11	0	0	1637	4	570	403	3929
12	0	0	1640	5	570	403	3934
13	0	0	1667	5	571	404	3931
14	0	0	1803	5	573	404	3930
15	0	0	1887	4	575	404	3930
16	0	0	1972	5	577	403	3931
17	0	0	2114	5	577	403	3929
18	0	0	2201	5	583	403	3929
19	0	0	2285	4	584	403	3929
20	0	0	2412	5	585	403	3930
21	0	0	2465	6	584	404	3929
22	0	0	2457	5	582	403	3929
23	0	0	2448	4	581	403	3929
24	0	0	2373	4	580	403	3929
25	0	0	2220	4	578	404	3930
26	0	0	2077	4	576	403	3929
27	0	0	1947	4	573	404	3928
28	0	0	1831	4	572	404	3931
29	0	0	1732	4	569	404	3930
30	0	0	1686	4	570	403	3931
31	0	0	1630	4	570	403	3930
32	0	0	1634	5	571	403	3930
33	0	0	1701	5	573	404	3929
34	0	0	1791	5	573	403	3930
35	0	0	1873	5	576	403	3931
36	0	0	2014	5	576	403	3929
37	0	0	2137	5	579	403	3930
38	0	0	2214	5	582	403	3930
39	0	0	2280	4	583	403	3929
40	0	0	2384	5	584	403	3930
41	0	0	2447	5	584	404	3929
42	0	0	2454	5	582	403	3929
43	0	0	2454	5	582	403	3929
44	0	0	2341	4	581	404	3931
45	0	0	2168	4	577	404	3930
46	0	0	2092	4	575	403	3930
47	0	0	1941	4	573	403	3930
48	0	0	1820	4	571	404	3930
49	0	0	1744	4	570	404	3930
50	0	0	1656	4	570	404	3930
51	0	0	1636	5	568	403	3931
52	0	0	1669	6	571	403	3929
53	0	0	1738	5	571	404	3929
54	0	0	1788	5	574	404	3930
55	0	0	1897	5	575	404	3930
56	0	0	2024	5	577	403	3930
57	0	0	2128	5	579	403	3929
58	0	0	2188	5	582	403	3929
59	0	0	2232	5	583	404	3929
60	0	0	2342	5	583	403	3931
61	0	0	2402	5	583	403	3929
62	0	0	2473	5	582	403	3929
63	0	0	2439	4	581	403	3930
64	0	0	2304	3	578	404	3930
65	0	0	2192	4	578	403	3930
66	0	0	2064	4	576	403	3930
67	0	0	1936	4	574	403	3930
68	0	0	1822	4	571	403	3930
69	0	0	1731	4	569	403	3930
70	0	0	1648	4	570	404	3930
71	0	0	1629	5	570	403	3929
72	0	0	1683	5	570	404	3929
73	0	0	1718	5	572	404	3929
74	0	0	1788	5	573	404	3929
75	0	0	1892	5	574	403	3929
76	0	0	2005	5	578	403	3932
77	0	0	2096	4	578	403	3929
78	0	0	2185	5	581	403	3929
79	0	0	2213	5	583	404	3929
80	0	0	2318	5	584	403	3930
81	0	0	2428	5	583	403	3930
82	0	0	2476	5	581	403	3929
83	0	0	2435	4	580	404	3930
84	0	0	2339	4	579	403	3929
85	0	0	2197	4	577	403	3930
86	0	0	2066	4	574	404	3931
87	0	0	1949	4	573	403	3929
88	0	0	1832	4	570	403	3929
89	0	0	1739	4	569	403	3930
90	0	0	1656	4	569	403	3929
91	0	0	1657	5	569	403	3929
92	0	0	1682	4	571	403	3929
93	0	0	1690	5	571	403	3930
94	0	0	1813	4	573	404	3930
95	0	0	1892	5	574	404	3931
96	0	0	1989	5	577	403	3930
97	0	0	2105	5	579	403	3930
98	0	0	2171	5	581	403	3930
99	0	0	2230	4	583	404	3930
100	0	0	2361	5	584	403	3930
101	0	0	2478	5	584	404	3929
102	0	0	2492	5	582	403	3929
103	0	0	2473	5	579	403	3929
104	0	0	2375	4	578	405	3929
105	0	0	2222	4	578	404	3930
106	0	0	2085	4	574	403	3929
107	0	0	1959	4	573	403	3929
108	0	0	1849	4	572	403	3940
109	0	0	1735	4	569	404	3930
110	0	0	1702	4	570	403	3929
111	0	0	1661	4	570	404	3930
112	0	0	1666	4	571	403	3930
113	0	0	1739	5	571	403	3930
114	0	0	1822	5	573	404	3931
115	0	0	1914	4	575	404	3930
116	0	0	2017	5	579	403	3929
117	0	0	2122	5	578	404	3929
118	0	0	2184	5	580	404	3929
119	0	0	2240	5	583	404	3930
120	0	0	2391	5	584	404	3930
121	0	0	2471	5	583	403	3929
122	0	0	2485	5	583	403	3929
123	0	0	2461	4	580	403	3930
124	0	0	2341	4	578	403	3927
125	0	0	2171	4	577	404	3929
126	0	0	2067	4	574	403	3929
127	0	0	1930	4	573	403	3930
0	0	0	1808	4	570	403	3930
1	0	0	1726	4	570	403	3929
2	0	0	1678	4	570	403	3931
3	0	0	1624	5	568	403	3930
4	0	0	1683	5	569	404	3930
5	0	0	1762	6	571	404	3930
6	0	0	1827	4	573	404	3930
7	0	0	1893	5	574	403	3930
8	0	0	1987	5	577	404	3931
9	0	0	2072	6	579	403	3929
10	0	0	2141	6	581	403	3929
11	0	0	2243	5	583	403	3929
12	0	0	2396	5	585	403	3928
13	0	0	2439	5	584	403	3929
14	0	0	2504	5	583	402	3930
15	0	0	2456	4	581	404	3929
16	0	0	2318	4	580	404	3929
17	0	0	2184	4	578	403	3930
18	0	0	2046	4	576	403	3930
19	0	0	1938	4	573	403	3930
20	0	0	1841	4	571	404	3930
21	0	0	1796	4	570	404	3930
22	0	0	1689	4	569	404	3931
23	0	0	1665	5	569	403	3930
24	0	0	1724	5	569	403	3929
25	0	0	1777	6	571	404	3930
26	0	0	1841	5	573	404	3930
27	0	0	1914	5	574	403	3930
28	0	0	1991	5	578	403	3930
29	0	0	2049	5	578	404	3929
30	0	0	2196	6	581	404	3929
31	0	0	2288	5	583	403	3930
32	0	0	2383	5	583	404	3929
33	0	0	2475	5	584	403	3929
34	0	0	2504	5	583	403	3930
35	0	0	2466	3	581	403	3930
36	0	0	2361	4	580	404	3930
37	0	0	2214	4	577	403	3931
38	0	0	2083	4	576	403	3930
39	0	0	1949	4	574	404	3930
40	0	0	1893	5	572	405	3929
41	0	0	1810	4	571	404	3930
42	0	0	1709	4	570	403	3930
43	0	0	1698	5	570	404	3931
44	0	0	1713	6	571	403	3939
45	0	0	1747	6	573	404	3929
46	0	0	1846	5	574	404	3931
47	0	0	1897	5	575	404	3930
48	0	0	1956	5	578	403	3929
49	0	0	2083	5	578	404	3929
50	0	0	2219	4	582	403	3929
51	0	0	2301	5	584	403	3930
52	0	0	2430	5	585	403	3930
53	0	0	2521	5	585	403	3930
54	0	0	2509	5	583	402	3931
55	0	0	2485	4	581	404	3930
56	0	0	2387	3	579	403	3931
57	0	0	2234	4	578	404	3931
58	0	0	2077	4	577	403	3929
59	0	0	1965	4	575	403	3930
60	0	0	1881	5	573	404	3930
61	0	0	1757	4	571	404	3930
62	0	0	1736	4	570	403	3930
63	0	0	1691	4	570	404	3929
64	0	0	1702	5	572	403	3929
65	0	0	1767	4	573	403	3929
66	0	0	1848	5	573	404	3929
67	0	0	1898	5	576	403	3930
68	0	0	1977	4	579	403	3931
69	0	0	2124	5	579	404	3930
70	0	0	2227	7	583	403	3930
71	0	0	2310	5	585	403	3931
72	0	0	2447	5	586	403	3930
73	0	0	2505	5	585	403	3930
74	0	0	2485	5	583	404	3930
75	0	0	2459	5	581	404	3929
76	0	0	2366	4	579	403	3941
77	0	0	2197	4	577	403	3930
78	0	0	2089	4	576	403	3929
79	0	0	1973	4	575	404	3931
80	0	0	1834	4	572	404	3929
81	0	0	1781	4	572	404	3929
82	0	0	1729	4	572	404	3931
83	0	0	1700	5	571	404	3930
84	0	0	1725	5	574	403	3930
85	0	0	1773	5	573	403	3930
86	0	0	1832	4	575	403	3931
87	0	0	1898	6	577	403	3931
88	0	0	2021	5	579	403	3930
89	0	0	2156	5	581	403	3930
90	0	0	2235	5	584	403	3930
91	0	0	2326	5	585	404	3929
92	0	0	2453	5	586	403	3926
93	0	0	2481	5	586	404	3931
94	0	0	2528	5	585	404	3929
95	0	0	2483	4	584	403	3929
96	0	0	2375	4	582	403	3930
97	0	0	2221	4	579	403	3929
98	0	0	2115	4	578	404	3929
99	0	0	1980	4	576	404	3929
100	0	0	1866	4	574	404	3929
101	0	0	1816	3	572	404	3931
102	0	0	1744	4	573	403	3931
103	0	0	1711	4	572	403	3930
104	0	0	1724	5	574	404	3931
105	0	0	1759	4	574	404	3930
106	0	0	1794	5	576	403	3930
107	0	0	1891	5	578	403	3930
108	0	0	2030	5	577	403	3930
109	0	0	2112	5	579	404	3929
110	0	0	2230	5	585	403	3929
111	0	0	2306	5	586	404	3929
112	0	0	2402	5	585	403	3929
113	0	0	2460	5	587	403	3930
114	0	0	2466	5	586	404	3929
115	0	0	2444	5	584	403	3929
116	0	0	2332	4	581	403	3929
117	0	0	2211	4	580	403	3930
118	0	0	2077	4	578	404	3930
119	0	0	1928	4	575	404	3931
120	0	0	1838	4	575	404	3931
121	0	0	1774	4	573	403	3929
122	0	0	1710	4	573	404	3931
123	0	0	1663	4	571	403	3929
124	0	0	1683	5	573	404	3931
125	0	0	1673	5	575	403	3929
126	0	0	1772	5	577	403	3929
127	0	0	1884	5	577	403	3930
0	0	0	1985	5	580	404	3929
1	0	0	2108	4	581	403	3929
2	0	0	2215	5	584	403	3929
3	0	0	2295	5	586	404	3930
4	0	0	2422	5	587	404	3929
5	0	0	2492	5	586	403	3931
6	0	0	2493	4	584	404	3930
7	0	0	2444	4	583	403	3930
8	0	0	2336	4	581	403	3930
9	0	0	2221	4	579	403	3931
10	0	0	2058	5	577	403	3930
11	0	0	1941	4	576	404	3929
12	0	0	1839	4	574	404	3928
13	0	0	1743	4	572	404	3929
14	0	0	1707	4	572	404	3930
15	0	0	1650	4	571	403	3929
16	0	0	1634	4	573	404	3930
17	0	0	1662	5	574	403	3930
18	0	0	1762	5	575	404	3929
19	0	0	1882	5	578	403	3929
20	0	0	2013	5	580	403	3929
21	0	0	2147	4	580	403	3929
22	0	0	2230	5	583	404	3929
23	0	0	2288	5	585	404	3929
24	0	0	2418	5	585	403	3930
25	0	0	2495	5	586	404	3929
26	0	0	2493	5	584	403	3930
27	0	0	2451	4	583	403	3930
28	0	0	2361	4	581	404	3934
29	0	0	2166	4	580	403	3930
30	0	0	2065	4	577	404	3931
31	0	0	1924	5	576	403	3929
32	0	0	1808	4	573	404	3929
33	0	0	1745	4	573	404	3930
34	0	0	1670	4	571	403	3930
35	0	0	1653	5	571	404	3930
36	0	0	1664	5	572	403	3929
37	0	0	1729	6	573	404	3929
38	0	0	1816	5	574	404	3930
39	0	0	1920	5	578	403	3930
40	0	0	2045	5	579	402	3930
41	0	0	2162	5	580	404	3930
42	0	0	2236	5	584	404	3930
43	0	0	2296	5	586	403	3930
44	0	0	2411	5	585	403	3926
45	0	0	2461	5	587	403	3929
46	0	0	2492	5	584	404	3930
47	0	0	2459	4	583	404	3929
48	0	0	2327	4	580	404	3929
49	0	0	2182	4	578	403	3930
50	0	0	2059	4	576	404	3929
51	0	0	1927	4	574	404	3930
52	0	0	1837	4	573	404	3930
53	0	0	1752	4	572	404	3929
54	0	0	1681	4	572	404	3930
55	0	0	1638	4	572	404	3929
56	0	0	1660	5	572	404	3931
57	0	0	1729	5	572	404	3931
58	0	0	1796	5	574	403	3931
59	0	0	1900	5	577	402	3930
60	0	0	2022	5	579	403	3931
61	0	0	2116	5	579	403	3930
62	0	0	2235	5	583	404	3930
63	0	0	2280	5	585	404	3930
64	0	0	2398	5	584	403	3930
65	0	0	2475	5	585	403	3929
66	0	0	2486	6	584	404	3929
67	0	0	2474	4	582	404	3929
68	0	0	2348	4	580	403	3930
69	0	0	2213	4	577	403	3930
70	0	0	2084	4	577	403	3929
71	0	0	1975	4	575	404	3930
72	0	0	1858	4	573	404	3930
73	0	0	1771	4	571	404	3930
74	0	0	1662	4	570	404	3930
75	0	0	1605	4	572	403	3930
76	0	0	1648	5	569	403	3933
77	0	0	1686	5	573	404	3930
78	0	0	1813	5	574	404	3930
79	0	0	1887	5	576	403	3930
80	0	0	1989	4	579	403	3931
81	0	0	2115	5	581	404	3930
82	0	0	2206	5	582	404	3929
83	0	0	2283	5	586	404	3930
84	0	0	2396	5	585	403	3929
85	0	0	2469	6	585	403	3929
86	0	0	2502	5	583	404	3929
87	0	0	2463	4	582	403	3929
88	0	0	2365	5	580	403	3930
89	0	0	2217	4	578	403	3930
90	0	0	2081	4	576	403	3930
91	0	0	1956	4	574	404	3930
92	0	0	1836	4	572	403	3929
93	0	0	1723	4	572	404	3929
94	0	0	1649	4	572	402	3930
95	0	0	1659	4	571	403	3931
96	0	0	1696	5	572	404	3929
97	0	0	1750	5	573	404	3930
98	0	0	1824	5	574	404	3931
99	0	0	1910	5	575	404	3930
100	0	0	2004	6	577	403	3929
101	0	0	2114	5	580	403	3930
102	0	0	2206	5	582	404	3930
103	0	0	2283	5	584	404	3929
104	0	0	2398	5	584	403	3930
105	0	0	2492	5	585	404	3929
106	0	0	2502	5	584	403	3930
107	0	0	2471	4	581	404	3930
108	0	0	2365	4	579	403	3930
109	0	0	2210	4	579	404	3931
110	0	0	2069	3	576	403	3931
111	0	0	1927	4	575	404	3930
112	0	0	1829	4	572	404	3930
113	0	0	1724	4	572	403	3929
114	0	0	1636	4	570	404	3930
115	0	0	1622	4	571	404	3930
116	0	0	1663	5	572	404	3931
117	0	0	1741	5	572	404	3930
118	0	0	1785	5	574	404	3929
119	0	0	1848	5	576	402	3930
120	0	0	1971	5	578	403	3929
121	0	0	2117	5	580	403	3929
122	0	0	2205	5	583	404	3929
123	0	0	2320	5	584	404	3930
124	0	0	2452	5	585	403	3930
125	0	0	2517	4	585	404	3931
126	0	0	2507	5	585	403	3930
127	0	0	2485	4	582	404	3930
0	0	0	2373	4	579	403	3929
1	0	0	2226	4	579	403	3931
2	0	0	2060	4	576	403	3930
3	0	0	1934	4	575	404	3931
4	0	0	1814	3	573	404	3931
5	0	0	1720	4	571	403	3929
6	0	0	1651	4	570	404	3930
7	0	0	1618	4	571	403	3929
8	0	0	1662	5	572	403	3929
9	0	0	1727	5	573	404	3929
10	0	0	1808	5	574	404	3930
11	0	0	1900	5	575	403	3930
12	0	0	1999	5	577	403	3930
13	0	0	2129	4	581	403	3930
14	0	0	2214	6	584	404	3930
15	0	0	2293	4	585	403	3931
16	0	0	2429	5	586	404	3930
17	0	0	2483	4	585	404	3931
18	0	0	2495	5	585	404	3930
19	0	0	2464	4	581	404	3930
20	0	0	2369	4	580	403	3931
21	0	0	2212	4	579	403	3930
22	0	0	2059	3	577	404	3931
23	0	0	1917	4	574	403	3929
24	0	0	1786	5	572	404	3929
25	0	0	1730	4	571	403	3929
26	0	0	1657	4	572	404	3930
27	0	0	1633	4	572	403	3929
28	0	0	1664	4	571	404	3931
29	0	0	1731	4	572	404	3930
30	0	0	1744	5	574	404	3930
31	0	0	1839	5	576	404	3930
32	0	0	1985	5	578	403	3930
33	0	0	2118	5	573	403	3930
34	0	0	2225	5	582	404	3930
35	0	0	2343	5	584	404	3931
36	0	0	2452	5	585	403	3930
37	0	0	2510	5	584	404	3929
38	0	0	2511	5	584	404	3931
39	0	0	2487	4	582	404	3930
40	0	0	2379	5	580	404	3930
41	0	0	2209	4	578	403	3930
42	0	0	2067	4	577	403	3929
43	0	0	1903	4	574	404	3929
44	0	0	1802	4	572	404	3930
45	0	0	1729	3	571	404	3931
46	0	0	1654	4	572	404	3931
47	0	0	1632	4	570	403	3930
48	0	0	1670	5	571	403	3931
49	0	0	1728	6	573	404	3931
50	0	0	1786	5	573	404	3931
51	0	0	1884	5	576	403	3931
52	0	0	2003	4	578	404	3931
53	0	0	2119	5	580	403	3929
54	0	0	2217	5	583	404	3929
55	0	0	2296	5	583	404	3930
56	0	0	2418	5	584	403	3930
57	0	0	2500	5	585	403	3929
58	0	0	2518	5	584	403	3930
59	0	0	2500	4	582	403	3930
60	0	0	2375	5	581	403	3930
61	0	0	2216	4	578	403	3930
62	0	0	2041	3	577	403	3930
63	0	0	1900	4	574	403	3930
64	0	0	1804	4	573	404	3930
65	0	0	1734	4	572	404	3931
66	0	0	1669	4	571	403	3930
67	0	0	1639	5	571	403	3930
68	0	0	1678	5	572	403	3931
69	0	0	1686	4	572	404	3931
70	0	0	1731	5	574	404	3930
71	0	0	1859	5	576	403	3930
72	0	0	1984	4	579	403	3931
73	0	0	2103	5	579	403	3929
74	0	0	2253	5	583	404	3929
75	0	0	2333	6	584	404	3930
76	0	0	2464	5	585	404	3929
77	0	0	2538	5	584	403	3929
78	0	0	2539	5	584	403	3930
79	0	0	2483	4	582	404	3931
80	0	0	2360	4	581	404	3931
81	0	0	2196	4	578	403	3930
82	0	0	2033	4	576	403	3930
83	0	0	1905	4	575	404	3930
84	0	0	1797	5	573	404	3930
85	0	0	1726	5	572	404	3930
86	0	0	1665	4	570	404	3931
87	0	0	1660	5	572	404	3929
88	0	0	1672	5	571	403	3929
89	0	0	1713	5	572	404	3930
90	0	0	1780	5	574	404	3929
91	0	0	1875	5	576	403	3930
92	0	0	2009	4	579	403	3929
93	0	0	2132	6	580	403	3929
94	0	0	2214	5	581	403	3930
95	0	0	2276	4	585	403	3930
96	0	0	2426	5	585	404	3930
97	0	0	2536	4	586	404	3930
98	0	0	2534	5	585	404	3930
99	0	0	2488	5	583	404	3930
100	0	0	2352	5	579	403	3930
101	0	0	2168	4	579	404	3931
102	0	0	2046	4	576	403	3929
103	0	0	1916	4	574	404	3931
104	0	0	1811	4	573	404	3930
105	0	0	1723	3	572	404	3930
106	0	0	1661	4	571	403	3930
107	0	0	1654	4	571	403	3929
108	0	0	1665	5	572	403	3929
109	0	0	1668	5	571	403	3929
110	0	0	1718	6	574	404	3929
111	0	0	1850	5	576	404	3930
112	0	0	2018	5	577	403	3929
113	0	0	2149	5	579	403	3930
114	0	0	2270	5	581	404	3930
115	0	0	2325	5	585	404	3931
116	0	0	2448	5	584	403	3930
117	0	0	2545	5	584	403	3929
118	0	0	2538	5	583	404	3930
119	0	0	2497	4	581	403	3931
120	0	0	2327	3	581	403	3929
121	0	0	2160	4	579	403	3931
122	0	0	2048	4	576	403	3929
123	0	0	1937	4	574	404	3930
124	0	0	1831	4	573	403	3930
125	0	0	1735	4	571	403	3929
126	0	0	1660	3	569	403	3929
127	0	0	1626	4	570	404	3931
0	0	0	1663	5	571	403	3929
1	0	0	1714	5	571	405	3930
2	0	0	1775	4	574	404	3930
3	0	0	1878	5	577	403	3931
4	0	0	2023	5	577	403	3930
5	0	0	2154	5	579	404	3930
6	0	0	2234	6	582	403	3929
7	0	0	2301	4	584	404	3930
8	0	0	2430	5	584	404	3931
9	0	0	2512	5	585	403	3929
10	0	0	2528	5	585	404	3930
11	0	0	2468	4	582	403	3930
12	0	0	2324	4	580	403	3929
13	0	0	2161	4	578	404	3929
14	0	0	2038	4	576	403	3929
15	0	0	1941	4	575	404	3930
16	0	0	1826	4	572	404	3930
17	0	0	1749	4	572	404	3931
18	0	0	1638	4	570	404	3930
19	0	0	1618	5	571	403	3930
20	0	0	1638	4	571	404	3930
21	0	0	1648	5	573	403	3930
22	0	0	1749	5	573	404	3930
23	0	0	1862	5	576	403	3931
24	0	0	1991	5	578	403	3929
25	0	0	2184	5	579	403	3929
26	0	0	2278	5	581	403	3929
27	0	0	2352	5	584	403	3930
28	0	0	2445	5	584	403	3929
29	0	0	2520	4	586	403	3930
30	0	0	2532	5	584	403	3929
31	0	0	2460	4	583	403	3929
32	0	0	2341	4	580	404	3931
33	0	0	2165	4	577	404	3930
34	0	0	2041	4	576	403	3930
35	0	0	1932	4	573	404	3930
36	0	0	1828	4	573	403	3930
37	0	0	1739	3	571	404	3931
38	0	0	1624	4	570	404	3930
39	0	0	1604	5	571	403	3929
40	0	0	1642	5	570	403	3930
41	0	0	1703	6	572	403	3929
42	0	0	1789	4	573	404	3930
43	0	0	1879	5	576	403	3929
44	0	0	1989	5	579	403	3930
45	0	0	2128	5	579	404	3929
46	0	0	2234	5	583	403	3929
47	0	0	2318	5	585	403	3930
48	0	0	2434	5	584	403	3929
49	0	0	2513	5	586	403	3929
50	0	0	2509	5	584	404	3930
51	0	0	2467	4	583	403	3930
52	0	0	2348	3	580	403	3930
53	0	0	2189	4	578	404	3931
54	0	0	2043	3	575	404	3930
55	0	0	1935	4	573	404	3929
56	0	0	1835	4	573	404	3930
57	0	0	1737	4	572	404	3930
58	0	0	1651	4	571	403	3929
59	0	0	1601	4	571	403	3929
60	0	0	1598	5	572	404	3929
61	0	0	1653	5	572	403	3930
62	0	0	1752	4	574	403	3930
63	0	0	1864	4	575	403	3929
64	0	0	1973	5	577	403	3929
65	0	0	2131	4	580	403	3929
66	0	0	2255	5	583	403	3930
67	0	0	2333	4	584	403	3930
68	0	0	2465	5	585	403	3930
69	0	0	2502	5	584	404	3931
70	0	0	2499	5	586	403	3930
71	0	0	2478	4	581	404	3930
72	0	0	2367	4	580	403	3931
73	0	0	2204	4	579	403	3928
74	0	0	2011	4	577	403	3929
75	0	0	1922	4	574	404	3931
76	0	0	1858	4	572	404	3930
77	0	0	1772	4	572	404	3930
78	0	0	1675	4	570	403	3929
79	0	0	1602	5	571	403	3929
80	0	0	1633	5	571	403	3929
81	0	0	1716	5	571	404	3929
82	0	0	1802	4	573	404	3929
83	0	0	1895	5	575	404	3930
84	0	0	1998	5	578	403	3930
85	0	0	2135	4	579	403	3930
86	0	0	2246	5	583	403	3930
87	0	0	2330	4	583	404	3930
88	0	0	2450	5	584	403	3930
89	0	0	2482	5	585	404	3931
90	0	0	2475	5	585	404	3931
91	0	0	2455	4	582	403	3929
92	0	0	2362	3	579	403	3930
93	0	0	2204	4	578	403	3930
94	0	0	2048	5	576	404	3929
95	0	0	1910	4	574	403	3930
96	0	0	1805	3	573	404	3930
97	0	0	1734	4	571	404	3929
98	0	0	1641	3	570	403	3930
99	0	0	1582	4	570	404	3928
100	0	0	1550	5	571	403	3927
101	0	0	1656	5	572	404	3924
102	0	0	1774	5	574	403	3921
103	0	0	1886	5	576	403	3919
104	0	0	2032	5	578	403	3914
105	0	0	2166	5	579	403	3910
106	0	0	2263	5	583	404	3906
107	0	0	2342	4	585	403	3901
108	0	0	2447	5	585	403	3897
109	0	0	2492	5	586	404	3892
110	0	0	2473	5	583	404	3887
111	0	0	2472	4	583	403	3882
112	0	0	2371	4	581	404	3877
113	0	0	2215	4	577	403	3871
114	0	0	2059	4	576	404	3866
115	0	0	1898	4	575	403	3860
116	0	0	1804	4	572	404	3854
117	0	0	1730	3	572	403	3848
118	0	0	1648	4	570	403	3842
119	0	0	1599	4	570	404	3836
120	0	0	1618	5	571	403	3829
121	0	0	1692	5	571	404	3823
122	0	0	1778	4	575	404	3817
123	0	0	1893	5	575	403	3811
124	0	0	2018	5	578	403	3805
125	0	0	2115	5	579	403	3799
126	0	0	2227	5	583	404	3794
127	0	0	2307	3	584	404	3786
0	0	0	2425	4	585	404	3781
1	0	0	2495	5	585	404	3776
2	0	0	2486	5	585	403	3770
3	0	0	2463	4	581	404	3764
4	0	0	2355	4	581	404	3759
5	0	0	2218	4	579	403	3753
6	0	0	2060	4	575	404	3747
7	0	0	1916	4	575	403	3739
8	0	0	1814	4	572	403	3732
9	0	0	1739	3	570	403	3727
10	0	0	1641	4	571	403	3721
11	0	0	1567	4	570	403	3715
12	0	0	1560	5	570	403	3710
13	0	0	1647	4	572	403	3705
14	0	0	1797	4	573	404	3701
15	0	0	1912	4	576	403	3697
16	0	0	2066	6	577	403	3692
17	0	0	2167	5	579	403	3688
18	0	0	2235	5	582	404	3683
19	0	0	2299	3	584	404	3679
20	0	0	2430	3	585	403	3674
21	0	0	2518	6	585	404	3669
22	0	0	2505	5	584	404	3664
23	0	0	2463	4	583	404	3659
24	0	0	2382	3	581	403	3654
25	0	0	2210	4	578	403	3649
26	0	0	2048	4	576	403	3645
27	0	0	1911	4	575	403	3640
28	0	0	1788	4	573	404	3636
29	0	0	1717	4	571	404	3633
30	0	0	1642	4	569	403	3630
31	0	0	1623	4	570	404	3628
32	0	0	1625	5	571	404	3624
33	0	0	1693	5	572	404	3622
34	0	0	1813	5	574	404	3620
35	0	0	1907	5	577	404	3616
36	0	0	2025	5	576	403	3614
37	0	0	2134	5	580	403	3612
38	0	0	2191	4	583	403	3607
39	0	0	2278	4	583	404	3603
40	0	0	2427	5	585	404	3599
41	0	0	2532	5	584	403	3595
42	0	0	2520	4	584	403	3592
43	0	0	2484	4	581	404	3589
44	0	0	2362	3	580	403	3588
45	0	0	2185	4	578	403	3585
46	0	0	2052	4	575	404	3584
47	0	0	1913	4	575	403	3580
48	0	0	1783	4	573	404	3578
49	0	0	1712	4	571	404	3577
50	0	0	1652	4	571	404	3575
51	0	0	1554	4	571	404	3575
52	0	0	1598	5	573	403	3573
53	0	0	1694	5	574	404	3572
54	0	0	1793	4	573	404	3571
55	0	0	1928	5	576	403	3567
56	0	0	2077	5	577	403	3564
57	0	0	2170	5	579	403	3561
58	0	0	2223	5	581	403	3558
59	0	0	2305	4	584	404	3556
60	0	0	2463	5	585	403	3554
61	0	0	2538	5	585	404	3553
62	0	0	2535	5	584	403	3552
63	0	0	2483	4	583	404	3552
64	0	0	2341	4	580	403	3551
65	0	0	2211	4	579	404	3551
66	0	0	2072	4	576	403	3549
67	0	0	1933	4	575	403	3550
68	0	0	1798	4	573	404	3549
69	0	0	1720	4	569	404	3547
70	0	0	1646	4	570	403	3548
71	0	0	1614	5	569	403	3545
72	0	0	1665	5	570	403	3543
73	0	0	1711	5	571	403	3540
74	0	0	1780	4	573	403	3539
75	0	0	1901	5	575	404	3537
76	0	0	2020	5	578	403	3535
77	0	0	2133	5	580	403	3534
78	0	0	2216	5	581	403	3532
79	0	0	2295	5	584	404	3532
80	0	0	2441	4	584	404	3531
81	0	0	2521	5	584	404	3531
82	0	0	2537	5	584	403	3533
83	0	0	2467	4	582	404	3533
84	0	0	2342	4	580	403	3533
85	0	0	2207	4	577	404	3534
86	0	0	2059	4	575	403	3533
87	0	0	1934	4	574	404	3533
88	0	0	1814	4	572	403	3530
89	0	0	1720	4	570	404	3527
90	0	0	1594	4	571	404	3525
91	0	0	1571	5	571	404	3524
92	0	0	1642	4	572	403	3522
93	0	0	1709	5	575	404	3523
94	0	0	1788	5	575	404	3522
95	0	0	1942	5	576	403	3522
96	0	0	2043	5	578	403	3521
97	0	0	2159	5	580	403	3521
98	0	0	2253	5	583	403	3520
99	0	0	2310	4	584	403	3520
100	0	0	2436	5	584	404	3520
101	0	0	2530	5	585	404	3521
102	0	0	2523	5	584	403	3522
103	0	0	2483	4	583	404	3523
104	0	0	2367	4	581	403	3523
105	0	0	2206	4	579	404	3521
106	0	0	2051	4	577	403	3518
107	0	0	1918	4	575	403	3516
108	0	0	1812	4	573	403	3514
109	0	0	1703	4	571	404	3514
110	0	0	1636	4	571	403	3512
111	0	0	1636	5	570	404	3513
112	0	0	1667	5	572	403	3512
113	0	0	1732	5	572	404	3512
114	0	0	1787	5	573	404	3514
115	0	0	1857	5	575	404	3514
116	0	0	1983	5	577	403	3514
117	0	0	2128	5	580	403	3515
118	0	0	2247	5	583	403	3515
119	0	0	2301	5	583	403	3515
120	0	0	2435	5	585	403	3515
121	0	0	2516	5	585	404	3516
122	0	0	2516	5	584	404	3513
123	0	0	2507	4	583	403	3512
124	0	0	2373	4	581	403	3511
125	0	0	2205	4	579	403	3509
126	0	0	2051	4	576	403	3508
127	0	0	1917	4	575	403	3507
0	0	0	1815	4	571	403	3507
1	0	0	1719	4	570	404	3507
2	0	0	1598	4	570	403	3507
3	0	0	1593	5	571	403	3507
4	0	0	1652	5	571	404	3508
5	0	0	1729	5	572	403	3510
6	0	0	1803	5	574	404	3511
7	0	0	1907	5	575	404	3512
8	0	0	2028	5	578	403	3512
9	0	0	2150	5	579	404	3512
10	0	0	2238	5	582	403	3511
11	0	0	2305	5	585	403	3508
12	0	0	2428	5	585	404	3507
13	0	0	2504	5	585	404	3504
14	0	0	2516	5	584	403	3504
15	0	0	2504	4	583	403	3504
16	0	0	2381	4	581	403	3504
17	0	0	2204	5	578	403	3504
18	0	0	2042	4	576	403	3504
19	0	0	1913	4	573	404	3504
20	0	0	1816	4	573	404	3504
21	0	0	1744	3	571	404	3505
22	0	0	1661	4	570	403	3505
23	0	0	1640	5	572	404	3507
24	0	0	1677	5	571	405	3508
25	0	0	1723	5	573	403	3509
26	0	0	1804	5	574	404	3510
27	0	0	1865	5	575	403	3507
28	0	0	1985	5	577	403	3505
29	0	0	2124	5	579	403	3504
30	0	0	2229	5	583	403	3502
31	0	0	2313	5	583	404	3501
32	0	0	2419	5	585	403	3500
33	0	0	2500	5	584	403	3500
34	0	0	2508	5	585	403	3501
35	0	0	2486	4	583	403	3502
36	0	0	2368	4	580	404	3503
37	0	0	2180	4	579	403	3504
38	0	0	2026	4	575	403	3504
39	0	0	1898	5	574	404	3504
40	0	0	1795	4	574	403	3504
41	0	0	1703	4	570	404	3505
42	0	0	1598	5	570	403	3506
43	0	0	1593	4	571	404	3505
44	0	0	1639	5	570	403	3504
45	0	0	1697	5	572	403	3502
