# bioPlux Text File Format
# Version: 1
# StartDateTime: 2011-07-18 12:51:00
# SamplingFrequency: 1000
# SampledChannels: 1 2 3 4 5
# SamplingResolution: 12
# AcquiringDevice: 00:07:80:42:0F:95
# EndOfHeader
0	0	0	1657	4	191	4095	3929
1	0	0	1472	3	189	4095	3928
2	0	0	1349	4	188	4095	3929
3	0	0	1302	5	186	4095	3929
4	0	0	1350	5	184	4095	3929
5	0	0	1459	5	183	4095	3928
6	0	0	1589	5	180	4095	3928
7	0	0	1721	5	179	4095	3928
8	0	0	1873	5	179	4095	3929
9	0	0	2031	5	177	4095	3928
10	0	0	2190	5	177	4095	3928
11	0	0	2325	4	177	4095	3928
12	0	0	2414	4	178	4095	3928
13	0	0	2452	5	180	4095	3929
14	0	0	2436	4	181	4095	3928
15	0	0	2374	4	183	4095	3929
16	0	0	2275	3	184	4095	3929
17	0	0	2144	3	186	4095	3929
18	0	0	2001	4	187	4095	3929
19	0	0	1848	4	190	4095	3929
20	0	0	1677	4	191	4095	3929
21	0	0	1515	3	189	4095	3928
22	0	0	1410	4	189	4095	3928
23	0	0	1351	4	187	4095	3929
24	0	0	1351	5	184	4095	3928
25	0	0	1438	5	181	4095	3929
26	0	0	1585	5	181	4095	3929
27	0	0	1763	5	179	4095	3928
28	0	0	1949	5	179	4095	3929
29	0	0	2097	5	178	4095	3930
30	0	0	2233	5	176	4095	3928
31	0	0	2359	6	178	4095	3929
32	0	0	2456	4	178	4095	3929
33	0	0	2505	5	180	4095	3929
34	0	0	2476	4	182	4095	3929
35	0	0	2389	4	184	4095	3929
36	0	0	2285	3	185	4095	3929
37	0	0	2161	3	187	4095	3929
38	0	0	2034	4	187	4095	3930
39	0	0	1897	4	190	4095	3928
40	0	0	1716	4	189	4095	3930
41	0	0	1551	4	189	4095	3929
42	0	0	1451	4	188	4095	3929
43	0	0	1435	6	187	4095	3929
44	0	0	1505	5	184	4095	3930
45	0	0	1624	6	182	4095	3928
46	0	0	1748	5	181	4095	3929
47	0	0	1875	5	179	4095	3929
48	0	0	2024	5	178	4095	3929
49	0	0	2176	5	177	4095	3929
50	0	0	2315	4	176	4095	3929
51	0	0	2429	5	177	4095	3929
52	0	0	2482	4	178	4095	3929
53	0	0	2481	5	180	4095	3930
54	0	0	2427	4	181	4095	3929
55	0	0	2344	4	183	4095	3929
56	0	0	2232	4	185	4095	3929
57	0	0	2099	4	186	4095	3930
58	0	0	1965	4	187	4095	3929
59	0	0	1849	4	189	4095	3928
60	0	0	1693	4	189	4095	3928
61	0	0	1542	4	189	4095	3928
62	0	0	1461	4	189	4095	3928
63	0	0	1458	6	187	4095	3929
64	0	0	1510	6	185	4095	3928
65	0	0	1606	5	182	4095	3930
66	0	0	1729	5	181	4095	3929
67	0	0	1866	5	180	4095	3929
68	0	0	2021	5	178	4095	3929
69	0	0	2183	5	177	4095	3930
70	0	0	2351	4	176	4095	3929
71	0	0	2510	5	178	4095	3929
72	0	0	2596	5	178	4095	3928
73	0	0	2601	5	179	4095	3929
74	0	0	2561	4	181	4095	3928
75	0	0	2485	4	183	4095	3928
76	0	0	2366	4	185	4095	3928
77	0	0	2238	4	186	4095	3928
78	0	0	2119	4	187	4095	3929
79	0	0	1989	4	189	4095	3928
80	0	0	1825	3	191	4095	3928
81	0	0	1655	5	189	4095	3928
82	0	0	1523	4	190	4095	3929
83	0	0	1482	5	187	4095	3930
84	0	0	1524	6	184	4095	3929
85	0	0	1626	5	183	4095	3930
86	0	0	1783	5	182	4095	3930
87	0	0	1945	5	180	4095	3929
88	0	0	2091	5	179	4095	3929
89	0	0	2208	5	177	4095	3930
90	0	0	2343	5	177	4095	3928
91	0	0	2473	5	179	4095	3928
92	0	0	2537	4	179	4095	3928
93	0	0	2576	5	180	4095	3929
94	0	0	2586	5	182	4095	3928
95	0	0	2537	4	182	4095	3930
96	0	0	2435	4	185	4095	3929
97	0	0	2301	4	186	4095	3928
98	0	0	2144	4	187	4095	3929
99	0	0	1987	4	190	4095	3929
100	0	0	1819	4	191	4095	3929
101	0	0	1683	5	188	4095	3930
102	0	0	1598	4	189	4095	3929
103	0	0	1546	4	186	4095	3929
104	0	0	1550	5	183	4095	3929
105	0	0	1653	5	184	4095	3929
106	0	0	1798	6	181	4095	3929
107	0	0	1940	5	180	4095	3929
108	0	0	2100	5	179	4095	3929
109	0	0	2254	5	177	4095	3928
110	0	0	2405	5	177	4095	3929
111	0	0	2529	5	178	4095	3928
112	0	0	2594	5	178	4095	3930
113	0	0	2612	4	180	4095	3929
114	0	0	2602	5	181	4095	3929
115	0	0	2545	4	182	4095	3928
116	0	0	2443	3	185	4095	3930
117	0	0	2309	4	186	4095	3929
118	0	0	2179	4	187	4095	3929
119	0	0	2032	4	189	4095	3929
120	0	0	1864	4	190	4095	3930
121	0	0	1718	4	190	4095	3930
122	0	0	1605	4	189	4095	3929
123	0	0	1546	3	187	4095	3929
124	0	0	1586	6	184	4095	3930
125	0	0	1711	5	181	4095	3930
126	0	0	1858	6	181	4095	3929
127	0	0	1999	5	181	4095	3929
0	0	0	2131	5	178	4095	3929
1	0	0	2254	5	177	4095	3928
2	0	0	2380	5	176	4095	3929
3	0	0	2501	5	178	4095	3929
4	0	0	2575	5	178	4095	3929
5	0	0	2602	5	179	4095	3929
6	0	0	2572	3	181	4095	3929
7	0	0	2485	4	183	4095	3929
8	0	0	2371	3	185	4095	3930
9	0	0	2233	4	185	4095	3929
10	0	0	2084	4	187	4095	3930
11	0	0	1917	4	189	4095	3928
12	0	0	1752	4	190	4095	3929
13	0	0	1616	4	190	4095	3929
14	0	0	1532	6	189	4095	3928
15	0	0	1528	6	186	4095	3929
16	0	0	1583	6	185	4095	3928
17	0	0	1688	6	182	4095	3930
18	0	0	1811	5	181	4095	3930
19	0	0	1953	5	180	4095	3929
20	0	0	2095	5	179	4095	3930
21	0	0	2230	5	178	4095	3929
22	0	0	2346	5	176	4095	3929
23	0	0	2452	5	177	4095	3929
24	0	0	2537	5	178	4095	3929
25	0	0	2579	5	179	4095	3929
26	0	0	2547	3	181	4095	3929
27	0	0	2464	4	182	4095	3930
28	0	0	2353	4	185	4095	3929
29	0	0	2215	4	186	4095	3929
30	0	0	2072	4	188	4095	3929
31	0	0	1925	4	189	4095	3928
32	0	0	1751	4	191	4095	3928
33	0	0	1606	5	190	4095	3929
34	0	0	1508	4	189	4095	3930
35	0	0	1448	4	187	4095	3929
36	0	0	1465	5	184	4095	3930
37	0	0	1574	5	182	4095	3929
38	0	0	1719	6	180	4095	3929
39	0	0	1874	5	180	4095	3930
40	0	0	2016	5	179	4095	3930
41	0	0	2158	6	177	4095	3929
42	0	0	2306	5	177	4095	3929
43	0	0	2429	5	177	4095	3929
44	0	0	2489	5	179	4095	3929
45	0	0	2484	4	180	4095	3929
46	0	0	2433	3	181	4095	3928
47	0	0	2357	4	182	4095	3929
48	0	0	2258	4	185	4095	3929
49	0	0	2138	4	186	4095	3928
50	0	0	2017	4	187	4095	3929
51	0	0	1866	3	189	4095	3929
52	0	0	1693	4	190	4095	3928
53	0	0	1533	4	190	4095	3929
54	0	0	1426	4	188	4095	3930
55	0	0	1409	6	186	4095	3929
56	0	0	1467	5	184	4095	3930
57	0	0	1571	5	182	4095	3929
58	0	0	1685	5	180	4095	3929
59	0	0	1825	5	180	4095	3929
60	0	0	1985	5	178	4095	3929
61	0	0	2140	4	177	4095	3928
62	0	0	2288	5	177	4095	3928
63	0	0	2413	6	177	4095	3929
64	0	0	2480	4	178	4095	3929
65	0	0	2498	4	179	4095	3929
66	0	0	2474	4	181	4095	3928
67	0	0	2407	4	183	4095	3929
68	0	0	2301	4	185	4095	3929
69	0	0	2164	4	187	4095	3929
70	0	0	2015	4	187	4095	3930
71	0	0	1871	4	189	4095	3929
72	0	0	1696	4	190	4095	3930
73	0	0	1538	4	189	4095	3929
74	0	0	1428	4	189	4095	3928
75	0	0	1375	4	187	4095	3929
76	0	0	1400	5	185	4095	3930
77	0	0	1501	6	181	4095	3929
78	0	0	1652	5	181	4095	3929
79	0	0	1801	5	179	4095	3928
80	0	0	1927	5	178	4095	3929
81	0	0	2071	4	178	4095	3928
82	0	0	2236	5	176	4095	3928
83	0	0	2368	5	177	4095	3929
84	0	0	2432	4	178	4095	3928
85	0	0	2444	5	180	4095	3929
86	0	0	2402	4	181	4095	3928
87	0	0	2362	4	186	4095	3929
88	0	0	2294	5	185	4095	3929
89	0	0	2171	3	186	4095	3928
90	0	0	2035	4	187	4095	3930
91	0	0	1894	4	189	4095	3929
92	0	0	1717	4	191	4095	3930
93	0	0	1541	4	190	4095	3930
94	0	0	1399	4	189	4095	3928
95	0	0	1324	4	186	4095	3929
96	0	0	1342	6	184	4095	3928
97	0	0	1435	6	183	4095	3928
98	0	0	1575	5	181	4095	3929
99	0	0	1739	5	180	4095	3929
100	0	0	1904	5	178	4095	3929
101	0	0	2065	5	177	4095	3928
102	0	0	2220	5	177	4095	3930
103	0	0	2360	5	178	4095	3929
104	0	0	2451	5	178	4095	3929
105	0	0	2499	4	180	4095	3929
106	0	0	2478	4	182	4095	3929
107	0	0	2389	4	184	4095	3929
108	0	0	2257	4	184	4095	3929
109	0	0	2110	3	187	4095	3929
110	0	0	1969	4	188	4095	3929
111	0	0	1847	3	190	4095	3930
112	0	0	1687	4	189	4095	3928
113	0	0	1515	4	189	4095	3929
114	0	0	1379	4	188	4095	3930
115	0	0	1338	5	188	4095	3929
116	0	0	1402	6	184	4095	3928
117	0	0	1511	5	182	4095	3928
118	0	0	1639	5	181	4095	3929
119	0	0	1789	5	181	4095	3928
120	0	0	1960	5	179	4095	3929
121	0	0	2126	5	177	4095	3928
122	0	0	2266	6	177	4095	3929
123	0	0	2371	6	178	4095	3929
124	0	0	2422	5	178	4095	3929
125	0	0	2451	5	180	4095	3929
126	0	0	2452	5	180	4095	3929
127	0	0	2394	4	183	4095	3930
0	0	0	2282	3	184	4095	3930
1	0	0	2117	5	186	4095	3929
2	0	0	1920	4	188	4095	3929
3	0	0	1750	4	189	4095	3928
4	0	0	1593	3	190	4095	3930
5	0	0	1470	4	189	4095	3929
6	0	0	1422	4	188	4095	3930
7	0	0	1423	6	186	4095	3929
8	0	0	1467	5	184	4095	3928
9	0	0	1554	6	183	4095	3928
10	0	0	1665	7	181	4095	3929
11	0	0	1805	6	180	4095	3929
12	0	0	1964	5	179	4095	3929
13	0	0	2114	5	177	4095	3929
14	0	0	2267	5	177	4095	3930
15	0	0	2416	5	177	4095	3930
16	0	0	2503	4	178	4095	3928
17	0	0	2518	4	180	4095	3929
18	0	0	2475	3	182	4095	3930
19	0	0	2396	4	183	4095	3928
20	0	0	2272	4	185	4095	3928
21	0	0	2112	5	187	4095	3929
22	0	0	1949	4	187	4095	3929
23	0	0	1798	3	190	4095	3929
24	0	0	1643	4	190	4095	3928
25	0	0	1531	5	190	4095	3929
26	0	0	1459	4	189	4095	3929
27	0	0	1415	4	186	4095	3929
28	0	0	1421	6	184	4095	3929
29	0	0	1477	5	183	4095	3930
30	0	0	1605	5	181	4095	3930
31	0	0	1784	6	180	4095	3929
32	0	0	1955	5	179	4095	3930
33	0	0	2130	5	177	4095	3928
34	0	0	2292	5	177	4095	3929
35	0	0	2409	5	177	4095	3928
36	0	0	2469	5	178	4095	3928
37	0	0	2494	5	180	4095	3929
38	0	0	2479	4	181	4095	3928
39	0	0	2437	5	183	4095	3928
40	0	0	2364	4	183	4095	3929
41	0	0	2227	4	186	4095	3930
42	0	0	2052	4	187	4095	3929
43	0	0	1889	3	189	4095	3930
44	0	0	1729	4	191	4095	3929
45	0	0	1554	5	189	4095	3929
46	0	0	1422	5	188	4095	3929
47	0	0	1381	5	187	4095	3929
48	0	0	1419	5	184	4095	3929
49	0	0	1517	6	182	4095	3929
50	0	0	1646	5	180	4095	3929
51	0	0	1802	6	180	4095	3928
52	0	0	1977	5	178	4095	3929
53	0	0	2139	5	177	4095	3928
54	0	0	2285	6	177	4095	3928
55	0	0	2395	5	177	4095	3929
56	0	0	2456	4	178	4095	3930
57	0	0	2483	5	179	4095	3929
58	0	0	2481	4	182	4095	3930
59	0	0	2407	3	184	4095	3928
60	0	0	2293	4	184	4095	3929
61	0	0	2164	4	186	4095	3929
62	0	0	2031	4	187	4095	3929
63	0	0	1900	4	189	4095	3929
64	0	0	1737	4	190	4095	3929
65	0	0	1574	4	190	4095	3929
66	0	0	1459	4	189	4095	3929
67	0	0	1421	4	187	4095	3930
68	0	0	1459	5	184	4095	3928
69	0	0	1528	5	183	4095	3929
70	0	0	1641	5	181	4095	3930
71	0	0	1790	5	180	4095	3929
72	0	0	1957	5	179	4095	3929
73	0	0	2127	6	177	4095	3928
74	0	0	2311	6	177	4095	3928
75	0	0	2454	4	177	4095	3928
76	0	0	2525	4	179	4095	3929
77	0	0	2548	5	179	4095	3929
78	0	0	2535	4	182	4095	3929
79	0	0	2456	5	183	4095	3929
80	0	0	2327	4	184	4095	3929
81	0	0	2204	3	186	4095	3929
82	0	0	2082	4	187	4095	3930
83	0	0	1922	4	191	4095	3928
84	0	0	1715	4	190	4095	3929
85	0	0	1530	4	189	4095	3930
86	0	0	1410	4	189	4095	3929
87	0	0	1369	5	186	4095	3929
88	0	0	1442	5	185	4095	3929
89	0	0	1574	5	183	4095	3928
90	0	0	1725	5	179	4095	3928
91	0	0	1883	5	179	4095	3929
92	0	0	2030	5	178	4095	3929
93	0	0	2166	5	177	4095	3928
94	0	0	2293	5	177	4095	3929
95	0	0	2416	5	178	4095	3929
96	0	0	2496	4	178	4095	3929
97	0	0	2537	4	180	4095	3930
98	0	0	2533	4	181	4095	3928
99	0	0	2451	4	183	4095	3928
100	0	0	2317	4	183	4095	3929
101	0	0	2171	4	187	4095	3930
102	0	0	2044	4	188	4095	3929
103	0	0	1928	4	190	4095	3929
104	0	0	1777	4	190	4095	3928
105	0	0	1605	4	190	4095	3928
106	0	0	1457	4	190	4095	3929
107	0	0	1377	4	187	4095	3929
108	0	0	1378	5	185	4095	3929
109	0	0	1452	6	183	4095	3929
110	0	0	1585	5	181	4095	3929
111	0	0	1773	5	180	4095	3929
112	0	0	1983	5	178	4095	3929
113	0	0	2167	5	177	4095	3929
114	0	0	2331	5	177	4095	3930
115	0	0	2456	4	178	4095	3930
116	0	0	2514	4	179	4095	3929
117	0	0	2529	5	181	4095	3929
118	0	0	2520	4	181	4095	3930
119	0	0	2468	4	184	4095	3927
120	0	0	2374	5	185	4095	3929
121	0	0	2223	4	187	4095	3929
122	0	0	2041	4	187	4095	3929
123	0	0	1873	4	189	4095	3930
124	0	0	1700	4	191	4095	3928
125	0	0	1547	4	188	4095	3929
126	0	0	1453	4	189	4095	3929
127	0	0	1430	5	187	4095	3930
0	0	0	1477	6	184	4095	3929
1	0	0	1570	6	182	4095	3930
2	0	0	1695	5	181	4095	3929
3	0	0	1851	4	180	4095	3929
4	0	0	2008	5	180	4095	3929
5	0	0	2144	5	176	4095	3928
6	0	0	2293	4	177	4095	3928
7	0	0	2434	4	177	4095	3928
8	0	0	2509	4	178	4095	3929
9	0	0	2505	4	179	4095	3929
10	0	0	2455	4	181	4095	3928
11	0	0	2398	4	183	4095	3928
12	0	0	2313	4	185	4095	3929
13	0	0	2201	4	187	4095	3930
14	0	0	2064	4	187	4095	3929
15	0	0	1911	4	189	4095	3929
16	0	0	1722	4	190	4095	3929
17	0	0	1543	4	190	4095	3929
18	0	0	1424	4	189	4095	3930
19	0	0	1368	4	187	4095	3929
20	0	0	1400	5	185	4095	3930
21	0	0	1526	6	184	4095	3929
22	0	0	1676	5	181	4095	3929
23	0	0	1827	5	180	4095	3930
24	0	0	1979	5	179	4095	3928
25	0	0	2128	5	177	4095	3930
26	0	0	2289	5	178	4095	3929
27	0	0	2446	4	178	4095	3928
28	0	0	2540	4	178	4095	3929
29	0	0	2545	4	180	4095	3929
30	0	0	2511	4	181	4095	3928
31	0	0	2454	4	183	4095	3928
32	0	0	2353	4	185	4095	3929
33	0	0	2225	4	186	4095	3930
34	0	0	2075	4	187	4095	3929
35	0	0	1902	4	190	4095	3929
36	0	0	1721	3	191	4095	3928
37	0	0	1565	5	189	4095	3929
38	0	0	1462	4	189	4095	3929
39	0	0	1424	5	186	4095	3929
40	0	0	1467	6	185	4095	3928
41	0	0	1564	5	182	4095	3930
42	0	0	1685	5	181	4095	3930
43	0	0	1826	5	179	4095	3929
44	0	0	1989	5	179	4095	3930
45	0	0	2135	5	177	4095	3928
46	0	0	2269	4	177	4095	3929
47	0	0	2370	5	177	4095	3928
48	0	0	2428	4	178	4095	3929
49	0	0	2443	4	181	4095	3929
50	0	0	2398	4	181	4095	3929
51	0	0	2322	4	183	4095	3929
52	0	0	2253	4	185	4095	3929
53	0	0	2173	4	187	4095	3929
54	0	0	2045	4	186	4095	3929
55	0	0	1878	4	188	4095	3930
56	0	0	1693	4	190	4095	3929
57	0	0	1554	4	189	4095	3929
58	0	0	1483	4	189	4095	3929
59	0	0	1450	4	187	4095	3928
60	0	0	1479	5	185	4095	3928
61	0	0	1590	5	183	4095	3928
62	0	0	1739	5	181	4095	3929
63	0	0	1898	4	179	4095	3929
64	0	0	2062	5	178	4095	3929
65	0	0	2205	5	177	4095	3928
66	0	0	2334	5	177	4095	3930
67	0	0	2428	4	177	4095	3930
68	0	0	2456	5	178	4095	3930
69	0	0	2460	5	181	4095	3930
70	0	0	2454	5	181	4095	3929
71	0	0	2431	4	184	4095	3929
72	0	0	2350	4	184	4095	3928
73	0	0	2227	4	185	4095	3929
74	0	0	2081	3	186	4095	3929
75	0	0	1920	4	189	4095	3928
76	0	0	1744	4	192	4095	3928
77	0	0	1582	4	189	4095	3929
78	0	0	1461	3	188	4095	3928
79	0	0	1400	4	187	4095	3929
80	0	0	1421	6	184	4095	3929
81	0	0	1524	5	182	4095	3929
82	0	0	1657	5	181	4095	3929
83	0	0	1796	5	179	4095	3929
84	0	0	1961	5	179	4095	3930
85	0	0	2127	5	178	4095	3929
86	0	0	2286	5	177	4095	3929
87	0	0	2419	5	179	4095	3929
88	0	0	2506	5	178	4095	3928
89	0	0	2551	5	180	4095	3928
90	0	0	2522	4	181	4095	3928
91	0	0	2441	4	183	4095	3928
92	0	0	2343	4	185	4095	3929
93	0	0	2216	3	186	4095	3928
94	0	0	2078	4	187	4095	3928
95	0	0	1943	4	190	4095	3929
96	0	0	1765	4	189	4095	3929
97	0	0	1587	4	189	4095	3928
98	0	0	1463	3	188	4095	3929
99	0	0	1414	4	187	4095	3930
100	0	0	1450	5	185	4095	3930
101	0	0	1551	5	182	4095	3929
102	0	0	1697	6	181	4095	3929
103	0	0	1863	5	179	4095	3930
104	0	0	2010	5	179	4095	3928
105	0	0	2148	5	177	4095	3929
106	0	0	2314	5	177	4095	3928
107	0	0	2463	5	177	4095	3928
108	0	0	2550	4	179	4095	3929
109	0	0	2548	4	180	4095	3928
110	0	0	2474	4	181	4095	3928
111	0	0	2387	4	182	4095	3930
112	0	0	2284	4	184	4095	3930
113	0	0	2180	3	186	4095	3929
114	0	0	2071	4	187	4095	3930
115	0	0	1922	4	189	4095	3928
116	0	0	1739	4	190	4095	3929
117	0	0	1582	4	190	4095	3929
118	0	0	1492	4	188	4095	3929
119	0	0	1453	4	186	4095	3929
120	0	0	1487	5	185	4095	3929
121	0	0	1595	5	183	4095	3929
122	0	0	1730	5	180	4095	3929
123	0	0	1876	4	179	4095	3929
124	0	0	2013	5	179	4095	3928
125	0	0	2140	5	177	4095	3928
126	0	0	2275	4	177	4095	3929
127	0	0	2413	5	177	4095	3929
0	0	0	2515	4	178	4095	3929
1	0	0	2571	5	181	4095	3930
2	0	0	2572	5	181	4095	3929
3	0	0	2512	4	182	4095	3930
4	0	0	2393	4	185	4095	3930
5	0	0	2228	4	187	4095	3929
6	0	0	2069	4	188	4095	3930
7	0	0	1927	4	189	4095	3929
8	0	0	1773	4	191	4095	3930
9	0	0	1635	4	188	4095	3930
10	0	0	1528	3	188	4095	3929
11	0	0	1466	4	186	4095	3928
12	0	0	1479	7	185	4095	3928
13	0	0	1564	5	182	4095	3929
14	0	0	1708	5	182	4095	3928
15	0	0	1863	4	179	4095	3929
16	0	0	2013	5	178	4095	3929
17	0	0	2183	5	177	4095	3928
18	0	0	2367	5	177	4095	3929
19	0	0	2520	5	178	4095	3929
20	0	0	2600	4	178	4095	3930
21	0	0	2603	4	178	4095	3928
22	0	0	2540	3	181	4095	3929
23	0	0	2465	4	182	4095	3930
24	0	0	2404	4	185	4095	3930
25	0	0	2291	4	186	4095	3929
26	0	0	2150	4	187	4095	3929
27	0	0	1979	5	189	4095	3928
28	0	0	1782	4	190	4095	3928
29	0	0	1601	4	190	4095	3928
30	0	0	1487	4	189	4095	3929
31	0	0	1448	5	186	4095	3929
32	0	0	1491	5	185	4095	3930
33	0	0	1612	5	182	4095	3928
34	0	0	1764	5	182	4095	3928
35	0	0	1934	4	180	4095	3929
36	0	0	2110	5	179	4095	3929
37	0	0	2267	5	177	4095	3929
38	0	0	2412	5	177	4095	3929
39	0	0	2504	4	177	4095	3930
40	0	0	2544	4	179	4095	3930
41	0	0	2563	4	180	4095	3929
42	0	0	2533	4	181	4095	3929
43	0	0	2456	5	182	4095	3930
44	0	0	2354	4	186	4095	3929
45	0	0	2248	4	186	4095	3930
46	0	0	2147	4	188	4095	3929
47	0	0	2017	4	189	4095	3928
48	0	0	1834	4	190	4095	3928
49	0	0	1666	5	189	4095	3929
50	0	0	1561	4	189	4095	3929
51	0	0	1511	5	187	4095	3930
52	0	0	1536	5	184	4095	3928
53	0	0	1608	6	182	4095	3929
54	0	0	1723	5	182	4095	3929
55	0	0	1871	5	179	4095	3929
56	0	0	2027	5	179	4095	3929
57	0	0	2183	5	177	4095	3929
58	0	0	2359	5	177	4095	3929
59	0	0	2536	5	178	4095	3928
60	0	0	2666	4	179	4095	3929
61	0	0	2715	4	180	4095	3929
62	0	0	2672	4	181	4095	3928
63	0	0	2567	4	184	4095	3929
64	0	0	2412	4	186	4095	3929
65	0	0	2251	4	187	4095	3930
66	0	0	2089	4	187	4095	3929
67	0	0	1921	4	190	4095	3930
68	0	0	1744	4	190	4095	3928
69	0	0	1591	4	191	4095	3928
70	0	0	1488	4	188	4095	3929
71	0	0	1450	5	187	4095	3930
72	0	0	1481	7	184	4095	3929
73	0	0	1590	5	182	4095	3930
74	0	0	1747	5	180	4095	3929
75	0	0	1924	5	179	4095	3929
76	0	0	2079	5	178	4095	3929
77	0	0	2203	5	177	4095	3928
78	0	0	2350	5	177	4095	3928
79	0	0	2478	5	178	4095	3929
80	0	0	2535	5	179	4095	3930
81	0	0	2542	5	180	4095	3929
82	0	0	2525	4	181	4095	3928
83	0	0	2489	4	184	4095	3929
84	0	0	2396	4	185	4095	3930
85	0	0	2263	4	187	4095	3929
86	0	0	2107	4	187	4095	3929
87	0	0	1931	4	190	4095	3928
88	0	0	1748	4	190	4095	3929
89	0	0	1592	4	191	4095	3928
90	0	0	1486	4	189	4095	3929
91	0	0	1429	4	187	4095	3929
92	0	0	1439	5	185	4095	3930
93	0	0	1519	6	183	4095	3929
94	0	0	1656	5	182	4095	3929
95	0	0	1809	5	180	4095	3929
96	0	0	1974	5	179	4095	3930
97	0	0	2130	5	177	4095	3928
98	0	0	2294	5	177	4095	3929
99	0	0	2459	5	177	4095	3929
100	0	0	2547	5	178	4095	3929
101	0	0	2565	4	180	4095	3929
102	0	0	2545	4	181	4095	3928
103	0	0	2490	4	183	4095	3929
104	0	0	2374	4	185	4095	3929
105	0	0	2205	4	186	4095	3930
106	0	0	2031	4	187	4095	3929
107	0	0	1879	3	189	4095	3929
108	0	0	1707	4	190	4095	3929
109	0	0	1531	4	190	4095	3929
110	0	0	1405	4	189	4095	3929
111	0	0	1347	4	187	4095	3930
112	0	0	1362	5	184	4095	3928
113	0	0	1459	6	182	4095	3929
114	0	0	1621	5	181	4095	3928
115	0	0	1789	5	180	4095	3929
116	0	0	1961	5	178	4095	3929
117	0	0	2117	5	178	4095	3930
118	0	0	2266	5	177	4095	3929
119	0	0	2395	4	178	4095	3929
120	0	0	2477	5	178	4095	3929
121	0	0	2513	5	180	4095	3929
122	0	0	2505	4	183	4095	3929
123	0	0	2451	4	183	4095	3930
124	0	0	2356	4	184	4095	3930
125	0	0	2214	4	186	4095	3929
126	0	0	2017	4	187	4095	3929
127	0	0	1812	4	190	4095	3928
0	0	0	1620	4	190	4095	3928
1	0	0	1461	4	190	4095	3929
2	0	0	1375	4	189	4095	3930
3	0	0	1380	5	188	4095	3929
4	0	0	1467	6	185	4095	3928
5	0	0	1598	6	183	4095	3928
6	0	0	1750	6	181	4095	3929
7	0	0	1885	5	179	4095	3929
8	0	0	2014	5	179	4095	3929
9	0	0	2150	5	177	4095	3928
10	0	0	2307	5	177	4095	3929
11	0	0	2425	5	178	4095	3930
12	0	0	2476	5	179	4095	3929
13	0	0	2502	5	180	4095	3930
14	0	0	2486	5	182	4095	3929
15	0	0	2424	4	183	4095	3929
16	0	0	2314	4	185	4095	3930
17	0	0	2171	4	186	4095	3929
18	0	0	2029	6	187	4095	3928
19	0	0	1887	4	190	4095	3930
20	0	0	1705	3	190	4095	3928
21	0	0	1526	4	189	4095	3928
22	0	0	1418	5	189	4095	3929
23	0	0	1383	4	187	4095	3929
24	0	0	1418	5	184	4095	3928
25	0	0	1518	6	183	4095	3929
26	0	0	1667	5	181	4095	3929
27	0	0	1828	5	180	4095	3930
28	0	0	2008	5	179	4095	3929
29	0	0	2180	5	177	4095	3929
30	0	0	2348	4	176	4095	3929
31	0	0	2473	4	178	4095	3929
32	0	0	2542	5	177	4095	3929
33	0	0	2560	4	180	4095	3930
34	0	0	2504	4	182	4095	3928
35	0	0	2413	4	183	4095	3929
36	0	0	2301	4	184	4095	3930
37	0	0	2173	4	185	4095	3929
38	0	0	2051	4	187	4095	3929
39	0	0	1937	5	190	4095	3928
40	0	0	1789	4	190	4095	3929
41	0	0	1634	4	190	4095	3928
42	0	0	1503	4	188	4095	3929
43	0	0	1425	4	187	4095	3930
44	0	0	1437	5	184	4095	3929
45	0	0	1532	5	183	4095	3929
46	0	0	1701	5	181	4095	3929
47	0	0	1882	5	179	4095	3930
48	0	0	2030	5	179	4095	3928
49	0	0	2158	6	177	4095	3929
50	0	0	2316	5	177	4095	3929
51	0	0	2454	5	178	4095	3929
52	0	0	2511	4	178	4095	3929
53	0	0	2528	4	180	4095	3928
54	0	0	2491	4	181	4095	3928
55	0	0	2405	5	183	4095	3928
56	0	0	2289	4	185	4095	3929
57	0	0	2146	4	186	4095	3929
58	0	0	2004	4	188	4095	3929
59	0	0	1838	4	190	4095	3928
60	0	0	1654	4	191	4095	3929
61	0	0	1509	4	189	4095	3929
62	0	0	1433	4	189	4095	3929
63	0	0	1412	5	187	4095	3929
64	0	0	1473	6	185	4095	3929
65	0	0	1602	5	183	4095	3928
66	0	0	1763	5	181	4095	3928
67	0	0	1950	5	180	4095	3929
68	0	0	2174	5	179	4095	3929
69	0	0	2392	5	177	4095	3928
70	0	0	2598	4	177	4095	3928
71	0	0	2762	5	178	4095	3929
72	0	0	2880	4	178	4095	3929
73	0	0	2966	5	180	4095	3928
74	0	0	3019	5	180	4095	3930
75	0	0	3035	5	183	4095	3929
76	0	0	2963	4	184	4095	3929
77	0	0	2826	4	187	4095	3930
78	0	0	2691	4	188	4095	3929
79	0	0	2603	4	189	4095	3930
80	0	0	2513	4	190	4095	3929
81	0	0	2436	4	189	4095	3929
82	0	0	2398	5	189	4095	3929
83	0	0	2400	6	187	4095	3929
84	0	0	2474	6	185	4095	3928
85	0	0	2608	5	182	4095	3928
86	0	0	2767	5	180	4095	3928
87	0	0	2921	5	180	4095	3929
88	0	0	3088	7	178	4095	3929
89	0	0	3216	5	177	4095	3928
90	0	0	3296	4	177	4095	3928
91	0	0	3330	5	178	4095	3929
92	0	0	3303	4	179	4095	3929
93	0	0	3244	4	179	4095	3929
94	0	0	3149	4	181	4095	3930
95	0	0	2995	4	183	4095	3928
96	0	0	2801	4	185	4095	3929
97	0	0	2586	4	186	4095	3930
98	0	0	2346	4	187	4095	3929
99	0	0	2117	4	190	4095	3928
100	0	0	1888	4	190	4095	3928
101	0	0	1690	4	190	4095	3928
102	0	0	1536	4	190	4095	3929
103	0	0	1443	4	186	4095	3929
104	0	0	1445	5	185	4095	3928
105	0	0	1526	5	183	4095	3929
106	0	0	1638	5	181	4095	3928
107	0	0	1764	5	180	4095	3929
108	0	0	1902	5	180	4095	3928
109	0	0	2058	4	176	4095	3930
110	0	0	2229	5	177	4095	3929
111	0	0	2372	5	177	4095	3929
112	0	0	2426	5	178	4095	3929
113	0	0	2433	4	179	4095	3929
114	0	0	2425	5	181	4095	3929
115	0	0	2401	4	183	4095	3929
116	0	0	2317	4	184	4095	3930
117	0	0	2174	4	186	4095	3928
118	0	0	2023	4	187	4095	3928
119	0	0	1886	4	189	4095	3928
120	0	0	1709	3	190	4095	3928
121	0	0	1524	4	190	4095	3928
122	0	0	1388	4	189	4095	3929
123	0	0	1320	5	186	4095	3928
124	0	0	1354	5	183	4095	3930
125	0	0	1472	5	183	4095	3930
126	0	0	1617	5	181	4095	3929
127	0	0	1785	5	180	4095	3930
0	0	0	1962	5	179	4095	3929
1	0	0	2115	5	177	4095	3929
2	0	0	2254	5	178	4095	3929
3	0	0	2363	5	178	4095	3928
4	0	0	2427	4	178	4095	3929
5	0	0	2441	5	180	4095	3928
6	0	0	2423	4	181	4095	3928
7	0	0	2342	4	182	4095	3928
8	0	0	2198	4	184	4095	3929
9	0	0	2040	4	186	4095	3929
10	0	0	1890	4	186	4095	3928
11	0	0	1743	4	189	4095	3930
12	0	0	1581	4	190	4095	3929
13	0	0	1434	4	190	4095	3929
14	0	0	1349	5	189	4095	3929
15	0	0	1331	5	187	4095	3929
16	0	0	1380	6	183	4095	3929
17	0	0	1467	5	181	4095	3928
18	0	0	1596	5	181	4095	3930
19	0	0	1751	5	179	4095	3929
20	0	0	1918	5	179	4095	3928
21	0	0	2070	6	176	4095	3928
22	0	0	2204	5	177	4095	3928
23	0	0	2312	5	179	4095	3929
24	0	0	2380	5	179	4095	3929
25	0	0	2433	5	181	4095	3929
26	0	0	2444	4	182	4095	3928
27	0	0	2405	4	183	4095	3928
28	0	0	2304	4	186	4095	3928
29	0	0	2158	4	186	4095	3929
30	0	0	1986	4	187	4095	3928
31	0	0	1829	4	190	4095	3929
32	0	0	1660	4	190	4095	3929
33	0	0	1506	4	189	4095	3929
34	0	0	1393	4	187	4095	3930
35	0	0	1331	4	186	4095	3929
36	0	0	1344	5	184	4095	3928
37	0	0	1423	5	182	4095	3929
38	0	0	1546	5	181	4095	3930
39	0	0	1704	5	181	4095	3929
40	0	0	1878	5	178	4095	3930
41	0	0	2052	5	177	4095	3928
42	0	0	2195	5	178	4095	3929
43	0	0	2326	5	178	4095	3930
44	0	0	2417	5	178	4095	3929
45	0	0	2466	5	180	4095	3930
46	0	0	2466	4	181	4095	3929
47	0	0	2406	4	183	4095	3929
48	0	0	2281	4	185	4095	3929
49	0	0	2124	4	187	4095	3929
50	0	0	1978	4	188	4095	3929
51	0	0	1849	4	189	4095	3929
52	0	0	1706	4	191	4095	3929
53	0	0	1551	4	190	4095	3929
54	0	0	1418	4	189	4095	3929
55	0	0	1359	4	187	4095	3928
56	0	0	1392	6	184	4095	3928
57	0	0	1496	5	183	4095	3928
58	0	0	1626	5	181	4095	3928
59	0	0	1770	5	180	4095	3930
60	0	0	1932	5	178	4095	3928
61	0	0	2111	5	177	4095	3928
62	0	0	2270	5	177	4095	3929
63	0	0	2398	5	179	4095	3930
64	0	0	2492	5	178	4095	3929
65	0	0	2544	5	180	4095	3930
66	0	0	2529	4	181	4095	3929
67	0	0	2445	4	183	4095	3929
68	0	0	2287	4	184	4095	3929
69	0	0	2110	4	186	4095	3929
70	0	0	1971	4	186	4095	3929
71	0	0	1849	5	189	4095	3929
72	0	0	1694	4	190	4095	3929
73	0	0	1527	4	189	4095	3929
74	0	0	1398	4	188	4095	3929
75	0	0	1348	4	187	4095	3928
76	0	0	1395	5	184	4095	3928
77	0	0	1518	5	182	4095	3928
78	0	0	1652	5	181	4095	3928
79	0	0	1791	5	181	4095	3929
80	0	0	1932	5	179	4095	3928
81	0	0	2080	5	177	4095	3930
82	0	0	2228	5	176	4095	3929
83	0	0	2347	4	176	4095	3929
84	0	0	2427	4	177	4095	3929
85	0	0	2489	4	179	4095	3930
86	0	0	2503	4	182	4095	3929
87	0	0	2449	4	183	4095	3929
88	0	0	2335	4	185	4095	3928
89	0	0	2205	4	186	4095	3929
90	0	0	2089	4	187	4095	3928
91	0	0	1953	4	187	4095	3929
92	0	0	1776	4	190	4095	3929
93	0	0	1588	4	190	4095	3929
94	0	0	1448	4	189	4095	3929
95	0	0	1395	5	186	4095	3928
96	0	0	1423	5	185	4095	3929
97	0	0	1527	5	183	4095	3928
98	0	0	1652	5	181	4095	3929
99	0	0	1796	5	180	4095	3930
100	0	0	1976	5	178	4095	3929
101	0	0	2164	5	178	4095	3929
102	0	0	2345	5	177	4095	3929
103	0	0	2486	5	178	4095	3929
104	0	0	2563	5	178	4095	3929
105	0	0	2597	4	179	4095	3928
106	0	0	2556	5	181	4095	3928
107	0	0	2470	4	183	4095	3929
108	0	0	2361	4	185	4095	3929
109	0	0	2237	4	185	4095	3929
110	0	0	2087	4	188	4095	3928
111	0	0	1905	4	189	4095	3928
112	0	0	1711	4	190	4095	3929
113	0	0	1531	4	189	4095	3930
114	0	0	1415	4	188	4095	3929
115	0	0	1380	5	187	4095	3930
116	0	0	1438	5	184	4095	3929
117	0	0	1581	6	182	4095	3929
118	0	0	1768	5	182	4095	3929
119	0	0	1946	5	179	4095	3929
120	0	0	2090	5	178	4095	3928
121	0	0	2210	4	178	4095	3928
122	0	0	2337	5	177	4095	3928
123	0	0	2460	5	177	4095	3929
124	0	0	2556	5	178	4095	3929
125	0	0	2597	4	179	4095	3928
126	0	0	2565	4	180	4095	3930
127	0	0	2499	4	183	4095	3929
0	0	0	2392	4	184	4095	3929
1	0	0	2266	4	186	4095	3930
2	0	0	2144	4	186	4095	3929
3	0	0	2014	4	189	4095	3928
4	0	0	1830	4	191	4095	3929
5	0	0	1655	4	190	4095	3929
6	0	0	1538	4	189	4095	3929
7	0	0	1476	4	187	4095	3929
8	0	0	1499	5	185	4095	3929
9	0	0	1593	6	182	4095	3928
10	0	0	1748	6	181	4095	3929
11	0	0	1929	5	179	4095	3929
12	0	0	2107	5	179	4095	3928
13	0	0	2272	5	178	4095	3928
14	0	0	2421	5	177	4095	3928
15	0	0	2530	5	179	4095	3929
16	0	0	2577	4	178	4095	3929
17	0	0	2567	4	181	4095	3930
18	0	0	2564	5	182	4095	3928
19	0	0	2539	4	183	4095	3929
20	0	0	2453	4	185	4095	3930
21	0	0	2324	4	185	4095	3929
22	0	0	2183	4	187	4095	3933
23	0	0	2035	3	189	4095	3929
24	0	0	1844	4	189	4095	3929
25	0	0	1667	4	189	4095	3930
26	0	0	1562	4	189	4095	3929
27	0	0	1537	5	187	4095	3930
28	0	0	1576	5	185	4095	3928
29	0	0	1676	6	183	4095	3928
30	0	0	1832	5	181	4095	3928
31	0	0	2019	5	179	4095	3929
32	0	0	2182	5	179	4095	3928
33	0	0	2319	5	177	4095	3928
34	0	0	2460	5	176	4095	3928
35	0	0	2572	5	178	4095	3929
36	0	0	2630	5	179	4095	3929
37	0	0	2647	5	180	4095	3929
38	0	0	2619	4	181	4095	3930
39	0	0	2547	4	183	4095	3929
40	0	0	2451	4	184	4095	3929
41	0	0	2333	4	185	4095	3929
42	0	0	2186	4	187	4095	3928
43	0	0	2031	3	189	4095	3928
44	0	0	1872	4	191	4095	3928
45	0	0	1720	4	189	4095	3928
46	0	0	1624	4	188	4095	3929
47	0	0	1584	5	187	4095	3928
48	0	0	1620	5	185	4095	3928
49	0	0	1726	6	183	4095	3929
50	0	0	1852	5	182	4095	3929
51	0	0	1986	5	180	4095	3929
52	0	0	2119	5	180	4095	3930
53	0	0	2246	4	178	4095	3928
54	0	0	2365	4	178	4095	3929
55	0	0	2488	5	177	4095	3930
56	0	0	2579	5	178	4095	3929
57	0	0	2604	5	180	4095	3930
58	0	0	2575	4	181	4095	3929
59	0	0	2510	3	182	4095	3928
60	0	0	2424	4	184	4095	3929
61	0	0	2331	5	185	4095	3929
62	0	0	2217	4	187	4095	3928
63	0	0	2068	4	188	4095	3928
64	0	0	1859	4	189	4095	3928
65	0	0	1680	4	189	4095	3929
66	0	0	1575	4	188	4095	3929
67	0	0	1536	5	187	4095	3928
68	0	0	1566	5	184	4095	3929
69	0	0	1672	5	183	4095	3929
70	0	0	1816	5	181	4095	3929
71	0	0	1982	5	179	4095	3930
72	0	0	2145	5	178	4095	3929
73	0	0	2303	5	177	4095	3929
74	0	0	2461	4	177	4095	3929
75	0	0	2587	5	177	4095	3929
76	0	0	2635	5	179	4095	3929
77	0	0	2623	4	180	4095	3928
78	0	0	2576	4	181	4095	3928
79	0	0	2512	3	182	4095	3928
80	0	0	2412	4	185	4095	3929
81	0	0	2280	4	186	4095	3929
82	0	0	2138	4	188	4095	3929
83	0	0	1990	4	189	4095	3928
84	0	0	1816	4	190	4095	3929
85	0	0	1651	4	190	4095	3930
86	0	0	1534	4	189	4095	3929
87	0	0	1494	4	187	4095	3928
88	0	0	1521	6	184	4095	3930
89	0	0	1602	5	183	4095	3929
90	0	0	1735	5	181	4095	3929
91	0	0	1890	5	180	4095	3930
92	0	0	2051	5	179	4095	3930
93	0	0	2199	5	177	4095	3928
94	0	0	2364	4	177	4095	3929
95	0	0	2510	4	178	4095	3929
96	0	0	2582	5	177	4095	3929
97	0	0	2575	4	179	4095	3928
98	0	0	2516	4	182	4095	3928
99	0	0	2427	4	182	4095	3928
100	0	0	2296	4	185	4095	3928
101	0	0	2140	4	186	4095	3927
102	0	0	1986	4	187	4095	3928
103	0	0	1847	4	189	4095	3928
104	0	0	1699	4	190	4095	3928
105	0	0	1555	4	189	4095	3929
106	0	0	1467	4	189	4095	3929
107	0	0	1444	5	187	4095	3929
108	0	0	1490	5	183	4095	3930
109	0	0	1592	5	182	4095	3929
110	0	0	1722	5	180	4095	3928
111	0	0	1877	5	179	4095	3929
112	0	0	2034	5	179	4095	3928
113	0	0	2170	5	177	4095	3930
114	0	0	2296	5	178	4095	3928
115	0	0	2412	5	177	4095	3929
116	0	0	2491	5	178	4095	3929
117	0	0	2526	5	181	4095	3928
118	0	0	2506	4	181	4095	3929
119	0	0	2436	4	184	4095	3929
120	0	0	2316	4	185	4095	3929
121	0	0	2161	4	185	4095	3929
122	0	0	2001	4	188	4095	3929
123	0	0	1833	4	190	4095	3929
124	0	0	1642	4	190	4095	3929
125	0	0	1498	4	190	4095	3930
126	0	0	1420	4	187	4095	3929
127	0	0	1419	5	187	4095	3928
0	0	0	1474	5	185	4095	3929
1	0	0	1586	5	183	4095	3929
2	0	0	1706	5	181	4095	3928
3	0	0	1824	5	180	4095	3929
4	0	0	1937	5	179	4095	3928
5	0	0	2064	5	177	4095	3928
6	0	0	2208	4	177	4095	3928
7	0	0	2351	5	177	4095	3928
8	0	0	2444	4	177	4095	3929
9	0	0	2484	4	180	4095	3930
10	0	0	2481	5	181	4095	3929
11	0	0	2420	3	184	4095	3929
12	0	0	2302	4	184	4095	3930
13	0	0	2150	4	185	4095	3930
14	0	0	2004	4	188	4095	3929
15	0	0	1858	4	190	4095	3928
16	0	0	1687	4	191	4095	3929
17	0	0	1531	4	190	4095	3928
18	0	0	1424	4	187	4095	3929
19	0	0	1357	4	187	4095	3928
20	0	0	1365	5	185	4095	3928
21	0	0	1459	5	182	4095	3928
22	0	0	1596	5	182	4095	3929
23	0	0	1743	5	179	4095	3929
24	0	0	1900	5	179	4095	3928
25	0	0	2071	5	178	4095	3930
26	0	0	2251	5	177	4095	3929
27	0	0	2394	5	178	4095	3929
28	0	0	2480	5	179	4095	3930
29	0	0	2512	5	180	4095	3928
30	0	0	2504	4	181	4095	3928
31	0	0	2444	3	183	4095	3929
32	0	0	2315	4	185	4095	3928
33	0	0	2144	4	185	4095	3929
34	0	0	1962	4	188	4095	3929
35	0	0	1793	5	190	4095	3928
36	0	0	1624	4	190	4095	3928
37	0	0	1474	4	190	4095	3929
38	0	0	1390	4	188	4095	3929
39	0	0	1384	5	187	4095	3928
40	0	0	1437	6	184	4095	3928
41	0	0	1552	6	183	4095	3929
42	0	0	1701	5	181	4095	3929
43	0	0	1875	5	179	4095	3929
44	0	0	2038	5	179	4095	3929
45	0	0	2178	5	177	4095	3929
46	0	0	2302	5	177	4095	3928
47	0	0	2417	5	177	4095	3929
48	0	0	2491	5	179	4095	3930
49	0	0	2507	4	179	4095	3928
50	0	0	2484	4	181	4095	3928
51	0	0	2426	4	183	4095	3928
52	0	0	2329	4	186	4095	3930
53	0	0	2216	4	186	4095	3929
54	0	0	2071	4	187	4095	3928
55	0	0	1882	4	190	4095	3928
56	0	0	1672	4	190	4095	3928
57	0	0	1485	4	189	4095	3929
58	0	0	1368	4	188	4095	3929
59	0	0	1322	5	186	4095	3929
60	0	0	1356	6	186	4095	3930
61	0	0	1449	5	183	4095	3929
62	0	0	1595	5	181	4095	3929
63	0	0	1779	5	180	4095	3930
64	0	0	1946	5	178	4095	3929
65	0	0	2091	5	177	4095	3928
66	0	0	2259	3	177	4095	3928
67	0	0	2407	5	177	4095	3928
68	0	0	2507	5	176	4095	3929
69	0	0	2544	5	180	4095	3928
70	0	0	2518	4	181	4095	3928
71	0	0	2455	4	183	4095	3928
72	0	0	2351	4	185	4095	3928
73	0	0	2210	4	186	4095	3929
74	0	0	2059	4	187	4095	3928
75	0	0	1914	4	190	4095	3930
76	0	0	1744	4	190	4095	3929
77	0	0	1565	4	190	4095	3929
78	0	0	1439	4	189	4095	3929
79	0	0	1385	4	186	4095	3929
80	0	0	1409	6	184	4095	3929
81	0	0	1516	5	181	4095	3929
82	0	0	1694	5	180	4095	3928
83	0	0	1859	5	179	4095	3929
84	0	0	2007	5	179	4095	3928
85	0	0	2147	5	177	4095	3928
86	0	0	2296	5	177	4095	3928
87	0	0	2438	5	177	4095	3928
88	0	0	2540	5	179	4095	3929
89	0	0	2590	5	180	4095	3930
90	0	0	2581	6	181	4095	3928
91	0	0	2507	2	183	4095	3929
92	0	0	2391	4	185	4095	3930
93	0	0	2238	4	185	4095	3929
94	0	0	2045	4	187	4095	3930
95	0	0	1847	5	190	4095	3929
96	0	0	1644	4	191	4095	3929
97	0	0	1463	4	190	4095	3930
98	0	0	1358	4	189	4095	3929
99	0	0	1345	6	187	4095	3929
100	0	0	1417	7	186	4095	3928
101	0	0	1560	4	182	4095	3929
102	0	0	1717	5	181	4095	3929
103	0	0	1878	5	180	4095	3929
104	0	0	2046	5	178	4095	3928
105	0	0	2201	5	176	4095	3928
106	0	0	2355	5	176	4095	3928
107	0	0	2489	5	178	4095	3928
108	0	0	2567	5	179	4095	3929
109	0	0	2593	5	179	4095	3929
110	0	0	2561	4	181	4095	3930
111	0	0	2468	4	182	4095	3929
112	0	0	2339	4	184	4095	3929
113	0	0	2195	4	187	4095	3929
114	0	0	2052	4	188	4095	3930
115	0	0	1907	4	190	4095	3928
116	0	0	1724	4	191	4095	3928
117	0	0	1537	4	190	4095	3928
118	0	0	1411	4	189	4095	3929
119	0	0	1383	5	187	4095	3928
120	0	0	1450	5	184	4095	3928
121	0	0	1563	5	182	4095	3928
122	0	0	1686	5	181	4095	3928
123	0	0	1836	6	179	4095	3929
124	0	0	2026	5	178	4095	3928
125	0	0	2203	5	179	4095	3930
126	0	0	2363	5	177	4095	3929
127	0	0	2476	5	178	4095	3929
0	0	0	2554	4	179	4095	3929
1	0	0	2595	5	180	4095	3930
2	0	0	2561	3	182	4095	3928
3	0	0	2454	2	184	4095	3928
4	0	0	2316	4	185	4095	3928
5	0	0	2158	4	186	4095	3929
6	0	0	2011	5	187	4095	3928
7	0	0	1862	4	189	4095	3928
8	0	0	1688	5	191	4095	3927
9	0	0	1533	4	189	4095	3928
10	0	0	1441	4	188	4095	3929
11	0	0	1403	5	186	4095	3929
12	0	0	1428	5	184	4095	3929
13	0	0	1517	5	182	4095	3929
14	0	0	1665	5	181	4095	3929
15	0	0	1841	5	179	4095	3929
16	0	0	2034	5	178	4095	3929
17	0	0	2211	5	177	4095	3930
18	0	0	2371	5	177	4095	3929
19	0	0	2491	5	178	4095	3929
20	0	0	2572	5	179	4095	3929
21	0	0	2593	5	180	4095	3928
22	0	0	2539	4	182	4095	3929
23	0	0	2438	4	183	4095	3928
24	0	0	2317	4	185	4095	3929
25	0	0	2179	4	187	4095	3929
26	0	0	2036	4	187	4095	3928
27	0	0	1897	4	189	4095	3928
28	0	0	1738	3	190	4095	3928
29	0	0	1575	4	190	4095	3929
30	0	0	1432	4	188	4095	3930
31	0	0	1344	5	187	4095	3929
32	0	0	1364	5	184	4095	3929
33	0	0	1476	6	182	4095	3929
34	0	0	1639	5	181	4095	3930
35	0	0	1815	5	180	4095	3929
36	0	0	1986	5	179	4095	3930
37	0	0	2125	6	178	4095	3928
38	0	0	2251	5	178	4095	3928
39	0	0	2379	5	178	4095	3928
40	0	0	2478	5	178	4095	3929
41	0	0	2517	5	181	4095	3928
42	0	0	2496	4	181	4095	3928
43	0	0	2451	4	183	4095	3929
44	0	0	2380	4	185	4095	3929
45	0	0	2238	4	187	4095	3929
46	0	0	2053	4	188	4095	3929
47	0	0	1880	4	189	4095	3930
48	0	0	1716	4	190	4095	3929
49	0	0	1566	4	189	4095	3929
50	0	0	1469	4	189	4095	3929
51	0	0	1431	5	187	4095	3929
52	0	0	1467	5	185	4095	3929
53	0	0	1568	5	183	4095	3929
54	0	0	1706	5	181	4095	3930
55	0	0	1843	5	179	4095	3929
56	0	0	1982	5	179	4095	3928
57	0	0	2127	5	177	4095	3928
58	0	0	2292	4	176	4095	3928
59	0	0	2429	4	178	4095	3929
60	0	0	2524	5	179	4095	3929
61	0	0	2547	5	180	4095	3928
62	0	0	2494	4	182	4095	3930
63	0	0	2431	4	183	4095	3929
64	0	0	2335	3	185	4095	3929
65	0	0	2188	4	185	4095	3929
66	0	0	2026	4	187	4095	3930
67	0	0	1877	4	189	4095	3929
68	0	0	1708	4	191	4095	3928
69	0	0	1552	4	189	4095	3929
70	0	0	1444	4	189	4095	3929
71	0	0	1406	4	189	4095	3928
72	0	0	1447	5	185	4095	3929
73	0	0	1552	5	183	4095	3928
74	0	0	1687	5	181	4095	3928
75	0	0	1821	5	179	4095	3929
76	0	0	1973	5	179	4095	3928
77	0	0	2131	5	178	4095	3928
78	0	0	2278	4	176	4095	3928
79	0	0	2404	4	177	4095	3929
80	0	0	2486	5	178	4095	3929
81	0	0	2528	5	180	4095	3930
82	0	0	2501	5	181	4095	3929
83	0	0	2433	5	183	4095	3929
84	0	0	2335	3	185	4095	3929
85	0	0	2211	4	186	4095	3929
86	0	0	2070	4	187	4095	3928
87	0	0	1921	4	190	4095	3930
88	0	0	1745	4	190	4095	3929
89	0	0	1577	4	190	4095	3928
90	0	0	1463	4	188	4095	3928
91	0	0	1416	5	187	4095	3930
92	0	0	1450	5	186	4095	3928
93	0	0	1526	5	183	4095	3928
94	0	0	1651	5	180	4095	3929
95	0	0	1804	6	180	4095	3929
96	0	0	1962	5	179	4095	3928
97	0	0	2107	5	178	4095	3929
98	0	0	2273	4	177	4095	3929
99	0	0	2420	4	178	4095	3929
100	0	0	2508	5	179	4095	3930
101	0	0	2543	5	179	4095	3928
102	0	0	2516	4	182	4095	3930
103	0	0	2446	4	184	4095	3929
104	0	0	2346	4	185	4095	3929
105	0	0	2219	4	186	4095	3929
106	0	0	2076	4	188	4095	3928
107	0	0	1952	4	189	4095	3928
108	0	0	1794	4	190	4095	3928
109	0	0	1615	4	189	4095	3929
110	0	0	1476	4	188	4095	3929
111	0	0	1402	4	187	4095	3928
112	0	0	1423	6	185	4095	3928
113	0	0	1523	5	183	4095	3929
114	0	0	1682	5	181	4095	3930
115	0	0	1869	5	180	4095	3929
116	0	0	2060	4	179	4095	3929
117	0	0	2216	5	177	4095	3930
118	0	0	2345	5	177	4095	3929
119	0	0	2467	5	177	4095	3929
120	0	0	2546	5	179	4095	3929
121	0	0	2550	4	180	4095	3928
122	0	0	2494	4	182	4095	3929
123	0	0	2407	4	183	4095	3928
124	0	0	2303	4	184	4095	3928
125	0	0	2171	4	187	4095	3929
126	0	0	2015	4	188	4095	3928
127	0	0	1883	4	189	4095	3929
0	0	0	1739	4	190	4095	3929
1	0	0	1578	4	189	4095	3930
2	0	0	1466	4	189	4095	3929
3	0	0	1408	4	186	4095	3928
4	0	0	1420	6	185	4095	3929
5	0	0	1510	5	183	4095	3929
6	0	0	1663	6	181	4095	3929
7	0	0	1842	5	180	4095	3929
8	0	0	2024	5	179	4095	3928
9	0	0	2179	5	177	4095	3930
10	0	0	2332	4	178	4095	3928
11	0	0	2460	4	178	4095	3928
12	0	0	2540	4	179	4095	3929
13	0	0	2558	6	179	4095	3928
14	0	0	2533	4	180	4095	3928
15	0	0	2472	4	183	4095	3928
16	0	0	2377	4	184	4095	3929
17	0	0	2235	4	187	4095	3929
18	0	0	2063	4	187	4095	3929
19	0	0	1883	4	188	4095	3929
20	0	0	1695	3	190	4095	3929
21	0	0	1541	4	190	4095	3928
22	0	0	1441	4	188	4095	3929
23	0	0	1396	5	187	4095	3929
24	0	0	1430	5	185	4095	3928
25	0	0	1553	6	182	4095	3928
26	0	0	1715	6	181	4095	3928
27	0	0	1878	5	180	4095	3929
28	0	0	2027	5	180	4095	3928
29	0	0	2165	5	177	4095	3928
30	0	0	2313	4	176	4095	3928
31	0	0	2433	4	177	4095	3928
32	0	0	2510	4	179	4095	3930
33	0	0	2524	5	179	4095	3928
34	0	0	2492	4	181	4095	3930
35	0	0	2434	4	183	4095	3929
36	0	0	2341	4	185	4095	3929
37	0	0	2218	4	187	4095	3930
38	0	0	2070	4	187	4095	3929
39	0	0	1909	4	189	4095	3930
40	0	0	1721	4	191	4095	3929
41	0	0	1575	4	189	4095	3929
42	0	0	1492	4	188	4095	3930
43	0	0	1445	4	186	4095	3928
44	0	0	1472	5	184	4095	3929
45	0	0	1572	5	183	4095	3929
46	0	0	1720	5	182	4095	3929
47	0	0	1883	5	179	4095	3929
48	0	0	2041	5	180	4095	3928
49	0	0	2194	5	177	4095	3928
50	0	0	2351	4	177	4095	3928
51	0	0	2485	5	178	4095	3929
52	0	0	2551	4	179	4095	3929
53	0	0	2568	5	180	4095	3928
54	0	0	2528	4	182	4095	3929
55	0	0	2445	3	184	4095	3928
56	0	0	2329	4	186	4095	3929
57	0	0	2199	4	187	4095	3930
58	0	0	2060	4	187	4095	3928
59	0	0	1911	4	189	4095	3930
60	0	0	1724	4	190	4095	3928
61	0	0	1558	4	190	4095	3929
62	0	0	1456	4	189	4095	3929
63	0	0	1431	4	187	4095	3929
64	0	0	1485	6	185	4095	3928
65	0	0	1594	7	182	4095	3928
66	0	0	1723	5	181	4095	3929
67	0	0	1876	5	180	4095	3929
68	0	0	2054	5	180	4095	3928
69	0	0	2230	5	176	4095	3929
70	0	0	2378	5	177	4095	3928
71	0	0	2490	4	177	4095	3928
72	0	0	2559	5	179	4095	3929
73	0	0	2580	4	181	4095	3929
74	0	0	2543	3	181	4095	3929
75	0	0	2460	5	183	4095	3929
76	0	0	2349	4	185	4095	3930
77	0	0	2216	4	187	4095	3929
78	0	0	2072	4	186	4095	3929
79	0	0	1916	5	189	4095	3928
80	0	0	1749	5	190	4095	3928
81	0	0	1619	4	189	4095	3928
82	0	0	1531	4	189	4095	3929
83	0	0	1487	4	187	4095	3928
84	0	0	1504	5	184	4095	3930
85	0	0	1597	5	182	4095	3930
86	0	0	1760	5	180	4095	3929
87	0	0	1943	5	179	4095	3930
88	0	0	2112	5	179	4095	3928
89	0	0	2242	5	178	4095	3930
90	0	0	2366	5	177	4095	3929
91	0	0	2465	5	178	4095	3929
92	0	0	2521	5	178	4095	3929
93	0	0	2534	5	180	4095	3928
94	0	0	2518	4	182	4095	3929
95	0	0	2467	4	184	4095	3928
96	0	0	2377	4	185	4095	3928
97	0	0	2248	4	186	4095	3929
98	0	0	2091	4	187	4095	3928
99	0	0	1920	4	189	4095	3928
100	0	0	1749	4	191	4095	3928
101	0	0	1596	4	190	4095	3929
102	0	0	1500	4	188	4095	3929
103	0	0	1484	5	187	4095	3930
104	0	0	1541	7	184	4095	3929
105	0	0	1639	6	183	4095	3929
106	0	0	1763	5	181	4095	3929
107	0	0	1926	5	179	4095	3930
108	0	0	2109	5	179	4095	3928
109	0	0	2266	5	177	4095	3929
110	0	0	2409	5	177	4095	3928
111	0	0	2521	5	179	4095	3929
112	0	0	2579	5	179	4095	3928
113	0	0	2604	5	180	4095	3929
114	0	0	2584	4	181	4095	3928
115	0	0	2520	5	183	4095	3928
116	0	0	2436	4	186	4095	3928
117	0	0	2302	4	187	4095	3929
118	0	0	2132	4	188	4095	3928
119	0	0	1968	4	189	4095	3930
120	0	0	1792	4	190	4095	3928
121	0	0	1628	4	189	4095	3929
122	0	0	1541	4	189	4095	3929
123	0	0	1515	5	186	4095	3929
124	0	0	1549	5	184	4095	3929
125	0	0	1639	5	183	4095	3929
126	0	0	1780	6	181	4095	3930
127	0	0	1935	5	179	4095	3929
0	0	0	2083	6	178	4095	3929
1	0	0	2235	6	178	4095	3928
2	0	0	2378	5	177	4095	3928
3	0	0	2489	5	178	4095	3928
4	0	0	2569	5	179	4095	3929
5	0	0	2617	5	179	4095	3928
6	0	0	2603	4	181	4095	3928
7	0	0	2511	5	183	4095	3928
8	0	0	2394	4	184	4095	3929
9	0	0	2261	4	186	4095	3929
10	0	0	2129	4	187	4095	3928
11	0	0	1997	3	190	4095	3929
12	0	0	1832	4	190	4095	3929
13	0	0	1673	4	190	4095	3928
14	0	0	1570	4	190	4095	3930
15	0	0	1537	5	187	4095	3928
16	0	0	1575	6	183	4095	3930
17	0	0	1667	5	182	4095	3929
18	0	0	1803	5	181	4095	3929
19	0	0	1948	5	180	4095	3929
20	0	0	2094	5	179	4095	3930
21	0	0	2228	5	177	4095	3928
22	0	0	2363	5	177	4095	3929
23	0	0	2481	4	178	4095	3928
24	0	0	2563	5	179	4095	3930
25	0	0	2598	5	179	4095	3928
26	0	0	2593	4	182	4095	3929
27	0	0	2520	4	184	4095	3929
28	0	0	2412	4	184	4095	3929
29	0	0	2276	4	186	4095	3929
30	0	0	2128	4	187	4095	3928
31	0	0	1991	3	189	4095	3928
32	0	0	1816	5	190	4095	3928
33	0	0	1631	4	189	4095	3928
34	0	0	1497	4	189	4095	3929
35	0	0	1443	4	186	4095	3928
36	0	0	1486	6	184	4095	3928
37	0	0	1599	6	183	4095	3929
38	0	0	1732	6	181	4095	3930
39	0	0	1881	5	180	4095	3929
40	0	0	2038	4	178	4095	3930
41	0	0	2174	4	178	4095	3929
42	0	0	2308	5	178	4095	3929
43	0	0	2437	5	178	4095	3930
44	0	0	2530	5	179	4095	3929
45	0	0	2577	5	180	4095	3929
46	0	0	2570	5	181	4095	3929
47	0	0	2510	4	183	4095	3928
48	0	0	2398	4	184	4095	3928
49	0	0	2258	4	185	4095	3929
50	0	0	2104	4	188	4095	3928
51	0	0	1940	4	189	4095	3928
52	0	0	1746	4	190	4095	3928
53	0	0	1582	4	190	4095	3928
54	0	0	1468	4	189	4095	3929
55	0	0	1398	4	186	4095	3928
56	0	0	1428	6	184	4095	3929
57	0	0	1548	5	183	4095	3929
58	0	0	1697	5	181	4095	3929
59	0	0	1873	5	180	4095	3930
60	0	0	2045	5	178	4095	3929
61	0	0	2198	5	177	4095	3929
62	0	0	2352	6	177	4095	3929
63	0	0	2484	5	178	4095	3929
64	0	0	2547	5	179	4095	3929
65	0	0	2577	4	180	4095	3930
66	0	0	2553	5	180	4095	3928
67	0	0	2466	4	182	4095	3928
68	0	0	2327	4	185	4095	3929
69	0	0	2180	4	187	4095	3930
70	0	0	2043	4	188	4095	3928
71	0	0	1913	3	189	4095	3930
72	0	0	1765	4	189	4095	3929
73	0	0	1639	4	189	4095	3929
74	0	0	1554	4	189	4095	3929
75	0	0	1494	4	186	4095	3929
76	0	0	1507	6	185	4095	3929
77	0	0	1597	6	182	4095	3929
78	0	0	1714	5	181	4095	3929
79	0	0	1854	5	179	4095	3929
80	0	0	2035	5	178	4095	3929
81	0	0	2214	5	177	4095	3928
82	0	0	2369	5	177	4095	3928
83	0	0	2502	5	177	4095	3928
84	0	0	2601	4	179	4095	3929
85	0	0	2624	4	180	4095	3930
86	0	0	2579	4	181	4095	3928
87	0	0	2512	5	182	4095	3929
88	0	0	2416	4	184	4095	3929
89	0	0	2264	4	186	4095	3929
90	0	0	2090	4	186	4095	3929
91	0	0	1916	4	189	4095	3929
92	0	0	1732	4	190	4095	3929
93	0	0	1549	4	190	4095	3929
94	0	0	1419	4	188	4095	3929
95	0	0	1374	5	187	4095	3929
96	0	0	1433	6	185	4095	3929
97	0	0	1574	6	182	4095	3929
98	0	0	1747	5	181	4095	3928
99	0	0	1919	5	179	4095	3929
100	0	0	2081	5	179	4095	3929
101	0	0	2241	5	178	4095	3928
102	0	0	2420	5	177	4095	3928
103	0	0	2578	5	177	4095	3928
104	0	0	2676	5	178	4095	3929
105	0	0	2678	4	180	4095	3930
106	0	0	2619	4	181	4095	3930
107	0	0	2520	4	184	4095	3929
108	0	0	2355	3	185	4095	3929
109	0	0	2184	4	186	4095	3930
110	0	0	2037	4	188	4095	3929
111	0	0	1900	4	189	4095	3930
112	0	0	1720	4	190	4095	3930
113	0	0	1540	4	190	4095	3929
114	0	0	1447	4	189	4095	3930
115	0	0	1423	5	186	4095	3928
116	0	0	1489	5	185	4095	3930
117	0	0	1615	5	182	4095	3929
118	0	0	1774	6	181	4095	3928
119	0	0	1953	5	178	4095	3929
120	0	0	2127	5	177	4095	3928
121	0	0	2287	5	176	4095	3928
122	0	0	2435	4	175	4095	3928
123	0	0	2571	5	177	4095	3928
124	0	0	2667	5	178	4095	3929
125	0	0	2693	4	179	4095	3930
126	0	0	2651	4	183	4095	3929
127	0	0	2546	4	182	4095	3930
0	0	0	2415	4	185	4095	3930
1	0	0	2299	4	187	4095	3929
2	0	0	2198	3	188	4095	3929
3	0	0	2056	4	190	4095	3928
4	0	0	1881	5	191	4095	3928
5	0	0	1713	4	191	4095	3928
6	0	0	1592	4	189	4095	3929
7	0	0	1539	5	188	4095	3928
8	0	0	1589	5	185	4095	3930
9	0	0	1721	5	183	4095	3930
10	0	0	1925	6	180	4095	3928
11	0	0	2179	5	180	4095	3929
12	0	0	2438	4	177	4095	3930
13	0	0	2683	5	177	4095	3929
14	0	0	2895	5	175	4095	3929
15	0	0	3084	4	176	4095	3929
16	0	0	3238	4	178	4095	3930
17	0	0	3342	5	179	4095	3929
18	0	0	3385	5	182	4095	3929
19	0	0	3371	6	183	4095	3928
20	0	0	3323	4	184	4095	3929
21	0	0	3242	4	186	4095	3930
22	0	0	3115	5	188	4095	3928
23	0	0	2968	4	190	4095	3930
24	0	0	2803	4	192	4095	3930
25	0	0	2631	3	192	4095	3928
26	0	0	2503	4	189	4095	3929
27	0	0	2432	4	187	4095	3928
28	0	0	2432	6	184	4095	3929
29	0	0	2499	7	183	4095	3929
30	0	0	2600	5	181	4095	3928
31	0	0	2705	5	179	4095	3929
32	0	0	2795	5	177	4095	3929
33	0	0	2882	5	176	4095	3929
34	0	0	2982	5	176	4095	3929
35	0	0	3061	4	177	4095	3928
36	0	0	3068	4	177	4095	3930
37	0	0	3014	3	179	4095	3928
38	0	0	2951	4	181	4095	3930
39	0	0	2858	3	183	4095	3929
40	0	0	2686	4	186	4095	3928
41	0	0	2464	4	187	4095	3929
42	0	0	2246	4	188	4095	3928
43	0	0	2033	4	191	4095	3928
44	0	0	1779	4	191	4095	3928
45	0	0	1551	5	191	4095	3928
46	0	0	1408	5	190	4095	3929
47	0	0	1355	4	188	4095	3930
48	0	0	1394	5	185	4095	3929
49	0	0	1506	5	183	4095	3929
50	0	0	1640	5	181	4095	3930
51	0	0	1798	5	179	4095	3929
52	0	0	1983	5	177	4095	3928
53	0	0	2169	5	176	4095	3929
54	0	0	2344	5	176	4095	3928
55	0	0	2504	5	176	4095	3928
56	0	0	2614	4	177	4095	3929
57	0	0	2658	5	179	4095	3928
58	0	0	2630	4	181	4095	3928
59	0	0	2556	5	183	4095	3928
60	0	0	2444	5	185	4095	3928
61	0	0	2294	4	186	4095	3929
62	0	0	2138	3	188	4095	3929
63	0	0	1954	4	191	4095	3929
64	0	0	1726	4	191	4095	3929
65	0	0	1490	4	191	4095	3930
66	0	0	1312	4	189	4095	3929
67	0	0	1235	5	188	4095	3929
68	0	0	1266	6	185	4095	3929
69	0	0	1367	6	182	4095	3929
70	0	0	1512	6	181	4095	3928
71	0	0	1700	5	178	4095	3929
72	0	0	1893	5	178	4095	3928
73	0	0	2077	5	177	4095	3929
74	0	0	2268	5	175	4095	3929
75	0	0	2443	5	176	4095	3929
76	0	0	2534	5	178	4095	3930
77	0	0	2551	5	178	4095	3929
78	0	0	2518	4	180	4095	3929
79	0	0	2431	4	184	4095	3929
80	0	0	2315	5	185	4095	3929
81	0	0	2187	4	186	4095	3929
82	0	0	2030	4	187	4095	3929
83	0	0	1858	4	190	4095	3929
84	0	0	1647	4	190	4095	3929
85	0	0	1440	4	191	4095	3930
86	0	0	1290	4	189	4095	3929
87	0	0	1227	5	187	4095	3928
88	0	0	1262	6	185	4095	3928
89	0	0	1347	7	183	4095	3928
90	0	0	1480	6	181	4095	3929
91	0	0	1667	5	179	4095	3929
92	0	0	1873	5	177	4095	3928
93	0	0	2088	5	175	4095	3929
94	0	0	2287	5	175	4095	3929
95	0	0	2443	5	176	4095	3929
96	0	0	2545	5	177	4095	3929
97	0	0	2584	4	179	4095	3929
98	0	0	2557	3	180	4095	3930
99	0	0	2482	4	181	4095	3929
100	0	0	2380	5	185	4095	3929
101	0	0	2244	4	187	4095	3929
102	0	0	2082	4	188	4095	3929
103	0	0	1887	5	190	4095	3928
104	0	0	1646	4	190	4095	3929
105	0	0	1419	4	191	4095	3929
106	0	0	1261	4	190	4095	3929
107	0	0	1208	5	187	4095	3928
108	0	0	1266	5	185	4095	3929
109	0	0	1391	5	183	4095	3930
110	0	0	1528	5	181	4095	3929
111	0	0	1699	5	180	4095	3929
112	0	0	1901	4	178	4095	3928
113	0	0	2098	5	176	4095	3929
114	0	0	2284	4	176	4095	3929
115	0	0	2442	5	177	4095	3930
116	0	0	2564	5	178	4095	3929
117	0	0	2628	4	179	4095	3929
118	0	0	2621	4	181	4095	3929
119	0	0	2545	4	182	4095	3929
120	0	0	2422	3	185	4095	3929
121	0	0	2276	4	186	4095	3929
122	0	0	2113	4	188	4095	3928
123	0	0	1927	4	190	4095	3929
124	0	0	1708	4	192	4095	3929
125	0	0	1484	4	191	4095	3928
126	0	0	1317	4	190	4095	3930
127	0	0	1237	3	188	4095	3928
0	0	0	1262	6	186	4095	3929
1	0	0	1380	6	182	4095	3928
2	0	0	1555	5	181	4095	3929
3	0	0	1758	5	178	4095	3929
4	0	0	1960	5	178	4095	3929
5	0	0	2153	5	178	4095	3929
6	0	0	2353	4	175	4095	3928
7	0	0	2528	4	177	4095	3929
8	0	0	2645	4	178	4095	3929
9	0	0	2696	4	178	4095	3928
10	0	0	2676	4	180	4095	3928
11	0	0	2575	4	182	4095	3929
12	0	0	2415	4	184	4095	3930
13	0	0	2217	4	186	4095	3929
14	0	0	2005	4	188	4095	3929
15	0	0	1803	4	191	4095	3928
16	0	0	1610	5	189	4095	3928
17	0	0	1423	3	190	4095	3929
18	0	0	1284	4	190	4095	3929
19	0	0	1214	4	188	4095	3929
20	0	0	1266	6	185	4095	3930
21	0	0	1420	5	183	4095	3929
22	0	0	1622	5	180	4095	3930
23	0	0	1827	5	179	4095	3930
24	0	0	1998	5	178	4095	3929
25	0	0	2154	6	176	4095	3929
26	0	0	2321	5	175	4095	3928
27	0	0	2460	4	177	4095	3929
28	0	0	2558	5	178	4095	3929
29	0	0	2629	5	179	4095	3928
30	0	0	2645	5	181	4095	3929
31	0	0	2587	4	182	4095	3928
32	0	0	2448	3	184	4095	3929
33	0	0	2296	4	187	4095	3929
34	0	0	2147	4	187	4095	3929
35	0	0	1967	4	190	4095	3929
36	0	0	1731	4	191	4095	3929
37	0	0	1511	3	191	4095	3930
38	0	0	1343	4	190	4095	3929
39	0	0	1239	4	187	4095	3929
40	0	0	1258	5	185	4095	3929
41	0	0	1404	6	182	4095	3929
42	0	0	1595	5	180	4095	3929
43	0	0	1810	5	179	4095	3929
44	0	0	2015	5	177	4095	3928
45	0	0	2190	5	176	4095	3928
46	0	0	2339	4	177	4095	3929
47	0	0	2500	4	177	4095	3929
48	0	0	2621	5	177	4095	3929
49	0	0	2665	4	179	4095	3930
50	0	0	2633	4	181	4095	3929
51	0	0	2548	4	184	4095	3929
52	0	0	2431	4	185	4095	3930
53	0	0	2289	4	187	4095	3930
54	0	0	2114	4	188	4095	3930
55	0	0	1922	4	191	4095	3929
56	0	0	1704	4	191	4095	3929
57	0	0	1521	4	192	4095	3930
58	0	0	1405	4	189	4095	3929
59	0	0	1344	5	187	4095	3928
60	0	0	1379	6	185	4095	3928
61	0	0	1500	5	183	4095	3928
62	0	0	1664	5	181	4095	3929
63	0	0	1869	5	179	4095	3929
64	0	0	2063	5	178	4095	3928
65	0	0	2214	4	177	4095	3928
66	0	0	2360	5	176	4095	3929
67	0	0	2506	4	177	4095	3929
68	0	0	2615	5	176	4095	3929
69	0	0	2675	5	179	4095	3929
70	0	0	2688	5	180	4095	3930
71	0	0	2639	4	183	4095	3930
72	0	0	2530	3	185	4095	3930
73	0	0	2373	4	186	4095	3930
74	0	0	2190	4	188	4095	3929
75	0	0	2012	4	190	4095	3930
76	0	0	1815	4	193	4095	3929
77	0	0	1633	4	191	4095	3929
78	0	0	1497	4	190	4095	3929
79	0	0	1414	4	188	4095	3929
80	0	0	1408	5	185	4095	3928
81	0	0	1493	6	183	4095	3929
82	0	0	1655	5	181	4095	3929
83	0	0	1852	5	179	4095	3929
84	0	0	2055	5	178	4095	3929
85	0	0	2276	5	175	4095	3929
86	0	0	2494	5	175	4095	3929
87	0	0	2666	4	176	4095	3930
88	0	0	2767	4	178	4095	3930
89	0	0	2800	5	179	4095	3929
90	0	0	2777	4	181	4095	3930
91	0	0	2688	4	183	4095	3930
92	0	0	2545	3	184	4095	3929
93	0	0	2379	4	186	4095	3929
94	0	0	2208	4	188	4095	3930
95	0	0	2038	4	191	4095	3928
96	0	0	1825	4	192	4095	3928
97	0	0	1612	4	191	4095	3929
98	0	0	1464	4	190	4095	3929
99	0	0	1390	4	187	4095	3929
100	0	0	1411	5	185	4095	3930
101	0	0	1529	6	183	4095	3929
102	0	0	1704	5	180	4095	3928
103	0	0	1904	5	179	4095	3929
104	0	0	2082	5	178	4095	3929
105	0	0	2234	5	176	4095	3929
106	0	0	2413	4	177	4095	3929
107	0	0	2595	5	177	4095	3930
108	0	0	2709	5	177	4095	3929
109	0	0	2755	4	178	4095	3930
110	0	0	2744	4	182	4095	3928
111	0	0	2665	4	182	4095	3928
112	0	0	2534	3	185	4095	3929
113	0	0	2375	4	186	4095	3929
114	0	0	2221	4	187	4095	3929
115	0	0	2043	4	190	4095	3929
116	0	0	1824	4	192	4095	3929
117	0	0	1627	4	190	4095	3929
118	0	0	1482	4	190	4095	3929
119	0	0	1424	4	188	4095	3929
120	0	0	1473	6	186	4095	3930
121	0	0	1586	5	181	4095	3930
122	0	0	1723	6	181	4095	3930
123	0	0	1893	5	179	4095	3929
124	0	0	2084	6	178	4095	3929
125	0	0	2276	5	176	4095	3930
126	0	0	2466	5	175	4095	3928
127	0	0	2631	3	177	4095	3929
0	0	0	2751	5	178	4095	3929
1	0	0	2804	4	179	4095	3928
2	0	0	2779	4	180	4095	3929
3	0	0	2697	3	182	4095	3928
4	0	0	2575	4	185	4095	3929
5	0	0	2419	4	186	4095	3930
6	0	0	2226	4	188	4095	3929
7	0	0	2027	4	191	4095	3929
8	0	0	1813	4	191	4095	3930
9	0	0	1600	3	191	4095	3929
10	0	0	1450	4	190	4095	3929
11	0	0	1375	4	188	4095	3929
12	0	0	1400	5	185	4095	3929
13	0	0	1524	6	183	4095	3929
14	0	0	1699	5	180	4095	3930
15	0	0	1857	5	179	4095	3928
16	0	0	2025	5	176	4095	3928
17	0	0	2211	5	176	4095	3929
18	0	0	2386	5	176	4095	3929
19	0	0	2524	4	176	4095	3929
20	0	0	2616	5	177	4095	3928
21	0	0	2673	5	179	4095	3928
22	0	0	2673	5	180	4095	3930
23	0	0	2628	4	182	4095	3929
24	0	0	2529	3	185	4095	3929
25	0	0	2361	4	185	4095	3929
26	0	0	2161	4	187	4095	3929
27	0	0	1958	4	191	4095	3929
28	0	0	1745	4	192	4095	3929
29	0	0	1546	4	191	4095	3930
30	0	0	1377	4	189	4095	3929
31	0	0	1286	4	188	4095	3928
32	0	0	1311	6	185	4095	3930
33	0	0	1440	6	183	4095	3930
34	0	0	1621	5	181	4095	3929
35	0	0	1817	5	179	4095	3927
36	0	0	2013	6	178	4095	3928
37	0	0	2214	5	177	4095	3929
38	0	0	2396	5	177	4095	3928
39	0	0	2537	4	176	4095	3929
40	0	0	2630	4	178	4095	3929
41	0	0	2673	4	179	4095	3930
42	0	0	2669	4	181	4095	3929
43	0	0	2601	4	184	4095	3929
44	0	0	2474	4	185	4095	3930
45	0	0	2305	4	187	4095	3929
46	0	0	2100	3	188	4095	3928
47	0	0	1882	4	190	4095	3929
48	0	0	1656	4	191	4095	3929
49	0	0	1459	4	191	4095	3929
50	0	0	1317	4	190	4095	3928
51	0	0	1232	4	187	4095	3928
52	0	0	1260	5	185	4095	3929
53	0	0	1388	5	183	4095	3929
54	0	0	1558	6	180	4095	3929
55	0	0	1740	5	179	4095	3930
56	0	0	1949	4	178	4095	3929
57	0	0	2148	5	177	4095	3929
58	0	0	2329	5	176	4095	3929
59	0	0	2467	4	176	4095	3929
60	0	0	2557	5	177	4095	3929
61	0	0	2584	5	178	4095	3930
62	0	0	2585	5	180	4095	3929
63	0	0	2533	4	184	4095	3929
64	0	0	2422	4	184	4095	3929
65	0	0	2275	4	186	4095	3929
66	0	0	2110	4	188	4095	3928
67	0	0	1928	4	190	4095	3930
68	0	0	1698	4	191	4095	3929
69	0	0	1470	3	191	4095	3929
70	0	0	1307	4	190	4095	3928
71	0	0	1229	5	187	4095	3928
72	0	0	1284	5	185	4095	3928
73	0	0	1424	6	184	4095	3929
74	0	0	1578	5	181	4095	3930
75	0	0	1733	5	179	4095	3929
76	0	0	1905	5	178	4095	3930
77	0	0	2107	5	176	4095	3929
78	0	0	2305	5	177	4095	3929
79	0	0	2463	5	177	4095	3929
80	0	0	2542	5	177	4095	3929
81	0	0	2583	5	179	4095	3929
82	0	0	2573	4	181	4095	3929
83	0	0	2509	4	183	4095	3928
84	0	0	2395	4	184	4095	3929
85	0	0	2224	4	187	4095	3928
86	0	0	2051	3	188	4095	3928
87	0	0	1872	4	190	4095	3929
88	0	0	1681	4	189	4095	3929
89	0	0	1502	4	190	4095	3929
90	0	0	1374	4	190	4095	3929
91	0	0	1313	4	188	4095	3929
92	0	0	1333	6	185	4095	3930
93	0	0	1417	6	182	4095	3930
94	0	0	1564	5	181	4095	3929
95	0	0	1748	5	179	4095	3929
96	0	0	1938	5	177	4095	3930
97	0	0	2129	5	176	4095	3928
98	0	0	2315	4	176	4095	3928
99	0	0	2467	5	176	4095	3929
100	0	0	2562	4	178	4095	3928
101	0	0	2613	5	178	4095	3928
102	0	0	2606	5	181	4095	3929
103	0	0	2529	4	182	4095	3930
104	0	0	2404	4	184	4095	3929
105	0	0	2259	4	186	4095	3929
106	0	0	2107	5	188	4095	3929
107	0	0	1929	4	190	4095	3928
108	0	0	1707	4	192	4095	3930
109	0	0	1491	4	191	4095	3929
110	0	0	1356	4	190	4095	3929
111	0	0	1307	5	188	4095	3929
112	0	0	1341	6	185	4095	3928
113	0	0	1454	5	181	4095	3929
114	0	0	1614	6	181	4095	3929
115	0	0	1777	5	180	4095	3928
116	0	0	1944	5	178	4095	3928
117	0	0	2112	5	176	4095	3928
118	0	0	2291	5	176	4095	3929
119	0	0	2445	5	176	4095	3929
120	0	0	2540	5	177	4095	3929
121	0	0	2591	4	179	4095	3928
122	0	0	2578	4	180	4095	3929
123	0	0	2512	4	183	4095	3930
124	0	0	2388	4	185	4095	3929
125	0	0	2207	4	187	4095	3929
126	0	0	2029	4	188	4095	3929
127	0	0	1869	4	191	4095	3929
0	0	0	1697	4	193	4095	3929
1	0	0	1505	4	191	4095	3930
2	0	0	1356	4	189	4095	3929
3	0	0	1289	4	186	4095	3930
4	0	0	1320	6	186	4095	3929
5	0	0	1431	5	181	4095	3929
6	0	0	1595	6	181	4095	3930
7	0	0	1764	5	179	4095	3928
8	0	0	1930	5	178	4095	3929
9	0	0	2103	5	176	4095	3928
10	0	0	2285	4	175	4095	3928
11	0	0	2466	5	176	4095	3929
12	0	0	2599	5	177	4095	3929
13	0	0	2662	5	178	4095	3928
14	0	0	2652	4	181	4095	3929
15	0	0	2589	4	184	4095	3930
16	0	0	2470	4	186	4095	3929
17	0	0	2307	4	186	4095	3930
18	0	0	2118	4	188	4095	3929
19	0	0	1917	4	191	4095	3928
20	0	0	1690	4	191	4095	3929
21	0	0	1488	4	190	4095	3928
22	0	0	1355	4	189	4095	3928
23	0	0	1293	4	189	4095	3929
24	0	0	1317	6	185	4095	3928
25	0	0	1416	6	183	4095	3928
26	0	0	1588	6	181	4095	3929
27	0	0	1791	5	179	4095	3930
28	0	0	1972	6	179	4095	3929
29	0	0	2147	5	177	4095	3929
30	0	0	2339	5	176	4095	3929
31	0	0	2517	5	176	4095	3929
32	0	0	2634	4	177	4095	3929
33	0	0	2683	4	179	4095	3928
34	0	0	2668	4	181	4095	3929
35	0	0	2608	4	184	4095	3929
36	0	0	2497	4	185	4095	3930
37	0	0	2333	4	186	4095	3929
38	0	0	2134	4	188	4095	3928
39	0	0	1937	4	191	4095	3928
40	0	0	1714	4	192	4095	3929
41	0	0	1511	4	191	4095	3929
42	0	0	1376	4	190	4095	3929
43	0	0	1311	4	188	4095	3928
44	0	0	1323	6	185	4095	3929
45	0	0	1425	6	183	4095	3930
46	0	0	1576	6	181	4095	3929
47	0	0	1768	5	179	4095	3930
48	0	0	1982	5	177	4095	3929
49	0	0	2182	5	175	4095	3929
50	0	0	2386	5	176	4095	3930
51	0	0	2568	4	177	4095	3929
52	0	0	2660	4	177	4095	3930
53	0	0	2685	5	178	4095	3928
54	0	0	2660	4	181	4095	3929
55	0	0	2577	4	182	4095	3929
56	0	0	2449	4	184	4095	3929
57	0	0	2294	4	187	4095	3929
58	0	0	2121	4	187	4095	3928
59	0	0	1921	3	191	4095	3928
60	0	0	1688	4	192	4095	3929
61	0	0	1472	4	191	4095	3930
62	0	0	1324	4	190	4095	3928
63	0	0	1277	5	188	4095	3929
64	0	0	1336	6	186	4095	3929
65	0	0	1476	5	183	4095	3928
66	0	0	1653	5	180	4095	3929
67	0	0	1845	5	178	4095	3929
68	0	0	2031	5	178	4095	3929
69	0	0	2208	6	176	4095	3928
70	0	0	2389	5	176	4095	3929
71	0	0	2551	5	177	4095	3929
72	0	0	2659	4	178	4095	3929
73	0	0	2683	5	178	4095	3928
74	0	0	2638	4	181	4095	3929
75	0	0	2561	4	183	4095	3930
76	0	0	2448	4	185	4095	3929
77	0	0	2311	4	186	4095	3930
78	0	0	2143	5	189	4095	3928
79	0	0	1946	5	190	4095	3929
80	0	0	1721	4	191	4095	3929
81	0	0	1508	4	192	4095	3929
82	0	0	1370	4	191	4095	3930
83	0	0	1321	4	188	4095	3929
84	0	0	1350	7	185	4095	3929
85	0	0	1461	6	182	4095	3929
86	0	0	1630	6	180	4095	3929
87	0	0	1796	5	178	4095	3929
88	0	0	1967	6	178	4095	3928
89	0	0	2145	5	176	4095	3928
90	0	0	2343	5	176	4095	3928
91	0	0	2511	5	176	4095	3929
92	0	0	2631	5	177	4095	3929
93	0	0	2679	5	179	4095	3928
94	0	0	2690	5	181	4095	3929
95	0	0	2660	4	184	4095	3930
96	0	0	2541	4	186	4095	3929
97	0	0	2334	4	186	4095	3929
98	0	0	2108	4	188	4095	3930
99	0	0	1876	4	191	4095	3929
100	0	0	1625	4	192	4095	3929
101	0	0	1423	4	191	4095	3929
102	0	0	1312	4	190	4095	3930
103	0	0	1275	6	187	4095	3928
104	0	0	1334	6	184	4095	3929
105	0	0	1473	5	182	4095	3929
106	0	0	1645	5	181	4095	3929
107	0	0	1825	5	180	4095	3929
108	0	0	2003	5	177	4095	3928
109	0	0	2176	5	176	4095	3929
110	0	0	2373	5	176	4095	3930
111	0	0	2548	5	176	4095	3929
112	0	0	2661	4	178	4095	3929
113	0	0	2702	5	180	4095	3928
114	0	0	2673	4	180	4095	3929
115	0	0	2576	4	183	4095	3931
116	0	0	2434	4	185	4095	3930
117	0	0	2281	4	186	4095	3930
118	0	0	2112	4	188	4095	3928
119	0	0	1923	3	190	4095	3928
120	0	0	1701	4	192	4095	3928
121	0	0	1499	4	190	4095	3929
122	0	0	1387	4	190	4095	3929
123	0	0	1330	5	188	4095	3928
124	0	0	1364	5	186	4095	3928
125	0	0	1480	5	183	4095	3929
126	0	0	1632	5	181	4095	3929
127	0	0	1808	5	180	4095	3929
0	0	0	1999	5	177	4095	3930
1	0	0	2188	5	176	4095	3928
2	0	0	2371	4	175	4095	3929
3	0	0	2540	4	175	4095	3930
4	0	0	2656	5	177	4095	3930
5	0	0	2697	4	178	4095	3930
6	0	0	2663	4	181	4095	3929
7	0	0	2589	4	183	4095	3929
8	0	0	2473	4	185	4095	3930
9	0	0	2310	4	186	4095	3929
10	0	0	2138	3	187	4095	3929
11	0	0	1957	4	190	4095	3929
12	0	0	1736	4	192	4095	3929
13	0	0	1521	4	191	4095	3929
14	0	0	1368	4	190	4095	3928
15	0	0	1302	4	187	4095	3928
16	0	0	1329	5	185	4095	3929
17	0	0	1437	6	182	4095	3928
18	0	0	1626	5	181	4095	3929
19	0	0	1823	5	178	4095	3929
20	0	0	2020	5	178	4095	3929
21	0	0	2209	4	177	4095	3929
22	0	0	2402	5	177	4095	3929
23	0	0	2565	5	175	4095	3929
24	0	0	2663	5	176	4095	3929
25	0	0	2699	4	178	4095	3930
26	0	0	2688	4	181	4095	3929
27	0	0	2626	4	183	4095	3929
28	0	0	2511	4	185	4095	3930
29	0	0	2339	4	187	4095	3929
30	0	0	2155	3	187	4095	3929
31	0	0	1947	4	191	4095	3928
32	0	0	1708	4	191	4095	3929
33	0	0	1513	4	190	4095	3929
34	0	0	1375	4	189	4095	3929
35	0	0	1313	5	188	4095	3929
36	0	0	1346	6	185	4095	3929
37	0	0	1457	6	184	4095	3929
38	0	0	1617	6	181	4095	3930
39	0	0	1800	5	179	4095	3929
40	0	0	1996	5	178	4095	3928
41	0	0	2193	4	176	4095	3928
42	0	0	2376	5	177	4095	3928
43	0	0	2539	5	177	4095	3929
44	0	0	2646	4	178	4095	3930
45	0	0	2699	4	179	4095	3928
46	0	0	2690	4	181	4095	3929
47	0	0	2630	4	183	4095	3929
48	0	0	2512	5	184	4095	3929
49	0	0	2347	4	187	4095	3928
50	0	0	2172	3	188	4095	3930
51	0	0	1981	4	190	4095	3929
52	0	0	1766	4	192	4095	3929
53	0	0	1556	4	191	4095	3929
54	0	0	1375	4	189	4095	3929
55	0	0	1263	4	188	4095	3929
56	0	0	1279	5	185	4095	3929
57	0	0	1418	6	183	4095	3929
58	0	0	1622	5	180	4095	3929
59	0	0	1832	5	178	4095	3928
60	0	0	2037	5	178	4095	3928
61	0	0	2244	5	177	4095	3928
62	0	0	2430	4	178	4095	3928
63	0	0	2559	5	176	4095	3929
64	0	0	2636	4	178	4095	3930
65	0	0	2687	6	179	4095	3928
66	0	0	2691	4	180	4095	3929
67	0	0	2619	4	183	4095	3930
68	0	0	2483	3	186	4095	3929
69	0	0	2316	4	187	4095	3929
70	0	0	2134	4	188	4095	3929
71	0	0	1944	4	190	4095	3929
72	0	0	1753	4	192	4095	3929
73	0	0	1580	4	190	4095	3929
74	0	0	1451	4	190	4095	3928
75	0	0	1377	4	187	4095	3929
76	0	0	1396	6	184	4095	3929
77	0	0	1498	6	182	4095	3928
78	0	0	1643	5	181	4095	3929
79	0	0	1821	6	179	4095	3928
80	0	0	2012	5	178	4095	3928
81	0	0	2196	5	176	4095	3929
82	0	0	2373	5	177	4095	3929
83	0	0	2524	5	176	4095	3929
84	0	0	2634	4	178	4095	3930
85	0	0	2686	4	178	4095	3928
86	0	0	2677	4	181	4095	3929
87	0	0	2608	4	183	4095	3929
88	0	0	2489	4	185	4095	3930
89	0	0	2325	4	186	4095	3928
90	0	0	2137	4	188	4095	3928
91	0	0	1942	4	190	4095	3928
92	0	0	1722	4	192	4095	3929
93	0	0	1517	4	190	4095	3929
94	0	0	1366	4	189	4095	3928
95	0	0	1293	4	188	4095	3929
96	0	0	1304	5	185	4095	3928
97	0	0	1397	5	183	4095	3928
98	0	0	1560	5	182	4095	3929
99	0	0	1780	5	178	4095	3929
100	0	0	2017	5	178	4095	3928
101	0	0	2227	4	176	4095	3929
102	0	0	2412	5	177	4095	3929
103	0	0	2567	4	177	4095	3929
104	0	0	2648	4	177	4095	3930
105	0	0	2664	4	179	4095	3929
106	0	0	2639	4	180	4095	3929
107	0	0	2572	4	183	4095	3929
108	0	0	2470	4	186	4095	3929
109	0	0	2340	4	187	4095	3928
110	0	0	2192	3	188	4095	3929
111	0	0	2011	4	190	4095	3928
112	0	0	1782	4	191	4095	3928
113	0	0	1546	4	191	4095	3929
114	0	0	1402	4	190	4095	3928
115	0	0	1343	4	187	4095	3928
116	0	0	1376	6	184	4095	3929
117	0	0	1498	5	183	4095	3930
118	0	0	1665	6	182	4095	3929
119	0	0	1843	5	180	4095	3929
120	0	0	2034	5	177	4095	3929
121	0	0	2245	5	177	4095	3929
122	0	0	2438	5	176	4095	3929
123	0	0	2588	5	177	4095	3930
124	0	0	2666	4	177	4095	3929
125	0	0	2704	5	178	4095	3928
126	0	0	2687	4	181	4095	3929
127	0	0	2610	4	183	4095	3929
0	0	0	2464	4	184	4095	3929
1	0	0	2274	4	187	4095	3928
2	0	0	2094	3	187	4095	3928
3	0	0	1909	4	190	4095	3929
4	0	0	1706	4	192	4095	3929
5	0	0	1529	4	191	4095	3929
6	0	0	1405	4	189	4095	3928
7	0	0	1334	4	188	4095	3929
8	0	0	1357	6	186	4095	3929
9	0	0	1488	5	182	4095	3929
10	0	0	1670	5	180	4095	3930
11	0	0	1868	5	178	4095	3929
12	0	0	2061	5	178	4095	3929
13	0	0	2232	5	176	4095	3929
14	0	0	2402	5	176	4095	3930
15	0	0	2546	5	178	4095	3929
16	0	0	2640	4	177	4095	3929
17	0	0	2680	4	179	4095	3928
18	0	0	2658	4	181	4095	3928
19	0	0	2585	4	183	4095	3929
20	0	0	2479	4	184	4095	3929
21	0	0	2363	4	187	4095	3929
22	0	0	2209	3	187	4095	3928
23	0	0	2023	4	191	4095	3928
24	0	0	1796	4	191	4095	3928
25	0	0	1572	4	190	4095	3929
26	0	0	1423	4	191	4095	3929
27	0	0	1360	5	188	4095	3930
28	0	0	1379	6	185	4095	3929
29	0	0	1478	5	183	4095	3929
30	0	0	1641	5	181	4095	3930
31	0	0	1833	5	178	4095	3928
32	0	0	2038	4	178	4095	3928
33	0	0	2229	5	176	4095	3928
34	0	0	2397	4	176	4095	3929
35	0	0	2551	5	177	4095	3929
36	0	0	2668	4	177	4095	3928
37	0	0	2737	5	178	4095	3928
38	0	0	2739	4	181	4095	3929
39	0	0	2661	4	183	4095	3929
40	0	0	2540	3	184	4095	3929
41	0	0	2397	4	186	4095	3929
42	0	0	2235	3	187	4095	3929
43	0	0	2054	4	191	4095	3929
44	0	0	1833	4	191	4095	3930
45	0	0	1637	4	190	4095	3929
46	0	0	1505	4	190	4095	3930
47	0	0	1423	4	188	4095	3928
48	0	0	1429	6	185	4095	3928
49	0	0	1526	6	183	4095	3928
50	0	0	1677	6	180	4095	3929
51	0	0	1870	5	179	4095	3928
52	0	0	2099	5	176	4095	3930
53	0	0	2322	5	176	4095	3929
54	0	0	2509	5	176	4095	3929
55	0	0	2650	5	176	4095	3929
56	0	0	2720	4	178	4095	3930
57	0	0	2738	4	179	4095	3929
58	0	0	2729	4	180	4095	3929
59	0	0	2680	4	183	4095	3929
60	0	0	2587	4	185	4095	3929
61	0	0	2438	3	188	4095	3929
62	0	0	2256	4	189	4095	3928
63	0	0	2064	4	190	4095	3928
64	0	0	1851	4	191	4095	3929
65	0	0	1643	4	190	4095	3929
66	0	0	1485	3	191	4095	3928
67	0	0	1417	5	188	4095	3928
68	0	0	1451	6	185	4095	3928
69	0	0	1569	5	182	4095	3929
70	0	0	1736	5	180	4095	3929
71	0	0	1928	5	179	4095	3928
72	0	0	2137	5	177	4095	3929
73	0	0	2344	5	177	4095	3929
74	0	0	2526	5	177	4095	3929
75	0	0	2671	5	176	4095	3929
76	0	0	2758	5	178	4095	3929
77	0	0	2779	5	179	4095	3929
78	0	0	2740	4	181	4095	3929
79	0	0	2661	4	183	4095	3930
80	0	0	2541	4	184	4095	3929
81	0	0	2396	3	187	4095	3928
82	0	0	2232	4	188	4095	3930
83	0	0	2045	4	190	4095	3928
84	0	0	1814	4	191	4095	3929
85	0	0	1601	4	190	4095	3929
86	0	0	1463	4	190	4095	3929
87	0	0	1395	5	188	4095	3928
88	0	0	1411	5	185	4095	3929
89	0	0	1534	6	182	4095	3929
90	0	0	1718	5	181	4095	3929
91	0	0	1931	5	180	4095	3929
92	0	0	2129	5	178	4095	3929
93	0	0	2316	4	176	4095	3929
94	0	0	2514	5	176	4095	3929
95	0	0	2679	4	177	4095	3930
96	0	0	2775	4	177	4095	3928
97	0	0	2815	5	179	4095	3928
98	0	0	2782	3	180	4095	3928
99	0	0	2707	4	183	4095	3929
100	0	0	2583	4	184	4095	3929
101	0	0	2413	4	186	4095	3928
102	0	0	2223	4	188	4095	3928
103	0	0	2026	3	190	4095	3929
104	0	0	1796	4	191	4095	3929
105	0	0	1561	4	190	4095	3929
106	0	0	1390	4	191	4095	3930
107	0	0	1319	5	188	4095	3929
108	0	0	1349	5	186	4095	3929
109	0	0	1467	5	182	4095	3930
110	0	0	1642	5	180	4095	3929
111	0	0	1832	5	178	4095	3929
112	0	0	2049	4	177	4095	3928
113	0	0	2265	5	176	4095	3929
114	0	0	2459	5	176	4095	3928
115	0	0	2619	5	177	4095	3930
116	0	0	2716	4	177	4095	3928
117	0	0	2747	4	180	4095	3929
118	0	0	2714	4	181	4095	3928
119	0	0	2632	4	183	4095	3929
120	0	0	2499	4	185	4095	3930
121	0	0	2336	4	186	4095	3928
122	0	0	2156	4	188	4095	3928
123	0	0	1973	4	191	4095	3929
124	0	0	1759	4	191	4095	3930
125	0	0	1564	4	190	4095	3929
126	0	0	1408	5	190	4095	3929
127	0	0	1301	5	187	4095	3929
0	0	0	1268	5	185	4095	3930
1	0	0	1354	5	182	4095	3929
2	0	0	1537	5	181	4095	3929
3	0	0	1789	5	179	4095	3928
4	0	0	2029	6	178	4095	3928
5	0	0	2221	5	176	4095	3929
6	0	0	2396	5	176	4095	3929
7	0	0	2566	5	176	4095	3929
8	0	0	2686	5	177	4095	3928
9	0	0	2737	5	179	4095	3930
10	0	0	2725	4	180	4095	3928
11	0	0	2627	4	183	4095	3929
12	0	0	2459	4	185	4095	3930
13	0	0	2283	4	187	4095	3929
14	0	0	2098	4	188	4095	3930
15	0	0	1913	4	191	4095	3929
16	0	0	1719	4	192	4095	3929
17	0	0	1533	4	191	4095	3930
18	0	0	1382	4	190	4095	3928
19	0	0	1299	4	187	4095	3930
20	0	0	1331	5	185	4095	3929
21	0	0	1464	6	182	4095	3929
22	0	0	1645	5	181	4095	3930
23	0	0	1844	5	180	4095	3928
24	0	0	2037	5	178	4095	3928
25	0	0	2216	4	176	4095	3929
26	0	0	2385	5	176	4095	3929
27	0	0	2525	5	177	4095	3929
28	0	0	2622	5	178	4095	3930
29	0	0	2661	4	179	4095	3928
30	0	0	2627	4	181	4095	3929
31	0	0	2543	4	183	4095	3929
32	0	0	2436	4	185	4095	3930
33	0	0	2299	4	187	4095	3929
34	0	0	2130	4	189	4095	3928
35	0	0	1959	4	191	4095	3929
36	0	0	1758	4	191	4095	3929
37	0	0	1545	4	191	4095	3929
38	0	0	1378	4	190	4095	3928
39	0	0	1295	6	188	4095	3928
40	0	0	1320	5	185	4095	3929
41	0	0	1430	5	183	4095	3930
42	0	0	1594	6	179	4095	3929
43	0	0	1787	5	179	4095	3928
44	0	0	1987	5	178	4095	3928
45	0	0	2187	5	177	4095	3929
46	0	0	2376	5	177	4095	3929
47	0	0	2521	5	175	4095	3929
48	0	0	2608	5	177	4095	3929
49	0	0	2628	5	180	4095	3930
50	0	0	2613	4	181	4095	3929
51	0	0	2565	4	182	4095	3929
52	0	0	2472	4	185	4095	3929
53	0	0	2326	4	186	4095	3930
54	0	0	2154	5	187	4095	3928
55	0	0	1970	4	191	4095	3928
56	0	0	1764	4	192	4095	3928
57	0	0	1568	4	190	4095	3928
58	0	0	1433	5	189	4095	3928
59	0	0	1381	5	188	4095	3930
60	0	0	1416	5	186	4095	3930
61	0	0	1519	6	183	4095	3929
62	0	0	1655	5	181	4095	3929
63	0	0	1800	5	179	4095	3929
64	0	0	1954	5	177	4095	3929
65	0	0	2144	5	177	4095	3929
66	0	0	2338	5	176	4095	3929
67	0	0	2490	5	176	4095	3929
68	0	0	2592	5	178	4095	3929
69	0	0	2641	5	177	4095	3928
70	0	0	2635	4	180	4095	3929
71	0	0	2568	4	182	4095	3930
72	0	0	2446	4	185	4095	3929
73	0	0	2285	3	187	4095	3929
74	0	0	2104	5	188	4095	3928
75	0	0	1907	4	190	4095	3929
76	0	0	1701	4	192	4095	3929
77	0	0	1507	4	189	4095	3929
78	0	0	1376	4	190	4095	3928
79	0	0	1312	4	189	4095	3929
80	0	0	1332	6	186	4095	3929
81	0	0	1428	6	184	4095	3929
82	0	0	1602	5	180	4095	3930
83	0	0	1817	5	179	4095	3929
84	0	0	2044	5	178	4095	3929
85	0	0	2249	5	176	4095	3928
86	0	0	2442	5	178	4095	3928
87	0	0	2617	4	176	4095	3929
88	0	0	2732	5	178	4095	3928
89	0	0	2774	5	179	4095	3930
90	0	0	2765	5	180	4095	3928
91	0	0	2712	4	182	4095	3928
92	0	0	2622	4	184	4095	3929
93	0	0	2513	4	187	4095	3928
94	0	0	2393	4	188	4095	3928
95	0	0	2259	3	191	4095	3929
96	0	0	2107	4	192	4095	3929
97	0	0	1985	4	189	4095	3929
98	0	0	1916	4	190	4095	3930
99	0	0	1897	7	188	4095	3929
100	0	0	1970	5	185	4095	3929
101	0	0	2127	5	183	4095	3930
102	0	0	2330	6	180	4095	3929
103	0	0	2598	5	179	4095	3928
104	0	0	2875	5	178	4095	3928
105	0	0	3126	5	178	4095	3929
106	0	0	3361	4	176	4095	3928
107	0	0	3573	5	176	4095	3929
108	0	0	3735	5	178	4095	3928
109	0	0	3819	5	180	4095	3928
110	0	0	3819	5	180	4095	3928
111	0	0	3747	4	182	4095	3929
112	0	0	3598	4	185	4095	3930
113	0	0	3388	4	187	4095	3929
114	0	0	3153	4	187	4095	3929
115	0	0	2902	4	192	4095	3929
116	0	0	2613	4	191	4095	3929
117	0	0	2325	4	190	4095	3929
118	0	0	2118	4	189	4095	3928
119	0	0	1984	4	187	4095	3928
120	0	0	1906	4	185	4095	3928
121	0	0	1926	5	182	4095	3928
122	0	0	2030	5	182	4095	3929
123	0	0	2161	5	179	4095	3928
124	0	0	2300	5	178	4095	3929
125	0	0	2423	5	177	4095	3929
126	0	0	2536	4	175	4095	3929
127	0	0	2636	4	177	4095	3929
0	0	0	2701	5	177	4095	3928
1	0	0	2734	4	179	4095	3929
2	0	0	2694	3	181	4095	3929
3	0	0	2598	4	182	4095	3930
4	0	0	2466	3	185	4095	3929
5	0	0	2286	3	186	4095	3928
6	0	0	2089	4	187	4095	3928
7	0	0	1895	4	190	4095	3928
8	0	0	1698	4	192	4095	3928
9	0	0	1530	4	192	4095	3929
10	0	0	1412	4	190	4095	3929
11	0	0	1345	6	188	4095	3928
12	0	0	1385	5	185	4095	3929
13	0	0	1499	6	183	4095	3929
14	0	0	1647	5	181	4095	3929
15	0	0	1809	5	178	4095	3929
16	0	0	1993	5	179	4095	3928
17	0	0	2175	5	176	4095	3929
18	0	0	2334	5	176	4095	3929
19	0	0	2473	4	176	4095	3930
20	0	0	2567	5	177	4095	3929
21	0	0	2614	4	179	4095	3930
22	0	0	2592	4	180	4095	3929
23	0	0	2496	4	182	4095	3929
24	0	0	2358	4	186	4095	3930
25	0	0	2198	4	187	4095	3929
26	0	0	2019	4	188	4095	3928
27	0	0	1820	3	191	4095	3929
28	0	0	1584	4	192	4095	3929
29	0	0	1377	3	191	4095	3929
30	0	0	1233	4	190	4095	3928
31	0	0	1150	4	187	4095	3928
32	0	0	1170	6	185	4095	3928
33	0	0	1302	5	183	4095	3929
34	0	0	1490	5	181	4095	3929
35	0	0	1672	5	179	4095	3930
36	0	0	1859	7	177	4095	3929
37	0	0	2061	3	177	4095	3930
38	0	0	2253	5	176	4095	3930
39	0	0	2404	5	176	4095	3929
40	0	0	2497	5	177	4095	3928
41	0	0	2538	4	180	4095	3928
42	0	0	2500	4	180	4095	3928
43	0	0	2403	4	183	4095	3928
44	0	0	2286	4	185	4095	3929
45	0	0	2131	4	187	4095	3928
46	0	0	1958	4	188	4095	3929
47	0	0	1785	4	191	4095	3928
48	0	0	1577	4	192	4095	3928
49	0	0	1393	4	191	4095	3929
50	0	0	1267	5	191	4095	3930
51	0	0	1210	4	188	4095	3928
52	0	0	1263	5	185	4095	3929
53	0	0	1386	6	183	4095	3929
54	0	0	1539	5	181	4095	3929
55	0	0	1702	5	180	4095	3929
56	0	0	1871	5	177	4095	3930
57	0	0	2041	5	177	4095	3929
58	0	0	2236	5	176	4095	3928
59	0	0	2401	5	177	4095	3929
60	0	0	2513	5	178	4095	3928
61	0	0	2565	4	178	4095	3928
62	0	0	2558	4	180	4095	3929
63	0	0	2489	4	183	4095	3929
64	0	0	2347	4	185	4095	3929
65	0	0	2180	4	186	4095	3930
66	0	0	1994	4	189	4095	3928
67	0	0	1808	5	190	4095	3929
68	0	0	1607	4	191	4095	3930
69	0	0	1429	4	191	4095	3929
70	0	0	1307	4	189	4095	3929
71	0	0	1250	4	187	4095	3929
72	0	0	1273	5	185	4095	3928
73	0	0	1369	6	182	4095	3929
74	0	0	1516	6	180	4095	3929
75	0	0	1676	5	179	4095	3928
76	0	0	1864	5	178	4095	3928
77	0	0	2061	5	175	4095	3928
78	0	0	2257	5	177	4095	3928
79	0	0	2439	5	176	4095	3929
80	0	0	2556	4	177	4095	3929
81	0	0	2589	6	178	4095	3928
82	0	0	2545	5	180	4095	3928
83	0	0	2453	4	183	4095	3930
84	0	0	2326	4	185	4095	3929
85	0	0	2201	4	187	4095	3929
86	0	0	2059	4	189	4095	3929
87	0	0	1877	4	191	4095	3929
88	0	0	1658	4	192	4095	3929
89	0	0	1455	4	190	4095	3929
90	0	0	1304	4	189	4095	3928
91	0	0	1238	4	187	4095	3928
92	0	0	1274	6	185	4095	3928
93	0	0	1389	5	183	4095	3928
94	0	0	1544	6	181	4095	3929
95	0	0	1725	5	178	4095	3928
96	0	0	1912	5	178	4095	3928
97	0	0	2105	5	177	4095	3928
98	0	0	2309	5	176	4095	3928
99	0	0	2477	4	176	4095	3929
100	0	0	2574	5	177	4095	3928
101	0	0	2597	4	179	4095	3928
102	0	0	2558	4	180	4095	3929
103	0	0	2492	3	182	4095	3929
104	0	0	2403	4	185	4095	3930
105	0	0	2281	4	187	4095	3929
106	0	0	2117	4	188	4095	3928
107	0	0	1928	4	190	4095	3928
108	0	0	1722	4	191	4095	3928
109	0	0	1516	4	191	4095	3929
110	0	0	1356	4	190	4095	3929
111	0	0	1276	4	188	4095	3928
112	0	0	1312	5	185	4095	3928
113	0	0	1430	5	182	4095	3929
114	0	0	1606	5	181	4095	3929
115	0	0	1798	5	179	4095	3930
116	0	0	1985	5	177	4095	3928
117	0	0	2164	5	177	4095	3929
118	0	0	2338	4	176	4095	3930
119	0	0	2504	5	177	4095	3929
120	0	0	2627	5	178	4095	3930
121	0	0	2693	5	180	4095	3929
122	0	0	2679	4	181	4095	3929
123	0	0	2592	4	183	4095	3929
124	0	0	2443	4	185	4095	3929
125	0	0	2255	4	187	4095	3928
126	0	0	2065	4	187	4095	3928
127	0	0	1876	4	190	4095	3928
0	0	0	1663	3	191	4095	3928
1	0	0	1470	4	191	4095	3929
2	0	0	1333	4	190	4095	3928
3	0	0	1277	4	187	4095	3928
4	0	0	1325	6	185	4095	3929
5	0	0	1439	5	182	4095	3928
6	0	0	1586	5	181	4095	3929
7	0	0	1756	5	180	4095	3930
8	0	0	1943	6	177	4095	3928
9	0	0	2144	5	177	4095	3929
10	0	0	2338	4	175	4095	3929
11	0	0	2509	5	177	4095	3930
12	0	0	2628	4	177	4095	3928
13	0	0	2694	5	179	4095	3929
14	0	0	2673	4	181	4095	3928
15	0	0	2600	4	183	4095	3928
16	0	0	2491	4	185	4095	3928
17	0	0	2329	4	187	4095	3928
18	0	0	2149	4	189	4095	3935
19	0	0	1962	4	190	4095	3928
20	0	0	1736	4	191	4095	3928
21	0	0	1515	4	190	4095	3929
22	0	0	1380	4	189	4095	3928
23	0	0	1323	4	187	4095	3928
24	0	0	1358	6	185	4095	3929
25	0	0	1489	6	182	4095	3930
26	0	0	1666	5	181	4095	3929
27	0	0	1861	5	178	4095	3930
28	0	0	2074	5	179	4095	3928
29	0	0	2273	5	177	4095	3929
30	0	0	2451	5	177	4095	3929
31	0	0	2596	5	176	4095	3928
32	0	0	2684	5	178	4095	3929
33	0	0	2713	4	180	4095	3928
34	0	0	2692	4	181	4095	3928
35	0	0	2617	4	183	4095	3928
36	0	0	2483	4	184	4095	3929
37	0	0	2330	4	187	4095	3929
38	0	0	2168	4	189	4095	3929
39	0	0	1984	4	189	4095	3929
40	0	0	1764	4	191	4095	3928
41	0	0	1577	4	190	4095	3929
42	0	0	1457	4	190	4095	3929
43	0	0	1409	4	188	4095	3929
44	0	0	1445	6	185	4095	3928
45	0	0	1544	5	183	4095	3928
46	0	0	1703	5	181	4095	3929
47	0	0	1888	5	180	4095	3929
48	0	0	2089	5	178	4095	3928
49	0	0	2274	6	176	4095	3928
50	0	0	2449	5	175	4095	3929
51	0	0	2586	5	177	4095	3929
52	0	0	2675	4	177	4095	3928
53	0	0	2715	5	179	4095	3928
54	0	0	2698	4	181	4095	3929
55	0	0	2632	3	183	4095	3929
56	0	0	2526	4	185	4095	3929
57	0	0	2390	4	186	4095	3928
58	0	0	2210	4	188	4095	3930
59	0	0	2005	4	190	4095	3929
60	0	0	1785	4	192	4095	3929
61	0	0	1600	4	191	4095	3929
62	0	0	1476	4	191	4095	3930
63	0	0	1424	4	186	4095	3928
64	0	0	1467	6	185	4095	3929
65	0	0	1590	5	182	4095	3928
66	0	0	1752	5	180	4095	3929
67	0	0	1932	5	178	4095	3928
68	0	0	2117	5	178	4095	3928
69	0	0	2297	5	176	4095	3928
70	0	0	2480	5	177	4095	3929
71	0	0	2638	4	177	4095	3929
72	0	0	2726	4	178	4095	3928
73	0	0	2750	5	178	4095	3929
74	0	0	2715	3	180	4095	3929
75	0	0	2635	4	183	4095	3929
76	0	0	2528	4	185	4095	3930
77	0	0	2382	4	186	4095	3929
78	0	0	2221	4	188	4095	3930
79	0	0	2038	4	190	4095	3930
80	0	0	1824	4	190	4095	3929
81	0	0	1621	4	190	4095	3929
82	0	0	1474	4	190	4095	3928
83	0	0	1383	4	188	4095	3928
84	0	0	1396	6	185	4095	3928
85	0	0	1506	5	183	4095	3929
86	0	0	1686	6	181	4095	3929
87	0	0	1894	5	178	4095	3928
88	0	0	2078	5	178	4095	3929
89	0	0	2244	4	176	4095	3929
90	0	0	2428	5	176	4095	3929
91	0	0	2589	5	177	4095	3929
92	0	0	2683	4	178	4095	3930
93	0	0	2708	5	179	4095	3928
94	0	0	2684	5	181	4095	3929
95	0	0	2623	4	184	4095	3929
96	0	0	2504	4	186	4095	3929
97	0	0	2342	4	186	4095	3929
98	0	0	2170	4	188	4095	3928
99	0	0	2000	3	191	4095	3928
100	0	0	1791	3	191	4095	3929
101	0	0	1565	4	191	4095	3929
102	0	0	1392	4	192	4095	3928
103	0	0	1320	5	187	4095	3930
104	0	0	1365	6	185	4095	3929
105	0	0	1500	5	182	4095	3929
106	0	0	1661	5	180	4095	3929
107	0	0	1840	5	178	4095	3930
108	0	0	2036	6	178	4095	3929
109	0	0	2225	6	177	4095	3928
110	0	0	2416	5	176	4095	3929
111	0	0	2584	5	176	4095	3929
112	0	0	2691	4	178	4095	3928
113	0	0	2723	4	178	4095	3930
114	0	0	2686	5	181	4095	3928
115	0	0	2604	4	183	4095	3928
116	0	0	2464	4	185	4095	3929
117	0	0	2276	4	186	4095	3928
118	0	0	2079	4	189	4095	3928
119	0	0	1883	5	192	4095	3929
120	0	0	1684	4	192	4095	3929
121	0	0	1494	4	192	4095	3929
122	0	0	1349	4	191	4095	3930
123	0	0	1291	5	186	4095	3929
124	0	0	1351	7	185	4095	3929
125	0	0	1491	5	183	4095	3929
126	0	0	1658	6	181	4095	3929
127	0	0	1838	5	179	4095	3929
0	0	0	2016	5	177	4095	3930
1	0	0	2194	5	176	4095	3929
2	0	0	2363	5	176	4095	3929
3	0	0	2504	5	177	4095	3929
4	0	0	2599	4	177	4095	3928
5	0	0	2625	4	178	4095	3930
6	0	0	2582	4	180	4095	3929
7	0	0	2491	4	182	4095	3928
8	0	0	2350	4	185	4095	3929
9	0	0	2203	4	187	4095	3928
10	0	0	2069	4	188	4095	3930
11	0	0	1909	4	190	4095	3929
12	0	0	1691	4	191	4095	3928
13	0	0	1482	4	191	4095	3929
14	0	0	1346	4	190	4095	3929
15	0	0	1291	4	188	4095	3929
16	0	0	1310	3	186	4095	3930
17	0	0	1411	5	183	4095	3928
18	0	0	1577	6	181	4095	3929
19	0	0	1761	5	179	4095	3928
20	0	0	1950	5	179	4095	3928
21	0	0	2142	4	177	4095	3929
22	0	0	2322	5	176	4095	3929
23	0	0	2458	5	177	4095	3929
24	0	0	2557	5	177	4095	3930
25	0	0	2612	3	179	4095	3928
26	0	0	2614	4	181	4095	3929
27	0	0	2537	4	183	4095	3929
28	0	0	2417	4	185	4095	3929
29	0	0	2257	4	187	4095	3930
30	0	0	2073	4	189	4095	3929
31	0	0	1870	5	190	4095	3929
32	0	0	1643	4	191	4095	3929
33	0	0	1445	4	191	4095	3929
34	0	0	1300	4	189	4095	3928
35	0	0	1235	5	186	4095	3928
36	0	0	1284	6	185	4095	3929
37	0	0	1419	6	183	4095	3928
38	0	0	1599	6	180	4095	3929
39	0	0	1770	5	179	4095	3928
40	0	0	1939	5	179	4095	3928
41	0	0	2104	6	176	4095	3929
42	0	0	2273	5	175	4095	3928
43	0	0	2416	5	176	4095	3929
44	0	0	2512	4	177	4095	3928
45	0	0	2555	4	179	4095	3930
46	0	0	2538	4	181	4095	3928
47	0	0	2474	4	183	4095	3929
48	0	0	2379	4	185	4095	3929
49	0	0	2251	4	186	4095	3928
50	0	0	2093	4	189	4095	3928
51	0	0	1919	4	191	4095	3928
52	0	0	1703	4	192	4095	3928
53	0	0	1493	4	192	4095	3928
54	0	0	1348	5	190	4095	3929
55	0	0	1265	4	188	4095	3928
56	0	0	1265	6	185	4095	3928
57	0	0	1359	5	182	4095	3929
58	0	0	1521	5	181	4095	3929
59	0	0	1709	6	178	4095	3928
60	0	0	1906	5	177	4095	3928
61	0	0	2093	5	177	4095	3929
62	0	0	2277	5	176	4095	3928
63	0	0	2434	5	177	4095	3929
64	0	0	2549	4	178	4095	3928
65	0	0	2601	4	179	4095	3929
66	0	0	2575	4	180	4095	3929
67	0	0	2498	4	183	4095	3928
68	0	0	2376	4	185	4095	3930
69	0	0	2218	4	187	4095	3928
70	0	0	2037	4	188	4095	3929
71	0	0	1863	4	190	4095	3929
72	0	0	1658	4	191	4095	3928
73	0	0	1461	4	189	4095	3929
74	0	0	1320	4	190	4095	3928
75	0	0	1266	4	189	4095	3928
76	0	0	1320	6	186	4095	3928
77	0	0	1462	5	182	4095	3929
78	0	0	1656	5	181	4095	3929
79	0	0	1825	5	178	4095	3930
80	0	0	1974	6	177	4095	3929
81	0	0	2128	6	176	4095	3928
82	0	0	2304	5	176	4095	3929
83	0	0	2452	5	178	4095	3930
84	0	0	2552	5	177	4095	3928
85	0	0	2593	5	179	4095	3928
86	0	0	2574	4	181	4095	3928
87	0	0	2509	4	183	4095	3929
88	0	0	2405	4	185	4095	3929
89	0	0	2279	5	186	4095	3929
90	0	0	2107	4	187	4095	3928
91	0	0	1906	5	191	4095	3928
92	0	0	1684	4	192	4095	3928
93	0	0	1486	4	191	4095	3928
94	0	0	1361	4	189	4095	3928
95	0	0	1313	4	187	4095	3928
96	0	0	1344	6	185	4095	3929
97	0	0	1461	5	183	4095	3929
98	0	0	1628	6	181	4095	3930
99	0	0	1790	5	178	4095	3929
100	0	0	1963	5	178	4095	3928
101	0	0	2130	6	176	4095	3928
102	0	0	2309	5	176	4095	3930
103	0	0	2487	5	176	4095	3929
104	0	0	2609	6	177	4095	3928
105	0	0	2663	5	178	4095	3928
106	0	0	2645	4	180	4095	3929
107	0	0	2564	4	182	4095	3928
108	0	0	2434	4	185	4095	3929
109	0	0	2278	3	185	4095	3928
110	0	0	2111	4	188	4095	3929
111	0	0	1924	4	190	4095	3929
112	0	0	1717	4	191	4095	3929
113	0	0	1522	4	191	4095	3929
114	0	0	1370	4	190	4095	3930
115	0	0	1300	4	187	4095	3929
116	0	0	1333	6	184	4095	3929
117	0	0	1440	6	183	4095	3929
118	0	0	1598	5	181	4095	3929
119	0	0	1778	5	179	4095	3928
120	0	0	1973	5	177	4095	3928
121	0	0	2163	5	176	4095	3929
122	0	0	2345	5	177	4095	3928
123	0	0	2498	5	177	4095	3929
124	0	0	2599	4	178	4095	3928
125	0	0	2644	4	180	4095	3929
126	0	0	2613	4	181	4095	3929
127	0	0	2535	4	183	4095	3929
0	0	0	2418	4	185	4095	3930
1	0	0	2267	4	186	4095	3928
2	0	0	2088	4	188	4095	3929
3	0	0	1888	4	190	4095	3929
4	0	0	1674	4	192	4095	3929
5	0	0	1496	4	190	4095	3929
6	0	0	1365	4	190	4095	3928
7	0	0	1305	4	190	4095	3928
8	0	0	1339	6	186	4095	3928
9	0	0	1467	5	182	4095	3929
10	0	0	1649	5	181	4095	3929
11	0	0	1849	5	180	4095	3928
12	0	0	2032	5	176	4095	3929
13	0	0	2201	5	176	4095	3928
14	0	0	2368	5	177	4095	3928
15	0	0	2512	4	176	4095	3929
16	0	0	2609	5	177	4095	3928
17	0	0	2658	4	178	4095	3930
18	0	0	2644	4	180	4095	3929
19	0	0	2577	4	183	4095	3930
20	0	0	2457	4	185	4095	3929
21	0	0	2286	3	186	4095	3930
22	0	0	2095	4	187	4095	3928
23	0	0	1913	4	190	4095	3928
24	0	0	1712	4	191	4095	3929
25	0	0	1517	4	191	4095	3929
26	0	0	1378	4	190	4095	3928
27	0	0	1298	4	187	4095	3928
28	0	0	1298	6	184	4095	3928
29	0	0	1389	5	182	4095	3928
30	0	0	1558	6	181	4095	3929
31	0	0	1775	5	178	4095	3928
32	0	0	1994	5	178	4095	3929
33	0	0	2200	5	177	4095	3929
34	0	0	2392	5	176	4095	3928
35	0	0	2559	5	177	4095	3929
36	0	0	2679	4	177	4095	3930
37	0	0	2723	5	179	4095	3928
38	0	0	2680	4	181	4095	3929
39	0	0	2557	4	183	4095	3930
40	0	0	2400	4	185	4095	3929
41	0	0	2250	5	187	4095	3928
42	0	0	2088	4	188	4095	3928
43	0	0	1917	4	191	4095	3928
44	0	0	1734	3	191	4095	3928
45	0	0	1550	4	190	4095	3928
46	0	0	1402	4	190	4095	3928
47	0	0	1328	4	187	4095	3929
48	0	0	1353	6	185	4095	3929
49	0	0	1473	6	181	4095	3928
50	0	0	1640	5	181	4095	3929
51	0	0	1807	5	179	4095	3930
52	0	0	1991	5	178	4095	3929
53	0	0	2184	5	175	4095	3929
54	0	0	2371	4	176	4095	3928
55	0	0	2521	5	177	4095	3929
56	0	0	2616	5	178	4095	3928
57	0	0	2666	5	178	4095	3930
58	0	0	2674	4	181	4095	3929
59	0	0	2613	4	184	4095	3927
60	0	0	2498	4	184	4095	3928
61	0	0	2334	4	186	4095	3928
62	0	0	2148	3	189	4095	3929
63	0	0	1952	4	190	4095	3928
64	0	0	1725	4	191	4095	3929
65	0	0	1516	4	191	4095	3929
66	0	0	1385	4	190	4095	3928
67	0	0	1326	5	187	4095	3929
68	0	0	1363	7	185	4095	3928
69	0	0	1471	6	183	4095	3929
70	0	0	1606	5	181	4095	3929
71	0	0	1781	5	178	4095	3928
72	0	0	1996	5	178	4095	3930
73	0	0	2212	5	176	4095	3928
74	0	0	2416	4	176	4095	3928
75	0	0	2563	5	177	4095	3929
76	0	0	2635	5	177	4095	3928
77	0	0	2672	4	179	4095	3929
78	0	0	2658	4	181	4095	3929
79	0	0	2573	4	183	4095	3928
80	0	0	2431	4	185	4095	3929
81	0	0	2260	4	187	4095	3928
82	0	0	2076	4	188	4095	3928
83	0	0	1891	4	191	4095	3929
84	0	0	1672	4	191	4095	3930
85	0	0	1482	4	191	4095	3929
86	0	0	1347	4	189	4095	3929
87	0	0	1286	4	187	4095	3928
88	0	0	1331	6	185	4095	3928
89	0	0	1449	4	182	4095	3929
90	0	0	1595	5	180	4095	3929
91	0	0	1772	5	180	4095	3928
92	0	0	1984	5	178	4095	3928
93	0	0	2190	6	177	4095	3928
94	0	0	2367	6	177	4095	3928
95	0	0	2507	5	176	4095	3928
96	0	0	2591	5	177	4095	3928
97	0	0	2633	4	179	4095	3929
98	0	0	2627	4	181	4095	3930
99	0	0	2570	3	184	4095	3928
100	0	0	2451	4	185	4095	3930
101	0	0	2279	3	187	4095	3929
102	0	0	2094	4	189	4095	3930
103	0	0	1923	4	191	4095	3929
104	0	0	1719	5	191	4095	3929
105	0	0	1521	4	192	4095	3930
106	0	0	1365	4	190	4095	3928
107	0	0	1274	4	187	4095	3928
108	0	0	1286	6	184	4095	3928
109	0	0	1384	6	183	4095	3929
110	0	0	1553	5	181	4095	3928
111	0	0	1756	5	179	4095	3928
112	0	0	1941	5	177	4095	3928
113	0	0	2117	5	176	4095	3928
114	0	0	2308	5	175	4095	3929
115	0	0	2488	5	177	4095	3929
116	0	0	2614	5	177	4095	3928
117	0	0	2673	5	179	4095	3928
118	0	0	2674	5	181	4095	3929
119	0	0	2593	5	183	4095	3929
120	0	0	2449	4	185	4095	3930
121	0	0	2269	4	187	4095	3928
122	0	0	2096	4	188	4095	3929
123	0	0	1932	4	191	4095	3930
124	0	0	1732	4	192	4095	3928
125	0	0	1527	4	191	4095	3928
126	0	0	1364	3	189	4095	3929
127	0	0	1301	4	188	4095	3928
0	0	0	1352	5	185	4095	3928
1	0	0	1486	5	183	4095	3928
2	0	0	1651	5	181	4095	3929
3	0	0	1836	5	179	4095	3928
4	0	0	2019	5	177	4095	3928
5	0	0	2175	5	177	4095	3929
6	0	0	2335	4	177	4095	3929
7	0	0	2499	5	177	4095	3930
8	0	0	2612	5	177	4095	3929
9	0	0	2671	5	179	4095	3929
10	0	0	2672	5	180	4095	3928
11	0	0	2607	5	183	4095	3929
12	0	0	2482	4	186	4095	3929
13	0	0	2314	2	187	4095	3930
14	0	0	2139	4	189	4095	3928
15	0	0	1957	4	191	4095	3928
16	0	0	1726	4	193	4095	3929
17	0	0	1483	4	191	4095	3928
18	0	0	1320	4	189	4095	3928
19	0	0	1276	5	188	4095	3929
20	0	0	1342	6	185	4095	3930
21	0	0	1483	5	182	4095	3929
22	0	0	1659	6	181	4095	3929
23	0	0	1839	4	180	4095	3928
24	0	0	2035	6	178	4095	3929
25	0	0	2225	4	175	4095	3929
26	0	0	2407	5	176	4095	3930
27	0	0	2549	5	176	4095	3929
28	0	0	2613	5	178	4095	3928
29	0	0	2635	4	178	4095	3928
30	0	0	2610	4	183	4095	3929
31	0	0	2536	4	183	4095	3929
32	0	0	2428	4	185	4095	3929
33	0	0	2296	4	187	4095	3928
34	0	0	2136	4	188	4095	3928
35	0	0	1937	4	189	4095	3928
36	0	0	1699	5	191	4095	3929
37	0	0	1487	4	191	4095	3929
38	0	0	1358	4	190	4095	3930
39	0	0	1310	5	188	4095	3928
40	0	0	1353	5	183	4095	3929
41	0	0	1473	6	182	4095	3930
42	0	0	1625	5	181	4095	3929
43	0	0	1794	4	179	4095	3930
44	0	0	1972	5	177	4095	3928
45	0	0	2159	5	176	4095	3928
46	0	0	2351	4	177	4095	3928
47	0	0	2525	5	176	4095	3928
48	0	0	2628	4	177	4095	3928
49	0	0	2687	5	179	4095	3928
50	0	0	2686	5	182	4095	3929
51	0	0	2599	4	182	4095	3928
52	0	0	2480	4	185	4095	3929
53	0	0	2338	4	187	4095	3928
54	0	0	2174	4	187	4095	3929
55	0	0	1992	4	191	4095	3930
56	0	0	1788	5	192	4095	3929
57	0	0	1572	4	191	4095	3930
58	0	0	1393	5	189	4095	3929
59	0	0	1302	5	187	4095	3929
60	0	0	1313	5	184	4095	3928
61	0	0	1424	5	182	4095	3929
62	0	0	1599	5	179	4095	3929
63	0	0	1789	6	179	4095	3928
64	0	0	1987	5	178	4095	3928
65	0	0	2179	5	176	4095	3929
66	0	0	2393	4	176	4095	3928
67	0	0	2593	5	177	4095	3928
68	0	0	2716	5	177	4095	3929
69	0	0	2750	5	180	4095	3928
70	0	0	2715	4	180	4095	3929
71	0	0	2628	4	183	4095	3929
72	0	0	2495	4	185	4095	3929
73	0	0	2345	4	186	4095	3929
74	0	0	2178	4	188	4095	3929
75	0	0	1996	5	191	4095	3929
76	0	0	1779	4	191	4095	3929
77	0	0	1578	4	191	4095	3929
78	0	0	1445	4	190	4095	3928
79	0	0	1385	5	187	4095	3929
80	0	0	1419	5	185	4095	3929
81	0	0	1526	5	182	4095	3928
82	0	0	1681	5	181	4095	3929
83	0	0	1871	4	179	4095	3928
84	0	0	2061	5	177	4095	3928
85	0	0	2228	5	177	4095	3928
86	0	0	2402	4	176	4095	3929
87	0	0	2561	4	175	4095	3929
88	0	0	2668	5	177	4095	3928
89	0	0	2707	5	179	4095	3929
90	0	0	2663	4	182	4095	3929
91	0	0	2572	3	183	4095	3929
92	0	0	2454	4	185	4095	3928
93	0	0	2326	4	186	4095	3928
94	0	0	2176	4	187	4095	3929
95	0	0	2009	5	191	4095	3929
96	0	0	1814	3	191	4095	3928
97	0	0	1616	4	191	4095	3928
98	0	0	1461	4	189	4095	3929
99	0	0	1378	4	188	4095	3928
100	0	0	1398	6	186	4095	3928
101	0	0	1511	5	183	4095	3929
102	0	0	1682	6	181	4095	3929
103	0	0	1878	5	179	4095	3928
104	0	0	2083	4	178	4095	3928
105	0	0	2277	5	177	4095	3929
106	0	0	2437	4	175	4095	3929
107	0	0	2554	5	176	4095	3928
108	0	0	2635	5	178	4095	3928
109	0	0	2684	5	179	4095	3928
110	0	0	2702	5	180	4095	3929
111	0	0	2664	4	183	4095	3929
112	0	0	2558	4	185	4095	3929
113	0	0	2398	4	188	4095	3928
114	0	0	2188	4	188	4095	3929
115	0	0	1975	4	189	4095	3929
116	0	0	1760	3	191	4095	3928
117	0	0	1562	4	192	4095	3929
118	0	0	1424	5	190	4095	3928
119	0	0	1370	5	187	4095	3929
120	0	0	1418	6	185	4095	3930
121	0	0	1518	5	183	4095	3929
122	0	0	1666	5	181	4095	3930
123	0	0	1856	6	179	4095	3928
124	0	0	2054	4	178	4095	3929
125	0	0	2256	5	176	4095	3928
126	0	0	2430	4	176	4095	3929
127	0	0	2564	4	177	4095	3929
0	0	0	2657	5	177	4095	3928
1	0	0	2716	4	178	4095	3928
2	0	0	2738	5	181	4095	3928
3	0	0	2704	4	182	4095	3929
4	0	0	2584	4	185	4095	3929
5	0	0	2406	4	187	4095	3928
6	0	0	2195	3	188	4095	3928
7	0	0	1987	4	190	4095	3928
8	0	0	1772	4	191	4095	3929
9	0	0	1571	4	191	4095	3929
10	0	0	1435	4	189	4095	3928
11	0	0	1385	5	188	4095	3929
12	0	0	1437	5	185	4095	3930
13	0	0	1569	6	183	4095	3929
14	0	0	1752	5	181	4095	3930
15	0	0	1944	5	178	4095	3930
16	0	0	2125	5	179	4095	3930
17	0	0	2295	5	176	4095	3929
18	0	0	2456	5	177	4095	3930
19	0	0	2605	5	177	4095	3929
20	0	0	2710	5	177	4095	3928
21	0	0	2776	5	180	4095	3929
22	0	0	2765	4	181	4095	3929
23	0	0	2688	4	182	4095	3930
24	0	0	2574	4	185	4095	3929
25	0	0	2428	4	187	4095	3929
26	0	0	2246	4	189	4095	3928
27	0	0	2051	4	190	4095	3928
28	0	0	1828	4	191	4095	3928
29	0	0	1622	4	191	4095	3928
30	0	0	1480	4	190	4095	3929
31	0	0	1415	5	188	4095	3929
32	0	0	1461	5	186	4095	3929
33	0	0	1581	5	181	4095	3928
34	0	0	1731	5	181	4095	3929
35	0	0	1915	5	179	4095	3928
36	0	0	2123	5	178	4095	3928
37	0	0	2314	5	176	4095	3928
38	0	0	2468	4	175	4095	3928
39	0	0	2585	5	177	4095	3928
40	0	0	2656	5	178	4095	3929
41	0	0	2719	5	180	4095	3928
42	0	0	2756	5	181	4095	3929
43	0	0	2715	4	183	4095	3930
44	0	0	2597	4	185	4095	3930
45	0	0	2420	4	187	4095	3930
46	0	0	2217	5	188	4095	3928
47	0	0	2018	3	190	4095	3930
48	0	0	1803	4	192	4095	3929
49	0	0	1625	4	190	4095	3929
50	0	0	1507	4	190	4095	3928
51	0	0	1456	4	187	4095	3928
52	0	0	1491	6	185	4095	3929
53	0	0	1594	5	182	4095	3929
54	0	0	1735	5	181	4095	3929
55	0	0	1898	5	179	4095	3928
56	0	0	2069	5	177	4095	3929
57	0	0	2241	5	177	4095	3930
58	0	0	2434	5	176	4095	3929
59	0	0	2621	5	176	4095	3929
60	0	0	2754	5	178	4095	3928
61	0	0	2806	6	179	4095	3930
62	0	0	2781	4	181	4095	3928
63	0	0	2702	3	182	4095	3928
64	0	0	2576	4	185	4095	3928
65	0	0	2401	4	186	4095	3929
66	0	0	2214	4	188	4095	3928
67	0	0	2038	4	192	4095	3929
68	0	0	1833	4	191	4095	3929
69	0	0	1609	4	191	4095	3928
70	0	0	1441	4	189	4095	3929
71	0	0	1366	4	187	4095	3929
72	0	0	1399	5	186	4095	3928
73	0	0	1511	5	183	4095	3929
74	0	0	1694	5	180	4095	3928
75	0	0	1913	5	178	4095	3928
76	0	0	2129	5	178	4095	3928
77	0	0	2340	5	177	4095	3928
78	0	0	2537	4	176	4095	3929
79	0	0	2688	5	176	4095	3930
80	0	0	2751	5	177	4095	3928
81	0	0	2755	4	179	4095	3930
82	0	0	2703	4	182	4095	3930
83	0	0	2589	3	183	4095	3929
84	0	0	2440	4	185	4095	3928
85	0	0	2287	4	186	4095	3928
86	0	0	2135	4	189	4095	3928
87	0	0	1973	4	191	4095	3928
88	0	0	1776	3	191	4095	3929
89	0	0	1569	4	192	4095	3928
90	0	0	1406	4	190	4095	3928
91	0	0	1336	4	187	4095	3928
92	0	0	1401	6	186	4095	3928
93	0	0	1561	4	182	4095	3929
94	0	0	1736	5	180	4095	3930
95	0	0	1909	6	179	4095	3928
96	0	0	2079	5	178	4095	3930
97	0	0	2248	5	176	4095	3930
98	0	0	2398	3	176	4095	3929
99	0	0	2543	4	176	4095	3928
100	0	0	2652	6	178	4095	3928
101	0	0	2704	5	179	4095	3928
102	0	0	2689	4	181	4095	3928
103	0	0	2611	4	181	4095	3928
104	0	0	2494	4	185	4095	3928
105	0	0	2336	4	187	4095	3929
106	0	0	2135	4	189	4095	3928
107	0	0	1904	4	190	4095	3928
108	0	0	1677	4	191	4095	3929
109	0	0	1483	4	191	4095	3928
110	0	0	1340	4	190	4095	3928
111	0	0	1273	5	188	4095	3929
112	0	0	1310	6	184	4095	3930
113	0	0	1418	6	183	4095	3929
114	0	0	1579	5	181	4095	3929
115	0	0	1780	5	178	4095	3928
116	0	0	1988	5	178	4095	3928
117	0	0	2203	5	175	4095	3928
118	0	0	2393	4	176	4095	3929
119	0	0	2535	5	177	4095	3929
120	0	0	2629	4	178	4095	3928
121	0	0	2662	5	179	4095	3929
122	0	0	2631	4	181	4095	3929
123	0	0	2563	4	183	4095	3929
124	0	0	2457	4	185	4095	3928
125	0	0	2302	4	187	4095	3928
126	0	0	2101	4	188	4095	3928
127	0	0	1882	4	191	4095	3928
0	0	0	1660	4	191	4095	3929
1	0	0	1475	4	191	4095	3928
2	0	0	1359	4	190	4095	3930
3	0	0	1309	4	188	4095	3928
4	0	0	1326	6	186	4095	3929
5	0	0	1422	6	181	4095	3929
6	0	0	1578	5	182	4095	3928
7	0	0	1775	5	180	4095	3928
8	0	0	2000	6	177	4095	3928
9	0	0	2209	5	175	4095	3928
10	0	0	2414	5	176	4095	3929
11	0	0	2569	4	177	4095	3928
12	0	0	2649	5	177	4095	3928
13	0	0	2681	4	179	4095	3928
14	0	0	2654	4	179	4095	3929
15	0	0	2560	4	181	4095	3929
16	0	0	2419	4	185	4095	3929
17	0	0	2252	5	187	4095	3928
18	0	0	2077	4	188	4095	3929
19	0	0	1884	4	190	4095	3930
20	0	0	1679	4	191	4095	3929
21	0	0	1514	4	192	4095	3930
22	0	0	1407	4	189	4095	3928
23	0	0	1354	5	188	4095	3928
24	0	0	1374	6	187	4095	3928
25	0	0	1471	5	183	4095	3929
26	0	0	1638	5	180	4095	3928
27	0	0	1827	5	178	4095	3929
28	0	0	2023	5	177	4095	3928
29	0	0	2196	5	177	4095	3928
30	0	0	2356	4	177	4095	3929
31	0	0	2491	5	176	4095	3928
32	0	0	2575	4	177	4095	3930
33	0	0	2611	5	179	4095	3928
34	0	0	2594	4	183	4095	3928
35	0	0	2539	4	183	4095	3929
36	0	0	2432	4	184	4095	3929
37	0	0	2287	4	186	4095	3929
38	0	0	2128	4	188	4095	3929
39	0	0	1945	4	191	4095	3929
40	0	0	1740	4	191	4095	3929
41	0	0	1559	4	191	4095	3928
42	0	0	1436	4	191	4095	3928
43	0	0	1377	5	187	4095	3928
44	0	0	1405	6	186	4095	3928
45	0	0	1492	5	183	4095	3929
46	0	0	1618	5	180	4095	3928
47	0	0	1782	5	178	4095	3928
48	0	0	1962	5	177	4095	3929
49	0	0	2155	5	177	4095	3929
50	0	0	2365	5	177	4095	3926
51	0	0	2547	4	177	4095	3930
52	0	0	2654	6	178	4095	3929
53	0	0	2687	5	179	4095	3929
54	0	0	2630	4	181	4095	3928
55	0	0	2521	4	182	4095	3929
56	0	0	2392	4	186	4095	3929
57	0	0	2242	4	187	4095	3928
58	0	0	2078	3	188	4095	3928
59	0	0	1922	4	192	4095	3928
60	0	0	1765	4	192	4095	3929
61	0	0	1611	4	191	4095	3928
62	0	0	1494	4	190	4095	3929
63	0	0	1434	4	187	4095	3928
64	0	0	1482	6	185	4095	3928
65	0	0	1622	5	183	4095	3929
66	0	0	1799	5	180	4095	3928
67	0	0	1997	5	179	4095	3928
68	0	0	2229	5	178	4095	3929
69	0	0	2461	5	176	4095	3929
70	0	0	2696	5	176	4095	3929
71	0	0	2902	5	177	4095	3929
72	0	0	3062	4	178	4095	3930
73	0	0	3182	5	179	4095	3928
74	0	0	3231	5	181	4095	3928
75	0	0	3229	5	183	4095	3929
76	0	0	3175	4	185	4095	3929
77	0	0	3068	4	187	4095	3928
78	0	0	2918	4	188	4095	3929
79	0	0	2743	4	191	4095	3929
80	0	0	2578	4	191	4095	3929
81	0	0	2468	4	190	4095	3928
82	0	0	2412	4	191	4095	3930
83	0	0	2417	6	188	4095	3928
84	0	0	2484	6	185	4095	3928
85	0	0	2608	6	182	4095	3929
86	0	0	2759	6	181	4095	3929
87	0	0	2914	5	179	4095	3928
88	0	0	3063	5	177	4095	3929
89	0	0	3201	5	177	4095	3929
90	0	0	3324	5	176	4095	3929
91	0	0	3391	5	176	4095	3928
92	0	0	3382	4	177	4095	3928
93	0	0	3314	3	179	4095	3928
94	0	0	3201	4	180	4095	3928
95	0	0	3044	4	183	4095	3929
96	0	0	2861	4	186	4095	3929
97	0	0	2655	4	186	4095	3930
98	0	0	2432	4	188	4095	3929
99	0	0	2188	4	191	4095	3929
100	0	0	1907	4	192	4095	3930
101	0	0	1659	4	191	4095	3929
102	0	0	1499	4	190	4095	3929
103	0	0	1411	3	187	4095	3929
104	0	0	1424	6	184	4095	3929
105	0	0	1523	6	182	4095	3929
106	0	0	1665	6	180	4095	3929
107	0	0	1823	5	179	4095	3928
108	0	0	2002	5	178	4095	3928
109	0	0	2200	4	176	4095	3929
110	0	0	2400	4	176	4095	3929
111	0	0	2565	5	177	4095	3929
112	0	0	2663	5	176	4095	3930
113	0	0	2698	4	179	4095	3929
114	0	0	2667	4	181	4095	3929
115	0	0	2575	4	183	4095	3930
116	0	0	2436	4	185	4095	3929
117	0	0	2274	4	187	4095	3930
118	0	0	2098	4	189	4095	3929
119	0	0	1900	4	190	4095	3929
120	0	0	1669	4	191	4095	3929
121	0	0	1457	4	191	4095	3930
122	0	0	1313	4	190	4095	3929
123	0	0	1233	4	188	4095	3929
124	0	0	1258	6	185	4095	3930
125	0	0	1361	6	183	4095	3929
126	0	0	1504	5	181	4095	3928
127	0	0	1670	5	179	4095	3929
0	0	0	1856	5	177	4095	3928
1	0	0	2066	4	177	4095	3923
2	0	0	2275	5	176	4095	3929
3	0	0	2451	4	177	4095	3929
4	0	0	2550	5	178	4095	3928
5	0	0	2576	5	180	4095	3929
6	0	0	2537	4	181	4095	3930
7	0	0	2447	4	183	4095	3930
8	0	0	2333	4	185	4095	3930
9	0	0	2193	4	187	4095	3929
10	0	0	2022	5	188	4095	3929
11	0	0	1840	4	190	4095	3929
12	0	0	1622	4	191	4095	3929
13	0	0	1412	6	191	4095	3929
14	0	0	1240	4	190	4095	3929
15	0	0	1141	5	188	4095	3929
16	0	0	1163	6	185	4095	3928
17	0	0	1314	6	183	4095	3929
18	0	0	1519	5	180	4095	3928
19	0	0	1715	6	179	4095	3928
20	0	0	1902	5	178	4095	3929
21	0	0	2097	4	176	4095	3929
22	0	0	2275	5	176	4095	3929
23	0	0	2426	5	177	4095	3930
24	0	0	2507	4	177	4095	3929
25	0	0	2531	5	179	4095	3929
26	0	0	2519	4	181	4095	3930
27	0	0	2451	4	183	4095	3929
28	0	0	2339	4	185	4095	3930
29	0	0	2193	3	187	4095	3928
30	0	0	2036	4	189	4095	3928
31	0	0	1875	4	191	4095	3929
32	0	0	1670	4	190	4095	3929
33	0	0	1452	4	191	4095	3930
34	0	0	1293	5	190	4095	3928
35	0	0	1218	4	187	4095	3929
36	0	0	1249	6	185	4095	3930
37	0	0	1353	6	183	4095	3929
38	0	0	1518	5	181	4095	3930
39	0	0	1716	6	179	4095	3929
40	0	0	1901	5	177	4095	3929
41	0	0	2083	5	176	4095	3930
42	0	0	2264	5	176	4095	3930
43	0	0	2413	6	177	4095	3930
44	0	0	2502	4	177	4095	3930
45	0	0	2537	5	179	4095	3929
46	0	0	2529	4	181	4095	3928
47	0	0	2471	4	183	4095	3929
48	0	0	2362	4	184	4095	3929
49	0	0	2202	3	186	4095	3928
50	0	0	2030	4	188	4095	3928
51	0	0	1848	4	192	4095	3929
52	0	0	1616	4	191	4095	3929
53	0	0	1406	4	191	4095	3929
54	0	0	1265	4	189	4095	3929
55	0	0	1213	4	187	4095	3929
56	0	0	1268	6	186	4095	3929
57	0	0	1397	6	182	4095	3929
58	0	0	1568	6	180	4095	3931
59	0	0	1757	5	178	4095	3929
60	0	0	1939	5	177	4095	3929
61	0	0	2105	5	177	4095	3929
62	0	0	2270	5	177	4095	3929
63	0	0	2432	5	177	4095	3929
64	0	0	2544	4	178	4095	3928
65	0	0	2587	4	179	4095	3928
66	0	0	2589	5	181	4095	3928
67	0	0	2529	4	182	4095	3930
68	0	0	2393	3	185	4095	3929
69	0	0	2215	4	186	4095	3930
70	0	0	2010	4	189	4095	3929
71	0	0	1816	4	190	4095	3929
72	0	0	1611	4	191	4095	3930
73	0	0	1412	4	191	4095	3929
74	0	0	1279	4	190	4095	3928
75	0	0	1213	4	187	4095	3929
76	0	0	1234	5	185	4095	3930
77	0	0	1326	5	182	4095	3929
78	0	0	1480	5	179	4095	3928
79	0	0	1694	5	179	4095	3929
80	0	0	1938	5	178	4095	3928
81	0	0	2181	5	177	4095	3929
82	0	0	2374	5	175	4095	3929
83	0	0	2490	5	177	4095	3929
84	0	0	2554	4	177	4095	3929
85	0	0	2580	5	179	4095	3928
86	0	0	2536	4	180	4095	3928
87	0	0	2456	4	182	4095	3929
88	0	0	2361	4	185	4095	3929
89	0	0	2232	5	187	4095	3929
90	0	0	2078	4	187	4095	3929
91	0	0	1914	4	191	4095	3929
92	0	0	1717	4	191	4095	3930
93	0	0	1509	4	191	4095	3929
94	0	0	1344	4	189	4095	3928
95	0	0	1245	4	187	4095	3929
96	0	0	1266	5	186	4095	3929
97	0	0	1394	5	181	4095	3929
98	0	0	1578	6	180	4095	3929
99	0	0	1788	5	179	4095	3928
100	0	0	1999	5	177	4095	3928
101	0	0	2185	5	177	4095	3928
102	0	0	2348	5	175	4095	3929
103	0	0	2493	5	176	4095	3928
104	0	0	2611	5	178	4095	3928
105	0	0	2686	4	178	4095	3929
106	0	0	2713	5	181	4095	3929
107	0	0	2656	4	182	4095	3930
108	0	0	2524	4	185	4095	3929
109	0	0	2324	4	186	4095	3928
110	0	0	2102	4	189	4095	3929
111	0	0	1892	5	191	4095	3929
112	0	0	1684	4	190	4095	3929
113	0	0	1509	4	190	4095	3928
114	0	0	1400	4	190	4095	3928
115	0	0	1351	4	188	4095	3928
116	0	0	1389	6	186	4095	3929
117	0	0	1507	5	182	4095	3930
118	0	0	1661	5	180	4095	3928
119	0	0	1842	5	178	4095	3928
120	0	0	2035	5	178	4095	3929
121	0	0	2227	5	177	4095	3929
122	0	0	2416	5	175	4095	3929
123	0	0	2575	4	177	4095	3930
124	0	0	2671	5	177	4095	3929
125	0	0	2700	5	179	4095	3929
126	0	0	2695	4	181	4095	3929
127	0	0	2624	4	182	4095	3929
0	0	0	2497	4	185	4095	3928
1	0	0	2334	3	186	4095	3929
2	0	0	2146	4	188	4095	3928
3	0	0	1946	4	190	4095	3928
4	0	0	1726	4	192	4095	3929
5	0	0	1544	4	191	4095	3928
6	0	0	1408	4	189	4095	3928
7	0	0	1338	4	187	4095	3929
8	0	0	1373	5	185	4095	3929
9	0	0	1503	6	182	4095	3929
10	0	0	1682	5	180	4095	3929
11	0	0	1873	5	178	4095	3928
12	0	0	2069	4	177	4095	3928
13	0	0	2236	5	177	4095	3929
14	0	0	2403	5	177	4095	3929
15	0	0	2567	5	176	4095	3930
16	0	0	2691	6	177	4095	3928
17	0	0	2744	5	179	4095	3929
18	0	0	2741	4	181	4095	3929
19	0	0	2681	4	183	4095	3930
20	0	0	2545	4	184	4095	3928
21	0	0	2354	4	187	4095	3928
22	0	0	2149	4	187	4095	3929
23	0	0	1955	4	191	4095	3928
24	0	0	1763	4	193	4095	3929
25	0	0	1594	4	191	4095	3928
26	0	0	1471	4	189	4095	3928
27	0	0	1424	5	187	4095	3929
28	0	0	1476	5	185	4095	3930
29	0	0	1606	5	182	4095	3929
30	0	0	1777	5	181	4095	3929
31	0	0	1952	5	178	4095	3929
32	0	0	2137	5	178	4095	3929
33	0	0	2317	5	176	4095	3929
34	0	0	2491	4	176	4095	3929
35	0	0	2605	5	176	4095	3928
36	0	0	2673	4	178	4095	3928
37	0	0	2736	4	178	4095	3929
38	0	0	2761	5	180	4095	3929
39	0	0	2718	4	184	4095	3929
40	0	0	2612	4	185	4095	3930
41	0	0	2444	3	186	4095	3928
42	0	0	2240	3	187	4095	3929
43	0	0	2034	4	191	4095	3930
44	0	0	1824	4	191	4095	3929
45	0	0	1639	4	190	4095	3929
46	0	0	1506	5	189	4095	3928
47	0	0	1437	4	187	4095	3929
48	0	0	1471	6	185	4095	3929
49	0	0	1602	5	183	4095	3929
50	0	0	1778	5	181	4095	3928
51	0	0	1983	5	179	4095	3928
52	0	0	2179	5	178	4095	3928
53	0	0	2352	5	177	4095	3928
54	0	0	2514	5	176	4095	3929
55	0	0	2662	5	176	4095	3928
56	0	0	2767	5	178	4095	3930
57	0	0	2794	4	180	4095	3929
58	0	0	2751	4	181	4095	3929
59	0	0	2669	4	184	4095	3930
60	0	0	2522	4	185	4095	3928
61	0	0	2339	3	186	4095	3930
62	0	0	2164	4	188	4095	3929
63	0	0	2010	4	191	4095	3929
64	0	0	1822	4	193	4095	3930
65	0	0	1631	4	191	4095	3929
66	0	0	1470	4	190	4095	3928
67	0	0	1368	4	186	4095	3929
68	0	0	1373	6	185	4095	3928
69	0	0	1492	6	182	4095	3929
70	0	0	1678	5	181	4095	3928
71	0	0	1899	5	178	4095	3930
72	0	0	2125	5	178	4095	3928
73	0	0	2309	5	176	4095	3929
74	0	0	2484	5	175	4095	3929
75	0	0	2638	4	176	4095	3928
76	0	0	2727	5	178	4095	3928
77	0	0	2750	4	179	4095	3930
78	0	0	2708	4	181	4095	3930
79	0	0	2614	4	182	4095	3930
80	0	0	2486	4	184	4095	3929
81	0	0	2337	3	186	4095	3930
82	0	0	2182	4	189	4095	3929
83	0	0	1993	4	191	4095	3928
84	0	0	1767	4	191	4095	3929
85	0	0	1548	4	191	4095	3928
86	0	0	1407	4	189	4095	3928
87	0	0	1342	4	188	4095	3928
88	0	0	1349	6	184	4095	3928
89	0	0	1423	5	182	4095	3929
90	0	0	1570	5	180	4095	3928
91	0	0	1767	5	180	4095	3928
92	0	0	1987	5	179	4095	3928
93	0	0	2203	5	176	4095	3929
94	0	0	2396	4	176	4095	3930
95	0	0	2555	5	176	4095	3929
96	0	0	2652	3	177	4095	3930
97	0	0	2676	4	179	4095	3929
98	0	0	2644	4	181	4095	3929
99	0	0	2563	4	182	4095	3929
100	0	0	2420	4	185	4095	3928
101	0	0	2227	4	187	4095	3928
102	0	0	2048	3	188	4095	3929
103	0	0	1887	4	190	4095	3929
104	0	0	1689	4	192	4095	3929
105	0	0	1489	4	190	4095	3928
106	0	0	1345	4	191	4095	3928
107	0	0	1284	4	187	4095	3928
108	0	0	1326	6	184	4095	3929
109	0	0	1462	5	183	4095	3930
110	0	0	1645	6	180	4095	3929
111	0	0	1835	5	179	4095	3929
112	0	0	2026	5	178	4095	3929
113	0	0	2211	5	176	4095	3929
114	0	0	2386	5	175	4095	3929
115	0	0	2510	5	177	4095	3929
116	0	0	2562	5	178	4095	3928
117	0	0	2569	4	179	4095	3928
118	0	0	2555	4	182	4095	3929
119	0	0	2508	4	183	4095	3929
120	0	0	2420	4	185	4095	3928
121	0	0	2274	4	187	4095	3928
122	0	0	2074	4	187	4095	3928
123	0	0	1848	4	191	4095	3929
124	0	0	1614	4	192	4095	3929
125	0	0	1421	4	190	4095	3930
126	0	0	1298	4	189	4095	3929
127	0	0	1240	4	186	4095	3929
0	0	0	1293	5	184	4095	3929
1	0	0	1451	6	182	4095	3929
2	0	0	1638	6	180	4095	3929
3	0	0	1827	5	180	4095	3929
4	0	0	2008	5	178	4095	3928
5	0	0	2173	5	176	4095	3929
6	0	0	2317	5	176	4095	3929
7	0	0	2433	5	177	4095	3928
8	0	0	2508	4	178	4095	3928
9	0	0	2554	4	178	4095	3928
10	0	0	2543	4	180	4095	3929
11	0	0	2488	4	182	4095	3929
12	0	0	2393	4	184	4095	3929
13	0	0	2281	4	187	4095	3928
14	0	0	2142	4	188	4095	3929
15	0	0	1969	4	191	4095	3930
16	0	0	1753	4	190	4095	3929
17	0	0	1533	5	191	4095	3928
18	0	0	1372	4	190	4095	3930
19	0	0	1295	4	187	4095	3929
20	0	0	1321	5	185	4095	3929
21	0	0	1424	6	182	4095	3929
22	0	0	1577	5	180	4095	3928
23	0	0	1759	6	180	4095	3928
24	0	0	1958	5	178	4095	3929
25	0	0	2149	5	177	4095	3929
26	0	0	2322	5	175	4095	3929
27	0	0	2469	5	176	4095	3928
28	0	0	2554	7	177	4095	3928
29	0	0	2596	4	179	4095	3928
30	0	0	2593	4	182	4095	3929
31	0	0	2542	4	182	4095	3930
32	0	0	2449	4	186	4095	3928
33	0	0	2319	4	187	4095	3929
34	0	0	2150	4	188	4095	3929
35	0	0	1927	4	191	4095	3930
36	0	0	1663	4	191	4095	3929
37	0	0	1437	4	190	4095	3929
38	0	0	1279	4	190	4095	3928
39	0	0	1218	4	187	4095	3929
40	0	0	1280	6	184	4095	3929
41	0	0	1434	5	181	4095	3929
42	0	0	1622	6	179	4095	3928
43	0	0	1792	5	179	4095	3929
44	0	0	1967	5	177	4095	3928
45	0	0	2153	5	177	4095	3929
46	0	0	2324	5	175	4095	3929
47	0	0	2446	4	177	4095	3929
48	0	0	2485	5	179	4095	3928
49	0	0	2518	4	180	4095	3928
50	0	0	2524	5	182	4095	3929
51	0	0	2480	4	183	4095	3929
52	0	0	2385	4	185	4095	3929
53	0	0	2233	4	186	4095	3928
54	0	0	2073	4	188	4095	3929
55	0	0	1901	4	191	4095	3929
56	0	0	1694	4	190	4095	3929
57	0	0	1491	5	190	4095	3928
58	0	0	1357	4	190	4095	3929
59	0	0	1297	4	186	4095	3928
60	0	0	1318	6	183	4095	3929
61	0	0	1415	5	181	4095	3931
62	0	0	1565	5	181	4095	3928
63	0	0	1756	7	178	4095	3928
64	0	0	1968	5	177	4095	3929
65	0	0	2166	5	176	4095	3929
66	0	0	2355	5	175	4095	3929
67	0	0	2517	5	177	4095	3930
68	0	0	2627	5	178	4095	3928
69	0	0	2678	4	179	4095	3929
70	0	0	2657	4	182	4095	3930
71	0	0	2570	4	183	4095	3929
72	0	0	2439	4	184	4095	3928
73	0	0	2278	4	187	4095	3929
74	0	0	2107	4	188	4095	3929
75	0	0	1917	4	191	4095	3928
76	0	0	1698	4	191	4095	3929
77	0	0	1492	4	191	4095	3928
78	0	0	1352	5	189	4095	3928
79	0	0	1284	4	188	4095	3929
80	0	0	1320	5	184	4095	3929
81	0	0	1441	5	183	4095	3929
82	0	0	1605	5	181	4095	3928
83	0	0	1803	4	179	4095	3929
84	0	0	2003	5	178	4095	3929
85	0	0	2197	5	176	4095	3929
86	0	0	2388	5	177	4095	3929
87	0	0	2546	5	177	4095	3928
88	0	0	2634	4	177	4095	3929
89	0	0	2665	4	178	4095	3929
90	0	0	2675	5	181	4095	3928
91	0	0	2620	4	182	4095	3929
92	0	0	2483	4	185	4095	3928
93	0	0	2290	4	186	4095	3928
94	0	0	2083	3	188	4095	3929
95	0	0	1886	3	191	4095	3929
96	0	0	1675	4	191	4095	3928
97	0	0	1506	4	190	4095	3928
98	0	0	1371	4	190	4095	3930
99	0	0	1293	5	187	4095	3929
100	0	0	1319	6	185	4095	3929
101	0	0	1439	5	181	4095	3929
102	0	0	1619	6	181	4095	3929
103	0	0	1819	5	179	4095	3928
104	0	0	2023	5	178	4095	3929
105	0	0	2216	5	176	4095	3929
106	0	0	2390	5	176	4095	3929
107	0	0	2535	4	177	4095	3928
108	0	0	2641	4	177	4095	3928
109	0	0	2696	4	179	4095	3928
110	0	0	2671	4	180	4095	3929
111	0	0	2584	4	181	4095	3927
112	0	0	2450	4	185	4095	3930
113	0	0	2278	3	187	4095	3928
114	0	0	2105	4	189	4095	3928
115	0	0	1925	4	192	4095	3929
116	0	0	1706	4	192	4095	3929
117	0	0	1503	4	191	4095	3928
118	0	0	1375	4	190	4095	3928
119	0	0	1330	4	188	4095	3929
120	0	0	1386	6	185	4095	3929
121	0	0	1522	5	181	4095	3929
122	0	0	1681	6	180	4095	3928
123	0	0	1862	5	179	4095	3928
124	0	0	2039	5	178	4095	3928
125	0	0	2207	5	177	4095	3929
126	0	0	2360	5	176	4095	3929
127	0	0	2484	5	176	4095	3928
0	0	0	2561	5	177	4095	3928
1	0	0	2608	3	179	4095	3928
2	0	0	2638	5	180	4095	3930
3	0	0	2622	4	183	4095	3929
4	0	0	2524	4	186	4095	3930
5	0	0	2349	4	186	4095	3928
6	0	0	2134	4	189	4095	3929
7	0	0	1916	4	190	4095	3929
8	0	0	1689	4	190	4095	3929
9	0	0	1511	4	190	4095	3929
10	0	0	1387	4	190	4095	3929
11	0	0	1310	4	187	4095	3929
12	0	0	1329	6	185	4095	3928
13	0	0	1440	5	182	4095	3929
14	0	0	1615	5	181	4095	3928
15	0	0	1829	5	178	4095	3928
16	0	0	2048	4	178	4095	3928
17	0	0	2239	5	177	4095	3928
18	0	0	2432	5	176	4095	3929
19	0	0	2599	5	176	4095	3928
20	0	0	2692	5	178	4095	3928
21	0	0	2711	4	179	4095	3929
22	0	0	2663	4	181	4095	3930
23	0	0	2572	4	184	4095	3929
24	0	0	2446	4	186	4095	3930
25	0	0	2284	3	187	4095	3928
26	0	0	2103	3	189	4095	3928
27	0	0	1918	4	190	4095	3928
28	0	0	1714	4	191	4095	3929
29	0	0	1534	4	191	4095	3928
30	0	0	1401	4	190	4095	3929
31	0	0	1323	4	188	4095	3928
32	0	0	1340	5	185	4095	3928
33	0	0	1450	6	182	4095	3929
34	0	0	1614	5	181	4095	3928
35	0	0	1804	5	179	4095	3928
36	0	0	2023	4	178	4095	3928
37	0	0	2217	5	176	4095	3930
38	0	0	2387	5	176	4095	3929
39	0	0	2537	5	177	4095	3928
40	0	0	2634	5	179	4095	3929
41	0	0	2698	4	179	4095	3929
42	0	0	2706	5	181	4095	3929
43	0	0	2634	4	182	4095	3929
44	0	0	2480	4	184	4095	3928
45	0	0	2279	4	187	4095	3928
46	0	0	2077	4	189	4095	3928
47	0	0	1893	4	190	4095	3928
48	0	0	1700	4	190	4095	3929
49	0	0	1519	4	191	4095	3928
50	0	0	1377	4	190	4095	3929
51	0	0	1313	4	187	4095	3928
52	0	0	1353	6	185	4095	3931
53	0	0	1460	5	182	4095	3930
54	0	0	1630	6	180	4095	3928
55	0	0	1829	5	179	4095	3930
56	0	0	2024	4	178	4095	3929
57	0	0	2217	5	176	4095	3929
58	0	0	2402	4	176	4095	3930
59	0	0	2543	4	177	4095	3928
60	0	0	2626	5	177	4095	3928
61	0	0	2669	3	179	4095	3929
62	0	0	2664	4	181	4095	3928
63	0	0	2587	4	183	4095	3929
64	0	0	2444	3	184	4095	3928
65	0	0	2266	4	187	4095	3928
66	0	0	2084	3	188	4095	3928
67	0	0	1917	4	191	4095	3928
68	0	0	1736	4	192	4095	3929
69	0	0	1570	4	190	4095	3928
70	0	0	1441	4	189	4095	3928
71	0	0	1374	5	188	4095	3929
72	0	0	1403	6	185	4095	3930
73	0	0	1521	5	182	4095	3929
74	0	0	1666	5	181	4095	3930
75	0	0	1822	4	179	4095	3929
76	0	0	1983	4	178	4095	3929
77	0	0	2156	5	176	4095	3929
78	0	0	2330	4	176	4095	3929
79	0	0	2485	4	176	4095	3928
80	0	0	2585	5	177	4095	3928
81	0	0	2639	5	179	4095	3928
82	0	0	2637	4	181	4095	3928
83	0	0	2572	4	183	4095	3929
84	0	0	2459	4	185	4095	3928
85	0	0	2310	4	186	4095	3930
86	0	0	2138	4	188	4095	3929
87	0	0	1935	4	191	4095	3928
88	0	0	1716	4	192	4095	3930
89	0	0	1534	5	191	4095	3929
90	0	0	1418	4	189	4095	3929
91	0	0	1359	4	187	4095	3929
92	0	0	1386	6	184	4095	3928
93	0	0	1492	6	183	4095	3929
94	0	0	1638	5	181	4095	3928
95	0	0	1809	5	179	4095	3928
96	0	0	2001	6	179	4095	3928
97	0	0	2209	5	176	4095	3928
98	0	0	2406	5	176	4095	3929
99	0	0	2549	5	177	4095	3928
100	0	0	2651	4	177	4095	3928
101	0	0	2696	4	179	4095	3929
102	0	0	2694	5	181	4095	3929
103	0	0	2631	4	183	4095	3929
104	0	0	2511	4	186	4095	3930
105	0	0	2346	4	189	4095	3928
106	0	0	2156	3	189	4095	3929
107	0	0	1964	4	191	4095	3929
108	0	0	1749	4	191	4095	3930
109	0	0	1542	4	190	4095	3928
110	0	0	1388	4	190	4095	3930
111	0	0	1312	4	187	4095	3928
112	0	0	1341	5	184	4095	3928
113	0	0	1459	5	182	4095	3929
114	0	0	1626	6	180	4095	3928
115	0	0	1818	5	178	4095	3928
116	0	0	2024	5	178	4095	3928
117	0	0	2220	4	176	4095	3929
118	0	0	2420	5	177	4095	3929
119	0	0	2597	5	177	4095	3929
120	0	0	2690	5	178	4095	3928
121	0	0	2703	5	178	4095	3929
122	0	0	2665	4	182	4095	3930
123	0	0	2595	4	183	4095	3929
124	0	0	2483	4	185	4095	3929
125	0	0	2316	4	187	4095	3929
126	0	0	2142	4	187	4095	3929
127	0	0	1951	4	191	4095	3929
0	0	0	1734	4	191	4095	3929
1	0	0	1523	4	191	4095	3929
2	0	0	1376	5	191	4095	3928
3	0	0	1301	5	188	4095	3928
4	0	0	1319	5	185	4095	3928
5	0	0	1449	5	183	4095	3929
6	0	0	1650	5	180	4095	3928
7	0	0	1867	5	178	4095	3928
8	0	0	2057	5	177	4095	3928
9	0	0	2231	5	176	4095	3929
10	0	0	2395	5	175	4095	3930
11	0	0	2535	4	177	4095	3928
12	0	0	2637	5	177	4095	3930
13	0	0	2687	5	179	4095	3929
14	0	0	2684	4	181	4095	3929
15	0	0	2624	4	182	4095	3929
16	0	0	2491	4	184	4095	3928
17	0	0	2321	4	186	4095	3928
18	0	0	2146	4	189	4095	3928
19	0	0	1949	4	190	4095	3928
20	0	0	1723	4	192	4095	3928
21	0	0	1527	4	191	4095	3929
22	0	0	1392	4	189	4095	3928
23	0	0	1316	4	187	4095	3929
24	0	0	1335	6	185	4095	3929
25	0	0	1445	6	183	4095	3929
26	0	0	1622	5	182	4095	3928
27	0	0	1821	5	179	4095	3929
28	0	0	2012	5	177	4095	3929
29	0	0	2213	4	176	4095	3929
30	0	0	2421	4	176	4095	3929
31	0	0	2598	5	177	4095	3928
32	0	0	2694	4	178	4095	3928
33	0	0	2736	5	179	4095	3928
34	0	0	2699	4	180	4095	3928
35	0	0	2612	4	182	4095	3929
36	0	0	2484	4	185	4095	3928
37	0	0	2329	4	187	4095	3929
38	0	0	2143	4	189	4095	3928
39	0	0	1941	4	190	4095	3928
40	0	0	1714	4	192	4095	3930
41	0	0	1510	5	191	4095	3928
42	0	0	1378	4	190	4095	3928
43	0	0	1323	4	187	4095	3929
44	0	0	1347	5	184	4095	3928
45	0	0	1478	5	181	4095	3929
46	0	0	1640	5	181	4095	3930
47	0	0	1824	6	180	4095	3929
48	0	0	2025	5	178	4095	3929
49	0	0	2245	4	176	4095	3929
50	0	0	2456	4	175	4095	3929
51	0	0	2609	4	177	4095	3928
52	0	0	2690	5	177	4095	3929
53	0	0	2708	4	179	4095	3928
54	0	0	2671	4	181	4095	3928
55	0	0	2592	4	183	4095	3929
56	0	0	2471	4	185	4095	3928
57	0	0	2328	4	187	4095	3928
58	0	0	2167	4	189	4095	3928
59	0	0	1978	4	189	4095	3928
60	0	0	1768	4	191	4095	3929
61	0	0	1584	4	191	4095	3928
62	0	0	1449	4	189	4095	3929
63	0	0	1373	4	187	4095	3929
64	0	0	1391	5	185	4095	3929
65	0	0	1494	5	182	4095	3929
66	0	0	1637	5	180	4095	3928
67	0	0	1815	5	179	4095	3928
68	0	0	2018	5	177	4095	3928
69	0	0	2223	4	176	4095	3928
70	0	0	2422	5	177	4095	3929
71	0	0	2582	5	176	4095	3928
72	0	0	2665	4	177	4095	3928
73	0	0	2701	5	180	4095	3928
74	0	0	2680	4	180	4095	3930
75	0	0	2598	4	183	4095	3929
76	0	0	2471	4	185	4095	3930
77	0	0	2303	5	186	4095	3929
78	0	0	2124	3	188	4095	3929
79	0	0	1943	4	192	4095	3930
80	0	0	1727	4	192	4095	3929
81	0	0	1527	4	191	4095	3930
82	0	0	1387	5	190	4095	3929
83	0	0	1325	5	187	4095	3929
84	0	0	1367	5	185	4095	3930
85	0	1	1499	5	181	4095	3928
86	0	1	1691	5	181	4095	3929
87	0	1	1893	5	178	4095	3928
88	0	1	2085	6	177	4095	3928
89	0	1	2268	5	176	4095	3929
90	0	1	2425	5	176	4095	3929
91	0	1	2560	5	176	4095	3928
92	0	1	2660	4	178	4095	3928
93	0	1	2707	5	179	4095	3928
94	0	1	2713	4	180	4095	3929
95	0	1	2659	4	183	4095	3929
96	0	1	2552	4	185	4095	3929
97	0	1	2383	4	187	4095	3928
98	0	1	2196	4	188	4095	3928
99	0	1	1999	4	190	4095	3928
100	0	1	1774	4	192	4095	3929
101	0	1	1564	4	191	4095	3928
102	0	1	1420	4	190	4095	3929
103	0	1	1339	4	187	4095	3928
104	0	1	1363	6	185	4095	3928
105	0	1	1493	5	182	4095	3930
106	0	1	1652	5	181	4095	3928
107	0	1	1835	5	178	4095	3930
108	0	1	2040	5	178	4095	3929
109	0	1	2237	5	177	4095	3929
110	0	1	2410	5	176	4095	3929
111	0	1	2548	5	176	4095	3929
112	0	1	2641	5	177	4095	3929
113	0	1	2707	6	179	4095	3929
114	0	1	2706	4	180	4095	3928
115	0	1	2632	4	183	4095	3929
116	0	1	2501	4	185	4095	3928
117	0	1	2327	4	187	4095	3928
118	0	1	2134	4	188	4095	3928
119	0	1	1937	4	191	4095	3928
120	0	1	1724	4	192	4095	3929
121	0	1	1549	4	191	4095	3929
122	0	1	1426	6	189	4095	3928
123	0	1	1348	5	187	4095	3929
124	0	1	1380	5	185	4095	3930
125	0	1	1508	5	182	4095	3929
126	0	1	1693	5	181	4095	3930
127	0	1	1891	6	179	4095	3928
0	0	1	2094	5	178	4095	3929
1	0	1	2283	4	176	4095	3929
2	0	1	2466	4	175	4095	3929
3	0	1	2625	4	177	4095	3928
4	0	1	2732	5	178	4095	3928
5	0	1	2778	5	178	4095	3928
6	0	1	2747	4	181	4095	3929
7	0	1	2674	4	183	4095	3929
8	0	1	2573	4	185	4095	3928
9	0	1	2425	4	186	4095	3928
10	0	1	2238	4	188	4095	3928
11	0	1	2036	4	191	4095	3929
12	0	1	1809	4	191	4095	3929
13	0	1	1607	4	191	4095	3928
14	0	1	1452	4	189	4095	3930
15	0	1	1371	4	188	4095	3930
16	0	1	1403	5	185	4095	3930
17	0	1	1520	5	182	4095	3929
18	1	1	1684	6	180	4095	3929
19	1	1	1869	5	179	4095	3929
20	1	1	2060	6	178	4095	3929
21	1	1	2259	4	175	4095	3928
22	1	1	2462	5	176	4095	3929
23	1	1	2630	4	176	4095	3928
24	1	1	2761	5	177	4095	3928
25	1	1	2826	5	179	4095	3928
26	1	1	2809	4	181	4095	3928
27	1	1	2739	4	183	4095	3929
28	1	1	2616	4	185	4095	3929
29	1	1	2428	4	186	4095	3928
30	1	1	2234	5	188	4095	3929
31	1	1	2026	4	190	4095	3930
32	1	1	1782	4	192	4095	3929
33	1	1	1571	4	190	4095	3932
34	1	1	1419	4	191	4095	3928
35	1	1	1353	5	187	4095	3929
36	1	1	1401	6	185	4095	3930
37	1	1	1543	6	182	4095	3929
38	1	1	1741	5	181	4095	3929
39	1	1	1958	5	178	4095	3930
40	1	1	2172	6	177	4095	3928
41	1	1	2345	5	176	4095	3928
42	1	1	2486	5	176	4095	3929
43	1	1	2612	5	177	4095	3929
44	1	1	2696	5	178	4095	3928
45	1	1	2725	5	179	4095	3928
46	1	1	2683	4	181	4095	3928
47	1	1	2610	4	182	4095	3929
48	1	1	2494	4	185	4095	3928
49	1	1	2348	4	186	4095	3930
50	1	1	2178	4	188	4095	3930
51	1	1	1986	4	190	4095	3929
52	1	1	1763	4	191	4095	3929
53	1	1	1583	4	191	4095	3930
54	1	1	1452	5	190	4095	3928
55	1	1	1393	5	188	4095	3929
56	1	1	1437	5	185	4095	3928
57	1	1	1568	6	182	4095	3929
58	1	1	1735	5	182	4095	3929
59	1	1	1923	5	179	4095	3930
60	1	1	2121	5	177	4095	3928
61	1	1	2281	4	176	4095	3929
62	1	1	2440	5	177	4095	3930
63	1	1	2587	4	177	4095	3928
64	1	1	2694	4	177	4095	3930
65	1	1	2734	5	179	4095	3929
66	1	1	2695	4	180	4095	3929
67	1	1	2617	4	183	4095	3929
68	1	1	2496	4	186	4095	3929
69	1	1	2328	4	187	4095	3929
70	1	1	2131	4	189	4095	3928
71	1	1	1929	4	190	4095	3928
72	1	1	1715	4	191	4095	3929
73	1	1	1527	4	191	4095	3930
74	1	1	1391	4	189	4095	3928
75	1	1	1325	4	188	4095	3928
76	1	1	1355	6	185	4095	3929
77	1	1	1441	5	182	4095	3929
78	1	1	1580	6	181	4095	3928
79	1	1	1783	5	178	4095	3928
80	1	1	2015	5	177	4095	3929
81	1	1	2232	5	177	4095	3929
82	1	1	2419	5	176	4095	3929
83	1	1	2554	5	176	4095	3929
84	1	1	2632	4	178	4095	3929
85	1	1	2662	5	179	4095	3929
86	1	1	2639	4	180	4095	3929
87	1	1	2563	4	183	4095	3929
88	1	1	2433	4	186	4095	3930
89	1	1	2276	4	186	4095	3929
90	1	1	2102	4	188	4095	3929
91	1	1	1898	4	190	4095	3930
92	1	1	1658	4	191	4095	3929
93	1	1	1464	4	190	4095	3928
94	1	1	1365	4	189	4095	3929
95	1	1	1327	5	187	4095	3928
96	1	1	1363	5	183	4095	3929
97	1	1	1473	5	182	4095	3929
98	1	1	1630	5	180	4095	3928
99	1	1	1808	5	178	4095	3929
100	1	1	1998	5	178	4095	3929
101	1	1	2191	5	177	4095	3929
102	1	1	2383	5	176	4095	3929
103	1	1	2545	5	177	4095	3930
104	1	1	2622	5	178	4095	3929
105	1	1	2628	5	180	4095	3928
106	1	1	2580	4	181	4095	3928
107	1	1	2512	4	183	4095	3930
108	1	1	2405	4	185	4095	3928
109	1	1	2252	4	187	4095	3929
110	1	1	2080	4	188	4095	3928
111	1	1	1912	4	190	4095	3928
112	1	1	1724	4	192	4095	3925
113	1	1	1544	4	191	4095	3928
114	1	1	1396	4	190	4095	3929
115	1	1	1307	4	187	4095	3928
116	1	1	1336	5	185	4095	3929
117	1	1	1457	5	182	4095	3929
118	1	1	1613	5	180	4095	3929
119	1	1	1795	5	179	4095	3929
120	1	1	1985	6	178	4095	3928
121	1	1	2172	5	176	4095	3929
122	1	1	2358	5	176	4095	3929
123	1	1	2531	5	177	4095	3928
124	1	1	2657	5	178	4095	3928
125	1	1	2712	5	179	4095	3928
126	1	1	2686	4	181	4095	3928
127	1	1	2588	4	183	4095	3929
0	1	1	2441	4	185	4095	3928
1	1	1	2273	3	187	4095	3928
2	1	1	2114	4	189	4095	3928
3	1	1	1944	4	191	4095	3928
4	1	1	1733	4	192	4095	3929
5	1	1	1518	4	191	4095	3929
6	1	1	1363	5	189	4095	3929
7	1	1	1292	4	187	4095	3929
8	1	1	1329	6	184	4095	3929
9	1	1	1448	5	183	4095	3929
10	1	1	1601	5	181	4095	3928
11	1	1	1778	4	178	4095	3928
12	1	1	1974	5	178	4095	3928
13	1	1	2177	5	176	4095	3928
