# bioPlux Text File Format
# Version: 1
# StartDateTime: 2011-07-19 10:15:45
# SamplingFrequency: 1000
# SampledChannels: 1 2 3 4 5
# SamplingResolution: 12
# AcquiringDevice: 00:07:80:42:0F:95
# EndOfHeader
0	0	0	2051	4	186	899	2806
1	0	0	2030	4	185	899	2806
2	0	0	2002	5	185	899	2809
3	0	0	2002	5	185	899	2812
4	0	0	2005	5	185	899	2815
5	0	0	2005	5	185	899	2818
6	0	0	2013	5	184	898	2819
7	0	0	2020	5	184	899	2819
8	0	0	2003	4	181	899	2816
9	0	0	1986	4	181	899	2809
10	0	0	1962	5	181	899	2806
11	0	0	1944	5	181	898	2806
12	0	0	1949	4	183	899	2809
13	0	0	1978	5	182	899	2812
14	0	0	2022	5	182	898	2816
15	0	0	2071	5	183	899	2818
16	0	0	2104	5	182	899	2819
17	0	0	2137	4	183	899	2818
18	0	0	2149	5	184	899	2815
19	0	0	2144	5	185	899	2809
20	0	0	2154	6	185	899	2805
21	0	0	2134	4	183	899	2806
22	0	0	2111	5	185	899	2809
23	0	0	2098	4	185	899	2812
24	0	0	2054	4	184	899	2815
25	0	0	2001	5	184	898	2818
26	0	0	1993	5	182	899	2819
27	0	0	1998	5	184	899	2819
28	0	0	1990	5	183	899	2816
29	0	0	1975	4	182	899	2809
30	0	0	1950	4	181	899	2805
31	0	0	1954	5	181	898	2806
32	0	0	1986	4	182	899	2809
33	0	0	2022	5	182	898	2812
34	0	0	2036	5	183	898	2815
35	0	0	2045	5	183	899	2818
36	0	0	2089	5	183	899	2820
37	0	0	2152	4	184	899	2818
38	0	0	2183	5	183	898	2815
39	0	0	2182	5	185	899	2809
40	0	0	2173	4	185	899	2805
41	0	0	2133	4	186	899	2806
42	0	0	2080	4	185	899	2808
43	0	0	2043	4	185	899	2812
44	0	0	2036	5	185	898	2815
45	0	0	2028	5	184	898	2818
46	0	0	2008	4	185	899	2819
47	0	0	1987	4	183	899	2819
48	0	0	1995	5	183	899	2815
49	0	0	2013	4	182	899	2809
50	0	0	2009	5	181	899	2806
51	0	0	1995	5	182	899	2806
52	0	0	1979	4	181	899	2808
53	0	0	1982	5	182	899	2812
54	0	0	2012	5	183	898	2815
55	0	0	2067	5	182	898	2818
56	0	0	2123	5	183	899	2820
57	0	0	2166	4	183	899	2818
58	0	0	2170	5	183	898	2816
59	0	0	2156	5	184	899	2809
60	0	0	2152	5	186	899	2806
61	0	0	2111	4	186	899	2806
62	0	0	2064	3	185	899	2809
63	0	0	2033	4	185	899	2812
64	0	0	1986	4	184	899	2816
65	0	0	1933	4	185	900	2818
66	0	0	1922	5	184	899	2819
67	0	0	1951	4	184	899	2818
68	0	0	1959	5	182	898	2815
69	0	0	1957	5	183	899	2809
70	0	0	1949	4	182	899	2805
71	0	0	1949	5	182	899	2806
72	0	0	1956	4	181	899	2809
73	0	0	1974	5	181	899	2812
74	0	0	2025	5	182	898	2816
75	0	0	2112	5	183	898	2818
76	0	0	2180	5	182	899	2819
77	0	0	2184	5	183	899	2819
78	0	0	2171	5	184	899	2816
79	0	0	2170	5	185	899	2809
80	0	0	2179	5	185	899	2805
81	0	0	2142	4	184	899	2806
82	0	0	2077	4	185	899	2809
83	0	0	2022	4	185	899	2812
84	0	0	2002	5	184	899	2815
85	0	0	1991	4	184	899	2818
86	0	0	1985	5	184	899	2819
87	0	0	1987	4	183	899	2818
88	0	0	1992	4	182	899	2815
89	0	0	1971	5	182	899	2808
90	0	0	1980	5	182	898	2805
91	0	0	2012	5	182	899	2806
92	0	0	2055	5	181	899	2809
93	0	0	2086	5	182	899	2812
94	0	0	2126	5	182	899	2816
95	0	0	2157	4	182	899	2818
96	0	0	2197	5	182	898	2819
97	0	0	2237	4	184	899	2818
98	0	0	2262	5	184	899	2815
99	0	0	2233	4	184	898	2809
100	0	0	2166	4	186	899	2806
101	0	0	2086	4	185	899	2806
102	0	0	2013	4	185	899	2809
103	0	0	1979	4	185	899	2812
104	0	0	1981	6	185	898	2815
105	0	0	1972	4	185	899	2818
106	0	0	1948	4	184	899	2819
107	0	0	1937	4	183	899	2819
108	0	0	1970	5	183	899	2815
109	0	0	1983	5	183	899	2809
110	0	0	1956	4	182	899	2805
111	0	0	1976	5	183	899	2806
112	0	0	2003	4	181	899	2809
113	0	0	2020	5	182	899	2812
114	0	0	2048	5	183	899	2815
115	0	0	2086	4	183	898	2818
116	0	0	2116	5	182	899	2819
117	0	0	2118	5	184	899	2818
118	0	0	2109	5	184	899	2816
119	0	0	2121	5	184	899	2809
120	0	0	2133	5	185	899	2805
121	0	0	2105	4	187	899	2806
122	0	0	2105	5	185	899	2809
123	0	0	2102	4	185	899	2812
124	0	0	2060	4	184	899	2815
125	0	0	2007	4	183	899	2818
126	0	0	1996	5	183	899	2819
127	0	0	1995	4	182	899	2818
0	0	0	1970	4	182	898	2815
1	0	0	1921	4	182	899	2809
2	0	0	1893	4	181	899	2805
3	0	0	1912	5	182	899	2806
4	0	0	1956	4	181	899	2808
5	0	0	2004	5	182	899	2812
6	0	0	2031	5	182	898	2815
7	0	0	2049	5	182	899	2818
8	0	0	2084	5	181	899	2819
9	0	0	2117	5	184	899	2818
10	0	0	2121	5	185	898	2815
11	0	0	2093	4	185	899	2809
12	0	0	2087	4	185	899	2805
13	0	0	2084	5	184	899	2806
14	0	0	2064	5	184	899	2809
15	0	0	2050	4	185	899	2812
16	0	0	2035	4	185	899	2816
17	0	0	2020	5	184	899	2818
18	0	0	1998	4	184	899	2819
19	0	0	1961	4	183	899	2819
20	0	0	1955	5	184	899	2816
21	0	0	1978	4	181	899	2808
22	0	0	1981	5	181	898	2805
23	0	0	1969	4	182	898	2806
24	0	0	1940	3	182	899	2808
25	0	0	1930	5	182	898	2812
26	0	0	1978	5	181	899	2815
27	0	0	2054	5	183	898	2817
28	0	0	2110	4	184	899	2819
29	0	0	2131	4	182	899	2818
30	0	0	2140	5	183	899	2816
31	0	0	2132	5	184	899	2809
32	0	0	2135	5	186	899	2806
33	0	0	2151	5	186	899	2807
34	0	0	2139	3	185	899	2809
35	0	0	2083	4	186	899	2812
36	0	0	2008	5	185	899	2815
37	0	0	1965	4	184	899	2818
38	0	0	1980	5	184	899	2819
39	0	0	2004	5	184	899	2818
40	0	0	2003	4	183	899	2816
41	0	0	1977	5	182	899	2808
42	0	0	1985	5	182	899	2805
43	0	0	2017	5	182	899	2806
44	0	0	2049	4	181	899	2808
45	0	0	2080	5	181	899	2812
46	0	0	2127	5	181	899	2815
47	0	0	2185	5	182	899	2818
48	0	0	2235	4	183	899	2819
49	0	0	2259	5	184	899	2819
50	0	0	2272	5	184	898	2815
51	0	0	2288	5	185	899	2810
52	0	0	2316	5	185	898	2805
53	0	0	2312	5	185	899	2806
54	0	0	2339	4	185	899	2809
55	0	0	2361	5	185	898	2812
56	0	0	2294	4	185	899	2815
57	0	0	2231	5	184	898	2817
58	0	0	2219	5	183	899	2818
59	0	0	2219	5	182	899	2818
60	0	0	2248	5	183	899	2816
61	0	0	2277	4	182	899	2808
62	0	0	2295	5	181	899	2806
63	0	0	2339	4	182	899	2806
64	0	0	2390	4	181	899	2809
65	0	0	2431	5	182	899	2812
66	0	0	2443	5	181	899	2815
67	0	0	2390	4	183	899	2818
68	0	0	2301	4	183	899	2819
69	0	0	2247	4	184	899	2818
70	0	0	2236	5	184	899	2816
71	0	0	2232	5	184	899	2808
72	0	0	2215	5	184	899	2805
73	0	0	2194	5	186	899	2805
74	0	0	2180	4	185	899	2808
75	0	0	2138	4	185	899	2811
76	0	0	2052	5	185	899	2815
77	0	0	1976	4	183	899	2817
78	0	0	1928	4	184	899	2818
79	0	0	1895	4	182	899	2818
80	0	0	1893	5	183	898	2815
81	0	0	1882	4	182	899	2809
82	0	0	1853	4	182	898	2805
83	0	0	1836	4	182	899	2806
84	0	0	1841	4	181	899	2809
85	0	0	1848	5	181	899	2811
86	0	0	1876	4	183	899	2815
87	0	0	1914	5	182	898	2818
88	0	0	1938	5	183	899	2819
89	0	0	1997	4	184	899	2818
90	0	0	2060	5	183	899	2815
91	0	0	2119	5	185	899	2808
92	0	0	2160	5	184	899	2805
93	0	0	2136	4	186	899	2806
94	0	0	2077	4	185	899	2808
95	0	0	1999	4	186	899	2812
96	0	0	1962	5	184	899	2815
97	0	0	1955	5	184	899	2818
98	0	0	1932	4	183	899	2819
99	0	0	1941	4	183	899	2818
100	0	0	1971	5	182	899	2815
101	0	0	1979	5	183	898	2808
102	0	0	1974	4	182	899	2805
103	0	0	1985	5	181	899	2806
104	0	0	1997	5	181	899	2808
105	0	0	2010	5	182	899	2811
106	0	0	2029	5	182	899	2816
107	0	0	2058	5	182	899	2818
108	0	0	2095	5	183	898	2819
109	0	0	2128	4	184	899	2818
110	0	0	2144	5	184	899	2815
111	0	0	2163	5	186	899	2808
112	0	0	2168	5	185	898	2805
113	0	0	2129	4	185	899	2806
114	0	0	2079	4	185	899	2808
115	0	0	2050	4	185	899	2812
116	0	0	2017	4	185	899	2815
117	0	0	1983	4	184	899	2818
118	0	0	1962	4	183	899	2819
119	0	0	1964	5	183	899	2818
120	0	0	1972	5	182	899	2815
121	0	0	1968	4	182	899	2808
122	0	0	1969	5	183	898	2805
123	0	0	1997	5	183	898	2805
124	0	0	2013	5	182	899	2808
125	0	0	2014	5	182	899	2811
126	0	0	2035	5	183	898	2815
127	0	0	2086	4	182	899	2817
0	0	0	2133	5	182	898	2819
1	0	0	2165	5	183	899	2818
2	0	0	2181	5	183	899	2815
3	0	0	2161	4	184	899	2809
4	0	0	2147	5	185	898	2805
5	0	0	2115	4	187	899	2806
6	0	0	2064	4	185	899	2809
7	0	0	2046	4	185	898	2811
8	0	0	2010	4	185	899	2815
9	0	0	1956	4	184	898	2817
10	0	0	1920	4	184	899	2818
11	0	0	1924	5	183	899	2818
12	0	0	1952	5	184	899	2814
13	0	0	1988	5	182	898	2808
14	0	0	2010	5	182	898	2805
15	0	0	2054	5	181	899	2806
16	0	0	2099	5	181	899	2808
17	0	0	2125	5	182	899	2811
18	0	0	2144	5	181	899	2816
19	0	0	2152	5	183	899	2817
20	0	0	2150	5	183	898	2818
21	0	0	2148	5	183	899	2818
22	0	0	2166	5	184	899	2815
23	0	0	2172	5	184	899	2808
24	0	0	2161	5	186	898	2805
25	0	0	2121	4	186	899	2806
26	0	0	2095	4	184	899	2808
27	0	0	2052	4	185	899	2811
28	0	0	2007	4	185	899	2814
29	0	0	1942	4	184	898	2817
30	0	0	1879	4	183	899	2819
31	0	0	1873	5	183	899	2818
32	0	0	1916	5	182	899	2815
33	0	0	1969	5	181	899	2808
34	0	0	2000	5	182	898	2805
35	0	0	2028	5	182	898	2805
36	0	0	2082	5	181	899	2808
37	0	0	2125	5	182	898	2812
38	0	0	2157	4	182	899	2815
39	0	0	2176	5	181	898	2817
40	0	0	2189	5	183	898	2819
41	0	0	2180	4	183	899	2818
42	0	0	2149	4	185	899	2815
43	0	0	2137	5	185	899	2809
44	0	0	2158	5	185	899	2805
45	0	0	2154	5	185	898	2805
46	0	0	2147	5	186	899	2808
47	0	0	2162	5	185	899	2811
48	0	0	2136	4	186	899	2815
49	0	0	2080	4	185	898	2817
50	0	0	2024	4	184	899	2819
51	0	0	1997	5	184	899	2818
52	0	0	1974	4	183	899	2815
53	0	0	1970	5	182	899	2808
54	0	0	1965	5	181	898	2805
55	0	0	1980	5	181	899	2806
56	0	0	2010	5	181	898	2808
57	0	0	2031	5	181	899	2812
58	0	0	2049	5	183	898	2815
59	0	0	2094	6	183	898	2817
60	0	0	2156	4	184	898	2819
61	0	0	2195	5	183	899	2818
62	0	0	2183	4	184	898	2815
63	0	0	2150	4	184	899	2808
64	0	0	2138	5	186	899	2805
65	0	0	2124	4	185	898	2806
66	0	0	2130	4	184	899	2809
67	0	0	2140	5	185	899	2811
68	0	0	2112	4	185	898	2815
69	0	0	2067	4	184	899	2818
70	0	0	2027	4	184	899	2819
71	0	0	2012	5	183	899	2818
72	0	0	2028	5	182	899	2814
73	0	0	2062	5	182	899	2808
74	0	0	2083	4	181	899	2805
75	0	0	2082	4	181	899	2806
76	0	0	2064	4	181	899	2808
77	0	0	2065	5	182	899	2811
78	0	0	2083	5	182	899	2815
79	0	0	2117	4	183	899	2817
80	0	0	2166	5	183	899	2818
81	0	0	2197	5	183	899	2818
82	0	0	2197	6	185	898	2814
83	0	0	2205	4	185	899	2809
84	0	0	2221	5	185	899	2805
85	0	0	2202	4	186	899	2806
86	0	0	2172	4	186	899	2809
87	0	0	2117	4	186	899	2811
88	0	0	2058	4	185	899	2815
89	0	0	2031	5	185	898	2818
90	0	0	2023	5	184	899	2819
91	0	0	1993	4	183	899	2818
92	0	0	1977	4	181	899	2814
93	0	0	1975	5	182	898	2808
94	0	0	1995	5	182	898	2805
95	0	0	2032	4	182	899	2806
96	0	0	2066	5	181	899	2808
97	0	0	2112	5	182	899	2812
98	0	0	2152	5	183	899	2815
99	0	0	2173	5	182	898	2817
100	0	0	2177	4	183	898	2819
101	0	0	2162	4	184	899	2818
102	0	0	2140	6	184	899	2815
103	0	0	2151	6	184	899	2809
104	0	0	2176	5	185	899	2805
105	0	0	2189	5	185	898	2806
106	0	0	2177	4	185	899	2808
107	0	0	2147	4	186	899	2812
108	0	0	2105	4	186	899	2815
109	0	0	2093	6	184	898	2817
110	0	0	2108	5	184	899	2818
111	0	0	2101	4	183	899	2818
112	0	0	2072	4	182	899	2815
113	0	0	2055	3	182	899	2808
114	0	0	2070	5	181	898	2805
115	0	0	2110	4	181	899	2806
116	0	0	2121	5	181	899	2808
117	0	0	2116	5	181	898	2811
118	0	0	2141	5	182	899	2815
119	0	0	2181	4	183	898	2817
120	0	0	2213	5	183	899	2819
121	0	0	2239	5	183	899	2818
122	0	0	2253	5	184	899	2815
123	0	0	2250	5	184	899	2809
124	0	0	2254	5	185	900	2805
125	0	0	2249	5	186	899	2806
126	0	0	2229	4	185	899	2809
127	0	0	2189	4	185	899	2811
0	0	0	2140	4	184	899	2815
1	0	0	2089	4	184	899	2817
2	0	0	2058	4	183	899	2818
3	0	0	2052	5	184	899	2818
4	0	0	2064	5	182	899	2814
5	0	0	2079	5	182	898	2808
6	0	0	2071	5	182	899	2805
7	0	0	2095	5	182	898	2806
8	0	0	2113	5	181	899	2808
9	0	0	2138	5	182	898	2812
10	0	0	2170	5	181	898	2815
11	0	0	2173	5	182	899	2818
12	0	0	2178	5	182	899	2819
13	0	0	2175	5	183	899	2818
14	0	0	2198	5	184	899	2815
15	0	0	2248	5	184	899	2808
16	0	0	2288	5	184	899	2805
17	0	0	2263	4	186	898	2806
18	0	0	2224	4	185	899	2808
19	0	0	2199	4	185	899	2812
20	0	0	2179	4	184	899	2816
21	0	0	2153	4	184	899	2817
22	0	0	2139	5	184	898	2818
23	0	0	2168	5	183	899	2818
24	0	0	2172	4	182	899	2815
25	0	0	2138	4	182	899	2808
26	0	0	2120	5	180	898	2805
27	0	0	2141	5	182	898	2806
28	0	0	2161	5	181	899	2809
29	0	0	2161	5	182	899	2811
30	0	0	2174	5	182	898	2815
31	0	0	2200	5	183	898	2817
32	0	0	2248	5	183	898	2818
33	0	0	2271	5	184	899	2818
34	0	0	2244	4	184	898	2815
35	0	0	2231	5	185	898	2808
36	0	0	2247	4	185	899	2805
37	0	0	2245	5	185	898	2806
38	0	0	2242	5	184	899	2809
39	0	0	2208	4	186	899	2811
40	0	0	2146	4	183	899	2816
41	0	0	2102	4	184	899	2818
42	0	0	2075	4	184	898	2819
43	0	0	2048	4	183	899	2818
44	0	0	2040	5	181	899	2815
45	0	0	2052	5	183	899	2808
46	0	0	2078	5	182	898	2805
47	0	0	2106	5	181	898	2806
48	0	0	2113	5	182	899	2808
49	0	0	2119	6	181	898	2811
50	0	0	2157	5	182	898	2815
51	0	0	2208	5	183	898	2817
52	0	0	2242	4	184	899	2818
53	0	0	2250	4	182	899	2818
54	0	0	2245	5	184	899	2814
55	0	0	2245	5	184	899	2809
56	0	0	2260	5	185	899	2805
57	0	0	2254	5	186	898	2806
58	0	0	2209	4	185	899	2809
59	0	0	2154	4	185	899	2812
60	0	0	2114	4	184	898	2815
61	0	0	2081	4	184	899	2818
62	0	0	2038	4	184	899	2819
63	0	0	2017	4	181	899	2818
64	0	0	2025	5	183	899	2815
65	0	0	2014	4	182	899	2808
66	0	0	2016	5	182	899	2805
67	0	0	2049	4	181	899	2806
68	0	0	2062	5	181	899	2808
69	0	0	2064	5	182	899	2811
70	0	0	2104	5	182	899	2815
71	0	0	2132	4	182	899	2818
72	0	0	2103	4	183	898	2819
73	0	0	2053	4	183	899	2818
74	0	0	2025	5	184	899	2815
75	0	0	2062	5	185	899	2808
76	0	0	2126	5	186	899	2805
77	0	0	2136	5	186	899	2806
78	0	0	2082	4	184	899	2809
79	0	0	2037	4	185	899	2811
80	0	0	2065	4	183	899	2816
81	0	0	2105	5	185	900	2818
82	0	0	2102	4	183	898	2819
83	0	0	2036	4	183	899	2818
84	0	0	1947	4	183	899	2814
85	0	0	1891	3	181	899	2809
86	0	0	1892	5	182	899	2805
87	0	0	1950	5	182	899	2806
88	0	0	2005	5	181	899	2809
89	0	0	2041	5	181	898	2812
90	0	0	2062	4	182	899	2815
91	0	0	2068	4	184	899	2818
92	0	0	2079	5	184	899	2819
93	0	0	2092	5	185	899	2818
94	0	0	2120	5	183	899	2815
95	0	0	2140	5	183	899	2809
96	0	0	2133	4	185	900	2806
97	0	0	2080	4	184	899	2806
98	0	0	2038	4	184	899	2809
99	0	0	2015	4	185	899	2812
100	0	0	1983	4	184	899	2815
101	0	0	1959	4	183	900	2818
102	0	0	1945	5	185	899	2819
103	0	0	1942	5	184	899	2818
104	0	0	1957	6	183	898	2815
105	0	0	1967	4	182	899	2809
106	0	0	1972	5	181	899	2805
107	0	0	1991	5	181	899	2806
108	0	0	1991	5	183	899	2809
109	0	0	1986	5	182	899	2812
110	0	0	2005	5	182	898	2816
111	0	0	2042	5	183	898	2818
112	0	0	2061	4	183	899	2819
113	0	0	2070	5	185	899	2819
114	0	0	2092	5	184	899	2816
115	0	0	2108	6	185	899	2809
116	0	0	2113	5	185	899	2806
117	0	0	2092	5	186	899	2807
118	0	0	2057	4	185	899	2809
119	0	0	2021	4	186	899	2812
120	0	0	1986	4	184	899	2815
121	0	0	1965	4	185	899	2818
122	0	0	1950	4	184	898	2819
123	0	0	1932	4	183	899	2819
124	0	0	1912	4	183	898	2815
125	0	0	1913	5	181	899	2809
126	0	0	1922	5	181	899	2806
127	0	0	1965	5	181	899	2807
0	0	0	2022	4	180	899	2809
1	0	0	2071	6	182	898	2812
2	0	0	2064	4	181	898	2816
3	0	0	2051	5	183	898	2818
4	0	0	2039	4	183	899	2819
5	0	0	2019	5	183	899	2819
6	0	0	2032	5	183	898	2815
7	0	0	2079	4	186	898	2809
8	0	0	2122	5	187	899	2805
9	0	0	2107	4	185	899	2806
10	0	0	2067	4	186	899	2809
11	0	0	2023	4	186	899	2812
12	0	0	1980	4	185	899	2816
13	0	0	1954	4	185	899	2819
14	0	0	1923	4	183	899	2820
15	0	0	1931	5	183	899	2819
16	0	0	1973	5	182	899	2816
17	0	0	1976	4	182	899	2809
18	0	0	1939	4	181	899	2806
19	0	0	1931	5	181	899	2807
20	0	0	1985	5	181	898	2809
21	0	0	2042	5	182	898	2812
22	0	0	2082	5	182	899	2816
23	0	0	2105	5	183	899	2819
24	0	0	2119	4	183	898	2820
25	0	0	2128	5	184	899	2819
26	0	0	2133	5	184	899	2816
27	0	0	2148	5	183	899	2810
28	0	0	2164	5	186	899	2806
29	0	0	2130	4	185	899	2807
30	0	0	2087	4	185	899	2810
31	0	0	2059	4	186	899	2813
32	0	0	2021	3	184	899	2817
33	0	0	1993	5	184	899	2819
34	0	0	1991	5	183	899	2820
35	0	0	1966	4	183	899	2819
36	0	0	1909	4	182	899	2816
37	0	0	1868	4	181	898	2809
38	0	0	1850	4	182	899	2806
39	0	0	1866	5	182	899	2807
40	0	0	1908	4	182	898	2810
41	0	0	1958	5	182	898	2813
42	0	0	2006	5	181	898	2816
43	0	0	2053	5	182	899	2819
44	0	0	2105	5	183	898	2820
45	0	0	2134	5	184	899	2819
46	0	0	2121	5	184	898	2816
47	0	0	2093	4	184	899	2810
48	0	0	2104	5	185	900	2807
49	0	0	2112	5	184	899	2807
50	0	0	2071	4	185	899	2810
51	0	0	2012	4	186	899	2814
52	0	0	1959	4	183	899	2816
53	0	0	1898	4	185	899	2819
54	0	0	1881	5	183	898	2820
55	0	0	1918	5	182	899	2819
56	0	0	1958	4	182	899	2816
57	0	0	1983	4	183	899	2809
58	0	0	1993	5	182	899	2806
59	0	0	2011	5	181	898	2807
60	0	0	2011	5	181	898	2810
61	0	0	1986	4	182	899	2813
62	0	0	1973	4	182	899	2817
63	0	0	1979	5	182	900	2819
64	0	0	2003	5	182	899	2820
65	0	0	2063	5	183	899	2820
66	0	0	2121	5	184	899	2816
67	0	0	2131	5	185	899	2810
68	0	0	2118	5	187	899	2807
69	0	0	2100	4	186	898	2807
70	0	0	2081	5	185	899	2810
71	0	0	2075	4	184	899	2813
72	0	0	2028	5	184	898	2816
73	0	0	1990	4	184	899	2819
74	0	0	1962	4	184	899	2820
75	0	0	1965	5	183	898	2819
76	0	0	1975	4	182	899	2816
77	0	0	1934	3	182	899	2810
78	0	0	1906	4	182	900	2807
79	0	0	1915	5	181	899	2807
80	0	0	1952	5	180	898	2810
81	0	0	1999	5	182	898	2813
82	0	0	2057	4	182	899	2817
83	0	0	2108	5	183	898	2819
84	0	0	2123	5	183	898	2821
85	0	0	2121	5	183	898	2819
86	0	0	2122	5	183	898	2816
87	0	0	2140	5	184	899	2809
88	0	0	2153	4	186	899	2807
89	0	0	2130	4	185	899	2808
90	0	0	2098	4	185	898	2810
91	0	0	2078	4	185	899	2814
92	0	0	2059	4	184	899	2816
93	0	0	2035	4	183	898	2819
94	0	0	1997	4	183	899	2820
95	0	0	1979	5	183	899	2820
96	0	0	1983	5	182	899	2816
97	0	0	1954	4	182	899	2810
98	0	0	1913	4	181	899	2807
99	0	0	1912	4	182	899	2808
100	0	0	1930	5	181	899	2811
101	0	0	1955	5	182	899	2813
102	0	0	2019	5	181	899	2817
103	0	0	2112	5	183	899	2819
104	0	0	2195	5	183	899	2821
105	0	0	2225	5	182	898	2820
106	0	0	2194	4	183	898	2816
107	0	0	2171	4	185	898	2809
108	0	0	2168	4	186	899	2806
109	0	0	2141	4	185	899	2808
110	0	0	2082	4	184	899	2810
111	0	0	2017	4	185	899	2814
112	0	0	1992	4	184	899	2817
113	0	0	2004	5	184	898	2819
114	0	0	2008	5	184	899	2820
115	0	0	2002	5	182	898	2820
116	0	0	1972	4	183	899	2816
117	0	0	1941	4	182	899	2811
118	0	0	1942	5	181	899	2807
119	0	0	1945	5	182	900	2808
120	0	0	1957	5	181	898	2810
121	0	0	1986	5	181	898	2813
122	0	0	2026	6	182	898	2816
123	0	0	2071	4	182	899	2819
124	0	0	2115	5	183	898	2820
125	0	0	2139	5	183	899	2819
126	0	0	2137	5	183	899	2817
127	0	0	2110	4	185	899	2810
0	0	0	2083	4	184	899	2807
1	0	0	2065	4	185	899	2808
2	0	0	2058	4	184	899	2811
3	0	0	2044	4	185	899	2813
4	0	0	1989	4	185	899	2817
5	0	0	1947	4	183	898	2819
6	0	0	1927	4	182	898	2821
7	0	0	1909	4	183	899	2820
8	0	0	1911	5	183	899	2816
9	0	0	1977	4	182	899	2810
10	0	0	2054	5	182	898	2806
11	0	0	2089	5	182	899	2807
12	0	0	2079	5	180	898	2810
13	0	0	2068	5	181	899	2813
14	0	0	2062	5	182	899	2817
15	0	0	2060	5	183	899	2820
16	0	0	2085	5	183	900	2820
17	0	0	2103	5	182	899	2820
18	0	0	2110	4	185	899	2816
19	0	0	2104	5	185	899	2810
20	0	0	2107	4	185	899	2807
21	0	0	2090	4	185	898	2807
22	0	0	2069	4	184	899	2811
23	0	0	2058	4	184	899	2814
24	0	0	2030	4	184	898	2817
25	0	0	1988	4	184	899	2819
26	0	0	1960	4	184	899	2821
27	0	0	1938	4	183	899	2819
28	0	0	1926	4	182	899	2817
29	0	0	1921	4	184	899	2809
30	0	0	1925	4	182	899	2807
31	0	0	1958	5	182	899	2808
32	0	0	2034	5	181	899	2810
33	0	0	2104	5	181	899	2813
34	0	0	2150	5	181	899	2817
35	0	0	2176	4	182	899	2819
36	0	0	2177	5	182	899	2820
37	0	0	2184	5	183	898	2820
38	0	0	2193	5	184	898	2816
39	0	0	2199	5	184	899	2810
40	0	0	2157	4	185	899	2807
41	0	0	2099	3	186	899	2808
42	0	0	2093	5	186	899	2810
43	0	0	2102	5	185	898	2813
44	0	0	2071	4	186	899	2817
45	0	0	2028	4	184	899	2819
46	0	0	1962	4	184	899	2820
47	0	0	1894	4	183	899	2820
48	0	0	1864	4	182	899	2816
49	0	0	1865	5	182	899	2810
50	0	0	1909	5	182	899	2807
51	0	0	1966	5	181	899	2808
52	0	0	2002	4	182	898	2811
53	0	0	2014	5	182	898	2814
54	0	0	2052	5	183	898	2817
55	0	0	2080	4	182	899	2820
56	0	0	2100	5	183	898	2820
57	0	0	2134	5	183	899	2820
58	0	0	2168	5	184	899	2816
59	0	0	2194	5	185	898	2810
60	0	0	2223	5	185	898	2807
61	0	0	2210	4	184	899	2807
62	0	0	2165	4	186	899	2810
63	0	0	2141	4	185	899	2814
64	0	0	2127	5	186	899	2816
65	0	0	2093	4	185	899	2819
66	0	0	2042	4	184	899	2821
67	0	0	1977	4	183	899	2820
68	0	0	1935	4	182	899	2816
69	0	0	1922	4	182	899	2809
70	0	0	1907	4	181	899	2807
71	0	0	1911	5	182	899	2808
72	0	0	1954	5	183	899	2811
73	0	0	2017	4	181	898	2814
74	0	0	2068	5	182	899	2817
75	0	0	2122	5	183	900	2820
76	0	0	2167	5	182	899	2820
77	0	0	2165	5	183	899	2819
78	0	0	2147	5	183	899	2816
79	0	0	2154	5	185	899	2810
80	0	0	2160	4	184	899	2807
81	0	0	2122	4	185	899	2807
82	0	0	2090	4	184	899	2810
83	0	0	2086	4	185	899	2813
84	0	0	2070	4	185	899	2817
85	0	0	2046	4	184	899	2819
86	0	0	2040	5	183	899	2820
87	0	0	2054	5	182	898	2820
88	0	0	2069	5	181	899	2817
89	0	0	2048	5	182	899	2809
90	0	0	2024	4	181	899	2807
91	0	0	1987	4	181	899	2808
92	0	0	1950	4	181	898	2811
93	0	0	1964	5	182	898	2813
94	0	0	1992	4	182	898	2817
95	0	0	2017	5	183	898	2819
96	0	0	2083	4	182	899	2820
97	0	0	2149	5	184	899	2819
98	0	0	2146	4	184	899	2816
99	0	0	2134	5	185	899	2809
100	0	0	2144	5	185	898	2806
101	0	0	2154	5	185	899	2807
102	0	0	2136	4	185	899	2811
103	0	0	2111	4	186	899	2814
104	0	0	2073	6	185	899	2817
105	0	0	2029	3	184	899	2820
106	0	0	1982	4	183	899	2821
107	0	0	1951	4	181	899	2820
108	0	0	1937	4	183	899	2816
109	0	0	1941	5	182	899	2809
110	0	0	1952	5	182	899	2806
111	0	0	1981	5	181	899	2808
112	0	0	2020	5	182	899	2810
113	0	0	2060	5	182	899	2813
114	0	0	2071	5	182	898	2817
115	0	0	2054	4	183	898	2819
116	0	0	2057	5	183	899	2820
117	0	0	2070	4	184	899	2820
118	0	0	2094	5	184	899	2816
119	0	0	2129	5	184	898	2810
120	0	0	2140	5	186	898	2807
121	0	0	2100	4	184	899	2808
122	0	0	2080	5	186	899	2811
123	0	0	2065	4	184	899	2813
124	0	0	2021	4	185	899	2818
125	0	0	2000	4	184	899	2820
126	0	0	1969	4	183	899	2820
127	0	0	1928	4	183	899	2820
0	0	0	1942	4	183	899	2816
1	0	0	1956	5	182	899	2809
2	0	0	1952	5	182	898	2807
3	0	0	1967	5	182	899	2808
4	0	0	2000	5	182	898	2810
5	0	0	2045	5	181	899	2813
6	0	0	2079	5	181	898	2817
7	0	0	2095	5	183	898	2819
8	0	0	2103	5	183	899	2820
9	0	0	2112	5	183	898	2820
10	0	0	2131	5	183	898	2816
11	0	0	2137	5	184	899	2811
12	0	0	2144	5	185	899	2807
13	0	0	2113	4	185	899	2808
14	0	0	2078	4	185	899	2811
15	0	0	2055	4	185	899	2813
16	0	0	2017	4	184	899	2817
17	0	0	1957	3	184	899	2819
18	0	0	1899	5	183	899	2820
19	0	0	1874	4	183	899	2819
20	0	0	1898	5	182	899	2816
21	0	0	1917	4	182	898	2809
22	0	0	1890	2	182	898	2806
23	0	0	1891	5	182	899	2807
24	0	0	1980	5	181	899	2811
25	0	0	2047	5	182	898	2813
26	0	0	2069	5	182	898	2818
27	0	0	2055	4	182	898	2820
28	0	0	2054	4	183	899	2821
29	0	0	2094	5	183	899	2820
30	0	0	2147	5	184	898	2816
31	0	0	2185	5	185	898	2810
32	0	0	2199	3	185	899	2807
33	0	0	2141	4	185	899	2808
34	0	0	2090	4	185	899	2810
35	0	0	2083	5	185	899	2813
36	0	0	2041	4	183	898	2816
37	0	0	1987	4	183	899	2819
38	0	0	1959	4	184	899	2821
39	0	0	1946	4	183	899	2819
40	0	0	1930	4	183	899	2816
41	0	0	1912	4	183	898	2809
42	0	0	1902	5	182	899	2807
43	0	0	1927	5	181	899	2808
44	0	0	1989	5	182	899	2811
45	0	0	2040	5	181	899	2814
46	0	0	2077	5	182	899	2817
47	0	0	2118	4	183	899	2820
48	0	0	2144	5	183	899	2821
49	0	0	2153	5	184	899	2820
50	0	0	2157	5	183	899	2817
51	0	0	2159	5	185	899	2809
52	0	0	2172	5	186	899	2807
53	0	0	2173	5	185	899	2807
54	0	0	2158	4	186	899	2811
55	0	0	2110	4	185	899	2813
56	0	0	2045	4	183	898	2818
57	0	0	1986	3	185	898	2820
58	0	0	1949	4	183	899	2821
59	0	0	1945	5	183	899	2820
60	0	0	1955	5	183	899	2816
61	0	0	1964	5	182	898	2810
62	0	0	1965	6	181	898	2807
63	0	0	2017	5	181	899	2808
64	0	0	2096	5	182	899	2811
65	0	0	2156	5	183	899	2814
66	0	0	2188	5	182	899	2817
67	0	0	2218	6	183	899	2819
68	0	0	2255	5	183	899	2820
69	0	0	2304	5	183	899	2820
70	0	0	2374	4	185	898	2816
71	0	0	2445	5	184	898	2810
72	0	0	2472	5	186	899	2807
73	0	0	2442	4	186	899	2808
74	0	0	2417	4	185	899	2811
75	0	0	2390	4	185	899	2814
76	0	0	2351	4	184	899	2817
77	0	0	2313	5	184	899	2820
78	0	0	2307	5	183	899	2821
79	0	0	2310	5	183	899	2820
80	0	0	2304	5	184	899	2816
81	0	0	2291	5	183	898	2809
82	0	0	2263	5	182	899	2807
83	0	0	2230	4	182	899	2807
84	0	0	2205	4	182	898	2811
85	0	0	2204	6	181	898	2813
86	0	0	2215	5	180	898	2817
87	0	0	2221	5	183	899	2820
88	0	0	2202	4	184	899	2820
89	0	0	2162	4	183	899	2819
90	0	0	2123	4	185	899	2816
91	0	0	2109	4	186	898	2810
92	0	0	2074	4	185	899	2807
93	0	0	2006	4	187	899	2808
94	0	0	1967	4	184	899	2811
95	0	0	1947	4	185	899	2814
96	0	0	1895	4	184	899	2817
97	0	0	1851	3	183	899	2820
98	0	0	1829	4	184	899	2820
99	0	0	1804	4	183	899	2820
100	0	0	1805	5	183	898	2816
101	0	0	1828	5	182	899	2809
102	0	0	1869	5	183	899	2807
103	0	0	1903	5	182	899	2808
104	0	0	1925	5	181	899	2810
105	0	0	1952	5	181	899	2814
106	0	0	1973	5	183	898	2817
107	0	0	1966	5	182	899	2819
108	0	0	1961	4	183	899	2820
109	0	0	1948	4	184	898	2820
110	0	0	1946	5	184	898	2816
111	0	0	1972	5	184	899	2810
112	0	0	2033	4	185	899	2807
113	0	0	2045	5	184	898	2808
114	0	0	2007	4	184	899	2811
115	0	0	1959	4	186	899	2814
116	0	0	1917	4	185	898	2817
117	0	0	1918	4	185	899	2819
118	0	0	1958	5	184	900	2820
119	0	0	1977	5	183	898	2819
120	0	0	1949	4	183	899	2816
121	0	0	1926	5	181	898	2809
122	0	0	1933	5	183	898	2806
123	0	0	1968	5	181	899	2808
124	0	0	2007	5	181	899	2811
125	0	0	2027	5	182	898	2814
126	0	0	2046	5	182	898	2817
127	0	0	2083	5	183	899	2820
0	0	0	2106	5	184	899	2821
1	0	0	2112	5	184	898	2820
2	0	0	2131	5	184	899	2816
3	0	0	2112	4	185	898	2810
4	0	0	2076	4	185	899	2807
5	0	0	2037	4	185	899	2808
6	0	0	2006	4	185	899	2810
7	0	0	1989	4	184	899	2814
8	0	0	1969	4	186	898	2817
9	0	0	1946	4	185	899	2819
10	0	0	1927	4	182	899	2821
11	0	0	1929	5	182	898	2819
12	0	0	1950	5	183	899	2817
13	0	0	1974	6	183	899	2810
14	0	0	1987	5	182	899	2807
15	0	0	2004	5	182	899	2808
16	0	0	2020	5	183	898	2811
17	0	0	2021	5	182	898	2814
18	0	0	2032	5	182	898	2817
19	0	0	2071	4	183	899	2820
20	0	0	2104	4	184	899	2820
21	0	0	2098	4	184	899	2820
22	0	0	2041	4	185	899	2816
23	0	0	2039	5	185	898	2809
24	0	0	2108	5	185	899	2807
25	0	0	2128	5	185	899	2808
26	0	0	2108	4	185	898	2810
27	0	0	2069	4	184	899	2814
28	0	0	1997	4	184	899	2817
29	0	0	1959	4	184	899	2820
30	0	0	1943	4	183	899	2821
31	0	0	1945	5	182	899	2820
32	0	0	1964	5	182	899	2817
33	0	0	1985	5	183	899	2810
34	0	0	1997	4	182	899	2808
35	0	0	2034	5	181	899	2808
36	0	0	2072	5	181	898	2811
37	0	0	2092	5	182	898	2814
38	0	0	2096	5	182	898	2817
39	0	0	2080	4	182	899	2819
40	0	0	2072	4	183	899	2820
41	0	0	2058	5	183	899	2819
42	0	0	2055	5	184	899	2816
43	0	0	2068	5	184	898	2809
44	0	0	2109	5	185	899	2807
45	0	0	2140	5	186	899	2808
46	0	0	2126	4	184	899	2811
47	0	0	2084	4	185	899	2815
48	0	0	2024	4	184	899	2817
49	0	0	1972	4	184	899	2820
50	0	0	1946	4	184	899	2821
51	0	0	1926	4	184	899	2820
52	0	0	1925	5	183	899	2817
53	0	0	1938	5	182	898	2809
54	0	0	1955	6	182	898	2806
55	0	0	1981	5	181	899	2808
56	0	0	2032	5	182	899	2810
57	0	0	2063	5	181	898	2813
58	0	0	2080	5	183	899	2817
59	0	0	2108	5	182	899	2819
60	0	0	2123	4	183	899	2821
61	0	0	2129	5	184	898	2819
62	0	0	2137	4	184	898	2816
63	0	0	2143	5	184	898	2809
64	0	0	2130	4	184	899	2807
65	0	0	2093	4	185	899	2808
66	0	0	2066	4	185	899	2811
67	0	0	2031	4	185	899	2814
68	0	0	1978	4	184	899	2817
69	0	0	1927	4	184	898	2819
70	0	0	1902	5	183	899	2820
71	0	0	1933	5	182	898	2819
72	0	0	1967	5	183	898	2816
73	0	0	1995	5	182	898	2809
74	0	0	2008	5	183	898	2806
75	0	0	2014	5	182	899	2807
76	0	0	2029	5	182	899	2810
77	0	0	2032	5	181	898	2813
78	0	0	2045	5	182	898	2817
79	0	0	2081	6	183	898	2819
80	0	0	2101	5	184	899	2820
81	0	0	2105	5	183	899	2820
82	0	0	2131	5	184	899	2816
83	0	0	2186	5	185	899	2810
84	0	0	2224	6	185	899	2807
85	0	0	2201	4	186	899	2808
86	0	0	2149	4	185	898	2811
87	0	0	2100	4	185	899	2814
88	0	0	2049	5	184	898	2817
89	0	0	2008	5	185	899	2819
90	0	0	1980	4	184	899	2821
91	0	0	1950	4	183	899	2819
92	0	0	1944	5	183	898	2815
93	0	0	1942	5	182	899	2809
94	0	0	1939	5	181	899	2806
95	0	0	1959	4	182	898	2808
96	0	0	2018	5	182	898	2811
97	0	0	2082	5	182	899	2814
98	0	0	2097	5	182	898	2818
99	0	0	2067	4	184	899	2820
100	0	0	2057	5	183	899	2821
101	0	0	2097	5	184	898	2820
102	0	0	2158	5	185	899	2816
103	0	0	2206	6	185	899	2809
104	0	0	2226	6	185	898	2806
105	0	0	2184	4	184	899	2807
106	0	0	2137	4	184	898	2810
107	0	0	2112	4	186	898	2813
108	0	0	2071	4	185	899	2817
109	0	0	2026	4	183	899	2819
110	0	0	2024	5	183	899	2820
111	0	0	2023	4	184	899	2819
112	0	0	1994	4	182	898	2816
113	0	0	1955	4	182	898	2810
114	0	0	1929	4	181	899	2807
115	0	0	1934	5	183	899	2808
116	0	0	1967	5	182	899	2811
117	0	0	2026	5	181	898	2814
118	0	0	2091	5	182	899	2817
119	0	0	2145	5	183	898	2820
120	0	0	2156	5	183	899	2820
121	0	0	2158	5	184	898	2819
122	0	0	2169	4	184	899	2816
123	0	0	2173	5	185	899	2809
124	0	0	2191	6	185	899	2806
125	0	0	2176	4	185	899	2808
126	0	0	2147	4	185	898	2810
127	0	0	2124	4	185	899	2814
0	0	0	2044	4	185	898	2818
1	0	0	1964	4	184	899	2820
2	0	0	1988	5	184	899	2821
3	0	0	2041	5	183	898	2819
4	0	0	2044	5	182	898	2816
5	0	0	2042	5	182	899	2810
6	0	0	2043	6	182	898	2807
7	0	0	2086	5	182	899	2808
8	0	0	2140	5	181	898	2811
9	0	0	2158	5	182	898	2814
10	0	0	2137	4	183	899	2817
11	0	0	2146	4	183	899	2819
12	0	0	2174	4	183	899	2820
13	0	0	2181	5	183	898	2820
14	0	0	2168	4	183	899	2816
15	0	0	2163	5	184	898	2810
16	0	0	2181	5	186	899	2807
17	0	0	2198	5	185	899	2808
18	0	0	2173	4	185	899	2811
19	0	0	2113	4	185	899	2814
20	0	0	2045	4	184	899	2817
21	0	0	2000	5	184	899	2820
22	0	0	2019	5	183	899	2820
23	0	0	2097	5	182	898	2819
24	0	0	2180	5	183	898	2816
25	0	0	2187	4	182	898	2809
26	0	0	2125	5	182	899	2807
27	0	0	2106	5	181	899	2808
28	0	0	2103	5	181	899	2811
29	0	0	2118	5	182	899	2814
30	0	0	2145	5	183	899	2818
31	0	0	2157	5	183	899	2820
32	0	0	2163	5	184	899	2821
33	0	0	2172	5	182	898	2820
34	0	0	2184	5	183	899	2816
35	0	0	2213	5	185	899	2810
36	0	0	2242	5	184	899	2807
37	0	0	2228	4	185	899	2808
38	0	0	2203	4	184	898	2811
39	0	0	2167	4	185	899	2814
40	0	0	2111	4	183	899	2817
41	0	0	2063	4	184	899	2820
42	0	0	2055	5	184	899	2820
43	0	0	2054	5	183	898	2819
44	0	0	2028	4	182	899	2816
45	0	0	2038	5	183	899	2809
46	0	0	2055	5	181	898	2807
47	0	0	2051	5	182	899	2809
48	0	0	2058	5	181	898	2811
49	0	0	2091	5	183	899	2815
50	0	0	2124	5	180	899	2817
51	0	0	2167	5	182	898	2820
52	0	0	2225	5	183	899	2821
53	0	0	2269	5	184	898	2820
54	0	0	2270	5	185	898	2816
55	0	0	2258	5	185	899	2810
56	0	0	2259	5	185	899	2807
57	0	0	2236	4	185	899	2808
58	0	0	2212	4	184	898	2811
59	0	0	2188	4	186	899	2814
60	0	0	2146	4	185	899	2818
61	0	0	2100	4	183	899	2820
62	0	0	2058	4	184	899	2820
63	0	0	2036	4	183	898	2820
64	0	0	2035	5	183	899	2817
65	0	0	2017	5	182	899	2809
66	0	0	1991	4	182	899	2807
67	0	0	1971	5	181	899	2808
68	0	0	1969	5	182	898	2811
69	0	0	1998	5	182	899	2814
70	0	0	2068	5	181	899	2817
71	0	0	2112	5	184	899	2820
72	0	0	2105	4	184	899	2821
73	0	0	2095	4	183	899	2820
74	0	0	2096	5	184	899	2816
75	0	0	2137	5	184	899	2810
76	0	0	2161	5	185	899	2808
77	0	0	2114	4	186	899	2808
78	0	0	2065	4	186	898	2811
79	0	0	2016	4	185	899	2814
80	0	0	1982	4	185	899	2818
81	0	0	1965	5	184	898	2820
82	0	0	1969	5	183	899	2820
83	0	0	1985	5	181	898	2820
84	0	0	1998	5	184	899	2816
85	0	0	1999	5	182	899	2809
86	0	0	1983	5	182	899	2807
87	0	0	1992	5	181	899	2809
88	0	0	2007	5	181	899	2811
89	0	0	2037	4	182	899	2815
90	0	0	2077	5	182	899	2817
91	0	0	2095	5	183	899	2820
92	0	0	2076	4	183	899	2821
93	0	0	2073	5	185	898	2820
94	0	0	2092	5	183	899	2816
95	0	0	2100	5	185	899	2810
96	0	0	2109	5	185	899	2807
97	0	0	2085	4	185	899	2808
98	0	0	2054	4	185	899	2811
99	0	0	2015	4	185	899	2814
100	0	0	1965	4	184	899	2817
101	0	0	1912	5	184	899	2820
102	0	0	1897	5	183	899	2821
103	0	0	1910	5	183	898	2820
104	0	0	1916	4	182	898	2816
105	0	0	1912	4	183	899	2810
106	0	0	1888	4	182	899	2808
107	0	0	1875	5	182	899	2808
108	0	0	1878	5	182	898	2811
109	0	0	1910	4	181	898	2814
110	0	0	1960	5	184	898	2818
111	0	0	2012	5	182	899	2820
112	0	0	2056	5	182	899	2820
113	0	0	2089	5	182	898	2820
114	0	0	2113	4	184	899	2816
115	0	0	2114	4	184	899	2810
116	0	0	2096	4	185	899	2807
117	0	0	2048	4	185	899	2808
118	0	0	2047	5	186	898	2811
119	0	0	2055	4	186	898	2814
120	0	0	2009	4	184	899	2817
121	0	0	1954	4	184	899	2821
122	0	0	1914	4	183	899	2821
123	0	0	1904	5	182	899	2820
124	0	0	1923	4	182	898	2816
125	0	0	1924	4	183	898	2810
126	0	0	1907	5	182	899	2807
127	0	0	1913	5	182	899	2808
0	0	0	1935	5	181	898	2811
1	0	0	1969	5	182	899	2814
2	0	0	2006	4	182	898	2818
3	0	0	2037	5	182	899	2820
4	0	0	2077	5	183	899	2821
5	0	0	2119	4	183	899	2819
6	0	0	2112	4	183	898	2816
7	0	0	2059	4	185	899	2810
8	0	0	2001	4	186	899	2808
9	0	0	1958	4	186	899	2808
10	0	0	1937	4	186	898	2811
11	0	0	1938	4	185	899	2815
12	0	0	1940	6	184	899	2817
13	0	0	1934	5	184	900	2820
14	0	0	1920	4	184	899	2821
15	0	0	1914	5	184	898	2820
16	0	0	1902	4	182	899	2816
17	0	0	1894	4	182	899	2809
18	0	0	1906	5	182	899	2807
19	0	0	1952	4	182	899	2808
20	0	0	2003	5	181	898	2811
21	0	0	2015	4	181	898	2814
22	0	0	2000	5	182	898	2817
23	0	0	1998	6	183	899	2820
24	0	0	2002	5	183	898	2821
25	0	0	2034	5	183	899	2820
26	0	0	2084	4	183	898	2816
27	0	0	2108	5	185	898	2810
28	0	0	2077	4	184	899	2807
29	0	0	2013	5	186	899	2808
30	0	0	1988	5	185	898	2811
31	0	0	2002	5	184	899	2814
32	0	0	2005	5	186	899	2818
33	0	0	1969	4	183	899	2820
34	0	0	1913	4	183	899	2821
35	0	0	1876	4	184	898	2819
36	0	0	1900	5	182	899	2816
37	0	0	1948	5	183	898	2810
38	0	0	1955	5	182	899	2807
39	0	0	1944	5	181	899	2808
40	0	0	1953	5	181	898	2811
41	0	0	1955	5	182	898	2814
42	0	0	1952	4	182	898	2818
43	0	0	1964	5	183	899	2820
44	0	0	2014	5	184	899	2821
45	0	0	2071	5	183	898	2820
46	0	0	2095	5	183	898	2816
47	0	0	2097	5	184	899	2810
48	0	0	2092	6	186	899	2807
49	0	0	2051	5	184	899	2808
50	0	0	2009	4	184	898	2811
51	0	0	2003	4	185	899	2814
52	0	0	2022	5	184	899	2818
53	0	0	2065	4	183	899	2819
54	0	0	2053	4	183	899	2820
55	0	0	1981	4	182	898	2819
56	0	0	1920	4	182	899	2816
57	0	0	1902	4	183	899	2809
58	0	0	1904	5	181	898	2807
59	0	0	1937	5	182	899	2809
60	0	0	1980	5	181	899	2811
61	0	0	1995	5	181	898	2814
62	0	0	1999	5	181	899	2818
63	0	0	2014	5	182	899	2820
64	0	0	2040	5	182	899	2821
65	0	0	2054	5	183	898	2820
66	0	0	2050	5	184	899	2816
67	0	0	2095	5	184	899	2810
68	0	0	2149	5	184	899	2807
69	0	0	2140	4	186	899	2808
70	0	0	2085	4	185	899	2811
71	0	0	2061	4	186	899	2814
72	0	0	2032	4	185	899	2817
73	0	0	1993	4	184	899	2820
74	0	0	1970	4	183	899	2821
75	0	0	1947	4	184	899	2819
76	0	0	1930	4	183	898	2816
77	0	0	1931	5	182	898	2809
78	0	0	1945	6	182	899	2808
79	0	0	1970	5	183	899	2808
80	0	0	1992	5	181	898	2811
81	0	0	1996	5	183	898	2814
82	0	0	2012	5	182	899	2818
83	0	0	2054	5	182	899	2821
84	0	0	2073	5	183	899	2821
85	0	0	2061	4	184	898	2819
86	0	0	2035	4	183	899	2816
87	0	0	2048	5	184	899	2809
88	0	0	2099	4	186	899	2807
89	0	0	2116	5	186	899	2808
90	0	0	2100	4	186	898	2811
91	0	0	2075	4	185	899	2814
92	0	0	2049	4	184	899	2818
93	0	0	2017	4	184	899	2821
94	0	0	1972	4	184	899	2821
95	0	0	1936	4	183	899	2820
96	0	0	1914	5	182	898	2816
97	0	0	1914	5	182	899	2810
98	0	0	1927	5	182	899	2808
99	0	0	1986	5	181	899	2808
100	0	0	2046	5	183	898	2811
101	0	0	2052	5	181	898	2814
102	0	0	2040	5	181	898	2817
103	0	0	2046	5	182	898	2820
104	0	0	2045	5	183	899	2821
105	0	0	2036	4	184	899	2819
106	0	0	2001	4	184	899	2816
107	0	0	1988	5	184	899	2809
108	0	0	2021	5	186	898	2807
109	0	0	2044	6	186	899	2808
110	0	0	2034	5	184	899	2812
111	0	0	2020	4	184	898	2814
112	0	0	1981	4	185	898	2818
113	0	0	1938	4	184	899	2820
114	0	0	1906	4	183	899	2821
115	0	0	1891	4	184	899	2820
116	0	0	1895	5	182	899	2816
117	0	0	1921	5	183	899	2809
118	0	0	1962	6	181	898	2806
119	0	0	2006	5	182	899	2808
120	0	0	2053	4	181	899	2811
121	0	0	2085	4	182	898	2814
122	0	0	2076	4	183	898	2817
123	0	0	2053	5	183	898	2820
124	0	0	2051	5	184	899	2820
125	0	0	2080	5	184	898	2820
126	0	0	2122	4	184	899	2817
127	0	0	2163	4	186	899	2810
0	0	0	2199	4	185	899	2807
1	0	0	2191	4	185	899	2809
2	0	0	2156	4	185	899	2811
3	0	0	2104	4	185	899	2814
4	0	0	1995	4	185	899	2817
5	0	0	1904	5	184	898	2819
6	0	0	1852	5	184	899	2821
7	0	0	1847	5	183	899	2820
8	0	0	1892	4	183	899	2815
9	0	0	1954	5	182	898	2809
10	0	0	2003	5	181	899	2807
11	0	0	2018	4	182	899	2808
12	0	0	2016	5	181	898	2811
13	0	0	2055	3	182	899	2815
14	0	0	2121	4	182	898	2818
15	0	0	2140	5	183	899	2820
16	0	0	2134	6	184	899	2821
17	0	0	2118	5	182	899	2820
18	0	0	2099	4	185	900	2816
19	0	0	2097	5	185	899	2810
20	0	0	2104	5	185	898	2807
21	0	0	2110	5	184	899	2808
22	0	0	2110	5	185	898	2811
23	0	0	2069	4	185	898	2814
24	0	0	2005	5	184	898	2817
25	0	0	1937	4	185	898	2820
26	0	0	1905	5	183	899	2820
27	0	0	1922	5	183	898	2819
28	0	0	1943	5	183	898	2816
29	0	0	1948	5	182	899	2810
30	0	0	1962	5	182	899	2808
31	0	0	1987	6	181	899	2808
32	0	0	1998	5	182	899	2812
33	0	0	1976	4	182	899	2815
34	0	0	1991	5	182	898	2819
35	0	0	2031	5	182	899	2821
36	0	0	2038	5	184	899	2821
37	0	0	2025	4	184	899	2820
38	0	0	2035	5	185	898	2816
39	0	0	2074	5	185	899	2810
40	0	0	2132	5	185	899	2808
41	0	0	2158	5	185	899	2808
42	0	0	2135	4	186	899	2811
43	0	0	2092	4	185	899	2815
44	0	0	2038	4	186	899	2817
45	0	0	1965	4	185	899	2820
46	0	0	1888	4	184	899	2821
47	0	0	1846	4	183	898	2820
48	0	0	1864	5	183	899	2816
49	0	0	1905	5	183	899	2810
50	0	0	1925	5	183	898	2807
51	0	0	1956	5	181	899	2808
52	0	0	2009	5	182	899	2811
53	0	0	2043	4	182	899	2814
54	0	0	2052	5	183	898	2818
55	0	0	2077	5	182	898	2820
56	0	0	2114	4	182	899	2821
57	0	0	2153	5	183	898	2820
58	0	0	2178	5	183	898	2816
59	0	0	2172	5	185	899	2810
60	0	0	2166	5	185	898	2808
61	0	0	2152	4	184	899	2808
62	0	0	2108	4	185	899	2812
63	0	0	2058	5	185	898	2814
64	0	0	2024	4	185	899	2819
65	0	0	2014	5	185	899	2821
66	0	0	1967	4	183	899	2821
67	0	0	1908	4	183	899	2820
68	0	0	1888	4	183	899	2816
69	0	0	1902	5	183	898	2810
70	0	0	1925	5	181	899	2808
71	0	0	1931	4	181	899	2809
72	0	0	1931	4	180	898	2811
73	0	0	1942	4	182	899	2814
74	0	0	1983	5	182	898	2817
75	0	0	2033	5	183	899	2820
76	0	0	2087	4	182	899	2821
77	0	0	2134	5	184	899	2820
78	0	0	2149	6	183	898	2816
79	0	0	2156	5	185	898	2810
80	0	0	2159	5	185	898	2808
81	0	0	2133	4	186	899	2808
82	0	0	2122	5	185	898	2812
83	0	0	2102	4	185	899	2815
84	0	0	2043	5	185	898	2818
85	0	0	1981	4	184	899	2820
86	0	0	1971	5	184	899	2821
87	0	0	1998	5	183	898	2820
88	0	0	2038	5	182	899	2816
89	0	0	2072	5	183	898	2809
90	0	0	2052	4	182	898	2807
91	0	0	2005	4	182	899	2808
92	0	0	1965	4	182	898	2811
93	0	0	1944	4	183	899	2814
94	0	0	1938	5	183	898	2818
95	0	0	1982	5	182	899	2821
96	0	0	2065	5	184	899	2821
97	0	0	2120	4	184	898	2820
98	0	0	2143	5	184	898	2816
99	0	0	2147	6	184	899	2810
100	0	0	2134	4	184	899	2807
101	0	0	2107	3	185	899	2808
102	0	0	2088	4	185	899	2811
103	0	0	2032	4	185	899	2815
104	0	0	1956	4	185	899	2817
105	0	0	1922	5	183	898	2820
106	0	0	1941	4	184	899	2821
107	0	0	1955	5	183	899	2819
108	0	0	1975	5	182	898	2816
109	0	0	2016	5	182	898	2809
110	0	0	2041	5	182	899	2807
111	0	0	2032	4	181	899	2809
112	0	0	2029	5	182	899	2812
113	0	0	2048	4	182	898	2814
114	0	0	2062	5	182	898	2818
115	0	0	2051	5	183	899	2821
116	0	0	2060	5	183	898	2821
117	0	0	2099	5	183	898	2820
118	0	0	2157	5	184	898	2816
119	0	0	2218	5	185	899	2810
120	0	0	2229	5	185	899	2807
121	0	0	2214	4	185	899	2808
122	0	0	2192	5	186	898	2811
123	0	0	2159	4	186	899	2814
124	0	0	2095	4	184	898	2817
125	0	0	2023	4	184	899	2820
126	0	0	1982	4	183	899	2821
127	0	0	1961	4	183	899	2819
0	0	0	1958	5	182	899	2816
1	0	0	1966	5	182	898	2809
2	0	0	1960	5	182	899	2807
3	0	0	1935	4	182	899	2809
4	0	0	1942	5	181	898	2812
5	0	0	2000	5	181	899	2815
6	0	0	2079	5	182	898	2818
7	0	0	2131	5	182	899	2821
8	0	0	2149	5	182	899	2821
9	0	0	2156	5	184	898	2819
10	0	0	2175	5	185	899	2816
11	0	0	2190	5	184	898	2809
12	0	0	2200	4	186	899	2807
13	0	0	2168	4	186	899	2809
14	0	0	2137	4	185	899	2811
15	0	0	2114	4	185	898	2814
16	0	0	2072	4	184	899	2818
17	0	0	2014	4	184	898	2820
18	0	0	1964	4	183	899	2821
19	0	0	1935	4	183	899	2820
20	0	0	1910	4	183	899	2816
21	0	0	1899	4	183	899	2810
22	0	0	1924	5	181	899	2807
23	0	0	2010	4	182	899	2809
24	0	0	2044	5	182	898	2811
25	0	0	2068	5	182	898	2814
26	0	0	2114	5	182	899	2818
27	0	0	2139	5	183	899	2820
28	0	0	2146	4	184	899	2821
29	0	0	2132	4	183	898	2820
30	0	0	2101	4	184	898	2816
31	0	0	2081	5	185	898	2809
32	0	0	2076	5	185	899	2807
33	0	0	2080	5	186	899	2809
34	0	0	2070	5	185	899	2811
35	0	0	2062	5	185	899	2815
36	0	0	2039	4	186	899	2818
37	0	0	2019	4	184	899	2820
38	0	0	1990	4	183	899	2822
39	0	0	1951	4	183	898	2820
40	0	0	1928	4	182	899	2816
41	0	0	1912	4	181	899	2809
42	0	0	1921	5	182	898	2807
43	0	0	1959	5	182	899	2808
44	0	0	1969	4	181	898	2811
45	0	0	1977	5	182	899	2815
46	0	0	2034	5	184	898	2818
47	0	0	2080	5	183	899	2820
48	0	0	2089	4	182	899	2821
49	0	0	2092	5	184	899	2820
50	0	0	2092	5	184	899	2816
51	0	0	2114	5	185	898	2809
52	0	0	2148	5	184	898	2807
53	0	0	2163	4	185	899	2809
54	0	0	2146	4	185	899	2812
55	0	0	2095	4	185	898	2814
56	0	0	2013	4	184	899	2818
57	0	0	1954	4	184	899	2821
58	0	0	1913	3	183	899	2821
59	0	0	1900	5	184	899	2819
60	0	0	1922	5	184	898	2816
61	0	0	1949	5	181	899	2809
62	0	0	1939	5	182	899	2807
63	0	0	1937	5	183	899	2808
64	0	0	1955	5	181	898	2811
65	0	0	1995	5	182	898	2814
66	0	0	2028	5	181	898	2818
67	0	0	2060	5	183	899	2820
68	0	0	2113	3	183	899	2821
69	0	0	2152	5	183	899	2819
70	0	0	2165	5	184	899	2816
71	0	0	2149	4	184	899	2810
72	0	0	2123	4	186	899	2807
73	0	0	2107	4	185	899	2809
74	0	0	2090	4	184	898	2812
75	0	0	2072	4	185	899	2815
76	0	0	2049	5	185	898	2818
77	0	0	2018	4	183	898	2820
78	0	0	1985	3	184	899	2821
79	0	0	1952	4	183	899	2819
80	0	0	1936	4	183	898	2816
81	0	0	1936	5	183	898	2810
82	0	0	1948	5	182	899	2808
83	0	0	1992	4	183	898	2808
84	0	0	2008	5	182	899	2812
85	0	0	2020	5	181	899	2815
86	0	0	2045	5	182	898	2818
87	0	0	2085	4	184	899	2820
88	0	0	2120	5	183	899	2821
89	0	0	2133	5	184	899	2820
90	0	0	2122	3	184	899	2816
91	0	0	2130	5	184	898	2810
92	0	0	2149	5	185	899	2807
93	0	0	2126	3	186	899	2809
94	0	0	2105	5	185	898	2811
95	0	0	2082	4	185	899	2814
96	0	0	2045	4	184	899	2817
97	0	0	2005	4	185	899	2820
98	0	0	1958	4	183	899	2821
99	0	0	1921	4	183	899	2819
100	0	0	1909	4	183	899	2816
101	0	0	1899	4	182	900	2809
102	0	0	1921	5	182	899	2807
103	0	0	1959	5	182	899	2809
104	0	0	1978	5	182	899	2811
105	0	0	2002	5	182	899	2815
106	0	0	2025	5	181	898	2818
107	0	0	2052	5	181	899	2820
108	0	0	2081	5	183	899	2821
109	0	0	2103	5	183	899	2819
110	0	0	2112	5	185	899	2816
111	0	0	2129	5	185	899	2810
112	0	0	2156	5	185	899	2808
113	0	0	2171	4	186	899	2809
114	0	0	2176	5	185	899	2812
115	0	0	2177	5	185	899	2814
116	0	0	2129	4	184	899	2818
117	0	0	2087	4	185	899	2820
118	0	0	2073	4	183	899	2821
119	0	0	2072	5	183	898	2819
120	0	0	2058	4	183	899	2816
121	0	0	2051	5	182	898	2809
122	0	0	2064	5	180	899	2808
123	0	0	2116	4	181	899	2809
124	0	0	2180	5	182	899	2811
125	0	0	2234	5	182	899	2815
126	0	0	2294	5	182	898	2818
127	0	0	2364	5	182	899	2820
0	0	0	2419	4	183	899	2821
1	0	0	2455	5	183	899	2819
2	0	0	2476	5	185	898	2816
3	0	0	2499	5	184	899	2810
4	0	0	2503	5	185	899	2808
5	0	0	2475	4	184	899	2809
6	0	0	2445	4	185	899	2812
7	0	0	2389	4	186	898	2814
8	0	0	2311	5	185	898	2818
9	0	0	2248	4	183	899	2821
10	0	0	2182	4	183	899	2821
11	0	0	2113	4	182	899	2820
12	0	0	2069	5	183	898	2816
13	0	0	2054	4	183	899	2810
14	0	0	2041	5	181	899	2808
15	0	0	2051	5	182	899	2809
16	0	0	2068	5	182	899	2812
17	0	0	2076	6	182	898	2814
18	0	0	2080	5	182	898	2818
19	0	0	2071	4	182	899	2821
20	0	0	2056	4	183	899	2821
21	0	0	2026	4	183	898	2819
22	0	0	2003	5	184	899	2816
23	0	0	2020	5	185	898	2810
24	0	0	2040	5	187	899	2807
25	0	0	2024	4	184	899	2809
26	0	0	1985	4	185	898	2812
27	0	0	1924	4	185	899	2815
28	0	0	1865	4	185	898	2818
29	0	0	1858	5	183	899	2821
30	0	0	1845	4	184	899	2822
31	0	0	1809	4	183	899	2819
32	0	0	1787	4	182	899	2816
33	0	0	1814	5	183	899	2810
34	0	0	1811	4	184	899	2807
35	0	0	1792	4	182	899	2808
36	0	0	1832	5	182	899	2811
37	0	0	1936	5	181	898	2814
38	0	0	2033	5	182	898	2818
39	0	0	2097	5	182	899	2820
40	0	0	2125	5	183	899	2821
41	0	0	2126	5	183	899	2820
42	0	0	2102	4	184	898	2816
43	0	0	2080	4	185	898	2810
44	0	0	2070	4	186	899	2808
45	0	0	2059	4	185	899	2809
46	0	0	2037	4	185	899	2812
47	0	0	2010	4	184	899	2815
48	0	0	2011	5	185	899	2819
49	0	0	2016	5	186	899	2820
50	0	0	2002	4	183	899	2821
51	0	0	1997	5	183	899	2819
52	0	0	1998	5	182	898	2815
53	0	0	1998	4	182	899	2809
54	0	0	1989	5	183	898	2807
55	0	0	1992	5	182	899	2809
56	0	0	2004	5	181	898	2811
57	0	0	2022	5	181	899	2815
58	0	0	2029	5	181	898	2818
59	0	0	2024	5	183	898	2820
60	0	0	2017	5	183	899	2821
61	0	0	2011	5	184	898	2820
62	0	0	2005	5	184	898	2816
63	0	0	2000	5	184	898	2810
64	0	0	1998	5	185	899	2808
65	0	0	2004	5	185	899	2809
66	0	0	2030	4	186	898	2811
67	0	0	2063	5	185	899	2815
68	0	0	2080	4	184	898	2818
69	0	0	2070	5	184	898	2820
70	0	0	2036	4	183	899	2821
71	0	0	1994	4	183	899	2820
72	0	0	1963	5	182	898	2815
73	0	0	1952	5	182	898	2810
74	0	0	1962	5	182	899	2808
75	0	0	1993	5	180	899	2809
76	0	0	2033	5	182	898	2811
77	0	0	2053	4	183	899	2816
78	0	0	2056	5	183	898	2819
79	0	0	2054	5	183	898	2821
80	0	0	2061	5	184	899	2821
81	0	0	2088	5	183	899	2820
82	0	0	2111	5	184	899	2816
83	0	0	2119	5	185	899	2810
84	0	0	2123	5	185	899	2808
85	0	0	2105	4	184	899	2809
86	0	0	2071	4	185	899	2811
87	0	0	2028	4	184	899	2814
88	0	0	1980	4	183	899	2818
89	0	0	1937	4	185	898	2820
90	0	0	1906	4	183	899	2821
91	0	0	1879	4	183	898	2819
92	0	0	1891	5	182	899	2816
93	0	0	1918	5	182	899	2810
94	0	0	1940	5	182	898	2808
95	0	0	1974	5	182	899	2809
96	0	0	2020	5	181	899	2812
97	0	0	2053	4	183	899	2815
98	0	0	2076	6	182	898	2818
99	0	0	2113	5	182	899	2821
100	0	0	2127	5	184	899	2821
101	0	0	2111	5	183	898	2819
102	0	0	2101	5	184	898	2815
103	0	0	2123	4	184	898	2809
104	0	0	2160	5	185	898	2807
105	0	0	2152	4	185	899	2809
106	0	0	2128	4	184	899	2811
107	0	0	2091	4	185	899	2815
108	0	0	2037	4	184	898	2818
109	0	0	1997	4	184	898	2821
110	0	0	1984	5	184	899	2822
111	0	0	1988	5	184	898	2820
112	0	0	1990	5	183	899	2816
113	0	0	1986	5	182	898	2809
114	0	0	1957	4	183	898	2808
115	0	0	1935	4	182	899	2809
116	0	0	1943	5	182	898	2811
117	0	0	1983	5	181	899	2815
118	0	0	2003	5	182	898	2818
119	0	0	2032	5	184	898	2820
120	0	0	2067	5	183	898	2821
121	0	0	2078	5	183	899	2819
122	0	0	2080	5	184	898	2815
123	0	0	2100	6	185	898	2810
124	0	0	2129	5	185	898	2807
125	0	0	2129	5	186	899	2809
126	0	0	2112	5	185	899	2811
127	0	0	2066	4	184	899	2815
0	0	0	2008	4	184	898	2818
1	0	0	1959	4	184	899	2821
2	0	0	1938	5	184	899	2821
3	0	0	1940	5	182	898	2820
4	0	0	1953	4	183	899	2816
5	0	0	1972	5	181	898	2809
6	0	0	1968	5	183	898	2807
7	0	0	1973	5	182	899	2809
8	0	0	1989	5	182	899	2811
9	0	0	2000	5	182	898	2815
10	0	0	2018	5	183	898	2818
11	0	0	2048	5	181	899	2820
12	0	0	2097	4	182	899	2821
13	0	0	2153	5	183	898	2820
14	0	0	2167	5	184	899	2816
15	0	0	2174	5	185	899	2810
16	0	0	2165	4	185	899	2808
17	0	0	2125	4	185	899	2809
18	0	0	2082	4	185	899	2812
19	0	0	2033	4	185	898	2815
20	0	0	1995	4	185	899	2819
21	0	0	1971	4	184	899	2821
22	0	0	1915	4	183	899	2821
23	0	0	1856	4	182	899	2819
24	0	0	1849	5	182	899	2816
25	0	0	1877	5	182	900	2809
26	0	0	1905	5	183	899	2807
27	0	0	1922	5	182	899	2809
28	0	0	1943	5	181	898	2811
29	0	0	1986	5	182	898	2815
30	0	0	2032	6	182	898	2818
31	0	0	2072	4	183	899	2821
32	0	0	2098	5	184	899	2822
33	0	0	2118	5	184	899	2820
34	0	0	2123	5	184	898	2816
35	0	0	2121	4	185	899	2809
36	0	0	2112	5	185	899	2808
37	0	0	2084	4	185	899	2809
38	0	0	2065	4	185	899	2812
39	0	0	2060	4	185	899	2815
40	0	0	2039	4	185	899	2818
41	0	0	2004	4	184	899	2821
42	0	0	1942	4	184	899	2821
43	0	0	1890	4	182	899	2820
44	0	0	1879	5	183	898	2815
45	0	0	1910	5	182	899	2809
46	0	0	1946	5	182	899	2808
47	0	0	1976	5	182	899	2809
48	0	0	2009	5	182	899	2812
49	0	0	2039	5	181	898	2815
50	0	0	2053	5	182	899	2819
51	0	0	2074	5	183	898	2821
52	0	0	2093	5	183	899	2822
53	0	0	2108	5	183	899	2820
54	0	0	2118	5	184	899	2816
55	0	0	2137	5	184	898	2809
56	0	0	2156	5	185	898	2807
57	0	0	2161	5	186	898	2809
58	0	0	2149	4	184	899	2811
59	0	0	2122	4	185	898	2814
60	0	0	2060	4	184	899	2818
61	0	0	2005	4	184	899	2821
62	0	0	1953	4	183	899	2821
63	0	0	1929	5	183	898	2820
64	0	0	1946	4	182	899	2816
65	0	0	1972	5	183	898	2810
66	0	0	2001	5	182	899	2808
67	0	0	2015	5	182	899	2809
68	0	0	1997	4	182	898	2812
69	0	0	1964	4	183	898	2815
70	0	0	1956	4	182	899	2818
71	0	0	2012	5	184	898	2820
72	0	0	2103	5	183	898	2821
73	0	0	2151	5	183	898	2820
74	0	0	2164	5	183	899	2816
75	0	0	2187	5	184	899	2810
76	0	0	2204	5	187	899	2808
77	0	0	2163	4	186	899	2809
78	0	0	2108	4	185	899	2812
79	0	0	2078	5	185	899	2815
80	0	0	2061	4	184	899	2819
81	0	0	2020	4	184	898	2821
82	0	0	1995	4	183	899	2822
83	0	0	1973	4	182	898	2820
84	0	0	1949	4	183	899	2816
85	0	0	1943	5	183	899	2810
86	0	0	1971	5	182	899	2807
87	0	0	2014	5	182	899	2809
88	0	0	2045	5	183	899	2811
89	0	0	2093	5	182	899	2815
90	0	0	2136	5	181	898	2818
91	0	0	2184	5	184	899	2820
92	0	0	2232	5	183	899	2821
93	0	0	2252	5	184	898	2819
94	0	0	2262	5	183	898	2816
95	0	0	2282	5	185	899	2810
96	0	0	2308	5	185	899	2808
97	0	0	2295	4	184	899	2809
98	0	0	2222	4	186	899	2812
99	0	0	2108	4	185	899	2815
100	0	0	2007	4	185	899	2819
101	0	0	1968	4	184	899	2821
102	0	0	1969	5	185	899	2821
103	0	0	1958	5	183	899	2820
104	0	0	1919	4	182	899	2816
105	0	0	1905	4	181	899	2809
106	0	0	1931	5	182	898	2808
107	0	0	1979	5	180	898	2809
108	0	0	2020	5	183	899	2811
109	0	0	2057	5	182	899	2815
110	0	0	2093	4	183	899	2818
111	0	0	2113	4	183	899	2820
112	0	0	2148	5	183	899	2821
113	0	0	2190	5	184	899	2819
114	0	0	2188	4	184	899	2816
115	0	0	2171	5	184	900	2810
116	0	0	2148	4	185	898	2808
117	0	0	2122	4	185	899	2810
118	0	0	2105	5	185	899	2812
119	0	0	2109	5	185	899	2815
120	0	0	2098	5	185	899	2818
121	0	0	2045	4	184	899	2820
122	0	0	1985	4	185	899	2821
123	0	0	1967	5	182	899	2820
124	0	0	1974	7	183	899	2816
125	0	0	1967	5	181	899	2809
126	0	0	1977	5	182	898	2807
127	0	0	2022	5	181	899	2809
0	0	0	2070	5	182	899	2812
1	0	0	2111	4	182	899	2816
2	0	0	2134	5	183	898	2818
3	0	0	2109	4	183	898	2821
4	0	0	2080	4	183	899	2822
5	0	0	2095	5	184	899	2820
6	0	0	2127	5	184	899	2816
7	0	0	2129	5	183	899	2810
8	0	0	2119	4	186	899	2808
9	0	0	2078	4	187	899	2809
10	0	0	2032	4	185	899	2811
11	0	0	2004	4	185	899	2815
12	0	0	1981	5	184	899	2818
13	0	0	1957	4	184	899	2821
14	0	0	1938	4	183	899	2821
15	0	0	1934	5	182	899	2820
16	0	0	1931	5	183	898	2815
17	0	0	1922	5	182	899	2809
18	0	0	1909	4	181	899	2808
19	0	0	1907	5	182	899	2809
20	0	0	1912	5	182	898	2812
21	0	0	1921	5	182	898	2815
22	0	0	1964	5	181	899	2819
23	0	0	2018	5	182	899	2821
24	0	0	2075	5	182	899	2822
25	0	0	2102	5	184	899	2820
26	0	0	2097	5	184	899	2816
27	0	0	2106	5	186	898	2809
28	0	0	2115	5	185	898	2808
29	0	0	2084	4	184	899	2809
30	0	0	2050	4	186	899	2812
31	0	0	2011	4	184	899	2816
32	0	0	1958	4	184	900	2818
33	0	0	1920	4	183	899	2821
34	0	0	1896	4	184	898	2821
35	0	0	1885	4	183	898	2820
36	0	0	1886	5	183	899	2816
37	0	0	1913	5	182	898	2810
38	0	0	1937	5	181	899	2808
39	0	0	1948	5	183	899	2809
40	0	0	1955	5	183	899	2812
41	0	0	1956	5	182	899	2815
42	0	0	1964	5	181	898	2819
43	0	0	1995	5	182	899	2821
44	0	0	2024	5	182	898	2822
45	0	0	2050	5	184	899	2820
46	0	0	2080	5	185	899	2816
47	0	0	2090	5	185	899	2810
48	0	0	2102	5	185	899	2808
49	0	0	2079	4	184	899	2809
50	0	0	2075	5	185	899	2812
51	0	0	2081	4	185	899	2815
52	0	0	2029	4	185	899	2819
53	0	0	1958	4	185	899	2821
54	0	0	1914	4	183	899	2822
55	0	0	1878	4	182	899	2820
56	0	0	1853	3	181	899	2816
57	0	0	1833	4	182	898	2810
58	0	0	1827	5	182	899	2808
59	0	0	1834	5	183	899	2809
60	0	0	1845	5	181	899	2812
61	0	0	1880	5	181	899	2815
62	0	0	1970	5	182	899	2819
63	0	0	2039	4	182	899	2821
64	0	0	2060	4	183	899	2821
65	0	0	2059	5	183	898	2819
66	0	0	2033	4	184	899	2816
67	0	0	2040	5	186	898	2809
68	0	0	2097	4	185	899	2808
69	0	0	2145	5	184	898	2809
70	0	0	2146	4	185	899	2812
71	0	0	2069	4	183	899	2816
72	0	0	1988	4	184	899	2819
73	0	0	1942	4	184	899	2821
74	0	0	1896	4	184	899	2822
75	0	0	1871	5	183	899	2820
76	0	0	1896	5	182	899	2815
77	0	0	1937	5	182	899	2809
78	0	0	1946	5	182	899	2807
79	0	0	1952	5	181	898	2809
80	0	0	1960	5	181	899	2811
81	0	0	1969	4	183	898	2815
82	0	0	1992	5	183	899	2818
83	0	0	2014	5	182	899	2820
84	0	0	2032	4	184	898	2821
85	0	0	2044	5	184	899	2819
86	0	0	2071	5	184	898	2816
87	0	0	2120	5	185	899	2809
88	0	0	2152	5	184	898	2808
89	0	0	2125	4	185	899	2810
90	0	0	2060	4	185	899	2812
91	0	0	2019	3	184	899	2816
92	0	0	2009	4	185	899	2819
93	0	0	1974	4	183	899	2820
94	0	0	1934	4	182	898	2821
95	0	0	1902	4	181	899	2820
96	0	0	1883	4	182	898	2815
97	0	0	1892	5	182	899	2809
98	0	0	1918	5	181	898	2807
99	0	0	1942	5	181	898	2809
100	0	0	1955	5	182	898	2811
101	0	0	1961	5	181	899	2816
102	0	0	2001	5	182	899	2819
103	0	0	2048	4	184	899	2821
104	0	0	2082	5	183	899	2821
105	0	0	2086	4	184	899	2820
106	0	0	2076	5	184	898	2815
107	0	0	2085	5	185	899	2810
108	0	0	2095	5	185	899	2808
109	0	0	2078	4	185	898	2809
110	0	0	2058	4	185	899	2812
111	0	0	2027	4	183	899	2815
112	0	0	1978	4	185	899	2818
113	0	0	1951	4	184	899	2820
114	0	0	1959	5	184	898	2821
115	0	0	1994	5	184	899	2819
116	0	0	1996	4	182	899	2816
117	0	0	1965	4	181	899	2809
118	0	0	1948	5	183	899	2807
119	0	0	1944	5	182	898	2809
120	0	0	1930	4	181	899	2812
121	0	0	1930	4	181	898	2815
122	0	0	1953	5	183	899	2818
123	0	0	1988	5	183	899	2821
124	0	0	2045	5	183	899	2821
125	0	0	2111	5	184	899	2819
126	0	0	2145	4	184	899	2816
127	0	0	2151	5	184	898	2809
0	0	0	2149	5	185	899	2807
1	0	0	2129	4	185	898	2809
2	0	0	2087	4	185	899	2811
3	0	0	2061	4	185	899	2815
4	0	0	2034	5	184	898	2818
5	0	0	1974	4	184	899	2821
6	0	0	1911	4	183	898	2821
7	0	0	1908	5	183	899	2820
8	0	0	1946	5	182	898	2815
9	0	0	1991	5	182	899	2809
10	0	0	2039	5	181	899	2807
11	0	0	2041	4	182	898	2809
12	0	0	2010	4	182	898	2811
13	0	0	1977	4	182	899	2815
14	0	0	1985	5	183	898	2818
15	0	0	2036	5	182	898	2821
16	0	0	2086	4	183	898	2821
17	0	0	2109	5	184	899	2819
18	0	0	2100	4	184	899	2815
19	0	0	2092	5	184	899	2809
20	0	0	2107	5	185	899	2808
21	0	0	2123	5	185	898	2809
22	0	0	2097	4	184	899	2812
23	0	0	2020	4	184	898	2815
24	0	0	1961	4	185	899	2819
25	0	0	1960	4	182	899	2821
26	0	0	1985	5	183	898	2821
27	0	0	2025	5	183	899	2819
28	0	0	2032	4	183	899	2816
29	0	0	2020	4	183	899	2809
30	0	0	2003	4	182	899	2808
31	0	0	1994	5	181	899	2809
32	0	0	1998	5	182	899	2812
33	0	0	2002	4	182	898	2815
34	0	0	2023	5	182	899	2818
35	0	0	2090	5	183	899	2820
36	0	0	2156	5	182	898	2821
37	0	0	2136	4	184	899	2819
38	0	0	2112	5	184	899	2816
39	0	0	2164	5	186	898	2809
40	0	0	2224	5	184	899	2808
41	0	0	2226	4	185	899	2809
42	0	0	2168	4	185	899	2812
43	0	0	2088	4	184	899	2816
44	0	0	2008	4	185	899	2819
45	0	0	1940	4	184	899	2821
46	0	0	1910	5	184	899	2822
47	0	0	1909	5	182	898	2819
48	0	0	1936	5	182	898	2815
49	0	0	1958	4	182	899	2809
50	0	0	1968	5	183	899	2808
51	0	0	1992	5	182	898	2809
52	0	0	2005	5	181	899	2811
53	0	0	2011	4	181	899	2815
54	0	0	2012	5	183	899	2818
55	0	0	2005	5	183	899	2820
56	0	0	2029	5	183	899	2821
57	0	0	2094	5	183	899	2819
58	0	0	2192	4	184	899	2816
59	0	0	2247	5	185	899	2809
60	0	0	2214	4	184	898	2808
61	0	0	2139	4	185	899	2809
62	0	0	2080	4	185	899	2812
63	0	0	2046	4	185	899	2816
64	0	0	2014	4	185	899	2818
65	0	0	1990	4	184	899	2821
66	0	0	1974	5	182	899	2821
67	0	0	1975	5	182	899	2819
68	0	0	1977	5	183	898	2815
69	0	0	1958	3	182	898	2809
70	0	0	1936	4	181	899	2807
71	0	0	1942	5	182	899	2809
72	0	0	1992	5	181	898	2811
73	0	0	2046	5	183	899	2815
74	0	0	2076	5	183	899	2818
75	0	0	2074	5	183	898	2821
76	0	0	2057	4	183	899	2821
77	0	0	2058	5	183	899	2820
78	0	0	2078	5	184	899	2816
79	0	0	2125	5	186	898	2809
80	0	0	2146	5	186	899	2808
81	0	0	2132	5	185	899	2809
82	0	0	2118	5	185	899	2811
83	0	0	2093	4	184	899	2816
84	0	0	2039	4	185	899	2818
85	0	0	2000	4	185	899	2820
86	0	0	2000	5	183	899	2821
87	0	0	1983	4	182	899	2819
88	0	0	1945	4	182	899	2815
89	0	0	1915	4	183	899	2809
90	0	0	1916	5	181	899	2808
91	0	0	1944	5	180	899	2809
92	0	0	1985	5	182	898	2812
93	0	0	2025	5	181	898	2815
94	0	0	2056	4	183	898	2818
95	0	0	2077	5	182	899	2821
96	0	0	2107	5	183	899	2822
97	0	0	2131	5	183	898	2819
98	0	0	2149	5	184	899	2816
99	0	0	2179	5	184	900	2809
100	0	0	2168	4	184	899	2807
101	0	0	2109	4	186	899	2809
102	0	0	2064	4	185	899	2811
103	0	0	2036	4	185	899	2815
104	0	0	2023	4	184	899	2818
105	0	0	2001	4	185	899	2820
106	0	0	1971	4	183	899	2821
107	0	0	1921	4	182	899	2819
108	0	0	1875	4	183	899	2815
109	0	0	1845	4	182	898	2809
110	0	0	1838	5	182	898	2807
111	0	0	1884	5	181	899	2809
112	0	0	1949	5	181	898	2811
113	0	0	2007	5	182	899	2816
114	0	0	2074	5	183	899	2818
115	0	0	2155	5	183	899	2820
116	0	0	2190	5	184	899	2821
117	0	0	2164	4	185	899	2819
118	0	0	2116	4	183	899	2815
119	0	0	2078	4	184	899	2808
120	0	0	2070	4	185	898	2807
121	0	0	2073	5	184	898	2808
122	0	0	2094	5	185	899	2811
123	0	0	2117	5	184	898	2814
124	0	0	2094	4	185	899	2818
125	0	0	2028	4	184	899	2821
126	0	0	1957	4	182	899	2821
127	0	0	1908	4	183	899	2820
0	0	0	1900	5	183	898	2815
1	0	0	1919	4	183	898	2808
2	0	0	1927	5	182	899	2807
3	0	0	1920	5	181	898	2808
4	0	0	1920	5	183	898	2811
5	0	0	1963	5	182	899	2815
6	0	0	2025	4	182	898	2818
7	0	0	2069	5	182	898	2820
8	0	0	2088	5	182	899	2820
9	0	0	2077	5	183	899	2819
10	0	0	2080	5	183	898	2814
11	0	0	2129	5	185	899	2809
12	0	0	2177	5	185	899	2807
13	0	0	2160	4	184	899	2808
14	0	0	2099	4	185	899	2812
15	0	0	2049	3	185	898	2814
16	0	0	2043	4	184	898	2818
17	0	0	2051	5	184	899	2820
18	0	0	2010	4	183	899	2820
19	0	0	1966	4	182	899	2818
20	0	0	1962	5	183	899	2815
21	0	0	1929	4	181	900	2808
22	0	0	1898	4	180	899	2806
23	0	0	1907	5	180	899	2808
24	0	0	1964	5	182	899	2811
25	0	0	2028	6	183	898	2814
26	0	0	2066	4	183	899	2817
27	0	0	2073	5	182	899	2819
28	0	0	2066	5	183	898	2820
29	0	0	2066	5	184	898	2818
30	0	0	2063	5	183	899	2815
31	0	0	2081	4	185	898	2808
32	0	0	2105	5	186	899	2807
33	0	0	2083	4	185	899	2808
34	0	0	2065	4	184	898	2811
35	0	0	2040	4	184	899	2814
36	0	0	2001	4	184	899	2817
37	0	0	1966	4	183	899	2820
38	0	0	1934	4	182	899	2820
39	0	0	1930	5	183	899	2818
40	0	0	1937	5	183	899	2813
41	0	0	1952	4	182	899	2808
42	0	0	1975	5	182	899	2806
43	0	0	2014	5	182	899	2808
44	0	0	2050	5	181	898	2810
45	0	0	2063	5	181	899	2814
46	0	0	2075	3	183	899	2817
47	0	0	2104	5	183	899	2820
48	0	0	2123	5	184	899	2820
49	0	0	2125	5	183	898	2818
50	0	0	2135	5	184	898	2814
51	0	0	2155	4	185	899	2808
52	0	0	2174	5	184	899	2807
53	0	0	2168	4	185	899	2808
54	0	0	2135	4	186	899	2810
55	0	0	2096	4	185	899	2814
56	0	0	2045	4	185	899	2817
57	0	0	1989	4	183	899	2819
58	0	0	1944	4	182	899	2819
59	0	0	1944	5	183	899	2817
60	0	0	1955	5	182	898	2814
61	0	0	1965	4	181	899	2808
62	0	0	1963	5	182	899	2806
63	0	0	1964	5	181	898	2808
64	0	0	1970	5	182	899	2810
65	0	0	1992	5	183	898	2814
66	0	0	2053	4	182	899	2817
67	0	0	2112	5	182	899	2819
68	0	0	2147	5	183	899	2820
69	0	0	2156	5	184	899	2818
70	0	0	2140	4	184	899	2814
71	0	0	2147	5	185	899	2807
72	0	0	2170	5	185	899	2806
73	0	0	2177	5	185	899	2807
74	0	0	2157	4	184	898	2810
75	0	0	2121	4	185	898	2814
76	0	0	2082	3	185	899	2817
77	0	0	2070	5	183	899	2819
78	0	0	2068	5	184	899	2819
79	0	0	2063	5	184	899	2817
80	0	0	2036	4	183	899	2814
81	0	0	1989	4	182	899	2807
82	0	0	1946	4	182	899	2806
83	0	0	1954	5	182	899	2808
84	0	0	2018	5	181	899	2810
85	0	0	2075	5	182	898	2814
86	0	0	2100	5	183	899	2817
87	0	0	2123	5	183	899	2819
88	0	0	2140	5	182	899	2819
89	0	0	2150	6	183	898	2817
90	0	0	2152	5	184	898	2813
91	0	0	2179	5	184	899	2807
92	0	0	2179	4	185	899	2806
93	0	0	2149	4	185	899	2807
94	0	0	2125	4	186	899	2811
95	0	0	2098	6	184	898	2813
96	0	0	2073	4	184	898	2817
97	0	0	2064	5	183	898	2819
98	0	0	2043	4	183	899	2819
99	0	0	2007	5	183	898	2817
100	0	0	1986	4	183	898	2813
101	0	0	1966	4	182	899	2807
102	0	0	1955	5	181	899	2806
103	0	0	1953	5	182	899	2808
104	0	0	1977	5	182	898	2810
105	0	0	2032	4	181	899	2813
106	0	0	2116	5	184	899	2816
107	0	0	2175	5	181	899	2819
108	0	0	2170	4	183	898	2819
109	0	0	2140	4	184	899	2818
110	0	0	2120	4	183	899	2814
111	0	0	2120	5	185	899	2807
112	0	0	2136	5	185	898	2805
113	0	0	2152	5	185	899	2808
114	0	0	2105	4	184	898	2810
115	0	0	2024	4	184	898	2814
116	0	0	1979	4	185	899	2817
117	0	0	1978	5	183	899	2819
118	0	0	1975	5	184	899	2820
119	0	0	1960	4	182	898	2817
120	0	0	1960	5	183	898	2814
121	0	0	1985	6	182	899	2807
122	0	0	1995	4	182	899	2806
123	0	0	2002	5	183	899	2807
124	0	0	2008	5	181	898	2810
125	0	0	2024	5	182	898	2813
126	0	0	2059	4	182	898	2817
127	0	0	2097	5	183	899	2819
0	0	0	2117	5	182	899	2819
1	0	0	2122	5	183	898	2817
2	0	0	2138	5	183	898	2813
3	0	0	2169	5	185	899	2808
4	0	0	2181	4	185	900	2806
5	0	0	2159	4	185	898	2808
6	0	0	2139	5	185	899	2810
7	0	0	2090	4	185	898	2814
8	0	0	2037	4	185	899	2817
9	0	0	2015	4	184	899	2819
10	0	0	1991	4	183	899	2820
11	0	0	1956	4	184	899	2817
12	0	0	1908	4	182	899	2813
13	0	0	1870	4	182	899	2807
14	0	0	1860	4	181	899	2806
15	0	0	1889	5	181	898	2807
16	0	0	1963	4	183	899	2810
17	0	0	2055	4	183	899	2813
18	0	0	2114	5	182	899	2817
19	0	0	2146	5	183	899	2819
20	0	0	2167	5	184	899	2820
21	0	0	2191	5	183	898	2818
22	0	0	2213	5	184	898	2814
23	0	0	2230	5	185	899	2807
24	0	0	2231	5	186	899	2806
25	0	0	2171	4	185	899	2807
26	0	0	2084	4	184	898	2810
27	0	0	2016	4	185	899	2813
28	0	0	1988	5	185	899	2817
29	0	0	1982	4	185	899	2819
30	0	0	1945	4	183	898	2819
31	0	0	1924	4	183	898	2817
32	0	0	1925	5	182	898	2813
33	0	0	1927	5	181	899	2807
34	0	0	1926	4	183	899	2805
35	0	0	1932	5	182	899	2807
36	0	0	1954	5	181	898	2810
37	0	0	1988	5	183	898	2813
38	0	0	2021	4	183	898	2816
39	0	0	2061	4	182	900	2819
40	0	0	2104	5	184	898	2819
41	0	0	2142	4	184	899	2818
42	0	0	2160	5	185	898	2813
43	0	0	2162	5	185	899	2807
44	0	0	2148	4	185	899	2806
45	0	0	2111	4	185	899	2807
46	0	0	2100	5	186	899	2809
47	0	0	2083	4	184	898	2813
48	0	0	2048	4	183	899	2816
49	0	0	2017	4	183	899	2818
50	0	0	2005	4	183	898	2819
51	0	0	2003	4	183	899	2817
52	0	0	1980	4	183	898	2812
53	0	0	1940	4	182	899	2807
54	0	0	1913	4	181	899	2805
55	0	0	1944	5	180	898	2807
56	0	0	2001	5	182	898	2809
57	0	0	2078	5	183	898	2814
58	0	0	2132	5	182	899	2817
59	0	0	2149	5	183	899	2818
60	0	0	2131	4	183	899	2819
61	0	0	2083	4	184	899	2817
62	0	0	2046	5	184	898	2813
63	0	0	2083	5	184	899	2807
64	0	0	2135	4	186	899	2805
65	0	0	2161	5	185	898	2806
66	0	0	2172	5	185	898	2809
67	0	0	2164	4	184	898	2814
68	0	0	2150	4	186	899	2816
69	0	0	2139	5	184	899	2818
70	0	0	2116	4	183	899	2819
71	0	0	2106	5	183	898	2817
72	0	0	2116	4	182	899	2812
73	0	0	2132	5	183	898	2807
74	0	0	2123	5	181	899	2806
75	0	0	2111	5	182	898	2807
76	0	0	2120	5	182	899	2810
77	0	0	2132	5	182	898	2813
78	0	0	2155	5	182	898	2816
79	0	0	2250	5	183	899	2818
80	0	0	2340	5	183	899	2818
81	0	0	2391	5	184	898	2816
82	0	0	2402	5	184	898	2812
83	0	0	2432	5	184	899	2806
84	0	0	2466	4	185	899	2804
85	0	0	2476	5	184	899	2807
86	0	0	2467	4	186	899	2809
87	0	0	2410	4	185	898	2813
88	0	0	2337	4	184	899	2817
89	0	0	2283	4	183	898	2818
90	0	0	2248	4	183	899	2819
91	0	0	2210	4	182	898	2817
92	0	0	2186	4	182	899	2812
93	0	0	2177	4	183	898	2806
94	0	0	2153	4	181	899	2805
95	0	0	2112	4	182	899	2807
96	0	0	2069	4	182	899	2810
97	0	0	2081	5	182	899	2812
98	0	0	2130	5	182	898	2816
99	0	0	2153	4	183	898	2818
100	0	0	2144	4	183	899	2819
101	0	0	2116	4	184	898	2816
102	0	0	2078	4	184	898	2812
103	0	0	2051	4	184	899	2806
104	0	0	2009	4	185	899	2805
105	0	0	1959	4	184	899	2807
106	0	0	1932	4	186	899	2809
107	0	0	1926	5	185	899	2813
108	0	0	1937	5	185	899	2816
109	0	0	1947	5	183	899	2818
110	0	0	1901	4	184	899	2819
111	0	0	1830	4	182	899	2816
112	0	0	1814	5	182	898	2813
113	0	0	1851	4	180	899	2806
114	0	0	1905	5	181	898	2805
115	0	0	1951	5	182	899	2807
116	0	0	1970	5	181	898	2809
117	0	0	1978	5	181	899	2812
118	0	0	1987	5	183	898	2816
119	0	0	1998	5	184	898	2818
120	0	0	2024	5	182	898	2819
121	0	0	2078	5	184	898	2816
122	0	0	2125	5	185	898	2813
123	0	0	2154	5	185	899	2807
124	0	0	2141	4	186	899	2805
125	0	0	2094	4	185	898	2806
126	0	0	2073	5	185	898	2809
127	0	0	2039	4	184	898	2812
0	0	0	1992	5	183	899	2816
1	0	0	1962	4	184	899	2817
2	0	0	1959	5	183	899	2818
3	0	0	1954	5	183	899	2817
4	0	0	1948	4	181	899	2812
5	0	0	1933	5	182	898	2806
6	0	0	1925	4	183	898	2804
7	0	0	1953	5	181	899	2807
8	0	0	2000	5	182	898	2809
9	0	0	2042	4	182	899	2813
10	0	0	2056	6	183	898	2816
11	0	0	2030	4	183	899	2818
12	0	0	2015	5	184	899	2819
13	0	0	2026	5	184	899	2817
14	0	0	2070	5	185	899	2813
15	0	0	2124	5	185	899	2806
16	0	0	2180	5	185	899	2804
17	0	0	2208	5	185	898	2806
18	0	0	2205	5	185	898	2809
19	0	0	2162	4	185	898	2812
20	0	0	2074	5	185	899	2816
21	0	0	1985	4	183	899	2818
22	0	0	1931	4	183	898	2818
23	0	0	1914	5	182	899	2817
24	0	0	1914	5	181	899	2813
25	0	0	1906	4	182	899	2806
26	0	0	1904	5	181	899	2804
27	0	0	1913	5	181	898	2807
28	0	0	1932	5	181	898	2809
29	0	0	1953	5	183	898	2813
30	0	0	1986	4	182	898	2816
31	0	0	2022	5	183	899	2818
32	0	0	2059	4	183	898	2818
33	0	0	2080	5	184	899	2816
34	0	0	2103	5	185	898	2812
35	0	0	2140	5	185	899	2806
36	0	0	2165	5	185	899	2804
37	0	0	2135	4	184	898	2806
38	0	0	2085	4	186	899	2810
39	0	0	2044	4	184	899	2812
40	0	0	2022	5	184	899	2816
41	0	0	2004	4	184	899	2818
42	0	0	1970	4	183	898	2818
43	0	0	1960	5	183	899	2817
44	0	0	1991	6	182	898	2812
45	0	0	2006	6	182	898	2806
46	0	0	1991	4	182	899	2805
47	0	0	1985	5	180	898	2806
48	0	0	1995	5	182	899	2810
49	0	0	1995	5	182	899	2812
50	0	0	2012	5	183	899	2816
51	0	0	2058	5	183	899	2818
52	0	0	2087	5	184	898	2818
53	0	0	2103	5	184	899	2816
54	0	0	2114	5	183	899	2812
55	0	0	2140	4	184	899	2806
56	0	0	2162	5	185	899	2805
57	0	0	2160	5	184	898	2806
58	0	0	2143	4	184	898	2809
59	0	0	2092	4	184	899	2812
60	0	0	2045	3	184	899	2816
61	0	0	2046	5	185	899	2818
62	0	0	2042	5	184	898	2818
63	0	0	2014	4	183	899	2816
64	0	0	1985	4	181	898	2813
65	0	0	1966	4	181	899	2806
66	0	0	1968	4	182	899	2804
67	0	0	1997	5	181	898	2806
68	0	0	2037	5	182	898	2809
69	0	0	2070	5	182	899	2812
70	0	0	2097	6	183	898	2816
71	0	0	2127	5	183	899	2818
72	0	0	2154	5	183	898	2818
73	0	0	2173	5	184	899	2816
74	0	0	2186	5	183	899	2812
75	0	0	2204	5	185	899	2806
76	0	0	2192	4	184	899	2805
77	0	0	2137	4	185	899	2807
78	0	0	2080	4	184	898	2809
79	0	0	2039	4	185	899	2812
80	0	0	2013	4	185	898	2816
81	0	0	1975	4	184	899	2818
82	0	0	1955	5	183	898	2818
83	0	0	1976	5	183	899	2817
84	0	0	1995	6	183	898	2812
85	0	0	1994	5	181	898	2806
86	0	0	2003	5	181	899	2804
87	0	0	2026	5	182	898	2806
88	0	0	2026	5	181	898	2809
89	0	0	2021	5	182	899	2812
90	0	0	2040	4	181	898	2816
91	0	0	2082	5	183	899	2818
92	0	0	2130	5	183	899	2819
93	0	0	2161	5	183	898	2816
94	0	0	2173	5	183	899	2813
95	0	0	2184	5	185	899	2807
96	0	0	2170	4	184	898	2805
97	0	0	2123	4	185	898	2806
98	0	0	2082	4	186	899	2809
99	0	0	2055	4	184	899	2813
100	0	0	2019	4	185	899	2816
101	0	0	2003	4	184	899	2818
102	0	0	2007	5	182	898	2818
103	0	0	2007	5	183	899	2816
104	0	0	1995	5	183	899	2811
105	0	0	1989	5	182	899	2806
106	0	0	1990	5	181	899	2804
107	0	0	2019	5	182	898	2806
108	0	0	2068	5	182	898	2809
109	0	0	2111	5	181	899	2813
110	0	0	2132	5	182	899	2816
111	0	0	2131	4	181	899	2818
112	0	0	2129	5	184	898	2818
113	0	0	2140	5	184	898	2816
114	0	0	2161	5	185	899	2812
115	0	0	2159	5	185	899	2806
116	0	0	2127	4	185	899	2805
117	0	0	2113	5	184	899	2806
118	0	0	2110	5	185	899	2809
119	0	0	2096	4	183	898	2813
120	0	0	2067	4	184	899	2816
121	0	0	2035	4	184	899	2818
122	0	0	2017	5	184	899	2818
123	0	0	2004	4	183	899	2816
124	0	0	1994	5	182	899	2812
125	0	0	2005	6	182	898	2806
126	0	0	2023	5	181	899	2804
127	0	0	2059	5	181	899	2806
0	0	0	2103	5	180	898	2809
1	0	0	2119	5	183	898	2813
2	0	0	2134	5	183	898	2816
3	0	0	2164	5	182	899	2818
4	0	0	2174	5	183	899	2818
5	0	0	2165	5	183	898	2816
6	0	0	2159	5	185	899	2812
7	0	0	2176	5	186	899	2806
8	0	0	2177	5	184	899	2805
9	0	0	2147	5	185	898	2806
10	0	0	2134	5	185	899	2809
11	0	0	2127	5	184	899	2812
12	0	0	2111	4	185	899	2816
13	0	0	2092	4	185	899	2818
14	0	0	2065	4	183	899	2819
15	0	0	2038	4	183	899	2817
16	0	0	2019	5	182	898	2812
17	0	0	2027	5	183	899	2806
18	0	0	2037	5	182	899	2805
19	0	0	2046	5	183	898	2806
20	0	0	2055	5	182	898	2809
21	0	0	2072	5	182	899	2812
22	0	0	2109	5	182	899	2816
23	0	0	2156	5	182	899	2818
24	0	0	2195	5	183	899	2818
25	0	0	2220	4	182	899	2816
26	0	0	2242	5	183	899	2812
27	0	0	2262	5	183	899	2806
28	0	0	2266	5	186	899	2804
29	0	0	2244	4	185	898	2806
30	0	0	2208	3	185	898	2809
31	0	0	2174	4	184	899	2813
32	0	0	2161	4	185	899	2816
33	0	0	2146	4	183	899	2818
34	0	0	2123	4	183	899	2819
35	0	0	2080	4	183	898	2816
36	0	0	2038	4	182	899	2812
37	0	0	2001	4	182	899	2806
38	0	0	1986	5	181	899	2805
39	0	0	2004	5	181	899	2806
40	0	0	2043	6	181	898	2809
41	0	0	2075	4	183	899	2812
42	0	0	2118	5	182	899	2816
43	0	0	2173	5	182	898	2818
44	0	0	2191	5	183	897	2818
45	0	0	2189	4	185	899	2816
46	0	0	2181	5	184	899	2812
47	0	0	2199	5	184	899	2806
48	0	0	2231	5	185	898	2804
49	0	0	2209	5	185	899	2807
50	0	0	2170	4	185	898	2809
51	0	0	2123	4	185	899	2813
52	0	0	2092	4	184	899	2817
53	0	0	2105	4	183	899	2818
54	0	0	2104	4	183	899	2819
55	0	0	2089	4	183	898	2816
56	0	0	2070	4	182	898	2812
57	0	0	2056	5	182	899	2805
58	0	0	2063	5	183	898	2804
59	0	0	2111	5	181	898	2806
60	0	0	2179	4	182	898	2809
61	0	0	2202	5	182	899	2812
62	0	0	2191	5	182	899	2816
63	0	0	2196	5	182	899	2817
64	0	0	2201	5	184	898	2818
65	0	0	2166	4	183	898	2816
66	0	0	2117	4	184	898	2813
67	0	0	2132	5	184	899	2806
68	0	0	2182	5	185	899	2805
69	0	0	2192	4	185	898	2806
70	0	0	2176	5	184	898	2809
71	0	0	2144	5	185	899	2812
72	0	0	2105	4	183	899	2816
73	0	0	2076	4	184	899	2818
74	0	0	2042	4	184	898	2818
75	0	0	2014	5	183	898	2816
76	0	0	1981	4	182	899	2811
77	0	0	1928	5	182	899	2805
78	0	0	1915	5	182	899	2805
79	0	0	1968	5	181	898	2806
80	0	0	2026	5	182	898	2809
81	0	0	2068	5	181	899	2813
82	0	0	2096	5	182	898	2816
83	0	0	2127	5	184	899	2818
84	0	0	2152	5	183	898	2818
85	0	0	2160	5	183	898	2816
86	0	0	2155	5	185	899	2813
87	0	0	2163	5	185	899	2806
88	0	0	2172	4	186	899	2804
89	0	0	2120	4	186	898	2806
90	0	0	2053	3	184	899	2810
91	0	0	2017	4	183	899	2812
92	0	0	2016	5	185	898	2816
93	0	0	2026	5	184	899	2818
94	0	0	2036	5	183	898	2818
95	0	0	2045	4	182	899	2817
96	0	0	2041	5	182	899	2811
97	0	0	2021	5	182	899	2806
98	0	0	2003	5	182	898	2804
99	0	0	2007	5	181	899	2806
100	0	0	2024	5	181	898	2809
101	0	0	2030	5	183	900	2813
102	0	0	1997	5	182	899	2816
103	0	0	1964	4	183	899	2818
104	0	0	1966	4	183	898	2818
105	0	0	2017	5	184	899	2816
106	0	0	2067	5	183	898	2811
107	0	0	2082	6	184	898	2805
108	0	0	2082	4	184	899	2804
109	0	0	2085	5	186	899	2807
110	0	0	2084	5	184	899	2809
111	0	0	2057	4	184	899	2813
112	0	0	2007	4	185	899	2816
113	0	0	1967	4	184	899	2818
114	0	0	1950	4	184	899	2819
115	0	0	1930	4	181	899	2816
116	0	0	1919	4	181	899	2812
117	0	0	1915	5	182	899	2806
118	0	0	1915	4	182	898	2805
119	0	0	1915	4	182	898	2806
120	0	0	1933	5	181	898	2809
121	0	0	1967	5	182	899	2812
122	0	0	2010	5	183	899	2816
123	0	0	2060	5	183	899	2817
124	0	0	2102	5	185	899	2818
125	0	0	2117	5	183	898	2816
126	0	0	2102	4	185	898	2811
127	0	0	2097	5	184	898	2806
0	0	0	2079	4	185	899	2805
1	0	0	2048	4	186	898	2806
2	0	0	2041	3	185	899	2810
3	0	0	2023	4	185	899	2812
4	0	0	1981	4	185	899	2816
5	0	0	1938	4	185	899	2818
6	0	0	1907	4	183	897	2818
7	0	0	1885	4	183	899	2816
8	0	0	1891	5	182	899	2811
9	0	0	1925	5	181	899	2805
10	0	0	1939	4	182	898	2804
11	0	0	1936	5	182	898	2806
12	0	0	1952	5	182	899	2809
13	0	0	1998	6	181	898	2812
14	0	0	2042	6	182	898	2815
15	0	0	2079	6	182	899	2818
16	0	0	2122	5	182	899	2818
17	0	0	2144	5	184	898	2816
18	0	0	2156	5	185	899	2812
19	0	0	2181	5	184	899	2806
20	0	0	2172	5	185	899	2805
21	0	0	2143	4	185	898	2806
22	0	0	2085	4	186	899	2809
23	0	0	1986	4	184	898	2812
24	0	0	1843	4	183	899	2816
25	0	0	1741	4	185	899	2818
26	0	0	1725	5	183	898	2818
27	0	0	1784	3	183	899	2817
28	0	0	1841	5	182	898	2811
29	0	0	1900	5	183	899	2805
30	0	0	1946	5	182	899	2804
31	0	0	1982	5	181	898	2806
32	0	0	1981	5	182	899	2809
33	0	0	1966	4	182	898	2812
34	0	0	1981	5	182	899	2815
35	0	0	2027	5	182	899	2818
36	0	0	2072	5	184	898	2818
37	0	0	2109	3	184	900	2816
38	0	0	2121	5	184	899	2812
39	0	0	2122	6	185	898	2806
40	0	0	2110	5	184	899	2805
41	0	0	2088	4	186	899	2806
42	0	0	2050	4	185	899	2809
43	0	0	2004	4	185	899	2813
44	0	0	1963	4	184	899	2816
45	0	0	1923	4	184	899	2818
46	0	0	1892	4	183	899	2818
47	0	0	1886	5	182	898	2816
48	0	0	1887	5	183	898	2811
49	0	0	1891	5	181	899	2805
50	0	0	1918	5	182	899	2804
51	0	0	1944	4	181	898	2806
52	0	0	1959	4	182	899	2809
53	0	0	1977	5	181	899	2813
54	0	0	2019	5	180	899	2816
55	0	0	2063	5	183	899	2818
56	0	0	2082	5	182	899	2819
57	0	0	2098	4	183	898	2816
58	0	0	2105	5	184	898	2812
59	0	0	2117	5	183	899	2806
60	0	0	2125	5	185	899	2804
61	0	0	2114	5	184	899	2806
62	0	0	2090	3	186	900	2809
63	0	0	2046	4	184	899	2812
64	0	0	1991	5	184	898	2815
65	0	0	1949	5	183	899	2817
66	0	0	1945	5	183	898	2818
67	0	0	1934	4	183	899	2816
68	0	0	1901	4	183	899	2812
69	0	0	1876	4	182	899	2806
70	0	0	1883	4	181	898	2805
71	0	0	1919	5	181	899	2807
72	0	0	1955	5	182	899	2809
73	0	0	1974	5	181	898	2813
74	0	0	1998	4	182	899	2816
75	0	0	2035	6	182	898	2818
76	0	0	2090	5	182	898	2818
77	0	0	2131	4	183	899	2816
78	0	0	2133	6	184	899	2811
79	0	0	2124	5	183	899	2805
80	0	0	2097	4	185	899	2804
81	0	0	2056	4	185	899	2806
82	0	0	2008	4	185	898	2809
83	0	0	1954	4	184	899	2813
84	0	0	1920	4	183	899	2816
85	0	0	1931	4	184	899	2818
86	0	0	1946	5	183	899	2818
87	0	0	1941	5	182	898	2816
88	0	0	1936	5	183	899	2812
89	0	0	1970	5	181	899	2806
90	0	0	2007	5	182	899	2805
91	0	0	2002	4	182	898	2806
92	0	0	1997	5	181	898	2809
93	0	0	2044	5	181	899	2812
94	0	0	2126	5	182	898	2816
95	0	0	2166	4	183	899	2817
96	0	0	2157	5	183	898	2817
97	0	0	2150	5	184	899	2816
98	0	0	2152	5	184	899	2811
99	0	0	2172	5	185	899	2805
100	0	0	2161	4	186	899	2804
101	0	0	2090	4	184	899	2806
102	0	0	2022	3	185	898	2809
103	0	0	1976	4	185	899	2813
104	0	0	1958	4	185	899	2816
105	0	0	1962	4	184	899	2818
106	0	0	1965	4	183	899	2819
107	0	0	1937	4	183	898	2816
108	0	0	1928	5	183	899	2812
109	0	0	1918	5	183	899	2806
110	0	0	1922	5	182	899	2804
111	0	0	1953	5	181	898	2806
112	0	0	1970	5	182	898	2808
113	0	0	1964	5	181	899	2812
114	0	0	1997	5	181	899	2815
115	0	0	2063	4	183	899	2817
116	0	0	2108	5	184	898	2818
117	0	0	2120	5	184	898	2816
118	0	0	2116	5	184	899	2811
119	0	0	2133	5	184	899	2806
120	0	0	2158	5	185	899	2805
121	0	0	2148	4	184	899	2806
122	0	0	2114	4	186	899	2809
123	0	0	2084	4	186	899	2812
124	0	0	2055	4	186	899	2816
125	0	0	2008	4	183	899	2818
126	0	0	1995	5	183	898	2818
127	0	0	1991	5	184	898	2816
0	0	0	1975	5	182	898	2811
1	0	0	1955	4	183	899	2806
2	0	0	1947	4	182	899	2804
3	0	0	1963	5	182	898	2806
4	0	0	1959	5	182	898	2808
5	0	0	1959	5	182	898	2812
6	0	0	1968	4	182	898	2816
7	0	0	1981	5	183	898	2818
8	0	0	2018	5	182	898	2818
9	0	0	2053	5	183	899	2816
10	0	0	2098	5	185	898	2811
11	0	0	2160	5	184	898	2806
12	0	0	2180	4	185	899	2804
13	0	0	2145	4	185	899	2807
14	0	0	2107	4	185	899	2809
15	0	0	2042	4	185	899	2812
16	0	0	1974	4	184	899	2816
17	0	0	1911	4	184	899	2817
18	0	0	1902	5	184	899	2817
19	0	0	1934	5	184	898	2816
20	0	0	1946	5	182	898	2811
21	0	0	1944	5	182	899	2805
22	0	0	1943	5	182	899	2804
23	0	0	1941	5	181	899	2806
24	0	0	1967	5	182	898	2809
25	0	0	2023	5	182	898	2812
26	0	0	2070	5	183	898	2816
27	0	0	2109	5	182	899	2818
28	0	0	2115	5	183	898	2818
29	0	0	2081	4	184	899	2817
30	0	0	2078	4	186	899	2811
31	0	0	2108	5	185	899	2805
32	0	0	2132	5	185	899	2805
33	0	0	2126	5	185	899	2806
34	0	0	2143	5	185	898	2809
35	0	0	2135	4	184	899	2812
36	0	0	2081	4	185	898	2815
37	0	0	2021	4	184	899	2817
38	0	0	1963	4	184	898	2817
39	0	0	1914	4	184	898	2816
40	0	0	1903	5	183	898	2811
41	0	0	1909	5	182	898	2805
42	0	0	1951	4	182	899	2804
43	0	0	1995	5	182	899	2806
44	0	0	2018	5	182	898	2809
45	0	0	2042	5	181	898	2812
46	0	0	2059	5	182	898	2816
47	0	0	2070	4	183	899	2817
48	0	0	2092	5	182	898	2817
49	0	0	2115	5	184	898	2816
50	0	0	2128	5	185	898	2811
51	0	0	2145	5	185	898	2805
52	0	0	2152	5	186	899	2805
53	0	0	2125	4	185	899	2806
54	0	0	2101	5	185	899	2809
55	0	0	2077	4	187	898	2812
56	0	0	2028	4	184	899	2816
57	0	0	1989	4	184	899	2818
58	0	0	1937	4	183	898	2818
59	0	0	1897	4	183	899	2816
60	0	0	1896	5	183	899	2811
61	0	0	1919	5	182	898	2805
62	0	0	1950	4	183	898	2804
63	0	0	1990	5	181	899	2807
64	0	0	2012	5	182	898	2809
65	0	0	2055	5	182	898	2813
66	0	0	2097	5	182	898	2815
67	0	0	2119	4	182	898	2817
68	0	0	2124	5	183	898	2818
69	0	0	2123	5	183	898	2816
70	0	0	2136	5	184	898	2811
71	0	0	2161	5	184	898	2805
72	0	0	2149	4	185	899	2804
73	0	0	2109	4	184	898	2806
74	0	0	2069	4	185	898	2809
75	0	0	2005	4	185	898	2812
76	0	0	1964	4	185	898	2816
77	0	0	1953	4	185	899	2818
78	0	0	1935	4	184	898	2818
79	0	0	1931	5	182	898	2816
80	0	0	1948	5	182	899	2811
81	0	0	1976	5	182	898	2805
82	0	0	1994	4	182	899	2804
83	0	0	2006	5	182	898	2806
84	0	0	2033	4	182	898	2808
85	0	0	2058	4	182	898	2812
86	0	0	2056	5	182	898	2815
87	0	0	2068	4	183	898	2818
88	0	0	2092	5	184	898	2817
89	0	0	2103	5	185	898	2815
90	0	0	2091	4	184	899	2811
91	0	0	2068	4	184	898	2805
92	0	0	2040	4	184	899	2805
93	0	0	1997	4	186	899	2806
94	0	0	1952	5	184	898	2809
95	0	0	1940	4	184	899	2813
96	0	0	1926	4	185	899	2816
97	0	0	1919	3	183	899	2818
98	0	0	1939	5	184	898	2817
99	0	0	1959	5	183	898	2815
100	0	0	1960	4	183	898	2810
101	0	0	1961	5	182	899	2805
102	0	0	1956	4	182	898	2804
103	0	0	1956	5	181	898	2806
104	0	0	1961	5	182	899	2809
105	0	0	1962	5	183	898	2812
106	0	0	1964	5	183	899	2815
107	0	0	2000	5	182	899	2818
108	0	0	2061	5	184	899	2818
109	0	0	2098	5	183	898	2816
110	0	0	2109	5	184	898	2811
111	0	0	2140	5	185	899	2805
112	0	0	2157	4	185	899	2804
113	0	0	2141	4	186	898	2806
114	0	0	2104	4	185	899	2809
115	0	0	2051	4	185	898	2812
116	0	0	2001	4	185	899	2816
117	0	0	1955	3	183	899	2817
118	0	0	1908	4	184	898	2817
119	0	0	1894	6	182	898	2815
120	0	0	1912	5	182	899	2811
121	0	0	1937	5	183	899	2805
122	0	0	1959	4	181	898	2804
123	0	0	1984	5	182	898	2806
124	0	0	2006	5	181	899	2809
125	0	0	2026	5	182	900	2812
126	0	0	2056	5	184	898	2816
127	0	0	2055	5	183	899	2818
0	0	0	2070	5	183	898	2817
1	0	0	2101	5	184	898	2816
2	0	0	2120	5	185	899	2811
3	0	0	2145	5	184	899	2806
4	0	0	2182	4	184	899	2804
5	0	0	2153	4	185	898	2806
6	0	0	2090	4	185	899	2809
7	0	0	2037	4	185	899	2812
8	0	0	2004	4	185	899	2816
9	0	0	1984	4	184	899	2818
10	0	0	1961	4	184	899	2817
11	0	0	1934	4	182	899	2815
12	0	0	1951	5	183	899	2811
13	0	0	1990	5	182	899	2805
14	0	0	1997	4	182	899	2804
15	0	0	1999	4	182	899	2806
16	0	0	2024	6	181	898	2809
17	0	0	2043	5	182	899	2812
18	0	0	2029	4	182	898	2816
19	0	0	2016	4	182	899	2818
20	0	0	2034	5	183	898	2817
21	0	0	2078	5	182	899	2816
22	0	0	2104	5	185	898	2810
23	0	0	2127	5	186	899	2805
24	0	0	2152	5	184	899	2804
25	0	0	2142	4	184	898	2805
26	0	0	2107	4	185	899	2808
27	0	0	2065	4	184	898	2812
28	0	0	2028	4	184	899	2816
29	0	0	1991	4	183	899	2817
30	0	0	1963	4	183	899	2818
31	0	0	1955	5	184	899	2815
32	0	0	1987	5	182	898	2811
33	0	0	1999	4	184	899	2805
34	0	0	1966	4	182	899	2805
35	0	0	1948	4	183	899	2806
36	0	0	1944	4	184	898	2809
37	0	0	1954	5	183	898	2812
38	0	0	1982	5	183	899	2816
39	0	0	2036	4	183	899	2818
40	0	0	2091	5	184	899	2818
41	0	0	2095	6	184	898	2815
42	0	0	2092	5	184	898	2811
43	0	0	2128	5	185	898	2805
44	0	0	2143	4	185	899	2804
45	0	0	2130	4	185	898	2805
46	0	0	2096	5	186	898	2808
47	0	0	2046	4	186	899	2812
48	0	0	2002	4	185	899	2816
49	0	0	1975	4	184	899	2818
50	0	0	1965	5	184	899	2817
51	0	0	1956	3	183	899	2815
52	0	0	1919	5	182	898	2811
53	0	0	1882	4	181	899	2805
54	0	0	1886	5	181	898	2804
55	0	0	1919	5	182	899	2806
56	0	0	1977	4	180	898	2808
57	0	0	2035	5	183	898	2812
58	0	0	2069	5	182	898	2816
59	0	0	2096	5	184	899	2818
60	0	0	2132	5	183	898	2817
61	0	0	2174	4	183	898	2815
62	0	0	2213	5	184	898	2811
63	0	0	2263	4	185	898	2805
64	0	0	2272	4	185	899	2804
65	0	0	2211	4	184	899	2806
66	0	0	2129	4	185	898	2809
67	0	0	2054	4	185	898	2812
68	0	0	2007	4	184	899	2815
69	0	0	1986	4	184	899	2818
70	0	0	1986	5	184	898	2817
71	0	0	1997	5	183	898	2815
72	0	0	2003	5	183	899	2810
73	0	0	2004	5	183	898	2805
74	0	0	1991	4	182	899	2804
75	0	0	1973	4	182	898	2806
76	0	0	1965	4	183	898	2808
77	0	0	1997	5	181	898	2812
78	0	0	2050	5	181	898	2816
79	0	0	2109	5	183	898	2817
80	0	0	2150	4	183	899	2818
81	0	0	2173	5	183	898	2815
82	0	0	2177	5	183	899	2811
83	0	0	2178	4	187	899	2805
84	0	0	2152	4	185	899	2805
85	0	0	2116	5	186	899	2806
86	0	0	2117	4	186	898	2809
87	0	0	2066	4	185	898	2812
88	0	0	1993	4	184	899	2815
89	0	0	1936	4	184	899	2817
90	0	0	1892	4	183	898	2817
91	0	0	1888	5	182	898	2815
92	0	0	1910	5	183	900	2810
93	0	0	1930	5	181	899	2805
94	0	0	1953	5	182	899	2804
95	0	0	1999	5	183	899	2806
96	0	0	2033	5	182	898	2808
97	0	0	2039	5	182	898	2812
98	0	0	2051	5	183	898	2816
99	0	0	2079	5	182	899	2818
100	0	0	2104	5	183	899	2817
101	0	0	2110	4	183	899	2816
102	0	0	2099	5	185	898	2811
103	0	0	2106	6	186	899	2805
104	0	0	2108	5	184	899	2804
105	0	0	2099	5	186	898	2806
106	0	0	2072	4	186	898	2808
107	0	0	2019	4	185	898	2813
108	0	0	1950	4	183	899	2816
109	0	0	1937	5	183	899	2817
110	0	0	1990	5	183	899	2818
111	0	0	2033	5	184	899	2815
112	0	0	2045	5	182	900	2810
113	0	0	2035	4	182	899	2805
114	0	0	2017	4	182	899	2804
115	0	0	2006	4	182	899	2806
116	0	0	1996	5	182	899	2808
117	0	0	2027	5	181	899	2812
118	0	0	2095	5	181	899	2816
119	0	0	2124	5	183	899	2818
120	0	0	2106	4	183	899	2817
121	0	0	2081	4	184	899	2815
122	0	0	2076	5	185	898	2810
123	0	0	2078	5	186	898	2805
124	0	0	2086	5	185	899	2804
125	0	0	2110	5	186	899	2805
126	0	0	2123	5	185	899	2809
127	0	0	2085	4	186	898	2812
0	0	0	1998	4	184	899	2816
1	0	0	1924	4	184	899	2817
2	0	0	1903	5	183	898	2817
3	0	0	1920	5	184	899	2816
4	0	0	1930	5	183	898	2811
5	0	0	1914	4	182	898	2805
6	0	0	1909	5	181	899	2804
7	0	0	1957	5	181	899	2806
8	0	0	2015	5	182	898	2809
9	0	0	2045	5	181	898	2812
10	0	0	2074	4	182	898	2816
11	0	0	2108	5	182	899	2818
12	0	0	2135	4	184	899	2817
13	0	0	2135	4	186	899	2815
14	0	0	2120	5	184	898	2811
15	0	0	2135	5	185	899	2805
16	0	0	2137	5	184	899	2804
17	0	0	2111	4	185	898	2805
18	0	0	2091	4	185	898	2808
19	0	0	2056	4	184	899	2812
20	0	0	2000	4	185	898	2816
21	0	0	1954	4	184	899	2818
22	0	0	1943	5	183	898	2817
23	0	0	1959	4	183	898	2815
24	0	0	1983	5	182	898	2811
25	0	0	1993	5	183	899	2805
26	0	0	2009	5	183	898	2804
27	0	0	2016	5	182	899	2806
28	0	0	2025	4	182	898	2809
29	0	0	2018	5	182	898	2812
30	0	0	2013	5	182	899	2816
31	0	0	2013	5	181	899	2817
32	0	0	2038	5	183	898	2817
33	0	0	2072	5	184	899	2815
34	0	0	2114	5	185	898	2810
35	0	0	2154	5	185	898	2805
36	0	0	2128	4	185	899	2804
37	0	0	2087	4	185	898	2806
38	0	0	2063	4	185	898	2809
39	0	0	2063	5	185	899	2812
40	0	0	2034	4	185	898	2816
41	0	0	1992	4	185	899	2818
42	0	0	1974	5	183	898	2817
43	0	0	1952	4	184	898	2815
44	0	0	1942	5	183	899	2811
45	0	0	1974	5	182	899	2805
46	0	0	2051	5	181	898	2804
47	0	0	2127	5	182	898	2805
48	0	0	2154	5	181	899	2808
49	0	0	2142	4	182	898	2812
50	0	0	2156	5	183	898	2815
51	0	0	2214	4	184	899	2817
52	0	0	2275	5	184	898	2817
53	0	0	2312	5	184	899	2816
54	0	0	2337	4	184	900	2811
55	0	0	2383	5	185	899	2805
56	0	0	2431	5	185	899	2804
57	0	0	2444	5	185	899	2805
58	0	0	2416	5	187	898	2808
59	0	0	2354	4	185	898	2812
60	0	0	2289	4	186	899	2816
61	0	0	2258	5	184	899	2817
62	0	0	2256	5	183	898	2817
63	0	0	2261	5	183	898	2815
64	0	0	2277	4	183	898	2810
65	0	0	2281	5	181	899	2804
66	0	0	2282	5	182	898	2804
67	0	0	2269	5	181	899	2805
68	0	0	2229	4	182	898	2808
69	0	0	2172	4	182	899	2812
70	0	0	2159	5	182	899	2816
71	0	0	2194	4	183	899	2817
72	0	0	2201	5	182	899	2818
73	0	0	2179	4	184	898	2815
74	0	0	2168	5	184	898	2810
75	0	0	2195	5	185	898	2805
76	0	0	2179	4	185	899	2804
77	0	0	2120	4	184	898	2806
78	0	0	2075	4	185	899	2808
79	0	0	2022	4	185	898	2812
80	0	0	1927	4	185	898	2815
81	0	0	1848	4	184	899	2817
82	0	0	1828	4	183	898	2816
83	0	0	1829	5	183	898	2815
84	0	0	1831	5	183	898	2810
85	0	0	1845	5	183	898	2804
86	0	0	1877	5	181	898	2804
87	0	0	1916	5	182	898	2806
88	0	0	1936	5	181	898	2808
89	0	0	1958	4	181	898	2812
90	0	0	1996	5	182	898	2815
91	0	0	2032	5	184	899	2817
92	0	0	2050	5	184	898	2817
93	0	0	2044	5	184	898	2815
94	0	0	2041	4	185	898	2810
95	0	0	2071	5	184	898	2804
96	0	0	2052	4	185	899	2804
97	0	0	2008	4	185	899	2805
98	0	0	1996	5	186	898	2808
99	0	0	2003	4	185	898	2812
100	0	0	1999	5	185	898	2815
101	0	0	1981	5	184	899	2817
102	0	0	1963	4	183	899	2817
103	0	0	1932	4	184	899	2816
104	0	0	1928	5	183	898	2811
105	0	0	1911	4	182	898	2804
106	0	0	1882	4	182	899	2804
107	0	0	1901	5	182	899	2806
108	0	0	1942	4	181	898	2808
109	0	0	1986	5	182	899	2812
110	0	0	2022	5	183	899	2816
111	0	0	2034	4	183	899	2817
112	0	0	2043	5	183	899	2817
113	0	0	2066	4	184	898	2815
114	0	0	2117	5	185	898	2810
115	0	0	2202	5	184	899	2805
116	0	0	2251	5	185	898	2804
117	0	0	2217	4	185	899	2805
118	0	0	2133	4	185	898	2808
119	0	0	2053	4	186	899	2812
120	0	0	1968	4	185	898	2815
121	0	0	1884	4	185	899	2817
122	0	0	1842	4	183	898	2817
123	0	0	1861	5	183	898	2815
124	0	0	1910	4	183	898	2810
125	0	0	1907	4	182	899	2804
126	0	0	1886	5	183	898	2804
127	0	0	1924	4	182	898	2805
0	0	0	1980	5	182	899	2809
1	0	0	2017	5	182	899	2812
2	0	0	2060	5	183	897	2815
3	0	0	2094	5	183	899	2817
4	0	0	2127	5	183	898	2816
5	0	0	2168	5	183	899	2816
6	0	0	2197	5	184	899	2810
7	0	0	2217	5	185	899	2805
8	0	0	2207	5	186	899	2804
9	0	0	2181	4	184	899	2805
10	0	0	2157	4	186	898	2808
11	0	0	2127	4	185	899	2812
12	0	0	2064	4	185	898	2815
13	0	0	1972	4	183	899	2817
14	0	0	1898	4	183	898	2817
15	0	0	1905	5	184	898	2815
16	0	0	1961	4	183	899	2810
17	0	0	1991	5	182	898	2804
18	0	0	1972	4	182	898	2804
19	0	0	1959	4	182	899	2806
20	0	0	1966	5	182	898	2808
21	0	0	1983	5	182	899	2812
22	0	0	2018	5	182	898	2816
23	0	0	2053	5	182	899	2817
24	0	0	2092	5	183	899	2817
25	0	0	2133	5	184	899	2815
26	0	0	2158	5	183	898	2810
27	0	0	2179	5	185	898	2805
28	0	0	2176	5	186	899	2804
29	0	0	2142	4	186	899	2805
30	0	0	2103	4	184	899	2809
31	0	0	2049	4	184	899	2812
32	0	0	2000	4	186	898	2815
33	0	0	1981	4	184	898	2817
34	0	0	1966	4	183	898	2816
35	0	0	1961	5	182	898	2815
36	0	0	1971	5	183	898	2810
37	0	0	1960	4	182	899	2805
38	0	0	1929	5	181	898	2804
39	0	0	1935	5	182	899	2806
40	0	0	1970	5	182	898	2808
41	0	0	2010	4	183	898	2812
42	0	0	2039	5	183	898	2816
43	0	0	2060	5	183	899	2817
44	0	0	2059	5	183	898	2817
45	0	0	2085	5	184	898	2815
46	0	0	2114	5	184	898	2810
47	0	0	2151	5	186	899	2805
48	0	0	2170	5	184	899	2804
49	0	0	2142	4	185	898	2805
50	0	0	2106	4	183	898	2809
51	0	0	2061	4	184	899	2812
52	0	0	2023	4	185	898	2815
53	0	0	2005	4	185	899	2817
54	0	0	2003	5	184	899	2817
55	0	0	1988	4	182	898	2815
56	0	0	1964	4	182	898	2810
57	0	0	1953	5	183	898	2805
58	0	0	1973	5	181	899	2804
59	0	0	2028	5	181	898	2806
60	0	0	2059	5	182	898	2809
61	0	0	2095	5	182	898	2812
62	0	0	2155	5	183	898	2815
63	0	0	2216	4	183	899	2818
64	0	0	2251	5	183	898	2817
65	0	0	2233	4	184	898	2815
66	0	0	2173	4	185	898	2810
67	0	0	2138	4	185	899	2805
68	0	0	2108	4	185	899	2804
69	0	0	2065	4	185	899	2806
70	0	0	2022	4	185	899	2809
71	0	0	1998	4	184	899	2812
72	0	0	1996	5	185	899	2815
73	0	0	2024	5	184	899	2818
74	0	0	2042	5	183	898	2817
75	0	0	2031	4	182	899	2816
76	0	0	2008	4	182	899	2810
77	0	0	2005	5	182	898	2805
78	0	0	2018	5	182	899	2805
79	0	0	2016	4	182	898	2806
80	0	0	2000	4	182	898	2809
81	0	0	2016	5	182	898	2813
82	0	0	2027	5	182	898	2816
83	0	0	2055	5	184	898	2818
84	0	0	2121	5	184	899	2818
85	0	0	2159	5	184	898	2815
86	0	0	2155	5	184	898	2810
87	0	0	2180	5	184	898	2805
88	0	0	2197	5	186	898	2804
89	0	0	2164	4	185	898	2806
90	0	0	2153	5	185	898	2809
91	0	0	2127	4	184	899	2812
92	0	0	2096	4	184	899	2816
93	0	0	2060	3	183	898	2818
94	0	0	2027	4	183	898	2817
95	0	0	2000	5	182	899	2815
96	0	0	2019	5	183	899	2810
97	0	0	2057	5	181	899	2805
98	0	0	2068	5	182	898	2804
99	0	0	2086	5	183	899	2806
100	0	0	2153	5	181	899	2810
101	0	0	2227	5	182	900	2813
102	0	0	2245	5	183	899	2816
103	0	0	2219	4	182	898	2818
104	0	0	2189	4	184	898	2817
105	0	0	2117	5	182	899	2815
106	0	0	2042	4	183	898	2811
107	0	0	2066	5	184	899	2806
108	0	0	2146	5	184	898	2804
109	0	0	2217	5	184	898	2806
110	0	0	2224	4	184	899	2810
111	0	0	2162	4	186	900	2813
112	0	0	2082	4	184	899	2816
113	0	0	2013	4	185	898	2817
114	0	0	1968	4	184	898	2817
115	0	0	1948	5	182	898	2815
116	0	0	1947	5	184	898	2810
117	0	0	1960	5	181	898	2805
118	0	0	2003	5	183	898	2804
119	0	0	2055	5	181	899	2807
120	0	0	2094	4	182	899	2809
121	0	0	2123	5	181	898	2812
122	0	0	2156	5	182	898	2816
123	0	0	2177	5	184	899	2818
124	0	0	2193	5	184	899	2817
125	0	0	2221	4	184	899	2816
126	0	0	2243	5	184	898	2811
127	0	0	2265	5	185	899	2805
0	0	0	2249	4	185	899	2805
1	0	0	2235	5	185	898	2806
2	0	0	2225	4	184	899	2810
3	0	0	2183	4	185	899	2813
4	0	0	2117	4	185	899	2816
5	0	0	2054	4	184	899	2818
6	0	0	2004	4	184	898	2817
7	0	0	1991	5	182	899	2816
8	0	0	1989	5	182	899	2810
9	0	0	1988	5	183	899	2805
10	0	0	1998	4	183	898	2805
11	0	0	2030	5	181	898	2806
12	0	0	2081	5	183	898	2809
13	0	0	2109	5	181	898	2813
14	0	0	2120	5	182	898	2816
15	0	0	2158	5	183	899	2818
16	0	0	2214	5	184	899	2819
17	0	0	2273	3	184	898	2816
18	0	0	2307	5	184	898	2811
19	0	0	2308	5	185	898	2806
20	0	0	2286	4	185	898	2805
21	0	0	2264	5	186	898	2807
22	0	0	2242	4	186	898	2809
23	0	0	2210	4	184	899	2813
24	0	0	2168	4	185	899	2816
25	0	0	2115	4	183	899	2819
26	0	0	2066	4	183	898	2818
27	0	0	2031	4	183	898	2816
28	0	0	2010	5	183	898	2811
29	0	0	2020	5	181	898	2806
30	0	0	2056	5	181	899	2805
31	0	0	2095	5	181	899	2807
32	0	0	2110	5	182	899	2809
33	0	0	2114	5	182	898	2813
34	0	0	2166	5	181	898	2817
35	0	0	2230	5	183	899	2819
36	0	0	2254	5	183	898	2818
37	0	0	2240	4	182	899	2817
38	0	0	2222	5	185	898	2811
39	0	0	2233	5	185	899	2806
40	0	0	2235	5	184	899	2805
41	0	0	2244	5	185	898	2806
42	0	0	2249	5	184	898	2809
43	0	0	2201	4	184	898	2813
44	0	0	2128	4	183	898	2817
45	0	0	2098	4	184	898	2818
46	0	0	2085	4	184	898	2818
47	0	0	2067	5	183	898	2816
48	0	0	2064	4	182	898	2811
49	0	0	2064	5	182	899	2806
50	0	0	2064	5	181	898	2805
51	0	0	2073	5	182	898	2807
52	0	0	2073	4	183	898	2810
53	0	0	2060	5	183	898	2814
54	0	0	2076	5	182	899	2817
55	0	0	2159	5	182	899	2819
56	0	0	2238	5	182	899	2818
57	0	0	2262	4	183	899	2817
58	0	0	2240	4	184	899	2811
59	0	0	2208	4	186	899	2806
60	0	0	2160	4	185	899	2805
61	0	0	2116	4	184	898	2806
62	0	0	2111	4	186	899	2810
63	0	0	2103	5	186	900	2814
64	0	0	2110	5	184	900	2816
65	0	0	2117	4	184	899	2819
66	0	0	2068	4	184	898	2818
67	0	0	2017	4	183	899	2817
68	0	0	1972	4	182	899	2811
69	0	0	1941	4	182	899	2806
70	0	0	1946	5	183	899	2806
71	0	0	1970	5	181	898	2807
72	0	0	2007	4	182	899	2811
73	0	0	2021	4	182	899	2813
74	0	0	2039	5	182	899	2817
75	0	0	2084	5	183	899	2819
76	0	0	2097	5	183	898	2818
77	0	0	2053	4	184	899	2816
78	0	0	2031	4	184	899	2811
79	0	0	2081	5	185	899	2806
80	0	0	2103	5	185	898	2805
81	0	0	2058	4	185	899	2807
82	0	0	2033	7	185	899	2810
83	0	0	2019	4	185	899	2813
84	0	0	2025	5	185	898	2817
85	0	0	2051	5	184	898	2819
86	0	0	2090	5	183	899	2819
87	0	0	2082	4	185	898	2816
88	0	0	2041	3	182	898	2811
89	0	0	2006	4	183	899	2806
90	0	0	1961	4	182	898	2805
91	0	0	1927	4	181	898	2807
92	0	0	1935	4	181	898	2810
93	0	0	1957	5	181	899	2814
94	0	0	1978	5	183	899	2817
95	0	0	2000	5	182	898	2819
96	0	0	2027	5	183	898	2818
97	0	0	2068	6	184	899	2816
98	0	0	2097	5	183	899	2812
99	0	0	2130	5	185	899	2806
100	0	0	2143	5	185	899	2806
101	0	0	2096	4	185	898	2807
102	0	0	2051	4	186	899	2811
103	0	0	2025	4	185	899	2814
104	0	0	1992	4	184	899	2817
105	0	0	1990	5	182	898	2819
106	0	0	1983	4	182	899	2818
107	0	0	1948	5	183	898	2816
108	0	0	1914	4	182	898	2811
109	0	0	1879	4	183	898	2806
110	0	0	1883	5	181	898	2805
111	0	0	1918	5	182	899	2807
112	0	0	1968	5	181	898	2810
113	0	0	2025	4	182	898	2814
114	0	0	2051	5	182	898	2817
115	0	0	2073	5	182	898	2819
116	0	0	2091	5	183	899	2819
117	0	0	2086	5	184	899	2816
118	0	0	2111	5	185	898	2812
119	0	0	2182	5	184	900	2806
120	0	0	2204	5	184	898	2806
121	0	0	2144	4	185	899	2807
122	0	0	2060	4	184	898	2810
123	0	0	1990	4	184	899	2813
124	0	0	1948	4	185	899	2817
125	0	0	1924	4	183	898	2818
126	0	0	1899	4	184	898	2818
127	0	0	1892	5	183	898	2816
0	0	0	1907	5	183	898	2811
1	0	0	1927	5	183	898	2806
2	0	0	1943	5	180	898	2805
3	0	0	1976	5	182	898	2807
4	0	0	2018	5	182	898	2810
5	0	0	2039	5	182	898	2814
6	0	0	2045	5	182	898	2817
7	0	0	2056	5	183	898	2819
8	0	0	2098	5	184	898	2818
9	0	0	2136	5	184	898	2816
10	0	0	2109	4	184	899	2812
11	0	0	2070	4	185	899	2807
12	0	0	2050	5	185	899	2805
13	0	0	2063	5	185	899	2807
14	0	0	2045	4	186	898	2810
15	0	0	1980	4	184	898	2814
16	0	0	1914	4	185	899	2817
17	0	0	1889	4	183	898	2818
18	0	0	1890	4	183	899	2819
19	0	0	1879	4	182	898	2816
20	0	0	1891	5	184	899	2811
21	0	0	1910	5	182	898	2807
22	0	0	1918	5	181	898	2806
23	0	0	1927	5	183	898	2807
24	0	0	1943	5	184	898	2810
25	0	0	1952	5	181	898	2814
26	0	0	1961	5	182	899	2817
27	0	0	1969	5	183	899	2819
28	0	0	1993	5	182	898	2818
29	0	0	2055	5	183	899	2816
30	0	0	2090	5	185	898	2811
31	0	0	2112	5	184	899	2806
32	0	0	2106	4	185	898	2805
33	0	0	2100	5	184	899	2808
34	0	0	2128	4	186	898	2810
35	0	0	2134	4	185	899	2813
36	0	0	2096	4	185	899	2817
37	0	0	2038	4	184	898	2819
38	0	0	2008	5	184	898	2818
39	0	0	1978	4	184	899	2816
40	0	0	1959	5	182	898	2811
41	0	0	1939	4	183	899	2806
42	0	0	1933	5	181	899	2806
43	0	0	1954	5	182	898	2807
44	0	0	1972	5	181	899	2811
45	0	0	1958	4	183	899	2814
46	0	0	1970	5	183	899	2817
47	0	0	2015	5	181	898	2819
48	0	0	2071	5	184	898	2818
49	0	0	2132	5	184	898	2816
50	0	0	2160	4	185	898	2811
51	0	0	2167	6	185	899	2806
52	0	0	2158	5	184	899	2806
53	0	0	2143	5	184	899	2808
54	0	0	2119	6	185	898	2810
55	0	0	2059	3	184	899	2814
56	0	0	1985	4	184	899	2817
57	0	0	1936	4	183	899	2819
58	0	0	1903	4	184	898	2818
59	0	0	1875	4	184	899	2817
60	0	0	1879	5	182	899	2811
61	0	0	1900	5	182	899	2806
62	0	0	1947	5	182	898	2805
63	0	0	1997	5	182	898	2807
64	0	0	2011	5	182	899	2810
65	0	0	2012	5	183	898	2813
66	0	0	2013	5	183	899	2816
67	0	0	2030	5	183	899	2819
68	0	0	2074	5	184	899	2819
69	0	0	2097	5	183	898	2816
70	0	0	2085	3	184	899	2812
71	0	0	2082	5	184	899	2807
72	0	0	2079	5	184	899	2806
73	0	0	2081	5	185	898	2807
74	0	0	2082	5	186	898	2810
75	0	0	2056	4	184	898	2814
76	0	0	2026	4	183	899	2817
77	0	0	2008	5	184	898	2819
78	0	0	1992	4	183	898	2818
79	0	0	1958	4	184	899	2817
80	0	0	1937	4	182	899	2811
81	0	0	1937	5	182	899	2806
82	0	0	1948	5	182	899	2806
83	0	0	1957	4	182	898	2807
84	0	0	1964	5	183	898	2811
85	0	0	1996	5	182	898	2814
86	0	0	2025	5	182	899	2817
87	0	0	2048	5	184	898	2819
88	0	0	2077	5	184	898	2819
89	0	0	2136	5	183	899	2816
90	0	0	2203	3	185	898	2812
91	0	0	2236	5	184	898	2806
92	0	0	2218	4	184	898	2806
93	0	0	2173	4	185	898	2807
94	0	0	2111	4	185	899	2810
95	0	0	2056	2	185	898	2814
96	0	0	2024	4	184	899	2817
97	0	0	1994	4	183	898	2819
98	0	0	1960	4	183	899	2819
99	0	0	1912	5	183	898	2816
100	0	0	1893	4	183	899	2811
101	0	0	1914	5	181	899	2806
102	0	0	1945	5	181	898	2806
103	0	0	1994	5	183	898	2807
104	0	0	2024	5	183	898	2810
105	0	0	2012	4	183	898	2814
106	0	0	2010	5	183	899	2817
107	0	0	2040	5	184	898	2819
108	0	0	2097	5	183	898	2819
109	0	0	2145	5	184	898	2816
110	0	0	2171	5	184	899	2811
111	0	0	2187	5	185	899	2806
112	0	0	2151	4	184	899	2806
113	0	0	2117	4	185	899	2807
114	0	0	2116	5	185	899	2810
115	0	0	2085	3	185	899	2814
116	0	0	2017	4	185	899	2817
117	0	0	1946	4	184	898	2819
118	0	0	1921	5	182	898	2818
119	0	0	1943	5	183	898	2816
120	0	0	1984	5	183	899	2811
121	0	0	2007	5	182	898	2806
122	0	0	2004	5	181	899	2806
123	0	0	2016	5	181	898	2807
124	0	0	2036	5	181	899	2810
125	0	0	2065	4	182	899	2814
126	0	0	2077	5	182	898	2817
127	0	0	2083	4	183	899	2819
0	0	0	2096	5	183	899	2819
1	0	0	2119	4	183	898	2816
2	0	0	2129	5	185	898	2811
3	0	0	2131	5	185	899	2806
4	0	0	2136	5	184	899	2805
5	0	0	2140	5	186	899	2807
6	0	0	2138	5	186	898	2811
7	0	0	2095	4	184	899	2814
8	0	0	2019	4	184	899	2817
9	0	0	1951	4	183	899	2819
10	0	0	1921	4	183	898	2818
11	0	0	1922	5	183	898	2816
12	0	0	1945	5	182	898	2812
13	0	0	1955	5	182	899	2806
14	0	0	1950	5	183	898	2806
15	0	0	1959	5	181	898	2807
16	0	0	1980	5	182	898	2810
17	0	0	2008	5	182	899	2814
18	0	0	2041	5	183	898	2817
19	0	0	2103	5	183	899	2819
20	0	0	2158	5	183	899	2819
21	0	0	2175	5	183	899	2816
22	0	0	2181	4	184	899	2812
23	0	0	2208	5	185	899	2807
24	0	0	2200	4	184	899	2806
25	0	0	2163	4	184	898	2808
26	0	0	2106	3	186	898	2811
27	0	0	2036	4	185	898	2814
28	0	0	1973	4	184	898	2818
29	0	0	1906	4	183	898	2819
30	0	0	1879	5	184	899	2819
31	0	0	1913	6	183	899	2816
32	0	0	1957	4	182	898	2811
33	0	0	1977	5	183	898	2807
34	0	0	1976	5	182	899	2805
35	0	0	1974	5	182	898	2807
36	0	0	1999	4	181	898	2811
37	0	0	2049	5	183	898	2814
38	0	0	2117	5	183	899	2816
39	0	0	2157	5	183	899	2819
40	0	0	2153	5	184	899	2819
41	0	0	2168	5	185	898	2816
42	0	0	2175	5	184	898	2811
43	0	0	2180	5	185	899	2806
44	0	0	2187	5	185	899	2806
45	0	0	2181	5	184	898	2807
46	0	0	2157	4	185	898	2811
47	0	0	2100	4	184	899	2814
48	0	0	2035	4	184	899	2817
49	0	0	2008	4	183	898	2819
50	0	0	2013	5	182	898	2819
51	0	0	2012	6	183	898	2816
52	0	0	1999	5	183	898	2811
53	0	0	1963	4	182	899	2806
54	0	0	1929	4	182	899	2806
55	0	0	1910	5	183	898	2807
56	0	0	1939	5	182	898	2811
57	0	0	2008	5	182	898	2814
58	0	0	2049	5	182	899	2817
59	0	0	2077	5	182	898	2819
60	0	0	2104	5	182	898	2819
61	0	0	2102	4	183	898	2817
62	0	0	2091	5	185	898	2812
63	0	0	2115	4	185	899	2807
64	0	0	2135	5	184	899	2806
65	0	0	2111	4	184	899	2808
66	0	0	2077	4	186	898	2810
67	0	0	2058	4	185	899	2814
68	0	0	2036	4	184	899	2817
69	0	0	2009	4	183	899	2819
70	0	0	2003	5	183	898	2818
71	0	0	1992	4	183	898	2817
72	0	0	1970	4	182	899	2811
73	0	0	1935	4	182	899	2806
74	0	0	1935	5	183	898	2806
75	0	0	1982	5	183	898	2807
76	0	0	2015	5	182	898	2811
77	0	0	2031	5	181	898	2814
78	0	0	2054	5	183	899	2817
79	0	0	2089	5	184	898	2819
80	0	0	2121	5	183	898	2818
81	0	0	2142	5	183	898	2816
82	0	0	2147	5	183	899	2811
83	0	0	2159	5	185	899	2806
84	0	0	2156	4	185	898	2806
85	0	0	2117	4	185	899	2808
86	0	0	2067	4	184	899	2811
87	0	0	2019	4	184	898	2814
88	0	0	1983	4	183	899	2817
89	0	0	1962	4	184	899	2819
90	0	0	1948	4	183	898	2818
91	0	0	1929	4	183	898	2817
92	0	0	1915	5	183	898	2811
93	0	0	1954	5	181	899	2806
94	0	0	2032	5	182	898	2806
95	0	0	2089	5	181	898	2807
96	0	0	2098	5	181	898	2811
97	0	0	2124	5	181	898	2814
98	0	0	2151	5	183	898	2817
99	0	0	2132	4	182	899	2819
100	0	0	2099	5	183	898	2818
101	0	0	2096	5	183	899	2816
102	0	0	2120	5	183	899	2811
103	0	0	2138	4	184	899	2806
104	0	0	2132	4	185	899	2806
105	0	0	2103	4	185	898	2808
106	0	0	2059	4	185	898	2811
107	0	0	1997	4	185	899	2815
108	0	0	1964	4	184	899	2817
109	0	0	1968	5	184	898	2819
110	0	0	1971	5	184	899	2819
111	0	0	1962	5	183	899	2817
112	0	0	1943	3	182	898	2812
113	0	0	1895	3	181	899	2806
114	0	0	1866	5	181	899	2806
115	0	0	1891	5	183	899	2808
116	0	0	1939	5	183	898	2811
117	0	0	2000	5	182	899	2814
118	0	0	2053	4	182	899	2817
119	0	0	2116	5	182	899	2819
120	0	0	2184	5	184	899	2818
121	0	0	2224	5	183	898	2817
122	0	0	2230	5	184	899	2811
123	0	0	2216	4	184	899	2806
124	0	0	2173	4	185	899	2806
125	0	0	2123	4	184	899	2807
126	0	0	2066	4	185	899	2811
127	0	0	2003	4	185	898	2814
0	0	0	1980	4	185	899	2817
1	0	0	1966	4	184	899	2819
2	0	0	1945	4	182	899	2820
3	0	0	1942	5	184	899	2817
4	0	0	1953	5	183	898	2812
5	0	0	1962	4	183	899	2807
6	0	0	1973	5	182	898	2806
7	0	0	1995	4	181	898	2807
8	0	0	2024	5	182	899	2811
9	0	0	2044	5	182	898	2814
10	0	0	2053	4	182	899	2817
11	0	0	2084	5	183	899	2819
12	0	0	2111	5	183	898	2819
13	0	0	2112	5	183	898	2817
14	0	0	2110	4	184	899	2812
15	0	0	2133	4	185	899	2806
16	0	0	2128	4	185	899	2806
17	0	0	2088	4	185	898	2808
18	0	0	2063	4	185	898	2811
19	0	0	2053	4	184	899	2815
20	0	0	2030	4	184	899	2817
21	0	0	2018	4	184	899	2819
22	0	0	2004	4	183	899	2819
23	0	0	1989	4	183	899	2816
24	0	0	1971	5	182	898	2811
25	0	0	1945	4	181	899	2806
26	0	0	1939	5	181	898	2806
27	0	0	1965	5	182	899	2808
28	0	0	2003	5	181	899	2811
29	0	0	2045	5	182	898	2814
30	0	0	2096	5	183	899	2817
31	0	0	2134	5	183	899	2820
32	0	0	2160	5	184	898	2819
33	0	0	2166	5	184	899	2817
34	0	0	2173	6	184	899	2812
35	0	0	2206	5	185	899	2807
36	0	0	2188	4	185	899	2806
37	0	0	2155	4	185	898	2808
38	0	0	2126	4	184	898	2811
39	0	0	2054	4	185	898	2814
40	0	0	1996	4	184	899	2817
41	0	0	1977	4	182	898	2819
42	0	0	1966	5	184	898	2819
43	0	0	1971	5	183	898	2817
44	0	0	1993	6	182	899	2811
45	0	0	1994	4	181	899	2807
46	0	0	1996	5	181	899	2806
47	0	0	2025	5	182	899	2808
48	0	0	2038	5	182	899	2811
49	0	0	2051	5	183	898	2814
50	0	0	2061	5	183	899	2817
51	0	0	2077	5	183	899	2820
52	0	0	2090	5	183	898	2819
53	0	0	2106	5	184	899	2816
54	0	0	2136	6	184	899	2812
55	0	0	2193	5	185	899	2807
56	0	0	2236	5	185	898	2806
57	0	0	2219	4	185	899	2807
58	0	0	2131	4	185	899	2811
59	0	0	2037	5	184	899	2814
60	0	0	1997	4	184	899	2817
61	0	0	1995	4	184	898	2819
62	0	0	1959	4	184	899	2819
63	0	0	1920	4	184	899	2817
64	0	0	1925	6	183	899	2811
65	0	0	1957	5	182	899	2807
66	0	0	1976	5	182	899	2806
67	0	0	2011	5	181	898	2808
68	0	0	2051	5	182	898	2811
69	0	0	2091	3	182	899	2815
70	0	0	2125	4	182	899	2818
71	0	0	2138	5	183	898	2819
72	0	0	2153	5	183	898	2819
73	0	0	2182	5	182	898	2817
74	0	0	2198	5	185	899	2812
75	0	0	2209	4	185	899	2806
76	0	0	2206	4	186	899	2806
77	0	0	2168	4	185	899	2807
78	0	0	2129	4	185	898	2811
79	0	0	2075	4	184	899	2815
80	0	0	2023	4	184	899	2817
81	0	0	1989	4	184	899	2819
82	0	0	1966	4	184	899	2819
83	0	0	1960	5	182	899	2817
84	0	0	1952	5	182	899	2812
85	0	0	1945	5	182	899	2807
86	0	0	1964	5	182	898	2806
87	0	0	2008	5	183	898	2808
88	0	0	2063	5	182	899	2811
89	0	0	2101	3	182	899	2815
90	0	0	2108	4	183	899	2817
91	0	0	2089	4	182	898	2819
92	0	0	2067	4	184	898	2819
93	0	0	2056	5	183	899	2816
94	0	0	2066	3	184	899	2812
95	0	0	2102	4	185	899	2806
96	0	0	2127	5	185	898	2806
97	0	0	2115	4	184	898	2808
98	0	0	2091	4	185	899	2812
99	0	0	2053	4	185	899	2815
100	0	0	2023	4	184	899	2818
101	0	0	2007	4	184	899	2820
102	0	0	1981	4	183	898	2819
103	0	0	1964	5	182	899	2817
104	0	0	1955	5	182	899	2812
105	0	0	1948	5	181	899	2807
106	0	0	1942	5	181	898	2806
107	0	0	1936	5	181	899	2807
108	0	0	1941	5	181	899	2811
109	0	0	1965	4	182	899	2815
110	0	0	2010	4	182	898	2817
111	0	0	2030	5	183	898	2819
112	0	0	2041	5	183	899	2819
113	0	0	2059	5	183	899	2817
114	0	0	2069	3	184	899	2812
115	0	0	2088	4	184	899	2806
116	0	0	2092	5	185	898	2806
117	0	0	2087	5	186	899	2808
118	0	0	2089	5	186	899	2812
119	0	0	2068	4	184	899	2815
120	0	0	2012	4	184	899	2817
121	0	0	1934	4	183	899	2820
122	0	0	1886	4	183	898	2819
123	0	0	1895	5	182	899	2816
124	0	0	1934	5	182	898	2811
125	0	0	1962	5	182	899	2807
126	0	0	1989	5	182	898	2806
127	0	0	2014	5	182	898	2808
0	0	0	2037	5	181	899	2812
1	0	0	2054	5	183	899	2815
2	0	0	2088	5	182	899	2818
3	0	0	2116	5	183	898	2819
4	0	0	2084	4	184	898	2819
5	0	0	2049	4	183	899	2817
6	0	0	2057	5	185	898	2812
7	0	0	2102	5	185	899	2806
8	0	0	2116	5	185	898	2806
9	0	0	2102	5	185	899	2808
10	0	0	2096	5	186	899	2811
11	0	0	2090	5	185	898	2814
12	0	0	2063	4	185	899	2817
13	0	0	2000	4	184	898	2819
14	0	0	1915	4	184	899	2819
15	0	0	1883	4	182	899	2817
16	0	0	1899	5	182	898	2812
17	0	0	1916	4	183	899	2806
18	0	0	1943	5	181	898	2806
19	0	0	1986	5	181	899	2808
20	0	0	2026	4	183	898	2811
21	0	0	2054	5	183	899	2814
22	0	0	2062	5	182	898	2818
23	0	0	2066	5	184	898	2819
24	0	0	2093	5	184	899	2819
25	0	0	2124	5	184	898	2817
26	0	0	2121	5	184	899	2812
27	0	0	2115	4	185	899	2806
28	0	0	2081	4	184	898	2806
29	0	0	2022	4	184	899	2808
30	0	0	1978	4	185	899	2811
31	0	0	1971	5	185	899	2814
32	0	0	1995	5	184	899	2818
33	0	0	2026	5	184	898	2819
34	0	0	2039	6	183	899	2819
35	0	0	2028	5	183	899	2816
36	0	0	2017	5	183	899	2811
37	0	0	1999	4	182	899	2806
38	0	0	1972	4	182	899	2807
39	0	0	1961	5	181	898	2808
40	0	0	1971	5	182	898	2811
41	0	0	1992	5	183	898	2815
42	0	0	2037	4	182	899	2818
43	0	0	2103	5	183	899	2819
44	0	0	2148	5	184	899	2819
45	0	0	2160	5	183	899	2817
46	0	0	2175	5	184	899	2812
47	0	0	2204	5	184	899	2806
48	0	0	2198	4	184	898	2806
49	0	0	2159	4	185	899	2808
50	0	0	2144	5	183	899	2811
51	0	0	2149	5	184	898	2815
52	0	0	2144	4	184	899	2818
53	0	0	2097	4	184	898	2819
54	0	0	2041	4	182	899	2819
55	0	0	1994	4	182	899	2817
56	0	0	1976	5	182	898	2812
57	0	0	2024	5	182	899	2807
58	0	0	2123	5	181	899	2807
59	0	0	2235	5	181	898	2808
60	0	0	2314	5	181	898	2812
61	0	0	2364	5	183	899	2815
62	0	0	2404	5	183	899	2817
63	0	0	2457	5	183	898	2819
64	0	0	2511	4	182	899	2820
65	0	0	2519	5	184	899	2817
66	0	0	2484	4	185	898	2811
67	0	0	2464	5	184	899	2807
68	0	0	2444	4	185	898	2806
69	0	0	2396	4	186	898	2808
70	0	0	2334	3	185	899	2812
71	0	0	2273	5	185	899	2815
72	0	0	2225	4	184	899	2818
73	0	0	2189	4	184	898	2819
74	0	0	2157	4	183	898	2819
75	0	0	2119	4	183	899	2817
76	0	0	2083	4	182	899	2812
77	0	0	2054	5	182	898	2807
78	0	0	2030	4	181	899	2806
79	0	0	2003	4	181	899	2808
80	0	0	1990	4	182	899	2812
81	0	0	1994	5	182	899	2815
82	0	0	1997	5	182	899	2818
83	0	0	2005	5	183	899	2820
84	0	0	1996	4	183	899	2819
85	0	0	1982	4	183	898	2817
86	0	0	1990	5	185	899	2812
87	0	0	2048	5	185	899	2807
88	0	0	2109	5	185	899	2806
89	0	0	2105	4	185	899	2808
90	0	0	2053	4	184	898	2811
91	0	0	1977	4	184	899	2815
92	0	0	1919	4	185	899	2819
93	0	0	1887	4	184	898	2819
94	0	0	1869	4	184	899	2820
95	0	0	1881	5	182	899	2817
96	0	0	1893	4	182	899	2812
97	0	0	1894	5	181	899	2807
98	0	0	1911	5	181	898	2806
99	0	0	1950	5	181	899	2808
100	0	0	1997	5	181	899	2811
101	0	0	2032	5	181	899	2815
102	0	0	2048	5	183	899	2818
103	0	0	2071	5	183	898	2820
104	0	0	2099	5	183	898	2819
105	0	0	2136	5	184	899	2817
106	0	0	2162	5	184	898	2812
107	0	0	2160	5	185	899	2807
108	0	0	2112	4	186	899	2807
109	0	0	2049	4	185	899	2808
110	0	0	2017	4	184	899	2812
111	0	0	1993	4	185	899	2816
112	0	0	1965	5	183	899	2818
113	0	0	1955	5	184	899	2820
114	0	0	1968	5	183	898	2819
115	0	0	1958	4	182	899	2817
116	0	0	1933	4	183	899	2812
117	0	0	1899	4	181	899	2807
118	0	0	1874	4	182	898	2806
119	0	0	1887	5	182	899	2808
120	0	0	1927	5	183	899	2811
121	0	0	1964	5	183	899	2815
122	0	0	2017	5	182	899	2818
123	0	0	2081	5	183	899	2820
124	0	0	2100	5	183	899	2819
125	0	0	2093	5	184	898	2817
126	0	0	2095	5	184	899	2812
127	0	0	2128	4	185	899	2807
0	0	0	2144	5	185	898	2806
1	0	0	2128	4	184	899	2808
2	0	0	2096	4	187	899	2811
3	0	0	2063	4	184	899	2815
4	0	0	2009	4	183	899	2817
5	0	0	1971	4	184	899	2819
6	0	0	1952	4	183	898	2819
7	0	0	1952	5	184	899	2817
8	0	0	1967	4	182	899	2812
9	0	0	1980	5	181	899	2807
10	0	0	1995	5	183	898	2806
11	0	0	1990	5	181	898	2808
12	0	0	1988	5	182	899	2812
13	0	0	1997	5	182	899	2816
14	0	0	2024	5	182	899	2818
15	0	0	2054	5	183	898	2820
16	0	0	2091	5	182	899	2819
17	0	0	2133	5	183	898	2817
18	0	0	2159	5	183	899	2812
19	0	0	2169	5	184	899	2807
20	0	0	2145	4	185	899	2807
21	0	0	2112	3	185	899	2809
22	0	0	2070	5	185	899	2811
23	0	0	2013	4	185	899	2815
24	0	0	1949	3	185	899	2818
25	0	0	1918	4	183	898	2820
26	0	0	1933	4	184	899	2819
27	0	0	1959	5	183	898	2817
28	0	0	1984	6	182	898	2812
29	0	0	1992	5	182	899	2807
30	0	0	2015	5	182	899	2807
31	0	0	2037	5	181	898	2808
32	0	0	2043	5	182	898	2812
33	0	0	2026	4	181	899	2815
34	0	0	2030	4	183	899	2818
35	0	0	2037	5	183	898	2820
36	0	0	2041	4	184	899	2820
37	0	0	2040	5	181	899	2817
38	0	0	2053	5	184	898	2812
39	0	0	2119	5	185	899	2807
40	0	0	2164	5	184	898	2806
41	0	0	2163	4	185	899	2808
42	0	0	2164	5	185	899	2811
43	0	0	2121	5	185	899	2815
44	0	0	2070	3	185	899	2818
45	0	0	2043	4	185	899	2820
46	0	0	2022	4	182	898	2819
47	0	0	2000	4	183	899	2818
48	0	0	1977	4	182	899	2812
49	0	0	1955	5	182	899	2807
50	0	0	1958	5	182	899	2806
51	0	0	1998	4	182	899	2808
52	0	0	2055	5	182	899	2811
53	0	0	2088	5	182	899	2815
54	0	0	2087	4	182	899	2818
55	0	0	2088	4	182	899	2820
56	0	0	2111	5	184	899	2819
57	0	0	2133	5	183	898	2817
58	0	0	2146	4	185	899	2812
59	0	0	2166	5	185	899	2807
60	0	0	2151	4	186	899	2807
61	0	0	2099	4	186	898	2808
62	0	0	2048	4	187	898	2812
63	0	0	2011	4	184	899	2815
64	0	0	1990	4	184	899	2819
65	0	0	1979	5	184	899	2820
66	0	0	1993	5	182	898	2819
67	0	0	2006	5	183	899	2817
68	0	0	2003	6	183	899	2812
69	0	0	1999	4	183	899	2807
70	0	0	2012	5	182	898	2806
71	0	0	2022	4	182	898	2808
72	0	0	2008	4	181	899	2812
73	0	0	1985	4	183	899	2815
74	0	0	1983	6	182	899	2818
75	0	0	2015	5	183	898	2819
76	0	0	2072	4	184	899	2820
77	0	0	2121	5	183	899	2817
78	0	0	2147	5	184	899	2812
79	0	0	2172	4	184	899	2807
80	0	0	2180	5	186	899	2807
81	0	0	2177	4	186	898	2808
82	0	0	2152	4	184	899	2811
83	0	0	2105	5	185	899	2815
84	0	0	2049	5	184	899	2818
85	0	0	2005	4	184	899	2820
86	0	0	1974	4	182	898	2819
87	0	0	1954	4	183	898	2817
88	0	0	1954	5	181	898	2812
89	0	0	1979	5	182	898	2806
90	0	0	2001	5	182	898	2806
91	0	0	2002	4	183	898	2808
92	0	0	2033	5	183	899	2811
93	0	0	2067	5	182	899	2815
94	0	0	2067	5	181	899	2819
95	0	0	2050	5	183	899	2820
96	0	0	2099	4	183	899	2819
97	0	0	2193	5	184	898	2817
98	0	0	2246	5	184	899	2812
99	0	0	2279	5	185	899	2807
100	0	0	2282	4	184	899	2807
101	0	0	2214	4	185	898	2808
102	0	0	2124	4	185	898	2812
103	0	0	2045	4	185	899	2815
104	0	0	2017	4	183	899	2818
105	0	0	2036	5	183	898	2819
106	0	0	2037	3	183	899	2820
107	0	0	2005	4	182	899	2817
108	0	0	1975	4	183	899	2812
109	0	0	1969	6	182	899	2807
110	0	0	2002	5	182	898	2806
111	0	0	2048	5	182	898	2808
112	0	0	2070	5	182	899	2812
113	0	0	2074	5	181	898	2815
114	0	0	2080	5	181	899	2818
115	0	0	2115	5	183	899	2820
116	0	0	2178	5	182	898	2819
117	0	0	2232	5	183	899	2817
118	0	0	2251	5	184	899	2812
119	0	0	2232	5	184	899	2807
120	0	0	2187	4	185	899	2806
121	0	0	2142	3	185	898	2808
122	0	0	2113	5	186	898	2811
123	0	0	2085	4	183	898	2815
124	0	0	2063	4	184	899	2818
125	0	0	2043	4	183	899	2820
126	0	0	2024	4	183	899	2819
127	0	0	2013	4	183	898	2817
0	0	0	1996	5	182	899	2813
1	0	0	1976	4	182	899	2807
2	0	0	1991	5	182	899	2806
3	0	0	2012	4	181	898	2808
4	0	0	2044	6	182	899	2811
5	0	0	2091	4	181	899	2815
6	0	0	2137	5	182	899	2818
7	0	0	2177	5	183	898	2820
8	0	0	2208	4	183	899	2820
9	0	0	2233	5	185	898	2817
10	0	0	2265	5	181	899	2811
11	0	0	2292	4	185	899	2807
12	0	0	2282	4	185	899	2807
13	0	0	2246	4	184	899	2808
14	0	0	2207	4	184	899	2812
15	0	0	2138	4	185	899	2816
16	0	0	2074	4	185	899	2818
17	0	0	2032	4	182	899	2820
18	0	0	2009	4	184	899	2819
19	0	0	2005	5	183	899	2817
20	0	0	2004	5	181	899	2812
21	0	0	2011	4	182	899	2807
22	0	0	2044	4	181	898	2806
23	0	0	2092	5	182	899	2808
24	0	0	2147	6	182	899	2811
25	0	0	2210	5	183	898	2815
26	0	0	2242	4	181	899	2818
27	0	0	2243	4	183	898	2820
28	0	0	2234	4	184	899	2820
29	0	0	2231	5	184	900	2817
30	0	0	2245	5	184	899	2812
31	0	0	2267	4	184	899	2807
32	0	0	2234	4	185	899	2807
33	0	0	2178	4	185	898	2808
34	0	0	2144	4	185	899	2812
35	0	0	2120	4	184	899	2815
36	0	0	2100	4	183	899	2818
37	0	0	2084	4	184	899	2820
38	0	0	2065	4	182	898	2819
39	0	0	2042	5	182	899	2817
40	0	0	2018	4	182	899	2812
41	0	0	1995	4	181	899	2807
42	0	0	2016	5	181	898	2806
43	0	0	2061	4	181	899	2809
44	0	0	2094	5	182	898	2811
45	0	0	2121	5	183	899	2815
46	0	0	2143	5	182	899	2818
47	0	0	2150	5	182	899	2820
48	0	0	2151	5	184	899	2819
49	0	0	2164	5	184	899	2818
50	0	0	2185	5	184	899	2812
51	0	0	2237	4	184	899	2807
52	0	0	2261	5	185	898	2807
53	0	0	2240	4	184	899	2808
54	0	0	2205	4	184	899	2812
55	0	0	2151	4	184	899	2815
56	0	0	2091	4	183	899	2819
57	0	0	2051	4	183	899	2820
58	0	0	2025	4	183	899	2820
59	0	0	2020	5	185	899	2817
60	0	0	2050	5	181	898	2811
61	0	0	2081	5	182	899	2807
62	0	0	2075	4	182	898	2806
63	0	0	2038	4	181	898	2808
64	0	0	2014	5	182	899	2812
65	0	0	2039	4	183	899	2816
66	0	0	2089	4	182	899	2818
67	0	0	2124	5	182	898	2820
68	0	0	2145	5	184	899	2819
69	0	0	2178	5	184	899	2817
70	0	0	2206	5	184	899	2812
71	0	0	2231	5	185	899	2807
72	0	0	2221	4	185	898	2807
73	0	0	2179	4	185	898	2808
74	0	0	2122	4	185	898	2811
75	0	0	2050	5	184	898	2815
76	0	0	1975	3	183	899	2818
77	0	0	1928	4	182	899	2819
78	0	0	1916	5	183	899	2819
79	0	0	1924	4	182	899	2817
80	0	0	1932	5	183	898	2812
81	0	0	1927	4	181	899	2807
82	0	0	1935	5	181	899	2807
83	0	0	1956	4	182	899	2809
84	0	0	1981	5	181	899	2812
85	0	0	2017	3	182	899	2815
86	0	0	2045	4	183	899	2819
87	0	0	2076	5	183	899	2820
88	0	0	2109	5	183	899	2819
89	0	0	2125	5	183	898	2818
90	0	0	2125	5	185	899	2812
91	0	0	2143	4	185	899	2807
92	0	0	2148	4	185	898	2807
93	0	0	2097	4	185	899	2808
94	0	0	2048	4	185	898	2811
95	0	0	2001	4	185	899	2815
96	0	0	1947	3	184	899	2818
97	0	0	1881	4	184	899	2820
98	0	0	1815	4	183	898	2819
99	0	0	1815	5	183	899	2817
100	0	0	1875	5	183	898	2812
101	0	0	1922	4	181	899	2807
102	0	0	1948	4	182	898	2807
103	0	0	1981	5	182	898	2809
104	0	0	1998	5	183	898	2812
105	0	0	1974	4	182	898	2816
106	0	0	1941	4	183	899	2819
107	0	0	1942	5	183	898	2820
108	0	0	1973	5	183	899	2820
109	0	0	2019	5	186	899	2817
110	0	0	2079	5	185	899	2812
111	0	0	2132	4	184	899	2807
112	0	0	2136	5	185	898	2806
113	0	0	2111	4	186	899	2808
114	0	0	2060	3	185	899	2812
115	0	0	1980	4	183	898	2815
116	0	0	1927	4	184	899	2818
117	0	0	1932	5	184	899	2820
118	0	0	1924	5	184	898	2819
119	0	0	1898	4	184	899	2817
120	0	0	1881	4	181	899	2812
121	0	0	1885	3	182	899	2807
122	0	0	1896	5	182	898	2807
123	0	0	1915	5	182	899	2809
124	0	0	1945	5	182	899	2812
125	0	0	1978	5	182	899	2815
126	0	0	2005	5	182	899	2819
127	0	0	2040	5	183	898	2820
0	0	0	2066	4	183	899	2819
1	0	0	2055	4	183	898	2817
2	0	0	2035	5	183	899	2812
3	0	0	2070	5	184	899	2807
4	0	0	2088	5	185	898	2807
5	0	0	2053	4	185	898	2808
6	0	0	2020	4	186	898	2812
7	0	0	1980	4	185	898	2816
8	0	0	1933	4	184	899	2819
9	0	0	1908	4	184	899	2820
10	0	0	1884	4	182	899	2819
11	0	0	1873	4	183	898	2818
12	0	0	1880	5	182	899	2812
13	0	0	1889	4	182	899	2807
14	0	0	1909	5	183	899	2807
15	0	0	1940	5	182	899	2808
16	0	0	1979	5	182	898	2812
17	0	0	2017	5	182	899	2815
18	0	0	2045	3	182	899	2818
19	0	0	2062	5	184	899	2820
20	0	0	2101	5	184	899	2820
21	0	0	2147	4	185	898	2817
22	0	0	2163	5	185	899	2812
23	0	0	2170	4	185	899	2807
24	0	0	2132	4	185	899	2807
25	0	0	2097	4	185	899	2809
26	0	0	2075	4	185	898	2812
27	0	0	2031	4	185	899	2816
28	0	0	1972	3	185	898	2819
29	0	0	1914	4	184	899	2819
30	0	0	1885	4	183	899	2820
31	0	0	1867	4	183	899	2817
32	0	0	1859	4	183	899	2812
33	0	0	1844	3	182	899	2807
34	0	0	1856	5	182	899	2807
35	0	0	1880	5	181	898	2808
36	0	0	1896	5	182	898	2812
37	0	0	1922	5	182	898	2816
38	0	0	1978	3	182	898	2818
39	0	0	2050	5	183	898	2820
40	0	0	2082	5	182	899	2820
41	0	0	2086	5	183	898	2817
42	0	0	2092	5	184	898	2812
43	0	0	2113	4	185	899	2807
44	0	0	2125	5	185	899	2807
45	0	0	2094	5	184	898	2808
46	0	0	2044	4	186	898	2812
47	0	0	1984	4	185	899	2816
48	0	0	1930	3	183	898	2819
49	0	0	1905	4	183	899	2820
50	0	0	1877	5	184	899	2819
51	0	0	1876	5	182	898	2817
52	0	0	1905	5	183	899	2812
53	0	0	1925	3	181	899	2807
54	0	0	1943	5	181	898	2806
55	0	0	1957	5	182	899	2809
56	0	0	1979	4	181	898	2812
57	0	0	2006	5	182	899	2816
58	0	0	2026	5	183	899	2819
59	0	0	2036	5	183	898	2820
60	0	0	2052	4	183	898	2819
61	0	0	2093	6	184	898	2818
62	0	0	2119	5	184	899	2812
63	0	0	2131	5	184	898	2807
64	0	0	2094	4	184	898	2806
65	0	0	2060	4	185	899	2809
66	0	0	2029	5	186	898	2812
67	0	0	1962	4	185	899	2816
68	0	0	1886	4	184	899	2819
69	0	0	1845	4	184	899	2820
70	0	0	1858	5	182	899	2820
71	0	0	1885	5	184	898	2817
72	0	0	1911	5	182	899	2812
73	0	0	1924	5	183	898	2807
74	0	0	1948	5	182	898	2807
75	0	0	1978	5	183	898	2809
76	0	0	1991	5	182	898	2812
77	0	0	2012	5	183	898	2816
78	0	0	2053	4	183	899	2819
79	0	0	2074	5	183	899	2820
80	0	0	2097	5	183	898	2819
81	0	0	2134	5	185	898	2818
82	0	0	2169	5	183	899	2812
83	0	0	2191	4	186	899	2807
84	0	0	2161	4	185	899	2806
85	0	0	2104	5	186	898	2808
86	0	0	2065	4	186	899	2812
87	0	0	2036	4	185	899	2815
88	0	0	2005	3	184	899	2819
89	0	0	1973	4	183	898	2820
90	0	0	1952	5	183	898	2820
91	0	0	1935	4	183	898	2817
92	0	0	1926	4	183	898	2812
93	0	0	1914	4	181	899	2807
94	0	0	1921	5	182	899	2807
95	0	0	1942	5	182	899	2810
96	0	0	1969	4	182	898	2812
97	0	0	2005	5	183	899	2816
98	0	0	2052	5	183	899	2819
99	0	0	2107	5	183	899	2820
100	0	0	2140	4	183	899	2819
101	0	0	2126	4	184	898	2818
102	0	0	2114	5	184	898	2813
103	0	0	2141	4	184	899	2807
104	0	0	2159	5	185	899	2807
105	0	0	2137	4	185	899	2809
106	0	0	2095	4	185	899	2812
107	0	0	2046	4	184	899	2816
108	0	0	1998	4	184	899	2819
109	0	0	1965	4	184	899	2820
110	0	0	1925	4	183	898	2820
111	0	0	1903	4	183	898	2817
112	0	0	1923	5	183	899	2812
113	0	0	1930	4	181	899	2807
114	0	0	1967	5	181	899	2807
115	0	0	2003	4	182	898	2809
116	0	0	2025	5	182	898	2812
117	0	0	2035	4	181	899	2816
118	0	0	2046	5	183	899	2819
119	0	0	2079	5	183	898	2820
120	0	0	2113	5	183	898	2820
121	0	0	2135	5	184	899	2817
122	0	0	2133	4	185	898	2812
123	0	0	2125	5	185	899	2808
124	0	0	2112	5	185	898	2807
125	0	0	2091	4	185	899	2810
126	0	0	2069	4	186	899	2812
127	0	0	2002	4	185	898	2815
0	0	0	1915	4	183	899	2819
1	0	0	1862	4	183	898	2820
2	0	0	1894	5	183	898	2819
3	0	0	1953	5	183	898	2818
4	0	0	1981	5	183	899	2812
5	0	0	1977	5	181	899	2807
6	0	0	1965	4	182	898	2807
7	0	0	1947	4	182	899	2809
8	0	0	1952	4	182	898	2812
9	0	0	1980	5	183	898	2816
10	0	0	2039	5	183	899	2819
11	0	0	2097	5	183	898	2820
12	0	0	2118	5	184	899	2821
13	0	0	2105	4	183	898	2818
14	0	0	2074	4	186	899	2812
15	0	0	2081	5	185	899	2808
16	0	0	2087	5	184	898	2807
17	0	0	2086	5	184	899	2809
18	0	0	2088	5	185	898	2812
19	0	0	2069	4	184	899	2816
20	0	0	2028	4	185	899	2819
21	0	0	1981	4	184	899	2821
22	0	0	1940	4	184	898	2820
23	0	0	1924	4	183	898	2818
24	0	0	1927	5	183	899	2813
25	0	0	1932	5	181	899	2807
26	0	0	1957	4	182	898	2807
27	0	0	1966	5	181	899	2809
28	0	0	1961	4	181	899	2812
29	0	0	1977	4	182	899	2816
30	0	0	1999	4	184	899	2819
31	0	0	2004	5	183	898	2820
32	0	0	2025	5	183	899	2820
