# bioPlux Text File Format
# Version: 1
# StartDateTime: 2011-07-19 12:30:41
# SamplingFrequency: 1000
# SampledChannels: 1 2 3 4
# SamplingResolution: 12
# AcquiringDevice: 00:07:80:42:0F:8B
# EndOfHeader
0	0	0	1932	694	2875	59
1	0	0	1921	697	2877	61
2	0	0	1935	700	2881	58
3	0	0	1983	696	2886	58
4	0	0	2046	697	2889	56
5	0	0	2101	696	2892	58
6	0	0	2124	696	2889	61
7	0	0	2165	696	2887	57
8	0	0	2228	695	2880	57
9	0	0	2313	694	2874	58
10	0	0	2381	693	2874	59
11	0	0	2411	693	2877	63
12	0	0	2388	694	2881	60
13	0	0	2355	691	2886	60
14	0	0	2296	690	2889	60
15	0	0	2210	689	2892	61
16	0	0	2137	692	2890	63
17	0	0	2092	695	2888	60
18	0	0	2058	692	2881	59
19	0	0	2012	693	2876	59
20	0	0	1961	694	2874	60
21	0	0	1943	695	2877	59
22	0	0	1955	697	2880	60
23	0	0	1963	697	2886	58
24	0	0	1958	697	2889	58
25	0	0	2009	696	2891	59
26	0	0	2143	696	2890	59
27	0	0	2294	696	2887	60
28	0	0	2428	693	2880	57
29	0	0	2490	694	2875	58
30	0	0	2460	690	2874	59
31	0	0	2388	688	2877	60
32	0	0	2344	691	2881	59
33	0	0	2301	691	2886	59
34	0	0	2229	690	2889	60
35	0	0	2194	694	2892	60
36	0	0	2207	695	2892	64
37	0	0	2173	692	2887	60
38	0	0	2092	691	2881	59
39	0	0	1982	692	2874	62
40	0	0	1936	695	2874	60
41	0	0	1959	697	2877	59
42	0	0	1981	697	2881	59
43	0	0	1998	699	2886	58
44	0	0	2019	698	2890	59
45	0	0	2099	695	2891	59
46	0	0	2210	697	2891	57
47	0	0	2299	697	2887	60
48	0	0	2353	695	2880	57
49	0	0	2424	694	2874	58
50	0	0	2484	692	2874	59
51	0	0	2525	695	2876	59
52	0	0	2524	695	2881	58
53	0	0	2471	693	2886	60
54	0	0	2383	690	2889	61
55	0	0	2261	690	2891	61
56	0	0	2165	694	2890	61
57	0	0	2098	693	2887	60
58	0	0	2025	694	2880	60
59	0	0	1952	693	2875	60
60	0	0	1940	698	2874	61
61	0	0	1985	700	2877	60
62	0	0	2029	699	2881	58
63	0	0	2057	699	2886	58
64	0	0	2084	697	2889	59
65	0	0	2157	697	2891	59
66	0	0	2201	699	2890	59
67	0	0	2242	697	2887	58
68	0	0	2278	697	2880	57
69	0	0	2358	694	2874	58
70	0	0	2406	694	2874	60
71	0	0	2422	696	2876	60
72	0	0	2410	691	2881	60
73	0	0	2365	693	2885	58
74	0	0	2323	691	2890	60
75	0	0	2260	690	2891	61
76	0	0	2196	692	2891	60
77	0	0	2150	693	2888	60
78	0	0	2112	695	2880	60
79	0	0	2062	693	2875	61
80	0	0	2002	693	2874	60
81	0	0	1974	694	2877	61
82	0	0	1938	694	2882	58
83	0	0	1915	697	2886	59
84	0	0	1973	697	2890	58
85	0	0	2109	697	2891	59
86	0	0	2210	696	2891	60
87	0	0	2252	696	2888	58
88	0	0	2285	697	2880	57
89	0	0	2349	694	2875	58
90	0	0	2408	695	2874	60
91	0	0	2442	694	2877	61
92	0	0	2455	693	2881	59
93	0	0	2424	691	2886	59
94	0	0	2328	690	2890	60
95	0	0	2226	690	2891	61
96	0	0	2168	693	2891	60
97	0	0	2165	695	2889	63
98	0	0	2132	692	2881	60
99	0	0	2084	694	2875	61
100	0	0	2062	694	2874	60
101	0	0	2055	699	2877	61
102	0	0	2093	698	2882	62
103	0	0	2131	697	2886	59
104	0	0	2113	698	2889	58
105	0	0	2126	697	2891	59
106	0	0	2116	695	2890	59
107	0	0	2136	696	2888	59
108	0	0	2235	695	2880	56
109	0	0	2330	694	2874	61
110	0	0	2393	693	2875	59
111	0	0	2416	693	2877	64
112	0	0	2409	692	2882	59
113	0	0	2383	691	2886	59
114	0	0	2332	691	2889	60
115	0	0	2301	692	2892	63
116	0	0	2246	692	2891	62
117	0	0	2178	692	2888	61
118	0	0	2108	692	2881	58
119	0	0	2038	693	2875	61
120	0	0	2006	695	2875	60
121	0	0	2007	697	2877	60
122	0	0	2016	698	2882	59
123	0	0	2030	696	2886	60
124	0	0	2075	697	2890	58
125	0	0	2142	695	2891	56
126	0	0	2212	697	2891	55
127	0	0	2279	696	2888	54
0	0	0	2318	692	2880	57
1	0	0	2370	694	2875	58
2	0	0	2404	695	2874	59
3	0	0	2463	694	2877	60
4	0	0	2487	694	2882	59
5	0	0	2447	691	2887	59
6	0	0	2361	691	2889	61
7	0	0	2269	692	2891	61
8	0	0	2167	692	2891	62
9	0	0	2068	692	2888	59
10	0	0	2020	693	2880	59
11	0	0	2005	695	2876	61
12	0	0	2001	695	2874	60
13	0	0	2016	699	2877	61
14	0	0	2064	699	2882	55
15	0	0	2103	696	2886	55
16	0	0	2150	697	2889	56
17	0	0	2225	696	2892	59
18	0	0	2287	697	2892	60
19	0	0	2328	695	2888	59
20	0	0	2353	694	2880	57
21	0	0	2355	694	2875	54
22	0	0	2364	694	2875	56
23	0	0	2387	694	2877	57
24	0	0	2365	691	2881	59
25	0	0	2331	690	2886	59
26	0	0	2289	691	2890	60
27	0	0	2239	691	2891	61
28	0	0	2191	692	2891	61
29	0	0	2162	692	2888	61
30	0	0	2134	693	2880	60
31	0	0	2066	695	2875	61
32	0	0	1999	693	2875	61
33	0	0	1979	697	2877	60
34	0	0	2010	697	2882	59
35	0	0	2086	698	2887	59
36	0	0	2202	697	2890	58
37	0	0	2302	696	2892	58
38	0	0	2380	696	2892	55
39	0	0	2467	696	2888	55
40	0	0	2557	694	2881	54
41	0	0	2640	694	2875	58
42	0	0	2717	695	2874	59
43	0	0	2780	693	2877	60
44	0	0	2790	694	2882	57
45	0	0	2749	691	2886	60
46	0	0	2684	691	2890	61
47	0	0	2606	692	2892	60
48	0	0	2581	696	2892	61
49	0	0	2605	695	2888	60
50	0	0	2619	696	2880	59
51	0	0	2589	695	2875	61
52	0	0	2573	698	2875	59
53	0	0	2592	696	2877	61
54	0	0	2573	695	2882	57
55	0	0	2548	699	2886	55
56	0	0	2555	697	2891	55
57	0	0	2605	696	2891	56
58	0	0	2651	694	2891	59
59	0	0	2689	697	2888	59
60	0	0	2709	696	2880	57
61	0	0	2726	694	2874	59
62	0	0	2720	693	2875	56
63	0	0	2684	691	2877	55
64	0	0	2643	690	2881	60
65	0	0	2573	687	2886	59
66	0	0	2477	690	2889	62
67	0	0	2364	690	2891	61
68	0	0	2241	690	2891	61
69	0	0	2154	691	2887	58
70	0	0	2085	692	2881	59
71	0	0	2012	693	2875	64
72	0	0	1961	694	2875	61
73	0	0	1921	694	2878	61
74	0	0	1920	697	2881	53
75	0	0	1933	695	2886	59
76	0	0	1955	698	2890	58
77	0	0	2017	695	2891	59
78	0	0	2122	696	2891	57
79	0	0	2218	698	2888	55
80	0	0	2299	695	2880	53
81	0	0	2417	693	2875	55
82	0	0	2455	692	2874	59
83	0	0	2375	689	2877	61
84	0	0	2316	691	2882	60
85	0	0	2307	694	2886	59
86	0	0	2283	692	2890	60
87	0	0	2234	690	2892	61
88	0	0	2172	691	2891	61
89	0	0	2121	692	2887	60
90	0	0	2074	693	2880	59
91	0	0	2030	693	2875	60
92	0	0	1991	694	2876	59
93	0	0	1985	697	2878	61
94	0	0	2011	697	2882	59
95	0	0	2052	697	2886	58
96	0	0	2091	697	2889	56
97	0	0	2122	696	2891	56
98	0	0	2163	694	2890	55
99	0	0	2213	695	2887	58
100	0	0	2298	695	2881	57
101	0	0	2375	693	2874	59
102	0	0	2402	694	2874	57
103	0	0	2396	693	2877	56
104	0	0	2362	689	2882	58
105	0	0	2311	687	2886	60
106	0	0	2268	691	2889	60
107	0	0	2225	692	2891	61
108	0	0	2188	691	2891	61
109	0	0	2154	693	2888	60
110	0	0	2115	691	2880	60
111	0	0	2032	693	2875	61
112	0	0	1946	693	2874	60
113	0	0	1898	694	2877	59
114	0	0	1870	694	2881	56
115	0	0	1889	695	2886	55
116	0	0	1950	697	2890	59
117	0	0	2043	694	2891	59
118	0	0	2156	695	2891	58
119	0	0	2224	696	2888	58
120	0	0	2263	693	2880	54
121	0	0	2357	694	2874	56
122	0	0	2422	693	2875	56
123	0	0	2440	694	2876	59
124	0	0	2398	689	2881	58
125	0	0	2302	689	2886	60
126	0	0	2234	692	2887	61
127	0	0	2189	691	2891	63
0	0	0	2134	691	2890	61
1	0	0	2115	695	2887	60
2	0	0	2095	690	2880	60
3	0	0	2030	693	2875	61
4	0	0	1989	694	2875	60
5	0	0	1965	694	2877	60
6	0	0	1963	697	2881	59
7	0	0	1983	695	2887	59
8	0	0	2028	698	2890	59
9	0	0	2091	695	2891	55
10	0	0	2166	697	2890	55
11	0	0	2236	695	2887	54
12	0	0	2310	692	2880	57
13	0	0	2401	694	2873	60
14	0	0	2460	693	2874	62
15	0	0	2475	693	2877	60
16	0	0	2467	690	2881	60
17	0	0	2402	690	2886	59
18	0	0	2317	690	2889	60
19	0	0	2246	691	2892	60
20	0	0	2188	691	2891	62
21	0	0	2141	692	2887	61
22	0	0	2122	693	2881	59
23	0	0	2090	693	2874	60
24	0	0	2040	694	2875	59
25	0	0	1995	694	2877	58
26	0	0	1991	697	2881	56
27	0	0	2021	696	2886	55
28	0	0	2055	696	2889	57
29	0	0	2086	696	2891	58
30	0	0	2150	695	2891	59
31	0	0	2231	695	2887	58
32	0	0	2301	691	2880	57
33	0	0	2367	694	2874	55
34	0	0	2412	693	2874	55
35	0	0	2432	694	2876	56
36	0	0	2436	693	2881	59
37	0	0	2435	692	2886	59
38	0	0	2409	691	2891	60
39	0	0	2354	687	2891	60
40	0	0	2257	691	2891	59
41	0	0	2187	692	2888	60
42	0	0	2124	689	2880	59
43	0	0	2060	692	2875	61
44	0	0	1979	695	2874	59
45	0	0	1934	696	2876	60
46	0	0	1966	696	2882	59
47	0	0	2014	696	2886	58
48	0	0	2075	696	2890	58
49	0	0	2152	693	2892	59
50	0	0	2205	695	2891	53
51	0	0	2240	695	2888	55
52	0	0	2279	690	2880	53
53	0	0	2348	693	2874	58
54	0	0	2434	693	2875	59
55	0	0	2480	693	2878	62
56	0	0	2473	690	2881	60
57	0	0	2418	688	2886	60
58	0	0	2331	690	2889	60
59	0	0	2251	690	2891	61
60	0	0	2191	690	2891	59
61	0	0	2117	691	2888	61
62	0	0	2050	692	2881	60
63	0	0	1996	693	2875	63
64	0	0	1973	697	2875	61
65	0	0	2003	697	2877	60
66	0	0	2012	697	2881	60
67	0	0	2025	696	2886	55
68	0	0	2060	696	2890	56
69	0	0	2089	698	2891	56
70	0	0	2135	696	2891	56
71	0	0	2194	696	2888	58
72	0	0	2282	692	2880	57
73	0	0	2381	693	2875	59
74	0	0	2442	695	2875	56
75	0	0	2484	692	2877	57
76	0	0	2431	690	2881	59
77	0	0	2369	691	2887	58
78	0	0	2334	691	2890	63
79	0	0	2285	691	2892	61
80	0	0	2226	690	2891	61
81	0	0	2160	692	2888	61
82	0	0	2098	692	2881	60
83	0	0	2064	694	2875	59
84	0	0	2063	697	2874	62
85	0	0	2080	696	2877	59
86	0	0	2099	696	2882	58
87	0	0	2138	697	2887	55
88	0	0	2177	697	2889	56
89	0	0	2207	695	2891	56
90	0	0	2242	696	2891	57
91	0	0	2287	695	2889	58
92	0	0	2316	694	2880	57
93	0	0	2347	693	2875	59
94	0	0	2400	695	2874	58
95	0	0	2436	693	2877	56
96	0	0	2431	693	2882	59
97	0	0	2401	690	2887	59
98	0	0	2344	691	2890	60
99	0	0	2296	690	2893	60
100	0	0	2253	692	2891	59
101	0	0	2210	692	2887	60
102	0	0	2148	692	2880	61
103	0	0	2066	693	2875	60
104	0	0	2029	698	2874	63
105	0	0	2063	697	2877	60
106	0	0	2100	697	2882	55
107	0	0	2130	696	2886	59
108	0	0	2143	697	2890	59
109	0	0	2141	696	2891	59
110	0	0	2179	695	2891	60
111	0	0	2259	695	2888	55
112	0	0	2372	695	2880	53
113	0	0	2461	693	2875	55
114	0	0	2497	692	2875	58
115	0	0	2514	696	2877	58
116	0	0	2515	693	2883	59
117	0	0	2473	690	2886	60
118	0	0	2415	690	2889	59
119	0	0	2355	691	2891	62
120	0	0	2272	692	2891	59
121	0	0	2183	691	2888	60
122	0	0	2113	691	2880	60
123	0	0	2044	694	2875	61
124	0	0	2018	695	2875	60
125	0	0	2013	697	2878	60
126	0	0	2031	697	2883	58
127	0	0	2062	697	2887	59
0	0	0	2120	697	2890	55
1	0	0	2160	695	2891	57
2	0	0	2201	696	2891	57
3	0	0	2252	697	2888	58
4	0	0	2297	694	2880	57
5	0	0	2363	694	2875	59
6	0	0	2440	692	2876	59
7	0	0	2499	693	2877	56
8	0	0	2497	690	2882	60
9	0	0	2452	690	2887	60
10	0	0	2442	694	2890	60
11	0	0	2435	692	2892	59
12	0	0	2387	694	2891	59
13	0	0	2325	692	2889	60
14	0	0	2216	692	2880	60
15	0	0	2078	693	2875	61
16	0	0	2010	695	2875	62
17	0	0	2008	699	2877	60
18	0	0	2041	698	2883	55
19	0	0	2040	694	2886	55
20	0	0	2022	696	2890	59
21	0	0	2069	698	2891	60
22	0	0	2182	696	2891	59
23	0	0	2300	695	2888	58
24	0	0	2384	694	2879	55
25	0	0	2467	693	2874	56
26	0	0	2518	693	2875	55
27	0	0	2512	692	2878	59
28	0	0	2475	691	2882	59
29	0	0	2430	691	2887	59
30	0	0	2400	691	2890	61
31	0	0	2364	693	2892	60
32	0	0	2336	692	2892	62
33	0	0	2267	691	2888	60
34	0	0	2184	691	2880	59
35	0	0	2124	693	2875	60
36	0	0	2076	695	2875	61
37	0	0	2038	696	2877	59
38	0	0	2035	697	2882	59
39	0	0	2072	697	2886	58
40	0	0	2118	696	2891	58
41	0	0	2170	696	2892	56
42	0	0	2239	694	2891	60
43	0	0	2306	695	2887	54
44	0	0	2350	694	2880	57
45	0	0	2386	693	2874	59
46	0	0	2391	694	2875	59
47	0	0	2395	693	2878	64
48	0	0	2415	693	2882	58
49	0	0	2399	690	2886	60
50	0	0	2347	690	2890	60
51	0	0	2270	690	2892	64
52	0	0	2221	695	2891	60
53	0	0	2207	692	2888	61
54	0	0	2132	692	2880	60
55	0	0	2080	694	2875	60
56	0	0	2101	697	2875	60
57	0	0	2124	695	2877	61
58	0	0	2153	697	2883	56
59	0	0	2146	694	2886	56
60	0	0	2129	695	2891	55
61	0	0	2128	697	2892	59
62	0	0	2143	695	2891	58
63	0	0	2205	695	2888	57
64	0	0	2298	694	2880	56
65	0	0	2381	693	2875	56
66	0	0	2414	692	2875	56
67	0	0	2397	691	2878	57
68	0	0	2403	693	2883	58
69	0	0	2394	694	2887	60
70	0	0	2401	694	2889	60
71	0	0	2351	691	2892	61
72	0	0	2275	691	2891	60
73	0	0	2199	692	2889	60
74	0	0	2103	691	2879	62
75	0	0	2024	690	2875	61
76	0	0	1983	693	2875	61
77	0	0	1960	694	2878	59
78	0	0	1963	696	2882	56
79	0	0	1981	698	2886	56
80	0	0	2006	697	2890	56
81	0	0	2042	696	2891	59
82	0	0	2089	694	2892	58
83	0	0	2130	694	2888	58
84	0	0	2234	694	2879	58
85	0	0	2345	693	2875	55
86	0	0	2383	693	2875	57
87	0	0	2386	693	2877	56
88	0	0	2367	690	2882	58
89	0	0	2326	691	2887	59
90	0	0	2288	690	2890	61
91	0	0	2208	692	2892	60
92	0	0	2095	690	2892	59
93	0	0	2012	692	2888	58
94	0	0	1980	693	2881	59
95	0	0	1935	692	2875	61
96	0	0	1902	693	2876	60
97	0	0	1876	695	2878	61
98	0	0	1877	696	2882	57
99	0	0	1889	697	2887	58
100	0	0	1893	696	2890	58
101	0	0	1922	696	2891	61
102	0	0	1962	695	2891	56
103	0	0	2038	694	2887	55
104	0	0	2153	694	2879	55
105	0	0	2256	694	2874	58
106	0	0	2321	693	2874	59
107	0	0	2339	692	2877	59
108	0	0	2298	690	2882	59
109	0	0	2261	691	2887	59
110	0	0	2220	690	2890	60
111	0	0	2136	687	2891	61
112	0	0	2052	691	2891	61
113	0	0	1959	691	2888	59
114	0	0	1841	692	2880	59
115	0	0	1746	692	2875	60
116	0	0	1713	696	2875	61
117	0	0	1762	697	2878	61
118	0	0	1832	696	2883	58
119	0	0	1873	696	2887	56
120	0	0	1887	696	2890	55
121	0	0	1916	696	2891	56
122	0	0	1965	695	2891	58
123	0	0	2019	696	2887	57
124	0	0	2145	694	2880	57
125	0	0	2298	694	2875	58
126	0	0	2351	692	2874	56
127	0	0	2304	689	2877	57
0	0	0	2243	690	2882	57
1	0	0	2186	690	2887	60
2	0	0	2134	690	2890	61
3	0	0	2073	691	2891	60
4	0	0	2007	689	2892	60
5	0	0	1949	692	2888	59
6	0	0	1894	692	2881	60
7	0	0	1845	689	2875	61
8	0	0	1855	697	2875	60
9	0	0	1864	692	2878	60
10	0	0	1836	694	2882	54
11	0	0	1832	696	2886	57
12	0	0	1852	697	2889	59
13	0	0	1912	696	2891	58
14	0	0	1963	695	2891	58
15	0	0	2018	695	2887	53
16	0	0	2097	694	2880	54
17	0	0	2186	696	2875	56
18	0	0	2227	692	2875	60
19	0	0	2261	692	2877	60
20	0	0	2286	694	2882	58
21	0	0	2261	687	2887	59
22	0	0	2203	690	2890	61
23	0	0	2125	690	2891	61
24	0	0	2040	690	2891	62
25	0	0	1966	693	2888	59
26	0	0	1907	692	2880	60
27	0	0	1845	693	2875	61
28	0	0	1817	694	2874	60
29	0	0	1824	697	2878	60
30	0	0	1868	696	2881	58
31	0	0	1905	696	2888	61
32	0	0	1871	692	2889	56
33	0	0	1859	696	2891	56
34	0	0	1916	694	2891	56
35	0	0	2017	695	2887	55
36	0	0	2151	691	2880	56
37	0	0	2262	693	2875	58
38	0	0	2269	690	2875	58
39	0	0	2234	690	2877	57
40	0	0	2199	689	2881	61
41	0	0	2154	690	2886	60
42	0	0	2123	690	2890	60
43	0	0	2073	690	2892	59
44	0	0	2013	692	2891	59
45	0	0	1990	693	2887	59
46	0	0	1966	692	2880	60
47	0	0	1920	692	2874	64
48	0	0	1864	692	2875	59
49	0	0	1828	694	2877	59
50	0	0	1805	695	2882	55
51	0	0	1830	696	2886	55
52	0	0	1889	696	2890	58
53	0	0	1920	696	2891	59
54	0	0	1950	696	2891	59
55	0	0	1968	694	2887	59
56	0	0	2047	693	2878	55
57	0	0	2196	692	2875	56
58	0	0	2290	693	2874	56
59	0	0	2324	693	2877	59
60	0	0	2340	692	2882	58
61	0	0	2307	689	2886	60
62	0	0	2202	689	2890	60
63	0	0	2067	692	2891	61
64	0	0	1963	691	2890	61
65	0	0	1925	692	2887	59
66	0	0	1896	693	2879	61
67	0	0	1849	694	2875	61
68	0	0	1846	696	2875	61
69	0	0	1840	694	2877	61
70	0	0	1832	697	2882	57
71	0	0	1869	698	2884	58
72	0	0	1929	696	2890	59
73	0	0	1992	696	2891	56
74	0	0	2037	695	2890	57
75	0	0	2108	695	2887	54
76	0	0	2189	693	2880	56
77	0	0	2266	693	2874	59
78	0	0	2327	693	2875	58
79	0	0	2328	690	2876	60
80	0	0	2255	688	2882	56
81	0	0	2160	689	2885	60
82	0	0	2117	691	2890	62
83	0	0	2073	690	2892	61
84	0	0	2019	691	2891	60
85	0	0	1991	692	2888	58
86	0	0	1941	691	2879	61
87	0	0	1876	692	2874	61
88	0	0	1860	694	2875	63
89	0	0	1916	697	2878	60
90	0	0	1990	696	2882	54
91	0	0	2024	696	2887	56
92	0	0	2030	696	2890	56
93	0	0	2045	695	2891	60
94	0	0	2084	696	2890	59
95	0	0	2121	694	2887	55
96	0	0	2171	694	2878	59
97	0	0	2231	693	2874	56
98	0	0	2249	692	2875	57
99	0	0	2244	692	2877	57
100	0	0	2238	691	2882	59
101	0	0	2198	690	2885	58
102	0	0	2155	691	2890	60
103	0	0	2124	691	2892	60
104	0	0	2077	691	2892	64
105	0	0	2028	690	2888	59
106	0	0	1992	692	2879	60
107	0	0	1957	693	2875	60
108	0	0	1938	695	2876	59
109	0	0	1936	695	2877	59
110	0	0	1920	695	2882	56
111	0	0	1936	696	2886	59
112	0	0	1985	694	2889	59
113	0	0	2041	693	2891	59
114	0	0	2103	696	2890	55
115	0	0	2146	694	2887	54
116	0	0	2192	693	2878	55
117	0	0	2248	694	2874	59
118	0	0	2293	693	2875	60
119	0	0	2330	692	2878	59
120	0	0	2289	689	2882	57
121	0	0	2226	691	2887	60
122	0	0	2190	689	2890	61
123	0	0	2100	689	2892	60
124	0	0	1995	691	2890	61
125	0	0	1957	692	2887	57
126	0	0	1942	693	2879	61
127	0	0	1926	694	2875	60
0	0	0	1922	697	2874	60
1	0	0	1929	697	2877	60
2	0	0	1927	696	2882	56
3	0	0	1953	697	2886	55
4	0	0	2002	694	2889	56
5	0	0	2044	695	2892	57
6	0	0	2086	695	2891	58
7	0	0	2146	694	2887	56
8	0	0	2225	693	2879	58
9	0	0	2301	692	2874	59
10	0	0	2321	696	2874	58
11	0	0	2321	692	2878	56
12	0	0	2316	691	2882	56
13	0	0	2252	689	2886	58
14	0	0	2202	690	2889	61
15	0	0	2169	692	2891	61
16	0	0	2134	691	2891	60
17	0	0	2090	691	2887	60
18	0	0	2039	692	2879	61
19	0	0	2005	693	2874	60
20	0	0	1964	696	2874	61
21	0	0	1911	692	2878	60
22	0	0	1884	694	2882	52
23	0	0	1871	695	2886	58
24	0	0	1898	698	2890	59
25	0	0	1963	696	2891	60
26	0	0	2050	695	2890	59
27	0	0	2154	695	2887	54
28	0	0	2224	693	2879	56
29	0	0	2302	693	2874	57
30	0	0	2358	692	2874	59
31	0	0	2375	692	2877	58
32	0	0	2346	690	2882	60
33	0	0	2281	689	2887	58
34	0	0	2205	690	2889	61
35	0	0	2171	692	2892	60
36	0	0	2154	691	2891	58
37	0	0	2100	692	2888	63
38	0	0	2023	692	2880	58
39	0	0	1935	691	2875	61
40	0	0	1875	691	2875	60
41	0	0	1874	696	2878	61
42	0	0	1877	696	2882	60
43	0	0	1872	696	2887	39
44	0	0	1896	696	2890	56
45	0	0	1973	696	2891	59
46	0	0	2064	697	2891	59
47	0	0	2140	695	2887	56
48	0	0	2205	693	2879	58
49	0	0	2281	693	2874	56
50	0	0	2334	692	2875	55
51	0	0	2366	693	2878	55
52	0	0	2351	688	2882	62
53	0	0	2287	689	2886	59
54	0	0	2211	690	2890	60
55	0	0	2144	691	2891	61
56	0	0	2063	692	2891	62
57	0	0	2010	691	2888	63
58	0	0	1983	692	2879	61
59	0	0	1949	693	2875	60
60	0	0	1923	692	2876	59
61	0	0	1909	694	2878	58
62	0	0	1907	696	2882	63
63	0	0	1937	696	2885	58
64	0	0	1997	696	2889	59
65	0	0	2074	695	2891	59
66	0	0	2134	695	2891	53
67	0	0	2177	695	2887	58
68	0	0	2233	693	2880	54
69	0	0	2306	694	2874	59
70	0	0	2345	693	2875	58
71	0	0	2359	693	2878	57
72	0	0	2354	692	2882	60
73	0	0	2316	690	2886	58
74	0	0	2264	690	2890	61
75	0	0	2239	692	2892	59
76	0	0	2199	692	2892	62
77	0	0	2112	691	2888	61
78	0	0	2041	691	2880	60
79	0	0	1997	693	2875	60
80	0	0	1961	693	2875	61
81	0	0	1946	695	2878	60
82	0	0	1929	694	2883	58
83	0	0	1929	697	2888	55
84	0	0	1950	695	2890	56
85	0	0	1996	695	2892	55
86	0	0	2061	695	2891	58
87	0	0	2165	695	2887	59
88	0	0	2264	693	2878	58
89	0	0	2358	693	2874	59
90	0	0	2410	692	2874	57
91	0	0	2384	690	2878	58
92	0	0	2319	689	2882	60
93	0	0	2277	689	2886	59
94	0	0	2239	690	2890	60
95	0	0	2202	691	2891	61
96	0	0	2179	691	2891	58
97	0	0	2106	690	2887	61
98	0	0	2012	691	2880	59
99	0	0	1947	693	2875	60
100	0	0	1904	693	2876	61
101	0	0	1906	697	2878	60
102	0	0	1920	696	2881	55
103	0	0	1933	696	2888	59
104	0	0	1990	694	2889	59
105	0	0	2080	696	2891	59
106	0	0	2173	696	2891	56
107	0	0	2244	695	2887	54
108	0	0	2297	695	2880	53
109	0	0	2346	693	2875	56
110	0	0	2382	693	2875	59
111	0	0	2394	693	2878	60
112	0	0	2390	692	2882	61
113	0	0	2339	688	2886	59
114	0	0	2227	689	2891	59
115	0	0	2116	687	2892	60
116	0	0	2048	692	2891	61
117	0	0	2006	691	2888	60
118	0	0	1973	696	2880	57
119	0	0	1934	692	2875	60
120	0	0	1909	693	2875	60
121	0	0	1882	693	2878	62
122	0	0	1880	696	2882	59
123	0	0	1942	696	2886	59
124	0	0	2018	696	2889	56
125	0	0	2084	696	2891	56
126	0	0	2166	696	2891	56
127	0	0	2253	694	2887	55
0	0	0	2337	694	2879	59
1	0	0	2425	693	2874	59
2	0	0	2480	692	2875	59
3	0	0	2496	693	2878	56
4	0	0	2460	689	2882	59
5	0	0	2405	690	2887	59
6	0	0	2336	688	2890	61
7	0	0	2261	690	2892	61
8	0	0	2222	691	2891	59
9	0	0	2172	690	2887	63
10	0	0	2098	691	2879	61
11	0	0	2025	692	2875	60
12	0	0	1976	693	2875	61
13	0	0	1947	691	2878	60
14	0	0	1952	696	2883	55
15	0	0	2001	697	2887	57
16	0	0	2068	695	2890	58
17	0	0	2144	696	2891	59
18	0	0	2212	693	2891	59
19	0	0	2272	694	2888	58
20	0	0	2326	694	2879	55
21	0	0	2407	693	2875	55
22	0	0	2461	696	2875	55
23	0	0	2437	686	2878	59
24	0	0	2399	689	2882	58
25	0	0	2347	689	2887	59
26	0	0	2289	690	2890	61
27	0	0	2224	690	2890	63
28	0	0	2193	692	2891	62
29	0	0	2177	693	2887	59
30	0	0	2128	691	2879	61
31	0	0	2065	693	2875	61
32	0	0	2015	693	2875	61
33	0	0	2013	695	2877	62
34	0	0	2048	696	2882	56
35	0	0	2094	697	2887	55
36	0	0	2137	696	2890	59
37	0	0	2180	696	2892	59
38	0	0	2203	695	2891	58
39	0	0	2214	694	2887	59
40	0	0	2283	693	2879	55
41	0	0	2382	693	2874	56
42	0	0	2445	692	2875	57
43	0	0	2471	689	2878	60
44	0	0	2456	691	2882	57
45	0	0	2412	689	2887	59
46	0	0	2328	689	2890	60
47	0	0	2216	690	2892	61
48	0	0	2154	689	2891	61
49	0	0	2116	691	2888	60
50	0	0	2044	691	2879	61
51	0	0	1984	693	2875	61
52	0	0	1963	694	2874	61
53	0	0	1956	696	2878	62
54	0	0	1982	697	2883	55
55	0	0	2047	696	2887	59
56	0	0	2066	696	2890	59
57	0	0	2068	695	2892	60
58	0	0	2131	691	2891	56
59	0	0	2228	693	2887	53
60	0	0	2305	693	2879	59
61	0	0	2391	692	2874	59
62	0	0	2447	693	2875	60
63	0	0	2452	689	2878	60
64	0	0	2435	689	2883	59
65	0	0	2383	689	2887	59
66	0	0	2318	689	2890	60
67	0	0	2253	690	2892	61
68	0	0	2216	691	2891	59
69	0	0	2191	693	2888	61
70	0	0	2155	691	2879	61
71	0	0	2087	692	2876	61
72	0	0	2022	693	2875	59
73	0	0	1988	693	2879	59
74	0	0	1966	695	2882	55
75	0	0	1982	696	2887	56
76	0	0	2012	695	2890	56
77	0	0	2051	695	2892	57
78	0	0	2122	693	2891	58
79	0	0	2174	694	2888	57
80	0	0	2224	693	2879	57
81	0	0	2288	693	2875	56
82	0	0	2348	692	2875	57
83	0	0	2404	691	2877	55
84	0	0	2410	692	2883	60
85	0	0	2367	688	2886	59
86	0	0	2307	690	2890	61
87	0	0	2268	691	2892	60
88	0	0	2223	689	2891	59
89	0	0	2145	691	2888	64
90	0	0	2080	691	2879	60
91	0	0	2034	692	2875	60
92	0	0	2010	696	2875	60
93	0	0	2022	695	2878	60
94	0	0	2024	698	2882	60
95	0	0	2003	693	2887	62
96	0	0	2007	695	2890	59
97	0	0	2056	695	2892	59
98	0	0	2106	695	2891	53
99	0	0	2158	694	2887	56
100	0	0	2207	692	2879	55
101	0	0	2271	693	2874	55
102	0	0	2325	691	2875	59
103	0	0	2319	687	2878	59
104	0	0	2271	689	2883	61
105	0	0	2264	693	2887	58
106	0	0	2292	693	2890	60
107	0	0	2299	692	2892	59
108	0	0	2241	690	2891	61
109	0	0	2137	690	2888	63
110	0	0	2021	691	2880	59
111	0	0	1946	692	2875	63
112	0	0	1945	695	2876	58
113	0	0	1980	697	2879	59
114	0	0	2025	697	2883	61
115	0	0	2073	695	2887	56
116	0	0	2099	696	2891	57
117	0	0	2138	695	2892	54
118	0	0	2202	695	2891	57
119	0	0	2256	694	2887	58
120	0	0	2296	693	2880	58
121	0	0	2349	691	2875	59
122	0	0	2374	692	2875	55
123	0	0	2351	690	2877	57
124	0	0	2322	691	2882	60
125	0	0	2280	690	2886	60
126	0	0	2229	689	2890	61
127	0	0	2179	690	2891	61
0	0	0	2135	687	2891	60
1	0	0	2078	691	2888	60
2	0	0	2019	692	2879	62
3	0	0	1995	694	2875	61
4	0	0	1975	693	2876	58
5	0	0	1945	693	2878	64
6	0	0	1949	697	2883	55
7	0	0	1993	696	2887	58
8	0	0	2042	693	2890	59
9	0	0	2126	695	2892	59
10	0	0	2185	694	2891	59
11	0	0	2163	693	2887	58
12	0	0	2176	693	2879	56
13	0	0	2225	692	2875	57
14	0	0	2254	692	2875	57
15	0	0	2287	692	2878	56
16	0	0	2288	693	2882	60
17	0	0	2273	692	2887	62
18	0	0	2245	690	2890	61
19	0	0	2219	690	2893	60
20	0	0	2156	691	2892	60
21	0	0	2088	691	2888	60
22	0	0	2041	692	2880	59
23	0	0	2030	696	2875	61
24	0	0	2007	692	2875	60
25	0	0	1977	693	2877	62
26	0	0	1982	695	2883	58
27	0	0	1990	695	2887	61
28	0	0	2006	695	2890	59
29	0	0	2062	695	2891	59
30	0	0	2140	694	2890	59
31	0	0	2196	694	2887	55
32	0	0	2274	695	2879	58
33	0	0	2345	692	2874	55
34	0	0	2358	691	2875	59
35	0	0	2339	688	2878	60
36	0	0	2291	688	2883	59
37	0	0	2235	689	2887	63
38	0	0	2192	690	2891	60
39	0	0	2138	691	2892	62
40	0	0	2088	689	2890	62
41	0	0	2035	691	2888	60
42	0	0	1996	691	2879	63
43	0	0	1957	692	2875	60
44	0	0	1968	696	2876	58
45	0	0	2023	696	2878	62
46	0	0	2079	695	2882	62
47	0	0	2100	696	2887	60
48	0	0	2108	695	2890	56
49	0	0	2126	695	2892	55
50	0	0	2155	695	2892	55
51	0	0	2202	693	2887	57
52	0	0	2257	693	2879	60
53	0	0	2346	691	2875	59
54	0	0	2439	691	2875	59
55	0	0	2477	692	2878	57
56	0	0	2418	688	2883	63
57	0	0	2345	689	2887	62
58	0	0	2283	690	2891	60
59	0	0	2184	689	2892	61
60	0	0	2091	688	2891	61
61	0	0	2039	691	2887	60
62	0	0	2017	693	2879	61
63	0	0	1998	693	2875	60
64	0	0	1968	693	2876	58
65	0	0	1964	696	2879	63
66	0	0	2034	696	2883	55
67	0	0	2112	695	2887	59
68	0	0	2114	695	2890	60
69	0	0	2162	696	2892	60
70	0	0	2230	696	2891	62
71	0	0	2256	693	2888	58
72	0	0	2273	694	2880	54
73	0	0	2282	693	2875	55
74	0	0	2285	692	2875	55
75	0	0	2282	692	2878	58
76	0	0	2328	691	2882	58
77	0	0	2357	692	2887	59
78	0	0	2304	689	2890	60
79	0	0	2216	689	2892	59
80	0	0	2143	688	2891	61
81	0	0	2078	690	2887	63
82	0	0	2032	691	2879	59
83	0	0	1965	692	2875	60
84	0	0	1921	694	2876	60
85	0	0	1923	693	2878	61
86	0	0	1937	696	2883	59
87	0	0	1964	696	2887	59
88	0	0	2016	695	2891	59
89	0	0	2062	696	2892	56
90	0	0	2118	696	2891	55
91	0	0	2205	694	2887	55
92	0	0	2289	693	2879	58
93	0	0	2355	693	2875	58
94	0	0	2401	692	2876	59
95	0	0	2434	692	2878	59
96	0	0	2437	691	2883	58
97	0	0	2375	689	2887	59
98	0	0	2286	689	2891	61
99	0	0	2180	689	2891	63
100	0	0	2086	687	2892	60
101	0	0	2023	691	2888	61
102	0	0	1973	691	2879	63
103	0	0	1953	694	2876	61
104	0	0	1953	696	2876	60
105	0	0	1945	694	2879	60
106	0	0	1939	695	2883	56
107	0	0	1951	696	2888	56
108	0	0	2033	695	2891	57
109	0	0	2124	694	2892	59
110	0	0	2204	696	2891	59
111	0	0	2259	694	2888	56
112	0	0	2310	693	2879	59
113	0	0	2354	692	2875	57
114	0	0	2361	692	2875	55
115	0	0	2343	692	2879	57
116	0	0	2342	691	2883	58
117	0	0	2304	689	2887	59
118	0	0	2262	690	2891	61
119	0	0	2255	693	2892	61
120	0	0	2238	687	2891	60
121	0	0	2152	690	2888	60
122	0	0	2077	691	2879	60
123	0	0	2040	693	2875	61
124	0	0	2009	693	2876	57
125	0	0	2005	696	2879	60
126	0	0	2013	695	2883	59
127	0	0	1997	693	2887	57
0	0	0	1993	696	2890	59
1	0	0	2028	696	2892	58
2	0	0	2086	695	2891	58
3	0	0	2127	693	2888	57
4	0	0	2195	693	2879	57
5	0	0	2265	693	2875	58
6	0	0	2294	692	2876	61
7	0	0	2288	694	2879	60
8	0	0	2264	690	2883	59
9	0	0	2245	690	2887	60
10	0	0	2195	689	2891	61
11	0	0	2124	689	2892	63
12	0	0	2038	685	2892	61
13	0	0	1945	690	2888	60
14	0	0	1906	695	2879	60
15	0	0	1915	696	2876	60
16	0	0	1904	691	2875	60
17	0	0	1891	695	2879	58
18	0	0	1903	695	2883	58
19	0	0	1936	695	2887	58
20	0	0	2006	697	2890	59
21	0	0	2076	694	2891	59
22	0	0	2128	693	2891	58
23	0	0	2147	693	2887	58
24	0	0	2190	692	2879	58
25	0	0	2272	693	2875	59
26	0	0	2324	692	2876	59
27	0	0	2337	687	2878	59
28	0	0	2294	688	2883	60
29	0	0	2260	690	2887	60
30	0	0	2256	695	2890	61
31	0	0	2244	691	2892	62
32	0	0	2152	687	2891	61
33	0	0	2008	689	2887	62
34	0	0	1903	691	2879	60
35	0	0	1847	693	2875	59
36	0	0	1836	695	2876	60
37	0	0	1827	689	2878	60
38	0	0	1821	695	2883	60
39	0	0	1851	696	2887	57
40	0	0	1918	696	2890	58
41	0	0	2014	698	2891	59
42	0	0	2105	692	2891	59
43	0	0	2169	693	2887	59
44	0	0	2231	691	2879	58
45	0	0	2276	693	2875	59
46	0	0	2289	692	2875	60
47	0	0	2270	687	2878	60
48	0	0	2231	688	2883	59
49	0	0	2196	689	2888	58
50	0	0	2153	689	2890	61
51	0	0	2110	689	2892	60
52	0	0	2043	691	2892	59
53	0	0	1991	692	2888	62
54	0	0	2013	695	2880	59
55	0	0	1993	693	2875	61
56	0	0	1939	692	2875	58
57	0	0	1920	696	2879	60
58	0	0	1960	695	2883	59
59	0	0	2023	695	2888	59
60	0	0	2037	695	2890	59
61	0	0	2058	695	2892	59
62	0	0	2089	694	2892	58
63	0	0	2132	693	2887	57
64	0	0	2199	692	2879	60
65	0	0	2288	691	2874	59
66	0	0	2348	692	2875	59
67	0	0	2319	688	2878	60
68	0	0	2258	688	2883	59
69	0	0	2196	689	2887	60
70	0	0	2144	689	2890	61
71	0	0	2070	687	2891	61
72	0	0	2008	687	2891	61
73	0	0	1998	692	2888	63
74	0	0	1988	692	2879	62
75	0	0	1953	692	2876	59
76	0	0	1899	690	2875	62
77	0	0	1884	697	2879	61
78	0	0	1922	695	2883	56
79	0	0	1971	696	2887	56
80	0	0	2054	694	2891	57
81	0	0	2115	695	2892	60
82	0	0	2135	694	2891	60
83	0	0	2142	692	2887	58
84	0	0	2180	692	2879	59
85	0	0	2261	692	2875	59
86	0	0	2316	692	2875	57
87	0	0	2326	691	2878	60
88	0	0	2296	689	2883	60
89	0	0	2221	688	2887	62
90	0	0	2144	688	2890	61
91	0	0	2038	689	2892	61
92	0	0	1946	691	2892	60
93	0	0	1954	693	2887	60
94	0	0	1980	694	2880	60
95	0	0	1977	694	2875	60
96	0	0	1965	695	2876	60
97	0	0	1955	694	2878	60
98	0	0	1966	696	2883	59
99	0	0	2007	695	2887	60
100	0	0	2036	694	2890	59
101	0	0	2054	695	2891	59
102	0	0	2121	694	2891	59
103	0	0	2221	695	2887	58
104	0	0	2329	693	2878	59
105	0	0	2442	692	2874	59
106	0	0	2534	691	2875	59
107	0	0	2583	693	2878	60
108	0	0	2622	692	2883	59
109	0	0	2633	692	2887	63
110	0	0	2588	691	2891	60
111	0	0	2520	689	2892	62
112	0	0	2458	692	2891	59
113	0	0	2430	695	2887	61
114	0	0	2440	695	2879	62
115	0	0	2457	695	2875	61
116	0	0	2470	695	2875	60
117	0	0	2502	696	2878	61
118	0	0	2534	695	2883	59
119	0	0	2556	695	2887	55
120	0	0	2587	695	2890	59
121	0	0	2604	694	2891	59
122	0	0	2643	695	2890	59
123	0	0	2690	695	2887	56
124	0	0	2728	692	2878	59
125	0	0	2768	692	2875	59
126	0	0	2801	692	2874	61
127	0	0	2754	688	2878	61
0	0	0	2679	688	2883	60
1	0	0	2557	687	2887	59
2	0	0	2446	688	2890	61
3	0	0	2376	690	2892	64
4	0	0	2326	688	2891	61
5	0	0	2255	691	2887	60
6	0	0	2172	690	2878	59
7	0	0	2045	690	2874	59
8	0	0	1968	691	2875	60
9	0	0	1954	692	2878	61
10	0	0	1942	694	2883	60
11	0	0	1930	692	2888	59
12	0	0	1880	690	2890	59
13	0	0	1838	694	2892	60
14	0	0	1894	695	2891	59
15	0	0	1982	695	2887	58
16	0	0	2062	692	2878	55
17	0	0	2146	694	2875	56
18	0	0	2192	692	2876	63
19	0	0	2209	689	2878	61
20	0	0	2206	692	2883	59
21	0	0	2185	690	2886	57
22	0	0	2154	689	2890	61
23	0	0	2108	689	2891	60
24	0	0	2044	690	2890	60
25	0	0	1988	690	2886	61
26	0	0	1964	692	2879	61
27	0	0	1917	691	2874	61
28	0	0	1912	695	2875	61
29	0	0	1955	695	2878	60
30	0	0	1975	692	2883	59
31	0	0	1961	695	2887	58
32	0	0	1980	698	2890	59
33	0	0	2004	694	2892	60
34	0	0	2041	692	2891	60
35	0	0	2071	692	2887	57
36	0	0	2122	692	2878	57
37	0	0	2211	691	2874	59
38	0	0	2254	691	2875	63
39	0	0	2265	692	2877	58
40	0	0	2232	689	2883	59
41	0	0	2167	688	2887	60
42	0	0	2085	688	2890	61
43	0	0	2038	690	2892	61
44	0	0	2004	691	2891	60
45	0	0	1961	690	2887	60
46	0	0	1928	691	2879	61
47	0	0	1883	691	2875	60
48	0	0	1844	692	2875	60
49	0	0	1847	695	2878	64
50	0	0	1882	695	2883	58
51	0	0	1905	696	2887	55
52	0	0	1927	696	2890	59
53	0	0	1980	692	2892	59
54	0	0	2051	693	2890	59
55	0	0	2107	692	2886	59
56	0	0	2171	692	2878	56
57	0	0	2228	691	2874	59
58	0	0	2241	691	2875	59
59	0	0	2228	691	2877	59
60	0	0	2209	689	2883	58
61	0	0	2169	689	2887	57
62	0	0	2122	688	2891	60
63	0	0	2036	688	2890	61
64	0	0	1966	690	2890	59
65	0	0	1948	692	2887	60
66	0	0	1923	691	2878	60
67	0	0	1891	692	2875	61
68	0	0	1879	693	2876	63
69	0	0	1877	698	2878	60
70	0	0	1895	694	2883	59
71	0	0	1929	695	2887	56
72	0	0	1929	694	2890	59
73	0	0	1936	692	2892	59
74	0	0	1971	696	2890	58
75	0	0	2015	692	2886	57
76	0	0	2085	693	2879	58
77	0	0	2186	692	2874	59
78	0	0	2228	692	2875	59
79	0	0	2234	688	2878	59
80	0	0	2225	688	2883	59
81	0	0	2189	688	2887	58
82	0	0	2126	687	2891	64
83	0	0	2087	689	2892	61
84	0	0	2063	692	2890	60
85	0	0	2023	689	2887	60
86	0	0	1992	691	2878	61
87	0	0	1943	691	2875	61
88	0	0	1883	690	2875	60
89	0	0	1865	695	2878	60
90	0	0	1892	694	2883	59
91	0	0	1920	695	2887	60
92	0	0	1948	695	2890	59
93	0	0	2002	694	2892	58
94	0	0	2058	693	2891	59
95	0	0	2092	691	2886	58
96	0	0	2142	692	2878	59
97	0	0	2209	692	2874	59
98	0	0	2250	692	2875	59
99	0	0	2239	690	2878	59
100	0	0	2204	687	2883	58
101	0	0	2174	690	2887	60
102	0	0	2156	690	2890	61
103	0	0	2127	690	2892	61
104	0	0	2067	691	2890	60
105	0	0	2010	690	2887	60
106	0	0	1965	691	2879	61
107	0	0	1936	692	2874	60
108	0	0	1920	692	2876	61
109	0	0	1903	693	2878	60
110	0	0	1892	693	2883	58
111	0	0	1904	695	2887	56
112	0	0	1965	694	2890	59
113	0	0	1992	696	2892	60
114	0	0	2041	695	2890	58
115	0	0	2103	692	2887	58
116	0	0	2188	692	2878	59
117	0	0	2275	692	2874	59
118	0	0	2315	692	2875	59
119	0	0	2356	694	2878	59
120	0	0	2361	687	2883	59
121	0	0	2281	688	2887	59
122	0	0	2187	688	2890	61
123	0	0	2104	688	2892	61
124	0	0	2022	689	2892	60
125	0	0	1951	688	2886	61
126	0	0	1922	691	2879	61
127	0	0	1887	693	2875	61
0	0	0	1860	690	2875	60
1	0	0	1848	695	2879	60
2	0	0	1873	699	2883	58
3	0	0	1949	695	2888	58
4	0	0	2033	695	2890	59
5	0	0	2079	695	2892	56
6	0	0	2137	693	2890	60
7	0	0	2193	695	2887	57
8	0	0	2211	692	2878	58
9	0	0	2224	690	2874	59
10	0	0	2222	694	2875	59
11	0	0	2250	689	2878	60
12	0	0	2291	691	2883	58
13	0	0	2244	688	2887	60
14	0	0	2157	687	2891	59
15	0	0	2108	692	2892	62
16	0	0	2087	690	2891	63
17	0	0	2038	693	2887	60
18	0	0	1963	691	2878	61
19	0	0	1920	691	2875	60
20	0	0	1931	698	2875	59
21	0	0	1954	695	2878	60
22	0	0	1947	695	2883	58
23	0	0	1940	695	2887	59
24	0	0	1984	694	2890	59
25	0	0	2070	696	2891	60
26	0	0	2127	693	2891	62
27	0	0	2164	695	2887	57
28	0	0	2240	692	2878	59
29	0	0	2312	692	2874	58
30	0	0	2300	691	2875	59
31	0	0	2251	688	2878	60
32	0	0	2242	691	2883	59
33	0	0	2243	691	2887	60
34	0	0	2207	687	2891	60
35	0	0	2136	688	2892	62
36	0	0	2065	689	2892	61
37	0	0	2015	691	2887	59
38	0	0	1980	691	2879	60
39	0	0	1952	692	2875	60
40	0	0	1923	693	2876	61
41	0	0	1915	696	2878	61
42	0	0	1956	698	2883	58
43	0	0	1985	695	2887	59
44	0	0	2010	693	2890	59
45	0	0	2039	697	2891	59
46	0	0	2085	694	2890	59
47	0	0	2140	693	2886	58
48	0	0	2193	693	2878	58
49	0	0	2278	691	2875	59
50	0	0	2360	691	2876	63
51	0	0	2393	691	2880	59
52	0	0	2385	693	2883	59
53	0	0	2379	691	2888	59
54	0	0	2344	688	2890	61
55	0	0	2279	690	2892	60
56	0	0	2216	690	2892	63
57	0	0	2172	689	2887	60
58	0	0	2107	690	2878	61
59	0	0	2029	690	2875	60
60	0	0	1980	693	2875	60
61	0	0	1996	694	2879	63
62	0	0	2033	696	2883	60
63	0	0	2060	695	2887	59
64	0	0	2062	695	2890	59
65	0	0	2086	695	2891	58
66	0	0	2118	694	2891	59
67	0	0	2172	693	2887	57
68	0	0	2278	692	2878	58
69	0	0	2342	690	2875	59
70	0	0	2345	692	2875	59
71	0	0	2301	688	2880	59
72	0	0	2269	688	2883	58
73	0	0	2250	689	2887	60
74	0	0	2213	688	2891	63
75	0	0	2175	690	2892	62
76	0	0	2131	690	2891	61
77	0	0	2111	692	2887	59
78	0	0	2092	691	2878	61
79	0	0	2035	691	2875	60
80	0	0	2010	694	2875	59
81	0	0	2006	695	2879	60
82	0	0	2012	694	2883	60
83	0	0	2034	695	2887	59
84	0	0	2078	695	2890	59
85	0	0	2144	695	2891	59
86	0	0	2211	692	2892	59
87	0	0	2275	694	2887	58
88	0	0	2316	692	2878	59
89	0	0	2329	690	2875	58
90	0	0	2313	690	2875	59
91	0	0	2303	693	2878	59
92	0	0	2303	690	2883	59
93	0	0	2315	691	2887	59
94	0	0	2342	692	2890	61
95	0	0	2342	690	2892	61
96	0	0	2270	689	2891	60
97	0	0	2170	691	2886	60
98	0	0	2082	690	2878	61
99	0	0	2024	691	2874	60
100	0	0	2008	694	2876	61
101	0	0	2024	694	2878	61
102	0	0	2046	696	2883	58
103	0	0	2048	695	2887	59
104	0	0	2078	694	2891	59
105	0	0	2178	694	2892	62
106	0	0	2284	694	2891	59
107	0	0	2377	692	2886	58
108	0	0	2451	692	2878	58
109	0	0	2450	690	2875	63
110	0	0	2416	689	2875	59
111	0	0	2402	692	2879	60
112	0	0	2394	690	2883	59
113	0	0	2350	688	2887	60
114	0	0	2283	688	2890	60
115	0	0	2224	688	2892	61
116	0	0	2168	689	2891	61
117	0	0	2115	691	2886	60
118	0	0	2059	690	2878	62
119	0	0	1970	690	2875	60
120	0	0	1890	691	2876	61
121	0	0	1930	694	2879	60
122	0	0	2028	696	2883	59
123	0	0	2078	695	2887	59
124	0	0	2145	694	2890	59
125	0	0	2209	692	2891	59
126	0	0	2203	691	2890	57
127	0	0	2172	692	2886	58
0	0	0	2215	692	2879	58
1	0	0	2327	691	2874	59
2	0	0	2399	690	2875	60
3	0	0	2407	690	2878	61
4	0	0	2350	687	2882	59
5	0	0	2277	688	2887	60
6	0	0	2232	689	2891	59
7	0	0	2194	689	2892	59
8	0	0	2160	690	2891	61
9	0	0	2124	690	2887	60
10	0	0	2065	690	2878	61
11	0	0	2008	691	2876	63
12	0	0	1967	690	2875	60
13	0	0	1933	692	2878	60
14	0	0	1920	695	2883	58
15	0	0	1964	695	2887	60
16	0	0	2035	694	2890	59
17	0	0	2063	694	2891	58
18	0	0	2082	694	2891	59
19	0	0	2119	692	2886	59
20	0	0	2168	691	2878	59
21	0	0	2221	691	2875	59
22	0	0	2250	691	2875	59
23	0	0	2253	691	2878	60
24	0	0	2226	687	2883	59
25	0	0	2182	688	2887	62
26	0	0	2131	688	2890	60
27	0	0	2068	687	2891	60
28	0	0	2013	690	2890	60
29	0	0	1992	693	2887	61
30	0	0	1977	692	2878	60
31	0	0	1942	691	2874	62
32	0	0	1899	691	2876	61
33	0	0	1898	695	2878	57
34	0	0	1909	695	2883	59
35	0	0	1901	694	2887	58
36	0	0	1917	693	2890	60
37	0	0	1960	693	2891	60
38	0	0	1998	695	2891	58
39	0	0	2031	687	2886	57
40	0	0	2090	691	2878	59
41	0	0	2160	692	2874	60
42	0	0	2203	692	2875	60
43	0	0	2200	689	2878	58
44	0	0	2153	687	2883	59
45	0	0	2098	688	2887	60
46	0	0	2028	688	2890	63
47	0	0	1981	690	2891	61
48	0	0	1965	691	2890	60
49	0	0	1933	687	2887	61
50	0	0	1877	690	2878	61
51	0	0	1841	691	2874	60
52	0	0	1829	695	2875	60
53	0	0	1839	695	2878	58
54	0	0	1841	691	2883	59
55	0	0	1859	694	2887	59
56	0	0	1900	694	2890	59
57	0	0	1944	693	2892	60
58	0	0	1974	693	2890	58
59	0	0	1992	691	2886	59
60	0	0	2041	692	2878	59
61	0	0	2112	691	2874	59
62	0	0	2166	689	2875	59
63	0	0	2184	691	2877	58
64	0	0	2154	685	2883	59
65	0	0	2114	688	2887	60
66	0	0	2061	688	2891	60
67	0	0	2020	690	2892	61
68	0	0	1988	689	2891	61
69	0	0	1950	691	2887	60
70	0	0	1908	690	2878	61
71	0	0	1853	688	2874	61
72	0	0	1823	693	2875	60
73	0	0	1827	695	2879	59
74	0	0	1822	692	2883	58
75	0	0	1824	695	2887	59
76	0	0	1842	696	2890	59
77	0	0	1911	694	2892	59
78	0	0	1984	693	2890	59
79	0	0	2018	691	2887	57
80	0	0	2072	694	2877	58
81	0	0	2138	692	2874	58
82	0	0	2148	691	2875	61
83	0	0	2129	690	2879	61
84	0	0	2104	688	2883	58
85	0	0	2064	688	2888	60
86	0	0	2032	689	2891	61
87	0	0	1989	687	2891	61
88	0	0	1928	689	2890	61
89	0	0	1870	688	2886	60
90	0	0	1816	690	2878	61
91	0	0	1791	694	2874	61
92	0	0	1818	694	2875	61
93	0	0	1842	695	2878	60
94	0	0	1837	691	2883	59
95	0	0	1842	695	2887	60
96	0	0	1880	694	2890	59
97	0	0	1917	693	2892	60
98	0	0	1952	693	2891	58
99	0	0	2002	689	2886	57
100	0	0	2067	692	2878	58
101	0	0	2121	692	2873	58
102	0	0	2139	690	2875	59
103	0	0	2158	691	2877	60
104	0	0	2163	689	2883	59
105	0	0	2133	689	2888	61
106	0	0	2102	693	2890	60
107	0	0	2066	689	2891	60
108	0	0	2010	690	2890	61
109	0	0	1956	688	2887	59
110	0	0	1896	690	2877	59
111	0	0	1870	692	2875	63
112	0	0	1850	692	2875	60
113	0	0	1831	694	2878	61
114	0	0	1831	695	2884	59
115	0	0	1832	695	2887	59
116	0	0	1841	693	2890	59
117	0	0	1863	694	2891	59
118	0	0	1958	693	2890	58
119	0	0	2055	688	2886	58
120	0	0	2119	689	2877	59
121	0	0	2175	695	2873	59
122	0	0	2229	692	2874	59
123	0	0	2248	690	2877	61
124	0	0	2189	684	2883	60
125	0	0	2112	687	2886	60
126	0	0	2044	691	2890	60
127	0	0	1971	689	2891	61
0	0	0	1919	689	2890	61
1	0	0	1893	690	2887	61
2	0	0	1869	691	2878	61
3	0	0	1847	695	2875	60
4	0	0	1858	696	2876	58
5	0	0	1841	692	2877	61
6	0	0	1851	695	2883	58
7	0	0	1881	695	2888	59
8	0	0	1938	693	2890	59
9	0	0	1991	692	2891	59
10	0	0	2034	693	2890	59
11	0	0	2070	692	2886	57
12	0	0	2082	692	2878	58
13	0	0	2114	691	2874	59
14	0	0	2142	690	2875	59
15	0	0	2156	691	2878	61
16	0	0	2142	690	2883	59
17	0	0	2096	688	2887	59
18	0	0	2050	689	2890	60
19	0	0	2002	689	2892	59
20	0	0	1948	690	2891	60
21	0	0	1911	690	2887	61
22	0	0	1851	690	2878	60
23	0	0	1777	692	2874	60
24	0	0	1762	695	2875	59
25	0	0	1783	695	2878	60
26	0	0	1801	694	2883	59
27	0	0	1822	694	2887	59
28	0	0	1872	694	2890	59
29	0	0	1909	694	2891	59
30	0	0	1962	693	2890	59
31	0	0	2004	692	2886	57
32	0	0	2031	692	2878	59
33	0	0	2096	691	2874	60
34	0	0	2139	692	2875	59
35	0	0	2137	691	2878	60
36	0	0	2121	689	2883	58
37	0	0	2095	689	2887	60
38	0	0	2071	688	2891	60
39	0	0	2034	689	2890	64
40	0	0	1960	688	2890	61
41	0	0	1901	690	2886	60
42	0	0	1860	691	2878	62
43	0	0	1816	691	2874	59
44	0	0	1779	692	2875	59
45	0	0	1754	693	2878	60
46	0	0	1763	695	2883	59
47	0	0	1792	695	2887	60
48	0	0	1859	694	2890	59
49	0	0	1956	694	2892	59
50	0	0	2046	693	2890	59
51	0	0	2097	693	2887	58
52	0	0	2081	690	2878	58
53	0	0	2079	692	2874	59
54	0	0	2122	690	2875	57
55	0	0	2164	690	2878	59
56	0	0	2188	691	2882	59
57	0	0	2182	688	2886	61
58	0	0	2132	688	2890	61
59	0	0	2059	687	2892	61
60	0	0	1985	689	2890	61
61	0	0	1927	690	2886	59
62	0	0	1875	691	2878	61
63	0	0	1847	693	2874	61
64	0	0	1860	694	2875	61
65	0	0	1862	695	2880	59
66	0	0	1898	695	2883	60
67	0	0	1960	695	2887	59
68	0	0	2004	693	2891	59
69	0	0	2042	694	2892	56
70	0	0	2081	694	2890	59
71	0	0	2128	693	2886	57
72	0	0	2205	691	2877	59
73	0	0	2297	690	2874	60
74	0	0	2322	692	2874	57
75	0	0	2287	688	2878	61
76	0	0	2224	687	2883	59
77	0	0	2158	688	2886	61
78	0	0	2106	688	2890	61
79	0	0	2026	688	2891	60
80	0	0	1951	689	2891	60
81	0	0	1904	687	2886	60
82	0	0	1834	690	2878	61
83	0	0	1784	691	2875	61
84	0	0	1754	693	2875	60
85	0	0	1750	695	2879	61
86	0	0	1788	694	2882	58
87	0	0	1870	694	2887	59
88	0	0	1977	694	2890	59
89	0	0	2064	694	2891	59
90	0	0	2107	692	2890	59
91	0	0	2151	693	2886	58
92	0	0	2201	692	2877	59
93	0	0	2231	692	2874	58
94	0	0	2208	688	2875	61
95	0	0	2187	691	2878	60
96	0	0	2192	691	2882	59
97	0	0	2164	687	2887	60
98	0	0	2103	688	2890	61
99	0	0	2033	690	2891	59
100	0	0	1980	689	2891	60
101	0	0	1920	690	2886	59
102	0	0	1856	690	2878	61
103	0	0	1789	690	2874	61
104	0	0	1747	691	2876	61
105	0	0	1751	694	2878	60
106	0	0	1802	695	2883	59
107	0	0	1872	694	2887	58
108	0	0	1953	694	2890	59
109	0	0	2029	694	2891	59
110	0	0	2096	693	2890	58
111	0	0	2136	692	2885	57
112	0	0	2177	692	2877	58
113	0	0	2221	691	2874	59
114	0	0	2227	691	2874	60
115	0	0	2228	691	2879	61
116	0	0	2234	691	2883	59
117	0	0	2229	689	2887	60
118	0	0	2176	688	2890	59
119	0	0	2087	689	2892	63
120	0	0	1965	689	2890	62
121	0	0	1870	689	2885	62
122	0	0	1817	690	2877	61
123	0	0	1776	692	2874	59
124	0	0	1775	695	2875	61
125	0	0	1826	696	2879	59
126	0	0	1868	694	2882	59
127	0	0	1889	694	2886	59
0	0	0	1924	694	2889	57
1	0	0	1972	694	2891	63
2	0	0	2070	693	2890	59
3	0	0	2133	693	2886	58
4	0	0	2163	692	2877	59
5	0	0	2198	692	2874	57
6	0	0	2222	691	2875	59
7	0	0	2200	689	2879	59
8	0	0	2193	691	2882	59
9	0	0	2177	687	2886	60
10	0	0	2142	690	2890	60
11	0	0	2088	689	2892	58
12	0	0	2039	690	2890	60
13	0	0	2017	692	2886	60
14	0	0	1991	691	2877	59
15	0	0	1925	690	2873	61
16	0	0	1869	691	2875	61
17	0	0	1845	693	2879	59
18	0	0	1866	695	2883	58
19	0	0	1912	695	2887	58
20	0	0	1944	695	2889	59
21	0	0	1954	693	2891	60
22	0	0	1964	692	2889	58
23	0	0	2016	694	2886	58
24	0	0	2133	691	2877	58
25	0	0	2229	693	2874	58
26	0	0	2288	691	2875	61
27	0	0	2343	692	2878	59
28	0	0	2306	687	2882	60
29	0	0	2229	690	2887	58
30	0	0	2164	689	2889	60
31	0	0	2106	688	2891	61
32	0	0	2009	688	2889	59
33	0	0	1906	689	2886	60
34	0	0	1847	690	2877	60
35	0	0	1793	691	2873	62
36	0	0	1767	695	2875	60
37	0	0	1803	695	2878	61
38	0	0	1856	695	2883	59
39	0	0	1911	694	2887	59
40	0	0	1993	691	2890	60
41	0	0	2060	693	2891	59
42	0	0	2083	694	2890	58
43	0	0	2105	692	2886	38
44	0	0	2153	692	2877	59
45	0	0	2194	692	2873	58
46	0	0	2221	691	2875	59
47	0	0	2230	690	2878	58
48	0	0	2206	688	2883	59
49	0	0	2163	689	2887	60
50	0	0	2101	688	2889	63
51	0	0	2011	689	2891	60
52	0	0	1985	690	2889	62
53	0	0	1953	690	2886	61
54	0	0	1905	694	2878	59
55	0	0	1887	693	2875	60
56	0	0	1915	695	2875	60
57	0	0	1932	693	2878	58
58	0	0	1895	691	2883	58
59	0	0	1875	694	2887	59
60	0	0	1938	691	2890	60
61	0	0	2012	693	2891	60
62	0	0	2045	693	2889	61
63	0	0	2077	692	2886	58
64	0	0	2133	691	2877	59
65	0	0	2208	688	2873	58
66	0	0	2247	689	2875	59
67	0	0	2252	690	2877	60
68	0	0	2248	687	2883	59
69	0	0	2205	688	2887	59
70	0	0	2131	689	2890	60
71	0	0	2072	688	2891	61
72	0	0	2028	690	2891	61
73	0	0	1979	690	2886	61
74	0	0	1949	691	2877	62
75	0	0	1915	692	2873	60
76	0	0	1885	692	2875	60
77	0	0	1879	694	2878	59
78	0	0	1883	694	2883	59
79	0	0	1913	695	2887	59
80	0	0	1946	694	2890	59
81	0	0	1980	693	2891	57
82	0	0	2044	693	2890	57
83	0	0	2099	692	2886	58
84	0	0	2147	692	2877	58
85	0	0	2217	690	2874	58
86	0	0	2267	691	2875	59
87	0	0	2255	688	2879	60
88	0	0	2221	688	2883	59
89	0	0	2167	687	2887	60
90	0	0	2089	688	2890	61
91	0	0	2012	688	2891	60
92	0	0	1958	688	2890	59
93	0	0	1901	687	2885	60
94	0	0	1847	690	2877	63
95	0	0	1817	692	2874	61
96	0	0	1814	694	2874	61
97	0	0	1854	695	2877	61
98	0	0	1901	694	2883	59
99	0	0	1914	694	2886	59
100	0	0	1927	694	2890	58
101	0	0	1977	692	2891	56
102	0	0	2007	693	2890	58
103	0	0	2032	693	2886	57
104	0	0	2118	691	2877	58
105	0	0	2233	691	2874	59
106	0	0	2284	691	2875	60
107	0	0	2269	688	2878	61
108	0	0	2231	687	2883	59
109	0	0	2173	688	2887	61
110	0	0	2119	689	2890	60
111	0	0	2050	688	2891	61
112	0	0	1968	688	2890	60
113	0	0	1928	691	2884	59
114	0	0	1892	690	2877	61
115	0	0	1854	692	2874	61
116	0	0	1842	692	2875	60
117	0	0	1839	694	2878	59
118	0	0	1846	694	2883	59
119	0	0	1860	695	2887	57
120	0	0	1933	694	2890	59
121	0	0	2004	694	2891	60
122	0	0	2037	692	2890	58
123	0	0	2069	693	2886	56
124	0	0	2134	691	2877	59
125	0	0	2192	692	2874	58
126	0	0	2218	691	2875	59
127	0	0	2219	692	2878	59
0	0	0	2249	691	2882	59
1	0	0	2236	688	2887	60
2	0	0	2185	688	2890	61
3	0	0	2112	689	2891	61
4	0	0	2055	690	2890	61
5	0	0	2001	689	2885	59
6	0	0	1930	690	2877	60
7	0	0	1854	691	2874	60
8	0	0	1817	692	2875	60
9	0	0	1805	695	2878	59
10	0	0	1850	694	2882	59
11	0	0	1931	694	2888	58
12	0	0	1969	694	2890	59
13	0	0	1993	694	2891	59
14	0	0	2033	693	2889	58
15	0	0	2088	692	2886	59
16	0	0	2138	692	2877	59
17	0	0	2175	691	2874	59
18	0	0	2235	691	2876	59
19	0	0	2274	690	2878	59
20	0	0	2278	691	2881	58
21	0	0	2247	688	2887	60
22	0	0	2173	688	2890	61
23	0	0	2105	688	2890	63
24	0	0	2048	689	2890	57
25	0	0	1972	689	2886	61
26	0	0	1899	690	2877	61
27	0	0	1815	690	2875	60
28	0	0	1755	692	2875	60
29	0	0	1780	695	2878	59
30	0	0	1830	694	2882	59
31	0	0	1902	695	2888	58
32	0	0	1971	694	2890	59
33	0	0	2021	694	2890	59
34	0	0	2050	693	2890	57
35	0	0	2085	692	2884	58
36	0	0	2094	692	2877	58
37	0	0	2128	691	2874	59
38	0	0	2186	690	2873	61
39	0	0	2241	690	2878	59
40	0	0	2260	690	2883	59
41	0	0	2231	687	2887	60
42	0	0	2149	687	2891	58
43	0	0	2037	688	2891	60
44	0	0	1973	689	2890	58
45	0	0	1969	694	2884	60
46	0	0	1942	690	2877	62
47	0	0	1891	690	2874	61
48	0	0	1834	691	2875	60
49	0	0	1790	691	2879	60
50	0	0	1806	695	2883	58
51	0	0	1893	696	2887	59
52	0	0	1954	694	2890	60
53	0	0	2002	693	2891	59
54	0	0	2017	693	2889	56
55	0	0	2024	692	2886	57
56	0	0	2069	690	2877	59
57	0	0	2139	691	2873	60
58	0	0	2194	690	2874	61
59	0	0	2216	690	2878	60
60	0	0	2175	688	2883	58
61	0	0	2142	689	2887	60
62	0	0	2119	688	2890	61
63	0	0	2038	687	2891	59
64	0	0	1958	689	2889	59
65	0	0	1920	692	2885	61
66	0	0	1908	691	2877	60
67	0	0	1880	692	2874	61
68	0	0	1860	693	2874	61
69	0	0	1867	694	2878	58
70	0	0	1889	694	2882	59
71	0	0	1932	694	2885	60
72	0	0	1947	693	2889	59
73	0	0	1928	693	2890	61
74	0	0	1963	693	2889	57
75	0	0	2052	690	2885	56
76	0	0	2134	692	2877	58
77	0	0	2198	690	2873	59
78	0	0	2212	691	2874	59
79	0	0	2189	687	2878	58
80	0	0	2155	690	2882	58
81	0	0	2134	689	2887	59
82	0	0	2114	687	2891	60
83	0	0	2083	689	2891	60
84	0	0	2022	690	2890	60
85	0	0	1984	687	2884	60
86	0	0	1942	691	2878	60
87	0	0	1906	693	2873	60
88	0	0	1916	695	2875	60
89	0	0	1924	695	2879	58
90	0	0	1903	691	2882	59
91	0	0	1874	692	2887	59
92	0	0	1868	694	2889	58
93	0	0	1903	694	2891	59
94	0	0	1970	693	2890	58
95	0	0	2086	692	2885	57
96	0	0	2201	692	2877	59
97	0	0	2237	691	2874	59
98	0	0	2216	689	2875	58
99	0	0	2216	690	2878	60
100	0	0	2186	688	2883	59
101	0	0	2135	687	2886	60
102	0	0	2076	686	2890	60
103	0	0	2007	688	2891	59
104	0	0	1968	690	2890	60
105	0	0	1940	692	2884	59
106	0	0	1914	691	2877	60
107	0	0	1884	689	2875	60
108	0	0	1854	692	2876	63
109	0	0	1854	694	2878	62
110	0	0	1873	694	2883	58
111	0	0	1900	694	2886	61
112	0	0	1924	692	2890	58
113	0	0	1944	693	2892	57
114	0	0	1986	692	2890	58
115	0	0	2041	692	2885	56
116	0	0	2079	691	2876	59
117	0	0	2125	690	2874	59
118	0	0	2164	692	2874	59
119	0	0	2189	691	2878	59
120	0	0	2197	691	2882	58
121	0	0	2179	689	2886	60
122	0	0	2145	688	2891	60
123	0	0	2115	689	2891	58
124	0	0	2081	689	2890	62
125	0	0	2046	689	2885	60
126	0	0	1996	690	2877	62
127	0	0	1941	690	2874	59
0	0	0	1894	691	2876	60
1	0	0	1842	690	2878	63
2	0	0	1797	692	2882	58
3	0	0	1800	694	2887	59
4	0	0	1838	693	2890	59
5	0	0	1933	695	2891	59
6	0	0	1994	694	2889	58
7	0	0	2036	693	2885	56
8	0	0	2104	692	2877	58
9	0	0	2199	690	2874	59
10	0	0	2271	692	2874	60
11	0	0	2290	690	2878	63
12	0	0	2272	687	2882	59
13	0	0	2195	688	2886	59
14	0	0	2147	689	2890	60
15	0	0	2110	689	2892	60
16	0	0	2030	689	2890	63
17	0	0	1955	690	2885	60
18	0	0	1879	690	2877	58
19	0	0	1812	691	2874	56
20	0	0	1813	695	2875	57
21	0	0	1848	696	2878	62
22	0	0	1904	695	2882	58
23	0	0	1964	695	2887	59
24	0	0	2013	693	2890	59
25	0	0	2058	695	2891	59
26	0	0	2089	694	2890	58
27	0	0	2094	692	2885	58
28	0	0	2124	690	2877	59
29	0	0	2193	691	2874	58
30	0	0	2236	691	2875	59
31	0	0	2199	687	2878	62
32	0	0	2138	687	2882	59
33	0	0	2085	688	2887	60
34	0	0	2057	692	2890	62
35	0	0	2033	690	2892	59
36	0	0	1984	690	2891	55
37	0	0	1965	693	2885	57
38	0	0	1959	690	2877	62
39	0	0	1892	691	2873	61
40	0	0	1842	693	2875	61
41	0	0	1854	695	2878	59
42	0	0	1868	695	2882	58
43	0	0	1875	695	2887	58
44	0	0	1871	694	2890	60
45	0	0	1876	695	2891	59
46	0	0	1934	693	2890	59
47	0	0	2001	692	2884	57
48	0	0	2045	691	2877	59
49	0	0	2065	690	2873	59
50	0	0	2094	692	2875	59
51	0	0	2130	691	2878	63
52	0	0	2182	691	2882	56
53	0	0	2200	691	2887	57
54	0	0	2139	691	2889	58
55	0	0	2016	688	2891	60
56	0	0	1924	690	2890	61
57	0	0	1892	691	2886	59
58	0	0	1864	690	2877	60
59	0	0	1841	692	2874	56
60	0	0	1826	695	2875	57
61	0	0	1836	695	2879	55
62	0	0	1819	692	2883	58
63	0	0	1811	694	2888	62
64	0	0	1818	694	2890	58
65	0	0	1856	695	2891	58
66	0	0	1930	693	2890	56
67	0	0	1988	692	2885	57
68	0	0	2034	691	2877	59
69	0	0	2074	692	2873	60
70	0	0	2100	691	2875	59
71	0	0	2109	690	2878	57
72	0	0	2102	691	2883	59
73	0	0	2083	688	2887	60
74	0	0	2058	689	2890	61
75	0	0	2019	689	2892	60
76	0	0	1979	690	2889	57
77	0	0	1974	692	2885	58
78	0	0	1958	690	2877	58
79	0	0	1900	691	2874	60
80	0	0	1827	691	2876	60
81	0	0	1792	693	2879	59
82	0	0	1784	692	2882	59
83	0	0	1789	694	2888	58
84	0	0	1864	695	2891	60
85	0	0	1898	694	2891	59
86	0	0	1904	694	2890	58
87	0	0	1963	693	2886	57
88	0	0	2030	690	2877	59
89	0	0	2096	691	2874	59
90	0	0	2128	691	2875	62
91	0	0	2137	691	2878	59
92	0	0	2158	691	2882	57
93	0	0	2160	688	2887	56
94	0	0	2096	688	2891	57
95	0	0	2029	689	2891	58
96	0	0	1964	690	2890	60
97	0	0	1928	691	2885	59
98	0	0	1926	694	2877	61
99	0	0	1902	691	2874	64
100	0	0	1841	688	2876	57
101	0	0	1783	691	2879	54
102	0	0	1765	695	2884	58
103	0	0	1795	696	2887	59
104	0	0	1865	694	2890	58
105	0	0	1899	692	2891	59
106	0	0	1929	694	2890	58
107	0	0	1958	693	2885	56
108	0	0	1997	692	2876	59
109	0	0	2065	691	2873	59
110	0	0	2141	691	2875	59
111	0	0	2150	690	2878	60
112	0	0	2153	690	2883	55
113	0	0	2172	690	2887	60
114	0	0	2151	688	2890	60
115	0	0	2089	689	2892	60
116	0	0	2025	689	2890	61
117	0	0	1973	690	2886	57
118	0	0	1924	690	2877	60
119	0	0	1869	691	2874	56
120	0	0	1840	689	2875	60
121	0	0	1813	692	2879	58
122	0	0	1781	692	2883	58
123	0	0	1764	693	2887	59
124	0	0	1796	694	2889	61
125	0	0	1872	692	2891	58
126	0	0	1916	693	2890	56
127	0	0	1935	693	2885	56
0	0	0	1985	691	2877	58
1	0	0	2048	691	2872	59
2	0	0	2096	689	2875	59
3	0	0	2130	691	2878	58
4	0	0	2180	691	2883	57
5	0	0	2167	688	2887	59
6	0	0	2077	688	2890	58
7	0	0	1983	687	2891	55
8	0	0	1930	690	2890	55
9	0	0	1883	690	2885	59
10	0	0	1870	692	2877	61
11	0	0	1852	692	2874	60
12	0	0	1836	692	2874	62
13	0	0	1833	694	2878	56
14	0	0	1811	690	2883	59
15	0	0	1776	691	2886	55
16	0	0	1790	696	2890	59
17	0	0	1875	693	2890	59
18	0	0	1956	693	2890	56
19	0	0	2021	693	2885	57
20	0	0	2104	691	2876	58
21	0	0	2185	692	2874	59
22	0	0	2245	690	2874	59
23	0	0	2286	692	2878	64
24	0	0	2276	690	2882	55
25	0	0	2237	688	2887	57
26	0	0	2199	689	2891	59
27	0	0	2194	692	2892	60
28	0	0	2222	694	2890	62
29	0	0	2232	693	2886	60
30	0	0	2215	692	2877	57
31	0	0	2183	692	2874	55
32	0	0	2148	691	2875	56
33	0	0	2128	695	2878	61
34	0	0	2167	695	2883	59
35	0	0	2247	694	2887	58
36	0	0	2320	694	2890	58
37	0	0	2407	694	2891	58
38	0	0	2501	695	2890	59
39	0	0	2572	693	2885	57
40	0	0	2644	691	2877	59
41	0	0	2688	691	2874	57
42	0	0	2663	688	2875	58
43	0	0	2615	688	2878	60
44	0	0	2579	687	2882	58
45	0	0	2511	687	2887	60
46	0	0	2439	688	2890	61
47	0	0	2375	689	2891	58
48	0	0	2338	690	2890	57
49	0	0	2295	690	2884	57
50	0	0	2248	690	2877	61
51	0	0	2173	691	2874	59
52	0	0	2107	691	2875	59
53	0	0	2065	692	2878	62
54	0	0	2039	691	2882	58
55	0	0	2005	691	2888	59
56	0	0	1987	691	2890	57
57	0	0	1978	693	2891	59
58	0	0	2012	693	2889	59
59	0	0	2044	692	2884	58
60	0	0	2062	691	2876	59
61	0	0	2040	688	2874	56
62	0	0	2036	690	2874	59
63	0	0	2063	691	2878	59
64	0	0	2054	688	2882	57
65	0	0	2030	689	2886	57
66	0	0	1980	687	2890	57
67	0	0	1899	688	2890	64
68	0	0	1819	688	2890	60
69	0	0	1759	689	2885	60
70	0	0	1725	691	2877	61
71	0	0	1723	695	2874	54
72	0	0	1746	695	2875	56
73	0	0	1780	695	2879	58
74	0	0	1803	695	2882	61
75	0	0	1826	695	2887	59
76	0	0	1868	694	2891	57
77	0	0	1928	694	2891	60
78	0	0	2007	693	2889	62
79	0	0	2114	692	2885	58
80	0	0	2172	690	2876	59
81	0	0	2165	690	2873	58
82	0	0	2155	690	2874	59
83	0	0	2152	691	2878	60
84	0	0	2162	690	2883	61
85	0	0	2138	688	2887	60
86	0	0	2097	687	2890	60
87	0	0	2051	689	2891	60
88	0	0	2021	689	2890	57
89	0	0	1970	689	2885	59
90	0	0	1903	690	2877	58
91	0	0	1853	691	2874	58
92	0	0	1854	694	2875	58
93	0	0	1879	695	2878	59
94	0	0	1883	694	2883	59
95	0	0	1864	691	2887	57
96	0	0	1819	689	2889	59
97	0	0	1787	693	2890	56
98	0	0	1841	692	2889	58
99	0	0	1937	694	2885	56
100	0	0	2012	692	2876	58
101	0	0	2086	691	2874	57
102	0	0	2114	691	2875	59
103	0	0	2114	690	2878	60
104	0	0	2126	690	2882	60
105	0	0	2106	687	2887	57
106	0	0	2063	687	2890	57
107	0	0	2003	688	2890	58
108	0	0	1918	688	2890	63
109	0	0	1854	689	2885	63
110	0	0	1833	692	2877	64
111	0	0	1820	691	2874	60
112	0	0	1812	696	2875	58
113	0	0	1835	694	2878	60
114	0	0	1862	695	2883	59
115	0	0	1890	694	2887	58
116	0	0	1929	692	2890	58
117	0	0	1965	692	2891	59
118	0	0	2015	693	2890	58
119	0	0	2046	692	2884	59
120	0	0	2089	690	2877	59
121	0	0	2136	691	2874	56
122	0	0	2183	692	2875	62
123	0	0	2212	690	2879	59
124	0	0	2152	687	2883	60
125	0	0	2097	689	2887	57
126	0	0	2091	689	2890	58
127	0	0	2045	689	2891	56
0	0	0	1970	688	2890	59
1	0	0	1904	689	2885	60
2	0	0	1862	691	2878	59
3	0	0	1847	694	2874	59
4	0	0	1827	692	2875	57
5	0	0	1824	694	2879	57
6	0	0	1845	694	2882	59
7	0	0	1874	692	2887	59
8	0	0	1912	693	2890	58
9	0	0	1971	695	2891	60
10	0	0	2043	693	2890	58
11	0	0	2107	692	2885	59
12	0	0	2147	691	2877	60
13	0	0	2146	689	2874	58
14	0	0	2107	686	2875	63
15	0	0	2097	688	2878	63
16	0	0	2117	692	2883	58
17	0	0	2121	691	2887	60
18	0	0	2108	689	2890	59
19	0	0	2051	688	2892	60
20	0	0	1968	688	2890	61
21	0	0	1904	690	2886	56
22	0	0	1856	690	2877	58
23	0	0	1804	690	2874	57
24	0	0	1778	692	2875	60
25	0	0	1788	694	2879	61
26	0	0	1844	694	2883	60
27	0	0	1888	694	2887	59
28	0	0	1934	693	2890	60
29	0	0	1959	694	2892	62
30	0	0	1976	693	2890	59
31	0	0	2004	691	2885	56
32	0	0	2060	692	2877	59
33	0	0	2130	691	2874	55
34	0	0	2203	691	2876	59
35	0	0	2229	689	2878	60
36	0	0	2208	688	2883	59
37	0	0	2180	689	2888	59
38	0	0	2154	687	2890	57
39	0	0	2122	690	2891	57
40	0	0	2084	690	2890	57
41	0	0	2055	690	2885	60
42	0	0	2025	691	2877	62
43	0	0	1981	690	2874	61
44	0	0	1941	692	2876	62
45	0	0	1912	691	2879	57
46	0	0	1880	691	2883	58
47	0	0	1859	693	2887	59
48	0	0	1884	694	2890	59
49	0	0	1956	691	2891	58
50	0	0	2017	692	2890	58
51	0	0	2048	692	2886	58
52	0	0	2075	691	2877	59
53	0	0	2121	691	2874	57
54	0	0	2184	690	2876	58
55	0	0	2211	691	2878	60
56	0	0	2200	689	2883	55
57	0	0	2158	688	2887	57
58	0	0	2084	688	2891	58
59	0	0	2024	690	2892	59
60	0	0	1985	689	2890	60
61	0	0	1952	690	2885	60
62	0	0	1924	691	2877	59
63	0	0	1913	694	2874	58
64	0	0	1911	695	2876	57
65	0	0	1914	695	2879	60
66	0	0	1952	694	2883	57
67	0	0	1972	693	2887	58
68	0	0	2011	693	2890	60
69	0	0	2093	692	2891	59
70	0	0	2141	692	2890	62
71	0	0	2164	694	2886	58
72	0	0	2206	692	2877	58
73	0	0	2208	689	2874	59
74	0	0	2190	690	2876	63
75	0	0	2183	690	2879	60
76	0	0	2166	688	2883	59
77	0	0	2133	688	2887	60
78	0	0	2109	691	2891	61
79	0	0	2102	690	2891	57
80	0	0	2068	689	2891	58
81	0	0	2010	689	2884	55
82	0	0	1938	689	2877	61
83	0	0	1906	694	2874	61
84	0	0	1934	693	2876	63
85	0	0	1949	695	2879	60
86	0	0	1978	694	2883	57
87	0	0	2016	695	2887	59
88	0	0	2033	694	2891	58
89	0	0	2072	689	2892	59
90	0	0	2109	692	2890	60
91	0	0	2136	693	2885	57
92	0	0	2159	695	2876	58
93	0	0	2203	691	2874	59
94	0	0	2207	687	2876	59
95	0	0	2209	690	2879	60
96	0	0	2212	691	2883	56
97	0	0	2195	687	2888	56
98	0	0	2146	688	2890	55
99	0	0	2106	691	2892	61
100	0	0	2077	690	2891	57
101	0	0	2049	690	2885	57
102	0	0	2016	690	2878	60
103	0	0	1988	691	2874	57
104	0	0	1965	692	2876	59
105	0	0	1979	695	2879	59
106	0	0	1987	694	2883	58
107	0	0	1986	693	2887	59
108	0	0	2012	694	2890	59
109	0	0	2043	689	2892	59
110	0	0	2058	693	2890	58
111	0	0	2113	692	2885	56
112	0	0	2206	692	2877	59
113	0	0	2287	692	2874	57
114	0	0	2348	687	2875	59
115	0	0	2358	691	2879	62
116	0	0	2370	691	2883	56
117	0	0	2341	688	2887	57
118	0	0	2267	687	2891	56
119	0	0	2178	687	2892	60
120	0	0	2111	689	2890	60
121	0	0	2051	689	2886	60
122	0	0	1968	693	2877	61
123	0	0	1943	693	2874	56
124	0	0	1935	695	2876	56
125	0	0	1964	693	2879	59
126	0	0	2015	694	2883	60
127	0	0	2074	694	2888	58
0	0	0	2123	691	2891	59
1	0	0	2147	695	2891	58
2	0	0	2159	692	2890	59
3	0	0	2171	692	2884	58
4	0	0	2199	692	2876	58
5	0	0	2255	691	2874	56
6	0	0	2300	688	2875	59
7	0	0	2297	689	2879	59
8	0	0	2298	691	2883	60
9	0	0	2293	690	2887	61
10	0	0	2287	691	2892	60
11	0	0	2251	683	2892	60
12	0	0	2162	688	2890	57
13	0	0	2057	689	2886	56
14	0	0	1994	691	2877	58
15	0	0	1990	695	2874	59
16	0	0	2021	694	2876	60
17	0	0	2077	694	2880	59
18	0	0	2104	695	2883	58
19	0	0	2120	693	2887	59
20	0	0	2127	694	2892	59
21	0	0	2161	695	2892	58
22	0	0	2243	694	2890	59
23	0	0	2287	693	2885	58
24	0	0	2326	692	2878	58
25	0	0	2373	691	2874	59
26	0	0	2366	692	2875	61
27	0	0	2336	687	2879	59
28	0	0	2275	687	2883	60
29	0	0	2228	689	2887	57
30	0	0	2231	691	2890	57
31	0	0	2207	688	2892	57
32	0	0	2180	691	2890	60
33	0	0	2176	692	2885	61
34	0	0	2156	689	2877	60
35	0	0	2053	690	2876	60
36	0	0	1979	692	2876	59
37	0	0	2012	694	2879	58
38	0	0	2065	694	2883	60
39	0	0	2122	696	2887	59
40	0	0	2167	693	2891	58
41	0	0	2190	692	2892	59
42	0	0	2215	693	2890	59
43	0	0	2233	691	2885	55
44	0	0	2254	694	2878	58
45	0	0	2293	693	2874	58
46	0	0	2333	692	2875	59
47	0	0	2335	690	2879	59
48	0	0	2306	688	2884	56
49	0	0	2250	687	2888	60
50	0	0	2183	688	2891	60
51	0	0	2151	690	2892	62
52	0	0	2114	689	2891	61
53	0	0	2048	690	2885	55
54	0	0	1986	692	2878	57
55	0	0	1937	689	2874	58
56	0	0	1921	694	2875	59
57	0	0	1936	695	2879	60
58	0	0	1992	694	2883	60
59	0	0	2013	694	2887	59
60	0	0	2021	695	2891	59
61	0	0	2057	694	2892	59
62	0	0	2083	693	2890	59
63	0	0	2135	692	2885	55
64	0	0	2172	691	2877	59
65	0	0	2204	687	2874	58
66	0	0	2212	692	2876	59
67	0	0	2195	687	2880	58
68	0	0	2138	687	2883	59
69	0	0	2092	691	2889	60
70	0	0	2090	692	2890	58
71	0	0	2108	692	2892	57
72	0	0	2082	689	2891	57
73	0	0	2016	689	2885	57
74	0	0	1949	691	2877	61
75	0	0	1911	692	2874	60
76	0	0	1909	693	2876	62
77	0	0	1931	694	2879	57
78	0	0	1958	694	2883	55
79	0	0	1995	694	2887	58
80	0	0	2034	694	2891	58
81	0	0	2040	692	2892	59
82	0	0	1996	690	2890	58
83	0	0	1967	691	2885	55
84	0	0	2004	692	2877	59
85	0	0	2090	691	2874	59
86	0	0	2138	691	2876	59
87	0	0	2171	691	2879	60
88	0	0	2193	690	2883	55
89	0	0	2158	690	2887	60
90	0	0	2112	688	2891	60
91	0	0	2065	688	2892	58
92	0	0	1994	687	2890	56
93	0	0	1928	689	2886	57
94	0	0	1865	689	2877	61
95	0	0	1810	691	2874	60
96	0	0	1800	692	2876	61
97	0	0	1832	692	2880	56
98	0	0	1864	694	2884	55
99	0	0	1882	695	2889	58
100	0	0	1914	694	2890	57
101	0	0	1926	693	2892	59
102	0	0	1944	692	2891	62
103	0	0	2008	692	2885	55
104	0	0	2083	695	2877	58
105	0	0	2143	690	2875	62
106	0	0	2186	688	2876	61
107	0	0	2185	687	2880	58
108	0	0	2152	687	2883	53
109	0	0	2121	687	2888	57
110	0	0	2066	687	2891	63
111	0	0	1992	688	2892	61
112	0	0	1913	688	2891	61
113	0	0	1855	690	2885	59
114	0	0	1836	692	2878	58
115	0	0	1828	692	2875	57
116	0	0	1832	695	2877	56
117	0	0	1868	693	2879	60
118	0	0	1896	695	2885	58
119	0	0	1907	693	2888	58
120	0	0	1966	693	2891	60
121	0	0	2058	693	2891	57
122	0	0	2105	692	2891	59
123	0	0	2127	692	2885	55
124	0	0	2128	690	2878	57
125	0	0	2146	690	2875	59
126	0	0	2152	690	2876	59
127	0	0	2135	688	2880	59
0	0	0	2095	687	2883	56
1	0	0	2031	687	2888	60
2	0	0	1987	688	2891	60
3	0	0	1945	689	2893	58
4	0	0	1884	688	2891	58
5	0	0	1829	689	2887	55
6	0	0	1782	690	2877	61
7	0	0	1764	692	2875	60
8	0	0	1767	695	2877	59
9	0	0	1777	694	2880	58
10	0	0	1805	694	2883	60
11	0	0	1834	694	2888	59
12	0	0	1866	692	2891	59
13	0	0	1915	693	2891	57
14	0	0	1964	692	2890	59
15	0	0	2017	696	2885	53
16	0	0	2083	690	2878	58
17	0	0	2159	690	2875	59
18	0	0	2206	692	2875	57
19	0	0	2220	690	2880	58
20	0	0	2210	687	2883	58
21	0	0	2126	686	2888	60
22	0	0	1998	685	2891	57
23	0	0	1898	691	2891	60
24	0	0	1873	688	2891	60
25	0	0	1863	692	2885	60
26	0	0	1859	694	2878	60
27	0	0	1865	696	2875	57
28	0	0	1878	696	2875	56
29	0	0	1879	692	2879	57
30	0	0	1853	692	2883	56
31	0	0	1829	691	2888	62
32	0	0	1831	692	2891	59
33	0	0	1859	696	2891	58
34	0	0	1901	693	2890	59
35	0	0	1965	692	2886	56
36	0	0	2065	691	2877	59
37	0	0	2139	692	2875	59
38	0	0	2173	692	2875	58
39	0	0	2179	687	2879	59
40	0	0	2165	687	2883	59
41	0	0	2123	687	2889	60
42	0	0	2076	688	2892	61
43	0	0	2022	689	2891	60
44	0	0	1982	689	2891	56
45	0	0	1985	693	2885	56
46	0	0	2004	693	2878	57
47	0	0	1984	691	2874	64
48	0	0	1941	691	2876	60
49	0	0	1906	691	2880	58
50	0	0	1865	690	2883	58
51	0	0	1855	695	2889	58
52	0	0	1879	695	2891	57
53	0	0	1902	694	2891	60
54	0	0	1945	695	2891	59
55	0	0	2021	692	2885	58
56	0	0	2100	691	2877	59
57	0	0	2144	690	2875	59
58	0	0	2143	691	2875	60
59	0	0	2133	690	2879	60
60	0	0	2118	687	2883	58
61	0	0	2081	687	2888	58
62	0	0	2049	690	2891	57
63	0	0	2019	687	2891	56
64	0	0	1986	691	2890	60
65	0	0	1969	690	2885	61
66	0	0	1952	691	2877	62
67	0	0	1928	690	2875	61
68	0	0	1881	691	2875	56
69	0	0	1836	693	2880	55
70	0	0	1848	694	2884	58
71	0	0	1897	691	2888	59
72	0	0	1953	694	2891	58
73	0	0	1997	693	2892	58
74	0	0	2009	695	2891	58
75	0	0	2053	692	2886	56
76	0	0	2141	692	2877	59
77	0	0	2238	689	2875	58
78	0	0	2286	690	2876	59
79	0	0	2283	690	2879	61
80	0	0	2212	686	2883	59
81	0	0	2111	685	2887	57
82	0	0	2032	690	2891	57
83	0	0	1982	688	2891	58
84	0	0	1941	691	2891	60
85	0	0	1914	689	2886	61
86	0	0	1877	687	2877	61
87	0	0	1835	692	2875	60
88	0	0	1800	690	2876	58
89	0	0	1794	696	2880	55
90	0	0	1847	695	2884	59
91	0	0	1918	693	2889	58
92	0	0	1971	694	2890	56
93	0	0	2000	694	2892	59
94	0	0	2032	692	2891	58
95	0	0	2065	692	2885	55
96	0	0	2117	691	2878	59
97	0	0	2179	691	2874	59
98	0	0	2207	690	2875	59
99	0	0	2180	689	2879	59
100	0	0	2150	688	2883	56
101	0	0	2129	687	2887	60
102	0	0	2084	688	2891	62
103	0	0	2035	688	2892	62
104	0	0	1990	691	2891	59
105	0	0	1962	690	2886	58
106	0	0	1943	691	2878	58
107	0	0	1935	692	2875	58
108	0	0	1933	694	2876	59
109	0	0	1920	693	2880	55
110	0	0	1918	694	2884	58
111	0	0	1916	694	2888	59
112	0	0	1928	694	2891	58
113	0	0	1934	693	2892	62
114	0	0	1973	693	2890	58
115	0	0	2040	693	2885	58
116	0	0	2120	687	2877	59
117	0	0	2191	693	2874	59
118	0	0	2230	690	2876	62
119	0	0	2250	688	2879	59
120	0	0	2242	687	2883	58
121	0	0	2198	687	2888	61
122	0	0	2148	691	2891	57
123	0	0	2114	687	2893	58
124	0	0	2028	688	2891	57
125	0	0	1955	688	2885	63
126	0	0	1892	688	2878	60
127	0	0	1847	693	2875	60
0	0	0	1850	694	2876	63
1	0	0	1875	693	2880	55
2	0	0	1930	695	2883	59
3	0	0	1965	691	2887	59
4	0	0	1923	691	2891	59
5	0	0	1933	693	2893	63
6	0	0	2015	692	2891	59
7	0	0	2093	692	2885	58
8	0	0	2141	691	2877	59
9	0	0	2160	691	2874	59
10	0	0	2185	691	2876	59
11	0	0	2208	691	2880	58
12	0	0	2205	689	2883	56
13	0	0	2164	685	2889	57
14	0	0	2112	688	2892	57
15	0	0	2082	690	2893	63
16	0	0	2067	689	2891	60
17	0	0	2040	690	2885	58
18	0	0	2019	691	2877	58
19	0	0	1984	691	2874	59
20	0	0	1922	690	2876	58
21	0	0	1886	690	2879	60
22	0	0	1887	694	2883	59
23	0	0	1937	693	2888	56
24	0	0	2009	695	2890	59
25	0	0	2046	694	2892	57
26	0	0	2050	691	2890	59
27	0	0	2071	692	2886	58
28	0	0	2123	687	2877	59
29	0	0	2172	690	2875	59
30	0	0	2196	689	2876	59
31	0	0	2188	693	2880	58
32	0	0	2179	689	2883	60
33	0	0	2159	688	2888	63
34	0	0	2140	690	2891	62
35	0	0	2110	689	2892	55
36	0	0	2063	688	2890	58
37	0	0	2018	689	2885	59
38	0	0	1972	690	2877	62
39	0	0	1937	690	2875	61
40	0	0	1917	693	2876	58
41	0	0	1900	691	2880	58
42	0	0	1910	694	2884	58
43	0	0	1961	694	2888	59
44	0	0	2032	693	2891	59
45	0	0	2106	693	2892	59
46	0	0	2168	692	2889	59
47	0	0	2214	691	2885	58
48	0	0	2225	687	2877	58
49	0	0	2194	688	2875	60
50	0	0	2195	690	2876	61
51	0	0	2201	688	2880	59
52	0	0	2168	687	2884	57
53	0	0	2116	687	2888	58
54	0	0	2064	688	2891	58
55	0	0	2040	689	2892	58
56	0	0	2029	692	2890	60
57	0	0	2031	692	2884	60
58	0	0	2005	688	2878	60
59	0	0	1952	690	2875	57
60	0	0	1924	691	2876	57
61	0	0	1918	695	2880	53
62	0	0	1946	694	2884	58
63	0	0	1964	694	2889	63
64	0	0	1969	692	2891	59
65	0	0	1997	694	2892	58
66	0	0	2026	692	2890	58
67	0	0	2072	691	2885	57
68	0	0	2149	691	2877	59
69	0	0	2221	687	2874	58
70	0	0	2255	690	2876	57
71	0	0	2233	688	2879	59
72	0	0	2201	687	2883	59
73	0	0	2164	688	2888	60
74	0	0	2135	688	2891	59
75	0	0	2096	687	2893	60
76	0	0	2026	687	2890	56
77	0	0	1967	689	2886	57
78	0	0	1944	691	2877	58
79	0	0	1945	694	2875	60
80	0	0	1937	690	2877	60
81	0	0	1914	691	2880	59
82	0	0	1915	694	2883	59
83	0	0	1953	692	2888	59
84	0	0	2037	692	2891	60
85	0	0	2108	692	2892	59
86	0	0	2135	693	2890	58
87	0	0	2166	694	2884	58
88	0	0	2177	690	2878	58
89	0	0	2208	689	2874	59
90	0	0	2226	690	2875	57
91	0	0	2232	690	2880	59
92	0	0	2204	686	2883	58
93	0	0	2141	687	2888	58
94	0	0	2122	690	2891	58
95	0	0	2126	691	2892	55
96	0	0	2091	687	2891	60
97	0	0	2051	689	2884	60
98	0	0	1998	689	2877	61
99	0	0	1940	689	2875	61
100	0	0	1892	691	2875	56
101	0	0	1883	694	2879	56
102	0	0	1933	687	2884	60
103	0	0	1987	694	2887	60
104	0	0	2029	693	2891	59
105	0	0	2065	693	2891	56
106	0	0	2085	693	2890	59
107	0	0	2070	688	2885	58
108	0	0	2061	691	2877	59
109	0	0	2119	690	2875	61
110	0	0	2205	689	2875	59
111	0	0	2247	687	2879	59
112	0	0	2251	690	2883	56
113	0	0	2250	691	2888	59
114	0	0	2217	688	2891	60
115	0	0	2160	688	2892	61
116	0	0	2113	688	2891	60
117	0	0	2061	689	2885	57
118	0	0	2015	689	2878	58
119	0	0	2002	693	2876	58
120	0	0	1997	693	2875	61
121	0	0	1990	694	2880	59
122	0	0	1993	694	2883	59
123	0	0	1993	693	2889	58
124	0	0	2014	693	2890	59
125	0	0	2038	694	2893	59
126	0	0	2096	692	2890	58
127	0	0	2130	692	2886	57
0	0	0	2140	691	2878	59
1	0	0	2168	687	2874	58
2	0	0	2211	691	2876	60
3	0	0	2249	688	2879	60
4	0	0	2250	687	2883	60
5	0	0	2183	688	2888	59
6	0	0	2131	687	2891	58
7	0	0	2119	691	2891	57
8	0	0	2140	691	2890	58
9	0	0	2137	689	2885	60
10	0	0	2082	688	2878	59
11	0	0	2016	687	2874	60
12	0	0	1958	690	2876	60
13	0	0	1929	689	2880	54
14	0	0	1921	694	2884	59
15	0	0	1949	694	2888	57
16	0	0	1978	693	2891	59
17	0	0	2017	692	2892	59
18	0	0	2086	691	2890	58
19	0	0	2139	691	2886	58
20	0	0	2193	688	2877	59
21	0	0	2243	690	2874	59
22	0	0	2236	690	2876	59
23	0	0	2210	688	2879	60
24	0	0	2167	687	2884	56
25	0	0	2110	686	2888	57
26	0	0	2048	686	2891	61
27	0	0	1993	688	2892	61
28	0	0	1950	685	2890	60
29	0	0	1943	692	2885	60
30	0	0	1930	691	2878	57
31	0	0	1890	690	2875	58
32	0	0	1877	693	2877	57
33	0	0	1886	692	2880	59
34	0	0	1917	694	2884	58
35	0	0	1967	694	2888	59
36	0	0	2018	693	2891	59
37	0	0	2069	692	2891	59
38	0	0	2118	691	2891	58
39	0	0	2161	691	2885	58
40	0	0	2226	691	2877	58
41	0	0	2302	689	2874	58
42	0	0	2342	690	2875	58
43	0	0	2340	685	2879	41
44	0	0	2267	686	2883	60
45	0	0	2194	686	2888	56
46	0	0	2149	687	2891	58
47	0	0	2110	689	2891	57
48	0	0	2080	688	2891	60
49	0	0	2037	688	2885	60
50	0	0	1988	690	2877	62
51	0	0	1959	691	2875	60
52	0	0	1924	691	2877	56
53	0	0	1882	688	2880	56
54	0	0	1912	694	2884	58
55	0	0	1955	694	2888	59
56	0	0	1994	691	2891	59
57	0	0	2051	692	2891	59
58	0	0	2091	689	2890	58
59	0	0	2145	691	2885	58
60	0	0	2208	691	2877	59
61	0	0	2220	690	2874	60
62	0	0	2212	689	2876	58
63	0	0	2202	688	2880	58
64	0	0	2227	689	2883	56
65	0	0	2248	690	2888	62
66	0	0	2214	687	2891	59
67	0	0	2133	687	2892	59
68	0	0	2044	688	2891	60
69	0	0	2002	689	2886	56
70	0	0	1948	686	2878	57
71	0	0	1910	690	2875	55
72	0	0	1906	693	2876	59
73	0	0	1902	692	2880	59
74	0	0	1906	694	2884	58
75	0	0	1923	696	2888	59
76	0	0	1975	693	2891	57
77	0	0	2012	693	2892	58
78	0	0	2058	688	2890	59
79	0	0	2131	691	2885	57
80	0	0	2229	693	2877	59
81	0	0	2271	690	2875	64
82	0	0	2263	690	2875	60
83	0	0	2236	687	2880	58
84	0	0	2201	687	2884	60
85	0	0	2174	687	2887	60
86	0	0	2145	688	2891	60
87	0	0	2113	688	2892	57
88	0	0	2072	688	2891	57
89	0	0	2024	689	2885	61
90	0	0	1980	689	2878	61
91	0	0	1920	690	2876	59
92	0	0	1872	693	2875	60
93	0	0	1875	693	2879	57
94	0	0	1887	694	2884	58
95	0	0	1887	694	2888	59
96	0	0	1895	692	2891	56
97	0	0	1940	692	2892	60
98	0	0	2020	692	2890	58
99	0	0	2099	691	2885	58
100	0	0	2140	691	2877	59
101	0	0	2182	690	2874	59
102	0	0	2253	690	2875	60
103	0	0	2291	690	2880	60
104	0	0	2286	689	2883	57
105	0	0	2268	687	2888	57
106	0	0	2202	687	2891	61
107	0	0	2107	687	2892	61
108	0	0	2024	688	2891	60
109	0	0	1951	688	2885	60
110	0	0	1901	689	2878	58
111	0	0	1914	693	2875	57
112	0	0	1958	693	2876	58
113	0	0	1961	692	2880	58
114	0	0	1958	694	2883	58
115	0	0	1942	689	2889	58
116	0	0	1950	692	2891	59
117	0	0	2002	693	2892	59
118	0	0	2060	693	2891	58
119	0	0	2104	692	2886	57
120	0	0	2146	691	2878	58
121	0	0	2221	692	2874	59
122	0	0	2260	690	2876	60
123	0	0	2275	688	2879	60
124	0	0	2261	687	2883	60
125	0	0	2220	686	2889	60
126	0	0	2148	688	2891	59
127	0	0	2060	687	2892	58
0	0	0	2014	688	2890	58
1	0	0	1984	690	2885	57
2	0	0	1950	689	2877	60
3	0	0	1907	690	2875	60
4	0	0	1891	693	2877	59
5	0	0	1901	693	2880	58
6	0	0	1954	694	2884	58
7	0	0	1993	692	2888	59
8	0	0	2007	692	2891	59
9	0	0	2045	693	2892	58
10	0	0	2119	689	2890	58
11	0	0	2186	691	2885	58
12	0	0	2232	691	2877	59
13	0	0	2240	687	2875	60
14	0	0	2208	687	2876	60
15	0	0	2202	690	2880	58
16	0	0	2192	687	2883	55
17	0	0	2162	687	2888	57
18	0	0	2105	686	2891	58
19	0	0	2050	688	2892	60
20	0	0	2016	688	2891	60
21	0	0	2001	690	2885	61
22	0	0	1966	688	2879	61
23	0	0	1936	690	2876	57
24	0	0	1896	689	2877	57
25	0	0	1876	692	2880	56
26	0	0	1901	694	2884	59
27	0	0	1949	693	2888	58
28	0	0	2019	694	2891	58
29	0	0	2078	692	2892	59
30	0	0	2120	692	2890	59
31	0	0	2163	691	2885	56
32	0	0	2198	690	2877	59
33	0	0	2213	689	2874	59
34	0	0	2220	690	2876	59
35	0	0	2197	687	2879	60
36	0	0	2174	687	2883	59
37	0	0	2153	688	2888	60
38	0	0	2145	689	2891	61
39	0	0	2141	691	2892	61
40	0	0	2115	687	2890	61
41	0	0	2052	688	2884	61
42	0	0	1974	689	2877	61
43	0	0	1904	689	2875	61
44	0	0	1880	694	2876	60
45	0	0	1895	693	2879	59
46	0	0	1947	694	2883	60
47	0	0	2026	693	2888	59
48	0	0	2057	692	2891	59
49	0	0	2048	692	2892	59
50	0	0	2060	691	2890	58
51	0	0	2040	690	2884	57
52	0	0	2084	691	2877	58
53	0	0	2152	690	2875	59
54	0	0	2205	689	2876	59
55	0	0	2218	688	2880	58
56	0	0	2166	686	2884	59
57	0	0	2124	689	2888	59
58	0	0	2114	690	2891	62
59	0	0	2106	689	2891	60
60	0	0	2070	688	2890	60
61	0	0	2032	689	2885	61
62	0	0	2010	691	2877	60
63	0	0	1980	691	2875	60
64	0	0	1972	692	2876	59
65	0	0	1992	694	2880	58
66	0	0	2036	694	2883	59
67	0	0	2048	691	2888	59
68	0	0	1995	689	2891	59
69	0	0	1972	692	2892	58
70	0	0	2000	691	2890	59
71	0	0	2026	691	2885	58
72	0	0	2057	690	2877	59
73	0	0	2156	690	2874	59
74	0	0	2292	689	2876	59
75	0	0	2383	690	2879	60
76	0	0	2374	686	2883	59
77	0	0	2300	687	2888	59
78	0	0	2236	687	2891	59
79	0	0	2157	686	2892	59
80	0	0	2074	687	2890	61
81	0	0	2016	688	2885	61
82	0	0	1970	689	2877	61
83	0	0	1905	691	2874	58
84	0	0	1848	689	2877	60
85	0	0	1808	690	2879	61
86	0	0	1798	694	2884	59
87	0	0	1834	693	2888	59
88	0	0	1878	691	2892	58
89	0	0	1927	693	2893	58
90	0	0	2013	691	2890	59
91	0	0	2078	691	2885	57
92	0	0	2119	689	2877	59
93	0	0	2180	690	2875	59
94	0	0	2247	689	2876	59
95	0	0	2294	687	2878	60
96	0	0	2293	686	2884	59
97	0	0	2206	688	2888	61
98	0	0	2098	686	2890	61
99	0	0	2010	687	2892	58
100	0	0	1936	689	2890	61
101	0	0	1885	688	2885	60
102	0	0	1861	692	2877	60
103	0	0	1866	691	2875	60
104	0	0	1881	694	2876	59
105	0	0	1868	691	2880	59
106	0	0	1853	692	2884	59
107	0	0	1869	693	2887	60
108	0	0	1914	692	2891	59
109	0	0	1970	693	2892	59
110	0	0	2023	692	2891	59
111	0	0	2079	691	2884	58
112	0	0	2134	691	2877	59
113	0	0	2175	690	2874	59
114	0	0	2182	689	2876	57
115	0	0	2176	689	2880	59
116	0	0	2140	686	2883	59
117	0	0	2094	687	2887	60
118	0	0	2075	689	2891	61
119	0	0	2087	693	2892	58
120	0	0	2053	688	2891	60
121	0	0	1995	688	2885	61
122	0	0	1932	689	2877	62
123	0	0	1885	690	2875	60
124	0	0	1887	693	2877	60
125	0	0	1881	692	2880	59
126	0	0	1874	694	2884	58
127	0	0	1877	693	2889	58
0	0	0	1898	692	2891	59
1	0	0	1913	692	2892	58
2	0	0	1959	692	2890	59
3	0	0	2026	690	2884	58
4	0	0	2100	690	2877	59
5	0	0	2184	689	2874	59
6	0	0	2215	689	2875	59
7	0	0	2186	687	2879	60
8	0	0	2166	691	2884	59
9	0	0	2205	691	2887	60
10	0	0	2218	688	2891	61
11	0	0	2161	687	2892	60
12	0	0	2082	687	2891	60
13	0	0	1976	687	2885	61
14	0	0	1872	689	2878	61
15	0	0	1826	690	2875	63
16	0	0	1817	691	2876	59
17	0	0	1821	693	2880	60
18	0	0	1847	693	2883	59
19	0	0	1877	693	2888	59
20	0	0	1928	692	2891	59
21	0	0	1962	692	2891	60
22	0	0	1976	692	2890	59
23	0	0	2005	691	2885	57
24	0	0	2078	690	2876	59
25	0	0	2145	689	2875	60
26	0	0	2173	690	2876	59
27	0	0	2166	690	2880	59
28	0	0	2139	686	2883	59
29	0	0	2110	688	2888	59
30	0	0	2098	688	2891	61
31	0	0	2084	689	2891	61
32	0	0	2068	689	2890	61
33	0	0	2030	688	2885	60
34	0	0	1962	689	2877	62
35	0	0	1945	693	2875	60
36	0	0	1930	690	2876	60
37	0	0	1896	691	2880	58
38	0	0	1906	693	2884	58
39	0	0	1921	692	2888	59
40	0	0	1914	691	2891	59
41	0	0	1928	692	2892	58
42	0	0	1965	691	2890	58
43	0	0	2016	691	2885	57
44	0	0	2052	691	2877	58
45	0	0	2083	690	2874	60
46	0	0	2115	690	2876	58
47	0	0	2159	689	2880	59
48	0	0	2180	688	2884	60
49	0	0	2133	687	2888	60
50	0	0	2112	688	2891	61
51	0	0	2114	690	2892	60
52	0	0	2067	688	2889	60
53	0	0	1998	688	2885	60
54	0	0	1917	689	2877	60
55	0	0	1900	692	2875	60
56	0	0	1931	693	2876	59
57	0	0	1924	690	2880	58
58	0	0	1885	690	2884	59
59	0	0	1878	693	2889	56
60	0	0	1916	692	2891	59
61	0	0	1975	692	2891	60
62	0	0	2025	691	2889	58
63	0	0	2075	691	2885	55
64	0	0	2158	688	2877	59
65	0	0	2234	689	2874	59
66	0	0	2276	690	2876	59
67	0	0	2317	689	2878	60
68	0	0	2355	689	2883	59
69	0	0	2393	691	2888	59
70	0	0	2424	691	2890	60
71	0	0	2416	689	2891	62
72	0	0	2405	691	2890	61
73	0	0	2405	692	2885	60
74	0	0	2390	693	2877	61
75	0	0	2385	694	2875	61
76	0	0	2419	695	2876	58
77	0	0	2459	692	2878	61
78	0	0	2519	694	2884	57
79	0	0	2560	694	2889	58
80	0	0	2586	692	2891	59
81	0	0	2587	692	2892	58
82	0	0	2595	691	2890	58
83	0	0	2628	691	2884	57
84	0	0	2624	690	2876	59
85	0	0	2609	691	2874	59
86	0	0	2651	690	2875	59
87	0	0	2683	692	2878	60
88	0	0	2674	686	2884	58
89	0	0	2580	687	2888	61
90	0	0	2458	687	2890	60
91	0	0	2384	690	2892	59
92	0	0	2358	689	2889	61
93	0	0	2308	688	2884	61
94	0	0	2244	687	2878	60
95	0	0	2176	688	2875	59
96	0	0	2081	689	2876	58
97	0	0	1978	689	2879	59
98	0	0	1928	691	2884	59
99	0	0	1941	693	2888	59
100	0	0	1962	692	2890	58
101	0	0	1926	688	2892	59
102	0	0	1876	688	2889	58
103	0	0	1880	691	2884	58
104	0	0	1911	688	2877	59
105	0	0	1971	689	2874	59
106	0	0	2044	691	2876	59
107	0	0	2079	689	2879	59
108	0	0	2100	688	2883	60
109	0	0	2102	688	2889	63
110	0	0	2065	686	2891	60
111	0	0	2030	686	2892	59
112	0	0	1980	687	2889	59
113	0	0	1917	688	2885	61
114	0	0	1885	687	2877	64
115	0	0	1931	693	2875	60
116	0	0	1962	693	2876	59
117	0	0	1917	690	2879	57
118	0	0	1866	690	2883	59
119	0	0	1850	688	2889	59
120	0	0	1838	690	2891	59
121	0	0	1873	692	2891	56
122	0	0	1939	691	2890	58
123	0	0	1991	692	2884	57
124	0	0	2071	690	2877	58
125	0	0	2146	689	2874	58
126	0	0	2200	689	2876	57
127	0	0	2243	689	2879	60
0	0	0	2249	687	2884	59
1	0	0	2186	686	2888	60
2	0	0	2124	687	2891	60
3	0	0	2079	687	2892	60
4	0	0	2011	687	2890	59
5	0	0	1937	688	2885	59
6	0	0	1892	689	2877	62
7	0	0	1832	689	2875	61
8	0	0	1774	689	2877	60
9	0	0	1747	691	2879	60
10	0	0	1770	693	2884	58
11	0	0	1839	692	2888	59
12	0	0	1910	692	2891	59
13	0	0	1944	691	2892	58
14	0	0	1981	692	2891	58
15	0	0	2021	690	2885	59
16	0	0	2059	690	2877	61
17	0	0	2101	690	2874	58
18	0	0	2144	689	2876	57
19	0	0	2217	689	2880	57
20	0	0	2217	685	2884	60
21	0	0	2130	683	2888	60
22	0	0	2044	687	2890	60
23	0	0	1997	687	2891	60
24	0	0	1961	688	2890	60
25	0	0	1938	688	2885	61
26	0	0	1896	692	2876	62
27	0	0	1860	690	2875	59
28	0	0	1832	690	2876	60
29	0	0	1824	692	2879	60
30	0	0	1839	693	2884	58
31	0	0	1859	693	2888	59
32	0	0	1889	692	2891	59
33	0	0	1940	692	2892	63
34	0	0	2008	691	2890	58
35	0	0	2052	688	2884	58
36	0	0	2077	689	2877	59
37	0	0	2093	688	2875	59
38	0	0	2122	689	2876	60
39	0	0	2172	689	2879	60
40	0	0	2194	687	2883	60
41	0	0	2165	688	2888	61
42	0	0	2098	686	2890	62
43	0	0	2049	687	2892	62
44	0	0	1968	686	2890	59
45	0	0	1900	687	2885	61
46	0	0	1861	688	2877	62
47	0	0	1839	691	2875	59
48	0	0	1848	693	2876	60
49	0	0	1860	693	2880	58
50	0	0	1854	692	2884	59
51	0	0	1850	692	2889	58
52	0	0	1882	693	2892	58
53	0	0	1926	692	2892	60
54	0	0	1973	691	2890	58
55	0	0	2037	690	2884	55
56	0	0	2118	689	2876	60
57	0	0	2179	690	2874	60
58	0	0	2201	689	2876	59
59	0	0	2198	688	2879	60
60	0	0	2178	686	2883	59
61	0	0	2133	686	2888	60
62	0	0	2101	687	2891	59
63	0	0	2066	687	2892	59
64	0	0	2009	687	2890	61
65	0	0	1971	689	2886	61
66	0	0	1951	689	2876	64
67	0	0	1925	693	2875	61
68	0	0	1944	693	2876	62
69	0	0	1946	692	2880	58
70	0	0	1927	690	2884	56
71	0	0	1901	689	2887	59
72	0	0	1869	690	2891	59
73	0	0	1900	692	2892	58
74	0	0	1970	691	2889	58
75	0	0	2035	690	2884	57
76	0	0	2089	689	2876	59
77	0	0	2122	691	2874	59
78	0	0	2145	690	2876	61
79	0	0	2176	688	2879	59
80	0	0	2204	689	2883	59
81	0	0	2173	686	2888	61
82	0	0	2137	689	2891	61
83	0	0	2112	689	2893	61
84	0	0	2094	689	2890	60
85	0	0	2069	688	2885	60
86	0	0	2012	688	2877	61
87	0	0	1959	689	2875	60
88	0	0	1921	689	2877	60
89	0	0	1908	691	2880	59
90	0	0	1897	692	2884	59
91	0	0	1907	692	2889	58
92	0	0	1920	693	2891	59
93	0	0	1921	692	2892	62
94	0	0	1945	691	2890	57
95	0	0	1999	690	2884	57
96	0	0	2101	689	2876	59
97	0	0	2225	689	2875	57
98	0	0	2301	689	2876	63
99	0	0	2259	685	2880	59
100	0	0	2189	685	2884	60
101	0	0	2117	685	2888	60
102	0	0	2058	687	2891	60
103	0	0	2040	688	2892	63
104	0	0	2018	689	2891	60
105	0	0	1983	687	2885	60
106	0	0	1895	688	2877	61
107	0	0	1837	690	2875	61
108	0	0	1836	692	2876	61
109	0	0	1861	692	2880	57
110	0	0	1934	693	2884	59
111	0	0	2009	692	2888	58
112	0	0	2043	693	2891	59
113	0	0	2035	691	2892	58
114	0	0	2038	691	2889	58
115	0	0	2078	690	2884	58
116	0	0	2147	688	2877	58
117	0	0	2214	690	2875	56
118	0	0	2244	689	2876	61
119	0	0	2236	689	2880	58
120	0	0	2225	690	2884	60
121	0	0	2228	690	2888	64
122	0	0	2187	687	2891	61
123	0	0	2112	686	2892	63
124	0	0	2062	687	2889	59
125	0	0	2030	688	2886	63
126	0	0	2012	690	2877	62
127	0	0	1984	690	2875	60
0	0	0	1987	693	2876	59
1	0	0	1995	693	2879	59
2	0	0	1980	692	2884	59
3	0	0	1996	693	2888	60
4	0	0	2051	692	2892	58
5	0	0	2093	691	2892	59
6	0	0	2138	691	2890	58
7	0	0	2168	690	2884	60
8	0	0	2189	690	2876	57
9	0	0	2198	690	2875	59
10	0	0	2202	689	2876	59
11	0	0	2232	689	2879	60
12	0	0	2241	689	2884	59
13	0	0	2196	686	2888	60
14	0	0	2137	686	2891	61
15	0	0	2123	690	2892	61
16	0	0	2119	690	2889	61
17	0	0	2060	687	2884	61
18	0	0	1977	688	2877	61
19	0	0	1946	693	2875	60
20	0	0	1979	692	2876	59
21	0	0	2003	693	2879	64
22	0	0	1990	691	2885	58
23	0	0	1990	693	2888	59
24	0	0	2038	690	2892	58
25	0	0	2068	692	2892	59
26	0	0	2109	690	2890	58
27	0	0	2129	691	2884	59
28	0	0	2149	690	2876	60
29	0	0	2224	689	2874	59
30	0	0	2292	688	2876	59
31	0	0	2286	687	2879	60
32	0	0	2241	685	2883	60
33	0	0	2157	686	2888	60
34	0	0	2115	685	2891	60
35	0	0	2099	690	2892	60
36	0	0	2106	691	2890	60
37	0	0	2089	688	2885	60
38	0	0	2056	690	2876	61
39	0	0	2042	691	2875	60
40	0	0	2029	690	2876	61
41	0	0	2020	693	2879	59
42	0	0	2022	692	2884	59
43	0	0	2042	693	2887	60
44	0	0	2052	692	2890	59
45	0	0	2097	691	2891	60
46	0	0	2143	690	2890	58
47	0	0	2173	690	2883	58
48	0	0	2230	690	2876	59
49	0	0	2250	689	2873	61
50	0	0	2264	690	2875	59
51	0	0	2287	687	2879	59
52	0	0	2306	689	2883	59
53	0	0	2316	689	2887	60
54	0	0	2286	687	2891	60
55	0	0	2235	686	2892	59
56	0	0	2184	690	2891	61
57	0	0	2149	687	2883	61
58	0	0	2101	689	2876	61
59	0	0	2048	688	2874	63
60	0	0	2019	690	2876	57
61	0	0	2004	691	2879	59
62	0	0	2008	693	2883	55
63	0	0	2041	693	2887	59
64	0	0	2099	692	2890	60
65	0	0	2157	692	2891	56
66	0	0	2202	690	2889	58
67	0	0	2212	690	2884	59
68	0	0	2230	690	2876	58
69	0	0	2263	689	2873	57
70	0	0	2284	690	2876	58
71	0	0	2278	686	2879	59
72	0	0	2245	686	2883	59
73	0	0	2231	690	2888	59
74	0	0	2220	690	2891	60
75	0	0	2198	688	2892	62
76	0	0	2158	687	2890	59
77	0	0	2088	688	2884	60
78	0	0	2030	689	2876	61
79	0	0	2004	690	2875	60
80	0	0	1980	690	2876	62
81	0	0	1997	693	2880	59
82	0	0	2065	693	2883	59
83	0	0	2106	692	2887	58
84	0	0	2131	689	2891	58
85	0	0	2173	693	2891	60
86	0	0	2212	691	2889	58
87	0	0	2201	688	2884	58
88	0	0	2171	689	2876	59
89	0	0	2184	687	2874	58
90	0	0	2234	689	2876	59
91	0	0	2264	688	2879	59
92	0	0	2270	689	2884	59
93	0	0	2240	686	2887	64
94	0	0	2184	686	2890	61
95	0	0	2120	687	2892	62
96	0	0	2090	688	2889	60
97	0	0	2072	690	2884	62
98	0	0	2069	691	2876	62
99	0	0	2051	689	2873	59
100	0	0	1988	688	2876	61
101	0	0	1909	689	2879	60
102	0	0	1891	693	2884	59
103	0	0	1942	692	2887	59
104	0	0	2021	691	2890	59
105	0	0	2093	691	2891	59
106	0	0	2157	691	2890	58
107	0	0	2206	690	2884	57
108	0	0	2224	689	2876	62
109	0	0	2240	687	2874	59
110	0	0	2259	691	2876	59
111	0	0	2240	686	2878	62
112	0	0	2206	688	2883	60
113	0	0	2176	686	2887	59
114	0	0	2125	685	2890	59
115	0	0	2063	686	2891	62
116	0	0	1998	688	2889	60
117	0	0	1938	688	2884	61
118	0	0	1901	689	2876	61
119	0	0	1851	689	2873	64
120	0	0	1805	692	2876	60
121	0	0	1825	693	2878	59
122	0	0	1865	692	2883	59
123	0	0	1868	692	2888	57
124	0	0	1882	691	2891	59
125	0	0	1927	693	2891	59
126	0	0	1981	691	2890	58
127	0	0	2026	690	2883	57
0	0	0	2088	689	2876	57
1	0	0	2144	689	2873	94
2	0	0	2187	689	2875	620
3	0	0	2221	688	2878	1490
4	0	0	2208	685	2883	2260
5	0	0	2141	683	2887	2791
6	0	0	2052	684	2890	3140
7	0	0	1989	687	2890	3365
8	0	0	1933	686	2889	3511
9	0	0	1893	687	2884	3613
10	0	0	1852	687	2876	3685
11	0	0	1816	687	2874	3738
12	0	0	1829	691	2876	3780
13	0	0	1855	692	2878	3811
14	0	0	1872	691	2884	3834
15	0	0	1893	692	2887	3851
16	0	0	1881	687	2889	3867
17	0	0	1883	691	2891	3880
18	0	0	1901	690	2889	3893
19	0	0	1925	690	2883	3900
20	0	0	1976	688	2876	3908
21	0	0	2041	689	2873	3918
22	0	0	2087	687	2875	3921
23	0	0	2113	688	2878	3928
24	0	0	2146	688	2883	3933
25	0	0	2135	686	2887	3935
26	0	0	2129	689	2890	3941
27	0	0	2125	689	2891	3942
28	0	0	2077	687	2889	3947
29	0	0	1989	685	2883	3951
30	0	0	1902	687	2876	3955
31	0	0	1848	688	2874	3956
32	0	0	1814	688	2875	3955
33	0	0	1772	689	2878	3958
34	0	0	1761	692	2882	3958
35	0	0	1790	691	2886	3961
36	0	0	1863	691	2890	3960
37	0	0	1919	691	2890	3964
38	0	0	1950	691	2889	3966
39	0	0	2010	689	2883	3965
40	0	0	2081	688	2875	3968
41	0	0	2111	688	2872	3968
42	0	0	2127	688	2874	3968
43	0	0	2113	687	2878	3971
44	0	0	2096	686	2882	3971
45	0	0	2067	684	2887	3971
46	0	0	2012	688	2889	3974
47	0	0	1977	687	2890	3975
48	0	0	1935	687	2888	3978
49	0	0	1919	689	2883	3975
50	0	0	1892	688	2874	3976
51	0	0	1838	687	2873	3976
52	0	0	1799	689	2875	3978
53	0	0	1789	691	2877	3980
54	0	0	1789	692	2883	3980
55	0	0	1833	687	2887	3978
56	0	0	1874	690	2888	3978
57	0	0	1913	691	2890	3980
58	0	0	1955	690	2888	3981
59	0	0	2002	689	2883	3981
60	0	0	2075	688	2874	3981
61	0	0	2129	688	2872	3982
62	0	0	2156	687	2874	3981
63	0	0	2159	688	2877	3980
64	0	0	2131	686	2881	3985
65	0	0	2123	689	2885	3986
66	0	0	2117	688	2888	3982
67	0	0	2090	686	2890	3984
68	0	0	2044	687	2887	3984
69	0	0	1967	687	2881	3984
70	0	0	1871	687	2874	3988
71	0	0	1825	688	2872	3987
72	0	0	1839	692	2874	3988
73	0	0	1903	692	2876	3984
74	0	0	1983	690	2881	3985
75	0	0	1998	690	2886	3986
76	0	0	1972	690	2889	3987
77	0	0	1972	691	2889	3987
78	0	0	2003	690	2887	3987
79	0	0	2042	690	2881	3987
80	0	0	2081	689	2873	3989
81	0	0	2121	688	2871	3987
82	0	0	2166	689	2873	3989
83	0	0	2181	688	2876	3986
84	0	0	2128	683	2880	3987
85	0	0	2049	685	2885	3987
86	0	0	1984	686	2888	3988
87	0	0	1935	686	2888	3989
88	0	0	1891	685	2887	3989
89	0	0	1872	689	2881	3988
90	0	0	1876	691	2873	3992
91	0	0	1850	688	2870	3992
92	0	0	1800	688	2873	3992
93	0	0	1774	692	2876	3988
94	0	0	1822	693	2881	3991
95	0	0	1912	693	2885	3989
96	0	0	1994	692	2888	3989
97	0	0	2033	691	2888	3991
98	0	0	2091	691	2886	3989
99	0	0	2144	689	2881	3991
100	0	0	2171	688	2873	3992
101	0	0	2189	688	2871	3991
102	0	0	2187	688	2872	3991
103	0	0	2156	686	2875	3990
104	0	0	2124	686	2880	3991
105	0	0	2093	686	2884	3993
106	0	0	2052	688	2887	3992
107	0	0	1997	686	2888	3995
108	0	0	1944	687	2886	3995
109	0	0	1907	688	2880	3993
110	0	0	1876	689	2873	3994
111	0	0	1848	689	2871	3992
112	0	0	1828	688	2872	3992
113	0	0	1828	692	2875	3992
114	0	0	1845	693	2880	3992
115	0	0	1857	693	2884	3995
116	0	0	1897	690	2886	3992
117	0	0	1945	691	2888	3993
118	0	0	2003	691	2885	3990
119	0	0	2048	691	2880	3992
120	0	0	2067	690	2872	3993
121	0	0	2118	687	2870	3993
122	0	0	2180	687	2871	3994
123	0	0	2213	688	2874	3990
124	0	0	2234	689	2879	3995
125	0	0	2196	686	2884	3995
126	0	0	2137	686	2887	3996
127	0	0	2097	686	2887	3994
0	0	0	2051	687	2885	3993
1	0	0	1993	688	2880	3994
2	0	0	1955	690	2872	3993
3	0	0	1943	690	2870	3992
4	0	0	1929	690	2871	3997
5	0	0	1914	690	2874	3994
6	0	0	1892	690	2878	3994
7	0	0	1903	693	2883	3993
8	0	0	1954	692	2886	3992
9	0	0	1995	690	2887	3993
10	0	0	2033	691	2884	3995
11	0	0	2080	690	2878	3994
12	0	0	2119	690	2871	3994
13	0	0	2170	689	2869	3995
14	0	0	2187	688	2870	3995
15	0	0	2179	687	2873	3991
16	0	0	2217	688	2878	3996
17	0	0	2215	683	2883	3994
18	0	0	2139	687	2886	3995
19	0	0	2050	686	2887	3994
20	0	0	1974	687	2884	3998
21	0	0	1920	688	2879	3999
22	0	0	1889	692	2871	3995
23	0	0	1883	692	2868	3996
24	0	0	1892	693	2871	3996
25	0	0	1916	693	2873	3995
26	0	0	1944	692	2878	3996
27	0	0	1988	695	2882	3995
28	0	0	2006	695	2885	3995
29	0	0	2037	691	2886	3997
30	0	0	2085	691	2883	3995
31	0	0	2084	691	2878	3995
32	0	0	2090	690	2871	3998
33	0	0	2141	691	2868	3996
34	0	0	2202	689	2870	3997
35	0	0	2201	687	2873	3998
36	0	0	2186	687	2877	3995
37	0	0	2167	688	2881	3998
38	0	0	2107	684	2885	3998
39	0	0	2038	685	2885	3999
40	0	0	1975	687	2883	3995
41	0	0	1924	687	2877	3995
42	0	0	1878	688	2870	3999
43	0	0	1824	689	2868	3997
44	0	0	1811	691	2869	3999
45	0	0	1840	692	2872	3999
46	0	0	1864	692	2877	3996
47	0	0	1886	692	2881	3996
48	0	0	1930	693	2884	3995
49	0	0	1975	691	2885	3995
50	0	0	2041	690	2882	3997
51	0	0	2098	691	2877	3996
52	0	0	2139	689	2869	3997
53	0	0	2174	687	2867	3996
54	0	0	2209	687	2869	3996
55	0	0	2219	689	2872	3997
56	0	0	2202	687	2876	3999
57	0	0	2148	684	2880	3996
58	0	0	2079	686	2883	3997
59	0	0	2033	686	2884	3996
60	0	0	2007	687	2882	3997
61	0	0	1992	688	2877	4000
62	0	0	1985	695	2869	3999
63	0	0	1994	695	2867	3999
64	0	0	1992	692	2869	3999
65	0	0	1990	693	2871	3997
66	0	0	1993	692	2876	3998
67	0	0	2013	693	2880	3998
68	0	0	2025	692	2884	3999
69	0	0	2034	692	2884	3999
70	0	0	2008	688	2882	3999
71	0	0	2012	688	2876	3997
72	0	0	2077	690	2868	3998
73	0	0	2126	687	2866	3998
74	0	0	2109	685	2867	3998
75	0	0	2085	686	2870	3997
76	0	0	2085	689	2875	3999
77	0	0	2072	688	2880	3999
78	0	0	2053	689	2882	3998
79	0	0	2050	691	2883	3997
80	0	0	2049	692	2881	3998
81	0	0	2023	688	2875	4000
82	0	0	1992	690	2868	4001
83	0	0	2003	692	2866	4002
84	0	0	2006	694	2867	3998
85	0	0	2006	691	2871	3999
86	0	0	1963	689	2875	3997
87	0	0	1921	690	2879	3998
88	0	0	1932	692	2882	4000
89	0	0	1987	692	2883	3998
90	0	0	2063	694	2880	3997
91	0	0	2107	689	2874	3998
92	0	0	2112	687	2867	3998
93	0	0	2118	687	2864	3999
94	0	0	2147	689	2866	4000
95	0	0	2154	687	2869	4000
96	0	0	2150	687	2874	3998
97	0	0	2122	686	2878	3998
98	0	0	2088	687	2881	4001
99	0	0	2056	688	2882	4000
100	0	0	2048	691	2880	4000
101	0	0	2071	694	2875	3999
102	0	0	2063	690	2867	4000
103	0	0	2039	689	2864	3998
104	0	0	1994	689	2866	3999
105	0	0	1926	689	2869	4000
106	0	0	1887	692	2874	3998
107	0	0	1902	693	2878	3999
108	0	0	1916	690	2881	4000
109	0	0	1952	693	2881	3999
110	0	0	2005	691	2880	4000
111	0	0	2060	690	2874	4000
112	0	0	2123	690	2866	4000
113	0	0	2176	690	2864	4001
114	0	0	2216	688	2866	3999
115	0	0	2226	688	2869	4000
116	0	0	2206	685	2873	4001
117	0	0	2177	686	2877	4000
118	0	0	2154	689	2880	3999
119	0	0	2136	689	2882	3999
120	0	0	2132	691	2879	4000
121	0	0	2092	688	2874	3999
122	0	0	1980	688	2866	3999
123	0	0	1875	688	2864	4002
124	0	0	1845	691	2865	4001
125	0	0	1828	690	2867	4000
126	0	0	1815	691	2873	3999
127	0	0	1832	691	2877	3998
0	0	0	1888	689	2880	3999
1	0	0	1980	693	2881	4000
2	0	0	2063	691	2879	4000
3	0	0	2114	691	2873	3999
4	0	0	2142	690	2865	3998
5	0	0	2171	690	2863	3999
6	0	0	2198	688	2865	4000
7	0	0	2199	689	2868	3998
8	0	0	2204	692	2872	3998
9	0	0	2181	687	2877	3999
10	0	0	2139	686	2880	4000
11	0	0	2093	688	2881	4002
12	0	0	2077	691	2878	4002
13	0	0	2068	688	2873	4001
14	0	0	2020	688	2865	3997
15	0	0	1958	688	2863	3998
16	0	0	1909	689	2865	3999
17	0	0	1899	693	2868	4000
18	0	0	1902	693	2872	4000
19	0	0	1909	693	2877	4000
20	0	0	1943	692	2880	4001
21	0	0	1995	690	2881	3999
22	0	0	2019	691	2879	4000
23	0	0	2062	690	2872	3999
24	0	0	2140	689	2865	4000
25	0	0	2197	690	2863	4000
26	0	0	2228	688	2864	4000
27	0	0	2252	689	2868	4000
28	0	0	2263	689	2872	4001
29	0	0	2253	687	2876	4001
30	0	0	2199	684	2880	4002
31	0	0	2098	685	2880	4000
32	0	0	2015	688	2878	3999
33	0	0	1988	689	2873	4001
34	0	0	1937	689	2866	4002
35	0	0	1914	693	2863	4002
36	0	0	1939	692	2865	4003
37	0	0	1964	692	2868	4002
38	0	0	1936	689	2872	3999
39	0	0	1920	693	2876	4000
40	0	0	1994	693	2879	4000
41	0	0	2075	690	2880	4000
42	0	0	2102	691	2878	3999
43	0	0	2101	690	2872	4000
44	0	0	2118	687	2864	3999
45	0	0	2160	691	2862	3999
46	0	0	2213	688	2864	4000
47	0	0	2233	687	2867	4000
48	0	0	2211	686	2872	3999
49	0	0	2186	686	2876	3999
50	0	0	2164	689	2879	4000
51	0	0	2148	687	2881	4001
52	0	0	2095	687	2878	4003
53	0	0	2037	688	2873	4003
54	0	0	1971	691	2865	3999
55	0	0	1905	689	2862	3999
56	0	0	1885	690	2865	4000
57	0	0	1879	690	2868	3999
58	0	0	1877	692	2872	3999
59	0	0	1904	694	2877	4000
60	0	0	1949	691	2879	3999
61	0	0	2018	691	2880	4001
62	0	0	2084	691	2878	3999
63	0	0	2135	690	2872	3999
64	0	0	2176	689	2864	3999
65	0	0	2228	692	2862	3999
66	0	0	2251	688	2864	4001
67	0	0	2224	685	2867	3999
68	0	0	2167	685	2872	4000
69	0	0	2121	684	2877	4002
70	0	0	2084	688	2880	4001
71	0	0	2061	692	2880	4003
72	0	0	2044	687	2878	4001
73	0	0	2030	691	2873	4000
74	0	0	2029	690	2865	4000
75	0	0	2039	692	2863	3999
76	0	0	1983	687	2865	4003
77	0	0	1921	689	2868	3999
78	0	0	1877	689	2872	3997
79	0	0	1884	692	2877	4000
80	0	0	1966	692	2879	3999
81	0	0	2060	689	2881	4000
82	0	0	2108	691	2878	4000
83	0	0	2139	690	2872	4000
84	0	0	2184	688	2865	4000
85	0	0	2234	689	2862	4000
86	0	0	2236	689	2865	4001
87	0	0	2216	687	2868	3999
88	0	0	2194	688	2873	4004
89	0	0	2191	688	2877	4002
90	0	0	2143	685	2879	4001
91	0	0	2085	687	2881	4001
92	0	0	2079	690	2878	4003
93	0	0	2037	688	2873	4002
94	0	0	1976	688	2865	4003
95	0	0	1944	690	2864	4003
96	0	0	1935	690	2865	4000
97	0	0	1947	693	2869	4000
98	0	0	1949	692	2872	4000
99	0	0	1961	692	2877	4002
100	0	0	1984	691	2880	4002
101	0	0	2000	691	2881	4001
102	0	0	2052	691	2879	4002
103	0	0	2114	691	2873	4000
104	0	0	2187	688	2865	4001
105	0	0	2245	689	2862	3999
106	0	0	2271	689	2865	4001
107	0	0	2292	689	2868	4000
108	0	0	2303	689	2872	4000
109	0	0	2264	684	2877	4000
110	0	0	2192	686	2879	4003
111	0	0	2139	686	2881	4003
112	0	0	2068	687	2878	4003
113	0	0	1995	687	2873	3999
114	0	0	1950	690	2865	4000
115	0	0	1954	693	2862	4001
116	0	0	1959	692	2865	4001
117	0	0	1977	692	2868	4003
118	0	0	1996	693	2874	4002
119	0	0	1989	692	2876	4001
120	0	0	2026	692	2880	3999
121	0	0	2096	693	2881	4001
122	0	0	2128	690	2878	4001
123	0	0	2148	690	2873	4001
124	0	0	2206	686	2865	4002
125	0	0	2223	689	2863	3999
126	0	0	2194	686	2865	4001
127	0	0	2187	688	2868	4000
0	0	0	2187	689	2873	4002
1	0	0	2200	688	2877	4003
2	0	0	2192	688	2880	4001
3	0	0	2134	686	2881	4001
4	0	0	2045	687	2879	4000
5	0	0	1990	689	2874	4002
6	0	0	1986	691	2866	4004
7	0	0	1971	690	2863	4003
8	0	0	1957	691	2865	4003
9	0	0	1945	690	2869	4002
10	0	0	1916	690	2873	4001
11	0	0	1914	691	2878	4000
12	0	0	1945	693	2880	4001
13	0	0	2006	694	2881	4001
14	0	0	2060	691	2879	4000
15	0	0	2073	690	2873	3999
16	0	0	2109	692	2865	4000
17	0	0	2167	691	2863	4001
18	0	0	2205	690	2865	4001
19	0	0	2216	689	2869	4002
20	0	0	2207	689	2873	4001
21	0	0	2188	687	2878	4003
22	0	0	2163	685	2881	4002
23	0	0	2112	688	2882	4003
24	0	0	2042	687	2879	4003
25	0	0	2012	689	2873	4003
26	0	0	2015	689	2866	4001
27	0	0	2003	691	2864	4000
28	0	0	1987	692	2866	4001
29	0	0	1997	692	2869	4000
30	0	0	2001	691	2873	4001
31	0	0	1971	692	2878	4000
32	0	0	1995	693	2880	4001
33	0	0	2061	691	2882	4001
34	0	0	2130	691	2879	4001
35	0	0	2202	689	2874	4000
36	0	0	2243	689	2866	4002
37	0	0	2232	688	2864	4001
38	0	0	2202	688	2865	4001
39	0	0	2190	687	2869	4002
40	0	0	2192	691	2873	4003
41	0	0	2177	687	2878	4004
42	0	0	2145	688	2881	4004
43	0	0	2106	689	2882	4002
44	0	0	2073	688	2880	4000
45	0	0	2056	687	2875	4002
46	0	0	2029	690	2867	4003
47	0	0	2014	692	2865	4000
48	0	0	2014	695	2866	4002
49	0	0	1996	691	2869	4002
50	0	0	1991	692	2874	4001
51	0	0	2007	693	2878	4002
52	0	0	2043	692	2881	4002
53	0	0	2051	693	2882	4001
54	0	0	2102	691	2880	4000
55	0	0	2149	690	2874	4000
56	0	0	2143	691	2866	4000
57	0	0	2185	689	2864	4000
58	0	0	2226	691	2866	4002
59	0	0	2237	689	2870	4002
60	0	0	2262	689	2874	4001
61	0	0	2268	687	2879	4002
62	0	0	2193	686	2882	4002
63	0	0	2117	686	2883	4003
64	0	0	2061	687	2880	4002
65	0	0	2008	687	2874	4001
66	0	0	1991	695	2866	4001
67	0	0	2017	693	2865	4000
68	0	0	2039	694	2866	4002
69	0	0	2021	691	2870	4001
70	0	0	2030	691	2874	4001
71	0	0	2074	695	2878	4001
72	0	0	2135	692	2881	4001
73	0	0	2164	690	2882	4001
74	0	0	2151	690	2880	4001
75	0	0	2161	689	2875	4002
76	0	0	2226	690	2867	4002
77	0	0	2295	688	2866	4001
78	0	0	2346	690	2867	4003
79	0	0	2357	688	2870	4004
80	0	0	2302	687	2874	4002
81	0	0	2231	687	2879	4003
82	0	0	2154	688	2882	4002
83	0	0	2098	688	2882	4002
84	0	0	2076	689	2880	4002
85	0	0	2054	689	2874	4001
86	0	0	2026	691	2867	4002
87	0	0	2023	694	2865	4002
88	0	0	2016	693	2867	4003
89	0	0	2006	693	2871	4002
90	0	0	2000	693	2875	4001
91	0	0	2002	692	2879	4000
92	0	0	2046	692	2883	4001
93	0	0	2107	693	2883	4002
94	0	0	2163	691	2881	4002
95	0	0	2185	690	2875	4001
96	0	0	2235	687	2867	4001
97	0	0	2267	689	2866	4001
98	0	0	2271	688	2867	4002
99	0	0	2274	688	2871	4001
100	0	0	2270	689	2875	4001
101	0	0	2254	689	2879	4001
102	0	0	2245	690	2883	4000
103	0	0	2202	686	2883	4003
104	0	0	2149	688	2881	4002
105	0	0	2106	688	2875	4002
106	0	0	2009	689	2867	4002
107	0	0	1917	689	2866	4002
108	0	0	1912	693	2868	4003
109	0	0	1954	693	2871	4001
110	0	0	2012	692	2876	4003
111	0	0	2073	695	2880	4002
112	0	0	2089	691	2883	4000
113	0	0	2099	691	2883	4002
114	0	0	2145	691	2881	4000
115	0	0	2209	691	2875	4001
116	0	0	2272	690	2868	4001
117	0	0	2286	689	2866	4003
118	0	0	2275	690	2867	4002
119	0	0	2265	688	2871	4000
120	0	0	2256	689	2876	4001
121	0	0	2238	688	2880	4002
122	0	0	2228	692	2883	4004
123	0	0	2205	688	2884	4003
124	0	0	2169	687	2882	4002
125	0	0	2114	688	2876	4001
126	0	0	2060	689	2869	4001
127	0	0	1998	688	2867	4002
0	0	0	1946	688	2868	4003
1	0	0	1938	693	2872	4002
2	0	0	1966	691	2876	4001
3	0	0	2013	692	2881	4001
4	0	0	2059	691	2883	4002
5	0	0	2079	692	2884	4002
6	0	0	2099	691	2882	4001
7	0	0	2124	690	2876	4001
8	0	0	2166	689	2868	4001
9	0	0	2215	691	2866	4002
10	0	0	2247	690	2868	4002
11	0	0	2255	689	2871	4000
12	0	0	2258	690	2876	4002
13	0	0	2254	690	2881	4001
14	0	0	2269	691	2883	4002
15	0	0	2238	688	2883	4002
16	0	0	2153	690	2882	4002
17	0	0	2124	690	2876	4002
18	0	0	2085	688	2869	4002
19	0	0	2008	690	2867	4004
20	0	0	1942	687	2869	4002
21	0	0	1909	691	2871	4004
22	0	0	1926	693	2876	3999
23	0	0	1974	691	2881	4001
24	0	0	2031	692	2883	4003
25	0	0	2063	692	2884	4003
26	0	0	2094	690	2882	4001
27	0	0	2144	690	2876	4001
28	0	0	2174	689	2869	4001
29	0	0	2176	690	2867	4002
30	0	0	2172	687	2869	4002
31	0	0	2169	692	2871	4001
32	0	0	2158	689	2878	4003
33	0	0	2151	690	2882	4002
34	0	0	2152	687	2885	4001
35	0	0	2157	691	2885	4003
36	0	0	2186	691	2883	4003
37	0	0	2163	687	2877	4001
38	0	0	2068	687	2870	4002
39	0	0	1984	687	2868	4002
40	0	0	1948	690	2869	4002
41	0	0	1960	693	2873	4003
42	0	0	1971	691	2877	4001
43	0	0	1949	688	2881	4002
44	0	0	1946	692	2885	4002
45	0	0	1976	691	2885	4003
46	0	0	2029	691	2882	4001
47	0	0	2110	690	2877	4002
48	0	0	2214	687	2869	4001
49	0	0	2252	689	2867	4003
50	0	0	2258	689	2869	4003
51	0	0	2269	689	2873	4001
52	0	0	2265	687	2877	4002
53	0	0	2204	684	2882	4001
54	0	0	2112	686	2884	4001
55	0	0	2053	687	2885	4002
56	0	0	2036	691	2883	4002
57	0	0	2046	691	2877	4001
58	0	0	2040	689	2870	4003
59	0	0	1985	689	2869	4003
60	0	0	1952	691	2870	4003
61	0	0	1968	693	2874	4003
62	0	0	2010	692	2877	4001
63	0	0	2046	692	2882	4002
64	0	0	2041	690	2885	4003
65	0	0	2028	687	2886	4002
66	0	0	2059	691	2883	4001
67	0	0	2108	688	2878	4001
68	0	0	2141	692	2871	4001
69	0	0	2171	689	2869	4002
70	0	0	2181	687	2870	4002
71	0	0	2187	689	2873	4002
72	0	0	2199	688	2878	4001
73	0	0	2204	690	2882	4001
74	0	0	2195	689	2886	4002
75	0	0	2172	687	2886	4004
76	0	0	2131	688	2883	4002
77	0	0	2139	690	2878	4003
78	0	0	2127	689	2871	3999
79	0	0	2042	688	2869	4001
80	0	0	1938	687	2870	4002
81	0	0	1859	689	2874	4000
82	0	0	1847	692	2878	4001
83	0	0	1899	691	2883	4001
84	0	0	1957	692	2885	4003
85	0	0	1997	689	2887	4001
86	0	0	2057	690	2884	3999
87	0	0	2123	690	2878	4001
88	0	0	2197	691	2870	4001
89	0	0	2263	689	2868	4001
90	0	0	2267	687	2870	4002
91	0	0	2264	689	2874	4003
92	0	0	2245	688	2878	4001
93	0	0	2219	687	2883	4002
94	0	0	2195	687	2886	4003
95	0	0	2163	681	2887	4002
96	0	0	2136	688	2884	4001
97	0	0	2081	688	2879	4001
98	0	0	1984	688	2871	4001
99	0	0	1916	688	2869	4002
100	0	0	1882	689	2871	4003
101	0	0	1885	693	2875	4003
102	0	0	1900	692	2879	4001
103	0	0	1941	693	2883	4001
104	0	0	2008	692	2886	4002
105	0	0	2059	692	2887	4003
106	0	0	2078	690	2884	4001
107	0	0	2096	690	2880	4002
108	0	0	2139	687	2871	4001
109	0	0	2202	688	2869	4001
110	0	0	2265	688	2871	4000
111	0	0	2302	689	2875	4003
112	0	0	2300	687	2879	4002
113	0	0	2299	688	2883	4002
114	0	0	2289	690	2887	4002
115	0	0	2267	687	2887	4002
116	0	0	2247	691	2884	4004
117	0	0	2266	694	2879	4003
118	0	0	2312	693	2872	4002
119	0	0	2365	693	2869	4002
120	0	0	2424	692	2872	4003
121	0	0	2494	692	2875	4001
122	0	0	2528	691	2880	4002
123	0	0	2537	691	2884	4001
124	0	0	2561	693	2886	4001
125	0	0	2623	689	2887	4002
126	0	0	2682	691	2884	4001
127	0	0	2734	690	2879	4000
0	0	0	2804	690	2871	4001
1	0	0	2852	688	2870	4003
2	0	0	2872	688	2871	4003
3	0	0	2847	686	2874	4002
4	0	0	2776	687	2879	4002
5	0	0	2707	687	2884	4004
6	0	0	2635	686	2886	4003
7	0	0	2579	687	2888	4003
8	0	0	2531	688	2885	4001
9	0	0	2481	687	2880	4002
10	0	0	2413	688	2872	4001
11	0	0	2344	689	2869	4001
12	0	0	2290	688	2872	4002
13	0	0	2242	689	2875	4003
14	0	0	2208	689	2879	4002
15	0	0	2185	690	2884	4004
16	0	0	2173	690	2887	4003
17	0	0	2164	688	2887	4002
18	0	0	2169	690	2885	4001
19	0	0	2177	693	2878	4001
20	0	0	2190	689	2872	4002
21	0	0	2229	689	2870	4002
22	0	0	2237	686	2872	4001
23	0	0	2183	686	2874	4001
24	0	0	2106	685	2880	4003
25	0	0	2045	685	2885	4003
26	0	0	1978	685	2886	4003
27	0	0	1959	688	2887	4002
28	0	0	1987	690	2885	4002
29	0	0	2007	691	2879	4001
30	0	0	2018	692	2872	4004
31	0	0	2009	689	2870	4003
32	0	0	1973	689	2872	4003
33	0	0	1961	692	2875	4002
34	0	0	1978	695	2879	4002
35	0	0	1982	692	2884	4003
36	0	0	1982	692	2886	4002
37	0	0	2003	692	2887	4002
38	0	0	2036	691	2885	4002
39	0	0	2054	689	2879	4001
40	0	0	2068	690	2871	4002
41	0	0	2102	688	2869	4002
42	0	0	2153	689	2872	4003
43	0	0	2165	688	2875	4001
44	0	0	2151	686	2879	4002
45	0	0	2143	688	2884	4002
46	0	0	2152	689	2887	4002
47	0	0	2136	686	2887	4003
48	0	0	2084	687	2884	4002
49	0	0	2039	688	2879	4003
50	0	0	2035	690	2872	4004
51	0	0	2029	692	2870	4003
52	0	0	2037	692	2872	4003
53	0	0	2037	689	2875	4000
54	0	0	2011	690	2879	4001
55	0	0	2031	694	2884	4004
56	0	0	2054	691	2887	4002
57	0	0	2011	688	2887	4003
58	0	0	1985	688	2885	4000
59	0	0	1973	689	2879	4002
60	0	0	1997	689	2871	4003
61	0	0	2056	690	2870	4003
62	0	0	2132	688	2871	4003
63	0	0	2196	688	2875	4003
64	0	0	2194	684	2879	4002
65	0	0	2145	685	2884	4004
66	0	0	2090	687	2887	4004
67	0	0	2058	688	2887	4003
68	0	0	2044	689	2885	4003
69	0	0	2014	687	2880	4003
70	0	0	1952	688	2872	4003
71	0	0	1888	689	2870	4002
72	0	0	1888	692	2872	4003
73	0	0	1875	690	2875	4002
74	0	0	1907	692	2879	4001
75	0	0	1982	692	2884	4002
76	0	0	2013	691	2886	4001
77	0	0	2017	690	2887	4003
78	0	0	1996	689	2885	4001
79	0	0	2009	690	2879	4002
80	0	0	2047	689	2872	4002
81	0	0	2079	689	2869	4002
82	0	0	2122	688	2871	4002
83	0	0	2183	688	2875	4002
84	0	0	2213	689	2879	4003
85	0	0	2191	686	2883	4003
86	0	0	2139	686	2886	4001
87	0	0	2100	686	2887	4002
88	0	0	2093	687	2884	4003
89	0	0	2082	690	2879	4002
90	0	0	2051	687	2872	4003
91	0	0	1987	688	2870	4003
92	0	0	1937	689	2872	4003
93	0	0	1931	692	2874	4002
94	0	0	1923	690	2879	4002
95	0	0	1929	692	2883	4002
96	0	0	1970	690	2887	4001
97	0	0	2030	690	2887	4003
98	0	0	2098	691	2884	4002
99	0	0	2168	690	2878	4002
100	0	0	2194	687	2872	4002
101	0	0	2198	688	2869	4001
102	0	0	2176	686	2871	4002
103	0	0	2173	690	2874	4001
104	0	0	2171	689	2879	4002
105	0	0	2167	689	2884	4002
106	0	0	2164	689	2886	4002
107	0	0	2153	689	2887	4004
108	0	0	2132	688	2885	4004
109	0	0	2092	687	2879	4002
110	0	0	2040	687	2872	4002
111	0	0	1984	689	2871	4003
112	0	0	1934	688	2872	4003
113	0	0	1910	690	2876	4003
114	0	0	1918	691	2879	4002
115	0	0	1950	692	2883	4002
116	0	0	1970	691	2887	4003
117	0	0	1988	690	2887	4002
118	0	0	2026	690	2885	4003
119	0	0	2076	689	2879	4001
120	0	0	2121	689	2872	4002
121	0	0	2162	688	2870	4003
122	0	0	2179	688	2871	4003
123	0	0	2222	688	2875	4002
124	0	0	2263	688	2880	4002
125	0	0	2233	685	2884	4002
126	0	0	2166	685	2887	4001
127	0	0	2107	687	2887	4002
0	0	0	2074	688	2885	4002
1	0	0	2068	691	2879	4004
2	0	0	2087	692	2872	4003
3	0	0	2081	690	2869	4001
4	0	0	2058	690	2872	4003
5	0	0	2016	688	2874	4004
6	0	0	1948	688	2880	4002
7	0	0	1915	690	2884	4003
8	0	0	1929	691	2887	4000
9	0	0	1966	691	2887	4003
10	0	0	2022	690	2885	4002
11	0	0	2107	689	2880	4001
12	0	0	2180	687	2872	4001
13	0	0	2226	688	2871	4001
14	0	0	2211	686	2871	4002
15	0	0	2186	686	2875	4003
16	0	0	2183	689	2879	4002
17	0	0	2191	687	2884	4003
18	0	0	2195	689	2887	4002
19	0	0	2163	687	2887	4003
20	0	0	2115	687	2885	4002
21	0	0	2082	687	2879	4003
22	0	0	2031	688	2872	4004
23	0	0	1986	688	2870	4003
24	0	0	1936	689	2872	4004
25	0	0	1893	689	2875	4003
26	0	0	1895	693	2880	4003
27	0	0	1927	691	2885	4003
28	0	0	1965	690	2887	4000
29	0	0	2018	691	2888	4004
30	0	0	2075	690	2884	4005
31	0	0	2131	690	2878	4003
32	0	0	2187	691	2871	4003
33	0	0	2251	688	2871	4002
34	0	0	2304	688	2871	4002
35	0	0	2335	688	2875	4002
36	0	0	2326	686	2880	4002
37	0	0	2270	683	2884	4001
38	0	0	2204	686	2887	4001
39	0	0	2121	685	2887	4002
40	0	0	2055	687	2885	4003
41	0	0	2044	690	2879	4003
42	0	0	2028	689	2872	4003
43	0	0	2012	691	2871	4002
44	0	0	2003	692	2872	4003
45	0	0	2002	692	2876	4003
46	0	0	2002	694	2880	4003
47	0	0	2024	691	2885	4002
48	0	0	2077	691	2888	4004
49	0	0	2117	687	2887	4003
50	0	0	2109	688	2885	4001
51	0	0	2112	691	2879	4001
52	0	0	2191	687	2872	4001
53	0	0	2287	688	2870	4005
54	0	0	2355	688	2872	4003
55	0	0	2387	688	2875	4001
56	0	0	2359	686	2880	4003
57	0	0	2283	684	2885	4006
58	0	0	2200	686	2887	4004
59	0	0	2165	687	2887	4003
60	0	0	2128	686	2885	4001
61	0	0	2063	686	2880	4002
62	0	0	2024	689	2872	4002
63	0	0	2024	690	2871	4003
64	0	0	1970	688	2873	4003
65	0	0	1923	689	2875	4003
66	0	0	1911	693	2879	4001
67	0	0	1946	692	2884	3996
68	0	0	2004	691	2886	3974
69	0	0	2085	691	2887	3949
70	0	0	2160	689	2885	3928
71	0	0	2201	689	2879	3906
72	0	0	2224	688	2872	3883
73	0	0	2246	688	2870	3863
74	0	0	2271	688	2872	3841
75	0	0	2298	688	2875	3818
76	0	0	2317	688	2880	3798
77	0	0	2316	688	2884	3776
78	0	0	2276	685	2887	3754
79	0	0	2223	686	2888	3733
80	0	0	2177	687	2885	3710
81	0	0	2130	688	2879	3690
82	0	0	2096	686	2873	3667
83	0	0	2057	689	2870	3649
84	0	0	2044	690	2872	3625
85	0	0	2034	690	2875	3603
86	0	0	2016	692	2879	3580
87	0	0	2057	690	2884	3561
88	0	0	2131	691	2886	3541
89	0	0	2182	692	2887	3520
90	0	0	2240	690	2885	3499
91	0	0	2261	689	2880	3477
92	0	0	2266	689	2872	3458
93	0	0	2265	688	2870	3438
94	0	0	2275	688	2872	3421
95	0	0	2278	688	2875	3400
96	0	0	2258	686	2880	3379
97	0	0	2219	685	2884	3360
98	0	0	2183	686	2887	3343
99	0	0	2143	687	2888	3323
100	0	0	2114	687	2885	3304
101	0	0	2100	691	2879	3285
102	0	0	2093	688	2871	3266
103	0	0	2063	689	2869	3248
104	0	0	2036	691	2872	3229
105	0	0	2049	692	2876	3213
106	0	0	2081	694	2880	3194
107	0	0	2115	691	2884	3176
108	0	0	2128	691	2887	3156
109	0	0	2158	691	2888	3139
110	0	0	2194	690	2885	3119
111	0	0	2231	689	2880	3106
112	0	0	2278	689	2872	3089
113	0	0	2300	688	2869	3072
114	0	0	2296	688	2872	3055
115	0	0	2276	686	2875	3038
116	0	0	2259	688	2879	3022
117	0	0	2241	687	2884	3006
118	0	0	2210	686	2886	2990
119	0	0	2148	686	2888	2975
120	0	0	2142	690	2885	2959
121	0	0	2149	691	2879	2942
122	0	0	2117	688	2872	2927
123	0	0	2060	689	2870	2912
124	0	0	2024	690	2872	2896
125	0	0	2021	692	2876	2882
126	0	0	2023	690	2880	2865
127	0	0	2033	691	2884	2851
0	0	0	2038	691	2887	2833
1	0	0	2084	691	2888	2819
2	0	0	2155	692	2885	2804
3	0	0	2237	689	2880	2793
4	0	0	2325	688	2871	2778
5	0	0	2359	688	2869	2764
6	0	0	2354	688	2872	2751
7	0	0	2330	686	2875	2734
8	0	0	2276	684	2880	2724
9	0	0	2222	684	2883	2710
10	0	0	2173	686	2886	2696
11	0	0	2120	686	2887	2682
12	0	0	2062	686	2884	2669
13	0	0	2005	688	2880	2657
14	0	0	1986	690	2872	2643
15	0	0	1987	691	2870	2631
16	0	0	2016	691	2872	2618
17	0	0	2036	692	2875	2604
18	0	0	2058	691	2880	2588
19	0	0	2054	689	2884	2576
20	0	0	2036	691	2887	2567
21	0	0	2060	690	2886	2553
22	0	0	2113	690	2884	2542
23	0	0	2163	690	2878	2529
24	0	0	2200	689	2871	2514
25	0	0	2237	687	2870	2504
26	0	0	2259	688	2870	2491
27	0	0	2252	685	2874	2483
28	0	0	2204	685	2879	2471
29	0	0	2160	686	2883	2459
30	0	0	2130	687	2886	2449
31	0	0	2115	688	2886	2437
32	0	0	2080	686	2885	2426
33	0	0	2028	687	2879	2415
34	0	0	1979	687	2872	2404
35	0	0	1969	692	2870	2393
36	0	0	1976	692	2872	2382
37	0	0	1957	689	2877	2371
38	0	0	1913	689	2880	2360
39	0	0	1911	691	2883	2350
40	0	0	1945	690	2886	2339
41	0	0	1969	691	2887	2326
42	0	0	1949	687	2885	2316
43	0	0	1938	690	2879	2305
44	0	0	1981	688	2870	2298
45	0	0	2071	687	2869	2288
46	0	0	2108	687	2871	2277
47	0	0	2124	687	2875	2268
48	0	0	2139	688	2880	2259
49	0	0	2102	685	2884	2249
50	0	0	2045	686	2887	2240
51	0	0	1988	686	2887	2230
52	0	0	1933	686	2886	2221
53	0	0	1886	687	2879	2211
54	0	0	1853	688	2872	2202
55	0	0	1847	691	2870	2193
56	0	0	1859	694	2871	2184
57	0	0	1852	688	2876	2174
58	0	0	1827	690	2880	2161
59	0	0	1816	690	2885	2152
60	0	0	1829	691	2887	2144
61	0	0	1856	691	2887	2138
62	0	0	1926	690	2886	2129
63	0	0	1990	689	2879	2119
64	0	0	2056	688	2871	2111
65	0	0	2110	688	2871	2099
66	0	0	2146	686	2872	2091
67	0	0	2161	689	2875	2083
68	0	0	2126	683	2880	2077
69	0	0	2077	684	2884	2069
70	0	0	2001	686	2887	2061
71	0	0	1950	686	2886	2053
72	0	0	1938	689	2885	2044
73	0	0	1907	687	2881	2036
74	0	0	1848	688	2873	2028
75	0	0	1832	689	2871	2020
76	0	0	1842	691	2872	2011
77	0	0	1842	690	2876	2004
78	0	0	1821	691	2880	1996
79	0	0	1835	691	2883	1988
80	0	0	1872	691	2887	1980
81	0	0	1913	690	2887	1972
82	0	0	1935	690	2885	1962
83	0	0	1976	687	2880	1954
84	0	0	2026	687	2872	1947
85	0	0	2070	688	2871	1942
86	0	0	2082	688	2873	1934
87	0	0	2098	688	2875	1928
88	0	0	2081	685	2880	1921
89	0	0	2041	685	2884	1913
90	0	0	2010	686	2887	1907
91	0	0	1982	685	2888	1900
92	0	0	1948	687	2885	1892
93	0	0	1928	687	2879	1886
94	0	0	1939	691	2872	1878
95	0	0	1928	688	2871	1871
96	0	0	1882	687	2872	1864
97	0	0	1853	690	2877	1857
98	0	0	1847	692	2881	1849
99	0	0	1852	692	2885	1840
100	0	0	1898	691	2887	1836
101	0	0	1954	690	2888	1830
102	0	0	1977	689	2886	1820
103	0	0	2009	688	2881	1813
104	0	0	2070	688	2871	1807
105	0	0	2127	688	2870	1804
106	0	0	2141	687	2872	1797
107	0	0	2129	686	2876	1791
108	0	0	2084	688	2881	1785
109	0	0	2028	685	2884	1779
110	0	0	1991	685	2887	1772
111	0	0	1954	686	2888	1766
112	0	0	1930	687	2885	1760
113	0	0	1907	688	2879	1755
114	0	0	1860	688	2872	1747
115	0	0	1807	688	2871	1740
116	0	0	1781	689	2873	1736
117	0	0	1785	690	2876	1730
118	0	0	1813	692	2881	1723
119	0	0	1849	691	2885	1714
120	0	0	1888	691	2888	1709
121	0	0	1922	690	2888	1702
122	0	0	1956	690	2886	1699
123	0	0	2001	688	2880	1693
124	0	0	2055	689	2873	1687
125	0	0	2104	688	2871	1682
126	0	0	2122	688	2872	1674
127	0	0	2132	687	2876	1668
0	0	0	2148	690	2880	1666
1	0	0	2126	686	2885	1660
2	0	0	2100	688	2888	1655
3	0	0	2069	685	2888	1650
4	0	0	2005	686	2886	1644
5	0	0	1943	686	2881	1639
6	0	0	1886	689	2873	1634
7	0	0	1847	687	2871	1628
8	0	0	1822	688	2873	1622
9	0	0	1790	689	2876	1617
10	0	0	1798	694	2881	1609
11	0	0	1826	692	2886	1606
12	0	0	1852	691	2888	1599
13	0	0	1906	689	2888	1595
14	0	0	2017	689	2886	1590
15	0	0	2107	694	2879	1583
16	0	0	2150	689	2873	1577
17	0	0	2160	688	2871	1571
18	0	0	2122	683	2872	1571
19	0	0	2075	684	2876	1566
20	0	0	2051	688	2880	1561
21	0	0	2018	685	2886	1556
22	0	0	2002	686	2888	1551
23	0	0	1981	686	2888	1546
24	0	0	1964	688	2887	1542
25	0	0	1965	687	2880	1537
26	0	0	1970	692	2873	1531
27	0	0	1949	687	2872	1526
28	0	0	1912	688	2874	1521
29	0	0	1880	688	2876	1516
30	0	0	1828	688	2881	1511
31	0	0	1791	688	2885	1506
32	0	0	1803	691	2888	1499
33	0	0	1876	690	2888	1494
34	0	0	1957	690	2887	1489
35	0	0	2005	689	2880	1487
36	0	0	2012	689	2873	1483
37	0	0	2022	687	2872	1479
38	0	0	2037	687	2873	1474
39	0	0	2093	687	2877	1468
40	0	0	2140	687	2882	1466
41	0	0	2122	684	2886	1463
42	0	0	2063	686	2888	1458
43	0	0	2022	686	2888	1453
44	0	0	1992	686	2886	1448
45	0	0	1945	690	2879	1445
46	0	0	1916	689	2874	1441
47	0	0	1889	687	2872	1435
48	0	0	1877	691	2873	1431
49	0	0	1917	691	2878	1427
50	0	0	1936	691	2882	1420
51	0	0	1932	692	2886	1415
52	0	0	1943	690	2888	1415
53	0	0	1949	690	2888	1410
54	0	0	1968	689	2886	1406
55	0	0	2025	689	2881	1400
56	0	0	2095	688	2874	1394
57	0	0	2155	686	2872	1391
58	0	0	2165	687	2873	1386
59	0	0	2160	688	2877	1386
60	0	0	2139	687	2881	1382
61	0	0	2091	685	2886	1378
62	0	0	2050	686	2889	1374
63	0	0	2022	687	2888	1370
64	0	0	2008	687	2887	1367
65	0	0	1968	684	2881	1363
66	0	0	1912	686	2874	1359
67	0	0	1868	688	2872	1355
68	0	0	1855	691	2873	1351
69	0	0	1891	691	2877	1348
70	0	0	1947	691	2882	1343
71	0	0	1982	691	2886	1339
72	0	0	1971	689	2888	1335
73	0	0	1979	689	2889	1328
74	0	0	2024	691	2886	1325
75	0	0	2079	691	2880	1320
76	0	0	2119	687	2873	1320
77	0	0	2130	688	2872	1315
78	0	0	2124	687	2873	1313
79	0	0	2116	687	2877	1310
80	0	0	2121	689	2881	1306
81	0	0	2137	689	2886	1303
82	0	0	2128	687	2889	1301
83	0	0	2084	685	2890	1296
84	0	0	2024	686	2887	1293
85	0	0	2001	690	2881	1290
86	0	0	1985	687	2874	1286
87	0	0	1952	688	2872	1283
88	0	0	1934	689	2874	1279
89	0	0	1921	690	2877	1275
90	0	0	1940	691	2881	1272
91	0	0	1943	690	2886	1268
92	0	0	1928	688	2889	1265
93	0	0	1917	689	2889	1257
94	0	0	1939	689	2887	1254
95	0	0	2001	688	2881	1251
96	0	0	2062	688	2874	1251
97	0	0	2095	687	2872	1248
98	0	0	2112	687	2874	1245
99	0	0	2122	687	2877	1242
100	0	0	2113	686	2881	1238
101	0	0	2078	684	2886	1237
102	0	0	2054	686	2889	1233
103	0	0	2048	691	2890	1230
104	0	0	2034	687	2887	1226
105	0	0	1991	686	2881	1223
106	0	0	1941	687	2874	1220
107	0	0	1906	689	2872	1216
108	0	0	1914	692	2874	1214
109	0	0	1937	691	2877	1212
110	0	0	1960	692	2882	1204
111	0	0	1936	688	2886	1201
112	0	0	1933	689	2889	1197
113	0	0	1966	690	2890	1197
114	0	0	2046	690	2886	1194
115	0	0	2112	689	2880	1190
116	0	0	2125	688	2873	1188
117	0	0	2104	685	2871	1181
118	0	0	2101	687	2874	1178
119	0	0	2137	687	2876	1177
120	0	0	2150	688	2882	1177
121	0	0	2148	687	2886	1175
122	0	0	2111	685	2889	1171
123	0	0	2071	688	2889	1169
124	0	0	2024	686	2887	1166
125	0	0	1948	688	2880	1163
126	0	0	1895	685	2874	1160
127	0	0	1884	690	2872	1157
0	0	0	1883	691	2875	1154
1	0	0	1897	692	2878	1151
2	0	0	1900	688	2881	1149
3	0	0	1910	688	2886	1145
4	0	0	1965	691	2889	1142
5	0	0	2032	689	2890	1138
6	0	0	2081	690	2887	1133
7	0	0	2097	685	2881	1129
8	0	0	2127	688	2873	1127
9	0	0	2150	688	2872	1129
10	0	0	2179	687	2874	1125
11	0	0	2202	687	2877	1123
12	0	0	2171	684	2881	1121
13	0	0	2131	684	2886	1119
14	0	0	2087	684	2889	1116
15	0	0	2011	685	2890	1113
16	0	0	1969	686	2887	1109
17	0	0	1943	688	2881	1107
18	0	0	1914	687	2873	1106
19	0	0	1890	687	2872	1101
20	0	0	1878	691	2874	1099
21	0	0	1897	691	2877	1097
22	0	0	1954	691	2882	1094
23	0	0	1995	692	2887	1087
24	0	0	1981	688	2889	1086
25	0	0	1983	690	2889	1082
26	0	0	2012	688	2887	1083
27	0	0	2031	689	2881	1080
28	0	0	2073	685	2874	1078
29	0	0	2135	687	2872	1075
30	0	0	2210	686	2873	1070
31	0	0	2251	688	2878	1067
32	0	0	2217	681	2881	1069
33	0	0	2163	682	2886	1067
34	0	0	2120	685	2889	1066
35	0	0	2076	685	2889	1062
36	0	0	2045	688	2887	1059
37	0	0	2035	687	2881	1057
38	0	0	1983	686	2873	1055
39	0	0	1913	688	2872	1051
40	0	0	1887	690	2873	1049
41	0	0	1890	691	2877	1047
42	0	0	1862	687	2882	1041
43	0	0	1853	690	2886	1042
44	0	0	1876	691	2889	1039
45	0	0	1939	690	2889	1037
46	0	0	2019	688	2887	1035
47	0	0	2076	687	2880	1029
48	0	0	2142	685	2873	1027
49	0	0	2210	687	2872	1023
50	0	0	2271	687	2873	1026
51	0	0	2283	686	2877	1024
52	0	0	2240	684	2881	1021
53	0	0	2168	683	2885	1019
54	0	0	2110	685	2888	1018
55	0	0	2064	685	2888	1015
56	0	0	2004	686	2886	1013
57	0	0	1974	687	2880	1011
58	0	0	1941	686	2873	1008
59	0	0	1902	688	2872	1008
60	0	0	1881	688	2873	1003
61	0	0	1879	691	2878	1001
62	0	0	1878	691	2881	998
63	0	0	1910	687	2887	996
64	0	0	1966	690	2889	991
65	0	0	1979	690	2888	988
66	0	0	2013	689	2886	987
67	0	0	2063	689	2881	985
68	0	0	2101	687	2873	984
69	0	0	2127	688	2872	983
70	0	0	2139	688	2873	982
71	0	0	2144	687	2877	977
72	0	0	2155	686	2881	977
73	0	0	2156	687	2885	975
74	0	0	2146	686	2888	975
75	0	0	2104	686	2889	972
76	0	0	2072	686	2887	970
77	0	0	2036	686	2881	968
78	0	0	1986	687	2873	966
79	0	0	1985	691	2872	962
80	0	0	1968	688	2873	961
81	0	0	1923	688	2877	959
82	0	0	1924	691	2882	956
83	0	0	1943	690	2886	954
84	0	0	1954	690	2888	950
85	0	0	1939	687	2889	948
86	0	0	1932	689	2886	945
87	0	0	1971	687	2880	946
88	0	0	2031	689	2873	944
89	0	0	2108	687	2871	943
90	0	0	2191	687	2874	941
91	0	0	2253	687	2876	936
92	0	0	2284	687	2882	939
93	0	0	2243	683	2886	936
94	0	0	2134	684	2889	934
95	0	0	2063	685	2888	935
96	0	0	2048	688	2886	931
97	0	0	2011	686	2880	928
98	0	0	1976	688	2873	928
99	0	0	1959	690	2872	925
100	0	0	1944	688	2873	922
101	0	0	1897	687	2876	921
102	0	0	1867	689	2882	913
103	0	0	1895	690	2885	912
104	0	0	1953	688	2888	917
105	0	0	1976	689	2887	913
106	0	0	1996	688	2886	910
107	0	0	2052	688	2880	906
108	0	0	2124	688	2873	904
109	0	0	2161	687	2871	902
110	0	0	2154	687	2873	900
111	0	0	2143	687	2876	902
112	0	0	2140	688	2881	901
113	0	0	2152	686	2885	899
114	0	0	2151	687	2888	897
115	0	0	2112	683	2888	897
116	0	0	2051	685	2886	894
117	0	0	1998	686	2880	892
118	0	0	1969	688	2873	890
119	0	0	1962	689	2871	890
120	0	0	1938	687	2873	887
121	0	0	1934	691	2877	884
122	0	0	1929	690	2881	882
123	0	0	1896	686	2884	881
124	0	0	1873	690	2888	878
125	0	0	1900	690	2888	874
126	0	0	1956	689	2886	871
127	0	0	2014	688	2879	871
0	0	0	2093	688	2872	871
1	0	0	2167	686	2871	871
2	0	0	2185	686	2873	869
3	0	0	2175	685	2876	868
4	0	0	2155	685	2881	866
5	0	0	2136	684	2884	865
6	0	0	2118	685	2888	863
7	0	0	2107	685	2888	863
8	0	0	2059	685	2886	860
9	0	0	1995	685	2879	859
10	0	0	1930	686	2872	856
11	0	0	1879	687	2871	854
12	0	0	1837	687	2872	854
13	0	0	1820	690	2877	851
14	0	0	1857	691	2880	846
15	0	0	1914	688	2885	845
16	0	0	1964	690	2888	842
17	0	0	2000	688	2888	843
18	0	0	2019	690	2886	842
19	0	0	2032	689	2880	839
20	0	0	2086	688	2872	839
21	0	0	2157	687	2872	834
22	0	0	2223	687	2873	833
23	0	0	2269	687	2876	832
24	0	0	2254	683	2880	831
25	0	0	2183	684	2885	834
26	0	0	2101	684	2888	831
27	0	0	2039	684	2887	831
28	0	0	2014	687	2885	828
29	0	0	2000	687	2880	824
30	0	0	1976	688	2872	826
31	0	0	1952	688	2871	825
32	0	0	1927	689	2872	822
33	0	0	1936	690	2876	821
34	0	0	1988	690	2881	815
35	0	0	2050	690	2885	815
36	0	0	2024	687	2888	813
37	0	0	1995	687	2888	812
38	0	0	1987	690	2885	808
39	0	0	2024	687	2879	807
40	0	0	2128	688	2872	805
41	0	0	2196	686	2871	808
42	0	0	2221	686	2872	805
43	0	0	2199	683	2875	805
44	0	0	2171	684	2880	803
45	0	0	2158	686	2885	804
46	0	0	2129	686	2887	803
47	0	0	2101	689	2887	801
48	0	0	2105	688	2885	798
49	0	0	2054	686	2879	797
50	0	0	1954	686	2872	798
51	0	0	1870	687	2871	795
52	0	0	1863	691	2872	791
53	0	0	1895	691	2876	791
54	0	0	1918	689	2880	787
55	0	0	1947	687	2885	783
