# bioPlux Text File Format
# Version: 1
# StartDateTime: 2011-07-18 14:53:40
# SamplingFrequency: 1000
# SampledChannels: 1 2 3 4 5
# SamplingResolution: 12
# AcquiringDevice: 00:07:80:42:0F:95
# EndOfHeader
0	0	0	1460	5	184	307	3328
1	0	0	1480	5	183	307	3328
2	0	0	1522	5	183	307	3328
3	0	0	1554	5	184	306	3326
4	0	0	1581	5	184	307	3325
5	0	0	1609	4	184	306	3324
6	0	0	1618	5	183	306	3325
7	0	0	1609	4	184	307	3326
8	0	0	1624	5	183	306	3327
9	0	0	1635	5	183	307	3327
10	0	0	1622	4	184	306	3328
11	0	0	1594	4	184	306	3328
12	0	0	1570	4	184	307	3328
13	0	0	1581	5	183	307	3326
14	0	0	1607	5	185	307	3325
15	0	0	1630	5	185	307	3325
16	0	0	1623	4	184	307	3325
17	0	0	1583	4	184	307	3326
18	0	0	1528	4	184	307	3327
19	0	0	1492	4	183	307	3328
20	0	0	1509	5	185	307	3328
21	0	0	1529	5	184	307	3328
22	0	0	1544	5	183	307	3328
23	0	0	1577	5	184	307	3327
24	0	0	1634	5	184	306	3325
25	0	0	1680	5	183	306	3324
26	0	0	1697	5	183	307	3325
27	0	0	1679	3	182	306	3326
28	0	0	1661	4	183	307	3327
29	0	0	1651	5	183	307	3327
30	0	0	1646	4	184	306	3328
31	0	0	1641	5	184	307	3328
32	0	0	1628	4	184	306	3328
33	0	0	1627	4	185	307	3327
34	0	0	1634	5	184	307	3325
35	0	0	1631	5	183	307	3324
36	0	0	1630	5	183	306	3324
37	0	0	1615	3	183	307	3325
38	0	0	1567	4	184	307	3326
39	0	0	1525	5	183	306	3327
40	0	0	1531	5	184	307	3327
41	0	0	1566	5	184	306	3328
42	0	0	1619	4	183	307	3328
43	0	0	1666	5	184	307	3327
44	0	0	1688	5	183	307	3326
45	0	0	1683	5	184	307	3324
46	0	0	1672	5	183	307	3325
47	0	0	1661	4	183	307	3326
48	0	0	1656	5	183	307	3326
49	0	0	1665	5	184	307	3327
50	0	0	1665	4	183	306	3327
51	0	0	1644	4	184	307	3328
52	0	0	1633	3	184	307	3328
53	0	0	1640	5	185	307	3327
54	0	0	1657	5	185	307	3325
55	0	0	1672	5	184	307	3325
56	0	0	1681	5	185	307	3325
57	0	0	1683	5	185	307	3326
58	0	0	1671	4	183	307	3327
59	0	0	1656	5	185	307	3327
60	0	0	1659	5	183	306	3327
61	0	0	1665	4	184	306	3328
62	0	0	1666	5	183	307	3328
63	0	0	1648	4	183	307	3326
64	0	0	1618	4	183	307	3325
65	0	0	1603	5	183	306	3325
66	0	0	1613	5	184	307	3325
67	0	0	1631	5	183	306	3325
68	0	0	1647	5	184	307	3327
69	0	0	1654	5	183	306	3327
70	0	0	1671	5	184	307	3328
71	0	0	1693	5	183	307	3329
72	0	0	1707	5	183	306	3328
73	0	0	1714	5	184	307	3327
74	0	0	1736	5	184	307	3325
75	0	0	1764	5	183	306	3325
76	0	0	1772	5	184	307	3325
77	0	0	1767	5	184	307	3326
78	0	0	1741	4	184	306	3327
79	0	0	1703	4	182	307	3327
80	0	0	1689	5	183	306	3327
81	0	0	1694	4	184	307	3328
82	0	0	1684	3	183	307	3328
83	0	0	1687	4	184	307	3326
84	0	0	1700	5	183	307	3326
85	0	0	1713	5	183	306	3324
86	0	0	1728	6	184	307	3325
87	0	0	1727	4	183	307	3326
88	0	0	1714	4	183	307	3326
89	0	0	1718	5	184	306	3327
90	0	0	1747	5	184	306	3328
91	0	0	1766	5	184	307	3328
92	0	0	1764	4	183	307	3328
93	0	0	1765	5	184	307	3327
94	0	0	1784	5	183	307	3325
95	0	0	1806	5	184	307	3324
96	0	0	1827	5	184	307	3325
97	0	0	1834	4	185	307	3326
98	0	0	1813	4	184	307	3326
99	0	0	1789	5	183	307	3327
100	0	0	1780	5	184	307	3327
101	0	0	1768	4	184	307	3328
102	0	0	1759	4	183	306	3328
103	0	0	1795	4	183	307	3327
104	0	0	1904	5	184	307	3325
105	0	0	2021	5	184	307	3324
106	0	0	2126	5	184	307	3325
107	0	0	2200	5	184	307	3326
108	0	0	2221	5	183	306	3326
109	0	0	2214	5	184	307	3328
110	0	0	2204	5	184	307	3327
111	0	0	2189	4	184	307	3328
112	0	0	2161	5	184	307	3328
113	0	0	2146	5	184	307	3327
114	0	0	2154	5	184	307	3326
115	0	0	2153	5	185	307	3325
116	0	0	2125	5	183	307	3325
117	0	0	2098	4	184	307	3326
118	0	0	2082	5	184	307	3326
119	0	0	2071	5	184	307	3327
120	0	0	2058	5	184	306	3328
121	0	0	2056	5	183	306	3328
122	0	0	2054	4	183	306	3328
123	0	0	2041	5	183	307	3327
124	0	0	2043	5	184	307	3325
125	0	0	2045	5	184	306	3324
126	0	0	2044	5	184	307	3325
127	0	0	2035	5	184	307	3326
0	0	0	2020	4	184	307	3326
1	0	0	2004	4	184	307	3327
2	0	0	2005	5	183	307	3328
3	0	0	2030	5	184	307	3329
4	0	0	2046	5	183	307	3328
5	0	0	2045	5	184	307	3327
6	0	0	2046	6	184	307	3325
7	0	0	2034	4	184	307	3324
8	0	0	2013	4	185	307	3325
9	0	0	1988	4	184	307	3326
10	0	0	1957	4	183	307	3326
11	0	0	1945	5	185	306	3327
12	0	0	1961	6	183	306	3328
13	0	0	1979	5	182	307	3328
14	0	0	1980	5	183	306	3328
15	0	0	1973	5	184	307	3327
16	0	0	1945	5	183	307	3325
17	0	0	1899	5	184	307	3325
18	0	0	1866	4	183	307	3325
19	0	0	1846	4	184	307	3326
20	0	0	1867	5	184	307	3326
21	0	0	1917	5	184	307	3328
22	0	0	1982	5	185	306	3327
23	0	0	2025	5	184	307	3328
24	0	0	2031	5	183	307	3328
25	0	0	2015	5	183	307	3328
26	0	0	2009	5	184	307	3325
27	0	0	2009	5	184	306	3325
28	0	0	1992	5	185	307	3325
29	0	0	1973	4	184	307	3326
30	0	0	1954	4	184	307	3326
31	0	0	1949	5	184	307	3327
32	0	0	1946	5	184	307	3327
33	0	0	1932	4	184	307	3328
34	0	0	1933	5	183	307	3328
35	0	0	1950	5	183	307	3326
36	0	0	1966	5	183	307	3326
37	0	0	1968	5	184	308	3325
38	0	0	1989	5	185	307	3325
39	0	0	1995	5	183	307	3326
40	0	0	1975	5	184	307	3327
41	0	0	1974	5	183	307	3327
42	0	0	1998	5	183	306	3328
43	0	0	2021	5	184	306	3328
44	0	0	2033	5	183	307	3328
45	0	0	2027	5	183	306	3327
46	0	0	2010	4	184	307	3326
47	0	0	1980	4	184	306	3324
48	0	0	1960	4	185	307	3324
49	0	0	1938	4	183	307	3326
50	0	0	1909	4	184	307	3327
51	0	0	1898	5	183	307	3327
52	0	0	1920	5	183	306	3328
53	0	0	1954	5	185	307	3327
54	0	0	2002	6	184	307	3328
55	0	0	2056	6	185	307	3326
56	0	0	2072	5	184	307	3325
57	0	0	2052	4	183	307	3324
58	0	0	2034	5	184	307	3325
59	0	0	2031	5	184	307	3325
60	0	0	2034	5	183	307	3326
61	0	0	2036	5	183	307	3328
62	0	0	2038	5	184	307	3328
63	0	0	2028	5	185	307	3328
64	0	0	2019	5	184	307	3328
65	0	0	2015	5	185	307	3327
66	0	0	2028	5	184	307	3325
67	0	0	2013	5	184	306	3324
68	0	0	1990	4	184	306	3325
69	0	0	1960	4	184	306	3326
70	0	0	1921	4	183	307	3326
71	0	0	1905	5	184	306	3327
72	0	0	1935	5	184	307	3328
73	0	0	1977	5	184	307	3328
74	0	0	1992	5	182	306	3328
75	0	0	1971	4	184	307	3327
76	0	0	1961	4	185	307	3326
77	0	0	1964	5	184	307	3325
78	0	0	1969	5	184	306	3325
79	0	0	1971	5	183	306	3326
80	0	0	1973	5	184	307	3326
81	0	0	1968	5	183	307	3327
82	0	0	1955	5	183	306	3327
83	0	0	1956	5	185	307	3328
84	0	0	1960	5	185	307	3328
85	0	0	1974	5	184	307	3327
86	0	0	1997	5	185	307	3325
87	0	0	2013	5	185	306	3325
88	0	0	1995	4	184	307	3326
89	0	0	1961	4	184	307	3326
90	0	0	1927	4	184	307	3327
91	0	0	1889	4	184	307	3327
92	0	0	1875	6	183	307	3327
93	0	0	1882	5	184	306	3328
94	0	0	1893	5	182	307	3328
95	0	0	1922	5	183	307	3326
96	0	0	1943	5	184	306	3325
97	0	0	1954	5	183	307	3324
98	0	0	1971	5	183	306	3325
99	0	0	1978	5	183	307	3326
100	0	0	1976	5	183	307	3326
101	0	0	1960	5	184	306	3328
102	0	0	1932	5	183	307	3328
103	0	0	1920	5	184	306	3328
104	0	0	1929	5	184	307	3328
105	0	0	1943	5	183	306	3326
106	0	0	1959	5	185	307	3325
107	0	0	1945	5	185	306	3325
108	0	0	1941	5	184	307	3325
109	0	0	1943	5	183	307	3326
110	0	0	1934	5	184	307	3326
111	0	0	1936	5	184	307	3327
112	0	0	1935	5	184	307	3328
113	0	0	1930	5	183	307	3328
114	0	0	1918	4	184	307	3328
115	0	0	1909	4	183	307	3326
116	0	0	1913	6	182	307	3326
117	0	0	1936	5	184	306	3324
118	0	0	1968	5	184	306	3325
119	0	0	1976	5	183	307	3326
120	0	0	1952	4	182	306	3326
121	0	0	1933	5	183	307	3327
122	0	0	1933	5	184	307	3328
123	0	0	1938	5	184	307	3328
124	0	0	1930	5	184	307	3328
125	0	0	1938	5	184	307	3326
126	0	0	1963	5	184	307	3325
127	0	0	1981	5	184	307	3324
0	0	0	1960	4	184	307	3325
1	0	0	1929	4	184	307	3326
2	0	0	1930	5	184	307	3326
3	0	0	1943	5	184	307	3327
4	0	0	1959	5	183	307	3328
5	0	0	1975	5	184	307	3328
6	0	0	1974	5	184	306	3327
7	0	0	1962	6	184	307	3326
8	0	0	1957	5	183	307	3326
9	0	0	1957	5	183	306	3324
10	0	0	1955	5	184	306	3324
11	0	0	1964	5	183	307	3326
12	0	0	1970	5	183	306	3326
13	0	0	1968	5	183	307	3327
14	0	0	1964	6	184	307	3328
15	0	0	1977	5	184	307	3328
16	0	0	1992	5	183	307	3328
17	0	0	2003	5	183	307	3327
18	0	0	2005	6	184	307	3325
19	0	0	1998	4	185	307	3325
20	0	0	1972	4	185	307	3325
21	0	0	1954	4	184	307	3326
22	0	0	1942	4	184	307	3326
23	0	0	1942	5	184	306	3327
24	0	0	1933	4	185	307	3327
25	0	0	1927	5	184	306	3327
26	0	0	1929	5	184	307	3328
27	0	0	1960	5	184	307	3326
28	0	0	2023	5	184	307	3326
29	0	0	2087	5	183	308	3325
30	0	0	2115	5	184	306	3325
31	0	0	2122	5	183	307	3326
32	0	0	2138	5	184	307	3326
33	0	0	2169	5	183	307	3327
34	0	0	2220	5	183	307	3328
35	0	0	2265	5	183	307	3328
36	0	0	2266	5	184	307	3328
37	0	0	2258	5	184	307	3327
38	0	0	2269	5	184	307	3325
39	0	0	2277	4	185	306	3324
40	0	0	2271	5	185	307	3325
41	0	0	2273	5	183	307	3326
42	0	0	2288	5	183	307	3326
43	0	0	2298	5	184	307	3327
44	0	0	2311	5	184	307	3327
45	0	0	2320	5	183	306	3328
46	0	0	2314	5	183	306	3328
47	0	0	2302	5	184	307	3327
48	0	0	2299	5	183	307	3326
49	0	0	2327	5	184	306	3324
50	0	0	2357	5	184	306	3325
51	0	0	2370	5	183	307	3326
52	0	0	2372	5	184	306	3326
53	0	0	2346	4	182	307	3328
54	0	0	2316	4	184	306	3327
55	0	0	2296	4	184	306	3328
56	0	0	2251	4	184	307	3328
57	0	0	2178	4	184	307	3328
58	0	0	2110	5	183	306	3325
59	0	0	2049	4	185	306	3325
60	0	0	1979	4	185	306	3325
61	0	0	1906	4	184	307	3326
62	0	0	1849	4	184	307	3326
63	0	0	1813	4	184	307	3327
64	0	0	1810	4	184	307	3327
65	0	0	1803	5	183	306	3327
66	0	0	1786	5	183	307	3328
67	0	0	1774	4	184	307	3327
68	0	0	1789	4	183	307	3325
69	0	0	1813	5	184	307	3324
70	0	0	1835	5	183	305	3325
71	0	0	1816	4	183	307	3326
72	0	0	1758	4	183	307	3326
73	0	0	1674	4	183	307	3327
74	0	0	1606	4	184	307	3328
75	0	0	1589	4	184	307	3328
76	0	0	1613	5	183	307	3328
77	0	0	1630	5	184	307	3327
78	0	0	1655	4	183	307	3325
79	0	0	1688	5	185	307	3325
80	0	0	1692	4	184	307	3326
81	0	0	1685	4	184	307	3326
82	0	0	1690	5	184	307	3326
83	0	0	1702	5	183	307	3328
84	0	0	1700	5	184	306	3328
85	0	0	1699	5	184	306	3327
86	0	0	1707	5	183	306	3328
87	0	0	1744	5	183	306	3326
88	0	0	1778	5	182	307	3326
89	0	0	1797	5	183	306	3325
90	0	0	1847	5	184	307	3326
91	0	0	1900	5	183	307	3326
92	0	0	1958	5	184	307	3327
93	0	0	1999	5	184	306	3327
94	0	0	2019	5	182	307	3327
95	0	0	2029	5	184	306	3328
96	0	0	2019	4	184	307	3328
97	0	0	1988	4	183	306	3326
98	0	0	1968	4	183	307	3326
99	0	0	1961	4	184	309	3325
100	0	0	1958	5	183	305	3325
101	0	0	1956	5	183	307	3326
102	0	0	1940	5	184	307	3326
103	0	0	1931	4	184	307	3327
104	0	0	1955	5	183	306	3328
105	0	0	1984	5	184	307	3328
106	0	0	1996	5	183	307	3328
107	0	0	2001	5	183	307	3327
108	0	0	2000	5	183	307	3325
109	0	0	2006	5	183	307	3325
110	0	0	2028	5	184	307	3326
111	0	0	2038	5	184	306	3326
112	0	0	2038	5	182	306	3326
113	0	0	2010	4	183	307	3327
114	0	0	1988	4	184	307	3327
115	0	0	1985	5	183	307	3328
116	0	0	1994	5	184	307	3328
117	0	0	2002	5	184	306	3326
118	0	0	2007	5	184	307	3325
119	0	0	1998	4	184	306	3325
120	0	0	1987	5	184	307	3325
121	0	0	1987	5	184	307	3326
122	0	0	1996	5	184	307	3326
123	0	0	1999	4	183	307	3327
124	0	0	1994	5	184	306	3328
125	0	0	1991	5	184	307	3328
126	0	0	1998	5	185	307	3328
127	0	0	2001	5	183	307	3326
0	0	0	2010	5	184	307	3325
1	0	0	2034	5	184	307	3324
2	0	0	2057	5	182	305	3325
3	0	0	2056	5	183	307	3326
4	0	0	2039	4	183	307	3326
5	0	0	2033	4	183	307	3328
6	0	0	2041	5	183	307	3328
7	0	0	2046	5	184	306	3328
8	0	0	2033	4	183	307	3328
9	0	0	2031	5	184	306	3327
10	0	0	2029	5	184	307	3325
11	0	0	2012	4	183	307	3325
12	0	0	1997	5	184	307	3325
13	0	0	2005	5	185	307	3326
14	0	0	2013	5	184	307	3327
15	0	0	2028	4	184	306	3327
16	0	0	2062	5	183	307	3328
17	0	0	2098	5	184	307	3328
18	0	0	2119	5	185	307	3328
19	0	0	2128	5	184	307	3326
20	0	0	2139	5	183	307	3326
21	0	0	2152	5	184	307	3324
22	0	0	2160	5	184	307	3325
23	0	0	2177	5	184	306	3326
24	0	0	2196	5	183	307	3326
25	0	0	2183	5	184	307	3327
26	0	0	2142	4	184	307	3328
27	0	0	2110	4	184	306	3328
28	0	0	2091	5	185	307	3328
29	0	0	2081	5	184	307	3327
30	0	0	2086	6	183	307	3325
31	0	0	2102	5	184	307	3325
32	0	0	2105	5	185	307	3325
33	0	0	2079	4	185	307	3326
34	0	0	2065	4	184	307	3327
35	0	0	2080	4	183	307	3327
36	0	0	2104	5	183	307	3328
37	0	0	2107	5	183	306	3329
38	0	0	2095	5	183	306	3328
39	0	0	2102	5	183	307	3327
40	0	0	2120	6	183	306	3325
41	0	0	2125	5	183	306	3325
42	0	0	2105	5	183	307	3325
43	0	0	2083	5	184	306	3326
44	0	0	2078	5	183	306	3326
45	0	0	2102	5	184	307	3327
46	0	0	2160	5	184	307	3328
47	0	0	2183	5	184	307	3329
48	0	0	2170	5	183	307	3328
49	0	0	2149	5	184	307	3327
50	0	0	2135	4	183	306	3325
51	0	0	2113	4	184	307	3324
52	0	0	2089	4	185	307	3325
53	0	0	2093	5	184	307	3327
54	0	0	2106	5	184	307	3326
55	0	0	2124	5	184	306	3327
56	0	0	2130	6	184	307	3328
57	0	0	2115	5	183	306	3328
58	0	0	2096	4	184	306	3328
59	0	0	2081	4	183	307	3326
60	0	0	2075	6	182	307	3325
61	0	0	2076	5	183	307	3325
62	0	0	2107	5	184	307	3325
63	0	0	2146	5	183	306	3326
64	0	0	2158	5	183	307	3326
65	0	0	2147	5	184	307	3327
66	0	0	2131	5	183	307	3328
67	0	0	2123	5	184	307	3329
68	0	0	2120	5	183	306	3328
69	0	0	2132	5	184	307	3328
70	0	0	2169	5	184	306	3325
71	0	0	2201	5	184	307	3325
72	0	0	2200	4	184	307	3325
73	0	0	2158	4	184	306	3326
74	0	0	2099	4	185	307	3326
75	0	0	2065	4	184	307	3327
76	0	0	2078	5	184	307	3328
77	0	0	2119	5	183	307	3328
78	0	0	2165	5	182	306	3328
79	0	0	2187	5	183	306	3327
80	0	0	2194	5	184	306	3325
81	0	0	2207	5	183	307	3325
82	0	0	2213	5	184	307	3325
83	0	0	2213	5	183	307	3326
84	0	0	2188	4	184	307	3326
85	0	0	2168	4	183	307	3327
86	0	0	2174	5	184	307	3328
87	0	0	2181	5	184	307	3329
88	0	0	2186	5	183	307	3329
89	0	0	2189	5	184	307	3327
90	0	0	2202	5	182	307	3326
91	0	0	2223	5	185	307	3326
92	0	0	2240	5	184	307	3325
93	0	0	2249	5	184	307	3326
94	0	0	2262	5	183	307	3326
95	0	0	2248	4	183	307	3328
96	0	0	2208	4	184	307	3327
97	0	0	2185	4	183	307	3328
98	0	0	2183	5	183	307	3328
99	0	0	2195	5	184	307	3327
100	0	0	2225	5	184	307	3326
101	0	0	2243	5	183	306	3325
102	0	0	2255	5	183	307	3325
103	0	0	2262	5	183	307	3326
104	0	0	2220	4	184	307	3326
105	0	0	2180	4	183	307	3327
106	0	0	2184	5	184	307	3328
107	0	0	2202	5	184	307	3329
108	0	0	2223	5	182	306	3328
109	0	0	2235	5	184	307	3328
110	0	0	2232	5	185	307	3325
111	0	0	2222	5	183	307	3325
112	0	0	2197	4	184	307	3325
113	0	0	2158	4	184	307	3326
114	0	0	2122	4	184	307	3326
115	0	0	2109	5	184	307	3327
116	0	0	2108	5	185	307	3328
117	0	0	2114	5	185	307	3328
118	0	0	2116	5	183	306	3328
119	0	0	2097	5	183	306	3327
120	0	0	2096	5	184	307	3325
121	0	0	2109	5	184	307	3325
122	0	0	2122	5	184	307	3326
123	0	0	2141	5	183	307	3326
124	0	0	2159	5	184	307	3327
125	0	0	2175	5	184	306	3327
126	0	0	2204	5	184	307	3328
127	0	0	2217	5	183	307	3328
0	0	0	2227	5	183	307	3328
1	0	0	2232	5	184	307	3327
2	0	0	2227	4	184	307	3326
3	0	0	2211	4	183	307	3325
4	0	0	2215	5	185	307	3325
5	0	0	2216	5	184	306	3326
6	0	0	2196	5	184	306	3326
7	0	0	2178	5	184	307	3327
8	0	0	2185	4	184	306	3328
9	0	0	2205	5	185	307	3329
10	0	0	2225	5	183	307	3328
11	0	0	2211	4	183	307	3327
12	0	0	2179	4	184	307	3325
13	0	0	2160	5	184	307	3325
14	0	0	2160	5	184	308	3325
15	0	0	2170	5	184	307	3327
16	0	0	2190	5	183	307	3326
17	0	0	2228	5	184	307	3328
18	0	0	2264	5	185	307	3328
19	0	0	2274	5	184	307	3328
20	0	0	2259	4	184	306	3328
21	0	0	2215	4	184	307	3327
22	0	0	2199	5	185	307	3326
23	0	0	2202	5	184	307	3325
24	0	0	2216	5	185	307	3325
25	0	0	2242	5	184	306	3326
26	0	0	2241	5	184	307	3326
27	0	0	2199	4	184	307	3327
28	0	0	2154	4	184	307	3328
29	0	0	2143	5	183	307	3329
30	0	0	2154	5	184	307	3328
31	0	0	2168	5	183	306	3327
32	0	0	2190	5	184	307	3326
33	0	0	2198	5	184	307	3325
34	0	0	2188	5	184	307	3325
35	0	0	2187	5	184	306	3326
36	0	0	2198	5	183	306	3326
37	0	0	2218	5	184	307	3327
38	0	0	2231	5	183	306	3328
39	0	0	2220	5	184	307	3329
40	0	0	2201	4	183	306	3328
41	0	0	2191	5	183	307	3327
42	0	0	2188	5	183	306	3325
43	0	0	2190	5	185	307	3325
44	0	0	2188	5	184	307	3325
45	0	0	2169	4	184	306	3326
46	0	0	2142	4	184	307	3326
47	0	0	2131	5	183	307	3328
48	0	0	2147	5	184	307	3328
49	0	0	2161	5	184	308	3328
50	0	0	2161	5	184	307	3329
51	0	0	2140	4	183	307	3326
52	0	0	2119	4	183	307	3326
53	0	0	2118	5	183	307	3325
54	0	0	2116	5	184	306	3325
55	0	0	2107	5	183	306	3326
56	0	0	2091	5	183	307	3326
57	0	0	2095	5	183	307	3327
58	0	0	2132	5	183	307	3328
59	0	0	2147	5	184	306	3328
60	0	0	2122	4	182	307	3328
61	0	0	2097	4	184	307	3327
62	0	0	2086	5	184	307	3325
63	0	0	2064	4	184	307	3325
64	0	0	2032	5	184	307	3326
65	0	0	2030	5	183	306	3326
66	0	0	2059	5	184	307	3327
67	0	0	2094	5	183	307	3327
68	0	0	2125	4	184	307	3328
69	0	0	2133	5	184	307	3328
70	0	0	2102	4	183	307	3328
71	0	0	2068	4	184	306	3327
72	0	0	2049	4	183	307	3326
73	0	0	2044	5	184	306	3325
74	0	0	2042	5	184	308	3325
75	0	0	2020	4	182	307	3326
76	0	0	1986	5	184	307	3328
77	0	0	1979	6	183	307	3327
78	0	0	2008	5	184	307	3328
79	0	0	2046	5	183	307	3328
80	0	0	2063	5	183	306	3328
81	0	0	2050	5	184	307	3327
82	0	0	2026	4	184	307	3326
83	0	0	1989	4	184	307	3325
84	0	0	1958	4	184	307	3325
85	0	0	1945	5	183	306	3326
86	0	0	1951	5	184	306	3326
87	0	0	1959	5	183	306	3327
88	0	0	1977	5	184	306	3328
89	0	0	1994	5	183	307	3328
90	0	0	2003	5	184	307	3329
91	0	0	2001	5	184	307	3327
92	0	0	2006	5	184	306	3326
93	0	0	2017	5	183	308	3325
94	0	0	2018	5	184	307	3325
95	0	0	2017	5	184	307	3326
96	0	0	2007	5	184	307	3326
97	0	0	1993	5	184	307	3327
98	0	0	1987	5	184	307	3328
99	0	0	1985	5	184	306	3328
100	0	0	1973	4	183	306	3328
101	0	0	1961	5	183	307	3327
102	0	0	1983	5	185	306	3325
103	0	0	2004	5	184	307	3325
104	0	0	1986	5	183	306	3325
105	0	0	1941	4	184	306	3326
106	0	0	1905	4	184	307	3326
107	0	0	1891	5	184	307	3328
108	0	0	1895	5	184	306	3328
109	0	0	1910	5	183	307	3328
110	0	0	1936	5	184	307	3328
111	0	0	1943	4	184	307	3327
112	0	0	1957	5	183	307	3325
113	0	0	1955	4	183	307	3325
114	0	0	1942	5	184	306	3325
115	0	0	1937	5	183	306	3326
116	0	0	1935	5	183	307	3326
117	0	0	1933	5	184	306	3327
118	0	0	1950	5	184	307	3328
119	0	0	1979	5	184	306	3329
120	0	0	1984	5	182	306	3328
121	0	0	1984	5	184	307	3328
122	0	0	1974	5	185	307	3326
123	0	0	1951	4	184	307	3325
124	0	0	1951	5	184	307	3325
125	0	0	1957	5	183	306	3326
126	0	0	1944	4	184	307	3326
127	0	0	1921	5	186	307	3327
0	0	0	1912	5	184	307	3328
1	0	0	1929	5	183	307	3328
2	0	0	1945	5	182	306	3328
3	0	0	1940	4	184	307	3327
4	0	0	1928	5	183	307	3327
5	0	0	1929	5	183	307	3326
6	0	0	1927	5	183	307	3325
7	0	0	1934	5	183	307	3327
8	0	0	1937	5	184	307	3326
9	0	0	1944	5	183	307	3327
10	0	0	1941	3	183	307	3328
11	0	0	1915	4	184	307	3328
12	0	0	1906	5	182	307	3328
13	0	0	1930	5	183	306	3327
14	0	0	1965	5	183	307	3326
15	0	0	1955	4	184	307	3325
16	0	0	1928	4	184	307	3326
17	0	0	1902	4	184	307	3326
18	0	0	1877	4	184	307	3328
19	0	0	1859	5	185	307	3327
20	0	0	1862	4	185	307	3328
21	0	0	1871	5	183	307	3328
22	0	0	1888	5	183	306	3328
23	0	0	1910	5	184	307	3327
24	0	0	1924	5	183	307	3325
25	0	0	1927	5	183	307	3325
26	0	0	1906	4	184	307	3325
27	0	0	1885	5	184	307	3326
28	0	0	1896	5	184	307	3326
29	0	0	1922	5	183	307	3328
30	0	0	1935	5	184	307	3328
31	0	0	1936	5	184	307	3328
32	0	0	1947	5	184	307	3328
33	0	0	1956	5	183	307	3328
34	0	0	1942	4	183	307	3326
35	0	0	1933	3	184	306	3325
36	0	0	1936	5	184	307	3325
37	0	0	1929	4	184	306	3326
38	0	0	1901	4	184	307	3327
39	0	0	1854	4	184	306	3328
40	0	0	1830	4	184	307	3328
41	0	0	1822	5	184	307	3328
42	0	0	1824	5	183	307	3328
43	0	0	1844	5	184	306	3327
44	0	0	1889	5	184	307	3326
45	0	0	1919	4	183	307	3326
46	0	0	1916	5	184	307	3326
47	0	0	1920	5	184	307	3326
48	0	0	1943	5	183	306	3327
49	0	0	1947	5	183	306	3327
50	0	0	1937	4	182	307	3328
51	0	0	1913	4	184	307	3328
52	0	0	1871	4	184	307	3329
53	0	0	1841	4	185	307	3327
54	0	0	1847	5	184	307	3326
55	0	0	1852	4	184	306	3325
56	0	0	1834	4	184	307	3325
57	0	0	1820	5	184	307	3326
58	0	0	1810	5	183	307	3326
59	0	0	1818	5	184	307	3327
60	0	0	1856	5	184	307	3328
61	0	0	1897	5	183	307	3328
62	0	0	1903	5	183	307	3328
63	0	0	1893	5	183	307	3327
64	0	0	1893	5	184	307	3326
65	0	0	1909	4	183	307	3326
66	0	0	1929	5	183	307	3326
67	0	0	1923	5	183	307	3326
68	0	0	1906	4	183	307	3328
69	0	0	1877	5	183	307	3327
70	0	0	1841	3	184	307	3328
71	0	0	1823	4	183	307	3329
72	0	0	1824	5	184	307	3328
73	0	0	1850	5	185	307	3327
74	0	0	1894	5	183	307	3326
75	0	0	1919	5	184	307	3325
76	0	0	1929	5	184	307	3326
77	0	0	1943	5	184	306	3326
78	0	0	1942	5	184	307	3328
79	0	0	1922	6	184	307	3327
80	0	0	1918	4	184	307	3328
81	0	0	1926	5	184	307	3328
82	0	0	1948	5	183	307	3328
83	0	0	1968	5	183	307	3327
84	0	0	1988	5	183	306	3326
85	0	0	2002	5	183	307	3325
86	0	0	2006	5	183	307	3325
87	0	0	2006	5	183	307	3327
88	0	0	2003	5	183	307	3327
89	0	0	2016	5	183	306	3328
90	0	0	2024	5	183	307	3328
91	0	0	2024	5	184	307	3328
92	0	0	2009	4	184	307	3328
93	0	0	2008	5	184	306	3327
94	0	0	2030	5	184	307	3326
95	0	0	2038	4	184	307	3325
96	0	0	1995	4	184	307	3325
97	0	0	1952	4	184	307	3326
98	0	0	1927	4	184	307	3327
99	0	0	1911	6	183	307	3328
100	0	0	1927	5	185	307	3328
101	0	0	1952	5	184	307	3328
102	0	0	1967	5	184	307	3329
103	0	0	1982	5	184	307	3327
104	0	0	2005	5	183	306	3327
105	0	0	2025	6	184	307	3325
106	0	0	2019	5	183	307	3325
107	0	0	2030	5	183	307	3326
108	0	0	2069	5	183	307	3327
109	0	0	2095	5	184	307	3328
110	0	0	2090	4	184	307	3328
111	0	0	2067	5	184	307	3328
112	0	0	2051	4	184	307	3329
113	0	0	2036	4	184	307	3327
114	0	0	2001	5	185	307	3326
115	0	0	1960	5	184	307	3326
116	0	0	1941	5	183	306	3326
117	0	0	1937	5	184	307	3326
118	0	0	1952	5	184	307	3328
119	0	0	1966	4	183	306	3327
120	0	0	1982	4	184	307	3329
121	0	0	2014	5	183	307	3329
122	0	0	2045	5	183	307	3328
123	0	0	2048	5	184	307	3327
124	0	0	2006	4	183	307	3326
125	0	0	1970	4	183	307	3325
126	0	0	1978	5	184	307	3326
127	0	0	2001	4	184	307	3327
0	0	0	2005	5	184	307	3327
1	0	0	2002	4	184	307	3328
2	0	0	1977	4	183	308	3328
3	0	0	1957	5	184	307	3328
4	0	0	1945	4	184	307	3329
5	0	0	1931	5	185	307	3328
6	0	0	1944	5	184	307	3326
7	0	0	1961	5	184	307	3326
8	0	0	1962	5	184	307	3326
9	0	0	1970	5	184	307	3327
10	0	0	1958	4	184	306	3327
11	0	0	1916	4	184	307	3327
12	0	0	1898	4	184	307	3328
13	0	0	1905	5	184	307	3328
14	0	0	1925	5	183	307	3329
15	0	0	1953	5	184	307	3328
16	0	0	1966	5	184	306	3327
17	0	0	1966	5	183	307	3326
18	0	0	1962	5	183	306	3326
19	0	0	1971	5	184	307	3327
20	0	0	2009	5	184	307	3327
21	0	0	2036	5	183	307	3328
22	0	0	2034	5	184	307	3328
23	0	0	2010	4	184	308	3329
24	0	0	1992	4	184	307	3329
25	0	0	1989	5	185	307	3327
26	0	0	1992	5	184	307	3326
27	0	0	1987	4	185	307	3326
28	0	0	1992	5	184	308	3326
29	0	0	2013	5	184	307	3327
30	0	0	2024	5	184	307	3327
31	0	0	2017	5	184	306	3329
32	0	0	2008	5	184	308	3329
33	0	0	2004	5	184	307	3329
34	0	0	2014	5	184	306	3329
35	0	0	2018	5	184	307	3328
36	0	0	2020	5	185	307	3326
37	0	0	2024	5	185	307	3325
38	0	0	2034	5	183	307	3326
39	0	0	2046	5	183	307	3327
40	0	0	2060	5	183	306	3327
41	0	0	2063	5	184	306	3327
42	0	0	2054	4	184	307	3329
43	0	0	2041	5	184	307	3329
44	0	0	2021	4	184	307	3329
45	0	0	1985	4	184	307	3328
46	0	0	1957	4	184	307	3326
47	0	0	1956	5	184	306	3326
48	0	0	1956	5	184	307	3327
49	0	0	1964	5	183	307	3327
50	0	0	1976	5	184	307	3327
51	0	0	1965	4	184	307	3328
52	0	0	1940	4	183	307	3329
53	0	0	1930	5	184	306	3329
54	0	0	1943	5	183	307	3329
55	0	0	1953	5	183	306	3328
56	0	0	1961	5	183	307	3326
57	0	0	1980	5	183	306	3326
58	0	0	2010	5	183	307	3326
59	0	0	2030	5	183	307	3327
60	0	0	2038	5	183	307	3327
61	0	0	2051	5	184	306	3328
62	0	0	2056	5	184	307	3329
63	0	0	2045	5	184	307	3330
64	0	0	2027	5	184	306	3329
65	0	0	1999	3	184	306	3328
66	0	0	1971	4	184	306	3326
67	0	0	1971	4	184	307	3326
68	0	0	1990	5	183	306	3326
69	0	0	2018	5	183	307	3327
70	0	0	2015	4	184	307	3327
71	0	0	1982	4	184	307	3328
72	0	0	1961	4	183	307	3329
73	0	0	1955	5	185	307	3330
74	0	0	1955	5	183	307	3329
75	0	0	1971	5	183	306	3328
76	0	0	2011	5	184	306	3326
77	0	0	2034	5	183	305	3326
78	0	0	2034	5	184	307	3326
79	0	0	2042	5	184	307	3327
80	0	0	2069	6	184	307	3327
81	0	0	2075	5	184	307	3328
82	0	0	2050	4	184	307	3328
83	0	0	2018	4	184	307	3329
84	0	0	2016	5	183	307	3329
85	0	0	2049	5	184	307	3328
86	0	0	2067	5	183	306	3326
87	0	0	2051	5	184	306	3326
88	0	0	2014	4	185	306	3326
89	0	0	1984	4	184	307	3327
90	0	0	1971	4	183	306	3327
91	0	0	1973	5	183	306	3328
92	0	0	1986	6	183	307	3329
93	0	0	2005	5	183	307	3330
94	0	0	2010	5	184	307	3329
95	0	0	1992	4	183	307	3328
96	0	0	1979	5	184	306	3327
97	0	0	1969	5	184	307	3326
98	0	0	1964	4	185	306	3326
99	0	0	1944	4	183	306	3327
100	0	0	1926	5	184	306	3327
101	0	0	1919	5	182	306	3328
102	0	0	1921	6	183	307	3328
103	0	0	1926	5	184	307	3329
104	0	0	1927	5	183	307	3329
105	0	0	1918	4	183	307	3329
106	0	0	1916	5	183	307	3326
107	0	0	1926	6	184	307	3326
108	0	0	1920	5	184	307	3327
109	0	0	1905	4	184	306	3327
110	0	0	1906	5	185	306	3327
111	0	0	1920	5	183	306	3329
112	0	0	1945	5	184	307	3329
113	0	0	1949	5	184	307	3329
114	0	0	1943	5	183	307	3329
115	0	0	1949	5	183	307	3328
116	0	0	1962	5	182	306	3327
117	0	0	1988	6	183	307	3326
118	0	0	1999	4	184	307	3326
119	0	0	1956	4	184	306	3327
120	0	0	1888	4	184	307	3327
121	0	0	1839	5	184	307	3328
122	0	0	1843	5	184	307	3329
123	0	0	1858	5	184	307	3329
124	0	0	1878	5	184	306	3329
125	0	0	1895	5	183	307	3328
126	0	0	1908	5	183	306	3327
127	0	0	1921	5	183	306	3326
0	0	0	1906	4	184	307	3326
1	0	0	1882	4	184	307	3327
2	0	0	1849	4	184	307	3327
3	0	0	1825	5	184	307	3328
4	0	0	1834	4	183	307	3328
5	0	0	1859	5	183	307	3329
6	0	0	1886	5	184	306	3329
7	0	0	1922	5	184	307	3329
8	0	0	1955	5	184	307	3326
9	0	0	1972	6	184	307	3326
10	0	0	1976	5	184	307	3327
11	0	0	1970	5	182	306	3327
12	0	0	1972	5	183	307	3328
13	0	0	1976	5	184	306	3328
14	0	0	1974	6	183	307	3329
15	0	0	1955	4	183	307	3330
16	0	0	1934	4	184	306	3329
17	0	0	1921	4	184	307	3329
18	0	0	1915	5	182	307	3326
19	0	0	1911	5	184	307	3326
20	0	0	1896	4	184	306	3326
21	0	0	1884	4	184	307	3328
22	0	0	1878	5	184	307	3327
23	0	0	1866	4	184	306	3329
24	0	0	1846	4	184	307	3329
25	0	0	1832	5	184	307	3329
26	0	0	1826	4	184	307	3329
27	0	0	1839	5	184	306	3328
28	0	0	1885	5	184	307	3327
29	0	0	1939	4	183	307	3326
30	0	0	1969	5	184	306	3326
31	0	0	1964	5	184	307	3327
32	0	0	1958	5	183	307	3327
33	0	0	1960	5	183	307	3328
34	0	0	1962	6	183	307	3328
35	0	0	1946	4	183	307	3329
36	0	0	1931	4	184	306	3329
37	0	0	1927	5	184	307	3328
38	0	0	1925	5	184	306	3326
39	0	0	1928	5	183	306	3326
40	0	0	1924	5	183	307	3327
41	0	0	1904	4	184	306	3326
42	0	0	1890	5	184	307	3327
43	0	0	1888	5	183	307	3328
44	0	0	1881	4	184	307	3328
45	0	0	1880	5	183	306	3329
46	0	0	1896	5	184	307	3329
47	0	0	1918	5	183	306	3328
48	0	0	1951	5	184	307	3326
49	0	0	1962	6	182	307	3326
50	0	0	1941	4	183	307	3326
51	0	0	1919	4	184	306	3327
52	0	0	1898	4	183	307	3328
53	0	0	1889	6	183	307	3328
54	0	0	1888	5	184	306	3328
55	0	0	1890	5	184	307	3329
56	0	0	1884	5	183	306	3329
57	0	0	1868	4	184	307	3328
58	0	0	1848	4	184	307	3326
59	0	0	1830	5	184	307	3325
60	0	0	1843	5	184	307	3326
61	0	0	1878	5	183	307	3327
62	0	0	1915	5	183	306	3327
63	0	0	1943	5	184	307	3328
64	0	0	1970	5	183	307	3328
65	0	0	1987	5	184	307	3329
66	0	0	1962	4	184	306	3329
67	0	0	1904	4	183	306	3328
68	0	0	1876	5	184	307	3326
69	0	0	1880	5	183	306	3326
70	0	0	1878	5	183	307	3325
71	0	0	1891	5	184	306	3327
72	0	0	1917	5	184	306	3327
73	0	0	1934	5	183	306	3328
74	0	0	1941	5	184	307	3328
75	0	0	1945	5	184	307	3329
76	0	0	1946	5	184	306	3329
77	0	0	1936	4	183	307	3328
78	0	0	1934	5	184	306	3326
79	0	0	1939	5	184	306	3326
80	0	0	1938	5	183	306	3327
81	0	0	1936	5	184	307	3327
82	0	0	1944	5	183	307	3327
83	0	0	1954	5	183	307	3329
84	0	0	1962	5	184	307	3329
85	0	0	1970	5	183	307	3329
86	0	0	1955	4	184	307	3330
87	0	0	1915	4	184	307	3328
88	0	0	1886	5	183	307	3327
89	0	0	1891	5	183	307	3326
90	0	0	1901	5	184	307	3326
91	0	0	1909	5	183	307	3327
92	0	0	1918	5	183	307	3327
93	0	0	1937	5	184	306	3328
94	0	0	1953	5	183	307	3328
95	0	0	1954	4	184	307	3328
96	0	0	1927	4	183	306	3329
97	0	0	1897	5	184	307	3329
98	0	0	1884	5	183	307	3326
99	0	0	1893	5	185	306	3326
100	0	0	1892	5	184	307	3326
101	0	0	1891	5	183	306	3327
102	0	0	1900	5	183	307	3327
103	0	0	1931	5	183	306	3328
104	0	0	1973	5	184	307	3329
105	0	0	1980	5	183	307	3329
106	0	0	1956	4	184	306	3328
107	0	0	1919	4	183	307	3328
108	0	0	1900	4	183	307	3327
109	0	0	1903	5	184	306	3326
110	0	0	1922	5	184	307	3327
111	0	0	1934	5	183	306	3327
112	0	0	1940	6	184	306	3327
113	0	0	1948	5	183	307	3328
114	0	0	1950	6	184	307	3328
115	0	0	1958	5	183	306	3329
116	0	0	1963	5	183	307	3329
117	0	0	1943	5	185	307	3328
118	0	0	1932	5	183	307	3327
119	0	0	1931	5	184	307	3326
120	0	0	1942	5	184	306	3326
121	0	0	1957	5	184	306	3327
122	0	0	1951	4	183	307	3327
123	0	0	1934	4	184	306	3328
124	0	0	1918	4	184	306	3328
125	0	0	1900	4	183	306	3329
126	0	0	1873	4	183	307	3329
127	0	0	1850	4	184	307	3328
0	0	0	1858	5	184	306	3326
1	0	0	1885	6	184	307	3326
2	0	0	1921	5	185	307	3327
3	0	0	1959	5	184	306	3327
4	0	0	1973	5	184	307	3327
5	0	0	1957	4	184	307	3328
6	0	0	1929	4	183	307	3329
7	0	0	1917	4	184	307	3329
8	0	0	1924	5	184	306	3329
9	0	0	1930	5	184	306	3328
10	0	0	1944	5	184	307	3326
11	0	0	1962	6	184	306	3326
12	0	0	1972	5	184	307	3326
13	0	0	1999	5	184	306	3327
14	0	0	2017	5	184	306	3327
15	0	0	1989	5	183	307	3328
16	0	0	1960	4	185	306	3328
17	0	0	1950	5	184	307	3329
18	0	0	1957	5	184	306	3329
19	0	0	1959	5	183	307	3329
20	0	0	1956	5	183	307	3326
21	0	0	1942	4	184	307	3326
22	0	0	1933	4	183	307	3326
23	0	0	1938	5	182	306	3326
24	0	0	1957	5	183	307	3328
25	0	0	1985	5	184	307	3327
26	0	0	2003	5	184	307	3328
27	0	0	2015	5	184	307	3329
28	0	0	2026	5	184	305	3329
29	0	0	2030	5	183	306	3328
30	0	0	2018	5	183	308	3327
31	0	0	2006	5	183	306	3326
32	0	0	2004	4	184	306	3326
33	0	0	2015	5	184	307	3327
34	0	0	2014	4	184	307	3327
35	0	0	1989	5	183	307	3329
36	0	0	1996	5	185	307	3329
37	0	0	2048	5	183	307	3329
38	0	0	2083	5	183	305	3329
39	0	0	2082	4	184	307	3329
40	0	0	2065	5	183	306	3327
41	0	0	2051	5	183	307	3326
42	0	0	2032	4	184	307	3326
43	0	0	2029	5	184	307	3327
44	0	0	2045	5	184	306	3327
45	0	0	2061	5	183	308	3328
46	0	0	2076	5	184	307	3328
47	0	0	2072	5	184	306	3329
48	0	0	2049	4	184	306	3330
49	0	0	2030	4	183	307	3328
50	0	0	2042	5	184	307	3328
51	0	0	2078	5	184	307	3327
52	0	0	2102	5	183	307	3326
53	0	0	2099	5	184	306	3327
54	0	0	2080	4	184	307	3327
55	0	0	2055	4	184	307	3329
56	0	0	2035	5	183	307	3328
57	0	0	2039	5	183	307	3328
58	0	0	2055	5	183	306	3329
59	0	0	2063	5	184	307	3328
60	0	0	2046	5	184	307	3326
61	0	0	2034	5	184	306	3326
62	0	0	2047	5	183	306	3327
63	0	0	2053	5	184	306	3327
64	0	0	2027	4	183	307	3328
65	0	0	2006	4	184	307	3328
66	0	0	2004	5	183	307	3328
67	0	0	2007	6	184	307	3329
68	0	0	2012	5	184	306	3329
69	0	0	2014	5	184	306	3328
70	0	0	2013	6	184	307	3326
71	0	0	2015	5	184	307	3326
72	0	0	2015	5	184	306	3326
73	0	0	2021	5	183	306	3327
74	0	0	2023	5	184	307	3327
75	0	0	2017	5	185	307	3328
76	0	0	2021	5	183	307	3329
77	0	0	2030	5	183	307	3329
78	0	0	2046	5	184	306	3329
79	0	0	2052	5	182	307	3328
80	0	0	2051	5	184	307	3327
81	0	0	2075	5	183	307	3326
82	0	0	2101	5	184	307	3327
83	0	0	2114	5	184	306	3327
84	0	0	2116	5	183	307	3328
85	0	0	2119	5	184	307	3328
86	0	0	2122	5	183	307	3329
87	0	0	2114	5	184	307	3330
88	0	0	2102	5	183	306	3329
89	0	0	2103	4	184	307	3328
90	0	0	2122	5	184	307	3327
91	0	0	2131	6	184	306	3326
92	0	0	2111	5	184	307	3326
93	0	0	2088	4	184	307	3327
94	0	0	2086	5	183	306	3327
95	0	0	2080	5	184	306	3329
96	0	0	2079	5	185	307	3329
97	0	0	2096	5	183	306	3329
98	0	0	2117	5	184	306	3329
99	0	0	2123	5	183	307	3328
100	0	0	2105	4	185	307	3327
101	0	0	2071	4	183	307	3326
102	0	0	2046	4	184	307	3327
103	0	0	2050	5	184	306	3327
104	0	0	2064	5	182	306	3327
105	0	0	2067	5	182	307	3328
106	0	0	2066	6	184	307	3329
107	0	0	2067	5	184	307	3329
108	0	0	2069	5	184	307	3330
109	0	0	2085	5	184	306	3328
110	0	0	2108	5	183	306	3327
111	0	0	2129	5	183	307	3326
112	0	0	2138	5	183	307	3326
113	0	0	2133	5	184	306	3327
114	0	0	2131	5	184	307	3328
115	0	0	2134	5	185	307	3328
116	0	0	2136	5	183	307	3329
117	0	0	2134	5	184	307	3329
118	0	0	2132	5	183	306	3329
119	0	0	2145	4	184	307	3328
120	0	0	2159	5	184	307	3327
121	0	0	2139	5	184	307	3327
122	0	0	2096	5	184	306	3326
123	0	0	2063	4	184	307	3328
124	0	0	2072	5	184	307	3327
125	0	0	2102	5	184	306	3328
126	0	0	2130	5	183	307	3329
127	0	0	2147	5	184	307	3330
0	0	0	2167	5	184	307	3329
1	0	0	2191	5	184	307	3328
2	0	0	2196	5	185	306	3327
3	0	0	2169	4	183	307	3326
4	0	0	2144	5	184	307	3327
5	0	0	2140	5	184	307	3327
6	0	0	2155	5	184	307	3327
7	0	0	2165	5	184	307	3329
8	0	0	2157	5	184	307	3330
9	0	0	2146	5	184	306	3329
10	0	0	2154	5	184	306	3329
11	0	0	2174	5	183	307	3328
12	0	0	2202	4	185	307	3328
13	0	0	2232	5	183	306	3326
14	0	0	2256	5	183	307	3327
15	0	0	2275	5	184	307	3327
16	0	0	2281	5	183	307	3327
17	0	0	2304	5	184	307	3328
18	0	0	2335	7	184	307	3329
19	0	0	2355	6	184	306	3329
20	0	0	2377	5	184	306	3329
21	0	0	2409	5	184	307	3328
22	0	0	2439	5	183	307	3328
23	0	0	2446	5	183	307	3327
24	0	0	2425	4	184	307	3326
25	0	0	2421	5	183	306	3327
26	0	0	2437	5	183	307	3327
27	0	0	2453	5	183	307	3328
28	0	0	2458	5	183	307	3329
29	0	0	2459	5	184	307	3330
30	0	0	2449	5	183	307	3329
31	0	0	2433	4	182	307	3329
32	0	0	2430	5	183	307	3327
33	0	0	2448	5	184	307	3326
34	0	0	2465	5	183	307	3327
35	0	0	2435	5	184	307	3327
36	0	0	2379	3	184	307	3328
37	0	0	2328	4	185	307	3328
38	0	0	2284	4	182	307	3328
39	0	0	2224	5	184	307	3329
40	0	0	2141	4	184	307	3329
41	0	0	2036	4	184	307	3328
42	0	0	1947	4	183	307	3327
43	0	0	1888	4	184	307	3326
44	0	0	1851	5	183	307	3326
45	0	0	1837	5	184	307	3327
46	0	0	1837	4	184	307	3327
47	0	0	1853	5	183	306	3328
48	0	0	1869	5	182	307	3329
49	0	0	1872	5	184	307	3330
50	0	0	1872	5	184	306	3329
51	0	0	1862	4	185	307	3328
52	0	0	1864	5	184	307	3327
53	0	0	1875	5	182	306	3326
54	0	0	1889	5	183	307	3327
55	0	0	1881	4	183	306	3327
56	0	0	1864	5	184	306	3327
57	0	0	1869	5	183	307	3328
58	0	0	1880	5	184	306	3329
59	0	0	1877	4	183	306	3329
60	0	0	1875	5	183	307	3329
61	0	0	1871	5	184	307	3328
62	0	0	1880	5	184	307	3328
63	0	0	1909	5	184	307	3327
64	0	0	1911	6	184	307	3327
65	0	0	1909	5	183	307	3327
66	0	0	1919	5	184	307	3328
67	0	0	1942	5	183	307	3328
68	0	0	1959	5	183	307	3329
69	0	0	1960	5	184	307	3330
70	0	0	1969	5	183	307	3329
71	0	0	2007	5	184	307	3329
72	0	0	2051	5	184	307	3327
73	0	0	2066	5	182	307	3326
74	0	0	2065	5	183	307	3327
75	0	0	2063	5	184	307	3327
76	0	0	2070	5	183	307	3327
77	0	0	2085	5	184	306	3328
78	0	0	2101	5	184	306	3329
79	0	0	2107	6	184	306	3329
80	0	0	2107	5	184	306	3330
81	0	0	2083	4	183	306	3328
82	0	0	2070	5	185	306	3327
83	0	0	2076	5	183	306	3326
84	0	0	2083	5	185	307	3327
85	0	0	2090	5	184	306	3327
86	0	0	2089	5	183	307	3327
87	0	0	2080	5	184	307	3328
88	0	0	2065	5	184	306	3329
89	0	0	2045	5	184	307	3329
90	0	0	2032	5	184	307	3330
91	0	0	2034	5	183	307	3328
92	0	0	2051	5	184	307	3327
93	0	0	2068	5	181	307	3326
94	0	0	2098	5	184	306	3326
95	0	0	2134	5	184	307	3327
96	0	0	2157	5	184	307	3327
97	0	0	2141	4	183	307	3328
98	0	0	2109	4	183	307	3329
99	0	0	2097	5	185	307	3329
100	0	0	2109	5	184	307	3329
101	0	0	2124	5	184	306	3328
102	0	0	2118	5	185	307	3327
103	0	0	2098	4	184	307	3326
104	0	0	2099	5	184	307	3327
105	0	0	2108	5	184	307	3327
106	0	0	2135	4	185	307	3328
107	0	0	2153	5	184	306	3328
108	0	0	2136	4	183	306	3329
109	0	0	2102	4	184	307	3330
110	0	0	2072	4	185	307	3329
111	0	0	2060	5	183	307	3328
112	0	0	2060	5	183	307	3327
113	0	0	2067	6	183	306	3326
114	0	0	2071	5	183	307	3327
115	0	0	2087	5	182	307	3327
116	0	0	2114	6	183	306	3327
117	0	0	2140	5	184	306	3328
118	0	0	2144	5	183	306	3329
119	0	0	2103	4	184	307	3329
120	0	0	2039	5	184	306	3329
121	0	0	1981	4	184	307	3329
122	0	0	1971	5	184	307	3327
123	0	0	2021	5	183	307	3326
124	0	0	2084	5	184	307	3327
125	0	0	2114	5	184	307	3327
126	0	0	2120	5	184	307	3327
127	0	0	2084	4	185	307	3329
0	0	0	2057	4	184	307	3330
1	0	0	2041	4	184	307	3330
2	0	0	2032	5	183	307	3329
3	0	0	2019	5	184	306	3328
4	0	0	2007	4	184	307	3327
5	0	0	2013	5	184	307	3326
6	0	0	2029	5	183	307	3326
7	0	0	2023	5	183	306	3327
8	0	0	2008	4	183	307	3328
9	0	0	2008	5	182	307	3328
10	0	0	2012	5	183	307	3329
11	0	0	2016	5	183	307	3330
12	0	0	2019	5	184	307	3330
13	0	0	2030	4	184	307	3328
14	0	0	2060	5	184	307	3327
15	0	0	2093	5	183	306	3326
16	0	0	2095	4	184	307	3327
17	0	0	2069	4	184	307	3327
18	0	0	2050	4	184	307	3328
19	0	0	2048	5	183	306	3328
20	0	0	2051	5	184	306	3329
21	0	0	2048	5	184	307	3330
22	0	0	2051	5	183	307	3329
23	0	0	2054	5	184	307	3328
24	0	0	2060	5	183	306	3327
25	0	0	2081	5	184	307	3326
26	0	0	2091	5	183	307	3327
27	0	0	2078	4	183	306	3327
28	0	0	2065	4	183	307	3329
29	0	0	2073	5	185	307	3328
30	0	0	2084	5	186	307	3329
31	0	0	2061	4	184	307	3330
32	0	0	2031	5	184	307	3329
33	0	0	2036	5	183	306	3328
34	0	0	2065	4	184	307	3327
35	0	0	2089	6	184	306	3326
36	0	0	2089	4	184	307	3327
37	0	0	2068	5	184	307	3328
38	0	0	2055	5	184	307	3327
39	0	0	2057	5	184	306	3329
40	0	0	2062	5	183	307	3330
41	0	0	2052	4	183	306	3330
42	0	0	2046	5	184	306	3330
43	0	0	2056	5	184	307	3329
44	0	0	2068	4	184	307	3327
45	0	0	2073	5	183	306	3327
46	0	0	2075	5	183	306	3327
47	0	0	2057	4	183	307	3328
48	0	0	2025	5	184	306	3327
49	0	0	2025	5	184	307	3328
50	0	0	2054	5	184	307	3329
51	0	0	2099	4	184	307	3329
52	0	0	2123	5	184	307	3329
53	0	0	2119	5	183	307	3329
54	0	0	2083	4	182	307	3327
55	0	0	2051	4	184	306	3326
56	0	0	2036	4	184	307	3327
57	0	0	2038	5	184	307	3328
58	0	0	2045	5	184	306	3327
59	0	0	2063	5	184	307	3329
60	0	0	2085	5	183	307	3329
61	0	0	2086	4	184	306	3330
62	0	0	2062	4	183	306	3330
63	0	0	2039	5	183	307	3329
64	0	0	2038	5	183	306	3327
65	0	0	2043	5	184	306	3327
66	0	0	2070	4	183	307	3327
67	0	0	2095	5	185	307	3327
68	0	0	2102	5	184	307	3327
69	0	0	2107	5	183	306	3329
70	0	0	2097	4	183	307	3330
71	0	0	2075	3	184	307	3330
72	0	0	2046	4	183	307	3330
73	0	0	2027	5	184	306	3328
74	0	0	2045	5	185	307	3327
75	0	0	2091	5	185	307	3326
76	0	0	2124	4	183	307	3326
77	0	0	2141	5	184	306	3327
78	0	0	2143	5	183	307	3328
79	0	0	2120	4	186	307	3328
80	0	0	2097	4	183	307	3329
81	0	0	2085	3	183	307	3330
82	0	0	2083	5	184	307	3330
83	0	0	2074	5	183	306	3329
84	0	0	2049	4	183	306	3328
85	0	0	2021	4	183	307	3327
86	0	0	2025	4	183	307	3327
87	0	0	2052	5	184	307	3327
88	0	0	2071	5	183	307	3328
89	0	0	2082	5	185	306	3328
90	0	0	2077	5	183	307	3329
91	0	0	2057	3	183	307	3330
92	0	0	2041	5	183	307	3330
93	0	0	2059	5	183	307	3329
94	0	0	2088	5	183	306	3327
95	0	0	2110	5	184	306	3327
96	0	0	2121	5	183	307	3327
97	0	0	2111	4	184	306	3328
98	0	0	2081	4	184	307	3328
99	0	0	2042	4	183	307	3328
100	0	0	2027	5	184	307	3329
101	0	0	2040	4	183	307	3330
102	0	0	2066	5	184	307	3331
103	0	0	2098	6	184	306	3329
104	0	0	2132	5	184	306	3328
105	0	0	2147	5	184	306	3328
106	0	0	2128	3	184	306	3327
107	0	0	2101	4	183	307	3327
108	0	0	2095	5	185	306	3328
109	0	0	2113	5	183	307	3329
110	0	0	2147	5	184	307	3330
111	0	0	2172	5	184	307	3331
112	0	0	2193	5	184	306	3330
113	0	0	2157	4	183	307	3329
114	0	0	2094	4	184	306	3328
115	0	0	2052	4	184	307	3328
116	0	0	2026	3	183	307	3327
117	0	0	2034	4	184	307	3327
118	0	0	2061	6	183	306	3328
119	0	0	2086	5	183	307	3328
120	0	0	2102	5	184	307	3329
121	0	0	2113	4	184	307	3330
122	0	0	2121	6	183	307	3329
123	0	0	2127	5	183	306	3329
124	0	0	2128	5	184	307	3328
125	0	0	2117	5	184	307	3327
126	0	0	2112	5	183	306	3326
127	0	0	2113	5	183	307	3327
0	0	0	2134	5	184	307	3329
1	0	0	2157	5	185	306	3328
2	0	0	2158	5	183	307	3330
3	0	0	2151	5	183	307	3331
4	0	0	2161	5	183	306	3329
5	0	0	2176	5	183	306	3329
6	0	0	2183	5	184	306	3327
7	0	0	2179	5	185	306	3327
8	0	0	2172	4	184	307	3327
9	0	0	2173	5	184	307	3328
10	0	0	2163	5	183	307	3328
11	0	0	2140	4	184	307	3329
12	0	0	2115	4	184	307	3330
13	0	0	2110	5	183	306	3330
14	0	0	2129	5	183	307	3329
15	0	0	2150	5	184	307	3329
16	0	0	2166	6	183	306	3328
17	0	0	2175	5	184	307	3327
18	0	0	2183	4	183	307	3327
19	0	0	2192	5	183	307	3327
20	0	0	2187	5	184	306	3328
21	0	0	2167	5	184	307	3329
22	0	0	2148	4	183	307	3329
23	0	0	2124	4	184	307	3330
24	0	0	2093	4	183	307	3331
25	0	0	2064	5	183	307	3329
26	0	0	2077	5	184	307	3329
27	0	0	2121	5	184	307	3328
28	0	0	2156	4	184	307	3327
29	0	0	2163	5	184	307	3327
30	0	0	2143	6	184	307	3328
31	0	0	2137	5	183	307	3329
32	0	0	2149	5	184	307	3329
33	0	0	2160	4	183	307	3330
34	0	0	2150	4	183	307	3330
35	0	0	2128	5	183	307	3330
36	0	0	2106	5	183	307	3328
37	0	0	2117	5	185	307	3327
38	0	0	2145	5	183	307	3328
39	0	0	2137	5	183	307	3327
40	0	0	2114	4	184	307	3328
41	0	0	2101	5	183	306	3329
42	0	0	2106	5	183	307	3329
43	0	0	2131	5	183	307	3330
44	0	0	2161	5	184	307	3330
45	0	0	2172	5	184	307	3329
46	0	0	2162	5	183	306	3328
47	0	0	2132	4	183	306	3327
48	0	0	2084	4	184	307	3327
49	0	0	2053	4	184	307	3327
50	0	0	2051	5	184	306	3328
51	0	0	2066	5	184	306	3329
52	0	0	2079	5	184	307	3331
53	0	0	2086	4	184	306	3330
54	0	0	2104	5	183	307	3331
55	0	0	2104	6	183	306	3329
56	0	0	2107	5	184	307	3329
57	0	0	2114	5	183	307	3328
58	0	0	2095	4	183	307	3327
59	0	0	2081	5	184	307	3328
60	0	0	2086	6	183	306	3328
61	0	0	2093	5	184	306	3330
62	0	0	2083	4	184	306	3329
63	0	0	2069	4	183	307	3331
64	0	0	2057	5	183	307	3330
65	0	0	2037	4	185	307	3329
66	0	0	2033	4	184	307	3328
67	0	0	2039	6	184	307	3327
68	0	0	2031	4	185	307	3327
69	0	0	2013	4	184	306	3328
70	0	0	2016	5	184	307	3328
71	0	0	2032	5	184	307	3329
72	0	0	2060	5	185	307	3330
73	0	0	2082	5	185	307	3331
74	0	0	2076	5	183	307	3330
75	0	0	2068	5	184	306	3329
76	0	0	2068	5	184	306	3328
77	0	0	2053	5	184	307	3327
78	0	0	2025	5	183	307	3328
79	0	0	2014	4	185	307	3329
80	0	0	2019	5	183	307	3329
81	0	0	2025	5	184	306	3329
82	0	0	2038	5	185	307	3330
83	0	0	2073	5	185	307	3331
84	0	0	2082	5	184	306	3330
85	0	0	2058	4	184	306	3329
86	0	0	2039	4	184	307	3328
87	0	0	2054	4	184	307	3327
88	0	0	2082	5	183	306	3328
89	0	0	2105	5	183	307	3328
90	0	0	2090	4	184	307	3328
91	0	0	2056	4	182	306	3329
92	0	0	2015	4	182	307	3330
93	0	0	2006	5	183	306	3330
94	0	0	2028	5	183	307	3330
95	0	0	2050	5	184	307	3329
96	0	0	2065	5	184	307	3328
97	0	0	2056	4	183	307	3328
98	0	0	2043	5	184	307	3328
99	0	0	2042	5	184	307	3328
100	0	0	2044	5	183	307	3329
101	0	0	2049	5	184	305	3329
102	0	0	2045	5	184	306	3330
103	0	0	2042	5	184	307	3331
104	0	0	2050	5	184	307	3330
105	0	0	2068	5	184	307	3330
106	0	0	2078	6	184	306	3328
107	0	0	2090	5	182	307	3328
108	0	0	2095	5	184	307	3328
109	0	0	2098	5	184	306	3328
110	0	0	2101	5	184	307	3328
111	0	0	2110	5	184	306	3330
112	0	0	2121	5	184	307	3331
113	0	0	2135	5	184	307	3331
114	0	0	2129	5	183	307	3331
115	0	0	2101	4	184	306	3330
116	0	0	2073	5	184	307	3328
117	0	0	2050	4	184	306	3327
118	0	0	2045	5	184	307	3328
119	0	0	2049	5	184	306	3328
120	0	0	2059	5	184	307	3328
121	0	0	2067	6	183	306	3329
122	0	0	2071	5	185	306	3330
123	0	0	2075	5	184	307	3331
124	0	0	2096	5	184	306	3330
125	0	0	2114	5	184	306	3330
126	0	0	2101	5	184	306	3329
127	0	0	2093	5	184	307	3328
0	0	0	2077	4	184	307	3328
1	0	0	2062	4	184	307	3329
2	0	0	2041	4	185	307	3328
3	0	0	2026	5	184	306	3329
4	0	0	2028	5	184	306	3330
5	0	0	2046	5	183	307	3331
6	0	0	2060	5	184	307	3330
7	0	0	2024	5	183	307	3329
8	0	0	2003	5	182	306	3328
9	0	0	2030	5	184	306	3328
10	0	0	2062	5	183	306	3328
11	0	0	2078	5	184	306	3328
12	0	0	2078	5	184	307	3330
13	0	0	2065	5	184	308	3329
14	0	0	2062	5	184	306	3330
15	0	0	2062	5	183	306	3331
16	0	0	2072	5	185	307	3331
17	0	0	2088	5	185	307	3330
18	0	0	2097	6	184	306	3329
19	0	0	2107	5	184	306	3328
20	0	0	2098	5	184	306	3328
21	0	0	2091	5	184	307	3328
22	0	0	2089	5	184	307	3328
23	0	0	2088	5	183	306	3330
24	0	0	2096	5	184	307	3331
25	0	0	2105	5	183	307	3331
26	0	0	2100	5	184	306	3331
27	0	0	2063	5	184	307	3329
28	0	0	2006	5	183	307	3328
29	0	0	1974	5	183	306	3328
30	0	0	2004	5	184	307	3328
31	0	0	2040	5	184	307	3328
32	0	0	2061	5	183	307	3328
33	0	0	2065	5	183	306	3329
34	0	0	2055	4	184	306	3330
35	0	0	2031	5	185	307	3331
36	0	0	2013	4	184	307	3330
37	0	0	2006	4	184	307	3331
38	0	0	1997	5	184	307	3329
39	0	0	1997	5	185	306	3328
40	0	0	2016	5	184	306	3328
41	0	0	2038	5	184	307	3328
42	0	0	2030	5	183	307	3329
43	0	0	2020	5	184	306	3330
44	0	0	2026	5	184	307	3330
45	0	0	2037	5	184	307	3331
46	0	0	2045	5	184	306	3330
47	0	0	2026	5	184	307	3330
48	0	0	2021	5	183	306	3329
49	0	0	2056	5	183	307	3328
50	0	0	2095	5	183	306	3328
51	0	0	2107	5	183	307	3328
52	0	0	2080	4	184	307	3329
53	0	0	2045	4	183	307	3329
54	0	0	2033	4	183	306	3330
55	0	0	2029	5	183	306	3331
56	0	0	2041	5	183	306	3330
57	0	0	2051	5	184	306	3330
58	0	0	2045	5	184	307	3329
59	0	0	2059	5	184	307	3328
60	0	0	2073	5	184	307	3328
61	0	0	2085	5	183	306	3328
62	0	0	2104	5	183	307	3328
63	0	0	2109	4	184	307	3329
64	0	0	2092	4	185	307	3330
65	0	0	2069	4	184	307	3331
66	0	0	2062	5	183	307	3330
67	0	0	2078	5	184	307	3330
68	0	0	2087	5	183	306	3329
69	0	0	2077	4	183	306	3328
70	0	0	2057	4	183	307	3327
71	0	0	2057	5	184	307	3329
72	0	0	2061	6	184	306	3328
73	0	0	2049	5	184	307	3329
74	0	0	2034	5	184	306	3330
75	0	0	2024	5	184	306	3331
76	0	0	2026	5	184	306	3331
77	0	0	2045	5	184	307	3330
78	0	0	2068	4	185	307	3328
79	0	0	2084	5	184	306	3327
80	0	0	2088	5	184	307	3328
81	0	0	2081	4	184	307	3328
82	0	0	2052	4	183	307	3328
83	0	0	2031	4	183	306	3329
84	0	0	2036	5	184	306	3330
85	0	0	2025	5	183	307	3331
86	0	0	2011	5	184	307	3331
87	0	0	2010	5	183	307	3331
88	0	0	2026	5	183	306	3329
89	0	0	2035	5	184	306	3328
90	0	0	2044	5	184	307	3328
91	0	0	2039	5	183	307	3328
92	0	0	2027	5	184	306	3328
93	0	0	2024	5	184	306	3329
94	0	0	2036	5	184	307	3330
95	0	0	2044	5	183	307	3331
96	0	0	2035	6	184	307	3331
97	0	0	2004	4	183	307	3331
98	0	0	1995	6	183	308	3329
99	0	0	2031	5	183	306	3328
100	0	0	2073	5	184	307	3328
101	0	0	2085	5	184	306	3328
102	0	0	2070	4	184	307	3328
103	0	0	2048	4	184	307	3329
104	0	0	2038	5	184	307	3330
105	0	0	2038	5	184	307	3331
106	0	0	2040	5	183	307	3331
107	0	0	2024	4	185	307	3330
108	0	0	2002	5	183	307	3329
109	0	0	1999	5	184	307	3328
110	0	0	1989	5	184	307	3328
111	0	0	1956	4	184	307	3328
112	0	0	1942	5	185	306	3328
113	0	0	1959	4	184	306	3329
114	0	0	1989	5	184	306	3330
115	0	0	1999	5	183	307	3331
116	0	0	2006	5	184	306	3331
117	0	0	2014	5	182	307	3331
118	0	0	2021	5	184	307	3328
119	0	0	2043	5	184	306	3328
120	0	0	2064	5	183	307	3328
121	0	0	2063	5	184	307	3329
122	0	0	2051	5	185	307	3328
123	0	0	2051	5	184	306	3330
124	0	0	2066	5	184	306	3330
125	0	0	2075	5	184	307	3331
126	0	0	2074	5	184	307	3331
127	0	0	2059	5	184	307	3330
0	0	0	2061	5	184	306	3328
1	0	0	2051	5	184	306	3328
2	0	0	2061	5	182	307	3328
3	0	0	2086	5	183	306	3328
4	0	0	2092	5	184	307	3328
5	0	0	2087	4	184	307	3329
6	0	0	2080	5	184	306	3330
7	0	0	2078	5	183	307	3331
8	0	0	2072	5	184	307	3331
9	0	0	2063	5	184	307	3331
10	0	0	2055	5	184	307	3329
11	0	0	2050	5	184	306	3328
12	0	0	2044	5	184	307	3328
13	0	0	2041	5	184	307	3328
14	0	0	2045	5	183	307	3330
15	0	0	2053	5	185	305	3330
16	0	0	2057	5	184	306	3330
17	0	0	2061	5	184	307	3331
18	0	0	2070	5	183	307	3331
19	0	0	2082	5	184	307	3330
20	0	0	2094	5	183	307	3329
21	0	0	2099	5	183	307	3329
22	0	0	2095	5	184	307	3328
23	0	0	2092	5	184	306	3328
24	0	0	2083	5	183	306	3329
25	0	0	2090	5	183	307	3329
26	0	0	2107	5	184	305	3330
27	0	0	2116	5	184	306	3331
28	0	0	2123	5	184	306	3330
29	0	0	2124	5	184	307	3330
30	0	0	2128	4	184	307	3329
31	0	0	2145	5	185	306	3328
32	0	0	2155	5	184	307	3328
33	0	0	2149	5	183	306	3328
34	0	0	2131	5	184	307	3329
35	0	0	2116	5	184	307	3329
36	0	0	2136	5	184	306	3330
37	0	0	2164	5	183	307	3331
38	0	0	2157	5	183	307	3331
39	0	0	2135	5	183	307	3330
40	0	0	2124	5	184	307	3329
41	0	0	2120	5	184	307	3328
42	0	0	2107	5	185	307	3328
43	0	0	2114	5	183	307	3329
44	0	0	2139	5	185	306	3328
45	0	0	2156	5	184	307	3330
46	0	0	2162	5	184	307	3331
47	0	0	2140	5	183	307	3331
48	0	0	2123	5	184	307	3332
49	0	0	2130	5	183	306	3330
50	0	0	2149	5	184	307	3329
51	0	0	2170	5	184	307	3329
52	0	0	2160	4	185	307	3328
53	0	0	2136	4	184	307	3328
54	0	0	2129	5	184	306	3329
55	0	0	2139	5	185	307	3329
56	0	0	2156	5	184	307	3331
57	0	0	2144	4	184	307	3331
58	0	0	2120	4	184	307	3330
59	0	0	2108	4	182	306	3330
60	0	0	2103	5	184	307	3329
61	0	0	2098	5	184	306	3328
62	0	0	2108	5	183	307	3328
63	0	0	2140	5	184	307	3328
64	0	0	2178	5	183	307	3330
65	0	0	2193	5	183	307	3330
66	0	0	2197	5	185	307	3331
67	0	0	2196	6	184	307	3332
68	0	0	2182	5	184	307	3331
69	0	0	2164	4	182	307	3331
70	0	0	2143	4	184	308	3329
71	0	0	2131	5	184	307	3328
72	0	0	2131	5	185	307	3328
73	0	0	2141	5	185	306	3328
74	0	0	2140	5	183	307	3329
75	0	0	2118	4	184	307	3330
76	0	0	2098	5	184	307	3331
77	0	0	2113	5	184	307	3331
78	0	0	2153	5	184	306	3331
79	0	0	2194	5	184	306	3331
80	0	0	2229	5	184	307	3329
81	0	0	2234	5	183	307	3328
82	0	0	2232	5	184	307	3329
83	0	0	2241	5	183	307	3328
84	0	0	2236	4	183	307	3330
85	0	0	2215	5	184	307	3330
86	0	0	2204	5	184	306	3331
87	0	0	2202	5	185	307	3331
88	0	0	2205	5	183	307	3331
89	0	0	2208	5	183	307	3330
90	0	0	2217	5	184	307	3330
91	0	0	2217	5	184	307	3329
92	0	0	2196	4	184	307	3328
93	0	0	2169	4	184	306	3328
94	0	0	2149	5	184	307	3329
95	0	0	2130	4	184	307	3330
96	0	0	2100	4	184	307	3331
97	0	0	2091	5	184	307	3332
98	0	0	2089	5	184	307	3331
99	0	0	2089	5	183	307	3330
100	0	0	2098	5	184	307	3329
101	0	0	2102	5	183	307	3328
102	0	0	2100	5	182	307	3329
103	0	0	2114	5	183	307	3328
104	0	0	2130	5	184	307	3329
105	0	0	2142	5	183	307	3331
106	0	0	2152	5	183	307	3332
107	0	0	2149	5	183	307	3331
108	0	0	2134	5	184	307	3332
109	0	0	2111	3	185	306	3331
110	0	0	2105	5	184	307	3329
111	0	0	2129	5	184	307	3328
112	0	0	2145	5	184	306	3328
113	0	0	2156	5	183	307	3328
114	0	0	2152	4	185	307	3329
115	0	0	2131	5	184	307	3330
116	0	0	2106	5	184	307	3331
117	0	0	2090	5	184	307	3332
118	0	0	2111	5	184	307	3331
119	0	0	2134	5	184	307	3331
120	0	0	2131	5	182	306	3330
121	0	0	2122	5	183	307	3329
122	0	0	2111	5	184	307	3328
123	0	0	2099	4	183	307	3328
124	0	0	2092	5	184	307	3329
125	0	0	2097	5	183	307	3330
126	0	0	2111	5	183	307	3331
127	0	0	2117	5	183	307	3332
0	0	0	2122	5	184	307	3331
1	0	0	2107	4	184	307	3331
2	0	0	2093	5	183	307	3329
3	0	0	2097	5	185	307	3328
4	0	0	2101	5	183	307	3328
5	0	0	2094	4	184	307	3328
6	0	0	2074	3	182	307	3330
7	0	0	2043	4	184	308	3330
8	0	0	2029	4	184	307	3331
9	0	0	2058	5	184	307	3332
10	0	0	2108	5	183	307	3331
11	0	0	2138	5	183	306	3331
12	0	0	2114	4	185	307	3330
13	0	0	2065	4	184	307	3329
14	0	0	2038	5	183	306	3329
15	0	0	2053	5	184	307	3328
16	0	0	2086	5	184	306	3329
17	0	0	2109	5	184	307	3330
18	0	0	2115	5	183	307	3331
19	0	0	2116	5	184	307	3332
20	0	0	2109	5	184	307	3331
21	0	0	2091	4	183	307	3331
22	0	0	2068	5	184	307	3329
23	0	0	2071	5	185	307	3328
24	0	0	2100	5	184	307	3329
25	0	0	2120	5	184	307	3328
26	0	0	2122	4	185	307	3330
27	0	0	2109	4	183	308	3330
28	0	0	2117	5	184	307	3331
29	0	0	2138	5	183	307	3332
30	0	0	2139	5	184	307	3331
31	0	0	2131	4	184	307	3332
32	0	0	2117	5	183	307	3329
33	0	0	2106	5	184	307	3328
34	0	0	2096	4	183	307	3328
35	0	0	2075	4	183	307	3328
36	0	0	2069	5	183	307	3329
37	0	0	2088	5	183	307	3330
38	0	0	2092	5	184	307	3331
39	0	0	2075	5	183	306	3331
40	0	0	2084	5	183	307	3332
41	0	0	2103	5	182	307	3331
42	0	0	2133	5	185	307	3329
43	0	0	2168	5	184	307	3328
44	0	0	2181	5	184	307	3329
45	0	0	2158	4	183	307	3328
46	0	0	2133	4	184	307	3329
47	0	0	2101	4	183	307	3330
48	0	0	2071	4	183	307	3331
49	0	0	2059	5	183	307	3332
50	0	0	2067	5	184	307	3331
51	0	0	2087	5	183	307	3331
52	0	0	2106	5	183	307	3330
53	0	0	2112	5	184	307	3328
54	0	0	2110	5	183	307	3329
55	0	0	2120	5	183	307	3328
56	0	0	2149	5	184	307	3329
57	0	0	2158	4	183	307	3330
58	0	0	2144	5	183	307	3332
59	0	0	2144	5	183	307	3331
60	0	0	2162	5	184	307	3332
61	0	0	2190	5	184	307	3331
62	0	0	2210	5	183	307	3329
63	0	0	2225	5	184	307	3328
64	0	0	2241	5	184	307	3329
65	0	0	2249	5	184	307	3328
66	0	0	2253	5	183	307	3329
67	0	0	2251	5	184	307	3330
68	0	0	2236	4	184	307	3331
69	0	0	2214	4	182	307	3332
70	0	0	2196	5	183	307	3331
71	0	0	2203	5	184	307	3330
72	0	0	2243	5	184	307	3329
73	0	0	2267	5	184	306	3328
74	0	0	2250	5	183	307	3328
75	0	0	2234	5	184	307	3328
76	0	0	2240	5	183	307	3330
77	0	0	2250	5	183	307	3330
78	0	0	2243	5	184	307	3331
79	0	0	2257	5	184	307	3332
80	0	0	2284	5	184	307	3331
81	0	0	2312	5	185	307	3331
82	0	0	2331	5	182	306	3330
83	0	0	2332	5	183	306	3328
84	0	0	2325	5	183	307	3328
85	0	0	2337	5	184	307	3330
86	0	0	2356	5	184	307	3329
87	0	0	2356	5	183	307	3330
88	0	0	2328	4	184	307	3331
89	0	0	2303	4	184	306	3332
90	0	0	2274	4	184	307	3331
91	0	0	2238	4	183	307	3331
92	0	0	2208	4	184	307	3329
93	0	0	2207	5	184	306	3328
94	0	0	2215	5	182	307	3328
95	0	0	2241	5	182	308	3329
96	0	0	2274	4	184	307	3329
97	0	0	2290	5	183	307	3330
98	0	0	2293	5	184	306	3331
99	0	0	2294	5	184	306	3332
100	0	0	2303	5	184	307	3331
101	0	0	2318	5	183	307	3331
102	0	0	2345	5	184	307	3329
103	0	0	2363	5	184	306	3329
104	0	0	2356	5	184	307	3329
105	0	0	2329	5	184	307	3329
106	0	0	2288	6	184	307	3329
107	0	0	2241	4	184	307	3331
108	0	0	2229	5	184	305	3331
109	0	0	2250	5	183	307	3332
110	0	0	2289	5	184	307	3331
111	0	0	2344	5	183	307	3332
112	0	0	2368	5	184	307	3329
113	0	0	2340	5	183	307	3329
114	0	0	2309	4	184	307	3329
115	0	0	2307	5	184	307	3328
116	0	0	2321	5	184	307	3330
117	0	0	2328	5	184	308	3330
118	0	0	2337	5	184	308	3331
119	0	0	2345	5	184	307	3332
120	0	0	2345	5	183	307	3331
121	0	0	2350	5	184	307	3332
122	0	0	2348	6	184	307	3330
123	0	0	2335	5	184	307	3329
124	0	0	2311	5	183	307	3329
125	0	0	2304	5	183	308	3328
126	0	0	2298	5	184	307	3329
127	0	0	2293	5	183	307	3330
0	0	0	2292	5	184	308	3331
1	0	0	2293	5	183	306	3332
2	0	0	2298	5	183	307	3331
3	0	0	2295	5	183	307	3331
4	0	0	2271	4	183	307	3330
5	0	0	2237	5	183	307	3329
6	0	0	2210	5	184	307	3329
7	0	0	2188	4	183	307	3328
8	0	0	2188	5	183	307	3329
9	0	0	2209	5	182	307	3330
10	0	0	2235	5	184	306	3332
11	0	0	2237	5	183	307	3332
12	0	0	2211	5	183	307	3332
13	0	0	2208	5	184	307	3331
14	0	0	2211	5	184	306	3330
15	0	0	2220	5	185	307	3329
16	0	0	2209	5	183	306	3329
17	0	0	2187	5	183	307	3328
18	0	0	2175	4	183	307	3330
19	0	0	2155	4	184	307	3330
20	0	0	2132	5	183	307	3331
21	0	0	2125	5	183	307	3332
22	0	0	2121	5	184	307	3332
23	0	0	2100	5	183	307	3331
24	0	0	2107	5	184	307	3330
25	0	0	2117	5	184	307	3329
26	0	0	2119	5	183	307	3329
27	0	0	2125	5	183	307	3328
28	0	0	2135	5	184	307	3329
29	0	0	2117	5	183	307	3330
30	0	0	2104	5	184	307	3331
31	0	0	2126	5	184	307	3332
32	0	0	2151	5	184	307	3331
33	0	0	2168	5	184	307	3331
34	0	0	2159	4	185	307	3330
35	0	0	2126	4	184	307	3329
36	0	0	2055	4	183	306	3329
37	0	0	1995	4	184	307	3330
38	0	0	1978	6	183	307	3329
39	0	0	1988	4	183	307	3330
40	0	0	1996	5	184	308	3331
41	0	0	2000	5	183	306	3332
42	0	0	2006	5	184	307	3331
43	0	0	2015	5	184	307	3331
44	0	0	2018	5	184	307	3330
45	0	0	2019	5	183	307	3329
46	0	0	2031	5	183	307	3329
47	0	0	2043	5	184	307	3328
48	0	0	2032	4	182	307	3329
49	0	0	2008	4	183	307	3331
50	0	0	1984	4	183	307	3332
51	0	0	1980	5	183	307	3332
52	0	0	1992	5	183	307	3331
53	0	0	2004	5	184	307	3332
54	0	0	2020	5	184	307	3330
55	0	0	2035	5	183	307	3329
56	0	0	2025	4	182	307	3329
57	0	0	2009	4	184	307	3329
58	0	0	2001	5	184	307	3329
59	0	0	1979	4	183	307	3330
60	0	0	1949	4	184	307	3331
61	0	0	1929	5	184	307	3332
62	0	0	1939	5	184	307	3331
63	0	0	1971	5	184	307	3331
64	0	0	2006	5	183	307	3330
65	0	0	2018	5	184	307	3329
66	0	0	2007	4	182	307	3329
67	0	0	1977	4	183	307	3329
68	0	0	1951	4	183	306	3329
69	0	0	1950	5	184	307	3331
70	0	0	1972	5	183	307	3332
71	0	0	1987	5	184	307	3332
72	0	0	1995	5	184	307	3333
73	0	0	2010	5	183	307	3331
74	0	0	2021	5	184	307	3330
75	0	0	2039	5	185	307	3329
76	0	0	2037	4	184	307	3329
77	0	0	1994	5	184	307	3328
78	0	0	1953	4	185	307	3329
79	0	0	1932	5	185	307	3330
80	0	0	1926	5	184	307	3331
81	0	0	1929	5	182	307	3332
82	0	0	1939	5	184	307	3331
83	0	0	1956	5	183	307	3331
84	0	0	1971	5	184	306	3330
85	0	0	1974	5	183	307	3329
86	0	0	1978	5	184	307	3329
87	0	0	1973	5	183	307	3330
88	0	0	1942	4	184	307	3331
89	0	0	1910	4	184	307	3330
90	0	0	1915	5	183	307	3331
91	0	0	1975	5	183	307	3332
92	0	0	2044	5	184	307	3331
93	0	0	2074	5	184	306	3332
94	0	0	2083	4	184	307	3330
95	0	0	2096	5	184	307	3329
96	0	0	2100	5	184	307	3329
97	0	0	2081	5	184	307	3329
98	0	0	2058	5	184	306	3329
99	0	0	2053	3	184	307	3330
100	0	0	2039	4	184	307	3331
101	0	0	2027	5	183	307	3332
102	0	0	2032	5	184	307	3332
103	0	0	2040	5	182	306	3331
104	0	0	2036	4	184	307	3331
105	0	0	2017	4	183	307	3330
106	0	0	1992	4	184	307	3329
107	0	0	1997	5	184	307	3329
108	0	0	2020	5	184	306	3330
109	0	0	2021	5	184	307	3331
110	0	0	2005	5	184	307	3331
111	0	0	2007	5	183	307	3332
112	0	0	2004	5	183	307	3331
113	0	0	2004	5	183	307	3331
114	0	0	2017	5	185	307	3330
115	0	0	2025	5	184	307	3329
116	0	0	2013	4	184	307	3329
117	0	0	1994	4	184	307	3330
118	0	0	1992	4	183	307	3330
119	0	0	2021	5	184	307	3330
120	0	0	2059	5	183	307	3331
121	0	0	2071	5	183	308	3332
122	0	0	2063	5	183	307	3331
123	0	0	2060	5	184	307	3332
124	0	0	2046	3	184	307	3330
125	0	0	2024	4	184	307	3329
126	0	0	2015	5	183	307	3329
127	0	0	2018	5	183	307	3329
0	0	0	2002	4	184	307	3329
1	0	0	1979	4	184	307	3331
2	0	0	1974	5	184	308	3331
3	0	0	1989	5	184	307	3332
4	0	0	2024	5	184	307	3332
5	0	0	2048	5	184	307	3331
6	0	0	2023	3	183	307	3331
7	0	0	1990	5	183	307	3330
8	0	0	1983	5	184	307	3329
9	0	0	1985	5	184	307	3330
10	0	0	1978	5	184	306	3329
11	0	0	1969	5	184	307	3331
12	0	0	1973	5	185	307	3332
13	0	0	1992	5	183	307	3332
14	0	0	2006	5	183	307	3332
15	0	0	2001	5	183	307	3331
16	0	0	2005	5	184	307	3330
17	0	0	2009	5	184	307	3329
18	0	0	2010	5	184	307	3329
19	0	0	2008	5	183	307	3329
20	0	0	2005	5	183	307	3329
21	0	0	1990	4	183	307	3331
22	0	0	1949	4	183	307	3331
23	0	0	1934	5	183	307	3333
24	0	0	1977	5	183	307	3331
25	0	0	2036	5	183	306	3332
26	0	0	2050	5	184	307	3331
27	0	0	2024	4	184	307	3329
28	0	0	1984	4	184	306	3329
29	0	0	1975	5	184	307	3329
30	0	0	2010	5	184	307	3330
31	0	0	2045	6	184	307	3331
32	0	0	2063	5	184	307	3331
33	0	0	2060	5	183	307	3332
34	0	0	2031	4	183	307	3332
35	0	0	1995	5	184	307	3331
36	0	0	1961	4	184	307	3330
37	0	0	1956	5	183	307	3329
38	0	0	1968	5	183	307	3330
39	0	0	1981	5	184	307	3329
40	0	0	1982	5	183	307	3329
41	0	0	1990	6	184	307	3331
42	0	0	2004	5	184	308	3331
43	0	0	2026	5	185	307	3332
44	0	0	2044	5	184	307	3331
45	0	0	2052	5	184	307	3331
46	0	0	2042	5	183	307	3330
47	0	0	2044	5	184	307	3329
48	0	0	2050	5	183	306	3329
49	0	0	2061	5	183	307	3329
50	0	0	2053	4	184	307	3329
51	0	0	2029	4	183	307	3330
52	0	0	2026	5	183	308	3331
53	0	0	2017	5	183	306	3332
54	0	0	2001	5	184	307	3331
55	0	0	2001	5	183	307	3331
56	0	0	2016	5	183	307	3330
57	0	0	2031	5	184	307	3329
58	0	0	2046	5	183	307	3330
59	0	0	2048	5	183	306	3329
60	0	0	2044	5	185	306	3330
61	0	0	2046	5	183	307	3331
62	0	0	2050	5	183	307	3331
63	0	0	2035	4	183	307	3333
64	0	0	2039	5	183	307	3331
65	0	0	2050	5	184	306	3332
66	0	0	2045	5	183	307	3330
67	0	0	2022	4	184	306	3329
68	0	0	2009	5	184	307	3329
69	0	0	2023	5	184	307	3329
70	0	0	2045	5	184	306	3331
71	0	0	2049	5	183	307	3331
72	0	0	2024	4	183	307	3332
73	0	0	1996	5	183	306	3332
74	0	0	1990	5	184	307	3332
75	0	0	1998	5	183	307	3331
76	0	0	2026	5	183	307	3330
77	0	0	2059	5	184	307	3329
78	0	0	2060	5	184	307	3329
79	0	0	2043	5	184	307	3329
80	0	0	2030	5	184	306	3331
81	0	0	2020	4	182	307	3331
82	0	0	2012	5	184	307	3331
83	0	0	2009	5	183	307	3333
84	0	0	2013	5	183	307	3332
85	0	0	2035	5	183	307	3331
86	0	0	2049	6	184	307	3330
87	0	0	2065	5	184	308	3329
88	0	0	2079	5	184	307	3329
89	0	0	2086	5	183	307	3329
90	0	0	2068	4	183	307	3330
91	0	0	2048	4	183	307	3331
92	0	0	2014	4	184	307	3332
93	0	0	1974	4	183	307	3332
94	0	0	1969	5	183	307	3332
95	0	0	1988	5	184	306	3332
96	0	0	2017	5	184	307	3331
97	0	0	2038	5	184	307	3330
98	0	0	2043	5	184	307	3329
99	0	0	2031	5	183	307	3329
100	0	0	2021	5	183	307	3329
101	0	0	2021	5	185	307	3331
102	0	0	2026	5	183	307	3331
103	0	0	2033	5	184	306	3332
104	0	0	2050	5	184	307	3332
105	0	0	2066	5	184	307	3331
106	0	0	2065	5	182	308	3330
107	0	0	2063	5	183	306	3329
108	0	0	2059	5	184	306	3329
109	0	0	2060	5	184	307	3330
110	0	0	2064	7	184	307	3329
111	0	0	2067	5	183	307	3331
112	0	0	2049	4	184	307	3332
113	0	0	2028	5	184	307	3332
114	0	0	2005	4	184	307	3333
115	0	0	1985	5	184	306	3331
116	0	0	1981	5	183	307	3330
117	0	0	1983	5	183	307	3329
118	0	0	1998	5	183	307	3329
119	0	0	2011	5	184	307	3329
120	0	0	2012	5	183	306	3331
121	0	0	2012	5	184	306	3331
122	0	0	2001	4	183	307	3331
123	0	0	1999	5	184	307	3332
124	0	0	2005	5	184	306	3332
125	0	0	2018	5	184	307	3331
126	0	0	2031	5	183	307	3331
127	0	0	2049	5	184	307	3330
0	0	0	2041	5	184	307	3329
1	0	0	2015	4	184	307	3330
2	0	0	1991	4	185	306	3330
3	0	0	1987	5	184	307	3331
4	0	0	2003	4	183	307	3331
5	0	0	2036	5	184	307	3332
6	0	0	2084	5	184	307	3332
7	0	0	2112	5	184	306	3331
8	0	0	2099	5	183	308	3330
9	0	0	2061	4	183	307	3329
10	0	0	2054	5	184	307	3329
11	0	0	2049	5	183	306	3329
12	0	0	2020	4	183	306	3331
13	0	0	2002	5	185	307	3332
14	0	0	2005	5	183	307	3331
15	0	0	2010	5	183	307	3332
16	0	0	2030	5	183	307	3332
17	0	0	2055	5	183	306	3333
18	0	0	2065	5	183	307	3330
19	0	0	2065	5	184	307	3329
20	0	0	2061	5	184	307	3329
21	0	0	2063	5	184	307	3329
22	0	0	2068	5	185	307	3330
23	0	0	2069	6	184	307	3331
24	0	0	2068	5	184	307	3332
25	0	0	2056	5	183	307	3332
26	0	0	2035	4	184	307	3333
27	0	0	2003	4	183	307	3331
28	0	0	1980	5	184	307	3330
29	0	0	1980	5	183	307	3329
30	0	0	1998	5	184	306	3329
31	0	0	2018	5	184	307	3329
32	0	0	2024	5	184	306	3330
33	0	0	2023	5	183	307	3331
34	0	0	2011	4	183	307	3332
35	0	0	1992	4	184	307	3333
36	0	0	1978	5	184	307	3332
37	0	0	1999	5	183	306	3332
38	0	0	2054	5	184	307	3330
39	0	0	2086	4	184	307	3329
40	0	0	2080	5	184	306	3329
41	0	0	2055	4	184	307	3329
42	0	0	2026	4	183	306	3331
43	0	0	2015	6	184	307	3331
44	0	0	2006	5	184	307	3331
45	0	0	1985	5	184	307	3332
46	0	0	1968	5	183	307	3332
47	0	0	1957	5	183	307	3331
48	0	0	1956	7	183	307	3331
49	0	0	1963	5	184	307	3330
50	0	0	1979	5	184	306	3329
51	0	0	1995	5	182	307	3329
52	0	0	1986	5	183	306	3331
53	0	0	1981	5	184	307	3331
54	0	0	1988	5	183	307	3332
55	0	0	1999	5	183	307	3332
56	0	0	2019	5	184	307	3332
57	0	0	2036	5	183	307	3332
58	0	0	2045	6	184	307	3331
59	0	0	2049	5	183	307	3330
60	0	0	2034	4	184	306	3329
61	0	0	2014	5	184	307	3329
62	0	0	1997	5	183	307	3330
63	0	0	1997	4	184	307	3331
64	0	0	2010	5	184	307	3332
65	0	0	2035	5	184	307	3333
66	0	0	2063	5	183	307	3332
67	0	0	2061	5	183	307	3332
68	0	0	2048	6	184	307	3330
69	0	0	2037	5	184	307	3329
70	0	0	2052	5	183	306	3329
71	0	0	2071	5	184	307	3330
72	0	0	2071	6	183	307	3330
73	0	0	2063	6	184	307	3331
74	0	0	2049	4	183	307	3332
75	0	0	2025	4	184	306	3332
76	0	0	2025	5	183	307	3332
77	0	0	2029	5	183	307	3331
78	0	0	2031	5	184	307	3330
79	0	0	2038	5	184	306	3330
80	0	0	2023	4	184	306	3329
81	0	0	2001	4	184	307	3329
82	0	0	1979	4	184	307	3330
83	0	0	1974	4	183	307	3331
84	0	0	1993	5	184	307	3331
85	0	0	2034	5	184	307	3333
86	0	0	2068	4	184	307	3332
87	0	0	2079	5	183	306	3332
88	0	0	2066	4	183	307	3331
89	0	0	2057	5	183	307	3330
90	0	0	2070	5	184	307	3330
91	0	0	2085	5	183	307	3329
92	0	0	2091	5	183	307	3331
93	0	0	2072	5	183	307	3331
94	0	0	2060	5	184	307	3331
95	0	0	2062	5	183	307	3333
96	0	0	2056	5	184	307	3332
97	0	0	2043	5	184	306	3332
98	0	0	2035	5	184	306	3330
99	0	0	2043	5	184	307	3329
100	0	0	2052	5	185	306	3329
101	0	0	2053	5	184	307	3329
102	0	0	2044	4	184	307	3330
103	0	0	2013	5	184	307	3331
104	0	0	1969	4	184	307	3331
105	0	0	1940	4	183	306	3332
106	0	0	1963	5	183	307	3332
107	0	0	2024	5	184	306	3332
108	0	0	2077	5	183	307	3331
109	0	0	2103	5	183	307	3330
110	0	0	2100	5	184	306	3329
111	0	0	2083	4	184	307	3330
112	0	0	2067	5	184	306	3330
113	0	0	2062	5	184	306	3331
114	0	0	2056	5	184	307	3332
115	0	0	2050	5	184	307	3333
116	0	0	2064	5	184	307	3332
117	0	0	2085	4	184	307	3331
118	0	0	2100	5	184	306	3330
119	0	0	2115	5	184	307	3329
120	0	0	2099	4	183	306	3329
121	0	0	2072	4	184	307	3329
122	0	0	2067	5	184	307	3330
123	0	0	2061	5	183	307	3331
124	0	0	2051	5	184	307	3331
125	0	0	2050	5	183	307	3332
126	0	0	2052	5	184	306	3332
127	0	0	2046	5	184	307	3331
0	0	0	2038	5	184	307	3331
1	0	0	2042	5	184	307	3330
2	0	0	2048	5	183	306	3329
3	0	0	2064	5	184	307	3330
4	0	0	2081	5	184	307	3330
5	0	0	2074	4	183	306	3331
6	0	0	2040	4	184	306	3332
7	0	0	2006	4	184	306	3332
8	0	0	2003	5	183	307	3332
9	0	0	2023	5	183	307	3332
10	0	0	2046	4	184	307	3331
11	0	0	2074	5	184	307	3329
12	0	0	2097	5	184	307	3330
13	0	0	2084	5	184	306	3329
14	0	0	2060	5	184	307	3331
15	0	0	2033	4	184	307	3331
16	0	0	2020	5	183	307	3332
17	0	0	2025	5	184	306	3332
18	0	0	2037	5	184	307	3332
19	0	0	2040	5	183	307	3333
20	0	0	2035	5	183	307	3331
21	0	0	2028	5	183	307	3329
22	0	0	2025	5	184	306	3329
23	0	0	2028	5	184	307	3329
24	0	0	2033	5	185	307	3329
25	0	0	2031	5	183	307	3331
26	0	0	2022	4	183	307	3332
27	0	0	2019	5	184	306	3332
28	0	0	2035	5	183	307	3333
29	0	0	2057	5	184	307	3332
30	0	0	2077	6	184	307	3331
31	0	0	2092	5	184	307	3330
32	0	0	2094	5	184	306	3329
33	0	0	2080	4	184	306	3329
34	0	0	2074	5	184	307	3330
35	0	0	2087	5	184	306	3331
36	0	0	2097	5	185	307	3331
37	0	0	2116	5	184	307	3333
38	0	0	2153	5	184	307	3332
39	0	0	2179	5	184	306	3331
40	0	0	2160	5	184	307	3331
41	0	0	2132	5	183	307	3330
42	0	0	2109	4	184	306	3329
43	0	0	2104	5	183	306	3329
44	0	0	2116	5	183	307	3330
45	0	0	2128	5	184	308	3331
46	0	0	2131	5	183	307	3332
47	0	0	2115	4	183	307	3333
48	0	0	2096	4	183	307	3332
49	0	0	2098	5	184	307	3332
50	0	0	2103	5	184	306	3331
51	0	0	2100	4	184	307	3330
52	0	0	2089	5	184	306	3329
53	0	0	2088	5	183	307	3329
54	0	0	2104	5	185	307	3330
55	0	0	2114	6	184	307	3331
56	0	0	2109	5	184	307	3331
57	0	0	2106	5	184	306	3332
58	0	0	2099	5	184	307	3332
59	0	0	2081	4	184	307	3332
60	0	0	2057	5	184	307	3331
61	0	0	2033	4	184	307	3330
62	0	0	2025	5	184	306	3329
63	0	0	2033	6	183	307	3329
64	0	0	2055	5	183	307	3331
65	0	0	2083	5	183	307	3332
66	0	0	2111	5	183	307	3332
67	0	0	2137	5	183	305	3332
68	0	0	2151	5	183	306	3332
69	0	0	2161	5	184	306	3332
70	0	0	2159	5	184	307	3331
71	0	0	2153	5	183	307	3331
72	0	0	2137	4	184	307	3329
73	0	0	2130	6	184	306	3329
74	0	0	2109	4	183	308	3330
75	0	0	2080	4	184	308	3331
76	0	0	2070	5	184	307	3332
77	0	0	2066	5	184	306	3333
78	0	0	2032	4	184	307	3332
79	0	0	2000	4	183	307	3331
80	0	0	1997	5	184	307	3331
81	0	0	2013	5	183	307	3329
82	0	0	2060	5	183	307	3329
83	0	0	2096	5	183	307	3329
84	0	0	2108	5	184	307	3330
85	0	0	2109	5	183	307	3331
86	0	0	2101	5	183	307	3333
87	0	0	2088	5	183	305	3332
88	0	0	2074	6	184	307	3332
89	0	0	2064	4	184	307	3333
90	0	0	2060	5	184	307	3332
91	0	0	2065	5	184	307	3330
92	0	0	2054	4	184	306	3329
93	0	0	2029	5	183	307	3329
94	0	0	2030	5	184	307	3330
95	0	0	2033	5	183	307	3331
96	0	0	2022	4	183	307	3333
97	0	0	1998	4	183	305	3332
98	0	0	1992	6	183	307	3332
99	0	0	2000	5	184	307	3333
100	0	0	2001	5	184	307	3331
101	0	0	2007	5	184	307	3330
102	0	0	2015	5	183	306	3329
103	0	0	2029	5	183	307	3329
104	0	0	2041	5	184	307	3330
105	0	0	2062	5	184	307	3331
106	0	0	2102	5	183	307	3332
107	0	0	2128	5	183	307	3332
108	0	0	2125	6	184	306	3332
109	0	0	2107	5	183	307	3332
110	0	0	2106	5	185	307	3331
111	0	0	2114	5	184	307	3329
112	0	0	2118	5	183	305	3329
113	0	0	2098	4	184	307	3329
114	0	0	2066	4	184	307	3330
115	0	0	2039	4	182	307	3331
116	0	0	2032	5	184	307	3331
117	0	0	2029	5	184	306	3332
118	0	0	2012	4	184	307	3332
119	0	0	1984	4	184	307	3333
120	0	0	1970	5	184	306	3331
121	0	0	1975	6	184	307	3329
122	0	0	1998	5	184	306	3329
123	0	0	2025	5	183	307	3330
124	0	0	2034	5	182	308	3330
125	0	0	2033	5	184	307	3331
126	0	0	2041	5	184	307	3331
127	0	0	2051	5	184	306	3332
0	0	0	2062	4	184	307	3332
1	0	0	2086	5	184	307	3333
2	0	0	2098	5	184	306	3331
3	0	0	2094	5	184	307	3329
4	0	0	2076	5	184	307	3329
5	0	0	2058	5	184	307	3329
6	0	0	2065	5	186	307	3330
7	0	0	2082	5	183	307	3331
8	0	0	2108	4	183	307	3332
9	0	0	2136	5	184	306	3333
10	0	0	2165	5	183	306	3333
11	0	0	2189	5	184	307	3332
12	0	0	2204	5	183	307	3331
13	0	0	2199	5	184	307	3329
14	0	0	2197	5	184	306	3329
15	0	0	2219	5	183	307	3329
16	0	0	2233	5	183	307	3330
17	0	0	2237	5	183	307	3331
18	0	0	2270	4	184	306	3332
19	0	0	2319	5	184	307	3333
20	0	0	2355	4	183	307	3332
21	0	0	2369	5	184	307	3333
22	0	0	2368	5	184	307	3332
23	0	0	2359	5	184	307	3329
24	0	0	2347	5	183	306	3329
25	0	0	2335	5	183	307	3329
26	0	0	2334	5	184	307	3331
27	0	0	2325	5	182	307	3331
28	0	0	2299	4	184	307	3332
29	0	0	2275	5	184	307	3333
30	0	0	2264	5	184	306	3332
31	0	0	2273	5	182	307	3332
32	0	0	2282	6	184	307	3331
33	0	0	2250	4	183	307	3330
34	0	0	2227	5	183	307	3330
35	0	0	2225	5	184	307	3329
36	0	0	2219	5	183	306	3330
37	0	0	2186	4	184	307	3331
38	0	0	2125	4	184	307	3331
39	0	0	2071	4	184	306	3332
40	0	0	2017	4	183	307	3332
41	0	0	1970	5	184	307	3332
42	0	0	1946	4	183	307	3331
43	0	0	1932	4	184	307	3331
44	0	0	1924	5	184	307	3329
45	0	0	1908	4	184	306	3330
46	0	0	1883	4	186	307	3330
47	0	0	1859	4	184	307	3331
48	0	0	1857	6	184	307	3332
49	0	0	1871	5	184	307	3332
50	0	0	1890	5	183	307	3332
51	0	0	1899	4	183	307	3333
52	0	0	1913	5	183	307	3331
53	0	0	1898	3	184	307	3329
54	0	0	1874	4	183	307	3330
55	0	0	1884	5	184	307	3329
56	0	0	1914	5	183	306	3330
57	0	0	1922	5	183	307	3331
58	0	0	1923	6	183	307	3332
59	0	0	1942	5	184	307	3332
60	0	0	1969	5	184	307	3332
61	0	0	1983	5	184	306	3332
62	0	0	1986	5	185	306	3331
63	0	0	1983	4	184	307	3330
64	0	0	1972	4	184	307	3329
65	0	0	1938	4	184	307	3329
66	0	0	1906	5	184	307	3330
67	0	0	1907	6	184	307	3331
68	0	0	1924	5	183	307	3332
69	0	0	1953	5	183	307	3332
70	0	0	1977	5	183	306	3332
71	0	0	1982	5	184	307	3332
72	0	0	1977	5	184	306	3331
73	0	0	1972	6	184	307	3330
74	0	0	1984	5	183	307	3330
75	0	0	2003	4	184	307	3329
76	0	0	2032	5	183	307	3331
77	0	0	2072	5	183	307	3331
78	0	0	2106	5	184	307	3332
79	0	0	2109	5	184	307	3333
80	0	0	2086	5	183	307	3332
81	0	0	2070	4	185	307	3333
82	0	0	2061	5	183	307	3332
83	0	0	2057	6	184	307	3330
84	0	0	2053	5	183	307	3329
85	0	0	2053	5	183	307	3329
86	0	0	2053	6	184	307	3330
87	0	0	2075	5	182	307	3331
88	0	0	2096	5	184	307	3332
89	0	0	2091	5	184	307	3332
90	0	0	2060	4	183	307	3332
91	0	0	2044	6	183	307	3332
92	0	0	2048	6	183	306	3331
93	0	0	2049	6	184	307	3329
94	0	0	2040	5	183	307	3329
95	0	0	2042	5	183	306	3329
96	0	0	2052	5	184	306	3330
97	0	0	2053	5	183	306	3331
98	0	0	2040	5	183	307	3331
99	0	0	2032	5	183	307	3332
100	0	0	2032	5	184	307	3333
101	0	0	2033	5	184	307	3333
102	0	0	2037	5	184	307	3331
103	0	0	2062	5	184	307	3330
104	0	0	2083	5	183	307	3330
105	0	0	2089	5	184	307	3329
106	0	0	2070	4	184	307	3330
107	0	0	2055	5	184	307	3331
108	0	0	2056	5	184	306	3332
109	0	0	2068	5	184	307	3333
110	0	0	2078	5	184	307	3332
111	0	0	2087	3	185	307	3333
112	0	0	2083	5	182	307	3331
113	0	0	2077	5	184	307	3329
114	0	0	2073	5	183	307	3329
115	0	0	2053	4	184	307	3329
116	0	0	2040	6	183	307	3330
117	0	0	2053	5	181	306	3331
118	0	0	2088	5	184	307	3332
119	0	0	2128	5	184	307	3332
120	0	0	2152	4	184	307	3333
121	0	0	2162	5	186	307	3332
122	0	0	2164	5	183	307	3331
123	0	0	2151	4	184	307	3330
124	0	0	2125	4	183	306	3329
125	0	0	2104	4	184	306	3329
126	0	0	2094	4	184	307	3331
127	0	0	2095	5	183	307	3331
0	0	0	2088	5	184	307	3332
1	0	0	2094	5	183	307	3332
2	0	0	2093	5	183	307	3332
3	0	0	2074	5	185	307	3331
4	0	0	2057	4	183	307	3331
5	0	0	2046	5	184	307	3331
6	0	0	2051	5	184	307	3329
7	0	0	2082	5	183	307	3330
8	0	0	2119	5	183	307	3330
9	0	0	2140	5	182	307	3331
10	0	0	2147	5	184	307	3332
11	0	0	2149	5	183	307	3332
12	0	0	2153	5	184	307	3332
13	0	0	2155	5	183	307	3332
14	0	0	2151	6	185	306	3331
15	0	0	2140	5	184	307	3330
16	0	0	2132	5	184	307	3330
17	0	0	2126	5	183	307	3329
18	0	0	2127	5	184	306	3331
19	0	0	2117	4	184	307	3331
20	0	0	2089	4	184	307	3331
21	0	0	2082	5	183	307	3332
22	0	0	2091	4	184	307	3332
23	0	0	2101	6	184	307	3332
24	0	0	2111	5	184	307	3331
25	0	0	2119	5	184	307	3330
26	0	0	2128	5	185	307	3329
27	0	0	2116	5	183	307	3329
28	0	0	2093	4	183	307	3329
29	0	0	2088	5	184	307	3331
30	0	0	2095	5	183	307	3332
31	0	0	2089	5	184	307	3332
32	0	0	2087	5	184	307	3333
33	0	0	2108	5	185	307	3331
34	0	0	2128	5	182	306	3331
35	0	0	2146	5	184	306	3330
36	0	0	2152	5	183	307	3329
37	0	0	2126	4	183	307	3330
38	0	0	2086	4	185	307	3329
39	0	0	2052	4	184	307	3330
40	0	0	2026	4	183	307	3331
41	0	0	2026	5	184	306	3332
42	0	0	2046	5	184	307	3332
43	0	0	2066	5	183	307	3331
44	0	0	2075	5	183	306	3331
45	0	0	2066	4	184	307	3329
46	0	0	2057	5	183	307	3329
47	0	0	2046	5	183	307	3329
48	0	0	2032	5	184	307	3329
49	0	0	2006	5	183	306	3330
50	0	0	1985	4	184	307	3331
51	0	0	1987	5	184	307	3333
52	0	0	2012	5	184	307	3331
53	0	0	2043	5	184	307	3332
54	0	0	2032	4	184	307	3331
55	0	0	1989	4	184	307	3329
56	0	0	1966	4	184	307	3329
57	0	0	1950	4	184	307	3329
58	0	0	1961	5	185	306	3329
59	0	0	1981	5	184	307	3330
60	0	0	1980	4	184	307	3331
61	0	0	1974	5	184	306	3331
62	0	0	1966	5	184	306	3331
63	0	0	1961	5	183	307	3331
64	0	0	1981	5	184	306	3330
65	0	0	2012	4	183	307	3329
66	0	0	2038	5	184	307	3328
67	0	0	2042	5	184	307	3328
68	0	0	2029	5	183	307	3329
69	0	0	2029	6	183	306	3330
70	0	0	2022	4	185	307	3331
71	0	0	2017	5	184	307	3332
72	0	0	2011	5	183	307	3331
73	0	0	2023	5	184	306	3332
74	0	0	2031	5	183	307	3331
75	0	0	2019	4	184	307	3329
76	0	0	2004	4	184	307	3329
77	0	0	1981	4	184	307	3328
78	0	0	1956	4	184	307	3330
79	0	0	1936	5	183	307	3330
80	0	0	1925	4	184	307	3331
81	0	0	1914	4	183	307	3331
82	0	0	1911	5	184	307	3331
83	0	0	1936	5	184	307	3331
84	0	0	1977	5	184	306	3330
85	0	0	1989	4	183	306	3328
86	0	0	1954	4	184	307	3328
87	0	0	1920	4	184	307	3328
88	0	0	1919	5	183	306	3329
89	0	0	1943	5	183	307	3330
90	0	0	1999	5	184	307	3331
91	0	0	2053	5	183	306	3331
92	0	0	2069	5	184	307	3332
93	0	0	2051	4	185	307	3331
94	0	0	2030	5	185	307	3330
95	0	0	2028	5	183	306	3329
96	0	0	2024	5	184	307	3328
97	0	0	2025	5	184	306	3328
98	0	0	2017	4	184	307	3328
99	0	0	1998	4	184	306	3329
100	0	0	1974	4	183	307	3331
101	0	0	1940	4	184	307	3331
102	0	0	1910	4	183	307	3331
103	0	0	1907	5	183	307	3331
104	0	0	1918	5	183	306	3330
105	0	0	1919	4	184	307	3329
106	0	0	1911	5	184	307	3329
107	0	0	1913	5	183	307	3328
108	0	0	1926	5	184	306	3329
109	0	0	1941	5	184	307	3329
110	0	0	1959	5	183	306	3331
111	0	0	1971	5	184	306	3331
112	0	0	1975	5	184	306	3331
113	0	0	1973	4	184	307	3330
114	0	0	1968	5	184	306	3330
115	0	0	1952	3	184	307	3328
116	0	0	1927	4	183	306	3328
117	0	0	1903	4	184	306	3328
118	0	0	1902	5	184	306	3329
119	0	0	1929	5	184	307	3330
120	0	0	1967	5	183	306	3331
121	0	0	1998	5	184	307	3332
122	0	0	2003	5	184	307	3331
123	0	0	1999	4	183	306	3331
124	0	0	2002	5	183	307	3329
125	0	0	1991	5	184	307	3328
126	0	0	1971	5	183	307	3328
127	0	0	1958	5	183	308	3328
0	0	0	1955	5	184	306	3328
1	0	0	1956	5	184	307	3329
2	0	0	1965	4	183	307	3330
3	0	0	1986	5	184	307	3331
4	0	0	2009	5	184	307	3331
5	0	0	2005	5	183	307	3330
6	0	0	1981	4	183	306	3329
7	0	0	1979	5	184	306	3328
8	0	0	1990	5	184	306	3328
9	0	0	1994	5	184	306	3327
10	0	0	1997	5	185	306	3328
11	0	0	1992	4	184	306	3329
12	0	0	1983	5	184	307	3330
13	0	0	1996	5	184	307	3331
14	0	0	2017	5	184	307	3330
15	0	0	2019	5	183	306	3331
16	0	0	2016	5	183	307	3330
17	0	0	2033	5	183	307	3328
18	0	0	2048	5	183	307	3328
19	0	0	2012	5	183	306	3327
20	0	0	1968	4	183	306	3328
21	0	0	1960	5	184	307	3330
22	0	0	1989	5	183	307	3330
23	0	0	2010	5	183	307	3331
24	0	0	2016	6	184	307	3330
25	0	0	2021	5	185	306	3331
26	0	0	2012	5	183	307	3330
27	0	0	2004	4	183	307	3328
28	0	0	1995	4	184	307	3328
29	0	0	1974	4	185	307	3327
30	0	0	1958	6	183	306	3328
31	0	0	1971	5	183	307	3329
32	0	0	1987	5	184	307	3330
33	0	0	1994	5	183	307	3330
34	0	0	1999	4	183	307	3330
35	0	0	2010	5	183	306	3329
36	0	0	2025	5	184	307	3329
37	0	0	2029	4	184	307	3328
38	0	0	2008	5	184	307	3328
39	0	0	2010	5	183	306	3327
40	0	0	2029	5	184	306	3328
41	0	0	2046	5	183	307	3328
42	0	0	2038	5	183	307	3330
43	0	0	2025	5	184	306	3330
44	0	0	2016	5	184	306	3330
45	0	0	1979	4	184	307	3331
46	0	0	1944	4	184	307	3329
47	0	0	1946	4	184	306	3328
48	0	0	1971	5	183	307	3328
49	0	0	1992	5	183	306	3327
50	0	0	2006	5	184	306	3328
51	0	0	1999	5	184	307	3329
52	0	0	1971	4	184	306	3330
53	0	0	1952	5	184	307	3330
54	0	0	1930	4	184	307	3330
55	0	0	1894	5	183	306	3330
56	0	0	1877	4	184	307	3329
57	0	0	1889	4	184	307	3328
58	0	0	1916	5	184	307	3327
59	0	0	1945	5	184	307	3327
60	0	0	1972	5	184	307	3327
61	0	0	1995	5	183	307	3328
62	0	0	2001	4	183	307	3329
63	0	0	2008	5	185	307	3330
64	0	0	2014	4	184	307	3329
65	0	0	2011	5	183	307	3330
66	0	0	1991	4	184	307	3329
67	0	0	1972	3	184	307	3327
68	0	0	1959	5	184	307	3326
69	0	0	1961	5	184	307	3327
70	0	0	1979	5	185	306	3327
71	0	0	1985	5	184	306	3328
72	0	0	1954	4	183	306	3329
73	0	0	1927	4	183	307	3329
74	0	0	1926	5	183	307	3329
75	0	0	1933	6	184	307	3330
76	0	0	1954	5	184	307	3328
77	0	0	1990	5	183	306	3327
78	0	0	2003	5	183	307	3326
79	0	0	1998	5	183	307	3326
80	0	0	1982	5	185	307	3327
81	0	0	1960	4	185	307	3328
82	0	0	1948	4	184	307	3329
83	0	0	1950	5	183	306	3329
84	0	0	1950	5	183	307	3330
85	0	0	1953	5	185	306	3329
86	0	0	1969	5	184	307	3328
87	0	0	2002	5	183	307	3328
88	0	0	2016	5	184	307	3326
89	0	0	2003	4	184	307	3327
90	0	0	1993	5	184	306	3327
91	0	0	1978	4	184	307	3328
92	0	0	1961	5	184	307	3328
93	0	0	1963	5	183	307	3329
94	0	0	1971	5	183	307	3329
95	0	0	1976	5	184	306	3329
96	0	0	1972	5	184	307	3328
97	0	0	1982	4	183	307	3327
98	0	0	1990	5	184	307	3327
99	0	0	1993	6	184	306	3326
100	0	0	1996	6	184	307	3327
101	0	0	2005	5	183	307	3328
102	0	0	1999	5	184	306	3329
103	0	0	1998	5	183	307	3329
104	0	0	2019	5	184	307	3329
105	0	0	2034	5	184	306	3329
106	0	0	2024	4	184	307	3328
107	0	0	2010	4	184	307	3327
108	0	0	1994	4	184	307	3326
109	0	0	1964	4	184	306	3326
110	0	0	1940	5	184	306	3327
111	0	0	1926	5	182	306	3328
112	0	0	1904	4	183	307	3328
113	0	0	1872	4	184	306	3329
114	0	0	1854	5	183	307	3329
115	0	0	1860	5	183	306	3329
116	0	0	1867	5	183	307	3328
117	0	0	1865	5	183	306	3327
118	0	0	1885	5	183	306	3326
119	0	0	1929	5	185	307	3326
120	0	0	1971	5	183	307	3327
121	0	0	1988	5	184	307	3327
122	0	0	1988	5	184	307	3328
123	0	0	1983	5	184	307	3329
124	0	0	1978	5	184	307	3330
125	0	0	1980	5	184	308	3329
126	0	0	1964	5	185	307	3327
127	0	0	1954	5	184	306	3327
0	0	0	1946	4	184	307	3327
1	0	0	1923	5	184	306	3326
2	0	0	1891	4	183	306	3327
3	0	0	1862	4	184	306	3327
4	0	0	1874	5	184	307	3328
5	0	0	1903	5	184	307	3329
6	0	0	1926	5	184	307	3330
7	0	0	1946	5	183	306	3328
8	0	0	1975	5	184	307	3327
9	0	0	1985	5	182	307	3327
10	0	0	1978	5	184	307	3326
11	0	0	1980	5	183	306	3326
12	0	0	1981	5	184	306	3327
13	0	0	1968	5	183	307	3328
14	0	0	1967	5	184	307	3328
15	0	0	1975	5	184	306	3328
16	0	0	1980	5	183	306	3329
17	0	0	1979	5	183	308	3328
18	0	0	1974	5	184	306	3328
19	0	0	1976	5	184	307	3326
20	0	0	1979	5	184	307	3326
21	0	0	1974	5	184	307	3327
22	0	0	1971	5	184	306	3326
23	0	0	1968	5	185	306	3327
24	0	0	1969	5	184	307	3328
25	0	0	1986	5	184	307	3329
26	0	0	1999	5	184	306	3328
27	0	0	1962	4	184	307	3329
28	0	0	1925	4	184	307	3328
29	0	0	1922	5	184	307	3326
30	0	0	1929	5	183	306	3326
31	0	0	1939	5	184	307	3326
32	0	0	1938	5	183	307	3326
33	0	0	1929	5	183	306	3327
34	0	0	1934	5	184	307	3328
35	0	0	1946	5	184	307	3329
36	0	0	1947	5	183	306	3328
37	0	0	1955	5	184	306	3328
38	0	0	1970	5	185	306	3327
39	0	0	1977	5	183	307	3327
40	0	0	1972	5	184	307	3326
41	0	0	1963	5	184	307	3326
42	0	0	1964	6	184	307	3326
43	0	0	1959	4	184	306	3327
44	0	0	1943	5	183	307	3328
45	0	0	1932	5	183	307	3328
46	0	0	1932	5	184	307	3328
47	0	0	1951	5	184	307	3328
48	0	0	1984	5	183	306	3328
49	0	0	2011	5	184	307	3327
50	0	0	2021	5	185	307	3325
51	0	0	2002	4	183	307	3325
52	0	0	1975	4	184	307	3327
53	0	0	1961	5	185	307	3328
54	0	0	1961	5	184	308	3328
55	0	0	1960	5	184	307	3329
56	0	0	1984	5	184	307	3330
57	0	0	2023	5	184	306	3328
58	0	0	2028	5	184	307	3328
59	0	0	2015	4	184	307	3327
60	0	0	1995	4	184	307	3326
61	0	0	1972	4	184	307	3326
62	0	0	1965	5	184	306	3326
63	0	0	1976	5	184	307	3328
64	0	0	1982	5	184	307	3328
65	0	0	1972	4	184	307	3328
66	0	0	1960	5	184	306	3329
67	0	0	1950	5	183	307	3328
68	0	0	1953	5	183	307	3328
69	0	0	1979	5	183	307	3327
70	0	0	2013	5	183	307	3326
71	0	0	2031	5	184	307	3326
72	0	0	2029	5	184	307	3326
73	0	0	2003	4	184	306	3328
74	0	0	1973	5	183	307	3328
75	0	0	1966	5	184	307	3328
76	0	0	1985	5	183	307	3329
77	0	0	1999	5	183	308	3328
78	0	0	2002	5	184	307	3328
79	0	0	2003	5	183	306	3326
80	0	0	2012	5	183	307	3326
81	0	0	2010	5	183	306	3326
82	0	0	2005	5	184	307	3326
83	0	0	2002	5	184	307	3327
84	0	0	2009	5	183	306	3328
85	0	0	2040	5	184	307	3328
86	0	0	2073	5	184	307	3328
87	0	0	2070	4	185	307	3328
88	0	0	2063	5	184	306	3328
89	0	0	2067	5	184	307	3327
90	0	0	2064	5	183	307	3326
91	0	0	2065	5	184	307	3327
92	0	0	2066	5	183	307	3326
93	0	0	2063	5	185	306	3327
94	0	0	2065	5	184	307	3329
95	0	0	2079	5	184	307	3329
96	0	0	2086	5	184	306	3328
97	0	0	2083	5	184	307	3329
98	0	0	2073	4	184	307	3328
99	0	0	2057	5	184	307	3326
100	0	0	2056	5	184	307	3326
101	0	0	2045	5	184	306	3326
102	0	0	2019	4	184	307	3327
103	0	0	2001	4	183	307	3328
104	0	0	1979	5	183	307	3328
105	0	0	1961	4	184	307	3329
106	0	0	1956	5	184	306	3328
107	0	0	1958	5	184	307	3329
108	0	0	1958	5	184	307	3328
109	0	0	1980	5	185	307	3326
110	0	0	2013	5	183	307	3326
111	0	0	2014	5	184	307	3325
112	0	0	1998	4	184	307	3326
113	0	0	1988	5	184	306	3327
114	0	0	1994	5	184	307	3328
115	0	0	2015	5	184	307	3328
116	0	0	2041	5	183	307	3329
117	0	0	2064	5	184	307	3328
118	0	0	2066	5	185	307	3327
119	0	0	2065	5	184	307	3326
120	0	0	2093	5	184	306	3325
121	0	0	2108	5	184	307	3326
122	0	0	2099	5	184	307	3326
123	0	0	2081	4	184	307	3327
124	0	0	2060	4	183	306	3328
125	0	0	2046	5	184	307	3329
126	0	0	2038	4	183	307	3328
127	0	0	2043	5	184	307	3328
0	0	0	2067	5	184	306	3328
1	0	0	2075	5	184	307	3326
2	0	0	2068	5	184	307	3325
3	0	0	2064	5	184	307	3325
4	0	0	2071	4	183	307	3326
5	0	0	2076	5	184	306	3327
6	0	0	2056	4	183	307	3328
7	0	0	2055	5	184	307	3328
8	0	0	2064	5	183	306	3329
9	0	0	2059	5	184	306	3328
10	0	0	2070	5	185	306	3327
11	0	0	2103	5	185	307	3326
12	0	0	2110	5	184	307	3326
13	0	0	2075	4	184	307	3325
14	0	0	2050	5	184	307	3326
15	0	0	2060	5	185	306	3327
16	0	0	2092	5	185	307	3328
17	0	0	2121	5	184	307	3328
18	0	0	2100	4	184	307	3328
19	0	0	2074	4	184	307	3328
20	0	0	2063	4	184	306	3327
21	0	0	2052	5	184	307	3326
22	0	0	2055	5	184	307	3325
23	0	0	2067	5	184	307	3326
24	0	0	2088	4	184	307	3326
25	0	0	2104	5	184	306	3327
26	0	0	2123	5	184	307	3328
27	0	0	2140	5	183	306	3328
28	0	0	2149	4	184	307	3329
29	0	0	2143	4	184	306	3328
30	0	0	2130	4	184	306	3327
31	0	0	2118	5	183	307	3327
32	0	0	2103	4	184	307	3325
33	0	0	2096	5	185	306	3325
34	0	0	2093	5	183	307	3326
35	0	0	2095	5	183	306	3327
36	0	0	2102	5	184	307	3328
37	0	0	2078	4	184	307	3328
38	0	0	2051	5	183	307	3328
39	0	0	2030	4	184	307	3328
40	0	0	2023	5	183	307	3327
41	0	0	2031	5	182	307	3326
42	0	0	2064	5	184	307	3326
43	0	0	2089	5	183	306	3325
44	0	0	2101	5	184	307	3326
45	0	0	2105	5	184	306	3327
46	0	0	2101	5	184	307	3328
47	0	0	2116	5	184	306	3328
48	0	0	2152	5	184	307	3328
49	0	0	2163	5	184	307	3328
50	0	0	2153	5	185	307	3327
51	0	0	2151	5	184	307	3326
52	0	0	2139	5	184	307	3326
53	0	0	2118	5	184	307	3325
54	0	0	2115	5	184	307	3326
55	0	0	2132	5	185	306	3327
56	0	0	2144	5	183	307	3328
57	0	0	2142	5	183	307	3328
58	0	0	2131	5	184	307	3329
59	0	0	2119	5	184	307	3328
60	0	0	2112	5	184	305	3327
61	0	0	2122	5	184	307	3326
62	0	0	2120	5	184	307	3325
63	0	0	2094	4	183	307	3325
64	0	0	2091	5	182	307	3326
65	0	0	2098	5	184	307	3327
66	0	0	2111	5	183	307	3328
67	0	0	2119	5	183	307	3328
68	0	0	2114	5	183	307	3328
69	0	0	2103	4	184	307	3328
70	0	0	2109	5	183	306	3327
71	0	0	2128	5	184	307	3326
72	0	0	2140	5	184	307	3325
73	0	0	2146	5	184	307	3325
74	0	0	2155	5	184	307	3326
75	0	0	2154	5	185	306	3327
76	0	0	2142	5	183	307	3328
77	0	0	2120	4	185	307	3328
78	0	0	2121	5	184	307	3329
79	0	0	2160	5	184	308	3328
80	0	0	2192	5	183	305	3327
81	0	0	2193	5	183	307	3327
82	0	0	2169	4	184	307	3324
83	0	0	2158	5	184	307	3325
84	0	0	2153	5	184	306	3326
85	0	0	2130	4	185	306	3326
86	0	0	2098	4	185	307	3327
87	0	0	2067	4	183	307	3328
88	0	0	2048	5	184	306	3328
89	0	0	2055	5	184	307	3328
90	0	0	2081	5	184	307	3327
91	0	0	2114	5	184	307	3326
92	0	0	2127	5	185	307	3324
93	0	0	2115	5	184	306	3325
94	0	0	2111	5	184	306	3326
95	0	0	2099	4	185	307	3326
96	0	0	2079	4	185	307	3327
97	0	0	2071	5	184	306	3328
98	0	0	2075	5	184	307	3328
99	0	0	2081	5	184	307	3328
100	0	0	2075	5	184	307	3328
101	0	0	2085	5	184	306	3326
102	0	0	2123	5	183	306	3325
103	0	0	2176	5	183	306	3326
104	0	0	2205	5	184	306	3326
105	0	0	2204	5	184	306	3327
106	0	0	2206	5	184	307	3328
107	0	0	2203	5	184	307	3327
108	0	0	2188	4	183	306	3328
109	0	0	2161	4	183	307	3328
110	0	0	2132	4	184	307	3327
111	0	0	2134	5	184	307	3326
112	0	0	2157	5	184	306	3324
113	0	0	2169	5	183	307	3325
114	0	0	2172	5	183	306	3326
115	0	0	2163	4	185	306	3326
116	0	0	2139	5	185	307	3328
117	0	0	2126	5	184	306	3327
118	0	0	2119	5	184	307	3328
119	0	0	2114	5	183	306	3328
120	0	0	2112	5	185	307	3327
121	0	0	2116	5	185	307	3326
122	0	0	2136	5	184	307	3326
123	0	0	2155	5	184	306	3325
124	0	0	2156	5	183	307	3325
125	0	0	2163	5	184	307	3326
126	0	0	2181	5	183	306	3327
127	0	0	2198	5	184	307	3327
0	0	0	2192	5	183	307	3328
1	0	0	2174	5	183	307	3328
2	0	0	2155	4	184	307	3328
3	0	0	2129	5	185	307	3326
4	0	0	2100	4	184	306	3324
5	0	0	2089	4	185	307	3325
6	0	0	2093	5	185	307	3325
7	0	0	2102	5	184	307	3326
8	0	0	2118	5	184	307	3328
9	0	0	2138	5	184	307	3327
10	0	0	2158	5	184	307	3328
11	0	0	2163	5	183	307	3328
12	0	0	2152	5	184	306	3327
13	0	0	2126	4	184	307	3325
14	0	0	2110	5	183	307	3324
15	0	0	2122	6	184	307	3324
16	0	0	2131	5	184	307	3325
17	0	0	2132	5	184	307	3327
18	0	0	2136	5	184	307	3327
19	0	0	2157	5	184	306	3327
20	0	0	2181	4	183	307	3329
21	0	0	2184	5	184	307	3328
22	0	0	2157	4	184	306	3327
23	0	0	2148	5	184	307	3326
24	0	0	2158	5	183	307	3324
25	0	0	2156	5	184	307	3324
26	0	0	2149	4	184	307	3325
27	0	0	2145	5	184	306	3327
28	0	0	2144	5	185	307	3327
29	0	0	2145	5	184	306	3327
30	0	0	2169	6	184	307	3327
31	0	0	2192	5	184	307	3327
32	0	0	2201	5	184	306	3327
33	0	0	2199	5	184	307	3325
34	0	0	2197	5	183	307	3325
35	0	0	2178	4	184	307	3324
36	0	0	2146	5	183	306	3326
37	0	0	2121	4	184	306	3327
38	0	0	2098	4	184	307	3327
39	0	0	2091	5	184	307	3327
40	0	0	2109	5	184	306	3328
41	0	0	2126	5	183	307	3327
42	0	0	2138	5	184	307	3326
43	0	0	2147	5	184	307	3325
44	0	0	2153	5	184	307	3324
45	0	0	2151	4	184	306	3325
46	0	0	2143	5	184	307	3326
47	0	0	2147	5	184	307	3326
48	0	0	2166	5	183	307	3327
49	0	0	2167	5	184	307	3327
50	0	0	2162	5	183	307	3327
51	0	0	2159	5	183	307	3327
52	0	0	2150	5	184	307	3328
53	0	0	2156	5	183	306	3325
54	0	0	2171	5	184	307	3324
55	0	0	2178	4	184	307	3325
56	0	0	2169	5	184	307	3326
57	0	0	2158	5	184	307	3326
58	0	0	2147	3	185	307	3327
59	0	0	2135	5	183	307	3328
60	0	0	2125	5	184	307	3327
61	0	0	2113	5	185	306	3327
62	0	0	2100	5	185	307	3326
63	0	0	2110	5	184	306	3325
64	0	0	2121	5	184	306	3324
65	0	0	2128	5	184	307	3324
66	0	0	2150	5	184	306	3324
67	0	0	2185	5	184	308	3326
68	0	0	2192	5	183	307	3328
69	0	0	2154	5	184	307	3327
70	0	0	2120	4	184	306	3327
71	0	0	2096	5	184	306	3327
72	0	0	2091	5	184	306	3327
73	0	0	2091	5	183	307	3325
74	0	0	2100	5	185	307	3325
75	0	0	2114	5	184	307	3324
76	0	0	2147	5	185	307	3325
77	0	0	2177	5	183	307	3326
78	0	0	2190	5	184	307	3327
79	0	0	2171	4	185	307	3327
80	0	0	2151	4	183	307	3328
81	0	0	2131	4	184	306	3327
82	0	0	2126	5	184	306	3327
83	0	0	2132	5	183	306	3325
84	0	0	2124	5	184	306	3324
85	0	0	2098	6	184	307	3324
86	0	0	2106	5	184	307	3325
87	0	0	2131	5	184	307	3327
88	0	0	2138	5	184	306	3327
89	0	0	2143	5	184	306	3327
90	0	0	2152	5	185	307	3327
91	0	0	2151	5	184	307	3327
92	0	0	2159	5	185	308	3326
93	0	0	2173	5	184	307	3326
94	0	0	2184	5	184	307	3324
95	0	0	2197	5	184	306	3324
96	0	0	2191	4	183	306	3325
97	0	0	2169	4	183	307	3325
98	0	0	2147	4	183	307	3327
99	0	0	2134	4	184	307	3327
100	0	0	2121	5	184	307	3327
101	0	0	2118	5	183	307	3327
102	0	0	2125	5	184	307	3327
103	0	0	2144	5	182	307	3325
104	0	0	2161	5	184	307	3325
105	0	0	2140	5	184	307	3324
106	0	0	2114	5	183	307	3325
107	0	0	2114	5	184	307	3326
108	0	0	2110	5	183	307	3327
109	0	0	2098	5	184	306	3327
110	0	0	2083	5	184	307	3327
111	0	0	2072	5	184	307	3327
112	0	0	2079	5	183	307	3326
113	0	0	2075	5	184	306	3325
114	0	0	2058	4	183	307	3324
115	0	0	2048	5	184	307	3324
116	0	0	2051	5	182	306	3324
117	0	0	2067	5	184	306	3325
118	0	0	2093	5	184	307	3327
119	0	0	2123	5	183	307	3327
120	0	0	2138	5	185	307	3327
121	0	0	2129	4	184	306	3327
122	0	0	2119	5	185	307	3327
123	0	0	2122	5	184	307	3325
124	0	0	2136	5	184	307	3324
125	0	0	2141	6	183	306	3324
126	0	0	2147	4	183	307	3324
127	0	0	2149	5	184	308	3325
0	0	0	2147	5	184	307	3327
1	0	0	2137	5	183	307	3326
2	0	0	2116	4	184	307	3328
3	0	0	2094	4	183	307	3327
4	0	0	2084	4	184	306	3326
5	0	0	2077	5	184	306	3325
6	0	0	2066	4	183	307	3324
7	0	0	2041	5	183	307	3324
8	0	0	2030	4	183	307	3325
9	0	0	2050	5	183	307	3326
10	0	0	2090	5	184	306	3326
11	0	0	2131	5	184	307	3327
12	0	0	2155	5	185	307	3327
13	0	0	2159	5	183	307	3326
14	0	0	2159	5	184	308	3326
15	0	0	2135	4	185	307	3325
16	0	0	2109	5	184	306	3323
17	0	0	2120	5	183	307	3324
18	0	0	2139	5	184	307	3325
19	0	0	2139	4	184	307	3326
20	0	0	2119	5	183	306	3326
21	0	0	2107	5	185	307	3326
22	0	0	2092	4	184	307	3327
23	0	0	2075	4	183	307	3327
24	0	0	2074	5	183	308	3326
25	0	0	2085	5	182	306	3324
26	0	0	2115	5	184	307	3323
27	0	0	2129	5	183	307	3324
28	0	0	2110	4	184	307	3324
29	0	0	2102	5	183	307	3325
30	0	0	2116	5	183	306	3327
31	0	0	2142	5	183	306	3326
32	0	0	2175	5	184	306	3328
33	0	0	2201	5	184	307	3326
34	0	0	2204	5	184	308	3326
35	0	0	2166	4	184	306	3324
36	0	0	2093	4	184	307	3324
37	0	0	2016	5	184	307	3324
38	0	0	1980	4	184	307	3324
39	0	0	1988	5	184	306	3325
40	0	0	1998	5	183	306	3326
41	0	0	2013	5	185	307	3327
42	0	0	2035	6	183	306	3327
43	0	0	2046	5	183	306	3327
44	0	0	2052	5	184	307	3326
45	0	0	2050	6	182	307	3324
46	0	0	2041	5	183	307	3323
47	0	0	2049	5	184	307	3323
48	0	0	2081	5	184	307	3324
49	0	0	2109	5	184	307	3325
50	0	0	2131	5	183	307	3326
51	0	0	2150	5	183	307	3326
52	0	0	2156	5	183	307	3326
53	0	0	2152	5	184	307	3326
54	0	0	2148	5	183	307	3326
55	0	0	2149	5	184	307	3325
56	0	0	2155	5	184	307	3323
57	0	0	2155	5	183	307	3323
58	0	0	2120	4	184	306	3324
59	0	0	2082	4	184	307	3326
60	0	0	2077	5	183	307	3326
61	0	0	2092	5	183	307	3326
62	0	0	2105	5	184	306	3326
63	0	0	2113	5	184	307	3326
64	0	0	2106	5	183	307	3326
65	0	0	2106	5	184	307	3325
66	0	0	2107	5	183	307	3323
67	0	0	2109	5	183	307	3323
68	0	0	2112	5	184	306	3324
69	0	0	2106	5	183	307	3324
70	0	0	2082	4	183	307	3326
71	0	0	2064	5	184	306	3327
72	0	0	2068	5	183	307	3326
73	0	0	2057	4	184	307	3326
74	0	0	2052	5	185	307	3326
75	0	0	2062	5	182	306	3324
76	0	0	2074	5	184	307	3323
77	0	0	2080	5	184	307	3324
78	0	0	2092	5	184	307	3324
79	0	0	2108	5	183	307	3325
80	0	0	2122	5	184	307	3326
81	0	0	2112	5	184	307	3326
82	0	0	2101	5	183	307	3326
83	0	0	2111	5	184	306	3326
84	0	0	2125	5	184	307	3325
85	0	0	2123	5	183	306	3324
86	0	0	2130	5	183	307	3323
87	0	0	2144	5	183	306	3323
88	0	0	2122	5	184	307	3324
89	0	0	2111	5	184	307	3324
90	0	0	2125	5	181	306	3326
91	0	0	2143	5	183	307	3327
92	0	0	2144	5	184	306	3326
93	0	0	2125	4	184	307	3326
94	0	0	2121	5	184	307	3326
95	0	0	2133	5	184	306	3324
96	0	0	2142	5	184	306	3323
97	0	0	2099	4	184	307	3323
98	0	0	2016	4	184	306	3324
99	0	0	1980	5	184	307	3324
100	0	0	2003	5	184	307	3326
101	0	0	2030	5	184	306	3326
102	0	0	2054	5	183	306	3326
103	0	0	2074	5	184	306	3326
104	0	0	2078	5	183	307	3325
105	0	0	2084	5	184	306	3324
106	0	0	2084	5	183	307	3324
107	0	0	2099	6	185	307	3323
108	0	0	2110	4	184	307	3324
109	0	0	2106	5	183	307	3325
110	0	0	2102	5	183	307	3325
111	0	0	2100	5	184	307	3326
112	0	0	2105	6	185	307	3326
113	0	0	2105	5	185	306	3326
114	0	0	2109	5	183	307	3326
115	0	0	2125	5	184	307	3324
116	0	0	2137	5	184	307	3323
117	0	0	2127	5	185	306	3323
118	0	0	2111	5	184	306	3323
119	0	0	2110	5	184	307	3324
120	0	0	2107	5	184	307	3325
121	0	0	2106	5	184	306	3325
122	0	0	2101	5	183	307	3326
123	0	0	2100	5	184	307	3326
124	0	0	2107	5	183	306	3324
125	0	0	2121	5	182	306	3324
126	0	0	2125	5	184	306	3323
127	0	0	2101	4	183	307	3323
0	0	0	2083	5	184	307	3324
1	0	0	2100	5	183	307	3324
2	0	0	2132	5	184	307	3326
3	0	0	2142	5	184	307	3325
4	0	0	2123	4	183	307	3326
5	0	0	2094	4	184	306	3326
6	0	0	2071	4	183	306	3325
7	0	0	2071	5	184	307	3324
8	0	0	2077	5	185	307	3322
9	0	0	2079	5	183	307	3323
10	0	0	2071	5	184	307	3323
11	0	0	2061	5	184	307	3324
12	0	0	2076	5	183	307	3325
13	0	0	2125	5	184	307	3326
14	0	0	2161	4	184	307	3325
15	0	0	2176	3	184	307	3325
16	0	0	2178	5	184	307	3324
17	0	0	2170	5	184	307	3323
18	0	0	2144	5	183	307	3322
19	0	0	2108	4	184	307	3322
20	0	0	2072	4	184	306	3323
21	0	0	2056	5	184	307	3324
22	0	0	2072	5	183	307	3326
23	0	0	2091	5	183	307	3325
24	0	0	2113	5	184	307	3326
25	0	0	2124	5	184	307	3325
26	0	0	2106	5	184	306	3325
27	0	0	2090	5	182	307	3323
28	0	0	2086	5	184	307	3322
29	0	0	2092	5	184	306	3322
30	0	0	2094	5	184	307	3323
31	0	0	2101	5	184	307	3323
32	0	0	2104	5	184	307	3325
33	0	0	2092	4	183	306	3325
34	0	0	2081	5	184	307	3325
35	0	0	2067	4	184	307	3325
36	0	0	2053	5	184	307	3324
37	0	0	2038	4	184	307	3323
38	0	0	2021	5	183	307	3323
39	0	0	2018	7	184	306	3322
40	0	0	2040	4	184	307	3323
41	0	0	2087	5	184	307	3324
42	0	0	2121	5	185	306	3325
43	0	0	2132	5	184	307	3326
44	0	0	2118	5	185	307	3325
45	0	0	2113	5	184	307	3325
46	0	0	2125	5	184	307	3325
47	0	0	2136	5	183	307	3323
48	0	0	2137	5	184	307	3322
49	0	0	2121	5	184	306	3322
50	0	0	2106	5	183	306	3323
51	0	0	2093	5	184	307	3323
52	0	0	2075	5	184	307	3324
53	0	0	2071	5	183	307	3325
54	0	0	2075	5	184	307	3325
55	0	0	2082	5	183	307	3325
56	0	0	2101	5	184	307	3324
57	0	0	2125	5	184	307	3324
58	0	0	2126	5	183	307	3322
59	0	0	2089	4	184	306	3323
60	0	0	2041	4	183	307	3322
61	0	0	2026	5	184	307	3323
62	0	0	2039	5	183	307	3324
63	0	0	2048	5	184	307	3325
64	0	0	2049	6	185	307	3325
65	0	0	2054	5	184	307	3325
66	0	0	2063	5	184	307	3324
67	0	0	2079	5	184	307	3323
68	0	0	2092	5	184	307	3322
69	0	0	2086	5	184	306	3322
70	0	0	2076	5	183	307	3322
71	0	0	2082	5	185	307	3323
72	0	0	2080	5	184	307	3325
73	0	0	2066	5	184	306	3325
74	0	0	2079	5	184	308	3325
75	0	0	2096	5	183	306	3325
76	0	0	2082	4	184	307	3324
77	0	0	2064	6	183	307	3323
78	0	0	2076	5	185	307	3321
79	0	0	2092	5	183	306	3321
80	0	0	2097	5	183	307	3322
81	0	0	2078	4	183	307	3323
82	0	0	2049	5	184	307	3324
83	0	0	2046	5	183	306	3324
84	0	0	2072	5	184	307	3325
85	0	0	2100	5	183	307	3325
86	0	0	2115	5	185	308	3324
87	0	0	2126	5	184	307	3323
88	0	0	2123	5	184	307	3321
89	0	0	2095	4	183	306	3323
90	0	0	2071	4	185	307	3322
91	0	0	2063	5	184	307	3323
92	0	0	2069	5	184	307	3325
93	0	0	2081	5	183	306	3324
94	0	0	2093	5	184	306	3324
95	0	0	2088	5	184	307	3325
96	0	0	2089	5	183	307	3324
97	0	0	2096	5	183	307	3323
98	0	0	2108	5	184	306	3321
99	0	0	2099	5	183	307	3321
100	0	0	2068	5	184	306	3322
101	0	0	2054	4	183	307	3323
102	0	0	2055	5	184	306	3324
103	0	0	2059	5	184	307	3324
104	0	0	2058	5	183	307	3325
105	0	0	2059	5	183	307	3324
106	0	0	2063	5	184	307	3324
107	0	0	2076	5	184	307	3323
108	0	0	2085	5	184	307	3321
109	0	0	2068	4	185	306	3322
110	0	0	2049	4	183	307	3323
111	0	0	2041	5	183	307	3323
112	0	0	2051	5	184	306	3324
113	0	0	2061	5	184	307	3324
114	0	0	2062	5	183	306	3324
115	0	0	2070	6	185	307	3324
116	0	0	2069	5	184	308	3323
117	0	0	2066	5	183	306	3322
118	0	0	2061	5	183	306	3322
119	0	0	2061	5	183	307	3321
120	0	0	2060	5	184	307	3322
121	0	0	2061	5	183	307	3323
122	0	0	2054	4	184	306	3324
123	0	0	2056	5	184	306	3324
124	0	0	2058	5	183	307	3324
125	0	0	2073	5	184	306	3324
126	0	0	2087	5	185	306	3323
127	0	0	2097	5	184	307	3322
0	0	0	2106	5	184	306	3321
1	0	0	2087	4	184	307	3321
2	0	0	2060	4	184	307	3321
3	0	0	2054	5	184	306	3322
4	0	0	2067	5	184	307	3324
5	0	0	2054	4	184	307	3324
6	0	0	2026	4	185	306	3325
7	0	0	2011	5	183	306	3325
8	0	0	2025	5	184	306	3323
9	0	0	2041	5	184	306	3322
10	0	0	2056	5	183	307	3321
11	0	0	2065	5	183	307	3321
12	0	0	2069	6	183	307	3322
13	0	0	2067	5	184	307	3322
14	0	0	2066	5	184	307	3323
15	0	0	2076	5	183	307	3325
16	0	0	2085	6	184	307	3324
17	0	0	2082	5	183	306	3324
18	0	0	2089	4	184	307	3323
19	0	0	2110	5	184	307	3322
20	0	0	2110	5	184	307	3321
21	0	0	2083	5	185	307	3321
22	0	0	2079	5	184	307	3321
23	0	0	2104	5	184	306	3323
24	0	0	2114	5	184	307	3324
25	0	0	2091	4	183	307	3324
26	0	0	2073	4	184	306	3324
27	0	0	2085	4	184	307	3324
28	0	0	2123	5	183	307	3324
29	0	0	2136	5	184	307	3322
30	0	0	2092	5	184	307	3322
31	0	0	2070	5	184	307	3321
32	0	0	2071	5	183	307	3321
33	0	0	2071	5	184	307	3323
34	0	0	2078	5	184	307	3323
35	0	0	2101	5	183	306	3324
36	0	0	2107	5	184	306	3324
37	0	0	2081	5	184	306	3324
38	0	0	2081	4	184	307	3323
39	0	0	2097	5	184	307	3322
40	0	0	2102	5	184	307	3321
41	0	0	2081	4	184	306	3321
42	0	0	2059	4	183	307	3322
43	0	0	2045	5	184	307	3323
44	0	0	2050	5	183	306	3323
45	0	0	2067	5	183	307	3323
46	0	0	2089	5	183	306	3324
47	0	0	2093	4	184	307	3324
48	0	0	2091	5	184	307	3323
49	0	0	2092	5	183	307	3322
50	0	0	2092	5	184	307	3321
51	0	0	2101	6	183	307	3320
52	0	0	2118	5	183	307	3321
53	0	0	2112	5	183	307	3323
54	0	0	2082	4	184	307	3323
55	0	0	2064	4	184	307	3323
56	0	0	2059	5	184	306	3324
57	0	0	2064	5	184	305	3324
58	0	0	2072	5	184	307	3323
59	0	0	2079	5	184	307	3322
60	0	0	2080	5	184	307	3320
61	0	0	2076	5	183	307	3320
62	0	0	2079	6	183	307	3321
63	0	0	2078	5	184	307	3322
64	0	0	2075	5	184	307	3323
65	0	0	2074	5	184	307	3324
66	0	0	2078	6	184	307	3323
67	0	0	2089	6	184	306	3323
68	0	0	2097	5	184	307	3323
69	0	0	2105	5	184	306	3322
70	0	0	2116	5	184	306	3320
71	0	0	2131	5	184	306	3320
72	0	0	2134	5	184	306	3322
73	0	0	2145	5	184	307	3322
74	0	0	2178	5	185	307	3323
75	0	0	2204	5	184	307	3323
76	0	0	2189	4	184	306	3323
77	0	0	2143	4	184	307	3323
78	0	0	2122	5	184	307	3323
79	0	0	2122	5	183	306	3322
80	0	0	2123	5	183	307	3320
81	0	0	2120	5	182	306	3320
82	0	0	2117	6	185	307	3320
83	0	0	2123	5	183	307	3322
84	0	0	2129	5	183	307	3323
85	0	0	2126	5	182	306	3323
86	0	0	2123	5	183	307	3323
87	0	0	2125	6	184	307	3323
88	0	0	2125	5	183	307	3323
89	0	0	2126	5	184	306	3321
90	0	0	2121	5	183	307	3320
91	0	0	2121	5	184	306	3320
92	0	0	2131	5	184	306	3320
93	0	0	2145	5	184	307	3322
94	0	0	2160	5	184	306	3323
95	0	0	2144	5	183	307	3323
96	0	0	2129	5	184	307	3323
97	0	0	2126	3	184	307	3324
98	0	0	2161	5	184	307	3323
99	0	0	2205	5	183	306	3321
100	0	0	2239	5	184	307	3320
101	0	0	2240	5	184	306	3320
102	0	0	2225	4	184	307	3321
103	0	0	2206	4	183	307	3322
104	0	0	2177	4	184	306	3323
105	0	0	2119	4	184	307	3323
106	0	0	2052	4	184	307	3323
107	0	0	2016	4	184	307	3323
108	0	0	2023	5	183	307	3322
109	0	0	2063	5	184	306	3321
110	0	0	2116	5	183	306	3320
111	0	0	2158	5	183	307	3320
112	0	0	2167	4	184	307	3320
113	0	0	2150	4	183	307	3322
114	0	0	2128	4	184	307	3323
115	0	0	2110	5	184	307	3324
116	0	0	2115	5	183	307	3324
117	0	0	2136	6	184	307	3323
118	0	0	2148	5	185	307	3323
119	0	0	2151	5	184	307	3321
120	0	0	2143	4	183	306	3320
121	0	0	2118	4	184	306	3321
122	0	0	2103	5	185	307	3322
123	0	0	2103	5	184	307	3321
124	0	0	2122	5	183	306	3322
125	0	0	2132	5	184	307	3324
126	0	0	2109	4	182	308	3323
127	0	0	2066	5	183	307	3323
0	0	0	2019	4	184	307	3323
1	0	0	1977	4	183	306	3321
2	0	0	1953	5	183	307	3320
3	0	0	1965	5	184	306	3321
4	0	0	2008	6	183	307	3320
5	0	0	2042	5	184	307	3321
6	0	0	2060	6	183	306	3322
7	0	0	2074	5	184	307	3323
8	0	0	2069	4	184	307	3323
9	0	0	2054	5	184	307	3323
10	0	0	2050	5	184	307	3322
11	0	0	2057	5	184	306	3321
12	0	0	2060	5	184	307	3321
13	0	0	2054	5	184	307	3320
14	0	0	2059	7	184	307	3320
15	0	0	2079	5	183	307	3322
16	0	0	2104	5	183	306	3322
17	0	0	2108	5	183	307	3324
18	0	0	2094	4	184	307	3323
19	0	0	2093	5	183	307	3323
20	0	0	2096	5	184	307	3323
21	0	0	2086	5	183	306	3321
22	0	0	2072	5	183	307	3320
23	0	0	2071	5	184	307	3320
24	0	0	2079	5	183	307	3320
25	0	0	2082	5	183	306	3321
26	0	0	2074	5	183	306	3322
27	0	0	2053	4	184	307	3322
28	0	0	2042	5	183	307	3323
29	0	0	2040	5	184	306	3322
30	0	0	2037	5	183	307	3322
31	0	0	2036	5	184	307	3321
32	0	0	2041	5	185	307	3319
33	0	0	2046	5	185	307	3320
34	0	0	2048	5	183	307	3320
35	0	0	2035	5	184	306	3321
36	0	0	2022	5	183	306	3322
37	0	0	2022	5	184	307	3322
38	0	0	2025	5	185	307	3322
39	0	0	2043	5	184	306	3323
40	0	0	2077	5	183	307	3323
41	0	0	2089	5	183	306	3320
42	0	0	2086	5	184	307	3319
43	0	0	2095	5	184	307	3319
44	0	0	2098	5	184	307	3320
45	0	0	2096	5	183	307	3320
46	0	0	2110	5	183	307	3322
47	0	0	2125	5	184	307	3322
48	0	0	2134	5	183	307	3322
49	0	0	2130	5	184	306	3322
50	0	0	2117	4	184	307	3322
51	0	0	2098	5	184	306	3320
52	0	0	2085	5	183	306	3320
53	0	0	2083	6	184	307	3319
54	0	0	2099	5	184	306	3320
55	0	0	2129	5	185	307	3320
56	0	0	2161	5	184	306	3322
57	0	0	2191	5	183	307	3322
58	0	0	2225	5	182	307	3322
59	0	0	2242	6	184	307	3322
60	0	0	2233	5	184	307	3321
61	0	0	2228	5	183	306	3321
62	0	0	2243	5	183	307	3319
63	0	0	2278	5	183	307	3320
64	0	0	2324	5	183	307	3320
65	0	0	2373	5	184	307	3320
66	0	0	2387	5	183	306	3322
67	0	0	2378	5	184	307	3322
68	0	0	2345	4	183	306	3322
69	0	0	2319	5	184	306	3322
70	0	0	2332	5	183	306	3321
71	0	0	2354	5	184	307	3320
72	0	0	2368	6	184	307	3320
73	0	0	2375	7	183	307	3319
74	0	0	2378	5	184	307	3319
75	0	0	2369	4	184	307	3320
76	0	0	2343	4	183	307	3322
77	0	0	2319	5	184	307	3322
78	0	0	2298	4	184	307	3323
79	0	0	2266	4	183	306	3322
80	0	0	2218	4	184	307	3321
81	0	0	2139	4	184	307	3320
82	0	0	2072	4	183	307	3319
83	0	0	2035	4	183	307	3319
84	0	0	2004	5	184	307	3319
85	0	0	1965	4	183	307	3320
86	0	0	1914	4	184	306	3321
87	0	0	1869	4	184	307	3321
88	0	0	1841	5	184	307	3321
89	0	0	1806	5	184	306	3322
90	0	0	1757	4	184	307	3322
91	0	1	1718	4	183	307	3320
92	0	1	1734	5	184	307	3320
93	0	1	1777	5	184	307	3319
94	0	1	1803	5	185	307	3319
95	0	1	1806	5	183	307	3321
96	0	1	1795	5	183	306	3321
97	0	1	1805	5	184	306	3321
98	0	1	1807	5	183	307	3321
99	0	1	1810	5	184	308	3322
100	0	1	1817	5	183	307	3321
101	0	1	1829	5	184	306	3320
102	0	1	1843	5	182	307	3318
103	0	1	1863	6	183	306	3318
104	0	1	1874	6	183	307	3319
105	0	1	1873	5	183	306	3320
106	0	1	1881	5	184	307	3321
107	0	1	1914	5	184	307	3321
108	0	1	1944	5	184	306	3321
109	0	1	1961	5	183	307	3321
110	0	1	1982	5	184	307	3320
111	0	1	1997	5	184	306	3320
112	0	1	2001	5	183	307	3318
113	0	1	1994	5	183	307	3318
114	0	1	1974	5	184	307	3319
115	0	1	1947	4	183	307	3320
116	0	1	1921	4	184	307	3321
117	0	1	1906	5	183	307	3321
118	0	1	1905	5	184	307	3321
119	0	1	1920	5	183	307	3321
120	0	1	1950	5	184	307	3320
121	0	1	1981	5	184	305	3319
122	0	1	1996	5	183	307	3319
123	0	1	2004	5	184	306	3318
124	0	1	2018	5	183	307	3319
125	0	1	2036	5	183	307	3320
126	0	1	2034	5	183	307	3320
127	0	1	2034	4	184	307	3322
0	0	1	2045	5	184	306	3321
1	0	1	2049	5	184	307	3321
2	0	1	2039	5	184	307	3321
3	0	1	2034	5	184	305	3319
4	0	1	2039	6	184	307	3318
5	0	1	2044	5	184	307	3319
6	0	1	2038	5	184	307	3320
7	0	1	2030	5	184	307	3319
8	0	1	2019	5	184	306	3320
9	0	1	2013	5	183	306	3321
10	0	1	1998	5	183	307	3321
11	0	1	1970	4	183	307	3321
12	0	1	1954	4	184	307	3320
13	0	1	1971	5	184	306	3319
14	0	1	1997	5	183	307	3318
15	0	1	2011	5	183	307	3318
16	0	1	2008	5	183	307	3318
17	0	1	2015	5	183	307	3319
18	0	1	2025	5	183	306	3320
19	0	1	2022	4	183	307	3321
20	0	1	2017	5	184	307	3321
21	0	1	2020	5	183	307	3321
22	0	1	2038	5	183	307	3321
23	0	1	2058	5	184	306	3319
24	0	1	2066	4	184	307	3319
25	0	1	2062	5	186	307	3318
26	0	1	2063	5	183	307	3319
27	0	1	2052	5	184	307	3319
28	0	1	2035	4	184	306	3320
29	0	1	2018	4	184	307	3321
30	0	1	2001	4	183	308	3321
31	0	1	1997	5	184	307	3320
32	0	1	1991	5	184	307	3320
33	0	1	1990	5	183	306	3319
34	0	1	1994	5	184	307	3318
35	0	1	1992	5	183	307	3318
36	0	1	1979	5	184	307	3318
37	0	1	1981	5	184	307	3319
38	0	1	2012	5	183	307	3321
39	0	1	2049	5	184	307	3320
40	0	1	2049	4	184	307	3322
41	0	1	2039	5	183	307	3321
42	0	1	2038	5	183	307	3320
43	0	1	2050	5	183	306	3319
44	0	1	2059	4	184	307	3317
45	0	1	2061	5	184	307	3317
46	0	1	2052	5	184	307	3318
47	0	1	2033	4	183	307	3319
48	0	1	2028	5	184	307	3321
49	0	1	2016	5	184	307	3320
50	0	1	2014	5	184	306	3321
51	0	1	2023	5	183	307	3321
52	0	1	2011	4	183	307	3321
53	0	1	1989	5	184	306	3319
54	0	1	1987	5	184	307	3317
55	0	1	2005	5	184	307	3317
56	1	1	2020	6	184	307	3318
57	1	1	2020	4	184	307	3318
58	1	1	2030	5	184	306	3320
59	1	1	2043	5	184	307	3320
60	1	1	2045	5	183	306	3321
61	1	1	2043	6	184	307	3321
62	1	1	2023	5	184	307	3320
63	1	1	2002	4	183	306	3319
64	1	1	1986	4	184	307	3318
65	1	1	1988	5	184	307	3317
66	1	1	1989	5	184	307	3318
67	1	1	1989	4	184	307	3318
68	1	1	1997	5	184	307	3320
69	1	1	2029	5	183	307	3320
70	1	1	2052	5	184	307	3321
71	1	1	2036	4	184	307	3321
72	1	1	2002	4	184	307	3320
73	1	1	1959	4	184	307	3319
74	1	1	1915	4	184	307	3317
75	1	1	1912	5	184	306	3317
76	1	1	1939	5	183	307	3318
77	1	1	1977	5	183	307	3319
78	1	1	2019	5	183	307	3320
79	1	1	2038	5	184	307	3320
80	1	1	2041	5	184	307	3320
81	1	1	2035	5	183	307	3320
82	1	1	2031	4	184	307	3320
83	1	1	2039	5	183	307	3318
84	1	1	2054	5	184	307	3317
85	1	1	2045	5	184	307	3317
86	1	1	2011	4	184	307	3318
87	1	1	1988	5	184	307	3319
88	1	1	1994	5	184	307	3320
89	1	1	2008	4	183	307	3321
90	1	1	2002	5	183	306	3320
91	1	1	1984	4	183	307	3320
92	1	1	1971	4	184	306	3320
93	1	1	1958	5	183	307	3318
94	1	1	1965	5	183	306	3316
95	1	1	1997	5	184	307	3318
96	1	1	2027	5	184	307	3317
97	1	1	2050	5	184	307	3318
98	1	1	2050	5	183	307	3319
99	1	1	2035	4	184	307	3321
100	1	1	2036	5	183	306	3320
101	1	1	2040	5	184	307	3320
102	1	1	2033	4	185	307	3320
103	1	1	2035	5	184	307	3319
104	1	1	2057	5	183	306	3316
105	1	1	2057	5	184	306	3317
106	1	1	2059	5	183	307	3317
107	1	1	2057	6	183	307	3318
108	1	1	2027	4	184	307	3319
109	1	1	1996	5	184	307	3319
110	1	1	1989	5	184	307	3320
111	1	1	2004	5	183	307	3320
112	1	1	2033	5	184	307	3320
113	1	1	2056	5	184	307	3318
114	1	1	2043	3	183	307	3318
115	1	1	2018	4	184	307	3316
116	1	1	2030	5	183	307	3317
117	1	1	2069	5	183	307	3318
118	1	1	2054	4	184	307	3319
119	1	1	2026	4	184	307	3319
120	1	1	2023	5	184	306	3320
121	1	1	2026	6	183	306	3319
122	1	1	2028	6	183	307	3319
123	1	1	2042	5	184	307	3318
124	1	1	2065	5	183	307	3316
125	1	1	2068	6	183	306	3316
126	1	1	2063	5	184	307	3317
127	1	1	2052	4	183	307	3318
0	1	1	2050	5	183	307	3319
1	1	1	2049	4	184	306	3319
2	1	1	2036	4	184	307	3320
3	1	1	2021	4	183	307	3320
4	1	1	2015	6	183	307	3319
5	1	1	2016	5	183	307	3318
6	1	1	2019	5	183	307	3316
7	1	1	2020	5	183	306	3316
8	1	1	2018	5	183	307	3317
9	1	1	2021	5	183	307	3318
10	1	1	2033	5	184	307	3319
11	1	1	2055	4	183	307	3319
12	1	1	2068	6	184	307	3319
13	1	1	2063	5	183	306	3320
14	1	1	2065	6	184	307	3319
15	1	1	2078	5	184	307	3317
16	1	1	2081	4	183	307	3317
17	1	1	2079	5	184	309	3316
18	1	1	2077	5	184	308	3316
19	1	1	2063	4	183	307	3318
20	1	1	2030	4	184	307	3319
21	1	1	2008	5	182	307	3319
22	1	1	2015	5	183	306	3319
23	1	1	2030	5	182	307	3319
24	1	1	2030	4	184	307	3319
25	1	1	2006	5	184	307	3317
26	1	1	2016	4	184	307	3317
27	1	1	2051	5	184	307	3316
28	1	1	2079	5	183	308	3316
29	1	1	2081	6	183	307	3318
30	1	1	2074	5	184	307	3318
31	1	1	2052	5	183	307	3319
32	1	1	2060	5	184	306	3320
33	1	1	2097	5	184	307	3320
34	1	1	2123	5	184	307	3319
35	1	1	2126	5	184	307	3318
36	1	1	2127	5	185	307	3316
37	1	1	2123	5	184	307	3317
38	1	1	2124	5	183	307	3317
39	1	1	2127	6	184	307	3318
40	1	1	2127	5	185	307	3318
41	1	1	2123	5	184	307	3319
42	1	1	2132	5	184	307	3319
43	1	1	2131	5	182	308	3319
44	1	1	2133	5	183	307	3318
45	1	1	2129	5	184	307	3317
46	1	1	2120	4	183	307	3316
47	1	1	2119	6	183	307	3316
48	1	1	2108	5	183	306	3317
49	1	1	2101	4	183	307	3317
50	1	1	2094	5	184	307	3318
51	1	1	2086	4	184	307	3320
52	1	1	2082	5	184	307	3319
53	1	1	2101	5	184	306	3319
54	1	1	2131	5	184	307	3319
55	1	1	2150	5	184	307	3317
56	1	1	2161	5	184	307	3316
57	1	1	2157	5	184	307	3315
58	1	1	2132	4	184	306	3316
59	1	1	2084	4	184	307	3317
60	1	1	2037	4	184	307	3318
61	1	1	2035	5	183	307	3318
62	1	1	2043	5	184	307	3319
63	1	1	2034	5	183	306	3319
64	1	1	2043	5	183	307	3318
65	1	1	2067	5	183	307	3317
66	1	1	2069	4	184	307	3316
67	1	1	2071	5	184	306	3315
68	1	1	2069	5	185	307	3316
69	1	1	2061	5	183	307	3318
70	1	1	2065	5	184	307	3318
71	1	1	2063	5	184	307	3319
72	1	1	2058	5	183	307	3319
73	1	1	2072	5	184	306	3319
74	1	1	2095	5	184	307	3318
75	1	1	2100	5	184	307	3317
76	1	1	2079	4	184	307	3315
77	1	1	2038	4	183	307	3315
78	1	1	2012	5	184	306	3316
79	1	1	2014	5	184	307	3317
80	1	1	2012	5	185	307	3318
81	1	1	1995	4	184	307	3318
82	1	1	1992	5	184	307	3319
83	1	1	2010	5	183	307	3319
84	1	1	2032	5	183	306	3318
85	1	1	2037	5	184	306	3316
86	1	1	2030	6	183	307	3315
87	1	1	2031	5	184	307	3315
88	1	1	2038	5	184	307	3316
89	1	1	2021	4	183	307	3317
90	1	1	2004	5	184	307	3318
91	1	1	2009	5	184	306	3318
92	1	1	2024	5	184	306	3318
93	1	1	2016	5	184	306	3318
94	1	1	2001	4	184	307	3318
95	1	1	1997	5	184	307	3317
96	1	1	1988	5	184	306	3315
97	1	1	1968	4	184	307	3316
98	1	1	1971	5	185	307	3316
99	1	1	1989	5	184	306	3316
100	1	1	2002	5	184	307	3317
101	1	1	1995	4	184	307	3319
102	1	1	1985	5	185	307	3318
103	1	1	1981	5	185	307	3318
104	1	1	1976	4	183	306	3318
105	1	1	1976	5	183	306	3316
106	1	1	1983	5	183	307	3315
107	1	1	1998	5	183	307	3315
108	1	1	1989	5	184	306	3316
109	1	1	1974	4	183	307	3316
110	1	1	1972	5	183	307	3317
111	1	1	1988	5	184	306	3318
112	1	1	2019	5	183	307	3318
113	1	1	2046	5	184	306	3318
114	1	1	2057	4	184	307	3318
115	1	1	2048	4	184	307	3316
116	1	1	2026	5	184	307	3315
117	1	1	2001	4	184	307	3315
118	1	1	1984	4	184	307	3316
119	1	1	1977	5	184	307	3317
120	1	1	1987	5	184	307	3317
121	1	1	1998	5	184	307	3318
122	1	1	2009	5	184	306	3318
123	1	1	2010	5	184	307	3318
124	1	1	1980	3	183	307	3318
125	1	1	1953	4	183	307	3316
126	1	1	1927	4	183	306	3315
127	1	1	1920	5	182	307	3315
0	1	1	1933	5	183	307	3316
1	1	1	1949	4	182	307	3316
2	1	1	1966	5	183	307	3317
3	1	1	1996	5	183	307	3317
4	1	1	2025	5	184	306	3318
5	1	1	2023	4	183	307	3318
6	1	1	1987	3	183	307	3318
7	1	1	1955	4	184	307	3316
8	1	1	1960	5	184	307	3315
9	1	1	1982	5	184	306	3315
10	1	1	2005	5	184	307	3316
11	1	1	2015	4	183	307	3316
12	1	1	2004	4	184	307	3317
13	1	1	1996	5	183	307	3317
14	1	1	1990	5	184	306	3318
15	1	1	1969	4	183	307	3318
16	1	1	1956	4	183	307	3318
17	1	1	1947	5	183	307	3315
18	1	1	1944	5	183	307	3314
19	1	1	1957	5	183	306	3314
20	1	1	1969	5	183	306	3315
21	1	1	1982	5	185	307	3316
22	1	1	2000	5	184	307	3317
23	1	1	1996	5	184	307	3317
24	1	1	1974	4	185	307	3318
25	1	1	1940	4	184	307	3317
26	1	1	1915	4	183	307	3316
27	1	1	1929	5	185	307	3315
28	1	1	1965	5	184	307	3314
29	1	1	1988	5	184	307	3314
30	1	1	1998	5	183	307	3315
31	1	1	2001	5	184	307	3316
32	1	1	2001	5	183	307	3316
33	1	1	2009	5	183	307	3317
34	1	1	2011	5	184	307	3317
35	1	1	1998	5	182	306	3318
36	1	1	1972	4	183	307	3317
37	1	1	1964	5	183	307	3316
38	1	1	1966	5	184	307	3314
39	1	1	1984	5	183	307	3314
40	1	1	2011	5	184	306	3315
41	1	1	2015	5	184	307	3316
42	1	1	1979	4	183	307	3316
43	1	1	1950	4	184	307	3317
44	1	1	1944	5	184	306	3317
45	1	1	1968	5	183	307	3318
46	1	1	1978	5	183	307	3317
47	1	1	1977	5	184	306	3316
48	1	1	1994	5	185	307	3314
49	1	1	2004	4	184	307	3314
50	1	1	2000	5	183	307	3314
51	1	1	1985	3	184	307	3315
52	1	1	1982	5	184	307	3316
53	1	1	1989	5	184	307	3316
54	1	1	1996	5	184	307	3317
55	1	1	1983	4	184	307	3317
56	1	1	1975	5	183	307	3317
57	1	1	1979	5	183	307	3315
58	1	1	1967	4	182	307	3314
59	1	1	1963	5	184	306	3313
60	1	1	1980	5	182	306	3315
61	1	1	2018	3	183	306	3315
62	1	1	2046	5	184	307	3317
63	1	1	2051	6	183	307	3316
64	1	1	2062	5	184	307	3317
65	1	1	2057	5	184	307	3316
66	1	1	2012	3	183	307	3316
67	1	1	1960	4	185	307	3315
68	1	1	1931	5	184	307	3314
69	1	1	1921	5	185	306	3313
70	1	1	1932	5	185	307	3313
71	1	1	1969	5	184	306	3315
72	1	1	1999	5	184	307	3316
73	1	1	2015	5	185	307	3316
74	1	1	2019	5	183	307	3317
75	1	1	2001	4	184	307	3317
76	1	1	1987	3	183	307	3316
77	1	1	1975	5	183	307	3314
78	1	1	1959	5	183	306	3313
79	1	1	1946	5	183	307	3313
80	1	1	1932	4	184	307	3313
81	1	1	1920	4	183	307	3315
82	1	1	1915	5	183	307	3315
83	1	1	1924	5	184	307	3315
84	1	1	1956	5	184	307	3316
85	1	1	1995	5	183	307	3316
86	1	1	2012	3	183	307	3316
87	1	1	2025	5	184	307	3314
88	1	1	2041	6	184	307	3313
89	1	1	2043	5	183	307	3313
90	1	1	2020	4	185	307	3314
91	1	1	1981	3	184	307	3314
92	1	1	1943	4	184	307	3315
93	1	1	1937	5	184	307	3316
94	1	1	1963	5	184	307	3317
95	1	1	1995	5	184	307	3316
96	1	1	2018	5	184	306	3316
97	1	1	2027	5	184	306	3315
98	1	1	2014	5	184	307	3314
99	1	1	2007	5	184	307	3313
100	1	1	2019	5	184	307	3313
101	1	1	2031	4	184	306	3314
102	1	1	2043	5	184	306	3314
103	1	1	2058	5	184	307	3315
104	1	1	2056	5	183	306	3316
105	1	1	2036	4	184	307	3316
106	1	1	2014	4	183	307	3315
107	1	1	1982	5	184	307	3313
108	1	1	1975	5	184	307	3313
109	1	1	1984	5	185	307	3312
110	1	1	1997	5	184	307	3313
111	1	1	1998	5	183	307	3315
112	1	1	1990	5	183	306	3314
113	1	1	1997	5	184	307	3315
114	1	1	2007	5	184	306	3315
115	1	1	2013	5	184	307	3316
116	1	1	2011	4	183	307	3315
117	1	1	1997	5	184	307	3314
118	1	1	1984	4	184	307	3312
119	1	1	1991	5	183	307	3312
120	1	1	1995	5	184	307	3312
121	1	1	1986	5	183	307	3313
122	1	1	1986	5	183	307	3314
123	1	1	1980	5	183	307	3315
124	1	1	1965	5	183	307	3315
125	1	1	1968	5	183	307	3315
126	1	1	1996	4	183	306	3315
127	1	1	2025	5	184	307	3313
0	1	1	2046	5	184	307	3312
1	1	1	2045	5	184	306	3312
2	1	1	2037	5	184	307	3312
3	1	1	2030	4	184	307	3313
4	1	1	2001	4	184	307	3314
5	1	1	1987	5	184	307	3314
6	1	1	2006	5	184	306	3315
7	1	1	2043	5	183	307	3315
8	1	1	2054	4	184	306	3314
9	1	1	2042	5	183	307	3313
10	1	1	2015	5	182	306	3312
11	1	1	1981	5	184	306	3312
12	1	1	1966	5	183	307	3313
13	1	1	1989	4	184	307	3313
14	1	1	2036	5	184	307	3315
15	1	1	2039	4	183	307	3314
16	1	1	1997	4	183	307	3315
17	1	1	1969	4	184	307	3315
18	1	1	1976	5	183	307	3314
19	1	1	2016	5	184	307	3313
20	1	1	2044	5	184	307	3311
21	1	1	2035	5	184	306	3312
22	1	1	2012	4	183	306	3311
23	1	1	2008	4	183	307	3313
24	1	1	2019	5	185	307	3313
25	1	1	2023	5	183	307	3314
26	1	1	2015	4	183	306	3314
27	1	1	2013	5	182	307	3314
28	1	1	2027	5	183	307	3314
29	1	1	2055	5	184	307	3312
30	1	1	2077	5	183	307	3312
31	1	1	2080	5	183	307	3311
32	1	1	2070	5	185	306	3312
33	1	1	2081	5	184	307	3313
34	1	1	2108	5	183	307	3313
35	1	1	2121	4	184	307	3314
36	1	1	2122	5	184	306	3314
37	1	1	2099	4	184	307	3315
38	1	1	2073	4	184	307	3314
39	1	1	2077	5	185	306	3312
40	1	1	2095	5	184	307	3311
41	1	1	2100	5	184	306	3311
42	1	1	2101	5	185	306	3312
43	1	1	2090	5	184	307	3312
44	1	1	2075	4	183	306	3314
45	1	1	2057	4	184	307	3313
46	1	1	2032	4	184	307	3314
47	1	1	1991	4	184	306	3314
48	1	1	1967	4	183	306	3314
49	1	1	1992	5	184	306	3312
50	1	1	2044	5	183	306	3311
51	1	1	2101	5	183	306	3310
52	1	1	2125	5	182	307	3311
53	1	1	2111	4	183	307	3312
54	1	1	2075	4	183	307	3313
55	1	1	2023	4	184	307	3314
56	1	1	1978	5	184	306	3314
57	1	1	1986	5	183	306	3314
58	1	1	2006	5	183	307	3314
59	1	1	2013	5	184	307	3312
60	1	1	2032	4	184	307	3310
61	1	1	2063	5	184	307	3311
62	1	1	2095	5	184	307	3311
63	1	1	2124	5	185	307	3312
64	1	1	2121	4	184	307	3313
65	1	1	2095	4	184	307	3313
66	1	1	2097	5	184	306	3314
67	1	1	2131	5	183	307	3315
68	1	1	2162	5	182	307	3313
69	1	1	2200	5	184	307	3312
70	1	1	2212	6	183	306	3310
71	1	1	2191	4	183	306	3310
72	1	1	2177	5	184	306	3311
73	1	1	2172	5	183	307	3312
74	1	1	2165	5	183	307	3312
75	1	1	2158	5	184	307	3313
76	1	1	2159	5	183	307	3313
77	1	1	2156	5	184	307	3314
78	1	1	2146	5	183	307	3313
79	1	1	2129	5	184	307	3311
80	1	1	2133	5	185	307	3311
81	1	1	2167	5	184	307	3311
82	1	1	2196	5	185	306	3311
83	1	1	2213	5	184	307	3312
84	1	1	2232	5	184	307	3313
85	1	1	2237	5	184	307	3313
86	1	1	2209	5	184	306	3313
87	1	1	2175	4	184	306	3313
88	1	1	2148	4	183	307	3313
89	1	1	2139	5	183	307	3311
90	1	1	2140	5	184	307	3311
91	1	1	2158	5	183	306	3310
92	1	1	2165	5	183	306	3310
93	1	1	2155	5	183	307	3312
94	1	1	2140	4	183	307	3312
95	1	1	2111	4	184	307	3313
96	1	1	2104	5	183	306	3314
97	1	1	2102	5	184	307	3314
98	1	1	2092	5	184	307	3313
99	1	1	2092	5	183	307	3311
100	1	1	2103	5	184	306	3310
101	1	1	2091	4	183	307	3310
102	1	1	2073	4	185	307	3311
103	1	1	2068	5	184	307	3312
104	1	1	2076	5	183	307	3313
105	1	1	2075	5	184	306	3312
106	1	1	2078	6	184	307	3313
107	1	1	2108	5	184	306	3313
108	1	1	2148	5	183	307	3313
109	1	1	2165	5	182	307	3311
110	1	1	2163	5	183	307	3310
111	1	1	2168	4	183	307	3310
112	1	1	2173	5	184	307	3310
113	1	1	2168	4	184	307	3312
114	1	1	2132	4	183	307	3312
115	1	1	2106	5	184	307	3313
116	1	1	2091	4	183	309	3313
117	1	1	2077	5	184	306	3313
118	1	1	2064	5	184	306	3313
119	1	1	2061	5	184	307	3311
120	1	1	2081	6	184	307	3310
121	1	1	2120	5	184	308	3309
122	1	1	2142	5	185	306	3310
123	1	1	2147	5	184	307	3311
124	1	1	2142	5	184	307	3311
125	1	1	2131	5	183	307	3312
126	1	1	2118	5	184	307	3313
127	1	1	2091	4	184	306	3312
0	1	1	2080	5	183	307	3312
1	1	1	2102	5	183	306	3311
2	1	1	2142	5	184	306	3309
3	1	1	2177	5	182	307	3309
4	1	1	2178	5	184	306	3310
5	1	1	2164	5	183	307	3311
6	1	1	2163	5	183	307	3311
7	1	1	2148	4	185	306	3313
8	1	1	2107	4	185	306	3312
9	1	1	2069	5	184	306	3312
10	1	1	2069	5	183	307	3312
11	1	1	2088	5	184	307	3310
12	1	1	2097	5	183	307	3309
13	1	1	2096	5	184	307	3309
14	1	1	2087	5	184	307	3310
15	1	1	2077	5	183	307	3311
16	1	1	2081	5	184	307	3312
17	1	1	2091	5	184	307	3312
18	1	1	2092	5	183	307	3313
19	1	1	2069	5	184	307	3313
20	1	1	2078	5	184	307	3312
21	1	1	2127	5	184	307	3310
22	1	1	2157	5	183	307	3309
23	1	1	2162	4	184	307	3309
24	1	1	2168	5	184	307	3309
25	1	1	2159	5	183	307	3310
26	1	1	2150	5	183	307	3311
27	1	1	2155	5	184	307	3312
28	1	1	2163	4	184	307	3312
29	1	1	2162	5	183	307	3312
30	1	1	2156	5	183	307	3312
31	1	1	2152	5	184	307	3311
32	1	1	2140	6	184	307	3309
