# bioPlux Text File Format
# Version: 1
# StartDateTime: 2011-07-18 10:15:42
# SamplingFrequency: 1000
# SampledChannels: 1 2 3 4
# SamplingResolution: 12
# AcquiringDevice: 00:07:80:42:0F:95
# EndOfHeader
0	0	0	2175	816	185	0
1	0	0	2176	817	183	0
2	0	0	2169	815	184	0
3	0	0	2163	816	184	0
4	0	0	2150	816	184	0
5	0	0	2158	816	185	0
6	0	0	2125	813	184	0
7	0	0	2083	813	183	0
8	0	0	2071	816	184	0
9	0	0	2061	816	183	0
10	0	0	2054	815	185	0
11	0	0	2038	815	183	0
12	0	0	2022	815	184	0
13	0	0	2010	815	184	0
14	0	0	2001	814	184	0
15	0	0	1937	812	183	0
16	0	0	1940	817	185	0
17	0	0	1986	815	184	0
18	0	0	2018	817	184	0
19	0	0	2071	817	184	0
20	0	0	2128	816	183	0
21	0	0	2163	817	183	0
22	0	0	2185	816	183	0
23	0	0	2204	816	184	0
24	0	0	2214	817	184	0
25	0	0	2229	816	184	0
26	0	0	2197	813	183	0
27	0	0	2143	813	184	0
28	0	0	2100	813	184	0
29	0	0	2064	813	183	0
30	0	0	2032	813	184	0
31	0	0	1999	814	183	0
32	0	0	1980	815	183	0
33	0	0	1982	817	185	0
34	0	0	1996	816	183	0
35	0	0	1957	814	184	0
36	0	0	1992	817	184	0
37	0	0	2064	817	185	0
38	0	0	2115	816	185	0
39	0	0	2178	817	184	0
40	0	0	2227	818	184	0
41	0	0	2248	817	183	0
42	0	0	2256	817	185	0
43	0	0	2259	817	184	0
44	0	0	2259	817	183	0
45	0	0	2268	817	183	0
46	0	0	2233	813	183	0
47	0	0	2181	813	184	0
48	0	0	2145	815	184	0
49	0	0	2109	814	184	0
50	0	0	2082	813	184	0
51	0	0	2049	814	184	0
52	0	0	2026	815	184	0
53	0	0	2016	817	184	0
54	0	0	2015	817	185	0
55	0	0	1962	814	184	0
56	0	0	1981	818	184	0
57	0	0	2038	817	184	0
58	0	0	2083	817	184	0
59	0	0	2144	818	185	0
60	0	0	2193	818	183	0
61	0	0	2215	818	184	0
62	0	0	2224	817	184	0
63	0	0	2230	818	185	0
64	0	0	2226	818	184	0
65	0	0	2239	818	184	0
66	0	0	2207	814	183	0
67	0	0	2156	814	183	0
68	0	0	2117	814	184	0
69	0	0	2084	815	184	0
70	0	0	2062	815	186	0
71	0	0	2028	815	184	0
72	0	0	2003	815	184	0
73	0	0	1993	816	184	0
74	0	0	1986	816	183	0
75	0	0	1930	814	184	0
76	0	0	1949	818	185	0
77	0	0	2003	818	185	0
78	0	0	2042	818	184	0
79	0	0	2095	818	184	0
80	0	0	2135	819	183	0
81	0	0	2149	819	185	0
82	0	0	2150	819	183	0
83	0	0	2149	818	184	0
84	0	0	2148	818	184	0
85	0	0	2168	819	184	0
86	0	0	2144	815	184	0
87	0	0	2102	816	183	0
88	0	0	2084	818	183	0
89	0	0	2057	816	184	0
90	0	0	2035	816	184	0
91	0	0	2003	816	184	0
92	0	0	1971	816	183	0
93	0	0	1949	816	184	0
94	0	0	1933	815	183	0
95	0	0	1873	815	185	0
96	0	0	1894	819	184	0
97	0	0	1949	819	185	0
98	0	0	1985	819	184	0
99	0	0	2051	819	184	0
100	0	0	2104	820	185	0
101	0	0	2124	819	185	0
102	0	0	2134	820	184	0
103	0	0	2140	820	184	0
104	0	0	2146	820	183	0
105	0	0	2168	820	184	0
106	0	0	2147	816	184	0
107	0	0	2103	816	184	0
108	0	0	2075	817	184	0
109	0	0	2038	817	183	0
110	0	0	2006	817	183	0
111	0	0	1975	817	183	0
112	0	0	1954	817	185	0
113	0	0	1943	818	185	0
114	0	0	1935	817	184	0
115	0	0	1875	817	185	0
116	0	0	1893	820	184	0
117	0	0	1945	820	184	0
118	0	0	1983	821	185	0
119	0	0	2044	821	183	0
120	0	0	2099	820	184	0
121	0	0	2128	821	183	0
122	0	0	2149	820	184	0
123	0	0	2167	820	183	0
124	0	0	2183	820	184	0
125	0	0	2216	820	184	0
126	0	0	2197	817	182	0
127	0	0	2152	816	183	0
0	0	0	2125	818	184	0
1	0	0	2098	818	183	0
2	0	0	2074	818	183	0
3	0	0	2043	818	185	0
4	0	0	2019	818	184	0
5	0	0	2001	819	183	0
6	0	0	1994	819	184	0
7	0	0	1938	818	183	0
8	0	0	1960	821	185	0
9	0	0	2020	821	184	0
10	0	0	2058	822	184	0
11	0	0	2120	821	184	0
12	0	0	2174	822	185	0
13	0	0	2199	822	184	0
14	0	0	2216	821	184	0
15	0	0	2229	822	184	0
16	0	0	2232	821	184	0
17	0	0	2250	822	183	0
18	0	0	2211	818	183	0
19	0	0	2155	818	184	0
20	0	0	2115	818	184	0
21	0	0	2072	817	183	0
22	0	0	2030	819	184	0
23	0	0	1982	818	183	0
24	0	0	1944	819	184	0
25	0	0	1920	819	184	0
26	0	0	1901	818	184	0
27	0	0	1839	819	184	0
28	0	0	1851	823	185	0
29	0	0	1891	822	184	0
30	0	0	1921	822	184	0
31	0	0	1978	823	184	0
32	0	0	2021	823	184	0
33	0	0	2029	823	186	0
34	0	0	2031	823	184	0
35	0	0	2024	822	184	0
36	0	0	2008	821	184	0
37	0	0	2015	823	184	0
38	0	0	1983	820	184	0
39	0	0	1935	818	185	0
40	0	0	1903	820	184	0
41	0	0	1871	819	185	0
42	0	0	1856	820	185	0
43	0	0	1839	821	185	0
44	0	0	1828	822	185	0
45	0	0	1829	823	184	0
46	0	0	1822	819	184	0
47	0	0	1775	821	184	0
48	0	0	1813	824	184	0
49	0	0	1885	823	184	0
50	0	0	1938	823	184	0
51	0	0	2015	823	184	0
52	0	0	2077	824	184	0
53	0	0	2097	823	184	0
54	0	0	2099	824	184	0
55	0	0	2095	824	183	0
56	0	0	2083	824	185	0
57	0	0	2096	824	184	0
58	0	0	2067	821	184	0
59	0	0	2034	821	184	0
60	0	0	2019	823	184	0
61	0	0	1991	821	183	0
62	0	0	1960	821	183	0
63	0	0	1923	821	184	0
64	0	0	1890	821	184	0
65	0	0	1878	823	184	0
66	0	0	1875	821	184	0
67	0	0	1818	822	183	0
68	0	0	1845	825	184	0
69	0	0	1908	825	184	0
70	0	0	1947	825	184	0
71	0	0	2017	824	185	0
72	0	0	2059	825	184	0
73	0	0	2064	825	184	0
74	0	0	2064	825	185	0
75	0	0	2056	826	183	0
76	0	0	2045	825	183	0
77	0	0	2062	825	184	0
78	0	0	2037	822	184	0
79	0	0	2001	822	183	0
80	0	0	1983	824	184	0
81	0	0	1966	824	185	0
82	0	0	1956	824	184	0
83	0	0	1939	824	184	0
84	0	0	1934	825	184	0
85	0	0	1944	825	183	0
86	0	0	1948	823	184	0
87	0	0	1905	824	183	0
88	0	0	1952	825	184	0
89	0	0	2028	826	184	0
90	0	0	2083	826	184	0
91	0	0	2146	826	184	0
92	0	0	2184	826	185	0
93	0	0	2178	824	184	0
94	0	0	2164	826	184	0
95	0	0	2156	826	183	0
96	0	0	2154	826	184	0
97	0	0	2173	826	184	0
98	0	0	2137	822	184	0
99	0	0	2089	822	183	0
100	0	0	2058	825	183	0
101	0	0	2027	823	184	0
102	0	0	2002	823	184	0
103	0	0	1975	824	185	0
104	0	0	1960	825	184	0
105	0	0	1958	826	184	0
106	0	0	1959	823	184	0
107	0	0	1909	824	184	0
108	0	0	1938	826	184	0
109	0	0	1995	826	183	0
110	0	0	2041	826	184	0
111	0	0	2110	827	184	0
112	0	0	2147	827	184	0
113	0	0	2159	827	184	0
114	0	0	2160	826	184	0
115	0	0	2147	826	184	0
116	0	0	2117	825	183	0
117	0	0	2116	826	183	0
118	0	0	2065	823	185	0
119	0	0	2006	823	184	0
120	0	0	1971	823	184	0
121	0	0	1934	824	184	0
122	0	0	1902	824	183	0
123	0	0	1880	825	183	0
124	0	0	1861	824	184	0
125	0	0	1842	825	184	0
126	0	0	1827	823	184	0
127	0	0	1766	824	184	0
0	0	0	1793	827	184	0
1	0	0	1850	827	184	0
2	0	0	1893	827	184	0
3	0	0	1951	827	185	0
4	0	0	1991	827	184	0
5	0	0	2005	828	183	0
6	0	0	2009	827	184	0
7	0	0	2011	828	184	0
8	0	0	2006	828	184	0
9	0	0	2018	828	183	0
10	0	0	1990	824	185	0
11	0	0	1954	825	184	0
12	0	0	1944	827	184	0
13	0	0	1929	827	183	0
14	0	0	1926	827	184	0
15	0	0	1916	827	185	0
16	0	0	1913	828	183	0
17	0	0	1922	828	185	0
18	0	0	1925	825	184	0
19	0	0	1878	826	184	0
20	0	0	1918	828	185	0
21	0	0	1981	828	184	0
22	0	0	2018	828	184	0
23	0	0	2078	828	183	0
24	0	0	2119	829	184	0
25	0	0	2130	829	184	0
26	0	0	2129	829	185	0
27	0	0	2125	828	184	0
28	0	0	2117	829	184	0
29	0	0	2131	829	184	0
30	0	0	2096	825	184	0
31	0	0	2045	824	183	0
32	0	0	2021	827	183	0
33	0	0	1992	825	185	0
34	0	0	1971	826	184	0
35	0	0	1952	826	184	0
36	0	0	1931	826	184	0
37	0	0	1917	827	184	0
38	0	0	1904	825	184	0
39	0	0	1853	826	184	0
40	0	0	1890	829	185	0
41	0	0	1944	828	184	0
42	0	0	1981	829	184	0
43	0	0	2041	829	183	0
44	0	0	2085	829	184	0
45	0	0	2094	829	184	0
46	0	0	2093	829	183	0
47	0	0	2094	829	184	0
48	0	0	2092	829	183	0
49	0	0	2115	829	184	0
50	0	0	2089	827	185	0
51	0	0	2052	826	185	0
52	0	0	2032	827	184	0
53	0	0	2006	826	183	0
54	0	0	1984	826	183	0
55	0	0	1962	827	184	0
56	0	0	1949	829	183	0
57	0	0	1948	829	184	0
58	0	0	1946	826	184	0
59	0	0	1899	826	184	0
60	0	0	1925	830	183	0
61	0	0	1967	830	185	0
62	0	0	1996	829	184	0
63	0	0	2051	830	185	0
64	0	0	2088	829	185	0
65	0	0	2097	830	185	0
66	0	0	2106	829	182	0
67	0	0	2115	830	184	0
68	0	0	2112	830	184	0
69	0	0	2117	829	184	0
70	0	0	2072	826	184	0
71	0	0	2024	826	183	0
72	0	0	2001	828	184	0
73	0	0	1970	827	184	0
74	0	0	1940	826	184	0
75	0	0	1907	827	184	0
76	0	0	1886	828	184	0
77	0	0	1892	830	184	0
78	0	0	1901	828	184	0
79	0	0	1870	830	183	0
80	0	0	1914	830	185	0
81	0	0	1962	830	183	0
82	0	0	1995	829	184	0
83	0	0	2063	830	184	0
84	0	0	2104	830	184	0
85	0	0	2113	830	184	0
86	0	0	2112	830	183	0
87	0	0	2108	830	183	0
88	0	0	2099	830	185	0
89	0	0	2114	830	184	0
90	0	0	2072	826	184	0
91	0	0	2009	826	183	0
92	0	0	1962	826	185	0
93	0	0	1913	827	184	0
94	0	0	1876	826	184	0
95	0	0	1842	827	184	0
96	0	0	1833	830	183	0
97	0	0	1837	830	185	0
98	0	0	1820	826	183	0
99	0	0	1775	829	184	0
100	0	0	1822	830	185	0
101	0	0	1902	830	184	0
102	0	0	1951	831	185	0
103	0	0	2016	830	184	0
104	0	0	2071	831	184	0
105	0	0	2101	830	184	0
106	0	0	2112	830	183	0
107	0	0	2104	830	184	0
108	0	0	2109	831	183	0
109	0	0	2132	830	184	0
110	0	0	2093	827	184	0
111	0	0	2045	826	186	0
112	0	0	2002	827	184	0
113	0	0	1979	829	185	0
114	0	0	1966	827	184	0
115	0	0	1941	828	185	0
116	0	0	1929	830	185	0
117	0	0	1927	830	184	0
118	0	0	1917	826	183	0
119	0	0	1869	829	185	0
120	0	0	1908	831	185	0
121	0	0	1969	831	184	0
122	0	0	2011	831	184	0
123	0	0	2083	831	183	0
124	0	0	2130	831	184	0
125	0	0	2136	831	183	0
126	0	0	2138	831	185	0
127	0	0	2144	831	184	0
0	0	0	2129	832	185	0
1	0	0	2132	830	184	0
2	0	0	2089	828	184	0
3	0	0	2042	828	183	0
4	0	0	2012	828	184	0
5	0	0	1977	827	182	0
6	0	0	1951	827	185	0
7	0	0	1927	828	184	0
8	0	0	1911	828	186	0
9	0	0	1907	831	184	0
10	0	0	1895	827	185	0
11	0	0	1850	829	185	0
12	0	0	1894	830	184	0
13	0	0	1955	831	183	0
14	0	0	1996	830	185	0
15	0	0	2056	831	184	0
16	0	0	2086	831	184	0
17	0	0	2083	830	184	0
18	0	0	2077	831	185	0
19	0	0	2068	830	184	0
20	0	0	2059	830	185	0
21	0	0	2075	830	184	0
22	0	0	2039	828	183	0
23	0	0	1994	828	184	0
24	0	0	1977	829	184	0
25	0	0	1951	829	183	0
26	0	0	1932	828	184	0
27	0	0	1911	828	184	0
28	0	0	1894	830	183	0
29	0	0	1889	831	184	0
30	0	0	1872	826	183	0
31	0	0	1827	829	183	0
32	0	0	1870	831	184	0
33	0	0	1934	831	185	0
34	0	0	1978	831	185	0
35	0	0	2053	831	183	0
36	0	0	2098	831	184	0
37	0	0	2106	831	185	0
38	0	0	2100	831	184	0
39	0	0	2098	831	183	0
40	0	0	2090	831	184	0
41	0	0	2104	831	183	0
42	0	0	2069	828	184	0
43	0	0	2027	828	185	0
44	0	0	2016	830	184	0
45	0	0	1995	829	184	0
46	0	0	1984	829	184	0
47	0	0	1970	830	184	0
48	0	0	1965	831	184	0
49	0	0	1964	831	185	0
50	0	0	1950	827	185	0
51	0	0	1904	829	184	0
52	0	0	1941	831	184	0
53	0	0	1995	831	185	0
54	0	0	2029	831	184	0
55	0	0	2083	831	184	0
56	0	0	2114	831	186	0
57	0	0	2112	831	184	0
58	0	0	2111	831	184	0
59	0	0	2106	831	184	0
60	0	0	2090	831	183	0
61	0	0	2093	830	184	0
62	0	0	2049	828	185	0
63	0	0	2001	828	184	0
64	0	0	1975	829	184	0
65	0	0	1950	829	185	0
66	0	0	1938	829	182	0
67	0	0	1928	831	183	0
68	0	0	1924	831	184	0
69	0	0	1929	832	184	0
70	0	0	1918	827	185	0
71	0	0	1877	831	185	0
72	0	0	1917	832	185	0
73	0	0	1967	831	184	0
74	0	0	1994	831	184	0
75	0	0	2044	832	183	0
76	0	0	2072	832	185	0
77	0	0	2067	833	183	0
78	0	0	2057	831	184	0
79	0	0	2053	832	183	0
80	0	0	2058	832	184	0
81	0	0	2088	832	183	0
82	0	0	2069	830	183	0
83	0	0	2052	833	183	0
84	0	0	2057	832	184	0
85	0	0	2045	832	185	0
86	0	0	2032	830	184	0
87	0	0	2022	832	184	0
88	0	0	2016	833	184	0
89	0	0	2013	833	183	0
90	0	0	1997	828	184	0
91	0	0	1950	831	184	0
92	0	0	1988	833	184	0
93	0	0	2043	833	185	0
94	0	0	2086	832	184	0
95	0	0	2153	833	184	0
96	0	0	2188	833	184	0
97	0	0	2188	833	184	0
98	0	0	2183	833	183	0
99	0	0	2175	833	184	0
100	0	0	2165	833	184	0
101	0	0	2165	830	184	0
102	0	0	2112	829	185	0
103	0	0	2059	829	183	0
104	0	0	2032	830	184	0
105	0	0	2005	831	184	0
106	0	0	1989	830	183	0
107	0	0	1970	831	184	0
108	0	0	1956	831	184	0
109	0	0	1950	833	183	0
110	0	0	1929	828	185	0
111	0	0	1880	831	184	0
112	0	0	1917	833	185	0
113	0	0	1965	834	184	0
114	0	0	1987	833	183	0
115	0	0	2035	833	184	0
116	0	0	2057	833	184	0
117	0	0	2058	833	184	0
118	0	0	2055	833	183	0
119	0	0	2051	833	184	0
120	0	0	2036	834	184	0
121	0	0	2036	831	183	0
122	0	0	1986	829	184	0
123	0	0	1947	830	182	0
124	0	0	1920	830	183	0
125	0	0	1892	830	184	0
126	0	0	1881	831	183	0
127	0	0	1873	832	184	0
0	0	0	1871	834	183	0
1	0	0	1883	834	183	0
2	0	0	1886	830	185	0
3	0	0	1868	833	183	0
4	0	0	1934	834	184	0
5	0	0	2006	834	184	0
6	0	0	2057	834	184	0
7	0	0	2131	834	184	0
8	0	0	2171	833	184	0
9	0	0	2173	834	185	0
10	0	0	2151	831	184	0
11	0	0	2129	831	184	0
12	0	0	2100	833	184	0
13	0	0	2085	830	184	0
14	0	0	2015	829	185	0
15	0	0	1943	830	183	0
16	0	0	1910	831	184	0
17	0	0	1889	832	184	0
18	0	0	1899	834	184	0
19	0	0	1923	834	184	0
20	0	0	1958	834	184	0
21	0	0	1997	834	185	0
22	0	0	1990	831	184	0
23	0	0	1942	833	183	0
24	0	0	1976	834	185	0
25	0	0	2010	834	185	0
26	0	0	2030	834	185	0
27	0	0	2079	834	184	0
28	0	0	2110	834	183	0
29	0	0	2112	835	183	0
30	0	0	2100	833	184	0
31	0	0	2085	833	184	0
32	0	0	2083	835	183	0
33	0	0	2100	834	184	0
34	0	0	2061	831	184	0
35	0	0	2026	832	183	0
36	0	0	2003	831	184	0
37	0	0	1965	831	184	0
38	0	0	1941	831	183	0
39	0	0	1926	833	184	0
40	0	0	1919	835	182	0
41	0	0	1915	835	184	0
42	0	0	1895	830	184	0
43	0	0	1863	835	185	0
44	0	0	1911	834	184	0
45	0	0	1964	835	184	0
46	0	0	1994	835	185	0
47	0	0	2059	835	184	0
48	0	0	2096	835	183	0
49	0	0	2096	835	185	0
50	0	0	2096	835	184	0
51	0	0	2092	835	183	0
52	0	0	2080	836	183	0
53	0	0	2086	834	184	0
54	0	0	2045	832	183	0
55	0	0	1998	831	182	0
56	0	0	1975	833	184	0
57	0	0	1948	835	184	0
58	0	0	1942	835	184	0
59	0	0	1942	836	184	0
60	0	0	1952	836	183	0
61	0	0	1960	836	183	0
62	0	0	1947	831	183	0
63	0	0	1916	835	185	0
64	0	0	1967	836	184	0
65	0	0	2016	835	184	0
66	0	0	2036	835	184	0
67	0	0	2080	836	184	0
68	0	0	2103	836	184	0
69	0	0	2079	832	184	0
70	0	0	2028	832	183	0
71	0	0	2020	836	184	0
72	0	0	2053	837	183	0
73	0	0	2116	837	184	0
74	0	0	2113	834	183	0
75	0	0	2058	833	184	0
76	0	0	2014	832	184	0
77	0	0	1969	833	184	0
78	0	0	1934	832	184	0
79	0	0	1888	833	183	0
80	0	0	1851	833	184	0
81	0	0	1839	836	184	0
82	0	0	1824	834	185	0
83	0	0	1799	837	185	0
84	0	0	1851	837	184	0
85	0	0	1909	837	183	0
86	0	0	1949	837	185	0
87	0	0	2018	836	184	0
88	0	0	2069	837	185	0
89	0	0	2091	837	183	0
90	0	0	2108	837	184	0
91	0	0	2120	837	184	0
92	0	0	2128	837	184	0
93	0	0	2137	835	184	0
94	0	0	2080	833	184	0
95	0	0	2006	833	183	0
96	0	0	1960	833	185	0
97	0	0	1928	834	184	0
98	0	0	1905	834	184	0
99	0	0	1891	836	184	0
100	0	0	1896	837	184	0
101	0	0	1911	837	184	0
102	0	0	1911	834	184	0
103	0	0	1894	837	184	0
104	0	0	1952	838	185	0
105	0	0	2010	837	183	0
106	0	0	2051	837	183	0
107	0	0	2117	837	185	0
108	0	0	2145	837	185	0
109	0	0	2140	838	185	0
110	0	0	2135	838	183	0
111	0	0	2127	838	184	0
112	0	0	2118	838	183	0
113	0	0	2125	837	183	0
114	0	0	2087	834	184	0
115	0	0	2048	835	182	0
116	0	0	2040	838	184	0
117	0	0	2008	836	185	0
118	0	0	1986	836	185	0
119	0	0	1984	839	184	0
120	0	0	1992	838	184	0
121	0	0	2013	839	183	0
122	0	0	2000	834	184	0
123	0	0	1966	838	184	0
124	0	0	2015	839	184	0
125	0	0	2075	838	184	0
126	0	0	2100	838	184	0
127	0	0	2135	838	184	0
0	0	0	2144	839	184	0
1	0	0	2120	837	184	0
2	0	0	2100	837	184	0
3	0	0	2085	837	184	0
4	0	0	2065	839	183	0
5	0	0	2044	835	185	0
6	0	0	1992	835	183	0
7	0	0	1960	837	184	0
8	0	0	1959	839	185	0
9	0	0	1952	839	183	0
10	0	0	1948	838	185	0
11	0	0	1942	840	184	0
12	0	0	1942	839	182	0
13	0	0	1960	839	184	0
14	0	0	1975	837	185	0
15	0	0	1974	839	184	0
16	0	0	2046	840	185	0
17	0	0	2116	840	184	0
18	0	0	2157	840	184	0
19	0	0	2215	839	183	0
20	0	0	2245	838	185	0
21	0	0	2246	840	184	0
22	0	0	2240	840	184	0
23	0	0	2228	839	184	0
24	0	0	2212	841	184	0
25	0	0	2193	836	184	0
26	0	0	2131	836	184	0
27	0	0	2077	837	185	0
28	0	0	2051	837	184	0
29	0	0	2022	837	185	0
30	0	0	1997	837	184	0
31	0	0	1971	838	184	0
32	0	0	1961	840	185	0
33	0	0	1962	840	184	0
34	0	0	1948	836	184	0
35	0	0	1930	840	185	0
36	0	0	1996	840	184	0
37	0	0	2068	841	184	0
38	0	0	2116	840	184	0
39	0	0	2176	840	185	0
40	0	0	2201	841	184	0
41	0	0	2183	838	184	0
42	0	0	2155	838	184	0
43	0	0	2121	838	183	0
44	0	0	2082	839	183	0
45	0	0	2053	836	185	0
46	0	0	1975	837	184	0
47	0	0	1908	837	184	0
48	0	0	1877	838	183	0
49	0	0	1859	840	184	0
50	0	0	1850	839	184	0
51	0	0	1854	841	183	0
52	0	0	1864	842	184	0
53	0	0	1885	841	184	0
54	0	0	1884	838	184	0
55	0	0	1881	842	185	0
56	0	0	1959	842	184	0
57	0	0	2037	841	185	0
58	0	0	2096	841	184	0
59	0	0	2176	842	185	0
60	0	0	2223	841	184	0
61	0	0	2237	842	184	0
62	0	0	2255	842	184	0
63	0	0	2267	842	184	0
64	0	0	2270	842	184	0
65	0	0	2273	839	184	0
66	0	0	2214	838	184	0
67	0	0	2157	838	183	0
68	0	0	2121	839	184	0
69	0	0	2076	839	182	0
70	0	0	2032	838	184	0
71	0	0	1991	838	184	0
72	0	0	1962	840	182	0
73	0	0	1958	842	183	0
74	0	0	1930	838	185	0
75	0	0	1902	842	184	0
76	0	0	1963	842	184	0
77	0	0	2030	842	184	0
78	0	0	2087	842	183	0
79	0	0	2170	842	184	0
80	0	0	2216	842	183	0
81	0	0	2224	843	185	0
82	0	0	2217	843	183	0
83	0	0	2214	843	183	0
84	0	0	2213	842	183	0
85	0	0	2214	839	183	0
86	0	0	2155	839	184	0
87	0	0	2098	839	183	0
88	0	0	2065	839	183	0
89	0	0	2034	841	184	0
90	0	0	2014	840	183	0
91	0	0	1985	840	183	0
92	0	0	1979	843	183	0
93	0	0	1991	843	185	0
94	0	0	1973	839	184	0
95	0	0	1953	843	184	0
96	0	0	2013	843	184	0
97	0	0	2068	842	185	0
98	0	0	2095	843	184	0
99	0	0	2139	843	184	0
100	0	0	2154	844	184	0
101	0	0	2154	843	184	0
102	0	0	2152	843	184	0
103	0	0	2148	843	184	0
104	0	0	2146	843	184	0
105	0	0	2147	840	184	0
106	0	0	2092	839	184	0
107	0	0	2042	840	183	0
108	0	0	2017	840	184	0
109	0	0	1986	840	184	0
110	0	0	1962	840	183	0
111	0	0	1943	840	185	0
112	0	0	1939	843	185	0
113	0	0	1942	843	184	0
114	0	0	1916	839	183	0
115	0	0	1904	844	184	0
116	0	0	1973	843	184	0
117	0	0	2030	843	184	0
118	0	0	2069	843	184	0
119	0	0	2123	843	184	0
120	0	0	2134	844	183	0
121	0	0	2118	842	184	0
122	0	0	2099	842	185	0
123	0	0	2093	843	183	0
124	0	0	2100	844	185	0
125	0	0	2118	842	183	0
126	0	0	2075	839	184	0
127	0	0	2030	840	184	0
0	0	0	2006	840	184	0
1	0	0	1979	841	184	0
2	0	0	1938	840	185	0
3	0	0	1901	840	184	0
4	0	0	1909	844	184	0
5	0	0	1957	844	185	0
6	0	0	1986	843	184	0
7	0	0	2013	843	184	0
8	0	0	2107	843	185	0
9	0	0	2156	844	185	0
10	0	0	2168	843	183	0
11	0	0	2194	844	185	0
12	0	0	2197	843	185	0
13	0	0	2196	843	184	0
14	0	0	2213	844	184	0
15	0	0	2226	844	183	0
16	0	0	2239	844	184	0
17	0	0	2249	842	185	0
18	0	0	2198	839	183	0
19	0	0	2146	840	184	0
20	0	0	2121	840	184	0
21	0	0	2089	841	184	0
22	0	0	2058	841	185	0
23	0	0	2037	841	184	0
24	0	0	2031	843	184	0
25	0	0	2032	844	185	0
26	0	0	1998	839	184	0
27	0	0	1979	843	183	0
28	0	0	2048	843	185	0
29	0	0	2106	843	185	0
30	0	0	2141	843	184	0
31	0	0	2185	845	185	0
32	0	0	2190	843	186	0
33	0	0	2173	843	185	0
34	0	0	2164	843	183	0
35	0	0	2158	844	183	0
36	0	0	2156	843	184	0
37	0	0	2154	840	184	0
38	0	0	2094	840	185	0
39	0	0	2049	841	184	0
40	0	0	2041	843	183	0
41	0	0	2035	843	184	0
42	0	0	2020	842	184	0
43	0	0	2012	843	184	0
44	0	0	2011	843	184	0
45	0	0	2012	843	184	0
46	0	0	1970	840	185	0
47	0	0	1951	843	184	0
48	0	0	2012	843	185	0
49	0	0	2059	844	183	0
50	0	0	2082	843	183	0
51	0	0	2111	843	185	0
52	0	0	2109	842	184	0
53	0	0	2077	841	185	0
54	0	0	2052	841	183	0
55	0	0	2045	844	184	0
56	0	0	2051	844	184	0
57	0	0	2067	842	183	0
58	0	0	2033	841	183	0
59	0	0	2017	844	184	0
60	0	0	2011	842	184	0
61	0	0	2000	844	184	0
62	0	0	1987	842	184	0
63	0	0	1988	844	184	0
64	0	0	1982	844	184	0
65	0	0	1993	844	184	0
66	0	0	1980	841	184	0
67	0	0	2007	844	184	0
68	0	0	2086	844	184	0
69	0	0	2120	844	185	0
70	0	0	2130	844	184	0
71	0	0	2145	843	184	0
72	0	0	2120	841	185	0
73	0	0	2090	842	184	0
74	0	0	2070	842	184	0
75	0	0	2045	840	184	0
76	0	0	2042	843	184	0
77	0	0	2040	840	183	0
78	0	0	1985	840	184	0
79	0	0	1952	842	184	0
80	0	0	1948	842	183	0
81	0	0	1944	843	185	0
82	0	0	1950	844	183	0
83	0	0	1971	844	184	0
84	0	0	1992	844	184	0
85	0	0	1994	843	184	0
86	0	0	1938	839	184	0
87	0	0	1911	844	184	0
88	0	0	1977	844	184	0
89	0	0	2037	843	185	0
90	0	0	2069	843	184	0
91	0	0	2105	843	184	0
92	0	0	2109	843	183	0
93	0	0	2099	843	183	0
94	0	0	2094	844	184	0
95	0	0	2094	844	185	0
96	0	0	2104	844	184	0
97	0	0	2102	840	183	0
98	0	0	2035	839	184	0
99	0	0	1984	841	184	0
100	0	0	1971	842	185	0
101	0	0	1971	844	184	0
102	0	0	1974	844	184	0
103	0	0	1974	844	185	0
104	0	0	1982	844	185	0
105	0	0	1989	844	183	0
106	0	0	1956	839	185	0
107	0	0	1950	844	184	0
108	0	0	2020	843	184	0
109	0	0	2066	844	184	0
110	0	0	2099	844	184	0
111	0	0	2152	844	185	0
112	0	0	2172	843	184	0
113	0	0	2164	844	184	0
114	0	0	2157	844	184	0
115	0	0	2141	842	184	0
116	0	0	2136	844	184	0
117	0	0	2122	840	183	0
118	0	0	2060	840	184	0
119	0	0	2014	841	184	0
120	0	0	1992	841	184	0
121	0	0	1979	843	183	0
122	0	0	1962	843	183	0
123	0	0	1953	843	184	0
124	0	0	1958	844	185	0
125	0	0	1966	845	184	0
126	0	0	1928	840	184	0
127	0	0	1928	845	184	0
0	0	0	2002	844	185	0
1	0	0	2050	844	184	0
2	0	0	2078	844	184	0
3	0	0	2121	845	183	0
4	0	0	2124	844	184	0
5	0	0	2108	844	184	0
6	0	0	2086	841	184	0
7	0	0	2068	842	183	0
8	0	0	2068	844	185	0
9	0	0	2046	841	184	0
10	0	0	1979	840	184	0
11	0	0	1934	841	183	0
12	0	0	1912	841	184	0
13	0	0	1892	841	183	0
14	0	0	1866	840	183	0
15	0	0	1839	841	184	0
16	0	0	1829	843	184	0
17	0	0	1823	843	184	0
18	0	0	1777	839	185	0
19	0	0	1762	843	184	0
20	0	0	1809	843	185	0
21	0	0	1839	844	185	0
22	0	0	1853	844	185	0
23	0	0	1884	844	184	0
24	0	0	1879	840	185	0
25	0	0	1853	841	183	0
26	0	0	1840	842	184	0
27	0	0	1839	844	184	0
28	0	0	1848	844	185	0
29	0	0	1848	839	183	0
30	0	0	1796	840	184	0
31	0	0	1756	841	183	0
32	0	0	1751	842	183	0
33	0	0	1760	844	183	0
34	0	0	1773	845	184	0
35	0	0	1795	844	184	0
36	0	0	1812	844	184	0
37	0	0	1825	844	183	0
38	0	0	1789	840	186	0
39	0	0	1786	845	185	0
40	0	0	1865	844	185	0
41	0	0	1936	844	185	0
42	0	0	1987	844	185	0
43	0	0	2041	845	183	0
44	0	0	2046	844	184	0
45	0	0	2027	843	184	0
46	0	0	2018	844	184	0
47	0	0	2014	844	184	0
48	0	0	2022	845	184	0
49	0	0	2008	841	183	0
50	0	0	1955	841	183	0
51	0	0	1921	842	183	0
52	0	0	1910	842	183	0
53	0	0	1905	845	183	0
54	0	0	1903	843	184	0
55	0	0	1916	844	184	0
56	0	0	1941	845	184	0
57	0	0	1965	845	185	0
58	0	0	1933	840	184	0
59	0	0	1939	844	184	0
60	0	0	2023	844	184	0
61	0	0	2085	844	184	0
62	0	0	2124	845	184	0
63	0	0	2169	844	184	0
64	0	0	2171	845	184	0
65	0	0	2146	843	184	0
66	0	0	2122	842	185	0
67	0	0	2100	842	183	0
68	0	0	2101	844	184	0
69	0	0	2085	841	184	0
70	0	0	2027	841	183	0
71	0	0	1991	842	183	0
72	0	0	1975	841	184	0
73	0	0	1965	844	184	0
74	0	0	1959	845	183	0
75	0	0	1954	845	185	0
76	0	0	1955	845	183	0
77	0	0	1961	845	184	0
78	0	0	1925	841	184	0
79	0	0	1938	845	185	0
80	0	0	2024	844	184	0
81	0	0	2088	845	185	0
82	0	0	2124	845	183	0
83	0	0	2176	845	183	0
84	0	0	2194	845	184	0
85	0	0	2193	845	184	0
86	0	0	2191	845	185	0
87	0	0	2186	845	184	0
88	0	0	2198	844	184	0
89	0	0	2198	842	184	0
90	0	0	2148	842	184	0
91	0	0	2116	843	185	0
92	0	0	2108	844	184	0
93	0	0	2097	846	183	0
94	0	0	2082	845	184	0
95	0	0	2080	845	183	0
96	0	0	2086	845	183	0
97	0	0	2100	845	184	0
98	0	0	2056	841	183	0
99	0	0	2050	845	185	0
100	0	0	2113	845	184	0
101	0	0	2146	845	185	0
102	0	0	2165	845	185	0
103	0	0	2194	845	183	0
104	0	0	2180	842	184	0
105	0	0	2144	843	183	0
106	0	0	2110	842	184	0
107	0	0	2081	843	184	0
108	0	0	2076	845	184	0
109	0	0	2049	842	183	0
110	0	0	1982	842	185	0
111	0	0	1935	842	184	0
112	0	0	1914	842	183	0
113	0	0	1901	845	184	0
114	0	0	1890	845	184	0
115	0	0	1895	846	185	0
116	0	0	1913	846	184	0
117	0	0	1932	846	184	0
118	0	0	1889	841	183	0
119	0	0	1888	846	184	0
120	0	0	1950	845	184	0
121	0	0	1994	845	184	0
122	0	0	2023	846	183	0
123	0	0	2058	846	184	0
124	0	0	2053	844	184	0
125	0	0	2031	845	183	0
126	0	0	2021	845	183	0
127	0	0	2003	844	183	0
0	0	0	2009	846	183	0
1	0	0	1992	842	184	0
2	0	0	1935	843	184	0
3	0	0	1907	845	184	0
4	0	0	1897	843	184	0
5	0	0	1886	846	184	0
6	0	0	1878	846	184	0
7	0	0	1880	847	184	0
8	0	0	1886	846	184	0
9	0	0	1905	846	184	0
10	0	0	1874	843	184	0
11	0	0	1889	847	185	0
12	0	0	1963	847	184	0
13	0	0	2017	846	184	0
14	0	0	2062	847	184	0
15	0	0	2112	847	183	0
16	0	0	2122	846	184	0
17	0	0	2107	846	185	0
18	0	0	2099	847	185	0
19	0	0	2096	847	184	0
20	0	0	2121	847	182	0
21	0	0	2123	844	184	0
22	0	0	2078	844	184	0
23	0	0	2058	847	185	0
24	0	0	2051	845	184	0
25	0	0	2041	847	184	0
26	0	0	2030	847	184	0
27	0	0	2032	847	184	0
28	0	0	2041	847	184	0
29	0	0	2056	847	185	0
30	0	0	2014	843	184	0
31	0	0	2026	847	184	0
32	0	0	2100	847	185	0
33	0	0	2154	847	184	0
34	0	0	2193	847	184	0
35	0	0	2243	847	182	0
36	0	0	2255	847	184	0
37	0	0	2242	848	183	0
38	0	0	2231	847	185	0
39	0	0	2220	847	185	0
40	0	0	2233	848	184	0
41	0	0	2221	844	183	0
42	0	0	2161	844	184	0
43	0	0	2129	847	185	0
44	0	0	2120	846	184	0
45	0	0	2109	847	182	0
46	0	0	2091	847	184	0
47	0	0	2082	847	183	0
48	0	0	2081	848	183	0
49	0	0	2091	848	184	0
50	0	0	2039	843	184	0
51	0	0	2050	848	184	0
52	0	0	2124	847	185	0
53	0	0	2166	847	184	0
54	0	0	2203	848	183	0
55	0	0	2247	848	185	0
56	0	0	2251	848	184	0
57	0	0	2228	847	184	0
58	0	0	2205	846	184	0
59	0	0	2184	845	184	0
60	0	0	2185	848	183	0
61	0	0	2164	844	183	0
62	0	0	2103	844	184	0
63	0	0	2066	845	185	0
64	0	0	2045	845	184	0
65	0	0	2033	848	184	0
66	0	0	2016	846	183	0
67	0	0	2009	849	184	0
68	0	0	2012	848	184	0
69	0	0	2022	848	185	0
70	0	0	1969	844	185	0
71	0	0	1973	849	184	0
72	0	0	2042	848	184	0
73	0	0	2088	848	184	0
74	0	0	2121	848	184	0
75	0	0	2163	848	185	0
76	0	0	2167	848	184	0
77	0	0	2147	847	183	0
78	0	0	2136	848	184	0
79	0	0	2124	847	183	0
80	0	0	2131	849	184	0
81	0	0	2111	845	183	0
82	0	0	2050	845	184	0
83	0	0	2012	846	184	0
84	0	0	1999	846	182	0
85	0	0	1990	848	184	0
86	0	0	1973	848	184	0
87	0	0	1968	848	185	0
88	0	0	1978	849	184	0
89	0	0	1989	849	184	0
90	0	0	1946	845	183	0
91	0	0	1969	849	184	0
92	0	0	2058	849	184	0
93	0	0	2116	849	184	0
94	0	0	2160	848	185	0
95	0	0	2213	850	184	0
96	0	0	2231	849	185	0
97	0	0	2225	849	184	0
98	0	0	2217	849	184	0
99	0	0	2208	849	183	0
100	0	0	2229	850	184	0
101	0	0	2220	846	183	0
102	0	0	2158	845	184	0
103	0	0	2127	847	184	0
104	0	0	2106	846	184	0
105	0	0	2095	849	184	0
106	0	0	2083	850	184	0
107	0	0	2079	849	184	0
108	0	0	2082	850	184	0
109	0	0	2092	850	183	0
110	0	0	2034	845	185	0
111	0	0	2054	850	184	0
112	0	0	2141	849	185	0
113	0	0	2194	850	184	0
114	0	0	2243	849	185	0
115	0	0	2292	849	183	0
116	0	0	2299	850	184	0
117	0	0	2284	850	184	0
118	0	0	2273	850	185	0
119	0	0	2262	849	183	0
120	0	0	2281	850	186	0
121	0	0	2247	847	184	0
122	0	0	2161	845	184	0
123	0	0	2112	846	184	0
124	0	0	2082	847	184	0
125	0	0	2062	849	184	0
126	0	0	2029	847	184	0
127	0	0	2009	849	184	0
0	0	0	2005	851	183	0
1	0	0	2006	850	185	0
2	0	0	1908	845	184	0
3	0	0	1937	850	184	0
4	0	0	2038	850	184	0
5	0	0	2089	850	184	0
6	0	0	2141	850	184	0
7	0	0	2192	851	184	0
8	0	0	2160	847	184	0
9	0	0	2118	846	183	0
10	0	0	2072	848	184	0
11	0	0	2027	846	184	0
12	0	0	2053	851	184	0
13	0	0	1972	846	183	0
14	0	0	1827	847	184	0
15	0	0	1765	847	183	0
16	0	0	1717	846	184	0
17	0	0	1698	848	183	0
18	0	0	1660	848	185	0
19	0	0	1649	849	184	0
20	0	0	1679	851	184	0
21	0	0	1732	851	184	0
22	0	0	1584	846	183	0
23	0	0	1683	851	184	0
24	0	0	1992	852	184	0
25	0	0	2153	851	184	0
26	0	0	2304	851	184	0
27	0	0	2479	851	184	0
28	0	0	2508	847	184	0
29	0	0	2445	849	184	0
30	0	0	2414	847	184	0
31	0	0	2383	846	183	0
32	0	0	2438	852	186	0
33	0	0	2391	845	183	0
34	0	0	2096	846	184	0
35	0	0	1869	846	185	0
36	0	0	1765	846	184	0
37	0	0	1679	846	184	0
38	0	0	1567	847	184	0
39	0	0	1513	849	184	0
40	0	0	1588	852	183	0
41	0	0	1731	852	184	0
42	0	0	1483	846	183	0
43	0	0	1546	851	184	0
44	0	0	2094	851	184	0
45	0	0	2525	852	185	0
46	0	0	2877	851	184	0
47	0	0	3291	851	184	0
48	0	0	3463	851	183	0
49	0	0	3395	847	184	0
50	0	0	3207	845	184	0
51	0	0	3013	845	185	0
52	0	0	2914	851	184	0
53	0	0	2765	845	183	0
54	0	0	2357	844	184	0
55	0	0	1969	845	184	0
56	0	0	1700	844	183	0
57	0	0	1494	846	184	0
58	0	0	1341	846	184	0
59	0	0	1289	849	184	0
60	0	0	1372	851	184	0
61	0	0	1586	852	183	0
62	0	0	1585	847	184	0
63	0	0	1745	852	182	0
64	0	0	2308	852	185	0
65	0	0	2696	852	183	0
66	0	0	2986	851	185	0
67	0	0	3209	851	184	0
68	0	0	3196	847	183	0
69	0	0	3011	846	185	0
70	0	0	2832	846	184	0
71	0	0	2645	846	184	0
72	0	0	2558	852	185	0
73	0	0	2429	846	183	0
74	0	0	2119	846	184	0
75	0	0	1901	847	184	0
76	0	0	1784	846	185	0
77	0	0	1691	848	184	0
78	0	0	1622	848	184	0
79	0	0	1621	851	183	0
80	0	0	1737	852	184	0
81	0	0	1879	851	183	0
82	0	0	1712	846	185	0
83	0	0	1842	852	184	0
84	0	0	2283	852	184	0
85	0	0	2528	851	183	0
86	0	0	2733	852	185	0
87	0	0	2890	852	185	0
88	0	0	2829	847	184	0
89	0	0	2638	846	184	0
90	0	0	2489	846	184	0
91	0	0	2348	846	184	0
92	0	0	2330	852	184	0
93	0	0	2193	846	184	0
94	0	0	1867	846	183	0
95	0	0	1720	847	183	0
96	0	0	1629	847	184	0
97	0	0	1568	847	184	0
98	0	0	1504	849	184	0
99	0	0	1487	848	183	0
100	0	0	1544	852	185	0
101	0	0	1646	852	183	0
102	0	0	1473	847	182	0
103	0	0	1544	852	184	0
104	0	0	1943	851	184	0
105	0	0	2189	851	184	0
106	0	0	2401	852	184	0
107	0	0	2566	852	184	0
108	0	0	2503	847	184	0
109	0	0	2354	847	183	0
110	0	0	2187	846	184	0
111	0	0	2007	846	184	0
112	0	0	1967	848	184	0
113	0	0	1763	846	184	0
114	0	0	1477	846	183	0
115	0	0	1320	847	184	0
116	0	0	1225	847	184	0
117	0	0	1170	847	185	0
118	0	0	1124	849	184	0
119	0	0	1112	849	184	0
120	0	0	1137	852	184	0
121	0	0	1193	852	184	0
122	0	0	1050	848	184	0
123	0	0	1165	852	185	0
124	0	0	1410	851	184	0
125	0	0	1516	852	186	0
126	0	0	1623	852	184	0
127	0	0	1689	852	184	0
0	0	0	1666	848	184	0
1	0	0	1619	848	183	0
2	0	0	1585	849	184	0
3	0	0	1551	848	184	0
4	0	0	1574	852	184	0
5	0	0	1452	847	185	0
6	0	0	1257	848	183	0
7	0	0	1155	848	183	0
8	0	0	1086	848	185	0
9	0	0	1037	848	185	0
10	0	0	983	849	184	0
11	0	0	956	848	183	0
12	0	0	972	853	184	0
13	0	0	1030	852	183	0
14	0	0	907	848	184	0
15	0	0	1011	853	184	0
16	0	0	1229	852	183	0
17	0	0	1359	852	184	0
18	0	0	1475	853	184	0
19	0	0	1542	853	185	0
20	0	0	1502	849	185	0
21	0	0	1440	849	184	0
22	0	0	1384	849	184	0
23	0	0	1337	849	184	0
24	0	0	1390	853	184	0
25	0	0	1341	848	184	0
26	0	0	1252	848	183	0
27	0	0	1232	852	183	0
28	0	0	1224	851	184	0
29	0	0	1262	853	183	0
30	0	0	1297	854	184	0
31	0	0	1353	853	184	0
32	0	0	1436	853	184	0
33	0	0	1515	853	183	0
34	0	0	1446	850	185	0
35	0	0	1589	853	184	0
36	0	0	1787	854	184	0
37	0	0	1919	853	184	0
38	0	0	2074	853	185	0
39	0	0	2208	854	183	0
40	0	0	2256	854	184	0
41	0	0	2269	854	184	0
42	0	0	2260	852	184	0
43	0	0	2240	854	183	0
44	0	0	2304	854	184	0
45	0	0	2210	849	185	0
46	0	0	2038	847	184	0
47	0	0	1932	850	184	0
48	0	0	1869	850	184	0
49	0	0	1826	851	184	0
50	0	0	1775	850	183	0
51	0	0	1743	851	183	0
52	0	0	1751	854	185	0
53	0	0	1777	853	183	0
54	0	0	1653	849	185	0
55	0	0	1705	854	184	0
56	0	0	1859	853	184	0
57	0	0	1941	854	183	0
58	0	0	2026	855	184	0
59	0	0	2096	855	185	0
60	0	0	2102	853	184	0
61	0	0	2092	854	184	0
62	0	0	2082	855	184	0
63	0	0	2082	856	184	0
64	0	0	2196	855	184	0
65	0	0	2350	855	184	0
66	0	0	3084	855	183	0
67	0	0	3528	855	185	0
68	0	0	3786	851	184	0
69	0	0	3934	847	185	0
70	0	0	2227	848	184	0
71	0	0	1317	849	184	0
72	0	0	799	850	184	0
73	0	0	506	852	183	0
74	0	0	338	854	185	0
75	0	0	246	856	184	0
76	0	0	199	856	183	0
77	0	0	175	860	184	0
78	0	0	166	864	185	0
79	0	0	161	864	184	0
80	0	0	161	864	184	0
81	0	0	163	863	185	0
82	0	0	597	863	184	0
83	0	0	2121	863	184	0
84	0	0	2971	862	184	0
85	0	0	3473	862	183	0
86	0	0	3775	862	184	0
87	0	0	3945	862	184	0
88	0	0	4039	857	183	0
89	0	0	2895	854	184	0
90	0	0	1722	855	185	0
91	0	0	1048	855	183	0
92	0	0	659	856	183	0
93	0	0	438	857	185	0
94	0	0	316	858	184	0
95	0	0	250	859	185	0
96	0	0	217	861	184	0
97	0	0	204	866	185	0
98	0	0	195	865	184	0
99	0	0	193	866	183	0
100	0	0	194	866	184	0
101	0	0	197	865	184	0
102	0	0	200	865	184	0
103	0	0	234	865	184	0
104	0	0	1960	866	184	0
105	0	0	2891	865	184	0
106	0	0	3442	865	184	0
107	0	0	3768	865	184	0
108	0	0	3961	865	184	0
109	0	0	2427	857	185	0
110	0	0	1469	858	184	0
111	0	0	926	858	184	0
112	0	0	611	860	184	0
113	0	0	432	859	185	0
114	0	0	335	860	183	0
115	0	0	282	861	184	0
116	0	0	259	865	185	0
117	0	0	246	866	184	0
118	0	0	240	866	184	0
119	0	0	239	866	184	0
120	0	0	241	866	185	0
121	0	0	1935	864	184	0
122	0	0	2890	866	184	0
123	0	0	3456	865	184	0
124	0	0	3789	865	183	0
125	0	0	3987	865	184	0
126	0	0	4091	864	184	0
127	0	0	4092	865	183	0
0	0	0	4091	865	184	0
1	0	0	4091	864	183	0
2	0	0	4092	864	184	0
3	0	0	4091	861	185	0
4	0	0	4091	864	184	0
5	0	0	4091	864	184	0
6	0	0	4092	864	185	0
7	0	0	4092	863	185	0
8	0	0	4091	862	184	0
9	0	0	4091	863	185	0
10	0	0	4091	863	184	0
11	0	0	4091	863	185	0
12	0	0	4092	863	184	0
13	0	0	4091	862	185	0
14	0	0	4091	863	183	0
15	0	0	4091	863	184	0
16	0	0	4091	863	184	0
17	0	0	4092	862	184	0
18	0	0	4091	861	184	0
19	0	0	4093	862	184	0
20	0	0	4092	862	184	0
21	0	0	4091	861	184	0
22	0	0	4092	862	184	0
23	0	0	4085	859	183	0
24	0	0	4080	861	184	0
25	0	0	4072	861	184	0
26	0	0	4065	860	184	0
27	0	0	4060	860	184	0
28	0	0	4053	860	183	0
29	0	0	4047	860	185	0
30	0	0	4041	860	184	0
31	0	0	4033	859	185	0
32	0	0	4027	859	184	0
33	0	0	4021	858	184	0
34	0	0	4014	859	184	0
35	0	0	4009	859	184	0
36	0	0	4004	858	185	0
37	0	0	3997	859	185	0
38	0	0	3992	858	183	0
39	0	0	3983	858	184	0
40	0	0	3977	858	184	0
41	0	0	3972	857	183	0
42	0	0	3967	858	184	0
43	0	0	3960	856	184	0
44	0	0	3953	857	184	0
45	0	0	3948	858	184	0
46	0	0	3943	856	186	0
47	0	0	3937	857	183	0
48	0	0	3930	856	183	0
49	0	0	3924	856	184	0
50	0	0	3919	856	185	0
51	0	0	3915	856	184	0
52	0	0	3909	856	186	0
53	0	0	3904	856	183	0
54	0	0	3896	855	183	0
55	0	0	3890	855	184	0
56	0	0	3885	856	184	0
57	0	0	3881	856	183	0
58	0	0	3874	855	183	0
59	0	0	3868	855	183	0
60	0	0	3863	855	184	0
61	0	0	3858	855	183	0
62	0	0	3853	855	183	0
63	0	0	3847	854	183	0
64	0	0	3842	854	184	0
65	0	0	3837	854	185	0
66	0	0	3831	854	184	0
67	0	0	3827	853	183	0
68	0	0	3821	853	183	0
69	0	0	3816	853	184	0
70	0	0	3810	853	185	0
71	0	0	3805	853	184	0
72	0	0	3801	853	183	0
73	0	0	3795	853	183	0
74	0	0	3790	852	184	0
75	0	0	3784	852	184	0
76	0	0	3780	852	183	0
77	0	0	3776	853	183	0
78	0	0	3770	852	184	0
79	0	0	3764	852	185	0
80	0	0	3760	852	184	0
81	0	0	3755	852	184	0
82	0	0	3752	852	184	0
83	0	0	3746	852	184	0
84	0	0	3739	851	184	0
85	0	0	3736	851	185	0
86	0	0	3731	851	184	0
87	0	0	3725	851	185	0
88	0	0	3722	851	184	0
89	0	0	3716	851	184	0
90	0	0	3711	850	184	0
91	0	0	3707	850	184	0
92	0	0	3703	850	185	0
93	0	0	3696	850	185	0
94	0	0	3692	849	184	0
95	0	0	3687	850	184	0
96	0	0	3683	850	184	0
97	0	0	3679	850	184	0
98	0	0	3674	849	183	0
99	0	0	3668	848	184	0
100	0	0	3664	849	184	0
101	0	0	3660	848	184	0
102	0	0	3656	849	184	0
103	0	0	3651	848	183	0
104	0	0	3649	848	184	0
105	0	0	3643	847	184	0
106	0	0	3638	848	184	0
107	0	0	3633	847	183	0
108	0	0	3628	847	184	0
109	0	0	3624	847	183	0
110	0	0	3620	848	185	0
111	0	0	3616	848	184	0
112	0	0	3612	848	184	0
113	0	0	3606	847	184	0
114	0	0	3603	847	183	0
115	0	0	3598	847	184	0
116	0	0	3593	847	182	0
117	0	0	3591	847	185	0
118	0	0	3585	846	184	0
119	0	0	3582	846	184	0
120	0	0	3577	846	183	0
121	0	0	3572	846	183	0
122	0	0	3569	846	185	0
123	0	0	3564	845	184	0
124	0	0	3561	846	184	0
125	0	0	3555	846	184	0
126	0	0	3552	846	184	0
127	0	0	3550	845	185	0
0	0	0	3543	845	184	0
1	0	0	3539	845	184	0
2	0	0	3535	845	183	0
3	0	0	3532	844	184	0
4	0	0	3528	845	185	0
5	0	0	3524	845	183	0
6	0	0	3519	844	184	0
7	0	0	3515	844	183	0
8	0	0	3511	844	184	0
9	0	0	3508	844	184	0
10	0	0	3504	844	184	0
11	0	0	3499	844	183	0
12	0	0	3495	845	184	0
13	0	0	3492	844	184	0
14	0	0	3488	844	185	0
15	0	0	3485	844	184	0
16	0	0	3479	844	183	0
17	0	0	3476	843	185	0
18	0	0	3473	844	184	0
19	0	0	3468	843	185	0
20	0	0	3464	843	184	0
21	0	0	3460	843	184	0
22	0	0	3456	843	184	0
23	0	0	3452	843	183	0
24	0	0	3450	844	185	0
25	0	0	3444	843	183	0
26	0	0	3440	842	183	0
27	0	0	3438	842	185	0
28	0	0	3436	842	184	0
29	0	0	3431	843	183	0
30	0	0	3428	842	183	0
31	0	0	3422	842	184	0
32	0	0	3418	842	185	0
33	0	0	3414	842	185	0
34	0	0	3411	842	185	0
35	0	0	3408	841	184	0
36	0	0	3404	841	184	0
37	0	0	3400	841	184	0
38	0	0	3397	841	184	0
39	0	0	3394	840	183	0
40	0	0	3389	840	184	0
41	0	0	3385	840	183	0
42	0	0	3382	840	184	0
43	0	0	3378	839	185	0
44	0	0	3376	841	184	0
45	0	0	3371	839	185	0
46	0	0	3370	840	184	0
47	0	0	3363	841	183	0
48	0	0	3361	840	182	0
49	0	0	3358	840	183	0
50	0	0	3353	840	183	0
51	0	0	3349	840	184	0
52	0	0	3346	839	184	0
53	0	0	3343	839	184	0
54	0	0	3341	839	184	0
55	0	0	3336	839	185	0
56	0	0	3333	838	183	0
57	0	0	3329	839	183	0
58	0	0	3326	838	184	0
59	0	0	3324	839	184	0
60	0	0	3320	838	184	0
61	0	0	3315	838	184	0
62	0	0	3313	838	183	0
63	0	0	3310	838	185	0
64	0	0	3305	838	185	0
65	0	0	3303	838	184	0
66	0	0	3299	838	184	0
67	0	0	3296	837	183	0
68	0	0	3291	838	183	0
69	0	0	3290	838	184	0
70	0	0	3285	837	184	0
71	0	0	3281	837	184	0
72	0	0	3279	838	184	0
73	0	0	3276	837	184	0
74	0	0	3273	837	185	0
75	0	0	3269	837	184	0
76	0	0	3268	837	184	0
77	0	0	3263	836	184	0
78	0	0	3259	837	184	0
79	0	0	3257	837	184	0
80	0	0	3252	836	185	0
81	0	0	3249	836	184	0
82	0	0	3247	838	184	0
83	0	0	3243	837	184	0
84	0	0	3240	836	185	0
85	0	0	3236	837	185	0
86	0	0	3233	836	184	0
87	0	0	3230	837	185	0
88	0	0	3227	836	184	0
89	0	0	3225	837	184	0
90	0	0	3221	836	184	0
91	0	0	3219	836	183	0
92	0	0	3215	836	184	0
93	0	0	3211	836	183	0
94	0	0	3210	837	185	0
95	0	0	3204	836	185	0
96	0	0	3202	836	183	0
97	0	0	3199	836	184	0
98	0	0	3196	835	184	0
99	0	0	3193	835	185	0
100	0	0	3190	835	184	0
101	0	0	3187	835	184	0
102	0	0	3184	836	185	0
103	0	0	3181	834	185	0
104	0	0	3178	836	185	0
105	0	0	3175	835	184	0
106	0	0	3172	835	184	0
107	0	0	3169	835	183	0
108	0	0	3167	836	184	0
109	0	0	3163	835	183	0
110	0	0	3161	836	184	0
111	0	0	3156	835	184	0
112	0	0	3154	835	183	0
113	0	0	3152	835	184	0
114	0	0	3148	835	185	0
115	0	0	3144	835	184	0
116	0	0	3142	835	184	0
117	0	0	3138	835	184	0
118	0	0	3136	835	184	0
119	0	0	3135	836	185	0
120	0	0	3129	835	184	0
121	0	0	3127	835	185	0
122	0	0	3124	836	183	0
123	0	0	3122	835	184	0
124	0	0	3120	835	185	0
125	0	0	3116	835	183	0
126	0	0	3113	835	184	0
127	0	0	3109	836	185	0
0	0	0	3108	835	184	0
1	0	0	3105	835	184	0
2	0	0	3102	835	185	0
3	0	0	3099	835	184	0
4	0	0	3097	835	183	0
5	0	0	3095	835	185	0
6	0	0	3090	835	183	0
7	0	0	3090	835	183	0
8	0	0	3084	835	184	0
9	0	0	3082	834	185	0
10	0	0	3080	835	185	0
11	0	0	3077	835	183	0
12	0	0	3073	835	184	0
13	0	0	3070	835	184	0
14	0	0	3067	835	184	0
15	0	0	3065	834	184	0
16	0	0	3062	835	186	0
17	0	0	3059	835	183	0
18	0	0	3058	835	184	0
19	0	0	3054	835	184	0
20	0	0	3051	835	183	0
21	0	0	3049	835	184	0
22	0	0	3047	835	185	0
23	0	0	3043	835	184	0
24	0	0	3040	835	184	0
25	0	0	3038	835	184	0
26	0	0	3035	835	185	0
27	0	0	3033	835	184	0
28	0	0	3030	835	184	0
29	0	0	3027	834	185	0
30	0	0	3025	835	184	0
31	0	0	3023	835	185	0
32	0	0	3019	835	184	0
33	0	0	3016	834	185	0
34	0	0	3014	836	184	0
35	0	0	3012	835	185	0
36	0	0	3010	836	184	0
37	0	0	3006	835	183	0
38	0	0	3006	835	183	0
39	0	0	3003	836	184	0
40	0	0	2999	836	184	0
41	0	0	2997	836	184	0
42	0	0	2994	836	185	0
43	0	0	2993	836	184	0
44	0	0	2988	836	184	0
45	0	0	2986	836	184	0
46	0	0	2984	837	185	0
47	0	0	2981	836	184	0
48	0	0	2979	836	184	0
49	0	0	2977	836	183	0
50	0	0	2974	837	185	0
51	0	0	2971	837	184	0
52	0	0	2969	836	185	0
53	0	0	2968	837	184	0
54	0	0	2965	838	184	0
55	0	0	2961	837	185	0
56	0	0	2959	837	185	0
57	0	0	2956	837	184	0
58	0	0	2954	837	184	0
59	0	0	2951	837	183	0
60	0	0	2949	837	184	0
61	0	0	2947	838	183	0
62	0	0	2944	838	184	0
63	0	0	2942	838	183	0
64	0	0	2939	838	183	0
65	0	0	2938	838	185	0
66	0	0	2935	838	184	0
67	0	0	2933	839	185	0
68	0	0	2930	838	184	0
69	0	0	2928	838	183	0
70	0	0	2927	839	184	0
71	0	0	2923	839	184	0
72	0	0	2920	839	184	0
73	0	0	2918	839	184	0
74	0	0	2917	839	185	0
75	0	0	2914	839	184	0
76	0	0	2912	839	185	0
77	0	0	2909	840	185	0
78	0	0	2907	839	184	0
79	0	0	2905	840	183	0
80	0	0	2902	840	185	0
81	0	0	2900	840	184	0
82	0	0	2899	840	185	0
83	0	0	2895	840	184	0
84	0	0	2893	840	184	0
85	0	0	2891	841	184	0
86	0	0	2890	841	184	0
87	0	0	2886	841	184	0
88	0	0	2883	840	184	0
89	0	0	2882	841	185	0
90	0	0	2880	841	185	0
91	0	0	2878	841	184	0
92	0	0	2875	841	186	0
93	0	0	2873	841	184	0
94	0	0	2870	841	184	0
95	0	0	2869	841	185	0
96	0	0	2866	842	184	0
97	0	0	2864	841	184	0
98	0	0	2862	842	183	0
99	0	0	2860	841	184	0
100	0	0	2859	842	184	0
101	0	0	2856	842	184	0
102	0	0	2855	842	184	0
103	0	0	2851	842	184	0
104	0	0	2849	842	184	0
105	0	0	2847	843	183	0
106	0	0	2845	842	184	0
107	0	0	2843	842	184	0
108	0	0	2840	842	184	0
109	0	0	2839	842	183	0
110	0	0	2836	842	185	0
111	0	0	2834	843	184	0
112	0	0	2832	843	185	0
113	0	0	2832	843	184	0
114	0	0	2829	842	185	0
115	0	0	2825	843	184	0
116	0	0	2824	843	184	0
117	0	0	2823	843	183	0
118	0	0	2819	843	184	0
119	0	0	2817	843	183	0
120	0	0	2816	843	183	0
121	0	0	2813	843	184	0
122	0	0	2812	843	182	0
123	0	0	2808	843	184	0
124	0	0	2807	843	183	0
125	0	0	2806	843	183	0
126	0	0	2803	844	185	0
127	0	0	2800	844	183	0
0	0	0	2799	843	184	0
1	0	0	2797	843	183	0
2	0	0	2796	844	185	0
3	0	0	2794	844	184	0
4	0	0	2791	843	183	0
5	0	0	2790	844	184	0
6	0	0	2788	844	184	0
7	0	0	2785	844	185	0
8	0	0	2784	844	184	0
9	0	0	2781	844	184	0
10	0	0	2779	844	183	0
11	0	0	2777	844	182	0
12	0	0	2776	844	183	0
13	0	0	2774	845	183	0
14	0	0	2771	844	183	0
15	0	0	2769	845	184	0
16	0	0	2767	844	184	0
17	0	0	2766	845	185	0
18	0	0	2766	845	184	0
19	0	0	2761	845	184	0
20	0	0	2761	845	183	0
21	0	0	2758	845	182	0
22	0	0	2757	845	184	0
23	0	0	2755	845	184	0
24	0	0	2752	845	185	0
25	0	0	2750	845	184	0
26	0	0	2749	846	185	0
27	0	0	2747	845	185	0
28	0	0	2745	845	184	0
29	0	0	2743	845	184	0
30	0	0	2741	845	183	0
31	0	0	2739	846	184	0
32	0	0	2737	845	184	0
33	0	0	2735	845	185	0
34	0	0	2733	845	183	0
35	0	0	2733	845	184	0
36	0	0	2731	844	183	0
37	0	0	2728	846	184	0
38	0	0	2727	845	185	0
39	0	0	2725	846	182	0
40	0	0	2721	846	184	0
41	0	0	2721	846	184	0
42	0	0	2720	846	184	0
43	0	0	2717	846	184	0
44	0	0	2716	846	184	0
45	0	0	2713	845	185	0
46	0	0	2713	847	185	0
47	0	0	2710	846	185	0
48	0	0	2708	845	184	0
49	0	0	2706	846	183	0
50	0	0	2706	846	184	0
51	0	0	2704	846	184	0
52	0	0	2701	846	183	0
53	0	0	2699	846	183	0
54	0	0	2698	846	184	0
55	0	0	2696	846	183	0
56	0	0	2694	846	183	0
57	0	0	2693	846	184	0
58	0	0	2691	846	184	0
59	0	0	2688	846	183	0
60	0	0	2687	846	184	0
61	0	0	2686	847	184	0
62	0	0	2684	846	184	0
63	0	0	2683	846	183	0
64	0	0	2680	846	185	0
65	0	0	2679	846	184	0
66	0	0	2677	846	183	0
67	0	0	2675	846	183	0
68	0	0	2673	846	184	0
69	0	0	2672	846	183	0
70	0	0	2671	847	184	0
71	0	0	2669	846	183	0
72	0	0	2667	846	184	0
73	0	0	2665	847	184	0
74	0	0	2664	846	182	0
75	0	0	2662	846	184	0
76	0	0	2661	847	185	0
77	0	0	2659	847	185	0
78	0	0	2657	847	184	0
79	0	0	2655	847	183	0
80	0	0	2654	847	184	0
81	0	0	2652	847	184	0
82	0	0	2651	846	184	0
83	0	0	2648	847	184	0
84	0	0	2648	848	185	0
85	0	0	2645	847	183	0
86	0	0	2643	847	184	0
87	0	0	2643	847	183	0
88	0	0	2641	847	185	0
89	0	0	2639	847	184	0
90	0	0	2638	847	184	0
91	0	0	2635	847	185	0
92	0	0	2635	847	184	0
93	0	0	2633	848	185	0
94	0	0	2631	847	183	0
95	0	0	2630	847	183	0
96	0	0	2628	847	184	0
97	0	0	2627	848	183	0
98	0	0	2625	848	184	0
99	0	0	2622	847	184	0
100	0	0	2622	847	184	0
101	0	0	2621	848	185	0
102	0	0	2620	848	184	1
103	0	0	2617	847	184	0
104	0	0	2617	848	183	0
105	0	0	2614	847	184	0
106	0	0	2612	847	184	0
107	0	0	2611	847	185	0
108	0	0	2609	848	184	0
109	0	0	2608	847	183	0
110	0	0	2606	847	184	0
111	0	0	2605	848	183	0
112	0	0	2603	848	184	0
113	0	0	2603	848	184	0
114	0	0	2600	848	183	0
115	0	0	2600	848	184	0
116	0	0	2598	848	183	0
117	0	0	2596	848	183	0
118	0	0	2594	848	184	0
119	0	0	2593	848	183	0
120	0	0	2591	848	185	0
121	0	0	2590	848	185	0
122	0	0	2589	848	184	0
123	0	0	2587	848	184	0
124	0	0	2585	847	184	0
125	0	0	2584	848	185	0
126	0	0	2583	849	183	0
127	0	0	2582	848	184	0
0	0	0	2580	849	183	0
1	0	0	2579	848	183	0
2	0	0	2577	848	183	0
3	0	0	2575	849	184	0
4	0	0	2574	848	184	0
5	0	0	2573	849	185	0
6	0	0	2570	849	183	0
7	0	0	2570	848	184	0
8	0	0	2568	848	184	0
9	0	0	2567	848	184	0
10	0	0	2566	848	185	0
11	0	0	2566	850	184	0
12	0	0	2563	848	184	0
13	0	0	2561	849	184	0
14	0	0	2561	849	184	0
15	0	0	2558	849	185	0
16	0	0	2557	849	183	0
17	0	0	2555	849	184	0
18	0	0	2553	849	184	0
19	0	0	2553	849	185	0
20	0	0	2551	849	184	0
21	0	0	2550	848	184	0
22	0	0	2549	849	184	0
23	0	0	2547	849	185	0
24	0	0	2546	849	185	0
25	0	0	2545	849	183	0
26	0	0	2543	848	183	0
27	0	0	2542	848	183	0
28	0	0	2541	849	183	0
29	0	0	2540	849	184	0
30	0	0	2539	849	183	0
31	0	0	2537	848	183	0
32	0	0	2535	848	184	0
33	0	0	2534	848	184	0
34	0	0	2533	847	184	0
35	0	0	2531	848	184	0
36	0	0	2530	848	183	0
37	0	0	2529	848	184	0
38	0	0	2528	848	185	0
39	0	0	2526	848	183	0
40	0	0	2525	848	184	0
41	0	0	2523	848	184	0
42	0	0	2522	848	184	0
43	0	0	2520	848	184	0
44	0	0	2520	849	183	0
45	0	0	2518	849	183	0
46	0	0	2517	848	183	0
47	0	0	2516	848	184	0
48	0	0	2515	848	184	0
49	0	0	2513	848	184	0
50	0	0	2513	848	183	0
51	0	0	2512	849	183	0
52	0	0	2509	848	184	0
53	0	0	2508	848	184	0
54	0	0	2508	847	186	0
55	0	0	2506	849	185	0
56	0	0	2505	849	184	0
57	0	0	2503	848	184	0
58	0	0	2502	849	185	0
59	0	0	2501	847	185	0
60	0	0	2500	848	183	0
61	0	0	2498	848	184	0
62	0	0	2497	849	184	0
63	0	0	2496	848	184	0
64	0	0	2495	848	183	0
65	0	0	2495	848	183	0
66	0	0	2492	848	184	0
67	0	0	2491	848	183	0
68	0	0	2490	849	184	0
69	0	0	2488	848	184	0
70	0	0	2488	848	184	0
71	0	0	2487	849	184	0
72	0	0	2485	848	184	0
73	0	0	2484	849	185	0
74	0	0	2483	849	184	0
75	0	0	2483	849	185	0
76	0	0	2480	848	182	0
77	0	0	2480	849	184	0
78	0	0	2479	849	184	0
79	0	0	2477	848	184	0
80	0	0	2476	848	185	0
81	0	0	2473	848	184	0
82	0	0	2473	849	184	0
83	0	0	2471	848	185	0
84	0	0	2471	849	185	0
85	0	0	2470	848	184	0
86	0	0	2469	848	184	0
87	0	0	2468	848	184	0
88	0	0	2467	848	184	0
89	0	0	2466	849	183	0
90	0	0	2465	849	184	0
91	0	0	2464	848	184	0
92	0	0	2462	849	184	0
93	0	0	2461	848	183	0
94	0	0	2461	849	184	0
95	0	0	2458	848	184	0
96	0	0	2458	848	184	0
97	0	0	2456	848	184	0
98	0	0	2455	848	185	0
99	0	0	2454	848	184	0
100	0	0	2454	848	185	0
101	0	0	2452	847	184	0
102	0	0	2450	847	185	0
103	0	0	2388	841	185	0
104	0	0	2160	841	184	0
105	0	0	2030	843	184	0
106	0	0	2096	847	184	0
107	0	0	2270	846	185	0
108	0	0	2359	848	185	0
109	0	0	2402	847	184	0
110	0	0	2423	848	184	0
111	0	0	2433	848	182	0
112	0	0	2438	848	183	0
113	0	0	2440	848	183	0
114	0	0	2440	849	184	0
115	0	0	2440	849	184	0
116	0	0	2439	848	183	0
117	0	0	2438	849	184	0
118	0	0	2438	849	183	0
119	0	0	2437	848	182	0
120	0	0	2435	848	185	0
121	0	0	2435	848	185	0
122	0	0	2209	841	184	0
123	0	0	1948	842	184	0
124	0	0	1757	840	185	0
125	0	0	1618	843	185	0
126	0	0	1654	847	185	0
127	0	0	1841	847	184	0
0	0	0	2089	847	184	0
1	0	0	2253	847	185	0
2	0	0	2339	848	184	0
3	0	0	2384	847	183	0
4	0	0	2407	848	184	0
5	0	0	2419	849	182	0
6	0	0	2426	849	182	0
7	0	0	2428	850	184	0
8	0	0	2430	850	183	0
9	0	0	2427	849	183	0
10	0	0	2428	849	183	0
11	0	0	2428	849	184	0
12	0	0	2427	848	184	0
13	0	0	2425	847	185	0
14	0	0	2424	847	184	0
15	0	0	2285	843	185	0
16	0	0	2208	842	186	0
17	0	0	2063	842	185	0
18	0	0	2009	847	185	0
19	0	0	2100	847	184	0
20	0	0	2231	847	184	0
21	0	0	2327	847	185	0
22	0	0	2374	847	184	0
23	0	0	2397	847	183	0
24	0	0	2406	848	184	0
25	0	0	2412	848	184	0
26	0	0	2414	849	184	0
27	0	0	2415	849	184	0
28	0	0	2415	849	183	0
29	0	0	2413	849	184	0
30	0	0	2413	849	183	0
31	0	0	2413	848	184	0
32	0	0	2412	848	185	0
33	0	0	2411	847	184	0
34	0	0	2410	847	184	0
35	0	0	2408	847	185	0
36	0	0	2408	846	185	0
37	0	0	2237	840	186	0
38	0	0	2009	842	185	0
39	0	0	1947	844	185	0
40	0	0	1931	847	183	0
41	0	0	1976	847	184	0
42	0	0	2060	847	184	0
43	0	0	2188	847	184	0
44	0	0	2296	848	184	0
45	0	0	2349	848	183	0
46	0	0	2377	848	185	0
47	0	0	2390	849	183	0
48	0	0	2395	848	184	0
49	0	0	2399	849	184	0
50	0	0	2401	848	183	0
51	0	0	2400	848	184	0
52	0	0	2400	848	185	0
53	0	0	2398	847	185	0
54	0	0	2398	847	185	0
55	0	0	2398	847	184	0
56	0	0	2396	847	185	0
57	0	0	2396	847	185	0
58	0	0	2141	842	184	0
59	0	0	2012	842	185	0
60	0	0	1920	844	185	0
61	0	0	1907	847	184	0
62	0	0	1965	847	184	0
63	0	0	2127	847	185	0
64	0	0	2260	848	185	0
65	0	0	2326	848	184	0
66	0	0	2359	848	183	0
67	0	0	2375	848	183	0
68	0	0	2383	848	183	0
69	0	0	2386	848	182	0
70	0	0	2388	848	184	0
71	0	0	2388	848	183	0
72	0	0	2388	847	183	0
73	0	0	2387	847	184	0
74	0	0	2386	846	184	0
75	0	0	2386	846	184	0
76	0	0	2385	846	185	0
77	0	0	2384	846	185	0
78	0	0	2363	841	185	0
79	0	0	2198	841	183	0
80	0	0	2046	842	184	0
81	0	0	1965	843	183	0
82	0	0	1931	847	184	0
83	0	0	1957	847	184	0
84	0	0	2054	847	184	0
85	0	0	2062	842	183	0
86	0	0	1941	849	183	0
87	0	0	2156	848	184	0
88	0	0	2268	848	184	0
89	0	0	2324	848	184	0
90	0	0	2352	847	184	0
91	0	0	2366	847	185	0
92	0	0	2372	846	184	0
93	0	0	2375	847	183	0
94	0	0	2376	846	185	0
95	0	0	2376	846	184	0
96	0	0	2376	846	185	0
97	0	0	2375	846	185	0
98	0	0	2104	840	184	0
99	0	0	1891	841	185	0
100	0	0	1706	842	184	0
101	0	0	1590	841	184	0
102	0	0	1520	843	184	0
103	0	0	1533	846	183	0
104	0	0	1622	846	184	0
105	0	0	1618	841	183	0
106	0	0	1492	847	182	0
107	0	0	1827	848	183	0
108	0	0	2093	848	183	0
109	0	0	2230	847	183	0
110	0	0	2304	847	184	0
111	0	0	2342	847	183	0
112	0	0	2362	847	184	0
113	0	0	2371	847	184	0
114	0	0	2377	846	184	0
115	0	0	2378	846	184	0
116	0	0	2380	846	185	0
117	0	0	2308	839	184	0
118	0	0	1912	840	184	0
119	0	0	1683	840	184	0
120	0	0	1489	841	185	0
121	0	0	1360	841	185	0
122	0	0	1264	842	184	0
123	0	0	1253	847	184	0
124	0	0	1327	846	183	0
125	0	0	1329	840	184	0
126	0	0	1210	847	183	0
127	0	0	1571	847	184	0
0	0	0	1948	847	183	0
1	0	0	2156	847	184	0
2	0	0	2269	847	183	0
3	0	0	2328	846	184	0
4	0	0	2360	846	184	0
5	0	0	2378	846	185	0
6	0	0	2385	845	185	0
7	0	0	2389	845	184	0
8	0	0	2392	846	185	0
9	0	0	2263	839	184	0
10	0	0	1860	839	185	0
11	0	0	1615	840	184	0
12	0	0	1398	840	185	0
13	0	0	1241	841	184	0
14	0	0	1128	841	183	0
15	0	0	1126	846	183	0
16	0	0	1227	846	183	0
17	0	0	1251	841	181	0
18	0	0	1145	848	183	0
19	0	0	1540	847	184	0
20	0	0	1934	847	184	0
21	0	0	2155	847	184	0
22	0	0	2275	847	184	0
23	0	0	2340	847	184	0
24	0	0	2372	846	184	0
25	0	0	2392	846	185	0
26	0	0	2401	846	184	0
27	0	0	2407	845	185	0
28	0	0	2408	846	185	0
29	0	0	2387	839	186	0
30	0	0	2003	839	185	0
31	0	0	1759	839	184	0
32	0	0	1540	840	182	0
33	0	0	1377	840	184	0
34	0	0	1254	841	184	0
35	0	0	1212	846	183	0
36	0	0	1260	846	184	0
37	0	0	1233	840	184	0
38	0	0	1097	846	184	0
39	0	0	1464	846	183	0
40	0	0	1896	846	183	0
41	0	0	2138	846	184	0
42	0	0	2272	847	184	0
43	0	0	2344	846	184	0
44	0	0	2383	845	184	0
45	0	0	2404	845	183	0
46	0	0	2413	845	184	0
47	0	0	2419	845	186	0
48	0	0	2422	843	185	0
49	0	0	2363	839	184	0
50	0	0	1950	839	184	0
51	0	0	1697	839	184	0
52	0	0	1456	841	185	0
53	0	0	1267	840	184	0
54	0	0	1126	840	184	0
55	0	0	1073	844	184	0
56	0	0	1113	846	184	0
57	0	0	1056	840	183	0
58	0	0	917	847	184	0
59	0	0	1278	847	183	0
60	0	0	1757	846	184	0
61	0	0	2065	846	185	0
62	0	0	2238	846	185	0
63	0	0	2334	847	184	0
64	0	0	2385	846	183	0
65	0	0	2412	845	184	0
66	0	0	2427	846	184	0
67	0	0	2434	845	183	0
68	0	0	2438	845	185	0
69	0	0	2283	838	183	0
70	0	0	1839	838	184	0
71	0	0	1567	839	184	0
72	0	0	1313	839	185	0
73	0	0	1121	838	184	0
74	0	0	967	840	184	0
75	0	0	904	843	183	0
76	0	0	944	845	183	0
77	0	0	885	841	184	0
78	0	0	754	846	184	0
79	0	0	1128	846	184	0
80	0	0	1621	846	184	0
81	0	0	1988	845	184	0
82	0	0	2202	845	183	0
83	0	0	2324	846	185	0
84	0	0	2390	845	184	0
85	0	0	2425	845	185	0
86	0	0	2445	844	184	0
87	0	0	2456	845	185	0
88	0	0	2461	844	185	0
89	0	0	2222	838	184	0
90	0	0	1765	838	185	0
91	0	0	1474	839	185	0
92	0	0	1210	839	184	0
93	0	0	1002	839	184	0
94	0	0	838	839	185	0
95	0	0	766	842	183	0
96	0	0	796	845	184	0
97	0	0	736	839	184	0
98	0	0	618	847	183	0
99	0	0	1006	845	183	0
100	0	0	1510	845	184	0
101	0	0	1908	845	184	0
102	0	0	2168	845	183	0
103	0	0	2316	845	184	0
104	0	0	2400	845	184	0
105	0	0	2443	844	185	0
106	0	0	2467	845	184	0
107	0	0	2480	845	184	0
108	0	0	2488	843	185	0
109	0	0	2240	838	184	0
110	0	0	1787	837	185	0
111	0	0	1489	838	185	0
112	0	0	1223	838	183	0
113	0	0	1010	839	184	0
114	0	0	850	840	184	0
115	0	0	782	842	183	0
116	0	0	822	845	184	0
117	0	0	762	839	184	0
118	0	0	646	846	183	0
119	0	0	1029	845	184	0
120	0	0	1527	845	185	0
121	0	0	1931	845	183	0
122	0	0	2195	845	185	0
123	0	0	2342	846	184	0
124	0	0	2424	846	184	0
125	0	0	2471	845	185	0
126	0	0	2495	844	184	0
127	0	0	2507	844	185	0
0	0	0	2513	844	185	0
1	0	0	2242	838	184	0
2	0	0	1795	838	184	0
3	0	0	1512	838	184	0
4	0	0	1252	838	184	0
5	0	0	1051	839	185	0
6	0	0	889	840	183	0
7	0	0	820	841	184	0
8	0	0	851	845	183	0
9	0	0	783	839	183	0
10	0	0	683	845	184	0
11	0	0	1060	846	184	0
12	0	0	1526	846	183	0
13	0	0	1918	846	184	0
14	0	0	2198	846	184	0
15	0	0	2355	845	183	0
16	0	0	2443	844	184	0
17	0	0	2491	845	184	0
18	0	0	2517	844	184	0
19	0	0	2495	844	184	0
20	0	0	2421	838	184	0
21	0	0	2050	838	185	0
22	0	0	1656	838	185	0
23	0	0	1379	838	184	0
24	0	0	1133	838	184	0
25	0	0	945	839	185	0
26	0	0	800	839	183	0
27	0	0	744	842	184	0
28	0	0	784	845	183	0
29	0	0	724	839	183	0
30	0	0	641	846	184	0
31	0	0	1009	845	183	0
32	0	0	1451	846	184	0
33	0	0	1821	845	185	0
34	0	0	2155	845	184	0
35	0	0	2343	845	184	0
36	0	0	2449	844	184	0
37	0	0	2508	845	184	0
38	0	0	2391	839	185	0
39	0	0	2284	844	185	0
40	0	0	2219	838	185	0
41	0	0	1883	838	185	0
42	0	0	1525	838	185	0
43	0	0	1284	838	184	0
44	0	0	1068	838	184	0
45	0	0	900	839	184	0
46	0	0	788	839	185	0
47	0	0	758	844	183	0
48	0	0	817	844	184	0
49	0	0	775	839	182	0
50	0	0	717	845	183	0
51	0	0	1084	845	183	0
52	0	0	1504	845	183	0
53	0	0	1849	845	183	0
54	0	0	2183	844	184	0
55	0	0	2375	845	185	0
56	0	0	2479	844	184	0
57	0	0	2490	839	184	0
58	0	0	2347	840	184	0
59	0	0	2255	844	184	0
60	0	0	2203	838	184	0
61	0	0	1891	837	184	0
62	0	0	1561	838	185	0
63	0	0	1349	838	185	0
64	0	0	1156	838	185	0
65	0	0	1003	839	184	0
66	0	0	897	840	184	0
67	0	0	866	843	184	0
68	0	0	908	845	182	0
69	0	0	844	839	183	0
70	0	0	790	845	183	0
71	0	0	1131	845	183	0
72	0	0	1521	845	183	0
73	0	0	1840	845	184	0
74	0	0	2189	845	184	0
75	0	0	2390	844	183	0
76	0	0	2488	844	185	0
77	0	0	2409	840	184	0
78	0	0	2302	839	184	0
79	0	0	2235	844	184	0
80	0	0	2188	838	183	0
81	0	0	1888	837	185	0
82	0	0	1573	838	184	0
83	0	0	1376	838	184	0
84	0	0	1199	839	184	0
85	0	0	1063	839	183	0
86	0	0	967	840	184	0
87	0	0	942	844	184	0
88	0	0	990	845	183	0
89	0	0	926	839	183	0
90	0	0	880	845	184	0
91	0	0	1211	845	184	0
92	0	0	1577	845	183	0
93	0	0	1868	844	183	0
94	0	0	2212	845	183	0
95	0	0	2409	845	183	0
96	0	0	2415	845	185	0
97	0	0	2342	840	184	0
98	0	0	2237	839	183	0
99	0	0	2170	843	183	0
100	0	0	2112	839	185	0
101	0	0	1824	838	185	0
102	0	0	1528	838	184	0
103	0	0	1331	838	184	0
104	0	0	1159	839	185	0
105	0	0	1026	839	184	0
106	0	0	930	839	184	0
107	0	0	912	845	184	0
108	0	0	958	845	184	0
109	0	0	887	839	183	0
110	0	0	835	845	183	0
111	0	0	1154	845	184	0
112	0	0	1503	845	183	0
113	0	0	1791	844	183	0
114	0	0	2122	845	184	0
115	0	0	2301	845	184	0
116	0	0	2309	844	184	0
117	0	0	2242	840	184	0
118	0	0	2140	839	184	0
119	0	0	2076	844	184	0
120	0	0	2022	839	185	0
121	0	0	1745	837	184	0
122	0	0	1454	838	183	0
123	0	0	1264	838	185	0
124	0	0	1098	839	183	0
125	0	0	957	838	183	0
126	0	0	863	840	184	0
127	0	0	843	844	184	0
0	0	0	885	845	184	0
1	0	0	809	839	183	0
2	0	0	765	845	184	0
3	0	0	1078	845	183	0
4	0	0	1422	844	183	0
5	0	0	1711	845	183	0
6	0	0	2041	845	184	0
7	0	0	2224	846	184	0
8	0	0	2235	844	183	0
9	0	0	2171	840	184	0
10	0	0	2077	839	184	0
11	0	0	2020	844	184	0
12	0	0	1967	839	184	0
13	0	0	1701	838	185	0
14	0	0	1419	838	184	0
15	0	0	1225	838	184	0
16	0	0	1067	839	184	0
17	0	0	937	839	184	0
18	0	0	842	840	183	0
19	0	0	824	845	185	0
20	0	0	873	845	185	0
21	0	0	801	840	184	0
22	0	0	765	845	183	0
23	0	0	1083	845	183	0
24	0	0	1425	845	184	0
25	0	0	1710	845	183	0
26	0	0	2046	845	184	0
27	0	0	2233	845	184	0
28	0	0	2255	845	184	0
29	0	0	2203	841	185	0
30	0	0	2122	839	185	0
31	0	0	2078	844	185	0
32	0	0	2025	839	186	0
33	0	0	1751	838	184	0
34	0	0	1470	838	184	0
35	0	0	1286	838	185	0
36	0	0	1122	839	184	0
37	0	0	990	839	184	0
38	0	0	895	840	184	0
39	0	0	869	843	184	0
40	0	0	912	845	184	0
41	0	0	828	840	183	0
42	0	0	792	846	184	0
43	0	0	1109	845	183	0
44	0	0	1452	846	183	0
45	0	0	1751	845	183	0
46	0	0	2088	845	184	0
47	0	0	2277	845	184	0
48	0	0	2307	845	184	0
49	0	0	2260	841	184	0
50	0	0	2180	840	184	0
51	0	0	2133	845	184	0
52	0	0	2085	839	185	0
53	0	0	1814	838	185	0
54	0	0	1539	839	184	0
55	0	0	1345	839	185	0
56	0	0	1172	839	184	0
57	0	0	1029	839	184	0
58	0	0	919	841	183	0
59	0	0	883	843	184	0
60	0	0	915	846	184	0
61	0	0	818	840	183	0
62	0	0	775	847	184	0
63	0	0	1090	845	183	0
64	0	0	1428	845	183	0
65	0	0	1726	846	183	0
66	0	0	2074	845	184	0
67	0	0	2266	846	184	0
68	0	0	2303	846	184	0
69	0	0	2269	842	185	0
70	0	0	2193	840	183	0
71	0	0	2158	846	185	0
72	0	0	2103	839	184	0
73	0	0	1827	838	185	0
74	0	0	1547	839	184	0
75	0	0	1349	839	183	0
76	0	0	1173	840	184	0
77	0	0	1028	840	184	0
78	0	0	915	841	183	0
79	0	0	872	842	185	0
80	0	0	899	845	184	0
81	0	0	797	839	183	0
82	0	0	758	846	184	0
83	0	0	1070	846	184	0
84	0	0	1402	846	183	0
85	0	0	1698	845	184	0
86	0	0	2042	846	184	0
87	0	0	2240	846	184	0
88	0	0	2286	846	184	0
89	0	0	2266	844	184	0
90	0	0	2201	841	184	0
91	0	0	2180	845	185	0
92	0	0	2129	840	184	0
93	0	0	1849	840	184	0
94	0	0	1569	839	183	0
95	0	0	1362	840	183	0
96	0	0	1173	840	184	0
97	0	0	1015	840	183	0
98	0	0	899	841	183	0
99	0	0	850	842	183	0
100	0	0	871	846	184	0
101	0	0	763	840	185	0
102	0	0	719	847	184	0
103	0	0	1022	847	183	0
104	0	0	1357	846	183	0
105	0	0	1651	847	184	0
106	0	0	2000	846	184	0
107	0	0	2205	846	184	0
108	0	0	2258	846	185	0
109	0	0	2241	845	185	0
110	0	0	2178	841	185	0
111	0	0	2152	845	185	0
112	0	0	2101	840	185	0
113	0	0	1824	839	184	0
114	0	0	1537	840	183	0
115	0	0	1335	840	184	0
116	0	0	1147	841	184	0
117	0	0	985	841	182	0
118	0	0	865	840	184	0
119	0	0	810	842	184	0
120	0	0	829	846	184	0
121	0	0	716	841	186	0
122	0	0	679	847	182	0
123	0	0	988	846	185	0
124	0	0	1331	847	184	0
125	0	0	1635	847	185	0
126	0	0	1992	846	185	0
127	0	0	2212	846	184	0
0	0	0	2278	847	184	0
1	0	0	2274	846	184	0
2	0	0	2217	841	184	0
3	0	0	2201	847	183	0
4	0	0	2155	841	184	0
5	0	0	1879	840	184	0
6	0	0	1597	840	184	0
7	0	0	1397	840	184	0
8	0	0	1214	841	184	0
9	0	0	1051	841	184	0
10	0	0	927	842	184	0
11	0	0	873	843	183	0
12	0	0	891	847	184	0
13	0	0	775	842	184	0
14	0	0	740	847	183	0
15	0	0	1048	847	184	0
16	0	0	1388	848	184	0
17	0	0	1700	846	183	0
18	0	0	2054	847	184	0
19	0	0	2273	847	183	0
20	0	0	2342	847	184	0
21	0	0	2341	847	184	0
22	0	0	2279	843	184	0
23	0	0	2257	847	184	0
24	0	0	2204	841	185	0
25	0	0	1935	840	184	0
26	0	0	1663	841	184	0
27	0	0	1459	840	185	0
28	0	0	1275	841	184	0
29	0	0	1107	842	184	0
30	0	0	974	842	184	0
31	0	0	910	843	184	0
32	0	0	919	847	184	0
33	0	0	792	842	183	0
34	0	0	758	847	184	0
35	0	0	1060	848	184	0
36	0	0	1392	848	184	0
37	0	0	1699	847	183	0
38	0	0	2048	847	184	0
39	0	0	2268	849	183	0
40	0	0	2337	847	184	0
41	0	0	2336	847	184	0
42	0	0	2277	843	184	0
43	0	0	2263	847	184	0
44	0	0	2209	842	185	0
45	0	0	1940	841	184	0
46	0	0	1665	842	184	0
47	0	0	1463	841	184	0
48	0	0	1286	842	184	0
49	0	0	1127	842	185	0
50	0	0	999	843	184	0
51	0	0	937	844	183	0
52	0	0	943	847	184	0
53	0	0	805	843	184	0
54	0	0	769	848	184	0
55	0	0	1072	847	184	0
56	0	0	1412	848	184	0
57	0	0	1740	849	183	0
58	0	0	2104	848	184	0
59	0	0	2326	848	185	0
60	0	0	2392	848	184	0
61	0	0	2378	847	185	0
62	0	0	2314	843	184	0
63	0	0	2298	848	183	0
64	0	0	2234	842	183	0
65	0	0	1961	841	183	0
66	0	0	1684	841	184	0
67	0	0	1464	842	185	0
68	0	0	1271	843	184	0
69	0	0	1092	842	184	0
70	0	0	949	843	184	0
71	0	0	873	844	184	0
72	0	0	879	848	183	0
73	0	0	755	842	183	0
74	0	0	737	849	184	0
75	0	0	1045	847	183	0
76	0	0	1381	849	184	0
77	0	0	1696	848	184	0
78	0	0	2053	849	184	0
79	0	0	2264	848	184	0
80	0	0	2341	848	184	0
81	0	0	2351	848	184	0
82	0	0	2308	844	185	0
83	0	0	2321	848	185	0
84	0	0	2273	843	184	0
85	0	0	1998	842	184	0
86	0	0	1719	843	183	0
87	0	0	1502	843	184	0
88	0	0	1311	842	184	0
89	0	0	1149	843	184	0
90	0	0	1042	843	183	0
91	0	0	1001	845	184	0
92	0	0	1027	849	184	0
93	0	0	891	843	183	0
94	0	0	862	849	184	0
95	0	0	1165	849	184	0
96	0	0	1487	849	184	0
97	0	0	1800	849	184	0
98	0	0	2153	849	183	0
99	0	0	2355	849	185	0
100	0	0	2415	850	183	0
101	0	0	2403	849	185	0
102	0	0	2334	845	183	0
103	0	0	2302	849	186	0
104	0	0	2211	843	184	0
105	0	0	1909	842	185	0
106	0	0	1607	843	184	0
107	0	0	1365	842	184	0
108	0	0	1148	843	185	0
109	0	0	955	843	184	0
110	0	0	809	843	183	0
111	0	0	736	845	184	0
112	0	0	743	849	183	0
113	0	0	604	843	183	0
114	0	0	572	849	183	0
115	0	0	874	849	183	0
116	0	0	1206	850	184	0
117	0	0	1540	850	184	0
118	0	0	1904	848	184	0
119	0	0	2123	849	184	0
120	0	0	2205	849	184	0
121	0	0	2206	849	184	0
122	0	0	2158	845	185	0
123	0	0	2187	849	184	0
124	0	0	2122	844	185	0
125	0	0	1836	842	184	0
126	0	0	1561	843	185	0
127	0	0	1336	843	184	0
0	0	0	1126	843	184	0
1	0	0	935	844	185	0
2	0	0	798	843	183	0
3	0	0	733	845	185	0
4	0	0	749	850	185	0
5	0	0	600	844	184	0
6	0	0	569	849	183	0
7	0	0	884	849	183	0
8	0	0	1245	849	183	0
9	0	0	1594	849	184	0
10	0	0	1976	849	184	0
11	0	0	2209	849	183	0
12	0	0	2289	849	183	0
13	0	0	2292	849	183	0
14	0	0	2239	845	183	0
15	0	0	2242	849	183	0
16	0	0	2161	843	184	0
17	0	0	1859	843	184	0
18	0	0	1577	843	184	0
19	0	0	1365	843	184	0
20	0	0	1160	843	183	0
21	0	0	965	843	185	0
22	0	0	829	843	183	0
23	0	0	783	846	184	0
24	0	0	805	849	184	0
25	0	0	649	844	184	0
26	0	0	652	850	184	0
27	0	0	1000	849	183	0
28	0	0	1362	850	183	0
29	0	0	1720	850	184	0
30	0	0	2107	849	184	0
31	0	0	2339	849	184	0
32	0	0	2423	849	184	0
33	0	0	2429	849	185	0
34	0	0	2387	845	185	0
35	0	0	2420	849	185	0
36	0	0	2348	843	184	0
37	0	0	2045	842	184	0
38	0	0	1746	843	184	0
39	0	0	1514	843	184	0
40	0	0	1318	843	184	0
41	0	0	1136	844	185	0
42	0	0	1009	845	184	0
43	0	0	958	845	183	0
44	0	0	990	849	184	0
45	0	0	846	844	185	0
46	0	0	840	849	183	0
47	0	0	1190	850	184	0
48	0	0	1558	850	183	0
49	0	0	1939	849	183	0
50	0	0	2353	849	184	0
51	0	0	2605	849	182	0
52	0	0	2707	848	184	0
53	0	0	2736	849	184	0
54	0	0	2692	844	184	0
55	0	0	2721	849	184	0
56	0	0	2669	843	185	0
57	0	0	2382	841	184	0
58	0	0	2097	843	184	0
59	0	0	1843	843	185	0
60	0	0	1621	843	184	0
61	0	0	1419	843	184	0
62	0	0	1269	843	184	0
63	0	0	1196	845	184	0
64	0	0	1192	847	183	0
65	0	0	1020	843	184	0
66	0	0	996	849	184	0
67	0	0	1318	848	184	0
68	0	0	1661	849	184	0
69	0	0	2030	849	184	0
70	0	0	2419	849	184	0
71	0	0	2635	849	183	0
72	0	0	2715	848	184	0
73	0	0	2714	848	185	0
74	0	0	2638	844	184	0
75	0	0	2642	848	187	0
76	0	0	2523	842	185	0
77	0	0	2174	841	185	0
78	0	0	1833	841	185	0
79	0	0	1574	842	184	0
80	0	0	1338	842	186	0
81	0	0	1111	842	184	0
82	0	0	933	843	184	0
83	0	0	813	843	184	0
84	0	0	776	844	183	0
85	0	0	581	843	183	0
86	0	0	535	848	183	0
87	0	0	859	848	183	0
88	0	0	1202	848	184	0
89	0	0	1530	847	183	0
90	0	0	1888	848	184	0
91	0	0	2099	848	184	0
92	0	0	2158	848	185	0
93	0	0	2144	846	184	0
94	0	0	2073	843	184	0
95	0	0	2086	847	184	0
96	0	0	1977	842	185	0
97	0	0	1647	841	185	0
98	0	0	1321	841	183	0
99	0	0	1060	841	185	0
100	0	0	830	842	184	0
101	0	0	622	842	183	0
102	0	0	460	842	184	0
103	0	0	384	844	184	0
104	0	0	401	845	183	0
105	0	0	221	843	183	0
106	0	0	203	848	185	0
107	0	0	528	848	184	0
108	0	0	888	848	185	0
109	0	0	1276	848	184	0
110	0	0	1705	847	184	0
111	0	0	1976	849	185	0
112	0	0	2079	848	185	0
113	0	0	2091	847	185	0
114	0	0	2019	842	184	0
115	0	0	1982	847	185	0
116	0	0	1817	841	184	0
117	0	0	1465	841	184	0
118	0	0	1146	841	184	0
119	0	0	904	841	184	0
120	0	0	683	842	185	0
121	0	0	484	842	183	0
122	0	0	355	843	184	0
123	0	0	339	845	183	0
124	0	0	333	843	184	0
125	0	0	124	842	185	0
126	0	0	115	848	185	0
127	0	0	465	848	184	0
0	0	0	824	848	183	0
1	0	0	1198	847	184	0
2	0	0	1611	848	185	0
3	0	0	1873	848	183	0
4	0	0	2006	847	184	0
5	0	0	2067	848	185	0
6	0	0	2095	846	184	0
7	0	0	2170	847	184	0
8	0	0	2143	842	184	0
9	0	0	1865	841	184	0
10	0	0	1603	842	185	0
11	0	0	1387	842	184	0
12	0	0	1199	842	184	0
13	0	0	1007	842	185	0
14	0	0	893	843	184	0
15	0	0	892	848	184	0
16	0	0	970	848	184	0
17	0	0	825	843	184	0
18	0	0	870	848	184	0
19	0	0	1254	847	184	0
20	0	0	1643	848	185	0
21	0	0	2050	847	185	0
22	0	0	2475	848	184	0
23	0	0	2741	847	184	0
24	0	0	2874	847	185	0
25	0	0	2916	847	184	0
26	0	0	2877	843	184	0
27	0	0	2910	846	184	0
28	0	0	2815	841	184	0
29	0	0	2496	841	184	0
30	0	0	2202	841	184	0
31	0	0	1963	841	184	0
32	0	0	1770	842	183	0
33	0	0	1603	842	183	0
34	0	0	1495	842	184	0
35	0	0	1480	848	183	0
36	0	0	1556	847	183	0
37	0	0	1421	842	183	0
38	0	0	1493	848	184	0
39	0	0	1868	847	184	0
40	0	0	2253	847	183	0
41	0	0	2637	848	184	0
42	0	0	2934	848	184	0
43	0	0	3100	847	184	0
44	0	0	3192	847	185	0
45	0	0	3245	847	184	0
46	0	0	3270	847	184	0
47	0	0	3284	847	183	0
48	0	0	3240	841	184	0
49	0	0	2936	840	185	0
50	0	0	2702	841	183	0
51	0	0	2542	841	185	0
52	0	0	2395	841	185	0
53	0	0	2251	841	185	0
54	0	0	2153	842	184	0
55	0	0	2110	844	184	0
56	0	0	2120	845	183	0
57	0	0	1919	841	183	0
58	0	0	1917	847	184	0
59	0	0	2229	847	183	0
60	0	0	2553	846	184	0
61	0	0	2851	846	185	0
62	0	0	3046	846	183	0
63	0	0	3151	845	184	0
64	0	0	3207	845	185	0
65	0	0	3235	846	185	0
66	0	0	3249	846	184	0
67	0	0	3255	846	184	0
68	0	0	3258	845	185	0
69	0	0	3084	839	184	0
70	0	0	2734	839	184	0
71	0	0	2443	839	184	0
72	0	0	2168	839	185	0
73	0	0	1896	839	184	0
74	0	0	1659	839	184	0
75	0	0	1477	840	184	0
76	0	0	1354	839	184	0
77	0	0	1044	839	184	0
78	0	0	935	845	184	0
79	0	0	1165	845	183	0
80	0	0	1429	846	184	0
81	0	0	1730	844	184	0
82	0	0	2055	845	184	0
83	0	0	2227	844	184	0
84	0	0	2264	844	183	0
85	0	0	2219	840	183	0
86	0	0	2130	839	185	0
87	0	0	2132	843	184	0
88	0	0	1986	838	185	0
89	0	0	1635	838	185	0
90	0	0	1292	837	185	0
91	0	0	985	837	185	0
92	0	0	720	838	184	0
93	0	0	480	837	185	0
94	0	0	281	838	183	0
95	0	0	158	839	185	0
96	0	0	116	838	184	0
97	0	0	0	838	184	0
98	0	0	0	843	184	0
99	0	0	232	844	184	0
100	0	0	558	846	184	0
101	0	0	927	843	183	0
102	0	0	1312	843	184	0
103	0	0	1545	844	184	0
104	0	0	1645	844	184	0
105	0	0	1664	843	183	0
106	0	0	1626	838	184	0
107	0	0	1679	842	185	0
108	0	0	1581	837	184	0
109	0	0	1271	836	184	0
110	0	0	984	837	183	0
111	0	0	742	837	184	0
112	0	0	527	836	185	0
113	0	0	325	837	183	0
114	0	0	177	837	184	0
115	0	0	112	839	184	0
116	0	0	136	838	184	0
117	0	0	0	838	184	0
118	0	0	0	843	183	0
119	0	0	396	843	184	0
120	0	0	780	843	184	0
121	0	0	1186	842	184	0
122	0	0	1609	843	184	0
123	0	0	1890	842	185	0
124	0	0	2034	843	184	0
125	0	0	2103	843	184	0
126	0	0	2106	842	185	0
127	0	0	2183	842	185	0
0	0	0	2098	836	184	0
1	0	0	1802	836	185	0
2	0	0	1538	836	184	0
3	0	0	1317	837	184	0
4	0	0	1132	837	185	0
5	0	0	959	837	184	0
6	0	0	847	837	184	0
7	0	0	820	840	183	0
8	0	0	876	840	183	0
9	0	0	708	837	184	0
10	0	0	777	843	183	0
11	0	0	1144	843	184	0
12	0	0	1506	843	184	0
13	0	0	1894	843	184	0
14	0	0	2279	843	183	0
15	0	0	2507	842	185	0
16	0	0	2610	843	184	0
17	0	0	2630	842	184	0
18	0	0	2590	839	186	0
19	0	0	2650	842	185	0
20	0	0	2535	836	185	0
21	0	0	2219	836	184	0
22	0	0	1939	836	185	0
23	0	0	1701	836	184	0
24	0	0	1483	837	185	0
25	0	0	1278	837	184	0
26	0	0	1127	837	183	0
27	0	0	1061	838	184	0
28	0	0	1073	837	184	0
29	0	0	879	837	184	0
30	0	0	921	843	184	0
31	0	0	1267	843	183	0
32	0	0	1611	843	184	0
33	0	0	1980	842	184	0
34	0	0	2355	843	183	0
35	0	0	2569	842	184	0
36	0	0	2652	842	184	0
37	0	0	2658	842	184	0
38	0	0	2598	839	185	0
39	0	0	2641	841	185	0
40	0	0	2505	837	186	0
41	0	0	2171	835	183	0
42	0	0	1867	836	185	0
43	0	0	1609	836	185	0
44	0	0	1370	836	184	0
45	0	0	1141	837	184	0
46	0	0	963	837	185	0
47	0	0	862	838	184	0
48	0	0	824	838	183	0
49	0	0	599	836	185	0
50	0	0	612	842	183	0
51	0	0	924	843	183	0
52	0	0	1238	842	185	0
53	0	0	1597	842	184	0
54	0	0	1934	843	184	0
55	0	0	2119	842	184	0
56	0	0	2177	842	184	0
57	0	0	2159	839	184	0
58	0	0	2086	838	183	0
59	0	0	2108	842	184	0
60	0	0	1961	836	184	0
61	0	0	1626	836	184	0
62	0	0	1319	836	184	0
63	0	0	1046	836	184	0
64	0	0	809	837	184	0
65	0	0	589	836	185	0
66	0	0	424	837	182	0
67	0	0	345	838	184	0
68	0	0	330	838	184	0
69	0	0	121	838	183	0
70	0	0	180	843	183	0
71	0	0	538	844	184	0
72	0	0	884	843	184	0
73	0	0	1273	843	184	0
74	0	0	1654	843	184	0
75	0	0	1889	843	183	0
76	0	0	1992	843	184	0
77	0	0	2023	842	184	0
78	0	0	1993	840	183	0
79	0	0	2044	843	185	0
80	0	0	1895	837	184	0
81	0	0	1580	836	185	0
82	0	0	1306	836	185	0
83	0	0	1070	836	184	0
84	0	0	874	837	184	0
85	0	0	710	837	185	0
86	0	0	586	838	184	0
87	0	0	545	839	184	0
88	0	0	573	839	184	0
89	0	0	398	838	183	0
90	0	0	488	843	186	0
91	0	0	879	843	185	0
92	0	0	1251	843	183	0
93	0	0	1669	844	183	0
94	0	0	2066	843	185	0
95	0	0	2306	843	184	0
96	0	0	2425	843	185	0
97	0	0	2464	843	185	0
98	0	0	2432	842	185	0
99	0	0	2491	843	185	0
100	0	0	2368	837	185	0
101	0	0	2060	837	184	0
102	0	0	1790	837	184	0
103	0	0	1559	837	185	0
104	0	0	1352	837	185	0
105	0	0	1160	838	184	0
106	0	0	1024	838	186	0
107	0	0	970	840	182	0
108	0	0	984	838	182	0
109	0	0	790	838	184	0
110	0	0	871	844	184	0
111	0	0	1229	844	184	0
112	0	0	1565	843	183	0
113	0	0	1953	844	184	0
114	0	0	2311	843	184	0
115	0	0	2517	844	183	0
116	0	0	2607	844	183	0
117	0	0	2623	843	185	0
118	0	0	2580	841	184	0
119	0	0	2641	843	185	0
120	0	0	2494	838	185	0
121	0	0	2176	837	185	0
122	0	0	1904	838	184	0
123	0	0	1666	838	182	0
124	0	0	1456	838	185	0
125	0	0	1260	838	185	0
126	0	0	1120	838	183	0
127	0	0	1062	840	185	0
0	0	0	1064	839	184	0
1	0	0	866	839	186	0
2	0	0	940	844	183	0
3	0	0	1289	844	184	0
4	0	0	1600	845	184	0
5	0	0	1958	845	184	0
6	0	0	2288	844	184	0
7	0	0	2463	844	185	0
8	0	0	2520	844	183	0
9	0	0	2500	842	185	0
10	0	0	2428	840	184	0
11	0	0	2461	844	184	0
12	0	0	2298	838	184	0
13	0	0	1968	838	184	0
14	0	0	1688	838	183	0
15	0	0	1453	838	184	0
16	0	0	1233	838	184	0
17	0	0	1033	839	184	0
18	0	0	894	839	183	0
19	0	0	838	841	183	0
20	0	0	840	839	183	0
21	0	0	646	839	183	0
22	0	0	731	844	184	0
23	0	0	1086	845	184	0
24	0	0	1403	845	184	0
25	0	0	1764	844	184	0
26	0	0	2095	845	184	0
27	0	0	2268	844	184	0
28	0	0	2326	845	184	0
29	0	0	2306	842	184	0
30	0	0	2242	842	184	0
31	0	0	2284	844	184	0
32	0	0	2118	838	184	0
33	0	0	1794	838	184	0
34	0	0	1524	839	185	0
35	0	0	1287	838	185	0
36	0	0	1090	839	183	0
37	0	0	905	839	184	0
38	0	0	783	840	184	0
39	0	0	742	841	184	0
40	0	0	756	840	184	0
41	0	0	574	840	185	0
42	0	0	681	845	184	0
43	0	0	1042	846	185	0
44	0	0	1364	846	184	0
45	0	0	1735	845	183	0
46	0	0	2075	845	185	0
47	0	0	2260	845	183	0
48	0	0	2336	845	185	0
49	0	0	2343	845	183	0
50	0	0	2298	843	184	0
51	0	0	2359	845	185	0
52	0	0	2227	839	185	0
53	0	0	1935	839	183	0
54	0	0	1692	839	185	0
55	0	0	1471	840	184	0
56	0	0	1300	840	184	0
57	0	0	1150	840	184	0
58	0	0	1044	841	184	0
59	0	0	1016	843	184	0
60	0	0	1040	840	184	0
61	0	0	856	841	184	0
62	0	0	973	847	183	0
63	0	0	1338	846	183	0
64	0	0	1659	846	185	0
65	0	0	2023	846	184	0
66	0	0	2354	846	185	0
67	0	0	2538	846	183	0
68	0	0	2607	846	184	0
69	0	0	2607	846	184	0
70	0	0	2554	844	185	0
71	0	0	2609	846	185	0
72	0	0	2443	839	184	0
73	0	0	2131	840	183	0
74	0	0	1878	840	183	0
75	0	0	1660	840	184	0
76	0	0	1476	840	183	0
77	0	0	1291	841	184	0
78	0	0	1166	842	184	0
79	0	0	1119	843	184	0
80	0	0	1119	841	183	0
81	0	0	925	842	184	0
82	0	0	1022	847	184	0
83	0	0	1357	846	183	0
84	0	0	1663	847	184	0
85	0	0	2012	846	183	0
86	0	0	2322	847	184	0
87	0	0	2491	847	185	0
88	0	0	2550	846	184	0
89	0	0	2538	846	184	0
90	0	0	2477	844	184	0
91	0	0	2522	846	184	0
92	0	0	2351	841	184	0
93	0	0	2036	840	184	0
94	0	0	1777	840	184	0
95	0	0	1537	840	184	0
96	0	0	1344	841	184	0
97	0	0	1167	841	184	0
98	0	0	1043	842	184	0
99	0	0	991	843	184	0
100	0	0	992	842	183	0
101	0	0	801	841	183	0
102	0	0	894	847	184	0
103	0	0	1220	846	182	0
104	0	0	1512	848	185	0
105	0	0	1860	848	184	0
106	0	0	2153	847	184	0
107	0	0	2300	847	184	0
108	0	0	2352	847	184	0
109	0	0	2340	845	183	0
110	0	0	2277	844	184	0
111	0	0	2316	846	185	0
112	0	0	2132	841	184	0
113	0	0	1797	841	183	0
114	0	0	1528	841	184	0
115	0	0	1308	841	183	0
116	0	0	1163	841	184	0
117	0	0	1041	842	184	0
118	0	0	957	843	184	0
119	0	0	946	846	184	0
120	0	0	972	842	184	0
121	0	0	793	842	183	0
122	0	0	902	848	183	0
123	0	0	1236	848	184	0
124	0	0	1528	847	183	0
125	0	0	1869	847	184	0
126	0	0	2172	848	184	0
127	0	0	2327	848	183	0
0	0	0	2383	848	183	0
1	0	0	2376	847	184	0
2	0	0	2338	847	185	0
3	0	0	2400	847	184	0
4	0	0	2228	842	184	0
5	0	0	1928	841	184	0
6	0	0	1694	841	184	0
7	0	0	1471	842	184	0
8	0	0	1298	842	184	0
9	0	0	1143	843	184	0
10	0	0	1041	843	183	0
11	0	0	1012	845	184	0
12	0	0	1033	843	184	0
13	0	0	859	843	184	0
14	0	0	985	848	184	0
15	0	0	1335	848	182	0
16	0	0	1639	848	183	0
17	0	0	1998	848	184	0
18	0	0	2307	848	183	0
19	0	0	2471	848	184	0
20	0	0	2534	848	183	0
21	0	0	2530	848	183	0
22	0	0	2479	847	183	0
23	0	0	2530	847	184	0
24	0	0	2375	842	184	0
25	0	0	2085	842	184	0
26	0	0	1852	843	184	0
27	0	0	1646	841	185	0
28	0	0	1470	842	184	0
29	0	0	1313	843	184	0
30	0	0	1213	843	184	0
31	0	0	1185	845	184	0
32	0	0	1195	843	184	0
33	0	0	1012	844	185	0
34	0	0	1134	849	184	0
35	0	0	1477	849	183	0
36	0	0	1771	849	183	0
37	0	0	2114	848	184	0
38	0	0	2409	848	184	0
39	0	0	2556	849	184	0
40	0	0	2598	849	183	0
41	0	0	2582	847	183	0
42	0	0	2519	848	185	0
43	0	0	2572	848	185	0
44	0	0	2393	843	183	0
45	0	0	2089	842	183	0
46	0	0	1848	842	184	0
47	0	0	1630	843	184	0
48	0	0	1447	843	183	0
49	0	0	1277	843	184	0
50	0	0	1160	843	184	0
51	0	0	1119	845	183	0
52	0	0	1107	843	183	0
53	0	0	924	844	183	0
54	0	0	1050	849	184	0
55	0	0	1376	849	184	0
56	0	0	1657	849	184	0
57	0	0	1997	849	184	0
58	0	0	2288	849	185	0
59	0	0	2428	850	184	0
60	0	0	2468	849	183	0
61	0	0	2449	847	184	0
62	0	0	2390	849	184	0
63	0	0	2437	848	183	0
64	0	0	2261	843	183	0
65	0	0	1961	842	184	0
66	0	0	1721	843	183	0
67	0	0	1501	843	184	0
68	0	0	1323	843	185	0
69	0	0	1160	844	184	0
70	0	0	1052	844	183	0
71	0	0	1016	846	184	0
72	0	0	1024	844	184	0
73	0	0	844	845	183	0
74	0	0	976	850	184	0
75	0	0	1312	849	184	0
76	0	0	1595	850	184	0
77	0	0	1942	850	185	0
78	0	0	2228	850	183	0
79	0	0	2373	850	184	0
80	0	0	2424	850	183	0
81	0	0	2412	848	184	0
82	0	0	2356	850	185	0
83	0	0	2411	848	185	0
84	0	0	2234	843	184	0
85	0	0	1938	844	184	0
86	0	0	1704	843	184	0
87	0	0	1491	843	184	0
88	0	0	1319	844	184	0
89	0	0	1167	844	185	0
90	0	0	1069	846	184	0
91	0	0	1043	848	184	0
92	0	0	1048	846	185	0
93	0	0	875	846	184	0
94	0	0	1018	851	184	0
95	0	0	1356	850	182	0
96	0	0	1648	850	184	0
97	0	0	2001	850	184	0
98	0	0	2291	850	185	0
99	0	0	2440	850	184	0
100	0	0	2497	850	182	0
101	0	0	2494	850	185	0
102	0	0	2455	850	183	0
103	0	0	2513	850	184	0
104	0	0	2331	844	185	0
105	0	0	2043	844	184	0
106	0	0	1812	844	184	0
107	0	0	1606	845	184	0
108	0	0	1438	845	183	0
109	0	0	1286	845	183	0
110	0	0	1187	846	183	0
111	0	0	1162	848	184	0
112	0	0	1170	846	184	0
113	0	0	994	846	183	0
114	0	0	1143	851	183	0
115	0	0	1485	851	184	0
116	0	0	1780	851	184	0
117	0	0	2138	851	184	0
118	0	0	2416	851	184	0
119	0	0	2555	851	184	0
120	0	0	2597	851	183	0
121	0	0	2582	850	184	0
122	0	0	2529	851	184	0
123	0	0	2579	849	185	0
124	0	0	2402	845	184	0
125	0	0	2108	845	184	0
126	0	0	1871	845	185	0
127	0	0	1653	845	184	0
0	0	0	1471	845	184	0
1	0	0	1308	846	184	0
2	0	0	1200	847	184	0
3	0	0	1168	849	183	0
4	0	0	1169	846	183	0
5	0	0	979	847	184	0
6	0	0	1119	852	183	0
7	0	0	1453	851	183	0
8	0	0	1742	852	184	0
9	0	0	2102	852	183	0
10	0	0	2396	851	184	0
11	0	0	2529	853	184	0
12	0	0	2569	851	184	0
13	0	0	2539	848	183	0
14	0	0	2477	852	183	0
15	0	0	2522	848	184	0
16	0	0	2327	845	184	0
17	0	0	2027	845	184	0
18	0	0	1798	846	185	0
19	0	0	1581	846	184	0
20	0	0	1405	846	185	0
21	0	0	1243	847	184	0
22	0	0	1140	847	185	0
23	0	0	1111	850	183	0
24	0	0	1107	847	183	0
25	0	0	931	849	184	0
26	0	0	1098	853	183	0
27	0	0	1439	852	183	0
28	0	0	1727	852	184	0
29	0	0	2090	852	184	0
30	0	0	2377	852	185	0
31	0	0	2507	852	184	0
32	0	0	2547	852	184	0
33	0	0	2532	851	184	0
34	0	0	2479	852	185	0
35	0	0	2531	850	184	0
36	0	0	2343	847	185	0
37	0	0	2048	846	184	0
38	0	0	1818	846	185	0
39	0	0	1605	846	184	0
40	0	0	1429	845	184	0
41	0	0	1270	847	184	0
42	0	0	1165	848	184	0
43	0	0	1139	850	183	0
44	0	0	1128	847	184	0
45	0	0	952	849	184	0
46	0	0	1124	853	184	0
47	0	0	1474	853	184	0
48	0	0	1766	853	184	0
49	0	0	2133	853	184	0
50	0	0	2420	852	184	0
51	0	0	2556	853	184	0
52	0	0	2595	853	185	0
53	0	0	2576	851	184	0
54	0	0	2525	852	185	0
55	0	0	2573	851	184	0
56	0	0	2383	847	185	0
57	0	0	2088	846	184	0
58	0	0	1865	847	185	0
59	0	0	1656	847	184	0
60	0	0	1478	847	185	0
61	0	0	1322	848	184	0
62	0	0	1227	849	184	0
63	0	0	1201	851	184	0
64	0	0	1200	847	184	0
65	0	0	1021	850	183	0
66	0	0	1192	853	184	0
67	0	0	1534	853	184	0
68	0	0	1832	853	184	0
69	0	0	2199	853	183	0
70	0	0	2486	853	184	0
71	0	0	2629	853	185	0
72	0	0	2677	854	184	0
73	0	0	2661	852	184	0
74	0	0	2616	854	185	0
75	0	0	2665	850	185	0
76	0	0	2467	847	184	0
77	0	0	2161	847	184	0
78	0	0	1935	847	184	0
79	0	0	1725	847	184	0
80	0	0	1544	848	184	0
81	0	0	1381	848	184	0
82	0	0	1275	849	184	0
83	0	0	1243	851	184	0
84	0	0	1220	847	183	0
85	0	0	1041	850	185	0
86	0	0	1213	854	184	0
87	0	0	1559	854	184	0
88	0	0	1856	854	183	0
89	0	0	2222	853	184	0
90	0	0	2506	853	184	0
91	0	0	2641	853	185	0
92	0	0	2683	853	185	0
93	0	0	2660	851	183	0
94	0	0	2603	853	185	0
95	0	0	2642	850	184	0
96	0	0	2444	847	184	0
97	0	0	2131	847	184	0
98	0	0	1897	848	184	0
99	0	0	1678	848	185	0
100	0	0	1491	848	183	0
101	0	0	1331	848	185	0
102	0	0	1233	849	183	0
103	0	0	1207	851	184	0
104	0	0	1193	848	184	0
105	0	0	1013	850	183	0
106	0	0	1189	854	183	0
107	0	0	1535	854	184	0
108	0	0	1827	854	185	0
109	0	0	2192	854	185	0
110	0	0	2469	854	184	0
111	0	0	2592	854	184	0
112	0	0	2626	854	184	0
113	0	0	2602	851	184	0
114	0	0	2551	854	184	0
115	0	0	2600	850	185	0
116	0	0	2391	848	184	0
117	0	0	2081	847	184	0
118	0	0	1852	847	184	0
119	0	0	1641	849	184	0
120	0	0	1464	847	183	0
121	0	0	1307	848	184	0
122	0	0	1206	849	183	0
123	0	0	1179	851	184	0
124	0	0	1154	850	184	0
125	0	0	978	851	183	0
126	0	0	1166	854	184	0
127	0	0	1521	854	184	0
0	0	0	1826	854	184	0
1	0	0	2208	854	185	0
2	0	0	2495	854	184	0
3	0	0	2628	854	185	0
4	0	0	2673	854	184	0
5	0	0	2658	852	185	0
6	0	0	2603	854	184	0
7	0	0	2644	850	185	0
8	0	0	2446	849	184	0
9	0	0	2146	848	183	0
10	0	0	1920	848	185	0
11	0	0	1704	849	185	0
12	0	0	1527	848	184	0
13	0	0	1363	849	184	0
14	0	0	1258	850	184	0
15	0	0	1228	852	183	0
16	0	0	1202	848	184	0
17	0	0	1025	851	184	0
18	0	0	1219	854	183	0
19	0	0	1571	854	184	0
20	0	0	1876	854	185	0
21	0	0	2262	855	184	0
22	0	0	2553	854	184	0
23	0	0	2690	855	185	0
24	0	0	2730	854	183	0
25	0	0	2705	851	185	0
26	0	0	2646	854	184	0
27	0	0	2691	850	184	0
28	0	0	2477	848	185	0
29	0	0	2180	848	184	0
30	0	0	1950	848	184	0
31	0	0	1727	848	183	0
32	0	0	1542	848	185	0
33	0	0	1381	849	183	0
34	0	0	1275	850	183	0
35	0	0	1246	852	184	0
36	0	0	1221	849	183	0
37	0	0	1052	851	183	0
38	0	0	1249	855	184	0
39	0	0	1596	855	184	0
40	0	0	1891	855	185	0
41	0	0	2269	854	182	0
42	0	0	2554	855	185	0
43	0	0	2685	854	184	0
44	0	0	2724	855	184	0
45	0	0	2697	851	185	0
46	0	0	2654	854	185	0
47	0	0	2691	850	184	0
48	0	0	2477	848	185	0
49	0	0	2162	849	184	0
50	0	0	1919	849	184	0
51	0	0	1683	849	185	0
52	0	0	1499	848	183	0
53	0	0	1336	849	184	0
54	0	0	1227	850	184	0
55	0	0	1198	853	184	0
56	0	0	1174	850	183	0
57	0	0	997	852	184	0
58	0	0	1194	855	184	0
59	0	0	1543	855	182	0
60	0	0	1839	855	185	0
61	0	0	2221	855	182	0
62	0	0	2507	854	184	0
63	0	0	2631	855	184	0
64	0	0	2667	855	183	0
65	0	0	2639	851	185	0
66	0	0	2594	855	183	0
67	0	0	2639	849	185	0
68	0	0	2413	848	182	0
69	0	0	2094	849	184	0
70	0	0	1859	848	185	0
71	0	0	1632	848	184	0
72	0	0	1443	849	184	0
73	0	0	1279	849	184	0
74	0	0	1177	850	184	0
75	0	0	1159	854	184	0
76	0	0	1137	849	183	0
77	0	0	968	852	183	0
78	0	0	1172	855	184	0
79	0	0	1529	855	184	0
80	0	0	1824	855	184	0
81	0	0	2204	855	184	0
82	0	0	2491	855	184	0
83	0	0	2624	855	185	0
84	0	0	2667	855	185	0
85	0	0	2650	853	184	0
86	0	0	2615	854	184	0
87	0	0	2656	851	184	0
88	0	0	2432	849	185	0
89	0	0	2118	849	184	0
90	0	0	1878	849	184	0
91	0	0	1647	849	184	0
92	0	0	1466	849	183	0
93	0	0	1309	850	185	0
94	0	0	1207	850	185	0
95	0	0	1183	854	185	0
96	0	0	1156	850	183	0
97	0	0	991	853	184	0
98	0	0	1198	855	183	0
99	0	0	1555	855	184	0
100	0	0	1859	855	184	0
101	0	0	2250	855	184	0
102	0	0	2536	856	184	0
103	0	0	2667	855	184	0
104	0	0	2706	855	185	0
105	0	0	2684	852	184	0
106	0	0	2633	855	183	0
107	0	0	2674	850	184	0
108	0	0	2458	849	183	0
109	0	0	2146	849	185	0
110	0	0	1913	849	184	0
111	0	0	1688	849	184	0
112	0	0	1500	848	184	0
113	0	0	1331	850	184	0
114	0	0	1226	850	184	0
115	0	0	1199	853	184	0
116	0	0	1158	850	183	0
117	0	0	986	853	184	0
118	0	0	1194	856	184	0
119	0	0	1554	855	183	0
120	0	0	1856	855	184	0
121	0	0	2241	855	185	0
122	0	0	2540	857	184	0
123	0	0	2677	856	185	0
124	0	0	2723	855	184	0
125	0	0	2701	852	184	0
126	0	0	2653	855	183	0
127	0	0	2689	851	184	0
0	0	0	2460	849	184	0
1	0	0	2146	849	184	0
2	0	0	1901	849	184	0
3	0	0	1670	849	183	0
4	0	0	1476	849	182	0
5	0	0	1308	849	183	0
6	0	0	1203	851	185	0
7	0	0	1178	853	184	0
8	0	0	1134	849	183	0
9	0	0	962	854	184	0
10	0	0	1174	856	184	0
11	0	0	1533	855	184	0
12	0	0	1841	856	183	0
13	0	0	2232	857	183	0
14	0	0	2524	855	184	0
15	0	0	2653	855	185	0
16	0	0	2690	855	184	0
17	0	0	2665	852	185	0
18	0	0	2612	855	183	0
19	0	0	2643	850	184	0
20	0	0	2424	849	185	0
21	0	0	2110	849	184	0
22	0	0	1863	849	184	0
23	0	0	1624	849	184	0
24	0	0	1430	849	184	0
25	0	0	1266	850	184	0
26	0	0	1162	850	184	0
27	0	0	1136	853	184	0
28	0	0	1096	849	184	0
29	0	0	920	854	184	0
30	0	0	1133	856	183	0
31	0	0	1495	856	184	0
32	0	0	1798	856	183	0
33	0	0	2195	856	185	0
34	0	0	2484	856	185	0
35	0	0	2622	855	184	0
36	0	0	2669	855	183	0
37	0	0	2654	854	185	0
38	0	0	2627	855	184	0
39	0	0	2661	850	185	0
40	0	0	2418	849	184	0
41	0	0	2097	850	185	0
42	0	0	1855	849	184	0
43	0	0	1621	849	184	0
44	0	0	1426	850	185	0
45	0	0	1259	850	183	0
46	0	0	1154	851	184	0
47	0	0	1127	854	183	0
48	0	0	1081	849	184	0
49	0	0	912	855	184	0
50	0	0	1139	855	184	0
51	0	0	1505	856	184	0
52	0	0	1826	857	183	0
53	0	0	2231	856	185	0
54	0	0	2522	856	185	0
55	0	0	2661	856	185	0
56	0	0	2707	855	185	0
57	0	0	2692	853	184	0
58	0	0	2660	855	185	0
59	0	0	2692	851	184	0
60	0	0	2453	850	184	0
61	0	0	2132	849	184	0
62	0	0	1882	850	184	0
63	0	0	1645	849	184	0
64	0	0	1449	850	184	0
65	0	0	1278	850	184	0
66	0	0	1170	851	184	0
67	0	0	1147	855	183	0
68	0	0	1098	850	183	0
69	0	0	931	855	184	0
70	0	0	1162	856	184	0
71	0	0	1529	856	184	0
72	0	0	1848	856	184	0
73	0	0	2262	856	183	0
74	0	0	2562	856	184	0
75	0	0	2703	856	183	0
76	0	0	2757	855	184	0
77	0	0	2747	855	184	0
78	0	0	2722	856	184	0
79	0	0	2752	850	185	0
80	0	0	2500	849	184	0
81	0	0	2172	849	184	0
82	0	0	1922	850	184	0
83	0	0	1679	850	183	0
84	0	0	1476	850	184	0
85	0	0	1297	850	184	0
86	0	0	1184	851	184	0
87	0	0	1148	854	183	0
88	0	0	1084	850	184	0
89	0	0	919	856	184	0
90	0	0	1153	855	184	0
91	0	0	1525	856	184	0
92	0	0	1856	857	183	0
93	0	0	2280	857	184	0
94	0	0	2594	856	185	0
95	0	0	2735	856	184	0
96	0	0	2782	856	184	0
97	0	0	2761	853	184	0
98	0	0	2711	855	186	0
99	0	0	2737	851	184	0
100	0	0	2493	849	185	0
101	0	0	2162	850	184	0
102	0	0	1912	850	185	0
103	0	0	1664	850	184	0
104	0	0	1454	850	184	0
105	0	0	1268	851	183	0
106	0	0	1148	851	184	0
107	0	0	1114	854	184	0
108	0	0	1046	850	183	0
109	0	0	875	856	183	0
110	0	0	1123	856	183	0
111	0	0	1506	856	184	0
112	0	0	1835	856	183	0
113	0	0	2265	857	184	0
114	0	0	2590	856	184	0
115	0	0	2733	857	184	0
116	0	0	2782	856	184	0
117	0	0	2770	854	183	0
118	0	0	2737	856	184	0
119	0	0	2765	851	185	0
120	0	0	2506	850	185	0
121	0	0	2166	850	185	0
122	0	0	1906	849	184	0
123	0	0	1649	850	184	0
124	0	0	1425	851	183	0
125	0	0	1230	851	183	0
126	0	0	1102	851	185	0
127	0	0	1065	854	183	0
0	0	0	995	850	184	0
1	0	0	821	856	183	0
2	0	0	1065	857	183	0
3	0	0	1452	856	185	0
4	0	0	1784	857	183	0
5	0	0	2222	857	183	0
6	0	0	2547	856	184	0
7	0	0	2697	857	183	0
8	0	0	2752	857	185	0
9	0	0	2737	855	185	0
10	0	0	2717	857	184	0
11	0	0	2742	852	183	0
12	0	0	2481	850	184	0
13	0	0	2130	850	185	0
14	0	0	1860	850	184	0
15	0	0	1598	851	184	0
16	0	0	1363	851	184	0
17	0	0	1165	851	185	0
18	0	0	1041	852	184	0
19	0	0	1005	855	184	0
20	0	0	926	850	184	0
21	0	0	756	857	183	0
22	0	0	1013	858	183	0
23	0	0	1418	857	183	0
24	0	0	1773	857	183	0
25	0	0	2220	857	183	0
26	0	0	2553	857	183	0
27	0	0	2709	857	183	0
28	0	0	2772	857	183	0
29	0	0	2762	854	184	0
30	0	0	2736	857	183	0
31	0	0	2761	851	183	0
32	0	0	2493	850	184	0
33	0	0	2140	850	183	0
34	0	0	1866	851	185	0
35	0	0	1608	851	184	0
36	0	0	1392	851	184	0
37	0	0	1215	852	183	0
38	0	0	1107	852	183	0
39	0	0	1077	856	184	0
40	0	0	1002	851	183	0
41	0	0	836	860	183	0
42	0	0	1110	857	183	0
43	0	0	1512	857	183	0
44	0	0	1879	857	183	0
45	0	0	2352	857	183	0
46	0	0	2701	857	182	0
47	0	0	2872	857	185	0
48	0	0	2945	857	184	0
49	0	0	2945	857	184	0
50	0	0	2928	857	184	0
51	0	0	2960	852	184	0
52	0	0	2678	851	184	0
53	0	0	2321	850	183	0
54	0	0	2052	850	185	0
55	0	0	1777	851	183	0
56	0	0	1527	851	183	0
57	0	0	1314	851	184	0
58	0	0	1178	851	184	0
59	0	0	1134	855	184	0
60	0	0	1037	852	185	0
61	0	0	855	858	183	0
62	0	0	1125	857	184	0
63	0	0	1533	857	184	0
64	0	0	1891	857	183	0
65	0	0	2361	857	184	0
66	0	0	2707	857	183	0
67	0	0	2865	857	184	0
68	0	0	2929	857	184	0
69	0	0	2917	854	183	0
70	0	0	2893	856	184	0
71	0	0	2917	853	184	0
72	0	0	2625	850	183	0
73	0	0	2250	851	184	0
74	0	0	1974	850	183	0
75	0	0	1695	851	184	0
76	0	0	1455	852	185	0
77	0	0	1246	852	184	0
78	0	0	1108	852	183	0
79	0	0	1063	855	184	0
80	0	0	957	851	184	0
81	0	0	783	859	184	0
82	0	0	1068	857	184	0
83	0	0	1488	858	183	0
84	0	0	1861	858	184	0
85	0	0	2352	857	184	0
86	0	0	2715	857	184	0
87	0	0	2891	857	184	0
88	0	0	2965	857	184	0
89	0	0	2966	856	185	0
90	0	0	2943	857	185	0
91	0	0	2969	852	184	0
92	0	0	2669	851	184	0
93	0	0	2290	851	185	0
94	0	0	2002	850	184	0
95	0	0	1714	851	184	0
96	0	0	1459	851	184	0
97	0	0	1234	851	184	0
98	0	0	1086	852	185	0
99	0	0	1036	854	184	0
100	0	0	915	852	183	0
101	0	0	734	859	182	0
102	0	0	1026	858	183	0
103	0	0	1452	857	184	0
104	0	0	1838	857	184	0
105	0	0	2329	858	184	0
106	0	0	2693	857	184	0
107	0	0	2874	857	184	0
108	0	0	2954	857	184	0
109	0	0	2959	856	185	0
110	0	0	2954	857	185	0
111	0	0	2973	852	185	0
112	0	0	2671	851	184	0
113	0	0	2284	850	184	0
114	0	0	1998	850	183	0
115	0	0	1707	851	184	0
116	0	0	1442	851	183	0
117	0	0	1215	852	184	0
118	0	0	1070	852	184	0
119	0	0	1027	855	183	0
120	0	0	916	851	184	0
121	0	0	747	857	183	0
122	0	0	1056	858	185	0
123	0	0	1500	857	183	0
124	0	0	1904	858	183	0
125	0	0	2421	857	184	0
126	0	0	2803	857	183	0
127	0	0	2994	858	184	0
0	0	0	3079	856	184	0
1	0	0	3084	857	183	0
2	0	0	3094	857	184	0
3	0	0	3115	852	184	0
4	0	0	2790	850	184	0
5	0	0	2396	851	184	0
6	0	0	2089	850	185	0
7	0	0	1787	851	183	0
8	0	0	1512	851	183	0
9	0	0	1282	852	183	0
10	0	0	1141	853	184	0
11	0	0	1090	855	184	0
12	0	0	991	851	182	0
13	0	0	782	858	184	0
14	0	0	1086	857	182	0
15	0	0	1528	858	184	0
16	0	0	1950	856	184	0
17	0	0	2436	858	184	0
18	0	0	2801	857	183	0
19	0	0	2993	857	184	0
20	0	0	3079	857	184	0
21	0	0	3078	856	183	0
22	0	0	3076	857	184	0
23	0	0	3090	852	185	0
24	0	0	2783	850	183	0
25	0	0	2381	850	184	0
26	0	0	2068	850	185	0
27	0	0	1759	851	184	0
28	0	0	1486	851	183	0
29	0	0	1240	851	183	0
30	0	0	1092	852	184	0
31	0	0	1045	854	183	0
32	0	0	935	851	182	0
33	0	0	742	857	183	0
34	0	0	1041	857	185	0
35	0	0	1490	857	183	0
36	0	0	1918	857	184	0
37	0	0	2430	857	183	0
38	0	0	2798	858	185	0
39	0	0	2998	857	184	0
40	0	0	3088	857	183	0
41	0	0	3088	856	186	0
42	0	0	3098	856	184	0
43	0	0	3123	852	185	0
44	0	0	2800	850	184	0
45	0	0	2406	851	185	0
46	0	0	2086	850	184	0
47	0	0	1779	851	183	0
48	0	0	1508	851	184	0
49	0	0	1262	852	184	0
50	0	0	1103	852	184	0
51	0	0	1053	855	184	0
52	0	0	921	851	183	0
53	0	0	752	859	184	0
54	0	0	1064	857	184	0
55	0	0	1512	857	183	0
56	0	0	1944	858	184	0
57	0	0	2471	857	184	0
58	0	0	2856	857	184	0
59	0	0	3053	857	185	0
60	0	0	3143	857	184	0
61	0	0	3143	855	184	0
62	0	0	3131	857	184	0
63	0	0	3152	852	184	0
64	0	0	2842	850	184	0
65	0	0	2445	850	183	0
66	0	0	2124	850	184	0
67	0	0	1816	851	185	0
68	0	0	1539	851	183	0
69	0	0	1297	852	183	0
70	0	0	1141	852	184	0
71	0	0	1090	854	184	0
72	0	0	949	851	184	0
73	0	0	771	858	184	0
74	0	0	1087	857	183	0
75	0	0	1533	857	184	0
76	0	0	1974	857	184	0
77	0	0	2503	857	184	0
78	0	0	2893	857	185	0
79	0	0	3093	856	183	0
80	0	0	3185	857	184	0
81	0	0	3187	856	184	0
82	0	0	3193	857	185	0
83	0	0	3205	851	184	0
84	0	0	2858	850	185	0
85	0	0	2449	851	184	0
86	0	0	2130	851	185	0
87	0	0	1818	851	184	0
88	0	0	1543	851	184	0
89	0	0	1289	851	183	0
90	0	0	1129	852	184	0
91	0	0	1077	855	184	0
92	0	0	935	851	184	0
93	0	0	763	859	184	0
94	0	0	1088	857	184	0
95	0	0	1547	857	184	0
96	0	0	1995	857	185	0
97	0	0	2530	857	183	0
98	0	0	2921	858	185	0
99	0	0	3133	856	185	0
100	0	0	3233	857	184	0
101	0	0	3245	856	183	0
102	0	0	3264	857	185	0
103	0	0	3276	852	185	0
104	0	0	2942	850	184	0
105	0	0	2532	850	184	0
106	0	0	2214	851	184	0
107	0	0	1900	850	185	0
108	0	0	1606	851	185	0
109	0	0	1345	851	184	0
110	0	0	1182	852	183	0
111	0	0	1131	855	184	0
112	0	0	991	851	184	0
113	0	0	816	858	184	0
114	0	0	1134	857	183	0
115	0	0	1593	857	183	0
116	0	0	2029	857	184	0
117	0	0	2552	858	185	0
118	0	0	2930	857	185	0
119	0	0	3137	857	184	0
120	0	0	3226	857	184	0
121	0	0	3248	857	185	0
122	0	0	3287	857	184	0
123	0	0	3320	852	184	0
124	0	0	3002	850	184	0
125	0	0	2602	850	184	0
126	0	0	2257	850	184	0
127	0	0	1917	851	183	0
0	0	0	1589	851	184	0
1	0	0	1292	850	184	0
2	0	0	1096	851	184	0
3	0	0	1002	853	184	0
4	0	0	830	851	184	0
5	0	0	630	857	185	0
6	0	0	931	857	184	0
7	0	0	1378	857	184	0
8	0	0	1811	857	184	0
9	0	0	2331	858	184	0
10	0	0	2711	857	183	0
11	0	0	2913	857	183	0
12	0	0	2999	857	184	0
13	0	0	2999	856	183	0
14	0	0	3010	857	184	0
15	0	0	3019	852	184	0
16	0	0	2695	850	184	0
17	0	0	2284	850	184	0
18	0	0	1956	851	183	0
19	0	0	1634	851	184	0
20	0	0	1333	851	184	0
21	0	0	1069	851	184	0
22	0	0	904	852	184	0
23	0	0	850	855	183	0
24	0	0	701	852	183	0
25	0	0	534	858	183	0
26	0	0	866	858	183	0
27	0	0	1333	857	184	0
28	0	0	1790	858	184	0
29	0	0	2336	857	185	0
30	0	0	2727	857	183	0
31	0	0	2942	858	185	0
32	0	0	3037	857	184	0
33	0	0	3038	856	183	0
34	0	0	3039	857	184	0
35	0	0	3051	852	185	0
36	0	0	2720	850	184	0
37	0	0	2318	850	186	0
38	0	0	1984	851	184	0
39	0	0	1657	851	184	0
40	0	0	1360	852	184	0
41	0	0	1097	851	184	0
42	0	0	930	852	183	0
43	0	0	872	855	183	0
44	0	0	700	851	184	0
45	0	0	531	858	183	0
46	0	0	888	858	183	0
47	0	0	1362	858	184	0
48	0	0	1825	858	184	0
49	0	0	2377	857	184	0
50	0	0	2776	858	184	0
51	0	0	2988	857	184	0
52	0	0	3083	858	184	0
53	0	0	3085	857	185	0
54	0	0	3100	857	185	0
55	0	0	3105	851	184	0
56	0	0	2744	850	184	0
57	0	0	2325	851	184	0
58	0	0	1985	851	184	0
59	0	0	1664	851	184	0
60	0	0	1371	851	185	0
61	0	0	1115	852	183	0
62	0	0	949	852	184	0
63	0	0	890	855	184	0
64	0	0	721	852	185	0
65	0	0	553	858	183	0
66	0	0	911	858	184	0
67	0	0	1387	858	184	0
68	0	0	1849	858	184	0
69	0	0	2403	858	185	0
70	0	0	2802	857	183	0
71	0	0	3012	857	185	0
72	0	0	3112	857	185	0
73	0	0	3120	858	185	0
74	0	0	3149	858	185	0
75	0	0	3157	852	185	0
76	0	0	2785	851	184	0
77	0	0	2353	850	184	0
78	0	0	2018	851	184	0
79	0	0	1688	851	184	0
80	0	0	1374	851	185	0
81	0	0	1115	851	184	0
82	0	0	950	852	184	0
83	0	0	899	855	184	0
84	0	0	736	852	186	0
85	0	0	565	858	184	0
86	0	0	925	858	184	0
87	0	0	1408	857	185	0
88	0	0	1868	857	185	0
89	0	0	2425	858	184	0
90	0	0	2829	858	185	0
91	0	0	3041	857	184	0
92	0	0	3142	857	185	0
93	0	0	3147	857	184	0
94	0	0	3156	858	185	0
95	0	0	3151	852	184	0
96	0	0	2789	850	183	0
97	0	0	2358	850	184	0
98	0	0	2018	851	185	0
99	0	0	1687	851	183	0
100	0	0	1372	851	184	0
101	0	0	1112	851	184	0
102	0	0	947	852	184	0
103	0	0	892	856	184	0
104	0	0	721	851	184	0
105	0	0	548	858	184	0
106	0	0	919	857	183	0
107	0	0	1411	857	184	0
108	0	0	1875	859	185	0
109	0	0	2430	858	184	0
110	0	0	2827	857	184	0
111	0	0	3034	857	184	0
112	0	0	3129	857	185	0
113	0	0	3136	857	185	0
114	0	0	3147	857	184	0
115	0	0	3139	852	186	0
116	0	0	2780	850	184	0
117	0	0	2355	851	184	0
118	0	0	2017	851	183	0
119	0	0	1681	851	185	0
120	0	0	1355	851	184	0
121	0	0	1086	850	183	0
122	0	0	921	852	185	0
123	0	0	873	855	183	0
124	0	0	707	851	184	0
125	0	0	548	858	186	0
126	0	0	916	858	185	0
127	0	0	1405	857	183	0
0	0	0	1867	857	183	0
1	0	0	2420	857	185	0
2	0	0	2827	858	184	0
3	0	0	3039	857	184	0
4	0	0	3133	857	184	0
5	0	0	3143	857	185	0
6	0	0	3157	857	186	0
7	0	0	3139	851	184	0
8	0	0	2778	850	183	0
9	0	0	2353	850	186	0
10	0	0	2015	851	184	0
11	0	0	1689	851	185	0
12	0	0	1370	851	185	0
13	0	0	1107	851	183	0
14	0	0	936	852	185	0
15	0	0	879	855	183	0
16	0	0	701	851	184	0
17	0	0	540	858	184	0
18	0	0	915	858	185	0
19	0	0	1409	857	184	0
20	0	0	1880	857	184	0
21	0	0	2431	857	184	0
22	0	0	2847	858	183	0
23	0	0	3056	857	185	0
24	0	0	3153	857	184	0
25	0	0	3155	855	184	0
26	0	0	3163	856	185	0
27	0	0	3150	851	184	0
28	0	0	2782	850	184	0
29	0	0	2360	850	185	0
30	0	0	2024	851	184	0
31	0	0	1688	850	185	0
32	0	0	1374	851	184	0
33	0	0	1107	851	184	0
34	0	0	941	852	184	0
35	0	0	891	855	184	0
36	0	0	702	851	184	0
37	0	0	552	857	186	0
38	0	0	930	858	183	0
39	0	0	1418	857	184	0
40	0	0	1888	858	185	0
41	0	0	2452	857	184	0
42	0	0	2856	858	185	0
43	0	0	3076	857	184	0
44	0	0	3177	857	184	0
45	0	0	3183	856	186	0
46	0	0	3211	857	185	0
47	0	0	3191	851	184	0
48	0	0	2803	850	184	0
49	0	0	2382	850	183	0
50	0	0	2045	850	184	0
51	0	0	1706	851	184	0
52	0	0	1371	851	184	0
53	0	0	1100	851	184	0
54	0	0	937	852	184	0
55	0	0	893	857	183	0
56	0	0	705	852	183	0
57	0	0	566	857	183	0
58	0	0	954	857	184	0
59	0	0	1433	857	184	0
60	0	0	1901	858	184	0
61	0	0	2470	857	184	0
62	0	0	2873	857	185	0
63	0	0	3086	857	184	0
64	0	0	3181	857	184	0
65	0	0	3181	854	184	0
66	0	0	3215	856	182	0
67	0	0	3185	851	184	0
68	0	0	2791	850	185	0
69	0	0	2369	851	184	0
70	0	0	2030	850	185	0
71	0	0	1688	851	184	0
72	0	0	1352	851	185	0
73	0	0	1083	851	184	0
74	0	0	913	852	183	0
75	0	0	867	858	184	0
76	0	0	674	852	184	0
77	0	0	539	858	185	0
78	0	0	936	857	184	0
79	0	0	1412	857	184	0
80	0	0	1889	857	184	0
81	0	0	2461	857	184	0
82	0	0	2872	858	184	0
83	0	0	3085	857	184	0
84	0	0	3178	856	184	0
85	0	0	3166	853	185	0
86	0	0	3191	856	185	0
87	0	0	3160	851	184	0
88	0	0	2763	851	184	0
89	0	0	2340	850	184	0
90	0	0	1996	850	184	0
91	0	0	1646	850	183	0
92	0	0	1307	851	183	0
93	0	0	1031	851	182	0
94	0	0	853	852	183	0
95	0	0	805	854	183	0
96	0	0	593	851	185	0
97	0	0	449	857	183	0
98	0	0	845	857	183	0
99	0	0	1318	857	183	0
100	0	0	1781	857	184	0
101	0	0	2341	857	184	0
102	0	0	2736	857	185	0
103	0	0	2936	857	184	0
104	0	0	3046	857	185	0
105	0	0	3072	857	184	0
106	0	0	3135	856	184	0
107	0	0	3131	851	185	0
108	0	0	2757	850	184	0
109	0	0	2354	850	185	0
110	0	0	2021	850	184	0
111	0	0	1679	850	185	0
112	0	0	1350	851	185	0
113	0	0	1072	851	184	0
114	0	0	900	852	184	0
115	0	0	862	858	183	0
116	0	0	640	851	183	0
117	0	0	514	857	183	0
118	0	0	943	858	183	0
119	0	0	1440	857	185	0
120	0	0	1924	857	184	0
121	0	0	2520	858	184	0
122	0	0	2945	857	184	0
123	0	0	3161	857	184	0
124	0	0	3262	857	185	0
125	0	0	3260	853	184	0
126	0	0	3299	857	185	0
127	0	0	3264	851	184	0
0	0	0	2858	850	183	0
1	0	0	2449	850	185	0
2	0	0	2100	850	185	0
3	0	0	1759	851	183	0
4	0	0	1439	851	184	0
5	0	0	1171	851	183	0
6	0	0	997	851	184	0
7	0	0	943	854	183	0
8	0	0	703	851	184	0
9	0	0	573	857	183	0
10	0	0	997	857	183	0
11	0	0	1479	858	183	0
12	0	0	1955	857	183	0
13	0	0	2543	857	184	0
14	0	0	2958	857	183	0
15	0	0	3169	856	185	0
16	0	0	3263	856	185	0
17	0	0	3243	852	184	0
18	0	0	3279	856	185	0
19	0	0	3227	851	185	0
20	0	0	2796	850	184	0
21	0	0	2364	850	184	0
22	0	0	2006	850	185	0
23	0	0	1653	851	184	0
24	0	0	1314	850	183	0
25	0	0	1027	851	183	0
26	0	0	854	851	184	0
27	0	0	809	852	184	0
28	0	0	564	851	184	0
29	0	0	450	857	184	0
30	0	0	904	857	183	0
31	0	0	1409	857	183	0
32	0	0	1912	857	183	0
33	0	0	2509	857	183	0
34	0	0	2929	857	183	0
35	0	0	3152	857	184	0
36	0	0	3249	857	183	0
37	0	0	3246	855	184	0
38	0	0	3305	856	184	0
39	0	0	3241	850	185	0
40	0	0	2804	849	186	0
41	0	0	2370	851	184	0
42	0	0	2006	850	184	0
43	0	0	1653	849	185	0
44	0	0	1315	851	184	0
45	0	0	1037	851	184	0
46	0	0	868	851	184	0
47	0	0	828	854	184	0
48	0	0	596	851	183	0
49	0	0	494	857	185	0
50	0	0	944	857	185	0
51	0	1	1441	857	182	0
52	0	1	1955	857	184	0
53	0	1	2562	857	184	0
54	0	1	2981	857	185	0
55	0	1	3206	857	184	0
56	0	1	3307	857	185	0
57	0	1	3300	854	184	0
58	0	1	3342	857	184	0
59	0	1	3287	850	185	0
60	0	1	2874	851	185	0
61	0	1	2449	850	185	0
62	0	1	2092	850	184	0
63	0	1	1733	850	184	0
64	0	1	1385	850	183	0
65	0	1	1091	850	185	0
66	0	1	914	852	183	0
67	0	1	875	852	184	0
68	0	1	635	851	182	0
69	0	1	540	858	183	0
70	0	1	987	857	183	0
71	0	1	1484	857	184	0
72	0	1	1985	857	183	0
73	0	1	2599	856	184	0
74	0	1	3017	857	183	0
75	0	1	3248	857	184	0
76	1	1	3354	856	185	0
77	1	1	3355	855	185	0
78	1	1	3395	857	185	0
79	1	1	3318	850	184	0
80	1	1	2892	850	184	0
81	1	1	2468	851	184	0
82	1	1	2105	850	184	0
83	1	1	1744	850	183	0
84	1	1	1396	851	184	0
85	1	1	1110	850	183	0
86	1	1	934	852	184	0
87	1	1	887	853	184	0
88	1	1	642	851	184	0
89	1	1	543	857	184	0
90	1	1	996	857	184	0
91	1	1	1482	857	183	0
92	1	1	1998	857	184	0
93	1	1	2609	857	184	0
94	1	1	3022	857	185	0
95	1	1	3242	857	184	0
96	1	1	3334	857	185	0
97	1	1	3328	854	184	0
98	1	1	3369	856	184	0
99	1	1	3295	850	185	0
100	1	1	2864	850	184	0
101	1	1	2436	850	184	0
102	1	1	2075	850	185	0
103	1	1	1706	850	184	0
104	1	1	1354	850	184	0
105	1	1	1065	851	185	0
106	1	1	890	852	183	0
107	1	1	839	851	184	0
108	1	1	582	850	185	0
109	1	1	491	857	183	0
110	1	1	955	857	183	0
111	1	1	1462	858	184	0
112	1	1	1976	857	183	0
113	1	1	2601	857	184	0
114	1	1	3029	857	184	0
115	1	1	3247	857	185	0
116	1	1	3346	857	185	0
117	1	1	3337	853	184	0
118	1	1	3395	856	184	0
119	1	1	3315	851	185	0
120	1	1	2868	850	185	0
121	1	1	2429	850	185	0
122	1	1	2066	850	184	0
123	1	1	1711	850	184	0
124	1	1	1374	850	184	0
125	1	1	1090	851	185	0
126	1	1	914	851	184	0
127	1	1	853	851	184	0
0	1	1	583	850	184	0
1	1	1	514	857	183	0
2	1	1	984	856	185	0
3	1	1	1488	857	185	0
4	1	1	2010	857	184	0
5	1	1	2630	857	184	0
6	1	1	3051	857	183	0
7	1	1	3269	856	183	0
8	1	1	3362	857	185	0
9	1	1	3347	852	184	0
10	1	1	3396	856	185	0
11	1	1	3309	850	184	0
12	1	1	2867	850	184	0
13	1	1	2431	850	185	0
14	1	1	2070	850	185	0
15	1	1	1714	850	186	0
16	1	1	1365	850	183	0
17	1	1	1080	851	184	0
18	1	1	910	851	183	0
19	1	1	863	852	183	0
20	1	1	605	850	184	0
21	1	1	545	857	184	0
22	1	1	1006	856	184	0
23	1	1	1497	857	184	0
24	1	1	2018	856	184	0
25	1	1	2627	857	183	0
26	1	1	3042	857	185	0
27	1	1	3263	856	185	0
28	1	1	3358	857	185	0
29	1	1	3357	855	185	0
30	1	1	3424	857	185	0
31	1	1	3327	850	185	0
32	1	1	2886	849	184	0
33	1	1	2457	849	185	0
34	1	1	2097	850	184	0
35	1	1	1742	850	185	0
36	1	1	1397	850	183	0
37	1	1	1117	850	186	0
38	1	1	957	851	184	0
39	1	1	919	852	184	0
40	1	1	656	851	183	0
41	1	1	608	857	183	0
42	1	1	1068	856	184	0
43	1	1	1562	857	183	0
44	1	1	2092	856	183	0
45	1	1	2696	857	183	0
46	1	1	3112	856	184	0
47	1	1	3335	856	185	0
48	1	1	3431	856	184	0
49	1	1	3436	855	184	0
50	1	1	3500	856	184	0
51	1	1	3413	850	185	0
52	1	1	3002	850	184	0
53	1	1	2595	849	184	0
54	1	1	2241	849	184	0
55	1	1	1887	850	184	0
56	1	1	1549	850	183	0
57	1	1	1270	850	184	0
58	1	1	1110	851	184	0
59	1	1	1067	851	183	0
60	1	1	799	850	185	0
61	1	1	744	856	184	0
62	1	1	1189	857	184	0
63	1	1	1667	856	184	0
64	1	1	2186	856	184	0
65	1	1	2778	856	185	0
66	1	1	3168	856	185	0
67	1	1	3377	857	184	0
68	1	1	3452	856	185	0
69	1	1	3433	853	184	0
70	1	1	3489	856	185	0
71	1	1	3375	849	185	0
72	1	1	2943	849	183	0
73	1	1	2520	850	184	0
74	1	1	2151	849	184	0
75	1	1	1786	850	186	0
76	1	1	1437	850	183	0
77	1	1	1154	850	184	0
78	1	1	995	851	184	0
79	1	1	956	851	184	0
80	1	1	687	850	185	0
81	1	1	650	856	183	0
82	1	1	1111	857	184	0
83	1	1	1595	856	183	0
84	1	1	2116	856	184	0
85	1	1	2713	856	185	0
86	1	1	3107	856	184	0
87	1	1	3309	856	185	0
88	1	1	3383	856	184	0
89	1	1	3355	852	185	0
90	1	1	3412	856	185	0
91	1	1	3301	850	183	0
92	1	1	2871	849	184	0
93	1	1	2463	849	184	0
94	1	1	2105	849	185	0
95	1	1	1754	849	185	0
96	1	1	1417	850	183	0
97	1	1	1134	850	184	0
98	1	1	972	851	184	0
99	1	1	928	851	183	0
100	1	1	643	850	184	0
101	1	1	616	856	183	0
102	1	1	1090	856	185	0
103	1	1	1566	856	184	0
104	1	1	2104	856	184	0
105	1	1	2704	856	184	0
106	1	1	3093	856	185	0
107	1	1	3294	856	184	0
108	1	1	3367	856	185	0
109	1	1	3336	852	185	0
110	1	1	3403	855	184	0
111	1	1	3282	850	185	0
112	1	1	2832	850	184	0
113	1	1	2417	850	184	0
114	1	1	2060	850	185	0
115	1	1	1713	850	184	0
116	1	1	1376	850	183	0
117	1	1	1099	850	183	0
118	1	1	943	851	184	0
119	1	1	899	851	185	0
120	1	1	611	850	184	0
121	1	1	604	857	184	0
122	1	1	1087	856	184	0
123	1	1	1565	856	184	0
124	1	1	2092	856	185	0
125	1	1	2677	856	183	0
126	1	1	3065	856	185	0
127	1	1	3272	855	183	0
0	1	1	3351	856	184	0
1	1	1	3337	855	184	0
2	1	1	3408	856	184	0
3	1	1	3278	850	185	0
4	1	1	2823	850	184	0
5	1	1	2408	850	185	0
6	1	1	2046	849	185	0
7	1	1	1700	850	184	0
8	1	1	1363	850	184	0
9	1	1	1092	850	185	0
10	1	1	937	851	184	0
11	1	1	900	851	184	0
12	1	1	621	850	185	0
13	1	1	602	856	183	0
14	1	1	1072	856	184	0
15	1	1	1550	857	183	0
16	1	1	2079	856	184	0
17	1	1	2662	856	184	0
18	1	1	3036	856	185	0
19	1	1	3231	856	184	0
20	1	1	3300	856	184	0
21	1	1	3271	852	184	0
22	1	1	3333	855	185	0
23	1	1	3200	850	184	0
24	1	1	2759	849	183	0
25	1	1	2343	849	185	0
26	1	1	1984	850	183	0
27	1	1	1626	849	184	0
28	1	1	1280	850	184	0
29	1	1	1007	850	184	0
30	1	1	854	851	184	0
31	1	1	821	851	183	0
32	1	1	537	850	184	0
33	1	1	530	856	184	0
34	1	1	1007	856	182	0
35	1	1	1484	857	183	0
36	1	1	2007	856	185	0
37	1	1	2589	856	184	0
38	1	1	2966	856	185	0
39	1	1	3164	856	183	0
40	1	1	3237	856	185	0
41	1	1	3204	853	184	0
42	1	1	3274	856	184	0
43	1	1	3140	849	184	0
44	1	1	2695	849	184	0
45	1	1	2277	850	184	0
46	1	1	1904	849	184	0
47	1	1	1554	849	183	0
48	1	1	1210	850	183	0
49	1	1	935	850	184	0
50	1	1	787	850	184	0
51	1	1	755	851	184	0
52	1	1	482	851	184	0
53	1	1	476	857	184	0
54	1	1	962	856	183	0
55	1	1	1446	857	184	0
56	1	1	1987	856	183	0
57	1	1	2575	855	183	0
58	1	1	2955	856	184	0
59	1	1	3152	856	184	0
60	1	1	3224	856	184	0
61	1	1	3192	853	184	0
62	1	1	3252	855	185	0
63	1	1	3122	849	185	0
64	1	1	2693	849	184	0
65	1	1	2286	849	184	0
66	1	1	1924	850	184	0
67	1	1	1582	849	184	0
68	1	1	1248	850	184	0
69	1	1	976	850	184	0
70	1	1	833	851	184	0
71	1	1	795	850	184	0
72	1	1	502	850	183	0
73	1	1	506	856	184	0
74	1	1	997	856	183	0
75	1	1	1481	856	184	0
76	1	1	2024	856	183	0
77	1	1	2604	856	183	0
78	1	1	2983	857	185	0
79	1	1	3177	856	183	0
80	1	1	3240	856	185	0
81	1	1	3197	853	183	0
82	1	1	3271	855	184	0
83	1	1	3115	850	185	0
84	1	1	2654	849	185	0
85	1	1	2235	850	185	0
86	1	1	1857	850	185	0
87	1	1	1517	849	184	0
88	1	1	1176	850	185	0
89	1	1	892	850	183	0
90	1	1	742	851	184	0
91	1	1	695	851	184	0
92	1	1	420	850	185	0
93	1	1	409	857	184	0
94	1	1	920	856	183	0
95	1	1	1413	856	184	0
96	1	1	1969	858	183	0
97	1	1	2543	856	185	0
98	1	1	2916	856	184	0
99	1	1	3118	856	183	0
100	1	1	3195	855	184	0
101	1	1	3181	856	185	0
102	1	1	3268	856	184	0
103	1	1	3117	850	184	0
104	1	1	2667	850	185	0
105	1	1	2258	849	185	0
106	1	1	1887	849	185	0
107	1	1	1545	850	184	0
108	1	1	1211	849	183	0
109	1	1	940	850	183	0
110	1	1	794	851	182	0
111	1	1	759	851	184	0
112	1	1	474	851	184	0
113	1	1	480	856	183	0
114	1	1	966	856	184	0
115	1	1	1443	856	184	0
116	1	1	1998	856	184	0
117	1	1	2583	856	184	0
118	1	1	2950	856	184	0
119	1	1	3148	856	184	0
120	1	1	3226	856	184	0
121	1	1	3207	857	184	0
122	1	1	3296	855	185	0
123	1	1	3143	850	184	0
124	1	1	2683	849	183	0
125	1	1	2279	849	184	0
126	1	1	1911	849	185	0
127	1	1	1565	850	184	0
0	1	1	1235	850	185	0
1	1	1	968	850	184	0
2	1	1	827	851	183	0
3	1	1	804	850	184	0
4	1	1	511	850	184	0
5	1	1	547	856	184	0
6	1	1	1058	855	183	0
7	1	1	1533	856	183	0
8	1	1	2093	856	184	0
9	1	1	2669	856	185	0
10	1	1	3027	856	183	0
11	1	1	3219	855	184	0
12	1	1	3286	856	185	0
13	1	1	3244	853	183	0
14	1	1	3322	855	185	0
15	1	1	3166	849	183	0
16	1	1	2722	849	183	0
17	1	1	2322	849	184	0
18	1	1	1942	849	183	0
19	1	1	1594	849	185	0
20	1	1	1261	849	185	0
21	1	1	996	850	184	0
22	1	1	858	850	184	0
23	1	1	837	850	184	0
24	1	1	542	850	183	0
25	1	1	584	856	184	0
26	1	1	1090	856	184	0
27	1	1	1568	856	184	0
28	1	1	2122	856	184	0
29	1	1	2693	856	184	0
30	1	1	3053	856	184	0
31	1	1	3248	855	184	0
32	1	1	3316	855	184	0
33	1	1	3293	855	184	0
34	1	1	3389	853	184	0
35	1	1	3229	849	185	0
36	1	1	2776	849	182	0
37	1	1	2371	849	184	0
38	1	1	2004	849	184	0
39	1	1	1645	848	184	0
40	1	1	1300	849	184	0
41	1	1	1031	849	184	0
42	1	1	889	850	183	0
43	1	1	853	850	184	0
44	1	1	546	849	184	0
45	1	1	594	856	184	0
46	1	1	1095	855	182	0
47	1	1	1561	855	184	0
48	1	1	2119	855	184	0
49	1	1	2693	855	184	0
50	1	1	3049	855	184	0
51	1	1	3235	855	185	0
52	1	1	3292	855	184	0
53	1	1	3241	852	184	0
54	1	1	3318	854	185	0
55	1	1	3146	849	184	0
56	1	1	2688	848	183	0
57	1	1	2280	848	184	0
58	1	1	1909	848	183	0
59	1	1	1561	848	184	0
60	1	1	1224	848	184	0
61	1	1	956	849	184	0
62	1	1	819	850	184	0
63	1	1	781	849	184	0
64	1	1	483	849	183	0
65	1	1	527	855	184	0
66	1	1	1041	855	183	0
67	1	1	1525	855	184	0
68	1	1	2087	855	185	0
69	1	1	2675	854	184	0
70	1	1	3041	855	184	0
71	1	1	3233	855	185	0
72	1	1	3301	855	185	0
73	1	1	3268	856	185	0
74	1	1	3359	853	185	0
75	1	1	3167	848	184	0
76	1	1	2694	848	184	0
77	1	1	2292	848	185	0
78	1	1	1933	848	184	0
79	1	1	1588	848	184	0
80	1	1	1247	848	185	0
81	1	1	978	849	184	0
82	1	1	840	849	185	0
83	1	1	803	849	184	0
84	1	1	492	848	184	0
85	1	1	560	855	184	0
86	1	1	1088	855	183	0
87	1	1	1583	855	184	0
88	1	1	2156	854	184	0
89	1	1	2738	855	184	0
90	1	1	3092	855	183	0
91	1	1	3274	855	184	0
92	1	1	3334	854	184	0
93	1	1	3288	855	183	0
94	1	1	3384	852	185	0
95	1	1	3190	848	185	0
96	1	1	2705	848	185	0
97	1	1	2294	848	185	0
98	1	1	1923	847	185	0
99	1	1	1577	848	184	0
100	1	1	1239	847	184	0
101	1	1	971	849	184	0
102	1	1	839	849	184	0
103	1	1	806	848	183	0
104	1	1	495	848	185	0
105	1	1	556	855	184	0
106	1	1	1082	854	183	0
107	1	1	1570	854	185	0
108	1	1	2158	854	184	0
109	1	1	2732	855	183	0
110	1	1	3090	854	183	0
111	1	1	3283	854	184	0
112	1	1	3344	854	185	0
113	1	1	3305	855	183	0
114	1	1	3406	854	184	0
115	1	1	3203	847	184	0
116	1	1	2728	847	185	0
117	1	1	2314	847	185	0
118	1	1	1922	847	184	0
119	1	1	1564	847	185	0
120	1	1	1222	847	185	0
121	1	1	954	848	183	0
122	1	1	820	849	185	0
123	1	1	788	848	183	0
124	1	1	479	848	184	0
125	1	1	545	854	183	0
126	1	1	1072	854	184	0
127	1	1	1566	855	184	0
0	1	1	2166	854	185	0
1	1	1	2738	854	184	0
2	1	1	3093	854	184	0
3	1	1	3278	854	184	0
4	1	1	3336	853	185	0
5	1	1	3304	853	184	0
6	1	1	3404	853	184	0
7	1	1	3187	847	183	0
8	1	1	2709	847	185	0
9	1	1	2291	847	184	0
10	1	1	1902	847	184	0
11	1	1	1537	847	184	0
12	1	1	1192	847	184	0
13	1	1	914	847	184	0
14	1	1	779	849	184	0
15	1	1	742	848	185	0
16	1	1	445	848	184	0
17	1	1	502	854	185	0
18	1	1	1046	854	183	0
19	1	1	1550	853	184	0
20	1	1	2165	854	185	0
21	1	1	2768	854	184	0
22	1	1	3132	854	183	0
23	1	1	3327	853	184	0
24	1	1	3387	853	185	0
25	1	1	3346	853	184	0
26	1	1	3454	852	183	0
27	1	1	3230	847	184	0
28	1	1	2741	846	184	0
29	1	1	2312	847	184	0
30	1	1	1912	847	183	0
31	1	1	1547	846	184	0
32	1	1	1193	846	184	0
33	1	1	910	847	183	0
34	1	1	770	848	183	0
35	1	1	720	847	184	0
36	1	1	426	847	184	0
37	1	1	483	853	184	0
38	1	1	1057	853	183	0
39	1	1	1572	853	183	0
40	1	1	2193	853	184	0
41	1	1	2808	853	185	0
42	1	1	3179	853	185	0
43	1	1	3371	853	184	0
44	1	1	3431	853	185	0
45	1	1	3393	853	185	0
46	1	1	3502	853	184	0
47	1	1	3271	847	184	0
48	1	1	2760	846	185	0
49	1	1	2335	846	184	0
50	1	1	1935	846	184	0
51	1	1	1566	846	184	0
52	1	1	1198	847	184	0
53	1	1	907	847	184	0
54	1	1	760	848	184	0
55	1	1	700	847	183	0
56	1	1	409	847	184	0
57	1	1	424	853	184	0
58	1	1	1031	853	183	0
59	1	1	1557	853	182	0
60	1	1	2188	853	184	0
61	1	1	2815	853	184	0
62	1	1	3206	852	184	0
63	1	1	3411	852	184	0
64	1	1	3468	852	185	0
65	1	1	3433	852	185	0
66	1	1	3556	852	184	0
67	1	1	3302	846	184	0
68	1	1	2778	846	185	0
69	1	1	2343	846	185	0
70	1	1	1927	846	185	0
71	1	1	1543	846	185	0
72	1	1	1165	845	184	0
73	1	1	869	846	184	0
74	1	1	728	848	184	0
75	1	1	677	847	183	0
76	1	1	394	847	184	0
77	1	1	436	853	184	0
78	1	1	1026	853	185	0
79	1	1	1560	853	184	0
80	1	1	2217	852	185	0
81	1	1	2834	853	184	0
82	1	1	3218	853	185	0
83	1	1	3426	852	183	0
84	1	1	3489	851	183	0
85	1	1	3463	852	185	0
86	1	1	3585	852	184	0
87	1	1	3321	845	185	0
88	1	1	2792	845	184	0
89	1	1	2348	845	184	0
90	1	1	1928	845	184	0
91	1	1	1528	845	184	0
92	1	1	1147	845	183	0
93	1	1	844	846	183	0
94	1	1	696	847	183	0
95	1	1	640	846	183	0
96	1	1	371	847	184	0
97	1	1	383	853	184	0
98	1	1	1001	852	184	0
99	1	1	1549	852	184	0
100	1	1	2210	852	184	0
101	1	1	2851	852	183	0
102	1	1	3245	851	185	0
103	1	1	3466	852	185	0
104	1	1	3537	852	185	0
105	1	1	3514	852	185	0
106	1	1	3641	851	184	0
107	1	1	3366	845	184	0
108	1	1	2823	845	185	0
109	1	1	2370	845	185	0
110	1	1	1930	845	185	0
111	1	1	1515	845	184	0
112	1	1	1125	845	184	0
113	1	1	819	845	185	0
114	1	0	664	847	184	0
115	1	0	604	846	184	0
116	1	0	347	846	183	0
117	1	0	352	852	184	0
118	1	0	994	852	184	0
119	1	0	1553	852	184	0
120	1	0	2251	853	183	0
121	1	0	2903	852	183	0
122	1	0	3296	851	184	0
123	1	0	3512	851	184	0
124	1	0	3577	851	184	0
125	1	0	3543	851	185	0
126	1	0	3659	850	184	0
127	1	0	3386	844	185	0
0	1	0	2846	844	184	0
1	1	0	2382	844	183	0
2	1	0	1918	844	185	0
3	1	0	1509	844	183	0
4	1	0	1113	845	184	0
5	1	0	804	845	184	0
6	1	0	651	847	184	0
7	1	0	584	846	183	0
8	1	0	336	847	184	0
9	1	0	354	851	183	0
10	1	0	996	851	184	0
11	1	0	1553	851	185	0
12	1	0	2252	851	184	0
13	1	0	2931	851	184	0
14	1	0	3343	850	184	0
15	1	0	3562	851	184	0
16	1	0	3621	850	184	0
17	1	0	3585	850	185	0
18	1	0	3713	850	184	0
19	1	0	3408	843	184	0
20	1	0	2851	844	184	0
21	1	0	2379	844	184	0
22	1	0	1926	844	184	0
23	1	0	1506	844	183	0
24	1	0	1092	844	184	0
25	1	0	772	845	184	0
26	1	0	616	846	184	0
27	1	0	528	845	183	0
28	1	0	300	846	183	0
29	1	0	335	851	184	0
30	1	0	979	851	184	0
31	1	0	1556	851	184	0
32	1	0	2279	851	184	0
33	1	0	2959	850	184	0
34	1	0	3364	850	184	0
35	1	0	3572	851	184	0
36	1	0	3631	850	184	0
37	1	0	3585	850	185	0
38	1	0	3706	850	184	0
39	1	0	3396	843	185	0
40	1	0	2816	843	184	0
41	1	0	2338	844	185	0
42	1	0	1874	843	183	0
43	1	0	1448	844	184	0
44	1	0	1038	843	183	0
45	1	0	721	845	183	0
46	1	0	577	846	184	0
47	1	0	510	844	183	0
48	1	0	289	845	184	0
49	1	0	321	851	183	0
50	1	0	973	851	185	0
51	1	0	1545	850	184	0
52	1	0	2281	851	183	0
53	1	0	2964	851	185	0
54	1	0	3385	850	184	0
55	0	0	3603	850	185	0
56	0	0	3656	850	183	0
57	0	0	3615	849	184	0
58	0	0	3750	849	184	0
59	0	0	3410	843	184	0
60	0	0	2806	843	184	0
61	0	0	2327	843	184	0
62	0	0	1864	843	185	0
63	0	0	1431	843	184	0
64	0	0	1008	843	185	0
65	0	0	685	844	183	0
66	0	0	537	846	183	0
67	0	0	462	844	185	0
68	0	0	262	845	183	0
69	0	0	309	851	184	0
70	0	0	965	850	184	0
71	0	0	1554	850	184	0
72	0	0	2315	851	184	0
73	0	0	2990	851	185	0
74	0	0	3403	851	183	0
75	0	0	3623	849	184	0
76	0	0	3677	850	185	0
77	0	0	3640	849	185	0
78	0	0	3771	849	185	0
79	0	0	3424	842	184	0
80	0	0	2844	843	185	0
81	0	0	2347	843	183	0
82	0	0	1856	843	184	0
83	0	0	1411	843	185	0
84	0	0	983	842	184	0
85	0	0	656	843	184	0
86	0	0	503	844	184	0
87	0	0	432	843	183	0
88	0	0	246	845	183	0
89	0	0	287	850	183	0
90	0	0	956	850	184	0
91	0	0	1540	850	183	0
92	0	0	2303	850	184	0
93	0	0	2998	850	184	0
94	0	0	3429	849	184	0
95	0	0	3655	849	184	0
96	0	0	3713	849	184	0
97	0	0	3680	849	186	0
98	0	0	3810	849	185	0
99	0	0	3450	842	184	0
100	0	0	2853	841	185	0
101	0	0	2352	842	185	0
102	0	0	1860	842	183	0
103	0	0	1399	842	183	0
104	0	0	963	842	184	0
105	0	0	633	843	184	0
106	0	0	482	844	184	0
107	0	0	407	843	183	0
108	0	0	231	844	183	0
109	0	0	273	849	183	0
110	0	0	963	850	184	0
111	0	0	1565	850	184	0
112	0	0	2363	849	185	0
113	0	0	3046	849	184	0
114	0	0	3457	849	184	0
115	0	0	3704	849	184	0
116	0	0	3749	849	184	0
117	0	0	3683	848	184	0
118	0	0	3810	848	184	0
119	0	0	3438	841	184	0
120	0	0	2832	842	185	0
121	0	0	2337	841	184	0
122	0	0	1836	841	184	0
123	0	0	1388	842	184	0
124	0	0	955	842	185	0
125	0	0	617	842	184	0
126	0	0	465	844	183	0
127	0	0	378	843	184	0
0	0	0	216	844	183	0
1	0	0	275	849	184	0
2	0	0	963	849	184	0
3	0	0	1556	849	183	0
4	0	0	2357	849	183	0
5	0	0	3044	849	184	0
6	0	0	3461	849	183	0
7	0	0	3705	849	185	0
8	0	0	3775	848	184	0
9	0	0	3716	847	185	0
10	0	0	3850	847	184	0
11	0	0	3443	841	185	0
12	0	0	2804	841	184	0
13	0	0	2310	841	185	0
14	0	0	1812	841	184	0
15	0	0	1357	841	184	0
16	0	0	914	841	185	0
17	0	0	579	842	184	0
18	0	0	430	843	184	0
19	0	0	339	843	183	0
20	0	0	194	844	183	0
21	0	0	268	849	184	0
22	0	0	968	849	184	0
23	0	0	1590	848	184	0
24	0	0	2406	848	184	0
25	0	0	3078	849	184	0
26	0	0	3479	848	184	0
27	0	0	3715	848	184	0
28	0	0	3826	847	184	0
29	0	0	3738	847	185	0
30	0	0	3866	847	183	0
31	0	0	3447	841	185	0
32	0	0	2796	840	185	0
33	0	0	2286	840	185	0
34	0	0	1779	841	184	0
35	0	0	1308	841	183	0
36	0	0	863	841	184	0
37	0	0	530	841	183	0
38	0	0	382	843	183	0
39	0	0	313	842	183	0
40	0	0	179	844	184	0
41	0	0	264	848	184	0
42	0	0	973	848	184	0
43	0	0	1606	848	184	0
44	0	0	2447	848	184	0
45	0	0	3103	849	184	0
46	0	0	3494	848	183	0
47	0	0	3724	847	185	0
48	0	0	3855	847	185	0
49	0	0	3929	844	189	0
50	0	0	3970	840	191	0
51	0	0	3988	839	192	0
52	0	0	2858	830	192	0
53	0	0	1623	831	191	0
54	0	0	931	832	188	0
55	0	0	526	833	188	0
56	0	0	294	835	188	0
57	0	0	165	837	186	0
58	0	0	97	837	187	0
59	0	0	61	839	185	0
60	0	0	45	842	184	0
61	0	0	217	847	184	0
62	0	0	1464	846	184	0
63	0	0	2504	846	185	0
64	0	0	3140	846	184	0
65	0	0	3516	845	185	0
66	0	0	3741	845	188	0
67	0	0	3869	844	187	0
68	0	0	3938	842	188	0
69	0	0	3978	843	189	0
70	0	0	3996	842	188	0
71	0	0	3649	835	188	0
72	0	0	2564	834	188	0
73	0	0	1738	835	187	0
74	0	0	1013	836	185	0
75	0	0	578	837	186	0
76	0	0	324	839	186	0
77	0	0	182	840	184	0
78	0	0	107	842	185	0
79	0	0	67	843	183	0
80	0	0	49	845	183	0
81	0	0	454	849	182	0
82	0	0	1719	850	184	0
83	0	0	2671	849	183	0
84	0	0	3238	848	185	0
85	0	0	3575	847	184	0
86	0	0	3775	847	186	0
87	0	0	3887	846	186	0
88	0	0	3949	845	185	0
89	0	0	3981	844	188	0
90	0	0	3998	844	187	0
91	0	0	3538	836	187	0
92	0	0	2444	836	187	0
93	0	0	1586	836	187	0
94	0	0	908	837	186	0
95	0	0	516	839	185	0
96	0	0	289	840	185	0
97	0	0	162	841	185	0
98	0	0	95	843	183	0
99	0	0	61	844	183	0
100	0	0	46	847	183	0
101	0	0	361	850	182	0
102	0	0	1569	850	182	0
103	0	0	2557	850	183	0
104	0	0	3170	848	183	0
105	0	0	3538	848	184	0
106	0	0	3751	847	185	0
107	0	0	3873	846	185	0
108	0	0	3943	845	186	0
109	0	0	3979	845	186	0
110	0	0	3997	844	187	0
111	0	0	3371	836	187	0
112	0	0	2245	836	187	0
113	0	0	1381	836	186	0
114	0	0	786	838	187	0
115	0	0	447	838	185	0
116	0	0	251	840	184	0
117	0	0	143	842	184	0
118	0	0	86	842	183	0
119	0	0	58	844	182	0
120	0	0	47	847	182	0
121	0	0	357	850	181	0
122	0	0	1538	851	182	0
123	0	0	2531	850	183	0
124	0	0	3156	849	183	0
125	0	0	3532	848	184	0
126	0	0	3749	847	186	0
127	0	0	3875	847	185	0
0	0	0	3945	846	185	0
1	0	0	3983	845	186	0
2	0	0	4001	845	187	0
3	0	0	3311	836	187	0
4	0	0	2138	836	186	0
5	0	0	1267	837	185	0
6	0	0	723	838	186	0
7	0	0	410	839	185	0
8	0	0	234	841	184	0
9	0	0	137	841	183	0
10	0	0	86	842	183	0
11	0	0	60	844	182	0
12	0	0	50	847	181	0
13	0	0	288	850	181	0
14	0	0	1442	850	181	0
15	0	0	2419	850	183	0
16	0	0	3092	849	184	0
17	0	0	3496	848	185	0
18	0	0	3731	848	184	0
19	0	0	3868	846	186	0
20	0	0	3944	846	186	0
21	0	0	3985	844	186	0
22	0	0	4005	845	187	0
23	0	0	3288	837	187	0
24	0	0	2097	836	186	0
25	0	0	1261	837	187	0
26	0	0	722	839	185	0
27	0	0	413	839	186	0
28	0	0	239	841	184	0
29	0	0	143	841	184	0
30	0	0	93	843	183	0
31	0	0	67	844	182	0
32	0	0	57	847	180	0
33	0	0	362	851	181	0
34	0	0	1551	850	182	0
35	0	0	2526	850	182	0
36	0	0	3160	849	184	0
37	0	0	3539	848	184	0
38	0	0	3760	847	184	0
39	0	0	3886	846	185	0
40	0	0	3957	846	186	0
41	0	0	3995	845	187	0
42	0	0	4014	844	187	0
43	0	0	3351	837	187	0
44	0	0	2216	836	186	0
45	0	0	1367	836	186	0
46	0	0	786	837	186	0
47	0	0	450	840	185	0
48	0	0	260	840	184	0
49	0	0	157	841	184	0
50	0	0	102	842	182	0
51	0	0	74	843	183	0
52	0	0	63	847	179	0
53	0	0	366	850	181	0
54	0	0	1555	850	182	0
55	0	0	2534	850	182	0
56	0	0	3159	850	184	0
57	0	0	3540	848	183	0
58	0	0	3764	847	184	0
59	0	0	3889	846	185	0
60	0	0	3960	846	185	0
61	0	0	3998	844	187	0
62	0	0	4018	844	187	0
63	0	0	3298	836	188	0
64	0	0	2153	836	187	0
65	0	0	1313	837	186	0
66	0	0	761	837	185	0
67	0	0	439	839	183	0
68	0	0	257	840	185	0
69	0	0	157	841	184	0
70	0	0	104	842	183	0
71	0	0	76	844	181	0
72	0	0	67	847	181	0
73	0	0	375	849	182	0
74	0	0	1565	849	181	0
75	0	0	2541	848	183	0
76	0	0	3167	849	184	0
77	0	0	3545	848	183	0
78	0	0	3769	847	184	0
79	0	0	3893	846	185	0
80	0	0	3964	845	185	0
81	0	0	4003	844	186	0
82	0	0	4021	843	187	0
83	0	0	3281	835	186	0
84	0	0	2133	835	185	0
85	0	0	1290	836	186	0
86	0	0	750	837	186	0
