# bioPlux Text File Format
# Version: 1
# StartDateTime: 2011-07-19 12:22:59
# SamplingFrequency: 1000
# SampledChannels: 1 2 3 4 5
# SamplingResolution: 12
# AcquiringDevice: 00:07:80:42:0F:95
# EndOfHeader
0	0	0	1353	4	4044	0	3928
1	0	0	779	4	4044	0	3928
2	0	0	443	3	4044	0	3928
3	0	0	255	4	4043	0	3928
4	0	0	152	4	4043	0	3927
5	0	0	98	4	4044	0	3927
6	0	0	70	4	4044	0	3927
7	0	0	92	4	4044	0	3928
8	0	0	1098	5	4044	0	3928
9	0	0	1974	5	4043	0	3927
10	0	0	2694	5	4043	0	3928
11	0	0	3257	5	4043	0	3928
12	0	0	3591	4	4044	0	3928
13	0	0	3791	5	4044	0	3928
14	0	0	3904	5	4044	0	3928
15	0	0	3965	5	4043	0	3928
16	0	0	3998	5	4043	0	3928
17	0	0	4013	5	4044	0	3928
18	0	0	3237	4	4045	0	3928
19	0	0	2221	4	4043	0	3928
20	0	0	1354	4	4044	0	3927
21	0	0	779	4	4044	0	3927
22	0	0	445	3	4044	0	3928
23	0	0	256	4	4044	0	3928
24	0	0	152	4	4045	0	3928
25	0	0	98	4	4044	0	3927
26	0	0	70	4	4044	0	3927
27	0	0	82	4	4044	0	3928
28	0	0	1100	5	4044	0	3928
29	0	0	1977	5	4043	0	3928
30	0	0	2674	4	4043	0	3928
31	0	0	3250	5	4044	0	3928
32	0	0	3589	4	4044	0	3928
33	0	0	3787	5	4044	0	3928
34	0	0	3900	5	4044	0	3928
35	0	0	3964	5	4043	0	3928
36	0	0	3998	5	4043	0	3928
37	0	0	4013	5	4044	0	3928
38	0	0	3260	4	4045	0	3929
39	0	0	2236	4	4045	0	3928
40	0	0	1384	4	4044	0	3927
41	0	0	797	4	4044	0	3928
42	0	0	454	4	4045	0	3929
43	0	0	261	4	4044	0	3928
44	0	0	155	4	4045	0	3928
45	0	0	99	4	4043	0	3927
46	0	0	70	4	4044	0	3928
47	0	0	89	5	4045	0	3929
48	0	0	1103	5	4043	0	3928
49	0	0	1999	4	4045	1	3928
50	0	0	2688	5	4044	0	3929
51	0	0	3253	4	4045	0	3929
52	0	0	3589	5	4044	0	3928
53	0	0	3790	5	4044	0	3928
54	0	0	3902	5	4043	0	3927
55	0	0	3963	5	4043	0	3927
56	0	0	3997	5	4044	0	3927
57	0	0	4012	5	4044	0	3927
58	0	0	3251	4	4043	0	3927
59	0	0	2227	4	4044	0	3927
60	0	0	1351	4	4043	0	3927
61	0	0	777	4	4043	0	3928
62	0	0	445	4	4044	0	3928
63	0	0	256	4	4043	0	3928
64	0	0	152	4	4045	0	3929
65	0	0	97	4	4044	0	3928
66	0	0	70	4	4044	0	3928
67	0	0	84	4	4045	0	3928
68	0	0	1080	5	4043	0	3928
69	0	0	1957	5	4045	0	3929
70	0	0	2654	5	4043	0	3927
71	0	0	3237	5	4043	0	3927
72	0	0	3579	4	4044	0	3928
73	0	0	3783	5	4043	0	3928
74	0	0	3898	5	4043	0	3927
75	0	0	3963	5	4043	0	3927
76	0	0	3998	5	4044	0	3927
77	0	0	4013	6	4044	0	3928
78	0	0	3219	4	4043	0	3928
79	0	0	2197	4	4043	0	3928
80	0	0	1345	4	4043	0	3928
81	0	0	775	4	4043	0	3927
82	0	0	440	4	4044	0	3929
83	0	0	254	4	4045	0	3929
84	0	0	150	4	4043	0	3928
85	0	0	97	4	4044	0	3928
86	0	0	70	4	4045	0	3928
87	0	0	85	4	4044	0	3927
88	0	0	1093	4	4043	0	3928
89	0	0	1993	4	4043	0	3927
90	0	0	2678	5	4044	0	3927
91	0	0	3247	5	4043	0	3927
92	0	0	3586	3	4044	0	3928
93	0	0	3788	5	4044	0	3928
94	0	0	3901	5	4043	0	3927
95	0	0	3963	4	4044	0	3927
96	0	0	3997	5	4044	0	3928
97	0	0	4013	4	4044	0	3928
98	0	0	3272	4	4045	0	3929
99	0	0	2251	4	4043	0	3928
100	0	0	1384	4	4044	0	3929
101	0	0	797	4	4045	0	3929
102	0	0	456	3	4044	0	3928
103	0	0	262	4	4045	0	3928
104	0	0	156	4	4043	0	3927
105	0	0	99	4	4044	0	3928
106	0	0	70	4	4045	0	3928
107	0	0	90	4	4044	0	3928
108	0	0	1097	4	4044	0	3928
109	0	0	1985	5	4043	0	3927
110	0	0	2693	5	4044	0	3928
111	0	0	3261	5	4044	0	3928
112	0	0	3596	4	4044	0	3928
113	0	0	3792	5	4045	0	3928
114	0	0	3904	5	4045	0	3929
115	0	0	3964	5	4044	0	3928
116	0	0	3998	5	4044	0	3928
117	0	0	4014	6	4045	0	3928
118	0	0	3257	4	4043	0	3928
119	0	0	2243	4	4044	0	3928
120	0	0	1375	4	4044	0	3927
121	0	0	792	4	4044	0	3928
122	0	0	450	4	4045	0	3928
123	0	0	258	4	4043	0	3927
124	0	0	152	3	4044	0	3928
125	0	0	97	4	4044	0	3927
126	0	0	70	4	4044	0	3928
127	0	0	81	4	4045	0	3928
0	0	0	1084	5	4043	0	3927
1	0	0	1959	5	4045	0	3929
2	0	0	2654	5	4044	0	3928
3	0	0	3232	5	4044	0	3928
4	0	0	3582	5	4045	0	3927
5	0	0	3782	5	4044	0	3928
6	0	0	3899	5	4045	0	3929
7	0	0	3963	5	4044	0	3927
8	0	0	3996	5	4044	0	3927
9	0	0	4011	5	4044	0	3928
10	0	0	3257	4	4043	0	3927
11	0	0	2229	4	4045	0	3928
12	0	0	1364	4	4043	0	3928
13	0	0	785	4	4043	0	3927
14	0	0	449	2	4044	0	3928
15	0	0	257	4	4043	0	3928
16	0	0	152	4	4043	0	3928
17	0	0	97	4	4044	0	3928
18	0	0	69	4	4045	0	3929
19	0	0	77	3	4044	0	3928
20	0	0	1083	5	4045	0	3929
21	0	0	1971	4	4044	0	3928
22	0	0	2667	5	4044	0	3929
23	0	0	3246	5	4045	0	3929
24	0	0	3584	4	4044	0	3928
25	0	0	3786	5	4045	0	3928
26	0	0	3900	5	4044	0	3927
27	0	0	3963	6	4043	0	3928
28	0	0	3996	5	4043	0	3927
29	0	0	4012	4	4044	0	3927
30	0	0	3257	4	4044	0	3927
31	0	0	2237	4	4043	0	3927
32	0	0	1371	4	4044	0	3927
33	0	0	789	4	4043	0	3928
34	0	0	449	4	4045	0	3929
35	0	0	258	4	4044	0	3928
36	0	0	153	4	4044	0	3928
37	0	0	97	4	4044	0	3929
38	0	0	70	4	4044	0	3929
39	0	0	83	4	4044	0	3928
40	0	0	1101	5	4043	0	3928
41	0	0	1988	5	4043	0	3927
42	0	0	2694	5	4044	0	3927
43	0	0	3256	5	4043	0	3928
44	0	0	3591	5	4044	0	3928
45	0	0	3791	5	4044	0	3928
46	0	0	3902	5	4044	0	3927
47	0	0	3963	5	4043	0	3927
48	0	0	3998	5	4043	0	3928
49	0	0	4012	4	4044	0	3928
50	0	0	3283	4	4044	0	3928
51	0	0	2256	4	4045	0	3929
52	0	0	1378	4	4045	0	3928
53	0	0	793	4	4043	0	3928
54	0	0	453	4	4045	0	3929
55	0	0	260	4	4044	0	3928
56	0	0	152	4	4045	0	3929
57	0	0	97	4	4044	0	3928
58	0	0	70	4	4044	0	3927
59	0	0	80	4	4044	0	3928
60	0	0	1084	4	4044	0	3928
61	0	0	1974	4	4045	0	3928
62	0	0	2682	5	4043	0	3927
63	0	0	3255	5	4044	0	3928
64	0	0	3589	5	4044	0	3928
65	0	0	3787	5	4044	0	3928
66	0	0	3901	5	4044	0	3928
67	0	0	3963	5	4044	0	3928
68	0	0	3996	5	4044	0	3928
69	0	0	4011	5	4044	0	3928
70	0	0	3239	4	4043	0	3928
71	0	0	2210	4	4044	0	3928
72	0	0	1354	4	4044	0	3929
73	0	0	779	4	4045	0	3929
74	0	0	443	4	4044	0	3928
75	0	0	254	4	4045	0	3929
76	0	0	151	5	4044	0	3927
77	0	0	95	4	4044	0	3929
78	0	0	68	4	4045	0	3928
79	0	0	78	4	4044	0	3928
80	0	0	1064	4	4045	0	3928
81	0	0	1962	5	4044	0	3927
82	0	0	2675	5	4044	0	3928
83	0	0	3245	5	4045	0	3929
84	0	0	3588	4	4044	0	3928
85	0	0	3788	5	4045	0	3929
86	0	0	3900	5	4044	0	3928
87	0	0	3963	5	4044	0	3928
88	0	0	3997	5	4045	0	3929
89	0	0	4012	5	4044	0	3928
90	0	0	3264	4	4045	0	3929
91	0	0	2227	4	4043	0	3928
92	0	0	1350	4	4044	0	3928
93	0	0	777	4	4044	0	3927
94	0	0	444	4	4044	0	3928
95	0	0	253	4	4044	0	3928
96	0	0	150	4	4044	0	3928
97	0	0	96	4	4044	0	3927
98	0	0	68	4	4044	0	3928
99	0	0	88	4	4045	0	3928
100	0	0	1100	5	4044	0	3928
101	0	0	1991	4	4045	0	3929
102	0	0	2701	5	4045	0	3928
103	0	0	3265	5	4044	0	3928
104	0	0	3598	5	4045	0	3929
105	0	0	3791	5	4044	0	3928
106	0	0	3904	5	4045	0	3929
107	0	0	3966	5	4045	0	3928
108	0	0	3997	5	4044	0	3928
109	0	0	4013	5	4045	0	3928
110	0	0	3254	4	4044	0	3928
111	0	0	2228	3	4044	0	3927
112	0	0	1367	4	4043	0	3928
113	0	0	781	4	4044	0	3928
114	0	0	446	4	4044	0	3928
115	0	0	256	5	4044	0	3928
116	0	0	152	4	4044	0	3928
117	0	0	96	4	4044	0	3927
118	0	0	68	4	4045	0	3928
119	0	0	80	5	4044	0	3928
120	0	0	1074	4	4043	0	3928
121	0	0	1980	5	4045	0	3929
122	0	0	2694	5	4045	0	3928
123	0	0	3255	5	4044	0	3927
124	0	0	3593	5	4044	0	3928
125	0	0	3791	5	4045	0	3929
126	0	0	3903	7	4044	0	3927
127	0	0	3963	5	4044	0	3928
0	0	0	3998	5	4045	0	3928
1	0	0	4010	5	4044	0	3928
2	0	0	3278	4	4045	0	3928
3	0	0	2248	6	4044	0	3927
4	0	0	1376	4	4044	0	3928
5	0	0	791	4	4045	0	3929
6	0	0	452	4	4044	0	3928
7	0	0	257	4	4045	0	3929
8	0	0	152	4	4044	0	3928
9	0	0	96	5	4044	0	3928
10	0	0	69	4	4044	0	3928
11	0	0	80	4	4044	0	3928
12	0	0	1095	5	4043	0	3928
13	0	0	1985	4	4044	0	3928
14	0	0	2694	5	4044	0	3928
15	0	0	3255	5	4045	0	3929
16	0	0	3590	5	4044	0	3928
17	0	0	3787	5	4043	0	3928
18	0	0	3901	5	4043	0	3927
19	0	0	3963	5	4044	1	3927
20	0	0	3995	5	4044	0	3928
21	0	0	4010	5	4044	0	3928
22	0	0	3260	4	4043	0	3927
23	0	0	2233	3	4045	0	3928
24	0	0	1371	4	4045	0	3928
25	0	0	788	4	4044	0	3928
26	0	0	447	4	4045	0	3929
27	0	0	256	4	4043	0	3928
28	0	0	151	4	4044	0	3929
29	0	0	95	4	4043	0	3927
30	0	0	68	4	4043	0	3928
31	0	0	62	5	4044	0	3928
32	0	0	1053	5	4043	0	3928
33	0	0	1962	5	4044	0	3927
34	0	0	2677	4	4044	0	3927
35	0	0	3245	5	4044	0	3928
36	0	0	3587	5	4044	0	3928
37	0	0	3786	5	4043	0	3927
38	0	0	3900	5	4044	0	3927
39	0	0	3962	5	4044	0	3928
40	0	0	3996	5	4044	0	3928
41	0	0	4009	5	4044	0	3928
42	0	0	3259	4	4044	0	3929
43	0	0	2232	4	4043	0	3928
44	0	0	1360	4	4044	0	3928
45	0	0	782	4	4045	0	3929
46	0	0	446	3	4044	0	3928
47	0	0	254	4	4045	0	3928
48	0	0	150	5	4044	0	3927
49	0	0	95	4	4044	0	3928
50	0	0	68	4	4045	0	3928
51	0	0	81	5	4044	0	3928
52	0	0	1075	4	4045	0	3928
53	0	0	1964	5	4043	0	3927
54	0	0	2665	5	4043	0	3928
55	0	0	3244	5	4044	0	3928
56	0	0	3584	5	4044	0	3928
57	0	0	3783	4	4043	0	3928
58	0	0	3899	5	4044	0	3928
59	0	0	3962	5	4044	1	3928
60	0	0	3996	5	4044	0	3928
61	0	0	4012	5	4045	0	3929
62	0	0	3265	4	4043	0	3928
63	0	0	2245	4	4043	0	3927
64	0	0	1379	4	4044	0	3928
65	0	0	788	4	4045	0	3929
66	0	0	450	4	4044	0	3928
67	0	0	258	6	4044	0	3928
68	0	0	152	4	4043	0	3927
69	0	0	96	4	4044	1	3927
70	0	0	68	4	4044	0	3927
71	0	0	79	5	4044	0	3928
72	0	0	1071	5	4043	0	3927
73	0	0	1981	5	4044	0	3929
74	0	0	2696	4	4044	0	3928
75	0	0	3256	5	4044	0	3928
76	0	0	3596	5	4045	0	3929
77	0	0	3790	5	4043	0	3928
78	0	0	3902	5	4045	0	3929
79	0	0	3964	5	4045	0	3927
80	0	0	3995	5	4044	0	3927
81	0	0	4010	5	4044	0	3928
82	0	0	3279	4	4043	0	3927
83	0	0	2242	4	4043	0	3927
84	0	0	1380	4	4044	0	3928
85	0	0	794	4	4045	0	3928
86	0	0	453	4	4044	0	3928
87	0	0	258	4	4043	0	3928
88	0	0	152	5	4044	0	3928
89	0	0	97	4	4044	0	3928
90	0	0	68	4	4044	0	3928
91	0	0	80	4	4044	0	3928
92	0	0	1087	5	4043	0	3928
93	0	0	1977	5	4044	0	3928
94	0	0	2680	5	4044	0	3928
95	0	0	3248	4	4044	0	3928
96	0	0	3586	5	4044	0	3928
97	0	0	3784	5	4043	0	3927
98	0	0	3899	5	4043	0	3927
99	0	0	3961	4	4043	0	3927
100	0	0	3995	5	4044	0	3927
101	0	0	4009	5	4044	0	3928
102	0	0	3255	4	4045	0	3928
103	0	0	2223	4	4043	0	3927
104	0	0	1363	4	4044	0	3928
105	0	0	778	4	4045	0	3929
106	0	0	444	4	4044	0	3928
107	0	0	254	4	4043	0	3928
108	0	0	150	4	4043	0	3928
109	0	0	95	3	4043	0	3928
110	0	0	67	4	4044	0	3928
111	0	0	54	4	4045	0	3929
112	0	0	1071	5	4043	0	3928
113	0	0	1970	5	4043	0	3928
114	0	0	2674	4	4044	0	3928
115	0	0	3244	4	4044	0	3928
116	0	0	3585	5	4044	0	3928
117	0	0	3787	6	4044	0	3927
118	0	0	3897	5	4044	0	3927
119	0	0	3960	4	4044	0	3927
120	0	0	3995	5	4044	0	3927
121	0	0	4009	6	4044	0	3928
122	0	0	3277	4	4043	0	3927
123	0	0	2243	4	4043	0	3928
124	0	0	1377	3	4044	0	3928
125	0	0	792	4	4043	0	3928
126	0	0	452	4	4044	0	3928
127	0	0	257	4	4043	0	3929
0	0	0	152	4	4045	0	3929
1	0	0	95	4	4045	0	3928
2	0	0	68	4	4044	0	3928
3	0	0	80	4	4044	0	3928
4	0	0	1103	5	4043	0	3927
5	0	0	1990	4	4044	0	3928
6	0	0	2700	5	4044	0	3927
7	0	0	3257	4	4044	0	3927
8	0	0	3594	5	4044	0	3928
9	0	0	3790	5	4044	0	3927
10	0	0	3901	4	4044	0	3928
11	0	0	3962	5	4043	0	3928
12	0	0	3996	5	4044	0	3928
13	0	0	4009	5	4044	0	3928
14	0	0	3265	4	4043	0	3928
15	0	0	2223	4	4043	0	3928
16	0	0	1369	4	4044	0	3928
17	0	0	787	4	4045	0	3929
18	0	0	449	4	4044	0	3928
19	0	0	256	4	4043	0	3927
20	0	0	150	4	4044	0	3928
21	0	0	95	4	4045	0	3928
22	0	0	67	4	4044	0	3927
23	0	0	64	5	4043	0	3928
24	0	0	1067	5	4043	0	3927
25	0	0	1970	5	4043	0	3927
26	0	0	2681	5	4044	0	3928
27	0	0	3247	5	4043	0	3928
28	0	0	3585	5	4044	0	3928
29	0	0	3785	5	4045	0	3929
30	0	0	3900	5	4044	0	3928
31	0	0	3962	5	4044	0	3928
32	0	0	3995	5	4045	0	3929
33	0	0	4009	5	4044	0	3928
34	0	0	3273	4	4044	0	3927
35	0	0	2246	4	4043	0	3928
36	0	0	1374	4	4043	0	3928
37	0	0	784	4	4044	0	3928
38	0	0	447	4	4044	0	3928
39	0	0	256	4	4043	0	3928
40	0	0	150	4	4044	0	3927
41	0	0	95	4	4044	0	3927
42	0	0	67	4	4044	0	3928
43	0	0	79	4	4044	0	3928
44	0	0	1077	4	4043	0	3927
45	0	0	1961	4	4045	0	3929
46	0	0	2659	5	4044	0	3928
47	0	0	3233	5	4044	0	3928
48	0	0	3581	4	4045	0	3929
49	0	0	3780	5	4043	0	3928
50	0	0	3896	4	4045	0	3929
51	0	0	3962	5	4044	0	3928
52	0	0	3993	5	4044	0	3928
53	0	0	4010	5	4044	0	3928
54	0	0	3263	4	4043	0	3927
55	0	0	2218	4	4044	0	3927
56	0	0	1363	4	4043	0	3928
57	0	0	783	4	4044	0	3927
58	0	0	447	4	4043	0	3928
59	0	0	254	4	4045	0	3929
60	0	0	150	3	4044	0	3927
61	0	0	95	4	4043	0	3927
62	0	0	67	4	4044	0	3928
63	0	0	69	4	4044	0	3928
64	0	0	1072	4	4043	0	3928
65	0	0	1974	4	4044	0	3929
66	0	0	2683	4	4043	0	3928
67	0	0	3248	4	4044	0	3928
68	0	0	3586	5	4043	0	3928
69	0	0	3787	5	4043	0	3927
70	0	0	3899	5	4044	0	3927
71	0	0	3961	5	4043	0	3928
72	0	0	3994	5	4044	0	3928
73	0	0	4009	5	4044	0	3928
74	0	0	3277	4	4043	0	3927
75	0	0	2253	4	4043	0	3927
76	0	0	1392	4	4044	0	3928
77	0	0	794	4	4045	0	3929
78	0	0	453	4	4043	0	3928
79	0	0	258	4	4043	0	3928
80	0	0	151	3	4045	0	3929
81	0	0	95	4	4045	0	3929
82	0	0	68	4	4044	0	3928
83	0	0	78	4	4043	0	3928
84	0	0	1088	4	4044	0	3929
85	0	0	1972	4	4043	0	3927
86	0	0	2670	5	4043	0	3927
87	0	0	3241	5	4044	0	3927
88	0	0	3585	5	4044	0	3928
89	0	0	3783	5	4043	0	3927
90	0	0	3896	5	4044	0	3927
91	0	0	3960	5	4043	0	3927
92	0	0	3994	5	4044	0	3927
93	0	0	4011	5	4045	0	3928
94	0	0	3273	4	4043	0	3927
95	0	0	2238	4	4044	0	3928
96	0	0	1375	4	4044	0	3928
97	0	0	790	4	4044	0	3928
98	0	0	448	4	4045	0	3929
99	0	0	256	4	4044	0	3928
100	0	0	150	4	4044	0	3928
101	0	0	95	4	4044	0	3928
102	0	0	66	4	4045	0	3928
103	0	0	78	5	4043	0	3928
104	0	0	1095	5	4043	0	3927
105	0	0	1994	5	4043	0	3927
106	0	0	2701	4	4044	0	3927
107	0	0	3258	5	4044	0	3928
108	0	0	3592	5	4044	0	3928
109	0	0	3790	5	4043	0	3927
110	0	0	3902	5	4044	0	3927
111	0	0	3961	5	4044	0	3927
112	0	0	3994	5	4044	0	3928
113	0	0	4009	5	4044	0	3928
114	0	0	3275	4	4045	0	3929
115	0	0	2255	4	4043	0	3928
116	0	0	1393	4	4044	0	3928
117	0	0	800	4	4045	0	3929
118	0	0	456	4	4044	0	3928
119	0	0	258	4	4044	0	3928
120	0	0	152	4	4043	0	3927
121	0	0	96	4	4043	0	3927
122	0	0	66	4	4044	0	3928
123	0	0	78	5	4045	0	3928
124	0	0	1067	4	4043	0	3927
125	0	0	1952	4	4045	0	3928
126	0	0	2654	5	4043	0	3928
127	0	0	3230	4	4044	0	3928
0	0	0	3573	5	4044	0	3928
1	0	0	3779	5	4043	0	3928
2	0	0	3895	5	4044	0	3928
3	0	0	3959	5	4044	0	3928
4	0	0	3993	5	4045	0	3929
5	0	0	4008	5	4044	0	3928
6	0	0	3246	4	4043	0	3927
7	0	0	2217	3	4044	0	3927
8	0	0	1350	4	4044	0	3927
9	0	0	771	4	4044	0	3928
10	0	0	439	4	4045	0	3928
11	0	0	251	4	4043	0	3927
12	0	0	147	4	4044	0	3927
13	0	0	93	4	4043	0	3928
14	0	0	66	4	4044	0	3928
15	0	0	98	5	4044	0	3928
16	0	0	1081	4	4045	0	3928
17	0	0	1962	5	4043	0	3927
18	0	0	2683	5	4044	0	3928
19	0	0	3254	4	4045	0	3929
20	0	0	3588	5	4043	0	3928
21	0	0	3788	5	4045	0	3929
22	0	0	3899	5	4043	0	3928
23	0	0	3961	5	4044	0	3928
24	0	0	3994	5	4044	0	3928
25	0	0	4011	5	4045	0	3928
26	0	0	3279	4	4043	0	3927
27	0	0	2213	4	4044	0	3927
28	0	0	1338	4	4043	0	3928
29	0	0	768	4	4044	0	3928
30	0	0	434	4	4044	0	3928
31	0	0	249	4	4043	0	3927
32	0	0	147	4	4043	0	3927
33	0	0	93	3	4043	0	3928
34	0	0	66	4	4043	0	3928
35	0	0	88	5	4044	0	3928
36	0	0	1089	3	4043	0	3928
37	0	0	2005	5	4043	0	3928
38	0	0	2730	5	4044	0	3928
39	0	0	3277	5	4045	0	3929
40	0	0	3601	5	4044	0	3928
41	0	0	3795	5	4043	0	3927
42	0	0	3904	4	4045	0	3928
43	0	0	3965	5	4045	0	3927
44	0	0	3995	5	4044	0	3927
45	0	0	4009	5	4044	0	3928
46	0	0	3299	4	4043	0	3927
47	0	0	2251	4	4044	0	3928
48	0	0	1349	4	4044	0	3928
49	0	0	774	4	4044	0	3929
50	0	0	441	4	4044	0	3928
51	0	0	252	4	4043	0	3928
52	0	0	147	4	4044	0	3928
53	0	0	91	4	4044	0	3928
54	0	0	66	4	4044	0	3928
55	0	0	123	4	4044	0	3928
56	0	0	1132	4	4043	0	3927
57	0	0	2012	4	4044	0	3928
58	0	0	2705	4	4045	0	3927
59	0	0	3265	4	4044	0	3928
60	0	0	3595	5	4044	0	3928
61	0	0	3789	5	4043	0	3927
62	0	0	3901	6	4043	0	3927
63	0	0	3961	5	4044	0	3928
64	0	0	3995	5	4045	0	3928
65	0	0	4008	5	4044	0	3928
66	0	0	3204	4	4043	0	3928
67	0	0	2134	3	4044	0	3928
68	0	0	1269	4	4044	0	3927
69	0	0	729	4	4044	0	3928
70	0	0	412	4	4045	0	3929
71	0	0	236	4	4043	0	3928
72	0	0	139	4	4044	0	3929
73	0	0	88	4	4045	0	3928
74	0	0	63	4	4044	0	3928
75	0	0	75	5	4045	0	3928
76	0	0	1072	5	4043	0	3927
77	0	0	1973	4	4044	0	3928
78	0	0	2695	5	4045	0	3928
79	0	0	3254	4	4044	0	3928
80	0	0	3590	5	4045	0	3928
81	0	0	3786	5	4043	0	3927
82	0	0	3899	5	4044	0	3928
83	0	0	3963	5	4045	0	3928
84	0	0	3995	5	4044	0	3928
85	0	0	4011	5	4045	0	3929
86	0	0	3304	4	4043	0	3928
87	0	0	2262	4	4044	0	3929
88	0	0	1360	4	4045	0	3928
89	0	0	780	4	4044	0	3928
90	0	0	445	4	4045	0	3929
91	0	0	255	4	4043	0	3927
92	0	0	148	4	4044	0	3928
93	0	0	94	4	4045	1	3928
94	0	0	74	4	4044	0	3927
95	0	0	156	4	4045	0	3928
96	0	0	1163	4	4043	0	3927
97	0	0	2036	5	4044	0	3928
98	0	0	2735	5	4045	0	3928
99	0	0	3283	5	4044	0	3928
100	0	0	3605	5	4043	0	3928
101	0	0	3798	5	4044	0	3928
102	0	0	3903	5	4044	0	3928
103	0	0	3963	5	4044	0	3928
104	0	0	3995	5	4044	0	3928
105	0	0	4011	5	4045	0	3929
106	0	0	3206	4	4043	0	3927
107	0	0	2130	4	4044	0	3929
108	0	0	1265	4	4045	0	3927
109	0	0	726	4	4044	0	3928
110	0	0	410	4	4045	0	3928
111	0	0	235	4	4043	0	3927
112	0	0	139	4	4044	0	3927
113	0	0	88	3	4044	0	3927
114	0	0	64	4	4044	0	3928
115	0	0	140	4	4043	0	3928
116	0	0	1160	5	4043	0	3927
117	0	0	2072	6	4043	0	3928
118	0	0	2786	4	4044	0	3928
119	0	0	3310	5	4045	0	3929
120	0	0	3621	5	4044	0	3928
121	0	0	3807	5	4043	0	3928
122	0	0	3910	5	4044	0	3929
123	0	0	3968	5	4045	0	3928
124	0	0	3996	5	4044	0	3928
125	0	0	4009	5	4043	0	3928
126	0	0	3299	4	4043	0	3927
127	0	0	2253	4	4044	0	3927
0	0	0	1354	4	4044	0	3928
1	0	0	776	4	4045	0	3928
2	0	0	442	4	4043	0	3928
3	0	0	253	4	4043	0	3927
4	0	0	146	4	4044	0	3927
5	0	0	92	4	4044	0	3928
6	0	0	65	4	4044	0	3928
7	0	0	104	5	4044	0	3927
8	0	0	1120	5	4043	0	3928
9	0	0	2004	4	4044	0	3929
10	0	0	2716	5	4045	0	3928
11	0	0	3271	5	4044	0	3928
12	0	0	3599	4	4045	0	3929
13	0	0	3790	5	4043	0	3927
14	0	0	3900	5	4044	0	3929
15	0	0	3963	5	4045	0	3928
16	0	0	3992	5	4044	0	3928
17	0	0	4007	5	4044	0	3928
18	0	0	3178	3	4043	0	3927
19	0	0	2114	4	4044	0	3928
20	0	0	1257	3	4044	0	3928
21	0	0	720	4	4045	0	3929
22	0	0	407	4	4043	0	3928
23	0	0	232	4	4043	0	3927
24	0	0	137	4	4043	0	3928
25	0	0	87	4	4044	0	3928
26	0	0	67	4	4044	0	3928
27	0	0	134	5	4044	0	3928
28	0	0	1152	5	4043	0	3927
29	0	0	2064	4	4043	0	3927
30	0	0	2769	5	4044	0	3927
31	0	0	3299	5	4044	0	3927
32	0	0	3615	5	4044	0	3928
33	0	0	3802	5	4043	0	3927
34	0	0	3907	5	4044	0	3928
35	0	0	3966	5	4045	0	3928
36	0	0	3995	5	4044	0	3928
37	0	0	4010	5	4045	0	3928
38	0	0	3249	4	4043	0	3927
39	0	0	2213	4	4044	0	3928
40	0	0	1324	4	4044	0	3928
41	0	0	759	4	4044	0	3928
42	0	0	432	4	4045	0	3929
43	0	0	246	4	4043	0	3928
44	0	0	143	4	4044	0	3929
45	0	0	91	4	4044	0	3928
46	0	0	78	4	4044	0	3927
47	0	0	128	4	4044	0	3928
48	0	0	1159	4	4043	0	3927
49	0	0	2048	5	4043	0	3927
50	0	0	2741	5	4043	0	3927
51	0	0	3287	5	4044	0	3928
52	0	0	3608	5	4044	0	3928
53	0	0	3796	5	4043	0	3927
54	0	0	3903	5	4043	0	3927
55	0	0	3962	5	4044	0	3927
56	0	0	3993	5	4044	0	3927
57	0	0	4006	5	4044	0	3928
58	0	0	3196	4	4045	0	3929
59	0	0	2131	4	4044	0	3928
60	0	0	1263	3	4044	0	3928
61	0	0	724	4	4045	0	3929
62	0	0	408	4	4044	0	3928
63	0	0	232	3	4044	0	3928
64	0	0	138	3	4044	0	3927
65	0	0	87	4	4044	0	3927
66	0	0	61	4	4045	0	3928
67	0	0	107	5	4044	0	3928
68	0	0	1143	5	4045	0	3928
69	0	0	2068	5	4044	0	3927
70	0	0	2767	4	4044	0	3928
71	0	0	3299	5	4045	0	3928
72	0	0	3614	5	4044	0	3928
73	0	0	3803	5	4044	0	3928
74	0	0	3905	5	4044	0	3928
75	0	0	3964	5	4044	0	3928
76	0	0	3995	5	4044	0	3928
77	0	0	4008	5	4044	0	3928
78	0	0	3265	4	4043	0	3927
79	0	0	2208	4	4044	0	3929
80	0	0	1314	4	4045	0	3928
81	0	0	754	4	4044	0	3928
82	0	0	428	4	4043	0	3928
83	0	0	242	4	4045	0	3928
84	0	0	142	5	4044	0	3927
85	0	0	89	3	4044	0	3928
86	0	0	73	4	4044	0	3928
87	0	0	108	4	4043	0	3928
88	0	0	1139	5	4045	0	3928
89	0	0	2041	6	4044	0	3927
90	0	0	2735	3	4044	0	3928
91	0	0	3283	5	4044	0	3928
92	0	0	3604	5	4043	0	3928
93	0	0	3794	5	4043	0	3928
94	0	0	3902	5	4044	0	3929
95	0	0	3962	5	4044	0	3928
96	0	0	3992	5	4044	0	3927
97	0	0	4006	5	4043	0	3928
98	0	0	3210	4	4043	0	3927
99	0	0	2151	4	4043	0	3927
100	0	0	1281	3	4044	0	3928
101	0	0	734	4	4045	0	3929
102	0	0	413	4	4043	0	3928
103	0	0	235	4	4045	0	3928
104	0	0	139	4	4044	0	3928
105	0	0	86	3	4043	0	3927
106	0	0	61	4	4044	0	3928
107	0	0	69	4	4043	0	3928
108	0	0	1081	5	4043	0	3928
109	0	0	2005	5	4044	0	3929
110	0	0	2713	4	4045	0	3928
111	0	0	3264	4	4044	0	3927
112	0	0	3594	5	4043	0	3928
113	0	0	3790	5	4043	0	3927
114	0	0	3900	5	4043	0	3927
115	0	0	3960	4	4044	0	3927
116	0	0	3994	5	4044	0	3928
117	0	0	4007	5	4043	0	3928
118	0	0	3224	4	4043	0	3927
119	0	0	2164	4	4044	0	3927
120	0	0	1286	4	4044	0	3928
121	0	0	738	4	4044	0	3927
122	0	0	419	4	4045	0	3929
123	0	0	239	3	4043	0	3928
124	0	0	140	4	4043	0	3927
125	0	0	88	4	4044	0	3928
126	0	0	74	4	4044	0	3928
127	0	0	127	5	4044	0	3928
0	0	0	1183	5	4043	0	3927
1	0	0	2095	5	4043	0	3927
2	0	0	2773	5	4044	0	3928
3	0	0	3307	5	4045	0	3928
4	0	0	3619	5	4043	0	3928
5	0	0	3803	5	4043	0	3928
6	0	0	3907	5	4044	0	3929
7	0	0	3966	5	4045	0	3928
8	0	0	3993	5	4044	0	3927
9	0	0	4008	5	4043	0	3928
10	0	0	3203	4	4043	0	3927
11	0	0	2139	4	4043	0	3927
12	0	0	1271	4	4044	0	3928
13	0	0	728	4	4044	0	3928
14	0	0	411	4	4043	0	3928
15	0	0	233	4	4045	0	3929
16	0	0	138	5	4044	0	3928
17	0	0	86	2	4044	0	3927
18	0	0	60	4	4044	0	3927
19	0	0	73	4	4045	0	3928
20	0	0	1124	5	4043	0	3927
21	0	0	2048	5	4044	0	3928
22	0	0	2737	4	4043	0	3928
23	0	0	3279	5	4044	0	3927
24	0	0	3603	5	4043	0	3928
25	0	0	3795	5	4043	0	3927
26	0	0	3903	5	4043	0	3927
27	0	0	3963	5	4044	0	3928
28	0	0	3994	5	4045	0	3928
29	0	0	4007	5	4043	0	3928
30	0	0	3228	4	4043	0	3928
31	0	0	2171	4	4044	0	3928
32	0	0	1302	4	4044	0	3928
33	0	0	745	4	4044	0	3928
34	0	0	424	4	4045	0	3929
35	0	0	240	4	4043	0	3927
36	0	0	141	4	4043	0	3927
37	0	0	88	4	4044	0	3928
38	0	0	78	4	4044	0	3928
39	0	0	117	5	4043	0	3928
40	0	0	1198	5	4043	0	3927
41	0	0	2113	5	4044	0	3927
42	0	0	2796	4	4044	0	3928
43	0	0	3317	5	4044	0	3928
44	0	0	3626	5	4043	0	3928
45	0	0	3806	5	4044	0	3928
46	0	0	3910	5	4043	0	3928
47	0	0	3966	5	4044	0	3928
48	0	0	3995	5	4044	0	3928
49	0	0	4009	5	4045	0	3929
50	0	0	3166	4	4043	0	3928
51	0	0	2091	4	4044	0	3928
52	0	0	1239	4	4044	0	3928
53	0	0	704	4	4044	0	3927
54	0	0	400	4	4045	0	3928
55	0	0	228	4	4043	0	3927
56	0	0	133	4	4044	0	3928
57	0	0	84	4	4044	0	3928
58	0	0	60	4	4044	0	3927
59	0	0	58	5	4043	0	3928
60	0	0	1112	5	4043	0	3927
61	0	0	2035	4	4043	0	3928
62	0	0	2708	5	4043	0	3927
63	0	0	3262	4	4044	0	3928
64	0	0	3595	5	4043	0	3928
65	0	0	3788	5	4043	0	3928
66	0	0	3899	5	4044	0	3928
67	0	0	3961	5	4044	0	3927
68	0	0	3993	5	4044	0	3927
69	0	0	4006	5	4043	0	3928
70	0	0	3228	4	4045	0	3928
71	0	0	2164	4	4044	0	3927
72	0	0	1294	5	4044	0	3928
73	0	0	743	4	4045	0	3928
74	0	0	419	4	4043	0	3928
75	0	0	238	4	4044	0	3927
76	0	0	140	4	4044	0	3928
77	0	0	88	4	4045	0	3929
78	0	0	87	4	4044	0	3928
79	0	0	119	4	4044	0	3928
80	0	0	1183	5	4044	0	3928
81	0	0	2115	5	4044	0	3928
82	0	0	2786	5	4043	0	3928
83	0	0	3308	4	4044	0	3928
84	0	0	3621	5	4044	0	3928
85	0	0	3804	5	4044	0	3928
86	0	0	3908	5	4044	0	3927
87	0	0	3965	5	4044	0	3927
88	0	0	3993	5	4044	0	3927
89	0	0	4007	5	4044	0	3928
90	0	0	3194	4	4045	0	3928
91	0	0	2119	4	4044	0	3927
92	0	0	1262	4	4044	0	3928
93	0	0	723	4	4045	0	3928
94	0	0	410	4	4044	0	3928
95	0	0	233	4	4045	0	3929
96	0	0	136	5	4044	0	3928
97	0	0	86	4	4044	0	3928
98	0	0	61	4	4045	0	3929
99	0	0	74	4	4043	0	3928
100	0	0	1125	5	4045	0	3929
101	0	0	2042	6	4044	0	3927
102	0	0	2724	5	4044	0	3928
103	0	0	3277	5	4045	0	3928
104	0	0	3601	5	4044	0	3928
105	0	0	3792	5	4044	0	3927
106	0	0	3901	5	4044	0	3927
107	0	0	3962	5	4044	0	3927
108	0	0	3993	5	4044	0	3927
109	0	0	4007	5	4044	0	3928
110	0	0	3203	4	4044	0	3927
111	0	0	2144	4	4044	0	3929
112	0	0	1300	4	4045	0	3928
113	0	0	744	3	4044	0	3928
114	0	0	420	4	4043	0	3928
115	0	0	238	3	4045	0	3929
116	0	0	140	5	4044	0	3928
117	0	0	88	4	4044	0	3928
118	0	0	76	4	4044	0	3927
119	0	0	92	4	4043	0	3928
120	0	0	1160	5	4044	0	3927
121	0	0	2094	5	4044	0	3927
122	0	0	2778	5	4044	0	3927
123	0	0	3303	4	4044	0	3927
124	0	0	3617	5	4044	0	3928
125	0	0	3803	5	4044	0	3927
126	0	0	3907	5	4043	0	3928
127	0	0	3964	4	4044	0	3928
0	0	0	3994	5	4045	0	3928
1	0	0	4007	5	4044	0	3928
2	0	0	3216	4	4045	0	3929
3	0	0	2152	4	4044	0	3928
4	0	0	1296	3	4044	0	3928
5	0	0	743	4	4045	0	3929
6	0	0	422	4	4043	0	3928
7	0	0	240	4	4045	0	3929
8	0	0	139	3	4044	0	3927
9	0	0	87	4	4044	0	3928
10	0	0	62	4	4045	0	3928
11	0	0	75	5	4044	0	3928
12	0	0	1138	5	4045	0	3928
13	0	0	2052	5	4044	0	3927
14	0	0	2723	5	4044	0	3928
15	0	0	3277	5	4045	0	3929
16	0	0	3600	5	4044	0	3928
17	0	0	3792	4	4045	0	3929
18	0	0	3902	5	4044	0	3928
19	0	0	3961	5	4044	0	3928
20	0	0	3993	5	4045	0	3929
21	0	0	4006	5	4044	0	3928
22	0	0	3181	4	4045	0	3929
23	0	0	2106	2	4044	0	3927
24	0	0	1262	4	4044	0	3928
25	0	0	723	4	4044	0	3928
26	0	0	407	4	4043	0	3928
27	0	0	232	4	4045	0	3928
28	0	0	136	4	4044	0	3927
29	0	0	86	4	4044	0	3927
30	0	0	69	4	4045	0	3928
31	0	0	94	4	4044	0	3928
32	0	0	1171	5	4045	0	3928
33	0	0	2106	4	4044	0	3927
34	0	0	2788	5	4044	0	3927
35	0	0	3309	4	4044	0	3928
36	0	0	3624	4	4044	0	3928
37	0	0	3805	5	4044	0	3928
38	0	0	3908	5	4044	0	3928
39	0	0	3966	5	4045	0	3928
40	0	0	3994	5	4044	0	3928
41	0	0	4010	5	4045	0	3928
42	0	0	3217	4	4044	0	3927
43	0	0	2151	4	4044	0	3927
44	0	0	1300	4	4044	0	3927
45	0	0	744	4	4044	0	3928
46	0	0	422	4	4044	0	3928
47	0	0	239	4	4045	0	3928
48	0	0	140	4	4045	0	3928
49	0	0	88	4	4044	0	3927
50	0	0	61	4	4044	0	3928
51	0	0	77	5	4043	0	3928
52	0	0	1149	5	4044	0	3928
53	0	0	2065	5	4044	0	3929
54	0	0	2727	5	4045	0	3927
55	0	0	3277	5	4044	0	3928
56	0	0	3601	5	4044	0	3928
57	0	0	3793	5	4044	0	3928
58	0	0	3902	5	4044	0	3927
59	0	0	3961	6	4044	0	3927
60	0	0	3992	5	4044	0	3928
61	0	0	4006	5	4043	0	3928
62	0	0	3195	4	4045	0	3928
63	0	0	2139	4	4044	0	3927
64	0	0	1304	5	4044	0	3927
65	0	0	742	4	4044	0	3928
66	0	0	421	4	4044	0	3928
67	0	0	240	4	4043	0	3927
68	0	0	140	4	4044	0	3927
69	0	0	87	4	4044	0	3928
70	0	0	72	4	4044	0	3928
71	0	0	99	5	4043	0	3928
72	0	0	1176	5	4043	0	3927
73	0	0	2108	5	4044	0	3927
74	0	0	2781	3	4044	0	3928
75	0	0	3305	4	4044	0	3928
76	0	0	3620	5	4044	0	3928
77	0	0	3803	5	4044	0	3927
78	0	0	3907	5	4044	0	3927
79	0	0	3964	3	4044	0	3928
80	0	0	3993	5	4044	0	3928
81	0	0	4009	5	4045	0	3928
82	0	0	3209	4	4044	0	3927
83	0	0	2130	4	4044	0	3928
84	0	0	1295	5	4044	0	3928
85	0	0	742	4	4044	0	3928
86	0	0	421	4	4043	0	3928
87	0	0	238	4	4044	0	3928
88	0	0	138	4	4044	0	3927
89	0	0	87	2	4044	0	3928
90	0	0	61	4	4044	0	3927
91	0	0	72	5	4043	0	3927
92	0	0	1136	4	4043	0	3927
93	0	0	2053	5	4044	0	3928
94	0	0	2713	5	4045	0	3928
95	0	0	3265	6	4044	0	3927
96	0	0	3593	5	4044	0	3928
97	0	0	3788	5	4045	0	3928
98	0	0	3900	5	4045	0	3928
99	0	0	3958	5	4043	0	3927
100	0	0	3990	5	4044	0	3927
101	0	0	4005	5	4044	0	3928
102	0	0	3182	4	4045	0	3929
103	0	0	2110	4	4044	0	3928
104	0	0	1279	5	4044	0	3928
105	0	0	728	4	4045	0	3929
106	0	0	413	4	4043	0	3928
107	0	0	235	4	4043	0	3927
108	0	0	138	4	4044	0	3927
109	0	0	86	4	4044	0	3927
110	0	0	71	4	4044	0	3927
111	0	0	97	4	4045	0	3928
112	0	0	1196	4	4043	0	3927
113	0	0	2116	4	4043	0	3927
114	0	0	2774	5	4044	0	3927
115	0	0	3301	4	4044	0	3927
116	0	0	3618	5	4043	0	3928
117	0	0	3802	5	4044	0	3927
118	0	0	3907	5	4044	0	3928
119	0	0	3963	5	4044	0	3928
120	0	0	3993	5	4044	0	3927
121	0	0	4006	5	4044	0	3928
122	0	0	3211	4	4044	0	3927
123	0	0	2135	4	4044	0	3928
124	0	0	1306	5	4044	0	3928
125	0	0	749	4	4044	0	3928
126	0	0	425	4	4043	0	3928
127	0	0	240	4	4045	0	3928
0	0	0	140	6	4044	0	3927
1	0	0	87	4	4044	0	3927
2	0	0	61	4	4045	0	3928
3	0	0	74	4	4043	0	3927
4	0	0	1143	5	4045	0	3928
5	0	0	2059	4	4044	0	3927
6	0	0	2722	5	4044	0	3927
7	0	0	3269	4	4044	0	3928
8	0	0	3598	5	4045	0	3929
9	0	0	3787	5	4044	0	3928
10	0	0	3899	5	4044	0	3928
11	0	0	3961	5	4044	0	3927
12	0	0	3991	5	4044	0	3927
13	0	0	4005	5	4044	0	3927
14	0	0	3194	4	4045	0	3928
15	0	0	2133	5	4044	0	3927
16	0	0	1303	4	4044	0	3927
17	0	0	741	4	4044	0	3927
18	0	0	421	4	4043	0	3928
19	0	0	240	4	4043	0	3933
20	0	0	139	4	4044	0	3927
21	0	0	86	4	4043	0	3928
22	0	0	64	4	4044	0	3927
23	0	0	81	4	4045	0	3928
24	0	0	1182	5	4043	0	3927
25	0	0	2094	5	4044	0	3929
26	0	0	2764	5	4044	0	3928
27	0	0	3295	5	4044	0	3928
28	0	0	3616	5	4045	0	3928
29	0	0	3800	5	4044	0	3927
30	0	0	3905	5	4044	0	3927
31	0	0	3963	5	4044	0	3928
32	0	0	3994	5	4045	0	3928
33	0	0	4006	5	4043	0	3928
34	0	0	3201	4	4045	0	3928
35	0	0	2135	4	4044	0	3927
36	0	0	1307	4	4044	0	3928
37	0	0	749	4	4045	0	3928
38	0	0	425	3	4043	0	3928
39	0	0	241	5	4045	0	3929
40	0	0	140	4	4044	0	3927
41	0	0	88	4	4043	0	3928
42	0	0	61	4	4044	0	3927
43	0	0	76	5	4043	0	3928
44	0	0	1148	5	4044	0	3927
45	0	0	2062	5	4044	0	3927
46	0	0	2730	5	4044	0	3927
47	0	0	3274	5	4044	0	3927
48	0	0	3600	5	4045	0	3928
49	0	0	3790	5	4044	0	3927
50	0	0	3901	5	4044	0	3928
51	0	0	3962	5	4045	0	3929
52	0	0	3990	5	4044	0	3928
53	0	0	4005	5	4043	0	3928
54	0	0	3185	4	4044	0	3927
55	0	0	2110	3	4044	0	3928
56	0	0	1278	4	4044	0	3928
57	0	0	726	4	4044	0	3928
58	0	0	412	4	4043	0	3928
59	0	0	235	4	4044	0	3928
60	0	0	137	5	4044	0	3928
61	0	0	85	4	4044	0	3927
62	0	0	60	4	4044	0	3927
63	0	0	84	4	4043	0	3928
64	0	0	1174	4	4044	0	3927
65	0	0	2094	5	4044	0	3927
66	0	0	2749	4	4044	0	3927
67	0	0	3285	5	4044	0	3927
68	0	0	3609	5	4044	0	3928
69	0	0	3796	5	4043	0	3927
70	0	0	3902	6	4044	0	3928
71	0	0	3962	5	4044	0	3927
72	0	0	3993	5	4044	0	3928
73	0	0	4008	5	4045	0	3928
74	0	0	3207	4	4044	0	3928
75	0	0	2129	4	4044	0	3929
76	0	0	1293	4	4045	0	3929
77	0	0	740	4	4044	0	3928
78	0	0	420	4	4045	0	3928
79	0	0	238	4	4044	0	3927
80	0	0	139	4	4045	0	3928
81	0	0	87	4	4045	0	3928
82	0	0	68	4	4044	0	3927
83	0	0	89	4	4045	0	3928
84	0	0	1178	5	4044	0	3927
85	0	0	2106	4	4044	0	3928
86	0	0	2795	5	4045	0	3928
87	0	0	3313	4	4044	0	3928
88	0	0	3622	5	4044	0	3928
89	0	0	3805	4	4045	0	3929
90	0	0	3910	6	4044	0	3928
91	0	0	3965	5	4044	0	3928
92	0	0	3992	5	4044	0	3927
93	0	0	4007	5	4044	0	3928
94	0	0	3195	4	4044	0	3927
95	0	0	2114	4	4044	0	3927
96	0	0	1280	4	4043	0	3927
97	0	0	728	4	4044	0	3928
98	0	0	413	4	4043	0	3928
99	0	0	235	3	4044	0	3927
100	0	0	137	4	4044	0	3927
101	0	0	85	4	4044	0	3927
102	0	0	59	4	4044	0	3927
103	0	0	89	4	4045	0	3928
104	0	0	1172	5	4044	0	3927
105	0	0	2085	5	4044	0	3928
106	0	0	2746	4	4045	0	3928
107	0	0	3283	5	4044	0	3927
108	0	0	3609	5	4045	0	3929
109	0	0	3795	5	4044	0	3928
110	0	0	3903	5	4044	0	3929
111	0	0	3963	5	4045	0	3927
112	0	0	3992	5	4044	0	3927
113	0	0	4005	5	4044	0	3928
114	0	0	3208	3	4045	0	3928
115	0	0	2120	4	4044	0	3927
116	0	0	1289	4	4044	0	3927
117	0	0	739	4	4044	0	3927
118	0	0	419	4	4043	0	3928
119	0	0	236	4	4044	0	3927
120	0	0	138	4	4044	0	3927
121	0	0	86	4	4044	0	3928
122	0	0	71	4	4044	0	3927
123	0	0	94	5	4044	0	3928
124	0	0	1171	4	4044	0	3928
125	0	0	2095	5	4044	0	3928
126	0	0	2762	5	4043	0	3928
127	0	0	3294	5	4044	0	3927
0	0	0	3612	5	4045	0	3928
1	0	0	3799	5	4044	0	3927
2	0	0	3904	5	4044	0	3928
3	0	0	3963	5	4045	0	3928
4	0	0	3991	5	4044	0	3927
5	0	0	4005	5	4044	0	3928
6	0	0	3153	3	4045	0	3928
7	0	0	2058	3	4044	0	3927
8	0	0	1238	4	4044	0	3928
9	0	0	703	4	4044	0	3927
10	0	0	398	4	4044	0	3928
11	0	0	227	4	4044	0	3928
12	0	0	132	4	4044	0	3927
13	0	0	84	4	4044	0	3928
14	0	0	69	4	4045	0	3928
15	0	0	93	5	4044	0	3928
16	0	0	1195	5	4044	0	3927
17	0	0	2117	5	4044	0	3927
18	0	0	2766	6	4044	0	3927
19	0	0	3301	5	4044	0	3927
20	0	0	3617	5	4045	0	3928
21	0	0	3800	5	4043	0	3927
22	0	0	3905	5	4044	0	3928
23	0	0	3965	5	4045	0	3928
24	0	0	3993	5	4044	0	3927
25	0	0	4008	5	4045	0	3928
26	0	0	3212	4	4044	0	3927
27	0	0	2123	4	4043	0	3927
28	0	0	1289	4	4044	0	3928
29	0	0	738	3	4044	0	3928
30	0	0	418	4	4043	0	3928
31	0	0	236	3	4045	0	3927
32	0	0	139	4	4043	0	3927
33	0	0	86	4	4043	0	3927
34	0	0	80	4	4044	0	3927
35	0	0	105	5	4043	0	3928
36	0	0	1187	4	4043	0	3927
37	0	0	2111	5	4044	0	3928
38	0	0	2774	5	4045	0	3928
39	0	0	3300	4	4044	0	3927
40	0	0	3616	5	4045	0	3928
41	0	0	3799	4	4044	0	3927
42	0	0	3905	5	4043	0	3927
43	0	0	3962	5	4044	0	3927
44	0	0	3992	5	4044	0	3928
45	0	0	4006	6	4044	0	3928
46	0	0	3174	3	4045	0	3928
47	0	0	2081	4	4044	0	3928
48	0	0	1255	4	4044	0	3927
49	0	0	714	4	4044	0	3927
50	0	0	405	4	4045	0	3928
51	0	0	230	3	4043	0	3927
52	0	0	134	4	4043	0	3927
53	0	0	84	4	4044	0	3927
54	0	0	78	3	4044	0	3927
55	0	0	90	5	4043	0	3927
56	0	0	1183	4	4045	0	3927
57	0	0	2113	5	4043	0	3927
58	0	0	2794	6	4043	0	3927
59	0	0	3312	5	4044	0	3927
60	0	0	3624	5	4044	0	3928
61	0	0	3805	5	4044	0	3927
62	0	0	3908	5	4044	0	3929
63	0	0	3966	5	4045	0	3929
64	0	0	3992	4	4044	0	3928
65	0	0	4008	5	4045	0	3928
66	0	0	3185	3	4043	0	3927
67	0	0	2093	4	4044	0	3927
68	0	0	1277	4	4043	0	3927
69	0	0	731	5	4044	0	3927
70	0	0	415	4	4043	0	3928
71	0	0	234	4	4043	0	3927
72	0	0	136	4	4043	0	3927
73	0	0	85	4	4043	0	3927
74	0	0	60	4	4045	0	3928
75	0	0	87	4	4043	0	3927
76	0	0	1175	3	4045	0	3928
77	0	0	2103	4	4043	0	3928
78	0	0	2765	5	4044	0	3927
79	0	0	3294	5	4044	0	3928
80	0	0	3612	5	4043	0	3928
81	0	0	3799	5	4043	0	3928
82	0	0	3904	4	4044	0	3929
83	0	0	3962	5	4043	0	3927
84	0	0	3991	6	4044	0	3927
85	0	0	4005	5	4043	0	3928
86	0	0	3167	4	4044	0	3927
87	0	0	2086	5	4043	0	3927
88	0	0	1273	4	4043	0	3927
89	0	0	724	4	4045	0	3928
90	0	0	410	4	4043	0	3928
91	0	0	233	3	4045	0	3928
92	0	0	135	4	4044	0	3927
93	0	0	84	4	4043	0	3927
94	0	0	60	5	4044	0	3928
95	0	0	74	4	4043	0	3928
96	0	0	1163	4	4043	0	3928
97	0	0	2101	5	4044	0	3929
98	0	0	2783	5	4045	0	3928
99	0	0	3309	4	4044	0	3928
100	0	0	3620	5	4043	0	3928
101	0	0	3804	3	4045	0	3928
102	0	0	3907	5	4044	0	3927
103	0	0	3964	5	4044	0	3927
104	0	0	3992	6	4044	0	3927
105	0	0	4006	5	4044	0	3927
106	0	0	3184	4	4043	0	3927
107	0	0	2097	3	4044	0	3928
108	0	0	1272	4	4043	0	3927
109	0	0	728	4	4044	0	3928
110	0	0	410	4	4043	0	3928
111	0	0	233	4	4043	0	3927
112	0	0	136	5	4043	0	3927
113	0	0	85	4	4044	0	3928
114	0	0	62	4	4045	0	3929
115	0	0	90	5	4043	0	3928
116	0	0	1174	4	4045	0	3928
117	0	0	2116	4	4045	0	3928
118	0	0	2774	5	4043	0	3927
119	0	0	3300	5	4044	0	3927
120	0	0	3615	5	4043	0	3927
121	0	0	3801	5	4044	0	3927
122	0	0	3905	5	4043	0	3927
123	0	0	3963	5	4044	0	3928
124	0	0	3991	5	4044	0	3928
125	0	0	4005	5	4044	0	3927
126	0	0	3177	4	4044	0	3927
127	0	0	2096	5	4043	0	3927
0	0	0	1269	4	4043	0	3928
1	0	0	726	4	4044	0	3928
2	0	0	412	4	4045	0	3929
3	0	0	235	4	4043	0	3928
4	0	0	136	4	4044	0	3928
5	0	0	85	4	4044	0	3928
6	0	0	60	4	4044	0	3927
7	0	0	78	5	4044	0	3927
8	0	0	1166	5	4044	0	3927
9	0	0	2105	6	4043	0	3927
10	0	0	2784	5	4044	0	3927
11	0	0	3311	5	4044	0	3927
12	0	0	3621	5	4043	0	3927
13	0	0	3803	5	4043	0	3927
14	0	0	3906	5	4044	0	3927
15	0	0	3964	5	4043	0	3928
16	0	0	3992	5	4044	0	3928
17	0	0	4006	5	4044	0	3928
18	0	0	3207	4	4045	0	3928
19	0	0	2118	4	4044	0	3928
20	0	0	1275	4	4044	0	3928
21	0	0	731	4	4045	0	3928
22	0	0	413	4	4043	0	3928
23	0	0	234	3	4045	0	3928
24	0	0	136	4	4044	0	3927
25	0	0	85	4	4044	0	3927
26	0	0	78	4	4045	0	3928
27	0	0	109	4	4043	0	3927
28	0	0	1181	5	4043	0	3927
29	0	0	2118	5	4043	0	3927
30	0	0	2803	5	4044	0	3927
31	0	0	3317	4	4044	0	3928
32	0	0	3624	5	4044	0	3928
33	0	0	3806	5	4044	0	3927
34	0	0	3908	5	4044	0	3928
35	0	0	3964	5	4044	0	3928
36	0	0	3992	5	4044	0	3928
37	0	0	4008	5	4045	0	3928
38	0	0	3151	4	4043	0	3927
39	0	0	2071	4	4044	0	3928
40	0	0	1249	4	4044	0	3928
41	0	0	709	3	4044	0	3927
42	0	0	402	4	4044	0	3927
43	0	0	228	4	4043	0	3927
44	0	0	132	4	4043	0	3927
45	0	0	84	4	4044	0	3927
46	0	0	58	4	4044	0	3928
47	0	0	71	4	4043	0	3927
48	0	0	1147	4	4045	0	3928
49	0	0	2083	5	4045	0	3927
50	0	0	2753	4	4044	0	3928
51	0	0	3294	4	4045	0	3929
52	0	0	3610	5	4044	0	3928
53	0	0	3796	5	4044	0	3928
54	0	0	3903	5	4044	0	3927
55	0	0	3962	5	4044	0	3928
56	0	0	3992	5	4044	0	3928
57	0	0	4006	5	4043	0	3928
58	0	0	3211	4	4044	0	3927
59	0	0	2120	4	4043	0	3927
60	0	0	1279	4	4044	0	3927
61	0	0	732	3	4044	0	3928
62	0	0	413	4	4045	0	3928
63	0	0	234	4	4044	0	3927
64	0	0	136	4	4044	0	3928
65	0	0	85	4	4045	0	3928
66	0	0	73	4	4044	0	3928
67	0	0	114	5	4043	0	3928
68	0	0	1200	5	4043	0	3927
69	0	0	2146	5	4044	0	3927
70	0	0	2807	5	4044	0	3928
71	0	0	3319	4	4044	0	3928
72	0	0	3626	5	4043	0	3927
73	0	0	3807	5	4045	0	3928
74	0	0	3910	5	4045	0	3927
75	0	0	3965	5	4044	0	3927
76	0	0	3994	5	4045	0	3928
77	0	0	4006	5	4043	0	3927
78	0	0	3187	4	4043	0	3927
79	0	0	2120	4	4043	0	3927
80	0	0	1270	4	4044	0	3927
81	0	0	726	3	4044	0	3928
82	0	0	411	4	4044	0	3928
83	0	0	234	4	4043	0	3927
84	0	0	134	4	4044	0	3927
85	0	0	85	5	4044	0	3928
86	0	0	63	3	4044	0	3928
87	0	0	77	4	4045	0	3929
88	0	0	1165	5	4043	0	3927
89	0	0	2104	5	4044	0	3928
90	0	0	2773	5	4045	0	3928
91	0	0	3303	4	4044	0	3928
92	0	0	3616	5	4044	0	3928
93	0	0	3800	5	4043	0	3927
94	0	0	3904	5	4044	0	3927
95	0	0	3962	5	4044	0	3927
96	0	0	3990	5	4044	0	3927
97	0	0	4004	5	4044	0	3927
98	0	0	3190	4	4045	0	3928
99	0	0	2112	4	4044	0	3927
100	0	0	1266	4	4043	0	3928
101	0	0	724	4	4044	0	3928
102	0	0	407	4	4045	0	3929
103	0	0	231	4	4043	0	3928
104	0	0	134	4	4043	0	3928
105	0	0	84	4	4044	0	3927
106	0	0	70	3	4044	0	3927
107	0	0	101	4	4043	0	3927
108	0	0	1166	5	4045	0	3927
109	0	0	2112	4	4043	0	3927
110	0	0	2775	5	4043	0	3927
111	0	0	3301	4	4044	0	3927
112	0	0	3614	5	4044	0	3928
113	0	0	3800	5	4044	0	3927
114	0	0	3904	5	4044	0	3928
115	0	0	3963	5	4045	0	3928
116	0	0	3991	5	4044	0	3928
117	0	0	4007	5	4045	0	3928
118	0	0	3193	4	4043	0	3927
119	0	0	2124	4	4044	0	3928
120	0	0	1265	4	4043	0	3927
121	0	0	723	4	4044	0	3927
122	0	0	409	4	4043	0	3928
123	0	0	233	4	4045	0	3928
124	0	0	134	4	4044	0	3927
125	0	0	84	4	4044	0	3927
126	0	0	75	4	4044	0	3927
127	0	0	138	5	4045	0	3928
0	0	0	1190	5	4043	0	3927
1	0	0	2127	5	4043	0	3928
2	0	0	2814	4	4044	0	3927
3	0	0	3324	4	4044	0	3927
4	0	0	3628	4	4043	0	3928
5	0	0	3809	5	4045	0	3928
6	0	0	3909	4	4044	0	3927
7	0	0	3963	5	4044	0	3928
8	0	0	3990	5	4044	0	3928
9	0	0	4004	5	4044	0	3928
10	0	0	3196	4	4044	0	3927
11	0	0	2114	4	4044	0	3928
12	0	0	1255	4	4045	0	3928
13	0	0	717	3	4044	0	3928
14	0	0	406	4	4045	0	3928
15	0	0	230	4	4043	0	3927
16	0	0	133	3	4043	0	3928
17	0	0	83	4	4044	0	3927
18	0	0	81	3	4044	0	3928
19	0	0	152	5	4043	0	3927
20	0	0	1203	4	4045	0	3928
21	0	0	2136	6	4044	0	3927
22	0	0	2801	5	4044	0	3927
23	0	0	3321	4	4044	0	3928
24	0	0	3626	5	4043	0	3928
25	0	0	3805	5	4043	0	3927
26	0	0	3907	5	4044	0	3928
27	0	0	3964	5	4045	0	3928
28	0	0	3991	5	4044	0	3928
29	0	0	4004	5	4044	0	3927
30	0	0	3185	4	4044	0	3927
31	0	0	2108	5	4044	0	3927
32	0	0	1270	4	4044	0	3927
33	0	0	726	4	4045	0	3928
34	0	0	408	4	4043	0	3928
35	0	0	230	3	4044	0	3927
36	0	0	133	4	4044	0	3927
37	0	0	82	4	4043	0	3927
38	0	0	65	3	4044	0	3928
39	0	0	109	5	4043	0	3928
40	0	0	1172	5	4043	0	3928
41	0	0	2125	5	4044	0	3929
42	0	0	2811	5	4045	0	3929
43	0	0	3321	3	4044	0	3928
44	0	0	3628	5	4045	0	3928
45	0	0	3806	5	4044	0	3927
46	0	0	3907	5	4043	0	3927
47	0	0	3963	5	4044	0	3927
48	0	0	3990	5	4044	0	3926
49	0	0	4004	5	4043	0	3927
50	0	0	3174	4	4043	0	3927
51	0	0	2089	4	4043	0	3927
52	0	0	1240	4	4044	0	3927
53	0	0	708	4	4045	0	3928
54	0	0	400	4	4043	0	3927
55	0	0	226	3	4043	0	3928
56	0	0	130	4	4044	0	3928
57	0	0	81	3	4044	0	3928
58	0	0	95	2	4044	0	3928
59	0	0	166	3	4044	0	3928
60	0	0	1218	6	4043	0	3927
61	0	0	2156	4	4043	0	3927
62	0	0	2835	4	4043	0	3927
63	0	0	3340	3	4044	0	3928
64	0	0	3637	5	4043	0	3927
65	0	0	3811	6	4044	0	3927
66	0	0	3910	5	4044	0	3927
67	0	0	3964	5	4043	0	3927
68	0	0	3991	4	4044	0	3927
69	0	0	4003	6	4044	0	3927
70	0	0	3170	4	4045	0	3928
71	0	0	2092	4	4044	0	3928
72	0	0	1262	4	4043	0	3928
73	0	0	721	4	4045	0	3929
74	0	0	404	4	4043	0	3927
75	0	0	228	3	4044	0	3928
76	0	0	131	4	4043	0	3928
77	0	0	81	4	4043	0	3927
78	0	0	83	3	4044	0	3928
79	0	0	140	4	4044	0	3927
80	0	0	1200	5	4043	0	3927
81	0	0	2143	4	4044	0	3927
82	0	0	2817	4	4043	0	3926
83	0	0	3324	4	4044	0	3927
84	0	0	3630	5	4043	0	3927
85	0	0	3807	5	4044	0	3927
86	0	0	3907	5	4043	0	3927
87	0	0	3962	5	4044	0	3928
88	0	0	3989	4	4044	0	3928
89	0	0	4003	5	4043	0	3927
90	0	0	3182	4	4045	0	3928
91	0	0	2105	4	4045	0	3928
92	0	0	1252	4	4043	0	3928
93	0	0	715	4	4045	0	3928
94	0	0	403	4	4045	0	3928
95	0	0	226	4	4044	0	3927
96	0	0	130	4	4044	0	3928
97	0	0	80	4	4045	0	3928
98	0	0	92	4	4044	0	3927
99	0	0	189	4	4044	0	3927
100	0	0	1228	5	4043	0	3927
101	0	0	2175	4	4043	0	3927
102	0	0	2851	5	4044	0	3927
103	0	0	3349	4	4044	0	3927
104	0	0	3642	5	4044	0	3928
105	0	0	3814	5	4045	0	3928
106	0	0	3912	5	4044	0	3927
107	0	0	3964	5	4043	0	3928
108	0	0	3992	5	4045	0	3929
109	0	0	4002	5	4043	0	3928
110	0	0	3187	4	4044	0	3927
111	0	0	2099	4	4043	0	3928
112	0	0	1257	4	4044	0	3927
113	0	0	712	4	4044	0	3928
114	0	0	401	4	4044	0	3927
115	0	0	226	4	4043	0	3927
116	0	0	129	4	4043	0	3927
117	0	0	79	4	4044	0	3927
118	0	0	94	4	4044	0	3927
119	0	0	181	4	4045	0	3928
120	0	0	1222	6	4043	0	3927
121	0	0	2157	5	4044	0	3928
122	0	0	2825	5	4045	0	3928
123	0	0	3333	4	4044	0	3928
124	0	0	3632	5	4044	0	3928
125	0	0	3807	5	4043	0	3928
126	0	0	3906	5	4044	0	3927
127	0	0	3961	5	4043	0	3927
0	0	0	3988	6	4044	0	3928
1	0	0	4001	5	4043	0	3927
2	0	0	3164	4	4045	0	3928
3	0	0	2066	4	4045	0	3927
4	0	0	1227	4	4044	0	3927
5	0	0	694	4	4045	0	3928
6	0	0	391	4	4044	0	3926
7	0	0	220	3	4044	0	3927
8	0	0	126	4	4043	0	3927
9	0	0	77	4	4044	0	3927
10	0	0	96	4	4044	0	3928
11	0	0	196	5	4043	0	3928
12	0	0	1236	4	4043	0	3927
13	0	0	2181	4	4043	0	3927
14	0	0	2845	5	4044	0	3928
15	0	0	3340	5	4044	0	3928
16	0	0	3641	5	4045	0	3928
17	0	0	3812	5	4044	0	3927
18	0	0	3908	5	4044	0	3927
19	0	0	3961	5	4044	0	3927
20	0	0	3989	5	4045	0	3928
21	0	0	4000	5	4043	0	3928
22	0	0	3175	4	4045	0	3928
23	0	0	2085	4	4044	0	3927
24	0	0	1228	4	4044	0	3927
25	0	0	700	4	4045	0	3928
26	0	0	394	4	4043	0	3927
27	0	0	220	3	4044	0	3927
28	0	0	125	4	4044	0	3928
29	0	0	77	4	4043	0	3928
30	0	0	108	4	4044	0	3928
31	0	0	211	4	4043	0	3928
32	0	0	1251	4	4043	0	3927
33	0	0	2180	5	4044	0	3928
34	0	0	2843	5	4045	0	3928
35	0	0	3338	5	4044	0	3928
36	0	0	3636	5	4043	0	3927
37	0	0	3808	4	4045	0	3928
38	0	0	3908	5	4044	0	3927
39	0	0	3960	5	4044	0	3927
40	0	0	3987	5	4044	0	3928
41	0	0	3999	5	4044	0	3927
42	0	0	3171	4	4044	0	3927
43	0	0	2078	4	4043	0	3928
44	0	0	1240	4	4044	0	3928
45	0	0	701	4	4044	0	3928
46	0	0	394	4	4043	0	3928
47	0	0	220	4	4043	0	3927
48	0	0	126	3	4044	0	3927
49	0	0	76	4	4044	0	3928
50	0	0	112	4	4044	0	3928
51	0	0	212	5	4045	0	3928
52	0	0	1271	5	4043	0	3927
53	0	0	2208	5	4044	0	3928
54	0	0	2867	5	4045	0	3928
55	0	0	3351	5	4044	0	3927
56	0	0	3644	5	4043	0	3927
57	0	0	3813	5	4045	0	3928
58	0	0	3910	5	4045	0	3928
59	0	0	3961	5	4044	0	3928
60	0	0	3987	5	4044	0	3928
61	0	0	3998	5	4044	0	3927
62	0	0	3178	4	4043	0	3927
63	0	0	2077	4	4044	0	3928
64	0	0	1232	4	4044	0	3928
65	0	0	701	4	4044	0	3928
66	0	0	394	4	4044	0	3928
67	0	0	218	3	4044	0	3927
68	0	0	124	3	4044	0	3927
69	0	0	74	4	4044	0	3927
70	0	0	108	4	4045	0	3928
71	0	0	221	4	4043	0	3927
72	0	0	1255	5	4044	0	3928
73	0	0	2192	5	4044	0	3927
74	0	0	2871	5	4044	0	3927
75	0	0	3355	5	4044	0	3928
76	0	0	3643	5	4044	0	3927
77	0	0	3811	5	4043	0	3927
78	0	0	3908	5	4044	0	3928
79	0	0	3961	5	4045	0	3928
80	0	0	3986	5	4044	0	3928
81	0	0	3998	5	4044	0	3927
82	0	0	3122	3	4044	0	3929
83	0	0	2025	4	4044	0	3927
84	0	0	1194	4	4044	0	3927
85	0	0	674	4	4044	0	3928
86	0	0	377	4	4043	0	3927
87	0	0	211	4	4043	0	3927
88	0	0	119	4	4044	0	3928
89	0	0	71	4	4044	0	3927
90	0	0	112	4	4044	0	3928
91	0	0	220	4	4043	0	3928
92	0	0	1259	5	4043	0	3927
93	0	0	2198	4	4044	0	3927
94	0	0	2858	4	4044	0	3928
95	0	0	3347	5	4045	0	3929
96	0	0	3641	5	4043	0	3927
97	0	0	3810	5	4044	0	3928
98	0	0	3907	5	4045	0	3927
99	0	0	3960	5	4044	0	3928
100	0	0	3985	5	4044	0	3927
101	0	0	3997	5	4044	0	3931
102	0	0	3160	4	4044	0	3927
103	0	0	2056	4	4044	0	3927
104	0	0	1217	4	4045	0	3928
105	0	0	691	4	4044	0	3927
106	0	0	387	4	4043	0	3928
107	0	0	215	4	4043	0	3927
108	0	0	121	4	4044	1	3927
109	0	0	72	4	4044	0	3928
110	0	0	124	4	4045	0	3928
111	0	0	241	4	4043	0	3927
112	0	0	1275	4	4043	0	3927
113	0	0	2213	5	4043	0	3927
114	0	0	2895	4	4044	0	3928
115	0	0	3368	5	4044	0	3928
116	0	0	3653	5	4045	0	3928
117	0	0	3815	6	4044	0	3927
118	0	0	3908	5	4044	0	3927
119	0	0	3960	5	4044	0	3927
120	0	0	3985	5	4044	0	3928
121	0	0	3997	6	4043	0	3927
122	0	0	3136	4	4043	0	3926
123	0	0	2035	4	4044	0	3927
124	0	0	1196	4	4044	0	3928
125	0	0	674	4	4045	0	3928
126	0	0	377	4	4043	0	3928
127	0	0	210	4	4043	0	3927
0	0	0	118	4	4043	0	3927
1	0	0	70	4	4044	0	3928
2	0	0	127	4	4044	0	3928
3	0	0	263	5	4045	0	3928
4	0	0	1282	4	4044	0	3927
5	0	0	2209	5	4043	0	3927
6	0	0	2882	5	4044	0	3927
7	0	0	3362	5	4045	0	3928
8	0	0	3648	5	4044	0	3928
9	0	0	3813	5	4043	0	3927
10	0	0	3907	5	4044	0	3927
11	0	0	3959	5	4045	0	3927
12	0	0	3983	5	4044	0	3927
13	0	0	3995	6	4043	0	3927
14	0	0	3166	3	4044	0	3927
15	0	0	2046	4	4044	0	3927
16	0	0	1211	4	4044	0	3928
17	0	0	687	4	4044	0	3928
18	0	0	384	3	4045	0	3929
19	0	0	211	4	4043	0	3928
20	0	0	118	4	4044	0	3928
21	0	0	70	4	4044	0	3928
22	0	0	112	4	4044	0	3928
23	0	0	228	4	4043	0	3927
24	0	0	1267	4	4044	0	3927
25	0	0	2207	5	4044	0	3927
26	0	0	2872	5	4044	0	3928
27	0	0	3353	5	4044	0	3928
28	0	0	3641	5	4043	0	3927
29	0	0	3810	3	4044	0	3927
30	0	0	3906	5	4045	0	3927
31	0	0	3957	5	4044	0	3928
32	0	0	3982	5	4044	0	3928
33	0	0	3995	5	4044	0	3928
34	0	0	3135	3	4045	0	3928
35	0	0	2023	4	4045	0	3928
36	0	0	1190	4	4044	0	3928
37	0	0	670	4	4044	0	3928
38	0	0	374	4	4043	0	3927
39	0	0	207	4	4044	0	3928
40	0	0	116	4	4045	0	3928
41	0	0	68	4	4044	0	3927
42	0	0	106	4	4044	0	3928
43	0	0	234	4	4045	0	3928
44	0	0	1274	4	4043	0	3927
45	0	0	2214	5	4043	0	3927
46	0	0	2879	5	4044	0	3927
47	0	0	3358	4	4044	0	3928
48	0	0	3647	5	4043	0	3927
49	0	0	3811	5	4044	0	3927
50	0	0	3905	4	4045	0	3927
51	0	0	3957	5	4044	0	3928
52	0	0	3983	5	4044	0	3928
53	0	0	3994	5	4044	0	3927
54	0	0	3162	3	4044	0	3927
55	0	0	2042	4	4044	0	3927
56	0	0	1209	4	4044	0	3927
57	0	0	686	4	4044	0	3928
58	0	0	383	4	4043	0	3927
59	0	0	210	3	4044	0	3927
60	0	0	117	4	4044	0	3927
61	0	0	69	4	4044	0	3927
62	0	0	117	4	4045	0	3928
63	0	0	240	5	4044	0	3927
64	0	0	1278	5	4044	0	3927
65	0	0	2229	5	4043	0	3928
66	0	0	2899	5	4044	0	3928
67	0	0	3370	5	4044	0	3928
68	0	0	3653	5	4045	0	3929
69	0	0	3815	5	4044	0	3928
70	0	0	3907	5	4043	0	3928
71	0	0	3958	5	4044	0	3927
72	0	0	3984	5	4045	0	3928
73	0	0	3993	5	4044	0	3927
74	0	0	3153	4	4044	0	3927
75	0	0	2035	4	4044	0	3927
76	0	0	1197	4	4044	0	3927
77	0	0	673	4	4044	0	3927
78	0	0	375	4	4043	0	3927
79	0	0	207	4	4044	0	3927
80	0	0	114	4	4044	0	3927
81	0	0	67	4	4043	0	3927
82	0	0	133	4	4044	0	3928
83	0	0	252	5	4045	0	3929
84	0	0	1273	4	4043	0	3927
85	0	0	2216	5	4044	0	3928
86	0	0	2882	5	4045	0	3929
87	0	0	3362	5	4044	0	3928
88	0	0	3646	5	4044	0	3928
89	0	0	3811	4	4045	0	3928
90	0	0	3906	5	4045	0	3928
91	0	0	3955	5	4044	0	3927
92	0	0	3980	5	4044	0	3928
93	0	0	3992	5	4043	0	3927
94	0	0	3165	4	4044	0	3927
95	0	0	2035	4	4044	0	3928
96	0	0	1193	4	4045	0	3928
97	0	0	675	4	4044	0	3928
98	0	0	374	4	4045	0	3928
99	0	0	207	3	4044	0	3927
100	0	0	114	4	4044	0	3928
101	0	0	66	4	4044	0	3927
102	0	0	117	4	4044	0	3928
103	0	0	235	4	4044	0	3928
104	0	0	1253	4	4044	0	3927
105	0	0	2207	4	4044	0	3927
106	0	0	2873	5	4044	0	3928
107	0	0	3354	4	4045	0	3928
108	0	0	3640	5	4044	0	3927
109	0	0	3809	5	4045	0	3928
110	0	0	3904	5	4045	0	3927
111	0	0	3955	5	4044	0	3927
112	0	0	3980	5	4044	0	3928
113	0	0	3991	5	4044	0	3927
114	0	0	3139	4	4044	0	3928
115	0	0	2020	4	4044	0	3928
116	0	0	1181	4	4044	0	3928
117	0	0	668	4	4044	0	3928
118	0	0	371	4	4045	0	3929
119	0	0	205	5	4044	0	3928
120	0	0	113	4	4044	0	3928
121	0	0	65	4	4045	0	3928
122	0	0	100	4	4044	0	3928
123	0	0	226	5	4044	0	3927
124	0	0	1258	4	4044	0	3928
125	0	0	2194	5	4044	0	3928
126	0	0	2858	4	4044	0	3928
127	0	0	3349	4	4044	0	3928
0	0	0	3638	5	4043	0	3927
1	0	0	3805	5	4044	0	3927
2	0	0	3900	5	4043	0	3927
3	0	0	3953	5	4044	0	3928
4	0	0	3979	5	4044	0	3928
5	0	0	3993	5	4045	0	3928
6	0	0	3151	3	4044	0	3928
7	0	0	2039	4	4044	0	3928
8	0	0	1196	4	4045	0	3929
9	0	0	677	3	4044	0	3928
10	0	0	374	4	4043	0	3927
11	0	0	206	4	4044	0	3927
12	0	0	113	4	4044	0	3927
13	0	0	66	4	4044	0	3927
14	0	0	132	4	4044	0	3928
15	0	0	251	5	4043	0	3927
16	0	0	1273	5	4045	0	3928
17	0	0	2225	5	4045	0	3928
18	0	0	2897	5	4044	0	3928
19	0	0	3369	4	4045	0	3928
20	0	0	3648	5	4044	0	3928
21	0	0	3813	4	4044	0	3928
22	0	0	3905	5	4044	0	3928
23	0	0	3955	5	4044	0	3928
24	0	0	3980	5	4044	0	3928
25	0	0	3991	5	4044	0	3928
26	0	0	3146	3	4043	0	3927
27	0	0	2042	4	4044	0	3928
28	0	0	1198	4	4045	0	3928
29	0	0	678	4	4044	0	3928
30	0	0	376	4	4044	0	3927
31	0	0	207	3	4044	0	3927
32	0	0	113	4	4043	0	3927
33	0	0	65	4	4044	0	3927
34	0	0	104	4	4045	0	3928
35	0	0	212	4	4044	0	3927
36	0	0	1244	5	4044	0	3927
37	0	0	2196	4	4044	0	3928
38	0	0	2859	4	4045	0	3928
39	0	0	3348	5	4044	0	3928
40	0	0	3636	4	4044	0	3928
41	0	0	3804	4	4044	0	3928
42	0	0	3901	5	4044	0	3928
43	0	0	3953	5	4044	0	3928
44	0	0	3978	5	4044	0	3928
45	0	0	3990	5	4044	0	3927
46	0	0	3140	4	4043	0	3927
47	0	0	2028	4	4044	0	3927
48	0	0	1194	4	4044	0	3928
49	0	0	675	4	4045	0	3928
50	0	0	373	4	4044	0	3927
51	0	0	205	3	4045	0	3928
52	0	0	112	4	4045	0	3928
53	0	0	64	4	4044	0	3927
54	0	0	103	4	4044	0	3928
55	0	0	197	5	4044	0	3927
56	0	0	1221	4	4044	0	3927
57	0	0	2178	5	4044	0	3928
58	0	0	2847	4	4044	0	3928
59	0	0	3338	5	4044	0	3928
60	0	0	3635	5	4045	0	3929
61	0	0	3805	4	4044	0	3927
62	0	0	3898	5	4044	0	3928
63	0	0	3953	5	4045	0	3928
64	0	0	3977	5	4043	0	3928
65	0	0	3990	5	4043	0	3927
66	0	0	3141	4	4044	0	3927
67	0	0	2026	3	4044	0	3927
68	0	0	1182	4	4044	0	3927
69	0	0	668	4	4044	0	3928
70	0	0	371	4	4044	0	3927
71	0	0	202	4	4043	0	3927
72	0	0	112	4	4044	0	3927
73	0	0	64	3	4044	0	3928
74	0	0	127	4	4045	0	3928
75	0	0	217	5	4043	0	3928
76	0	0	1226	5	4044	0	3927
77	0	0	2175	4	4044	0	3927
78	0	0	2848	5	4045	0	3928
79	0	0	3337	5	4044	0	3928
80	0	0	3631	5	4043	0	3927
81	0	0	3800	5	4044	0	3927
82	0	0	3898	5	4044	0	3927
83	0	0	3952	5	4044	0	3927
84	0	0	3980	5	4045	0	3928
85	0	0	3990	5	4043	0	3927
86	0	0	3165	4	4043	0	3927
87	0	0	2052	4	4043	0	3928
88	0	0	1210	4	4044	0	3928
89	0	0	680	4	4044	0	3928
90	0	0	378	4	4045	0	3929
91	0	0	208	4	4043	0	3928
92	0	0	114	4	4043	0	3927
93	0	0	65	3	4044	0	3928
94	0	0	107	4	4044	0	3928
95	0	0	203	5	4043	0	3927
96	0	0	1233	5	4043	0	3927
97	0	0	2178	4	4044	0	3927
98	0	0	2853	5	4044	0	3927
99	0	0	3340	5	4044	0	3928
100	0	0	3634	5	4043	0	3927
101	0	0	3804	5	4043	0	3927
102	0	0	3899	5	4044	0	3927
103	0	0	3952	5	4044	0	3927
104	0	0	3978	5	4043	0	3928
105	0	0	3990	5	4043	0	3927
106	0	0	3182	4	4044	0	3929
107	0	0	2053	4	4045	0	3928
108	0	0	1208	4	4044	0	3928
109	0	0	684	3	4045	0	3929
110	0	0	380	4	4043	0	3927
111	0	0	207	4	4044	0	3928
112	0	0	114	4	4045	0	3927
113	0	0	64	4	4044	0	3927
114	0	0	103	4	4044	0	3927
115	0	0	204	4	4045	0	3928
116	0	0	1209	4	4044	0	3927
117	0	0	2155	4	4044	0	3927
118	0	0	2832	5	4044	0	3928
119	0	0	3329	5	4044	0	3928
120	0	0	3625	5	4043	0	3927
121	0	0	3799	4	4044	0	3928
122	0	0	3897	5	4044	0	3928
123	0	0	3952	5	4045	0	3929
124	0	0	3977	5	4043	0	3928
125	0	0	3990	5	4043	0	3927
126	0	0	3160	3	4044	0	3927
127	0	0	2045	4	4044	0	3927
0	0	0	1207	4	4044	0	3927
1	0	0	678	4	4044	0	3928
2	0	0	377	4	4043	0	3927
3	0	0	207	4	4044	0	3928
4	0	0	113	4	4044	0	3927
5	0	0	64	4	4044	0	3927
6	0	0	94	4	4045	0	3928
7	0	0	190	4	4043	0	3927
8	0	0	1213	4	4044	0	3927
9	0	0	2148	4	4044	0	3927
10	0	0	2817	5	4044	0	3927
11	0	0	3323	4	4044	0	3928
12	0	0	3622	5	4044	0	3928
13	0	0	3795	5	4043	0	3928
14	0	0	3895	4	4044	0	3928
15	0	0	3951	5	4045	0	3928
16	0	0	3976	5	4044	0	3928
17	0	0	3990	5	4043	0	3927
18	0	0	3175	4	4044	0	3928
19	0	0	2039	4	4044	0	3927
20	0	0	1195	4	4044	0	3928
21	0	0	677	4	4043	0	3928
22	0	0	373	4	4043	0	3927
23	0	0	204	4	4043	0	3927
24	0	0	113	3	4044	0	3927
25	0	0	65	4	4044	0	3927
26	0	0	107	4	4044	0	3928
27	0	0	192	4	4044	0	3927
28	0	0	1202	4	4043	0	3927
29	0	0	2162	5	4044	0	3928
30	0	0	2835	4	4044	0	3928
31	0	0	3330	5	4043	0	3928
32	0	0	3628	5	4045	0	3928
33	0	0	3802	4	4044	0	3927
34	0	0	3897	4	4044	0	3930
35	0	0	3952	5	4045	0	3928
36	0	0	3977	5	4044	0	3928
37	0	0	3993	5	4045	0	3928
38	0	0	3174	3	4044	0	3927
39	0	0	2061	3	4043	0	3927
40	0	0	1206	3	4044	0	3927
41	0	0	683	4	4043	0	3928
42	0	0	380	4	4043	0	3927
43	0	0	209	4	4044	0	3928
44	0	0	115	4	4044	0	3928
45	0	0	66	4	4044	0	3927
46	0	0	117	4	4043	0	3928
47	0	0	221	4	4043	0	3928
48	0	0	1239	5	4043	0	3927
49	0	0	2190	4	4044	0	3928
50	0	0	2865	4	4045	0	3928
51	0	0	3352	5	4043	0	3928
52	0	0	3641	5	4045	0	3928
53	0	0	3806	5	4043	0	3927
54	0	0	3901	5	4044	0	3927
55	0	0	3953	5	4044	0	3927
56	0	0	3979	5	4043	0	3927
57	0	0	3991	5	4043	0	3927
58	0	0	3176	4	4044	0	3927
59	0	0	2057	4	4044	0	3927
60	0	0	1212	4	4044	0	3928
61	0	0	686	4	4045	0	3929
62	0	0	381	4	4043	0	3928
63	0	0	208	4	4044	0	3929
64	0	0	114	4	4045	0	3928
65	0	0	65	4	4044	0	3928
66	0	0	98	4	4043	0	3928
67	0	0	188	5	4043	0	3927
68	0	0	1205	4	4043	0	3927
69	0	0	2157	5	4043	0	3928
70	0	0	2846	5	4044	0	3927
71	0	0	3336	5	4044	0	3928
72	0	0	3629	5	4043	0	3927
73	0	0	3801	5	4044	0	3927
74	0	0	3899	5	4044	0	3927
75	0	0	3951	5	4044	0	3927
76	0	0	3979	5	4045	0	3928
77	0	0	3990	5	4043	0	3927
78	0	0	3167	4	4044	0	3928
79	0	0	2046	4	4044	0	3928
80	0	0	1204	4	4044	0	3928
81	0	0	676	4	4044	0	3928
82	0	0	376	4	4044	0	3927
83	0	0	207	4	4044	0	3927
84	0	0	113	4	4044	0	3931
85	0	0	64	4	4045	0	3927
86	0	0	102	3	4044	0	3928
87	0	0	200	4	4044	0	3927
88	0	0	1215	5	4044	0	3927
89	0	0	2163	4	4044	0	3928
90	0	0	2828	4	4044	0	3927
91	0	0	3331	5	4044	0	3928
92	0	0	3626	5	4044	0	3927
93	0	0	3799	5	4043	0	3928
94	0	0	3897	5	4044	0	3928
95	0	0	3951	5	4045	0	3929
96	0	0	3979	6	4045	0	3928
97	0	0	3989	5	4044	0	3928
98	0	0	3188	4	4044	0	3929
99	0	0	2055	4	4045	0	3928
100	0	0	1212	4	4044	0	3928
101	0	0	685	4	4045	0	3928
102	0	0	379	4	4043	0	3927
103	0	0	208	4	4044	0	3928
104	0	0	115	4	4045	1	3928
105	0	0	65	4	4044	0	3928
106	0	0	110	4	4044	0	3928
107	0	0	177	4	4043	0	3927
108	0	0	1210	4	4043	0	3927
109	0	0	2179	4	4044	0	3928
110	0	0	2836	5	4044	0	3927
111	0	0	3331	5	4044	0	3928
112	0	0	3628	5	4045	0	3929
113	0	0	3801	5	4044	0	3928
114	0	0	3897	5	4044	0	3928
115	0	0	3951	5	4045	0	3928
116	0	0	3977	5	4043	0	3928
117	0	0	3990	5	4044	0	3927
118	0	0	3172	4	4043	0	3927
119	0	0	2043	4	4044	0	3927
120	0	0	1193	4	4044	0	3927
121	0	0	674	4	4044	0	3928
122	0	0	375	4	4043	0	3927
123	0	0	206	4	4044	0	3929
124	0	0	112	4	4045	0	3928
125	0	0	64	4	4044	0	3928
126	0	0	145	4	4043	0	3928
127	0	0	219	5	4045	0	3929
0	0	0	1234	5	4044	0	3928
1	0	0	2187	4	4044	0	3928
2	0	0	2848	5	4044	0	3928
3	0	0	3342	5	4044	0	3928
4	0	0	3633	5	4044	0	3928
5	0	0	3802	5	4044	0	3927
6	0	0	3899	5	4044	0	3927
7	0	0	3952	5	4044	0	3927
8	0	0	3977	5	4044	0	3928
9	0	0	3990	5	4043	0	3927
10	0	0	3175	4	4044	0	3927
11	0	0	2049	4	4044	0	3927
12	0	0	1206	4	4044	0	3927
13	0	0	682	4	4045	0	3928
14	0	0	376	4	4044	0	3927
15	0	0	206	4	4044	0	3929
16	0	0	113	4	4045	0	3928
17	0	0	65	4	4044	0	3928
18	0	0	113	4	4044	0	3928
19	0	0	207	4	4045	0	3929
20	0	0	1206	5	4044	0	3927
21	0	0	2169	4	4044	0	3927
22	0	0	2824	4	4044	0	3927
23	0	0	3323	5	4044	0	3928
24	0	0	3622	5	4043	0	3927
25	0	0	3797	5	4044	0	3928
26	0	0	3896	3	4044	0	3928
27	0	0	3951	5	4045	0	3928
28	0	0	3976	5	4044	0	3928
29	0	0	3990	5	4044	0	3927
30	0	0	3185	4	4044	0	3927
31	0	0	2055	4	4044	0	3927
32	0	0	1195	3	4044	0	3928
33	0	0	676	4	4044	0	3928
34	0	0	375	4	4043	0	3928
35	0	0	206	4	4044	0	3929
36	0	0	112	3	4045	0	3928
37	0	0	64	4	4044	0	3927
38	0	0	111	4	4045	0	3928
39	0	0	188	4	4043	0	3927
40	0	0	1202	5	4043	0	3927
41	0	0	2166	5	4044	0	3927
42	0	0	2826	5	4044	0	3927
43	0	0	3331	5	4044	0	3928
44	0	0	3625	5	4044	0	3927
45	0	0	3799	5	4044	0	3927
46	0	0	3896	5	4044	0	3927
47	0	0	3951	5	4044	0	3927
48	0	0	3977	5	4044	0	3928
49	0	0	3989	6	4043	0	3927
50	0	0	3179	3	4044	0	3928
51	0	0	2039	4	4045	0	3928
52	0	0	1197	4	4044	0	3928
53	0	0	678	4	4045	0	3928
54	0	0	373	4	4043	0	3927
55	0	0	204	4	4044	0	3928
56	0	0	113	4	4044	0	3928
57	0	0	65	4	4045	0	3928
58	0	0	111	4	4043	0	3928
59	0	0	173	5	4043	0	3927
60	0	0	1187	4	4044	0	3927
61	0	0	2161	4	4044	0	3927
62	0	0	2816	5	4044	0	3927
63	0	0	3319	4	4043	0	3928
64	0	0	3619	6	4044	0	3927
65	0	0	3796	4	4044	0	3928
66	0	0	3894	6	4045	0	3927
67	0	0	3950	5	4044	0	3928
68	0	0	3976	5	4043	0	3928
69	0	0	3989	6	4044	0	3927
70	0	0	3184	4	4044	0	3927
71	0	0	2058	4	4044	0	3927
72	0	0	1204	4	4044	0	3928
73	0	0	682	4	4043	0	3928
74	0	0	379	5	4043	0	3927
75	0	0	208	4	4044	0	3928
76	0	0	114	4	4044	0	3927
77	0	0	65	4	4044	0	3927
78	0	0	126	4	4045	0	3928
79	0	0	192	5	4043	0	3927
80	0	0	1221	5	4044	0	3927
81	0	0	2190	5	4044	0	3927
82	0	0	2870	5	4045	0	3928
83	0	0	3355	4	4044	0	3928
84	0	0	3642	5	4044	0	3927
85	0	0	3807	5	4044	0	3929
86	0	0	3902	5	4045	0	3928
87	0	0	3952	5	4044	0	3928
88	0	0	3978	5	4043	0	3928
89	0	0	3990	5	4043	0	3927
90	0	0	3169	4	4043	0	3927
91	0	0	2054	4	4043	0	3927
92	0	0	1213	4	4044	0	3928
93	0	0	686	4	4043	0	3928
94	0	0	378	4	4043	0	3927
95	0	0	207	4	4043	0	3928
96	0	0	115	3	4044	0	3928
97	0	0	65	4	4044	0	3928
98	0	0	128	4	4043	0	3928
99	0	0	218	4	4044	0	3928
100	0	0	1211	4	4043	0	3928
101	0	0	2159	4	4043	0	3928
102	0	0	2821	5	4044	0	3928
103	0	0	3321	5	4044	0	3928
104	0	0	3621	5	4043	0	3926
105	0	0	3797	5	4044	0	3928
106	0	0	3896	5	4045	0	3928
107	0	0	3950	5	4044	0	3927
108	0	0	3977	5	4044	0	3927
109	0	0	3990	5	4045	0	3928
110	0	0	3190	4	4044	0	3927
111	0	0	2055	4	4044	0	3927
112	0	0	1204	4	4044	0	3927
113	0	0	681	4	4043	0	3928
114	0	0	378	3	4043	0	3927
115	0	0	207	4	4044	0	3927
116	0	0	114	3	4044	0	3927
117	0	0	65	4	4044	0	3928
118	0	0	97	4	4045	0	3929
119	0	0	158	5	4043	0	3927
120	0	0	1171	4	4043	0	3928
121	0	0	2138	5	4043	0	3927
122	0	0	2812	4	4044	0	3928
123	0	0	3322	5	4043	0	3928
124	0	0	3622	5	4045	0	3928
125	0	0	3796	6	4044	0	3927
126	0	0	3895	5	4044	0	3927
127	0	0	3950	5	4044	0	3927
0	0	0	3977	5	4043	0	3928
1	0	0	3989	5	4043	0	3927
2	0	0	3177	4	4044	0	3928
3	0	0	2048	4	4044	0	3928
4	0	0	1204	4	4044	0	3928
5	0	0	681	4	4043	0	3928
6	0	0	375	4	4043	0	3928
7	0	0	207	4	4043	0	3928
8	0	0	113	4	4044	0	3928
9	0	0	64	4	4045	0	3928
10	0	0	120	4	4043	0	3928
11	0	0	176	5	4043	0	3927
12	0	0	1171	5	4044	0	3927
13	0	0	2131	4	4044	0	3928
14	0	0	2806	4	4044	0	3927
15	0	0	3312	5	4044	0	3928
16	0	0	3615	5	4044	0	3927
17	0	0	3795	5	4044	0	3928
18	0	0	3895	5	4044	0	3927
19	0	0	3948	5	4044	0	3927
20	0	0	3977	5	4043	0	3928
21	0	0	3988	5	4043	0	3927
22	0	0	3210	4	4043	0	3928
23	0	0	2081	4	4044	0	3928
24	0	0	1224	3	4044	0	3928
25	0	0	692	4	4043	0	3928
26	0	0	384	4	4044	0	3928
27	0	0	210	4	4044	0	3927
28	0	0	116	4	4044	0	3928
29	0	0	66	4	4045	0	3928
30	0	0	114	4	4044	0	3927
31	0	0	168	4	4043	0	3927
32	0	0	1194	5	4044	0	3927
33	0	0	2160	5	4044	0	3927
34	0	0	2829	4	4044	0	3927
35	0	0	3333	5	4045	0	3928
36	0	0	3626	5	4043	0	3927
37	0	0	3799	5	4043	0	3928
38	0	0	3897	5	4044	0	3928
39	0	0	3952	5	4045	0	3929
40	0	0	3977	5	4044	0	3928
41	0	0	3990	5	4044	0	3927
42	0	0	3195	4	4044	0	3927
43	0	0	2069	3	4044	0	3928
44	0	0	1218	3	4044	0	3927
45	0	0	689	4	4043	0	3928
46	0	0	380	4	4043	0	3927
47	0	0	209	4	4044	0	3928
48	0	0	115	4	4045	0	3928
49	0	0	66	4	4043	0	3927
50	0	0	115	4	4043	0	3928
51	0	0	171	4	4045	0	3928
52	0	0	1168	5	4043	0	3927
53	0	0	2137	5	4044	0	3927
54	0	0	2810	4	4044	0	3927
55	0	0	3316	5	4044	0	3928
56	0	0	3617	5	4044	0	3927
57	0	0	3795	5	4044	0	3929
58	0	0	3895	5	4044	0	3928
59	0	0	3950	5	4045	0	3928
60	0	0	3977	5	4043	0	3928
61	0	0	3990	4	4043	0	3927
62	0	0	3197	4	4044	0	3927
63	0	0	2055	4	4044	0	3927
64	0	0	1200	4	4044	0	3927
65	0	0	679	4	4043	0	3927
66	0	0	378	4	4043	0	3927
67	0	0	207	4	4044	0	3928
68	0	0	113	4	4045	0	3928
69	0	0	65	4	4044	0	3928
70	0	0	118	4	4045	0	3928
71	0	0	149	5	4043	0	3927
72	0	0	1174	4	4043	0	3927
73	0	0	2151	5	4044	0	3928
74	0	0	2816	4	4044	0	3928
75	0	0	3324	5	4043	0	3928
76	0	0	3623	4	4043	0	3927
77	0	0	3797	5	4043	0	3927
78	0	0	3896	6	4044	0	3927
79	0	0	3952	5	4045	0	3928
80	0	0	3977	5	4043	0	3928
81	0	0	3991	6	4044	0	3927
82	0	0	3188	4	4044	0	3928
83	0	0	2058	4	4045	0	3927
84	0	0	1208	4	4044	0	3928
85	0	0	684	4	4043	0	3928
86	0	0	378	4	4044	0	3927
87	0	0	208	4	4043	0	3927
88	0	0	115	4	4044	0	3928
89	0	0	65	4	4044	0	3928
90	0	0	102	4	4044	0	3928
91	0	0	149	4	4043	0	3928
92	0	0	1144	4	4043	0	3927
93	0	0	2128	5	4044	0	3927
94	0	0	2824	4	4044	0	3927
95	0	0	3323	5	4043	0	3928
96	0	0	3624	5	4045	0	3928
97	0	0	3801	6	4044	0	3927
98	0	0	3897	6	4044	0	3928
99	0	0	3952	5	4044	0	3928
100	0	0	3977	5	4043	0	3927
101	0	0	3992	5	4045	0	3928
102	0	0	3205	5	4044	0	3927
103	0	0	2076	5	4044	0	3927
104	0	0	1225	4	4044	0	3928
105	0	0	694	4	4043	0	3928
106	0	0	386	4	4043	0	3928
107	0	0	212	4	4044	0	3929
108	0	0	117	5	4044	0	3928
109	0	0	66	3	4044	0	3928
110	0	0	102	4	4043	0	3928
111	0	0	157	5	4043	0	3927
112	0	0	1166	5	4043	0	3927
113	0	0	2153	4	4044	0	3927
114	0	0	2834	4	4044	0	3927
115	0	0	3335	5	4044	0	3928
116	0	0	3629	5	4044	0	3927
117	0	0	3802	5	4043	0	3927
118	0	0	3900	5	4044	0	3927
119	0	0	3951	5	4044	0	3927
120	0	0	3979	5	4043	0	3928
121	0	0	3991	5	4044	0	3927
122	0	0	3221	4	4044	0	3929
123	0	0	2083	4	4045	0	3929
124	0	0	1227	3	4044	0	3928
125	0	0	691	4	4045	0	3928
126	0	0	384	4	4043	0	3927
127	0	0	211	4	4044	0	3928
0	0	0	117	3	4044	0	3927
1	0	0	66	4	4044	0	3927
2	0	0	149	4	4045	0	3928
3	0	0	184	4	4043	0	3927
4	0	0	1155	5	4043	0	3927
5	0	0	2143	6	4044	0	3927
6	0	0	2820	4	4044	0	3928
7	0	0	3321	6	4043	0	3928
8	0	0	3624	5	4045	0	3929
9	0	0	3799	6	4044	0	3927
10	0	0	3897	5	4044	0	3927
11	0	0	3948	5	4044	0	3928
12	0	0	3978	5	4043	0	3928
13	0	0	3990	5	4043	0	3928
14	0	0	3221	4	4044	0	3927
15	0	0	2090	4	4043	0	3927
16	0	0	1226	4	4044	0	3928
17	0	0	696	4	4045	0	3928
18	0	0	386	4	4043	0	3927
19	0	0	212	4	4044	0	3928
20	0	0	116	4	4045	0	3927
21	0	0	66	4	4044	0	3927
22	0	0	102	4	4043	0	3927
23	0	0	137	5	4043	0	3927
24	0	0	1155	5	4043	0	3927
25	0	0	2127	5	4044	0	3927
26	0	0	2788	5	4044	0	3927
27	0	0	3308	4	4044	0	3928
28	0	0	3614	4	4045	0	3929
29	0	0	3793	4	4044	0	3928
30	0	0	3893	5	4044	0	3928
31	0	0	3950	5	4045	0	3928
32	0	0	3976	5	4043	0	3927
33	0	0	3990	6	4044	0	3927
34	0	0	3206	4	4044	0	3928
35	0	0	2082	5	4044	0	3927
36	0	0	1235	4	4044	0	3927
37	0	0	700	3	4043	0	3928
38	0	0	387	4	4043	0	3927
39	0	0	213	4	4043	0	3927
40	0	0	117	4	4043	0	3927
41	0	0	67	4	4044	0	3927
42	0	0	110	4	4043	0	3928
43	0	0	135	4	4045	0	3929
44	0	0	1133	4	4044	0	3927
45	0	0	2131	5	4044	0	3928
46	0	0	2825	4	4045	0	3929
47	0	0	3323	5	4044	0	3928
48	0	0	3622	5	4044	0	3927
49	0	0	3798	5	4044	0	3927
50	0	0	3898	5	4044	0	3927
51	0	0	3951	4	4044	0	3927
52	0	0	3978	5	4043	0	3927
53	0	0	3991	5	4044	0	3927
54	0	0	3223	4	4044	0	3928
55	0	0	2092	4	4045	0	3927
56	0	0	1231	4	4044	0	3927
57	0	0	698	4	4045	0	3928
58	0	0	388	4	4043	0	3927
59	0	0	212	4	4044	0	3928
60	0	0	117	4	4044	0	3927
61	0	0	67	4	4044	0	3928
62	0	0	140	4	4043	0	3928
63	0	0	184	5	4043	0	3927
64	0	0	1181	4	4043	0	3928
65	0	0	2157	4	4044	0	3927
66	0	0	2812	5	4044	0	3927
67	0	0	3321	5	4044	0	3927
68	0	0	3620	5	4043	0	3927
69	0	0	3797	4	4044	0	3927
70	0	0	3897	5	4044	0	3927
71	0	0	3951	5	4045	0	3928
72	0	0	3977	5	4043	0	3928
73	0	0	3991	5	4045	0	3928
74	0	0	3224	4	4044	0	3927
75	0	0	2096	4	4044	0	3928
76	0	0	1250	4	4045	0	3928
77	0	0	703	4	4043	0	3928
78	0	0	391	4	4043	0	3928
79	0	0	215	4	4044	0	3928
80	0	0	119	4	4044	0	3928
81	0	0	67	4	4044	0	3928
82	0	0	134	4	4043	0	3928
83	0	0	148	5	4043	0	3927
84	0	0	1137	5	4043	0	3927
85	0	0	2130	5	4043	0	3927
86	0	0	2805	4	4044	0	3927
87	0	0	3314	5	4045	0	3928
88	0	0	3618	5	4043	0	3927
89	0	0	3795	5	4044	0	3928
90	0	0	3896	5	4045	0	3928
91	0	0	3948	5	4044	0	3928
92	0	0	3976	5	4044	0	3928
93	0	0	3989	5	4043	0	3927
94	0	0	3220	4	4043	0	3928
95	0	0	2076	4	4043	0	3928
96	0	0	1219	4	4044	0	3928
97	0	0	691	4	4043	0	3928
98	0	0	384	4	4045	0	3928
99	0	0	210	4	4043	0	3927
100	0	0	115	4	4043	0	3927
101	0	0	66	4	4044	0	3928
102	0	0	110	4	4045	0	3928
103	0	0	158	4	4043	0	3927
104	0	0	1145	5	4043	0	3927
105	0	0	2115	5	4043	0	3927
106	0	0	2799	5	4044	0	3928
107	0	0	3310	4	4044	0	3928
108	0	0	3614	5	4043	0	3927
109	0	0	3793	5	4043	0	3928
110	0	0	3895	5	4043	0	3927
111	0	0	3949	6	4044	0	3928
112	0	0	3977	5	4043	0	3928
113	0	0	3990	5	4045	0	3929
114	0	0	3224	4	4043	0	3928
115	0	0	2095	5	4043	0	3927
116	0	0	1240	4	4045	0	3928
117	0	0	698	4	4043	0	3928
118	0	0	388	4	4043	0	3927
119	0	0	214	4	4044	0	3927
120	0	0	118	4	4043	0	3927
121	0	0	66	4	4044	0	3928
122	0	0	130	4	4043	0	3928
123	0	0	135	5	4043	0	3927
124	0	0	1150	5	4044	0	3928
125	0	0	2144	5	4045	0	3928
126	0	0	2816	5	4044	0	3928
127	0	0	3320	5	4045	0	3929
0	0	0	3622	5	4043	0	3928
1	0	0	3797	4	4043	0	3928
2	0	0	3897	5	4043	0	3928
3	0	0	3950	5	4044	0	3928
4	0	0	3977	5	4044	0	3928
5	0	0	3991	5	4044	0	3927
6	0	0	3234	4	4043	0	3927
7	0	0	2099	4	4043	0	3927
8	0	0	1246	4	4044	0	3927
9	0	0	702	4	4044	0	3928
10	0	0	390	3	4045	0	3928
11	0	0	215	4	4044	0	3927
12	0	0	118	4	4044	0	3928
13	0	0	68	4	4045	0	3928
14	0	0	129	4	4043	0	3928
15	0	0	155	5	4043	0	3927
16	0	0	1139	5	4044	0	3927
17	0	0	2125	5	4043	0	3928
18	0	0	2794	5	4044	0	3927
19	0	0	3305	5	4044	0	3928
20	0	0	3614	5	4043	0	3927
21	0	0	3793	5	4044	0	3928
22	0	0	3895	5	4045	0	3927
23	0	0	3948	5	4044	0	3927
24	0	0	3976	5	4044	0	3927
25	0	0	3992	5	4045	0	3928
26	0	0	3253	4	4044	0	3927
27	0	0	2105	4	4044	0	3927
28	0	0	1249	3	4044	0	3927
29	0	0	708	4	4043	0	3928
30	0	0	394	4	4043	0	3927
31	0	0	216	3	4044	0	3929
32	0	0	119	5	4044	0	3927
33	0	0	68	4	4044	0	3927
34	0	0	97	3	4043	0	3928
35	0	0	126	5	4043	0	3927
36	0	0	1127	5	4043	0	3927
37	0	0	2109	5	4044	0	3928
38	0	0	2804	4	4045	0	3928
39	0	0	3311	5	4043	0	3928
40	0	0	3615	4	4045	0	3928
41	0	0	3794	5	4044	0	3927
42	0	0	3895	5	4044	0	3927
43	0	0	3948	5	4044	0	3927
44	0	0	3977	5	4044	0	3928
45	0	0	3990	5	4043	0	3927
46	0	0	3252	4	4044	0	3928
47	0	0	2106	4	4045	0	3928
48	0	0	1243	4	4044	0	3927
49	0	0	699	4	4043	0	3928
50	0	0	390	3	4045	0	3929
51	0	0	214	4	4044	0	3928
52	0	0	118	4	4044	0	3927
53	0	0	68	4	4044	0	3927
54	0	0	106	4	4043	0	3928
55	0	0	133	5	4043	0	3927
56	0	0	1126	5	4043	0	3927
57	0	0	2112	5	4043	0	3927
58	0	0	2795	5	4044	0	3927
59	0	0	3306	5	4044	0	3928
60	0	0	3615	4	4043	0	3927
61	0	0	3793	5	4044	0	3927
62	0	0	3894	5	4044	0	3927
63	0	0	3948	4	4044	0	3927
64	0	0	3977	5	4043	0	3928
65	0	0	3991	5	4044	0	3927
66	0	0	3251	4	4044	0	3928
67	0	0	2100	4	4045	0	3929
68	0	0	1248	4	4044	0	3927
69	0	0	708	4	4045	0	3929
70	0	0	394	4	4043	0	3927
71	0	0	216	4	4043	0	3927
72	0	0	118	4	4044	0	3927
73	0	0	68	4	4045	0	3928
74	0	0	97	4	4043	0	3927
75	0	0	136	4	4043	0	3927
76	0	0	1120	5	4043	0	3927
77	0	0	2105	6	4043	0	3927
78	0	0	2790	5	4044	0	3927
79	0	0	3304	5	4043	0	3928
80	0	0	3611	4	4043	0	3927
81	0	0	3790	5	4044	0	3927
82	0	0	3894	5	4044	0	3928
83	0	0	3948	5	4044	0	3928
84	0	0	3977	5	4044	0	3928
85	0	0	3991	5	4044	0	3927
86	0	0	3261	4	4043	0	3927
87	0	0	2116	5	4043	0	3927
88	0	0	1256	3	4044	0	3928
89	0	0	707	4	4043	0	3928
90	0	0	394	3	4043	0	3927
91	0	0	217	4	4044	0	3928
92	0	0	119	4	4045	0	3928
93	0	0	68	4	4044	0	3927
94	0	0	144	4	4043	0	3928
95	0	0	198	4	4045	0	3928
96	0	0	1162	5	4044	0	3928
97	0	0	2141	5	4043	0	3927
98	0	0	2830	4	4044	0	3928
99	0	0	3329	5	4045	0	3928
100	0	0	3628	5	4043	0	3927
101	0	0	3800	5	4044	0	3929
102	0	0	3898	5	4045	0	3928
103	0	0	3951	5	4044	0	3927
104	0	0	3981	5	4045	0	3928
105	0	0	3990	5	4044	0	3927
106	0	0	3287	4	4043	0	3927
107	0	0	2129	4	4044	0	3927
108	0	0	1264	4	4044	0	3928
109	0	0	716	4	4043	0	3928
110	0	0	398	3	4043	0	3927
111	0	0	218	4	4044	0	3928
112	0	0	120	4	4044	0	3928
113	0	0	68	4	4045	0	3928
114	0	0	93	4	4043	0	3928
115	0	0	150	4	4045	0	3928
116	0	0	1132	4	4044	0	3925
117	0	0	2117	5	4044	0	3928
118	0	0	2810	5	4044	0	3928
119	0	0	3315	5	4043	0	3928
120	0	0	3619	4	4044	0	3927
121	0	0	3794	5	4043	0	3927
122	0	0	3895	5	4044	0	3928
123	0	0	3949	4	4044	0	3927
124	0	0	3977	5	4043	0	3927
125	0	0	3990	5	4044	0	3927
126	0	0	3259	4	4044	0	3927
127	0	0	2099	5	4044	0	3928
0	0	0	1249	4	4044	0	3928
1	0	0	708	4	4045	0	3928
2	0	0	393	4	4043	0	3927
3	0	0	215	4	4043	0	3928
4	0	0	118	4	4043	0	3928
5	0	0	67	4	4045	0	3928
6	0	0	117	4	4043	0	3928
7	0	0	148	4	4043	0	3927
8	0	0	1117	4	4043	0	3927
9	0	0	2100	5	4044	0	3928
10	0	0	2783	4	4044	0	3928
11	0	0	3301	5	4045	0	3928
12	0	0	3608	5	4043	0	3927
13	0	0	3789	4	4043	0	3927
14	0	0	3892	5	4043	0	3927
15	0	0	3949	5	4045	0	3928
16	0	0	3976	5	4044	0	3927
17	0	0	3991	5	4045	0	3926
18	0	0	3260	4	4043	0	3927
19	0	0	2119	4	4044	0	3928
20	0	0	1262	4	4044	0	3928
21	0	0	711	4	4044	0	3928
22	0	0	395	3	4044	0	3928
23	0	0	217	4	4044	0	3928
24	0	0	119	4	4045	0	3928
25	0	0	68	5	4044	0	3928
26	0	0	109	4	4043	0	3928
27	0	0	165	4	4044	0	3927
28	0	0	1140	5	4044	0	3927
29	0	0	2128	5	4043	0	3927
30	0	0	2820	5	4044	0	3927
31	0	0	3322	5	4043	0	3927
32	0	0	3625	4	4045	0	3928
33	0	0	3799	5	4044	0	3927
34	0	0	3897	5	4044	0	3927
35	0	0	3949	5	4044	0	3928
36	0	0	3977	5	4043	0	3928
37	0	0	3988	5	4044	0	3927
38	0	0	3296	4	4043	0	3927
39	0	0	2136	4	4044	0	3928
40	0	0	1276	4	4044	0	3928
41	0	0	724	3	4045	0	3928
42	0	0	400	4	4043	0	3927
43	0	0	220	3	4043	0	3927
44	0	0	120	4	4044	0	3927
45	0	0	68	4	4044	0	3928
46	0	0	132	4	4043	0	3927
47	0	0	163	4	4045	0	3927
48	0	0	1124	5	4043	0	3927
49	0	0	2109	5	4044	0	3928
50	0	0	2807	5	4044	0	3927
51	0	0	3313	5	4043	0	3928
52	0	0	3614	5	4043	0	3927
53	0	0	3794	5	4044	0	3928
54	0	0	3895	5	4045	0	3928
55	0	0	3947	4	4044	0	3928
56	0	0	3975	5	4043	0	3928
57	0	0	3990	4	4045	0	3929
58	0	0	3268	3	4044	0	3927
59	0	0	2122	4	4045	0	3927
60	0	0	1262	5	4044	0	3927
61	0	0	715	4	4043	0	3927
62	0	0	396	4	4043	0	3927
63	0	0	218	4	4043	0	3927
64	0	0	119	4	4044	0	3928
65	0	0	68	4	4044	0	3927
66	0	0	108	4	4045	0	3928
67	0	0	147	6	4044	0	3927
68	0	0	1119	5	4043	0	3927
69	0	0	2103	5	4044	0	3928
70	0	0	2783	5	4045	0	3929
71	0	0	3303	5	4043	0	3928
72	0	0	3610	4	4045	0	3928
73	0	0	3789	5	4044	0	3928
74	0	0	3891	5	4045	0	3929
75	0	0	3947	5	4044	0	3928
76	0	0	3975	5	4043	0	3928
77	0	0	3989	6	4044	0	3927
78	0	0	3277	4	4044	0	3927
79	0	0	2105	4	4044	0	3927
80	0	0	1253	4	4044	0	3927
81	0	0	711	4	4043	0	3927
82	0	0	393	4	4043	0	3927
83	0	0	216	4	4044	0	3928
84	0	0	119	4	4044	0	3928
85	0	0	67	3	4044	0	3927
86	0	0	132	4	4043	0	3928
87	0	0	148	4	4045	0	3928
88	0	0	1087	4	4044	0	3927
89	0	0	2075	5	4044	0	3928
90	0	0	2753	4	4044	0	3928
91	0	0	3283	5	4045	0	3929
92	0	0	3597	6	4043	0	3927
93	0	0	3784	5	4044	0	3927
94	0	0	3888	5	4044	0	3927
95	0	0	3945	4	4044	0	3928
96	0	0	3976	5	4044	0	3927
97	0	0	3990	4	4045	0	3928
98	0	0	3287	4	4044	0	3927
99	0	0	2135	4	4044	0	3927
100	0	0	1269	4	4044	0	3928
101	0	0	719	4	4044	0	3928
102	0	0	401	4	4043	0	3927
103	0	0	218	4	4044	0	3928
104	0	0	120	4	4044	0	3928
105	0	0	68	3	4044	0	3928
106	0	0	132	4	4045	0	3929
107	0	0	160	5	4044	0	3928
108	0	0	1117	5	4044	0	3927
109	0	0	2101	5	4044	0	3927
110	0	0	2782	4	4044	0	3927
111	0	0	3304	5	4044	0	3928
112	0	0	3611	4	4045	0	3928
113	0	0	3791	5	4045	0	3927
114	0	0	3893	5	4044	0	3928
115	0	0	3949	5	4045	0	3928
116	0	0	3975	5	4044	0	3927
117	0	0	3989	5	4044	0	3927
118	0	0	3292	4	4044	0	3927
119	0	0	2152	4	4044	0	3928
120	0	0	1298	3	4044	0	3928
121	0	0	731	3	4044	0	3928
122	0	0	407	4	4044	0	3928
123	0	0	223	4	4044	0	3928
124	0	0	122	4	4044	0	3928
125	0	0	69	3	4044	0	3928
126	0	0	123	4	4043	0	3927
127	0	0	131	4	4044	0	3927
0	0	0	1098	5	4044	0	3927
1	0	0	2107	5	4044	0	3927
2	0	0	2781	4	4044	0	3927
3	0	0	3297	5	4043	0	3927
4	0	0	3609	5	4044	0	3927
5	0	0	3788	5	4044	0	3927
6	0	0	3891	5	4044	0	3928
7	0	0	3946	4	4044	0	3927
8	0	0	3976	5	4044	0	3928
9	0	0	3989	5	4045	0	3928
10	0	0	3308	4	4044	0	3927
11	0	0	2145	4	4044	0	3928
12	0	0	1287	4	4045	0	3928
13	0	0	729	4	4044	0	3928
14	0	0	406	4	4045	0	3928
15	0	0	221	4	4044	0	3928
16	0	0	121	3	4044	0	3927
17	0	0	68	4	4045	0	3928
18	0	0	109	4	4044	0	3928
19	0	0	117	5	4045	0	3928
20	0	0	1090	5	4044	0	3927
21	0	0	2082	5	4044	0	3927
22	0	0	2772	4	4045	0	3928
23	0	0	3291	5	4044	0	3928
24	0	0	3603	5	4045	0	3929
25	0	0	3785	5	4044	0	3927
26	0	0	3889	5	4044	0	3928
27	0	0	3948	5	4045	0	3929
28	0	0	3974	5	4044	0	3928
29	0	0	3988	5	4043	0	3928
30	0	0	3283	3	4044	0	3927
31	0	0	2128	4	4043	0	3927
32	0	0	1272	4	4044	0	3928
33	0	0	715	4	4044	0	3927
34	0	0	398	4	4044	0	3927
35	0	0	219	3	4044	0	3927
36	0	0	119	4	4044	0	3927
37	0	0	67	4	4044	0	3927
38	0	0	110	4	4043	0	3927
39	0	0	113	5	4044	0	3927
40	0	0	1086	4	4044	0	3928
41	0	0	2077	5	4045	0	3928
42	0	0	2745	4	4044	0	3928
43	0	0	3278	5	4045	0	3928
44	0	0	3597	5	4043	0	3928
45	0	0	3782	5	4044	0	3928
46	0	0	3888	5	4045	0	3928
47	0	0	3944	5	4044	0	3928
48	0	0	3974	5	4044	0	3927
49	0	0	3989	5	4043	0	3927
50	0	0	3312	4	4044	0	3927
51	0	0	2146	4	4044	0	3927
52	0	0	1286	4	4044	0	3927
53	0	0	729	4	4044	0	3928
54	0	0	405	5	4044	0	3927
55	0	0	221	4	4044	0	3927
56	0	0	122	4	4044	0	3927
57	0	0	68	3	4044	0	3928
58	0	0	144	4	4044	0	3927
59	0	0	159	5	4045	0	3928
60	0	0	1109	4	4045	0	3927
61	0	0	2103	4	4044	0	3928
62	0	0	2788	5	4045	0	3929
63	0	0	3301	5	4044	0	3928
64	0	0	3608	5	4045	0	3928
65	0	0	3789	5	4044	0	3928
66	0	0	3892	5	4044	0	3927
67	0	0	3947	5	4044	0	3928
68	0	0	3974	5	4044	0	3927
69	0	0	3988	5	4044	0	3927
70	0	0	3324	4	4044	0	3927
71	0	0	2163	4	4044	0	3927
72	0	0	1300	3	4044	0	3928
73	0	0	732	4	4045	0	3928
74	0	0	407	4	4044	0	3927
75	0	0	224	4	4043	0	3928
76	0	0	122	4	4044	0	3927
77	0	0	69	3	4044	0	3928
78	0	0	137	4	4044	0	3928
79	0	0	138	4	4045	0	3929
80	0	0	1095	4	4044	0	3927
81	0	0	2085	5	4044	0	3927
82	0	0	2764	4	4044	0	3928
83	0	0	3288	5	4045	0	3928
84	0	0	3603	5	4044	0	3927
85	0	0	3786	5	4044	0	3928
86	0	0	3888	5	4044	0	3927
87	0	0	3945	4	4044	0	3927
88	0	0	3976	4	4044	0	3927
89	0	0	3988	6	4043	0	3927
90	0	0	3317	4	4043	0	3927
91	0	0	2147	5	4043	0	3927
92	0	0	1293	3	4044	0	3928
93	0	0	733	4	4043	0	3927
94	0	0	407	4	4045	0	3928
95	0	0	222	4	4045	0	3928
96	0	0	121	4	4044	0	3928
97	0	0	68	4	4045	0	3928
98	0	0	120	4	4043	0	3928
99	0	0	125	4	4044	0	3927
100	0	0	1073	5	4043	0	3927
101	0	0	2072	5	4043	0	3926
102	0	0	2750	5	4044	0	3927
103	0	0	3279	5	4044	0	3927
104	0	0	3595	5	4044	0	3927
105	0	0	3783	5	4044	0	3928
106	0	0	3888	5	4045	0	3928
107	0	0	3943	4	4044	0	3928
108	0	0	3975	5	4045	0	3928
109	0	0	3987	5	4043	0	3927
110	0	0	3321	4	4043	0	3928
111	0	0	2159	4	4043	0	3927
112	0	0	1294	4	4044	0	3928
113	0	0	729	2	4044	0	3927
114	0	0	405	5	4043	0	3927
115	0	0	222	4	4043	0	3927
116	0	0	120	4	4043	0	3927
117	0	0	68	3	4044	0	3927
118	0	0	118	4	4044	0	3927
119	0	0	105	4	4045	0	3928
120	0	0	1060	5	4044	0	3927
121	0	0	2056	5	4044	0	3927
122	0	0	2746	5	4045	0	3928
123	0	0	3281	5	4043	0	3927
124	0	0	3596	5	4044	0	3927
125	0	0	3781	5	4043	0	3928
126	0	0	3886	5	4044	0	3928
127	0	0	3943	5	4044	0	3928
0	0	0	3974	5	4044	0	3927
1	0	0	3988	5	4044	0	3927
2	0	0	3343	4	4044	0	3928
3	0	0	2170	4	4045	0	3928
4	0	0	1304	4	4044	0	3928
5	0	0	739	4	4045	0	3928
6	0	0	408	4	4043	0	3927
7	0	0	224	4	4044	0	3927
8	0	0	122	4	4043	0	3927
9	0	0	69	4	4044	0	3928
10	0	0	137	4	4044	0	3927
11	0	0	131	6	4043	0	3927
12	0	0	1064	5	4043	0	3927
13	0	0	2078	4	4043	0	3927
14	0	0	2766	4	4044	0	3927
15	0	0	3288	5	4044	0	3927
16	0	0	3601	5	4045	0	3928
17	0	0	3787	5	4045	0	3928
18	0	0	3889	5	4043	0	3927
19	0	0	3944	5	4044	0	3928
20	0	0	3976	5	4045	0	3928
21	0	0	3989	5	4044	0	3927
22	0	0	3346	4	4043	0	3927
23	0	0	2183	4	4043	0	3927
24	0	0	1306	2	4044	0	3927
25	0	0	740	4	4043	0	3927
26	0	0	412	4	4045	0	3928
27	0	0	226	4	4044	0	3928
28	0	0	122	4	4043	0	3927
29	0	0	69	4	4044	0	3927
30	0	0	113	4	4043	0	3927
31	0	0	105	5	4043	0	3927
32	0	0	1054	5	4044	0	3929
33	0	0	2051	5	4045	0	3928
34	0	0	2732	5	4044	0	3928
35	0	0	3272	5	4043	0	3928
36	0	0	3591	5	4043	0	3927
37	0	0	3777	4	4043	0	3927
38	0	0	3885	4	4044	0	3927
39	0	0	3945	5	4045	0	3928
40	0	0	3972	5	4043	0	3927
41	0	0	3987	5	4044	0	3927
42	0	0	3339	4	4043	0	3927
43	0	0	2170	4	4044	0	3927
44	0	0	1303	4	4044	0	3928
45	0	0	739	4	4043	0	3927
46	0	0	408	4	4043	0	3927
47	0	0	224	4	4043	0	3927
48	0	0	123	4	4044	0	3928
49	0	0	69	4	4044	0	3930
50	0	0	131	4	4044	0	3928
51	0	0	112	4	4044	0	3927
52	0	0	1044	4	4044	0	3928
53	0	0	2059	5	4045	0	3928
54	0	0	2739	5	4044	0	3928
55	0	0	3274	5	4045	0	3928
56	0	0	3591	5	4043	0	3927
57	0	0	3779	5	4044	0	3928
58	0	0	3887	4	4044	0	3928
59	0	0	3943	5	4044	0	3928
60	0	0	3973	5	4043	0	3927
61	0	0	3987	5	4043	0	3927
62	0	0	3340	4	4043	0	3927
63	0	0	2164	4	4044	0	3927
64	0	0	1289	4	4044	0	3928
65	0	0	731	4	4043	0	3928
66	0	0	406	4	4043	0	3927
67	0	0	223	3	4044	0	3928
68	0	0	121	3	4044	0	3928
69	0	0	68	4	4044	0	3928
70	0	0	110	4	4044	0	3927
71	0	0	88	5	4043	0	3927
72	0	0	1047	4	4043	0	3927
73	0	0	2060	5	4044	0	3927
74	0	0	2739	4	4044	0	3928
75	0	0	3277	5	4044	0	3927
76	0	0	3594	5	4044	0	3927
77	0	0	3780	4	4044	0	3927
78	0	0	3885	5	4044	0	3928
79	0	0	3944	5	4044	0	3928
80	0	0	3974	5	4044	0	3927
81	0	0	3989	5	4045	0	3928
82	0	0	3347	4	4045	0	3928
83	0	0	2178	4	4044	0	3928
84	0	0	1308	4	4045	0	3929
85	0	0	742	4	4044	0	3927
86	0	0	410	4	4045	0	3929
87	0	0	225	4	4044	0	3927
88	0	0	123	4	4044	0	3928
89	0	0	69	4	4045	0	3928
90	0	0	161	4	4044	0	3927
91	0	0	137	4	4045	0	3928
92	0	0	1060	4	4044	0	3927
93	0	0	2078	5	4044	0	3927
94	0	0	2753	5	4044	0	3928
95	0	0	3282	5	4045	0	3928
96	0	0	3596	5	4044	0	3928
97	0	0	3782	5	4044	0	3928
98	0	0	3888	5	4045	0	3927
99	0	0	3944	5	4044	0	3928
100	0	0	3974	5	4044	0	3928
101	0	0	3989	5	4044	0	3928
102	0	0	3361	3	4044	0	3927
103	0	0	2193	4	4044	0	3928
104	0	0	1314	4	4045	0	3928
105	0	0	744	4	4044	0	3927
106	0	0	414	4	4044	0	3927
107	0	0	225	4	4044	0	3928
108	0	0	124	4	4044	0	3927
109	0	0	70	4	4044	0	3928
110	0	0	122	4	4045	0	3928
111	0	0	92	5	4043	0	3927
112	0	0	1042	5	4043	0	3927
113	0	0	2066	4	4044	0	3928
114	0	0	2756	5	4044	0	3928
115	0	0	3289	6	4044	0	3927
116	0	0	3600	4	4045	0	3929
117	0	0	3785	4	4045	0	3927
118	0	0	3889	5	4044	0	3927
119	0	0	3945	5	4044	0	3928
120	0	0	3973	5	4044	0	3927
121	0	0	3989	6	4044	0	3927
122	0	0	3362	4	4044	0	3927
123	0	0	2193	4	4044	0	3928
124	0	0	1321	4	4044	0	3928
125	0	0	744	4	4045	0	3928
126	0	0	415	4	4044	0	3927
127	0	0	227	5	4044	0	3927
0	0	0	124	4	4044	0	3928
1	0	0	70	4	4044	0	3928
2	0	0	108	4	4044	0	3928
3	0	0	63	5	4044	0	3928
4	0	0	1008	4	4045	0	3928
5	0	0	2048	4	4044	0	3928
6	0	0	2731	5	4044	0	3928
7	0	0	3269	5	4045	0	3929
8	0	0	3591	5	4044	0	3927
9	0	0	3778	6	4044	0	3927
10	0	0	3884	5	4044	0	3928
11	0	0	3943	5	4044	0	3928
12	0	0	3975	6	4044	0	3927
13	0	0	3987	5	4045	0	3928
14	0	0	3382	4	4045	0	3927
15	0	0	2204	4	4044	0	3927
16	0	0	1318	4	4044	0	3928
17	0	0	747	4	4044	0	3928
18	0	0	417	4	4044	0	3927
19	0	0	226	5	4044	0	3928
20	0	0	124	4	4044	0	3928
21	0	0	69	4	4044	0	3928
22	0	0	131	4	4045	0	3929
23	0	0	102	5	4043	0	3927
24	0	0	1022	5	4044	0	3928
25	0	0	2038	5	4044	0	3927
26	0	0	2738	5	4044	0	3928
27	0	0	3272	5	4044	0	3928
28	0	0	3591	5	4045	0	3928
29	0	0	3779	5	4045	0	3927
30	0	0	3886	5	4044	0	3927
31	0	1	3943	5	4044	0	3928
32	0	1	3975	5	4045	0	3928
33	0	1	3987	5	4044	0	3927
34	0	1	3372	5	4044	0	3927
35	0	1	2207	4	4044	0	3927
36	0	1	1335	4	4044	0	3928
37	0	1	751	5	4044	0	3928
38	0	1	418	4	4044	0	3928
39	0	1	229	4	4045	0	3928
40	0	1	125	4	4044	0	3928
41	0	1	70	4	4044	0	3928
42	0	1	136	4	4044	0	3928
43	0	1	109	5	4045	0	3928
44	0	1	1051	5	4045	0	3927
45	0	1	2064	5	4044	0	3927
46	0	1	2744	5	4044	0	3928
47	0	1	3277	5	4045	0	3928
48	0	1	3597	5	4044	0	3927
49	0	1	3779	5	4044	0	3928
50	0	1	3886	5	4044	0	3927
51	0	1	3943	5	4044	0	3928
52	0	1	3974	5	4044	0	3928
53	0	1	3987	5	4044	0	3927
54	0	1	3391	4	4045	0	3927
55	0	1	2201	4	4044	0	3928
56	0	1	1324	4	4045	0	3929
57	0	1	750	4	4044	0	3928
58	0	1	417	4	4044	0	3927
59	0	1	226	4	4044	0	3928
60	0	1	124	4	4045	0	3928
61	0	1	69	4	4044	0	3928
62	0	1	104	4	4043	0	3927
63	0	1	66	5	4043	0	3927
64	0	1	1007	5	4044	0	3927
65	0	1	2033	5	4044	0	3927
66	0	1	2719	4	4044	0	3928
67	0	1	3265	5	4044	0	3927
68	0	1	3587	4	4044	0	3927
69	0	1	3776	5	4044	0	3927
70	0	1	3884	5	4044	0	3928
71	0	1	3944	5	4045	0	3928
72	0	1	3972	5	4043	0	3927
73	0	1	3987	5	4045	0	3928
74	0	1	3371	4	4045	0	3927
75	0	1	2193	4	4044	0	3927
76	0	1	1321	4	4044	0	3928
77	0	1	743	4	4043	0	3928
78	0	1	413	3	4044	0	3927
79	0	1	226	4	4043	0	3927
80	0	1	124	4	4044	0	3928
81	1	1	69	4	4044	0	3928
82	1	1	125	4	4044	0	3927
83	1	1	89	5	4044	0	3927
84	1	1	1016	4	4044	0	3927
85	1	1	2035	5	4044	0	3928
86	1	1	2725	4	4044	0	3928
87	1	1	3270	5	4045	0	3929
88	1	1	3591	5	4045	0	3929
89	1	1	3776	5	4044	0	3928
90	1	1	3884	5	4044	0	3928
91	1	1	3943	5	4044	0	3928
92	1	1	3972	5	4044	0	3927
93	1	1	3987	5	4044	0	3927
94	1	1	3383	4	4044	0	3927
95	1	1	2200	4	4044	0	3928
96	1	1	1331	4	4044	0	3928
97	1	1	755	4	4045	0	3928
98	1	1	417	4	4044	0	3927
99	1	1	229	4	4043	0	3927
100	1	1	125	4	4044	0	3927
101	1	1	70	4	4044	0	3928
102	1	1	123	4	4044	0	3927
103	1	1	89	5	4043	0	3927
104	1	1	1022	4	4045	0	3927
105	1	1	2060	4	4044	0	3928
106	1	1	2753	4	4044	0	3928
107	1	1	3280	5	4044	0	3928
108	1	1	3597	5	4044	0	3927
109	1	1	3784	4	4044	0	3927
110	1	1	3887	5	4044	0	3928
111	1	1	3944	5	4044	0	3928
112	1	1	3974	5	4044	0	3927
113	1	1	3987	5	4044	0	3927
114	1	1	3395	4	4044	0	3927
115	1	1	2224	4	4044	0	3927
116	1	1	1330	4	4044	0	3928
117	1	1	754	4	4044	0	3927
118	1	1	419	4	4044	0	3927
119	1	1	229	4	4044	0	3928
120	1	1	124	4	4043	0	3928
121	1	1	70	4	4044	0	3928
122	1	1	146	4	4044	0	3928
123	1	1	124	4	4044	0	3927
124	1	1	1038	4	4044	0	3927
125	1	1	2048	5	4044	0	3928
126	1	1	2730	5	4045	0	3928
127	1	1	3272	5	4045	0	3928
0	1	1	3591	4	4045	0	3928
1	1	1	3776	4	4044	0	3928
2	1	1	3884	5	4045	0	3928
3	1	1	3944	5	4045	0	3928
4	1	1	3974	5	4045	0	3927
5	1	1	3987	5	4045	0	3928
6	1	1	3389	4	4045	0	3928
7	1	1	2205	4	4044	0	3928
8	1	1	1324	4	4045	0	3928
9	1	1	750	4	4044	0	3927
10	1	1	414	4	4045	0	3929
11	1	1	226	4	4045	0	3928
12	1	1	123	4	4044	0	3928
13	1	1	69	4	4045	0	3929
14	1	1	124	4	4044	0	3927
15	1	1	98	4	4043	0	3927
16	1	1	1012	4	4043	0	3927
17	1	1	2048	4	4043	0	3927
18	1	1	2737	4	4045	0	3927
19	1	1	3270	5	4044	0	3927
20	1	1	3589	5	4044	0	3927
21	1	1	3778	4	4044	0	3927
22	1	1	3885	5	4044	0	3927
23	1	1	3942	5	4044	0	3928
24	1	1	3972	5	4044	0	3927
25	1	1	3986	5	4044	0	3927
26	1	1	3411	4	4044	0	3928
27	1	1	2230	4	4045	0	3928
28	1	1	1327	4	4044	0	3928
29	1	1	753	4	4045	0	3928
30	1	1	418	4	4044	0	3927
31	1	1	230	4	4044	0	3928
32	1	1	124	4	4045	0	3928
33	1	1	69	4	4044	0	3928
34	1	1	124	4	4045	0	3928
35	1	1	78	4	4044	0	3927
36	1	1	984	4	4044	0	3927
37	1	1	2002	4	4045	0	3928
38	1	1	2703	4	4044	0	3928
39	1	1	3256	5	4045	0	3928
40	1	1	3581	5	4044	0	3927
41	1	1	3772	5	4044	0	3928
42	1	1	3882	5	4044	0	3927
43	1	1	3940	5	4044	0	3928
44	1	1	3971	5	4044	0	3928
45	1	1	3987	5	4044	0	3927
46	1	1	3401	4	4044	0	3927
47	1	1	2214	4	4044	0	3927
48	1	1	1338	4	4045	0	3928
49	1	1	758	4	4044	0	3927
50	1	1	419	4	4045	0	3928
51	1	1	230	4	4045	0	3928
52	1	1	125	4	4044	0	3927
53	1	1	70	4	4044	0	3928
54	1	1	145	4	4044	0	3927
55	1	1	100	5	4044	0	3927
56	1	1	1002	4	4044	0	3927
57	1	1	2036	4	4044	0	3927
58	1	1	2719	5	4044	0	3928
59	1	1	3261	5	4045	0	3929
60	1	1	3584	5	4044	0	3928
61	1	1	3774	5	4044	0	3928
62	1	1	3883	5	4044	0	3928
63	1	1	3942	5	4045	0	3928
64	1	1	3972	5	4044	0	3927
65	1	1	3987	5	4045	0	3927
66	1	1	3410	4	4044	0	3927
67	1	1	2219	4	4044	0	3927
68	1	1	1320	4	4044	0	3928
69	1	1	749	4	4044	0	3927
70	1	1	416	4	4043	0	3927
71	1	1	228	4	4044	0	3928
72	1	1	123	4	4044	0	3928
73	1	1	69	4	4044	0	3928
74	1	1	140	4	4044	0	3927
75	1	1	105	5	4044	0	3927
76	1	1	1028	5	4044	0	3928
77	1	1	2053	4	4044	0	3929
78	1	1	2747	5	4044	0	3928
79	1	1	3283	4	4045	0	3929
80	1	1	3597	5	4044	0	3927
81	1	1	3780	5	4044	0	3928
82	1	1	3887	5	4045	0	3928
83	1	1	3943	5	4044	0	3927
84	1	1	3972	5	4044	0	3927
85	1	1	3987	5	4044	0	3927
86	1	1	3401	4	4044	0	3927
87	1	1	2221	4	4044	0	3928
88	1	1	1339	4	4044	0	3928
89	1	1	759	4	4044	0	3927
90	1	1	419	4	4044	0	3927
91	1	1	229	4	4044	0	3927
92	1	1	124	4	4044	0	3928
93	1	1	70	4	4044	0	3928
94	1	1	118	4	4045	0	3929
95	1	1	70	5	4044	0	3927
96	1	1	989	5	4044	0	3928
97	1	1	2023	5	4045	0	3928
98	1	1	2723	5	4044	0	3928
99	1	1	3262	5	4044	0	3927
100	1	1	3584	4	4044	0	3927
101	1	1	3776	5	4044	0	3927
102	1	1	3883	5	4044	0	3927
103	1	1	3942	5	4045	0	3928
104	1	1	3971	5	4044	0	3927
105	1	1	3986	5	4044	0	3927
106	1	1	3408	4	4043	0	3928
107	1	1	2212	4	4044	0	3928
108	1	1	1326	4	4044	0	3928
109	1	1	752	4	4045	0	3929
110	1	1	419	4	4043	0	3928
111	1	1	230	4	4043	0	3928
112	1	1	123	4	4044	0	3928
113	1	1	69	4	4044	0	3928
114	1	1	109	4	4044	0	3927
115	1	1	58	5	4045	0	3928
116	1	1	989	5	4045	0	3927
117	1	1	2023	5	4044	0	3927
118	1	1	2715	5	4044	0	3928
119	1	1	3262	5	4044	0	3927
120	1	1	3586	5	4044	0	3927
121	1	1	3773	5	4044	0	3928
122	1	1	3883	5	4044	0	3928
123	1	1	3941	5	4044	0	3928
124	1	1	3974	5	4045	0	3928
125	1	1	3988	5	4043	0	3927
126	1	1	3410	4	4044	0	3927
127	1	1	2226	4	4044	0	3928
0	1	1	1343	4	4044	0	3928
1	1	1	762	4	4044	0	3927
2	1	1	420	3	4044	0	3927
3	1	1	230	4	4044	0	3927
4	1	1	125	4	4045	0	3928
5	1	1	70	4	4045	0	3928
6	1	1	135	4	4043	0	3927
7	1	1	76	4	4044	0	3928
8	1	1	974	4	4045	0	3927
9	1	1	2018	5	4044	0	3927
10	1	1	2708	5	4044	0	3928
11	1	1	3254	5	4044	0	3927
12	1	1	3584	5	4044	0	3927
13	1	1	3773	5	4044	0	3928
14	1	1	3880	5	4044	0	3928
15	1	1	3942	5	4045	0	3928
16	1	1	3971	5	4044	0	3928
17	1	1	3986	5	4044	0	3928
18	1	1	3426	4	4043	0	3928
19	1	1	2236	4	4044	0	3928
20	1	1	1350	4	4044	0	3928
21	1	1	765	4	4043	0	3927
22	1	1	426	4	4044	0	3927
23	1	1	232	4	4044	0	3928
24	1	1	126	4	4046	0	3928
25	1	1	70	4	4044	0	3927
26	1	1	129	4	4044	0	3927
27	1	1	69	4	4045	0	3928
28	1	1	979	4	4045	0	3928
29	1	1	2015	5	4044	0	3928
30	1	1	2718	5	4044	0	3928
31	1	1	3263	5	4044	0	3928
32	1	1	3587	5	4044	0	3928
33	1	1	3774	4	4044	0	3928
34	1	1	3884	5	4045	0	3928
35	1	1	3941	5	4044	0	3928
36	1	1	3972	5	4044	0	3927
37	1	1	3986	5	4044	0	3928
38	1	1	3433	4	4045	1	3927
39	1	1	2250	3	4044	0	3927
40	1	1	1367	4	4044	0	3928
41	1	1	774	4	4044	0	3927
42	1	1	429	4	4044	0	3927
43	1	1	235	4	4044	0	3927
44	1	1	128	4	4044	0	3928
45	1	1	71	4	4044	0	3928
46	1	1	109	4	4044	0	3927
47	1	1	58	6	4044	0	3927
48	1	1	952	5	4044	0	3928
49	1	1	1998	4	4044	0	3928
50	1	1	2694	5	4044	0	3928
51	1	1	3245	4	4045	0	3928
52	1	1	3574	4	4044	0	3927
53	1	1	3769	4	4044	0	3927
54	1	1	3880	5	4045	0	3928
55	1	1	3939	5	4043	0	3928
56	1	1	3972	5	4044	0	3927
57	1	1	3986	5	4044	0	3927
58	1	1	3419	4	4045	0	3928
59	1	1	2238	4	4044	0	3928
60	1	1	1352	4	4045	0	3928
61	1	1	766	4	4043	0	3930
62	1	1	426	4	4044	0	3927
63	1	1	233	3	4044	0	3928
64	1	1	126	4	4045	0	3928
65	1	1	70	4	4043	0	3928
66	1	1	122	3	4045	0	3929
67	1	1	62	5	4044	0	3928
68	1	1	961	4	4044	0	3928
69	1	1	1984	5	4044	0	3928
70	1	1	2676	4	4043	0	3928
71	1	1	3239	4	4044	0	3927
72	1	1	3571	5	4045	0	3928
73	1	1	3766	5	4045	0	3927
74	1	1	3879	5	4045	0	3927
75	1	1	3939	5	4044	0	3928
76	1	1	3971	5	4044	0	3927
77	1	1	3987	5	4044	0	3927
78	1	1	3423	4	4044	0	3928
79	1	1	2242	4	4045	0	3928
80	1	1	1357	4	4044	0	3928
81	1	1	770	4	4044	0	3928
82	1	1	426	3	4044	0	3928
83	1	1	234	4	4044	0	3928
84	1	1	128	4	4044	0	3928
85	1	1	71	4	4044	0	3928
86	1	1	117	4	4043	0	3927
87	1	1	62	6	4044	0	3928
88	1	1	944	5	4045	0	3927
89	1	1	1991	4	4044	0	3928
90	1	1	2681	5	4044	0	3928
91	1	1	3236	5	4044	0	3927
92	1	1	3573	6	4044	0	3927
93	1	1	3767	5	4045	0	3927
94	1	1	3879	5	4045	0	3928
95	1	1	3939	5	4044	0	3928
96	1	1	3972	5	4044	0	3927
97	1	1	3987	7	4044	0	3927
98	1	1	3430	4	4045	0	3928
99	1	1	2260	4	4044	0	3927
100	1	1	1370	4	4044	0	3928
101	1	1	779	4	4045	0	3928
102	1	1	434	4	4044	0	3927
103	1	1	236	4	4044	0	3928
104	1	1	129	4	4045	0	3928
105	1	1	72	4	4044	0	3928
106	1	1	166	3	4044	0	3927
107	1	1	110	4	4044	0	3927
108	1	1	997	5	4044	0	3927
109	1	1	2013	5	4044	0	3927
110	1	1	2705	5	4045	0	3928
111	1	1	3255	4	4044	0	3927
112	1	1	3580	5	4044	0	3928
113	1	1	3772	5	4044	0	3928
114	1	1	3883	5	4044	0	3928
115	1	1	3941	5	4044	0	3928
116	1	1	3974	5	4045	0	3928
117	1	1	3989	5	4044	0	3928
118	1	1	3442	3	4044	0	3928
119	1	1	2255	4	4045	0	3928
120	1	1	1368	4	4044	0	3928
121	1	1	772	4	4044	0	3927
122	1	1	429	4	4044	0	3928
123	1	1	235	4	4045	0	3927
124	1	1	129	4	4044	0	3927
125	1	1	71	4	4044	0	3928
126	1	1	124	4	4044	0	3927
127	1	1	65	5	4044	0	3927
0	1	1	929	4	4044	0	3928
1	1	1	1978	5	4044	0	3927
2	1	1	2678	5	4044	0	3928
3	1	1	3236	4	4045	0	3929
4	1	1	3573	5	4043	0	3927
5	1	1	3766	5	4044	0	3928
6	1	1	3879	5	4045	0	3928
7	1	1	3939	5	4044	0	3928
8	1	1	3971	5	4044	0	3927
9	1	1	3986	5	4043	0	3927
10	1	1	3444	4	4044	0	3927
11	1	1	2245	4	4044	0	3928
12	1	1	1365	4	4044	0	3928
13	1	1	774	4	4044	0	3927
14	1	1	431	4	4044	0	3927
15	1	1	235	4	4044	0	3927
16	1	1	128	4	4044	0	3927
17	1	1	72	4	4044	0	3928
18	1	1	108	4	4045	0	3928
19	1	1	57	4	4044	0	3927
20	1	1	919	4	4044	0	3928
21	1	1	1958	4	4045	0	3929
22	1	1	2661	4	4044	0	3928
23	1	1	3230	5	4044	0	3927
24	1	1	3566	5	4045	0	3929
25	1	1	3765	5	4045	0	3928
26	1	1	3876	5	4044	0	3928
27	1	1	3938	5	4045	0	3928
28	1	1	3971	5	4044	0	3927
29	1	1	3987	5	4044	0	3927
30	1	1	3464	4	4044	0	3927
31	1	1	2288	4	4044	0	3927
32	1	1	1395	4	4044	0	3928
33	1	1	792	4	4044	0	3927
34	1	1	440	4	4043	0	3927
35	1	1	242	4	4044	0	3928
36	1	1	132	3	4044	0	3928
37	1	1	74	4	4044	0	3928
38	1	1	118	4	4045	0	3929
39	1	1	63	5	4044	0	3927
40	1	1	917	3	4044	0	3928
41	1	1	1960	5	4045	0	3928
42	1	1	2663	5	4044	0	3928
43	1	1	3228	5	4044	0	3927
44	1	1	3567	5	4044	0	3928
45	1	1	3765	5	4045	0	3927
46	1	1	3876	5	4044	0	3927
47	1	1	3939	5	4043	0	3928
48	1	1	3971	5	4044	0	3927
49	1	1	3987	5	4044	0	3927
50	1	1	3467	3	4044	0	3928
51	1	1	2290	3	4044	0	3927
52	1	1	1396	4	4044	0	3927
53	1	1	792	4	4045	0	3929
54	1	1	442	4	4044	0	3928
55	1	1	241	3	4044	0	3928
56	1	1	132	4	4044	0	3929
57	1	1	74	4	4044	0	3928
58	1	1	125	4	4044	0	3927
59	1	1	65	5	4043	0	3927
60	1	1	936	5	4044	0	3927
61	1	1	1977	4	4044	0	3928
62	1	1	2673	4	4043	0	3928
63	1	1	3236	5	4044	0	3927
64	1	1	3569	5	4044	0	3927
65	1	1	3767	5	4044	0	3927
66	1	1	3879	5	4044	0	3927
67	1	1	3940	4	4044	0	3928
68	1	1	3973	5	4045	0	3928
69	1	1	3988	5	4044	0	3928
70	1	1	3478	3	4044	0	3928
71	1	1	2295	4	4045	0	3928
72	1	1	1402	4	4043	0	3928
73	1	1	791	4	4043	0	3928
74	1	1	441	4	4044	0	3927
75	1	1	243	4	4044	0	3927
76	1	1	132	4	4044	0	3927
77	1	1	74	4	4044	0	3928
78	1	1	106	4	4044	0	3927
79	1	1	58	4	4044	0	3928
80	1	1	910	5	4045	0	3927
81	1	1	1963	4	4044	0	3927
82	1	1	2662	4	4045	0	3928
83	1	1	3224	5	4043	0	3927
84	1	1	3565	5	4044	0	3927
85	1	1	3764	3	4044	0	3928
86	1	1	3877	5	4044	0	3928
87	1	1	3939	4	4044	0	3928
88	1	1	3971	5	4044	0	3928
89	1	1	3987	5	4044	0	3927
90	1	1	3465	4	4044	0	3927
91	1	1	2268	4	4044	0	3927
92	1	1	1378	4	4044	0	3928
93	1	1	783	4	4045	0	3928
94	1	1	437	5	4044	0	3927
95	1	1	239	3	4044	0	3927
96	1	1	130	4	4045	0	3928
97	1	1	73	4	4044	0	3928
98	1	1	123	4	4044	0	3927
99	1	1	65	3	4044	0	3927
100	1	1	913	4	4044	0	3927
101	1	1	1954	5	4044	0	3927
102	1	1	2669	4	4044	0	3928
103	1	1	3230	5	4044	0	3928
104	1	1	3566	5	4044	0	3929
105	1	1	3765	5	4045	0	3928
106	1	1	3878	5	4045	0	3927
107	1	1	3942	5	4045	0	3928
108	1	1	3972	5	4044	0	3927
109	1	1	3988	5	4044	0	3927
110	1	1	3469	3	4044	0	3927
111	1	1	2279	4	4044	0	3928
112	1	1	1390	4	4044	0	3928
113	1	1	784	4	4044	0	3927
114	1	1	438	4	4044	0	3927
115	1	1	242	4	4044	0	3927
116	1	1	132	4	4044	0	3927
117	1	1	74	4	4044	0	3928
118	1	1	122	4	4045	0	3928
119	1	1	65	4	4044	0	3928
120	1	1	935	4	4044	0	3928
121	1	1	1976	5	4045	0	3928
122	1	1	2668	5	4043	0	3928
123	1	1	3229	5	4044	0	3928
124	1	1	3568	5	4044	0	3927
125	1	1	3766	5	4044	0	3927
126	1	1	3878	5	4044	0	3928
127	1	1	3940	5	4044	0	3928
0	1	1	3971	5	4043	0	3926
1	1	1	3988	5	4044	0	3928
2	1	1	3481	4	4045	0	3928
3	1	1	2300	4	4044	0	3928
4	1	1	1402	4	4044	0	3928
5	1	1	790	4	4045	0	3928
6	1	1	442	6	4044	0	3927
7	1	1	243	4	4043	0	3927
8	1	1	134	4	4044	0	3928
9	1	1	74	4	4043	0	3928
10	1	1	119	4	4044	0	3928
11	1	1	64	4	4044	0	3927
12	1	1	920	5	4044	0	3927
13	1	1	1961	5	4044	0	3927
14	1	1	2670	4	4044	0	3928
15	1	1	3230	5	4044	0	3927
16	1	1	3570	5	4044	0	3928
17	1	1	3767	5	4045	0	3928
18	1	1	3879	5	4044	0	3928
19	1	1	3942	5	4045	0	3928
20	1	1	3972	5	4044	0	3927
21	1	1	3987	5	4044	0	3927
22	1	1	3495	4	4043	0	3927
23	1	1	2290	4	4044	0	3927
24	1	1	1396	4	4043	0	3928
25	1	1	792	4	4044	0	3928
26	1	1	443	4	4044	0	3928
27	1	1	242	4	4044	0	3928
28	1	1	132	4	4045	0	3929
29	1	1	75	4	4044	0	3928
30	1	1	128	3	4045	0	3928
31	1	1	67	4	4044	0	3927
32	1	1	905	5	4044	0	3927
33	1	1	1946	4	4044	0	3927
34	1	1	2651	5	4043	0	3927
35	1	1	3218	5	4044	0	3927
36	1	1	3560	5	4044	0	3927
37	1	1	3761	5	4044	0	3927
38	1	1	3877	5	4044	0	3927
39	1	1	3937	5	4044	0	3928
40	1	1	3971	5	4044	0	3927
41	1	1	3987	5	4044	0	3927
42	1	1	3488	4	4044	0	3928
43	1	1	2304	4	4045	0	3928
44	1	1	1399	4	4044	0	3928
45	1	1	789	4	4045	0	3929
46	1	1	441	4	4043	0	3928
47	1	1	242	4	4044	0	3927
48	1	1	132	4	4044	0	3927
49	1	1	75	4	4044	0	3927
50	1	1	118	4	4044	0	3927
51	1	1	63	4	4044	0	3927
52	1	1	905	5	4044	0	3927
53	1	1	1943	4	4044	0	3927
54	1	1	2644	5	4045	0	3928
55	1	1	3213	5	4044	0	3928
56	1	1	3559	5	4045	0	3928
57	1	1	3761	5	4045	0	3927
58	1	1	3875	5	4044	0	3928
59	1	1	3938	5	4044	0	3928
60	1	1	3971	5	4044	0	3928
61	1	1	3988	5	4044	0	3928
62	1	1	3510	4	4044	0	3928
63	1	1	2305	4	4044	0	3928
64	1	1	1403	4	4044	0	3928
65	1	1	797	4	4044	0	3927
66	1	1	445	4	4044	0	3927
67	1	1	243	4	4044	0	3927
68	1	1	134	4	4044	0	3928
69	1	1	76	4	4045	0	3928
70	1	1	148	4	4044	0	3927
71	1	1	77	5	4044	0	3928
72	1	1	918	5	4045	0	3928
73	1	1	1962	4	4044	0	3927
74	1	1	2675	5	4045	0	3928
75	1	1	3232	5	4044	0	3927
76	1	1	3568	5	4044	0	3929
77	1	1	3768	5	4045	0	3929
78	1	1	3879	5	4044	0	3928
79	1	1	3939	5	4044	0	3928
80	1	1	3972	5	4044	0	3927
81	1	1	3988	5	4044	0	3927
82	1	1	3499	3	4044	0	3927
83	1	1	2310	4	4044	0	3927
84	1	1	1416	4	4044	0	3928
85	1	1	798	4	4045	0	3928
86	1	1	447	4	4044	0	3927
87	1	1	245	4	4044	0	3927
88	1	1	133	4	4045	0	3928
89	1	1	75	4	4043	0	3928
90	1	1	133	3	4044	0	3927
91	1	1	70	5	4044	0	3927
92	1	1	931	5	4044	0	3927
93	1	1	1973	4	4044	0	3928
94	1	1	2671	5	4044	0	3928
95	1	1	3230	5	4043	0	3927
96	1	1	3568	5	4044	0	3927
97	1	1	3765	5	4044	0	3927
98	1	1	3877	5	4045	0	3927
99	1	1	3940	5	4044	0	3928
100	1	1	3971	5	4044	0	3927
101	1	1	3987	5	4044	0	3928
102	1	1	3505	4	4045	0	3928
103	1	1	2291	4	4044	0	3927
104	1	1	1388	4	4043	0	3928
105	1	1	789	4	4044	0	3927
106	1	1	438	4	4044	0	3927
107	1	1	240	3	4044	0	3927
108	1	1	131	4	4044	0	3927
109	1	1	74	3	4044	0	3928
110	1	1	133	4	4045	0	3929
111	1	1	69	5	4043	0	3927
112	1	1	927	5	4044	0	3927
113	1	1	1972	4	4044	0	3928
114	1	1	2680	5	4044	0	3928
115	1	1	3235	5	4044	0	3927
116	1	1	3570	5	4044	0	3927
117	1	1	3767	5	4044	0	3927
118	1	1	3879	5	4044	0	3928
119	1	1	3940	5	4044	0	3928
120	1	1	3972	5	4044	0	3927
121	1	1	3987	5	4044	0	3927
122	1	1	3489	4	4044	0	3928
123	1	1	2297	3	4045	0	3928
124	1	1	1397	4	4044	0	3928
125	1	1	793	3	4044	0	3928
126	1	1	440	3	4043	0	3928
127	1	1	242	4	4045	0	3929
0	1	1	131	3	4045	0	3928
1	1	1	74	4	4044	0	3928
2	1	1	126	4	4044	0	3927
3	1	1	66	4	4044	0	3927
4	1	1	888	3	4045	0	3928
5	1	1	1943	4	4044	0	3928
6	1	1	2652	4	4044	0	3928
7	1	1	3219	5	4044	0	3927
8	1	1	3560	5	4044	0	3927
9	1	1	3762	4	4044	0	3928
10	1	1	3876	5	4045	0	3928
11	1	1	3939	5	4045	0	3929
12	1	1	3973	5	4045	0	3929
13	1	1	3988	5	4045	0	3928
14	1	1	3511	5	4044	0	3928
15	1	1	2312	4	4045	0	3929
16	1	1	1398	4	4044	0	3928
17	1	1	794	4	4044	0	3928
18	1	1	443	4	4044	0	3929
19	1	1	242	4	4045	0	3928
20	1	1	132	4	4044	0	3928
21	1	1	75	4	4044	0	3928
22	1	1	130	4	4044	0	3927
23	1	1	67	5	4044	0	3927
24	1	1	912	5	4044	0	3927
25	1	1	1958	4	4044	0	3928
26	1	1	2653	4	4044	0	3928
27	1	1	3224	5	4045	0	3929
28	1	1	3563	5	4044	0	3928
29	1	1	3763	6	4044	0	3928
30	1	1	3877	5	4044	0	3928
31	1	1	3939	5	4044	0	3928
32	1	1	3971	5	4044	0	3928
33	1	1	3987	5	4044	0	3928
34	1	1	3516	3	4045	0	3928
35	1	1	2320	3	4044	0	3928
36	1	1	1413	4	4043	0	3928
37	1	1	797	4	4044	0	3927
38	1	1	445	4	4044	0	3927
39	1	1	245	3	4044	0	3928
40	1	1	133	4	4044	0	3927
41	1	1	75	3	4045	0	3929
42	1	1	123	4	4044	0	3927
43	1	1	64	4	4044	0	3927
44	1	1	890	5	4044	0	3928
45	1	1	1952	5	4044	0	3928
46	1	1	2667	5	4043	0	3928
47	1	1	3229	4	4046	0	3929
48	1	1	3569	5	4044	0	3928
49	1	1	3765	5	4044	0	3928
50	1	1	3877	5	4044	0	3928
51	1	1	3939	5	4044	0	3928
52	1	1	3971	5	4044	0	3927
53	1	1	3988	5	4044	0	3928
54	1	1	3519	4	4045	0	3928
55	1	1	2317	4	4044	0	3927
56	1	1	1404	4	4044	0	3928
57	1	1	798	4	4044	0	3927
58	1	1	446	4	4044	0	3928
59	1	1	243	5	4044	0	3928
60	1	1	133	3	4044	0	3928
61	1	1	74	4	4044	0	3928
62	1	1	150	4	4043	0	3928
63	1	1	75	4	4044	0	3927
64	1	1	907	3	4044	0	3928
65	1	1	1955	4	4044	0	3928
66	1	1	2666	4	4044	0	3928
67	1	1	3228	4	4045	0	3929
68	1	1	3566	5	4044	0	3927
69	1	1	3763	5	4044	0	3928
70	1	1	3878	5	4045	0	3929
71	1	1	3938	5	4044	0	3928
72	1	1	3971	6	4044	0	3927
73	1	1	3988	5	4044	0	3927
74	1	1	3499	3	4045	0	3928
75	1	1	2307	4	4044	0	3928
76	1	1	1404	4	4045	0	3928
77	1	1	792	4	4044	0	3927
78	1	1	442	4	4044	0	3929
79	1	1	242	4	4045	0	3928
80	1	1	133	4	4044	0	3928
81	1	1	74	4	4044	0	3928
82	1	1	127	3	4045	0	3929
83	1	1	66	4	4045	0	3928
84	1	1	899	6	4044	0	3927
85	1	1	1938	5	4044	0	3927
86	1	1	2651	5	4044	0	3928
87	1	1	3217	5	4044	0	3927
88	1	1	3561	5	4044	0	3927
89	1	1	3762	4	4045	0	3928
90	1	1	3876	5	4045	0	3927
91	1	1	3940	5	4045	0	3929
92	1	1	3971	5	4044	0	3927
93	1	1	3987	5	4044	0	3927
94	1	1	3518	4	4044	0	3928
95	1	1	2303	3	4045	0	3929
96	1	1	1400	4	4044	0	3928
97	1	1	794	4	4044	0	3928
98	1	1	444	4	4044	0	3929
99	1	1	242	4	4045	0	3929
100	1	1	131	4	4044	0	3928
101	1	1	74	4	4044	0	3928
102	1	1	153	5	4045	0	3928
103	1	1	77	6	4044	0	3927
104	1	1	912	4	4044	0	3928
105	1	1	1964	4	4044	0	3927
106	1	1	2680	4	4044	0	3928
107	1	1	3235	5	4044	0	3927
108	1	1	3570	4	4044	0	3927
109	1	1	3767	5	4043	0	3927
110	1	1	3878	5	4045	0	3927
111	1	1	3939	5	4044	0	3928
112	1	1	3972	5	4044	0	3927
113	1	1	3988	5	4043	0	3927
114	1	1	3517	4	4044	0	3928
115	1	1	2321	4	4045	0	3929
116	1	1	1413	4	4043	0	3928
117	1	1	797	4	4045	0	3928
118	1	1	445	4	4044	0	3928
119	1	1	244	4	4044	0	3928
120	1	1	133	4	4045	0	3928
121	1	1	74	4	4043	0	3928
122	1	1	140	4	4045	0	3928
123	1	1	72	4	4044	0	3927
124	1	1	905	5	4044	0	3928
125	1	1	1955	5	4045	0	3928
126	1	1	2659	4	4043	0	3928
127	1	1	3222	5	4045	0	3928
0	1	1	3565	6	4044	0	3928
1	1	1	3763	5	4044	0	3928
2	1	1	3877	5	4045	0	3929
3	1	1	3939	5	4043	0	3928
4	1	1	3971	5	4045	0	3929
5	1	1	3988	4	4044	0	3928
6	1	1	3521	4	4044	0	3928
7	1	1	2292	4	4045	0	3929
8	1	1	1386	4	4043	0	3928
9	1	1	786	4	4043	0	3927
10	1	1	439	4	4044	0	3927
11	1	1	239	4	4043	0	3927
12	1	1	130	4	4044	0	3928
13	1	1	73	4	4044	0	3928
14	1	1	136	4	4044	0	3927
15	1	1	69	4	4044	0	3928
16	1	1	892	4	4045	0	3927
17	1	1	1937	5	4044	0	3928
18	1	1	2652	4	4044	0	3928
19	1	1	3219	5	4045	0	3929
20	1	1	3560	5	4044	0	3928
21	1	1	3762	5	4044	0	3928
22	1	1	3876	5	4044	0	3928
23	1	1	3937	5	4044	0	3928
24	1	1	3972	4	4045	0	3927
25	1	1	3987	5	4044	0	3927
26	1	1	3518	4	4044	0	3927
27	1	1	2321	4	4044	0	3927
28	1	1	1415	4	4043	0	3928
29	1	1	798	4	4043	0	3927
30	1	1	445	4	4044	0	3928
31	1	1	244	4	4045	0	3928
32	1	1	131	3	4044	0	3927
33	1	1	74	4	4045	0	3928
34	1	1	136	3	4044	0	3927
35	1	1	71	4	4043	0	3928
36	1	1	888	5	4044	0	3928
37	1	1	1940	5	4044	0	3927
38	1	1	2652	4	4043	0	3928
39	1	1	3220	4	4045	0	3929
40	1	1	3564	5	4044	0	3927
41	1	1	3763	5	4044	0	3927
42	1	1	3876	5	4044	0	3927
43	1	1	3938	5	4044	0	3928
44	1	1	3971	5	4043	0	3927
45	1	1	3987	5	4045	0	3928
46	1	1	3537	4	4045	0	3927
47	1	1	2323	4	4044	0	3927
48	1	1	1419	4	4043	0	3928
49	1	1	805	4	4043	0	3927
50	1	1	447	4	4044	0	3927
51	1	1	245	4	4044	0	3928
52	1	1	134	4	4045	0	3929
53	1	1	75	4	4043	0	3928
54	1	1	129	4	4044	0	3928
55	1	1	67	4	4044	0	3927
56	1	1	890	5	4044	0	3927
57	1	1	1944	5	4044	0	3927
58	1	1	2659	5	4044	0	3928
59	1	1	3222	4	4043	0	3927
60	1	1	3562	5	4044	0	3928
61	1	1	3764	4	4045	0	3928
62	1	1	3875	5	4044	0	3928
63	1	1	3940	5	4045	0	3928
64	1	1	3971	4	4044	0	3927
65	1	1	3987	5	4044	0	3928
66	1	1	3537	4	4044	0	3928
67	1	1	2340	4	4044	0	3927
68	1	1	1419	4	4043	0	3928
69	1	1	806	4	4044	0	3928
70	1	1	449	4	4043	0	3928
71	1	1	247	4	4044	0	3928
72	1	1	134	4	4045	0	3929
73	1	1	75	4	4043	0	3928
74	1	1	158	5	4043	0	3927
75	1	1	78	4	4044	0	3927
76	1	1	899	5	4043	0	3927
77	1	1	1942	5	4044	0	3928
78	1	1	2653	5	4045	0	3928
79	1	1	3224	4	4043	0	3927
80	1	1	3561	5	4043	0	3928
81	1	1	3762	5	4044	0	3927
82	1	1	3874	5	4044	0	3928
83	1	1	3938	5	4044	0	3928
84	1	1	3971	5	4043	0	3927
85	1	1	3987	5	4043	0	3927
86	1	1	3524	4	4044	0	3928
87	1	1	2301	4	4045	0	3929
88	1	1	1395	4	4044	0	3928
89	1	1	793	3	4045	0	3929
90	1	1	442	4	4044	0	3928
91	1	1	241	4	4044	0	3927
92	1	1	131	4	4044	0	3927
93	1	1	74	4	4044	0	3928
94	1	1	136	4	4044	0	3927
95	1	1	70	4	4044	0	3927
96	1	1	879	5	4044	0	3927
97	1	1	1936	5	4044	0	3928
98	1	1	2647	5	4045	0	3929
99	1	1	3213	5	4044	0	3928
100	1	1	3555	4	4044	0	3928
101	1	1	3761	4	4045	0	3928
102	1	1	3873	6	4044	0	3928
103	1	1	3937	5	4044	0	3928
104	1	1	3971	5	4044	0	3928
105	1	1	3987	6	4044	0	3928
106	1	1	3542	4	4044	0	3928
107	1	1	2341	4	4044	0	3928
108	1	1	1426	4	4044	0	3928
109	1	1	805	4	4044	0	3927
110	1	1	448	4	4044	0	3927
111	1	1	247	5	4044	0	3927
112	1	1	134	4	4044	0	3927
113	1	1	75	4	4043	0	3928
114	1	1	160	3	4045	0	3928
115	1	1	78	5	4045	0	3927
116	1	1	898	5	4044	0	3928
117	1	1	1943	4	4045	0	3929
118	1	1	2646	5	4044	0	3928
119	1	1	3213	4	4044	0	3928
120	1	1	3559	5	4044	0	3929
121	1	1	3761	5	4045	0	3928
122	1	1	3873	4	4044	0	3928
123	1	1	3938	5	4044	0	3928
124	1	1	3971	5	4044	0	3927
125	1	1	3987	5	4044	0	3927
126	1	1	3543	4	4044	0	3928
127	1	1	2325	4	4044	0	3927
0	1	1	1412	4	4044	0	3928
1	1	1	802	4	4044	0	3927
2	1	1	443	4	4044	0	3927
3	1	1	244	4	4044	0	3927
4	1	1	133	4	4044	0	3928
5	1	1	75	4	4045	0	3929
6	1	1	168	4	4044	0	3927
7	1	1	82	6	4044	0	3929
8	1	1	900	4	4045	0	3928
9	1	1	1946	5	4045	0	3928
10	1	1	2665	4	4044	0	3928
11	1	1	3226	5	4044	0	3928
12	1	1	3563	5	4044	0	3928
13	1	1	3764	5	4044	0	3928
14	1	1	3879	5	4046	0	3929
15	1	1	3938	5	4044	0	3928
16	1	1	3971	5	4044	0	3927
17	1	1	3986	5	4044	0	3927
18	1	1	3541	5	4044	0	3927
19	1	1	2335	4	4044	0	3928
20	1	1	1417	4	4045	0	3928
21	1	1	804	4	4044	0	3927
22	1	1	450	4	4044	0	3928
23	1	1	246	3	4044	0	3927
24	1	1	133	4	4045	0	3928
25	1	1	76	4	4044	0	3928
26	1	1	154	3	4045	0	3929
27	1	1	77	4	4044	0	3928
28	1	1	891	5	4044	0	3928
29	1	1	1951	4	4044	0	3928
30	1	1	2657	5	4044	0	3928
31	1	1	3226	4	4044	0	3927
32	1	1	3563	4	4044	0	3927
33	1	1	3762	6	4044	0	3927
34	1	1	3874	5	4044	0	3927
35	1	1	3940	5	4045	0	3928
36	1	1	3971	4	4044	0	3927
37	1	1	3986	5	4044	0	3929
38	1	1	3548	4	4045	0	3928
39	1	1	2323	3	4044	0	3928
40	1	1	1408	4	4044	0	3928
41	1	1	799	4	4044	0	3928
42	1	1	442	4	4044	0	3928
43	1	1	242	4	4044	0	3928
44	1	1	132	5	4044	0	3928
45	1	1	74	4	4043	0	3928
46	1	1	147	3	4045	0	3929
47	1	1	73	4	4044	0	3927
48	1	1	876	5	4043	0	3927
49	1	1	1934	4	4044	0	3928
50	1	1	2640	4	4043	0	3927
51	1	1	3209	5	4044	0	3927
52	1	1	3553	6	4044	0	3927
53	1	1	3759	6	4044	0	3927
54	1	1	3873	5	4044	0	3928
55	1	1	3936	5	4044	0	3928
56	1	1	3969	5	4044	0	3927
57	1	1	3986	6	4044	0	3927
58	1	1	3547	5	4044	0	3928
59	1	1	2342	4	4044	0	3928
60	1	1	1420	4	4045	0	3929
61	1	1	807	4	4044	0	3928
62	1	1	449	4	4044	0	3928
63	1	1	247	4	4045	0	3929
64	1	1	133	4	4044	0	3928
65	1	1	75	4	4045	0	3928
66	1	1	142	4	4044	0	3927
67	1	1	71	4	4044	0	3927
68	1	1	885	4	4044	0	3927
69	1	1	1937	5	4044	0	3927
70	1	1	2649	5	4044	0	3928
71	1	1	3220	5	4044	0	3928
72	1	1	3560	5	4044	0	3927
73	1	1	3760	5	4044	0	3928
74	1	1	3875	5	4045	0	3929
75	1	1	3937	5	4044	0	3928
76	1	1	3971	4	4045	0	3929
77	1	1	3987	5	4044	0	3928
78	1	1	3542	4	4044	0	3928
79	1	1	2338	5	4044	0	3928
80	1	1	1422	4	4043	0	3928
81	1	1	808	4	4043	0	3927
82	1	1	447	4	4043	0	3927
83	1	1	245	4	4043	0	3928
84	1	1	133	3	4044	0	3927
85	1	1	74	4	4043	0	3928
86	1	1	146	4	4044	0	3927
87	1	1	72	5	4043	0	3927
88	1	1	878	4	4043	0	3927
89	1	1	1937	6	4044	0	3928
90	1	1	2641	5	4045	0	3928
91	1	1	3208	4	4044	0	3928
92	1	1	3553	5	4044	0	3929
93	1	1	3759	5	4045	0	3928
94	1	1	3871	4	4044	0	3928
95	1	1	3937	5	4045	0	3928
96	1	1	3970	4	4044	0	3927
97	1	1	3985	5	4043	0	3927
98	1	1	3562	4	4044	0	3927
99	1	1	2356	3	4044	0	3928
100	1	1	1432	4	4043	0	3928
101	1	1	812	4	4044	0	3927
102	1	1	452	3	4043	0	3927
103	1	1	248	4	4043	0	3927
104	1	1	134	4	4044	0	3927
105	1	1	74	4	4044	0	3928
106	1	1	148	3	4045	0	3928
107	1	1	72	3	4044	0	3927
108	1	1	867	4	4044	0	3928
109	1	1	1913	4	4045	0	3929
110	1	1	2622	5	4043	0	3928
111	1	1	3203	5	4044	0	3928
112	1	1	3550	4	4043	0	3928
113	1	1	3755	5	4044	0	3928
114	1	1	3871	5	4044	0	3927
115	1	1	3936	5	4044	0	3928
116	1	1	3968	5	4043	0	3927
117	1	1	3986	5	4044	0	3928
118	1	1	3545	5	4045	0	3927
119	1	1	2339	3	4044	0	3928
120	1	1	1430	4	4045	0	3928
121	1	1	811	4	4044	0	3927
122	1	1	450	4	4043	0	3928
123	1	1	246	4	4044	0	3927
124	1	1	134	4	4044	0	3928
125	1	1	75	4	4043	0	3928
126	1	1	134	4	4044	0	3928
127	1	1	67	3	4043	0	3928
0	1	1	846	5	4043	0	3928
1	1	1	1917	4	4044	0	3928
2	1	1	2624	4	4044	0	3928
3	1	1	3200	4	4045	0	3928
4	1	1	3552	5	4045	0	3927
5	1	1	3754	5	4045	0	3927
6	1	1	3873	5	4046	0	3927
7	1	1	3935	5	4043	0	3927
8	1	1	3968	5	4044	0	3927
9	1	1	3985	5	4044	0	3927
10	1	1	3543	5	4044	0	3927
11	1	1	2336	3	4044	0	3928
12	1	1	1413	4	4043	0	3928
13	1	1	803	4	4043	0	3928
14	1	1	448	4	4044	0	3929
15	1	1	244	4	4045	0	3929
16	1	1	133	3	4044	0	3928
17	1	1	74	4	4045	0	3928
18	1	1	162	4	4044	0	3927
19	1	1	79	4	4043	0	3927
20	1	1	878	4	4044	0	3927
21	1	1	1926	4	4044	0	3928
22	1	1	2637	4	4044	0	3927
23	1	1	3211	5	4043	0	3927
24	1	1	3553	5	4044	0	3927
25	1	1	3757	5	4044	0	3928
26	1	1	3873	4	4044	0	3928
27	1	1	3936	5	4043	0	3928
28	1	1	3970	5	4044	0	3927
29	1	1	3986	5	4043	0	3927
30	1	1	3549	4	4043	0	3928
31	1	1	2357	3	4044	0	3928
32	1	1	1449	4	4043	0	3928
33	1	1	817	4	4045	0	3929
34	1	1	456	4	4044	0	3927
35	1	1	250	4	4044	0	3928
36	1	1	136	4	4045	0	3928
37	1	1	75	4	4043	0	3928
38	1	1	147	4	4045	0	3928
39	1	1	73	4	4044	0	3927
40	1	1	860	5	4044	0	3927
41	1	1	1932	4	4044	0	3928
42	1	1	2642	5	4044	0	3928
43	1	1	3208	5	4044	0	3927
44	1	1	3556	5	4043	0	3928
45	1	1	3758	5	4044	0	3928
46	1	1	3871	4	4044	0	3928
47	1	1	3937	5	4045	0	3929
48	1	1	3970	5	4044	0	3928
49	1	1	3987	5	4044	0	3929
50	1	1	3560	4	4045	0	3928
51	1	1	2331	3	4044	0	3928
52	1	1	1419	3	4043	0	3928
53	1	1	805	4	4044	0	3927
54	1	1	449	4	4043	0	3927
55	1	1	244	3	4044	0	3927
56	1	1	133	3	4044	0	3927
57	1	1	74	4	4044	0	3927
58	1	1	137	4	4044	0	3927
59	1	1	68	4	4043	0	3927
60	1	1	864	5	4044	0	3928
61	1	1	1926	4	4044	0	3927
62	1	1	2641	4	4044	0	3928
63	1	1	3215	5	4045	0	3929
64	1	1	3558	5	4045	0	3928
65	1	1	3759	4	4044	0	3928
66	1	1	3875	5	4045	0	3929
67	1	1	3937	5	4043	0	3928
68	1	1	3969	5	4043	0	3927
69	1	1	3986	5	4044	0	3928
70	1	1	3549	4	4044	0	3928
71	1	1	2343	3	4044	0	3928
72	1	1	1430	4	4043	0	3928
73	1	1	812	4	4044	0	3927
74	1	1	450	4	4043	0	3927
75	1	1	246	4	4044	0	3927
76	1	1	134	4	4044	0	3928
77	1	1	74	4	4044	0	3928
78	1	1	154	3	4044	0	3927
79	1	1	76	4	4044	0	3927
80	1	1	866	4	4044	0	3927
81	1	1	1926	4	4044	0	3928
82	1	1	2624	4	4045	0	3929
83	1	1	3196	5	4043	0	3928
84	1	1	3548	5	4044	0	3928
85	1	1	3754	4	4045	0	3929
86	1	1	3870	4	4044	0	3928
87	1	1	3935	5	4044	0	3928
88	1	1	3969	5	4045	0	3928
89	1	1	3986	5	4045	0	3927
90	1	1	3555	4	4044	0	3927
91	1	1	2356	3	4044	0	3927
92	1	1	1435	4	4043	0	3928
93	1	1	814	3	4043	0	3927
94	1	1	455	4	4044	0	3927
95	1	1	248	4	4043	0	3928
96	1	1	135	4	4044	0	3928
97	1	1	75	4	4044	0	3928
98	1	1	144	4	4043	0	3928
99	1	1	72	4	4044	0	3927
100	1	1	859	4	4044	0	3928
101	1	1	1920	3	4044	0	3928
102	1	1	2638	4	4045	0	3928
103	1	1	3212	4	4044	0	3927
104	1	1	3555	5	4044	0	3928
105	1	1	3758	5	4045	0	3928
106	1	1	3872	4	4044	0	3928
107	1	1	3938	5	4045	0	3928
108	1	1	3969	5	4044	0	3927
109	1	1	3986	5	4044	0	3928
110	1	1	3561	3	4045	0	3929
111	1	1	2348	3	4044	0	3928
112	1	1	1436	3	4044	0	3928
113	1	1	809	4	4044	0	3928
114	1	1	451	4	4044	0	3928
115	1	1	248	4	4044	0	3928
116	1	1	135	3	4044	0	3928
117	1	1	74	3	4043	0	3928
118	1	1	157	4	4043	0	3927
119	1	1	77	4	4043	0	3927
120	1	1	845	5	4043	0	3927
121	1	1	1915	4	4044	0	3928
122	1	1	2606	5	4044	0	3928
123	1	1	3185	5	4044	0	3927
124	1	1	3542	5	4044	0	3927
125	1	1	3749	5	4043	0	3926
126	1	1	3868	5	4044	0	3928
127	1	1	3933	5	4044	0	3927
0	1	1	3968	5	4044	0	3928
1	1	1	3985	5	4044	0	3928
2	1	1	3571	4	4043	0	3927
3	1	1	2343	4	4044	0	3928
4	1	1	1432	4	4045	0	3929
5	1	1	813	3	4044	0	3927
6	1	1	454	4	4044	0	3928
7	1	1	247	4	4045	0	3928
8	1	1	134	3	4044	0	3928
9	1	1	75	4	4045	0	3928
10	1	1	159	3	4043	0	3927
11	1	1	79	4	4043	0	3928
12	1	1	850	5	4044	0	3927
13	1	1	1902	4	4044	0	3928
14	1	1	2637	3	4044	0	3928
15	1	1	3207	5	4044	0	3927
16	1	1	3552	4	4044	0	3927
17	1	1	3756	5	4043	0	3928
18	1	1	3873	5	4044	0	3928
19	1	1	3936	5	4044	0	3928
20	1	1	3969	6	4044	0	3928
21	1	1	3985	5	4044	0	3928
22	1	1	3564	4	4043	0	3927
23	1	1	2355	3	4044	0	3928
24	1	1	1439	4	4043	0	3927
25	1	1	811	4	4045	0	3928
26	1	1	453	4	4045	0	3928
27	1	1	249	4	4045	0	3928
28	1	1	135	4	4044	0	3928
29	1	1	75	4	4045	0	3928
30	1	1	141	4	4045	0	3928
31	1	1	70	4	4045	0	3928
32	1	1	849	5	4044	0	3928
33	1	1	1908	4	4045	0	3928
34	1	1	2606	5	4043	0	3928
35	1	1	3186	5	4045	0	3929
36	1	1	3544	5	4045	0	3928
37	1	1	3751	5	4044	0	3928
38	1	1	3870	5	4045	0	3929
39	1	1	3934	4	4044	0	3928
40	1	1	3970	5	4045	0	3928
41	1	1	3986	5	4045	0	3927
42	1	1	3585	4	4044	0	3927
43	1	1	2367	3	4044	0	3928
44	1	1	1444	4	4045	0	3928
45	1	1	818	5	4043	0	3927
46	1	1	457	4	4043	0	3928
47	1	1	249	4	4044	0	3927
48	1	1	136	2	4044	0	3928
49	1	1	76	4	4043	0	3927
50	1	1	161	5	4044	0	3928
51	1	1	80	4	4044	0	3927
52	1	1	857	4	4043	0	3928
53	1	1	1917	4	4044	0	3928
54	1	1	2636	5	4043	0	3928
55	1	1	3210	5	4043	0	3927
56	1	1	3554	5	4044	0	3928
57	1	1	3757	5	4043	0	3927
58	1	1	3874	5	4045	0	3928
59	1	1	3936	5	4044	0	3927
60	1	1	3970	5	4045	0	3928
61	1	1	3987	4	4044	0	3927
62	1	1	3576	4	4044	0	3927
63	1	1	2369	4	4045	0	3928
64	1	1	1451	4	4044	0	3927
65	1	1	818	4	4045	0	3928
66	1	1	457	4	4044	0	3928
67	1	1	251	4	4044	0	3928
68	1	1	137	4	4044	0	3928
69	1	1	75	4	4043	0	3928
70	1	1	148	4	4043	0	3928
71	1	1	73	4	4043	0	3928
72	1	1	834	4	4044	0	3928
73	1	1	1903	4	4044	0	3928
74	1	1	2614	5	4044	0	3928
75	1	1	3192	4	4043	0	3927
76	1	1	3545	4	4044	0	3931
77	1	1	3753	4	4045	0	3928
78	1	1	3870	5	4044	0	3928
79	1	1	3935	5	4045	0	3928
80	1	1	3971	6	4044	0	3927
81	1	1	3985	5	4043	0	3927
82	1	1	3593	4	4044	0	3928
83	1	1	2361	4	4045	0	3928
84	1	1	1444	3	4044	0	3928
85	1	1	820	3	4044	0	3928
86	1	1	457	4	4043	0	3928
87	1	1	249	4	4044	0	3928
88	1	1	135	4	4044	0	3928
89	1	1	76	4	4043	0	3928
90	1	1	152	4	4044	0	3927
91	1	1	75	4	4044	0	3927
92	1	1	842	4	4044	0	3927
93	1	1	1905	5	4044	0	3927
94	1	1	2629	5	4043	0	3928
95	1	1	3202	5	4045	0	3928
96	1	1	3549	5	4045	0	3927
97	1	1	3754	5	4044	0	3928
98	1	1	3873	5	4045	0	3928
99	1	1	3935	5	4044	0	3928
100	1	1	3969	5	4044	0	3927
101	1	1	3986	5	4044	0	3929
102	1	1	3579	4	4045	0	3928
103	1	1	2368	3	4044	0	3928
104	1	1	1448	4	4043	0	3928
105	1	1	816	5	4044	0	3928
106	1	1	456	3	4043	0	3927
107	1	1	250	4	4044	0	3927
108	1	1	137	4	4044	0	3928
109	1	1	75	4	4044	0	3928
110	1	1	148	4	4045	0	3928
111	1	1	75	4	4045	0	3927
112	1	1	844	5	4043	0	3927
113	1	1	1887	5	4044	0	3927
114	1	1	2608	5	4045	0	3928
115	1	1	3188	5	4044	0	3927
116	1	1	3544	5	4044	0	3928
117	1	1	3751	5	4044	0	3927
118	1	1	3868	5	4044	0	3928
119	1	1	3933	5	4043	0	3928
120	1	1	3969	5	4043	0	3928
121	1	1	3985	5	4044	0	3927
122	1	1	3599	4	4044	0	3928
123	1	1	2373	4	4044	0	3928
124	1	1	1453	4	4044	0	3928
125	1	1	825	4	4043	0	3927
126	1	1	461	4	4044	0	3927
127	1	1	251	3	4044	0	3927
0	1	1	137	4	4045	0	3928
1	1	1	76	4	4043	0	3927
2	1	1	145	4	4045	0	3928
3	1	1	72	4	4045	0	3927
4	1	1	815	4	4044	0	3927
5	1	1	1885	4	4044	0	3928
6	1	1	2617	5	4045	0	3929
7	1	1	3192	5	4043	0	3928
8	1	1	3543	4	4044	0	3928
9	1	1	3752	5	4045	0	3929
10	1	1	3869	5	4044	0	3928
11	1	1	3933	5	4043	0	3928
12	1	1	3969	4	4045	0	3928
13	1	1	3987	5	4045	0	3927
14	1	1	3603	4	4044	0	3928
15	1	1	2395	4	4044	0	3928
16	1	1	1461	4	4043	0	3927
17	1	1	824	4	4044	0	3927
18	1	1	460	4	4043	0	3928
19	1	1	252	3	4044	0	3928
20	1	1	137	4	4044	0	3928
21	1	1	76	4	4043	0	3928
22	1	1	166	4	4043	0	3927
23	1	1	85	3	4044	0	3927
24	1	1	842	4	4044	0	3928
25	1	1	1886	4	4044	0	3928
26	1	1	2619	4	4045	0	3929
27	1	1	3195	5	4044	0	3928
28	1	1	3548	4	4044	0	3928
29	1	1	3754	5	4045	0	3928
30	1	1	3870	5	4044	0	3928
31	1	1	3937	5	4045	0	3928
32	1	1	3968	5	4043	0	3927
33	1	1	3986	5	4044	0	3927
34	1	1	3604	4	4045	0	3928
35	1	1	2384	4	4044	0	3928
36	1	1	1464	4	4043	0	3927
37	1	1	832	4	4044	0	3928
38	1	1	464	4	4044	0	3928
39	1	1	253	4	4044	0	3928
40	1	1	138	4	4044	0	3928
41	1	1	76	4	4044	0	3928
42	1	1	154	4	4044	0	3928
43	1	1	78	4	4044	0	3928
44	1	1	823	5	4044	0	3928
45	1	1	1888	5	4044	0	3928
46	1	1	2625	5	4043	0	3927
47	1	1	3199	5	4043	0	3927
48	1	1	3547	4	4044	0	3927
49	1	1	3753	5	4044	0	3928
50	1	1	3870	5	4044	0	3928
51	1	1	3936	5	4045	0	3928
52	1	1	3969	5	4044	0	3927
53	1	1	3985	5	4044	0	3928
54	1	1	3595	3	4045	0	3928
55	1	1	2375	4	4044	0	3928
56	1	1	1452	4	4043	0	3928
57	1	1	818	3	4044	0	3929
58	1	1	457	4	4044	0	3928
59	1	1	251	4	4044	0	3928
60	1	1	136	4	4044	0	3928
61	1	1	75	4	4043	0	3928
62	1	1	135	4	4044	0	3928
63	1	1	68	3	4044	0	3927
64	1	1	802	5	4044	0	3928
65	1	1	1871	5	4044	0	3928
66	1	1	2603	4	4043	0	3928
67	1	1	3186	5	4043	0	3927
68	1	1	3542	4	4044	0	3927
69	1	1	3751	4	4044	0	3928
70	1	1	3868	5	4044	0	3928
71	1	1	3933	5	4043	0	3927
72	1	1	3968	5	4044	0	3927
73	1	1	3985	4	4044	0	3928
74	1	1	3609	4	4044	0	3928
75	1	1	2383	4	4045	0	3929
76	1	1	1457	4	4044	0	3928
77	1	1	828	4	4045	0	3929
78	1	1	462	4	4044	0	3928
79	1	1	252	4	4044	0	3928
80	1	1	137	4	4045	0	3928
81	1	1	77	4	4043	0	3928
82	1	1	148	4	4044	0	3928
83	1	1	76	4	4045	0	3927
84	1	1	816	5	4044	0	3927
85	1	1	1879	5	4044	0	3928
86	1	1	2613	5	4044	0	3928
87	1	1	3191	5	4045	0	3928
88	1	1	3542	5	4044	0	3927
89	1	1	3750	5	4044	0	3928
90	1	1	3869	5	4044	0	3928
91	1	1	3935	5	4043	0	3928
92	1	1	3969	5	4044	0	3928
93	1	1	3985	5	4044	0	3928
94	1	1	3615	4	4045	0	3929
95	1	1	2404	4	4044	0	3928
96	1	1	1485	4	4043	0	3928
97	1	1	838	4	4045	0	3928
98	1	1	468	4	4045	0	3928
99	1	1	257	4	4044	0	3927
100	1	1	139	4	4044	0	3928
101	1	1	78	4	4044	0	3928
102	1	1	163	4	4043	0	3927
103	1	1	84	4	4044	0	3928
104	1	1	813	4	4045	0	3928
105	1	1	1885	4	4044	0	3928
106	1	1	2619	4	4043	0	3928
107	1	1	3194	5	4044	0	3928
108	1	1	3547	4	4044	0	3928
109	1	1	3752	5	4044	0	3928
110	1	1	3871	5	4045	0	3929
111	1	1	3936	5	4044	0	3928
112	1	1	3968	5	4043	0	3927
113	1	1	3985	5	4043	0	3928
114	1	1	3615	4	4044	0	3927
115	1	1	2394	3	4044	0	3928
116	1	1	1468	4	4045	0	3928
117	1	1	833	5	4043	0	3927
118	1	1	466	4	4043	0	3928
119	1	1	254	4	4044	0	3927
120	1	1	138	4	4044	0	3928
121	1	1	77	4	4043	0	3927
122	1	1	159	4	4043	0	3927
123	1	1	80	3	4044	0	3928
124	1	1	819	4	4044	0	3928
125	1	1	1874	4	4045	0	3929
126	1	1	2597	5	4043	0	3928
127	1	1	3177	5	4044	0	3928
0	1	1	3534	5	4044	0	3928
1	1	1	3748	5	4045	0	3929
2	1	1	3866	5	4044	0	3928
3	1	1	3934	5	4045	0	3928
4	1	1	3969	6	4044	0	3927
5	1	1	3985	5	4044	0	3928
6	1	1	3616	4	4045	0	3928
7	1	1	2396	3	4044	0	3928
8	1	1	1471	4	4044	0	3927
9	1	1	829	4	4043	0	3927
10	1	1	463	3	4044	0	3928
11	1	1	254	3	4044	0	3928
12	1	1	137	4	4044	0	3928
13	1	1	76	4	4043	0	3928
14	1	1	142	4	4044	0	3927
15	1	1	74	4	4044	0	3928
16	1	1	782	4	4044	0	3928
17	1	1	1861	5	4044	0	3928
18	1	1	2601	4	4045	0	3929
19	1	1	3184	5	4044	0	3927
20	1	1	3541	5	4044	0	3928
21	1	1	3751	5	4045	0	3928
22	1	1	3867	5	4044	0	3928
23	1	1	3934	5	4044	0	3927
24	1	1	3968	5	4044	0	3927
25	1	1	3985	4	4044	0	3927
26	1	1	3621	4	4044	0	3927
27	1	1	2397	4	4045	0	3928
28	1	1	1478	4	4043	0	3928
29	1	1	840	4	4044	0	3928
30	1	1	470	4	4044	0	3928
31	1	1	256	4	4044	0	3928
32	1	1	139	3	4044	0	3929
33	1	1	77	4	4045	0	3929
34	1	1	145	5	4044	0	3927
35	1	1	73	4	4044	0	3927
36	1	1	792	4	4044	0	3927
37	1	1	1869	5	4044	0	3927
38	1	1	2603	5	4044	0	3927
39	1	1	3183	4	4045	0	3928
40	1	1	3539	5	4045	0	3928
41	1	1	3748	5	4044	0	3927
42	1	1	3868	5	4044	0	3928
43	1	1	3933	5	4044	0	3927
44	1	1	3968	5	4044	0	3927
45	1	1	3985	5	4044	0	3928
46	1	1	3622	4	4043	0	3928
47	1	1	2414	4	4044	0	3928
48	1	1	1488	4	4045	0	3929
49	1	1	840	3	4044	0	3928
50	1	1	470	4	4044	0	3928
51	1	1	258	4	4045	0	3928
52	1	1	139	4	4044	0	3928
53	1	1	77	4	4044	0	3927
54	1	1	164	4	4043	0	3927
55	1	1	86	4	4043	0	3927
56	1	1	803	5	4044	0	3927
57	1	1	1875	4	4044	0	3928
58	1	1	2607	5	4044	0	3927
59	1	1	3186	4	4044	0	3928
60	1	1	3544	5	4045	0	3927
61	1	1	3750	5	4044	0	3927
62	1	1	3868	5	4044	0	3928
63	1	1	3934	5	4044	0	3928
64	1	1	3969	5	4045	0	3928
65	1	1	3984	5	4044	0	3928
66	1	1	3636	4	4045	0	3929
67	1	1	2410	4	4044	0	3928
68	1	1	1488	4	4044	0	3927
69	1	1	845	4	4043	0	3927
70	1	1	472	4	4043	0	3927
71	1	1	257	4	4044	0	3927
72	1	1	140	4	4044	0	3928
73	1	1	78	4	4044	0	3927
74	1	1	156	3	4045	0	3928
75	1	1	81	4	4045	0	3927
76	1	1	799	5	4044	0	3927
77	1	1	1866	4	4043	0	3928
78	1	1	2598	4	4045	0	3928
79	1	1	3180	4	4044	0	3927
80	1	1	3534	5	4044	0	3928
81	1	1	3749	4	4045	0	3929
82	1	1	3866	5	4044	0	3928
83	1	1	3935	5	4045	0	3929
84	1	1	3969	5	4044	0	3927
85	1	1	3984	5	4044	0	3927
86	1	1	3634	4	4044	0	3927
87	1	1	2413	4	4044	0	3928
88	1	1	1483	4	4044	0	3927
89	1	1	837	4	4044	0	3927
90	1	1	467	4	4043	0	3927
91	1	1	256	4	4044	0	3928
92	1	1	138	4	4044	0	3928
93	1	1	77	4	4044	0	3927
94	1	1	116	4	4044	0	3929
95	1	1	60	4	4045	0	3928
96	1	1	760	4	4044	0	3928
97	1	1	1843	4	4045	0	3929
98	1	1	2578	5	4043	0	3928
99	1	1	3172	5	4044	0	3928
100	1	1	3531	5	4043	0	3928
101	1	1	3744	5	4044	0	3928
102	1	1	3864	5	4044	0	3928
103	1	1	3932	5	4044	0	3927
104	1	1	3968	5	4044	0	3927
105	1	1	3984	5	4044	0	3928
106	1	1	3639	4	4045	0	3928
107	1	1	2405	4	4044	0	3928
108	1	1	1479	4	4045	0	3928
109	1	1	841	4	4044	0	3927
110	1	1	466	4	4043	0	3928
111	1	1	256	4	4044	0	3927
112	1	1	139	4	4044	0	3928
113	1	1	78	3	4044	0	3928
114	1	1	155	4	4044	0	3928
115	1	1	81	4	4043	0	3928
116	1	1	796	4	4044	0	3928
117	1	1	1879	4	4043	0	3928
118	1	1	2610	5	4044	0	3927
119	1	1	3187	4	4045	0	3928
120	1	1	3541	5	4045	0	3927
121	1	1	3751	5	4045	0	3927
122	1	1	3870	5	4046	0	3928
123	1	1	3933	5	4044	0	3927
124	1	1	3968	5	4044	0	3927
125	1	1	3986	5	4044	0	3928
126	1	1	3654	4	4044	0	3928
127	1	1	2432	4	4044	0	3928
0	1	1	1504	4	4044	0	3928
1	1	1	855	4	4043	0	3927
2	1	1	477	4	4044	0	3929
3	1	1	262	4	4045	0	3929
4	1	1	142	4	4044	0	3928
5	1	1	79	4	4045	0	3929
6	1	1	127	4	4044	0	3927
7	1	1	67	4	4044	0	3927
8	1	1	769	4	4044	0	3927
9	1	1	1866	5	4044	0	3931
