# bioPlux Text File Format
# Version: 1
# StartDateTime: 2011-07-19 12:16:40
# SamplingFrequency: 1000
# SampledChannels: 1 2 3 4 5
# SamplingResolution: 12
# AcquiringDevice: 00:07:80:42:0F:95
# EndOfHeader
0	0	0	2066	4	183	0	3378
1	0	0	1988	4	183	0	3378
2	0	0	1921	4	184	0	3378
3	0	0	1880	4	183	0	3378
4	0	0	1886	5	182	0	3375
5	0	0	1903	5	183	0	3374
6	0	0	1969	5	183	0	3374
7	0	0	2032	5	183	0	3375
8	0	0	2038	4	183	0	3376
9	0	0	2039	5	184	0	3377
10	0	0	2085	5	185	0	3378
11	0	0	2132	6	184	0	3379
12	0	0	2182	5	184	0	3378
13	0	0	2234	5	184	0	3378
14	0	0	2286	5	185	0	3375
15	0	0	2314	5	185	0	3375
16	0	0	2285	4	186	0	3374
17	0	0	2238	5	185	0	3375
18	0	0	2212	4	184	0	3376
19	0	0	2145	4	185	0	3378
20	0	0	2046	4	184	0	3378
21	0	0	1959	4	183	0	3379
22	0	0	1916	4	183	0	3378
23	0	0	1896	5	184	0	3377
24	0	0	1901	5	183	0	3375
25	0	0	1907	5	184	0	3374
26	0	0	1943	6	184	0	3374
27	0	0	1957	4	183	0	3375
28	0	0	1943	5	184	0	3377
29	0	0	1950	5	183	0	3377
30	0	0	1986	5	184	0	3378
31	0	0	2036	5	184	0	3378
32	0	0	2122	5	184	0	3378
33	0	0	2197	5	185	0	3378
34	0	0	2250	5	185	0	3375
35	0	0	2281	5	185	0	3374
36	0	0	2249	4	185	0	3374
37	0	0	2199	4	184	0	3376
38	0	0	2153	4	185	0	3376
39	0	0	2097	5	185	0	3377
40	0	0	2058	4	184	0	3378
41	0	0	2022	6	184	0	3378
42	0	0	1976	4	183	0	3379
43	0	0	1942	4	183	0	3378
44	0	0	1914	4	183	0	3375
45	0	0	1901	5	184	0	3374
46	0	0	1909	6	183	0	3374
47	0	0	1936	4	183	0	3375
48	0	0	1980	5	183	0	3376
49	0	0	2035	4	185	0	3378
50	0	0	2059	5	185	0	3378
51	0	0	2066	5	184	0	3379
52	0	0	2098	5	185	0	3379
53	0	0	2159	5	184	0	3377
54	0	0	2221	5	185	0	3375
55	0	0	2266	5	186	0	3374
56	0	0	2225	4	183	0	3374
57	0	0	2146	3	185	0	3375
58	0	0	2086	4	185	0	3376
59	0	0	2012	4	184	0	3377
60	0	0	1939	5	184	0	3378
61	0	0	1884	4	183	0	3378
62	0	0	1841	4	184	0	3378
63	0	0	1818	5	183	0	3377
64	0	0	1798	4	183	0	3375
65	0	0	1778	5	184	0	3374
66	0	0	1793	5	184	0	3374
67	0	0	1835	5	184	0	3376
68	0	0	1871	5	184	0	3377
69	0	0	1909	5	185	0	3377
70	0	0	1938	5	184	0	3379
71	0	0	1987	5	185	0	3379
72	0	0	2027	5	184	0	3378
73	0	0	2041	5	184	0	3378
74	0	0	2065	5	185	0	3375
75	0	0	2125	5	186	0	3375
76	0	0	2138	5	185	0	3375
77	0	0	2098	5	184	0	3375
78	0	0	2031	4	184	0	3376
79	0	0	1944	3	184	0	3377
80	0	0	1881	5	183	0	3378
81	0	0	1873	5	183	0	3378
82	0	0	1861	4	183	0	3378
83	0	0	1855	5	183	0	3377
84	0	0	1834	4	183	0	3375
85	0	0	1784	4	184	0	3374
86	0	0	1782	6	183	0	3374
87	0	0	1812	6	183	0	3375
88	0	0	1880	5	183	0	3376
89	0	0	1968	4	184	0	3378
90	0	0	2008	5	183	0	3378
91	0	0	2010	5	184	0	3379
92	0	0	2006	5	184	0	3379
93	0	0	2008	5	185	0	3378
94	0	0	2048	3	184	0	3376
95	0	0	2117	5	185	0	3374
96	0	0	2129	4	184	0	3374
97	0	0	2089	5	184	0	3375
98	0	0	2066	4	183	0	3376
99	0	0	2005	4	186	0	3377
100	0	0	1912	5	184	0	3378
101	0	0	1827	5	184	0	3378
102	0	0	1773	5	184	0	3378
103	0	0	1755	4	183	0	3378
104	0	0	1735	4	184	0	3375
105	0	0	1710	5	183	0	3373
106	0	0	1715	5	182	0	3374
107	0	0	1750	6	183	0	3375
108	0	0	1790	5	184	0	3376
109	0	0	1851	5	184	0	3377
110	0	0	1941	5	184	0	3378
111	0	0	2054	5	184	0	3379
112	0	0	2142	5	184	0	3379
113	0	0	2186	5	184	0	3377
114	0	0	2188	4	185	0	3376
115	0	0	2186	5	186	0	3374
116	0	0	2156	4	186	0	3374
117	0	0	2102	4	185	0	3376
118	0	0	2019	4	184	0	3376
119	0	0	1893	4	184	0	3377
120	0	0	1792	4	183	0	3378
121	0	0	1743	4	184	0	3379
122	0	0	1737	5	183	0	3379
123	0	0	1758	6	182	0	3377
124	0	0	1771	5	184	0	3375
125	0	0	1733	5	183	0	3374
126	0	0	1754	5	184	0	3374
127	0	0	1817	5	184	0	3375
0	0	0	1891	5	185	0	3376
1	0	0	1955	5	184	0	3377
2	0	0	1999	5	184	0	3379
3	0	0	2039	5	184	0	3379
4	0	0	2062	5	185	0	3379
5	0	0	2085	5	184	0	3378
6	0	0	2106	5	185	0	3375
7	0	0	2138	5	185	0	3375
8	0	0	2130	5	185	0	3374
9	0	0	2093	4	184	0	3375
10	0	0	2053	4	184	0	3376
11	0	0	1981	4	184	0	3377
12	0	0	1917	5	185	0	3378
13	0	0	1867	4	182	0	3379
14	0	0	1829	4	183	0	3379
15	0	0	1809	5	183	0	3377
16	0	0	1822	4	183	0	3376
17	0	0	1821	4	185	0	3374
18	0	0	1809	5	182	0	3374
19	0	0	1824	5	184	0	3376
20	0	0	1836	5	183	0	3376
21	0	0	1859	4	184	0	3377
22	0	0	1933	5	184	0	3378
23	0	0	2041	5	185	0	3379
24	0	0	2145	4	183	0	3378
25	0	0	2196	5	184	0	3378
26	0	0	2204	5	186	0	3375
27	0	0	2226	5	184	0	3374
28	0	0	2200	4	185	0	3375
29	0	0	2161	5	184	0	3375
30	0	0	2121	4	184	0	3376
31	0	0	2054	5	185	0	3377
32	0	0	1996	4	184	0	3378
33	0	0	1946	4	182	0	3379
34	0	0	1894	4	184	0	3379
35	0	0	1861	4	183	0	3377
36	0	0	1864	5	183	0	3375
37	0	0	1853	5	182	0	3374
38	0	0	1860	5	183	0	3375
39	0	0	1901	5	184	0	3375
40	0	0	1962	5	184	0	3377
41	0	0	2009	5	185	0	3377
42	0	0	2027	5	183	0	3378
43	0	0	2066	5	184	0	3379
44	0	0	2124	5	184	0	3379
45	0	0	2165	5	184	0	3377
46	0	0	2181	5	184	0	3375
47	0	0	2219	5	184	0	3374
48	0	0	2193	4	184	0	3374
49	0	0	2120	4	184	0	3375
50	0	0	2048	4	184	0	3376
51	0	0	2006	4	184	0	3377
52	0	0	2001	5	184	0	3378
53	0	0	2016	5	184	0	3378
54	0	0	2012	3	184	0	3378
55	0	0	1959	4	184	0	3377
56	0	0	1903	4	183	0	3375
57	0	0	1842	4	183	0	3374
58	0	0	1835	4	183	0	3375
59	0	0	1851	5	183	0	3375
60	0	0	1870	5	183	0	3377
61	0	0	1882	5	184	0	3377
62	0	0	1911	5	184	0	3379
63	0	0	1974	5	185	0	3379
64	0	0	2077	4	184	0	3378
65	0	0	2167	5	184	0	3377
66	0	0	2198	5	184	0	3375
67	0	0	2211	5	185	0	3374
68	0	0	2175	5	185	0	3374
69	0	0	2128	4	185	0	3375
70	0	0	2067	4	185	0	3376
71	0	0	1972	4	184	0	3377
72	0	0	1901	4	184	0	3378
73	0	0	1842	4	184	0	3378
74	0	0	1791	3	184	0	3378
75	0	0	1760	4	183	0	3378
76	0	0	1760	4	183	0	3375
77	0	0	1795	5	182	0	3374
78	0	0	1835	5	183	0	3375
79	0	0	1855	4	182	0	3375
80	0	0	1866	5	183	0	3376
81	0	0	1910	5	184	0	3377
82	0	0	1969	5	183	0	3378
83	0	0	2048	5	185	0	3379
84	0	0	2116	5	185	0	3379
85	0	0	2130	5	184	0	3377
86	0	0	2124	5	185	0	3375
87	0	0	2131	5	186	0	3373
88	0	0	2114	5	184	0	3374
89	0	0	2061	3	185	0	3375
90	0	0	2002	4	185	0	3377
91	0	0	1924	4	183	0	3377
92	0	0	1868	4	184	0	3378
93	0	0	1834	4	184	0	3378
94	0	0	1797	4	183	0	3379
95	0	0	1766	4	183	0	3377
96	0	0	1751	5	183	0	3376
97	0	0	1745	5	184	0	3374
98	0	0	1758	5	184	0	3374
99	0	0	1798	4	183	0	3375
100	0	0	1828	5	182	0	3376
101	0	0	1868	5	183	0	3377
102	0	0	1911	5	183	0	3378
103	0	0	1959	5	184	0	3378
104	0	0	2027	4	184	0	3379
105	0	0	2080	5	185	0	3377
106	0	0	2098	5	184	0	3375
107	0	0	2111	5	185	0	3373
108	0	0	2075	4	184	0	3374
109	0	0	2011	3	184	0	3375
110	0	0	1962	4	185	0	3377
111	0	0	1898	4	184	0	3377
112	0	0	1859	4	183	0	3379
113	0	0	1812	4	184	0	3379
114	0	0	1762	4	183	0	3378
115	0	0	1724	4	182	0	3378
116	0	0	1692	5	182	0	3375
117	0	0	1659	3	182	0	3374
118	0	0	1681	5	182	0	3373
119	0	0	1735	4	183	0	3374
120	0	0	1782	5	184	0	3376
121	0	0	1825	5	184	0	3377
122	0	0	1856	5	184	0	3379
123	0	0	1888	5	184	0	3379
124	0	0	1910	4	183	0	3379
125	0	0	1944	5	184	0	3377
126	0	0	1993	5	184	0	3375
127	0	0	2103	5	183	0	3373
0	0	0	2153	5	184	0	3374
1	0	0	2134	4	184	0	3374
2	0	0	2075	4	185	0	3376
3	0	0	2003	4	184	0	3378
4	0	0	1930	4	183	0	3378
5	0	0	1843	4	184	0	3378
6	0	0	1759	4	183	0	3379
7	0	0	1717	4	184	0	3377
8	0	0	1724	5	181	0	3375
9	0	0	1734	5	183	0	3373
10	0	0	1777	5	183	0	3374
11	0	0	1844	5	183	0	3375
12	0	0	1878	5	183	0	3376
13	0	0	1861	4	184	0	3377
14	0	0	1820	4	183	0	3379
15	0	0	1808	5	184	0	3379
16	0	0	1821	5	183	0	3379
17	0	0	1827	5	184	0	3378
18	0	0	1835	5	184	0	3375
19	0	0	1879	5	185	0	3374
20	0	0	1868	4	185	0	3374
21	0	0	1860	4	185	0	3375
22	0	0	1837	4	184	0	3376
23	0	0	1779	4	184	0	3377
24	0	0	1733	4	183	0	3378
25	0	0	1708	4	183	0	3378
26	0	0	1658	4	184	0	3378
27	0	0	1628	5	183	0	3377
28	0	0	1639	5	184	0	3375
29	0	0	1650	5	182	0	3374
30	0	0	1712	5	183	0	3374
31	0	0	1816	5	184	0	3376
32	0	0	1898	5	184	0	3376
33	0	0	1978	5	184	0	3378
34	0	0	2033	5	184	0	3378
35	0	0	2113	5	185	0	3378
36	0	0	2194	5	184	0	3379
37	0	0	2245	5	185	0	3378
38	0	0	2277	5	184	0	3375
39	0	0	2299	5	185	0	3374
40	0	0	2274	4	185	0	3375
41	0	0	2230	3	184	0	3375
42	0	0	2181	4	184	0	3376
43	0	0	2115	4	185	0	3378
44	0	0	2030	4	185	0	3378
45	0	0	1963	4	184	0	3379
46	0	0	1902	4	183	0	3378
47	0	0	1834	4	183	0	3377
48	0	0	1771	4	184	0	3375
49	0	0	1716	4	184	0	3374
50	0	0	1716	5	183	0	3374
51	0	0	1729	3	183	0	3375
52	0	0	1736	5	183	0	3376
53	0	0	1744	5	184	0	3377
54	0	0	1753	5	183	0	3378
55	0	0	1791	5	185	0	3379
56	0	0	1850	4	184	0	3379
57	0	0	1912	5	184	0	3378
58	0	0	1949	5	185	0	3376
59	0	0	1995	5	186	0	3374
60	0	0	1991	4	186	0	3374
61	0	0	1948	3	185	0	3375
62	0	0	1909	4	185	0	3376
63	0	0	1846	4	184	0	3377
64	0	0	1764	4	184	0	3378
65	0	0	1700	4	183	0	3378
66	0	0	1641	3	182	0	3379
67	0	0	1607	4	183	0	3378
68	0	0	1586	5	183	0	3375
69	0	0	1539	4	182	0	3374
70	0	0	1546	5	184	0	3375
71	0	0	1610	4	184	0	3375
72	0	0	1674	5	183	0	3376
73	0	0	1719	5	184	0	3377
74	0	0	1752	5	184	0	3378
75	0	0	1790	5	185	0	3379
76	0	0	1836	4	185	0	3379
77	0	0	1878	5	184	0	3377
78	0	0	1884	5	185	0	3375
79	0	0	1914	5	185	0	3374
80	0	0	1894	4	185	0	3374
81	0	0	1852	4	184	0	3375
82	0	0	1803	4	184	0	3377
83	0	0	1717	4	184	0	3377
84	0	0	1612	4	183	0	3379
85	0	0	1550	4	183	0	3379
86	0	0	1524	3	183	0	3378
87	0	0	1526	5	184	0	3377
88	0	0	1520	4	183	0	3376
89	0	0	1512	5	183	0	3374
90	0	0	1550	5	184	0	3374
91	0	0	1619	4	183	0	3375
92	0	0	1649	5	183	0	3376
93	0	0	1670	5	184	0	3378
94	0	0	1715	5	184	0	3378
95	0	0	1779	5	184	0	3379
96	0	0	1831	5	183	0	3379
97	0	0	1848	5	185	0	3377
98	0	0	1849	5	185	0	3375
99	0	0	1846	5	185	0	3374
100	0	0	1829	4	184	0	3374
101	0	0	1820	4	185	0	3375
102	0	0	1793	4	184	0	3376
103	0	0	1741	4	183	0	3377
104	0	0	1695	4	183	0	3379
105	0	0	1669	4	184	0	3379
106	0	0	1644	4	183	0	3379
107	0	0	1617	4	184	0	3377
108	0	0	1599	4	184	0	3376
109	0	0	1581	4	184	0	3374
110	0	0	1575	5	184	0	3374
111	0	0	1601	4	184	0	3375
112	0	0	1629	5	184	0	3376
113	0	0	1666	5	183	0	3377
114	0	0	1726	5	184	0	3378
115	0	0	1781	5	184	0	3378
116	0	0	1815	4	185	0	3379
117	0	0	1837	5	185	0	3378
118	0	0	1844	5	185	0	3375
119	0	0	1874	5	184	0	3374
120	0	0	1837	4	186	0	3374
121	0	0	1756	4	185	0	3376
122	0	0	1696	4	184	0	3376
123	0	0	1643	4	184	0	3377
124	0	0	1591	4	183	0	3379
125	0	0	1538	4	183	0	3378
126	0	0	1494	4	183	0	3378
127	0	0	1483	5	183	0	3377
0	0	0	1493	5	183	0	3375
1	0	0	1498	5	184	0	3373
2	0	0	1517	5	181	0	3374
3	0	0	1548	5	182	0	3375
4	0	0	1578	5	184	0	3376
5	0	0	1637	5	184	0	3378
6	0	0	1724	5	184	0	3378
7	0	0	1800	5	185	0	3378
8	0	0	1870	5	184	0	3378
9	0	0	1902	5	184	0	3377
10	0	0	1902	5	185	0	3375
11	0	0	1902	5	185	0	3374
12	0	0	1886	4	185	0	3375
13	0	0	1846	4	185	0	3375
14	0	0	1800	5	185	0	3376
15	0	0	1729	4	183	0	3378
16	0	0	1640	4	185	0	3378
17	0	0	1574	4	183	0	3378
18	0	0	1546	4	185	0	3378
19	0	0	1521	4	183	0	3377
20	0	0	1487	4	182	0	3375
21	0	0	1459	5	184	0	3374
22	0	0	1484	5	183	0	3375
23	0	0	1562	5	183	0	3375
24	0	0	1632	5	184	0	3376
25	0	0	1675	5	184	0	3377
26	0	0	1736	5	183	0	3378
27	0	0	1815	5	186	0	3378
28	0	0	1865	5	185	0	3378
29	0	0	1864	5	185	0	3377
30	0	0	1856	5	186	0	3376
31	0	0	1877	5	185	0	3374
32	0	0	1871	5	185	0	3373
33	0	0	1871	5	184	0	3375
34	0	0	1842	4	184	0	3375
35	0	0	1756	4	184	0	3376
36	0	0	1664	4	184	0	3378
37	0	0	1574	4	183	0	3379
38	0	0	1509	4	183	0	3378
39	0	0	1475	4	183	0	3377
40	0	0	1462	4	183	0	3375
41	0	0	1470	5	183	0	3373
42	0	0	1517	5	185	0	3374
43	0	0	1585	5	184	0	3375
44	0	0	1634	5	184	0	3376
45	0	0	1688	5	183	0	3377
46	0	0	1742	5	184	0	3378
47	0	0	1768	5	185	0	3379
48	0	0	1774	5	185	0	3378
49	0	0	1796	5	186	0	3377
50	0	0	1817	5	185	0	3375
51	0	0	1845	5	185	0	3373
52	0	0	1814	4	184	0	3374
53	0	0	1797	4	185	0	3374
54	0	0	1780	4	185	0	3375
55	0	0	1726	3	186	0	3378
56	0	0	1665	4	184	0	3378
57	0	0	1605	4	183	0	3378
58	0	0	1559	5	183	0	3378
59	0	0	1559	5	184	0	3377
60	0	0	1574	5	183	0	3375
61	0	0	1561	5	184	0	3374
62	0	0	1575	5	184	0	3374
63	0	0	1599	5	183	0	3375
64	0	0	1610	5	183	0	3375
65	0	0	1634	5	184	0	3377
66	0	0	1661	5	183	0	3377
67	0	0	1703	5	184	0	3378
68	0	0	1753	5	184	0	3378
69	0	0	1805	5	184	0	3377
70	0	0	1850	5	185	0	3375
71	0	0	1896	5	186	0	3373
72	0	0	1901	5	184	0	3374
73	0	0	1865	4	185	0	3375
74	0	0	1838	4	186	0	3376
75	0	0	1803	4	184	0	3378
76	0	0	1746	4	183	0	3378
77	0	0	1681	4	183	0	3378
78	0	0	1613	4	183	0	3378
79	0	0	1563	4	184	0	3377
80	0	0	1554	5	184	0	3374
81	0	0	1540	5	183	0	3373
82	0	0	1557	5	183	0	3374
83	0	0	1586	5	182	0	3375
84	0	0	1627	5	183	0	3376
85	0	0	1700	5	184	0	3378
86	0	0	1740	5	183	0	3377
87	0	0	1782	5	184	0	3378
88	0	0	1842	5	184	0	3379
89	0	0	1897	5	185	0	3377
90	0	0	1944	5	185	0	3376
91	0	0	1988	5	186	0	3373
92	0	0	1982	5	186	0	3374
93	0	0	1940	4	184	0	3375
94	0	0	1878	4	184	0	3376
95	0	0	1825	5	184	0	3376
96	0	0	1735	5	185	0	3378
97	0	0	1647	4	184	0	3379
98	0	0	1593	4	183	0	3378
99	0	0	1553	4	184	0	3378
100	0	0	1522	4	184	0	3374
101	0	0	1539	5	182	0	3373
102	0	0	1609	5	183	0	3374
103	0	0	1697	5	183	0	3375
104	0	0	1745	5	183	0	3376
105	0	0	1799	5	183	0	3377
106	0	0	1860	5	184	0	3378
107	0	0	1890	5	184	0	3378
108	0	0	1906	5	184	0	3379
109	0	0	1922	5	184	0	3377
110	0	0	1944	5	185	0	3376
111	0	0	1978	5	185	0	3373
112	0	0	1952	4	186	0	3374
113	0	0	1894	4	185	0	3375
114	0	0	1839	6	184	0	3375
115	0	0	1755	5	183	0	3376
116	0	0	1671	4	184	0	3377
117	0	0	1641	4	184	0	3378
118	0	0	1616	4	183	0	3378
119	0	0	1565	4	184	0	3376
120	0	0	1525	4	184	0	3375
121	0	0	1493	4	183	0	3373
122	0	0	1520	5	184	0	3374
123	0	0	1604	5	183	0	3375
124	0	0	1711	5	183	0	3375
125	0	0	1797	5	184	0	3376
126	0	0	1845	4	185	0	3377
127	0	0	1882	5	185	0	3378
0	0	0	1918	5	184	0	3379
1	0	0	1959	5	184	0	3377
2	0	0	1978	5	184	0	3376
3	0	0	2004	5	185	0	3373
4	0	0	1957	4	184	0	3374
5	0	0	1897	4	184	0	3375
6	0	0	1857	4	184	0	3375
7	0	0	1790	4	184	0	3377
8	0	0	1720	4	183	0	3378
9	0	0	1668	5	184	0	3378
10	0	0	1641	4	184	0	3378
11	0	0	1632	5	183	0	3378
12	0	0	1650	5	182	0	3375
13	0	0	1664	5	183	0	3373
14	0	0	1693	5	183	0	3374
15	0	0	1762	5	182	0	3375
16	0	0	1833	5	183	0	3375
17	0	0	1876	5	184	0	3376
18	0	0	1870	3	185	0	3377
19	0	0	1863	5	183	0	3378
20	0	0	1912	5	185	0	3378
21	0	0	1957	5	184	0	3377
22	0	0	2002	5	185	0	3374
23	0	0	2062	4	186	0	3373
24	0	0	2082	5	185	0	3374
25	0	0	2068	4	186	0	3375
26	0	0	2015	4	185	0	3375
27	0	0	1936	4	183	0	3378
28	0	0	1864	4	184	0	3378
29	0	0	1787	4	184	0	3378
30	0	0	1726	4	183	0	3379
31	0	0	1707	4	183	0	3377
32	0	0	1724	5	183	0	3375
33	0	0	1743	5	184	0	3373
34	0	0	1787	5	183	0	3373
35	0	0	1846	5	184	0	3374
36	0	0	1901	5	184	0	3375
37	0	0	1933	5	184	0	3376
38	0	0	1966	5	184	0	3377
39	0	0	2018	5	185	0	3378
40	0	0	2064	5	184	0	3378
41	0	0	2104	5	185	0	3377
42	0	0	2150	5	185	0	3375
43	0	0	2203	5	184	0	3374
44	0	0	2178	4	186	0	3374
45	0	0	2125	4	186	0	3375
46	0	0	2087	4	185	0	3376
47	0	0	2026	5	184	0	3376
48	0	0	1952	4	183	0	3378
49	0	0	1865	4	183	0	3378
50	0	0	1793	4	184	0	3378
51	0	0	1743	4	184	0	3376
52	0	0	1738	5	182	0	3375
53	0	0	1740	5	184	0	3373
54	0	0	1752	5	183	0	3373
55	0	0	1776	5	184	0	3375
56	0	0	1833	5	184	0	3376
57	0	0	1902	5	183	0	3376
58	0	0	1950	5	183	0	3378
59	0	0	1999	5	184	0	3378
60	0	0	2039	5	184	0	3378
61	0	0	2076	5	184	0	3377
62	0	0	2097	5	184	0	3375
63	0	0	2135	4	185	0	3373
64	0	0	2108	4	185	0	3374
65	0	0	2058	5	184	0	3375
66	0	0	2028	4	184	0	3375
67	0	0	1982	4	184	0	3376
68	0	0	1909	4	185	0	3377
69	0	0	1859	5	183	0	3378
70	0	0	1827	4	183	0	3379
71	0	0	1776	4	183	0	3377
72	0	0	1728	4	183	0	3375
73	0	0	1692	4	183	0	3373
74	0	0	1679	4	184	0	3373
75	0	0	1660	4	183	0	3375
76	0	0	1678	5	183	0	3376
77	0	0	1731	5	184	0	3377
78	0	0	1764	5	184	0	3378
79	0	0	1804	5	184	0	3378
80	0	0	1862	5	185	0	3378
81	0	0	1950	5	185	0	3376
82	0	0	2056	5	184	0	3375
83	0	0	2137	5	186	0	3373
84	0	0	2116	4	184	0	3374
85	0	0	2011	4	183	0	3375
86	0	0	1904	4	185	0	3375
87	0	0	1804	4	184	0	3376
88	0	0	1735	3	185	0	3377
89	0	0	1662	4	184	0	3378
90	0	0	1615	4	184	0	3378
91	0	0	1604	4	184	0	3377
92	0	0	1603	4	182	0	3376
93	0	0	1591	4	182	0	3373
94	0	0	1598	5	182	0	3373
95	0	0	1642	5	183	0	3375
96	0	0	1684	5	183	0	3375
97	0	0	1733	5	183	0	3376
98	0	0	1792	5	183	0	3378
99	0	0	1809	5	185	0	3378
100	0	0	1820	5	185	0	3378
101	0	0	1847	5	184	0	3376
102	0	0	1909	5	184	0	3374
103	0	0	2003	5	185	0	3373
104	0	0	2030	5	185	0	3374
105	0	0	1989	4	185	0	3375
106	0	0	1945	4	184	0	3375
107	0	0	1857	4	185	0	3377
108	0	0	1785	4	184	0	3378
109	0	0	1749	4	184	0	3379
110	0	0	1726	4	184	0	3378
111	0	0	1718	5	183	0	3376
112	0	0	1736	5	183	0	3375
113	0	0	1713	4	183	0	3373
114	0	0	1708	5	183	0	3373
115	0	0	1719	5	183	0	3374
116	0	0	1732	5	183	0	3375
117	0	0	1760	5	185	0	3376
118	0	0	1821	5	184	0	3377
119	0	0	1900	5	186	0	3378
120	0	0	1962	5	185	0	3378
121	0	0	1996	5	184	0	3377
122	0	0	2056	4	186	0	3375
123	0	0	2103	5	186	0	3373
124	0	0	2062	4	185	0	3374
125	0	0	1989	4	183	0	3374
126	0	0	1927	4	185	0	3376
127	0	0	1855	4	183	0	3376
0	0	0	1788	4	184	0	3378
1	0	0	1742	4	184	0	3378
2	0	0	1699	4	185	0	3378
3	0	0	1672	4	183	0	3376
4	0	0	1678	4	183	0	3375
5	0	0	1677	5	182	0	3373
6	0	0	1685	5	183	0	3373
7	0	0	1729	5	184	0	3375
8	0	0	1774	5	184	0	3375
9	0	0	1797	5	184	0	3376
10	0	0	1813	5	185	0	3378
11	0	0	1851	5	183	0	3379
12	0	0	1907	5	185	0	3378
13	0	0	1955	5	186	0	3378
14	0	0	1965	5	186	0	3375
15	0	0	1996	5	185	0	3373
16	0	0	2010	5	186	0	3373
17	0	0	1980	4	185	0	3374
18	0	0	1934	4	185	0	3375
19	0	0	1858	3	184	0	3376
20	0	0	1774	4	184	0	3377
21	0	0	1720	4	183	0	3378
22	0	0	1674	4	184	0	3379
23	0	0	1618	4	184	0	3377
24	0	0	1584	4	183	0	3376
25	0	0	1576	5	183	0	3373
26	0	0	1605	5	183	0	3373
27	0	0	1650	5	184	0	3374
28	0	0	1679	5	183	0	3375
29	0	0	1728	5	183	0	3376
30	0	0	1811	5	183	0	3378
31	0	0	1887	5	185	0	3377
32	0	0	1954	5	185	0	3378
33	0	0	2033	5	184	0	3376
34	0	0	2127	5	184	0	3375
35	0	0	2186	5	186	0	3373
36	0	0	2159	4	185	0	3373
37	0	0	2093	4	184	0	3375
38	0	0	1987	4	184	0	3375
39	0	0	1858	3	184	0	3377
40	0	0	1751	4	184	0	3377
41	0	0	1668	4	184	0	3378
42	0	0	1627	4	184	0	3378
43	0	0	1611	4	183	0	3376
44	0	0	1603	4	183	0	3374
45	0	0	1577	4	183	0	3374
46	0	0	1586	5	182	0	3374
47	0	0	1634	5	183	0	3374
48	0	0	1701	5	183	0	3375
49	0	0	1782	5	183	0	3377
50	0	0	1855	5	185	0	3377
51	0	0	1904	5	183	0	3378
52	0	0	1952	5	185	0	3378
53	0	0	1995	5	185	0	3376
54	0	0	2037	5	184	0	3374
55	0	0	2085	4	185	0	3373
56	0	0	2060	4	186	0	3373
57	0	0	1990	4	184	0	3374
58	0	0	1925	4	185	0	3375
59	0	0	1851	4	184	0	3376
60	0	0	1782	4	186	0	3377
61	0	0	1743	4	184	0	3378
62	0	0	1714	4	183	0	3378
63	0	0	1689	4	182	0	3377
64	0	0	1684	5	183	0	3374
65	0	0	1656	4	183	0	3373
66	0	0	1638	5	184	0	3373
67	0	0	1655	5	182	0	3374
68	0	0	1690	5	183	0	3375
69	0	0	1759	5	184	0	3376
70	0	0	1830	5	183	0	3378
71	0	0	1863	5	184	0	3379
72	0	0	1906	5	183	0	3378
73	0	0	1954	5	185	0	3377
74	0	0	1977	5	185	0	3375
75	0	0	1990	5	184	0	3373
76	0	0	1954	4	184	0	3374
77	0	0	1918	4	185	0	3375
78	0	0	1893	4	184	0	3376
79	0	0	1807	3	185	0	3376
80	0	0	1688	4	184	0	3377
81	0	0	1621	4	184	0	3378
82	0	0	1612	5	184	0	3378
83	0	0	1621	5	183	0	3377
84	0	0	1603	4	181	0	3376
85	0	0	1555	4	183	0	3373
86	0	0	1525	4	184	0	3373
87	0	0	1540	5	184	0	3374
88	0	0	1539	5	185	0	3375
89	0	0	1569	5	184	0	3376
90	0	0	1640	5	183	0	3378
91	0	0	1721	5	185	0	3379
92	0	0	1772	5	184	0	3378
93	0	0	1766	4	184	0	3376
94	0	0	1743	4	185	0	3375
95	0	0	1742	4	185	0	3373
96	0	0	1705	4	186	0	3374
97	0	0	1660	4	185	0	3375
98	0	0	1618	4	184	0	3375
99	0	0	1577	4	183	0	3376
100	0	0	1535	4	185	0	3377
101	0	0	1494	4	184	0	3378
102	0	0	1458	4	183	0	3378
103	0	0	1432	4	184	0	3376
104	0	0	1412	4	183	0	3376
105	0	0	1413	5	183	0	3373
106	0	0	1418	5	184	0	3374
107	0	0	1439	5	184	0	3375
108	0	0	1476	5	183	0	3375
109	0	0	1539	4	182	0	3377
110	0	0	1606	5	184	0	3377
111	0	0	1661	5	185	0	3378
112	0	0	1687	5	183	0	3378
113	0	0	1701	5	185	0	3377
114	0	0	1706	4	185	0	3374
115	0	0	1751	5	185	0	3373
116	0	0	1774	5	185	0	3373
117	0	0	1789	5	185	0	3375
118	0	0	1810	5	185	0	3376
119	0	0	1785	4	184	0	3376
120	0	0	1708	4	184	0	3378
121	0	0	1585	4	183	0	3379
122	0	0	1486	4	184	0	3378
123	0	0	1427	4	182	0	3377
124	0	0	1388	3	183	0	3374
125	0	0	1364	4	183	0	3373
126	0	0	1379	5	184	0	3373
127	0	0	1414	5	183	0	3374
0	0	0	1445	5	183	0	3375
1	0	0	1475	5	183	0	3377
2	0	0	1509	5	183	0	3377
3	0	0	1542	5	184	0	3378
4	0	0	1556	5	185	0	3378
5	0	0	1566	5	184	0	3378
6	0	0	1606	5	186	0	3374
7	0	0	1676	5	185	0	3373
8	0	0	1732	5	185	0	3374
9	0	0	1732	4	185	0	3375
10	0	0	1686	4	184	0	3375
11	0	0	1613	3	184	0	3376
12	0	0	1547	4	185	0	3377
13	0	0	1495	4	184	0	3378
14	0	0	1458	4	181	0	3378
15	0	0	1427	4	183	0	3377
16	0	0	1417	4	183	0	3375
17	0	0	1433	5	182	0	3373
18	0	0	1468	4	183	0	3374
19	0	0	1503	5	183	0	3375
20	0	0	1497	5	183	0	3375
21	0	0	1477	4	184	0	3377
22	0	0	1500	5	184	0	3378
23	0	0	1547	5	183	0	3378
24	0	0	1563	4	185	0	3378
25	0	0	1558	4	184	0	3376
26	0	0	1565	5	185	0	3375
27	0	0	1641	5	184	0	3373
28	0	0	1696	5	184	0	3374
29	0	0	1699	4	184	0	3375
30	0	0	1676	4	184	0	3375
31	0	0	1610	4	185	0	3376
32	0	0	1555	4	184	0	3377
33	0	0	1514	4	183	0	3378
34	0	0	1458	4	183	0	3378
35	0	0	1413	4	183	0	3377
36	0	0	1419	3	183	0	3374
37	0	0	1425	5	184	0	3373
38	0	0	1508	4	183	0	3373
39	0	0	1622	5	183	0	3374
40	0	0	1686	5	184	0	3376
41	0	0	1736	4	184	0	3376
42	0	0	1775	4	184	0	3378
43	0	0	1834	5	184	0	3379
44	0	0	1916	5	183	0	3378
45	0	0	2000	5	184	0	3378
46	0	0	2087	5	185	0	3375
47	0	0	2167	5	186	0	3373
48	0	0	2189	5	185	0	3374
49	0	0	2146	4	184	0	3375
50	0	0	2087	4	185	0	3375
51	0	0	1978	4	184	0	3376
52	0	0	1885	4	185	0	3378
53	0	0	1819	4	184	0	3378
54	0	0	1766	4	184	0	3379
55	0	0	1740	4	184	0	3376
56	0	0	1726	4	183	0	3376
57	0	0	1702	4	183	0	3373
58	0	0	1680	4	184	0	3374
59	0	0	1669	4	183	0	3375
60	0	0	1685	5	184	0	3375
61	0	0	1706	5	185	0	3376
62	0	0	1723	5	183	0	3378
63	0	0	1716	4	185	0	3379
64	0	0	1700	4	183	0	3378
65	0	0	1682	4	184	0	3377
66	0	0	1685	5	185	0	3375
67	0	0	1715	5	185	0	3374
68	0	0	1706	4	185	0	3374
69	0	0	1679	4	185	0	3374
70	0	0	1632	4	185	0	3376
71	0	0	1549	4	184	0	3376
72	0	0	1480	3	185	0	3377
73	0	0	1432	4	184	0	3378
74	0	0	1445	5	184	0	3378
75	0	0	1474	5	184	0	3376
76	0	0	1466	4	182	0	3375
77	0	0	1434	4	185	0	3373
78	0	0	1408	4	183	0	3374
79	0	0	1409	4	183	0	3375
80	0	0	1417	5	183	0	3376
81	0	0	1444	5	183	0	3376
82	0	0	1485	4	184	0	3378
83	0	0	1516	4	184	0	3379
84	0	0	1545	5	185	0	3378
85	0	0	1571	5	185	0	3377
86	0	0	1594	4	185	0	3375
87	0	0	1638	5	186	0	3373
88	0	0	1634	4	186	0	3374
89	0	0	1624	4	186	0	3374
90	0	0	1635	5	184	0	3375
91	0	0	1591	4	184	0	3376
92	0	0	1520	4	184	0	3378
93	0	0	1463	4	184	0	3378
94	0	0	1414	4	183	0	3379
95	0	0	1389	4	183	0	3377
96	0	0	1384	4	184	0	3375
97	0	0	1384	4	183	0	3373
98	0	0	1404	5	184	0	3374
99	0	0	1402	4	182	0	3374
100	0	0	1405	5	183	0	3376
101	0	0	1443	5	186	0	3376
102	0	0	1504	5	185	0	3377
103	0	0	1567	5	184	0	3378
104	0	0	1615	5	185	0	3378
105	0	0	1637	5	186	0	3377
106	0	0	1677	5	186	0	3376
107	0	0	1763	5	185	0	3373
108	0	0	1779	4	185	0	3374
109	0	0	1741	4	184	0	3375
110	0	0	1687	4	186	0	3376
111	0	0	1587	3	183	0	3376
112	0	0	1496	3	185	0	3377
113	0	0	1419	4	184	0	3378
114	0	0	1367	5	184	0	3378
115	0	0	1359	5	183	0	3376
116	0	0	1377	5	183	0	3376
117	0	0	1395	4	184	0	3373
118	0	0	1422	5	183	0	3374
119	0	0	1430	5	184	0	3374
120	0	0	1439	5	183	0	3375
121	0	0	1486	5	185	0	3376
122	0	0	1533	5	184	0	3378
123	0	0	1579	5	185	0	3378
124	0	0	1610	5	184	0	3378
125	0	0	1631	5	185	0	3377
126	0	0	1664	5	185	0	3376
127	0	0	1726	5	186	0	3374
0	0	0	1751	5	185	0	3373
1	0	0	1742	4	185	0	3375
2	0	0	1720	4	185	0	3375
3	0	0	1648	4	183	0	3376
4	0	0	1586	4	184	0	3378
5	0	0	1532	4	185	0	3378
6	0	0	1454	4	184	0	3378
7	0	0	1382	4	183	0	3376
8	0	0	1384	5	184	0	3375
9	0	0	1397	5	183	0	3374
10	0	0	1424	5	183	0	3374
11	0	0	1467	5	184	0	3375
12	0	0	1506	5	183	0	3375
13	0	0	1552	5	185	0	3376
14	0	0	1616	4	185	0	3378
15	0	0	1704	5	184	0	3378
16	0	0	1780	5	185	0	3379
17	0	0	1828	5	185	0	3377
18	0	0	1857	5	186	0	3376
19	0	0	1885	5	186	0	3373
20	0	0	1890	4	185	0	3373
21	0	0	1859	4	185	0	3375
22	0	0	1808	4	186	0	3376
23	0	0	1713	5	185	0	3376
24	0	0	1612	4	185	0	3378
25	0	0	1536	4	184	0	3379
26	0	0	1483	4	184	0	3378
27	0	0	1448	4	184	0	3377
28	0	0	1441	4	183	0	3374
29	0	0	1411	4	183	0	3373
30	0	0	1382	4	184	0	3373
31	0	0	1418	5	183	0	3374
32	0	0	1489	5	184	0	3375
33	0	0	1558	5	183	0	3376
34	0	0	1625	5	184	0	3377
35	0	0	1720	5	184	0	3378
36	0	0	1793	5	184	0	3378
37	0	0	1849	5	185	0	3377
38	0	0	1880	5	186	0	3376
39	0	0	1923	5	185	0	3374
40	0	0	1908	4	185	0	3373
41	0	0	1855	4	185	0	3375
42	0	0	1789	4	186	0	3375
43	0	0	1707	4	185	0	3378
44	0	0	1641	4	185	0	3378
45	0	0	1599	4	184	0	3379
46	0	0	1555	4	183	0	3379
47	0	0	1513	4	183	0	3377
48	0	0	1486	4	182	0	3375
49	0	0	1468	3	183	0	3373
50	0	0	1480	5	182	0	3373
51	0	0	1511	5	183	0	3375
52	0	0	1545	5	184	0	3375
53	0	0	1603	5	184	0	3376
54	0	0	1661	5	184	0	3377
55	0	0	1733	4	184	0	3379
56	0	0	1779	5	185	0	3378
57	0	0	1806	5	185	0	3378
58	0	0	1837	7	186	0	3375
59	0	0	1874	4	185	0	3374
60	0	0	1853	4	185	0	3374
61	0	0	1829	4	184	0	3375
62	0	0	1806	4	184	0	3376
63	0	0	1765	4	184	0	3378
64	0	0	1711	4	183	0	3378
65	0	0	1651	4	184	0	3379
66	0	0	1587	4	184	0	3378
67	0	0	1537	4	184	0	3377
68	0	0	1510	4	184	0	3375
69	0	0	1503	4	182	0	3373
70	0	0	1525	5	183	0	3374
71	0	0	1574	5	184	0	3375
72	0	0	1634	5	183	0	3375
73	0	0	1695	4	184	0	3376
74	0	0	1743	5	184	0	3378
75	0	0	1797	5	183	0	3378
76	0	0	1820	5	184	0	3378
77	0	0	1827	5	185	0	3377
78	0	0	1819	5	183	0	3376
79	0	0	1839	5	185	0	3374
80	0	0	1825	4	185	0	3374
81	0	0	1805	4	184	0	3375
82	0	0	1782	4	184	0	3376
83	0	0	1736	4	184	0	3377
84	0	0	1692	4	183	0	3378
85	0	0	1655	4	183	0	3378
86	0	0	1628	4	184	0	3378
87	0	0	1633	5	183	0	3377
88	0	0	1664	5	182	0	3375
89	0	0	1666	5	183	0	3373
90	0	0	1650	4	183	0	3373
91	0	0	1643	4	184	0	3375
92	0	0	1653	5	184	0	3377
93	0	0	1680	4	183	0	3378
94	0	0	1708	5	183	0	3378
95	0	0	1755	5	184	0	3378
96	0	0	1836	5	184	0	3379
97	0	0	1882	5	184	0	3377
98	0	0	1900	5	185	0	3376
99	0	0	1943	5	184	0	3374
100	0	0	1942	4	185	0	3374
101	0	0	1920	4	184	0	3375
102	0	0	1885	4	184	0	3376
103	0	0	1810	4	184	0	3376
104	0	0	1732	5	184	0	3378
105	0	0	1685	4	183	0	3378
106	0	0	1657	4	183	0	3378
107	0	0	1617	4	182	0	3377
108	0	0	1589	4	183	0	3375
109	0	0	1573	5	184	0	3374
110	0	0	1578	5	182	0	3373
111	0	0	1629	5	183	0	3375
112	0	0	1684	5	184	0	3375
113	0	0	1752	5	183	0	3377
114	0	0	1799	5	183	0	3378
115	0	0	1838	5	183	0	3379
116	0	0	1878	5	183	0	3378
117	0	0	1912	5	184	0	3378
118	0	0	1936	5	185	0	3375
119	0	0	2009	5	185	0	3373
120	0	0	2044	5	185	0	3374
121	0	0	2048	4	185	0	3375
122	0	0	2016	4	185	0	3375
123	0	0	1935	4	185	0	3378
124	0	0	1823	4	184	0	3378
125	0	0	1737	4	184	0	3378
126	0	0	1688	4	183	0	3378
127	0	0	1633	4	184	0	3377
0	0	0	1591	4	183	0	3375
1	0	0	1561	4	183	0	3374
2	0	0	1584	5	183	0	3374
3	0	0	1644	5	183	0	3375
4	0	0	1693	5	184	0	3375
5	0	0	1752	5	183	0	3376
6	0	0	1818	5	182	0	3377
7	0	0	1889	5	183	0	3378
8	0	0	1944	5	184	0	3379
9	0	0	1986	5	183	0	3377
10	0	0	2019	5	183	0	3376
11	0	0	2073	5	186	0	3373
12	0	0	2063	4	184	0	3373
13	0	0	1999	4	185	0	3375
14	0	0	1927	4	184	0	3375
15	0	0	1845	4	183	0	3376
16	0	0	1770	4	184	0	3378
17	0	0	1714	4	183	0	3378
18	0	0	1682	4	183	0	3378
19	0	0	1675	4	183	0	3377
20	0	0	1676	4	182	0	3375
21	0	0	1690	5	183	0	3373
22	0	0	1740	5	183	0	3374
23	0	0	1797	5	183	0	3375
24	0	0	1831	5	183	0	3376
25	0	0	1885	5	185	0	3378
26	0	0	1955	5	182	0	3378
27	0	0	1992	4	183	0	3378
28	0	0	1991	5	185	0	3378
29	0	0	1982	4	183	0	3377
30	0	0	1983	5	185	0	3375
31	0	0	2036	5	184	0	3373
32	0	0	2058	5	185	0	3373
33	0	0	2025	4	185	0	3375
34	0	0	1980	4	185	0	3376
35	0	0	1917	4	184	0	3377
36	0	0	1840	4	183	0	3378
37	0	0	1781	4	183	0	3379
38	0	0	1714	4	183	0	3378
39	0	0	1677	4	183	0	3378
40	0	0	1689	6	183	0	3375
41	0	0	1716	5	183	0	3374
42	0	0	1772	5	184	0	3374
43	0	0	1823	5	182	0	3375
44	0	0	1855	5	184	0	3376
45	0	0	1864	5	185	0	3376
46	0	0	1881	5	183	0	3378
47	0	0	1919	4	184	0	3378
48	0	0	1962	5	183	0	3378
49	0	0	1970	5	185	0	3377
50	0	0	1973	5	184	0	3375
51	0	0	2028	5	184	0	3373
52	0	0	2056	4	184	0	3373
53	0	0	2038	4	185	0	3375
54	0	0	2008	4	184	0	3375
55	0	0	1942	4	184	0	3377
56	0	0	1849	4	184	0	3377
57	0	0	1787	4	184	0	3378
58	0	0	1752	4	182	0	3379
59	0	0	1726	5	183	0	3377
60	0	0	1738	5	183	0	3375
61	0	0	1729	4	183	0	3373
62	0	0	1736	5	184	0	3373
63	0	0	1784	5	184	0	3374
64	0	0	1848	5	183	0	3375
65	0	0	1913	5	184	0	3376
66	0	0	1950	5	184	0	3378
67	0	0	1984	5	185	0	3379
68	0	0	2036	5	184	0	3378
69	0	0	2093	5	184	0	3378
70	0	0	2127	4	185	0	3375
71	0	0	2136	4	185	0	3374
72	0	0	2092	4	184	0	3374
73	0	0	2032	4	185	0	3375
74	0	0	1980	4	184	0	3375
75	0	0	1903	4	184	0	3376
76	0	0	1832	4	183	0	3377
77	0	0	1766	4	183	0	3378
78	0	0	1707	4	183	0	3378
79	0	0	1672	4	184	0	3377
80	0	0	1691	5	183	0	3375
81	0	0	1732	5	183	0	3373
82	0	0	1772	4	183	0	3373
83	0	0	1814	5	184	0	3374
84	0	0	1840	5	183	0	3375
85	0	0	1839	5	184	0	3376
86	0	0	1843	5	184	0	3377
87	0	0	1862	4	183	0	3378
88	0	0	1908	5	184	0	3379
89	0	0	1974	5	184	0	3377
90	0	0	2014	5	185	0	3376
91	0	0	2056	5	184	0	3373
92	0	0	2030	4	185	0	3374
93	0	0	1981	4	185	0	3375
94	0	0	1925	4	184	0	3375
95	0	0	1849	4	183	0	3377
96	0	0	1782	4	184	0	3378
97	0	0	1739	4	184	0	3378
98	0	0	1729	5	183	0	3378
99	0	0	1744	5	183	0	3377
100	0	0	1748	4	183	0	3375
101	0	0	1717	4	184	0	3373
102	0	0	1694	4	183	0	3373
103	0	0	1710	5	184	0	3375
104	0	0	1747	5	184	0	3376
105	0	0	1798	6	183	0	3376
106	0	0	1867	6	184	0	3377
107	0	0	1913	5	183	0	3379
108	0	0	1951	5	185	0	3378
109	0	0	1999	5	184	0	3377
110	0	0	2030	5	185	0	3376
111	0	0	2097	5	185	0	3374
112	0	0	2123	5	184	0	3374
113	0	0	2076	4	185	0	3375
114	0	0	1995	4	184	0	3375
115	0	0	1908	4	184	0	3376
116	0	0	1855	5	184	0	3378
117	0	0	1836	4	183	0	3379
118	0	0	1805	4	182	0	3378
119	0	0	1750	4	184	0	3377
120	0	0	1692	4	182	0	3376
121	0	0	1644	4	183	0	3374
122	0	0	1644	5	182	0	3373
123	0	0	1680	5	183	0	3374
124	0	0	1731	5	183	0	3375
125	0	0	1787	5	183	0	3376
126	0	0	1853	6	184	0	3377
127	0	0	1924	5	183	0	3378
0	0	0	1970	5	185	0	3378
1	0	0	2001	5	185	0	3378
2	0	0	2035	6	186	0	3375
3	0	0	2074	7	185	0	3374
4	0	0	2087	5	185	0	3374
5	0	0	2051	4	184	0	3374
6	0	0	2001	4	185	0	3376
7	0	0	1939	5	184	0	3376
8	0	0	1861	5	184	0	3377
9	0	0	1802	4	183	0	3379
10	0	0	1779	4	183	0	3378
11	0	0	1756	4	183	0	3377
12	0	0	1748	4	183	0	3375
13	0	0	1733	3	184	0	3373
14	0	0	1745	5	183	0	3373
15	0	0	1799	5	184	0	3375
16	0	0	1862	5	184	0	3375
17	0	0	1890	5	184	0	3377
18	0	0	1892	5	184	0	3378
19	0	0	1908	5	184	0	3379
20	0	0	1944	6	183	0	3378
21	0	0	1982	5	185	0	3377
22	0	0	2018	4	185	0	3375
23	0	0	2065	6	184	0	3373
24	0	0	2062	5	185	0	3373
25	0	0	2048	5	185	0	3374
26	0	0	2045	4	184	0	3375
27	0	0	1997	4	184	0	3376
28	0	0	1930	3	184	0	3377
29	0	0	1867	4	184	0	3378
30	0	0	1827	4	184	0	3378
31	0	0	1794	4	184	0	3378
32	0	0	1777	4	183	0	3375
33	0	0	1763	4	182	0	3374
34	0	0	1781	5	182	0	3374
35	0	0	1795	5	184	0	3374
36	0	0	1812	5	183	0	3375
37	0	0	1852	5	183	0	3377
38	0	0	1908	5	183	0	3379
39	0	0	1990	5	185	0	3378
40	0	0	2080	5	184	0	3378
41	0	0	2125	4	186	0	3377
42	0	0	2160	5	184	0	3376
43	0	0	2211	5	185	0	3373
44	0	0	2222	4	186	0	3373
45	0	0	2169	4	185	0	3375
46	0	0	2077	4	184	0	3375
47	0	0	1953	3	185	0	3376
48	0	0	1845	4	185	0	3377
49	0	0	1778	4	184	0	3378
50	0	0	1745	4	183	0	3378
51	0	0	1742	5	184	0	3378
52	0	0	1762	4	182	0	3375
53	0	0	1778	5	184	0	3374
54	0	0	1815	4	183	0	3374
55	0	0	1843	5	183	0	3375
56	0	0	1854	5	185	0	3375
57	0	0	1878	5	183	0	3376
58	0	0	1902	5	184	0	3378
59	0	0	1960	5	184	0	3378
60	0	0	2038	5	185	0	3379
61	0	0	2090	5	184	0	3377
62	0	0	2113	5	185	0	3376
63	0	0	2154	5	186	0	3373
64	0	0	2185	5	186	0	3373
65	0	0	2173	4	184	0	3374
66	0	0	2119	4	186	0	3375
67	0	0	2008	3	185	0	3376
68	0	0	1924	4	184	0	3378
69	0	0	1874	4	185	0	3378
70	0	0	1842	4	185	0	3378
71	0	0	1812	4	184	0	3377
72	0	0	1792	3	183	0	3375
73	0	0	1781	5	185	0	3373
74	0	0	1805	5	184	0	3374
75	0	0	1848	4	184	0	3375
76	0	0	1885	5	184	0	3375
77	0	0	1915	5	184	0	3377
78	0	0	1943	5	184	0	3378
79	0	0	1966	5	185	0	3378
80	0	0	2013	5	185	0	3378
81	0	0	2090	5	185	0	3377
82	0	0	2163	4	186	0	3375
83	0	0	2231	5	186	0	3374
84	0	0	2243	4	186	0	3374
85	0	0	2193	4	186	0	3374
86	0	0	2114	4	185	0	3375
87	0	0	2025	4	185	0	3376
88	0	0	1948	4	185	0	3378
89	0	0	1891	4	183	0	3378
90	0	0	1854	4	185	0	3379
91	0	0	1829	5	185	0	3377
92	0	0	1825	5	184	0	3375
93	0	0	1809	5	184	0	3373
94	0	0	1828	5	184	0	3374
95	0	0	1886	5	183	0	3375
96	0	0	1942	5	184	0	3376
97	0	0	1993	5	185	0	3376
98	0	0	2032	5	186	0	3378
99	0	0	2064	5	184	0	3378
100	0	0	2094	5	185	0	3378
101	0	0	2131	4	185	0	3377
102	0	0	2164	5	186	0	3375
103	0	0	2198	6	186	0	3374
104	0	0	2185	4	186	0	3374
105	0	0	2149	4	185	0	3375
106	0	0	2097	4	185	0	3375
107	0	0	2036	4	186	0	3376
108	0	0	2006	4	185	0	3378
109	0	0	2010	5	186	0	3379
110	0	0	1992	4	184	0	3378
111	0	0	1946	4	183	0	3377
112	0	0	1896	4	184	0	3375
113	0	0	1856	4	184	0	3374
114	0	0	1860	5	184	0	3374
115	0	0	1897	5	185	0	3375
116	0	0	1920	5	183	0	3375
117	0	0	1946	5	185	0	3377
118	0	0	1978	5	185	0	3378
119	0	0	2028	5	184	0	3379
120	0	0	2081	5	185	0	3378
121	0	0	2114	5	185	0	3378
122	0	0	2143	5	186	0	3375
123	0	0	2193	5	186	0	3374
124	0	0	2197	4	185	0	3374
125	0	0	2160	4	185	0	3375
126	0	0	2114	4	184	0	3375
127	0	0	2054	4	185	0	3376
0	0	0	1980	4	184	0	3378
1	0	0	1919	4	184	0	3378
2	0	0	1882	4	184	0	3379
3	0	0	1882	5	183	0	3377
4	0	0	1901	5	185	0	3375
5	0	0	1905	6	184	0	3373
6	0	0	1933	5	185	0	3374
7	0	0	1978	5	184	0	3375
8	0	0	2011	4	184	0	3376
9	0	0	2049	5	185	0	3377
10	0	0	2105	5	184	0	3378
11	0	0	2139	5	186	0	3378
12	0	0	2142	5	185	0	3378
13	0	0	2134	4	186	0	3377
14	0	0	2126	5	185	0	3375
15	0	0	2145	5	185	0	3374
16	0	0	2145	4	186	0	3374
17	0	0	2115	4	185	0	3375
18	0	0	2087	5	185	0	3375
19	0	0	2057	4	185	0	3376
20	0	0	2014	4	184	0	3378
21	0	0	1963	4	184	0	3378
22	0	0	1904	4	183	0	3378
23	0	0	1863	4	182	0	3377
24	0	0	1860	5	184	0	3376
25	0	0	1854	5	184	0	3374
26	0	0	1870	5	184	0	3374
27	0	0	1908	5	184	0	3375
28	0	0	1942	5	183	0	3375
29	0	0	1980	5	186	0	3376
30	0	0	2013	5	184	0	3378
31	0	0	2060	5	185	0	3378
32	0	0	2108	5	185	0	3379
33	0	0	2132	5	184	0	3377
34	0	0	2147	5	186	0	3376
35	0	0	2190	5	185	0	3374
36	0	0	2218	5	185	0	3373
37	0	0	2238	5	185	0	3374
38	0	0	2249	5	185	0	3375
39	0	0	2213	5	186	0	3377
40	0	0	2154	5	185	0	3377
41	0	0	2064	4	185	0	3378
42	0	0	1981	4	184	0	3378
43	0	0	1931	3	184	0	3378
44	0	0	1889	4	183	0	3375
45	0	0	1856	4	183	0	3374
46	0	0	1865	5	183	0	3374
47	0	0	1891	5	184	0	3375
48	0	0	1919	5	183	0	3375
49	0	0	1975	5	184	0	3376
50	0	0	2061	5	184	0	3378
51	0	0	2133	5	184	0	3378
52	0	0	2170	5	184	0	3379
53	0	0	2185	5	186	0	3378
54	0	0	2191	5	185	0	3375
55	0	0	2196	5	185	0	3373
56	0	0	2153	4	185	0	3374
57	0	0	2112	4	186	0	3375
58	0	0	2105	5	184	0	3375
59	0	0	2076	4	185	0	3377
60	0	0	2039	4	184	0	3377
61	0	0	1992	4	184	0	3378
62	0	0	1935	4	183	0	3378
63	0	0	1900	4	184	0	3377
64	0	0	1878	4	185	0	3375
65	0	0	1870	5	183	0	3373
66	0	0	1887	5	184	0	3374
67	0	0	1901	5	183	0	3375
68	0	0	1915	5	185	0	3375
69	0	0	1947	5	184	0	3377
70	0	0	1987	5	183	0	3379
71	0	0	2021	4	184	0	3378
72	0	0	2038	5	185	0	3378
73	0	0	2075	5	185	0	3377
74	0	0	2132	5	186	0	3375
75	0	0	2215	5	184	0	3374
76	0	0	2246	4	186	0	3374
77	0	0	2217	4	185	0	3374
78	0	0	2177	4	185	0	3375
79	0	0	2119	4	185	0	3377
80	0	0	2045	4	184	0	3378
81	0	0	1968	3	183	0	3378
82	0	0	1907	4	183	0	3379
83	0	0	1874	4	183	0	3377
84	0	0	1865	4	183	0	3375
85	0	0	1852	4	182	0	3373
86	0	0	1868	4	184	0	3373
87	0	0	1899	5	184	0	3374
88	0	0	1926	4	183	0	3376
89	0	0	1972	4	184	0	3376
90	0	0	2019	5	184	0	3378
91	0	0	2067	5	185	0	3379
92	0	0	2122	5	184	0	3378
93	0	0	2176	5	185	0	3377
94	0	0	2221	5	185	0	3375
95	0	0	2270	6	185	0	3373
96	0	0	2268	4	186	0	3373
97	0	0	2214	4	185	0	3375
98	0	0	2136	4	184	0	3375
99	0	0	2012	4	184	0	3377
100	0	0	1901	4	184	0	3379
101	0	0	1875	5	183	0	3378
102	0	0	1915	5	184	0	3379
103	0	0	1961	5	183	0	3377
104	0	0	1962	3	183	0	3376
105	0	0	1844	4	183	0	3373
106	0	0	1730	3	184	0	3374
107	0	0	1725	5	182	0	3374
108	0	0	1787	4	184	0	3375
109	0	0	1879	5	184	0	3376
110	0	0	1954	5	184	0	3378
111	0	0	2021	5	183	0	3379
112	0	0	2108	5	184	0	3378
113	0	0	2202	5	185	0	3377
114	0	0	2261	5	184	0	3376
115	0	0	2305	5	185	0	3375
116	0	0	2313	5	184	0	3373
117	0	0	2296	5	185	0	3375
118	0	0	2275	4	186	0	3375
119	0	0	2239	5	184	0	3376
120	0	0	2215	5	185	0	3377
121	0	0	2198	4	185	0	3378
122	0	0	2177	5	183	0	3378
123	0	0	2184	3	183	0	3378
124	0	0	2219	5	184	0	3375
125	0	0	2232	5	183	0	3373
126	0	0	2226	6	183	0	3374
127	0	0	2206	4	184	0	3375
0	0	0	2193	5	185	0	3376
1	0	0	2216	4	183	0	3378
2	0	0	2259	5	183	0	3378
3	0	0	2316	4	185	0	3379
4	0	0	2327	5	184	0	3378
5	0	0	2309	5	184	0	3377
6	0	0	2303	6	186	0	3375
7	0	0	2322	5	185	0	3373
8	0	0	2298	5	185	0	3374
9	0	0	2246	4	185	0	3375
10	0	0	2179	4	184	0	3375
11	0	0	2097	4	185	0	3376
12	0	0	2017	4	183	0	3378
13	0	0	1945	4	183	0	3379
14	0	0	1895	4	183	0	3378
15	0	0	1895	4	183	0	3378
16	0	0	1900	5	182	0	3375
17	0	0	1878	4	182	0	3374
18	0	0	1881	5	183	0	3374
19	0	0	1921	5	184	0	3375
20	0	0	1997	5	183	0	3376
21	0	0	2089	5	184	0	3376
22	0	0	2163	5	183	0	3378
23	0	0	2194	5	183	0	3379
24	0	0	2175	4	184	0	3379
25	0	0	2147	4	185	0	3377
26	0	0	2147	6	185	0	3375
27	0	0	2165	5	185	0	3374
28	0	0	2135	4	185	0	3374
29	0	0	2088	4	185	0	3375
30	0	0	2036	4	185	0	3376
31	0	0	1969	4	184	0	3377
32	0	0	1914	4	184	0	3379
33	0	0	1888	5	183	0	3379
34	0	0	1873	4	183	0	3378
35	0	0	1868	4	183	0	3377
36	0	0	1861	5	182	0	3375
37	0	0	1845	4	182	0	3373
38	0	0	1863	4	182	0	3374
39	0	0	1917	5	183	0	3375
40	0	0	1972	4	183	0	3376
41	0	0	2031	5	185	0	3376
42	0	0	2094	5	181	0	3378
43	0	0	2191	5	183	0	3379
44	0	0	2275	5	184	0	3378
45	0	0	2315	5	183	0	3377
46	0	0	2316	5	184	0	3375
47	0	0	2317	4	184	0	3374
48	0	0	2269	4	184	0	3374
49	0	0	2165	4	184	0	3375
50	0	0	2089	4	184	0	3375
51	0	0	2028	5	184	0	3377
52	0	0	1983	4	182	0	3378
53	0	0	1954	4	183	0	3379
54	0	0	1924	4	183	0	3379
55	0	0	1922	5	182	0	3377
56	0	0	1939	5	183	0	3375
57	0	0	1914	4	182	0	3374
58	0	0	1875	4	184	0	3374
59	0	0	1879	5	182	0	3375
60	0	0	1904	5	183	0	3375
61	0	0	1936	5	183	0	3377
62	0	0	1955	5	184	0	3378
63	0	0	1967	5	184	0	3379
64	0	0	1967	5	183	0	3379
65	0	0	1981	5	184	0	3377
66	0	0	2023	5	185	0	3375
67	0	0	2092	5	184	0	3374
68	0	0	2132	5	184	0	3374
69	0	0	2161	5	184	0	3375
70	0	0	2189	5	182	0	3375
71	0	0	2150	4	183	0	3376
72	0	0	2071	4	182	0	3378
73	0	0	1985	4	182	0	3378
74	0	0	1907	4	183	0	3379
75	0	0	1872	4	183	0	3377
76	0	0	1875	6	183	0	3375
77	0	0	1878	5	181	0	3374
78	0	0	1885	5	183	0	3375
79	0	0	1908	5	183	0	3375
80	0	0	1947	5	182	0	3375
81	0	0	1987	5	183	0	3377
82	0	0	1999	5	183	0	3378
83	0	0	1996	4	183	0	3379
84	0	0	1986	5	184	0	3379
85	0	0	1986	5	184	0	3377
86	0	0	2021	5	183	0	3375
87	0	0	2100	5	184	0	3374
88	0	0	2158	5	184	0	3374
89	0	0	2184	5	183	0	3376
90	0	0	2168	4	184	0	3376
91	0	0	2091	4	183	0	3377
92	0	0	2001	4	184	0	3378
93	0	0	1932	4	183	0	3379
94	0	0	1886	4	183	0	3378
95	0	0	1861	4	182	0	3377
96	0	0	1843	4	183	0	3375
97	0	0	1800	4	182	0	3374
98	0	0	1790	4	182	0	3374
99	0	0	1840	5	182	0	3375
100	0	0	1919	5	182	0	3376
101	0	0	2001	5	182	0	3377
102	0	0	2063	5	182	0	3378
103	0	0	2110	5	183	0	3379
104	0	0	2154	5	183	0	3379
105	0	0	2203	4	183	0	3378
106	0	0	2239	7	185	0	3376
107	0	0	2274	5	184	0	3374
108	0	0	2263	4	184	0	3374
109	0	0	2202	4	184	0	3375
110	0	0	2161	4	183	0	3377
111	0	0	2119	4	184	0	3377
112	0	0	2056	4	184	0	3378
113	0	0	1989	3	182	0	3379
114	0	0	1923	4	184	0	3379
115	0	0	1879	4	182	0	3377
116	0	0	1863	4	183	0	3376
117	0	0	1859	5	182	0	3374
118	0	0	1891	4	182	0	3374
119	0	0	1974	5	183	0	3375
120	0	0	2050	5	183	0	3376
121	0	0	2103	5	182	0	3377
122	0	0	2115	5	184	0	3378
123	0	0	2099	5	183	0	3379
124	0	0	2136	5	183	0	3379
125	0	0	2199	5	184	0	3377
126	0	0	2248	5	183	0	3376
127	0	0	2299	5	184	0	3374
0	0	0	2318	5	183	0	3375
1	0	0	2276	4	185	0	3375
2	0	0	2219	4	183	0	3377
3	0	0	2147	4	183	0	3377
4	0	0	2076	4	183	0	3378
5	0	0	2018	4	183	0	3379
6	0	0	1982	4	183	0	3379
7	0	0	1963	4	182	0	3377
8	0	0	1968	5	182	0	3376
9	0	0	1948	4	182	0	3374
10	0	0	1931	4	183	0	3374
11	0	0	1961	5	183	0	3375
12	0	0	2017	5	182	0	3376
13	0	0	2091	5	182	0	3377
14	0	0	2172	5	183	0	3378
15	0	0	2249	4	184	0	3379
16	0	0	2302	5	184	0	3379
17	0	0	2312	5	183	0	3379
18	0	0	2317	5	185	0	3376
19	0	0	2326	4	185	0	3374
20	0	0	2286	4	184	0	3375
21	0	0	2231	4	183	0	3375
22	0	0	2184	4	183	0	3376
23	0	0	2112	3	183	0	3377
24	0	0	2046	4	183	0	3378
25	0	0	1998	3	183	0	3379
26	0	0	1954	4	183	0	3379
27	0	0	1929	4	183	0	3377
28	0	0	1930	5	183	0	3376
29	0	0	1935	5	183	0	3375
30	0	0	1951	5	181	0	3374
31	0	0	2002	5	183	0	3376
32	0	0	2065	6	183	0	3376
33	0	0	2138	5	184	0	3378
34	0	0	2186	5	183	0	3378
35	0	0	2213	4	183	0	3379
36	0	0	2261	5	184	0	3379
37	0	0	2334	5	184	0	3378
38	0	0	2386	5	185	0	3376
39	0	0	2414	5	185	0	3374
40	0	0	2362	4	185	0	3374
41	0	0	2261	4	184	0	3375
42	0	0	2192	4	184	0	3376
43	0	0	2158	4	184	0	3377
44	0	0	2133	4	183	0	3378
45	0	0	2106	4	184	0	3379
46	0	0	2089	4	183	0	3378
47	0	0	2093	5	183	0	3379
48	0	0	2079	4	184	0	3376
49	0	0	2040	4	182	0	3374
50	0	0	2025	5	182	0	3375
51	0	0	2043	5	183	0	3375
52	0	0	2077	5	182	0	3376
53	0	0	2137	4	184	0	3377
54	0	0	2189	5	183	0	3378
55	0	0	2208	5	183	0	3379
56	0	0	2230	5	183	0	3379
57	0	0	2260	5	184	0	3377
58	0	0	2295	5	185	0	3376
59	0	0	2351	5	185	0	3374
60	0	0	2389	4	185	0	3374
61	0	0	2385	5	185	0	3376
62	0	0	2347	5	184	0	3376
63	0	0	2274	4	184	0	3378
64	0	0	2219	4	184	0	3379
65	0	0	2182	3	183	0	3379
66	0	0	2137	4	183	0	3379
67	0	0	2094	5	182	0	3378
68	0	0	2052	4	183	0	3376
69	0	0	2008	4	183	0	3374
70	0	0	2004	3	183	0	3374
71	0	0	2049	5	183	0	3375
72	0	0	2105	5	183	0	3377
73	0	0	2173	5	185	0	3377
74	0	0	2222	4	183	0	3378
75	0	0	2272	3	183	0	3379
76	0	0	2340	5	184	0	3379
77	0	0	2386	6	183	0	3377
78	0	0	2415	5	184	0	3376
79	0	0	2447	5	183	0	3374
80	0	0	2441	3	184	0	3374
81	0	0	2395	3	184	0	3375
82	0	0	2336	4	184	0	3376
83	0	0	2265	4	183	0	3377
84	0	0	2193	4	183	0	3378
85	0	0	2126	4	182	0	3379
86	0	0	2083	4	183	0	3379
87	0	0	2071	5	183	0	3379
88	0	0	2102	5	182	0	3376
89	0	0	2144	5	183	0	3374
90	0	0	2179	5	184	0	3375
91	0	0	2209	5	183	0	3375
92	0	0	2242	4	182	0	3376
93	0	0	2292	5	183	0	3377
94	0	0	2346	5	184	0	3378
95	0	0	2389	4	183	0	3379
96	0	0	2394	5	184	0	3379
97	0	0	2366	4	184	0	3378
98	0	0	2332	4	184	0	3377
99	0	0	2340	5	185	0	3375
100	0	0	2356	4	185	0	3375
101	0	0	2387	5	184	0	3376
102	0	0	2411	5	184	0	3376
103	0	0	2385	5	184	0	3377
104	0	0	2333	4	184	0	3378
105	0	0	2255	3	182	0	3379
106	0	0	2171	3	183	0	3379
107	0	0	2119	4	182	0	3378
108	0	0	2123	5	183	0	3376
109	0	0	2155	5	183	0	3374
110	0	0	2194	4	184	0	3374
111	0	0	2235	5	183	0	3375
112	0	0	2257	5	184	0	3377
113	0	0	2277	5	183	0	3377
114	0	0	2314	5	184	0	3379
115	0	0	2359	5	183	0	3380
116	0	0	2395	5	183	0	3379
117	0	0	2419	4	184	0	3378
118	0	0	2432	5	184	0	3376
119	0	0	2474	5	183	0	3374
120	0	0	2513	3	185	0	3375
121	0	0	2492	4	184	0	3375
122	0	0	2425	4	184	0	3376
123	0	0	2357	4	184	0	3378
124	0	0	2330	4	183	0	3379
125	0	0	2317	4	184	0	3379
126	0	0	2284	4	184	0	3380
127	0	0	2227	4	184	0	3378
0	0	0	2183	4	183	0	3376
1	0	0	2185	5	184	0	3374
2	0	0	2220	4	183	0	3374
3	0	0	2288	4	183	0	3375
4	0	0	2353	6	183	0	3376
5	0	0	2403	5	183	0	3377
6	0	0	2436	5	184	0	3378
7	0	0	2451	4	184	0	3379
8	0	0	2454	4	184	0	3379
9	0	0	2461	5	185	0	3379
10	0	0	2460	5	184	0	3376
11	0	0	2486	5	186	0	3374
12	0	0	2454	4	184	0	3374
13	0	0	2378	4	185	0	3376
14	0	0	2305	3	184	0	3376
15	0	0	2232	5	184	0	3377
16	0	0	2182	4	183	0	3378
17	0	0	2178	4	184	0	3379
18	0	0	2174	5	183	0	3379
19	0	0	2159	4	182	0	3379
20	0	0	2175	4	183	0	3376
21	0	0	2230	5	184	0	3374
22	0	0	2271	4	183	0	3375
23	0	0	2286	5	183	0	3375
24	0	0	2265	4	184	0	3376
25	0	0	2249	5	183	0	3379
26	0	0	2256	5	184	0	3379
27	0	0	2279	5	183	0	3379
28	0	0	2307	5	184	0	3379
29	0	0	2344	6	184	0	3378
30	0	0	2379	5	185	0	3376
31	0	0	2436	5	185	0	3374
32	0	0	2460	5	185	0	3375
33	0	0	2421	4	185	0	3375
34	0	0	2381	5	183	0	3377
35	0	0	2318	4	184	0	3377
36	0	0	2261	4	181	0	3378
37	0	0	2242	5	183	0	3379
38	0	0	2234	5	183	0	3379
39	0	0	2213	4	182	0	3378
40	0	0	2175	4	183	0	3376
41	0	0	2136	4	184	0	3375
42	0	0	2124	5	182	0	3374
43	0	0	2149	5	183	0	3375
44	0	0	2181	5	183	0	3376
45	0	0	2227	4	184	0	3377
46	0	0	2291	5	183	0	3378
47	0	0	2365	5	184	0	3379
48	0	0	2418	5	184	0	3380
49	0	0	2429	5	185	0	3378
50	0	0	2441	5	185	0	3377
51	0	0	2498	5	185	0	3375
52	0	0	2528	5	185	0	3374
53	0	0	2492	4	185	0	3376
54	0	0	2433	4	183	0	3376
55	0	0	2367	4	183	0	3377
56	0	0	2304	4	185	0	3379
57	0	0	2244	4	183	0	3379
58	0	0	2193	4	183	0	3379
59	0	0	2148	5	183	0	3378
60	0	0	2139	5	183	0	3376
61	0	0	2122	4	182	0	3374
62	0	0	2117	5	184	0	3375
63	0	0	2137	5	184	0	3375
64	0	0	2182	5	184	0	3376
65	0	0	2235	5	184	0	3378
66	0	0	2265	5	184	0	3379
67	0	0	2279	5	183	0	3379
68	0	0	2317	5	185	0	3379
69	0	0	2372	5	184	0	3378
70	0	0	2438	4	184	0	3376
71	0	0	2516	5	186	0	3374
72	0	0	2539	5	185	0	3374
73	0	0	2485	4	185	0	3375
74	0	0	2421	4	184	0	3376
75	0	0	2365	4	185	0	3377
76	0	0	2309	4	184	0	3379
77	0	0	2243	4	184	0	3379
78	0	0	2182	4	183	0	3379
79	0	0	2147	4	183	0	3379
80	0	0	2146	5	183	0	3376
81	0	0	2140	5	184	0	3375
82	0	0	2178	5	183	0	3375
83	0	0	2257	5	184	0	3375
84	0	0	2315	5	183	0	3377
85	0	0	2349	5	186	0	3377
86	0	0	2343	4	184	0	3379
87	0	0	2340	5	183	0	3379
88	0	0	2388	5	183	0	3380
89	0	0	2443	5	185	0	3378
90	0	0	2455	6	185	0	3376
91	0	0	2476	5	185	0	3375
92	0	0	2470	4	184	0	3374
93	0	0	2435	4	184	0	3375
94	0	0	2413	4	184	0	3376
95	0	0	2374	4	185	0	3377
96	0	0	2321	4	184	0	3379
97	0	0	2272	4	184	0	3379
98	0	0	2227	4	183	0	3379
99	0	0	2191	4	184	0	3378
100	0	0	2164	4	182	0	3376
101	0	0	2141	4	182	0	3375
102	0	0	2138	5	183	0	3375
103	0	0	2163	5	182	0	3375
104	0	0	2203	4	184	0	3377
105	0	0	2245	5	184	0	3378
106	0	0	2271	5	184	0	3379
107	0	0	2310	5	185	0	3380
108	0	0	2366	5	184	0	3379
109	0	0	2424	5	185	0	3378
110	0	0	2482	5	185	0	3377
111	0	0	2551	5	185	0	3375
112	0	0	2579	5	185	0	3375
113	0	0	2562	4	185	0	3375
114	0	0	2506	4	185	0	3376
115	0	0	2376	3	184	0	3377
116	0	0	2229	4	184	0	3379
117	0	0	2135	4	183	0	3380
118	0	0	2066	4	184	0	3379
119	0	0	2032	5	184	0	3379
120	0	0	2059	5	183	0	3376
121	0	0	2107	5	184	0	3375
122	0	0	2151	5	184	0	3375
123	0	0	2195	5	183	0	3376
124	0	0	2234	4	185	0	3376
125	0	0	2275	6	184	0	3377
126	0	0	2335	5	184	0	3379
127	0	0	2405	5	185	0	3379
0	0	0	2463	5	185	0	3379
1	0	0	2514	5	185	0	3378
2	0	0	2563	5	184	0	3377
3	0	0	2637	5	184	0	3376
4	0	0	2647	4	185	0	3375
5	0	0	2573	4	185	0	3376
6	0	0	2475	4	184	0	3376
7	0	0	2365	4	184	0	3378
8	0	0	2275	4	185	0	3379
9	0	0	2218	4	183	0	3379
10	0	0	2167	4	184	0	3379
11	0	0	2139	4	184	0	3378
12	0	0	2141	5	183	0	3376
13	0	0	2156	5	183	0	3375
14	0	0	2189	5	183	0	3375
15	0	0	2230	5	184	0	3376
16	0	0	2258	5	185	0	3376
17	0	0	2281	4	183	0	3377
18	0	0	2292	5	184	0	3379
19	0	0	2310	5	183	0	3380
20	0	0	2357	5	184	0	3379
21	0	0	2400	5	186	0	3379
22	0	0	2419	5	185	0	3377
23	0	0	2456	5	186	0	3375
24	0	0	2489	5	185	0	3375
25	0	0	2485	5	184	0	3376
26	0	0	2447	4	184	0	3376
27	0	0	2390	4	185	0	3377
28	0	0	2327	4	185	0	3378
29	0	0	2267	4	183	0	3379
30	0	0	2234	6	183	0	3379
31	0	0	2210	5	183	0	3378
32	0	0	2199	5	184	0	3376
33	0	0	2196	5	183	0	3375
34	0	0	2212	5	183	0	3375
35	0	0	2233	5	183	0	3375
36	0	0	2233	5	183	0	3377
37	0	0	2237	5	184	0	3378
38	0	0	2259	5	184	0	3379
39	0	0	2291	5	183	0	3380
40	0	0	2337	5	184	0	3379
41	0	0	2406	5	184	0	3378
42	0	0	2475	5	186	0	3376
43	0	0	2545	5	186	0	3375
44	0	0	2562	5	185	0	3375
45	0	0	2515	4	185	0	3375
46	0	0	2443	4	185	0	3376
47	0	0	2368	4	185	0	3378
48	0	0	2301	4	185	0	3379
49	0	0	2233	4	184	0	3380
50	0	0	2171	4	184	0	3380
51	0	0	2127	4	183	0	3378
52	0	0	2112	5	183	0	3376
53	0	0	2096	4	183	0	3375
54	0	0	2100	5	184	0	3375
55	0	0	2123	7	182	0	3375
56	0	0	2139	5	183	0	3376
57	0	0	2193	4	184	0	3377
58	0	0	2289	5	183	0	3379
59	0	0	2413	5	184	0	3379
60	0	0	2529	5	184	0	3379
61	0	0	2591	5	185	0	3379
62	0	0	2565	4	185	0	3377
63	0	0	2527	4	186	0	3375
64	0	0	2494	4	185	0	3376
65	0	0	2472	5	185	0	3375
66	0	0	2454	5	185	0	3376
67	0	0	2396	4	184	0	3377
68	0	0	2311	4	183	0	3379
69	0	0	2220	4	184	0	3380
70	0	0	2154	4	183	0	3379
71	0	0	2111	4	182	0	3378
72	0	0	2082	4	184	0	3377
73	0	0	2079	5	182	0	3376
74	0	0	2151	5	182	0	3375
75	0	0	2270	5	184	0	3376
76	0	0	2363	5	183	0	3376
77	0	0	2415	5	184	0	3377
78	0	0	2449	5	184	0	3379
79	0	0	2472	5	185	0	3380
80	0	0	2464	5	184	0	3379
81	0	0	2447	5	184	0	3379
82	0	0	2446	5	185	0	3377
83	0	0	2471	5	185	0	3375
84	0	0	2468	5	185	0	3376
85	0	0	2421	5	185	0	3375
86	0	0	2387	5	185	0	3376
87	0	0	2344	4	185	0	3377
88	0	0	2284	4	185	0	3379
89	0	0	2276	5	184	0	3380
90	0	0	2327	5	184	0	3379
91	0	0	2375	5	183	0	3378
92	0	0	2371	4	184	0	3377
93	0	0	2309	4	183	0	3376
94	0	0	2231	4	183	0	3375
95	0	0	2179	4	183	0	3376
96	0	0	2168	4	182	0	3376
97	0	0	2183	5	183	0	3377
98	0	0	2225	5	185	0	3379
99	0	0	2293	5	184	0	3380
100	0	0	2360	5	183	0	3379
101	0	0	2411	5	185	0	3378
102	0	0	2444	5	184	0	3377
103	0	0	2493	5	185	0	3375
104	0	0	2543	5	186	0	3376
105	0	0	2572	5	184	0	3375
106	0	0	2572	4	185	0	3376
107	0	0	2495	4	185	0	3378
108	0	0	2390	4	184	0	3379
109	0	0	2287	4	183	0	3380
110	0	0	2212	4	184	0	3379
111	0	0	2162	4	184	0	3378
112	0	0	2147	5	184	0	3376
113	0	0	2159	5	184	0	3374
114	0	0	2214	5	183	0	3375
115	0	0	2308	5	184	0	3375
116	0	0	2362	5	184	0	3376
117	0	0	2376	4	184	0	3378
118	0	0	2369	5	185	0	3379
119	0	0	2374	5	184	0	3380
120	0	0	2415	5	185	0	3380
121	0	0	2472	5	185	0	3378
122	0	0	2534	5	184	0	3377
123	0	0	2596	5	184	0	3376
124	0	0	2624	5	184	0	3375
125	0	0	2606	5	186	0	3376
126	0	0	2582	4	184	0	3376
127	0	0	2531	4	185	0	3378
0	0	0	2448	4	184	0	3379
1	0	0	2371	4	184	0	3380
2	0	0	2335	4	184	0	3379
3	0	0	2326	5	184	0	3378
4	0	0	2317	5	184	0	3376
5	0	0	2299	5	183	0	3375
6	0	0	2311	5	182	0	3375
7	0	0	2342	5	183	0	3376
8	0	0	2372	5	182	0	3376
9	0	0	2402	5	183	0	3377
10	0	0	2425	5	185	0	3379
11	0	0	2453	5	186	0	3380
12	0	0	2491	5	184	0	3379
13	0	0	2530	5	185	0	3378
14	0	0	2562	5	185	0	3376
15	0	0	2593	5	186	0	3375
16	0	0	2604	5	184	0	3375
17	0	0	2580	5	185	0	3375
18	0	0	2540	4	184	0	3377
19	0	0	2465	4	184	0	3377
20	0	0	2375	4	185	0	3379
21	0	0	2303	4	184	0	3380
22	0	0	2256	4	184	0	3379
23	0	0	2213	4	183	0	3378
24	0	0	2188	4	184	0	3377
25	0	0	2179	5	185	0	3375
26	0	0	2208	5	185	0	3375
27	0	0	2256	5	183	0	3376
28	0	0	2282	6	184	0	3376
29	0	0	2317	5	183	0	3378
30	0	0	2376	5	184	0	3379
31	0	0	2437	5	185	0	3379
32	0	0	2493	5	184	0	3379
33	0	0	2532	5	184	0	3378
34	0	0	2545	5	185	0	3376
35	0	0	2555	5	184	0	3375
36	0	0	2560	5	185	0	3375
37	0	0	2510	4	185	0	3375
38	0	0	2444	4	184	0	3376
39	0	0	2367	4	184	0	3378
40	0	0	2296	4	184	0	3379
41	0	0	2275	5	184	0	3380
42	0	0	2284	5	184	0	3379
43	0	0	2287	4	183	0	3379
44	0	0	2256	4	183	0	3377
45	0	0	2192	4	183	0	3375
46	0	0	2160	5	183	0	3375
47	0	0	2191	5	183	0	3375
48	0	0	2240	5	185	0	3376
49	0	0	2292	5	183	0	3378
50	0	0	2331	5	183	0	3379
51	0	0	2389	5	184	0	3380
52	0	0	2471	5	184	0	3380
53	0	0	2498	5	185	0	3378
54	0	0	2457	5	184	0	3377
55	0	0	2415	5	186	0	3375
56	0	0	2407	5	184	0	3375
57	0	0	2419	5	184	0	3375
58	0	0	2401	4	184	0	3377
59	0	0	2350	4	184	0	3378
60	0	0	2298	4	184	0	3379
61	0	0	2237	4	184	0	3379
62	0	0	2187	4	183	0	3379
63	0	0	2124	4	184	0	3378
64	0	0	2074	4	184	0	3376
65	0	0	2043	4	183	0	3374
66	0	0	2032	5	185	0	3375
67	0	0	2067	5	183	0	3375
68	0	0	2128	5	183	0	3376
69	0	0	2188	5	185	0	3378
70	0	0	2258	5	185	0	3380
71	0	0	2353	5	185	0	3380
72	0	0	2437	5	185	0	3379
73	0	0	2493	5	184	0	3378
74	0	0	2530	5	186	0	3376
75	0	0	2560	5	185	0	3375
76	0	0	2507	4	184	0	3375
77	0	0	2395	4	185	0	3375
78	0	0	2314	4	184	0	3376
79	0	0	2255	4	186	0	3377
80	0	0	2216	4	185	0	3379
81	0	0	2219	5	184	0	3379
82	0	0	2213	5	184	0	3379
83	0	0	2193	4	184	0	3378
84	0	0	2174	4	183	0	3377
85	0	0	2151	5	184	0	3375
86	0	0	2151	5	183	0	3375
87	0	0	2159	5	184	0	3375
88	0	0	2170	5	183	0	3377
89	0	0	2203	5	184	0	3379
90	0	0	2236	5	185	0	3379
91	0	0	2268	5	184	0	3379
92	0	0	2296	5	184	0	3380
93	0	0	2309	5	184	0	3378
94	0	0	2309	5	184	0	3377
95	0	0	2319	5	186	0	3376
96	0	0	2302	4	185	0	3375
97	0	0	2267	4	184	0	3376
98	0	0	2260	6	185	0	3376
99	0	0	2278	5	183	0	3378
100	0	0	2289	5	185	0	3378
101	0	0	2269	4	184	0	3380
102	0	0	2226	4	184	0	3379
103	0	0	2175	4	183	0	3378
104	0	0	2121	4	183	0	3376
105	0	0	2081	5	183	0	3375
106	0	0	2102	4	184	0	3376
107	0	0	2185	5	183	0	3375
108	0	0	2273	5	184	0	3376
109	0	0	2341	5	185	0	3378
110	0	0	2364	5	184	0	3379
111	0	0	2324	4	184	0	3379
112	0	0	2261	4	184	0	3379
113	0	0	2233	6	182	0	3378
114	0	0	2262	5	184	0	3377
115	0	0	2350	5	186	0	3376
116	0	0	2409	5	184	0	3375
117	0	0	2402	5	185	0	3375
118	0	0	2353	3	184	0	3377
119	0	0	2261	4	184	0	3378
120	0	0	2179	4	185	0	3379
121	0	0	2144	4	184	0	3380
122	0	0	2125	4	185	0	3380
123	0	0	2096	3	184	0	3378
124	0	0	2072	4	184	0	3377
125	0	0	2039	4	184	0	3375
126	0	0	2012	4	183	0	3375
127	0	0	2031	4	183	0	3375
0	0	0	2071	5	184	0	3376
1	0	0	2094	5	184	0	3377
2	0	0	2130	5	184	0	3379
3	0	0	2193	5	184	0	3380
4	0	0	2268	5	186	0	3379
5	0	0	2335	5	185	0	3379
6	0	0	2405	5	185	0	3377
7	0	0	2463	5	186	0	3375
8	0	0	2448	4	185	0	3376
9	0	0	2378	4	186	0	3375
10	0	0	2316	4	185	0	3376
11	0	0	2252	5	184	0	3378
12	0	0	2182	4	185	0	3379
13	0	0	2144	4	183	0	3380
14	0	0	2140	5	183	0	3380
15	0	0	2136	6	183	0	3378
16	0	0	2110	4	185	0	3376
17	0	0	2079	4	184	0	3375
18	0	0	2076	5	183	0	3376
19	0	0	2080	5	184	0	3375
20	0	0	2089	5	184	0	3376
21	0	0	2099	5	185	0	3378
22	0	0	2107	5	184	0	3379
23	0	0	2136	5	183	0	3380
24	0	0	2178	5	185	0	3379
25	0	0	2231	5	185	0	3379
26	0	0	2278	5	185	0	3377
27	0	0	2312	5	186	0	3375
28	0	0	2295	4	185	0	3375
29	0	0	2224	3	185	0	3375
30	0	0	2146	4	186	0	3376
31	0	0	2112	4	185	0	3378
32	0	0	2146	5	184	0	3380
33	0	0	2189	5	184	0	3380
34	0	0	2197	5	185	0	3379
35	0	0	2181	5	184	0	3380
36	0	0	2178	5	184	0	3377
37	0	0	2186	5	183	0	3375
38	0	0	2200	5	183	0	3375
39	0	0	2219	5	184	0	3376
40	0	0	2226	5	184	0	3376
41	0	0	2220	4	183	0	3378
42	0	0	2216	5	184	0	3379
43	0	0	2227	5	185	0	3380
44	0	0	2242	5	185	0	3379
45	0	0	2262	5	184	0	3379
46	0	0	2287	4	184	0	3377
47	0	0	2329	5	185	0	3376
48	0	0	2349	5	185	0	3375
49	0	0	2333	4	186	0	3376
50	0	0	2296	4	185	0	3377
51	0	0	2218	4	184	0	3378
52	0	0	2109	4	184	0	3380
53	0	0	2035	4	184	0	3380
54	0	0	2011	4	183	0	3379
55	0	0	2028	6	184	0	3379
56	0	0	2063	5	183	0	3377
57	0	0	2092	5	184	0	3376
58	0	0	2122	5	183	0	3375
59	0	0	2125	5	184	0	3376
60	0	0	2123	5	183	0	3376
61	0	0	2142	5	185	0	3378
62	0	0	2157	5	184	0	3379
63	0	0	2184	5	184	0	3380
64	0	0	2225	5	185	0	3380
65	0	0	2264	5	186	0	3379
66	0	0	2336	5	185	0	3377
67	0	0	2426	5	185	0	3376
68	0	0	2449	4	185	0	3376
69	0	0	2367	4	184	0	3375
70	0	0	2262	4	184	0	3378
71	0	0	2181	4	185	0	3378
72	0	0	2125	4	184	0	3379
73	0	0	2090	4	184	0	3380
74	0	0	2072	4	183	0	3379
75	0	0	2065	5	184	0	3379
76	0	0	2055	4	183	0	3377
77	0	0	2019	4	183	0	3375
78	0	0	1985	4	183	0	3375
79	0	0	1985	5	184	0	3377
80	0	0	2009	5	183	0	3376
81	0	0	2053	4	184	0	3378
82	0	0	2084	5	184	0	3380
83	0	0	2105	5	184	0	3380
84	0	0	2135	5	186	0	3379
85	0	0	2173	4	185	0	3379
86	0	0	2232	5	185	0	3377
87	0	0	2315	5	187	0	3375
88	0	0	2374	5	185	0	3375
89	0	0	2352	4	185	0	3376
90	0	0	2285	4	185	0	3378
91	0	0	2214	4	185	0	3378
92	0	0	2135	4	184	0	3379
93	0	0	2065	4	183	0	3380
94	0	0	2037	5	184	0	3380
95	0	0	2049	4	185	0	3379
96	0	0	2078	5	184	0	3377
97	0	0	2088	5	184	0	3375
98	0	0	2087	5	184	0	3376
99	0	0	2099	5	184	0	3376
100	0	0	2111	5	184	0	3377
101	0	0	2125	5	184	0	3378
102	0	0	2151	5	184	0	3379
103	0	0	2189	5	183	0	3380
104	0	0	2237	5	184	0	3380
105	0	0	2262	5	185	0	3379
106	0	0	2250	5	186	0	3377
107	0	0	2264	5	186	0	3375
108	0	0	2307	5	185	0	3376
109	0	0	2315	5	184	0	3376
110	0	0	2276	4	185	0	3378
111	0	0	2206	4	184	0	3379
112	0	0	2141	4	185	0	3379
113	0	0	2090	4	183	0	3380
114	0	0	2034	4	184	0	3381
115	0	0	1989	4	184	0	3379
116	0	0	1983	4	183	0	3377
117	0	0	1994	5	184	0	3376
118	0	0	2039	5	183	0	3375
119	0	0	2124	5	182	0	3376
120	0	0	2175	4	185	0	3377
121	0	0	2225	5	183	0	3378
122	0	0	2288	5	183	0	3379
123	0	0	2333	5	183	0	3380
124	0	0	2315	4	184	0	3379
125	0	0	2277	4	185	0	3380
126	0	0	2266	5	185	0	3377
127	0	0	2319	5	185	0	3375
0	0	0	2381	5	185	0	3376
1	0	0	2370	4	186	0	3376
2	0	0	2302	4	184	0	3377
3	0	0	2188	4	185	0	3378
4	0	0	2091	4	185	0	3379
5	0	0	2039	5	184	0	3380
6	0	0	2036	5	183	0	3380
7	0	0	2056	5	184	0	3379
8	0	0	2070	5	183	0	3378
9	0	0	2068	5	183	0	3376
10	0	0	2072	5	183	0	3375
11	0	0	2085	5	184	0	3376
12	0	0	2062	5	185	0	3376
13	0	0	2071	5	184	0	3378
14	0	0	2138	5	184	0	3379
15	0	0	2213	5	184	0	3380
16	0	0	2259	5	184	0	3380
17	0	0	2275	5	185	0	3379
18	0	0	2272	5	185	0	3377
19	0	0	2288	5	185	0	3375
20	0	0	2315	5	183	0	3376
21	0	0	2324	5	185	0	3376
22	0	0	2327	5	186	0	3378
23	0	0	2277	4	184	0	3379
24	0	0	2205	4	185	0	3379
25	0	0	2121	4	184	0	3380
26	0	0	2032	4	183	0	3380
27	0	0	1986	4	181	0	3379
28	0	0	1985	5	184	0	3377
29	0	0	1996	5	185	0	3375
30	0	0	2017	5	182	0	3375
31	0	0	2063	5	185	0	3376
32	0	0	2106	5	184	0	3376
33	0	0	2136	5	184	0	3378
34	0	0	2154	5	184	0	3379
35	0	0	2179	5	184	0	3381
36	0	0	2213	5	184	0	3379
37	0	0	2235	5	184	0	3380
38	0	0	2244	5	185	0	3378
39	0	0	2291	5	184	0	3376
40	0	0	2348	5	184	0	3376
41	0	0	2364	5	184	0	3376
42	0	0	2327	4	185	0	3377
43	0	0	2243	4	185	0	3378
44	0	0	2125	4	184	0	3379
45	0	0	2062	4	184	0	3380
46	0	0	2045	4	183	0	3380
47	0	0	2019	4	184	0	3379
48	0	0	1995	4	183	0	3377
49	0	0	1984	4	183	0	3375
50	0	0	1998	5	183	0	3376
51	0	0	2036	5	184	0	3376
52	0	0	2073	5	183	0	3378
53	0	0	2092	5	184	0	3378
54	0	0	2092	5	184	0	3380
55	0	0	2118	5	184	0	3380
56	0	0	2156	5	184	0	3380
57	0	0	2187	5	185	0	3379
58	0	0	2224	4	184	0	3378
59	0	0	2285	5	184	0	3376
60	0	0	2315	5	186	0	3375
61	0	0	2296	4	185	0	3376
62	0	0	2260	4	184	0	3378
63	0	0	2214	4	184	0	3378
64	0	0	2166	4	184	0	3379
65	0	0	2119	4	184	0	3380
66	0	0	2060	4	183	0	3380
67	0	0	2000	4	183	0	3379
68	0	0	1974	4	183	0	3378
69	0	0	1956	4	183	0	3376
70	0	0	1963	5	184	0	3376
71	0	0	2027	5	183	0	3376
72	0	0	2098	5	183	0	3377
73	0	0	2136	5	184	0	3378
74	0	0	2138	5	184	0	3379
75	0	0	2143	5	183	0	3381
76	0	0	2164	5	184	0	3380
77	0	0	2192	5	184	0	3380
78	0	0	2212	5	184	0	3378
79	0	0	2229	5	184	0	3375
80	0	0	2223	4	185	0	3375
81	0	0	2173	4	184	0	3376
82	0	0	2122	4	184	0	3377
83	0	0	2101	3	185	0	3379
84	0	0	2097	5	184	0	3380
85	0	0	2085	5	183	0	3380
86	0	0	2049	4	183	0	3380
87	0	0	1998	4	183	0	3379
88	0	0	1958	4	183	0	3377
89	0	0	1929	4	182	0	3375
90	0	0	1930	5	183	0	3376
91	0	0	1967	5	184	0	3376
92	0	0	1998	5	183	0	3377
93	0	0	2014	4	184	0	3378
94	0	0	2017	5	183	0	3380
95	0	0	2052	4	183	0	3380
96	0	0	2133	5	185	0	3381
97	0	0	2227	5	185	0	3379
98	0	0	2312	4	185	0	3378
99	0	0	2412	5	184	0	3376
100	0	0	2472	5	184	0	3376
101	0	0	2459	5	185	0	3377
102	0	0	2424	4	184	0	3377
103	0	0	2367	5	184	0	3379
104	0	0	2314	4	184	0	3380
105	0	0	2307	5	183	0	3380
106	0	0	2328	5	183	0	3380
107	0	0	2339	5	183	0	3380
108	0	0	2346	6	184	0	3377
109	0	0	2356	5	183	0	3375
110	0	0	2369	5	182	0	3376
111	0	0	2400	5	184	0	3376
112	0	0	2427	5	183	0	3377
113	0	0	2457	5	184	0	3378
114	0	0	2491	5	183	0	3379
115	0	0	2532	5	185	0	3380
116	0	0	2596	5	183	0	3381
117	0	0	2641	3	184	0	3379
118	0	0	2627	4	185	0	3377
119	0	0	2617	5	185	0	3376
120	0	0	2593	4	185	0	3376
121	0	0	2523	4	185	0	3376
122	0	0	2413	4	185	0	3378
123	0	0	2281	4	184	0	3379
124	0	0	2135	4	184	0	3379
125	0	0	2014	4	184	0	3380
126	0	0	1951	4	183	0	3380
127	0	0	1958	5	182	0	3379
0	0	0	1989	5	183	0	3377
1	0	0	2011	5	183	0	3375
2	0	0	2016	5	183	0	3376
3	0	0	2022	5	184	0	3376
4	0	0	2025	5	183	0	3377
5	0	0	2053	5	183	0	3378
6	0	0	2087	5	184	0	3379
7	0	0	2123	5	184	0	3380
8	0	0	2158	5	183	0	3381
9	0	0	2167	7	184	0	3379
10	0	0	2176	6	184	0	3377
11	0	0	2220	5	184	0	3376
12	0	0	2229	4	182	0	3375
13	0	0	2180	4	184	0	3376
14	0	0	2158	5	184	0	3377
15	0	0	2119	5	184	0	3378
16	0	0	2062	4	184	0	3380
17	0	0	2004	4	182	0	3380
18	0	0	1985	5	183	0	3381
19	0	0	2005	5	182	0	3379
20	0	0	2034	5	184	0	3378
21	0	0	2029	4	184	0	3376
22	0	0	2011	5	183	0	3376
23	0	0	2010	5	182	0	3376
24	0	0	2004	5	183	0	3377
25	0	0	1996	5	183	0	3378
26	0	0	1982	4	182	0	3379
27	0	0	1990	5	184	0	3380
28	0	0	2016	5	184	0	3380
29	0	0	2060	5	184	0	3379
30	0	0	2115	5	184	0	3377
31	0	0	2173	4	184	0	3375
32	0	0	2196	5	184	0	3376
33	0	0	2169	4	184	0	3376
34	0	0	2133	4	185	0	3378
35	0	0	2095	4	185	0	3378
36	0	0	2042	4	184	0	3379
37	0	0	1993	4	184	0	3380
38	0	0	1955	4	183	0	3380
39	0	0	1939	4	183	0	3380
40	0	0	1939	5	184	0	3378
41	0	0	1916	4	184	0	3376
42	0	0	1917	5	184	0	3376
43	0	0	1963	5	183	0	3377
44	0	0	2027	6	184	0	3377
45	0	0	2098	5	183	0	3378
46	0	0	2154	5	185	0	3379
47	0	0	2176	5	183	0	3380
48	0	0	2186	5	185	0	3380
49	0	0	2199	5	183	0	3379
50	0	0	2213	5	184	0	3377
51	0	0	2234	5	185	0	3376
52	0	0	2236	5	185	0	3376
53	0	0	2195	4	185	0	3376
54	0	0	2155	4	185	0	3377
55	0	0	2146	5	184	0	3378
56	0	0	2129	4	184	0	3379
57	0	0	2069	4	183	0	3381
58	0	0	1979	4	184	0	3380
59	0	0	1905	4	182	0	3380
60	0	0	1872	4	183	0	3377
61	0	0	1879	4	182	0	3375
62	0	0	1919	5	183	0	3376
63	0	0	1996	5	183	0	3376
64	0	0	2030	5	182	0	3377
65	0	0	2032	5	185	0	3378
66	0	0	2022	5	183	0	3380
67	0	0	2016	6	183	0	3380
68	0	0	2038	5	183	0	3380
69	0	0	2098	5	184	0	3379
70	0	0	2150	5	183	0	3377
71	0	0	2188	5	184	0	3376
72	0	0	2195	5	184	0	3376
73	0	0	2145	4	184	0	3377
74	0	0	2051	4	186	0	3377
75	0	0	1957	4	185	0	3378
76	0	0	1924	4	182	0	3379
77	0	0	1958	5	185	0	3381
78	0	0	1992	5	184	0	3379
79	0	0	1991	5	184	0	3379
80	0	0	1963	4	183	0	3377
81	0	0	1909	4	183	0	3375
82	0	0	1864	4	182	0	3376
83	0	0	1861	5	182	0	3376
84	0	0	1893	5	183	0	3377
85	0	0	1973	5	183	0	3378
86	0	0	2053	6	183	0	3380
87	0	0	2104	5	183	0	3380
88	0	0	2132	5	183	0	3381
89	0	0	2127	5	184	0	3379
90	0	0	2124	5	185	0	3377
91	0	0	2150	5	186	0	3376
92	0	0	2181	5	184	0	3376
93	0	0	2176	5	186	0	3376
94	0	0	2138	4	185	0	3377
95	0	0	2070	4	183	0	3378
96	0	0	1989	4	184	0	3379
97	0	0	1937	4	184	0	3380
98	0	0	1904	4	182	0	3380
99	0	0	1876	4	183	0	3380
100	0	0	1864	4	183	0	3378
101	0	0	1852	4	183	0	3376
102	0	0	1846	5	184	0	3376
103	0	0	1847	5	183	0	3376
104	0	0	1856	5	183	0	3377
105	0	0	1908	5	183	0	3378
106	0	0	1987	4	183	0	3379
107	0	0	2062	5	184	0	3380
108	0	0	2122	5	184	0	3380
109	0	0	2151	5	183	0	3379
110	0	0	2161	5	184	0	3378
111	0	0	2209	5	184	0	3376
112	0	0	2275	5	184	0	3376
113	0	0	2301	5	184	0	3377
114	0	0	2284	4	184	0	3377
115	0	0	2187	4	183	0	3378
116	0	0	2058	4	184	0	3379
117	0	0	1944	4	183	0	3380
118	0	0	1875	4	185	0	3380
119	0	0	1853	4	184	0	3379
120	0	0	1879	5	183	0	3377
121	0	0	1901	4	183	0	3376
122	0	0	1906	5	183	0	3376
123	0	0	1942	5	182	0	3376
124	0	0	1977	5	183	0	3378
125	0	0	2022	5	183	0	3379
126	0	0	2070	5	183	0	3379
127	0	0	2096	5	184	0	3380
0	0	0	2076	4	185	0	3381
1	0	0	2054	5	185	0	3379
2	0	0	2051	5	185	0	3378
3	0	0	2064	4	185	0	3376
4	0	0	2089	5	185	0	3376
5	0	0	2092	5	185	0	3376
6	0	0	2065	4	184	0	3378
7	0	0	2011	4	184	0	3379
8	0	0	1954	4	185	0	3379
9	0	0	1917	4	183	0	3380
10	0	0	1902	4	184	0	3380
11	0	0	1883	4	183	0	3379
12	0	0	1867	5	183	0	3377
13	0	0	1853	4	182	0	3376
14	0	0	1845	5	183	0	3375
15	0	0	1884	4	183	0	3376
16	0	0	1927	5	185	0	3376
17	0	0	1958	5	184	0	3378
18	0	0	1982	5	184	0	3379
19	0	0	2024	5	184	0	3381
20	0	0	2065	5	184	0	3380
21	0	0	2106	5	185	0	3379
22	0	0	2160	5	184	0	3377
23	0	0	2218	5	186	0	3376
24	0	0	2234	4	185	0	3376
25	0	0	2185	4	184	0	3376
26	0	0	2116	4	183	0	3377
27	0	0	2022	5	183	0	3378
28	0	0	1935	4	184	0	3380
29	0	0	1887	4	184	0	3380
30	0	0	1893	6	183	0	3379
31	0	0	1886	4	184	0	3379
32	0	0	1857	6	184	0	3377
33	0	0	1839	4	183	0	3376
34	0	0	1847	5	184	0	3375
35	0	0	1885	5	183	0	3377
36	0	0	1921	5	182	0	3377
37	0	0	1931	5	184	0	3378
38	0	0	1916	4	184	0	3380
39	0	0	1927	5	184	0	3380
40	0	0	1982	5	184	0	3380
41	0	0	2057	5	184	0	3379
42	0	0	2119	3	185	0	3378
43	0	0	2163	4	184	0	3376
44	0	0	2161	4	185	0	3376
45	0	0	2112	4	185	0	3376
46	0	0	2063	4	185	0	3378
47	0	0	2024	4	184	0	3379
48	0	0	1990	4	184	0	3380
49	0	0	1950	4	184	0	3380
50	0	0	1903	4	183	0	3380
51	0	0	1857	5	182	0	3379
52	0	0	1827	6	183	0	3377
53	0	0	1812	4	184	0	3376
54	0	0	1821	5	183	0	3375
55	0	0	1880	5	184	0	3377
56	0	0	1940	4	185	0	3377
57	0	0	1993	6	184	0	3378
58	0	0	2041	5	184	0	3379
59	0	0	2079	5	184	0	3380
60	0	0	2109	5	183	0	3380
61	0	0	2127	5	185	0	3379
62	0	0	2118	3	184	0	3378
63	0	0	2114	4	185	0	3376
64	0	0	2095	4	184	0	3376
65	0	0	2032	4	184	0	3376
66	0	0	1991	4	185	0	3377
67	0	0	1991	6	183	0	3378
68	0	0	1964	4	185	0	3379
69	0	0	1903	4	184	0	3380
70	0	0	1817	4	183	0	3380
71	0	0	1770	4	184	0	3379
72	0	0	1754	4	183	0	3378
73	0	0	1752	4	183	0	3376
74	0	0	1767	5	183	0	3375
75	0	0	1831	5	183	0	3376
76	0	0	1899	5	183	0	3377
77	0	0	1950	3	183	0	3378
78	0	0	1991	5	184	0	3379
79	0	0	2021	5	185	0	3380
80	0	0	2054	5	184	0	3380
81	0	0	2086	5	185	0	3379
82	0	0	2126	5	185	0	3378
83	0	0	2189	5	185	0	3376
84	0	0	2225	5	186	0	3375
85	0	0	2197	4	185	0	3376
86	0	0	2137	4	185	0	3377
87	0	0	2063	5	184	0	3378
88	0	0	1989	4	184	0	3379
89	0	0	1928	5	183	0	3380
90	0	0	1878	4	183	0	3379
91	0	0	1821	4	184	0	3379
92	0	0	1791	4	184	0	3378
93	0	0	1804	5	183	0	3376
94	0	0	1845	5	183	0	3376
95	0	0	1901	5	184	0	3376
96	0	0	1950	5	183	0	3376
97	0	0	1962	5	184	0	3378
98	0	0	1976	5	184	0	3379
99	0	0	1987	5	184	0	3380
100	0	0	2016	5	184	0	3380
101	0	0	2061	4	184	0	3379
102	0	0	2103	5	184	0	3377
103	0	0	2145	5	184	0	3375
104	0	0	2152	5	185	0	3376
105	0	0	2099	4	186	0	3375
106	0	0	2029	4	184	0	3376
107	0	0	1946	4	184	0	3378
108	0	0	1865	4	185	0	3379
109	0	0	1825	4	183	0	3380
110	0	0	1845	5	184	0	3381
111	0	0	1919	5	182	0	3380
112	0	0	1969	5	183	0	3378
113	0	0	1935	4	184	0	3375
114	0	0	1872	4	184	0	3376
115	0	0	1858	5	184	0	3376
116	0	0	1879	5	184	0	3377
117	0	0	1929	5	184	0	3378
118	0	0	1978	5	184	0	3379
119	0	0	2040	5	185	0	3381
120	0	0	2089	5	184	0	3381
121	0	0	2111	5	185	0	3379
122	0	0	2123	5	185	0	3378
123	0	0	2145	5	186	0	3376
124	0	0	2156	5	185	0	3375
125	0	0	2130	5	184	0	3377
126	0	0	2085	5	185	0	3377
127	0	0	2018	4	184	0	3378
0	0	0	1949	4	184	0	3380
1	0	0	1911	4	184	0	3380
2	0	0	1907	5	183	0	3381
3	0	0	1894	4	183	0	3379
4	0	0	1861	4	183	0	3378
5	0	0	1815	4	183	0	3376
6	0	0	1770	4	183	0	3375
7	0	0	1764	5	182	0	3376
8	0	0	1800	5	183	0	3377
9	0	0	1877	5	183	0	3378
10	0	0	1960	5	184	0	3380
11	0	0	2022	5	184	0	3380
12	0	0	2059	5	184	0	3380
13	0	0	2074	5	184	0	3379
14	0	0	2086	5	184	0	3377
15	0	0	2118	5	184	0	3375
16	0	0	2150	5	184	0	3376
17	0	0	2149	5	185	0	3376
18	0	0	2124	4	183	0	3378
19	0	0	2060	4	185	0	3379
20	0	0	1967	4	184	0	3380
21	0	0	1899	4	183	0	3381
22	0	0	1854	4	183	0	3380
23	0	0	1820	4	184	0	3379
24	0	0	1800	4	183	0	3378
25	0	0	1784	4	183	0	3376
26	0	0	1783	5	183	0	3375
27	0	0	1825	6	184	0	3376
28	0	0	1873	5	183	0	3377
29	0	0	1900	5	183	0	3378
30	0	0	1945	5	184	0	3379
31	0	0	2030	5	184	0	3380
32	0	0	2099	5	185	0	3380
33	0	0	2116	5	184	0	3379
34	0	0	2095	5	184	0	3377
35	0	0	2088	5	184	0	3375
36	0	0	2056	4	185	0	3376
37	0	0	2003	4	184	0	3376
38	0	0	1975	4	184	0	3378
39	0	0	1952	4	184	0	3378
40	0	0	1897	4	184	0	3379
41	0	0	1820	4	184	0	3380
42	0	0	1746	4	183	0	3380
43	0	0	1714	4	183	0	3380
44	0	0	1721	4	184	0	3378
45	0	0	1734	5	184	0	3375
46	0	0	1768	5	184	0	3376
47	0	0	1830	5	182	0	3375
48	0	0	1891	5	183	0	3376
49	0	0	1945	5	183	0	3378
50	0	0	1972	5	184	0	3380
51	0	0	1979	5	185	0	3380
52	0	0	1968	5	185	0	3380
53	0	0	1948	4	183	0	3379
54	0	0	1953	5	185	0	3377
55	0	0	2006	5	185	0	3376
56	0	0	2065	5	185	0	3375
57	0	0	2061	4	184	0	3376
58	0	0	2035	4	184	0	3376
59	0	0	2004	4	185	0	3378
60	0	0	1956	4	183	0	3379
61	0	0	1900	4	184	0	3380
62	0	0	1830	4	184	0	3379
63	0	0	1792	4	184	0	3380
64	0	0	1773	4	184	0	3378
65	0	0	1763	4	184	0	3375
66	0	0	1769	5	184	0	3376
67	0	0	1805	5	184	0	3376
68	0	0	1849	5	183	0	3377
69	0	0	1912	5	183	0	3378
70	0	0	1984	5	185	0	3380
71	0	0	2013	5	184	0	3380
72	0	0	2032	4	185	0	3380
73	0	0	2062	5	183	0	3379
74	0	0	2091	5	184	0	3377
75	0	0	2132	5	185	0	3375
76	0	0	2138	4	185	0	3375
77	0	0	2078	4	185	0	3376
78	0	0	2011	4	184	0	3378
79	0	0	1962	4	185	0	3378
80	0	0	1918	4	183	0	3379
81	0	0	1888	4	184	0	3380
82	0	0	1868	5	184	0	3379
83	0	0	1849	4	184	0	3380
84	0	0	1849	5	184	0	3378
85	0	0	1858	5	182	0	3376
86	0	0	1856	5	183	0	3376
87	0	0	1869	5	183	0	3376
88	0	0	1884	5	183	0	3376
89	0	0	1917	5	184	0	3378
90	0	0	1978	5	183	0	3379
91	0	0	2028	5	184	0	3380
92	0	0	2053	4	184	0	3381
93	0	0	2048	4	186	0	3379
94	0	0	2032	5	184	0	3377
95	0	0	2059	5	185	0	3376
96	0	0	2069	4	183	0	3375
97	0	0	2023	3	185	0	3376
98	0	0	1976	4	184	0	3377
99	0	0	1917	4	184	0	3378
100	0	0	1857	4	185	0	3379
101	0	0	1802	4	183	0	3380
102	0	0	1761	4	184	0	3380
103	0	0	1752	5	183	0	3379
104	0	0	1753	5	183	0	3377
105	0	0	1740	4	183	0	3376
106	0	0	1740	5	184	0	3375
107	0	0	1794	5	183	0	3375
108	0	0	1872	5	183	0	3377
109	0	0	1930	5	184	0	3378
110	0	0	1983	5	183	0	3379
111	0	0	2036	5	184	0	3381
112	0	0	2078	5	185	0	3379
113	0	0	2104	5	184	0	3379
114	0	0	2124	5	184	0	3378
115	0	0	2129	5	186	0	3376
116	0	0	2112	4	185	0	3375
117	0	0	2058	4	185	0	3377
118	0	0	1999	4	185	0	3376
119	0	0	1929	4	183	0	3378
120	0	0	1865	4	184	0	3380
121	0	0	1814	4	184	0	3380
122	0	0	1779	4	183	0	3379
123	0	0	1783	5	184	0	3379
124	0	0	1820	6	183	0	3377
125	0	0	1835	5	184	0	3375
126	0	0	1809	5	184	0	3375
127	0	0	1812	5	182	0	3375
0	0	0	1841	5	182	0	3377
1	0	0	1905	6	184	0	3378
2	0	0	1956	4	183	0	3379
3	0	0	1966	5	184	0	3380
4	0	0	1964	5	185	0	3380
5	0	0	1980	5	185	0	3380
6	0	0	2034	4	184	0	3378
7	0	0	2109	5	185	0	3376
8	0	0	2149	5	185	0	3376
9	0	0	2122	4	185	0	3376
10	0	0	2073	4	184	0	3377
11	0	0	2014	4	184	0	3378
12	0	0	1967	4	183	0	3379
13	0	0	1949	4	184	0	3380
14	0	0	1914	4	184	0	3380
15	0	0	1852	4	183	0	3379
16	0	0	1802	6	183	0	3377
17	0	0	1794	4	183	0	3376
18	0	0	1800	4	183	0	3375
19	0	0	1832	5	184	0	3376
20	0	0	1881	5	184	0	3376
21	0	0	1936	5	184	0	3378
22	0	0	1980	5	183	0	3379
23	0	0	2009	5	183	0	3381
24	0	0	2027	5	184	0	3379
25	0	0	2064	5	184	0	3380
26	0	0	2089	5	185	0	3378
27	0	0	2122	4	185	0	3376
28	0	0	2154	5	185	0	3376
29	0	0	2120	4	185	0	3376
30	0	0	2059	4	185	0	3378
31	0	0	1983	4	185	0	3379
32	0	0	1885	5	185	0	3379
33	0	0	1811	4	184	0	3380
34	0	0	1782	4	183	0	3380
35	0	0	1758	4	182	0	3379
36	0	0	1756	5	183	0	3377
37	0	0	1763	4	184	0	3376
38	0	0	1789	5	183	0	3375
39	0	0	1839	4	183	0	3376
40	0	0	1868	5	184	0	3377
41	0	0	1888	6	183	0	3378
42	0	0	1930	6	184	0	3379
43	0	0	1981	5	184	0	3380
44	0	0	2027	4	185	0	3380
45	0	0	2052	5	184	0	3379
46	0	0	2060	5	184	0	3377
47	0	0	2089	5	185	0	3376
48	0	0	2127	5	185	0	3375
49	0	0	2137	3	185	0	3376
50	0	0	2136	5	185	0	3377
51	0	0	2103	4	185	0	3378
52	0	0	2043	4	184	0	3380
53	0	0	1972	4	185	0	3380
54	0	0	1897	4	184	0	3379
55	0	0	1841	4	183	0	3379
56	0	0	1812	5	184	0	3377
57	0	0	1786	5	183	0	3375
58	0	0	1779	5	183	0	3375
59	0	0	1798	5	184	0	3375
60	0	0	1820	5	183	0	3377
61	0	0	1844	5	183	0	3379
62	0	0	1882	6	184	0	3379
63	0	0	1939	5	184	0	3380
64	0	0	1996	5	185	0	3379
65	0	0	2032	5	184	0	3380
66	0	0	2049	5	185	0	3379
67	0	0	2060	6	184	0	3376
68	0	0	2114	5	185	0	3375
69	0	0	2160	5	184	0	3375
70	0	0	2145	5	184	0	3376
71	0	0	2081	4	185	0	3378
72	0	0	1980	4	185	0	3380
73	0	0	1897	4	184	0	3380
74	0	0	1845	4	183	0	3379
75	0	0	1802	4	183	0	3379
76	0	0	1760	5	183	0	3377
77	0	0	1723	5	183	0	3375
78	0	0	1707	5	183	0	3376
79	0	0	1750	5	183	0	3375
80	0	0	1825	5	184	0	3376
81	0	0	1901	5	182	0	3378
82	0	0	1971	5	183	0	3379
83	0	0	2040	5	185	0	3380
84	0	0	2090	4	185	0	3381
85	0	0	2100	5	184	0	3379
86	0	0	2090	4	184	0	3378
87	0	0	2115	4	185	0	3376
88	0	0	2134	5	184	0	3376
89	0	0	2121	5	184	0	3376
90	0	0	2135	5	184	0	3377
91	0	0	2123	4	183	0	3378
92	0	0	2037	5	185	0	3380
93	0	0	1925	4	184	0	3380
94	0	0	1842	4	183	0	3380
95	0	0	1798	5	184	0	3379
96	0	0	1785	5	183	0	3378
97	0	0	1779	4	184	0	3376
98	0	0	1800	5	184	0	3375
99	0	0	1854	3	183	0	3377
100	0	0	1885	5	183	0	3376
101	0	0	1901	5	183	0	3378
102	0	0	1931	5	185	0	3380
103	0	0	1975	5	184	0	3380
104	0	0	2012	4	185	0	3381
105	0	0	2015	5	185	0	3379
106	0	0	2006	5	183	0	3378
107	0	0	2041	5	185	0	3376
108	0	0	2094	5	185	0	3375
109	0	0	2093	4	184	0	3376
110	0	0	2068	4	184	0	3376
111	0	0	2027	4	183	0	3378
112	0	0	1963	3	185	0	3379
113	0	0	1887	4	184	0	3380
114	0	0	1824	4	184	0	3379
115	0	0	1787	4	183	0	3379
116	0	0	1775	5	184	0	3378
117	0	0	1787	5	183	0	3376
118	0	0	1821	5	182	0	3375
119	0	0	1887	5	184	0	3376
120	0	0	1937	5	185	0	3377
121	0	0	1976	5	183	0	3379
122	0	0	2029	4	183	0	3379
123	0	0	2065	5	185	0	3380
124	0	0	2082	5	184	0	3380
125	0	0	2087	5	184	0	3380
126	0	0	2076	5	184	0	3379
127	0	0	2093	5	185	0	3376
0	0	0	2135	5	185	0	3376
1	0	0	2132	5	185	0	3376
2	0	0	2090	4	184	0	3377
3	0	0	2003	4	184	0	3378
4	0	0	1896	4	184	0	3379
5	0	0	1821	4	184	0	3381
6	0	0	1784	4	184	0	3380
7	0	0	1774	5	184	0	3379
8	0	0	1797	5	183	0	3377
9	0	0	1822	5	183	0	3376
10	0	0	1825	5	183	0	3375
11	0	0	1854	5	182	0	3376
12	0	0	1877	5	183	0	3377
13	0	0	1904	5	184	0	3378
14	0	0	1935	5	184	0	3379
15	0	0	1973	5	184	0	3380
16	0	0	2029	5	185	0	3380
17	0	0	2070	5	185	0	3379
18	0	0	2083	4	182	0	3378
19	0	0	2099	5	185	0	3376
20	0	0	2110	5	184	0	3375
21	0	0	2070	4	185	0	3376
22	0	0	2012	4	185	0	3376
23	0	0	1944	4	184	0	3378
24	0	0	1882	4	184	0	3379
25	0	0	1859	4	184	0	3380
26	0	0	1849	4	184	0	3381
27	0	0	1857	5	185	0	3379
28	0	0	1888	5	184	0	3378
29	0	0	1918	4	183	0	3376
30	0	0	1909	5	183	0	3375
31	0	0	1917	5	184	0	3376
32	0	0	1909	4	184	0	3377
33	0	0	1879	5	183	0	3378
34	0	0	1883	5	184	0	3379
35	0	0	1932	5	184	0	3381
36	0	0	2000	4	185	0	3380
37	0	0	2031	5	184	0	3379
38	0	0	2039	5	186	0	3378
39	0	0	2060	4	185	0	3376
40	0	0	2060	4	185	0	3375
41	0	0	2026	5	184	0	3376
42	0	0	2031	5	185	0	3376
43	0	0	2039	5	186	0	3379
44	0	0	2007	3	184	0	3379
45	0	0	1960	4	184	0	3381
46	0	0	1927	4	184	0	3380
47	0	0	1912	4	183	0	3380
48	0	0	1920	5	182	0	3378
49	0	0	1925	4	183	0	3376
50	0	0	1885	4	183	0	3376
51	0	0	1836	4	184	0	3376
52	0	0	1817	5	183	0	3378
53	0	0	1850	5	184	0	3379
54	0	0	1918	5	184	0	3379
55	0	0	2000	5	183	0	3380
56	0	0	2071	5	185	0	3381
57	0	0	2112	5	186	0	3379
58	0	0	2124	5	185	0	3378
59	0	0	2153	5	185	0	3376
60	0	0	2155	4	185	0	3375
61	0	0	2094	4	186	0	3376
62	0	0	2029	4	185	0	3377
63	0	0	1972	4	183	0	3379
64	0	0	1923	3	184	0	3379
65	0	0	1907	4	183	0	3380
66	0	0	1895	5	182	0	3380
67	0	0	1875	4	184	0	3379
68	0	0	1848	4	183	0	3378
69	0	0	1822	4	182	0	3376
70	0	0	1800	4	184	0	3375
71	0	0	1805	5	183	0	3375
72	0	0	1831	5	184	0	3376
73	0	0	1875	5	183	0	3378
74	0	0	1923	4	185	0	3379
75	0	0	1979	5	183	0	3380
76	0	0	2039	5	183	0	3379
77	0	0	2082	4	185	0	3379
78	0	0	2107	5	184	0	3377
79	0	0	2126	5	184	0	3375
80	0	0	2146	5	184	0	3375
81	0	0	2136	5	184	0	3376
82	0	0	2128	5	186	0	3376
83	0	0	2072	4	184	0	3377
84	0	0	1975	4	184	0	3379
85	0	0	1917	4	185	0	3380
86	0	0	1905	5	184	0	3379
87	0	0	1907	4	184	0	3379
88	0	0	1894	4	183	0	3378
89	0	0	1875	4	183	0	3376
90	0	0	1866	4	183	0	3375
91	0	0	1899	5	183	0	3375
92	0	0	1949	5	183	0	3377
93	0	0	1990	5	182	0	3378
94	0	0	2022	4	183	0	3379
95	0	0	2058	5	184	0	3380
96	0	0	2080	5	184	0	3381
97	0	0	2070	4	185	0	3379
98	0	0	2048	4	185	0	3377
99	0	0	2066	4	184	0	3376
100	0	0	2108	5	184	0	3376
101	0	0	2091	4	184	0	3376
102	0	0	2049	4	184	0	3376
103	0	0	2001	4	185	0	3378
104	0	0	1958	4	183	0	3380
105	0	0	1933	4	183	0	3380
106	0	0	1905	4	183	0	3380
107	0	0	1879	4	184	0	3380
108	0	0	1853	4	184	0	3378
109	0	0	1824	4	183	0	3376
110	0	0	1813	5	183	0	3375
111	0	0	1839	5	184	0	3375
112	0	0	1872	5	183	0	3377
113	0	0	1902	5	184	0	3377
114	0	0	1955	5	183	0	3378
115	0	0	2030	5	184	0	3379
116	0	0	2095	5	185	0	3380
117	0	0	2120	5	184	0	3379
118	0	0	2123	5	183	0	3378
119	0	0	2130	5	184	0	3376
120	0	0	2115	4	185	0	3375
121	0	0	2050	4	185	0	3376
122	0	0	2011	4	185	0	3377
123	0	0	1988	4	184	0	3378
124	0	0	1937	4	184	0	3380
125	0	0	1894	4	183	0	3379
126	0	0	1883	5	184	0	3379
127	0	0	1884	5	183	0	3379
0	0	0	1878	5	184	0	3378
1	0	0	1863	4	183	0	3376
2	0	0	1862	5	183	0	3376
3	0	0	1887	5	183	0	3375
4	0	0	1919	5	183	0	3376
5	0	0	1925	5	185	0	3377
6	0	0	1920	3	184	0	3379
7	0	0	1906	5	183	0	3379
8	0	0	1929	6	185	0	3379
9	0	0	1992	4	184	0	3379
10	0	0	2051	5	184	0	3377
11	0	0	2104	5	185	0	3376
12	0	0	2113	4	184	0	3374
13	0	0	2045	4	183	0	3375
14	0	0	1967	4	184	0	3376
15	0	0	1917	4	184	0	3378
16	0	0	1883	3	183	0	3379
17	0	0	1839	4	184	0	3380
18	0	0	1783	5	184	0	3379
19	0	0	1737	4	183	0	3379
20	0	0	1709	4	183	0	3378
21	0	0	1712	5	183	0	3376
22	0	0	1743	5	184	0	3375
23	0	0	1817	4	185	0	3375
24	0	0	1882	5	183	0	3376
25	0	0	1920	5	184	0	3378
26	0	0	1945	4	183	0	3379
27	0	0	1970	3	184	0	3380
28	0	0	2005	5	184	0	3380
29	0	0	2034	5	185	0	3379
30	0	0	2033	5	186	0	3377
31	0	0	2050	5	185	0	3376
32	0	0	2088	5	184	0	3374
33	0	0	2052	4	185	0	3375
34	0	0	1985	4	185	0	3377
35	0	0	1908	4	184	0	3378
36	0	0	1846	4	184	0	3379
37	0	0	1825	4	183	0	3379
38	0	0	1805	5	183	0	3379
39	0	0	1788	4	184	0	3379
40	0	0	1769	4	184	0	3377
41	0	0	1768	5	184	0	3376
42	0	0	1793	5	183	0	3374
43	0	0	1851	5	183	0	3376
44	0	0	1890	5	185	0	3376
45	0	0	1906	5	184	0	3378
46	0	0	1947	5	184	0	3379
47	0	0	1986	5	184	0	3379
48	0	0	2004	5	184	0	3380
49	0	0	2008	5	185	0	3379
50	0	0	2004	5	185	0	3378
51	0	0	2043	5	185	0	3376
52	0	0	2117	5	185	0	3375
53	0	0	2140	5	185	0	3375
54	0	0	2100	5	185	0	3377
55	0	0	2023	4	184	0	3378
56	0	0	1950	4	185	0	3379
57	0	0	1909	4	184	0	3380
58	0	0	1879	4	183	0	3379
59	0	0	1862	5	184	0	3379
60	0	0	1877	5	184	0	3377
61	0	0	1914	4	182	0	3376
62	0	0	1957	5	182	0	3376
63	0	0	2012	5	184	0	3375
64	0	0	2068	5	183	0	3377
65	0	0	2127	5	184	0	3379
66	0	0	2200	4	183	0	3379
67	0	0	2291	5	183	0	3380
68	0	0	2393	6	184	0	3379
69	0	0	2487	5	185	0	3379
70	0	0	2562	5	185	0	3377
71	0	0	2610	4	185	0	3376
72	0	0	2615	5	185	0	3375
73	0	0	2557	4	185	0	3376
74	0	0	2489	4	185	0	3376
75	0	0	2399	4	185	0	3377
76	0	0	2289	4	185	0	3379
77	0	0	2184	4	183	0	3379
78	0	0	2112	4	184	0	3379
79	0	0	2065	4	184	0	3379
80	0	0	2027	4	181	0	3378
81	0	0	1988	4	183	0	3376
82	0	0	1956	4	182	0	3375
83	0	0	1954	5	185	0	3375
84	0	0	1951	5	183	0	3377
85	0	0	1953	5	183	0	3379
86	0	0	1948	4	182	0	3379
87	0	0	1943	5	184	0	3380
88	0	0	1971	5	184	0	3379
89	0	0	2001	5	185	0	3379
90	0	0	1989	5	186	0	3377
91	0	0	1970	4	184	0	3376
92	0	0	1973	5	185	0	3375
93	0	0	1964	6	184	0	3375
94	0	0	1969	4	185	0	3376
95	0	0	1936	4	185	0	3378
96	0	0	1878	4	184	0	3379
97	0	0	1847	4	185	0	3379
98	0	0	1837	4	183	0	3380
99	0	0	1845	5	184	0	3380
100	0	0	1831	5	184	0	3377
101	0	0	1790	4	183	0	3376
102	0	0	1768	5	182	0	3376
103	0	0	1798	5	182	0	3375
104	0	0	1838	5	183	0	3377
105	0	0	1863	5	183	0	3378
106	0	0	1866	5	183	0	3379
107	0	0	1897	5	184	0	3381
108	0	0	1942	6	184	0	3379
109	0	0	1980	5	185	0	3379
110	0	0	2007	5	184	0	3378
111	0	0	2049	5	185	0	3376
112	0	0	2092	5	186	0	3375
113	0	0	2074	4	185	0	3375
114	0	0	2015	4	184	0	3376
115	0	0	1937	4	183	0	3377
116	0	0	1874	4	184	0	3379
117	0	0	1853	4	182	0	3380
118	0	0	1832	4	184	0	3379
119	0	0	1787	4	182	0	3379
120	0	0	1752	4	183	0	3378
121	0	0	1743	4	183	0	3376
122	0	0	1750	5	184	0	3375
123	0	0	1783	5	183	0	3376
124	0	0	1833	5	182	0	3376
125	0	0	1881	4	185	0	3377
126	0	0	1919	5	183	0	3379
127	0	0	1957	5	184	0	3380
0	0	0	2008	5	185	0	3379
1	0	0	2053	5	184	0	3379
2	0	0	2075	5	185	0	3378
3	0	0	2088	5	185	0	3376
4	0	0	2104	5	184	0	3375
5	0	0	2065	4	184	0	3376
6	0	0	1990	4	185	0	3376
7	0	0	1876	4	185	0	3378
8	0	0	1768	4	184	0	3379
9	0	0	1715	4	183	0	3380
10	0	0	1700	4	184	0	3379
11	0	0	1713	6	184	0	3379
12	0	0	1738	5	184	0	3378
13	0	0	1759	5	183	0	3376
14	0	0	1778	5	183	0	3375
15	0	0	1826	5	183	0	3375
16	0	0	1870	5	183	0	3376
17	0	0	1910	5	184	0	3378
18	0	0	1927	5	183	0	3379
19	0	0	1936	5	183	0	3380
20	0	0	1953	5	184	0	3379
21	0	0	1971	5	184	0	3379
22	0	0	1993	4	184	0	3379
23	0	0	2022	5	185	0	3376
24	0	0	2048	5	185	0	3376
25	0	0	2046	5	185	0	3375
26	0	0	2008	4	184	0	3376
27	0	0	1941	4	185	0	3377
28	0	0	1857	4	185	0	3379
29	0	0	1792	4	183	0	3380
30	0	0	1760	4	184	0	3379
31	0	0	1752	4	182	0	3379
32	0	0	1731	4	184	0	3377
33	0	0	1708	4	182	0	3376
34	0	0	1713	5	183	0	3375
35	0	0	1768	5	184	0	3375
36	0	0	1854	5	185	0	3376
37	0	0	1932	4	183	0	3378
38	0	0	1967	5	184	0	3379
39	0	0	1978	5	184	0	3379
40	0	0	1987	5	184	0	3380
41	0	0	1995	5	185	0	3379
42	0	0	2036	5	185	0	3378
43	0	0	2110	5	184	0	3376
44	0	0	2155	5	185	0	3374
45	0	0	2106	4	186	0	3376
46	0	0	2030	4	184	0	3376
47	0	0	1941	4	182	0	3377
48	0	0	1849	4	184	0	3379
49	0	0	1794	4	184	0	3379
50	0	0	1761	4	184	0	3379
51	0	0	1734	5	184	0	3379
52	0	0	1713	4	184	0	3378
53	0	0	1707	4	183	0	3376
54	0	0	1726	5	184	0	3375
55	0	0	1771	5	183	0	3375
56	0	0	1819	5	183	0	3376
57	0	0	1864	5	184	0	3378
58	0	0	1911	5	183	0	3379
59	0	0	1976	6	185	0	3379
60	0	0	2052	5	185	0	3379
61	0	0	2117	5	184	0	3379
62	0	0	2169	5	185	0	3377
63	0	0	2204	5	185	0	3376
64	0	0	2210	4	184	0	3375
65	0	0	2156	4	185	0	3375
66	0	0	2066	4	186	0	3376
67	0	0	1962	4	184	0	3377
68	0	0	1860	4	183	0	3379
69	0	0	1799	4	184	0	3380
70	0	0	1781	4	185	0	3380
71	0	0	1806	5	185	0	3379
72	0	0	1859	5	183	0	3377
73	0	0	1884	5	184	0	3376
74	0	0	1874	5	184	0	3375
75	0	0	1889	6	184	0	3376
76	0	0	1920	5	183	0	3376
77	0	0	1953	5	184	0	3378
78	0	0	1984	5	183	0	3379
79	0	0	2027	5	183	0	3380
80	0	0	2072	5	184	0	3380
81	0	0	2076	6	184	0	3379
82	0	0	2070	5	183	0	3378
83	0	0	2097	5	185	0	3376
84	0	0	2148	5	185	0	3375
85	0	0	2154	5	185	0	3375
86	0	0	2107	4	185	0	3377
87	0	0	2026	5	184	0	3378
88	0	0	1939	4	184	0	3379
89	0	0	1883	4	184	0	3380
90	0	0	1856	4	184	0	3379
91	0	0	1842	4	183	0	3379
92	0	0	1829	4	183	0	3377
93	0	0	1819	4	182	0	3376
94	0	0	1804	4	183	0	3375
95	0	0	1824	5	183	0	3375
96	0	0	1856	4	185	0	3376
97	0	0	1876	5	183	0	3378
98	0	0	1900	5	184	0	3379
99	0	0	1973	5	184	0	3379
100	0	0	2065	5	182	0	3380
101	0	0	2117	5	184	0	3379
102	0	0	2130	5	185	0	3378
103	0	0	2136	5	184	0	3376
104	0	0	2144	5	185	0	3375
105	0	0	2118	4	184	0	3375
106	0	0	2093	5	184	0	3376
107	0	0	2085	4	185	0	3377
108	0	0	2039	4	185	0	3379
109	0	0	1979	5	183	0	3379
110	0	0	1924	5	183	0	3380
111	0	0	1887	4	185	0	3379
112	0	0	1872	4	183	0	3377
113	0	0	1847	4	183	0	3376
114	0	0	1814	4	184	0	3374
115	0	0	1824	5	182	0	3375
116	0	0	1848	5	184	0	3376
117	0	0	1899	5	183	0	3378
118	0	0	1976	5	185	0	3379
119	0	0	2044	5	184	0	3380
120	0	0	2066	5	184	0	3379
121	0	0	2075	5	184	0	3379
122	0	0	2093	5	185	0	3377
123	0	0	2139	5	186	0	3376
124	0	0	2203	5	185	0	3374
125	0	0	2237	5	183	0	3375
126	0	0	2256	5	185	0	3376
127	0	0	2238	4	185	0	3377
0	0	0	2171	4	184	0	3379
1	0	0	2087	4	183	0	3379
2	0	0	1998	4	183	0	3379
3	0	0	1918	4	184	0	3379
4	0	0	1876	4	184	0	3378
5	0	0	1857	4	183	0	3375
6	0	0	1854	5	183	0	3375
7	0	0	1892	5	183	0	3375
8	0	0	1963	5	184	0	3376
9	0	0	2016	5	183	0	3377
10	0	0	2048	5	183	0	3379
11	0	0	2077	5	185	0	3379
12	0	0	2114	5	185	0	3379
13	0	0	2157	5	183	0	3379
14	0	0	2190	5	184	0	3377
15	0	0	2226	5	184	0	3376
16	0	0	2256	5	185	0	3375
17	0	0	2239	4	185	0	3375
18	0	0	2205	4	185	0	3377
19	0	0	2168	4	184	0	3378
20	0	0	2140	5	184	0	3379
21	0	0	2104	4	184	0	3380
22	0	0	2055	4	182	0	3379
23	0	0	2013	4	184	0	3379
24	0	0	2004	5	184	0	3377
25	0	0	2006	5	184	0	3376
26	0	0	1987	4	184	0	3375
27	0	0	1985	5	183	0	3376
28	0	0	2001	5	184	0	3376
29	0	0	2026	5	184	0	3377
30	0	0	2055	5	184	0	3379
31	0	0	2098	5	183	0	3380
32	0	0	2148	5	186	0	3379
33	0	0	2199	5	184	0	3379
34	0	0	2231	5	185	0	3378
35	0	0	2280	5	184	0	3376
36	0	0	2350	4	185	0	3374
37	0	0	2357	5	186	0	3375
38	0	0	2292	4	186	0	3376
39	0	0	2196	5	183	0	3377
40	0	0	2097	4	184	0	3379
41	0	0	2020	4	184	0	3379
42	0	0	1977	4	184	0	3379
43	0	0	1950	4	184	0	3379
44	0	0	1926	4	182	0	3378
45	0	0	1926	5	182	0	3376
46	0	0	1946	5	184	0	3374
47	0	0	2005	5	183	0	3376
48	0	0	2071	5	183	0	3376
49	0	0	2108	5	184	0	3377
50	0	0	2129	5	184	0	3379
51	0	0	2156	5	184	0	3379
52	0	0	2210	5	184	0	3379
53	0	0	2265	5	184	0	3379
54	0	0	2297	5	184	0	3378
55	0	0	2316	5	183	0	3376
56	0	0	2323	4	185	0	3376
57	0	0	2289	4	184	0	3375
58	0	0	2266	5	184	0	3376
59	0	0	2263	5	184	0	3378
60	0	0	2233	4	183	0	3379
61	0	0	2162	4	184	0	3379
62	0	0	2080	4	185	0	3379
63	0	0	2027	4	184	0	3379
64	0	0	2005	4	184	0	3378
65	0	0	1988	4	183	0	3376
66	0	0	1985	5	183	0	3374
67	0	0	2019	5	185	0	3375
68	0	0	2075	5	183	0	3376
69	0	0	2124	5	184	0	3377
70	0	0	2170	5	185	0	3379
71	0	0	2208	5	184	0	3380
72	0	0	2247	5	184	0	3379
73	0	0	2283	5	185	0	3379
74	0	0	2307	5	185	0	3378
75	0	0	2330	5	186	0	3376
76	0	0	2319	4	185	0	3375
77	0	0	2275	3	184	0	3376
78	0	0	2208	4	185	0	3376
79	0	0	2137	4	184	0	3377
80	0	0	2074	4	184	0	3379
81	0	0	2044	4	184	0	3379
82	0	0	2031	4	183	0	3380
83	0	0	2023	5	184	0	3379
84	0	0	2012	4	184	0	3378
85	0	0	1995	4	184	0	3376
86	0	0	1962	4	183	0	3374
87	0	0	1959	5	184	0	3375
88	0	0	1998	5	184	0	3376
89	0	0	2053	5	183	0	3377
90	0	0	2089	5	184	0	3379
91	0	0	2121	5	183	0	3379
92	0	0	2169	5	183	0	3380
93	0	0	2220	5	185	0	3379
94	0	0	2277	5	184	0	3378
95	0	0	2323	5	185	0	3376
96	0	0	2324	4	185	0	3375
97	0	0	2273	4	185	0	3375
98	0	0	2222	4	184	0	3376
99	0	0	2156	4	183	0	3377
100	0	0	2068	4	184	0	3379
101	0	0	2009	4	183	0	3379
102	0	0	1994	5	183	0	3379
103	0	0	1995	5	184	0	3379
104	0	0	2017	5	184	0	3377
105	0	0	2021	4	185	0	3376
106	0	0	1996	5	183	0	3375
107	0	0	1979	5	183	0	3375
108	0	0	1959	4	184	0	3376
109	0	0	1974	4	183	0	3378
110	0	0	2029	5	184	0	3379
111	0	0	2108	5	183	0	3379
112	0	0	2175	4	183	0	3380
113	0	0	2202	4	185	0	3379
114	0	0	2201	5	184	0	3378
115	0	0	2215	5	184	0	3376
116	0	0	2254	5	184	0	3374
117	0	0	2255	4	184	0	3376
118	0	0	2224	4	184	0	3376
119	0	0	2185	4	184	0	3378
120	0	0	2150	4	184	0	3379
121	0	0	2123	4	184	0	3379
122	0	0	2076	3	182	0	3380
123	0	0	1995	4	183	0	3379
124	0	0	1910	4	183	0	3377
125	0	0	1869	4	182	0	3376
126	0	0	1874	5	183	0	3374
127	0	0	1916	6	184	0	3375
0	0	0	1969	5	183	0	3376
1	0	0	2014	5	184	0	3378
2	0	0	2052	5	183	0	3379
3	0	0	2086	5	184	0	3380
4	0	0	2113	5	183	0	3379
5	0	0	2129	5	184	0	3379
6	0	0	2150	4	184	0	3379
7	0	0	2190	5	185	0	3376
8	0	0	2232	5	186	0	3376
9	0	0	2215	4	183	0	3375
10	0	0	2186	4	184	0	3376
11	0	0	2134	4	184	0	3378
12	0	0	2033	4	183	0	3379
13	0	0	1952	4	185	0	3379
14	0	0	1938	5	185	0	3379
15	0	0	1952	5	183	0	3379
16	0	0	1992	5	184	0	3378
17	0	0	2024	5	182	0	3376
18	0	0	2015	5	182	0	3374
19	0	0	2000	5	184	0	3375
20	0	0	1998	5	184	0	3376
21	0	0	2009	5	183	0	3378
22	0	0	2035	5	185	0	3379
23	0	0	2095	5	183	0	3379
24	0	0	2172	5	184	0	3379
25	0	0	2224	5	184	0	3379
26	0	0	2235	5	185	0	3379
27	0	0	2249	5	184	0	3376
28	0	0	2273	5	184	0	3374
29	0	0	2250	4	184	0	3375
30	0	0	2190	4	184	0	3376
31	0	0	2115	4	184	0	3377
32	0	0	2038	4	183	0	3380
33	0	0	2000	4	185	0	3379
34	0	0	1983	4	184	0	3380
35	0	0	1982	5	184	0	3379
36	0	0	1987	5	184	0	3378
37	0	0	1986	4	183	0	3376
38	0	0	1974	5	183	0	3375
39	0	0	1987	5	182	0	3376
40	0	0	1998	5	184	0	3376
41	0	0	2009	5	185	0	3378
42	0	0	2036	5	183	0	3379
43	0	0	2095	5	183	0	3379
44	0	0	2162	4	182	0	3380
45	0	0	2188	5	184	0	3379
46	0	0	2195	5	185	0	3377
47	0	0	2229	5	184	0	3376
48	0	0	2273	5	185	0	3374
49	0	0	2253	4	184	0	3375
50	0	0	2196	4	185	0	3376
51	0	0	2140	4	184	0	3378
52	0	0	2078	4	183	0	3379
53	0	0	2032	4	184	0	3380
54	0	0	2020	5	185	0	3379
55	0	0	2018	4	182	0	3379
56	0	0	2034	5	185	0	3378
57	0	0	2055	5	184	0	3376
58	0	0	2055	5	183	0	3374
59	0	0	2062	4	184	0	3376
60	0	0	2049	4	183	0	3376
61	0	0	2049	5	183	0	3377
62	0	0	2084	4	182	0	3379
63	0	0	2126	4	183	0	3379
64	0	0	2169	4	185	0	3379
65	0	0	2201	5	184	0	3379
66	0	0	2229	5	183	0	3378
67	0	0	2269	5	185	0	3376
68	0	0	2310	5	185	0	3375
69	0	0	2295	4	184	0	3376
70	0	0	2253	4	186	0	3376
71	0	0	2195	4	184	0	3377
72	0	0	2103	4	184	0	3379
73	0	0	2026	4	184	0	3379
74	0	0	1987	6	184	0	3379
75	0	0	1964	5	184	0	3379
76	0	0	1964	5	183	0	3378
77	0	0	1985	5	183	0	3376
78	0	0	1989	5	183	0	3374
79	0	0	1994	4	184	0	3376
80	0	0	1996	5	182	0	3376
81	0	0	1993	5	184	0	3378
82	0	0	2020	5	184	0	3379
83	0	0	2062	5	183	0	3379
84	0	0	2125	4	184	0	3380
85	0	0	2212	5	184	0	3379
86	0	0	2263	5	183	0	3378
87	0	0	2289	5	185	0	3376
88	0	0	2310	5	185	0	3375
89	0	0	2283	4	184	0	3376
90	0	0	2252	5	185	0	3376
91	0	0	2218	4	184	0	3378
92	0	0	2141	4	184	0	3379
93	0	0	2070	4	184	0	3379
94	0	0	2017	6	184	0	3379
95	0	0	1992	4	183	0	3379
96	0	0	1996	5	184	0	3378
97	0	0	1998	5	184	0	3376
98	0	0	1994	5	183	0	3374
99	0	0	2014	6	183	0	3375
100	0	0	2028	5	184	0	3377
101	0	0	2032	5	183	0	3378
102	0	0	2074	5	182	0	3379
103	0	0	2135	5	184	0	3380
104	0	0	2207	5	185	0	3379
105	0	0	2265	5	184	0	3379
106	0	0	2279	5	184	0	3378
107	0	0	2288	5	184	0	3376
108	0	0	2308	5	184	0	3375
109	0	0	2283	4	185	0	3376
110	0	0	2242	4	184	0	3376
111	0	0	2208	4	185	0	3377
112	0	0	2162	4	184	0	3379
113	0	0	2107	4	184	0	3379
114	0	0	2050	4	184	0	3380
115	0	0	1985	4	183	0	3379
116	0	0	1953	4	184	0	3378
117	0	0	1939	4	182	0	3376
118	0	0	1935	5	184	0	3374
119	0	0	1971	5	183	0	3375
120	0	0	2037	5	184	0	3377
121	0	0	2088	5	184	0	3377
122	0	0	2100	5	183	0	3380
123	0	0	2088	5	184	0	3379
124	0	0	2102	5	185	0	3380
125	0	0	2145	5	184	0	3379
126	0	0	2194	5	185	0	3378
127	0	0	2254	5	185	0	3376
0	0	0	2311	5	184	0	3375
1	0	0	2296	4	185	0	3376
2	0	0	2236	4	185	0	3376
3	0	0	2171	4	184	0	3378
4	0	0	2123	4	183	0	3379
5	0	0	2091	4	183	0	3379
6	0	0	2064	4	183	0	3380
7	0	0	2019	4	184	0	3379
8	0	0	1991	4	183	0	3378
9	0	0	1989	5	182	0	3376
10	0	0	1985	5	184	0	3374
11	0	0	2006	5	184	0	3375
12	0	0	2030	5	184	0	3376
13	0	0	2064	5	184	0	3378
14	0	0	2109	5	183	0	3379
15	0	0	2159	5	185	0	3380
16	0	0	2223	5	184	0	3379
17	0	0	2284	4	185	0	3379
18	0	0	2328	5	185	0	3378
19	0	0	2364	4	183	0	3376
20	0	0	2368	5	184	0	3374
21	0	0	2310	4	185	0	3376
22	0	0	2230	4	185	0	3376
23	0	0	2140	4	184	0	3377
24	0	0	2048	4	184	0	3379
25	0	0	2011	4	184	0	3380
26	0	0	2001	5	185	0	3379
27	0	0	1991	4	183	0	3379
28	0	0	1970	5	184	0	3378
29	0	0	1973	5	182	0	3376
30	0	0	1989	5	184	0	3374
31	0	0	2037	5	184	0	3375
32	0	0	2099	5	183	0	3376
33	0	0	2118	5	183	0	3377
34	0	0	2086	4	182	0	3379
35	0	0	2077	5	184	0	3379
36	0	0	2129	5	185	0	3380
37	0	0	2190	5	185	0	3379
38	0	0	2226	5	184	0	3378
39	0	0	2269	5	185	0	3376
40	0	0	2312	4	186	0	3375
41	0	0	2301	5	183	0	3375
42	0	0	2274	4	184	0	3376
43	0	0	2261	5	184	0	3377
44	0	0	2200	4	184	0	3379
45	0	0	2112	4	183	0	3379
46	0	0	2051	4	184	0	3379
47	0	0	2028	5	184	0	3379
48	0	0	2044	5	184	0	3377
49	0	0	2059	5	183	0	3376
50	0	0	2031	4	183	0	3374
51	0	0	2000	4	184	0	3375
52	0	0	1985	5	183	0	3376
53	0	0	1997	5	184	0	3377
54	0	0	2039	4	183	0	3379
55	0	0	2112	5	184	0	3379
56	0	0	2175	5	184	0	3380
57	0	0	2203	5	185	0	3379
58	0	0	2226	5	184	0	3378
59	0	0	2265	5	185	0	3376
60	0	0	2295	5	185	0	3375
61	0	0	2249	4	184	0	3376
62	0	0	2209	4	184	0	3376
63	0	0	2163	4	185	0	3378
64	0	0	2087	4	184	0	3379
65	0	0	2000	4	184	0	3379
66	0	0	1947	4	183	0	3380
67	0	0	1946	5	183	0	3379
68	0	0	1959	5	183	0	3378
69	0	0	1983	5	183	0	3376
70	0	0	1998	5	184	0	3375
71	0	0	2041	5	182	0	3375
72	0	0	2092	5	184	0	3376
73	0	0	2128	5	183	0	3377
74	0	0	2151	5	183	0	3379
75	0	0	2173	5	184	0	3379
76	0	0	2190	5	183	0	3379
77	0	0	2212	4	185	0	3379
78	0	0	2251	5	184	0	3377
79	0	0	2303	4	184	0	3376
80	0	0	2354	5	184	0	3375
81	0	0	2327	4	186	0	3375
82	0	0	2263	4	185	0	3376
83	0	0	2195	4	184	0	3377
84	0	0	2118	4	184	0	3379
85	0	0	2055	4	184	0	3379
86	0	0	2023	4	184	0	3379
87	0	0	2012	3	183	0	3379
88	0	0	2009	5	183	0	3379
89	0	0	2008	5	184	0	3376
90	0	0	2001	5	184	0	3375
91	0	0	2023	5	183	0	3376
92	0	0	2033	5	184	0	3376
93	0	0	2010	4	183	0	3378
94	0	0	2012	5	182	0	3379
95	0	0	2076	5	184	0	3379
96	0	0	2189	5	184	0	3379
97	0	0	2296	4	185	0	3379
98	0	0	2363	5	184	0	3378
99	0	0	2409	5	185	0	3376
100	0	0	2424	4	184	0	3375
101	0	0	2364	4	183	0	3375
102	0	0	2282	3	185	0	3376
103	0	0	2197	4	183	0	3378
104	0	0	2119	3	184	0	3379
105	0	0	2071	4	184	0	3379
106	0	0	2069	5	183	0	3379
107	0	0	2096	5	183	0	3379
108	0	0	2103	5	183	0	3378
109	0	0	2098	4	183	0	3376
110	0	0	2040	4	182	0	3374
111	0	0	2023	5	183	0	3376
112	0	0	2029	5	184	0	3376
113	0	0	2033	5	184	0	3377
114	0	0	2057	5	185	0	3379
115	0	0	2099	5	184	0	3379
116	0	0	2184	5	184	0	3380
117	0	0	2291	4	183	0	3379
118	0	0	2380	5	185	0	3378
119	0	0	2429	5	184	0	3376
120	0	0	2427	4	185	0	3374
121	0	0	2360	4	184	0	3375
122	0	0	2267	3	185	0	3376
123	0	0	2150	4	184	0	3377
124	0	0	2052	4	184	0	3379
125	0	0	2010	4	184	0	3380
126	0	0	2002	5	184	0	3379
127	0	0	2004	4	183	0	3379
0	0	0	2015	5	183	0	3379
1	0	0	1984	4	183	0	3376
2	0	0	1951	5	183	0	3375
3	0	0	1990	5	183	0	3375
4	0	0	2072	4	183	0	3376
5	0	0	2145	5	183	0	3378
6	0	0	2182	5	184	0	3379
7	0	0	2200	5	186	0	3379
8	0	0	2217	5	185	0	3379
9	0	0	2236	5	183	0	3379
10	0	0	2246	5	184	0	3378
11	0	0	2274	5	184	0	3376
12	0	0	2301	5	184	0	3375
13	0	0	2276	4	185	0	3375
14	0	0	2242	4	183	0	3376
15	0	0	2201	4	184	0	3377
16	0	0	2139	4	184	0	3379
17	0	0	2071	4	184	0	3379
18	0	0	2019	4	183	0	3380
19	0	0	1987	5	183	0	3379
20	0	0	1975	4	183	0	3377
21	0	0	1968	4	183	0	3376
22	0	0	1945	4	183	0	3374
23	0	0	1965	5	184	0	3376
24	0	0	1998	5	184	0	3376
25	0	0	2027	5	183	0	3377
26	0	0	2083	5	184	0	3379
27	0	0	2140	4	184	0	3379
28	0	0	2184	5	183	0	3379
29	0	0	2221	5	185	0	3379
30	0	0	2254	5	184	0	3378
31	0	0	2277	5	184	0	3376
32	0	0	2303	5	186	0	3375
33	0	0	2250	4	185	0	3376
34	0	0	2185	4	186	0	3376
35	0	0	2133	4	184	0	3377
36	0	0	2061	4	184	0	3379
37	0	0	2023	5	184	0	3379
38	0	0	2040	5	184	0	3379
39	0	0	2062	5	184	0	3379
40	0	0	2051	4	183	0	3377
41	0	0	1993	4	182	0	3376
42	0	0	1930	4	183	0	3376
43	0	0	1908	3	184	0	3375
44	0	0	1934	4	183	0	3377
45	0	0	1999	5	184	0	3378
46	0	0	2080	5	182	0	3379
47	0	0	2144	5	184	0	3379
48	0	0	2182	5	185	0	3379
49	0	0	2208	5	183	0	3379
50	0	0	2250	5	184	0	3378
51	0	0	2285	5	185	0	3376
52	0	0	2320	5	185	0	3374
53	0	0	2320	5	184	0	3376
54	0	0	2314	5	184	0	3376
55	0	0	2275	4	185	0	3377
56	0	0	2180	4	183	0	3379
57	0	0	2083	4	184	0	3379
58	0	0	2021	4	184	0	3380
59	0	0	1988	5	183	0	3379
60	0	0	1957	4	183	0	3378
61	0	0	1924	5	184	0	3376
62	0	0	1896	4	183	0	3374
63	0	0	1924	5	184	0	3375
64	0	0	2011	5	183	0	3376
65	0	0	2119	5	184	0	3377
66	0	0	2190	5	184	0	3379
67	0	0	2203	5	185	0	3380
68	0	0	2173	5	185	0	3379
69	0	0	2137	4	184	0	3379
70	0	0	2126	5	184	0	3379
71	0	0	2161	5	185	0	3376
72	0	0	2204	5	185	0	3374
73	0	0	2175	4	185	0	3375
74	0	0	2129	4	185	0	3376
75	0	0	2077	4	184	0	3377
76	0	0	2032	4	183	0	3379
77	0	0	1990	4	184	0	3379
78	0	0	1962	4	183	0	3379
79	0	0	1967	5	184	0	3379
80	0	0	1973	5	184	0	3377
81	0	0	1970	5	182	0	3376
82	0	0	1973	5	184	0	3374
83	0	0	2024	5	183	0	3376
84	0	0	2104	5	183	0	3376
85	0	0	2185	5	182	0	3377
86	0	0	2269	5	184	0	3379
87	0	0	2346	5	184	0	3379
88	0	0	2409	5	184	0	3380
89	0	0	2466	5	184	0	3379
90	0	0	2523	5	185	0	3378
91	0	0	2601	5	184	0	3376
92	0	0	2679	5	185	0	3374
93	0	0	2696	5	185	0	3375
94	0	0	2696	5	186	0	3376
95	0	0	2676	4	186	0	3377
96	0	0	2615	4	183	0	3379
97	0	0	2562	4	184	0	3379
98	0	0	2499	4	184	0	3379
99	0	0	2442	4	183	0	3379
100	0	0	2413	4	183	0	3377
101	0	0	2376	4	183	0	3376
102	0	0	2305	4	183	0	3376
103	0	0	2266	4	184	0	3375
104	0	0	2247	5	183	0	3376
105	0	0	2223	4	183	0	3378
106	0	0	2231	5	184	0	3379
107	0	0	2265	5	184	0	3380
108	0	0	2288	6	185	0	3379
109	0	0	2300	5	185	0	3379
110	0	0	2264	4	184	0	3378
111	0	0	2222	5	184	0	3376
112	0	0	2234	5	186	0	3374
113	0	0	2262	5	185	0	3375
114	0	0	2285	4	185	0	3376
115	0	0	2237	4	185	0	3377
116	0	0	2126	4	184	0	3379
117	0	0	2021	4	183	0	3379
118	0	0	1958	4	183	0	3379
119	0	0	1935	4	183	0	3379
120	0	0	1925	5	184	0	3377
121	0	0	1949	5	184	0	3376
122	0	0	1978	5	184	0	3374
123	0	0	2017	5	184	0	3375
124	0	0	2040	5	184	0	3376
125	0	0	2040	5	182	0	3377
126	0	0	2042	5	185	0	3379
127	0	0	2057	5	184	0	3380
0	0	0	2095	5	183	0	3379
1	0	0	2156	5	184	0	3379
2	0	0	2186	5	185	0	3379
3	0	0	2199	5	186	0	3376
4	0	0	2234	5	186	0	3375
5	0	0	2242	4	186	0	3375
6	0	0	2227	5	184	0	3376
7	0	0	2177	4	184	0	3378
8	0	0	2068	4	184	0	3379
9	0	0	1972	4	184	0	3380
10	0	0	1930	5	185	0	3380
11	0	0	1927	5	183	0	3379
12	0	0	1915	4	183	0	3378
13	0	0	1894	4	183	0	3376
14	0	0	1863	4	185	0	3374
15	0	0	1887	5	183	0	3375
16	0	0	1946	5	182	0	3376
17	0	0	1998	5	184	0	3377
18	0	0	2035	5	184	0	3379
19	0	0	2058	5	184	0	3379
20	0	0	2079	5	184	0	3379
21	0	0	2087	4	185	0	3379
22	0	0	2104	5	184	0	3378
23	0	0	2152	5	185	0	3376
24	0	0	2206	6	185	0	3374
25	0	0	2181	4	186	0	3376
26	0	0	2120	4	184	0	3377
27	0	0	2101	4	185	0	3377
28	0	0	2070	4	185	0	3379
29	0	0	1992	4	183	0	3379
30	0	0	1918	4	183	0	3379
31	0	0	1889	4	183	0	3379
32	0	0	1878	4	183	0	3378
33	0	0	1879	5	184	0	3376
34	0	0	1899	5	183	0	3376
35	0	0	1954	5	183	0	3375
36	0	0	2009	6	184	0	3376
37	0	0	2049	4	183	0	3377
38	0	0	2062	5	184	0	3379
39	0	0	2053	5	184	0	3379
40	0	0	2057	5	185	0	3379
41	0	0	2101	4	183	0	3379
42	0	0	2156	4	185	0	3378
43	0	0	2204	5	185	0	3376
44	0	0	2245	5	185	0	3375
45	0	0	2242	5	184	0	3375
46	0	0	2205	5	184	0	3376
47	0	0	2160	4	185	0	3378
48	0	0	2093	4	185	0	3379
49	0	0	2014	4	184	0	3380
50	0	0	1945	4	184	0	3379
51	0	0	1895	5	184	0	3379
52	0	0	1868	4	183	0	3377
53	0	0	1859	4	184	0	3376
54	0	0	1854	5	184	0	3374
55	0	0	1886	5	184	0	3375
56	0	0	1932	5	183	0	3376
57	0	0	1981	4	183	0	3378
58	0	0	2052	5	184	0	3379
59	0	0	2104	5	185	0	3379
60	0	0	2151	5	183	0	3380
61	0	0	2192	5	185	0	3380
62	0	0	2224	5	185	0	3377
63	0	0	2253	5	185	0	3376
64	0	0	2256	5	185	0	3374
65	0	0	2204	4	184	0	3375
66	0	0	2168	5	185	0	3376
67	0	0	2133	4	185	0	3378
68	0	0	2061	4	184	0	3379
69	0	0	1989	4	183	0	3380
70	0	0	1941	4	184	0	3379
71	0	0	1907	6	183	0	3379
72	0	0	1901	5	184	0	3378
73	0	0	1909	5	183	0	3376
74	0	0	1904	5	183	0	3375
75	0	0	1933	5	183	0	3376
76	0	0	1975	5	184	0	3376
77	0	0	2010	5	184	0	3377
78	0	0	2034	5	184	0	3379
79	0	0	2055	5	185	0	3380
80	0	0	2093	5	184	0	3379
81	0	0	2129	6	184	0	3379
82	0	0	2163	5	185	0	3378
83	0	0	2190	5	186	0	3376
84	0	0	2211	5	186	0	3374
85	0	0	2173	4	184	0	3376
86	0	0	2121	4	185	0	3376
87	0	0	2084	3	184	0	3378
88	0	0	2044	4	185	0	3379
89	0	0	2020	5	184	0	3379
90	0	0	2023	5	184	0	3379
91	0	0	2004	5	184	0	3379
92	0	0	1971	4	184	0	3378
93	0	0	1934	4	183	0	3376
94	0	0	1883	4	183	0	3375
95	0	0	1889	5	183	0	3375
96	0	0	1926	6	182	0	3376
97	0	0	1980	5	185	0	3378
98	0	0	2036	5	184	0	3379
99	0	0	2069	5	185	0	3379
100	0	0	2083	5	185	0	3380
101	0	0	2081	5	184	0	3379
102	0	0	2092	5	184	0	3378
103	0	0	2122	5	186	0	3376
104	0	0	2163	5	184	0	3376
105	0	0	2170	5	185	0	3375
106	0	0	2147	5	185	0	3376
107	0	0	2111	4	184	0	3378
108	0	0	2046	4	184	0	3379
109	0	0	1968	4	183	0	3379
110	0	0	1918	4	184	0	3379
111	0	0	1899	3	184	0	3379
112	0	0	1898	5	184	0	3377
113	0	0	1926	5	183	0	3376
114	0	0	1930	5	184	0	3374
115	0	0	1957	5	183	0	3376
116	0	0	1995	5	185	0	3376
117	0	0	2016	5	185	0	3377
118	0	0	2041	5	184	0	3379
119	0	0	2068	5	184	0	3379
120	0	0	2106	5	184	0	3379
121	0	0	2166	6	183	0	3379
122	0	0	2231	5	184	0	3378
123	0	0	2270	5	185	0	3376
124	0	0	2270	4	185	0	3374
125	0	0	2206	4	186	0	3375
126	0	0	2127	2	185	0	3376
127	0	0	2053	4	184	0	3377
0	0	0	1969	4	184	0	3379
1	0	0	1899	3	185	0	3380
2	0	0	1864	4	184	0	3379
3	0	0	1860	5	184	0	3379
4	0	0	1898	5	184	0	3379
5	0	0	1936	5	183	0	3376
6	0	0	1932	5	183	0	3375
7	0	0	1934	5	183	0	3376
8	0	0	1944	5	182	0	3376
9	0	0	1942	4	184	0	3377
10	0	0	1939	5	183	0	3379
11	0	0	1971	5	184	0	3379
12	0	0	2028	5	183	0	3380
13	0	0	2102	5	185	0	3379
14	0	0	2155	5	185	0	3378
15	0	0	2187	5	184	0	3376
16	0	0	2197	5	185	0	3374
17	0	0	2161	4	185	0	3375
18	0	0	2123	4	186	0	3376
19	0	0	2087	4	184	0	3377
20	0	0	2046	4	183	0	3379
21	0	0	1997	4	184	0	3379
22	0	0	1954	4	184	0	3379
23	0	0	1930	5	183	0	3379
24	0	0	1925	5	183	0	3377
25	0	0	1936	5	184	0	3375
26	0	0	1939	5	184	0	3374
27	0	0	1973	4	183	0	3375
28	0	0	2017	5	185	0	3376
29	0	0	2044	5	184	0	3378
30	0	0	2067	5	185	0	3378
31	0	0	2088	5	184	0	3380
32	0	0	2118	5	185	0	3379
33	0	0	2126	5	184	0	3379
34	0	0	2116	5	184	0	3379
35	0	0	2145	5	185	0	3376
36	0	0	2209	5	184	0	3374
37	0	0	2207	4	184	0	3374
38	0	0	2171	5	185	0	3376
39	0	0	2122	4	185	0	3377
40	0	0	2064	5	185	0	3379
41	0	0	2022	5	184	0	3380
42	0	0	1989	4	185	0	3379
43	0	0	1972	4	184	0	3379
44	0	0	1963	4	183	0	3377
45	0	0	1947	4	184	0	3376
46	0	0	1927	5	183	0	3374
47	0	0	1944	5	183	0	3375
48	0	0	1988	5	184	0	3376
49	0	0	2008	5	185	0	3377
50	0	0	2014	5	184	0	3379
51	0	0	2042	5	185	0	3379
52	0	0	2071	4	184	0	3379
53	0	0	2085	5	186	0	3379
54	0	0	2096	5	184	0	3378
55	0	0	2102	5	185	0	3376
56	0	0	2115	5	185	0	3375
57	0	0	2093	4	184	0	3375
58	0	0	2076	5	185	0	3376
59	0	0	2059	4	184	0	3377
60	0	0	2015	4	184	0	3378
61	0	0	1952	4	184	0	3379
62	0	0	1917	3	184	0	3379
63	0	0	1916	5	184	0	3379
64	0	0	1936	5	184	0	3377
65	0	0	1959	5	183	0	3376
66	0	0	1973	5	184	0	3374
67	0	0	1998	5	184	0	3375
68	0	0	2009	5	184	0	3376
69	0	0	2026	5	183	0	3377
70	0	0	2073	5	183	0	3379
71	0	0	2127	5	184	0	3379
72	0	0	2179	5	184	0	3380
73	0	0	2230	5	185	0	3379
74	0	0	2254	5	185	0	3378
75	0	0	2278	5	185	0	3377
76	0	0	2278	4	185	0	3374
77	0	0	2211	4	185	0	3376
78	0	0	2175	4	184	0	3377
79	0	0	2164	5	184	0	3377
80	0	0	2116	4	184	0	3379
81	0	0	2030	4	183	0	3379
82	0	0	1957	4	183	0	3379
83	0	0	1907	5	184	0	3379
84	0	0	1886	4	183	0	3378
85	0	0	1872	4	183	0	3376
86	0	0	1853	4	183	0	3375
87	0	0	1863	5	184	0	3375
88	0	0	1894	5	184	0	3376
89	0	0	1929	5	184	0	3378
90	0	0	1962	5	184	0	3379
91	0	0	2018	5	184	0	3379
92	0	0	2067	5	184	0	3379
93	0	0	2102	5	184	0	3379
94	0	0	2130	5	185	0	3378
95	0	0	2158	5	185	0	3376
96	0	0	2176	5	185	0	3374
97	0	0	2149	4	185	0	3375
98	0	0	2105	5	184	0	3376
99	0	0	2038	4	185	0	3377
100	0	0	1945	4	185	0	3379
101	0	0	1864	4	184	0	3379
102	0	0	1843	5	182	0	3380
103	0	0	1863	5	184	0	3379
104	0	0	1910	5	183	0	3378
105	0	0	1943	5	183	0	3376
106	0	0	1913	4	183	0	3374
107	0	0	1922	5	182	0	3376
108	0	0	1970	5	183	0	3377
109	0	0	2043	5	184	0	3377
110	0	0	2117	5	184	0	3379
111	0	0	2136	5	185	0	3379
112	0	0	2112	4	185	0	3380
113	0	0	2087	5	184	0	3379
114	0	0	2082	5	184	0	3377
115	0	0	2104	5	185	0	3376
116	0	0	2145	5	184	0	3374
117	0	0	2154	5	185	0	3375
118	0	0	2145	5	184	0	3376
119	0	0	2093	4	185	0	3378
120	0	0	2008	4	185	0	3379
121	0	0	1940	4	184	0	3380
122	0	0	1892	4	184	0	3379
123	0	0	1853	4	184	0	3379
124	0	0	1821	4	182	0	3378
125	0	0	1804	4	184	0	3376
126	0	0	1802	5	183	0	3374
127	0	0	1840	5	183	0	3375
0	0	0	1875	5	184	0	3376
1	0	0	1892	5	183	0	3377
2	0	0	1929	5	184	0	3379
3	0	0	1993	5	184	0	3379
4	0	0	2066	5	184	0	3379
5	0	0	2097	5	184	0	3379
6	0	0	2085	4	185	0	3379
7	0	0	2089	5	185	0	3376
8	0	0	2122	5	184	0	3374
9	0	0	2111	4	184	0	3375
10	0	0	2072	4	185	0	3376
11	0	0	2031	4	184	0	3378
12	0	0	1972	4	185	0	3378
13	0	0	1904	4	184	0	3379
14	0	0	1856	5	182	0	3379
15	0	0	1820	4	183	0	3379
16	0	0	1794	4	183	0	3378
17	0	0	1791	4	183	0	3376
18	0	0	1794	4	184	0	3375
19	0	0	1836	4	184	0	3375
20	0	0	1887	5	183	0	3376
21	0	0	1937	5	183	0	3378
22	0	0	1970	5	184	0	3378
23	0	0	1989	5	184	0	3379
24	0	0	2017	5	184	0	3379
25	0	0	2059	5	184	0	3379
26	0	0	2080	5	184	0	3378
27	0	0	2092	5	185	0	3376
28	0	0	2104	5	184	0	3374
29	0	0	2084	4	185	0	3376
30	0	0	2053	4	184	0	3376
31	0	0	2019	3	183	0	3377
32	0	0	2024	5	185	0	3379
33	0	0	2015	4	185	0	3379
34	0	0	1962	4	183	0	3379
35	0	0	1912	4	183	0	3379
36	0	0	1867	5	183	0	3377
37	0	0	1854	4	183	0	3376
38	0	0	1848	4	183	0	3375
39	0	0	1859	5	182	0	3375
40	0	0	1876	5	183	0	3376
41	0	0	1873	5	183	0	3377
42	0	0	1887	5	183	0	3379
43	0	0	1926	5	183	0	3379
44	0	0	1994	5	184	0	3379
45	0	0	2057	6	185	0	3379
46	0	0	2101	5	185	0	3378
47	0	0	2125	5	184	0	3376
48	0	0	2125	5	185	0	3374
49	0	0	2084	5	183	0	3375
50	0	0	2051	5	184	0	3376
51	0	0	1997	4	184	0	3377
52	0	0	1903	4	184	0	3379
53	0	0	1801	5	183	0	3379
54	0	0	1734	4	183	0	3380
55	0	0	1717	5	185	0	3379
56	0	0	1751	4	183	0	3377
57	0	0	1805	5	183	0	3376
58	0	0	1840	5	182	0	3374
59	0	0	1897	5	184	0	3375
60	0	0	1959	5	183	0	3376
61	0	0	1988	5	183	0	3377
62	0	0	2008	5	184	0	3379
63	0	0	2031	4	183	0	3379
64	0	0	2050	5	184	0	3379
65	0	0	2063	6	184	0	3379
66	0	0	2069	4	185	0	3378
67	0	0	2090	4	184	0	3376
68	0	0	2126	5	184	0	3374
69	0	0	2134	5	184	0	3376
70	0	0	2135	5	184	0	3376
71	0	0	2087	4	184	0	3377
72	0	0	1992	4	184	0	3379
73	0	0	1918	4	183	0	3379
74	0	0	1891	4	184	0	3379
75	0	0	1877	5	182	0	3379
76	0	0	1870	4	183	0	3378
77	0	0	1872	5	184	0	3376
78	0	0	1862	5	182	0	3374
79	0	0	1881	5	183	0	3375
80	0	0	1914	5	183	0	3376
81	0	0	1932	5	183	0	3377
82	0	0	1950	5	184	0	3379
83	0	0	1972	5	184	0	3379
84	0	0	2007	5	184	0	3379
85	0	0	2076	5	185	0	3379
86	0	0	2136	6	184	0	3378
87	0	0	2176	5	184	0	3376
88	0	0	2206	5	185	0	3374
89	0	0	2165	4	184	0	3374
90	0	0	2085	4	183	0	3376
91	0	0	2016	4	184	0	3378
92	0	0	1953	4	184	0	3379
93	0	0	1912	5	184	0	3379
94	0	0	1914	5	183	0	3380
95	0	0	1903	5	183	0	3380
96	0	0	1872	4	185	0	3378
97	0	0	1841	4	183	0	3376
98	0	0	1816	5	183	0	3374
99	0	0	1827	5	183	0	3375
100	0	0	1862	5	183	0	3376
101	0	0	1902	4	183	0	3377
102	0	0	1926	5	184	0	3379
103	0	0	1937	5	184	0	3379
104	0	0	1970	6	184	0	3379
105	0	0	2034	6	183	0	3379
106	0	0	2102	6	185	0	3378
107	0	0	2171	5	186	0	3376
108	0	0	2216	5	184	0	3374
109	0	0	2192	4	185	0	3376
110	0	0	2175	4	184	0	3377
111	0	0	2133	4	185	0	3377
112	0	0	2061	4	184	0	3379
113	0	0	2003	4	184	0	3379
114	0	0	1967	5	183	0	3379
115	0	0	1950	4	182	0	3379
116	0	0	1901	4	183	0	3379
117	0	0	1826	4	183	0	3376
118	0	0	1760	4	183	0	3374
119	0	0	1762	5	185	0	3375
120	0	0	1820	5	183	0	3376
121	0	0	1904	5	184	0	3377
122	0	0	1990	5	184	0	3379
123	0	0	2070	5	184	0	3379
124	0	0	2118	5	184	0	3379
125	0	0	2139	5	182	0	3379
126	0	0	2155	5	184	0	3378
127	0	0	2181	5	184	0	3376
0	0	0	2203	4	185	0	3375
1	0	0	2162	4	184	0	3375
2	0	0	2094	4	184	0	3376
3	0	0	2013	5	185	0	3377
4	0	0	1915	4	185	0	3379
5	0	0	1841	4	183	0	3379
6	0	0	1805	6	183	0	3379
7	0	0	1805	5	183	0	3379
8	0	0	1837	4	183	0	3378
9	0	0	1866	5	184	0	3376
10	0	0	1869	5	183	0	3374
11	0	0	1890	6	183	0	3375
12	0	0	1923	5	183	0	3376
13	0	0	1954	6	184	0	3377
14	0	0	2002	5	184	0	3379
15	0	0	2042	5	184	0	3379
16	0	0	2088	5	183	0	3380
17	0	0	2149	5	185	0	3380
18	0	0	2198	5	185	0	3378
19	0	0	2236	5	185	0	3376
20	0	0	2249	5	185	0	3374
21	0	0	2184	4	185	0	3375
22	0	0	2125	4	185	0	3377
23	0	0	2080	3	185	0	3377
24	0	0	2010	4	183	0	3379
25	0	0	1941	5	185	0	3379
26	0	0	1886	4	184	0	3380
27	0	0	1826	4	182	0	3379
28	0	0	1789	4	183	0	3378
29	0	0	1795	5	184	0	3376
30	0	0	1812	5	184	0	3374
31	0	0	1845	6	184	0	3375
32	0	0	1877	5	181	0	3376
33	0	0	1931	4	183	0	3377
34	0	0	2002	5	183	0	3378
35	0	0	2069	5	184	0	3379
36	0	0	2122	5	185	0	3379
37	0	0	2139	5	184	0	3379
38	0	0	2123	4	185	0	3379
39	0	0	2121	5	184	0	3376
40	0	0	2143	4	186	0	3376
41	0	0	2127	5	186	0	3375
42	0	0	2129	5	183	0	3376
43	0	0	2106	4	185	0	3377
44	0	0	2041	4	185	0	3379
45	0	0	1972	4	185	0	3379
46	0	0	1899	4	184	0	3379
47	0	0	1851	4	181	0	3379
48	0	0	1844	5	184	0	3378
49	0	0	1868	5	183	0	3376
50	0	0	1903	4	183	0	3374
51	0	0	1930	5	183	0	3375
52	0	0	1946	5	184	0	3376
53	0	0	1960	4	184	0	3377
54	0	0	1987	5	183	0	3379
55	0	0	2021	5	184	0	3379
56	0	0	2065	5	184	0	3380
57	0	0	2103	5	185	0	3380
58	0	0	2114	5	185	0	3378
59	0	0	2115	5	185	0	3376
60	0	0	2142	5	185	0	3374
61	0	0	2156	5	185	0	3375
62	0	0	2158	5	184	0	3376
63	0	0	2117	3	185	0	3377
64	0	0	2025	4	184	0	3378
65	0	0	1932	5	184	0	3379
66	0	0	1872	4	184	0	3379
67	0	0	1837	4	185	0	3379
68	0	0	1831	5	182	0	3379
69	0	0	1842	5	184	0	3376
70	0	0	1843	5	183	0	3375
71	0	0	1847	5	183	0	3375
72	0	0	1853	5	184	0	3376
73	0	0	1869	5	184	0	3378
74	0	0	1933	5	183	0	3378
75	0	0	2003	4	184	0	3379
76	0	0	2054	5	183	0	3379
77	0	0	2097	5	184	0	3380
78	0	0	2139	4	184	0	3378
79	0	0	2180	5	185	0	3376
80	0	0	2233	5	186	0	3374
81	0	0	2242	5	184	0	3375
82	0	0	2218	4	185	0	3377
83	0	0	2166	4	185	0	3377
84	0	0	2074	4	184	0	3378
85	0	0	1970	4	184	0	3380
86	0	0	1900	4	184	0	3379
87	0	0	1859	4	185	0	3379
88	0	0	1843	4	183	0	3378
89	0	0	1847	5	182	0	3376
90	0	0	1856	5	183	0	3374
91	0	0	1879	5	182	0	3375
92	0	0	1904	5	183	0	3376
93	0	0	1943	4	184	0	3377
94	0	0	2004	5	184	0	3379
95	0	0	2067	5	184	0	3379
96	0	0	2109	5	184	0	3379
97	0	0	2117	5	185	0	3379
98	0	0	2119	5	185	0	3379
99	0	0	2165	5	184	0	3376
100	0	0	2248	5	185	0	3376
101	0	0	2257	4	186	0	3375
102	0	0	2194	4	184	0	3376
103	0	0	2112	4	184	0	3378
104	0	0	2032	4	185	0	3378
105	0	0	1982	4	184	0	3380
106	0	0	1930	4	183	0	3379
107	0	0	1861	4	183	0	3379
108	0	0	1825	4	184	0	3379
109	0	0	1832	5	183	0	3376
110	0	0	1839	5	182	0	3374
111	0	0	1878	5	183	0	3375
112	0	0	1948	5	184	0	3376
113	0	0	2012	4	183	0	3377
114	0	0	2054	5	184	0	3379
115	0	0	2065	5	186	0	3379
116	0	0	2073	4	185	0	3379
117	0	0	2106	5	183	0	3379
118	0	0	2124	4	185	0	3378
119	0	0	2141	5	185	0	3376
120	0	0	2190	5	184	0	3374
121	0	0	2200	5	184	0	3376
122	0	0	2160	4	184	0	3376
123	0	0	2100	4	183	0	3377
124	0	0	2039	4	185	0	3379
125	0	0	1998	4	184	0	3379
126	0	0	1964	4	184	0	3380
127	0	0	1938	4	183	0	3380
0	0	0	1935	5	183	0	3378
1	0	0	1951	5	183	0	3376
2	0	0	1953	5	184	0	3374
3	0	0	1981	5	184	0	3376
4	0	0	2011	5	183	0	3376
5	0	0	2025	4	184	0	3377
6	0	0	2042	5	183	0	3379
7	0	0	2063	5	184	0	3379
8	0	0	2085	5	184	0	3380
9	0	0	2097	5	185	0	3379
10	0	0	2116	5	184	0	3379
11	0	0	2155	5	185	0	3376
12	0	0	2211	5	185	0	3375
13	0	0	2207	4	184	0	3375
14	0	0	2149	4	184	0	3376
15	0	0	2073	4	185	0	3378
16	0	0	1990	4	183	0	3379
17	0	0	1919	4	183	0	3379
18	0	0	1880	4	184	0	3380
19	0	0	1886	5	183	0	3379
20	0	0	1912	4	184	0	3377
21	0	0	1920	5	183	0	3376
22	0	0	1885	5	183	0	3374
23	0	0	1872	5	184	0	3375
24	0	0	1882	5	184	0	3376
25	0	0	1905	5	184	0	3378
26	0	0	1951	5	183	0	3379
27	0	0	2013	5	184	0	3379
28	0	0	2087	5	183	0	3380
29	0	0	2135	5	184	0	3380
30	0	0	2147	4	185	0	3378
31	0	0	2145	4	185	0	3376
32	0	0	2155	5	185	0	3376
33	0	0	2129	4	184	0	3375
34	0	0	2106	4	184	0	3376
35	0	0	2085	3	185	0	3377
36	0	0	2041	4	183	0	3379
37	0	0	2003	4	184	0	3379
38	0	0	1977	4	184	0	3379
39	0	0	1954	4	184	0	3380
40	0	0	1933	3	182	0	3378
41	0	0	1925	5	184	0	3376
42	0	0	1932	5	184	0	3374
43	0	0	1983	5	184	0	3375
44	0	0	2012	4	184	0	3376
45	0	0	1959	3	184	0	3378
46	0	0	1936	4	184	0	3379
47	0	0	1949	5	185	0	3379
48	0	0	1996	4	185	0	3379
49	0	0	2033	5	184	0	3380
50	0	0	2063	3	184	0	3378
51	0	0	2104	5	183	0	3376
52	0	0	2142	5	185	0	3374
53	0	0	2140	5	184	0	3376
54	0	0	2125	4	185	0	3377
55	0	0	2083	3	183	0	3377
56	0	0	2002	4	184	0	3379
57	0	0	1923	5	184	0	3379
58	0	0	1843	5	183	0	3380
59	0	0	1794	4	183	0	3379
60	0	0	1791	5	184	0	3379
61	0	0	1807	5	183	0	3375
62	0	0	1837	5	184	0	3374
63	0	0	1897	5	183	0	3375
64	0	0	1976	5	182	0	3376
65	0	0	2053	4	184	0	3377
66	0	0	2110	5	183	0	3378
67	0	0	2122	5	184	0	3379
68	0	0	2135	5	184	0	3380
69	0	0	2170	5	183	0	3379
70	0	0	2188	3	184	0	3378
71	0	0	2185	5	185	0	3376
72	0	0	2189	5	185	0	3374
73	0	0	2131	4	184	0	3375
74	0	0	2058	4	185	0	3377
75	0	0	1977	3	184	0	3377
76	0	0	1900	4	183	0	3378
77	0	0	1858	4	184	0	3379
78	0	0	1876	5	184	0	3379
79	0	0	1891	5	185	0	3379
80	0	0	1872	4	184	0	3378
81	0	0	1832	4	183	0	3376
82	0	0	1800	4	183	0	3374
83	0	0	1837	5	184	0	3375
84	0	0	1922	5	183	0	3376
85	0	0	1999	4	183	0	3377
86	0	0	2082	5	184	0	3378
87	0	0	2166	5	183	0	3379
88	0	0	2251	5	184	0	3380
89	0	0	2323	5	184	0	3380
90	0	0	2366	4	184	0	3379
91	0	0	2417	5	185	0	3377
92	0	0	2512	6	184	0	3375
93	0	0	2563	5	185	0	3376
94	0	0	2568	5	185	0	3377
95	0	0	2544	3	185	0	3377
96	0	0	2498	4	185	0	3379
97	0	0	2437	4	183	0	3379
98	0	0	2394	4	184	0	3380
99	0	0	2366	4	183	0	3380
100	0	0	2354	4	183	0	3378
101	0	0	2340	4	183	0	3376
102	0	0	2317	4	182	0	3374
103	0	0	2339	5	183	0	3375
104	0	0	2385	4	183	0	3376
105	0	0	2406	5	184	0	3377
106	0	0	2409	5	184	0	3379
107	0	0	2355	4	184	0	3379
108	0	0	2282	5	183	0	3381
109	0	0	2222	4	185	0	3380
110	0	0	2180	4	185	0	3379
111	0	0	2150	4	184	0	3377
112	0	0	2126	4	185	0	3375
113	0	0	2075	4	185	0	3375
114	0	0	2025	4	185	0	3376
115	0	0	1969	4	184	0	3377
116	0	0	1885	4	185	0	3378
117	0	0	1822	4	184	0	3380
118	0	0	1823	5	184	0	3379
119	0	0	1847	5	185	0	3379
120	0	0	1876	5	183	0	3379
121	0	0	1891	5	183	0	3376
122	0	0	1887	5	184	0	3376
123	0	0	1905	5	184	0	3375
124	0	0	1933	5	184	0	3376
125	0	0	1980	4	183	0	3377
126	0	0	2027	5	184	0	3378
127	0	0	2050	5	183	0	3379
0	0	0	2078	5	184	0	3381
1	0	0	2119	5	185	0	3380
2	0	0	2150	5	185	0	3378
3	0	0	2179	5	184	0	3376
4	0	0	2195	5	185	0	3374
5	0	0	2139	4	185	0	3375
6	0	0	2079	4	187	0	3376
7	0	0	2036	4	183	0	3377
8	0	0	1996	4	184	0	3378
9	0	0	1964	4	183	0	3380
10	0	0	1943	4	184	0	3380
11	0	0	1939	5	185	0	3379
12	0	0	1916	4	184	0	3379
13	0	0	1884	4	183	0	3376
14	0	0	1853	4	184	0	3375
15	0	0	1850	6	184	0	3375
16	0	0	1858	5	183	0	3376
17	0	0	1910	5	183	0	3377
18	0	0	1976	5	184	0	3378
19	0	0	2019	5	185	0	3379
20	0	0	2048	5	184	0	3380
21	0	0	2072	5	184	0	3380
22	0	0	2096	4	185	0	3378
23	0	0	2120	5	186	0	3376
24	0	0	2142	5	185	0	3376
25	0	0	2120	4	184	0	3375
26	0	0	2103	5	184	0	3376
27	0	0	2081	4	184	0	3377
28	0	0	2010	4	184	0	3378
29	0	0	1949	4	183	0	3379
30	0	0	1905	5	184	0	3379
31	0	0	1879	4	183	0	3379
32	0	0	1863	4	184	0	3379
33	0	0	1860	5	183	0	3376
34	0	0	1858	5	183	0	3374
35	0	0	1889	4	182	0	3375
36	0	0	1923	5	184	0	3376
37	0	0	1952	4	184	0	3377
38	0	0	2007	5	185	0	3379
39	0	0	2054	5	184	0	3379
40	0	0	2076	5	184	0	3380
41	0	0	2102	5	183	0	3380
42	0	0	2140	5	185	0	3378
43	0	0	2178	5	184	0	3377
44	0	0	2230	6	185	0	3375
45	0	0	2223	4	186	0	3375
46	0	0	2180	4	184	0	3376
47	0	0	2126	4	184	0	3377
48	0	0	2065	4	185	0	3378
49	0	0	2028	4	184	0	3379
50	0	0	1982	5	183	0	3380
51	0	0	1925	4	184	0	3379
52	0	0	1866	4	184	0	3378
53	0	0	1831	4	184	0	3376
54	0	0	1804	4	184	0	3374
55	0	0	1827	5	185	0	3375
56	0	0	1868	5	184	0	3376
57	0	0	1902	5	183	0	3377
58	0	0	1957	5	183	0	3379
59	0	0	2007	5	184	0	3379
60	0	0	2049	6	184	0	3379
61	0	0	2086	4	185	0	3379
62	0	0	2125	5	183	0	3378
63	0	0	2165	5	184	0	3376
64	0	0	2183	5	185	0	3375
65	0	0	2149	4	185	0	3375
66	0	0	2134	5	186	0	3376
67	0	0	2137	5	184	0	3378
68	0	0	2111	4	183	0	3378
69	0	0	2052	4	184	0	3380
70	0	0	1968	4	183	0	3379
71	0	0	1904	4	184	0	3379
72	0	0	1864	4	183	0	3378
73	0	0	1856	5	183	0	3375
74	0	0	1854	5	185	0	3375
75	0	0	1888	6	183	0	3375
76	0	0	1940	5	184	0	3376
77	0	0	1998	5	184	0	3377
78	0	0	2049	5	184	0	3378
79	0	0	2079	5	184	0	3379
80	0	0	2107	5	184	0	3380
81	0	0	2133	4	185	0	3380
82	0	0	2159	5	184	0	3378
83	0	0	2186	5	185	0	3377
84	0	0	2221	5	184	0	3374
85	0	0	2209	5	184	0	3375
86	0	0	2166	4	185	0	3376
87	0	0	2119	4	184	0	3377
88	0	0	2061	4	184	0	3378
89	0	0	1987	4	184	0	3379
90	0	0	1916	3	184	0	3379
91	0	0	1856	4	183	0	3379
92	0	0	1808	4	184	0	3379
93	0	0	1796	5	184	0	3376
94	0	0	1803	5	185	0	3376
95	0	0	1852	5	183	0	3375
96	0	0	1922	5	184	0	3376
97	0	0	1983	5	184	0	3377
98	0	0	2040	5	183	0	3378
99	0	0	2083	5	184	0	3379
100	0	0	2134	5	183	0	3379
101	0	0	2192	5	183	0	3379
102	0	0	2225	4	184	0	3378
103	0	0	2226	5	184	0	3376
104	0	0	2243	5	186	0	3374
105	0	0	2250	5	185	0	3375
106	0	0	2256	5	185	0	3377
107	0	0	2233	4	186	0	3377
108	0	0	2127	4	183	0	3378
109	0	0	2004	4	184	0	3380
110	0	0	1911	4	184	0	3379
111	0	0	1868	4	184	0	3379
112	0	0	1872	5	183	0	3379
113	0	0	1858	4	184	0	3376
114	0	0	1830	4	184	0	3374
115	0	0	1839	5	183	0	3375
116	0	0	1866	5	184	0	3377
117	0	0	1923	5	183	0	3377
118	0	0	1997	5	184	0	3378
119	0	0	2076	5	184	0	3379
120	0	0	2143	4	185	0	3379
121	0	0	2172	5	183	0	3379
122	0	0	2178	5	184	0	3379
123	0	0	2182	5	185	0	3376
124	0	0	2199	5	185	0	3374
125	0	0	2164	4	185	0	3375
126	0	0	2118	4	185	0	3376
127	0	0	2095	5	185	0	3377
0	0	0	2045	4	184	0	3379
1	0	0	1983	5	184	0	3379
2	0	0	1938	4	183	0	3380
3	0	0	1899	4	184	0	3379
4	0	0	1860	4	182	0	3379
5	0	0	1858	5	183	0	3376
6	0	0	1866	5	184	0	3374
7	0	0	1903	4	184	0	3375
8	0	0	1925	4	185	0	3376
9	0	0	1945	5	184	0	3377
10	0	0	1994	5	184	0	3378
11	0	0	2068	5	184	0	3379
12	0	0	2144	5	184	0	3379
13	0	0	2215	5	185	0	3379
14	0	0	2265	5	185	0	3379
15	0	0	2307	5	185	0	3376
16	0	0	2337	5	183	0	3376
17	0	0	2285	5	184	0	3375
18	0	0	2190	4	184	0	3376
19	0	0	2102	4	184	0	3378
20	0	0	2014	4	184	0	3379
21	0	0	1961	4	184	0	3379
22	0	0	1937	4	184	0	3379
23	0	0	1905	4	184	0	3379
24	0	0	1881	4	183	0	3378
25	0	0	1882	5	183	0	3376
26	0	0	1877	5	184	0	3374
27	0	0	1889	4	184	0	3375
28	0	0	1922	5	183	0	3376
29	0	0	1960	5	184	0	3377
30	0	0	2023	5	184	0	3379
31	0	0	2110	5	183	0	3379
32	0	0	2198	5	184	0	3380
33	0	0	2255	5	184	0	3380
34	0	0	2274	5	185	0	3378
35	0	0	2278	5	185	0	3377
36	0	0	2296	5	185	0	3374
37	0	0	2270	4	185	0	3375
38	0	0	2234	4	184	0	3376
39	0	0	2185	4	185	0	3377
40	0	0	2110	4	183	0	3379
41	0	0	2042	4	184	0	3379
42	0	0	1995	4	184	0	3379
43	0	0	1971	4	184	0	3379
44	0	0	1959	4	183	0	3379
45	0	0	1960	5	183	0	3376
46	0	0	1953	5	183	0	3376
47	0	0	1982	5	185	0	3375
48	0	0	2041	5	183	0	3376
49	0	0	2078	5	183	0	3377
50	0	0	2104	5	183	0	3378
51	0	0	2128	5	184	0	3379
52	0	0	2147	5	184	0	3380
53	0	0	2176	5	185	0	3380
54	0	0	2224	5	185	0	3378
55	0	0	2284	5	186	0	3376
56	0	0	2342	5	185	0	3374
57	0	0	2335	4	185	0	3375
58	0	0	2281	4	185	0	3376
59	0	0	2212	4	184	0	3378
60	0	0	2144	4	185	0	3378
61	0	0	2081	4	183	0	3380
62	0	0	2034	4	184	0	3380
63	0	0	2013	5	184	0	3379
64	0	0	1997	5	184	0	3379
65	0	0	1993	5	184	0	3376
66	0	0	1998	5	183	0	3374
67	0	0	2021	5	183	0	3375
68	0	0	2036	5	185	0	3376
69	0	0	2046	5	184	0	3377
70	0	0	2072	5	184	0	3378
71	0	0	2135	5	184	0	3379
72	0	0	2224	5	185	0	3379
73	0	0	2284	5	185	0	3379
74	0	0	2306	5	184	0	3379
75	0	0	2286	5	185	0	3376
76	0	0	2266	4	185	0	3375
77	0	0	2251	5	185	0	3375
78	0	0	2260	5	185	0	3377
79	0	0	2227	4	184	0	3378
80	0	0	2144	4	184	0	3379
81	0	0	2058	4	184	0	3379
82	0	0	2003	4	183	0	3380
83	0	0	1949	4	183	0	3379
84	0	0	1904	4	184	0	3378
85	0	0	1899	5	183	0	3376
86	0	0	1905	5	183	0	3375
87	0	0	1947	4	183	0	3375
88	0	0	2012	5	184	0	3376
89	0	0	2077	5	184	0	3377
90	0	0	2120	5	183	0	3379
91	0	0	2152	5	184	0	3379
92	0	0	2191	5	184	0	3379
93	0	0	2213	5	185	0	3379
94	0	0	2227	5	182	0	3378
95	0	0	2225	5	185	0	3376
96	0	0	2223	5	184	0	3375
97	0	0	2199	4	185	0	3375
98	0	0	2166	4	185	0	3376
99	0	0	2144	5	185	0	3378
100	0	0	2132	5	184	0	3378
101	0	0	2103	4	184	0	3379
102	0	0	2070	4	184	0	3379
