# bioPlux Text File Format
# Version: 1
# StartDateTime: 2011-07-18 14:24:16
# SamplingFrequency: 1000
# SampledChannels: 1 2 3 4 5
# SamplingResolution: 12
# AcquiringDevice: 00:07:80:42:0F:95
# EndOfHeader
0	0	0	1795	1118	187	306	3296
1	0	0	985	1120	183	306	3297
2	0	0	512	1123	182	305	3298
3	0	0	243	1126	179	305	3297
4	0	0	93	1127	178	305	3296
5	0	0	12	1129	176	305	3294
6	0	0	0	1130	177	305	3294
7	0	0	0	1130	177	305	3294
8	0	0	713	1135	177	305	3295
9	0	0	1749	1134	178	305	3295
10	0	0	2635	1133	180	306	3296
11	0	0	3177	1131	182	305	3297
12	0	0	3497	1130	185	306	3297
13	0	0	3690	1127	187	305	3296
14	0	0	3797	1126	189	305	3295
15	0	0	3855	1124	191	306	3294
16	0	0	3887	1123	192	305	3293
17	0	0	3901	1121	192	306	3294
18	0	0	3908	1122	193	306	3294
19	0	0	3091	1115	190	306	3295
20	0	0	1789	1118	187	305	3297
21	0	0	981	1120	185	306	3298
22	0	0	514	1122	181	305	3298
23	0	0	244	1125	180	306	3297
24	0	0	91	1127	178	305	3296
25	0	0	10	1129	177	305	3294
26	0	0	0	1129	176	305	3294
27	0	0	0	1129	177	305	3294
28	0	0	715	1134	177	305	3295
29	0	0	1756	1134	178	306	3296
30	0	0	2632	1133	181	306	3296
31	0	0	3178	1132	182	306	3296
32	0	0	3499	1128	184	306	3297
33	0	0	3687	1128	187	305	3297
34	0	0	3796	1125	189	305	3296
35	0	0	3855	1123	191	306	3294
36	0	0	3887	1122	193	305	3294
37	0	0	3901	1121	192	305	3294
38	0	0	3908	1122	193	304	3295
39	0	0	3100	1115	190	306	3295
40	0	0	1808	1117	187	305	3297
41	0	0	991	1120	184	306	3298
42	0	0	516	1122	183	305	3297
43	0	0	244	1124	180	305	3297
44	0	0	91	1127	178	305	3297
45	0	0	10	1129	178	305	3294
46	0	0	0	1130	177	306	3294
47	0	0	0	1130	176	305	3294
48	0	0	693	1134	177	305	3294
49	0	0	1740	1133	179	305	3295
50	0	0	2618	1132	180	305	3296
51	0	0	3165	1131	182	305	3296
52	0	0	3490	1129	184	305	3297
53	0	0	3686	1127	187	306	3297
54	0	0	3795	1126	188	305	3296
55	0	0	3853	1123	191	305	3294
56	0	0	3884	1122	193	305	3293
57	0	0	3899	1121	192	306	3293
58	0	0	3905	1121	191	305	3294
59	0	0	3107	1115	190	306	3296
60	0	0	1804	1117	186	305	3296
61	0	0	988	1119	185	305	3297
62	0	0	517	1122	181	306	3298
63	0	0	245	1124	180	306	3297
64	0	0	91	1126	177	306	3296
65	0	0	9	1128	176	305	3295
66	0	0	0	1129	177	305	3295
67	0	0	0	1129	177	305	3294
68	0	0	690	1132	177	305	3295
69	0	0	1725	1133	178	306	3295
70	0	0	2608	1132	180	305	3296
71	0	0	3158	1130	182	305	3296
72	0	0	3489	1128	184	305	3296
73	0	0	3681	1127	186	305	3296
74	0	0	3791	1125	188	306	3296
75	0	0	3853	1123	192	305	3294
76	0	0	3883	1121	193	306	3294
77	0	0	3899	1121	192	306	3294
78	0	0	3903	1121	192	303	3294
79	0	0	3107	1114	189	306	3295
80	0	0	1814	1117	187	306	3296
81	0	0	994	1119	184	306	3296
82	0	0	516	1121	181	305	3297
83	0	0	244	1124	180	305	3297
84	0	0	91	1126	178	305	3296
85	0	0	8	1127	178	305	3294
86	0	0	0	1129	178	305	3294
87	0	0	0	1128	177	305	3294
88	0	0	672	1132	178	305	3294
89	0	0	1710	1133	179	305	3295
90	0	0	2608	1131	180	305	3296
91	0	0	3158	1131	182	305	3297
92	0	0	3485	1128	184	306	3297
93	0	0	3682	1127	187	305	3297
94	0	0	3790	1125	189	305	3296
95	0	0	3852	1123	190	305	3295
96	0	0	3883	1121	193	306	3294
97	0	0	3896	1120	192	306	3294
98	0	0	3904	1120	191	305	3295
99	0	0	3124	1114	190	306	3295
100	0	0	1815	1116	186	305	3296
101	0	0	994	1119	185	305	3297
102	0	0	519	1120	182	306	3297
103	0	0	245	1123	180	306	3297
104	0	0	90	1126	178	305	3296
105	0	0	7	1127	177	305	3295
106	0	0	0	1128	178	306	3294
107	0	0	0	1129	177	305	3295
108	0	0	683	1132	178	306	3294
109	0	0	1720	1132	177	305	3296
110	0	0	2605	1132	181	305	3296
111	0	0	3160	1130	182	305	3297
112	0	0	3487	1128	184	305	3297
113	0	0	3680	1126	187	305	3297
114	0	0	3789	1125	188	305	3295
115	0	0	3850	1122	190	305	3294
116	0	0	3881	1121	192	306	3293
117	0	0	3896	1120	192	306	3294
118	0	0	3904	1120	192	304	3295
119	0	0	3118	1114	190	306	3295
120	0	0	1822	1116	186	306	3296
121	0	0	998	1118	185	306	3297
122	0	0	517	1120	181	305	3297
123	0	0	243	1123	179	305	3297
124	0	0	90	1125	178	305	3297
125	0	0	7	1127	177	305	3294
126	0	0	0	1128	178	306	3294
127	0	0	0	1129	177	305	3295
0	0	0	701	1132	177	305	3294
1	0	0	1738	1131	179	305	3295
2	0	0	2613	1131	180	305	3296
3	0	0	3160	1130	182	305	3296
4	0	0	3486	1127	184	305	3297
5	0	0	3680	1125	187	306	3296
6	0	0	3788	1124	188	305	3296
7	0	0	3848	1122	191	305	3294
8	0	0	3880	1120	193	305	3294
9	0	0	3895	1119	192	306	3294
10	0	0	3902	1119	192	304	3295
11	0	0	3131	1113	189	306	3295
12	0	0	1823	1115	186	305	3296
13	0	0	997	1118	186	306	3297
14	0	0	521	1120	182	306	3298
15	0	0	245	1122	181	305	3297
16	0	0	89	1124	179	306	3296
17	0	0	5	1126	177	305	3295
18	0	0	0	1128	176	306	3294
19	0	0	0	1128	177	305	3294
20	0	0	664	1131	177	305	3294
21	0	0	1695	1131	178	305	3295
22	0	0	2583	1131	180	305	3296
23	0	0	3148	1130	181	305	3297
24	0	0	3478	1127	183	305	3297
25	0	0	3675	1126	186	305	3297
26	0	0	3784	1124	189	305	3296
27	0	0	3846	1121	191	306	3294
28	0	0	3879	1120	194	305	3293
29	0	0	3893	1119	193	305	3294
30	0	0	3899	1119	192	304	3294
31	0	0	3133	1113	189	306	3295
32	0	0	1836	1116	186	305	3296
33	0	0	1005	1118	185	305	3297
34	0	0	520	1120	181	306	3297
35	0	0	245	1122	179	306	3297
36	0	0	89	1124	177	306	3296
37	0	0	5	1126	176	305	3295
38	0	0	0	1128	177	305	3295
39	0	0	0	1128	177	305	3294
40	0	0	656	1132	178	306	3296
41	0	0	1705	1131	178	305	3295
42	0	0	2592	1130	180	305	3296
43	0	0	3147	1130	182	305	3296
44	0	0	3478	1127	185	305	3297
45	0	0	3674	1125	187	306	3296
46	0	0	3785	1123	189	306	3296
47	0	0	3847	1121	191	305	3294
48	0	0	3879	1119	194	304	3293
49	0	0	3892	1119	193	305	3294
50	0	0	3899	1119	193	304	3294
51	0	0	3124	1112	190	305	3295
52	0	0	1830	1114	187	306	3296
53	0	0	1002	1117	183	306	3298
54	0	0	518	1119	182	305	3297
55	0	0	243	1122	179	305	3297
56	0	0	88	1124	178	305	3296
57	0	0	5	1127	177	305	3295
58	0	0	0	1127	177	305	3294
59	0	0	0	1128	177	305	3295
60	0	0	651	1131	177	305	3294
61	0	0	1704	1130	179	305	3295
62	0	0	2591	1130	179	305	3296
63	0	0	3146	1128	181	306	3297
64	0	0	3477	1127	185	305	3297
65	0	0	3674	1125	187	306	3296
66	0	0	3785	1122	189	305	3296
67	0	0	3845	1121	192	305	3294
68	0	0	3878	1119	193	305	3294
69	0	0	3891	1118	193	306	3294
70	0	0	3899	1118	192	305	3294
71	0	0	3141	1112	189	306	3295
72	0	0	1830	1114	187	305	3297
73	0	0	1001	1117	185	305	3298
74	0	0	522	1119	182	305	3298
75	0	0	245	1122	179	305	3298
76	0	0	88	1124	178	305	3296
77	0	0	4	1126	177	306	3295
78	0	0	0	1126	177	305	3294
79	0	0	0	1126	177	305	3294
80	0	0	695	1130	177	305	3295
81	0	0	1730	1130	178	306	3296
82	0	0	2609	1130	179	307	3296
83	0	0	3161	1128	182	305	3296
84	0	0	3484	1126	184	306	3297
85	0	0	3678	1124	186	306	3297
86	0	0	3786	1123	189	305	3296
87	0	0	3846	1121	192	305	3294
88	0	0	3878	1119	193	305	3294
89	0	0	3891	1118	193	306	3294
90	0	0	3897	1118	193	304	3294
91	0	0	3132	1112	189	305	3295
92	0	0	1838	1114	187	307	3296
93	0	0	1005	1116	185	305	3297
94	0	0	519	1119	182	306	3298
95	0	0	243	1121	180	306	3297
96	0	0	88	1123	178	306	3296
97	0	0	3	1125	177	305	3295
98	0	0	0	1126	178	306	3294
99	0	0	0	1126	177	305	3294
100	0	0	658	1130	177	305	3296
101	0	0	1711	1131	179	306	3295
102	0	0	2595	1130	180	305	3296
103	0	0	3148	1128	181	305	3297
104	0	0	3478	1126	183	305	3297
105	0	0	3674	1124	186	305	3297
106	0	0	3783	1123	188	306	3297
107	0	0	3845	1120	190	304	3294
108	0	0	3876	1119	193	305	3294
109	0	0	3890	1118	192	305	3294
110	0	0	3896	1118	193	305	3294
111	0	0	3147	1112	189	306	3295
112	0	0	1837	1114	187	306	3296
113	0	0	1004	1116	185	306	3298
114	0	0	522	1118	182	306	3298
115	0	0	242	1121	179	306	3297
116	0	0	87	1123	178	306	3296
117	0	0	2	1125	177	305	3294
118	0	0	0	1126	178	305	3294
119	0	0	0	1126	177	304	3294
120	0	0	647	1130	177	305	3294
121	0	0	1695	1130	178	305	3295
122	0	0	2586	1130	179	305	3296
123	0	0	3147	1127	181	305	3297
124	0	0	3476	1125	184	306	3297
125	0	0	3671	1123	186	306	3297
126	0	0	3783	1122	189	305	3296
127	0	0	3844	1120	191	307	3294
0	0	0	3875	1118	194	305	3293
1	0	0	3889	1117	192	305	3294
2	0	0	3897	1118	192	305	3295
3	0	0	3149	1111	190	306	3295
4	0	0	1851	1113	187	306	3296
5	0	0	1005	1116	185	306	3297
6	0	0	522	1118	182	306	3297
7	0	0	244	1120	179	306	3297
8	0	0	88	1123	177	306	3297
9	0	0	2	1124	176	304	3295
10	0	0	0	1125	177	305	3294
11	0	0	0	1126	177	307	3294
12	0	0	632	1130	177	306	3296
13	0	0	1690	1129	178	305	3295
14	0	0	2582	1128	179	306	3296
15	0	0	3139	1127	181	305	3297
16	0	0	3475	1125	185	305	3298
17	0	0	3669	1123	187	305	3296
18	0	0	3779	1122	189	305	3296
19	0	0	3841	1119	191	305	3294
20	0	0	3874	1117	192	306	3294
21	0	0	3889	1117	192	306	3294
22	0	0	3895	1117	191	305	3294
23	0	0	3162	1109	189	306	3295
24	0	0	1850	1113	186	306	3296
25	0	0	1011	1116	185	306	3297
26	0	0	526	1117	183	306	3298
27	0	0	243	1119	179	305	3297
28	0	0	87	1122	177	306	3296
29	0	0	3	1123	178	305	3295
30	0	0	0	1126	176	305	3294
31	0	0	0	1125	177	307	3294
32	0	0	632	1129	178	306	3294
33	0	0	1679	1128	177	306	3295
34	0	0	2591	1128	178	305	3296
35	0	0	3140	1127	182	305	3297
36	0	0	3473	1125	185	306	3297
37	0	0	3666	1122	187	306	3297
38	0	0	3779	1121	188	306	3296
39	0	0	3842	1120	192	306	3295
40	0	0	3873	1117	193	305	3293
41	0	0	3890	1117	193	306	3294
42	0	0	3893	1117	192	305	3294
43	0	0	3158	1110	190	306	3295
44	0	0	1859	1112	188	306	3296
45	0	0	1016	1115	185	305	3297
46	0	0	524	1117	182	306	3297
47	0	0	244	1120	179	306	3297
48	0	0	88	1122	178	306	3296
49	0	0	1	1123	178	305	3294
50	0	0	0	1124	177	305	3294
51	0	0	0	1124	177	307	3294
52	0	0	623	1129	177	305	3294
53	0	0	1676	1129	178	305	3295
54	0	0	2570	1128	180	305	3296
55	0	0	3132	1127	181	305	3296
56	0	0	3466	1124	183	305	3297
57	0	0	3666	1122	186	306	3297
58	0	0	3779	1121	188	305	3296
59	0	0	3841	1119	191	306	3294
60	0	0	3872	1116	193	305	3294
61	0	0	3889	1117	193	305	3294
62	0	0	3893	1117	192	306	3294
63	0	0	3167	1110	189	306	3296
64	0	0	1857	1113	187	306	3296
65	0	0	1015	1114	184	306	3296
66	0	0	528	1117	182	306	3297
67	0	0	243	1119	179	305	3297
68	0	0	87	1121	177	305	3296
69	0	0	2	1123	176	305	3294
70	0	0	0	1124	178	305	3294
71	0	0	0	1125	177	307	3294
72	0	0	621	1129	177	305	3295
73	0	0	1661	1128	178	305	3295
74	0	0	2560	1127	180	305	3296
75	0	0	3132	1126	182	305	3296
76	0	0	3465	1124	183	306	3297
77	0	0	3665	1123	187	305	3297
78	0	0	3779	1120	189	305	3296
79	0	0	3839	1117	191	306	3295
80	0	0	3872	1116	193	306	3294
81	0	0	3886	1115	193	305	3294
82	0	0	3895	1117	193	306	3295
83	0	0	3170	1109	190	306	3295
84	0	0	1871	1111	187	306	3296
85	0	0	1014	1114	185	305	3297
86	0	0	528	1116	182	306	3297
87	0	0	245	1118	179	306	3297
88	0	0	88	1121	177	306	3297
89	0	0	1	1123	177	305	3294
90	0	0	0	1124	178	305	3294
91	0	0	0	1124	178	306	3294
92	0	0	604	1128	178	305	3294
93	0	0	1652	1127	178	305	3295
94	0	0	2553	1127	180	306	3296
95	0	0	3121	1126	182	306	3297
96	0	0	3462	1124	184	306	3297
97	0	0	3663	1122	186	306	3297
98	0	0	3775	1120	188	306	3296
99	0	0	3836	1117	192	305	3294
100	0	0	3871	1116	192	304	3293
101	0	0	3886	1116	192	306	3294
102	0	0	3892	1116	192	306	3294
103	0	0	3195	1108	189	305	3295
104	0	0	1881	1110	187	306	3296
105	0	0	1029	1113	184	305	3297
106	0	0	536	1116	182	306	3298
107	0	0	248	1118	180	305	3297
108	0	0	88	1121	178	305	3297
109	0	0	2	1122	177	306	3295
110	0	0	0	1124	177	306	3294
111	0	0	0	1124	177	307	3294
112	0	0	605	1127	177	305	3294
113	0	0	1638	1127	178	306	3296
114	0	0	2550	1127	180	305	3296
115	0	0	3118	1125	182	305	3296
116	0	0	3458	1123	185	306	3297
117	0	0	3660	1121	185	305	3296
118	0	0	3774	1120	188	305	3295
119	0	0	3837	1117	191	305	3295
120	0	0	3872	1116	193	305	3294
121	0	0	3886	1115	193	305	3294
122	0	0	3893	1116	192	306	3295
123	0	0	3180	1109	190	305	3295
124	0	0	1887	1111	187	306	3296
125	0	0	1025	1114	184	304	3297
126	0	0	532	1115	183	305	3297
127	0	0	248	1118	180	306	3297
0	0	0	89	1120	178	306	3296
1	0	0	1	1122	177	306	3295
2	0	0	0	1123	177	306	3294
3	0	0	0	1124	177	306	3295
4	0	0	607	1127	177	306	3294
5	0	0	1637	1127	178	305	3296
6	0	0	2538	1127	179	306	3296
7	0	0	3111	1125	181	306	3296
8	0	0	3456	1123	184	305	3297
9	0	0	3658	1121	186	305	3296
10	0	0	3773	1119	187	305	3296
11	0	0	3835	1117	191	305	3294
12	0	0	3870	1115	195	306	3293
13	0	0	3885	1115	194	305	3294
14	0	0	3891	1115	192	306	3294
15	0	0	3181	1108	190	306	3295
16	0	0	1886	1110	186	306	3296
17	0	0	1033	1112	185	306	3298
18	0	0	536	1115	183	305	3297
19	0	0	248	1117	180	306	3297
20	0	0	89	1120	177	306	3297
21	0	0	2	1122	176	305	3295
22	0	0	0	1122	176	305	3294
23	0	0	0	1123	178	306	3294
24	0	0	584	1126	177	305	3294
25	0	0	1618	1127	178	305	3295
26	0	0	2533	1126	179	305	3296
27	0	0	3109	1125	181	305	3297
28	0	0	3452	1122	184	305	3297
29	0	0	3657	1120	187	305	3296
30	0	0	3772	1119	187	305	3296
31	0	0	3836	1116	191	306	3294
32	0	0	3870	1115	192	306	3293
33	0	0	3887	1114	192	306	3295
34	0	0	3891	1114	192	306	3294
35	0	0	3201	1108	191	306	3295
36	0	0	1892	1110	187	306	3296
37	0	0	1035	1112	184	306	3297
38	0	0	538	1115	182	305	3297
39	0	0	251	1118	180	306	3298
40	0	0	89	1120	178	305	3296
41	0	0	2	1121	177	305	3295
42	0	0	0	1122	177	306	3294
43	0	0	0	1123	176	305	3294
44	0	0	586	1126	177	305	3294
45	0	0	1617	1125	177	306	3295
46	0	0	2523	1126	181	306	3296
47	0	0	3108	1124	181	306	3297
48	0	0	3453	1123	184	306	3298
49	0	0	3655	1121	186	306	3296
50	0	0	3771	1118	188	306	3297
51	0	0	3836	1116	191	306	3294
52	0	0	3868	1114	193	306	3293
53	0	0	3884	1114	192	306	3294
54	0	0	3891	1114	193	305	3294
55	0	0	3205	1107	190	306	3295
56	0	0	1907	1110	187	306	3296
57	0	0	1043	1112	184	306	3297
58	0	0	538	1114	183	306	3298
59	0	0	252	1117	180	305	3298
60	0	0	91	1119	177	306	3296
61	0	0	4	1121	178	306	3294
62	0	0	0	1122	177	306	3294
63	0	0	0	1122	176	306	3294
64	0	0	562	1126	177	306	3294
65	0	0	1609	1126	177	306	3295
66	0	0	2518	1126	179	305	3296
67	0	0	3100	1124	181	305	3297
68	0	0	3446	1122	184	305	3297
69	0	0	3653	1120	186	306	3296
70	0	0	3769	1118	188	306	3296
71	0	0	3833	1116	191	306	3295
72	0	0	3870	1114	194	306	3294
73	0	0	3884	1114	192	305	3294
74	0	0	3891	1114	192	305	3294
75	0	0	3208	1107	190	306	3295
76	0	0	1901	1109	187	306	3296
77	0	0	1039	1112	184	306	3296
78	0	0	541	1114	182	305	3298
79	0	0	253	1117	181	306	3297
80	0	0	89	1118	178	306	3296
81	0	0	2	1120	177	306	3295
82	0	0	0	1121	177	306	3294
83	0	0	0	1122	177	305	3294
84	0	0	561	1125	177	306	3294
85	0	0	1590	1125	178	305	3296
86	0	0	2504	1125	179	306	3297
87	0	0	3095	1123	182	306	3297
88	0	0	3445	1122	184	305	3298
89	0	0	3650	1120	186	305	3296
90	0	0	3768	1118	188	305	3297
91	0	0	3834	1116	191	306	3294
92	0	0	3868	1114	193	306	3294
93	0	0	3885	1113	192	305	3294
94	0	0	3891	1113	191	306	3294
95	0	0	3213	1107	190	306	3296
96	0	0	1916	1109	187	306	3296
97	0	0	1050	1111	185	306	3297
98	0	0	542	1114	182	305	3298
99	0	0	254	1116	179	306	3297
100	0	0	91	1120	178	306	3296
101	0	0	2	1120	177	305	3295
102	0	0	0	1121	177	305	3294
103	0	0	0	1121	176	305	3294
104	0	0	559	1125	178	305	3294
105	0	0	1598	1126	178	305	3295
106	0	0	2504	1125	179	306	3296
107	0	0	3092	1123	182	306	3297
108	0	0	3443	1122	184	306	3298
109	0	0	3650	1119	187	306	3296
110	0	0	3768	1118	189	306	3297
111	0	0	3835	1116	190	308	3294
112	0	0	3868	1114	193	306	3294
113	0	0	3885	1114	193	305	3294
114	0	0	3891	1113	192	306	3294
115	0	0	3217	1106	190	306	3295
116	0	0	1918	1109	187	306	3296
117	0	0	1050	1111	185	306	3298
118	0	0	546	1113	182	305	3297
119	0	0	256	1116	179	305	3297
120	0	0	91	1118	179	305	3296
121	0	0	3	1120	178	306	3295
122	0	0	0	1121	177	306	3294
123	0	0	0	1121	177	305	3294
124	0	0	544	1124	177	305	3294
125	0	0	1548	1126	178	305	3295
126	0	0	2458	1125	180	306	3296
127	0	0	3068	1124	181	306	3297
0	0	0	3430	1121	184	306	3297
1	0	0	3641	1119	186	306	3296
2	0	0	3764	1117	188	305	3297
3	0	0	3832	1116	191	307	3295
4	0	0	3866	1114	193	306	3294
5	0	0	3883	1114	191	305	3294
6	0	0	3891	1113	191	306	3294
7	0	0	3212	1108	189	306	3295
8	0	0	1937	1108	186	306	3296
9	0	0	1053	1111	185	305	3297
10	0	0	548	1113	182	305	3297
11	0	0	257	1116	180	305	3298
12	0	0	96	1118	178	305	3296
13	0	0	3	1119	177	306	3294
14	0	0	0	1121	177	306	3294
15	0	0	0	1122	177	306	3295
16	0	0	566	1124	177	305	3294
17	0	0	1546	1124	179	306	3295
18	0	0	2442	1124	179	305	3296
19	0	0	3052	1122	181	305	3297
20	0	0	3421	1121	183	306	3297
21	0	0	3639	1120	186	306	3297
22	0	0	3761	1118	189	305	3296
23	0	0	3830	1115	191	305	3294
24	0	0	3865	1114	191	306	3293
25	0	0	3883	1114	191	306	3294
26	0	0	3891	1114	191	306	3294
27	0	0	3205	1107	191	306	3295
28	0	0	1964	1109	187	306	3296
29	0	0	1076	1111	184	306	3297
30	0	0	562	1113	182	306	3298
31	0	0	263	1116	181	306	3297
32	0	0	97	1117	180	306	3296
33	0	0	6	1118	177	306	3295
34	0	0	0	1120	179	305	3294
35	0	0	0	1120	178	305	3294
36	0	0	489	1124	179	306	3296
37	0	0	1404	1125	181	305	3295
38	0	0	2276	1123	179	305	3296
39	0	0	2953	1122	182	307	3296
40	0	0	3360	1121	183	305	3297
41	0	0	3602	1119	185	305	3296
42	0	0	3743	1118	187	306	3296
43	0	0	3821	1117	187	306	3294
44	0	0	3862	1116	189	307	3294
45	0	0	3882	1115	189	305	3294
46	0	0	3890	1115	190	306	3294
47	0	0	3196	1108	189	306	3296
48	0	0	2069	1109	187	306	3296
49	0	0	1128	1110	185	306	3297
50	0	0	593	1112	184	306	3297
51	0	0	283	1114	183	306	3296
52	0	0	108	1116	182	306	3296
53	0	0	13	1115	180	306	3295
54	0	0	0	1118	181	306	3295
55	0	0	0	1117	181	305	3294
56	0	0	324	1122	180	305	3294
57	0	0	964	1121	181	305	3295
58	0	0	1595	1122	181	305	3296
59	0	0	2240	1121	182	306	3296
60	0	0	2890	1121	183	305	3297
61	0	0	3325	1121	184	306	3296
62	0	0	3582	1120	185	306	3297
63	0	0	3735	1118	187	305	3295
64	0	0	3816	1118	187	306	3294
65	0	0	3863	1117	187	306	3294
66	0	0	3884	1110	187	306	3294
67	0	0	3300	1110	187	306	3295
68	0	0	2544	1110	187	306	3296
69	0	0	1621	1111	185	304	3297
70	0	0	882	1112	183	305	3297
71	0	0	451	1113	183	306	3296
72	0	0	207	1115	181	306	3296
73	0	0	72	1115	181	306	3295
74	0	0	0	1117	181	305	3295
75	0	0	0	1118	179	305	3294
76	0	0	319	1122	180	306	3295
77	0	0	922	1122	180	305	3295
78	0	0	1536	1122	181	306	3296
79	0	0	2168	1122	182	307	3297
80	0	0	2816	1121	183	306	3298
81	0	0	3286	1120	185	306	3296
82	0	0	3562	1120	185	306	3296
83	0	0	3724	1118	187	305	3294
84	0	0	3814	1118	187	304	3294
85	0	0	3864	1117	187	306	3294
86	0	0	3888	1109	187	305	3294
87	0	0	3292	1110	188	306	3295
88	0	0	2551	1110	187	305	3296
89	0	0	1628	1110	185	305	3297
90	0	0	890	1112	183	306	3297
91	0	0	461	1113	183	306	3296
92	0	0	214	1114	182	306	3296
93	0	0	79	1115	181	305	3295
94	0	0	5	1117	181	306	3295
95	0	0	0	1117	180	305	3294
96	0	0	296	1123	181	306	3295
97	0	0	901	1122	180	306	3295
98	0	0	1511	1122	181	306	3296
99	0	0	2152	1122	183	307	3297
100	0	0	2797	1121	183	305	3297
101	0	0	3273	1120	184	305	3296
102	0	0	3558	1120	185	306	3297
103	0	0	3726	1118	186	305	3294
104	0	0	3820	1118	188	306	3295
105	0	0	3868	1117	187	305	3294
106	0	0	3894	1109	187	305	3294
107	0	0	3295	1110	186	306	3295
108	0	0	2558	1110	186	306	3296
109	0	0	1649	1111	185	306	3297
110	0	0	898	1111	183	305	3297
111	0	0	470	1113	182	305	3297
112	0	0	224	1115	181	306	3297
113	0	0	87	1116	181	306	3296
114	0	0	13	1117	181	307	3294
115	0	0	0	1118	180	306	3295
116	0	0	282	1122	181	305	3294
117	0	0	892	1122	180	306	3295
118	0	0	1500	1121	181	305	3296
119	0	0	2131	1122	182	306	3296
120	0	0	2785	1120	183	305	3297
121	0	0	3270	1120	184	305	3296
122	0	0	3559	1119	186	305	3296
123	0	0	3728	1118	187	306	3295
124	0	0	3824	1118	187	306	3295
125	0	0	3874	1117	188	306	3294
126	0	0	3902	1110	188	306	3294
127	0	0	3299	1110	187	306	3296
0	0	0	2554	1110	186	307	3296
1	0	0	1644	1111	184	306	3297
2	0	0	898	1112	183	306	3297
3	0	0	473	1113	183	306	3297
4	0	0	229	1114	182	306	3296
5	0	0	93	1115	182	305	3295
6	0	0	18	1117	181	306	3294
7	0	0	0	1117	180	305	3294
8	0	0	294	1122	181	306	3294
9	0	0	889	1122	180	305	3295
10	0	0	1498	1121	182	305	3296
11	0	0	2130	1122	182	306	3296
12	0	0	2781	1120	182	306	3297
13	0	0	3276	1120	183	306	3298
14	0	0	3565	1120	186	306	3296
15	0	0	3734	1117	186	305	3295
16	0	0	3830	1117	187	306	3295
17	0	0	3881	1116	186	305	3294
18	0	0	3908	1111	188	306	3295
19	0	0	3311	1110	188	306	3295
20	0	0	2569	1110	186	306	3296
21	0	0	1666	1111	185	306	3297
22	0	0	920	1112	184	306	3297
23	0	0	488	1113	183	306	3297
24	0	0	237	1115	182	306	3297
25	0	0	101	1115	182	305	3295
26	0	0	28	1117	181	306	3294
27	0	0	0	1117	181	305	3294
28	0	0	294	1121	180	306	3294
29	0	0	888	1121	181	306	3295
30	0	0	1493	1121	181	306	3296
31	0	0	2129	1122	182	305	3298
32	0	0	2765	1120	182	306	3297
33	0	0	3264	1120	185	306	3298
34	0	0	3561	1118	186	306	3296
35	0	0	3735	1118	187	306	3295
36	0	0	3833	1117	187	306	3294
37	0	0	3885	1117	188	306	3294
38	0	0	3913	1107	187	306	3294
39	0	0	3322	1110	187	306	3295
40	0	0	2586	1110	186	306	3296
41	0	0	1685	1111	185	306	3296
42	0	0	929	1112	184	306	3297
43	0	0	496	1113	183	305	3296
44	0	0	248	1114	182	306	3296
45	0	0	110	1115	182	306	3295
46	0	0	33	1117	180	306	3294
47	0	0	0	1118	180	306	3294
48	0	0	289	1121	181	305	3294
49	0	0	894	1122	181	306	3295
50	0	0	1505	1121	181	306	3296
51	0	0	2135	1121	183	306	3297
52	0	0	2777	1120	183	305	3297
53	0	0	3279	1120	184	306	3298
54	0	0	3572	1119	186	305	3296
55	0	0	3743	1118	186	305	3295
56	0	0	3841	1117	187	305	3294
57	0	0	3891	1116	187	306	3294
58	0	0	3919	1111	187	306	3295
59	0	0	3325	1111	187	305	3295
60	0	0	2580	1110	187	305	3296
61	0	0	1681	1111	185	306	3297
62	0	0	934	1112	184	306	3297
63	0	0	502	1113	184	306	3297
64	0	0	251	1114	182	306	3296
65	0	0	114	1116	181	306	3295
66	0	0	38	1117	181	306	3294
67	0	0	1	1118	180	305	3295
68	0	0	294	1122	179	306	3294
69	0	0	896	1123	181	305	3296
70	0	0	1500	1123	181	305	3296
71	0	0	2137	1122	182	306	3296
72	0	0	2786	1121	182	305	3297
73	0	0	3280	1121	184	305	3297
74	0	0	3574	1120	183	305	3297
75	0	0	3749	1118	185	305	3295
76	0	0	3845	1119	188	306	3294
77	0	0	3897	1118	188	306	3294
78	0	0	3924	1110	188	306	3294
79	0	0	3332	1110	187	306	3295
80	0	0	2603	1110	187	306	3296
81	0	0	1708	1111	185	306	3298
82	0	0	947	1112	184	306	3297
83	0	0	511	1114	183	306	3297
84	0	0	261	1115	181	305	3297
85	0	0	120	1117	182	306	3295
86	0	0	45	1118	181	306	3294
87	0	0	7	1118	180	306	3294
88	0	0	278	1123	180	305	3294
89	0	0	887	1123	181	305	3295
90	0	0	1497	1123	181	305	3296
91	0	0	2136	1122	182	306	3297
92	0	0	2786	1121	183	306	3297
93	0	0	3287	1121	184	306	3296
94	0	0	3580	1120	185	306	3296
95	0	0	3753	1119	185	306	3294
96	0	0	3851	1118	187	306	3294
97	0	0	3905	1118	188	306	3294
98	0	0	3930	1110	188	306	3294
99	0	0	3343	1110	186	306	3295
100	0	0	2600	1111	186	306	3296
101	0	0	1703	1112	184	306	3297
102	0	0	952	1113	184	306	3297
103	0	0	516	1114	183	306	3298
104	0	0	264	1115	182	306	3296
105	0	0	125	1117	182	305	3294
106	0	0	51	1118	180	305	3294
107	0	0	12	1118	181	305	3294
108	0	0	303	1123	180	305	3294
109	0	0	906	1123	181	306	3295
110	0	0	1509	1123	181	306	3296
111	0	0	2139	1123	182	306	3296
112	0	0	2785	1122	184	306	3297
113	0	0	3283	1121	184	305	3296
114	0	0	3579	1120	184	306	3296
115	0	0	3756	1119	187	306	3295
116	0	0	3855	1119	187	306	3294
117	0	0	3907	1118	188	306	3294
118	0	0	3935	1108	187	306	3294
119	0	0	3349	1111	187	306	3295
120	0	0	2622	1111	186	306	3296
121	0	0	1727	1112	184	306	3296
122	0	0	962	1113	184	306	3297
123	0	0	524	1115	183	305	3296
124	0	0	272	1115	183	305	3297
125	0	0	132	1117	181	306	3295
126	0	0	55	1118	181	306	3294
127	0	0	17	1118	181	306	3294
0	0	0	285	1123	180	306	3295
1	0	0	898	1124	180	306	3295
2	0	0	1507	1123	181	305	3296
3	0	0	2139	1122	182	305	3297
4	0	0	2785	1122	183	305	3297
5	0	0	3290	1122	184	306	3296
6	0	0	3586	1121	186	305	3296
7	0	0	3760	1119	187	305	3294
8	0	0	3858	1118	187	306	3294
9	0	0	3912	1118	188	306	3294
10	0	0	3939	1110	187	306	3294
11	0	0	3366	1111	187	305	3295
12	0	0	2633	1111	187	305	3296
13	0	0	1740	1111	185	306	3296
14	0	0	979	1113	184	305	3297
15	0	0	536	1115	184	306	3297
16	0	0	278	1115	181	305	3296
17	0	0	137	1116	181	306	3294
18	0	0	61	1117	180	306	3294
19	0	0	22	1119	180	306	3295
20	0	0	284	1123	181	305	3294
21	0	0	886	1123	180	306	3295
22	0	0	1498	1123	181	305	3296
23	0	0	2140	1123	182	306	3297
24	0	0	2788	1122	183	305	3297
25	0	0	3289	1121	185	305	3296
26	0	0	3589	1121	185	305	3296
27	0	0	3764	1119	186	305	3294
28	0	0	3863	1119	187	306	3294
29	0	0	3915	1118	188	306	3294
30	0	0	3944	1109	187	306	3294
31	0	0	3362	1111	187	306	3295
32	0	0	2632	1111	187	306	3296
33	0	0	1738	1111	185	306	3296
34	0	0	973	1113	184	306	3298
35	0	0	535	1114	183	306	3297
36	0	0	282	1115	183	306	3296
37	0	0	139	1117	182	306	3295
38	0	0	64	1118	181	306	3294
39	0	0	25	1118	180	305	3294
40	0	0	288	1124	183	306	3294
41	0	0	905	1123	181	305	3296
42	0	0	1518	1123	181	305	3296
43	0	0	2151	1122	182	305	3296
44	0	0	2797	1122	184	306	3297
45	0	0	3300	1121	184	305	3296
46	0	0	3598	1120	186	305	3296
47	0	0	3769	1120	187	306	3294
48	0	0	3868	1118	187	306	3294
49	0	0	3920	1117	187	306	3294
50	0	0	3948	1112	188	306	3294
51	0	0	3380	1111	186	305	3295
52	0	0	2648	1111	187	306	3296
53	0	0	1751	1112	184	307	3297
54	0	0	989	1112	184	306	3297
55	0	0	545	1114	182	306	3298
56	0	0	287	1116	183	306	3296
57	0	0	145	1116	181	306	3295
58	0	0	69	1117	181	306	3294
59	0	0	30	1118	181	305	3294
60	0	0	284	1123	181	305	3295
61	0	0	892	1123	181	305	3295
62	0	0	1505	1123	181	305	3296
63	0	0	2155	1123	182	306	3297
64	0	0	2804	1122	183	306	3297
65	0	0	3302	1121	183	306	3297
66	0	0	3603	1121	185	305	3296
67	0	0	3774	1119	185	305	3295
68	0	0	3872	1119	188	306	3294
69	0	0	3922	1117	188	305	3294
70	0	0	3953	1112	188	306	3295
71	0	0	3386	1111	187	305	3295
72	0	0	2659	1111	187	304	3296
73	0	0	1764	1111	185	306	3297
74	0	0	991	1113	184	306	3297
75	0	0	548	1114	184	306	3297
76	0	0	292	1115	182	306	3296
77	0	0	149	1116	181	306	3295
78	0	0	72	1117	180	306	3295
79	0	0	34	1118	180	306	3294
80	0	0	278	1123	180	305	3295
81	0	0	894	1122	181	306	3295
82	0	0	1514	1123	182	306	3296
83	0	0	2157	1122	182	306	3296
84	0	0	2816	1121	183	305	3298
85	0	0	3309	1120	184	306	3296
86	0	0	3605	1120	185	305	3297
87	0	0	3777	1119	186	306	3294
88	0	0	3875	1118	187	307	3294
89	0	0	3927	1117	188	306	3294
90	0	0	3954	1112	188	306	3294
91	0	0	3392	1111	187	306	3295
92	0	0	2651	1111	186	306	3296
93	0	0	1755	1111	184	306	3297
94	0	0	993	1112	184	306	3297
95	0	0	550	1114	183	305	3297
96	0	0	293	1114	182	306	3296
97	0	0	152	1116	181	306	3295
98	0	0	75	1118	181	306	3294
99	0	0	36	1118	180	306	3295
100	0	0	288	1122	180	305	3294
101	0	0	894	1122	181	306	3295
102	0	0	1507	1124	181	305	3296
103	0	0	2153	1122	182	305	3297
104	0	0	2803	1121	183	305	3297
105	0	0	3304	1120	185	305	3296
106	0	0	3602	1120	185	305	3296
107	0	0	3779	1119	186	306	3294
108	0	0	3878	1118	187	306	3294
109	0	0	3929	1117	188	305	3294
110	0	0	3958	1115	187	306	3295
111	0	0	3395	1111	187	306	3295
112	0	0	2672	1109	186	306	3296
113	0	0	1781	1110	185	306	3297
114	0	0	1004	1112	184	305	3297
115	0	0	558	1113	183	306	3297
116	0	0	301	1115	182	306	3296
117	0	0	156	1116	181	306	3295
118	0	0	79	1117	180	306	3294
119	0	0	40	1117	180	305	3294
120	0	0	283	1122	180	306	3294
121	0	0	897	1122	181	305	3295
122	0	0	1511	1122	181	305	3296
123	0	0	2150	1122	181	305	3297
124	0	0	2798	1121	183	305	3297
125	0	0	3307	1121	185	306	3297
126	0	0	3607	1120	186	306	3296
127	0	0	3780	1119	186	306	3294
0	0	0	3879	1118	187	306	3293
1	0	0	3932	1117	188	305	3294
2	0	0	3959	1115	188	305	3294
3	0	0	3403	1110	186	306	3295
4	0	0	2668	1111	185	307	3296
5	0	0	1771	1111	186	306	3297
6	0	0	1006	1113	185	306	3298
7	0	0	561	1113	183	305	3297
8	0	0	301	1115	181	304	3297
9	0	0	159	1117	182	306	3295
10	0	0	82	1118	180	306	3294
11	0	0	42	1118	180	305	3294
12	0	0	285	1122	181	305	3295
13	0	0	892	1123	180	306	3295
14	0	0	1511	1123	181	306	3296
15	0	0	2159	1122	182	306	3297
16	0	0	2812	1121	183	305	3297
17	0	0	3311	1120	184	306	3296
18	0	0	3612	1120	186	305	3296
19	0	0	3785	1118	187	306	3294
20	0	0	3883	1118	188	306	3294
21	0	0	3935	1118	187	305	3294
22	0	0	3963	1117	188	305	3294
23	0	0	3416	1110	187	305	3295
24	0	0	2688	1110	186	305	3296
25	0	0	1790	1111	186	305	3297
26	0	0	1012	1112	184	306	3298
27	0	0	566	1113	183	306	3297
28	0	0	307	1115	182	305	3297
29	0	0	162	1116	181	305	3295
30	0	0	84	1117	180	306	3295
31	0	0	45	1119	180	306	3295
32	0	0	282	1122	180	305	3294
33	0	0	897	1123	181	305	3296
34	0	0	1509	1123	181	306	3296
35	0	0	2151	1122	181	306	3296
36	0	0	2811	1121	183	305	3297
37	0	0	3313	1121	185	306	3297
38	0	0	3611	1120	185	305	3296
39	0	0	3786	1119	185	305	3294
40	0	0	3884	1117	188	306	3293
41	0	0	3937	1117	188	305	3294
42	0	0	3966	1117	188	306	3294
43	0	0	3417	1110	187	305	3295
44	0	0	2676	1111	186	306	3296
45	0	0	1780	1111	186	306	3297
46	0	0	1012	1112	183	305	3297
47	0	0	562	1113	183	306	3298
48	0	0	307	1115	183	305	3296
49	0	0	165	1116	180	305	3295
50	0	0	87	1117	181	305	3294
51	0	0	47	1118	181	306	3295
52	0	0	277	1122	180	306	3294
53	0	0	894	1122	181	305	3296
54	0	0	1514	1122	181	305	3296
55	0	0	2168	1121	182	306	3296
56	0	0	2822	1121	183	306	3297
57	0	0	3319	1121	184	306	3296
58	0	0	3618	1120	184	305	3297
59	0	0	3792	1119	186	305	3294
60	0	0	3887	1118	187	305	3294
61	0	0	3943	1118	187	306	3294
62	0	0	3968	1116	187	306	3294
63	0	0	3420	1110	187	306	3296
64	0	0	2698	1110	187	306	3296
65	0	0	1791	1111	186	306	3297
66	0	0	1022	1112	184	306	3298
67	0	0	574	1112	183	306	3296
68	0	0	314	1114	182	305	3296
69	0	0	167	1115	181	306	3295
70	0	0	90	1116	180	306	3294
71	0	0	51	1117	180	305	3294
72	0	0	274	1122	180	305	3294
73	0	0	889	1122	180	306	3295
74	0	0	1506	1122	181	305	3296
75	0	0	2149	1122	181	305	3296
76	0	0	2812	1121	183	305	3297
77	0	0	3315	1120	184	306	3296
78	0	0	3615	1118	185	306	3296
79	0	0	3790	1118	186	305	3294
80	0	0	3888	1118	187	306	3293
81	0	0	3942	1116	188	305	3294
82	0	0	3969	1117	188	306	3294
83	0	0	3436	1109	187	306	3295
84	0	0	2708	1110	185	306	3296
85	0	0	1814	1111	186	306	3297
86	0	0	1037	1112	185	305	3298
87	0	0	581	1113	183	305	3297
88	0	0	317	1114	182	305	3297
89	0	0	172	1116	181	306	3296
90	0	0	93	1116	180	306	3294
91	0	0	53	1117	180	305	3294
92	0	0	264	1123	180	306	3295
93	0	0	879	1122	180	306	3295
94	0	0	1509	1122	181	305	3296
95	0	0	2172	1121	183	306	3297
96	0	0	2827	1120	183	305	3297
97	0	0	3324	1120	184	306	3296
98	0	0	3624	1120	185	306	3297
99	0	0	3796	1118	187	306	3296
100	0	0	3893	1117	188	305	3294
101	0	0	3947	1117	187	306	3294
102	0	0	3972	1116	188	306	3294
103	0	0	3430	1110	187	305	3295
104	0	0	2710	1110	187	305	3296
105	0	0	1815	1110	186	305	3297
106	0	0	1032	1111	184	305	3297
107	0	0	579	1113	183	306	3298
108	0	0	319	1114	183	306	3296
109	0	0	173	1115	181	306	3295
110	0	0	95	1117	181	306	3295
111	0	0	55	1117	180	306	3294
112	0	0	248	1122	180	306	3294
113	0	0	876	1122	180	306	3295
114	0	0	1499	1122	181	306	3296
115	0	0	2149	1121	181	306	3297
116	0	0	2821	1120	183	305	3297
117	0	0	3321	1120	184	306	3297
118	0	0	3621	1119	185	306	3296
119	0	0	3795	1118	186	306	3294
120	0	0	3894	1117	187	306	3294
121	0	0	3948	1116	188	306	3294
122	0	0	3974	1116	187	305	3294
123	0	0	3471	1109	186	306	3296
124	0	0	2738	1110	187	306	3296
125	0	0	1835	1110	186	306	3297
126	0	0	1050	1111	185	305	3297
127	0	0	588	1113	183	306	3297
0	0	0	325	1114	181	306	3296
1	0	0	178	1116	182	306	3295
2	0	0	98	1117	181	305	3295
3	0	0	57	1117	180	306	3294
4	0	0	244	1122	181	306	3294
5	0	0	867	1121	180	306	3296
6	0	0	1499	1122	181	305	3296
7	0	0	2163	1121	182	306	3296
8	0	0	2829	1120	183	305	3297
9	0	0	3327	1119	185	305	3296
10	0	0	3627	1118	184	305	3297
11	0	0	3799	1118	186	305	3294
12	0	0	3896	1117	186	305	3293
13	0	0	3949	1116	187	305	3294
14	0	0	3975	1115	187	306	3294
15	0	0	3453	1110	187	306	3295
16	0	0	2721	1110	186	306	3296
17	0	0	1803	1111	186	306	3297
18	0	0	1031	1111	184	306	3297
19	0	0	580	1113	183	306	3297
20	0	0	321	1114	182	306	3297
21	0	0	176	1116	181	306	3295
22	0	0	98	1116	181	306	3294
23	0	0	58	1117	181	305	3294
24	0	0	244	1121	181	305	3294
25	0	0	871	1122	181	305	3295
26	0	0	1498	1122	181	306	3296
27	0	0	2150	1121	182	306	3297
28	0	0	2822	1120	183	305	3297
29	0	0	3324	1120	183	305	3296
30	0	0	3623	1119	185	306	3296
31	0	0	3798	1118	185	306	3294
32	0	0	3896	1117	188	306	3294
33	0	0	3951	1116	188	305	3294
34	0	0	3977	1116	188	305	3294
35	0	0	3468	1109	187	306	3296
36	0	0	2733	1109	186	306	3296
37	0	0	1825	1110	186	306	3297
38	0	0	1045	1111	185	306	3298
39	0	0	586	1113	184	305	3297
40	0	0	325	1113	181	306	3297
41	0	0	180	1115	181	306	3295
42	0	0	101	1116	180	306	3294
43	0	0	60	1117	180	305	3294
44	0	0	242	1121	180	305	3294
45	0	0	862	1122	180	306	3295
46	0	0	1497	1121	182	306	3296
47	0	0	2149	1121	182	306	3296
48	0	0	2815	1120	184	305	3297
49	0	0	3320	1119	184	305	3297
50	0	0	3623	1118	184	305	3297
51	0	0	3799	1117	186	306	3296
52	0	0	3896	1116	187	306	3294
53	0	0	3953	1116	188	306	3294
54	0	0	3978	1116	187	306	3294
55	0	0	3474	1109	187	306	3295
56	0	0	2742	1110	186	306	3296
57	0	0	1821	1110	186	305	3296
58	0	0	1044	1110	184	304	3297
59	0	0	590	1112	182	305	3297
60	0	0	328	1114	182	305	3296
61	0	0	180	1115	181	306	3295
62	0	0	102	1115	181	306	3294
63	0	0	62	1116	181	304	3294
64	0	0	243	1121	181	306	3294
65	0	0	866	1122	181	306	3295
66	0	0	1485	1121	181	306	3296
67	0	0	2136	1121	181	306	3297
68	0	0	2809	1119	183	305	3297
69	0	0	3317	1119	184	306	3298
70	0	0	3622	1119	186	306	3296
71	0	0	3797	1117	186	306	3295
72	0	0	3900	1116	187	306	3295
73	0	0	3952	1115	188	304	3294
74	0	0	3980	1115	188	306	3295
75	0	0	3490	1109	188	306	3295
76	0	0	2746	1109	187	307	3296
77	0	0	1839	1110	185	306	3297
78	0	0	1055	1111	184	306	3297
79	0	0	592	1112	182	306	3298
80	0	0	330	1113	182	305	3296
81	0	0	184	1114	181	306	3295
82	0	0	105	1115	181	306	3294
83	0	0	63	1116	181	305	3294
84	0	0	239	1121	180	306	3294
85	0	0	856	1121	181	305	3296
86	0	0	1483	1121	181	305	3296
87	0	0	2146	1120	182	306	3297
88	0	0	2815	1120	183	306	3298
89	0	0	3319	1119	184	305	3297
90	0	0	3625	1119	185	305	3296
91	0	0	3801	1118	186	305	3295
92	0	0	3900	1115	187	306	3294
93	0	0	3955	1116	188	306	3295
94	0	0	3982	1115	188	306	3294
95	0	0	3489	1108	187	306	3296
96	0	0	2751	1109	186	306	3296
97	0	0	1821	1109	185	306	3297
98	0	0	1045	1110	184	306	3298
99	0	0	591	1111	184	305	3297
100	0	0	331	1113	183	305	3296
101	0	0	183	1114	181	306	3295
102	0	0	105	1115	180	305	3294
103	0	0	65	1116	180	305	3294
104	0	0	221	1121	181	305	3294
105	0	0	848	1120	181	305	3295
106	0	0	1489	1121	181	306	3296
107	0	0	2156	1120	182	305	3298
108	0	0	2836	1119	182	305	3297
109	0	0	3335	1118	184	305	3298
110	0	0	3632	1118	185	306	3296
111	0	0	3806	1117	186	306	3295
112	0	0	3903	1116	187	306	3293
113	0	0	3956	1115	188	305	3294
114	0	0	3984	1114	188	306	3294
115	0	0	3486	1108	187	306	3296
116	0	0	2762	1108	186	306	3296
117	0	0	1856	1109	185	306	3298
118	0	0	1066	1110	184	306	3297
119	0	0	599	1111	183	306	3297
120	0	0	337	1112	182	305	3296
121	0	0	188	1115	181	305	3295
122	0	0	108	1116	180	305	3294
123	0	0	67	1116	180	305	3294
124	0	0	210	1120	180	305	3294
125	0	0	838	1121	180	306	3296
126	0	0	1482	1121	181	305	3297
127	0	0	2147	1119	182	306	3296
0	0	0	2823	1120	183	306	3298
1	0	0	3328	1117	184	306	3296
2	0	0	3630	1117	185	306	3297
3	0	0	3806	1117	186	306	3296
4	0	0	3903	1116	187	306	3294
5	0	0	3959	1116	188	306	3295
6	0	0	3985	1115	189	305	3294
7	0	0	3511	1108	187	306	3296
8	0	0	2784	1109	186	306	3297
9	0	0	1865	1108	185	306	3296
10	0	0	1073	1110	184	306	3297
11	0	0	609	1111	184	305	3297
12	0	0	341	1111	182	305	3297
13	0	0	191	1113	182	306	3295
14	0	0	110	1115	180	306	3294
15	0	0	68	1115	181	306	3294
16	0	0	217	1120	181	306	3294
17	0	0	845	1120	181	305	3295
18	0	0	1491	1120	181	305	3296
19	0	0	2163	1120	182	306	3298
20	0	0	2841	1119	183	306	3297
21	0	0	3340	1118	185	306	3298
22	0	0	3637	1117	184	306	3296
23	0	0	3808	1117	185	306	3295
24	0	0	3906	1115	187	306	3294
25	0	0	3959	1114	187	306	3294
26	0	0	3985	1114	188	306	3294
27	0	0	3494	1108	187	306	3296
28	0	0	2767	1107	186	306	3297
29	0	0	1852	1109	186	306	3297
30	0	0	1065	1109	184	306	3297
31	0	0	601	1111	184	306	3298
32	0	0	337	1113	182	306	3296
33	0	0	189	1113	180	306	3295
34	0	0	109	1115	180	306	3294
35	0	0	68	1116	181	305	3294
36	0	0	208	1120	180	306	3294
37	0	0	835	1119	180	305	3296
38	0	0	1492	1120	181	306	3296
39	0	0	2163	1120	182	306	3297
40	0	0	2840	1119	183	306	3297
41	0	0	3337	1118	183	305	3297
42	0	0	3638	1117	185	306	3296
43	0	0	3811	1116	185	306	3295
44	0	0	3909	1115	188	306	3295
45	0	0	3960	1115	188	306	3294
46	0	0	3988	1114	187	305	3295
47	0	0	3521	1107	188	306	3295
48	0	0	2784	1108	185	306	3296
49	0	0	1857	1108	186	306	3297
50	0	0	1068	1110	185	305	3297
51	0	0	602	1110	183	306	3297
52	0	0	338	1112	183	306	3297
53	0	0	190	1113	182	306	3296
54	0	0	111	1114	180	305	3295
55	0	0	69	1115	180	305	3294
56	0	0	192	1119	180	306	3294
57	0	0	824	1120	181	305	3295
58	0	0	1481	1119	181	305	3296
59	0	0	2159	1120	183	306	3298
60	0	0	2838	1119	183	305	3297
61	0	0	3338	1118	184	305	3298
62	0	0	3639	1117	185	307	3296
63	0	0	3811	1116	187	305	3295
64	0	0	3907	1115	187	306	3294
65	0	0	3963	1115	187	306	3295
66	0	0	3989	1114	188	305	3294
67	0	0	3520	1106	187	306	3296
68	0	0	2776	1108	187	306	3297
69	0	0	1834	1108	185	306	3297
70	0	0	1053	1109	185	305	3298
71	0	0	598	1110	183	306	3297
72	0	0	336	1113	183	306	3297
73	0	0	189	1113	179	306	3295
74	0	0	111	1114	181	306	3294
75	0	0	70	1115	180	305	3294
76	0	0	180	1119	180	305	3294
77	0	0	823	1120	180	306	3295
78	0	0	1479	1119	179	306	3296
79	0	0	2173	1118	181	305	3297
80	0	0	2874	1118	183	306	3297
81	0	0	3360	1117	184	306	3297
82	0	0	3649	1117	185	306	3296
83	0	0	3820	1116	186	306	3295
84	0	0	3915	1115	187	306	3295
85	0	0	3963	1114	188	306	3294
86	0	0	3991	1114	188	305	3296
87	0	0	3523	1107	186	307	3295
88	0	0	2760	1108	186	305	3296
89	0	0	1814	1107	185	306	3297
90	0	0	1041	1110	185	306	3298
91	0	0	588	1110	182	306	3297
92	0	0	330	1112	183	306	3297
93	0	0	187	1113	181	306	3296
94	0	0	109	1114	181	306	3295
95	0	0	70	1115	181	306	3295
96	0	0	176	1119	180	306	3294
97	0	0	831	1120	181	306	3296
98	0	0	1504	1120	181	306	3297
99	0	0	2196	1118	182	306	3297
100	0	0	2883	1118	183	306	3297
101	0	0	3371	1117	184	305	3297
102	0	0	3655	1117	186	306	3296
103	0	0	3822	1115	185	306	3295
104	0	0	3917	1114	187	305	3295
105	0	0	3965	1114	188	306	3294
106	0	0	3991	1113	188	305	3294
107	0	0	3536	1107	188	305	3295
108	0	0	2774	1107	186	305	3296
109	0	0	1817	1107	186	306	3297
110	0	0	1042	1109	184	306	3298
111	0	0	594	1109	183	306	3297
112	0	0	332	1112	182	306	3297
113	0	0	188	1113	181	306	3295
114	0	0	110	1114	180	305	3295
115	0	0	70	1115	180	306	3294
116	0	0	179	1119	180	306	3296
117	0	0	835	1120	182	306	3295
118	0	0	1495	1119	181	305	3296
119	0	0	2188	1117	182	305	3297
120	0	0	2887	1118	183	306	3297
121	0	0	3367	1116	183	306	3297
122	0	0	3655	1116	185	306	3296
123	0	0	3823	1115	187	305	3295
124	0	0	3915	1113	188	306	3294
125	0	0	3966	1113	187	305	3294
126	0	0	3992	1113	188	306	3294
127	0	0	3529	1106	188	306	3295
0	0	0	2776	1107	187	305	3296
1	0	0	1834	1107	185	306	3297
2	0	0	1046	1108	184	305	3298
3	0	0	595	1110	183	306	3297
4	0	0	336	1111	183	305	3297
5	0	0	191	1113	181	305	3296
6	0	0	112	1114	181	305	3295
7	0	0	72	1114	180	305	3295
8	0	0	142	1118	181	305	3295
9	0	0	797	1119	181	305	3295
10	0	0	1475	1119	180	305	3296
11	0	0	2179	1119	181	306	3298
12	0	0	2876	1117	182	306	3297
13	0	0	3367	1117	184	305	3298
14	0	0	3654	1116	184	306	3296
15	0	0	3821	1115	187	305	3295
16	0	0	3916	1114	187	306	3295
17	0	0	3966	1113	187	306	3294
18	0	0	3993	1113	188	306	3295
19	0	0	3547	1106	189	306	3295
20	0	0	2771	1106	186	306	3296
21	0	0	1820	1107	185	306	3298
22	0	0	1044	1108	184	306	3297
23	0	0	594	1110	183	306	3298
24	0	0	334	1111	184	305	3297
25	0	0	190	1112	181	306	3296
26	0	0	112	1114	181	305	3295
27	0	0	72	1114	181	305	3294
28	0	0	144	1119	180	305	3295
29	0	0	803	1118	181	306	3295
30	0	0	1489	1118	181	305	3296
31	0	0	2206	1117	181	305	3297
32	0	0	2899	1117	183	305	3297
33	0	0	3375	1116	184	306	3297
34	0	0	3659	1116	185	306	3297
35	0	0	3827	1115	186	305	3296
36	0	0	3917	1113	187	306	3294
37	0	0	3968	1113	188	306	3295
38	0	0	3994	1113	187	305	3294
39	0	0	3543	1106	188	305	3296
40	0	0	2793	1107	186	306	3297
41	0	0	1852	1106	185	306	3297
42	0	0	1058	1108	184	306	3298
43	0	0	601	1110	183	306	3297
44	0	0	340	1110	183	305	3297
45	0	0	192	1112	181	305	3296
46	0	0	113	1112	180	306	3295
47	0	0	73	1113	180	306	3294
48	0	0	132	1119	180	305	3295
49	0	0	798	1118	180	305	3295
50	0	0	1476	1118	181	305	3296
51	0	0	2182	1118	181	305	3297
52	0	0	2881	1117	183	306	3298
53	0	0	3370	1116	184	305	3297
54	0	0	3657	1116	185	306	3296
55	0	0	3824	1115	187	306	3295
56	0	0	3916	1113	187	305	3294
57	0	0	3968	1113	187	305	3294
58	0	0	3994	1113	188	306	3296
59	0	0	3558	1106	187	306	3295
60	0	0	2782	1106	187	306	3296
61	0	0	1834	1106	185	306	3298
62	0	0	1052	1107	184	305	3298
63	0	0	599	1109	184	306	3298
64	0	0	336	1110	183	305	3297
65	0	0	191	1112	181	306	3296
66	0	0	114	1113	180	306	3295
67	0	0	73	1113	181	305	3294
68	0	0	143	1118	181	305	3295
69	0	0	800	1118	180	305	3295
70	0	0	1480	1118	181	306	3296
71	0	0	2196	1116	182	306	3297
72	0	0	2894	1117	183	306	3298
73	0	0	3372	1116	184	306	3297
74	0	0	3661	1115	185	306	3297
75	0	0	3827	1114	187	306	3296
76	0	0	3920	1113	187	306	3295
77	0	0	3968	1113	187	306	3294
78	0	0	3995	1112	189	306	3296
79	0	0	3554	1106	188	305	3295
80	0	0	2795	1106	187	306	3296
81	0	0	1844	1105	184	306	3298
82	0	0	1052	1107	184	305	3298
83	0	0	599	1108	183	306	3297
84	0	0	339	1110	182	305	3298
85	0	0	192	1112	181	306	3296
86	0	0	114	1112	180	305	3295
87	0	0	74	1113	180	305	3294
88	0	0	128	1118	180	306	3295
89	0	0	800	1118	180	305	3296
90	0	0	1487	1118	181	306	3296
91	0	0	2198	1117	181	306	3298
92	0	0	2900	1116	183	305	3298
93	0	0	3377	1115	184	305	3297
94	0	0	3660	1115	186	306	3297
95	0	0	3826	1114	187	306	3296
96	0	0	3921	1113	187	306	3295
97	0	0	3969	1111	187	306	3294
98	0	0	3996	1112	187	306	3296
99	0	0	3569	1106	188	306	3295
100	0	0	2799	1106	187	306	3296
101	0	0	1848	1105	185	306	3297
102	0	0	1062	1107	185	306	3298
103	0	0	601	1109	184	305	3297
104	0	0	340	1110	182	306	3297
105	0	0	194	1111	182	306	3296
106	0	0	115	1112	180	306	3295
107	0	0	74	1112	180	306	3295
108	0	0	127	1118	180	306	3295
109	0	0	790	1117	180	306	3295
110	0	0	1470	1117	181	305	3296
111	0	0	2188	1117	182	306	3298
112	0	0	2886	1116	182	306	3297
113	0	0	3368	1115	185	306	3297
114	0	0	3658	1115	185	305	3296
115	0	0	3825	1113	186	306	3296
116	0	0	3919	1113	188	306	3296
117	0	0	3969	1112	188	305	3294
118	0	0	3996	1112	188	306	3296
119	0	0	3567	1105	189	306	3295
120	0	0	2800	1105	187	306	3297
121	0	0	1840	1106	186	305	3298
122	0	0	1057	1107	184	306	3298
123	0	0	603	1108	184	306	3297
124	0	0	341	1110	182	305	3297
125	0	0	194	1111	181	306	3296
126	0	0	115	1112	180	305	3295
127	0	0	75	1113	180	305	3294
0	0	0	122	1118	180	305	3295
1	0	0	794	1118	180	305	3296
2	0	0	1471	1117	181	306	3296
3	0	0	2173	1116	182	306	3297
4	0	0	2882	1116	183	305	3297
5	0	0	3366	1115	184	305	3297
6	0	0	3655	1114	184	305	3298
7	0	0	3824	1113	187	306	3296
8	0	0	3917	1112	187	306	3295
9	0	0	3971	1112	187	306	3295
10	0	0	3994	1111	188	306	3295
11	0	0	3567	1105	187	306	3296
12	0	0	2811	1106	187	306	3297
13	0	0	1863	1104	185	306	3297
14	0	0	1072	1107	184	306	3299
15	0	0	607	1108	184	306	3297
16	0	0	343	1109	183	305	3298
17	0	0	196	1111	182	306	3297
18	0	0	117	1112	181	306	3295
19	0	0	75	1113	180	306	3296
20	0	0	115	1117	181	305	3295
21	0	0	776	1117	180	306	3296
22	0	0	1472	1117	182	306	3296
23	0	0	2187	1115	182	306	3297
24	0	0	2890	1116	184	305	3297
25	0	0	3371	1115	185	306	3297
26	0	0	3660	1115	185	306	3296
27	0	0	3826	1113	188	306	3295
28	0	0	3919	1112	188	306	3295
29	0	0	3971	1112	188	305	3294
30	0	0	3996	1111	188	306	3294
31	0	0	3580	1105	189	306	3295
32	0	0	2811	1105	187	306	3296
33	0	0	1840	1106	185	306	3298
34	0	0	1057	1106	184	305	3297
35	0	0	603	1108	183	306	3299
36	0	0	342	1110	184	305	3297
37	0	0	194	1110	182	306	3296
38	0	0	116	1112	181	306	3295
39	0	0	75	1112	180	306	3294
40	0	0	120	1117	180	306	3295
41	0	0	775	1117	181	305	3296
42	0	0	1467	1117	183	306	3296
43	0	0	2190	1116	181	305	3297
44	0	0	2898	1115	183	305	3297
45	0	0	3376	1115	183	306	3297
46	0	0	3661	1114	185	306	3297
47	0	0	3827	1113	185	305	3296
48	0	0	3920	1112	187	306	3295
49	0	0	3971	1111	188	306	3294
50	0	0	3996	1111	188	306	3296
51	0	0	3576	1105	187	305	3296
52	0	0	2824	1105	188	306	3297
53	0	0	1876	1106	186	305	3298
54	0	0	1078	1106	184	306	3297
55	0	0	611	1107	183	306	3297
56	0	0	346	1109	183	305	3297
57	0	0	198	1111	181	306	3296
58	0	0	117	1111	181	305	3295
59	0	0	76	1113	180	305	3295
60	0	0	100	1117	180	306	3295
61	0	0	762	1117	180	305	3296
62	0	0	1455	1117	182	305	3297
63	0	0	2169	1116	181	305	3297
64	0	0	2876	1117	183	305	3298
65	0	0	3362	1114	184	305	3297
66	0	0	3656	1114	185	305	3297
67	0	0	3824	1114	187	305	3295
68	0	0	3918	1111	187	306	3295
69	0	0	3970	1111	188	306	3294
70	0	0	3996	1112	187	306	3294
71	0	0	3588	1104	188	305	3295
72	0	0	2829	1104	186	306	3296
73	0	0	1865	1105	185	306	3297
74	0	0	1073	1106	184	306	3297
75	0	0	612	1108	183	306	3297
76	0	0	345	1109	183	305	3297
77	0	0	197	1110	179	305	3296
78	0	0	117	1111	180	306	3294
79	0	0	77	1112	180	306	3294
80	0	0	104	1116	179	305	3295
81	0	0	761	1116	181	305	3296
82	0	0	1456	1117	181	305	3296
83	0	0	2177	1116	181	305	3297
84	0	0	2889	1116	183	306	3298
85	0	0	3372	1115	184	306	3298
86	0	0	3656	1114	185	306	3297
87	0	0	3827	1113	186	306	3296
88	0	0	3921	1112	187	306	3295
89	0	0	3971	1111	187	306	3294
90	0	0	3998	1111	189	306	3296
91	0	0	3597	1105	189	306	3296
92	0	0	2846	1105	187	305	3296
93	0	0	1889	1105	185	306	3297
94	0	0	1086	1106	183	306	3297
95	0	0	616	1108	183	306	3297
96	0	0	349	1108	183	306	3297
97	0	0	200	1110	182	305	3296
98	0	0	118	1112	180	306	3296
99	0	0	77	1112	180	305	3295
100	0	0	98	1116	180	305	3295
101	0	0	754	1117	182	304	3296
102	0	0	1448	1117	181	306	3297
103	0	0	2158	1116	182	306	3297
104	0	0	2864	1115	184	306	3298
105	0	0	3360	1114	183	305	3297
106	0	0	3652	1114	185	306	3297
107	0	0	3823	1113	187	306	3296
108	0	0	3916	1112	188	306	3295
109	0	0	3972	1112	188	306	3295
110	0	0	3995	1111	188	306	3295
111	0	0	3604	1104	188	306	3296
112	0	0	2841	1104	187	305	3296
113	0	0	1875	1105	186	305	3297
114	0	0	1078	1107	184	306	3298
115	0	0	616	1107	184	306	3297
116	0	0	347	1108	181	306	3297
117	0	0	199	1110	181	305	3296
118	0	0	119	1111	181	305	3296
119	0	0	77	1112	179	306	3294
120	0	0	97	1117	181	305	3295
121	0	0	753	1117	181	306	3296
122	0	0	1442	1116	181	306	3297
123	0	0	2170	1116	182	306	3297
124	0	0	2883	1116	183	305	3297
125	0	0	3366	1114	184	306	3297
126	0	0	3656	1114	185	306	3296
127	0	0	3826	1114	187	305	3295
0	0	0	3919	1111	188	306	3295
1	0	0	3971	1111	188	305	3294
2	0	0	3996	1111	187	306	3295
3	0	0	3597	1103	187	306	3295
4	0	0	2835	1104	188	306	3297
5	0	0	1885	1104	185	306	3298
6	0	0	1078	1106	185	306	3298
7	0	0	615	1107	184	306	3299
8	0	0	349	1109	182	306	3297
9	0	0	200	1110	182	305	3296
10	0	0	119	1111	181	306	3296
11	0	0	78	1112	179	306	3295
12	0	0	93	1117	180	306	3296
13	0	0	756	1117	181	306	3296
14	0	0	1443	1117	181	305	3297
15	0	0	2154	1116	182	306	3298
16	0	0	2861	1115	183	306	3297
17	0	0	3359	1115	184	306	3297
18	0	0	3652	1114	185	305	3297
19	0	0	3822	1113	186	305	3296
20	0	0	3917	1112	187	306	3295
21	0	0	3972	1111	189	306	3296
22	0	0	3997	1111	187	306	3295
23	0	0	3614	1104	188	306	3296
24	0	0	2844	1104	187	305	3296
25	0	0	1893	1105	185	306	3298
26	0	0	1090	1106	185	306	3297
27	0	0	623	1107	184	305	3297
28	0	0	351	1108	183	306	3297
29	0	0	202	1110	181	305	3296
30	0	0	121	1111	180	305	3296
31	0	0	78	1112	180	305	3294
32	0	0	93	1116	181	305	3296
33	0	0	751	1117	182	306	3296
34	0	0	1435	1116	181	306	3296
35	0	0	2153	1115	182	305	3298
36	0	0	2861	1116	183	305	3299
37	0	0	3353	1114	184	305	3297
38	0	0	3647	1113	185	305	3297
39	0	0	3824	1113	187	306	3297
40	0	0	3918	1111	187	306	3295
41	0	0	3970	1111	188	306	3294
42	0	0	3997	1110	188	306	3295
43	0	0	3614	1103	187	306	3296
44	0	0	2849	1104	187	306	3296
45	0	0	1898	1104	186	306	3297
46	0	0	1086	1105	185	305	3297
47	0	0	620	1107	183	306	3298
48	0	0	352	1108	182	306	3297
49	0	0	202	1110	182	305	3296
50	0	0	120	1111	180	306	3296
51	0	0	78	1112	180	306	3294
52	0	0	84	1116	181	306	3295
53	0	0	742	1116	180	305	3296
54	0	0	1433	1116	181	305	3297
55	0	0	2151	1116	182	306	3298
56	0	0	2863	1115	183	306	3298
57	0	0	3361	1115	184	305	3297
58	0	0	3651	1113	185	306	3297
59	0	0	3824	1113	186	306	3297
60	0	0	3919	1111	187	306	3295
61	0	0	3971	1110	187	306	3294
62	0	0	3997	1111	188	306	3295
63	0	0	3626	1104	187	306	3296
64	0	0	2867	1104	187	305	3296
65	0	0	1925	1104	186	306	3297
66	0	0	1110	1105	185	306	3298
67	0	0	635	1106	182	306	3299
68	0	0	358	1108	183	305	3297
69	0	0	205	1109	181	306	3296
70	0	0	123	1111	181	306	3295
71	0	0	80	1111	180	306	3295
72	0	0	82	1116	179	305	3296
73	0	0	730	1116	181	305	3296
74	0	0	1425	1116	180	305	3296
75	0	0	2159	1115	181	306	3298
76	0	0	2871	1114	183	306	3298
77	0	0	3361	1114	184	306	3299
78	0	0	3654	1114	185	307	3297
79	0	0	3825	1112	186	306	3296
80	0	0	3918	1111	188	306	3295
81	0	0	3970	1110	188	306	3295
82	0	0	3998	1110	187	306	3295
83	0	0	3621	1103	187	306	3296
84	0	0	2864	1103	187	305	3297
85	0	0	1908	1104	185	305	3298
86	0	0	1091	1105	185	306	3299
87	0	0	624	1106	183	306	3298
88	0	0	354	1108	182	306	3297
89	0	0	202	1109	182	305	3296
90	0	0	122	1110	181	305	3295
91	0	0	80	1111	180	306	3295
92	0	0	82	1116	180	306	3296
93	0	0	737	1116	181	306	3296
94	0	0	1430	1115	181	305	3296
95	0	0	2153	1115	181	305	3297
96	0	0	2863	1114	182	306	3297
97	0	0	3361	1113	184	306	3297
98	0	0	3654	1113	184	306	3297
99	0	0	3823	1112	186	305	3296
100	0	0	3921	1111	187	305	3295
101	0	0	3971	1110	187	305	3294
102	0	0	3998	1109	189	305	3295
103	0	0	3628	1103	188	306	3296
104	0	0	2869	1103	187	306	3297
105	0	0	1925	1103	186	306	3298
106	0	0	1110	1105	184	306	3299
107	0	0	632	1106	182	305	3297
108	0	0	358	1107	183	306	3297
109	0	0	206	1109	181	305	3296
110	0	0	123	1110	179	306	3295
111	0	0	80	1111	180	305	3295
112	0	0	79	1116	180	305	3295
113	0	0	722	1116	180	306	3296
114	0	0	1413	1116	180	304	3296
115	0	0	2148	1116	182	306	3298
116	0	0	2858	1114	184	306	3297
117	0	0	3353	1113	184	306	3298
118	0	0	3652	1113	186	305	3297
119	0	0	3823	1112	186	305	3296
120	0	0	3918	1111	187	306	3295
121	0	0	3971	1110	188	306	3294
122	0	0	3999	1109	187	306	3295
123	0	0	3635	1103	188	306	3296
124	0	0	2878	1103	187	304	3296
125	0	0	1928	1103	185	306	3297
126	0	0	1103	1104	184	306	3298
127	0	0	631	1105	183	306	3297
0	0	0	358	1108	182	305	3297
1	0	0	206	1108	182	305	3296
2	0	0	122	1111	180	306	3296
3	0	0	80	1111	181	306	3294
4	0	0	85	1115	180	305	3295
5	0	0	740	1115	180	305	3296
6	0	0	1429	1115	181	305	3297
7	0	0	2145	1114	181	306	3298
8	0	0	2854	1113	183	306	3297
9	0	0	3356	1112	183	306	3297
10	0	0	3650	1112	185	306	3297
11	0	0	3822	1112	186	306	3296
12	0	0	3918	1110	186	305	3295
13	0	0	3972	1109	187	306	3295
14	0	0	3997	1109	188	306	3294
15	0	0	3638	1103	188	306	3296
16	0	0	2876	1103	188	305	3297
17	0	0	1924	1103	185	305	3297
18	0	0	1109	1104	184	305	3297
19	0	0	634	1106	184	306	3297
20	0	0	357	1107	182	306	3297
21	0	0	205	1108	182	306	3296
22	0	0	123	1110	181	306	3295
23	0	0	81	1110	180	306	3294
24	0	0	77	1115	180	305	3295
25	0	0	722	1115	180	306	3296
26	0	0	1408	1115	181	306	3296
27	0	0	2136	1114	181	305	3298
28	0	0	2847	1113	183	306	3297
29	0	0	3347	1113	183	306	3298
30	0	0	3646	1113	185	307	3297
31	0	0	3820	1111	188	306	3296
32	0	0	3917	1109	189	306	3295
33	0	0	3971	1109	188	306	3295
34	0	0	3998	1109	188	305	3294
35	0	0	3643	1102	187	306	3296
36	0	0	2892	1102	187	306	3297
37	0	0	1940	1103	186	306	3297
38	0	0	1111	1104	184	306	3299
39	0	0	636	1105	182	306	3297
40	0	0	361	1107	182	306	3298
41	0	0	206	1108	182	306	3297
42	0	0	124	1109	180	306	3295
43	0	0	81	1110	180	306	3296
44	0	0	61	1115	180	306	3295
45	0	0	711	1114	180	306	3296
46	0	0	1402	1115	181	305	3297
47	0	0	2120	1114	181	305	3297
48	0	0	2838	1114	183	305	3298
49	0	0	3345	1112	183	306	3297
50	0	0	3644	1112	186	306	3297
51	0	0	3818	1111	186	306	3296
52	0	0	3916	1109	188	305	3295
53	0	0	3969	1109	188	305	3294
54	0	0	3997	1109	187	306	3296
55	0	0	3651	1102	187	305	3295
56	0	0	2885	1102	186	306	3296
57	0	0	1938	1103	187	306	3298
58	0	0	1118	1104	185	306	3297
59	0	0	635	1105	184	306	3297
60	0	0	360	1106	183	305	3297
61	0	0	207	1108	181	306	3296
62	0	0	124	1109	181	306	3295
63	0	0	81	1110	181	305	3296
64	0	0	62	1115	180	305	3295
65	0	0	710	1114	180	305	3296
66	0	0	1401	1115	181	306	3297
67	0	0	2131	1114	182	306	3297
68	0	0	2844	1113	182	305	3297
69	0	0	3345	1113	183	306	3298
70	0	0	3648	1112	185	306	3297
71	0	0	3820	1110	186	306	3296
72	0	0	3918	1109	188	305	3295
73	0	0	3969	1108	188	305	3294
74	0	0	3998	1108	188	306	3294
75	0	0	3661	1102	187	306	3296
76	0	0	2911	1102	186	306	3296
77	0	0	1954	1103	187	306	3297
78	0	0	1127	1104	184	306	3297
79	0	0	644	1105	183	306	3297
80	0	0	367	1106	183	306	3297
81	0	0	209	1108	183	306	3296
82	0	0	125	1109	181	305	3295
83	0	0	82	1110	180	306	3296
84	0	0	61	1114	181	305	3295
85	0	0	691	1114	180	306	3296
86	0	0	1390	1114	181	306	3297
87	0	0	2119	1114	181	306	3297
88	0	0	2842	1113	182	305	3297
89	0	0	3343	1111	183	306	3297
90	0	0	3643	1111	186	305	3297
91	0	0	3818	1111	186	306	3296
92	0	0	3919	1110	188	306	3296
93	0	0	3970	1109	188	306	3294
94	0	0	3998	1107	188	306	3296
95	0	0	3654	1102	188	306	3295
96	0	0	2892	1102	187	306	3296
97	0	0	1944	1102	185	305	3298
98	0	0	1121	1103	184	306	3297
99	0	0	638	1104	184	306	3298
100	0	0	364	1106	183	306	3297
101	0	0	208	1108	181	305	3296
102	0	0	125	1109	180	305	3295
103	0	0	81	1110	180	306	3294
104	0	0	61	1114	180	306	3295
105	0	0	703	1114	182	305	3296
106	0	0	1397	1114	182	305	3296
107	0	0	2132	1113	181	306	3297
108	0	0	2848	1113	183	306	3298
109	0	0	3347	1112	183	306	3297
110	0	0	3645	1111	185	306	3297
111	0	0	3822	1110	186	306	3297
112	0	0	3917	1109	186	305	3295
113	0	0	3971	1108	188	306	3294
114	0	0	3998	1108	187	306	3295
115	0	0	3662	1101	187	306	3295
116	0	0	2920	1102	186	306	3296
117	0	0	1977	1102	185	306	3298
118	0	0	1134	1103	185	306	3297
119	0	0	649	1104	185	306	3297
120	0	0	370	1106	183	306	3297
121	0	0	210	1107	181	306	3296
122	0	0	126	1108	180	305	3295
123	0	0	82	1109	180	306	3296
124	0	0	63	1116	180	306	3295
125	0	0	688	1113	181	306	3295
126	0	0	1388	1113	180	306	3296
127	0	0	2118	1113	181	305	3298
0	0	0	2836	1112	183	305	3297
1	0	0	3345	1111	184	306	3297
2	0	0	3643	1110	185	306	3297
3	0	0	3818	1110	186	306	3296
4	0	0	3919	1109	186	306	3296
5	0	0	3970	1108	188	305	3294
6	0	0	3999	1107	188	306	3296
7	0	0	3670	1101	188	307	3296
8	0	0	2913	1101	186	306	3296
9	0	0	1967	1101	185	305	3297
10	0	0	1136	1103	185	306	3298
11	0	0	646	1104	184	306	3297
12	0	0	367	1106	183	305	3297
13	0	0	211	1107	182	306	3296
14	0	0	126	1108	179	305	3295
15	0	0	82	1110	180	306	3296
16	0	0	61	1113	180	306	3295
17	0	0	695	1113	181	305	3296
18	0	0	1393	1113	180	305	3297
19	0	0	2127	1112	182	305	3297
20	0	0	2841	1112	183	306	3297
21	0	0	3344	1112	183	306	3298
22	0	0	3646	1111	185	305	3297
23	0	0	3819	1110	187	306	3296
24	0	0	3917	1108	187	305	3295
25	0	0	3971	1108	187	306	3294
26	0	0	3998	1107	188	306	3294
27	0	0	3671	1101	188	306	3295
28	0	0	2929	1101	187	306	3296
29	0	0	1969	1101	185	306	3297
30	0	0	1137	1102	184	306	3299
31	0	0	651	1104	184	306	3297
32	0	0	371	1105	183	306	3297
33	0	0	212	1106	181	306	3297
34	0	0	126	1107	181	305	3295
35	0	0	83	1108	180	305	3294
36	0	0	61	1112	181	305	3295
37	0	0	697	1113	180	306	3295
38	0	0	1388	1113	180	306	3296
39	0	0	2110	1112	181	306	3297
40	0	0	2831	1111	183	305	3297
41	0	0	3337	1111	183	306	3298
42	0	0	3640	1110	185	306	3297
43	0	0	3815	1109	186	306	3296
44	0	0	3915	1108	187	306	3295
45	0	0	3971	1108	187	306	3295
46	0	0	3998	1106	188	306	3294
47	0	0	3681	1101	187	306	3296
48	0	0	2928	1101	186	306	3296
49	0	0	1982	1100	185	306	3297
50	0	0	1145	1102	185	306	3297
51	0	0	651	1103	184	306	3297
52	0	0	369	1104	182	305	3297
53	0	0	212	1105	181	306	3296
54	0	0	127	1108	181	306	3296
55	0	0	82	1108	180	306	3294
56	0	0	61	1119	180	306	3295
57	0	0	680	1113	179	306	3295
58	0	0	1381	1113	181	305	3297
59	0	0	2100	1112	181	305	3297
60	0	0	2818	1111	183	306	3297
61	0	0	3331	1111	184	305	3297
62	0	0	3638	1110	185	306	3297
63	0	0	3816	1109	186	306	3297
64	0	0	3914	1107	188	305	3295
65	0	0	3969	1107	188	306	3294
66	0	0	3998	1107	188	306	3296
67	0	0	3680	1101	188	307	3296
68	0	0	2933	1100	187	307	3296
69	0	0	1970	1101	187	306	3298
70	0	0	1136	1102	185	306	3297
71	0	0	651	1103	183	306	3299
72	0	0	370	1105	183	306	3297
73	0	0	211	1106	181	306	3296
74	0	0	126	1107	180	306	3296
75	0	0	82	1108	180	306	3294
76	0	0	61	1114	181	306	3296
77	0	0	683	1112	180	306	3296
78	0	0	1372	1113	181	306	3296
79	0	0	2092	1112	181	306	3298
80	0	0	2818	1111	183	305	3297
81	0	0	3331	1111	184	306	3297
82	0	0	3635	1109	185	305	3297
83	0	0	3813	1109	186	305	3296
84	0	0	3914	1107	187	306	3295
85	0	0	3968	1107	188	306	3294
86	0	0	3998	1107	188	306	3294
87	0	0	3687	1100	188	306	3296
88	0	0	2946	1100	186	305	3297
89	0	0	2001	1100	184	306	3297
90	0	0	1157	1101	184	306	3297
91	0	0	658	1103	184	306	3297
92	0	0	374	1105	182	306	3298
93	0	0	215	1105	180	305	3296
94	0	0	128	1107	181	305	3295
95	0	0	84	1107	179	305	3294
96	0	0	61	1114	180	306	3295
97	0	0	667	1112	180	305	3296
98	0	0	1370	1112	181	307	3296
99	0	0	2114	1113	182	306	3298
100	0	0	2830	1111	183	306	3297
101	0	0	3336	1110	184	306	3298
102	0	0	3643	1110	185	306	3297
103	0	0	3817	1108	186	307	3296
104	0	0	3917	1107	188	306	3295
105	0	0	3969	1107	187	306	3294
106	0	0	3997	1106	188	306	3294
107	0	0	3677	1099	188	306	3296
108	0	0	2932	1100	186	307	3296
109	0	0	1979	1100	185	306	3298
110	0	0	1143	1101	185	306	3297
111	0	0	655	1102	184	306	3299
112	0	0	373	1104	182	306	3297
113	0	0	212	1105	181	306	3296
114	0	0	127	1106	180	305	3295
115	0	0	83	1107	181	305	3294
116	0	0	61	1115	180	306	3295
117	0	0	683	1112	181	306	3296
118	0	0	1375	1112	180	306	3297
119	0	0	2096	1111	181	305	3297
120	0	0	2823	1110	183	306	3297
121	0	0	3332	1109	184	305	3297
122	0	0	3636	1109	184	305	3297
123	0	0	3814	1108	186	306	3296
124	0	0	3917	1107	187	306	3295
125	0	0	3969	1106	187	306	3294
126	0	0	3998	1106	188	306	3294
127	0	0	3701	1099	188	306	3296
0	0	0	2953	1099	187	306	3297
1	0	0	2009	1099	185	306	3297
2	0	0	1163	1101	184	306	3297
3	0	0	661	1102	184	306	3299
4	0	0	376	1104	182	307	3298
5	0	0	216	1105	181	306	3296
6	0	0	129	1106	179	305	3295
7	0	0	83	1107	180	306	3294
8	0	0	62	1107	180	306	3295
9	0	0	650	1112	181	306	3296
10	0	0	1360	1111	181	304	3297
11	0	0	2090	1111	181	305	3297
12	0	0	2814	1110	183	306	3297
13	0	0	3328	1109	184	306	3297
14	0	0	3637	1109	186	305	3297
15	0	0	3813	1108	186	304	3296
16	0	0	3914	1106	187	306	3295
17	0	0	3969	1106	188	306	3295
18	0	0	3998	1105	189	306	3295
19	0	0	3699	1098	188	306	3295
20	0	0	2954	1099	187	306	3296
21	0	0	1994	1099	185	306	3298
22	0	0	1153	1100	184	306	3298
23	0	0	660	1101	183	306	3297
24	0	0	375	1103	182	306	3297
25	0	0	214	1105	181	306	3297
26	0	0	128	1106	179	306	3295
27	0	0	83	1107	180	307	3294
28	0	0	61	1110	180	305	3296
29	0	0	658	1111	181	306	3296
30	0	0	1351	1111	181	306	3296
31	0	0	2075	1111	181	305	3297
32	0	0	2804	1110	183	305	3297
33	0	0	3322	1109	184	305	3297
34	0	0	3630	1109	186	305	3297
35	0	0	3811	1108	185	306	3296
36	0	0	3913	1106	185	305	3295
37	0	0	3968	1105	188	306	3294
38	0	0	3996	1105	187	306	3295
39	0	0	3711	1098	188	306	3296
40	0	0	2970	1099	187	306	3297
41	0	0	2022	1099	185	306	3297
42	0	0	1170	1100	184	306	3298
43	0	0	665	1102	184	306	3297
44	0	0	379	1102	182	306	3297
45	0	0	218	1104	181	306	3297
46	0	0	130	1105	180	306	3295
47	0	0	84	1106	180	306	3294
48	0	0	62	1107	181	305	3295
49	0	0	642	1111	181	306	3296
50	0	0	1349	1110	181	306	3296
51	0	0	2082	1110	180	306	3297
52	0	0	2806	1109	182	305	3297
53	0	0	3322	1109	183	306	3297
54	0	0	3633	1108	186	305	3297
55	0	0	3813	1107	186	306	3296
56	0	0	3916	1106	187	306	3295
57	0	0	3969	1105	188	305	3294
58	0	0	3997	1105	188	306	3295
59	0	0	3711	1098	188	306	3296
60	0	0	2965	1098	187	306	3296
61	0	0	2004	1099	184	305	3297
62	0	0	1158	1099	185	306	3297
63	0	0	664	1101	184	306	3297
64	0	0	377	1102	183	306	3297
65	0	0	216	1104	181	306	3296
66	0	0	128	1105	180	306	3295
67	0	0	84	1106	180	306	3294
68	0	0	62	1107	180	306	3295
69	0	0	651	1110	181	305	3295
70	0	0	1346	1111	180	306	3296
71	0	0	2071	1109	182	305	3297
72	0	0	2803	1110	183	306	3298
73	0	0	3321	1108	183	306	3297
74	0	0	3630	1106	185	306	3297
75	0	0	3812	1107	185	306	3296
76	0	0	3912	1106	186	306	3295
77	0	0	3968	1105	188	306	3294
78	0	0	3997	1105	189	305	3294
79	0	0	3712	1098	187	306	3295
80	0	0	2958	1098	187	306	3296
81	0	0	2012	1099	185	306	3298
82	0	0	1164	1100	185	306	3298
83	0	0	662	1101	183	306	3297
84	0	0	376	1102	183	306	3298
85	0	0	217	1104	182	306	3297
86	0	0	129	1105	180	305	3295
87	0	0	83	1106	180	306	3294
88	0	0	62	1106	180	306	3295
89	0	0	658	1111	180	306	3295
90	0	0	1362	1110	181	306	3296
91	0	0	2086	1109	182	305	3297
92	0	0	2807	1109	183	306	3297
93	0	0	3324	1108	183	305	3298
94	0	0	3635	1108	185	305	3298
95	0	0	3813	1107	186	306	3296
96	0	0	3915	1106	188	306	3295
97	0	0	3969	1105	188	306	3294
98	0	0	3996	1104	188	306	3294
99	0	0	3719	1097	189	306	3296
100	0	0	2980	1097	187	306	3296
101	0	0	2026	1097	186	306	3297
102	0	0	1172	1099	185	306	3297
103	0	0	672	1101	183	306	3297
104	0	0	382	1102	182	306	3297
105	0	0	218	1103	181	306	3297
106	0	0	130	1104	180	305	3295
107	0	0	84	1106	181	306	3294
108	0	0	62	1107	180	306	3296
109	0	0	648	1111	181	306	3296
110	0	0	1342	1111	181	306	3297
111	0	0	2064	1108	181	306	3297
112	0	0	2797	1109	183	305	3297
113	0	0	3317	1108	184	305	3297
114	0	0	3627	1108	186	305	3297
115	0	0	3809	1107	186	306	3296
116	0	0	3912	1105	187	306	3295
117	0	0	3968	1104	188	306	3294
118	0	0	3997	1104	188	306	3294
119	0	0	3729	1097	187	306	3295
120	0	0	2989	1098	187	306	3296
121	0	0	2035	1098	185	306	3297
122	0	0	1178	1099	185	306	3298
123	0	0	671	1101	183	306	3297
124	0	0	381	1101	182	306	3297
125	0	0	219	1103	182	306	3297
126	0	0	131	1105	180	306	3295
127	0	0	84	1106	180	306	3296
0	0	0	62	1107	180	305	3295
1	0	0	631	1111	181	305	3295
2	0	0	1335	1110	181	306	3296
3	0	0	2063	1110	181	306	3297
4	0	0	2787	1109	183	305	3297
5	0	0	3311	1108	184	305	3297
6	0	0	3627	1107	184	306	3297
7	0	0	3808	1106	186	306	3296
8	0	0	3911	1105	187	306	3295
9	0	0	3967	1104	188	306	3294
10	0	0	3997	1104	188	305	3296
11	0	0	3724	1098	188	306	3296
12	0	0	2978	1097	187	306	3296
13	0	0	2028	1098	185	306	3298
14	0	0	1175	1099	184	306	3297
15	0	0	672	1100	184	307	3297
16	0	0	383	1102	183	306	3297
17	0	0	218	1103	181	306	3296
18	0	0	130	1104	180	306	3295
19	0	0	84	1105	180	306	3294
20	0	0	62	1106	179	305	3295
21	0	0	634	1110	180	306	3296
22	0	0	1334	1109	181	306	3297
23	0	0	2062	1109	181	306	3297
24	0	0	2795	1109	182	306	3297
25	0	0	3316	1107	183	305	3298
26	0	0	3627	1107	185	306	3297
27	0	0	3809	1106	186	306	3296
28	0	0	3911	1104	187	306	3295
29	0	0	3968	1104	187	306	3294
30	0	0	3996	1104	188	306	3294
31	0	0	3722	1097	188	305	3295
32	0	0	2987	1097	186	306	3297
33	0	0	2052	1098	186	306	3297
34	0	0	1191	1098	184	306	3297
35	0	0	678	1100	184	306	3298
36	0	0	386	1101	181	306	3297
37	0	0	222	1102	181	306	3296
38	0	0	131	1104	180	306	3295
39	0	0	85	1105	180	306	3294
40	0	0	63	1106	181	305	3294
41	0	0	615	1109	179	306	3295
42	0	0	1318	1110	180	306	3296
43	0	0	2040	1109	182	306	3297
44	0	0	2765	1108	184	306	3297
45	0	0	3303	1107	184	305	3298
46	0	0	3620	1106	185	306	3297
47	0	0	3805	1106	186	306	3296
48	0	0	3911	1105	187	306	3295
49	0	0	3967	1103	188	305	3294
50	0	0	3997	1105	188	305	3296
51	0	0	3734	1097	188	306	3296
52	0	0	2996	1097	187	306	3296
53	0	0	2053	1097	185	306	3298
54	0	0	1192	1098	185	306	3297
55	0	0	683	1100	184	306	3297
56	0	0	386	1101	182	306	3297
57	0	0	222	1102	182	306	3296
58	0	0	132	1104	180	305	3295
59	0	0	84	1105	180	305	3295
60	0	0	63	1106	181	306	3294
61	0	0	650	1109	181	306	3295
62	0	0	1332	1109	181	306	3296
63	0	0	2038	1109	181	305	3297
64	0	0	2759	1108	183	305	3297
65	0	0	3294	1107	184	305	3297
66	0	0	3614	1107	184	306	3297
67	0	0	3801	1105	185	306	3296
68	0	0	3909	1105	187	306	3295
69	0	0	3966	1103	187	306	3294
70	0	0	3996	1104	189	306	3295
71	0	0	3734	1096	188	306	3295
72	0	0	3011	1096	187	306	3296
73	0	0	2088	1097	184	306	3297
74	0	0	1217	1098	184	306	3297
75	0	0	694	1099	183	306	3297
76	0	0	394	1101	183	306	3297
77	0	0	227	1102	181	307	3296
78	0	0	135	1103	180	306	3295
79	0	0	85	1105	180	306	3295
80	0	0	64	1106	180	305	3295
81	0	0	642	1109	180	306	3296
82	0	0	1323	1109	182	305	3297
83	0	0	2023	1108	182	305	3297
84	0	0	2730	1108	184	305	3297
85	0	0	3277	1107	184	305	3297
86	0	0	3607	1106	184	306	3297
87	0	0	3797	1105	186	306	3296
88	0	0	3905	1104	187	306	3295
89	0	0	3964	1103	187	306	3294
90	0	0	3995	1103	188	306	3294
91	0	0	3744	1097	186	306	3295
92	0	0	3023	1096	187	306	3296
93	0	0	2092	1097	185	306	3297
94	0	0	1220	1098	184	306	3297
95	0	0	699	1099	184	305	3298
96	0	0	397	1101	182	306	3298
97	0	0	227	1102	181	306	3296
98	0	0	134	1103	180	306	3296
99	0	0	87	1104	180	306	3294
100	0	0	63	1105	180	305	3295
101	0	0	633	1108	181	305	3295
102	0	0	1307	1109	181	307	3296
103	0	0	2006	1108	181	306	3297
104	0	0	2725	1108	183	306	3298
105	0	0	3275	1107	184	306	3297
106	0	0	3602	1105	185	306	3297
107	0	0	3795	1104	185	305	3296
108	0	0	3906	1104	188	306	3295
109	0	0	3963	1103	187	306	3294
110	0	0	3995	1103	188	305	3296
111	0	0	3739	1096	188	306	3295
112	0	0	3014	1096	186	307	3296
113	0	0	2097	1096	185	306	3297
114	0	0	1224	1098	185	306	3297
115	0	0	697	1099	184	306	3297
116	0	0	397	1100	183	306	3297
117	0	0	227	1101	182	306	3296
118	0	0	135	1103	181	306	3295
119	0	0	88	1104	180	306	3294
120	0	0	64	1104	180	306	3294
121	0	0	620	1109	180	306	3296
122	0	0	1304	1109	182	306	3297
123	0	0	2011	1108	182	306	3297
124	0	0	2724	1107	182	306	3298
125	0	0	3279	1107	185	305	3297
126	0	0	3605	1106	185	305	3297
127	0	0	3795	1105	185	306	3296
0	0	0	3905	1104	187	306	3296
1	0	0	3964	1103	188	306	3294
2	0	0	3995	1103	188	306	3294
3	0	0	3744	1096	188	306	3295
4	0	0	3020	1096	187	306	3296
5	0	0	2090	1097	185	307	3297
6	0	0	1218	1098	185	306	3297
7	0	0	698	1099	184	306	3297
8	0	0	395	1100	182	306	3297
9	0	0	226	1101	181	306	3296
10	0	0	135	1103	179	306	3295
11	0	0	88	1105	181	306	3295
12	0	0	64	1105	180	306	3294
13	0	0	616	1109	181	306	3296
14	0	0	1286	1108	181	306	3297
15	0	0	1993	1108	182	305	3297
16	0	0	2723	1106	183	306	3297
17	0	0	3272	1106	184	305	3297
18	0	0	3602	1105	184	307	3297
19	0	0	3795	1104	186	305	3296
20	0	0	3903	1103	188	305	3295
21	0	0	3964	1103	188	306	3294
22	0	0	3996	1103	188	305	3295
23	0	0	3752	1096	188	306	3295
24	0	0	3028	1096	187	306	3296
25	0	0	2108	1096	185	306	3298
26	0	0	1220	1097	184	306	3297
27	0	0	700	1099	183	305	3298
28	0	0	399	1100	182	306	3297
29	0	0	228	1101	182	306	3296
30	0	0	136	1103	180	305	3295
31	0	0	87	1104	181	305	3295
32	0	0	64	1105	181	305	3295
33	0	0	603	1108	181	306	3296
34	0	0	1286	1108	180	306	3296
35	0	0	1995	1107	182	305	3297
36	0	0	2711	1106	183	306	3297
37	0	0	3271	1106	184	305	3297
38	0	0	3601	1105	185	307	3297
39	0	0	3794	1104	185	306	3296
40	0	0	3903	1103	187	306	3295
41	0	0	3963	1102	188	306	3294
42	0	0	3996	1102	188	306	3294
43	0	0	3769	1095	188	306	3295
44	0	0	3042	1095	187	306	3296
45	0	0	2124	1096	186	306	3298
46	0	0	1241	1097	184	306	3297
47	0	0	711	1098	183	306	3299
48	0	0	402	1100	183	305	3298
49	0	0	230	1100	182	306	3296
50	0	0	137	1103	181	306	3296
51	0	0	89	1103	180	306	3294
52	0	0	65	1104	181	306	3295
53	0	0	607	1109	180	306	3296
54	0	0	1293	1108	180	306	3297
55	0	0	2012	1108	181	305	3297
56	0	0	2732	1107	182	306	3297
57	0	0	3279	1106	184	306	3297
58	0	0	3605	1104	184	306	3297
59	0	0	3796	1104	185	306	3296
60	0	0	3906	1103	188	306	3295
61	0	0	3966	1103	187	306	3296
62	0	0	3997	1103	189	305	3295
63	0	0	3774	1095	188	306	3296
64	0	0	3046	1095	187	306	3296
65	0	0	2122	1096	185	306	3298
66	0	0	1239	1096	185	306	3297
67	0	0	705	1098	184	306	3297
68	0	0	402	1100	183	306	3297
69	0	0	231	1100	181	306	3296
70	0	0	137	1102	181	305	3295
71	0	0	88	1104	180	306	3296
72	0	0	65	1104	180	306	3295
73	0	0	609	1109	180	306	3296
74	0	0	1296	1108	181	306	3297
75	0	0	2003	1107	182	305	3297
76	0	0	2721	1107	183	306	3297
77	0	0	3272	1105	184	306	3297
78	0	0	3605	1104	184	306	3297
79	0	0	3796	1104	186	306	3296
80	0	0	3907	1102	187	306	3296
81	0	0	3964	1102	188	306	3294
82	0	0	3996	1101	188	306	3296
83	0	0	3772	1095	188	306	3296
84	0	0	3054	1096	187	306	3297
85	0	0	2127	1096	185	306	3297
86	0	0	1243	1096	185	306	3297
87	0	0	714	1098	184	306	3297
88	0	0	406	1100	183	306	3297
89	0	0	232	1100	181	306	3296
90	0	0	137	1102	181	306	3295
91	0	0	89	1102	180	306	3294
92	0	0	65	1104	181	306	3295
93	0	0	584	1107	179	306	3295
94	0	0	1261	1107	181	306	3296
95	0	0	1979	1107	181	305	3297
96	0	0	2714	1106	182	306	3299
97	0	0	3269	1106	184	306	3297
98	0	0	3599	1104	184	306	3297
99	0	0	3794	1104	186	306	3297
100	0	0	3903	1102	188	306	3295
101	0	0	3965	1102	188	306	3295
102	0	0	3996	1102	188	306	3295
103	0	0	3775	1094	188	306	3295
104	0	0	3051	1094	187	307	3296
105	0	0	2123	1095	185	305	3297
106	0	0	1240	1095	185	306	3297
107	0	0	707	1098	183	306	3298
108	0	0	403	1099	183	306	3297
109	0	0	231	1100	181	306	3296
110	0	0	137	1102	180	305	3295
111	0	0	89	1102	180	306	3294
112	0	0	65	1103	180	306	3295
113	0	0	585	1108	181	306	3296
114	0	0	1269	1107	180	305	3297
115	0	0	1986	1107	181	305	3298
116	0	0	2708	1106	183	305	3297
117	0	0	3264	1105	183	306	3298
118	0	0	3601	1105	184	306	3297
119	0	0	3793	1103	186	306	3296
120	0	0	3904	1102	187	306	3296
121	0	0	3964	1101	189	306	3294
122	0	0	3996	1101	188	306	3296
123	0	0	3777	1094	188	306	3296
124	0	0	3064	1095	186	306	3297
125	0	0	2135	1095	186	306	3298
126	0	0	1245	1096	185	306	3297
127	0	0	716	1097	183	306	3299
0	0	0	407	1099	182	306	3297
1	0	0	233	1100	181	306	3296
2	0	0	138	1101	180	306	3296
3	0	0	89	1103	181	306	3294
4	0	0	65	1103	180	306	3296
5	0	0	596	1107	180	306	3296
6	0	0	1278	1107	181	306	3296
7	0	0	1989	1107	182	306	3298
8	0	0	2713	1106	182	306	3297
9	0	0	3268	1105	185	306	3298
10	0	0	3599	1104	184	307	3297
11	0	0	3796	1103	186	306	3297
12	0	0	3903	1101	187	305	3295
13	0	0	3965	1102	187	306	3295
14	0	0	3997	1102	188	306	3294
15	0	0	3784	1094	188	305	3295
16	0	0	3069	1094	186	306	3296
17	0	0	2157	1094	185	306	3297
18	0	0	1263	1095	184	306	3297
19	0	0	720	1097	183	306	3297
20	0	0	410	1098	183	306	3298
21	0	0	236	1100	182	306	3296
22	0	0	139	1101	182	306	3296
23	0	0	90	1101	180	306	3294
24	0	0	66	1103	180	306	3295
25	0	0	577	1107	181	306	3296
26	0	0	1272	1107	181	305	3296
27	0	0	1986	1106	182	306	3297
28	0	0	2707	1106	183	306	3298
29	0	0	3270	1104	184	306	3297
30	0	0	3599	1104	185	306	3297
31	0	0	3793	1103	186	306	3296
32	0	0	3905	1102	187	306	3296
33	0	0	3964	1101	188	306	3294
34	0	0	3996	1101	188	306	3296
35	0	0	3796	1095	188	306	3295
36	0	0	3083	1094	187	306	3296
37	0	0	2146	1094	186	306	3297
38	0	0	1255	1095	185	306	3297
39	0	0	720	1097	184	306	3298
40	0	0	407	1098	182	305	3297
41	0	0	232	1099	181	306	3296
42	0	0	139	1100	180	306	3295
43	0	0	89	1101	179	306	3294
44	0	0	64	1102	181	306	3295
45	0	0	570	1106	180	306	3296
46	0	0	1248	1107	181	306	3297
47	0	0	1958	1105	181	305	3297
48	0	0	2691	1106	182	306	3297
49	0	0	3254	1105	184	306	3297
50	0	0	3590	1103	184	306	3297
51	0	0	3790	1103	186	306	3296
52	0	0	3901	1101	187	306	3295
53	0	0	3962	1100	186	306	3294
54	0	0	3995	1100	186	306	3296
55	0	0	3796	1094	189	306	3296
56	0	0	3077	1094	187	306	3296
57	0	0	2162	1094	186	306	3298
58	0	0	1258	1095	184	306	3297
59	0	0	723	1096	184	305	3297
60	0	0	411	1098	182	306	3297
61	0	0	236	1100	181	306	3297
62	0	0	140	1101	181	306	3295
63	0	0	90	1102	180	306	3295
64	0	0	65	1103	180	306	3295
65	0	0	562	1107	179	306	3295
66	0	0	1250	1106	180	306	3296
67	0	0	1962	1106	182	305	3297
68	0	0	2686	1104	181	306	3297
69	0	0	3255	1104	183	306	3297
70	0	0	3592	1104	185	306	3297
71	0	0	3788	1103	186	306	3296
72	0	0	3902	1101	187	306	3296
73	0	0	3963	1101	188	306	3294
74	0	0	3994	1100	188	306	3295
75	0	0	3811	1094	187	306	3295
76	0	0	3085	1094	187	306	3296
77	0	0	2171	1094	186	305	3297
78	0	0	1275	1095	185	306	3297
79	0	0	732	1097	184	306	3298
80	0	0	415	1098	182	306	3297
81	0	0	238	1099	182	306	3297
82	0	0	141	1101	180	304	3295
83	0	0	90	1102	180	306	3294
84	0	0	66	1102	180	306	3296
85	0	0	555	1106	180	306	3296
86	0	0	1236	1106	181	306	3297
87	0	0	1958	1105	182	306	3297
88	0	0	2684	1104	183	306	3297
89	0	0	3250	1105	184	306	3298
90	0	0	3589	1103	184	307	3297
91	0	0	3790	1102	185	306	3297
92	0	0	3900	1101	187	305	3295
93	0	0	3962	1101	188	306	3294
94	0	0	3995	1100	187	307	3294
95	0	0	3807	1093	188	306	3296
96	0	0	3094	1094	186	306	3296
97	0	0	2179	1094	185	306	3298
98	0	0	1272	1095	185	306	3297
99	0	0	729	1096	184	305	3298
100	0	0	416	1098	181	306	3297
101	0	0	239	1098	181	306	3296
102	0	0	140	1100	181	305	3295
103	0	0	90	1101	180	306	3294
104	0	0	66	1102	181	305	3295
105	0	0	561	1106	180	306	3295
106	0	0	1239	1105	181	305	3296
107	0	0	1954	1105	181	304	3297
108	0	0	2677	1104	183	306	3297
109	0	0	3251	1104	184	306	3298
110	0	0	3590	1103	185	306	3297
111	0	0	3788	1102	186	306	3297
112	0	0	3899	1100	186	306	3295
113	0	0	3963	1100	188	306	3295
114	0	0	3996	1100	187	306	3294
115	0	0	3821	1093	188	306	3295
116	0	0	3103	1093	186	306	3297
117	0	0	2188	1093	185	305	3297
118	0	0	1284	1094	185	306	3298
119	0	0	738	1095	183	306	3297
120	0	0	417	1097	182	306	3298
121	0	0	239	1099	181	306	3296
122	0	0	142	1099	180	306	3295
123	0	0	91	1100	179	306	3294
124	0	0	66	1101	180	305	3296
125	0	0	549	1106	180	306	3296
126	0	0	1231	1105	181	306	3296
127	0	0	1954	1105	182	304	3297
0	0	0	2678	1104	183	306	3298
1	0	0	3247	1104	183	306	3297
2	0	0	3586	1103	184	306	3297
3	0	0	3787	1102	186	306	3296
4	0	0	3899	1101	188	306	3295
5	0	0	3961	1100	188	306	3294
6	0	0	3995	1100	187	307	3294
7	0	0	3818	1094	189	306	3296
8	0	0	3106	1092	187	306	3296
9	0	0	2189	1093	186	306	3298
10	0	0	1276	1094	184	306	3297
11	0	0	732	1095	184	306	3298
12	0	0	418	1097	182	306	3297
13	0	0	238	1098	181	306	3297
14	0	0	142	1100	181	306	3295
15	0	0	90	1100	181	306	3295
16	0	0	65	1101	182	307	3295
17	0	0	552	1105	179	306	3295
18	0	0	1233	1106	181	305	3296
19	0	0	1943	1104	182	305	3297
20	0	0	2668	1104	184	306	3297
21	0	0	3245	1104	184	306	3298
22	0	0	3587	1103	185	306	3298
23	0	0	3785	1101	185	306	3296
24	0	0	3899	1101	188	306	3295
25	0	0	3962	1100	189	306	3294
26	0	0	3995	1100	187	306	3294
27	0	0	3825	1092	187	306	3295
28	0	0	3101	1093	187	306	3296
29	0	0	2184	1093	186	306	3297
30	0	0	1283	1094	185	306	3299
31	0	0	737	1095	184	306	3298
32	0	0	417	1096	182	306	3298
33	0	0	239	1098	181	306	3297
34	0	0	142	1099	180	306	3295
35	0	0	92	1099	180	306	3296
36	0	0	66	1102	180	307	3295
37	0	0	535	1105	181	306	3296
38	0	0	1215	1105	181	306	3296
39	0	0	1938	1104	181	306	3297
40	0	0	2665	1103	182	306	3297
41	0	0	3238	1103	184	306	3297
42	0	0	3580	1103	185	305	3297
43	0	0	3784	1101	186	306	3296
44	0	0	3900	1101	186	306	3296
45	0	0	3962	1100	187	306	3294
46	0	0	3995	1099	187	306	3296
47	0	0	3825	1092	188	306	3296
48	0	0	3119	1093	188	306	3296
49	0	0	2216	1093	185	306	3297
50	0	0	1296	1094	185	305	3297
51	0	0	744	1096	184	306	3297
52	0	0	425	1097	183	306	3297
53	0	0	244	1098	182	306	3296
54	0	0	143	1099	181	306	3295
55	0	0	92	1100	180	306	3294
56	0	0	66	1101	180	307	3295
57	0	0	538	1106	180	305	3295
58	0	0	1221	1104	181	306	3296
59	0	0	1937	1104	181	305	3298
60	0	0	2660	1104	182	306	3297
61	0	0	3240	1103	183	306	3299
62	0	0	3585	1102	184	306	3298
63	0	0	3783	1102	185	306	3296
64	0	0	3899	1099	187	306	3295
65	0	0	3962	1098	188	306	3294
66	0	0	3995	1099	187	306	3294
67	0	0	3836	1093	186	306	3295
68	0	0	3114	1092	187	306	3296
69	0	0	2199	1093	185	306	3297
70	0	0	1293	1093	185	306	3298
71	0	0	742	1095	184	306	3297
72	0	0	420	1097	183	306	3297
73	0	0	242	1098	181	306	3296
74	0	0	143	1099	181	306	3295
75	0	0	92	1100	180	306	3295
76	0	0	65	1100	180	306	3295
77	0	0	516	1105	180	305	3296
78	0	0	1197	1105	181	305	3296
79	0	0	1924	1104	181	305	3297
80	0	0	2648	1103	183	306	3298
81	0	0	3228	1102	184	306	3299
82	0	0	3574	1102	185	305	3297
83	0	0	3781	1101	186	306	3296
84	0	0	3898	1100	187	306	3296
85	0	0	3960	1099	188	306	3294
86	0	0	3994	1099	188	306	3296
87	0	0	3842	1092	187	305	3296
88	0	0	3131	1092	187	306	3297
89	0	0	2222	1092	186	306	3298
90	0	0	1299	1093	185	306	3297
91	0	0	746	1094	183	306	3298
92	0	0	425	1096	183	307	3297
93	0	0	242	1098	181	306	3297
94	0	0	144	1099	180	306	3295
95	0	0	92	1099	180	306	3294
96	0	0	67	1100	180	307	3295
97	0	0	536	1105	180	305	3296
98	0	0	1214	1106	181	305	3296
99	0	0	1923	1103	181	306	3297
100	0	0	2643	1102	183	306	3297
101	0	0	3229	1102	184	306	3298
102	0	0	3576	1102	185	306	3298
103	0	0	3779	1101	185	306	3297
104	0	0	3898	1099	188	306	3296
105	0	0	3961	1099	188	306	3294
106	0	0	3994	1098	188	306	3295
107	0	0	3853	1092	187	307	3295
108	0	0	3136	1092	185	306	3296
109	0	0	2230	1092	186	306	3297
110	0	0	1315	1092	185	306	3298
111	0	0	755	1095	185	306	3297
112	0	0	428	1096	182	306	3297
113	0	0	246	1097	182	306	3297
114	0	0	146	1098	181	306	3295
115	0	0	93	1099	180	307	3295
116	0	0	68	1100	180	306	3296
117	0	0	510	1104	181	306	3296
118	0	0	1196	1103	181	306	3297
119	0	0	1915	1104	182	306	3297
120	0	0	2639	1102	183	306	3297
121	0	0	3222	1103	183	306	3297
122	0	0	3575	1101	183	306	3297
123	0	0	3779	1100	185	306	3296
124	0	0	3895	1099	187	306	3295
125	0	0	3961	1098	188	306	3295
126	0	0	3996	1099	188	307	3295
127	0	0	3847	1091	187	306	3296
0	0	0	3140	1091	187	306	3297
1	0	0	2226	1092	185	306	3297
2	0	0	1302	1093	184	306	3297
3	0	0	748	1094	183	306	3298
4	0	0	427	1095	182	305	3297
5	0	0	243	1097	181	306	3297
6	0	0	144	1098	181	306	3295
7	0	0	93	1099	180	306	3294
8	0	0	67	1100	180	306	3294
9	0	0	533	1104	180	305	3296
10	0	0	1209	1103	181	306	3296
11	0	0	1913	1103	181	306	3297
12	0	0	2643	1103	183	306	3297
13	0	0	3224	1102	183	306	3297
14	0	0	3574	1102	185	305	3297
15	0	0	3779	1100	186	306	3296
16	0	0	3896	1099	187	306	3295
17	0	0	3960	1098	188	306	3294
18	0	0	3994	1097	188	306	3295
19	0	0	3859	1091	188	306	3296
20	0	0	3141	1090	187	306	3296
21	0	0	2238	1092	187	306	3298
22	0	0	1323	1092	185	306	3297
23	0	0	755	1094	184	306	3298
24	0	0	431	1095	183	306	3298
25	0	0	247	1096	181	306	3297
26	0	0	146	1098	180	306	3296
27	0	0	93	1098	179	306	3294
28	0	0	68	1100	180	306	3295
29	0	0	501	1104	180	306	3295
30	0	0	1185	1103	181	306	3296
31	0	0	1912	1103	180	306	3297
32	0	0	2636	1103	182	306	3297
33	0	0	3221	1102	183	305	3297
34	0	0	3574	1101	184	307	3297
35	0	0	3779	1099	185	306	3296
36	0	0	3896	1098	187	306	3295
37	0	0	3960	1098	187	306	3294
38	0	0	3995	1098	188	306	3294
39	0	0	3854	1091	188	306	3295
40	0	0	3147	1091	187	306	3297
41	0	0	2230	1091	186	306	3297
42	0	0	1315	1092	186	306	3297
43	0	0	756	1093	183	305	3297
44	0	0	432	1095	184	306	3297
45	0	0	246	1097	182	306	3297
46	0	0	146	1098	181	306	3295
47	0	0	93	1099	180	306	3295
48	0	0	67	1099	181	305	3295
49	0	0	511	1104	180	306	3295
50	0	0	1198	1103	181	306	3297
51	0	0	1911	1102	181	306	3297
52	0	0	2640	1102	182	306	3297
53	0	0	3223	1101	184	306	3297
54	0	0	3572	1101	185	306	3298
55	0	0	3778	1099	185	306	3296
56	0	0	3898	1098	187	306	3296
57	0	0	3960	1098	188	306	3294
58	0	0	3994	1097	187	306	3294
59	0	0	3857	1091	187	306	3295
60	0	0	3149	1091	187	306	3296
61	0	0	2244	1091	186	306	3297
62	0	0	1326	1092	185	306	3297
63	0	0	757	1093	184	306	3298
64	0	0	432	1095	184	306	3297
65	0	0	248	1096	181	306	3297
66	0	0	148	1097	181	306	3295
67	0	0	94	1098	181	306	3294
68	0	0	68	1099	179	306	3295
69	0	0	495	1104	180	306	3296
70	0	0	1189	1102	181	306	3296
71	0	0	1904	1102	181	306	3298
72	0	0	2628	1103	183	306	3297
73	0	0	3215	1101	185	306	3297
74	0	0	3571	1101	184	306	3298
75	0	0	3776	1100	185	306	3296
76	0	0	3896	1099	187	306	3296
77	0	0	3961	1097	188	306	3294
78	0	0	3994	1097	188	306	3295
79	0	0	3875	1091	188	306	3296
80	0	0	3167	1090	187	306	3296
81	0	0	2249	1091	186	306	3297
82	0	0	1329	1092	185	306	3298
83	0	0	764	1093	185	305	3297
84	0	0	435	1094	182	306	3297
85	0	0	249	1096	181	306	3297
86	0	0	147	1097	181	306	3296
87	0	0	94	1099	181	306	3294
88	0	0	68	1099	181	306	3294
89	0	0	489	1103	181	306	3296
90	0	0	1171	1102	179	306	3296
91	0	0	1889	1102	181	306	3297
92	0	0	2621	1102	182	306	3297
93	0	0	3211	1101	183	305	3298
94	0	0	3565	1100	183	306	3297
95	0	0	3774	1099	185	306	3296
96	0	0	3893	1098	187	306	3295
97	0	0	3960	1097	189	306	3295
98	0	0	3995	1097	189	306	3294
99	0	0	3867	1091	189	306	3295
100	0	0	3168	1090	187	306	3296
101	0	0	2261	1090	186	306	3297
102	0	0	1339	1091	185	306	3297
103	0	0	764	1092	184	306	3298
104	0	0	436	1094	182	306	3298
105	0	0	250	1095	181	306	3297
106	0	0	148	1097	180	306	3296
107	0	0	94	1098	180	306	3294
108	0	0	68	1099	180	306	3296
109	0	0	482	1103	181	306	3296
110	0	0	1173	1102	180	305	3297
111	0	0	1884	1102	180	306	3297
112	0	0	2609	1102	183	306	3297
113	0	0	3205	1101	184	306	3298
114	0	0	3564	1100	184	306	3297
115	0	0	3775	1099	186	306	3297
116	0	0	3892	1097	187	306	3295
117	0	0	3958	1097	186	306	3294
118	0	0	3994	1096	188	306	3294
119	0	0	3885	1090	187	306	3295
120	0	0	3174	1089	187	306	3296
121	0	0	2266	1090	186	306	3297
122	0	0	1342	1091	185	306	3297
123	0	0	766	1093	184	306	3298
124	0	0	438	1094	182	306	3298
125	0	0	251	1095	181	306	3296
126	0	0	149	1096	179	306	3295
127	0	0	95	1097	181	306	3294
0	0	0	68	1098	180	307	3295
1	0	0	487	1102	179	306	3296
2	0	0	1173	1102	181	306	3296
3	0	0	1885	1102	181	306	3297
4	0	0	2611	1102	182	306	3298
5	0	0	3206	1101	184	306	3297
6	0	0	3566	1099	185	306	3297
7	0	0	3775	1099	186	306	3297
8	0	0	3893	1097	187	306	3295
9	0	0	3960	1097	188	306	3296
10	0	0	3995	1097	189	306	3296
11	0	0	3886	1090	187	306	3295
12	0	0	3186	1089	186	306	3296
13	0	0	2269	1090	185	306	3298
14	0	0	1342	1092	184	306	3297
15	0	0	772	1093	183	306	3298
16	0	0	441	1094	184	306	3297
17	0	0	251	1095	182	306	3297
18	0	0	149	1095	182	306	3295
19	0	0	95	1098	180	306	3294
20	0	0	69	1098	180	306	3295
21	0	0	475	1102	181	306	3295
22	0	0	1157	1102	180	306	3296
23	0	0	1879	1102	182	306	3297
24	0	0	2617	1101	182	306	3298
25	0	0	3209	1100	185	306	3297
26	0	0	3564	1100	185	306	3298
27	0	0	3776	1099	186	306	3297
28	0	0	3893	1097	187	306	3295
29	0	0	3959	1096	187	306	3294
30	0	0	3994	1096	188	306	3295
31	0	0	3882	1089	188	306	3295
32	0	0	3180	1089	186	306	3296
33	0	0	2278	1089	186	306	3297
34	0	0	1351	1090	185	306	3297
35	0	0	771	1092	184	306	3298
36	0	0	440	1093	183	306	3298
37	0	0	253	1094	182	306	3297
38	0	0	149	1096	181	306	3296
39	0	0	95	1097	181	306	3294
40	0	0	69	1098	180	306	3295
41	0	0	458	1102	181	306	3296
42	0	0	1151	1101	180	306	3296
43	0	0	1866	1101	182	306	3297
44	0	0	2592	1101	182	306	3297
45	0	0	3198	1100	184	306	3297
46	0	0	3559	1099	185	306	3297
47	0	0	3770	1098	186	306	3296
48	0	0	3891	1097	187	306	3295
49	0	0	3959	1096	187	306	3295
50	0	0	3994	1095	189	305	3295
51	0	0	3903	1090	188	306	3296
52	0	0	3210	1089	186	306	3297
53	0	0	2295	1089	187	306	3297
54	0	0	1363	1090	185	306	3297
55	0	0	783	1092	183	306	3298
56	0	0	445	1093	183	306	3297
57	0	0	255	1094	181	306	3297
58	0	0	152	1095	180	306	3295
59	0	0	97	1096	180	306	3294
60	0	0	70	1097	180	306	3296
61	0	0	458	1101	180	306	3296
62	0	0	1143	1101	180	306	3297
63	0	0	1861	1101	181	306	3298
64	0	0	2587	1101	182	306	3297
65	0	0	3189	1100	184	306	3298
66	0	0	3553	1099	186	306	3297
67	0	0	3768	1098	185	306	3297
68	0	0	3892	1097	187	306	3295
69	0	0	3957	1096	187	306	3294
70	0	0	3992	1095	189	306	3294
71	0	0	3910	1089	188	306	3296
72	0	0	3210	1089	187	306	3296
73	0	0	2310	1089	187	306	3297
74	0	0	1365	1090	185	306	3299
75	0	0	785	1092	184	305	3298
76	0	0	448	1094	183	306	3298
77	0	0	258	1094	182	306	3297
78	0	0	152	1095	181	306	3295
79	0	0	97	1096	180	306	3294
80	0	0	69	1097	180	305	3295
81	0	0	439	1102	180	306	3296
82	0	0	1132	1100	180	306	3296
83	0	0	1854	1101	181	306	3297
84	0	0	2587	1100	182	306	3297
85	0	0	3195	1099	184	306	3298
86	0	0	3557	1099	185	306	3298
87	0	0	3768	1098	184	306	3297
88	0	0	3892	1097	187	306	3296
89	0	0	3958	1096	188	306	3294
90	0	0	3993	1095	188	306	3295
91	0	0	3919	1089	188	306	3296
92	0	0	3213	1088	187	306	3297
93	0	0	2314	1089	186	306	3297
94	0	0	1376	1091	185	306	3297
95	0	0	791	1091	183	306	3297
96	0	0	449	1093	183	306	3298
97	0	0	257	1094	181	306	3297
98	0	0	153	1096	181	306	3296
99	0	0	99	1096	181	306	3294
100	0	0	69	1097	180	306	3295
101	0	0	443	1101	182	306	3295
102	0	0	1127	1101	180	306	3296
103	0	0	1852	1101	181	306	3297
104	0	0	2575	1101	182	306	3297
105	0	0	3181	1099	184	306	3297
106	0	0	3549	1099	185	306	3297
107	0	0	3768	1098	186	306	3297
108	0	0	3888	1096	187	306	3295
109	0	0	3957	1096	188	306	3295
110	0	0	3994	1095	189	305	3295
111	0	0	3924	1089	188	306	3295
112	0	0	3231	1088	187	306	3296
113	0	0	2331	1088	186	306	3297
114	0	0	1391	1089	184	306	3297
115	0	0	794	1091	185	305	3298
116	0	0	454	1092	182	306	3298
117	0	0	261	1093	181	306	3297
118	0	0	153	1095	181	306	3296
119	0	0	97	1096	179	306	3294
120	0	0	70	1097	180	306	3295
121	0	0	445	1101	180	305	3296
122	0	0	1133	1100	181	306	3297
123	0	0	1849	1101	181	306	3298
124	0	0	2570	1100	183	306	3297
125	0	0	3183	1099	183	306	3298
126	0	0	3550	1098	185	306	3297
127	0	0	3765	1097	185	306	3296
0	0	0	3888	1096	186	306	3295
1	0	0	3957	1095	188	306	3294
2	0	0	3992	1095	188	306	3294
3	0	0	3934	1088	189	306	3296
4	0	0	3243	1088	187	306	3297
5	0	0	2338	1088	186	306	3297
6	0	0	1395	1089	185	306	3299
7	0	0	802	1091	184	307	3298
8	0	0	455	1093	183	306	3297
9	0	0	261	1093	181	306	3297
10	0	0	155	1094	181	306	3295
11	0	0	98	1096	181	306	3294
12	0	0	70	1097	180	306	3295
13	0	0	431	1100	180	306	3296
14	0	0	1118	1101	181	306	3297
15	0	0	1832	1100	181	306	3298
16	0	0	2573	1100	182	306	3297
17	0	0	3180	1098	184	306	3297
18	0	0	3548	1097	185	305	3297
19	0	0	3767	1098	185	307	3297
20	0	0	3888	1096	187	306	3295
21	0	0	3956	1095	189	306	3295
22	0	0	3994	1095	190	306	3294
23	0	0	3923	1088	188	306	3296
24	0	0	3234	1088	188	306	3297
25	0	0	2341	1088	186	306	3297
26	0	0	1391	1089	184	306	3299
27	0	0	800	1091	185	306	3298
28	0	0	457	1091	183	306	3298
29	0	0	262	1093	182	306	3297
30	0	0	154	1094	180	305	3295
31	0	0	98	1095	181	306	3295
32	0	0	70	1096	180	305	3295
33	0	0	419	1101	180	306	3296
34	0	0	1109	1099	180	306	3296
35	0	0	1825	1100	181	306	3298
36	0	0	2556	1100	182	306	3297
37	0	0	3176	1098	184	306	3298
38	0	0	3546	1097	184	306	3298
39	0	0	3762	1096	185	306	3297
40	0	0	3886	1095	187	306	3295
41	0	0	3956	1094	188	306	3294
42	0	0	3992	1094	187	306	3295
43	0	0	3939	1088	188	306	3295
44	0	0	3237	1087	187	306	3297
45	0	0	2336	1088	187	306	3297
46	0	0	1395	1089	185	306	3297
47	0	0	802	1090	184	306	3298
48	0	0	455	1091	184	306	3298
49	0	0	261	1093	182	306	3297
50	0	0	154	1094	180	306	3296
51	0	0	99	1094	181	306	3295
52	0	0	70	1096	181	306	3295
53	0	0	425	1100	181	306	3296
54	0	0	1106	1101	181	306	3297
55	0	0	1828	1100	181	306	3297
56	0	0	2557	1099	183	306	3297
57	0	0	3170	1097	184	306	3298
58	0	0	3541	1097	184	306	3297
59	0	0	3762	1097	185	306	3297
60	0	0	3887	1095	187	306	3296
61	0	0	3956	1095	188	306	3295
62	0	0	3993	1095	188	306	3295
63	0	0	3933	1087	188	306	3296
64	0	0	3239	1087	187	306	3297
65	0	0	2346	1087	186	306	3297
66	0	0	1392	1088	185	306	3298
67	0	0	801	1090	184	306	3298
68	0	0	457	1090	182	306	3298
69	0	0	262	1092	181	306	3297
70	0	0	154	1094	181	306	3296
71	0	0	98	1094	180	306	3295
72	0	0	70	1096	181	306	3295
73	0	0	431	1100	181	306	3296
74	0	0	1114	1100	180	306	3297
75	0	0	1837	1100	182	306	3298
76	0	0	2568	1099	182	305	3297
77	0	0	3183	1098	183	306	3298
78	0	0	3550	1097	185	306	3298
79	0	0	3764	1096	186	306	3297
80	0	0	3889	1095	187	306	3296
81	0	0	3956	1094	188	306	3294
82	0	0	3991	1093	189	306	3295
83	0	0	3943	1087	187	306	3296
84	0	0	3243	1086	187	306	3296
85	0	0	2350	1087	185	306	3298
86	0	0	1404	1088	185	306	3297
87	0	0	806	1089	184	306	3298
88	0	0	458	1091	184	306	3298
89	0	0	262	1092	182	306	3297
90	0	0	156	1094	181	306	3295
91	0	0	99	1095	181	306	3295
92	0	0	70	1095	180	306	3295
93	0	0	421	1100	180	306	3296
94	0	0	1107	1100	180	306	3297
95	0	0	1827	1099	182	305	3297
96	0	0	2565	1099	183	306	3299
97	0	0	3177	1098	184	305	3298
98	0	0	3545	1097	185	306	3297
99	0	0	3763	1096	186	306	3297
100	0	0	3887	1094	187	306	3295
101	0	0	3956	1094	188	306	3294
102	0	0	3991	1093	188	306	3295
103	0	0	3927	1087	188	306	3296
104	0	0	3235	1086	187	306	3297
105	0	0	2345	1087	186	306	3298
106	0	0	1397	1087	186	306	3297
107	0	0	801	1089	184	306	3298
108	0	0	458	1091	183	306	3298
109	0	0	263	1092	181	306	3298
110	0	0	155	1093	180	306	3296
111	0	0	98	1094	180	306	3294
112	0	0	70	1095	181	306	3295
113	0	0	413	1099	180	306	3296
114	0	0	1104	1099	180	306	3296
115	0	0	1816	1099	181	306	3297
116	0	0	2543	1098	183	305	3297
117	0	0	3167	1098	184	306	3298
118	0	0	3541	1097	185	306	3298
119	0	0	3759	1096	186	306	3297
120	0	0	3885	1094	187	306	3295
121	0	0	3955	1094	188	306	3296
122	0	0	3993	1093	188	306	3295
123	0	0	3948	1087	189	306	3296
124	0	0	3255	1086	187	306	3297
125	0	0	2358	1087	186	306	3297
126	0	0	1411	1087	185	306	3297
127	0	0	812	1089	184	306	3298
0	0	0	460	1090	182	306	3298
1	0	0	264	1091	181	306	3297
2	0	0	156	1093	181	306	3295
3	0	0	99	1094	179	306	3295
4	0	0	70	1095	181	306	3295
5	0	0	401	1099	180	306	3296
6	0	0	1088	1099	181	306	3297
7	0	0	1818	1099	181	306	3298
8	0	0	2544	1097	181	306	3297
9	0	0	3162	1097	183	306	3298
10	0	0	3537	1097	185	306	3298
11	0	0	3759	1095	185	306	3297
12	0	0	3886	1094	187	306	3296
13	0	0	3954	1093	188	306	3294
14	0	0	3992	1093	187	306	3295
15	0	0	3945	1087	189	306	3295
16	0	0	3259	1086	186	306	3296
17	0	0	2371	1087	185	306	3297
18	0	0	1414	1087	185	306	3298
19	0	0	814	1089	184	306	3298
20	0	0	465	1090	182	306	3298
21	0	0	266	1091	181	306	3297
22	0	0	158	1093	181	306	3295
23	0	0	99	1094	181	306	3295
24	0	0	71	1095	181	306	3295
25	0	0	411	1099	180	306	3296
26	0	0	1094	1098	181	306	3297
27	0	0	1814	1098	181	306	3297
28	0	0	2543	1097	182	306	3298
29	0	0	3168	1097	183	308	3298
30	0	0	3539	1096	185	305	3297
31	0	0	3759	1095	185	306	3297
32	0	0	3885	1093	187	306	3295
33	0	0	3956	1092	187	306	3294
34	0	0	3992	1093	188	306	3295
35	0	0	3949	1086	188	306	3296
36	0	0	3254	1085	187	306	3296
37	0	0	2371	1087	187	306	3298
38	0	0	1425	1087	185	306	3298
39	0	0	818	1088	184	306	3298
40	0	0	465	1090	184	306	3298
41	0	0	267	1092	182	306	3297
42	0	0	158	1093	181	306	3296
43	0	0	100	1094	179	306	3295
44	0	0	72	1094	180	306	3296
45	0	0	404	1099	181	306	3296
46	0	0	1088	1098	182	306	3297
47	0	0	1810	1098	182	305	3298
48	0	0	2541	1097	183	306	3297
49	0	0	3160	1096	183	306	3298
50	0	0	3535	1096	185	306	3298
51	0	0	3760	1095	185	306	3297
52	0	0	3883	1093	187	306	3295
53	0	0	3955	1092	187	306	3296
54	0	0	3993	1093	189	306	3295
55	0	0	3951	1086	188	306	3296
56	0	0	3267	1086	187	306	3297
57	0	0	2380	1085	186	306	3297
58	0	0	1421	1086	185	306	3297
59	0	0	818	1088	184	306	3298
60	0	0	468	1090	183	306	3298
61	0	0	266	1090	181	306	3297
62	0	0	158	1092	180	306	3295
63	0	0	100	1093	180	306	3295
64	0	0	71	1093	180	306	3295
65	0	0	397	1098	180	306	3296
66	0	0	1081	1097	181	306	3297
67	0	0	1801	1098	181	306	3297
68	0	0	2525	1098	182	307	3297
69	0	0	3154	1096	183	306	3298
70	0	0	3532	1095	186	306	3298
71	0	0	3754	1094	187	306	3297
72	0	0	3883	1093	187	306	3295
73	0	0	3956	1092	188	306	3294
74	0	0	3992	1092	188	306	3295
75	0	0	3967	1085	188	306	3296
76	0	0	3274	1085	186	306	3297
77	0	0	2392	1086	186	306	3297
78	0	0	1441	1086	185	306	3297
79	0	0	828	1088	183	306	3298
80	0	0	470	1090	183	305	3298
81	0	0	269	1090	181	306	3297
82	0	0	160	1092	181	306	3295
83	0	0	101	1093	179	306	3295
84	0	0	71	1094	180	306	3295
85	0	0	393	1098	181	307	3296
86	0	0	1076	1097	182	306	3297
87	0	0	1798	1097	181	306	3297
88	0	0	2520	1096	182	306	3299
89	0	0	3146	1096	182	306	3298
90	0	0	3526	1095	184	306	3297
91	0	0	3753	1095	184	306	3297
92	0	0	3883	1093	187	306	3296
93	0	0	3955	1092	188	306	3296
94	0	0	3991	1092	189	306	3294
95	0	0	3961	1085	187	306	3295
96	0	0	3283	1085	187	306	3297
97	0	0	2402	1085	186	306	3297
98	0	0	1437	1086	184	306	3299
99	0	0	827	1087	184	306	3298
100	0	0	473	1089	183	306	3298
101	0	0	271	1090	181	306	3298
102	0	0	158	1092	181	306	3295
103	0	0	101	1093	179	306	3296
104	0	0	72	1094	181	306	3295
105	0	0	389	1098	181	305	3296
106	0	0	1069	1097	181	306	3297
107	0	0	1779	1097	181	306	3297
108	0	0	2506	1096	181	306	3298
109	0	0	3143	1096	183	306	3298
110	0	0	3526	1095	185	306	3298
111	0	0	3751	1095	186	306	3297
112	0	0	3881	1093	187	306	3295
113	0	0	3954	1092	187	307	3294
114	0	0	3990	1092	189	306	3295
115	0	0	3967	1085	189	306	3296
116	0	0	3278	1085	188	306	3296
117	0	0	2398	1085	186	306	3297
118	0	0	1446	1086	185	306	3298
119	0	0	833	1087	185	306	3299
120	0	0	473	1089	183	306	3299
121	0	0	271	1090	182	306	3297
122	0	0	160	1092	180	306	3296
123	0	0	103	1092	181	306	3295
124	0	0	72	1093	179	306	3296
125	0	0	381	1098	180	306	3296
126	0	0	1065	1097	181	306	3297
127	0	0	1787	1097	182	306	3297
0	0	0	2513	1096	181	306	3299
1	0	0	3142	1096	183	307	3298
2	0	0	3525	1095	185	306	3297
3	0	0	3751	1094	186	306	3297
4	0	0	3881	1093	187	306	3295
5	0	0	3953	1091	186	306	3295
6	0	0	3991	1092	188	306	3295
7	0	0	3959	1084	187	306	3296
8	0	0	3282	1085	187	306	3296
9	0	0	2417	1085	186	306	3297
10	0	0	1453	1086	185	306	3297
11	0	0	836	1086	183	306	3298
12	0	0	478	1089	183	306	3298
13	0	0	272	1090	182	306	3297
14	0	0	161	1091	180	306	3295
15	0	0	102	1092	179	306	3295
16	0	0	73	1093	181	306	3295
17	0	0	394	1097	180	306	3296
18	0	0	1080	1096	180	306	3297
19	0	0	1791	1097	182	306	3298
20	0	0	2514	1096	182	306	3297
21	0	0	3148	1096	183	306	3298
22	0	0	3529	1094	185	306	3299
23	0	0	3752	1094	185	306	3297
24	0	0	3884	1092	187	306	3296
25	0	0	3954	1092	188	306	3294
26	0	0	3991	1092	188	306	3295
27	0	0	3971	1085	188	306	3296
28	0	0	3278	1084	188	306	3296
29	0	0	2402	1083	186	306	3297
30	0	0	1449	1085	185	306	3298
31	0	0	833	1087	184	305	3298
32	0	0	473	1088	183	306	3297
33	0	0	271	1090	181	306	3297
34	0	0	160	1091	180	306	3296
35	0	0	101	1092	180	306	3295
36	0	0	72	1093	181	306	3295
37	0	0	385	1097	181	306	3296
38	0	0	1071	1097	180	305	3296
39	0	0	1788	1096	181	306	3296
40	0	0	2505	1096	182	306	3297
41	0	0	3134	1095	183	306	3297
42	0	0	3523	1094	185	306	3298
43	0	0	3751	1094	186	306	3297
44	0	0	3879	1092	187	306	3295
45	0	0	3953	1092	188	306	3296
46	0	0	3992	1091	189	307	3295
47	0	0	3981	1085	189	306	3296
48	0	0	3314	1084	187	306	3296
49	0	0	2440	1084	186	306	3297
50	0	0	1469	1086	185	306	3297
51	0	0	846	1087	184	306	3298
52	0	0	484	1088	183	306	3298
53	0	0	275	1089	181	306	3297
54	0	0	162	1091	181	306	3296
55	0	0	102	1092	180	306	3295
56	0	0	74	1092	180	306	3295
57	0	0	368	1097	179	307	3296
58	0	0	1051	1096	181	306	3297
59	0	0	1763	1097	182	306	3297
60	0	0	2495	1095	182	306	3298
61	0	0	3127	1095	183	306	3297
62	0	0	3516	1094	185	306	3298
63	0	0	3745	1093	185	306	3297
64	0	0	3878	1092	186	306	3295
65	0	0	3951	1090	189	306	3294
66	0	0	3989	1091	187	306	3295
67	0	0	3979	1084	188	306	3296
68	0	0	3307	1083	187	306	3297
69	0	0	2441	1084	185	306	3297
70	0	0	1483	1085	185	306	3299
71	0	0	848	1087	184	306	3298
72	0	0	484	1088	183	306	3298
73	0	0	278	1089	181	306	3298
74	0	0	164	1090	181	306	3296
75	0	0	103	1092	181	306	3295
76	0	0	74	1092	180	306	3295
77	0	0	358	1096	180	306	3296
78	0	0	1051	1097	180	305	3297
79	0	0	1769	1096	181	306	3297
80	0	0	2493	1095	182	306	3297
81	0	0	3127	1095	183	306	3298
82	0	0	3520	1094	184	306	3298
83	0	0	3747	1093	185	306	3297
84	0	0	3878	1092	187	306	3295
85	0	0	3952	1091	188	306	3294
86	0	0	3989	1090	188	306	3295
87	0	0	3976	1083	189	306	3296
88	0	0	3310	1083	187	306	3296
89	0	0	2432	1084	186	306	3298
90	0	0	1472	1085	185	306	3298
91	0	0	848	1085	184	306	3298
92	0	0	484	1087	182	306	3299
93	0	0	276	1089	181	306	3297
94	0	0	163	1090	180	306	3296
95	0	0	102	1091	180	306	3295
96	0	0	71	1092	180	306	3295
97	0	0	367	1096	181	306	3296
98	0	0	1046	1097	180	306	3297
99	0	0	1755	1096	181	306	3297
100	0	0	2489	1095	183	306	3297
101	0	0	3126	1094	184	306	3298
102	0	0	3516	1094	185	305	3298
103	0	0	3744	1093	184	306	3297
104	0	0	3878	1091	188	306	3295
105	0	0	3951	1091	188	306	3294
106	0	0	3990	1090	188	306	3295
107	0	0	3979	1084	188	306	3296
108	0	0	3310	1083	187	306	3297
109	0	0	2445	1084	186	306	3297
110	0	0	1487	1084	185	306	3298
111	0	0	849	1085	184	306	3298
112	0	0	486	1087	183	306	3298
113	0	0	279	1089	181	306	3297
114	0	0	163	1090	181	306	3296
115	0	0	103	1090	180	306	3294
116	0	0	73	1091	180	306	3295
117	0	0	355	1096	180	306	3296
118	0	0	1045	1095	180	306	3297
119	0	0	1759	1096	181	306	3297
120	0	0	2487	1095	183	306	3297
121	0	0	3125	1094	183	306	3298
122	0	0	3517	1093	185	306	3298
123	0	0	3746	1092	184	306	3297
124	0	0	3878	1091	187	306	3295
125	0	0	3952	1090	189	306	3296
126	0	0	3992	1091	187	306	3296
127	0	0	3977	1084	188	307	3296
0	0	0	3314	1083	187	306	3297
1	0	0	2444	1083	186	306	3297
2	0	0	1487	1085	185	306	3298
3	0	0	856	1085	183	306	3298
4	0	0	486	1087	184	306	3298
5	0	0	279	1088	181	306	3297
6	0	0	165	1090	179	306	3296
7	0	0	103	1091	180	306	3295
8	0	0	73	1091	180	306	3295
9	0	0	355	1096	180	305	3296
10	0	0	1039	1094	180	306	3297
11	0	0	1746	1095	181	305	3297
12	0	0	2470	1094	182	306	3299
13	0	0	3109	1095	183	306	3297
14	0	0	3505	1093	184	307	3298
15	0	0	3742	1092	186	306	3298
16	0	0	3874	1091	186	306	3295
17	0	0	3949	1089	188	306	3294
18	0	0	3989	1090	187	306	3295
19	0	0	3993	1083	189	306	3295
20	0	0	3329	1082	187	306	3297
21	0	0	2458	1083	185	306	3298
22	0	0	1495	1084	185	306	3297
23	0	0	854	1085	184	306	3298
24	0	0	488	1087	182	306	3299
25	0	0	280	1088	181	306	3297
26	0	0	164	1090	181	306	3296
27	0	0	105	1090	180	306	3295
28	0	0	73	1091	180	306	3295
29	0	0	351	1096	181	306	3296
30	0	0	1042	1095	180	306	3297
31	0	0	1753	1095	180	306	3297
32	0	0	2475	1095	183	306	3297
33	0	0	3120	1093	184	306	3298
34	0	0	3512	1092	185	305	3297
35	0	0	3742	1092	183	306	3297
36	0	0	3876	1091	187	306	3295
37	0	0	3952	1090	188	306	3295
38	0	0	3990	1089	188	306	3295
39	0	0	3996	1083	188	307	3296
40	0	0	3337	1082	187	306	3297
41	0	0	2463	1083	186	306	3297
42	0	0	1502	1084	184	306	3298
43	0	0	864	1085	185	306	3298
44	0	0	491	1087	183	305	3299
45	0	0	281	1087	181	305	3297
46	0	0	165	1089	181	306	3296
47	0	0	104	1091	180	306	3295
48	0	0	73	1091	181	305	3295
49	0	0	353	1095	180	306	3296
50	0	0	1037	1095	181	306	3296
51	0	0	1747	1095	182	306	3298
52	0	0	2475	1094	182	306	3297
53	0	0	3121	1093	184	306	3298
54	0	0	3512	1093	184	307	3298
55	0	0	3742	1091	185	306	3297
56	0	0	3877	1091	187	306	3295
57	0	0	3950	1090	188	306	3294
58	0	0	3989	1090	187	306	3295
59	0	0	3988	1082	189	306	3296
60	0	0	3319	1083	187	305	3296
61	0	0	2467	1083	187	305	3297
62	0	0	1506	1083	185	306	3299
63	0	0	866	1085	183	306	3299
64	0	0	492	1086	183	307	3298
65	0	0	282	1087	181	306	3297
66	0	0	166	1088	180	306	3295
67	0	0	104	1091	180	306	3294
68	0	0	74	1090	181	306	3295
69	0	0	339	1095	180	306	3296
70	0	0	1025	1094	180	306	3296
71	0	0	1757	1094	182	306	3297
72	0	0	2484	1093	184	306	3297
73	0	0	3122	1093	184	306	3298
74	0	0	3513	1093	185	306	3297
75	0	0	3747	1092	186	306	3297
76	0	0	3877	1090	187	306	3295
77	0	0	3951	1091	187	306	3294
78	0	0	3990	1088	188	306	3295
79	0	0	3983	1083	189	306	3296
80	0	0	3322	1082	186	306	3296
81	0	0	2468	1083	187	306	3297
82	0	0	1497	1083	184	306	3297
83	0	0	861	1085	184	306	3298
84	0	0	493	1086	182	306	3298
85	0	0	280	1087	182	305	3297
86	0	0	165	1089	181	306	3295
87	0	0	104	1090	180	306	3294
88	0	0	73	1090	180	306	3295
89	0	0	332	1095	180	304	3296
90	0	0	1021	1095	179	306	3297
91	0	0	1733	1095	181	305	3297
92	0	0	2457	1094	183	306	3298
93	0	0	3110	1093	183	306	3298
94	0	0	3505	1092	185	306	3298
95	0	0	3741	1092	185	306	3297
96	0	0	3875	1090	187	306	3295
97	0	0	3949	1089	188	306	3295
98	0	0	3990	1089	189	307	3294
99	0	0	4001	1082	187	306	3295
100	0	0	3335	1082	186	306	3296
101	0	0	2481	1082	186	306	3297
102	0	0	1518	1083	185	305	3297
103	0	0	873	1083	184	306	3298
104	0	0	496	1086	183	306	3299
105	0	0	284	1087	181	306	3297
106	0	0	166	1089	181	306	3296
107	0	0	105	1091	181	306	3294
108	0	0	73	1090	181	306	3295
109	0	0	328	1095	180	306	3296
110	0	0	1013	1095	181	306	3297
111	0	0	1732	1094	182	306	3297
112	0	0	2461	1094	183	306	3297
113	0	0	3108	1091	183	306	3298
114	0	0	3508	1092	184	306	3299
115	0	0	3740	1091	184	306	3297
116	0	0	3875	1090	187	306	3295
117	0	0	3950	1089	187	306	3295
118	0	0	3990	1089	188	307	3295
119	0	0	4001	1082	188	306	3296
120	0	0	3342	1082	187	306	3296
121	0	0	2478	1082	187	306	3297
122	0	0	1503	1082	184	306	3297
123	0	0	865	1083	184	306	3298
124	0	0	495	1085	182	306	3298
125	0	0	281	1086	180	306	3297
126	0	0	165	1088	180	306	3295
127	0	0	104	1090	179	305	3295
0	0	0	73	1090	180	305	3295
1	0	0	343	1094	181	306	3296
2	0	0	1022	1094	180	306	3296
3	0	0	1725	1094	181	306	3298
4	0	0	2459	1094	182	305	3297
5	0	0	3104	1091	183	306	3297
6	0	0	3502	1092	185	306	3297
7	0	0	3739	1091	186	306	3297
8	0	0	3873	1089	187	306	3295
9	0	0	3949	1088	187	306	3294
10	0	0	3989	1087	188	305	3295
11	0	0	4004	1082	188	306	3296
12	0	0	3342	1081	187	306	3296
13	0	0	2489	1081	186	306	3297
14	0	0	1524	1082	185	306	3297
15	0	0	872	1084	184	306	3298
16	0	0	499	1085	183	306	3298
17	0	0	285	1087	182	306	3297
18	0	0	167	1088	180	306	3296
19	0	0	105	1089	181	306	3294
20	0	0	73	1089	180	306	3295
21	0	0	324	1095	180	306	3296
22	0	0	1002	1094	181	306	3296
23	0	0	1714	1094	181	306	3297
24	0	0	2437	1093	181	306	3297
25	0	0	3089	1093	183	306	3298
26	0	0	3497	1091	184	306	3297
27	0	0	3733	1090	185	306	3297
28	0	0	3871	1090	188	306	3295
29	0	0	3947	1087	187	305	3294
30	0	0	3988	1088	188	306	3294
31	0	0	4008	1082	187	306	3295
32	0	0	3357	1081	187	306	3296
33	0	0	2483	1081	186	306	3297
34	0	0	1509	1083	184	306	3299
35	0	0	874	1084	184	306	3298
36	0	0	500	1085	183	306	3298
37	0	0	284	1087	181	306	3298
38	0	0	167	1088	181	306	3295
39	0	0	106	1089	180	306	3296
40	0	0	74	1090	181	306	3296
41	0	0	336	1094	180	306	3295
42	0	0	1018	1093	180	306	3297
43	0	0	1723	1093	180	306	3297
44	0	0	2447	1092	182	305	3298
45	0	0	3103	1092	184	306	3298
46	0	0	3500	1092	184	306	3298
47	0	0	3737	1091	185	306	3297
48	0	0	3873	1089	186	306	3295
49	0	0	3948	1088	187	306	3294
50	0	0	3989	1088	188	306	3294
51	0	0	4009	1081	188	306	3295
52	0	0	3353	1081	187	306	3296
53	0	0	2499	1081	187	306	3297
54	0	0	1534	1082	184	306	3297
55	0	0	883	1083	184	305	3298
56	0	0	502	1085	183	306	3299
57	0	0	287	1086	183	306	3297
58	0	0	167	1088	181	306	3296
59	0	0	105	1089	180	306	3294
60	0	0	73	1089	180	306	3295
61	0	0	318	1094	180	306	3296
62	0	0	1002	1093	181	306	3296
63	0	0	1722	1093	181	306	3297
64	0	0	2449	1093	182	306	3297
65	0	0	3097	1092	183	306	3298
66	0	0	3502	1091	184	306	3298
67	0	0	3737	1090	185	306	3297
68	0	0	3873	1089	187	306	3295
69	0	0	3948	1087	188	306	3294
70	0	0	3988	1088	188	306	3294
71	0	0	4003	1082	188	306	3295
72	0	0	3351	1081	186	306	3297
73	0	0	2503	1081	186	306	3297
74	0	0	1530	1081	184	307	3297
75	0	0	880	1083	184	306	3298
76	0	0	505	1084	183	307	3297
77	0	0	287	1086	182	305	3297
78	0	0	167	1087	181	306	3295
79	0	0	106	1088	180	306	3294
80	0	0	74	1089	180	306	3295
81	0	0	315	1094	179	306	3296
82	0	0	995	1093	180	306	3296
83	0	0	1704	1093	182	306	3298
84	0	0	2440	1093	183	305	3297
85	0	0	3091	1092	184	306	3297
86	0	0	3495	1091	185	306	3298
87	0	0	3732	1090	185	306	3297
88	0	0	3870	1088	187	306	3295
89	0	0	3947	1087	188	306	3294
90	0	0	3989	1088	189	306	3295
91	0	0	4009	1078	187	307	3295
92	0	0	3360	1081	188	306	3296
93	0	0	2513	1080	186	306	3297
94	0	0	1547	1081	185	306	3297
95	0	0	884	1083	184	306	3298
96	0	0	506	1085	183	306	3299
97	0	0	289	1085	181	306	3297
98	0	0	170	1087	180	305	3295
99	0	0	106	1088	180	306	3295
100	0	0	74	1089	180	306	3295
101	0	0	298	1093	180	306	3296
102	0	0	980	1094	180	306	3296
103	0	0	1699	1092	181	306	3298
104	0	0	2424	1092	183	306	3297
105	0	0	3079	1091	183	306	3298
106	0	0	3491	1091	184	306	3298
107	0	0	3730	1090	184	305	3297
108	0	0	3870	1089	186	306	3296
109	0	0	3948	1087	187	306	3294
110	0	0	3989	1087	190	306	3294
111	0	0	4008	1078	188	306	3296
112	0	0	3374	1081	188	306	3296
113	0	0	2511	1080	186	306	3297
114	0	0	1543	1081	185	306	3297
115	0	0	888	1083	185	306	3298
116	0	0	508	1083	184	307	3297
117	0	0	289	1086	182	306	3297
118	0	0	170	1087	181	305	3295
119	0	0	107	1088	180	306	3294
120	0	0	75	1089	180	306	3295
121	0	0	322	1093	181	306	3296
122	0	0	1003	1093	181	305	3296
123	0	0	1711	1093	181	306	3298
124	0	0	2445	1092	183	306	3297
125	0	0	3095	1091	183	306	3297
126	0	0	3495	1090	184	306	3297
127	0	0	3734	1089	186	307	3297
0	0	0	3872	1088	187	306	3295
1	0	0	3948	1087	189	305	3295
2	0	0	3990	1087	189	306	3295
3	0	0	4009	1081	188	306	3295
4	0	0	3360	1080	187	306	3296
5	0	0	2520	1080	185	306	3297
6	0	0	1556	1081	185	306	3299
7	0	0	889	1083	184	306	3298
8	0	0	508	1084	184	306	3298
9	0	0	291	1085	183	306	3297
10	0	0	171	1085	181	305	3295
11	0	0	106	1088	179	306	3294
12	0	0	75	1088	180	306	3295
13	0	0	294	1092	180	306	3295
14	0	0	984	1092	180	306	3296
15	0	0	1687	1092	181	306	3296
16	0	0	2411	1091	182	305	3298
17	0	0	3073	1092	183	306	3298
18	0	0	3487	1090	184	306	3297
19	0	0	3730	1089	185	306	3297
20	0	0	3866	1087	187	306	3295
21	0	0	3945	1087	188	306	3294
22	0	0	3987	1086	189	306	3294
23	0	0	4007	1076	187	307	3295
24	0	0	3373	1080	187	306	3296
25	0	0	2528	1079	186	306	3296
26	0	0	1549	1081	186	306	3297
27	0	0	892	1082	183	306	3297
28	0	0	509	1083	183	306	3297
29	0	0	290	1085	182	305	3297
30	0	0	170	1086	180	305	3295
31	0	0	107	1087	179	306	3294
32	0	0	75	1088	179	306	3294
33	0	0	307	1092	180	307	3295
34	0	0	993	1092	180	307	3296
35	0	0	1699	1092	181	306	3298
36	0	0	2432	1092	182	306	3297
37	0	0	3085	1090	182	306	3298
38	0	0	3491	1090	184	306	3298
39	0	0	3730	1089	184	306	3297
40	0	0	3871	1088	186	306	3296
41	0	0	3948	1087	188	306	3294
42	0	0	3988	1087	188	304	3295
43	0	0	4009	1077	189	305	3296
44	0	0	3372	1079	188	307	3296
45	0	0	2533	1080	186	306	3297
46	0	0	1564	1080	185	306	3297
47	0	0	894	1081	183	306	3297
48	0	0	511	1083	183	306	3297
49	0	0	292	1084	182	306	3297
50	0	0	172	1085	180	306	3295
51	0	0	106	1087	180	305	3294
52	0	0	75	1088	181	307	3294
53	0	0	295	1092	181	306	3295
54	0	0	975	1092	181	306	3297
55	0	0	1692	1091	181	306	3297
56	0	0	2417	1091	182	305	3298
57	0	0	3076	1091	183	306	3298
58	0	0	3488	1090	184	306	3298
59	0	0	3729	1089	187	306	3297
60	0	0	3868	1087	187	305	3295
61	0	0	3947	1086	188	306	3294
62	0	0	3988	1086	188	306	3294
63	0	0	4008	1078	188	306	3295
64	0	0	3384	1079	188	306	3296
65	0	0	2537	1080	186	306	3296
66	0	0	1570	1080	185	306	3297
67	0	0	904	1082	184	307	3297
68	0	0	517	1083	182	306	3297
69	0	0	294	1084	181	306	3297
70	0	0	173	1085	180	306	3295
71	0	0	108	1087	180	305	3294
72	0	0	75	1087	180	306	3294
73	0	0	300	1092	180	306	3295
74	0	0	979	1091	180	306	3296
75	0	0	1683	1092	182	306	3297
76	0	0	2414	1092	183	306	3297
77	0	0	3074	1090	183	306	3297
78	0	0	3482	1089	185	306	3297
79	0	0	3727	1089	185	306	3296
80	0	0	3867	1087	187	306	3295
81	0	0	3945	1086	188	306	3294
82	0	0	3987	1085	188	307	3294
83	0	0	4007	1077	188	306	3295
84	0	0	3378	1079	187	306	3296
85	0	0	2534	1079	186	306	3296
86	0	0	1567	1080	186	306	3297
87	0	0	895	1082	184	306	3297
88	0	0	512	1083	182	306	3298
89	0	0	293	1084	182	306	3298
90	0	0	172	1086	181	306	3296
91	0	0	107	1087	181	306	3295
92	0	0	75	1089	180	306	3295
93	0	0	297	1092	180	306	3296
94	0	0	984	1091	180	306	3296
95	0	0	1691	1092	181	306	3297
96	0	0	2411	1091	182	305	3297
97	0	0	3069	1091	183	306	3297
98	0	0	3484	1089	185	306	3297
99	0	0	3728	1089	184	306	3297
100	0	0	3867	1087	187	306	3295
101	0	0	3945	1086	188	306	3294
102	0	0	3988	1086	188	306	3294
103	0	0	4007	1078	188	306	3295
104	0	0	3381	1079	187	305	3296
105	0	0	2535	1079	187	306	3296
106	0	0	1570	1080	185	306	3297
107	0	0	903	1083	184	306	3298
108	0	0	518	1083	182	306	3298
109	0	0	294	1084	182	306	3297
110	0	0	172	1085	181	306	3296
111	0	0	107	1087	180	306	3294
112	0	0	74	1088	180	306	3294
113	0	0	303	1092	181	306	3295
114	0	0	992	1091	180	305	3296
115	0	0	1693	1091	181	306	3296
116	0	0	2418	1091	181	306	3297
117	0	0	3073	1090	182	306	3297
118	0	0	3483	1089	185	306	3297
119	0	0	3727	1088	185	305	3296
120	0	0	3867	1087	186	306	3295
121	0	0	3945	1086	187	306	3294
122	0	0	3988	1085	189	306	3294
123	0	0	4007	1079	187	306	3295
124	0	0	3388	1079	187	306	3297
125	0	0	2551	1079	186	306	3296
126	0	0	1583	1080	185	306	3298
127	0	0	905	1081	184	306	3298
0	0	0	518	1083	183	306	3298
1	0	0	296	1084	182	306	3297
2	0	0	172	1085	180	306	3295
3	0	0	107	1086	180	306	3294
4	0	0	75	1087	181	306	3294
5	0	0	299	1092	180	306	3295
6	0	0	989	1091	181	305	3296
7	0	0	1687	1091	181	306	3296
8	0	0	2403	1090	183	306	3297
9	0	0	3061	1090	183	306	3298
10	0	0	3482	1089	184	306	3298
11	0	0	3724	1088	185	306	3297
12	0	0	3865	1087	187	306	3295
13	0	0	3945	1086	187	305	3295
14	0	0	3987	1085	188	306	3294
15	0	0	4008	1083	187	306	3295
16	0	0	3399	1078	187	305	3296
17	0	0	2556	1078	187	306	3296
18	0	0	1588	1080	184	306	3298
19	0	0	914	1081	184	306	3298
20	0	0	520	1082	183	306	3298
21	0	0	297	1083	181	305	3297
22	0	0	174	1086	181	306	3295
23	0	0	108	1086	180	306	3294
24	0	0	74	1086	181	306	3294
25	0	0	287	1092	180	306	3295
26	0	0	968	1091	180	305	3296
27	0	0	1667	1090	181	306	3296
28	0	0	2396	1090	181	306	3298
29	0	0	3058	1090	183	306	3298
30	0	0	3474	1090	184	306	3297
31	0	0	3725	1088	186	306	3297
32	0	0	3865	1087	187	306	3295
33	0	0	3943	1086	187	305	3294
34	0	0	3986	1086	188	305	3294
35	0	0	4008	1080	188	307	3295
36	0	0	3387	1078	187	305	3296
37	0	0	2563	1078	186	306	3296
38	0	0	1594	1079	185	306	3297
39	0	0	910	1081	184	306	3298
40	0	0	521	1083	183	306	3298
41	0	0	298	1083	183	306	3297
42	0	0	173	1085	181	306	3295
43	0	0	108	1086	181	306	3294
44	0	0	75	1087	179	306	3294
45	0	0	280	1091	180	306	3295
46	0	0	971	1091	180	306	3297
47	0	0	1668	1091	181	306	3296
48	0	0	2385	1090	182	306	3297
49	0	0	3056	1089	183	306	3297
50	0	0	3474	1089	184	306	3297
51	0	0	3720	1088	185	305	3297
52	0	0	3864	1087	187	306	3295
53	0	0	3944	1085	188	306	3294
54	0	0	3987	1086	188	306	3295
55	0	0	4008	1084	189	306	3296
56	0	0	3399	1078	187	306	3296
57	0	0	2569	1078	187	306	3296
58	0	0	1604	1079	185	306	3297
59	0	0	922	1081	185	306	3298
60	0	0	524	1082	182	306	3298
61	0	0	300	1084	182	305	3297
62	0	0	176	1085	181	306	3296
63	0	0	109	1086	180	306	3294
64	0	0	75	1087	179	306	3295
65	0	0	282	1091	180	306	3296
66	0	0	969	1091	180	306	3296
67	0	0	1672	1091	180	306	3296
68	0	0	2390	1090	182	306	3297
69	0	0	3056	1089	183	306	3297
70	0	0	3473	1089	184	306	3297
71	0	0	3722	1089	185	305	3297
72	0	0	3865	1087	187	306	3296
73	0	0	3945	1085	187	306	3294
74	0	0	3985	1086	187	306	3294
75	0	0	4007	1085	187	306	3295
76	0	0	3407	1078	187	306	3296
77	0	0	2584	1078	186	306	3296
78	0	0	1604	1079	184	306	3297
79	0	0	923	1081	185	306	3297
80	0	0	528	1082	183	306	3298
81	0	0	302	1084	182	306	3297
82	0	0	175	1085	181	306	3295
83	0	0	109	1086	179	306	3295
84	0	0	75	1087	179	306	3294
85	0	0	282	1091	180	306	3295
86	0	0	964	1091	181	306	3296
87	0	0	1662	1090	182	306	3296
88	0	0	2381	1090	182	306	3297
89	0	0	3053	1090	183	305	3297
90	0	0	3471	1088	185	306	3297
91	0	0	3719	1088	185	305	3297
92	0	0	3863	1086	187	306	3296
93	0	0	3944	1085	188	307	3294
94	0	0	3986	1085	188	306	3294
95	0	0	4009	1085	187	306	3296
96	0	0	3399	1078	187	305	3296
97	0	0	2579	1078	186	306	3296
98	0	0	1611	1079	185	306	3297
99	0	0	926	1080	184	306	3297
100	0	0	526	1082	183	306	3297
101	0	0	301	1083	182	305	3297
102	0	0	176	1084	181	307	3295
103	0	0	109	1086	181	306	3294
104	0	0	75	1086	180	306	3294
105	0	0	278	1091	180	306	3295
106	0	0	959	1091	181	305	3296
107	0	0	1667	1091	181	306	3297
108	0	0	2381	1090	181	306	3297
109	0	0	3043	1089	183	306	3298
110	0	0	3467	1089	184	306	3298
111	0	0	3717	1087	185	306	3297
112	0	0	3861	1087	186	306	3295
113	0	0	3942	1085	187	306	3294
114	0	0	3986	1085	187	306	3294
115	0	0	4006	1083	189	306	3295
116	0	0	3401	1078	186	305	3296
117	0	0	2581	1078	186	306	3296
118	0	0	1604	1079	185	306	3298
119	0	0	922	1081	184	306	3298
120	0	0	526	1082	183	306	3298
121	0	0	300	1083	183	306	3298
122	0	0	177	1083	181	306	3295
123	0	0	110	1085	179	306	3296
124	0	0	75	1086	180	306	3295
125	0	0	273	1090	180	306	3295
126	0	0	956	1091	181	305	3296
127	0	0	1659	1090	181	306	3296
0	0	0	2375	1090	181	306	3297
1	0	0	3041	1089	183	306	3297
2	0	0	3464	1089	183	306	3297
3	0	0	3716	1087	185	305	3297
4	0	0	3860	1086	187	306	3295
5	0	0	3942	1085	188	306	3295
6	0	0	3985	1085	187	306	3295
7	0	0	4005	1084	188	306	3294
8	0	0	3410	1078	187	304	3296
9	0	0	2593	1078	185	306	3296
10	0	0	1617	1079	184	306	3298
11	0	0	930	1080	184	306	3298
12	0	0	533	1082	183	306	3297
13	0	0	304	1083	181	306	3298
14	0	0	178	1084	181	306	3295
15	0	0	110	1086	180	306	3295
16	0	0	76	1087	181	306	3296
17	0	0	276	1091	180	306	3295
18	0	0	956	1091	180	306	3297
19	0	0	1650	1090	182	306	3296
20	0	0	2363	1089	182	306	3298
21	0	0	3038	1089	183	306	3297
22	0	0	3462	1089	184	306	3297
23	0	0	3713	1087	185	305	3297
24	0	0	3860	1087	186	305	3295
25	0	0	3940	1085	187	306	3294
26	0	0	3985	1084	188	306	3294
27	0	0	4006	1085	187	306	3295
28	0	0	3418	1078	188	305	3296
29	0	0	2609	1078	186	306	3296
30	0	0	1641	1079	185	306	3297
31	0	0	944	1080	184	306	3298
32	0	0	537	1082	183	306	3298
33	0	0	307	1082	182	305	3297
34	0	0	179	1084	180	306	3296
35	0	0	110	1087	181	306	3294
36	0	0	76	1086	179	306	3294
37	0	0	262	1091	180	306	3296
38	0	0	947	1091	181	306	3296
39	0	0	1645	1090	181	306	3296
40	0	0	2359	1090	182	305	3297
41	0	0	3031	1090	183	306	3297
42	0	0	3457	1088	184	306	3298
43	0	0	3715	1089	185	305	3297
44	0	0	3859	1086	187	306	3295
45	0	0	3940	1085	188	306	3294
46	0	0	3986	1085	188	306	3294
47	0	0	4006	1085	188	306	3295
48	0	0	3418	1077	187	306	3296
49	0	0	2604	1078	186	306	3297
50	0	0	1624	1079	187	306	3297
51	0	0	934	1080	184	306	3298
52	0	0	534	1081	183	306	3298
53	0	0	303	1082	182	305	3297
54	0	0	177	1085	181	306	3295
55	0	0	110	1085	180	307	3294
56	0	0	76	1087	180	305	3294
57	0	0	273	1091	181	306	3296
58	0	0	951	1090	180	306	3296
59	0	0	1640	1090	181	306	3296
60	0	0	2354	1090	181	306	3298
61	0	0	3031	1090	182	306	3298
62	0	0	3457	1088	184	306	3297
63	0	0	3713	1087	185	306	3298
64	0	0	3860	1086	186	306	3295
65	0	0	3940	1085	189	306	3294
66	0	0	3984	1085	188	306	3294
67	0	0	4005	1085	188	306	3295
68	0	0	3420	1078	187	306	3296
69	0	0	2608	1078	187	306	3296
70	0	0	1642	1079	185	306	3297
71	0	0	945	1081	184	306	3297
72	0	0	537	1082	183	306	3297
73	0	0	307	1083	181	306	3297
74	0	0	180	1084	181	306	3296
75	0	0	110	1086	181	305	3294
76	0	0	76	1086	180	306	3294
77	0	0	260	1090	179	306	3295
78	0	0	941	1091	180	306	3296
79	0	0	1644	1091	181	306	3296
80	0	0	2359	1090	182	306	3297
81	0	0	3030	1088	183	306	3297
82	0	0	3460	1088	184	306	3297
83	0	0	3713	1087	186	306	3297
84	0	0	3860	1086	187	306	3296
85	0	0	3941	1085	188	306	3294
86	0	0	3985	1085	187	306	3294
87	0	0	4005	1084	188	306	3295
88	0	0	3423	1078	187	306	3296
89	0	0	2619	1078	186	306	3296
90	0	0	1642	1079	184	306	3298
91	0	0	945	1080	184	306	3298
92	0	0	541	1081	183	306	3298
93	0	0	307	1083	182	306	3297
94	0	0	179	1084	181	306	3295
95	0	0	111	1085	180	306	3296
96	0	0	76	1087	180	306	3294
97	0	0	248	1091	180	306	3296
98	0	0	930	1090	180	306	3296
99	0	0	1626	1090	181	306	3296
100	0	0	2351	1090	181	306	3297
101	0	0	3023	1090	183	306	3297
102	0	0	3453	1089	184	306	3298
103	0	0	3708	1087	185	306	3297
104	0	0	3856	1086	187	305	3295
105	0	0	3940	1085	188	306	3295
106	0	0	3985	1085	188	306	3294
107	0	0	4004	1086	187	306	3295
108	0	0	3431	1078	187	306	3296
109	0	0	2616	1077	185	306	3296
110	0	0	1646	1078	185	305	3297
111	0	0	948	1080	183	306	3297
112	0	0	538	1081	183	306	3298
113	0	0	307	1082	183	306	3297
114	0	0	179	1084	181	306	3295
115	0	0	109	1085	179	305	3294
116	0	0	76	1087	180	306	3294
117	0	0	250	1090	180	306	3296
118	0	0	930	1091	180	306	3296
119	0	0	1634	1091	181	306	3296
120	0	0	2343	1090	182	306	3297
121	0	0	3017	1090	183	305	3298
122	0	0	3449	1088	185	306	3298
123	0	0	3710	1088	184	306	3297
124	0	0	3857	1086	187	306	3295
125	0	0	3939	1085	188	306	3294
126	0	0	3984	1085	187	306	3294
127	0	0	4005	1085	189	306	3295
0	0	0	3440	1078	187	306	3296
1	0	0	2640	1078	186	306	3296
2	0	0	1661	1079	185	306	3297
3	0	0	956	1080	184	306	3298
4	0	0	547	1081	184	306	3298
5	0	0	310	1082	182	306	3297
6	0	0	181	1083	180	306	3296
7	0	0	111	1085	181	306	3294
8	0	0	76	1086	179	307	3294
9	0	0	234	1091	180	306	3295
10	0	0	915	1090	180	306	3296
11	0	0	1616	1091	181	306	3296
12	0	0	2332	1090	182	306	3297
13	0	0	3017	1089	183	306	3297
14	0	0	3449	1089	184	306	3297
15	0	0	3708	1088	185	306	3297
16	0	0	3857	1086	187	306	3295
17	0	0	3938	1085	188	306	3294
18	0	0	3983	1085	186	306	3294
19	0	0	4007	1084	188	306	3296
20	0	0	3436	1078	187	306	3296
21	0	0	2630	1077	187	307	3297
22	0	0	1660	1079	186	305	3297
23	0	0	955	1080	184	305	3298
24	0	0	543	1082	182	306	3298
25	0	0	310	1082	183	306	3297
26	0	0	180	1084	180	306	3295
27	0	0	111	1085	181	306	3294
28	0	0	76	1086	180	305	3295
29	0	0	230	1090	180	306	3295
30	0	0	917	1090	180	306	3296
31	0	0	1622	1090	181	306	3296
32	0	0	2337	1089	183	306	3297
33	0	0	3014	1089	183	306	3298
34	0	0	3451	1088	184	306	3297
35	0	0	3709	1087	185	306	3297
36	0	0	3855	1085	186	306	3295
37	0	0	3938	1085	188	306	3295
38	0	0	3985	1085	188	306	3295
39	0	0	4004	1086	187	306	3295
40	0	0	3434	1078	187	306	3296
41	0	0	2642	1078	187	306	3296
42	0	0	1674	1079	186	306	3297
43	0	0	963	1080	184	305	3297
44	0	0	552	1080	183	306	3298
45	0	0	313	1082	182	306	3297
46	0	0	182	1084	181	306	3295
47	0	0	112	1085	180	306	3294
48	0	0	77	1086	180	305	3294
49	0	0	238	1090	180	306	3295
50	0	0	914	1090	180	306	3296
51	0	0	1615	1090	181	306	3297
52	0	0	2327	1090	183	306	3297
53	0	0	3001	1089	182	306	3297
54	0	0	3441	1088	185	306	3298
55	0	0	3700	1087	185	306	3297
56	0	0	3852	1086	187	306	3295
57	0	0	3938	1085	187	306	3294
58	0	0	3983	1085	188	305	3294
59	0	0	4004	1084	188	306	3295
60	0	1	3445	1077	187	306	3296
61	0	1	2634	1078	187	306	3296
62	0	1	1675	1079	185	306	3298
63	0	1	957	1080	184	306	3298
64	0	1	548	1080	184	305	3298
65	0	1	313	1083	182	306	3297
66	0	1	184	1084	181	306	3295
67	0	1	112	1085	180	306	3294
