# bioPlux Text File Format
# Version: 1
# StartDateTime: 2011-07-18 14:54:09
# SamplingFrequency: 1000
# SampledChannels: 1 2 3 4
# SamplingResolution: 12
# AcquiringDevice: 00:07:80:42:0F:8B
# EndOfHeader
0	0	0	1967	751	2782	59
1	0	0	2010	749	2784	60
2	0	0	2080	753	2787	58
3	0	0	2125	752	2785	62
4	0	0	2154	752	2785	58
5	0	0	2172	753	2781	59
6	0	0	2200	752	2778	59
7	0	0	2208	751	2777	58
8	0	0	2161	749	2778	57
9	0	0	2117	750	2780	59
10	0	0	2066	749	2781	59
11	0	0	2009	747	2784	60
12	0	0	1962	750	2785	55
13	0	0	1964	752	2785	58
14	0	0	1972	752	2785	55
15	0	0	1980	752	2781	55
16	0	0	1995	751	2778	62
17	0	0	2023	753	2777	58
18	0	0	2075	753	2777	62
19	0	0	2116	752	2779	56
20	0	0	2155	752	2783	56
21	0	0	2225	751	2783	56
22	0	0	2292	753	2785	59
23	0	0	2352	753	2786	57
24	0	0	2424	753	2785	59
25	0	0	2484	752	2781	59
26	0	0	2533	754	2778	59
27	0	0	2574	754	2776	59
28	0	0	2582	752	2778	58
29	0	0	2524	750	2778	59
30	0	0	2440	749	2781	59
31	0	0	2365	749	2784	58
32	0	0	2317	749	2786	55
33	0	0	2278	749	2786	59
34	0	0	2217	749	2785	58
35	0	0	2185	751	2783	59
36	0	0	2183	753	2778	55
37	0	0	2182	752	2777	55
38	0	0	2183	753	2778	55
39	0	0	2184	753	2780	55
40	0	0	2195	753	2781	57
41	0	0	2222	752	2783	60
42	0	0	2245	752	2785	58
43	0	0	2228	751	2786	55
44	0	0	2214	753	2785	58
45	0	0	2209	753	2781	59
46	0	0	2214	753	2778	56
47	0	0	2197	750	2777	59
48	0	0	2147	749	2778	57
49	0	0	2090	749	2778	59
50	0	0	2020	749	2782	59
51	0	0	1946	750	2784	58
52	0	0	1902	749	2785	57
53	0	0	1864	750	2786	58
54	0	0	1828	750	2784	59
55	0	0	1813	751	2782	58
56	0	0	1821	752	2777	53
57	0	0	1844	752	2776	57
58	0	0	1865	753	2777	55
59	0	0	1875	752	2779	56
60	0	0	1883	752	2781	61
61	0	0	1909	753	2784	58
62	0	0	1973	752	2785	58
63	0	0	2041	753	2786	57
64	0	0	2081	752	2784	59
65	0	0	2093	753	2782	59
66	0	0	2125	752	2778	59
67	0	0	2133	753	2776	61
68	0	0	2112	750	2778	59
69	0	0	2057	748	2780	59
70	0	0	1979	749	2782	59
71	0	0	1923	750	2784	58
72	0	0	1903	752	2785	59
73	0	0	1896	753	2785	53
74	0	0	1887	751	2783	56
75	0	0	1884	752	2781	56
76	0	0	1877	753	2777	55
77	0	0	1864	751	2776	59
78	0	0	1878	752	2777	57
79	0	0	1916	752	2779	59
80	0	0	1945	752	2782	56
81	0	0	1938	756	2783	56
82	0	0	1978	753	2786	58
83	0	0	2049	753	2787	59
84	0	0	2114	753	2783	61
85	0	0	2162	752	2783	59
86	0	0	2158	750	2778	55
87	0	0	2104	750	2777	58
88	0	0	2089	753	2778	58
89	0	0	2071	751	2779	59
90	0	0	2040	750	2782	58
91	0	0	2002	751	2783	56
92	0	0	1972	751	2785	55
93	0	0	1958	752	2786	53
94	0	0	1946	751	2784	57
95	0	0	1918	749	2782	58
96	0	0	1905	751	2778	58
97	0	0	1922	753	2776	55
98	0	0	1955	752	2778	53
99	0	0	1966	753	2779	57
100	0	0	1970	753	2783	56
101	0	0	1995	754	2783	58
102	0	0	2035	753	2785	57
103	0	0	2085	754	2786	55
104	0	0	2127	752	2785	59
105	0	0	2149	753	2781	57
106	0	0	2178	751	2778	59
107	0	0	2201	753	2776	59
108	0	0	2192	751	2777	56
109	0	0	2159	751	2779	58
110	0	0	2109	749	2781	60
111	0	0	2044	748	2784	58
112	0	0	1992	750	2786	58
113	0	0	1952	750	2785	56
114	0	0	1931	751	2785	55
115	0	0	1929	753	2781	55
116	0	0	1918	750	2778	56
117	0	0	1907	754	2777	55
118	0	0	1934	753	2779	57
119	0	0	1982	751	2779	56
120	0	0	2021	753	2782	59
121	0	0	2064	751	2784	55
122	0	0	2094	753	2785	59
123	0	0	2108	753	2786	56
124	0	0	2115	751	2784	56
125	0	0	2137	753	2781	59
126	0	0	2172	751	2778	59
127	0	0	2187	752	2776	59
0	0	0	2157	750	2777	56
1	0	0	2103	750	2779	58
2	0	0	2043	748	2781	59
3	0	0	1989	748	2784	58
4	0	0	1956	749	2786	55
5	0	0	1940	753	2787	56
6	0	0	1931	751	2785	55
7	0	0	1908	750	2782	62
8	0	0	1882	750	2778	60
9	0	0	1898	753	2777	58
10	0	0	1936	752	2778	56
11	0	0	1955	752	2779	55
12	0	0	1972	752	2781	55
13	0	0	1999	751	2784	55
14	0	0	2026	753	2785	57
15	0	0	2075	752	2785	56
16	0	0	2144	753	2784	57
17	0	0	2200	753	2781	58
18	0	0	2255	752	2778	57
19	0	0	2265	753	2776	59
20	0	0	2247	750	2778	60
21	0	0	2203	750	2779	59
22	0	0	2130	749	2782	61
23	0	0	2040	747	2785	58
24	0	0	1970	749	2786	58
25	0	0	1927	748	2786	60
26	0	0	1906	751	2785	58
27	0	0	1904	753	2782	56
28	0	0	1923	754	2777	55
29	0	0	1945	754	2776	55
30	0	0	1986	754	2778	53
31	0	0	2034	752	2778	62
32	0	0	2085	754	2781	56
33	0	0	2104	751	2784	55
34	0	0	2109	753	2785	56
35	0	0	2123	752	2786	57
36	0	0	2152	751	2784	57
37	0	0	2167	753	2782	59
38	0	0	2180	753	2778	59
39	0	0	2187	753	2777	57
40	0	0	2193	754	2778	59
41	0	0	2173	750	2779	59
42	0	0	2107	750	2783	59
43	0	0	2038	752	2784	56
44	0	0	1993	751	2785	58
45	0	0	1965	749	2786	56
46	0	0	1935	752	2783	60
47	0	0	1933	753	2781	55
48	0	0	1953	752	2778	54
49	0	0	1965	753	2777	53
50	0	0	2032	752	2777	56
51	0	0	2100	753	2778	59
52	0	0	2116	753	2782	58
53	0	0	2115	752	2784	58
54	0	0	2142	754	2786	56
55	0	0	2181	754	2786	58
56	0	0	2201	754	2784	58
57	0	0	2197	754	2781	59
58	0	0	2217	753	2779	58
59	0	0	2237	754	2778	59
60	0	0	2222	753	2778	60
61	0	0	2199	752	2780	58
62	0	0	2163	750	2781	55
63	0	0	2103	750	2783	59
64	0	0	2063	752	2785	55
65	0	0	2027	751	2786	53
66	0	0	1989	749	2784	55
67	0	0	1978	753	2781	55
68	0	0	1975	751	2777	58
69	0	0	1979	754	2777	56
70	0	0	2004	754	2777	58
71	0	0	2030	752	2780	55
72	0	0	2062	754	2782	56
73	0	0	2099	751	2784	55
74	0	0	2151	753	2786	56
75	0	0	2185	753	2785	59
76	0	0	2195	753	2784	57
77	0	0	2221	754	2783	59
78	0	0	2268	754	2779	62
79	0	0	2265	755	2776	58
80	0	0	2239	752	2778	59
81	0	0	2211	751	2779	59
82	0	0	2163	749	2781	59
83	0	0	2112	749	2783	58
84	0	0	2088	753	2786	52
85	0	0	2087	754	2786	59
86	0	0	2083	754	2784	59
87	0	0	2068	755	2780	59
88	0	0	2061	753	2779	56
89	0	0	2057	753	2777	58
90	0	0	2063	753	2778	59
91	0	0	2079	753	2779	55
92	0	0	2105	754	2782	59
93	0	0	2146	753	2784	58
94	0	0	2177	755	2785	58
95	0	0	2201	754	2786	58
96	0	0	2252	754	2784	59
97	0	0	2300	753	2781	59
98	0	0	2344	754	2777	60
99	0	0	2361	754	2777	58
100	0	0	2324	751	2778	57
101	0	0	2273	751	2778	57
102	0	0	2222	751	2781	59
103	0	0	2158	749	2784	58
104	0	0	2103	752	2786	56
105	0	0	2086	754	2786	55
106	0	0	2103	754	2785	56
107	0	0	2113	754	2783	56
108	0	0	2092	753	2777	56
109	0	0	2092	751	2777	59
110	0	0	2124	753	2778	58
111	0	0	2166	753	2778	55
112	0	0	2211	751	2781	56
113	0	0	2256	754	2783	58
114	0	0	2282	754	2785	58
115	0	0	2302	753	2786	58
116	0	0	2314	752	2785	59
117	0	0	2317	754	2782	59
118	0	0	2339	754	2778	58
119	0	0	2360	754	2776	60
120	0	0	2358	752	2778	55
121	0	0	2322	751	2780	57
122	0	0	2271	750	2781	59
123	0	0	2207	751	2784	60
124	0	0	2159	752	2786	57
125	0	0	2134	752	2785	55
126	0	0	2116	752	2785	58
127	0	0	2094	752	2782	61
0	0	0	2075	752	2777	56
1	0	0	2074	754	2776	55
2	0	0	2113	754	2777	55
3	0	0	2152	754	2780	56
4	0	0	2198	754	2781	56
5	0	0	2260	755	2783	59
6	0	0	2330	754	2785	60
7	0	0	2381	754	2786	59
8	0	0	2380	756	2785	58
9	0	0	2353	753	2781	59
10	0	0	2362	755	2778	59
11	0	0	2370	754	2776	59
12	0	0	2364	755	2778	55
13	0	0	2326	751	2780	62
14	0	0	2283	751	2783	59
15	0	0	2242	752	2784	58
16	0	0	2209	752	2785	60
17	0	0	2186	753	2785	55
18	0	0	2160	751	2785	58
19	0	0	2127	751	2781	59
20	0	0	2088	752	2777	59
21	0	0	2072	753	2776	55
22	0	0	2096	755	2777	53
23	0	0	2153	753	2780	53
24	0	0	2214	754	2782	55
25	0	0	2251	754	2785	59
26	0	0	2265	751	2781	59
27	0	0	2289	754	2786	58
28	0	0	2318	753	2785	57
29	0	0	2337	755	2783	59
30	0	0	2348	754	2779	59
31	0	0	2331	750	2777	58
32	0	0	2293	751	2778	58
33	0	0	2255	751	2779	59
34	0	0	2209	750	2781	59
35	0	0	2159	751	2783	59
36	0	0	2127	751	2784	59
37	0	0	2082	751	2786	57
38	0	0	2020	750	2784	55
39	0	0	1980	752	2781	56
40	0	0	1961	754	2777	55
41	0	0	1968	754	2776	56
42	0	0	1975	754	2778	56
43	0	0	1983	754	2779	58
44	0	0	2023	754	2783	58
45	0	0	2103	754	2783	56
46	0	0	2148	751	2786	58
47	0	0	2162	754	2787	59
48	0	0	2162	755	2785	57
49	0	0	2164	755	2782	59
50	0	0	2179	754	2777	59
51	0	0	2167	752	2776	61
52	0	0	2131	751	2777	58
53	0	0	2099	751	2779	57
54	0	0	2040	750	2781	59
55	0	0	1958	750	2784	57
56	0	0	1912	752	2786	55
57	0	0	1904	754	2786	56
58	0	0	1906	755	2785	55
59	0	0	1911	755	2782	59
60	0	0	1916	754	2778	59
61	0	0	1915	751	2777	57
62	0	0	1911	754	2778	56
63	0	0	1915	751	2781	55
64	0	0	1922	755	2782	56
65	0	0	1935	753	2783	57
66	0	0	1964	753	2785	58
67	0	0	2012	757	2786	60
68	0	0	2055	755	2785	57
69	0	0	2070	755	2783	59
70	0	0	2089	755	2778	59
71	0	0	2088	756	2777	58
72	0	0	2074	754	2777	59
73	0	0	2050	753	2779	58
74	0	0	1996	751	2781	59
75	0	0	1923	752	2784	58
76	0	0	1885	751	2785	58
77	0	0	1872	754	2786	56
78	0	0	1863	753	2785	57
79	0	0	1850	753	2783	53
80	0	0	1840	751	2778	55
81	0	0	1846	753	2777	56
82	0	0	1863	755	2777	56
83	0	0	1886	754	2779	58
84	0	0	1915	755	2781	59
85	0	0	1924	755	2782	59
86	0	0	1954	755	2785	55
87	0	0	2000	755	2785	55
88	0	0	2034	755	2784	57
89	0	0	2060	755	2781	58
90	0	0	2108	755	2777	58
91	0	0	2115	754	2776	55
92	0	0	2094	754	2778	60
93	0	0	2063	752	2780	56
94	0	0	2002	751	2781	59
95	0	0	1931	751	2784	57
96	0	0	1867	752	2786	58
97	0	0	1829	751	2786	56
98	0	0	1814	754	2784	54
99	0	0	1814	755	2782	56
100	0	0	1802	754	2777	58
101	0	0	1807	754	2776	58
102	0	0	1829	755	2778	60
103	0	0	1848	755	2778	55
104	0	0	1887	755	2781	57
105	0	0	1931	755	2783	54
106	0	0	1991	755	2784	55
107	0	0	2043	755	2786	59
108	0	0	2066	755	2784	57
109	0	0	2068	755	2782	60
110	0	0	2071	756	2779	56
111	0	0	2077	755	2776	56
112	0	0	2087	756	2778	58
113	0	0	2079	754	2779	59
114	0	0	2032	752	2782	59
115	0	0	1973	752	2784	56
116	0	0	1923	752	2786	55
117	0	0	1897	753	2786	57
118	0	0	1881	754	2785	58
119	0	0	1876	755	2781	59
120	0	0	1865	754	2778	56
121	0	0	1862	756	2777	60
122	0	0	1875	756	2777	55
123	0	0	1911	755	2778	56
124	0	0	1951	755	2781	59
125	0	0	1995	755	2783	59
126	0	0	2033	754	2785	58
127	0	0	2055	756	2786	58
0	0	0	2062	755	2785	60
1	0	0	2081	756	2782	59
2	0	0	2113	756	2779	56
3	0	0	2114	756	2777	56
4	0	0	2107	756	2778	59
5	0	0	2089	752	2779	62
6	0	0	2035	751	2781	59
7	0	0	1995	751	2783	59
8	0	0	1967	755	2785	55
9	0	0	1960	755	2785	62
10	0	0	1916	752	2784	60
11	0	0	1879	753	2782	59
12	0	0	1878	753	2778	55
13	0	0	1885	754	2776	55
14	0	0	1915	756	2777	55
15	0	0	1948	756	2779	56
16	0	0	1983	755	2781	59
17	0	0	2005	756	2784	58
18	0	0	2013	756	2786	58
19	0	0	2035	757	2786	56
20	0	0	2068	756	2784	60
21	0	0	2099	755	2783	59
22	0	0	2128	759	2778	60
23	0	0	2131	754	2776	59
24	0	0	2105	754	2777	59
25	0	0	2062	753	2778	60
26	0	0	2011	753	2780	59
27	0	0	1972	753	2784	56
28	0	0	1942	754	2785	58
29	0	0	1905	754	2785	54
30	0	0	1889	755	2784	58
31	0	0	1885	755	2781	56
32	0	0	1876	753	2777	54
33	0	0	1858	756	2777	58
34	0	0	1885	756	2778	59
35	0	0	1933	756	2780	59
36	0	0	1956	757	2781	55
37	0	0	1976	756	2783	56
38	0	0	2026	754	2785	58
39	0	0	2073	757	2786	57
40	0	0	2109	756	2784	61
41	0	0	2100	755	2782	59
42	0	0	2101	756	2778	56
43	0	0	2108	756	2776	59
44	0	0	2100	757	2777	59
45	0	0	2079	754	2779	61
46	0	0	2027	753	2781	59
47	0	0	1964	754	2783	60
48	0	0	1928	753	2785	56
49	0	0	1913	754	2786	58
50	0	0	1904	757	2785	59
51	0	0	1904	756	2782	59
52	0	0	1893	755	2778	60
53	0	0	1894	756	2777	55
54	0	0	1916	757	2777	55
55	0	0	1935	756	2778	58
56	0	0	1959	756	2780	56
57	0	0	1998	756	2783	59
58	0	0	2037	757	2785	58
59	0	0	2076	757	2785	58
60	0	0	2102	757	2785	58
61	0	0	2119	755	2781	59
62	0	0	2170	756	2777	59
63	0	0	2214	758	2776	57
64	0	0	2199	755	2777	59
65	0	0	2149	753	2779	59
66	0	0	2072	752	2781	59
67	0	0	1988	753	2784	57
68	0	0	1915	752	2785	58
69	0	0	1883	755	2786	59
70	0	0	1893	757	2784	54
71	0	0	1891	755	2782	56
72	0	0	1856	753	2777	53
73	0	0	1828	754	2776	56
74	0	0	1842	755	2777	57
75	0	0	1911	757	2778	59
76	0	0	1979	756	2781	59
77	0	0	2020	757	2784	54
78	0	0	2053	756	2785	59
79	0	0	2082	757	2786	59
80	0	0	2122	757	2784	57
81	0	0	2148	758	2782	60
82	0	0	2168	757	2778	59
83	0	0	2161	756	2777	60
84	0	0	2108	753	2777	58
85	0	0	2048	753	2779	59
86	0	0	1983	753	2781	59
87	0	0	1940	756	2784	58
88	0	0	1937	756	2785	59
89	0	0	1948	756	2786	55
90	0	0	1955	757	2784	57
91	0	0	1956	757	2781	59
92	0	0	1955	757	2778	59
93	0	0	1951	756	2776	59
94	0	0	1961	757	2777	55
95	0	0	1974	757	2778	55
96	0	0	2000	757	2781	55
97	0	0	2031	757	2784	55
98	0	0	2062	758	2786	58
99	0	0	2092	757	2786	58
100	0	0	2127	758	2785	58
101	0	0	2148	756	2782	59
102	0	0	2179	759	2779	57
103	0	0	2192	757	2778	57
104	0	0	2153	752	2777	58
105	0	0	2099	754	2779	58
106	0	0	2038	753	2781	59
107	0	0	1980	754	2783	60
108	0	0	1956	758	2785	56
109	0	0	1940	755	2785	58
110	0	0	1916	754	2784	55
111	0	0	1894	755	2782	53
112	0	0	1880	756	2777	55
113	0	0	1888	758	2776	53
114	0	0	1943	757	2777	54
115	0	0	1992	757	2778	56
116	0	0	2010	759	2782	59
117	0	0	2034	756	2783	58
118	0	0	2079	756	2785	59
119	0	0	2123	757	2786	60
120	0	0	2144	758	2784	57
121	0	0	2146	757	2782	58
122	0	0	2160	758	2778	56
123	0	0	2169	757	2777	58
124	0	0	2139	754	2777	58
125	0	0	2103	755	2779	58
126	0	0	2049	754	2780	59
127	0	0	1999	754	2783	61
0	0	0	1975	755	2785	56
1	0	0	1957	754	2785	60
2	0	0	1925	754	2784	57
3	0	0	1912	758	2782	56
4	0	0	1914	758	2778	55
5	0	0	1905	758	2777	53
6	0	0	1901	757	2777	56
7	0	0	1945	753	2778	56
8	0	0	1983	757	2781	59
9	0	0	2003	758	2784	58
10	0	0	2052	759	2785	58
11	0	0	2103	758	2786	58
12	0	0	2129	758	2784	57
13	0	0	2148	757	2783	59
14	0	0	2170	755	2779	58
15	0	0	2175	759	2776	58
16	0	0	2150	754	2777	58
17	0	0	2110	755	2778	56
18	0	0	2066	752	2780	59
19	0	0	2008	755	2782	59
20	0	0	1971	751	2785	54
21	0	0	1921	753	2786	55
22	0	0	1871	756	2784	54
23	0	0	1841	756	2783	56
24	0	0	1840	759	2778	59
25	0	0	1858	759	2777	59
26	0	0	1920	758	2778	59
27	0	0	1977	758	2777	56
28	0	0	2017	757	2781	55
29	0	0	2055	759	2783	58
30	0	0	2101	759	2785	58
31	0	0	2142	758	2786	60
32	0	0	2174	759	2784	56
33	0	0	2194	757	2781	59
34	0	0	2201	758	2777	56
35	0	0	2185	755	2776	58
36	0	0	2139	753	2778	59
37	0	0	2103	755	2779	60
38	0	0	2037	754	2781	59
39	0	0	1950	754	2784	56
40	0	0	1910	755	2786	55
41	0	0	1912	757	2786	58
42	0	0	1924	758	2784	58
43	0	0	1912	758	2782	59
44	0	0	1926	760	2778	55
45	0	0	1945	759	2776	54
46	0	0	1959	757	2776	58
47	0	0	1978	759	2780	52
48	0	0	2003	758	2781	59
49	0	0	2039	760	2783	57
50	0	0	2085	759	2785	56
51	0	0	2148	759	2786	57
52	0	0	2181	758	2784	60
53	0	0	2179	758	2783	57
54	0	0	2180	759	2778	58
55	0	0	2177	759	2778	58
56	0	0	2157	758	2778	59
57	0	0	2167	759	2779	58
58	0	0	2169	757	2781	59
59	0	0	2140	756	2783	59
60	0	0	2117	757	2785	57
61	0	0	2067	755	2785	55
62	0	0	1986	755	2783	58
63	0	0	1925	754	2782	56
64	0	0	1904	760	2778	54
65	0	0	1921	760	2776	59
66	0	0	1986	759	2777	58
67	0	0	2036	758	2778	60
68	0	0	2048	758	2780	56
69	0	0	2060	760	2783	53
70	0	0	2081	759	2785	58
71	0	0	2116	761	2786	58
72	0	0	2162	759	2786	58
73	0	0	2191	759	2782	59
74	0	0	2211	760	2778	57
75	0	0	2210	758	2777	59
76	0	0	2174	756	2777	59
77	0	0	2140	756	2778	60
78	0	0	2106	758	2781	59
79	0	0	2035	753	2782	60
80	0	0	1961	756	2785	55
81	0	0	1939	757	2785	55
82	0	0	1927	756	2784	55
83	0	0	1907	758	2782	56
84	0	0	1884	756	2777	56
85	0	0	1872	757	2776	58
86	0	0	1894	759	2777	56
87	0	0	1936	759	2778	56
88	0	0	1986	759	2781	55
89	0	0	2045	759	2783	59
90	0	0	2098	759	2786	58
91	0	0	2145	759	2786	59
92	0	0	2163	759	2784	55
93	0	0	2161	762	2783	59
94	0	0	2163	755	2777	59
95	0	0	2168	760	2776	59
96	0	0	2148	758	2777	59
97	0	0	2109	756	2778	62
98	0	0	2044	755	2780	58
99	0	0	1974	756	2782	60
100	0	0	1925	754	2784	60
101	0	0	1888	756	2785	58
102	0	0	1870	758	2784	55
103	0	0	1881	759	2782	62
104	0	0	1897	759	2778	58
105	0	0	1896	759	2776	60
106	0	0	1909	759	2777	57
107	0	0	1929	759	2779	58
108	0	0	1962	760	2781	59
109	0	0	1996	759	2784	57
110	0	0	2036	760	2785	58
111	0	0	2082	760	2785	58
112	0	0	2115	759	2784	59
113	0	0	2120	759	2781	58
114	0	0	2148	759	2777	58
115	0	0	2162	760	2777	60
116	0	0	2148	759	2777	58
117	0	0	2126	756	2778	55
118	0	0	2073	756	2781	59
119	0	0	2007	755	2783	58
120	0	0	1957	756	2785	59
121	0	0	1935	758	2785	58
122	0	0	1918	757	2785	58
123	0	0	1894	757	2782	59
124	0	0	1872	756	2778	59
125	0	0	1881	761	2777	59
126	0	0	1933	760	2777	58
127	0	0	1971	759	2778	58
0	0	0	2003	759	2781	58
1	0	0	2038	760	2783	60
2	0	0	2079	760	2785	59
3	0	0	2131	759	2785	58
4	0	0	2168	760	2784	55
5	0	0	2163	759	2781	59
6	0	0	2174	760	2779	59
7	0	0	2195	760	2777	58
8	0	0	2181	760	2777	58
9	0	0	2159	757	2778	56
10	0	0	2115	755	2781	58
11	0	0	2044	755	2783	59
12	0	0	1972	756	2785	59
13	0	0	1916	756	2786	58
14	0	0	1873	757	2784	55
15	0	0	1876	761	2783	59
16	0	0	1909	759	2777	55
17	0	0	1936	756	2776	59
18	0	0	1954	759	2777	58
19	0	0	1971	759	2778	55
20	0	0	1995	760	2780	58
21	0	0	2018	759	2783	59
22	0	0	2056	757	2784	59
23	0	0	2110	762	2785	58
24	0	0	2157	760	2784	55
25	0	0	2195	760	2782	59
26	0	0	2253	757	2778	58
27	0	0	2283	760	2776	59
28	0	0	2282	760	2778	58
29	0	0	2265	758	2778	55
30	0	0	2226	757	2781	60
31	0	0	2191	757	2783	59
32	0	0	2167	758	2785	59
33	0	0	2171	758	2786	58
34	0	0	2173	760	2784	56
35	0	0	2166	760	2781	59
36	0	0	2188	759	2777	58
37	0	0	2239	760	2776	58
38	0	0	2304	763	2777	58
39	0	0	2347	760	2778	55
40	0	0	2384	760	2781	59
41	0	0	2430	760	2784	55
42	0	0	2472	762	2785	58
43	0	0	2487	760	2786	58
44	0	0	2490	760	2784	56
45	0	0	2487	760	2783	59
46	0	0	2501	760	2779	57
47	0	0	2497	759	2776	58
48	0	0	2450	759	2778	58
49	0	0	2411	758	2778	56
50	0	0	2365	757	2780	58
51	0	0	2320	757	2783	63
52	0	0	2287	756	2784	59
53	0	0	2238	756	2785	59
54	0	0	2186	757	2784	56
55	0	0	2127	756	2782	59
56	0	0	2063	758	2778	59
57	0	0	2003	756	2775	56
58	0	0	1974	756	2777	58
59	0	0	1972	760	2778	56
60	0	0	1974	760	2781	59
61	0	0	1966	759	2783	59
62	0	0	1975	760	2785	58
63	0	0	2013	760	2785	58
64	0	0	2041	759	2785	58
65	0	0	2037	761	2782	59
66	0	0	2057	760	2777	59
67	0	0	2085	761	2775	56
68	0	0	2096	761	2777	58
69	0	0	2072	757	2778	56
70	0	0	2005	755	2781	59
71	0	0	1925	759	2783	57
72	0	0	1875	756	2784	56
73	0	0	1841	756	2785	58
74	0	0	1801	757	2784	59
75	0	0	1779	760	2782	59
76	0	0	1800	760	2778	61
77	0	0	1835	762	2776	57
78	0	0	1874	759	2782	58
79	0	0	1905	760	2778	56
80	0	0	1931	760	2781	59
81	0	0	1964	760	2783	59
82	0	0	2003	762	2784	57
83	0	0	2023	760	2785	58
84	0	0	2053	761	2785	58
85	0	0	2096	760	2781	59
86	0	0	2156	761	2778	57
87	0	0	2182	759	2776	58
88	0	0	2158	756	2777	41
89	0	0	2136	758	2778	56
90	0	0	2097	756	2780	59
91	0	0	2041	756	2783	59
92	0	0	1991	758	2784	56
93	0	0	1950	758	2785	60
94	0	0	1904	757	2784	59
95	0	0	1868	760	2782	59
96	0	0	1862	760	2778	59
97	0	0	1875	763	2776	58
98	0	0	1914	761	2777	59
99	0	0	1969	762	2778	58
100	0	0	2037	759	2781	59
101	0	0	2089	761	2784	61
102	0	0	2130	761	2783	59
103	0	0	2159	760	2785	59
104	0	0	2167	761	2784	58
105	0	0	2163	760	2782	60
106	0	0	2179	759	2778	59
107	0	0	2187	763	2775	58
108	0	0	2162	759	2777	59
109	0	0	2128	758	2778	58
110	0	0	2092	757	2780	58
111	0	0	2042	757	2783	60
112	0	0	1993	759	2784	58
113	0	0	1961	758	2786	58
114	0	0	1947	759	2784	57
115	0	0	1947	761	2782	59
116	0	0	1963	761	2778	58
117	0	0	1974	762	2776	55
118	0	0	1990	762	2777	58
119	0	0	2029	761	2779	59
120	0	0	2059	764	2780	59
121	0	0	2068	762	2782	58
122	0	0	2082	761	2784	58
123	0	0	2120	761	2785	58
124	0	0	2164	761	2784	56
125	0	0	2196	759	2783	59
126	0	0	2224	762	2779	59
127	0	0	2245	761	2776	59
0	0	0	2219	759	2777	58
1	0	0	2172	758	2779	58
2	0	0	2114	757	2780	59
3	0	0	2061	759	2783	56
4	0	0	2033	759	2784	58
5	0	0	2006	758	2785	58
6	0	0	1973	758	2784	58
7	0	0	1968	761	2782	59
8	0	0	1974	761	2777	58
9	0	0	1975	763	2775	57
10	0	0	1995	763	2777	58
11	0	0	2010	761	2778	59
12	0	0	2040	761	2780	58
13	0	0	2085	762	2783	60
14	0	0	2128	763	2784	58
15	0	0	2165	761	2785	58
16	0	0	2192	759	2783	58
17	0	0	2191	761	2782	59
18	0	0	2210	762	2778	60
19	0	0	2238	762	2777	58
20	0	0	2220	760	2777	59
21	0	0	2192	759	2779	58
22	0	0	2139	759	2780	59
23	0	0	2079	758	2783	61
24	0	0	2058	761	2785	58
25	0	0	2058	762	2785	59
26	0	0	2038	760	2783	58
27	0	0	2033	759	2781	58
28	0	0	2022	765	2777	58
29	0	0	2027	761	2776	61
30	0	0	2050	762	2776	58
31	0	0	2074	762	2778	58
32	0	0	2115	761	2781	59
33	0	0	2153	763	2784	59
34	0	0	2172	764	2784	59
35	0	0	2189	768	2785	59
36	0	0	2213	762	2784	59
37	0	0	2234	761	2782	59
38	0	0	2278	762	2778	58
39	0	0	2302	762	2776	58
40	0	0	2272	759	2777	58
41	0	0	2224	759	2777	58
42	0	0	2168	757	2781	59
43	0	0	2092	758	2783	56
44	0	0	2016	759	2785	58
45	0	0	1976	760	2785	59
46	0	0	1974	762	2784	58
47	0	0	1981	763	2781	58
48	0	0	1989	762	2778	60
49	0	0	1990	762	2776	59
50	0	0	2001	763	2777	58
51	0	0	2046	764	2779	59
52	0	0	2106	759	2780	58
53	0	0	2164	766	2782	58
54	0	0	2225	764	2784	55
55	0	0	2265	761	2785	57
56	0	0	2265	763	2784	58
57	0	0	2252	762	2782	59
58	0	0	2260	762	2778	62
59	0	0	2273	764	2776	59
60	0	0	2257	761	2777	57
61	0	0	2216	759	2778	58
62	0	0	2171	758	2781	59
63	0	0	2125	759	2783	62
64	0	0	2095	760	2785	58
65	0	0	2077	760	2786	58
66	0	0	2055	760	2784	58
67	0	0	2033	759	2782	59
68	0	0	2017	762	2778	59
69	0	0	2025	763	2774	59
70	0	0	2057	761	2777	58
71	0	0	2102	762	2778	59
72	0	0	2144	762	2780	59
73	0	0	2185	764	2782	61
74	0	0	2230	763	2784	57
75	0	0	2266	761	2785	59
76	0	0	2288	762	2784	57
77	0	0	2319	762	2782	59
78	0	0	2352	763	2778	59
79	0	0	2353	763	2777	58
80	0	0	2316	761	2777	58
81	0	0	2265	759	2779	57
82	0	0	2207	759	2781	58
83	0	0	2172	760	2783	59
84	0	0	2127	759	2785	59
85	0	0	2076	760	2785	59
86	0	0	2037	761	2785	58
87	0	0	2009	760	2782	59
88	0	0	2018	763	2778	59
89	0	0	2056	764	2776	57
90	0	0	2113	761	2776	57
91	0	0	2133	762	2778	59
92	0	0	2154	763	2780	59
93	0	0	2198	762	2783	56
94	0	0	2231	764	2785	59
95	0	0	2255	762	2785	57
96	0	0	2288	763	2784	58
97	0	0	2299	762	2782	58
98	0	0	2336	762	2779	60
99	0	0	2368	765	2776	57
100	0	0	2350	760	2777	58
101	0	0	2321	761	2778	58
102	0	0	2273	759	2780	60
103	0	0	2205	759	2784	56
104	0	0	2147	760	2784	58
105	0	0	2105	760	2785	58
106	0	0	2088	762	2784	58
107	0	0	2075	763	2781	60
108	0	0	2078	762	2778	60
109	0	0	2099	763	2776	58
110	0	0	2147	762	2776	58
111	0	0	2210	763	2778	58
112	0	0	2265	762	2781	59
113	0	0	2289	762	2783	59
114	0	0	2306	764	2784	57
115	0	0	2327	762	2785	60
116	0	0	2356	763	2786	59
117	0	0	2372	762	2782	59
118	0	0	2394	763	2779	57
119	0	0	2413	763	2777	58
120	0	0	2425	762	2777	58
121	0	0	2375	760	2779	59
122	0	0	2313	760	2780	59
123	0	0	2270	760	2783	57
124	0	0	2236	760	2785	58
125	0	0	2199	761	2785	58
126	0	0	2183	763	2785	58
127	0	0	2161	760	2781	59
0	0	0	2140	762	2778	58
1	0	0	2152	763	2777	58
2	0	0	2200	764	2776	58
3	0	0	2254	763	2779	58
4	0	0	2280	761	2780	59
5	0	0	2291	760	2783	58
6	0	0	2321	764	2785	58
7	0	0	2369	763	2786	59
8	0	0	2396	763	2785	58
9	0	0	2400	763	2782	59
10	0	0	2418	763	2778	57
11	0	0	2424	763	2777	58
12	0	0	2403	763	2777	59
13	0	0	2385	764	2779	58
14	0	0	2351	759	2780	59
15	0	0	2297	760	2783	60
16	0	0	2234	759	2785	58
17	0	0	2203	762	2785	58
18	0	0	2203	763	2784	58
19	0	0	2197	761	2782	59
20	0	0	2197	761	2778	57
21	0	0	2206	763	2777	59
22	0	0	2237	765	2777	58
23	0	0	2261	763	2778	59
24	0	0	2268	765	2780	61
25	0	0	2276	763	2784	55
26	0	0	2291	763	2785	58
27	0	0	2337	763	2786	58
28	0	0	2407	763	2784	58
29	0	0	2447	764	2781	58
30	0	0	2477	762	2778	57
31	0	0	2453	760	2775	59
32	0	0	2387	759	2777	58
33	0	0	2323	761	2779	58
34	0	0	2273	758	2781	59
35	0	0	2232	759	2783	59
36	0	0	2204	760	2785	59
37	0	0	2169	761	2786	58
38	0	0	2128	759	2785	59
39	0	0	2104	762	2784	58
40	0	0	2083	761	2778	58
41	0	0	2098	763	2777	59
42	0	0	2130	763	2777	59
43	0	0	2138	764	2778	58
44	0	0	2148	765	2780	59
45	0	0	2181	763	2783	58
46	0	0	2207	764	2783	59
47	0	0	2229	763	2785	57
48	0	0	2236	764	2785	58
49	0	0	2239	763	2782	59
50	0	0	2260	763	2778	58
51	0	0	2261	763	2777	59
52	0	0	2223	759	2777	58
53	0	0	2211	760	2779	58
54	0	0	2186	760	2782	59
55	0	0	2124	760	2783	60
56	0	0	2069	760	2785	58
57	0	0	2023	759	2786	58
58	0	0	1968	760	2785	58
59	0	0	1952	762	2783	56
60	0	0	1943	759	2778	57
61	0	0	1942	763	2775	59
62	0	0	1966	761	2776	59
63	0	0	1991	764	2778	57
64	0	0	2012	764	2781	56
65	0	0	2035	765	2783	56
66	0	0	2075	764	2783	58
67	0	0	2106	763	2785	58
68	0	0	2124	764	2785	58
69	0	0	2132	764	2782	59
70	0	0	2150	763	2778	59
71	0	0	2157	764	2777	59
72	0	0	2124	760	2777	57
73	0	0	2076	761	2779	58
74	0	0	2015	760	2780	58
75	0	0	1956	762	2782	58
76	0	0	1916	761	2785	59
77	0	0	1881	762	2786	58
78	0	0	1857	761	2784	58
79	0	0	1855	763	2782	59
80	0	0	1849	763	2778	58
81	0	0	1852	764	2775	57
82	0	0	1880	762	2776	58
83	0	0	1906	764	2778	59
84	0	0	1923	764	2780	59
85	0	0	1956	763	2783	60
86	0	0	2004	764	2784	58
87	0	0	2047	759	2785	58
88	0	0	2064	764	2785	57
89	0	0	2059	764	2782	59
90	0	0	2083	764	2779	59
91	0	0	2154	764	2777	58
92	0	0	2172	762	2777	57
93	0	0	2108	760	2778	58
94	0	0	2023	761	2781	58
95	0	0	1943	760	2782	60
96	0	0	1901	760	2785	58
97	0	0	1854	757	2785	58
98	0	0	1811	761	2784	59
99	0	0	1809	764	2782	59
100	0	0	1792	759	2778	59
101	0	0	1771	763	2775	58
102	0	0	1794	763	2777	59
103	0	0	1847	764	2778	58
104	0	0	1902	764	2781	59
105	0	0	1946	765	2783	58
106	0	0	1978	764	2785	59
107	0	0	2003	761	2785	56
108	0	0	2029	764	2786	58
109	0	0	2048	765	2782	59
110	0	0	2081	764	2778	55
111	0	0	2103	765	2776	58
112	0	0	2096	760	2777	58
113	0	0	2066	761	2778	58
114	0	0	2009	763	2779	58
115	0	0	1936	762	2782	58
116	0	0	1874	761	2784	59
117	0	0	1841	760	2785	59
118	0	0	1837	764	2784	59
119	0	0	1835	765	2782	59
120	0	0	1835	764	2778	57
121	0	0	1830	764	2776	59
122	0	0	1854	764	2778	58
123	0	0	1893	764	2778	59
124	0	0	1920	763	2781	58
125	0	0	1947	764	2783	59
126	0	0	1978	765	2785	58
127	0	0	2019	764	2785	59
0	0	0	2049	764	2785	58
1	0	0	2055	766	2782	58
2	0	0	2069	764	2778	58
3	0	0	2077	765	2776	59
4	0	0	2058	760	2776	59
5	0	0	2019	762	2778	59
6	0	0	1994	763	2780	58
7	0	0	1962	763	2782	58
8	0	0	1924	762	2785	59
9	0	0	1890	761	2786	58
10	0	0	1867	763	2784	57
11	0	0	1854	763	2778	58
12	0	0	1840	762	2778	59
13	0	0	1836	764	2776	59
14	0	0	1856	766	2777	58
15	0	0	1873	764	2778	59
16	0	0	1924	763	2781	59
17	0	0	1986	765	2783	59
18	0	0	2028	764	2784	58
19	0	0	2054	765	2785	58
20	0	0	2073	765	2784	58
21	0	0	2101	765	2782	59
22	0	0	2137	766	2777	56
23	0	0	2139	762	2776	59
24	0	0	2078	762	2777	58
25	0	0	2017	762	2778	58
26	0	0	1977	760	2780	59
27	0	0	1949	762	2782	59
28	0	0	1918	762	2784	59
29	0	0	1887	762	2785	58
30	0	0	1873	760	2784	59
31	0	0	1870	765	2783	59
32	0	0	1875	765	2778	63
33	0	0	1881	765	2776	59
34	0	0	1890	766	2776	57
35	0	0	1915	764	2777	58
36	0	0	1958	765	2780	59
37	0	0	1998	765	2782	60
38	0	0	2035	765	2784	59
39	0	0	2062	764	2785	58
40	0	0	2089	763	2783	58
41	0	0	2103	765	2781	59
42	0	0	2122	766	2777	58
43	0	0	2129	765	2776	58
44	0	0	2104	763	2777	59
45	0	0	2075	763	2776	59
46	0	0	2036	762	2780	58
47	0	0	1979	762	2782	59
48	0	0	1933	761	2784	59
49	0	0	1900	763	2784	59
50	0	0	1882	764	2783	59
51	0	0	1885	765	2781	59
52	0	0	1879	764	2776	58
53	0	0	1873	766	2776	59
54	0	0	1891	764	2775	59
55	0	0	1909	766	2778	57
56	0	0	1934	765	2779	59
57	0	0	1963	765	2782	58
58	0	0	2005	765	2784	57
59	0	0	2041	765	2784	58
60	0	0	2072	765	2784	58
61	0	0	2077	765	2782	59
62	0	0	2087	765	2777	56
63	0	0	2093	766	2776	58
64	0	0	2067	763	2776	58
65	0	0	2033	760	2776	59
66	0	0	1982	761	2779	59
67	0	0	1923	762	2781	59
68	0	0	1894	763	2783	63
69	0	0	1872	762	2784	58
70	0	0	1847	763	2783	59
71	0	0	1847	765	2780	59
72	0	0	1850	766	2776	56
73	0	0	1844	765	2775	57
74	0	0	1862	765	2775	58
75	0	0	1886	765	2777	58
76	0	0	1911	764	2778	58
77	0	0	1946	767	2781	58
78	0	0	1991	765	2783	59
79	0	0	2021	765	2784	58
80	0	0	2023	766	2783	59
81	0	0	2042	765	2781	58
82	0	0	2080	766	2776	58
83	0	0	2107	766	2774	57
84	0	0	2097	764	2775	58
85	0	0	2059	763	2776	58
86	0	0	1999	761	2779	58
87	0	0	1930	761	2782	59
88	0	0	1866	762	2783	58
89	0	0	1868	765	2783	59
90	0	0	1874	765	2782	59
91	0	0	1864	765	2780	58
92	0	0	1846	765	2775	56
93	0	0	1840	765	2774	58
94	0	0	1849	766	2774	58
95	0	0	1877	765	2776	58
96	0	0	1914	766	2778	58
97	0	0	1956	766	2780	59
98	0	0	1997	765	2783	58
99	0	0	2026	765	2783	59
100	0	0	2062	766	2782	59
101	0	0	2086	767	2780	58
102	0	0	2097	766	2776	61
103	0	0	2114	766	2774	58
104	0	0	2119	766	2774	58
105	0	0	2090	763	2775	58
106	0	0	2034	762	2777	58
107	0	0	1962	763	2779	56
108	0	0	1923	763	2783	58
109	0	0	1901	763	2782	59
110	0	0	1888	764	2782	58
111	0	0	1857	762	2780	58
112	0	0	1817	761	2776	57
113	0	0	1816	765	2774	59
114	0	0	1830	765	2774	58
115	0	0	1863	766	2776	58
116	0	0	1913	767	2777	57
117	0	0	1963	766	2779	58
118	0	0	2009	766	2783	59
119	0	0	2043	767	2781	57
120	0	0	2060	767	2781	58
121	0	0	2056	766	2779	58
122	0	0	2056	766	2775	59
123	0	0	2072	766	2773	58
124	0	0	2062	765	2773	58
125	0	0	2052	766	2774	59
126	0	0	2033	764	2777	55
127	0	0	1991	764	2780	63
0	0	0	1958	763	2782	60
1	0	0	1933	763	2782	59
2	0	0	1903	762	2785	58
3	0	0	1863	763	2779	59
4	0	0	1841	765	2774	58
5	0	0	1848	766	2772	57
6	0	0	1875	766	2772	58
7	0	0	1902	765	2774	57
8	0	0	1916	767	2776	58
9	0	0	1939	767	2779	59
10	0	0	1981	766	2780	56
11	0	0	2001	767	2782	58
12	0	0	2025	766	2780	58
13	0	0	2072	767	2777	61
14	0	0	2109	767	2774	58
15	0	0	2122	766	2773	57
16	0	0	2094	764	2772	57
17	0	0	2078	765	2775	57
18	0	0	2043	765	2776	56
19	0	0	1979	763	2778	58
20	0	0	1931	763	2780	57
21	0	0	1907	763	2781	58
22	0	0	1903	767	2780	57
23	0	0	1907	766	2777	60
24	0	0	1907	766	2773	58
25	0	0	1915	765	2772	56
26	0	0	1937	766	2771	56
27	0	0	1970	767	2773	56
28	0	0	1988	768	2775	58
29	0	0	1987	766	2778	59
30	0	0	2016	766	2780	57
31	0	0	2063	766	2781	59
32	0	0	2111	765	2779	58
33	0	0	2127	768	2777	59
34	0	0	2161	766	2774	58
35	0	0	2207	766	2772	57
36	0	0	2226	766	2771	58
37	0	0	2200	763	2772	58
38	0	0	2131	763	2775	58
39	0	0	2046	763	2778	58
40	0	0	1999	763	2779	58
41	0	0	1972	764	2780	59
42	0	0	1937	763	2779	59
43	0	0	1905	765	2777	59
44	0	0	1898	764	2772	57
45	0	0	1890	767	2771	58
46	0	0	1905	766	2771	57
47	0	0	1939	767	2773	58
48	0	0	1966	768	2774	59
49	0	0	2006	766	2777	59
50	0	0	2091	767	2779	56
51	0	0	2152	767	2780	58
52	0	0	2178	766	2779	58
53	0	0	2177	768	2776	58
54	0	0	2181	766	2773	58
55	0	0	2180	766	2770	57
56	0	0	2165	767	2770	58
57	0	0	2162	766	2771	58
58	0	0	2140	762	2773	58
59	0	0	2100	763	2776	58
60	0	0	2054	763	2778	56
61	0	0	2009	763	2779	59
62	0	0	1962	763	2778	58
63	0	0	1937	763	2776	58
64	0	0	1930	766	2772	58
65	0	0	1928	766	2770	57
66	0	0	1959	766	2771	57
67	0	0	1996	767	2771	58
68	0	0	2029	766	2774	58
69	0	0	2064	766	2776	59
70	0	0	2091	766	2778	56
71	0	0	2120	766	2779	58
72	0	0	2144	766	2777	59
73	0	0	2149	766	2775	58
74	0	0	2159	767	2772	60
75	0	0	2187	768	2769	58
76	0	0	2187	767	2770	58
77	0	0	2174	767	2771	57
78	0	0	2144	761	2772	59
79	0	0	2094	764	2776	59
80	0	0	2039	763	2777	57
81	0	0	1988	763	2779	59
82	0	0	1939	763	2777	58
83	0	0	1915	768	2774	58
84	0	0	1921	766	2772	58
85	0	0	1915	766	2768	57
86	0	0	1935	768	2769	58
87	0	0	1978	767	2770	58
88	0	0	2021	768	2772	62
89	0	0	2053	767	2775	58
90	0	0	2097	767	2777	57
91	0	0	2139	767	2777	58
92	0	0	2129	765	2776	58
93	0	0	2109	766	2775	57
94	0	0	2129	767	2770	55
95	0	0	2154	767	2768	55
96	0	0	2143	765	2769	57
97	0	0	2119	766	2770	57
98	0	0	2085	764	2772	57
99	0	0	2039	764	2775	58
100	0	0	1996	763	2776	62
101	0	0	1947	764	2778	59
102	0	0	1907	765	2776	58
103	0	0	1909	763	2774	60
104	0	0	1913	766	2770	58
105	0	0	1914	768	2767	61
106	0	0	1923	767	2768	58
107	0	0	1957	767	2768	57
108	0	0	1995	767	2771	58
109	0	0	2033	766	2773	58
110	0	0	2074	767	2776	59
111	0	0	2102	768	2777	59
112	0	0	2125	767	2775	58
113	0	0	2140	768	2773	59
114	0	0	2177	766	2770	57
115	0	0	2197	766	2767	56
116	0	0	2169	765	2767	59
117	0	0	2122	764	2767	59
118	0	0	2068	763	2771	57
119	0	0	2008	764	2773	59
120	0	0	1971	764	2776	59
121	0	0	1963	767	2775	59
122	0	0	1966	767	2775	58
123	0	0	1963	768	2772	59
124	0	0	1952	764	2769	58
125	0	0	1920	765	2767	61
126	0	0	1909	767	2767	57
127	0	0	1914	767	2769	58
0	0	0	1939	766	2770	57
1	0	0	1972	767	2773	58
2	0	0	2038	767	2775	57
3	0	0	2105	767	2776	57
4	0	0	2149	767	2774	57
5	0	0	2163	767	2774	58
6	0	0	2184	767	2769	57
7	0	0	2202	768	2766	59
8	0	0	2182	764	2767	58
9	0	0	2145	765	2767	58
10	0	0	2102	764	2770	57
11	0	0	2036	763	2772	57
12	0	0	1979	764	2774	55
13	0	0	1948	765	2775	58
14	0	0	1932	765	2774	59
15	0	0	1909	765	2772	57
16	0	0	1896	766	2768	57
17	0	0	1909	767	2766	55
18	0	0	1941	767	2766	58
19	0	0	1982	766	2767	58
20	0	0	2018	767	2770	57
21	0	0	2053	768	2772	59
22	0	0	2101	767	2775	57
23	0	0	2123	767	2774	57
24	0	0	2136	767	2775	58
25	0	0	2154	770	2771	58
26	0	0	2167	768	2767	59
27	0	0	2168	768	2766	59
28	0	0	2158	767	2765	58
29	0	0	2156	767	2767	58
30	0	0	2133	762	2770	57
31	0	0	2094	765	2770	56
32	0	0	2084	767	2773	58
33	0	0	2056	765	2773	58
34	0	0	2031	767	2773	59
35	0	0	2030	768	2772	60
36	0	0	2045	767	2766	57
37	0	0	2054	767	2765	57
38	0	0	2080	767	2765	59
39	0	0	2130	767	2766	59
40	0	0	2201	768	2769	59
41	0	0	2280	768	2771	59
42	0	0	2362	767	2773	57
43	0	0	2430	768	2772	59
44	0	0	2477	769	2772	59
45	0	0	2520	768	2771	60
46	0	0	2566	768	2767	59
47	0	0	2587	766	2764	55
48	0	0	2580	768	2764	58
49	0	0	2548	764	2765	58
50	0	0	2476	764	2768	58
51	0	0	2381	764	2770	57
52	0	0	2307	764	2772	56
53	0	0	2259	763	2773	57
54	0	0	2214	764	2772	58
55	0	0	2168	764	2770	58
56	0	0	2126	763	2766	59
57	0	0	2096	767	2765	57
58	0	0	2102	768	2764	59
59	0	0	2112	768	2766	59
60	0	0	2101	767	2767	58
61	0	0	2079	766	2770	58
62	0	0	2077	768	2772	59
63	0	0	2092	767	2771	56
64	0	0	2106	768	2771	56
65	0	0	2109	768	2770	57
66	0	0	2095	767	2765	59
67	0	0	2075	765	2764	56
68	0	0	2023	763	2763	57
69	0	0	1955	764	2765	57
70	0	0	1923	765	2768	57
71	0	0	1888	763	2769	59
72	0	0	1846	764	2768	56
73	0	0	1798	765	2772	57
74	0	0	1753	764	2772	58
75	0	0	1723	763	2771	58
76	0	0	1708	765	2766	61
77	0	0	1698	767	2763	60
78	0	0	1726	767	2764	57
79	0	0	1777	768	2764	55
80	0	0	1824	768	2767	61
81	0	0	1865	768	2768	58
82	0	0	1929	768	2771	57
83	0	0	1997	768	2771	58
84	0	0	2042	767	2771	58
85	0	0	2056	767	2769	57
86	0	0	2061	769	2765	60
87	0	0	2066	769	2763	56
88	0	0	2055	767	2763	57
89	0	0	2039	766	2764	57
90	0	0	2014	764	2767	58
91	0	0	1967	765	2769	57
92	0	0	1910	764	2772	59
93	0	0	1871	765	2771	60
94	0	0	1853	767	2771	57
95	0	0	1841	767	2768	57
96	0	0	1844	768	2764	60
97	0	0	1854	767	2762	58
98	0	0	1881	767	2762	57
99	0	0	1917	767	2764	58
100	0	0	1942	767	2766	58
101	0	0	1987	769	2768	58
102	0	0	2033	768	2770	56
103	0	0	2056	768	2771	58
104	0	0	2083	768	2771	59
105	0	0	2126	767	2769	58
106	0	0	2164	769	2765	59
107	0	0	2155	765	2763	57
108	0	0	2100	765	2763	58
109	0	0	2060	766	2765	58
110	0	0	2025	764	2766	58
111	0	0	1977	765	2768	58
112	0	0	1936	765	2770	60
113	0	0	1915	766	2770	57
114	0	0	1908	768	2770	58
115	0	0	1907	768	2768	58
116	0	0	1905	768	2764	58
117	0	0	1923	769	2762	62
118	0	0	1961	768	2762	57
119	0	0	1975	768	2762	59
120	0	0	1982	767	2766	58
121	0	0	1994	768	2769	56
122	0	0	2010	768	2771	60
123	0	0	2051	767	2772	57
124	0	0	2097	768	2770	59
125	0	0	2102	768	2768	58
126	0	0	2104	768	2764	59
127	0	0	2114	770	2761	62
0	0	0	2098	766	2761	57
1	0	0	2069	765	2762	56
2	0	0	2043	764	2766	57
3	0	0	2011	765	2768	56
4	0	0	1967	765	2770	60
5	0	0	1926	765	2769	58
6	0	0	1908	767	2769	58
7	0	0	1902	767	2767	58
8	0	0	1898	767	2763	56
9	0	0	1884	767	2762	61
10	0	0	1891	770	2763	59
11	0	0	1912	768	2763	59
12	0	0	1951	768	2765	57
13	0	0	2005	770	2768	58
14	0	0	2063	769	2770	59
15	0	0	2109	768	2769	59
16	0	0	2149	767	2769	57
17	0	0	2187	768	2767	58
18	0	0	2203	769	2763	56
19	0	0	2196	770	2761	62
20	0	0	2185	767	2760	58
21	0	0	2151	765	2762	58
22	0	0	2098	764	2765	58
23	0	0	2029	765	2768	56
24	0	0	1976	766	2769	58
25	0	0	1927	767	2769	57
26	0	0	1897	766	2769	58
27	0	0	1895	768	2768	58
28	0	0	1904	767	2764	60
29	0	0	1916	769	2761	63
30	0	0	1950	769	2761	58
31	0	0	1992	768	2762	60
32	0	0	2032	768	2765	59
33	0	0	2066	770	2767	59
34	0	0	2098	769	2769	60
35	0	0	2115	767	2768	56
36	0	0	2135	769	2768	58
37	0	0	2152	769	2766	59
38	0	0	2180	770	2762	59
39	0	0	2208	767	2761	55
40	0	0	2196	766	2760	58
41	0	0	2145	765	2762	59
42	0	0	2077	763	2764	58
43	0	0	2016	765	2767	58
44	0	0	1973	766	2769	57
45	0	0	1940	765	2769	57
46	0	0	1918	766	2770	57
47	0	0	1914	769	2767	59
48	0	0	1919	770	2762	59
49	0	0	1931	768	2760	59
50	0	0	1958	767	2760	59
51	0	0	1986	768	2761	58
52	0	0	2004	768	2763	58
53	0	0	2018	768	2766	60
54	0	0	2059	770	2768	59
55	0	0	2105	767	2768	56
56	0	0	2144	768	2768	59
57	0	0	2127	768	2766	59
58	0	0	2162	769	2762	58
59	0	0	2247	770	2760	59
60	0	0	2247	766	2760	58
61	0	0	2204	765	2761	58
62	0	0	2149	765	2764	58
63	0	0	2074	765	2763	59
64	0	0	2026	765	2768	55
65	0	0	2002	765	2768	58
66	0	0	1967	765	2767	58
67	0	0	1914	765	2765	58
68	0	0	1892	768	2761	58
69	0	0	1900	769	2759	59
70	0	0	1891	768	2759	59
71	0	0	1900	768	2760	58
72	0	0	1934	769	2764	60
73	0	0	1978	769	2766	59
74	0	0	2027	769	2767	58
75	0	0	2063	769	2769	58
76	0	0	2090	768	2767	60
77	0	0	2137	769	2766	60
78	0	0	2197	769	2762	55
79	0	0	2240	769	2759	59
80	0	0	2232	767	2760	57
81	0	0	2185	765	2761	58
82	0	0	2115	765	2762	59
83	0	0	2055	766	2765	57
84	0	0	2008	765	2767	58
85	0	0	1992	769	2767	59
86	0	0	1988	767	2766	59
87	0	0	1952	766	2765	59
88	0	0	1947	768	2761	57
89	0	0	1964	767	2759	57
90	0	0	1987	768	2758	58
91	0	0	2016	768	2760	58
92	0	0	2050	770	2762	59
93	0	0	2098	767	2765	58
94	0	0	2145	767	2767	55
95	0	0	2192	767	2768	59
96	0	0	2231	768	2768	58
97	0	0	2259	770	2765	59
98	0	0	2276	767	2761	56
99	0	0	2283	769	2759	57
100	0	0	2270	769	2759	58
101	0	0	2261	770	2760	59
102	0	0	2229	766	2762	59
103	0	0	2162	764	2765	58
104	0	0	2092	766	2766	56
105	0	0	2050	765	2767	58
106	0	0	2001	766	2767	58
107	0	0	1996	768	2764	60
108	0	0	2023	769	2761	58
109	0	0	2033	767	2758	55
110	0	0	2052	768	2758	56
111	0	0	2063	769	2761	59
112	0	0	2087	769	2762	59
113	0	0	2134	769	2765	59
114	0	0	2167	769	2766	59
115	0	0	2183	769	2767	60
116	0	0	2195	768	2766	59
117	0	0	2235	769	2764	60
118	0	0	2282	771	2760	58
119	0	0	2311	767	2758	54
120	0	0	2323	769	2758	58
121	0	0	2310	768	2759	59
122	0	0	2265	767	2761	58
123	0	0	2214	764	2764	57
124	0	0	2163	766	2766	55
125	0	0	2123	765	2766	57
126	0	0	2112	769	2766	59
127	0	0	2108	770	2764	59
0	0	0	2107	767	2759	55
1	0	0	2120	769	2758	56
2	0	0	2148	770	2757	58
3	0	0	2169	769	2759	58
4	0	0	2161	769	2760	58
5	0	0	2179	767	2763	58
6	0	0	2223	769	2767	60
7	0	0	2281	769	2766	60
8	0	0	2325	770	2766	60
9	0	0	2339	769	2763	59
10	0	0	2360	767	2759	55
11	0	0	2380	770	2757	60
12	0	0	2339	767	2757	57
13	0	0	2290	766	2758	57
14	0	0	2250	766	2761	55
15	0	0	2229	767	2763	55
16	0	0	2201	766	2766	56
17	0	0	2178	767	2765	56
18	0	0	2159	768	2765	59
19	0	0	2146	769	2763	59
20	0	0	2132	766	2760	58
21	0	0	2095	767	2756	58
22	0	0	2097	770	2757	58
23	0	0	2139	769	2758	61
24	0	0	2204	769	2760	57
25	0	0	2287	768	2763	58
26	0	0	2349	771	2765	57
27	0	0	2370	769	2765	58
28	0	0	2360	769	2764	59
29	0	0	2338	770	2763	59
30	0	0	2354	766	2759	56
31	0	0	2379	770	2757	60
32	0	0	2364	767	2756	54
33	0	0	2338	767	2758	55
34	0	0	2285	766	2760	54
35	0	0	2215	765	2763	57
36	0	0	2167	766	2765	58
37	0	0	2136	767	2765	60
38	0	0	2116	767	2765	58
39	0	0	2098	767	2761	57
40	0	0	2094	767	2758	56
41	0	0	2117	769	2756	58
42	0	0	2140	767	2755	57
43	0	0	2134	767	2757	57
44	0	0	2119	769	2759	59
45	0	0	2134	769	2761	59
46	0	0	2182	770	2764	60
47	0	0	2240	770	2764	58
48	0	0	2260	769	2764	59
49	0	0	2253	767	2762	55
50	0	0	2275	768	2758	58
51	0	0	2336	770	2756	58
52	0	0	2327	766	2755	57
53	0	0	2248	766	2758	57
54	0	0	2178	766	2758	57
55	0	0	2107	768	2760	60
56	0	0	2046	766	2763	59
57	0	0	1992	766	2764	56
58	0	0	1949	766	2763	58
59	0	0	1933	768	2761	57
60	0	0	1909	766	2757	55
61	0	0	1882	767	2755	59
62	0	0	1882	769	2755	58
63	0	0	1898	769	2757	58
64	0	0	1924	769	2759	59
65	0	0	1976	770	2761	56
66	0	0	2042	770	2764	59
67	0	0	2083	770	2765	58
68	0	0	2131	770	2763	59
69	0	0	2141	767	2761	58
70	0	0	2159	769	2757	56
71	0	0	2184	773	2754	59
72	0	0	2164	766	2755	54
73	0	0	2114	765	2755	54
74	0	0	2048	766	2759	53
75	0	0	1979	766	2761	54
76	0	0	1926	766	2763	57
77	0	0	1873	765	2764	57
78	0	0	1831	766	2763	59
79	0	0	1798	766	2761	58
80	0	0	1783	768	2756	59
81	0	0	1783	770	2754	60
82	0	0	1806	769	2754	61
83	0	0	1841	769	2756	58
84	0	0	1868	767	2758	57
85	0	0	1909	769	2761	58
86	0	0	1967	769	2762	62
87	0	0	2002	769	2763	60
88	0	0	2019	769	2762	59
89	0	0	2023	769	2760	59
90	0	0	2025	768	2756	59
91	0	0	2067	770	2754	59
92	0	0	2053	767	2753	55
93	0	0	2007	767	2756	57
94	0	0	1979	769	2757	59
95	0	0	1942	768	2759	59
96	0	0	1904	767	2762	58
97	0	0	1849	765	2762	60
98	0	0	1785	765	2763	58
99	0	0	1760	769	2760	58
100	0	0	1781	771	2756	58
101	0	0	1803	769	2754	60
102	0	0	1797	769	2753	58
103	0	0	1827	769	2754	58
104	0	0	1888	769	2757	60
105	0	0	1916	769	2760	57
106	0	0	1948	770	2761	59
107	0	0	1989	770	2761	62
108	0	0	2027	770	2761	59
109	0	0	2058	767	2759	57
110	0	0	2087	767	2755	54
111	0	0	2108	770	2753	58
112	0	0	2082	767	2752	56
113	0	0	2048	767	2754	54
114	0	0	2002	765	2757	56
115	0	0	1926	766	2759	60
116	0	0	1866	764	2761	58
117	0	0	1822	767	2762	59
118	0	0	1799	766	2761	56
119	0	0	1780	768	2759	60
120	0	0	1776	767	2755	56
121	0	0	1773	767	2752	59
122	0	0	1810	770	2752	59
123	0	0	1851	770	2753	58
124	0	0	1893	770	2755	59
125	0	0	1942	770	2758	60
126	0	0	1982	770	2761	62
127	0	0	1998	771	2760	60
0	0	0	2032	769	2760	58
1	0	0	2064	770	2758	59
2	0	0	2113	771	2754	56
3	0	0	2145	770	2752	59
4	0	0	2096	767	2751	61
5	0	0	2050	766	2749	59
6	0	0	2007	768	2756	59
7	0	0	1938	766	2758	56
8	0	0	1866	764	2760	59
9	0	0	1820	767	2760	56
10	0	0	1804	770	2759	58
11	0	0	1823	770	2757	58
12	0	0	1828	770	2753	58
13	0	0	1824	770	2752	59
14	0	0	1852	769	2750	60
15	0	0	1891	770	2751	59
16	0	0	1918	769	2755	57
17	0	0	1934	770	2758	58
18	0	0	1965	769	2760	59
19	0	0	2026	771	2761	59
20	0	0	2066	769	2760	58
21	0	0	2081	770	2758	59
22	0	0	2102	771	2755	58
23	0	0	2116	770	2752	57
24	0	0	2075	767	2752	54
25	0	0	2066	771	2752	58
26	0	0	2060	766	2754	55
27	0	0	1984	767	2757	56
28	0	0	1893	765	2759	56
29	0	0	1833	767	2760	57
30	0	0	1819	769	2759	58
31	0	0	1812	767	2756	58
32	0	0	1815	768	2752	57
33	0	0	1840	770	2750	60
34	0	0	1893	769	2750	58
35	0	0	1936	771	2752	58
36	0	0	1970	769	2754	58
37	0	0	1998	767	2757	59
38	0	0	2022	771	2759	59
39	0	0	2056	770	2759	59
40	0	0	2094	770	2759	58
41	0	0	2101	770	2757	57
42	0	0	2117	770	2753	58
43	0	0	2141	770	2750	59
44	0	0	2123	767	2749	57
45	0	0	2078	768	2752	57
46	0	0	2029	766	2753	57
47	0	0	1975	767	2756	52
48	0	0	1943	767	2758	56
49	0	0	1924	767	2758	56
50	0	0	1891	767	2758	57
51	0	0	1868	767	2756	59
52	0	0	1858	767	2751	62
53	0	0	1835	767	2750	58
54	0	0	1838	770	2749	57
55	0	0	1850	770	2750	64
56	0	0	1920	771	2753	58
57	0	0	2005	767	2755	57
58	0	0	2053	770	2758	60
59	0	0	2075	769	2759	58
60	0	0	2092	771	2757	58
61	0	0	2096	769	2755	56
62	0	0	2113	771	2752	58
63	0	0	2153	767	2749	58
64	0	0	2140	768	2748	58
65	0	0	2089	766	2750	55
66	0	0	2017	766	2753	51
67	0	0	1967	767	2755	53
68	0	0	1938	767	2757	58
69	0	0	1913	767	2757	56
70	0	0	1892	768	2757	58
71	0	0	1871	767	2755	57
72	0	0	1856	771	2751	59
73	0	0	1875	770	2749	59
74	0	0	1911	770	2748	58
75	0	0	1956	769	2749	59
76	0	0	1997	769	2751	59
77	0	0	2038	767	2755	59
78	0	0	2071	770	2757	59
79	0	0	2095	769	2757	58
80	0	0	2106	768	2757	59
81	0	0	2111	771	2754	59
82	0	0	2132	771	2750	57
83	0	0	2143	770	2748	60
84	0	0	2110	768	2747	58
85	0	0	2084	767	2749	58
86	0	0	2029	766	2752	57
87	0	0	1940	767	2755	56
88	0	0	1907	768	2757	37
89	0	0	1897	768	2757	58
90	0	0	1880	768	2757	58
91	0	0	1863	768	2754	59
92	0	0	1862	767	2751	58
93	0	0	1879	767	2748	57
94	0	0	1938	770	2747	57
95	0	0	1969	771	2749	59
96	0	0	1995	770	2752	56
97	0	0	2039	771	2754	59
98	0	0	2079	769	2756	59
99	0	0	2116	770	2756	57
100	0	0	2147	770	2756	58
101	0	0	2150	770	2754	56
102	0	0	2151	773	2750	57
103	0	0	2163	770	2748	62
104	0	0	2152	769	2747	60
105	0	0	2110	768	2749	59
106	0	0	2021	767	2752	54
107	0	0	1955	769	2754	58
108	0	0	1907	767	2756	56
109	0	0	1863	767	2756	56
110	0	0	1837	768	2756	59
111	0	0	1826	769	2753	55
112	0	0	1837	767	2749	57
113	0	0	1875	770	2747	58
114	0	0	1934	770	2747	59
115	0	0	1976	770	2748	59
116	0	0	1999	771	2750	59
117	0	0	2012	771	2753	58
118	0	0	2025	770	2755	59
119	0	0	2060	770	2756	57
120	0	0	2093	770	2756	58
121	0	0	2128	770	2755	59
122	0	0	2169	771	2749	58
123	0	0	2196	770	2748	59
124	0	0	2175	769	2746	60
125	0	0	2138	768	2747	58
126	0	0	2060	766	2750	56
127	0	0	1979	767	2753	53
0	0	0	1922	768	2755	58
1	0	0	1878	767	2755	56
2	0	0	1839	766	2754	57
3	0	0	1829	770	2753	58
4	0	0	1843	769	2749	56
5	0	0	1867	769	2746	59
6	0	0	1914	770	2746	60
7	0	0	1943	772	2747	58
8	0	0	1943	770	2750	59
9	0	0	1944	768	2753	58
10	0	0	1974	771	2755	59
11	0	0	2016	770	2756	58
12	0	0	2038	770	2755	58
13	0	0	2063	770	2754	56
14	0	0	2098	769	2748	59
15	0	0	2127	770	2746	59
16	0	0	2111	767	2745	55
17	0	0	2080	768	2746	58
18	0	0	2065	767	2750	54
19	0	0	2011	763	2752	53
20	0	0	1947	767	2754	56
21	0	0	1918	768	2756	58
22	0	0	1900	768	2754	58
23	0	0	1907	770	2752	57
24	0	0	1939	770	2749	59
25	0	0	1957	770	2746	59
26	0	0	1984	771	2746	58
27	0	0	1985	771	2747	58
28	0	0	1987	771	2749	58
29	0	0	2017	771	2752	58
30	0	0	2039	770	2754	62
31	0	0	2061	770	2756	60
32	0	0	2091	768	2754	59
33	0	0	2129	771	2752	60
34	0	0	2157	769	2748	60
35	0	0	2197	771	2745	58
36	0	0	2195	771	2744	60
37	0	0	2165	767	2746	57
38	0	0	2125	767	2750	56
39	0	0	2062	768	2751	60
40	0	0	2018	768	2754	59
41	0	0	1968	767	2754	55
42	0	0	1925	770	2755	58
43	0	0	1900	768	2753	56
44	0	0	1879	769	2748	59
45	0	0	1880	772	2745	59
46	0	0	1918	770	2745	60
47	0	0	1961	770	2746	59
48	0	0	1972	770	2748	62
49	0	0	1968	768	2751	60
50	0	0	1980	770	2753	58
51	0	0	2051	772	2754	58
52	0	0	2114	771	2753	58
53	0	0	2150	771	2751	58
54	0	0	2175	772	2747	59
55	0	0	2188	771	2745	56
56	0	0	2164	768	2744	60
57	0	0	2123	767	2745	54
58	0	0	2080	768	2748	60
59	0	0	2038	768	2751	60
60	0	0	1994	768	2754	58
61	0	0	1959	767	2753	55
62	0	0	1927	767	2753	56
63	0	0	1929	770	2751	57
64	0	0	1939	768	2748	59
65	0	0	1949	771	2744	58
66	0	0	1957	769	2743	55
67	0	0	1972	770	2745	59
68	0	0	1996	771	2747	58
69	0	0	2036	768	2750	61
70	0	0	2082	772	2753	58
71	0	0	2110	767	2753	55
72	0	0	2138	770	2753	58
73	0	0	2172	767	2751	58
74	0	0	2208	770	2746	60
75	0	0	2221	771	2743	58
76	0	0	2205	770	2744	55
77	0	0	2181	768	2745	59
78	0	0	2133	768	2747	59
79	0	0	2062	768	2750	62
80	0	0	2012	767	2752	56
81	0	0	1986	768	2752	55
82	0	0	1962	768	2752	58
83	0	0	1962	769	2750	59
84	0	0	1964	768	2746	59
85	0	0	1966	770	2743	57
86	0	0	1990	772	2744	58
87	0	0	2028	771	2744	58
88	0	0	2053	769	2747	59
89	0	0	2074	771	2750	59
90	0	0	2100	771	2753	58
91	0	0	2109	771	2753	56
92	0	0	2125	771	2753	58
93	0	0	2144	769	2750	59
94	0	0	2177	771	2745	59
95	0	0	2210	771	2744	58
96	0	0	2192	768	2743	55
97	0	0	2150	769	2745	59
98	0	0	2102	767	2747	55
99	0	0	2056	767	2749	55
100	0	0	2019	768	2752	58
101	0	0	1977	767	2753	56
102	0	0	1927	767	2752	57
103	0	0	1879	768	2750	59
104	0	0	1835	767	2745	56
105	0	0	1840	769	2743	58
106	0	0	1884	772	2743	56
107	0	0	1937	771	2744	58
108	0	0	2016	768	2747	59
109	0	0	2105	770	2749	57
110	0	0	2156	770	2752	56
111	0	0	2186	771	2752	56
112	0	0	2194	770	2752	59
113	0	0	2168	768	2750	60
114	0	0	2159	773	2745	59
115	0	0	2172	771	2743	58
116	0	0	2163	770	2742	56
117	0	0	2140	768	2744	58
118	0	0	2108	770	2746	57
119	0	0	2062	767	2748	53
120	0	0	1999	766	2752	56
121	0	0	1953	768	2752	58
122	0	0	1934	769	2751	58
123	0	0	1937	769	2750	62
124	0	0	1937	768	2745	59
125	0	0	1920	767	2743	57
126	0	0	1915	770	2743	52
127	0	0	1943	770	2744	60
0	0	0	1990	768	2747	59
1	0	0	2038	772	2749	58
2	0	0	2086	769	2752	59
3	0	0	2131	770	2752	58
4	0	0	2154	771	2752	58
5	0	0	2162	771	2749	59
6	0	0	2164	773	2745	58
7	0	0	2168	769	2742	59
8	0	0	2145	768	2742	56
9	0	0	2118	767	2744	53
10	0	0	2082	767	2746	58
11	0	0	2022	770	2748	57
12	0	0	1984	767	2751	58
13	0	0	1968	768	2752	56
14	0	0	1933	767	2752	56
15	0	0	1888	765	2750	58
16	0	0	1875	772	2744	57
17	0	0	1886	771	2742	58
18	0	0	1917	771	2743	58
19	0	0	1942	771	2743	58
20	0	0	1958	770	2745	59
21	0	0	1973	769	2747	59
22	0	0	2010	772	2751	59
23	0	0	2058	770	2751	55
24	0	0	2111	769	2752	59
25	0	0	2152	770	2749	59
26	0	0	2179	772	2744	57
27	0	0	2176	766	2742	54
28	0	0	2122	767	2742	56
29	0	0	2106	770	2743	58
30	0	0	2080	767	2746	59
31	0	0	2022	769	2748	58
32	0	0	1962	764	2751	58
33	0	0	1923	769	2751	58
34	0	0	1904	769	2751	59
35	0	0	1900	770	2749	58
36	0	0	1900	771	2745	57
37	0	0	1897	767	2742	57
38	0	0	1916	770	2742	58
39	0	0	1928	770	2743	59
40	0	0	1958	770	2745	58
41	0	0	2008	771	2747	60
42	0	0	2073	771	2750	59
43	0	0	2127	770	2751	58
44	0	0	2154	771	2750	60
45	0	0	2178	772	2749	59
46	0	0	2207	769	2744	58
47	0	0	2234	770	2742	58
48	0	0	2211	768	2742	55
49	0	0	2165	767	2743	54
50	0	0	2114	766	2746	55
51	0	0	2054	767	2747	54
52	0	0	2001	768	2750	59
53	0	0	1953	767	2750	58
54	0	0	1928	768	2750	58
55	0	0	1930	772	2748	59
56	0	0	1958	770	2743	59
57	0	0	1991	771	2742	58
58	0	0	2043	772	2741	58
59	0	0	2109	771	2743	58
60	0	0	2163	771	2745	59
61	0	0	2241	771	2747	59
62	0	0	2307	770	2750	59
63	0	0	2355	770	2750	59
64	0	0	2388	770	2750	60
65	0	0	2412	771	2748	58
66	0	0	2443	771	2741	58
67	0	0	2491	771	2742	59
68	0	0	2533	772	2741	58
69	0	0	2535	767	2742	54
70	0	0	2498	767	2745	54
71	0	0	2442	770	2747	58
72	0	0	2401	771	2749	59
73	0	0	2368	768	2750	59
74	0	0	2329	767	2749	58
75	0	0	2312	774	2747	58
76	0	0	2303	771	2743	58
77	0	0	2291	772	2741	58
78	0	0	2282	771	2741	57
79	0	0	2269	767	2742	57
80	0	0	2279	772	2744	58
81	0	0	2307	771	2747	58
82	0	0	2327	773	2750	59
83	0	0	2347	770	2750	59
84	0	0	2351	771	2750	59
85	0	0	2360	774	2747	59
86	0	0	2349	771	2743	60
87	0	0	2320	771	2742	58
88	0	0	2231	768	2741	59
89	0	0	2127	765	2743	57
90	0	0	2025	767	2746	58
91	0	0	1958	767	2747	58
92	0	0	1917	767	2750	57
93	0	0	1867	767	2750	56
94	0	0	1824	767	2751	58
95	0	0	1811	770	2748	57
96	0	0	1818	769	2744	59
97	0	0	1831	771	2741	57
98	0	0	1868	771	2741	59
99	0	0	1908	771	2742	58
100	0	0	1933	771	2745	60
101	0	0	1971	771	2748	60
102	0	0	1997	771	2749	59
103	0	0	2005	771	2751	60
104	0	0	2025	769	2749	59
105	0	0	2062	772	2747	57
106	0	0	2112	771	2744	62
107	0	0	2146	773	2741	58
108	0	0	2140	771	2740	56
109	0	0	2128	769	2741	59
110	0	0	2091	770	2743	58
111	0	0	2025	767	2747	55
112	0	0	1964	767	2749	58
113	0	0	1923	767	2749	58
114	0	0	1895	767	2750	58
115	0	0	1879	769	2747	60
116	0	0	1875	770	2744	59
117	0	0	1866	772	2741	58
118	0	0	1876	771	2740	58
119	0	0	1900	771	2742	60
120	0	0	1923	771	2744	59
121	0	0	1990	771	2747	58
122	0	0	2050	773	2749	60
123	0	0	2096	770	2749	59
124	0	0	2139	767	2749	58
125	0	0	2164	774	2747	58
126	0	0	2182	772	2744	59
127	0	0	2200	771	2741	58
0	0	0	2179	768	2740	59
1	0	0	2142	767	2742	55
2	0	0	2107	769	2744	61
3	0	0	2073	767	2747	55
4	0	0	2040	771	2749	58
5	0	0	2014	769	2750	60
6	0	0	1976	768	2749	59
7	0	0	1929	771	2747	58
8	0	0	1887	767	2743	54
9	0	0	1851	767	2740	57
10	0	0	1874	770	2740	59
11	0	0	1960	771	2741	59
12	0	0	2037	771	2743	59
13	0	0	2099	772	2747	59
14	0	0	2127	775	2748	58
15	0	0	2135	772	2749	60
16	0	0	2147	771	2749	59
17	0	0	2158	771	2746	59
18	0	0	2163	770	2743	59
19	0	0	2166	770	2740	58
20	0	0	2144	770	2740	57
21	0	0	2139	771	2742	61
22	0	0	2123	767	2744	55
23	0	0	2057	767	2747	55
24	0	0	1973	768	2749	59
25	0	0	1903	767	2750	57
26	0	0	1876	771	2749	59
27	0	0	1896	771	2746	59
28	0	0	1927	772	2743	59
29	0	0	1946	767	2740	60
30	0	0	1978	773	2739	58
31	0	0	2006	771	2741	60
32	0	0	2021	771	2744	57
33	0	0	2045	771	2747	58
34	0	0	2070	769	2748	58
35	0	0	2096	771	2750	60
36	0	0	2115	772	2750	59
37	0	0	2133	770	2748	59
38	0	0	2160	771	2744	58
39	0	0	2229	772	2740	59
40	0	0	2253	770	2741	58
41	0	0	2212	767	2741	54
42	0	0	2157	767	2744	55
43	0	0	2070	765	2747	57
44	0	0	1978	766	2748	58
45	0	0	1933	768	2749	59
46	0	0	1924	771	2748	58
47	0	0	1929	769	2747	59
48	0	0	1954	771	2743	59
49	0	0	1966	772	2740	58
50	0	0	1979	770	2740	58
51	0	0	1993	771	2741	58
52	0	0	2017	770	2744	60
53	0	0	2057	770	2746	59
54	0	0	2091	767	2749	55
55	0	0	2131	771	2749	59
56	0	0	2178	772	2748	61
57	0	0	2223	771	2747	60
58	0	0	2251	770	2743	59
59	0	0	2270	772	2740	58
60	0	0	2235	768	2739	59
61	0	0	2180	768	2740	61
62	0	0	2135	767	2744	52
63	0	0	2087	768	2746	59
64	0	0	2049	768	2749	59
65	0	0	1998	767	2749	59
66	0	0	1937	767	2748	58
67	0	0	1924	771	2747	57
68	0	0	1936	771	2743	58
69	0	0	1964	773	2740	59
70	0	0	2019	771	2740	58
71	0	0	2073	769	2742	58
72	0	0	2104	769	2744	57
73	0	0	2119	771	2747	59
74	0	0	2145	771	2749	59
75	0	0	2165	771	2748	59
76	0	0	2179	771	2748	60
77	0	0	2201	767	2746	53
78	0	0	2229	771	2742	58
79	0	0	2266	772	2739	59
80	0	0	2264	770	2739	59
81	0	0	2248	772	2740	59
82	0	0	2220	767	2743	56
83	0	0	2159	767	2745	55
84	0	0	2089	767	2748	58
85	0	0	2045	767	2749	58
86	0	0	2014	768	2749	59
87	0	0	1993	770	2747	58
88	0	0	1998	771	2743	58
89	0	0	2023	772	2740	58
90	0	0	2083	770	2740	58
91	0	0	2120	770	2741	58
92	0	0	2127	767	2743	57
93	0	0	2118	770	2746	59
94	0	0	2125	771	2749	59
95	0	0	2155	771	2748	58
96	0	0	2204	772	2747	58
97	0	0	2278	767	2746	56
98	0	0	2335	771	2742	60
99	0	0	2363	772	2739	58
100	0	0	2322	766	2740	53
101	0	0	2265	766	2741	54
102	0	0	2216	767	2744	55
103	0	0	2152	767	2746	56
104	0	0	2072	767	2748	58
105	0	0	1997	767	2749	58
106	0	0	1959	767	2750	57
107	0	0	1957	770	2747	61
108	0	0	1959	770	2743	59
109	0	0	1966	771	2740	57
110	0	0	2013	770	2739	60
111	0	0	2056	772	2741	56
112	0	0	2086	769	2742	57
113	0	0	2116	771	2745	59
114	0	0	2141	771	2747	59
115	0	0	2192	771	2749	57
116	0	0	2282	769	2748	59
117	0	0	2344	771	2746	59
118	0	0	2364	770	2743	59
119	0	0	2359	771	2740	58
120	0	0	2322	767	2739	54
121	0	0	2277	770	2741	58
122	0	0	2237	767	2744	55
123	0	0	2203	769	2746	59
124	0	0	2180	769	2749	60
125	0	0	2151	767	2748	58
126	0	0	2123	767	2749	58
127	0	0	2088	768	2746	60
0	0	0	2054	767	2742	58
1	0	0	2030	769	2739	59
2	0	0	2035	770	2739	61
3	0	0	2053	771	2741	59
4	0	0	2090	772	2743	60
5	0	0	2164	771	2747	60
6	0	0	2234	768	2748	60
7	0	0	2261	770	2748	59
8	0	0	2272	767	2749	52
9	0	0	2278	772	2747	55
10	0	0	2293	771	2743	59
11	0	0	2326	772	2741	58
12	0	0	2340	771	2739	58
13	0	0	2337	772	2741	59
14	0	0	2309	768	2743	60
15	0	0	2248	768	2745	59
16	0	0	2197	769	2747	59
17	0	0	2163	768	2748	59
18	0	0	2138	767	2749	56
19	0	0	2108	767	2749	58
20	0	0	2070	768	2742	58
21	0	0	2072	769	2739	58
22	0	0	2119	771	2740	58
23	0	0	2164	772	2740	58
24	0	0	2216	769	2743	59
25	0	0	2276	770	2746	59
26	0	0	2324	771	2748	59
27	0	0	2329	771	2748	59
28	0	0	2336	772	2748	58
29	0	0	2350	771	2746	58
30	0	0	2372	770	2742	59
31	0	0	2401	768	2739	58
32	0	0	2386	767	2738	56
33	0	0	2354	769	2740	59
34	0	0	2327	769	2742	57
35	0	0	2287	768	2745	59
36	0	0	2247	768	2748	59
37	0	0	2225	769	2748	58
38	0	0	2192	769	2748	58
39	0	0	2154	768	2745	60
40	0	0	2142	770	2742	59
41	0	0	2137	768	2739	58
42	0	0	2132	767	2739	56
43	0	0	2135	773	2740	58
44	0	0	2154	772	2742	57
45	0	0	2200	771	2746	59
46	0	0	2271	768	2747	59
47	0	0	2331	771	2748	59
48	0	0	2354	770	2748	59
49	0	0	2356	772	2745	57
50	0	0	2381	771	2741	59
51	0	0	2426	771	2739	58
52	0	0	2416	770	2738	59
53	0	0	2397	773	2740	58
54	0	0	2365	767	2743	60
55	0	0	2294	767	2745	58
56	0	0	2222	765	2747	58
57	0	0	2188	769	2748	59
58	0	0	2176	770	2748	59
59	0	0	2151	768	2746	60
60	0	0	2121	769	2743	59
61	0	0	2104	768	2740	57
62	0	0	2127	771	2739	58
63	0	0	2155	771	2740	59
64	0	0	2192	772	2742	57
65	0	0	2220	771	2745	59
66	0	0	2232	768	2747	59
67	0	0	2253	771	2749	58
68	0	0	2272	774	2747	58
69	0	0	2304	771	2746	59
70	0	0	2337	771	2742	58
71	0	0	2358	768	2740	59
72	0	0	2352	771	2739	58
73	0	0	2326	769	2741	58
74	0	0	2279	768	2743	59
75	0	0	2217	768	2745	59
76	0	0	2141	764	2748	58
77	0	0	2115	769	2748	61
78	0	0	2076	768	2748	59
79	0	0	2039	770	2745	58
80	0	0	2039	771	2742	59
81	0	0	2040	770	2739	57
82	0	0	2039	771	2738	59
83	0	0	2046	771	2740	58
84	0	0	2091	770	2742	58
85	0	0	2123	770	2745	59
86	0	0	2154	768	2748	59
87	0	0	2181	768	2748	59
88	0	0	2190	771	2748	59
89	0	0	2193	772	2745	58
90	0	0	2189	771	2742	59
91	0	0	2188	770	2740	60
92	0	0	2165	767	2739	54
93	0	0	2122	768	2740	59
94	0	0	2083	768	2742	58
95	0	0	2027	767	2746	59
96	0	0	1984	767	2748	57
97	0	0	1949	767	2748	56
98	0	0	1908	767	2748	58
99	0	0	1857	767	2745	57
100	0	0	1807	767	2742	58
101	0	0	1787	770	2739	57
102	0	0	1811	771	2739	57
103	0	0	1880	769	2740	58
104	0	0	1941	770	2743	57
105	0	0	1984	771	2746	59
106	0	0	2018	771	2748	58
107	0	0	2056	771	2749	59
108	0	0	2115	770	2748	59
109	0	0	2170	771	2746	56
110	0	0	2198	771	2743	58
111	0	0	2185	768	2740	59
112	0	0	2134	767	2740	57
113	0	0	2076	765	2741	57
114	0	0	2006	767	2743	56
115	0	0	1938	767	2745	55
116	0	0	1911	767	2748	59
117	0	0	1909	771	2748	59
118	0	0	1895	767	2748	59
119	0	0	1860	767	2746	58
120	0	0	1838	770	2742	59
121	0	0	1853	771	2740	56
122	0	0	1892	771	2739	58
123	0	0	1912	769	2741	57
124	0	0	1901	768	2743	57
125	0	0	1893	770	2745	58
126	0	0	1913	770	2748	59
127	0	0	1972	770	2751	60
0	0	0	2033	773	2748	59
1	0	0	2075	772	2746	58
2	0	0	2094	771	2742	58
3	0	0	2091	769	2740	58
4	0	0	2062	768	2738	56
5	0	0	2042	767	2741	54
6	0	0	2003	767	2742	52
7	0	0	1953	767	2745	55
8	0	0	1925	769	2747	59
9	0	0	1927	771	2748	59
10	0	0	1928	770	2748	60
11	0	0	1900	767	2746	57
12	0	0	1882	769	2742	58
13	0	0	1858	768	2739	57
14	0	0	1841	769	2740	58
15	0	0	1852	767	2740	57
16	0	0	1886	772	2743	58
17	0	0	1934	771	2745	59
18	0	0	1995	768	2747	59
19	0	0	2045	770	2748	59
20	0	0	2059	770	2748	60
21	0	0	2053	771	2746	59
22	0	0	2077	771	2742	59
23	0	0	2108	768	2739	58
24	0	0	2100	770	2739	59
25	0	0	2080	768	2740	59
26	0	0	2033	767	2743	55
27	0	0	1984	767	2745	55
28	0	0	1936	766	2748	58
29	0	0	1904	768	2748	59
30	0	0	1881	766	2749	57
31	0	0	1866	768	2748	59
32	0	0	1842	767	2743	56
33	0	0	1826	769	2740	58
34	0	0	1832	771	2739	58
35	0	0	1856	771	2740	57
36	0	0	1902	772	2742	58
37	0	0	1958	771	2745	58
38	0	0	1999	769	2747	59
39	0	0	2037	770	2748	59
40	0	0	2066	771	2748	59
41	0	0	2082	770	2746	59
42	0	0	2119	771	2743	59
43	0	0	2143	771	2739	58
44	0	0	2116	767	2739	54
45	0	0	2077	769	2740	58
46	0	0	2056	768	2743	61
47	0	0	2024	767	2745	57
48	0	0	1981	767	2747	58
49	0	0	1951	768	2748	59
50	0	0	1936	768	2748	59
51	0	0	1904	767	2746	56
52	0	0	1899	770	2743	57
53	0	0	1908	769	2739	57
54	0	0	1920	770	2739	57
55	0	0	1902	768	2740	59
56	0	0	1902	770	2743	59
57	0	0	1939	770	2745	58
58	0	0	1979	770	2747	59
59	0	0	2032	771	2749	59
60	0	0	2070	770	2748	60
61	0	0	2092	770	2746	59
62	0	0	2120	770	2743	59
63	0	0	2143	771	2739	57
64	0	0	2103	768	2739	58
65	0	0	2072	769	2741	58
66	0	0	2049	767	2743	54
67	0	0	1999	767	2746	53
68	0	0	1947	767	2748	58
69	0	0	1910	767	2748	59
70	0	0	1891	768	2748	59
71	0	0	1885	771	2746	59
72	0	0	1878	770	2742	57
73	0	0	1872	770	2740	58
74	0	0	1898	771	2739	58
75	0	0	1945	770	2740	58
76	0	0	1973	770	2743	58
77	0	0	1980	770	2746	58
78	0	0	2000	772	2747	58
79	0	0	2045	770	2749	59
80	0	0	2082	772	2748	59
81	0	0	2106	771	2746	58
82	0	0	2152	770	2743	56
83	0	0	2207	770	2740	58
84	0	0	2225	770	2739	60
85	0	0	2173	766	2741	54
86	0	0	2104	765	2743	56
87	0	0	2020	766	2746	55
88	0	0	1961	766	2748	57
89	0	0	1907	768	2748	59
90	0	0	1875	767	2748	59
91	0	0	1845	767	2746	56
92	0	0	1822	766	2742	58
93	0	0	1806	771	2740	58
94	0	0	1835	770	2739	58
95	0	0	1888	769	2741	58
96	0	0	1925	769	2743	59
97	0	0	1954	770	2746	58
98	0	0	1992	770	2748	59
99	0	0	2044	770	2749	60
100	0	0	2093	771	2748	59
101	0	0	2149	771	2746	59
102	0	0	2189	770	2743	56
103	0	0	2190	768	2740	58
104	0	0	2141	767	2739	57
105	0	0	2110	768	2740	60
106	0	0	2088	767	2743	55
107	0	0	2038	767	2746	54
108	0	0	1971	766	2748	56
109	0	0	1928	768	2749	59
110	0	0	1907	766	2748	58
111	0	0	1883	768	2747	59
112	0	0	1875	767	2744	57
113	0	0	1889	771	2741	58
114	0	0	1935	769	2740	58
115	0	0	1965	771	2741	57
116	0	0	1985	768	2744	58
117	0	0	1997	770	2746	57
118	0	0	1999	769	2753	58
119	0	0	2026	767	2748	55
120	0	0	2082	770	2749	59
121	0	0	2126	770	2747	59
122	0	0	2161	770	2742	57
123	0	0	2191	770	2741	57
124	0	0	2182	769	2739	59
125	0	0	2150	767	2741	55
126	0	0	2108	766	2743	55
127	0	0	2052	766	2747	58
0	0	0	1997	766	2749	58
1	0	0	1956	766	2749	58
2	0	0	1923	768	2748	58
3	0	0	1907	767	2747	58
4	0	0	1898	768	2744	57
5	0	0	1893	767	2741	56
6	0	0	1913	769	2740	58
7	0	0	1950	769	2741	58
8	0	0	1993	769	2744	58
9	0	0	2023	770	2746	59
10	0	0	2052	769	2749	59
11	0	0	2085	770	2749	60
12	0	0	2129	770	2748	61
13	0	0	2148	769	2748	59
14	0	0	2139	771	2744	58
15	0	0	2145	769	2740	59
16	0	0	2126	767	2740	57
17	0	0	2114	770	2741	58
18	0	0	2083	765	2745	56
19	0	0	2035	766	2747	56
20	0	0	1979	768	2750	60
21	0	0	1923	766	2750	57
22	0	0	1879	768	2749	58
23	0	0	1858	768	2749	58
24	0	0	1861	769	2743	59
25	0	0	1860	770	2741	58
26	0	0	1879	769	2740	58
27	0	0	1916	770	2741	58
28	0	0	1969	768	2745	57
29	0	0	2007	770	2745	58
30	0	0	2033	769	2750	61
31	0	0	2057	769	2751	59
32	0	0	2082	769	2749	59
33	0	0	2103	768	2748	58
34	0	0	2101	769	2744	60
35	0	0	2117	770	2742	60
36	0	0	2116	770	2741	58
37	0	0	2102	769	2742	62
38	0	0	2076	766	2745	58
39	0	0	2026	764	2747	60
40	0	0	1984	767	2749	58
41	0	0	1961	768	2750	59
42	0	0	1950	767	2749	60
43	0	0	1950	770	2748	59
44	0	0	1932	766	2744	59
45	0	0	1892	766	2741	58
46	0	0	1903	769	2740	58
47	0	0	1949	770	2742	58
48	0	0	1980	770	2745	57
49	0	0	2021	770	2747	58
50	0	0	2065	769	2750	59
51	0	0	2086	769	2750	60
52	0	0	2106	770	2750	59
53	0	0	2126	769	2749	59
54	0	0	2142	770	2745	59
55	0	0	2165	770	2742	58
56	0	0	2150	768	2741	58
57	0	0	2130	769	2743	58
58	0	0	2097	766	2745	56
59	0	0	2036	766	2747	58
60	0	0	1978	766	2750	58
61	0	0	1944	767	2750	58
62	0	0	1918	765	2750	62
63	0	0	1892	767	2748	58
64	0	0	1885	769	2744	59
65	0	0	1877	769	2740	58
66	0	0	1887	770	2741	58
67	0	0	1916	768	2743	59
68	0	0	1954	770	2745	59
69	0	0	1999	768	2748	61
70	0	0	2048	770	2750	59
71	0	0	2110	769	2751	59
72	0	0	2157	769	2751	62
73	0	0	2160	767	2749	58
74	0	0	2131	770	2745	57
75	0	0	2144	770	2741	59
76	0	0	2151	770	2742	59
77	0	0	2136	768	2742	59
78	0	0	2102	766	2744	57
79	0	0	2042	766	2748	55
80	0	0	1978	766	2750	57
81	0	0	1930	768	2750	59
82	0	0	1900	767	2751	58
83	0	0	1888	769	2749	59
84	0	0	1895	769	2745	56
85	0	0	1894	769	2741	58
86	0	0	1924	770	2742	58
87	0	0	1970	769	2743	62
88	0	0	2011	769	2745	58
89	0	0	2054	769	2748	59
90	0	0	2078	769	2749	60
91	0	0	2101	767	2751	58
92	0	0	2132	768	2751	59
93	0	0	2160	770	2749	59
94	0	0	2172	769	2745	58
95	0	0	2187	769	2742	58
96	0	0	2200	769	2741	58
97	0	0	2198	769	2744	56
98	0	0	2174	766	2744	57
99	0	0	2116	766	2748	57
100	0	0	2051	765	2749	58
101	0	0	2016	768	2751	59
102	0	0	1997	768	2751	59
103	0	0	1984	769	2749	59
104	0	0	1987	767	2746	59
105	0	0	1963	766	2742	57
106	0	0	1952	768	2742	58
107	0	0	1969	769	2743	59
108	0	0	1994	770	2745	59
109	0	0	2024	770	2748	59
110	0	0	2046	769	2749	59
111	0	0	2078	769	2752	57
112	0	0	2133	769	2750	57
113	0	0	2174	769	2748	58
114	0	0	2191	769	2745	55
115	0	0	2198	769	2743	58
116	0	0	2177	767	2742	57
117	0	0	2143	766	2744	56
118	0	0	2099	766	2746	58
119	0	0	2048	766	2749	57
120	0	0	2007	766	2750	58
121	0	0	1996	767	2752	55
122	0	0	1965	765	2752	56
123	0	0	1936	767	2748	59
124	0	0	1934	768	2745	56
125	0	0	1922	767	2742	56
126	0	0	1913	769	2741	59
127	0	0	1924	769	2744	58
0	0	0	1963	769	2746	58
1	0	0	1999	768	2748	56
2	0	0	2016	769	2751	59
3	0	0	2048	769	2751	59
4	0	0	2097	767	2751	58
5	0	0	2152	770	2750	59
6	0	0	2207	769	2746	58
7	0	0	2247	767	2743	57
8	0	0	2247	767	2743	57
9	0	0	2205	764	2744	57
10	0	0	2152	765	2745	56
11	0	0	2083	765	2749	56
12	0	0	2017	766	2750	58
13	0	0	1945	765	2752	56
14	0	0	1884	764	2752	57
15	0	0	1867	769	2749	59
16	0	0	1884	768	2746	59
17	0	0	1889	768	2742	57
18	0	0	1893	770	2742	58
19	0	0	1923	769	2744	58
20	0	0	1954	767	2745	59
21	0	0	2009	769	2748	60
22	0	0	2079	768	2751	58
23	0	0	2140	770	2752	57
24	0	0	2170	769	2753	58
25	0	0	2163	768	2751	60
26	0	0	2150	769	2746	58
27	0	0	2158	769	2743	58
28	0	0	2144	766	2742	57
29	0	0	2095	765	2743	58
30	0	0	2037	765	2746	58
31	0	0	1999	767	2749	58
32	0	0	1998	768	2750	59
33	0	0	1985	768	2751	59
34	0	0	1943	765	2752	57
35	0	0	1898	765	2750	56
36	0	0	1891	768	2746	60
37	0	0	1892	769	2743	58
38	0	0	1906	768	2742	59
39	0	0	1958	768	2744	59
40	0	0	2007	767	2747	55
41	0	0	2035	767	2749	56
42	0	0	2063	769	2751	59
43	0	0	2102	767	2752	57
44	0	0	2119	768	2753	59
45	0	0	2112	770	2750	60
46	0	0	2108	769	2746	58
47	0	0	2111	767	2743	56
48	0	0	2083	766	2742	58
49	0	0	2055	766	2743	58
50	0	0	2045	767	2746	57
51	0	0	2013	767	2749	57
52	0	0	1984	766	2750	58
53	0	0	1972	768	2752	58
54	0	0	1954	763	2752	56
55	0	0	1914	766	2750	59
56	0	0	1890	767	2746	60
57	0	0	1899	768	2743	56
58	0	0	1908	768	2742	58
59	0	0	1920	768	2745	58
60	0	0	1947	769	2747	56
61	0	0	1990	767	2749	58
62	0	0	2032	768	2752	56
63	0	0	2071	768	2753	59
64	0	0	2088	767	2752	57
65	0	0	2107	769	2750	59
66	0	0	2131	768	2747	62
67	0	0	2169	768	2743	59
68	0	0	2182	768	2742	58
69	0	0	2162	765	2745	57
70	0	0	2106	765	2747	58
71	0	0	2035	765	2749	60
72	0	0	1980	765	2751	57
73	0	0	1950	766	2752	57
74	0	0	1943	768	2753	57
75	0	0	1958	769	2750	59
76	0	0	1968	769	2746	60
77	0	0	1973	767	2743	56
78	0	0	1994	768	2743	58
79	0	0	2019	767	2744	57
80	0	0	2068	769	2746	58
81	0	0	2138	768	2749	59
82	0	0	2221	768	2751	59
83	0	0	2300	767	2752	57
84	0	0	2370	768	2751	58
85	0	0	2412	769	2750	56
86	0	0	2453	769	2746	59
87	0	0	2498	769	2744	59
88	0	0	2508	767	2743	58
89	0	0	2500	768	2744	59
90	0	0	2491	770	2747	59
91	0	0	2471	769	2750	60
92	0	0	2424	764	2752	58
93	0	0	2359	764	2752	57
94	0	0	2307	763	2752	57
95	0	0	2293	770	2751	59
96	0	0	2289	767	2747	58
97	0	0	2267	766	2743	57
98	0	0	2253	767	2743	57
99	0	0	2252	767	2744	57
100	0	0	2278	768	2746	58
101	0	0	2313	771	2748	60
102	0	0	2310	767	2752	59
103	0	0	2305	769	2752	58
104	0	0	2310	767	2752	57
105	0	0	2334	769	2750	62
106	0	0	2364	768	2747	58
107	0	0	2375	767	2744	56
108	0	0	2313	764	2743	57
109	0	0	2231	763	2744	57
110	0	0	2173	765	2747	56
111	0	0	2106	764	2749	60
112	0	0	2027	766	2751	59
113	0	0	1983	764	2751	58
114	0	0	1945	763	2752	57
115	0	0	1908	765	2752	53
116	0	0	1876	764	2747	58
117	0	0	1838	766	2742	56
118	0	0	1836	767	2743	58
119	0	0	1836	767	2744	57
120	0	0	1834	767	2747	58
121	0	0	1857	767	2750	57
122	0	0	1900	768	2752	57
123	0	0	1947	768	2753	57
124	0	0	2000	768	2753	58
125	0	0	2033	768	2752	56
126	0	0	2049	769	2747	62
127	0	0	2072	768	2745	59
0	0	0	2070	768	2743	59
1	0	0	2064	769	2745	59
2	0	0	2062	767	2748	60
3	0	0	2030	765	2750	59
4	0	0	1965	764	2752	57
5	0	0	1924	768	2752	58
6	0	0	1926	767	2753	58
7	0	0	1899	765	2752	59
8	0	0	1867	766	2747	59
9	0	0	1837	765	2743	56
10	0	0	1845	768	2743	58
11	0	0	1888	767	2745	58
12	0	0	1932	768	2747	59
13	0	0	1953	766	2749	55
14	0	0	1965	768	2752	58
15	0	0	1987	768	2753	59
16	0	0	2013	768	2753	58
17	0	0	2054	767	2751	59
18	0	0	2103	769	2748	59
19	0	0	2173	768	2744	59
20	0	0	2189	766	2743	57
21	0	0	2136	764	2745	58
22	0	0	2070	764	2747	58
23	0	0	2011	764	2750	58
24	0	0	1984	766	2751	58
25	0	0	1970	766	2753	56
26	0	0	1943	766	2752	57
27	0	0	1931	766	2751	58
28	0	0	1940	766	2747	55
29	0	0	1920	765	2744	56
30	0	0	1916	768	2743	59
31	0	0	1922	768	2745	59
32	0	0	1944	768	2748	60
33	0	0	1974	768	2750	57
34	0	0	1999	766	2753	57
35	0	0	2058	766	2754	57
36	0	0	2079	767	2753	58
37	0	0	2096	767	2751	58
38	0	0	2136	768	2748	60
39	0	0	2186	767	2744	55
40	0	0	2207	767	2743	57
41	0	0	2201	767	2744	59
42	0	0	2168	765	2747	58
43	0	0	2116	764	2750	58
44	0	0	2076	765	2752	57
45	0	0	2037	764	2753	57
46	0	0	1949	763	2753	57
47	0	0	1875	763	2751	59
48	0	0	1845	765	2748	55
49	0	0	1843	767	2744	57
50	0	0	1884	767	2744	57
51	0	0	1929	763	2747	58
52	0	0	1968	765	2747	57
53	0	0	2017	767	2749	59
54	0	0	2083	768	2752	56
55	0	0	2158	767	2753	59
56	0	0	2200	767	2752	56
57	0	0	2193	762	2751	58
58	0	0	2165	767	2747	55
59	0	0	2183	767	2744	58
60	0	0	2179	768	2743	58
61	0	0	2152	766	2745	58
62	0	0	2121	762	2748	57
63	0	0	2048	764	2750	55
64	0	0	1976	764	2752	56
65	0	0	1931	764	2752	57
66	0	0	1899	764	2753	57
67	0	0	1882	763	2752	56
68	0	0	1877	767	2748	58
69	0	0	1875	767	2743	56
70	0	0	1897	767	2744	57
71	0	0	1922	767	2744	57
72	0	0	1939	766	2746	59
73	0	0	1975	769	2750	60
74	0	0	2029	767	2753	57
75	0	0	2101	767	2753	57
76	0	0	2167	767	2753	60
77	0	0	2181	765	2751	59
78	0	0	2181	767	2748	58
79	0	0	2202	767	2744	56
80	0	0	2201	767	2745	58
81	0	0	2177	766	2745	56
82	0	0	2154	763	2747	59
83	0	0	2108	763	2750	60
84	0	0	2054	763	2753	58
85	0	0	1996	763	2753	56
86	0	0	1944	763	2752	59
87	0	0	1922	765	2750	59
88	0	0	1918	767	2747	33
89	0	0	1915	766	2744	56
90	0	0	1923	768	2743	58
91	0	0	1960	766	2745	57
92	0	0	2004	767	2747	58
93	0	0	2042	767	2750	59
94	0	0	2090	767	2753	57
95	0	0	2148	767	2754	57
96	0	0	2195	768	2754	62
97	0	0	2207	765	2751	58
98	0	0	2207	767	2748	56
99	0	0	2230	767	2745	57
100	0	0	2232	767	2744	57
101	0	0	2207	763	2745	57
102	0	0	2166	761	2747	57
103	0	0	2102	764	2750	60
104	0	0	2064	767	2751	57
105	0	0	2055	766	2753	57
106	0	0	2022	763	2752	57
107	0	0	1978	762	2751	58
108	0	0	1944	762	2748	58
109	0	0	1916	764	2744	56
110	0	0	1923	766	2745	58
111	0	0	1956	767	2745	57
112	0	0	1995	763	2747	58
113	0	0	2032	766	2751	58
114	0	0	2095	767	2752	56
115	0	0	2173	767	2755	57
116	0	0	2211	767	2753	56
117	0	0	2215	767	2752	55
118	0	0	2222	766	2748	58
119	0	0	2240	767	2744	56
120	0	0	2228	768	2744	59
121	0	0	2212	768	2745	57
122	0	0	2188	763	2747	55
123	0	0	2133	763	2750	60
124	0	0	2082	763	2751	58
125	0	0	2039	764	2753	57
126	0	0	2006	764	2753	55
127	0	0	1987	765	2752	56
0	0	0	1985	769	2748	60
1	0	0	1979	767	2744	56
2	0	0	1983	767	2744	57
3	0	0	2003	766	2746	56
4	0	0	2044	768	2748	58
5	0	0	2082	766	2752	57
6	0	0	2125	767	2753	57
7	0	0	2168	766	2753	57
8	0	0	2200	767	2754	59
9	0	0	2212	768	2752	59
10	0	0	2225	768	2748	60
11	0	0	2239	767	2744	57
12	0	0	2221	766	2745	59
13	0	0	2222	766	2746	56
14	0	0	2242	768	2747	56
15	0	0	2222	764	2751	60
16	0	0	2161	763	2752	58
17	0	0	2083	763	2753	57
18	0	0	2040	764	2754	56
19	0	0	2011	762	2752	57
20	0	0	2003	766	2748	59
21	0	0	2014	767	2745	57
22	0	0	2029	767	2744	59
23	0	0	2046	767	2745	57
24	0	0	2082	768	2747	60
25	0	0	2127	767	2750	60
26	0	0	2162	766	2752	60
27	0	0	2184	765	2753	57
28	0	0	2208	766	2753	57
29	0	0	2225	765	2752	57
30	0	0	2246	767	2748	60
31	0	0	2295	768	2744	59
32	0	0	2316	767	2744	57
33	0	0	2298	763	2745	58
34	0	0	2252	762	2748	58
35	0	0	2188	763	2751	58
36	0	0	2140	764	2753	57
37	0	0	2120	766	2755	57
38	0	0	2110	768	2754	58
39	0	0	2086	763	2752	58
40	0	0	2055	764	2748	59
41	0	0	2026	765	2744	61
42	0	0	2042	766	2744	58
43	0	0	2085	767	2745	57
44	0	0	2120	768	2748	60
45	0	0	2171	767	2750	60
46	0	0	2221	766	2752	59
47	0	0	2268	767	2751	59
48	0	0	2290	766	2753	57
49	0	0	2293	768	2752	56
50	0	0	2326	768	2749	63
51	0	0	2374	767	2745	60
52	0	0	2368	767	2744	58
53	0	0	2355	767	2745	57
54	0	0	2349	766	2748	58
55	0	0	2306	763	2751	61
56	0	0	2238	763	2753	58
57	0	0	2189	763	2754	57
58	0	0	2154	762	2753	55
59	0	0	2131	765	2752	56
60	0	0	2130	767	2748	59
61	0	0	2119	766	2744	59
62	0	0	2124	767	2744	58
63	0	0	2160	766	2744	55
64	0	0	2201	766	2748	58
65	0	0	2243	766	2751	60
66	0	0	2270	766	2754	57
67	0	0	2291	767	2754	57
68	0	0	2314	766	2754	58
69	0	0	2330	767	2753	57
70	0	0	2356	767	2749	59
71	0	0	2385	766	2746	57
72	0	0	2375	765	2744	57
73	0	0	2334	763	2746	58
74	0	0	2287	763	2749	58
75	0	0	2231	763	2751	58
76	0	0	2187	763	2752	60
77	0	0	2167	765	2754	57
78	0	0	2160	766	2753	55
79	0	0	2140	762	2752	58
80	0	0	2123	765	2748	57
81	0	0	2114	767	2745	59
82	0	0	2112	765	2744	58
83	0	0	2126	766	2744	55
84	0	0	2144	764	2748	58
85	0	0	2162	766	2752	56
86	0	0	2185	766	2753	61
87	0	0	2227	765	2754	57
88	0	0	2271	766	2754	55
89	0	0	2326	767	2753	59
90	0	0	2370	767	2749	58
91	0	0	2395	766	2745	58
92	0	0	2363	762	2744	58
93	0	0	2294	762	2745	55
94	0	0	2223	764	2748	56
95	0	0	2155	764	2751	57
96	0	0	2118	763	2753	59
97	0	0	2092	765	2755	57
98	0	0	2066	763	2754	58
99	0	0	2032	760	2753	57
100	0	0	2004	764	2749	57
101	0	0	1997	766	2745	55
102	0	0	2016	766	2745	58
103	0	0	2030	765	2746	55
104	0	0	2037	767	2749	57
105	0	0	2048	767	2752	57
106	0	0	2055	766	2753	59
107	0	0	2074	765	2754	57
108	0	0	2122	765	2755	55
109	0	0	2168	766	2753	56
110	0	0	2190	766	2749	59
111	0	0	2215	765	2745	57
112	0	0	2190	763	2745	59
113	0	0	2115	762	2746	57
114	0	0	2062	760	2748	59
115	0	0	2011	762	2752	56
116	0	0	1971	762	2753	55
117	0	0	1940	761	2754	57
118	0	0	1900	762	2755	55
119	0	0	1876	762	2754	56
120	0	0	1851	760	2750	58
121	0	0	1823	763	2746	56
122	0	0	1831	768	2745	59
123	0	0	1873	765	2746	57
124	0	0	1919	764	2748	58
125	0	0	1968	764	2752	56
126	0	0	1979	765	2753	55
127	0	0	1994	768	2754	58
0	0	0	2061	766	2755	57
1	0	0	2111	761	2753	57
2	0	0	2130	766	2749	59
3	0	0	2139	766	2745	59
4	0	0	2105	762	2746	58
5	0	0	2049	760	2747	57
6	0	0	1989	764	2749	56
7	0	0	1935	761	2752	57
8	0	0	1890	762	2755	56
9	0	0	1861	764	2755	57
10	0	0	1837	762	2755	58
11	0	0	1823	766	2753	54
12	0	0	1815	763	2749	57
13	0	0	1812	765	2746	56
14	0	0	1827	764	2746	58
15	0	0	1858	763	2747	57
16	0	0	1881	766	2749	56
17	0	0	1893	764	2752	57
18	0	0	1921	765	2753	56
19	0	0	1969	765	2755	57
20	0	0	2011	765	2755	59
21	0	0	2033	764	2753	57
22	0	0	2061	765	2749	58
23	0	0	2078	765	2746	56
24	0	0	2041	762	2745	57
25	0	0	2005	764	2747	58
26	0	0	1994	762	2749	58
27	0	0	1943	762	2752	57
28	0	0	1903	762	2754	56
29	0	0	1881	764	2754	57
30	0	0	1856	762	2755	56
31	0	0	1826	762	2753	57
32	0	0	1814	765	2750	58
33	0	0	1823	765	2746	56
34	0	0	1856	766	2745	57
35	0	0	1887	764	2746	58
36	0	0	1894	766	2749	56
37	0	0	1916	765	2752	56
38	0	0	1979	765	2754	56
39	0	0	2052	764	2756	56
40	0	0	2106	766	2756	58
41	0	0	2125	767	2754	56
42	0	0	2127	764	2750	58
43	0	0	2141	765	2747	56
44	0	0	2121	763	2746	59
45	0	0	2086	762	2747	56
46	0	0	2046	763	2749	56
47	0	0	1986	761	2752	58
48	0	0	1930	762	2754	56
49	0	0	1889	762	2755	57
50	0	0	1858	762	2755	57
51	0	0	1857	764	2754	57
52	0	0	1876	764	2750	58
53	0	0	1898	765	2746	56
54	0	0	1937	764	2746	58
55	0	0	1965	762	2747	58
56	0	0	1977	767	2750	56
57	0	0	1973	763	2752	57
58	0	0	1979	765	2754	61
59	0	0	2026	765	2755	57
60	0	0	2073	765	2755	55
61	0	0	2101	765	2754	58
62	0	0	2097	764	2750	59
63	0	0	2118	765	2746	62
64	0	0	2122	766	2746	58
65	0	0	2113	764	2746	58
66	0	0	2093	761	2749	57
67	0	0	2046	760	2753	57
68	0	0	2005	763	2755	56
69	0	0	1987	765	2755	57
70	0	0	1983	765	2755	56
71	0	0	1961	762	2755	57
72	0	0	1924	761	2750	58
73	0	0	1879	762	2746	58
74	0	0	1878	765	2746	58
75	0	0	1910	765	2748	58
76	0	0	1942	765	2750	58
77	0	0	1973	764	2753	59
78	0	0	2013	764	2754	58
79	0	0	2039	765	2755	56
80	0	0	2066	764	2755	57
81	0	0	2092	767	2754	56
82	0	0	2119	765	2750	59
83	0	0	2163	765	2746	58
84	0	0	2176	765	2746	57
85	0	0	2176	763	2747	58
86	0	0	2150	762	2750	58
87	0	0	2105	761	2752	59
88	0	0	2054	762	2754	57
89	0	0	1981	760	2755	57
90	0	0	1891	759	2755	57
91	0	0	1827	759	2754	56
92	0	0	1811	765	2751	59
93	0	0	1830	764	2747	58
94	0	0	1883	765	2747	56
95	0	0	1942	763	2747	57
96	0	0	1975	764	2750	58
97	0	0	2011	765	2753	56
98	0	0	2043	766	2755	57
99	0	0	2088	765	2755	57
100	0	0	2142	765	2756	56
101	0	0	2160	762	2755	56
102	0	0	2180	764	2751	58
103	0	0	2211	765	2748	57
104	0	0	2178	761	2746	58
105	0	0	2126	762	2748	57
106	0	0	2080	760	2750	59
107	0	0	2007	762	2753	57
108	0	0	1958	761	2755	58
109	0	0	1937	761	2756	57
110	0	0	1918	759	2756	57
111	0	0	1903	763	2755	57
112	0	0	1901	763	2748	58
113	0	0	1904	764	2747	55
114	0	0	1926	765	2746	57
115	0	0	1944	763	2747	58
116	0	0	1958	762	2749	61
117	0	0	2003	768	2753	58
118	0	0	2066	764	2754	60
119	0	0	2097	765	2757	57
120	0	0	2110	763	2755	57
121	0	0	2117	763	2754	59
122	0	0	2144	765	2751	59
123	0	0	2182	763	2747	55
124	0	0	2186	765	2747	57
125	0	0	2151	759	2747	58
126	0	0	2096	760	2750	61
127	0	0	2053	762	2753	57
0	0	0	2017	764	2754	58
1	0	0	2013	764	2756	57
2	0	0	1994	759	2755	57
3	0	0	1932	759	2754	59
4	0	0	1898	763	2750	59
5	0	0	1897	764	2747	55
6	0	0	1909	764	2747	58
7	0	0	1947	763	2747	58
8	0	0	1991	764	2750	60
9	0	0	2050	765	2753	57
10	0	0	2098	765	2755	55
11	0	0	2136	767	2757	57
12	0	0	2150	764	2757	54
13	0	0	2143	766	2755	57
14	0	0	2128	765	2752	57
15	0	0	2158	764	2747	55
16	0	0	2185	765	2748	58
17	0	0	2167	762	2748	60
18	0	0	2114	760	2750	59
19	0	0	2041	761	2753	57
20	0	0	1984	761	2754	55
21	0	0	1938	761	2756	57
22	0	0	1894	763	2757	58
23	0	0	1868	764	2755	57
24	0	0	1881	764	2751	58
25	0	0	1902	764	2747	55
26	0	0	1923	766	2746	57
27	0	0	1955	764	2748	60
28	0	0	1983	762	2750	60
29	0	0	1995	764	2753	57
30	0	0	2006	764	2755	55
31	0	0	2044	764	2756	58
32	0	0	2101	764	2757	57
33	0	0	2106	765	2756	59
34	0	0	2101	764	2751	58
35	0	0	2154	764	2747	55
36	0	0	2188	764	2746	58
37	0	0	2161	761	2748	58
38	0	0	2122	763	2750	59
39	0	0	2078	761	2753	57
40	0	0	2026	761	2755	53
41	0	0	1981	764	2755	56
42	0	0	1950	761	2756	61
43	0	0	1922	760	2755	57
44	0	0	1876	760	2751	59
45	0	0	1849	764	2747	55
46	0	0	1883	765	2747	58
47	0	0	1937	764	2749	58
48	0	0	1993	763	2752	57
49	0	0	2042	761	2753	56
50	0	0	2075	764	2755	55
51	0	0	2103	763	2756	57
52	0	0	2125	765	2757	57
53	0	0	2141	765	2755	56
54	0	0	2150	764	2751	58
55	0	0	2170	765	2747	55
56	0	0	2170	765	2747	58
57	0	0	2168	763	2748	58
58	0	0	2144	763	2750	58
59	0	0	2100	761	2754	57
60	0	0	2044	760	2755	56
61	0	0	1982	760	2757	57
62	0	0	1941	761	2758	58
63	0	0	1923	762	2754	56
64	0	0	1903	760	2752	57
65	0	0	1890	764	2748	56
66	0	0	1900	764	2747	57
67	0	0	1925	764	2748	62
68	0	0	1951	764	2750	57
69	0	0	1992	762	2753	58
70	0	0	2039	763	2755	56
71	0	0	2101	764	2756	57
72	0	0	2144	763	2756	57
73	0	0	2156	766	2755	56
74	0	0	2146	762	2752	56
75	0	0	2161	764	2748	58
76	0	0	2167	768	2747	59
77	0	0	2162	763	2748	59
78	0	0	2144	761	2750	58
79	0	0	2079	761	2754	57
80	0	0	1979	760	2755	56
81	0	0	1894	763	2756	57
82	0	0	1872	763	2757	60
83	0	0	1881	764	2756	57
84	0	0	1895	762	2752	57
85	0	0	1894	764	2747	56
86	0	0	1910	764	2747	58
87	0	0	1946	760	2748	58
88	0	0	1980	764	2750	57
89	0	0	2013	764	2754	55
90	0	0	2045	764	2756	57
91	0	0	2085	768	2756	59
92	0	0	2134	764	2756	55
93	0	0	2155	764	2754	57
94	0	0	2159	763	2753	58
95	0	0	2175	765	2748	56
96	0	0	2161	763	2747	58
97	0	0	2117	759	2749	59
98	0	0	2063	762	2751	57
99	0	0	2017	760	2755	56
100	0	0	1986	761	2756	57
101	0	0	1961	761	2756	57
102	0	0	1937	761	2756	56
103	0	0	1926	765	2754	56
104	0	0	1913	760	2752	57
105	0	0	1901	762	2748	58
106	0	0	1912	764	2747	59
107	0	0	1964	764	2748	57
108	0	0	2004	766	2750	58
109	0	0	2046	763	2753	57
110	0	0	2082	764	2756	55
111	0	0	2109	764	2758	57
112	0	0	2128	764	2757	56
113	0	0	2148	764	2755	57
114	0	0	2168	764	2752	57
115	0	0	2197	764	2749	57
116	0	0	2183	762	2747	58
117	0	0	2158	762	2749	58
118	0	0	2118	760	2751	58
119	0	0	2035	757	2753	57
120	0	0	1962	760	2755	56
121	0	0	1918	759	2758	56
122	0	0	1899	761	2757	57
123	0	0	1886	764	2755	56
124	0	0	1890	765	2752	57
125	0	0	1891	764	2748	59
126	0	0	1898	763	2747	57
127	0	0	1934	766	2748	57
0	0	0	1971	763	2751	59
1	0	0	2020	764	2754	57
2	0	0	2075	764	2757	58
3	0	0	2116	764	2757	57
4	0	0	2147	763	2757	55
5	0	0	2175	763	2755	56
6	0	0	2189	765	2752	58
7	0	0	2210	763	2748	58
8	0	0	2208	762	2747	58
9	0	0	2188	761	2748	59
10	0	0	2166	761	2750	58
11	0	0	2131	760	2754	57
12	0	0	2090	760	2755	57
13	0	0	2046	759	2758	57
14	0	0	1999	762	2757	60
15	0	0	1989	763	2754	58
16	0	0	1982	765	2752	57
17	0	0	1961	761	2748	55
18	0	0	1958	762	2748	56
19	0	0	1982	762	2749	57
20	0	0	1997	764	2752	60
21	0	0	2008	765	2754	58
22	0	0	2052	763	2756	57
23	0	0	2111	761	2758	57
24	0	0	2161	764	2758	56
25	0	0	2188	763	2755	58
26	0	0	2195	763	2753	58
27	0	0	2211	763	2748	58
28	0	0	2199	761	2748	59
29	0	0	2165	759	2749	57
30	0	0	2137	760	2753	58
31	0	0	2101	763	2754	57
32	0	0	2064	760	2756	57
33	0	0	2016	758	2758	56
34	0	0	1963	759	2758	58
35	0	0	1914	761	2757	57
36	0	0	1891	763	2753	56
37	0	0	1904	762	2748	57
38	0	0	1934	763	2749	58
39	0	0	1955	765	2749	56
40	0	0	1975	762	2752	60
41	0	0	2004	765	2754	57
42	0	0	2031	763	2755	59
43	0	0	2050	762	2758	57
44	0	0	2073	763	2757	59
45	0	0	2108	765	2757	58
46	0	0	2139	766	2752	58
47	0	0	2160	763	2748	58
48	0	0	2136	758	2749	57
49	0	0	2106	761	2749	56
50	0	0	2079	760	2753	58
51	0	0	2035	761	2754	57
52	0	0	1995	760	2757	57
53	0	0	1954	759	2757	57
54	0	0	1914	760	2755	59
55	0	0	1885	761	2757	55
56	0	0	1855	763	2752	57
57	0	0	1820	760	2748	58
58	0	0	1842	761	2748	57
59	0	0	1907	764	2749	56
60	0	0	1961	764	2752	57
61	0	0	2005	762	2754	58
62	0	0	2031	763	2756	57
63	0	0	2064	760	2758	57
64	0	0	2099	763	2758	56
65	0	0	2112	764	2758	57
66	0	0	2120	765	2753	56
67	0	0	2154	763	2749	58
68	0	0	2151	761	2748	58
69	0	0	2113	761	2750	56
70	0	0	2073	760	2753	58
71	0	0	2018	760	2754	57
72	0	0	1963	759	2756	57
73	0	0	1935	759	2758	56
74	0	0	1935	763	2757	57
75	0	0	1929	762	2756	58
76	0	0	1908	761	2753	58
77	0	0	1877	759	2748	58
78	0	0	1875	763	2748	58
79	0	0	1927	766	2748	57
80	0	0	1973	763	2752	59
81	0	0	2013	763	2755	55
82	0	0	2039	763	2756	58
83	0	0	2074	761	2758	57
84	0	0	2121	763	2758	60
85	0	0	2162	763	2757	57
86	0	0	2174	763	2754	57
87	0	0	2191	763	2749	59
88	0	0	2197	762	2749	58
89	0	0	2179	761	2749	60
90	0	0	2141	759	2752	59
91	0	0	2077	760	2754	57
92	0	0	2021	759	2756	57
93	0	0	1980	760	2757	57
94	0	0	1949	760	2757	57
95	0	0	1921	760	2756	55
96	0	0	1902	760	2753	57
97	0	0	1899	762	2750	58
98	0	0	1931	764	2748	58
99	0	0	1971	762	2749	58
100	0	0	1996	762	2753	59
101	0	0	2017	762	2755	56
102	0	0	2051	763	2757	59
103	0	0	2094	761	2759	58
104	0	0	2135	762	2758	55
105	0	0	2166	762	2757	57
106	0	0	2191	761	2753	58
107	0	0	2227	763	2749	58
108	0	0	2239	763	2748	57
109	0	0	2252	762	2749	59
110	0	0	2258	764	2752	55
111	0	0	2224	760	2754	57
112	0	0	2191	760	2757	57
113	0	0	2180	762	2757	57
114	0	0	2158	761	2758	57
115	0	0	2146	763	2757	58
116	0	0	2166	762	2753	58
117	0	0	2200	763	2749	57
118	0	0	2244	762	2750	58
119	0	0	2299	763	2750	55
120	0	0	2350	763	2753	57
121	0	0	2407	761	2755	58
122	0	0	2482	763	2756	57
123	0	0	2555	763	2758	57
124	0	0	2595	762	2758	58
125	0	0	2604	763	2756	55
126	0	0	2593	762	2753	57
127	0	0	2570	759	2749	59
0	0	0	2502	759	2748	58
1	0	0	2464	761	2750	59
2	0	0	2440	762	2752	55
3	0	0	2383	760	2754	57
4	0	0	2312	759	2758	58
5	0	0	2252	759	2758	57
6	0	0	2218	759	2758	57
7	0	0	2178	760	2757	57
8	0	0	2121	760	2754	57
9	0	0	2055	758	2749	58
10	0	0	2026	759	2749	58
11	0	0	2021	762	2750	59
12	0	0	2019	762	2752	57
13	0	0	2035	762	2755	58
14	0	0	2048	762	2756	58
15	0	0	2049	762	2759	58
16	0	0	2043	761	2758	58
17	0	0	2032	762	2757	57
18	0	0	2026	764	2754	57
19	0	0	2037	762	2750	58
20	0	0	2012	760	2749	58
21	0	0	2000	760	2750	57
22	0	0	2006	763	2752	57
23	0	0	1987	760	2755	58
24	0	0	1958	759	2757	53
25	0	0	1932	759	2758	56
26	0	0	1907	759	2759	58
27	0	0	1882	761	2757	57
28	0	0	1880	763	2754	54
29	0	0	1879	762	2749	54
30	0	0	1873	761	2750	55
31	0	0	1885	762	2749	56
32	0	0	1931	761	2753	57
33	0	0	1971	762	2755	57
34	0	0	1994	762	2756	58
35	0	0	2030	762	2758	57
36	0	0	2072	761	2758	57
37	0	0	2099	763	2757	55
38	0	0	2111	759	2753	57
39	0	0	2136	763	2750	57
40	0	0	2134	761	2749	58
41	0	0	2101	759	2751	58
42	0	0	2066	760	2752	56
43	0	0	1998	758	2755	57
44	0	0	1925	758	2758	58
45	0	0	1896	762	2757	54
46	0	0	1898	762	2759	56
47	0	0	1890	759	2758	54
48	0	0	1892	762	2754	54
49	0	0	1883	761	2750	58
50	0	0	1881	760	2749	59
51	0	0	1919	760	2750	57
52	0	0	1966	762	2753	54
53	0	0	1992	759	2755	53
54	0	0	2005	762	2757	58
55	0	0	2051	762	2759	58
56	0	0	2106	762	2759	58
57	0	0	2155	762	2758	58
58	0	0	2153	760	2755	57
59	0	0	2121	761	2750	60
60	0	0	2124	762	2749	58
61	0	0	2124	762	2751	57
62	0	0	2115	760	2753	57
63	0	0	2046	751	2755	57
64	0	0	1968	758	2757	54
65	0	0	1928	757	2759	55
66	0	0	1892	759	2758	57
67	0	0	1869	759	2758	58
68	0	0	1865	759	2754	56
69	0	0	1886	762	2750	54
70	0	0	1936	763	2749	54
71	0	0	1982	762	2752	55
72	0	0	2005	761	2752	52
73	0	0	2023	759	2755	57
74	0	0	2052	762	2758	57
75	0	0	2093	761	2760	57
76	0	0	2136	763	2761	58
77	0	0	2156	762	2759	58
78	0	0	2161	762	2755	57
79	0	0	2179	762	2750	59
80	0	0	2173	761	2750	59
81	0	0	2137	759	2750	56
82	0	0	2097	759	2753	56
83	0	0	2040	755	2755	57
84	0	0	2005	759	2757	57
85	0	0	1988	760	2759	59
86	0	0	1970	761	2758	54
87	0	0	1947	760	2757	54
88	0	0	1927	757	2754	54
89	0	0	1895	758	2751	55
90	0	0	1884	765	2749	58
91	0	0	1924	761	2751	58
92	0	0	1974	762	2754	57
93	0	0	2001	762	2756	53
94	0	0	2056	762	2757	57
95	0	0	2118	762	2759	58
96	0	0	2156	761	2759	58
97	0	0	2170	761	2757	57
98	0	0	2186	759	2755	57
99	0	0	2214	762	2750	58
100	0	0	2188	759	2749	58
101	0	0	2135	759	2751	58
102	0	0	2102	759	2752	56
103	0	0	2070	755	2755	58
104	0	0	2011	760	2758	53
105	0	0	1965	758	2759	55
106	0	0	1942	759	2759	54
107	0	0	1950	761	2759	57
108	0	0	1954	760	2755	58
109	0	0	1941	762	2752	56
110	0	0	1966	763	2750	55
111	0	0	2008	761	2751	55
112	0	0	2031	761	2753	54
113	0	0	2066	759	2755	54
114	0	0	2099	761	2758	57
115	0	0	2119	762	2759	57
116	0	0	2132	761	2759	58
117	0	0	2143	761	2758	58
118	0	0	2167	760	2755	57
119	0	0	2230	761	2751	58
120	0	0	2251	761	2750	58
121	0	0	2224	758	2752	55
122	0	0	2182	758	2755	57
123	0	0	2120	755	2756	56
124	0	0	2064	758	2764	58
125	0	0	2032	759	2760	57
126	0	0	2012	759	2760	56
127	0	0	1995	758	2758	54
0	0	0	1956	756	2755	54
1	0	0	1932	761	2750	55
2	0	0	1945	761	2750	55
3	0	0	1969	762	2750	57
4	0	0	1992	761	2753	58
5	0	0	2033	760	2756	57
6	0	0	2074	761	2760	58
7	0	0	2096	761	2759	59
8	0	0	2112	763	2759	56
9	0	0	2134	761	2759	59
10	0	0	2162	760	2755	57
11	0	0	2197	762	2751	58
12	0	0	2189	761	2750	58
13	0	0	2197	760	2752	58
14	0	0	2203	761	2754	58
15	0	0	2156	755	2757	57
16	0	0	2106	759	2758	53
17	0	0	2065	758	2759	54
18	0	0	2027	759	2759	53
19	0	0	1992	758	2758	55
20	0	0	1968	758	2756	56
21	0	0	1958	762	2752	56
22	0	0	1989	760	2750	61
23	0	0	2028	761	2750	55
24	0	0	2050	761	2753	55
25	0	0	2078	761	2757	53
26	0	0	2109	761	2758	57
27	0	0	2146	761	2761	58
28	0	0	2195	761	2761	59
29	0	0	2232	762	2759	59
30	0	0	2272	756	2757	58
31	0	0	2311	763	2753	57
32	0	0	2291	755	2751	58
33	0	0	2237	757	2752	56
34	0	0	2179	757	2755	57
35	0	0	2116	756	2757	57
36	0	0	2071	756	2758	54
37	0	0	2034	757	2761	58
38	0	0	2009	758	2760	59
39	0	0	1982	758	2758	58
40	0	0	1966	759	2756	54
41	0	0	1942	758	2751	55
42	0	0	1937	760	2751	55
43	0	0	1964	761	2752	54
44	0	0	1998	760	2754	58
45	0	0	2049	760	2757	57
46	0	0	2106	761	2759	58
47	0	0	2165	759	2761	56
48	0	0	2224	760	2760	55
49	0	0	2252	761	2759	57
50	0	0	2268	760	2756	57
51	0	0	2315	761	2752	57
52	0	0	2335	761	2751	58
53	0	0	2315	760	2751	58
54	0	0	2263	758	2754	57
55	0	0	2172	757	2757	57
56	0	0	2109	757	2758	58
57	0	0	2092	760	2759	54
58	0	0	2086	760	2760	55
59	0	0	2076	761	2760	55
60	0	0	2055	756	2756	54
61	0	0	2029	759	2753	57
62	0	0	2040	760	2750	59
63	0	0	2076	761	2752	56
64	0	0	2099	761	2755	54
65	0	0	2131	760	2757	54
66	0	0	2154	760	2759	58
67	0	0	2190	760	2761	59
68	0	0	2240	760	2761	59
69	0	0	2261	761	2759	58
70	0	0	2277	760	2756	58
71	0	0	2327	761	2752	59
72	0	0	2337	760	2752	57
73	0	0	2304	758	2752	58
74	0	0	2269	758	2755	56
75	0	0	2221	758	2757	57
76	0	0	2179	757	2759	55
77	0	0	2154	758	2762	55
78	0	0	2123	758	2761	55
79	0	0	2086	758	2760	58
80	0	0	2073	760	2756	57
81	0	0	2075	760	2752	54
82	0	0	2097	761	2751	55
83	0	0	2138	761	2752	51
84	0	0	2176	761	2754	55
85	0	0	2215	760	2757	58
86	0	0	2248	761	2760	57
87	0	0	2274	760	2760	59
88	0	0	2287	760	2760	57
89	0	0	2286	761	2760	56
90	0	0	2287	761	2757	57
91	0	0	2339	762	2752	57
92	0	0	2372	760	2752	55
93	0	0	2355	760	2752	56
94	0	0	2327	759	2754	57
95	0	0	2297	758	2757	58
96	0	0	2262	758	2760	57
97	0	0	2220	755	2760	59
98	0	0	2179	758	2761	55
99	0	0	2144	758	2760	53
100	0	0	2117	759	2756	53
101	0	0	2116	760	2753	54
102	0	0	2144	758	2750	59
103	0	0	2180	759	2752	58
104	0	0	2216	760	2754	57
105	0	0	2250	761	2756	55
106	0	0	2264	760	2760	58
107	0	0	2285	757	2760	59
108	0	0	2307	761	2761	58
109	0	0	2331	760	2760	57
110	0	0	2346	760	2757	57
111	0	0	2374	760	2752	57
112	0	0	2357	759	2752	56
113	0	0	2320	757	2754	58
114	0	0	2288	756	2755	57
115	0	0	2227	755	2755	56
116	0	0	2157	757	2759	54
117	0	0	2118	758	2761	57
118	0	0	2092	758	2761	55
119	0	0	2069	759	2759	54
120	0	0	2078	760	2756	54
121	0	0	2080	760	2752	54
122	0	0	2084	760	2751	59
123	0	0	2079	762	2752	56
124	0	0	2071	760	2754	57
125	0	0	2070	760	2757	54
126	0	0	2086	759	2759	58
127	0	0	2139	760	2761	58
0	0	0	2187	759	2761	58
1	0	0	2222	761	2761	57
2	0	0	2227	761	2756	57
3	0	0	2249	760	2754	57
4	0	0	2246	759	2751	58
5	0	0	2189	756	2753	57
6	0	0	2125	757	2756	57
7	0	0	2079	759	2755	56
8	0	0	2042	757	2759	55
9	0	0	2009	757	2761	55
10	0	0	1992	758	2761	55
11	0	0	1966	757	2760	55
12	0	0	1938	758	2756	58
13	0	0	1921	759	2752	57
14	0	0	1940	761	2751	54
15	0	0	1982	759	2752	54
16	0	0	2001	760	2755	53
17	0	0	1982	758	2757	54
18	0	0	1956	758	2759	57
19	0	0	1963	762	2761	57
20	0	0	2025	760	2762	55
21	0	0	2074	762	2761	57
22	0	0	2102	760	2756	59
23	0	0	2129	760	2753	57
24	0	0	2114	757	2752	57
25	0	0	2063	756	2753	54
26	0	0	1998	757	2755	55
27	0	0	1948	756	2758	57
28	0	0	1907	756	2759	57
29	0	0	1878	759	2761	57
30	0	0	1870	759	2762	58
31	0	0	1855	758	2760	53
32	0	0	1840	757	2756	54
33	0	0	1818	758	2752	54
34	0	0	1814	760	2752	51
35	0	0	1827	759	2753	57
36	0	0	1854	760	2756	56
37	0	0	1874	760	2757	58
38	0	0	1882	759	2759	57
39	0	0	1910	760	2761	56
40	0	0	1951	760	2761	59
41	0	0	1990	760	2759	58
42	0	0	2041	760	2757	59
43	0	0	2099	760	2753	57
44	0	0	2114	758	2752	57
45	0	0	2093	757	2753	58
46	0	0	2054	756	2755	55
47	0	0	1978	756	2758	57
48	0	0	1900	756	2759	55
49	0	0	1841	756	2762	55
50	0	0	1809	757	2762	54
51	0	0	1796	761	2760	53
52	0	0	1812	759	2757	57
53	0	0	1806	758	2754	57
54	0	0	1806	759	2752	57
55	0	0	1822	760	2752	54
56	0	0	1838	760	2755	52
57	0	0	1888	759	2757	54
58	0	0	1919	760	2759	57
59	0	0	1964	761	2760	57
60	0	0	2023	760	2761	58
61	0	0	2058	760	2760	55
62	0	0	2081	760	2757	58
63	0	0	2098	759	2753	57
64	0	0	2097	760	2752	56
65	0	0	2079	756	2754	57
66	0	0	2049	757	2756	55
67	0	0	1984	756	2758	57
68	0	0	1902	755	2760	54
69	0	0	1841	754	2761	56
70	0	0	1822	757	2762	58
71	0	0	1812	757	2760	56
72	0	0	1804	759	2757	54
73	0	0	1797	759	2753	55
74	0	0	1802	756	2752	56
75	0	0	1823	760	2753	54
76	0	0	1843	759	2755	60
77	0	0	1872	759	2759	58
78	0	0	1920	758	2759	57
79	0	0	1948	757	2761	60
80	0	0	1973	760	2762	58
81	0	0	2004	759	2761	58
82	0	0	2027	759	2758	55
83	0	0	2057	759	2753	57
84	0	0	2065	758	2752	56
85	0	0	2049	758	2754	60
86	0	0	2032	758	2755	60
87	0	0	1983	756	2759	57
88	0	0	1919	755	2759	57
89	0	0	1867	756	2761	54
90	0	0	1843	756	2762	54
91	0	0	1829	759	2760	54
92	0	0	1836	759	2757	54
93	0	0	1855	760	2753	56
94	0	0	1879	759	2752	57
95	0	0	1891	757	2754	56
96	0	0	1893	759	2755	53
97	0	0	1924	759	2758	54
98	0	0	1956	759	2760	58
99	0	0	1989	760	2762	57
100	0	0	2027	760	2762	58
101	0	0	2045	761	2761	57
102	0	0	2058	760	2758	57
103	0	0	2084	760	2753	57
104	0	0	2075	756	2753	57
105	0	0	2032	756	2754	55
106	0	0	1990	757	2755	55
107	0	0	1949	756	2758	57
108	0	0	1907	756	2760	55
109	0	0	1882	757	2761	55
110	0	0	1866	758	2762	58
111	0	0	1860	759	2760	59
112	0	0	1855	759	2758	58
113	0	0	1840	757	2753	54
114	0	0	1827	759	2752	53
115	0	0	1846	759	2753	53
116	0	0	1866	759	2756	53
117	0	0	1882	758	2758	56
118	0	0	1918	760	2761	58
119	0	0	1950	757	2762	58
120	0	0	1995	760	2762	58
121	0	0	2060	759	2761	55
122	0	0	2089	759	2758	57
123	0	0	2125	759	2753	57
124	0	0	2134	760	2752	58
125	0	0	2114	756	2754	57
126	0	0	2080	757	2756	55
127	0	0	2039	756	2757	58
0	0	0	1995	755	2760	57
1	0	0	1932	755	2761	57
2	0	0	1872	756	2761	55
3	0	0	1829	756	2761	53
4	0	0	1778	755	2758	54
5	0	0	1741	757	2753	54
6	0	0	1761	759	2753	56
7	0	0	1802	759	2754	60
8	0	0	1850	758	2756	55
9	0	0	1916	759	2757	54
10	0	0	1966	759	2760	57
11	0	0	1993	759	2761	57
12	0	0	2027	759	2762	57
13	0	0	2070	759	2761	58
14	0	0	2103	760	2757	58
15	0	0	2124	759	2755	57
16	0	0	2088	756	2753	58
17	0	0	2038	756	2754	57
18	0	0	2017	756	2756	55
19	0	0	1960	755	2757	58
20	0	0	1907	756	2760	55
21	0	0	1887	757	2762	54
22	0	0	1865	756	2762	55
23	0	0	1840	757	2761	57
24	0	0	1841	759	2757	57
25	0	0	1854	759	2754	58
26	0	0	1886	759	2753	54
27	0	0	1952	758	2754	54
28	0	0	2021	759	2756	54
29	0	0	2031	759	2758	56
30	0	0	2033	759	2761	57
31	0	0	2073	760	2762	58
32	0	0	2093	758	2762	57
33	0	0	2073	757	2761	55
34	0	0	2061	759	2757	57
35	0	0	2088	759	2754	57
36	0	0	2089	758	2753	58
37	0	0	2057	756	2753	59
38	0	0	2025	757	2756	55
39	0	0	1976	756	2757	57
40	0	0	1925	755	2761	57
41	0	0	1896	756	2762	58
42	0	0	1879	756	2763	59
43	0	0	1860	757	2762	52
44	0	0	1854	759	2759	54
45	0	0	1856	758	2754	54
46	0	0	1875	759	2753	53
47	0	0	1901	758	2754	55
48	0	0	1902	757	2756	54
49	0	0	1925	759	2757	58
50	0	0	1954	760	2760	58
51	0	0	1984	758	2762	58
52	0	0	2012	759	2763	58
53	0	0	2042	759	2762	56
54	0	0	2060	759	2758	57
55	0	0	2061	759	2754	57
56	0	0	2055	760	2753	57
57	0	0	2067	759	2752	59
58	0	0	2085	758	2756	54
59	0	0	2052	755	2760	57
60	0	0	2000	755	2761	54
61	0	0	1954	755	2763	55
62	0	0	1913	755	2763	55
63	0	0	1870	755	2761	53
64	0	0	1862	758	2758	57
65	0	0	1858	759	2754	57
66	0	0	1870	758	2753	57
67	0	0	1911	759	2753	53
68	0	0	1942	759	2756	52
69	0	0	1961	758	2758	55
70	0	0	1989	758	2761	58
71	0	0	2029	759	2762	57
72	0	0	2052	758	2762	59
73	0	0	2057	758	2762	57
74	0	0	2053	759	2759	57
75	0	0	2095	759	2756	57
76	0	0	2109	758	2753	56
77	0	0	2094	758	2755	57
78	0	0	2067	756	2757	58
79	0	0	2007	755	2757	54
80	0	0	1964	755	2761	55
81	0	0	1939	755	2762	57
82	0	0	1916	757	2763	58
83	0	0	1889	755	2762	56
84	0	0	1856	755	2758	54
85	0	0	1832	756	2754	54
86	0	0	1848	757	2753	54
87	0	0	1886	758	2754	55
88	0	0	1918	759	2757	34
89	0	0	1944	758	2760	55
90	0	0	1976	758	2761	57
91	0	0	2028	758	2763	58
92	0	0	2094	760	2763	58
93	0	0	2138	758	2762	56
94	0	0	2161	759	2759	58
95	0	0	2172	759	2756	58
96	0	0	2139	755	2753	57
97	0	0	2077	755	2754	57
98	0	0	2021	755	2757	56
99	0	0	1999	757	2759	56
100	0	0	1991	756	2761	56
101	0	0	1959	755	2763	55
102	0	0	1918	754	2762	55
103	0	0	1884	755	2762	56
104	0	0	1862	756	2760	58
105	0	0	1851	755	2755	57
106	0	0	1847	759	2754	55
107	0	0	1858	758	2754	54
108	0	0	1873	757	2757	52
109	0	0	1904	757	2759	53
110	0	0	1947	757	2761	58
111	0	0	2023	757	2763	58
112	0	0	2089	759	2763	58
113	0	0	2127	758	2763	58
114	0	0	2147	758	2759	57
115	0	0	2170	759	2755	57
116	0	0	2153	754	2755	56
117	0	0	2097	754	2755	58
118	0	0	2037	755	2757	60
119	0	0	1986	755	2760	58
120	0	0	1929	754	2761	58
121	0	0	1892	756	2763	55
122	0	0	1891	759	2763	58
123	0	0	1905	757	2762	54
124	0	0	1913	758	2759	54
125	0	0	1914	758	2755	54
126	0	0	1954	758	2754	54
127	0	0	1997	759	2755	57
0	0	0	2005	757	2758	57
1	0	0	1999	758	2759	57
2	0	0	2002	758	2761	58
3	0	0	2035	757	2764	57
4	0	0	2075	758	2764	56
5	0	0	2096	757	2763	62
6	0	0	2093	757	2759	57
7	0	0	2114	760	2754	57
8	0	0	2114	757	2755	57
9	0	0	2117	758	2756	55
10	0	0	2115	756	2758	60
11	0	0	2070	754	2759	57
12	0	0	2022	755	2762	55
13	0	0	1991	755	2763	55
14	0	0	1964	755	2764	54
15	0	0	1923	755	2763	55
16	0	0	1920	758	2759	57
17	0	0	1930	757	2755	59
18	0	0	1940	757	2754	57
19	0	0	1964	759	2752	52
20	0	0	1966	758	2757	54
21	0	0	1993	758	2760	51
22	0	0	2038	760	2760	58
23	0	0	2085	758	2763	58
24	0	0	2109	758	2764	56
25	0	0	2120	758	2763	56
26	0	0	2139	757	2760	58
27	0	0	2176	758	2756	56
28	0	0	2191	758	2755	57
29	0	0	2185	757	2756	56
30	0	0	2146	755	2758	58
31	0	0	2079	754	2759	131
32	0	0	2025	755	2762	746
33	0	0	1993	754	2763	1620
34	0	0	1964	754	2764	2353
35	0	0	1931	753	2763	2855
36	0	0	1897	754	2760	3172
37	0	0	1871	758	2754	3379
38	0	0	1880	757	2754	3519
39	0	0	1921	759	2755	3616
40	0	0	1971	756	2758	3687
41	0	0	2014	757	2760	3737
42	0	0	2043	757	2763	3775
43	0	0	2064	757	2763	3804
44	0	0	2084	757	2765	3828
45	0	0	2105	757	2764	3848
46	0	0	2132	757	2760	3862
47	0	0	2172	756	2757	3875
48	0	0	2182	757	2755	3886
49	0	0	2168	758	2756	3895
50	0	0	2127	754	2758	3905
51	0	0	2042	753	2760	3911
52	0	0	1965	753	2763	3917
53	0	0	1913	752	2763	3921
54	0	0	1897	759	2764	3926
55	0	0	1894	757	2765	3929
56	0	0	1891	757	2760	3934
57	0	0	1883	755	2756	3937
58	0	0	1866	755	2756	3943
59	0	0	1872	758	2756	3944
60	0	0	1911	757	2758	3945
61	0	0	1956	757	2760	3950
62	0	0	1995	756	2763	3951
63	0	0	2025	758	2764	3952
64	0	0	2060	758	2765	3955
65	0	0	2090	757	2764	3956
66	0	0	2103	757	2760	3958
67	0	0	2141	757	2757	3961
68	0	0	2153	756	2755	3960
69	0	0	2108	754	2756	3963
70	0	0	2039	753	2758	3965
71	0	0	1971	754	2760	3964
72	0	0	1924	754	2763	3964
73	0	0	1925	756	2765	3965
74	0	0	1908	754	2765	3966
75	0	0	1870	754	2764	3966
76	0	0	1831	751	2760	3969
77	0	0	1821	756	2757	3969
78	0	0	1838	756	2755	3971
79	0	0	1870	758	2757	3971
80	0	0	1896	756	2759	3972
81	0	0	1921	757	2761	3972
82	0	0	1973	756	2763	3973
83	0	0	2060	757	2765	3974
84	0	0	2124	758	2766	3974
85	0	0	2128	759	2765	3972
86	0	0	2137	758	2761	3976
87	0	0	2171	757	2757	3976
88	0	0	2168	755	2756	3979
89	0	0	2126	755	2757	3977
90	0	0	2089	755	2759	3977
91	0	0	2057	754	2762	3977
92	0	0	2007	754	2763	3977
93	0	0	1961	753	2765	3978
94	0	0	1939	753	2766	3978
95	0	0	1903	752	2764	3980
96	0	0	1880	755	2762	3981
97	0	0	1881	756	2758	3979
98	0	0	1907	758	2756	3980
99	0	0	1947	757	2757	3980
100	0	0	1973	757	2760	3982
101	0	0	1983	756	2762	3981
102	0	0	1993	757	2764	3983
103	0	0	2005	758	2766	3981
104	0	0	2037	754	2766	3982
105	0	0	2067	757	2765	3983
106	0	0	2084	757	2762	3984
107	0	0	2121	758	2758	3983
108	0	0	2142	757	2756	3984
109	0	0	2119	754	2757	3984
110	0	0	2090	755	2760	3983
111	0	0	2025	753	2763	3982
112	0	0	1963	754	2764	3984
113	0	0	1945	755	2765	3984
114	0	0	1924	754	2765	3984
115	0	0	1908	754	2765	3985
116	0	0	1911	755	2762	3986
117	0	0	1927	757	2758	3984
118	0	0	1944	757	2756	3985
119	0	0	1977	757	2758	3988
120	0	0	2020	756	2759	3986
121	0	0	2071	757	2763	3986
122	0	0	2110	757	2764	3987
123	0	0	2168	757	2766	3987
124	0	0	2221	757	2767	3990
125	0	0	2261	758	2766	3987
126	0	0	2310	756	2763	3988
127	0	0	2359	757	2758	3986
0	0	0	2373	756	2757	3987
1	0	0	2372	754	2759	3987
2	0	0	2363	757	2760	3988
3	0	0	2348	757	2762	3987
4	0	0	2339	756	2764	3987
5	0	0	2306	755	2766	3987
6	0	0	2288	755	2767	3987
7	0	0	2294	757	2766	3990
8	0	0	2320	758	2763	3988
9	0	0	2298	754	2758	3988
10	0	0	2272	756	2757	3988
11	0	0	2273	754	2758	3988
12	0	0	2275	757	2761	3990
13	0	0	2281	757	2763	3991
14	0	0	2291	757	2766	3990
15	0	0	2305	757	2766	3988
16	0	0	2335	754	2767	3988
17	0	0	2357	757	2767	3989
18	0	0	2349	757	2763	3990
19	0	0	2337	757	2759	3990
20	0	0	2300	754	2758	3990
21	0	0	2244	751	2759	3989
22	0	0	2171	753	2761	3991
23	0	0	2070	752	2763	3990
24	0	0	1969	752	2764	3990
25	0	0	1912	754	2766	3990
26	0	0	1883	751	2767	3990
27	0	0	1863	755	2767	3991
28	0	0	1842	754	2763	3990
29	0	0	1829	755	2759	3990
30	0	0	1827	755	2757	3992
31	0	0	1850	755	2758	3992
32	0	0	1870	756	2761	3989
33	0	0	1888	756	2763	3990
34	0	0	1893	756	2765	3992
35	0	0	1916	757	2767	3992
36	0	0	1934	756	2768	3995
37	0	0	1951	756	2767	3990
38	0	0	1990	757	2764	3991
39	0	0	2045	758	2763	3992
40	0	0	2064	753	2757	3992
41	0	0	2023	751	2759	3992
42	0	0	1979	753	2761	3992
43	0	0	1934	753	2763	3993
44	0	0	1905	755	2765	3991
45	0	0	1905	757	2767	3990
46	0	0	1901	754	2767	3992
47	0	0	1867	755	2767	3992
48	0	0	1829	753	2764	3993
49	0	0	1807	751	2759	3992
50	0	0	1822	756	2759	3991
51	0	0	1864	756	2759	3992
52	0	0	1906	756	2762	3991
53	0	0	1968	755	2764	3994
54	0	0	2015	758	2767	3995
55	0	0	2043	757	2767	3992
56	0	0	2070	754	2767	3992
57	0	0	2083	757	2767	3992
58	0	0	2095	756	2764	3995
59	0	0	2124	756	2760	3993
60	0	0	2139	757	2758	3992
61	0	0	2132	755	2759	3995
62	0	0	2105	754	2762	3992
63	0	0	2055	753	2764	3995
64	0	0	1991	752	2766	3992
65	0	0	1932	752	2767	3992
66	0	0	1889	753	2767	3994
67	0	0	1889	756	2768	3992
68	0	0	1918	756	2765	3994
69	0	0	1936	755	2760	3993
70	0	0	1945	757	2759	3991
71	0	0	1944	755	2759	3995
72	0	0	1945	757	2762	3991
73	0	0	1952	756	2764	3994
74	0	0	1978	757	2766	3994
75	0	0	2037	755	2767	3993
76	0	0	2108	755	2768	3993
77	0	0	2144	757	2768	3995
78	0	0	2151	756	2764	3995
79	0	0	2162	756	2760	3994
80	0	0	2152	754	2759	3994
81	0	0	2125	753	2760	3994
82	0	0	2108	754	2762	3991
83	0	0	2049	752	2764	3995
84	0	0	1984	752	2767	3993
85	0	0	1943	751	2768	3993
86	0	0	1929	755	2768	3994
87	0	0	1920	755	2768	3995
88	0	0	1925	756	2765	3993
89	0	0	1920	754	2760	3994
90	0	0	1925	755	2759	3993
91	0	0	1947	755	2759	3996
92	0	0	1982	757	2762	3993
93	0	0	2019	754	2764	3995
94	0	0	2050	756	2766	3990
95	0	0	2077	755	2768	3995
96	0	0	2108	757	2768	3997
97	0	0	2154	756	2768	3995
98	0	0	2168	757	2765	3995
99	0	0	2193	756	2761	3995
100	0	0	2188	754	2759	3994
101	0	0	2149	753	2760	3996
102	0	0	2113	753	2763	3993
103	0	0	2057	752	2765	3996
104	0	0	2001	752	2767	3994
105	0	0	1959	751	2768	3994
106	0	0	1919	753	2768	3997
107	0	0	1894	755	2768	3993
108	0	0	1892	756	2765	3996
109	0	0	1886	754	2759	3996
110	0	0	1905	755	2759	3995
111	0	0	1973	755	2760	3995
112	0	0	2020	755	2763	3996
113	0	0	2032	756	2765	3993
114	0	0	2054	756	2767	3996
115	0	0	2103	758	2769	3995
116	0	0	2151	757	2769	3995
117	0	0	2190	756	2769	3993
118	0	0	2205	757	2765	3994
119	0	0	2234	756	2759	3997
120	0	0	2228	751	2760	3996
121	0	0	2185	752	2761	3996
122	0	0	2148	753	2763	3996
123	0	0	2091	753	2766	3995
124	0	0	2017	750	2767	3994
125	0	0	1957	752	2770	3995
126	0	0	1929	755	2770	3996
127	0	0	1924	754	2768	3996
0	0	0	1936	756	2766	3996
1	0	0	1918	753	2761	3995
2	0	0	1927	755	2760	3995
3	0	0	1966	757	2761	3996
4	0	0	2015	756	2763	3995
5	0	0	2052	756	2766	3996
6	0	0	2080	756	2767	3995
7	0	0	2109	755	2770	3995
8	0	0	2135	754	2770	3997
9	0	0	2149	754	2769	3997
10	0	0	2161	756	2766	3999
11	0	0	2202	754	2761	3995
12	0	0	2223	757	2760	3996
13	0	0	2202	753	2761	3996
14	0	0	2172	754	2763	3996
15	0	0	2131	752	2766	3997
16	0	0	2068	752	2767	3996
17	0	0	2021	751	2769	3996
18	0	0	1968	752	2769	3996
19	0	0	1942	753	2769	3998
20	0	0	1930	755	2766	3996
21	0	0	1936	756	2762	3997
22	0	0	1961	755	2761	3993
23	0	0	1987	753	2761	3996
24	0	0	2020	756	2764	3996
25	0	0	2062	755	2765	3994
26	0	0	2097	755	2768	3997
27	0	0	2116	755	2769	4000
28	0	0	2140	756	2769	3995
29	0	0	2164	756	2769	3996
30	0	0	2184	755	2765	3995
31	0	0	2219	756	2762	3996
32	0	0	2247	756	2760	3997
33	0	0	2219	752	2761	3997
34	0	0	2148	752	2764	3999
35	0	0	2084	752	2765	3994
36	0	0	2041	751	2767	3996
37	0	0	2011	753	2769	3996
38	0	0	2005	755	2770	3997
39	0	0	2000	754	2769	3997
40	0	0	1979	753	2766	3994
41	0	0	1951	753	2762	3996
42	0	0	1948	756	2761	3996
43	0	0	1971	756	2761	3996
44	0	0	2012	756	2764	3996
45	0	0	2055	755	2765	3995
46	0	0	2108	756	2768	3997
47	0	0	2165	757	2769	3997
48	0	0	2201	754	2770	3993
49	0	0	2224	754	2769	3996
50	0	0	2239	755	2766	3994
51	0	0	2279	756	2763	3998
52	0	0	2306	753	2760	3997
53	0	0	2283	752	2762	3998
54	0	0	2233	752	2764	4000
55	0	0	2158	751	2766	3993
56	0	0	2086	751	2767	3996
57	0	0	2043	753	2770	3997
58	0	0	2036	757	2771	3998
59	0	0	2025	754	2769	3997
60	0	0	2008	754	2766	3994
61	0	0	1995	754	2762	3997
62	0	0	1996	756	2761	3996
63	0	0	2022	754	2762	3993
64	0	0	2064	755	2764	3997
65	0	0	2115	755	2766	3998
66	0	0	2153	756	2768	3996
67	0	0	2173	754	2769	3997
68	0	0	2195	754	2770	3996
69	0	0	2210	756	2770	3999
70	0	0	2213	753	2767	3994
71	0	0	2250	755	2762	3997
72	0	0	2248	754	2761	4000
73	0	0	2206	751	2762	3994
74	0	0	2191	754	2764	3997
75	0	0	2169	753	2766	3994
76	0	0	2160	755	2768	3998
77	0	0	2150	754	2769	4000
78	0	0	2113	751	2770	3996
79	0	0	2090	754	2769	3997
80	0	0	2097	751	2766	3997
81	0	0	2097	755	2762	3997
82	0	0	2101	755	2761	3996
83	0	0	2120	755	2762	3998
84	0	0	2153	755	2764	3998
85	0	0	2176	755	2767	3998
86	0	0	2181	755	2768	3998
87	0	0	2224	756	2770	3998
88	0	0	2296	757	2771	3996
89	0	0	2344	754	2770	3998
90	0	0	2373	758	2767	3997
91	0	0	2400	756	2763	3997
92	0	0	2382	754	2762	3997
93	0	0	2326	751	2762	3998
94	0	0	2275	751	2764	3997
95	0	0	2215	751	2766	3998
96	0	0	2141	751	2768	3997
97	0	0	2102	756	2770	3997
98	0	0	2130	754	2771	3996
99	0	0	2162	755	2770	3998
100	0	0	2173	756	2767	3999
101	0	0	2151	753	2764	3998
102	0	0	2144	755	2762	3995
103	0	0	2146	751	2762	3998
104	0	0	2151	757	2765	3996
105	0	0	2177	757	2766	3998
106	0	0	2233	755	2769	3998
107	0	0	2284	754	2771	3997
108	0	0	2296	754	2771	3996
109	0	0	2308	754	2770	3998
110	0	0	2325	756	2767	3998
111	0	0	2358	754	2764	3999
112	0	0	2382	755	2762	3996
113	0	0	2358	753	2762	3997
114	0	0	2302	753	2765	3998
115	0	0	2264	753	2767	3999
116	0	0	2240	752	2769	3999
117	0	0	2199	749	2770	4000
118	0	0	2150	751	2771	3998
119	0	0	2108	752	2771	3996
120	0	0	2083	753	2767	3997
121	0	0	2074	753	2764	3997
122	0	0	2083	755	2762	3998
123	0	0	2114	754	2763	3998
124	0	0	2127	754	2765	3997
125	0	0	2157	754	2767	3998
126	0	0	2197	755	2769	3997
127	0	0	2234	754	2770	3998
0	0	0	2262	754	2771	3999
1	0	0	2283	754	2771	3999
2	0	0	2299	755	2768	3998
3	0	0	2316	756	2764	3997
4	0	0	2311	754	2762	3997
5	0	0	2279	751	2763	3999
6	0	0	2241	751	2765	3999
7	0	0	2194	751	2768	3999
8	0	0	2151	751	2769	3998
9	0	0	2109	750	2771	3997
10	0	0	2057	751	2771	3999
11	0	0	2015	751	2771	3996
12	0	0	2007	754	2768	3999
13	0	0	2006	754	2764	3996
14	0	0	2021	752	2762	3998
15	0	0	2050	751	2763	3998
16	0	0	2030	752	2765	3998
17	0	0	2031	755	2768	3999
18	0	0	2068	755	2769	3998
19	0	0	2097	755	2772	3999
20	0	0	2116	754	2772	3999
21	0	0	2141	754	2770	3998
22	0	0	2157	755	2769	3999
23	0	0	2178	755	2764	3998
24	0	0	2181	754	2763	3999
25	0	0	2144	752	2764	4000
26	0	0	2096	752	2766	3998
27	0	0	2036	751	2768	3996
28	0	0	1976	750	2770	3997
29	0	0	1935	750	2771	3997
30	0	0	1901	752	2772	3999
31	0	0	1865	751	2772	3999
32	0	0	1836	752	2769	4001
33	0	0	1828	757	2764	4000
34	0	0	1844	751	2763	3998
35	0	0	1865	755	2763	3999
36	0	0	1883	754	2766	3998
37	0	0	1909	754	2768	4000
38	0	0	1939	754	2770	3998
39	0	0	1973	752	2771	3998
40	0	0	2003	753	2772	4000
41	0	0	2030	756	2772	3998
42	0	0	2059	754	2769	4000
43	0	0	2093	754	2765	3997
44	0	0	2086	751	2763	3998
45	0	0	2019	751	2764	4000
46	0	0	1941	752	2766	3999
47	0	0	1890	752	2768	4000
48	0	0	1874	753	2771	4000
49	0	0	1876	752	2772	4000
50	0	0	1876	754	2772	4001
51	0	0	1846	751	2772	3999
52	0	0	1813	752	2769	4000
53	0	0	1796	752	2764	3995
54	0	0	1808	751	2763	4000
55	0	0	1826	753	2764	4001
56	0	0	1850	753	2767	4002
57	0	0	1885	755	2769	4003
58	0	0	1927	754	2771	3998
59	0	0	1956	755	2772	3999
60	0	0	1963	754	2774	3999
61	0	0	1990	755	2772	3999
62	0	0	2018	755	2770	4000
63	0	0	2054	755	2765	3998
64	0	0	2093	755	2765	4000
65	0	0	2082	752	2765	4000
66	0	0	2046	752	2767	3999
67	0	0	1988	751	2768	3997
68	0	0	1930	751	2771	3998
69	0	0	1875	751	2773	3998
70	0	0	1827	750	2773	4000
71	0	0	1784	752	2772	4001
72	0	0	1788	755	2769	4000
73	0	0	1828	756	2766	4002
74	0	0	1839	754	2765	4002
75	0	0	1852	756	2765	4000
76	0	0	1880	755	2767	3999
77	0	0	1892	754	2769	4000
78	0	0	1901	754	2771	4000
79	0	0	1926	755	2774	4000
80	0	0	1968	753	2775	3999
81	0	0	2009	753	2773	3999
82	0	0	2031	754	2770	4000
83	0	0	2060	754	2766	3998
84	0	0	2083	751	2764	3998
85	0	0	2070	751	2765	4000
86	0	0	2027	751	2767	3999
87	0	0	1964	752	2768	4000
88	0	0	1901	751	2772	4002
89	0	0	1853	751	2773	4000
90	0	0	1830	752	2774	4001
91	0	0	1816	752	2773	4001
92	0	0	1814	754	2770	3999
93	0	0	1810	753	2766	3998
94	0	0	1813	754	2765	4000
95	0	0	1836	754	2766	4002
96	0	0	1868	753	2768	4001
97	0	0	1905	754	2769	4000
98	0	0	1948	754	2772	3999
99	0	0	1991	755	2773	3998
100	0	0	2021	754	2777	4000
101	0	0	2046	755	2773	3999
102	0	0	2059	754	2770	3999
103	0	0	2080	755	2766	3999
104	0	0	2106	751	2764	3999
105	0	0	2082	752	2766	3998
106	0	0	2021	751	2767	4000
107	0	0	1948	747	2769	4000
108	0	0	1883	751	2773	4002
109	0	0	1838	751	2774	4000
110	0	0	1833	755	2774	3999
111	0	0	1835	753	2774	4000
112	0	0	1843	754	2771	4003
113	0	0	1850	755	2766	4001
114	0	0	1857	754	2765	4001
115	0	0	1876	752	2766	4001
116	0	0	1896	754	2768	3999
117	0	0	1920	754	2770	3998
118	0	0	1943	754	2772	3998
119	0	0	1972	753	2774	3998
120	0	0	2004	753	2775	4000
121	0	0	2037	754	2774	4000
122	0	0	2067	754	2771	3999
123	0	0	2093	755	2767	3999
124	0	0	2092	751	2765	3998
125	0	0	2059	751	2766	3997
126	0	0	2030	750	2768	4000
127	0	0	1995	750	2770	3999
0	0	0	1959	751	2773	3999
1	0	0	1939	752	2775	4001
2	0	0	1928	752	2775	3999
3	0	0	1908	752	2775	4000
4	0	0	1888	751	2772	4003
5	0	0	1872	752	2767	3999
6	0	0	1878	754	2766	3998
7	0	0	1889	755	2767	4000
8	0	0	1910	752	2768	4001
9	0	0	1935	754	2770	4003
10	0	0	1958	753	2773	3999
11	0	0	1995	752	2775	3999
12	0	0	2032	753	2774	3999
13	0	0	2061	753	2774	3999
14	0	0	2078	754	2771	3999
15	0	0	2108	752	2768	4000
16	0	0	2112	752	2766	3997
17	0	0	2069	752	2767	3998
18	0	0	2031	750	2769	3999
19	0	0	2004	751	2771	3999
20	0	0	1973	752	2774	4002
21	0	0	1937	749	2774	3999
22	0	0	1884	750	2774	3999
23	0	0	1840	752	2775	3998
24	0	0	1850	753	2771	3999
25	0	0	1871	755	2767	4001
26	0	0	1894	752	2766	4001
27	0	0	1916	753	2767	4000
28	0	0	1910	750	2769	4002
29	0	0	1880	752	2771	3999
30	0	0	1920	754	2773	3998
31	0	0	2002	752	2775	3999
32	0	0	2048	756	2775	3999
33	0	0	2049	753	2775	4000
34	0	0	2070	754	2773	4000
35	0	0	2118	751	2768	3999
36	0	0	2181	753	2766	4000
37	0	0	2179	751	2766	3999
38	0	0	2119	750	2769	3999
39	0	0	2073	750	2771	3999
40	0	0	2025	750	2773	3999
41	0	0	1977	750	2775	3996
42	0	0	1943	751	2775	3999
43	0	0	1918	750	2775	4002
44	0	0	1897	751	2772	4003
45	0	0	1878	752	2768	4000
46	0	0	1885	751	2767	3998
47	0	0	1903	756	2767	3998
48	0	0	1922	752	2770	3999
49	0	0	1952	753	2772	4001
50	0	0	1989	753	2774	3999
51	0	0	2036	753	2776	3999
52	0	0	2081	753	2777	4000
53	0	0	2114	754	2775	4000
54	0	0	2127	753	2773	4000
55	0	0	2142	753	2768	3999
56	0	0	2153	753	2767	4000
57	0	0	2127	751	2766	3999
58	0	0	2093	751	2769	4000
59	0	0	2049	750	2770	3999
60	0	0	1993	750	2774	4000
61	0	0	1941	748	2776	4001
62	0	0	1900	752	2776	3999
63	0	0	1892	754	2776	4000
64	0	0	1893	753	2772	3999
65	0	0	1886	752	2769	4000
66	0	0	1899	753	2768	3999
67	0	0	1923	754	2767	3999
68	0	0	1951	753	2770	4002
69	0	0	1985	754	2773	4002
70	0	0	2011	753	2774	3999
71	0	0	2049	753	2775	4000
72	0	0	2080	753	2775	3999
73	0	0	2106	755	2776	4000
74	0	0	2132	753	2773	4000
75	0	0	2158	753	2769	3999
76	0	0	2156	756	2767	3999
77	0	0	2132	750	2767	3999
78	0	0	2090	750	2770	4000
79	0	0	2037	744	2771	3999
80	0	0	2008	750	2774	3999
81	0	0	1975	752	2776	3998
82	0	0	1947	751	2776	3999
83	0	0	1935	752	2777	4001
84	0	0	1934	753	2773	4001
85	0	0	1928	751	2770	4003
86	0	0	1925	755	2768	4002
87	0	0	1933	753	2768	3997
88	0	0	1943	755	2770	4000
89	0	0	1968	753	2772	4000
90	0	0	2007	753	2774	3999
91	0	0	2053	750	2775	4001
92	0	0	2090	753	2776	3999
93	0	0	2115	755	2776	3999
94	0	0	2132	752	2774	3998
95	0	0	2181	753	2769	3999
96	0	0	2218	754	2768	3999
97	0	0	2208	751	2769	3999
98	0	0	2164	750	2771	4001
99	0	0	2075	748	2773	3999
100	0	0	1977	749	2776	4001
101	0	0	1930	750	2777	4003
102	0	0	1912	751	2778	4003
103	0	0	1914	752	2776	4001
104	0	0	1929	753	2773	3999
105	0	0	1931	753	2769	3999
106	0	0	1938	754	2767	3999
107	0	0	1959	753	2768	4001
108	0	0	1976	755	2771	4003
109	0	0	1996	754	2772	4001
110	0	0	2029	753	2775	3999
111	0	0	2080	756	2776	3998
112	0	0	2122	753	2777	3999
113	0	0	2149	755	2777	4000
114	0	0	2167	752	2774	3999
115	0	0	2197	753	2770	3999
116	0	0	2209	756	2768	3999
117	0	0	2181	752	2770	4000
118	0	0	2143	755	2771	4000
119	0	0	2115	747	2773	3999
120	0	0	2074	749	2775	4001
121	0	0	2009	751	2776	3999
122	0	0	1944	749	2777	4000
123	0	0	1921	755	2777	4000
124	0	0	1926	752	2774	4001
125	0	0	1926	752	2770	4001
126	0	0	1926	754	2768	4001
127	0	0	1942	752	2769	4001
0	0	0	1958	752	2771	4001
1	0	0	1990	753	2773	3999
2	0	0	2041	751	2776	4000
3	0	0	2081	754	2778	4001
4	0	0	2116	753	2778	3999
5	0	0	2147	754	2778	4000
6	0	0	2165	753	2774	4000
7	0	0	2212	752	2772	4001
8	0	0	2227	752	2770	4000
9	0	0	2180	749	2770	4000
10	0	0	2130	750	2771	4000
11	0	0	2072	749	2773	3999
12	0	0	2021	749	2776	4002
13	0	0	1969	750	2777	4000
14	0	0	1922	750	2779	4000
15	0	0	1900	753	2778	4000
16	0	0	1895	752	2775	4001
17	0	0	1901	751	2771	4001
18	0	0	1942	754	2770	3999
19	0	0	1987	752	2771	4001
20	0	0	2023	752	2772	4000
21	0	0	2062	753	2775	4000
22	0	0	2092	751	2776	3999
23	0	0	2113	752	2778	3999
24	0	0	2138	753	2780	4000
25	0	0	2168	753	2779	4002
26	0	0	2188	752	2775	3999
27	0	0	2219	754	2771	3998
28	0	0	2223	753	2769	4000
29	0	0	2183	750	2771	4000
30	0	0	2140	748	2772	4000
31	0	0	2070	748	2775	4001
32	0	0	1997	748	2776	3999
33	0	0	1959	749	2778	4001
34	0	0	1938	751	2780	4000
35	0	0	1948	753	2779	4002
36	0	0	1982	753	2775	4001
37	0	0	2007	751	2771	3999
38	0	0	2012	752	2771	3999
39	0	0	2035	753	2771	4000
40	0	0	2064	752	2773	4002
41	0	0	2098	753	2775	4002
42	0	0	2114	751	2777	3999
43	0	0	2131	753	2779	4001
44	0	0	2141	752	2779	4000
45	0	0	2143	753	2779	4000
46	0	0	2153	752	2775	3999
47	0	0	2190	753	2772	4001
48	0	0	2207	752	2769	3999
49	0	0	2192	752	2771	4000
50	0	0	2167	750	2772	4000
51	0	0	2124	748	2774	4000
52	0	0	2060	748	2777	4002
53	0	0	2015	750	2779	4002
54	0	0	1982	751	2779	4000
55	0	0	1965	752	2779	4000
56	0	0	1952	750	2777	4001
57	0	0	1930	751	2772	4002
58	0	0	1930	752	2770	4001
59	0	0	1950	752	2772	4000
60	0	0	1972	752	2773	4003
61	0	0	2009	752	2775	3999
62	0	0	2068	752	2778	3997
63	0	0	2110	751	2779	3998
64	0	0	2139	753	2780	4000
65	0	0	2165	752	2779	4000
66	0	0	2176	753	2776	3999
67	0	0	2191	754	2772	4000
68	0	0	2198	752	2771	4001
69	0	0	2146	748	2771	3999
70	0	0	2080	749	2774	4001
71	0	0	2021	748	2775	3999
72	0	0	1969	749	2777	3999
73	0	0	1934	750	2780	4000
74	0	0	1914	751	2780	4003
75	0	0	1905	751	2779	4003
76	0	0	1891	750	2776	4002
77	0	0	1887	751	2772	4002
78	0	0	1912	750	2771	3998
79	0	0	1935	751	2770	4000
80	0	0	1944	752	2773	4000
81	0	0	1961	752	2775	4001
82	0	0	2006	753	2777	4000
83	0	0	2055	752	2779	3999
84	0	0	2099	752	2780	4001
85	0	0	2127	752	2779	3999
86	0	0	2141	752	2777	3999
87	0	0	2145	751	2773	4000
88	0	0	2127	748	2771	3999
89	0	0	2088	750	2772	4001
90	0	0	2076	752	2773	4000
91	0	0	2070	751	2776	3999
92	0	0	2048	751	2777	4002
93	0	0	2020	749	2780	4003
94	0	0	1985	750	2780	4003
95	0	0	1950	749	2780	4000
96	0	0	1927	750	2776	3999
97	0	0	1913	750	2773	4000
98	0	0	1916	751	2771	4003
99	0	0	1948	752	2773	4003
100	0	0	1991	751	2775	4003
101	0	0	2024	752	2776	4001
102	0	0	2045	750	2779	4000
103	0	0	2071	751	2780	4002
104	0	0	2107	752	2780	4000
105	0	0	2135	752	2780	4001
106	0	0	2154	752	2777	4000
107	0	0	2178	752	2775	4001
108	0	0	2178	752	2771	3999
109	0	0	2155	750	2772	3999
110	0	0	2122	749	2774	4000
111	0	0	2071	749	2777	4001
112	0	0	2021	746	2779	3999
113	0	0	1991	749	2780	3999
114	0	0	1981	750	2781	4000
115	0	0	1959	749	2780	4003
116	0	0	1927	749	2777	4002
117	0	0	1903	748	2774	4000
118	0	0	1909	751	2772	4001
119	0	0	1935	751	2773	4002
120	0	0	1962	752	2775	4003
121	0	0	1998	751	2776	4002
122	0	0	2035	750	2779	4000
123	0	0	2066	750	2780	3998
124	0	0	2100	753	2781	3999
125	0	0	2142	751	2780	4001
126	0	0	2184	751	2777	3999
127	0	0	2253	752	2773	3999
0	0	0	2300	752	2772	4000
1	0	0	2306	753	2773	4001
2	0	0	2298	751	2774	4000
3	0	0	2273	748	2776	3999
4	0	0	2236	748	2778	3999
5	0	0	2209	750	2781	3999
6	0	0	2197	753	2782	4000
7	0	0	2192	751	2781	4003
8	0	0	2198	751	2778	4001
9	0	0	2223	752	2774	4002
10	0	0	2257	750	2772	3999
11	0	0	2305	751	2772	3999
12	0	0	2351	751	2775	4000
13	0	0	2395	751	2777	3999
14	0	0	2417	751	2779	4000
15	0	0	2458	751	2781	4000
16	0	0	2510	752	2782	4001
17	0	0	2524	752	2780	4000
18	0	0	2491	749	2778	3999
19	0	0	2449	748	2774	3999
20	0	0	2396	748	2773	3999
21	0	0	2357	749	2774	4000
22	0	0	2351	751	2774	4001
23	0	0	2337	750	2777	3999
24	0	0	2306	748	2780	4003
25	0	0	2271	750	2782	4002
26	0	0	2229	747	2783	4002
27	0	0	2169	749	2781	4002
28	0	0	2108	748	2779	3998
29	0	0	2062	747	2775	4000
30	0	0	2021	747	2773	3999
31	0	0	1972	747	2774	4003
32	0	0	1920	747	2775	4003
33	0	0	1897	750	2773	4002
34	0	0	1897	752	2780	4000
35	0	0	1914	753	2780	3999
36	0	0	1954	751	2782	4000
37	0	0	2000	751	2781	4000
38	0	0	2025	751	2779	3999
39	0	0	2058	751	2775	4000
40	0	0	2062	749	2773	3999
41	0	0	2019	748	2773	4000
42	0	0	1990	745	2775	4000
43	0	0	1955	748	2779	4001
44	0	0	1915	747	2780	4002
45	0	0	1883	748	2782	4000
46	0	0	1863	749	2782	4001
47	0	0	1849	743	2782	3999
48	0	0	1833	748	2779	4002
49	0	0	1808	748	2775	4001
50	0	0	1821	751	2773	4001
51	0	0	1862	751	2773	4003
52	0	0	1917	748	2775	3999
53	0	0	1967	750	2777	4000
54	0	0	2002	750	2780	3999
55	0	0	2042	752	2781	3999
56	0	0	2067	750	2782	4000
57	0	0	2082	747	2782	4001
58	0	0	2097	750	2779	3999
59	0	0	2105	751	2775	4000
60	0	0	2125	753	2773	3999
61	0	0	2129	751	2773	3999
62	0	0	2121	746	2776	4001
63	0	0	2124	752	2778	3999
64	0	0	2080	747	2780	3999
65	0	0	2026	749	2781	4002
66	0	0	1977	748	2782	4002
67	0	0	1937	745	2782	4002
68	0	0	1909	749	2779	4001
69	0	0	1906	751	2775	4000
70	0	0	1928	752	2773	3999
71	0	0	1953	751	2774	3999
72	0	0	1972	750	2776	4003
73	0	0	1988	751	2778	4002
74	0	0	2006	751	2781	4002
75	0	0	2032	751	2783	3999
76	0	0	2067	750	2783	3999
77	0	0	2107	751	2783	4000
78	0	0	2133	751	2780	3998
79	0	0	2180	751	2777	4001
80	0	0	2215	753	2774	4001
81	0	0	2208	750	2775	4001
82	0	0	2173	748	2776	4000
83	0	0	2107	747	2778	3999
84	0	0	2029	747	2780	4002
85	0	0	1978	747	2782	4001
86	0	0	1951	749	2784	4000
87	0	0	1942	748	2783	4000
88	0	0	1940	750	2780	3999
89	0	0	1942	751	2776	4001
90	0	0	1950	752	2773	4002
