# bioPlux Text File Format
# Version: 1
# StartDateTime: 2011-07-18 09:19:17
# SamplingFrequency: 1000
# SampledChannels: 1 2 3 4
# SamplingResolution: 12
# AcquiringDevice: 00:07:80:42:0F:95
# EndOfHeader
0	0	0	3915	5	581	105
1	0	0	3967	5	580	105
2	0	0	3836	4	581	105
3	0	0	3214	4	583	105
4	0	0	2670	4	582	105
5	0	0	2096	4	584	105
6	0	0	1502	4	587	105
7	0	0	943	4	588	105
8	0	0	537	4	591	105
9	0	0	306	4	593	105
10	0	0	177	4	596	105
11	0	0	107	4	597	105
12	0	0	72	4	600	105
13	0	0	576	5	598	105
14	0	0	1246	5	595	105
15	0	0	2151	5	594	105
16	0	0	2902	5	592	105
17	0	0	3378	5	589	105
18	0	0	3661	5	587	105
19	0	0	3823	5	585	105
20	0	0	3915	5	580	105
21	0	0	3966	5	580	105
22	0	0	3820	4	582	105
23	0	0	3203	4	582	105
24	0	0	2651	4	582	105
25	0	0	2083	4	583	105
26	0	0	1507	4	586	105
27	0	0	936	4	589	105
28	0	0	532	4	592	105
29	0	0	304	4	593	105
30	0	0	175	4	597	105
31	0	0	106	4	597	105
32	0	0	71	4	597	105
33	0	0	602	4	598	105
34	0	0	1269	5	595	105
35	0	0	2164	4	593	105
36	0	0	2906	5	593	105
37	0	0	3380	5	588	105
38	0	0	3662	5	587	105
39	0	0	3825	6	585	105
40	0	0	3917	5	580	105
41	0	0	3968	5	581	104
42	0	0	3820	3	580	105
43	0	0	3191	4	580	104
44	0	0	2638	4	582	105
45	0	0	2077	3	583	105
46	0	0	1496	4	585	105
47	0	0	950	3	588	105
48	0	0	542	4	590	105
49	0	0	306	4	593	105
50	0	0	178	3	596	105
51	0	0	108	4	597	105
52	0	0	72	4	597	105
53	0	0	611	5	597	104
54	0	0	1278	5	594	105
55	0	0	2174	4	594	105
56	0	0	2917	5	591	105
57	0	0	3383	5	588	104
58	0	0	3663	5	585	105
59	0	0	3826	5	584	105
60	0	0	3916	4	580	105
61	0	0	3967	5	579	104
62	0	0	3812	4	579	105
63	0	0	3190	4	580	105
64	0	0	2656	4	580	105
65	0	0	2091	5	583	104
66	0	0	1508	4	585	105
67	0	0	966	4	586	105
68	0	0	552	3	588	105
69	0	0	312	4	589	105
70	0	0	180	2	594	105
71	0	0	109	4	597	105
72	0	0	71	4	597	105
73	0	0	594	4	597	105
74	0	0	1254	5	595	105
75	0	0	2131	5	592	105
76	0	0	2885	5	590	105
77	0	0	3363	5	587	104
78	0	0	3651	5	583	104
79	0	0	3818	5	583	105
80	0	0	3913	5	579	105
81	0	0	3963	5	577	105
82	0	0	3817	4	578	104
83	0	0	3202	4	578	104
84	0	0	2681	3	579	105
85	0	0	2115	5	580	105
86	0	0	1535	4	582	104
87	0	0	990	4	586	104
88	0	0	565	4	587	104
89	0	0	320	4	590	105
90	0	0	183	3	592	105
91	0	0	110	4	595	105
92	0	0	72	4	594	105
93	0	0	563	5	595	105
94	0	0	1228	4	592	105
95	0	0	2130	5	591	105
96	0	0	2888	5	589	105
97	0	0	3369	5	586	104
98	0	0	3652	5	583	105
99	0	0	3820	5	581	105
100	0	0	3911	6	578	105
101	0	0	3963	5	576	105
102	0	0	3832	4	575	105
103	0	0	3217	4	577	105
104	0	0	2679	4	578	105
105	0	0	2110	4	580	104
106	0	0	1516	4	583	105
107	0	0	942	4	584	104
108	0	0	539	4	587	105
109	0	0	304	3	589	105
110	0	0	175	3	593	105
111	0	0	104	4	594	105
112	0	0	69	4	594	104
113	0	0	585	4	594	105
114	0	0	1250	5	593	105
115	0	0	2142	4	590	105
116	0	0	2898	5	589	105
117	0	0	3375	5	586	104
118	0	0	3655	5	582	105
119	0	0	3821	4	581	105
120	0	0	3914	5	578	105
121	0	0	3963	5	576	105
122	0	0	3847	4	577	104
123	0	0	3201	4	575	104
124	0	0	2650	3	578	105
125	0	0	2083	5	579	105
126	0	0	1505	4	581	105
127	0	0	961	4	585	104
0	0	0	551	3	586	105
1	0	0	311	4	589	105
2	0	0	176	3	592	105
3	0	0	107	4	594	105
4	0	0	70	4	594	105
5	0	0	581	4	593	104
6	0	0	1250	5	591	105
7	0	0	2144	5	590	105
8	0	0	2903	5	587	105
9	0	0	3377	5	585	105
10	0	0	3658	5	583	104
11	0	0	3820	5	580	105
12	0	0	3914	4	577	105
13	0	0	3963	5	577	105
14	0	0	3832	4	576	104
15	0	0	3223	4	577	105
16	0	0	2687	3	577	105
17	0	0	2120	3	579	105
18	0	0	1545	3	580	105
19	0	0	990	4	584	105
20	0	0	564	3	585	105
21	0	0	321	4	588	105
22	0	0	183	4	591	105
23	0	0	108	4	593	105
24	0	0	71	3	594	106
25	0	0	569	4	592	105
26	0	0	1238	5	591	105
27	0	0	2115	5	589	105
28	0	0	2861	4	587	105
29	0	0	3352	5	585	105
30	0	0	3643	5	582	105
31	0	0	3815	5	581	105
32	0	0	3910	4	577	104
33	0	0	3960	5	574	104
34	0	0	3843	4	575	105
35	0	0	3229	4	575	105
36	0	0	2693	4	576	105
37	0	0	2115	3	579	105
38	0	0	1525	4	581	105
39	0	0	962	4	583	106
40	0	0	549	3	587	105
41	0	0	309	4	586	105
42	0	0	177	4	592	105
43	0	0	106	3	593	105
44	0	0	69	4	593	104
45	0	0	544	4	592	104
46	0	0	1196	5	592	105
47	0	0	2104	5	589	105
48	0	0	2878	4	586	105
49	0	0	3362	5	585	105
50	0	0	3647	5	582	105
51	0	0	3816	5	581	105
52	0	0	3910	4	578	105
53	0	0	3961	5	577	105
54	0	0	3857	4	575	106
55	0	0	3234	4	576	105
56	0	0	2679	4	576	105
57	0	0	2106	4	579	105
58	0	0	1524	4	581	105
59	0	0	948	4	584	106
60	0	0	542	4	585	105
61	0	0	305	4	588	105
62	0	0	174	4	592	105
63	0	0	104	3	594	104
64	0	0	68	4	594	105
65	0	0	562	4	594	105
66	0	0	1235	4	592	105
67	0	0	2134	5	590	105
68	0	0	2895	5	587	105
69	0	0	3373	5	584	105
70	0	0	3654	5	581	105
71	0	0	3821	5	581	105
72	0	0	3913	3	577	105
73	0	0	3963	4	574	105
74	0	0	3864	4	578	105
75	0	0	3222	4	577	105
76	0	0	2680	4	578	105
77	0	0	2112	4	580	105
78	0	0	1523	4	581	105
79	0	0	968	4	583	104
80	0	0	554	3	586	105
81	0	0	312	4	589	105
82	0	0	178	4	592	105
83	0	0	106	4	594	105
84	0	0	69	4	594	105
85	0	0	565	4	595	105
86	0	0	1224	5	592	104
87	0	0	2118	4	588	105
88	0	0	2882	4	586	105
89	0	0	3364	5	585	104
90	0	0	3651	5	582	105
91	0	0	3815	5	580	105
92	0	0	3910	5	578	105
93	0	0	3962	5	575	105
94	0	0	3852	4	576	105
95	0	0	3228	4	575	105
96	0	0	2693	4	578	105
97	0	0	2117	3	577	105
98	0	0	1549	3	581	105
99	0	0	996	3	584	105
100	0	0	568	4	586	105
101	0	0	322	4	588	105
102	0	0	184	4	591	105
103	0	0	108	4	594	105
104	0	0	70	4	595	105
105	0	0	559	4	592	105
106	0	0	1228	5	590	106
107	0	0	2106	4	589	105
108	0	0	2865	5	588	104
109	0	0	3354	5	587	105
110	0	0	3644	5	581	105
111	0	0	3812	5	581	105
112	0	0	3907	5	578	104
113	0	0	3960	5	575	105
114	0	0	3852	4	576	105
115	0	0	3244	4	576	105
116	0	0	2705	4	577	105
117	0	0	2130	4	579	104
118	0	0	1559	4	582	105
119	0	0	1000	4	583	105
120	0	0	570	3	585	105
121	0	0	323	3	585	105
122	0	0	182	4	592	105
123	0	0	108	4	594	105
124	0	0	70	4	593	104
125	0	0	525	5	592	105
126	0	0	1189	5	592	105
127	0	0	2100	5	589	105
0	0	0	2865	3	587	105
1	0	0	3355	5	586	105
2	0	0	3643	5	581	105
3	0	0	3813	5	580	105
4	0	0	3906	5	578	105
5	0	0	3958	5	576	104
6	0	0	3860	4	577	105
7	0	0	3247	4	575	105
8	0	0	2715	4	575	105
9	0	0	2139	4	581	105
10	0	0	1557	2	583	105
11	0	0	976	3	582	105
12	0	0	553	3	584	105
13	0	0	310	4	587	105
14	0	0	178	4	592	105
15	0	0	105	4	594	105
16	0	0	67	4	593	105
17	0	0	549	4	593	105
18	0	0	1205	5	590	105
19	0	0	2104	5	589	105
20	0	0	2874	5	587	105
21	0	0	3355	5	585	105
22	0	0	3646	5	583	105
23	0	0	3812	5	579	105
24	0	0	3906	5	577	105
25	0	0	3959	5	574	104
26	0	0	3866	4	575	105
27	0	0	3227	4	575	105
28	0	0	2679	3	577	105
29	0	0	2111	4	578	105
30	0	0	1534	2	581	105
31	0	0	978	3	584	105
32	0	0	556	3	585	105
33	0	0	312	4	588	105
34	0	0	178	4	591	105
35	0	0	105	2	594	105
36	0	0	67	3	593	105
37	0	0	552	4	593	105
38	0	0	1198	5	592	105
39	0	0	2100	5	591	105
40	0	0	2866	4	588	105
41	0	0	3350	5	587	105
42	0	0	3642	5	582	105
43	0	0	3812	5	580	105
44	0	0	3905	5	577	105
45	0	0	3958	5	576	105
46	0	0	3860	4	575	105
47	0	0	3238	3	576	105
48	0	0	2703	4	577	105
49	0	0	2126	4	580	105
50	0	0	1546	4	582	105
51	0	0	1000	4	584	105
52	0	0	570	4	585	105
53	0	0	320	4	589	105
54	0	0	183	4	591	105
55	0	0	107	2	593	105
56	0	0	68	4	594	106
57	0	0	554	4	593	105
58	0	0	1199	5	592	105
59	0	0	2070	5	589	105
60	0	0	2833	5	589	105
61	0	0	3329	5	584	105
62	0	0	3628	5	582	105
63	0	0	3804	5	579	105
64	0	0	3903	5	577	105
65	0	0	3956	5	575	105
66	0	0	3876	4	576	105
67	0	0	3255	4	576	104
68	0	0	2723	4	577	105
69	0	0	2148	3	579	105
70	0	0	1567	4	581	105
71	0	0	1013	4	584	105
72	0	0	578	4	585	105
73	0	0	324	4	587	105
74	0	0	183	4	592	105
75	0	0	108	4	594	105
76	0	0	69	4	594	105
77	0	0	520	5	594	105
78	0	0	1161	4	591	105
79	0	0	2056	4	590	105
80	0	0	2837	5	587	105
81	0	0	3337	5	586	105
82	0	0	3633	5	582	105
83	0	0	3805	5	581	105
84	0	0	3903	5	577	106
85	0	0	3956	6	576	105
86	0	0	3879	4	575	105
87	0	0	3251	4	576	105
88	0	0	2715	4	577	105
89	0	0	2152	4	578	105
90	0	0	1595	3	581	105
91	0	0	1018	4	584	105
92	0	0	584	4	584	105
93	0	0	328	4	587	105
94	0	0	185	4	591	105
95	0	0	109	4	594	105
96	0	0	69	3	594	105
97	0	0	540	5	593	105
98	0	0	1201	5	591	105
99	0	0	2086	5	590	104
100	0	0	2856	5	587	105
101	0	0	3346	5	585	105
102	0	0	3639	5	583	105
103	0	0	3807	5	580	105
104	0	0	3903	5	577	106
105	0	0	3957	4	577	105
106	0	0	3871	4	576	105
107	0	0	3224	4	577	105
108	0	0	2674	4	579	105
109	0	0	2115	4	579	105
110	0	0	1546	4	580	105
111	0	0	993	4	584	105
112	0	0	570	4	585	104
113	0	0	320	3	588	105
114	0	0	180	4	591	104
115	0	0	105	4	593	105
116	0	0	69	4	592	105
117	0	0	546	5	594	105
118	0	0	1195	4	592	105
119	0	0	2070	5	588	105
120	0	0	2839	5	588	105
121	0	0	3338	5	587	105
122	0	0	3633	5	583	105
123	0	0	3802	5	581	105
124	0	0	3903	5	579	105
125	0	0	3956	5	578	105
126	0	0	3853	3	576	106
127	0	0	3239	4	576	105
0	0	0	2707	5	578	105
1	0	0	2137	4	579	104
2	0	0	1574	4	581	105
3	0	0	1027	3	584	105
4	0	0	588	4	584	105
5	0	0	332	3	588	105
6	0	0	187	3	593	105
7	0	0	111	3	595	105
8	0	0	69	4	594	105
9	0	0	554	4	594	105
10	0	0	1210	5	593	105
11	0	0	2074	5	589	105
12	0	0	2820	5	588	105
13	0	0	3325	5	583	106
14	0	0	3625	5	582	104
15	0	0	3803	5	581	105
16	0	0	3900	5	577	105
17	0	0	3955	5	576	105
18	0	0	3867	4	577	104
19	0	0	3248	4	577	105
20	0	0	2721	4	576	105
21	0	0	2159	4	579	105
22	0	0	1597	3	582	105
23	0	0	1049	4	585	105
24	0	0	602	3	586	105
25	0	0	337	5	590	105
26	0	0	191	4	593	104
27	0	0	112	3	595	105
28	0	0	70	3	595	105
29	0	0	544	5	594	105
30	0	0	1179	5	593	105
31	0	0	2052	5	591	104
32	0	0	2821	5	587	106
33	0	0	3320	5	587	105
34	0	0	3623	5	582	104
35	0	0	3798	5	581	105
36	0	0	3899	5	579	104
37	0	0	3954	5	578	105
38	0	0	3854	4	576	106
39	0	0	3243	4	578	105
40	0	0	2722	4	577	105
41	0	0	2160	6	580	105
42	0	0	1594	4	581	105
43	0	0	1034	3	585	104
44	0	0	591	4	587	105
45	0	0	331	4	590	105
46	0	0	187	4	593	104
47	0	0	110	3	594	105
48	0	0	68	3	594	106
49	0	0	577	5	595	104
50	0	0	1199	4	593	104
51	0	0	2052	5	591	104
52	0	0	2815	5	588	105
53	0	0	3318	5	585	105
54	0	0	3620	5	583	105
55	0	0	3797	5	581	105
56	0	0	3899	5	579	104
57	0	0	3953	5	580	105
58	0	0	3857	4	577	105
59	0	0	3217	4	576	105
60	0	0	2670	3	577	105
61	0	0	2111	4	578	105
62	0	0	1580	3	582	105
63	0	0	1062	4	583	105
64	0	0	620	4	587	106
65	0	0	360	4	589	105
66	0	0	215	4	593	105
67	0	0	125	4	595	105
68	0	0	76	4	593	105
69	0	0	615	4	593	105
70	0	0	1216	5	592	105
71	0	0	2060	4	590	105
72	0	0	2817	4	588	105
73	0	0	3321	4	586	106
74	0	0	3621	5	583	105
75	0	0	3798	5	581	105
76	0	0	3897	5	578	105
77	0	0	3952	4	576	105
78	0	0	3804	4	575	105
79	0	0	3191	4	575	105
80	0	0	2670	4	577	105
81	0	0	2130	4	578	104
82	0	0	1593	4	581	105
83	0	0	1065	4	583	105
84	0	0	634	4	586	105
85	0	0	373	4	588	105
86	0	0	224	4	592	105
87	0	0	129	4	594	105
88	0	0	78	3	594	105
89	0	0	594	5	596	106
90	0	0	1210	4	592	105
91	0	0	2013	5	591	105
92	0	0	2740	5	587	105
93	0	0	3250	4	585	104
94	0	0	3578	5	584	105
95	0	0	3773	5	581	105
96	0	0	3882	5	578	105
97	0	0	3944	5	577	105
98	0	0	3800	4	576	105
99	0	0	3191	4	576	105
100	0	0	2666	4	579	105
101	0	0	2129	4	578	104
102	0	0	1594	4	581	105
103	0	0	1075	4	584	105
104	0	0	645	4	585	104
105	0	0	393	4	590	105
106	0	0	243	4	592	105
107	0	0	139	5	594	105
108	0	0	84	4	593	105
109	0	0	612	5	595	105
110	0	0	1236	5	593	105
111	0	0	2052	5	590	105
112	0	0	2790	5	587	106
113	0	0	3295	4	586	105
114	0	0	3607	5	582	105
115	0	0	3788	5	581	105
116	0	0	3893	6	577	104
117	0	0	3949	5	577	105
118	0	0	3793	3	575	105
119	0	0	3172	4	577	106
120	0	0	2652	4	577	105
121	0	0	2114	4	579	104
122	0	0	1594	3	580	105
123	0	0	1061	4	583	105
124	0	0	627	4	585	105
125	0	0	381	4	588	104
126	0	0	239	4	591	105
127	0	0	137	4	595	105
0	0	0	82	4	594	106
1	0	0	633	4	594	105
2	0	0	1241	5	593	105
3	0	0	2050	5	590	105
4	0	0	2760	6	588	105
5	0	0	3258	5	585	105
6	0	0	3582	5	584	106
7	0	0	3773	5	582	105
8	0	0	3870	5	577	104
9	0	0	3936	5	576	105
10	0	0	3753	4	577	105
11	0	0	3137	4	576	105
12	0	0	2613	4	578	105
13	0	0	2091	4	578	105
14	0	0	1579	3	582	104
15	0	0	1082	4	583	105
16	0	0	678	4	586	104
17	0	0	440	4	588	105
18	0	0	280	3	593	104
19	0	0	159	5	593	105
20	0	0	94	5	595	105
21	0	0	668	4	596	105
22	0	0	1280	5	593	105
23	0	0	2075	5	589	104
24	0	0	2771	5	589	105
25	0	0	3258	4	586	105
26	0	0	3584	5	582	104
27	0	0	3738	5	580	105
28	0	0	3820	5	578	105
29	0	0	3908	6	578	105
30	0	0	3727	4	576	105
31	0	0	3140	4	577	104
32	0	0	2635	4	577	104
33	0	0	2118	4	579	105
34	0	0	1616	4	583	105
35	0	0	1125	4	584	105
36	0	0	721	4	587	104
37	0	0	484	4	589	105
38	0	0	320	4	590	106
39	0	0	181	5	594	105
40	0	0	108	4	596	105
41	0	0	688	4	594	104
42	0	0	1291	5	592	105
43	0	0	2056	5	588	105
44	0	0	2747	4	588	105
45	0	0	3222	5	586	105
46	0	0	3550	5	583	104
47	0	0	3722	5	581	105
48	0	0	3815	4	578	105
49	0	0	3905	5	577	104
50	0	0	3708	3	576	105
51	0	0	3128	4	576	105
52	0	0	2642	4	577	105
53	0	0	2135	3	579	105
54	0	0	1639	4	580	105
55	0	0	1154	4	584	105
56	0	0	749	4	586	104
57	0	0	506	4	588	105
58	0	0	335	4	591	105
59	0	0	188	4	594	105
60	0	0	109	5	595	105
61	0	0	666	5	593	105
62	0	0	1258	5	592	105
63	0	0	2037	4	591	105
64	0	0	2730	5	588	105
65	0	0	3199	5	585	105
66	0	0	3516	5	584	104
67	0	0	3689	5	581	105
68	0	0	3783	5	578	105
69	0	0	3887	5	575	105
70	0	0	3640	4	575	105
71	0	0	3083	3	577	105
72	0	0	2614	4	578	105
73	0	0	2129	4	579	105
74	0	0	1640	5	581	105
75	0	0	1140	3	584	105
76	0	0	733	4	585	104
77	0	0	498	4	588	105
78	0	0	330	4	592	105
79	0	0	188	4	594	104
80	0	0	135	4	594	105
81	0	0	697	5	595	105
82	0	0	1276	5	594	105
83	0	0	2037	4	590	105
84	0	0	2716	5	587	105
85	0	0	3184	5	585	104
86	0	0	3488	5	583	104
87	0	0	3655	6	581	105
88	0	0	3746	5	579	104
89	0	0	3863	5	577	104
90	0	0	3605	4	576	105
91	0	0	3043	4	577	104
92	0	0	2559	3	579	105
93	0	0	2083	4	579	105
94	0	0	1611	4	581	105
95	0	0	1142	4	584	105
96	0	0	770	4	586	104
97	0	0	545	4	588	105
98	0	0	376	4	593	104
99	0	0	213	4	595	105
100	0	0	160	5	595	105
101	0	0	725	4	594	104
102	0	0	1296	5	593	105
103	0	0	2037	5	591	105
104	0	0	2722	5	589	105
105	0	0	3184	4	587	105
106	0	0	3488	5	584	105
107	0	0	3626	5	581	105
108	0	0	3697	5	580	104
109	0	0	3839	5	576	105
110	0	0	3561	4	577	105
111	0	0	3040	4	578	104
112	0	0	2587	4	578	105
113	0	0	2123	4	579	105
114	0	0	1665	4	581	105
115	0	0	1201	4	584	105
116	0	0	826	4	587	105
117	0	0	591	4	588	105
118	0	0	399	4	591	105
119	0	0	226	4	594	105
120	0	0	167	4	594	105
121	0	0	731	5	596	104
122	0	0	1314	5	593	105
123	0	0	2035	4	591	105
124	0	0	2687	5	588	105
125	0	0	3145	5	587	105
126	0	0	3455	5	583	105
127	0	0	3619	5	581	105
0	0	0	3713	5	580	105
1	0	0	3847	5	577	105
2	0	0	3591	4	578	105
3	0	0	3079	4	578	105
4	0	0	2608	4	579	105
5	0	0	2134	4	578	105
6	0	0	1656	4	582	105
7	0	0	1179	4	585	105
8	0	0	805	4	585	104
9	0	0	575	4	589	105
10	0	0	409	3	591	105
11	0	0	230	3	595	105
12	0	0	149	4	596	105
13	0	0	710	5	595	105
14	0	0	1280	5	592	105
15	0	0	2015	5	591	104
16	0	0	2690	5	588	105
17	0	0	3150	5	586	105
18	0	0	3453	5	584	104
19	0	0	3616	5	582	104
20	0	0	3719	6	579	105
21	0	0	3850	5	577	105
22	0	0	3612	4	577	104
23	0	0	3081	4	577	104
24	0	0	2608	4	577	105
25	0	0	2130	4	579	105
26	0	0	1676	3	581	105
27	0	0	1192	4	586	105
28	0	0	801	4	586	103
29	0	0	574	3	589	105
30	0	0	395	6	593	105
31	0	0	222	4	595	105
32	0	0	173	5	595	105
33	0	0	739	4	596	104
34	0	0	1319	4	593	105
35	0	0	2060	5	593	105
36	0	0	2715	5	588	105
37	0	0	3176	5	587	105
38	0	0	3478	5	584	105
39	0	0	3628	4	581	105
40	0	0	3697	5	580	105
41	0	0	3838	5	574	105
42	0	0	3566	4	577	105
43	0	0	3021	4	577	104
44	0	0	2547	5	578	105
45	0	0	2081	4	580	105
46	0	0	1632	4	582	105
47	0	0	1180	4	584	104
48	0	0	818	4	587	104
49	0	0	604	3	589	105
50	0	0	430	4	594	105
51	0	0	242	3	595	105
52	0	0	186	4	596	105
53	0	0	746	5	596	104
54	0	0	1311	4	593	105
55	0	0	2048	4	594	105
56	0	0	2707	5	590	105
57	0	0	3161	5	588	105
58	0	0	3453	5	585	104
59	0	0	3583	6	582	105
60	0	0	3649	5	579	106
61	0	0	3809	6	578	104
62	0	0	3535	4	578	105
63	0	0	3032	4	577	105
64	0	0	2590	4	579	105
65	0	0	2126	4	580	104
66	0	0	1670	4	581	105
67	0	0	1210	4	584	104
68	0	0	848	4	588	104
69	0	0	628	4	590	105
70	0	0	450	4	597	105
71	0	0	254	4	595	105
72	0	0	202	5	596	105
73	0	0	753	5	596	105
74	0	0	1318	4	595	105
75	0	0	2027	5	593	105
76	0	0	2669	5	589	105
77	0	0	3118	5	587	105
78	0	0	3422	4	584	104
79	0	0	3587	4	582	105
80	0	0	3680	5	579	105
81	0	0	3828	6	577	105
82	0	0	3571	4	578	105
83	0	0	3048	4	578	104
84	0	0	2608	3	579	105
85	0	0	2148	4	582	105
86	0	0	1683	4	584	105
87	0	0	1222	3	584	105
88	0	0	852	4	588	105
89	0	0	624	4	590	105
90	0	0	448	4	592	105
91	0	0	252	4	597	105
92	0	0	169	5	597	105
93	0	0	725	5	596	105
94	0	0	1285	5	594	105
95	0	0	2015	5	593	105
96	0	0	2682	5	589	105
97	0	0	3139	5	588	105
98	0	0	3440	5	585	105
99	0	0	3598	5	583	105
100	0	0	3680	5	579	105
101	0	0	3827	5	577	105
102	0	0	3570	4	577	105
103	0	0	3044	4	578	104
104	0	0	2600	4	579	105
105	0	0	2129	4	579	105
106	0	0	1666	4	583	105
107	0	0	1192	3	583	105
108	0	0	810	4	587	105
109	0	0	587	3	589	105
110	0	1	425	4	592	105
111	0	1	239	4	595	105
112	0	1	176	4	596	105
113	0	1	737	5	597	105
114	0	1	1284	5	593	104
115	0	1	2014	5	591	105
116	0	1	2683	5	589	105
117	0	1	3137	5	587	105
118	0	1	3434	5	584	104
119	0	1	3594	4	583	105
120	0	1	3673	7	579	105
121	0	1	3822	5	578	105
122	0	1	3562	3	577	105
123	0	1	3019	4	579	105
124	0	1	2552	3	579	106
125	0	1	2085	4	580	104
126	0	1	1635	5	583	104
127	0	1	1184	5	585	105
0	0	1	818	4	587	105
1	0	1	599	4	590	105
2	0	1	430	4	592	105
3	0	1	244	4	595	104
4	0	1	188	5	597	105
5	0	1	753	5	596	105
6	0	1	1304	5	594	105
7	0	1	2031	5	591	104
8	0	1	2691	5	589	105
9	0	1	3144	4	586	105
10	0	1	3433	5	585	105
11	0	1	3570	4	583	105
12	0	1	3621	5	580	105
13	0	1	3789	5	577	106
14	0	1	3527	4	577	105
15	0	1	3017	4	578	104
16	0	1	2578	4	579	105
17	0	1	2124	4	580	105
18	0	1	1675	4	582	105
19	0	1	1220	4	585	105
20	0	1	850	4	588	105
21	0	1	618	3	589	105
22	0	1	442	4	593	104
23	0	1	251	4	595	105
24	0	1	176	5	598	105
25	0	1	731	5	598	105
26	0	1	1283	5	596	105
27	0	1	1982	5	594	105
28	0	1	2648	5	592	105
29	0	1	3121	4	588	105
30	0	1	3426	4	586	105
31	0	1	3591	4	583	105
32	0	1	3656	5	581	105
33	0	1	3814	5	579	105
34	0	1	3566	5	579	105
35	0	1	3050	4	578	105
36	0	1	2605	4	580	105
37	0	1	2144	4	581	105
38	0	1	1678	4	585	104
39	0	1	1210	4	586	104
40	0	1	839	4	589	104
41	0	1	608	3	590	104
42	0	1	444	4	595	104
43	0	1	251	4	597	105
44	0	1	160	4	599	105
45	0	1	718	5	599	105
46	0	1	1284	5	597	105
47	0	1	2011	4	595	105
48	0	1	2674	5	590	106
49	0	1	3136	6	591	105
50	0	1	3439	5	587	105
51	0	1	3597	5	585	105
52	0	1	3670	5	582	105
53	0	1	3823	5	580	104
54	0	1	3580	3	581	105
55	0	1	3051	4	581	104
56	0	1	2600	4	582	105
57	0	1	2138	4	584	105
58	0	1	1677	4	586	104
59	0	1	1187	4	588	105
60	0	1	794	3	590	105
61	0	1	573	4	594	105
62	0	1	423	4	596	105
63	0	1	239	4	598	105
64	0	1	166	5	599	105
65	0	1	727	4	599	105
66	0	1	1276	4	598	105
67	0	1	2000	6	596	105
68	0	1	2667	5	592	105
69	0	1	3134	4	591	105
70	0	1	3433	5	588	105
71	0	1	3592	4	586	106
72	0	1	3671	5	584	105
73	0	1	3824	5	580	104
74	0	1	3583	5	581	105
75	0	1	3034	4	582	105
76	0	1	2568	4	582	105
77	0	1	2106	4	585	105
78	0	1	1658	4	587	105
79	0	1	1198	3	588	105
80	0	1	831	4	592	105
81	1	1	612	4	593	105
82	1	1	451	4	599	105
83	1	1	255	3	601	105
84	1	1	174	4	605	105
85	1	1	721	4	607	105
86	1	1	1281	5	604	104
87	1	1	2008	6	602	105
88	1	1	2676	5	600	105
89	1	1	3139	5	595	105
90	1	1	3449	5	596	104
91	1	1	3596	4	592	105
92	1	1	3649	5	589	105
93	1	1	3810	5	586	105
94	1	1	3578	3	587	105
95	1	1	3056	4	587	105
96	1	1	2625	3	588	105
97	1	1	2167	4	589	105
98	1	1	1703	4	589	106
99	1	1	1236	3	594	105
100	1	1	859	4	596	105
101	1	1	624	4	599	106
102	1	1	462	3	603	105
103	1	1	260	4	605	104
104	1	1	172	4	604	105
105	1	1	728	5	606	105
106	1	1	1262	5	601	105
107	1	1	1960	5	599	105
108	1	1	2623	5	599	105
109	1	1	3096	5	596	105
110	1	1	3419	5	592	105
111	1	1	3593	5	591	105
112	1	1	3681	5	587	105
113	1	1	3828	5	586	105
114	1	1	3619	4	585	105
115	1	1	3079	4	585	105
116	1	1	2637	4	586	105
117	1	1	2170	4	586	105
118	1	1	1710	4	588	105
119	1	1	1244	3	590	105
120	1	1	856	4	595	105
121	1	1	614	4	596	105
122	1	1	443	3	601	105
123	1	1	252	4	602	104
124	1	1	146	6	602	105
125	1	1	680	5	603	105
126	1	1	1233	5	601	105
127	1	1	1964	4	600	105
0	1	1	2661	4	596	105
1	1	1	3149	4	595	105
2	1	1	3461	5	593	105
3	1	1	3628	5	588	106
4	1	1	3693	5	586	105
5	1	1	3835	5	583	104
6	1	1	3625	3	584	105
7	1	1	3086	4	583	105
8	1	1	2620	4	584	105
9	1	1	2149	4	584	105
10	1	1	1684	4	589	105
11	1	1	1188	3	591	105
12	1	1	795	4	592	105
13	1	1	561	4	596	105
14	1	1	414	4	599	104
15	1	1	235	4	601	105
16	1	1	143	4	602	105
17	1	1	704	5	602	105
18	1	1	1246	5	601	105
19	1	1	1959	5	598	105
20	1	1	2660	5	595	105
21	1	1	3151	4	593	105
22	1	1	3458	5	591	105
23	1	1	3619	5	589	105
24	1	1	3682	5	586	105
25	1	1	3831	5	581	104
26	1	1	3613	3	583	105
27	1	1	3055	4	583	105
28	1	1	2595	4	583	105
29	1	1	2134	4	585	105
30	1	1	1668	3	586	104
31	1	1	1195	3	589	104
32	1	1	812	3	593	105
33	1	1	570	4	595	105
34	1	1	415	4	598	105
35	1	1	234	3	601	105
36	1	1	137	5	602	105
37	1	1	689	5	600	105
38	1	1	1241	4	600	105
39	1	1	1963	5	597	105
40	1	1	2655	4	594	105
41	1	1	3134	4	593	105
42	1	1	3447	4	589	105
43	1	1	3593	5	587	105
44	1	1	3648	5	585	105
45	1	1	3812	5	583	105
46	1	1	3603	4	583	105
47	1	1	3073	4	582	105
48	1	1	2618	4	584	105
49	1	1	2149	4	583	104
50	1	1	1686	4	587	105
51	1	1	1209	4	590	105
52	1	1	822	4	592	104
53	1	1	583	4	595	105
54	1	1	421	4	598	105
55	1	1	238	4	602	105
56	1	1	140	6	601	105
57	1	1	680	5	603	105
58	1	1	1233	5	600	105
59	1	1	1948	5	597	105
60	1	1	2615	5	594	104
61	1	1	3100	4	593	105
62	1	1	3426	5	588	105
63	1	1	3608	5	588	105
64	1	1	3689	5	583	105
65	1	1	3836	5	581	104
66	1	1	3641	3	583	105
67	1	1	3105	4	581	105
68	1	1	2649	4	583	105
69	1	1	2175	4	584	105
70	1	1	1700	4	587	104
71	1	1	1219	4	589	105
72	1	1	828	4	592	105
73	1	1	584	4	593	105
74	1	1	430	4	597	104
75	1	1	244	4	601	105
76	1	1	142	3	599	104
77	1	1	649	5	600	105
78	1	1	1209	5	599	105
79	1	1	1947	4	597	105
80	1	1	2635	5	595	105
81	1	1	3130	5	592	105
82	1	1	3459	5	589	105
83	1	1	3637	5	586	105
84	1	1	3711	5	583	104
85	1	1	3849	5	581	105
86	1	1	3663	4	581	105
87	1	1	3121	4	581	105
88	1	1	2655	4	583	105
89	1	1	2179	4	583	105
90	1	1	1705	3	586	105
91	1	1	1198	4	590	104
92	1	1	784	4	592	105
93	1	1	544	4	593	105
94	1	1	392	4	597	106
95	1	1	222	4	600	105
96	1	1	130	5	601	105
97	1	1	670	5	599	105
98	1	1	1236	5	599	105
99	1	1	1978	5	596	104
100	1	1	2688	5	593	105
101	1	1	3183	3	590	105
102	1	1	3499	5	587	105
103	1	1	3665	5	584	105
104	1	1	3710	5	582	105
105	1	1	3847	5	579	105
106	1	1	3655	4	580	105
107	1	1	3097	4	580	105
108	1	1	2622	3	581	105
109	1	1	2149	4	583	104
110	1	1	1688	4	585	105
111	1	1	1215	3	586	105
112	1	1	820	4	590	105
113	1	1	567	3	593	105
114	1	1	406	4	596	105
115	1	1	230	4	601	105
116	1	1	134	3	599	105
117	1	1	652	5	600	105
118	1	1	1212	5	600	105
119	1	1	1956	5	596	105
120	1	1	2672	5	592	105
121	1	1	3165	4	588	105
122	1	1	3487	5	587	105
123	1	1	3640	5	586	105
124	1	1	3678	5	582	105
125	1	1	3830	5	581	105
126	1	1	3657	4	580	105
127	1	1	3112	4	580	105
0	1	1	2655	4	581	105
1	1	1	2172	4	583	105
2	1	1	1691	4	586	105
3	1	1	1208	4	588	105
4	1	1	807	4	592	105
5	1	1	549	4	593	105
6	1	1	393	3	597	104
7	1	1	222	3	600	105
8	1	1	130	2	600	105
9	1	1	627	3	602	105
10	1	1	1171	5	599	105
11	1	1	1893	4	597	105
12	1	1	2589	5	594	105
13	1	1	3086	4	591	105
14	1	1	3428	5	589	105
15	1	1	3628	6	586	105
16	1	1	3719	5	583	105
17	1	1	3851	5	580	105
18	1	1	3725	4	579	104
19	1	1	3144	4	581	105
20	1	1	2659	4	582	105
21	1	1	2149	4	583	105
22	1	1	1645	4	586	105
23	1	1	1139	4	588	105
24	1	1	712	3	592	105
25	1	1	437	3	597	104
26	1	1	251	4	598	104
27	1	1	146	4	598	105
28	1	1	89	4	601	104
29	1	1	472	5	602	105
30	1	1	1049	4	600	105
31	1	1	1830	5	597	105
32	1	1	2587	4	594	105
33	1	1	3119	4	592	105
34	1	1	3471	5	589	105
35	1	1	3670	6	586	104
36	1	1	3758	6	583	105
37	1	1	3875	5	582	105
38	1	1	3758	4	580	105
39	1	1	3161	4	579	105
40	1	1	2656	4	582	105
41	1	1	2154	4	585	105
42	1	1	1538	4	586	105
43	1	1	989	4	588	105
44	1	1	595	4	589	104
45	1	1	381	4	593	105
46	1	1	277	4	597	106
47	1	1	162	4	599	105
48	1	1	100	4	601	104
49	1	1	606	5	601	105
50	1	1	1201	5	599	105
51	1	1	1981	5	596	104
52	1	1	2748	5	592	105
53	1	1	3284	4	591	105
54	1	1	3601	5	589	105
55	1	1	3789	5	585	105
56	1	1	3895	5	583	105
57	1	1	3955	5	583	105
58	1	1	3753	4	578	105
59	1	1	3125	4	580	105
60	1	1	2643	4	581	105
61	1	1	2161	4	581	104
62	1	1	1677	4	584	104
63	1	1	1174	3	587	105
64	1	1	763	4	590	105
65	1	1	496	4	592	105
66	1	1	347	4	597	104
67	1	1	199	4	602	105
68	1	1	120	4	601	105
69	1	1	607	5	601	104
70	1	1	1191	4	599	105
71	1	1	1957	4	595	105
72	1	1	2712	5	595	105
73	1	1	3256	5	589	105
74	1	1	3505	5	587	105
75	1	1	3658	5	585	105
76	1	1	3756	5	582	105
77	1	1	3876	5	580	105
78	1	1	3855	3	580	105
79	1	1	3268	4	579	105
80	1	1	2788	4	580	105
81	1	1	2288	4	583	105
82	1	1	1803	4	584	105
83	1	1	1291	3	586	105
84	1	1	866	3	589	104
85	1	1	602	4	591	105
86	1	1	432	4	595	104
87	1	1	246	4	600	105
88	1	1	145	3	600	105
89	1	1	686	5	596	104
90	1	1	1127	6	599	105
91	1	1	1861	5	595	105
92	1	1	2642	5	592	104
93	1	1	3219	5	589	105
94	1	1	3562	5	586	105
95	1	1	3762	5	584	105
96	1	1	3878	4	579	105
97	1	1	3943	5	578	105
98	1	1	3884	4	577	105
99	1	1	3288	4	576	105
100	1	1	2787	4	578	105
101	1	1	2275	3	579	105
102	1	1	1775	4	584	105
103	1	1	1254	4	587	105
104	1	1	824	3	588	105
105	1	1	557	4	592	105
106	1	1	409	3	593	105
107	1	1	230	4	598	104
108	1	1	133	4	598	105
109	1	1	572	5	598	105
110	1	1	1133	5	595	105
111	1	1	1877	5	594	104
112	1	1	2588	4	591	105
113	1	1	3094	5	588	105
114	1	1	3424	5	587	105
115	1	1	3601	5	584	105
116	1	1	3672	6	581	105
117	1	1	3826	5	579	104
118	1	1	3646	4	578	105
119	1	1	3092	4	578	105
120	1	1	2623	4	581	105
121	1	1	2137	4	586	104
122	1	1	1660	3	583	105
123	1	1	1153	4	585	105
124	1	1	742	4	588	104
125	1	1	499	4	592	104
126	1	1	369	5	594	104
127	1	1	209	3	598	105
0	1	1	123	4	598	105
1	1	1	627	5	598	105
2	1	1	1193	5	597	105
3	1	1	1930	4	595	105
4	1	1	2640	5	591	105
5	1	1	3137	5	589	105
6	1	1	3470	5	587	105
7	1	1	3646	5	584	105
8	1	1	3710	5	581	105
9	1	1	3847	5	578	104
10	1	1	3676	4	579	105
11	1	1	3107	4	581	105
12	1	1	2633	4	580	105
13	1	1	2163	4	583	106
14	1	1	1703	3	584	104
15	1	1	1230	3	586	105
16	1	1	838	4	589	104
17	1	1	593	4	591	105
18	1	1	447	3	595	105
19	1	1	253	3	600	104
20	1	1	148	4	599	104
21	1	1	654	5	597	105
22	1	1	1200	5	596	105
23	1	1	1918	5	596	107
24	1	1	2613	5	591	104
25	1	1	3109	5	589	105
26	1	1	3434	5	587	105
27	1	1	3600	5	584	105
28	1	1	3660	6	583	104
29	1	1	3816	5	579	105
30	1	1	3672	4	580	105
31	1	1	3145	4	580	105
32	1	1	2704	4	580	105
33	1	1	2246	4	582	105
34	1	1	1789	4	584	105
35	1	1	1324	4	588	105
36	1	1	937	4	590	105
37	1	1	687	4	592	105
38	1	1	532	4	595	105
39	1	1	302	4	600	104
40	1	1	174	5	599	105
41	1	1	705	5	599	105
42	1	1	1261	5	597	105
43	1	1	1959	5	595	106
44	1	1	2624	5	593	105
45	1	1	3111	5	590	105
46	1	1	3430	5	587	105
47	1	1	3604	5	584	105
48	1	1	3668	5	582	105
49	1	1	3820	5	580	104
50	1	1	3637	4	581	105
51	1	1	3115	4	579	105
52	1	1	2652	4	581	105
53	1	1	2178	5	582	104
54	1	1	1725	4	586	105
55	1	1	1251	4	588	105
56	1	1	865	4	589	105
57	1	1	618	4	593	105
58	1	1	476	4	595	105
59	1	1	268	4	599	105
60	1	1	155	4	598	105
61	1	1	638	4	597	105
62	1	1	1191	5	598	104
63	1	1	1899	5	596	106
64	1	1	2593	4	593	104
65	1	1	3096	5	591	105
66	1	1	3422	5	588	105
67	1	1	3595	5	586	105
68	1	1	3651	5	583	105
69	1	1	3810	5	580	105
70	1	1	3628	4	580	105
71	1	1	3108	4	581	105
72	1	1	2651	4	580	105
73	1	1	2192	4	585	105
74	1	1	1745	4	585	104
75	1	1	1252	4	589	105
76	1	1	844	4	591	105
77	1	1	599	4	592	105
78	1	1	451	4	594	105
79	1	1	254	4	599	105
80	1	1	147	4	599	104
81	1	1	635	4	599	105
82	1	1	1183	5	598	105
83	1	1	1890	5	595	105
84	1	1	2583	5	594	105
85	1	1	3067	4	591	105
86	1	1	3385	5	589	105
87	1	1	3555	5	585	105
88	1	1	3595	5	585	105
89	1	1	3772	5	583	104
90	1	1	3579	4	581	104
91	1	1	3058	3	582	105
92	1	1	2606	4	582	105
93	1	1	2155	3	584	105
94	1	1	1717	4	586	104
95	1	1	1265	4	588	105
96	1	1	884	4	590	105
97	1	1	643	4	591	105
98	1	1	508	3	595	105
99	1	1	286	4	600	105
100	1	1	166	5	600	105
101	1	1	682	7	599	105
102	1	1	1225	5	598	105
103	1	1	1929	4	596	105
104	1	1	2613	5	593	105
105	1	1	3093	5	588	105
106	1	1	3402	5	588	104
107	1	1	3565	4	585	105
108	1	1	3623	5	585	105
109	1	1	3791	5	580	104
110	1	1	3636	4	581	105
111	1	1	3128	4	582	104
112	1	1	2693	4	583	104
113	1	1	2241	4	583	105
114	1	1	1789	4	585	105
115	1	1	1320	4	588	105
116	1	1	929	4	591	105
117	1	1	682	4	592	105
118	1	1	538	4	596	105
119	1	1	305	4	598	105
120	1	1	176	5	599	105
121	1	1	685	5	599	105
122	1	1	1219	4	597	105
123	1	1	1898	5	594	105
124	1	1	2564	5	593	105
125	1	1	3056	5	592	105
126	1	1	3385	5	589	105
127	1	1	3580	5	586	105
0	1	1	3663	5	583	105
1	1	1	3816	5	582	104
2	1	1	3678	4	580	105
3	1	1	3157	4	581	105
4	1	1	2708	3	581	105
5	1	1	2265	4	581	105
6	1	1	1820	4	586	105
7	1	1	1351	4	589	105
8	1	1	963	3	589	105
9	1	1	713	4	592	105
10	1	1	546	4	596	105
11	1	1	309	3	598	105
12	1	1	177	4	597	105
13	1	1	616	5	599	105
14	1	1	1151	5	597	105
15	1	1	1841	5	594	105
16	1	1	2520	5	592	104
17	1	1	3011	5	591	104
18	1	1	3336	5	589	105
19	1	1	3524	4	587	105
20	1	1	3599	4	584	105
21	1	1	3776	5	582	103
22	1	1	3609	4	580	105
23	1	1	3115	5	582	105
24	1	1	2666	4	581	105
25	1	1	2206	3	581	105
26	1	1	1757	4	586	104
27	1	1	1271	3	588	105
28	1	1	873	4	590	105
29	1	1	633	3	591	105
30	1	1	505	3	597	105
31	1	1	283	3	599	104
32	1	1	164	4	601	105
33	1	1	662	4	599	105
34	1	1	1205	4	597	105
35	1	1	1897	5	597	105
36	1	1	2570	5	594	105
37	1	1	3062	5	590	105
38	1	1	3384	5	588	105
39	1	1	3560	5	587	104
40	1	1	3632	5	584	105
41	1	1	3795	5	581	105
42	1	1	3644	4	584	105
43	1	1	3121	4	582	104
44	1	1	2660	4	584	105
45	1	1	2209	4	585	105
46	1	1	1786	3	587	105
47	1	1	1326	4	589	105
48	1	1	937	3	591	105
49	1	1	691	4	592	105
50	1	1	551	4	596	105
51	1	1	310	3	599	104
52	1	1	177	4	599	105
53	1	1	670	5	601	105
54	1	1	1208	4	598	105
55	1	1	1907	5	595	105
56	1	1	2587	5	595	105
57	1	1	3081	5	595	105
58	1	1	3392	5	590	105
59	1	1	3543	5	587	105
60	1	1	3575	5	586	105
61	1	1	3755	5	585	105
62	1	1	3591	4	583	105
63	1	1	3101	4	583	105
64	1	1	2659	4	584	105
65	1	1	2210	3	586	105
66	1	1	1773	4	588	105
67	1	1	1303	4	591	105
68	1	1	916	4	592	104
69	1	1	667	3	593	105
70	1	1	531	4	597	105
71	1	1	298	4	600	105
72	1	1	171	4	602	105
73	1	1	637	5	599	105
74	1	1	1176	4	599	105
75	1	1	1856	4	598	105
76	1	1	2522	4	598	105
77	1	1	3023	5	592	104
78	1	1	3356	5	591	105
79	1	1	3547	4	588	105
80	1	1	3622	5	587	105
81	1	1	3790	5	584	105
82	1	1	3665	4	585	105
83	1	1	3156	4	583	105
84	1	1	2696	3	584	105
85	1	1	2235	4	587	105
86	1	1	1780	4	588	105
87	1	1	1313	4	591	105
88	1	1	916	3	592	104
89	1	1	657	3	593	105
90	1	1	516	4	597	105
91	1	1	288	4	600	105
92	1	1	166	4	602	105
93	1	1	611	4	601	104
94	1	1	1147	4	599	105
95	1	1	1846	5	598	105
96	1	1	2543	4	594	105
97	1	1	3045	5	593	105
98	1	1	3378	5	589	105
99	1	1	3567	4	587	105
100	1	1	3640	5	585	105
101	1	1	3800	5	583	105
102	1	1	3665	4	584	104
103	1	1	3146	4	583	105
104	1	1	2684	5	584	104
105	1	1	2225	4	586	105
106	1	1	1771	4	587	105
107	1	1	1278	4	589	105
108	1	1	862	4	591	105
109	1	1	604	3	591	105
110	1	1	454	4	596	105
111	1	1	257	4	600	105
112	1	1	148	4	601	104
113	1	1	597	4	599	105
114	1	1	1143	5	600	104
115	1	1	1847	5	597	105
116	1	1	2546	5	595	105
117	1	1	3050	5	593	105
118	1	1	3384	5	589	105
119	1	1	3575	5	589	105
120	1	1	3644	5	584	105
121	1	1	3804	5	582	105
122	1	1	3667	4	581	104
123	1	1	3125	4	582	105
124	1	1	2655	3	585	105
125	1	1	2196	4	585	105
126	1	1	1753	4	587	105
127	1	1	1284	4	589	105
0	1	1	895	3	591	105
1	1	1	637	3	594	104
2	1	1	495	4	596	105
3	1	1	280	4	600	105
4	1	1	162	4	601	104
5	1	1	609	5	600	105
6	1	1	1161	4	600	105
7	1	1	1854	5	596	105
8	1	1	2563	5	596	105
9	1	1	3077	5	592	104
10	1	1	3409	5	590	105
11	1	1	3593	4	587	105
12	1	1	3634	5	585	106
13	1	1	3791	5	584	105
14	1	1	3651	4	583	105
15	1	1	3144	4	583	104
16	1	1	2693	4	583	105
17	1	1	2245	4	585	105
18	1	1	1795	4	588	105
19	1	1	1308	4	588	104
20	1	1	909	3	590	105
21	1	1	642	3	593	105
22	1	1	494	4	596	104
23	1	1	277	3	600	105
24	1	1	161	3	601	104
25	1	1	585	5	604	105
26	1	1	1130	5	599	105
27	1	1	1808	4	597	105
28	1	1	2504	5	595	105
29	1	1	3031	5	593	104
30	1	1	3370	5	590	104
31	1	1	3573	5	588	105
32	1	1	3643	5	585	105
33	1	1	3802	5	584	105
34	1	1	3703	4	584	105
35	1	1	3180	4	585	105
36	1	1	2723	4	584	105
37	1	1	2276	3	584	105
38	1	1	1826	4	587	105
39	1	1	1340	4	589	104
40	1	1	927	4	592	105
41	1	1	658	4	594	105
42	1	1	490	4	597	105
43	1	1	276	4	600	105
44	1	1	160	4	601	105
45	1	1	555	4	601	105
46	1	1	1110	5	600	105
47	1	1	1822	5	598	105
48	1	1	2527	5	594	105
49	1	1	3053	5	592	105
50	1	1	3400	5	592	105
51	1	1	3597	5	589	105
52	1	1	3677	5	585	105
53	1	1	3826	5	583	105
54	1	1	3752	4	583	105
55	1	1	3223	4	585	105
56	1	1	2745	4	586	105
57	1	1	2264	4	584	105
58	1	1	1808	4	587	105
59	1	1	1301	4	589	105
60	1	1	872	4	592	105
61	1	1	600	4	596	105
62	1	1	448	4	598	105
63	1	1	251	4	599	105
64	1	1	146	4	601	105
65	1	1	535	4	601	105
66	1	1	1098	4	601	104
67	1	1	1813	4	598	105
68	1	1	2517	5	595	104
69	1	1	3051	5	593	105
70	1	1	3403	5	592	105
71	1	1	3607	5	590	105
72	1	1	3691	5	586	105
73	1	1	3832	5	585	105
74	1	1	3765	4	584	105
75	1	1	3213	4	585	105
76	1	1	2721	4	585	105
77	1	1	2258	4	587	105
78	1	1	1805	4	589	104
79	1	1	1310	3	590	104
80	1	1	894	4	593	105
81	1	1	621	4	595	105
82	1	1	479	3	598	105
83	1	1	270	4	602	104
84	1	1	156	4	602	104
85	1	1	571	4	601	105
86	1	1	1129	4	601	105
87	1	1	1833	5	598	105
88	1	1	2545	4	596	105
89	1	1	3084	5	594	104
90	1	1	3426	5	592	105
91	1	1	3618	5	591	105
92	1	1	3687	4	588	105
93	1	1	3832	5	584	104
94	1	1	3796	4	585	105
95	1	1	3254	4	584	105
96	1	1	2769	4	585	105
97	1	1	2302	3	587	105
98	1	1	1837	3	589	105
99	1	1	1342	3	590	104
100	1	1	925	3	595	105
101	1	1	643	4	595	105
102	1	1	486	3	598	105
103	1	1	273	3	600	105
104	1	1	156	3	602	105
105	1	1	552	5	603	105
106	1	1	1104	6	602	104
107	1	1	1804	4	598	105
108	1	1	2512	5	597	106
109	1	1	3045	5	594	105
110	1	1	3404	5	592	105
111	1	1	3615	5	589	105
112	1	1	3700	5	586	105
113	1	1	3836	5	585	104
114	1	1	3789	4	586	105
115	1	1	3243	4	586	105
116	1	1	2760	4	586	105
117	1	1	2276	4	588	104
118	1	1	1804	4	590	104
119	1	1	1306	3	592	105
120	1	1	884	4	593	105
121	1	1	602	4	595	105
122	1	1	444	4	599	105
123	1	1	251	4	602	105
124	1	1	144	4	602	104
125	1	1	504	4	602	105
126	1	1	1061	4	601	104
127	1	1	1776	4	599	105
0	1	1	2508	5	596	104
1	1	1	3049	5	595	104
2	1	1	3411	5	593	105
3	1	1	3621	5	590	105
4	1	1	3704	5	589	104
5	1	1	3840	5	586	105
6	1	1	3792	4	585	105
7	1	1	3254	4	584	104
8	1	1	2776	4	586	105
9	1	1	2299	3	584	105
10	1	1	1820	3	590	105
11	1	1	1300	3	590	105
12	1	1	856	4	594	105
13	1	1	574	4	595	104
14	1	1	423	4	598	105
15	1	1	239	4	601	105
16	1	1	137	3	601	104
17	1	1	527	5	602	105
18	1	1	1089	4	602	105
19	1	1	1795	5	599	105
20	1	1	2523	5	597	104
21	1	1	3058	5	596	104
22	1	1	3412	5	593	105
23	1	1	3626	5	589	105
24	1	1	3697	5	589	105
25	1	1	3833	5	585	105
26	1	1	3773	4	584	105
27	1	1	3220	4	586	105
28	1	1	2725	5	587	105
29	1	1	2248	4	588	105
30	1	1	1795	4	589	105
31	1	1	1295	4	591	105
32	1	1	872	4	594	105
33	1	1	585	4	598	105
34	1	1	422	3	599	104
35	1	1	239	4	601	105
36	1	1	137	4	602	105
37	1	1	494	5	603	105
38	1	1	1059	4	604	105
39	1	1	1769	5	601	104
40	1	1	2515	4	597	105
41	1	1	3069	5	595	104
42	1	1	3429	5	593	105
43	1	1	3632	5	591	105
44	1	1	3712	5	589	104
45	1	1	3844	5	586	105
46	1	1	3848	4	585	105
47	1	1	3289	4	585	105
48	1	1	2789	4	587	105
49	1	1	2302	3	587	105
50	1	1	1823	4	590	105
51	1	1	1311	3	592	104
52	1	1	882	3	594	105
53	1	1	589	3	596	105
54	1	1	439	3	601	105
55	1	1	246	4	603	105
56	1	1	142	4	602	105
57	1	1	487	5	601	105
58	1	1	1047	4	603	105
59	1	1	1742	4	601	105
60	1	1	2475	5	598	105
61	1	1	3041	5	596	105
62	1	1	3416	5	594	105
63	1	1	3649	5	592	105
64	1	1	3744	5	590	105
65	1	1	3864	5	588	104
66	1	1	3884	4	585	105
67	1	1	3316	4	587	105
68	1	1	2806	4	588	105
69	1	1	2315	4	590	105
70	1	1	1820	3	591	105
71	1	1	1297	3	592	105
72	1	1	857	4	595	105
73	1	1	556	4	597	105
74	1	1	389	4	600	105
75	1	1	218	4	603	105
76	1	1	126	4	604	105
77	1	1	436	4	605	105
78	1	1	1011	5	602	105
79	1	1	1746	4	601	105
80	1	1	2493	5	599	105
81	1	1	3067	5	596	105
82	1	1	3447	5	594	105
83	1	1	3672	5	593	105
84	1	1	3762	3	591	105
85	1	1	3875	5	587	105
86	1	1	3905	4	587	105
87	1	1	3335	4	586	105
88	1	1	2819	3	588	106
89	1	1	2319	3	589	105
90	1	1	1824	4	591	105
91	1	1	1287	4	594	105
92	1	1	833	3	595	105
93	1	1	541	4	597	105
94	1	1	390	2	600	105
95	1	1	218	4	604	105
96	1	1	126	3	604	105
97	1	1	454	5	605	105
98	1	1	1038	5	603	105
99	1	1	1770	4	601	105
100	1	1	2532	4	600	105
101	1	1	3114	5	597	105
102	1	1	3489	5	594	105
103	1	1	3716	5	593	105
104	1	1	3798	4	589	105
105	1	1	3895	5	587	105
106	1	1	3914	4	586	105
107	1	1	3337	4	588	105
108	1	1	2812	4	589	104
109	1	1	2318	2	589	105
110	1	1	1845	4	591	105
111	1	1	1327	3	593	105
112	1	1	880	4	595	105
113	1	1	577	4	597	105
114	1	1	409	4	601	105
115	1	1	228	4	604	105
116	1	1	130	3	604	105
117	1	1	452	4	603	104
118	1	1	1035	5	605	105
119	1	1	1762	3	601	105
120	1	1	2526	5	599	105
121	1	1	3115	5	598	105
122	1	1	3493	5	594	104
123	1	1	3712	5	591	105
124	1	1	3789	5	590	105
125	1	1	3889	5	587	105
126	1	1	3939	4	586	105
127	1	1	3377	4	586	105
0	1	1	2845	4	588	104
1	1	1	2344	4	588	105
2	1	1	1862	4	591	105
3	1	1	1333	3	592	105
4	1	1	874	3	595	105
5	1	1	560	4	596	105
6	1	1	383	4	601	105
7	1	1	213	4	603	105
8	1	1	120	4	603	105
9	1	1	420	5	604	105
10	1	1	999	5	604	105
11	1	1	1725	5	602	104
12	1	1	2487	5	599	104
13	1	1	3083	5	596	105
14	1	1	3469	5	593	105
15	1	1	3707	5	591	104
16	1	1	3821	5	589	105
17	1	1	3907	4	586	105
18	1	1	3954	4	586	105
19	1	1	3403	4	586	105
20	1	1	2873	4	587	105
21	1	1	2370	4	588	105
22	1	1	1864	4	590	105
23	1	1	1331	4	591	106
24	1	1	872	4	594	105
25	1	1	557	4	599	105
26	1	1	379	4	599	105
27	1	1	210	3	603	105
28	1	1	119	4	602	105
29	1	1	377	4	604	105
30	1	1	961	5	603	105
31	1	1	1699	5	600	105
32	1	1	2483	5	599	105
33	1	1	3080	5	595	105
34	1	1	3468	5	593	105
35	1	1	3705	5	590	104
36	1	1	3834	5	590	105
37	1	1	3913	5	587	105
38	1	1	3956	4	586	105
39	1	1	3391	4	587	105
40	1	1	2865	4	587	105
41	1	1	2358	4	590	105
42	1	1	1841	4	591	105
43	1	1	1278	4	593	104
44	1	1	798	3	596	105
45	1	1	484	4	597	105
46	1	1	323	3	598	105
47	1	1	179	4	604	106
48	1	1	101	4	604	105
49	1	1	382	5	603	104
50	1	1	978	4	603	104
51	1	1	1736	5	601	105
52	1	1	2532	4	598	105
53	1	1	3130	5	597	105
54	1	1	3501	5	593	104
55	1	1	3725	5	592	105
56	1	1	3853	5	589	105
57	1	1	3923	5	587	106
58	1	1	3960	4	586	105
59	1	1	3399	4	586	105
60	1	1	2857	3	587	105
61	1	1	2350	4	587	105
62	1	1	1846	3	590	105
63	1	1	1299	3	592	106
64	1	1	838	4	594	105
65	1	1	512	3	598	104
66	1	1	342	3	601	105
67	1	1	189	3	603	105
68	1	1	106	4	604	105
69	1	1	375	5	604	105
70	1	1	961	5	602	105
71	1	1	1705	5	601	105
72	1	1	2510	4	599	106
73	1	1	3121	4	598	105
74	1	1	3497	5	596	105
75	1	1	3720	5	592	105
76	1	1	3850	5	590	105
77	1	1	3921	5	587	107
78	1	1	3958	5	586	104
79	1	1	3428	4	587	105
80	1	1	2887	4	587	104
81	1	1	2376	4	588	105
82	1	1	1856	3	590	105
83	1	1	1298	4	594	105
84	1	1	830	4	595	105
85	1	1	498	4	597	105
86	1	1	317	3	602	105
87	1	1	173	4	603	104
88	1	1	98	4	604	105
89	1	1	346	4	609	105
90	1	1	939	5	604	105
91	1	1	1671	5	601	105
92	1	1	2484	5	598	105
93	1	1	3114	5	597	104
94	1	1	3492	5	595	105
95	1	1	3719	5	592	103
96	1	1	3849	4	590	105
97	1	1	3919	5	588	105
98	1	1	3957	5	586	105
99	1	1	3473	4	587	105
100	1	1	2937	4	587	105
101	1	1	2421	4	589	105
102	1	1	1909	4	591	105
103	1	1	1353	4	592	104
104	1	1	868	4	597	105
105	1	1	523	3	596	104
106	1	1	328	4	601	105
107	1	1	179	3	603	105
108	1	1	99	4	604	105
109	1	1	331	4	604	105
110	1	1	938	4	604	104
111	1	1	1689	5	600	105
112	1	1	2518	4	597	105
113	1	1	3136	5	596	105
114	1	1	3505	5	595	105
115	1	1	3725	5	592	105
116	1	1	3851	5	589	104
117	1	1	3920	5	588	106
118	1	1	3957	5	587	105
119	1	1	3500	4	587	105
120	1	1	2951	5	588	105
121	1	1	2412	4	587	105
122	1	1	1878	3	591	105
123	1	1	1288	4	594	106
124	1	1	789	3	595	105
125	1	1	456	4	597	104
126	1	1	293	3	601	105
127	1	1	158	3	604	105
0	1	1	88	3	604	105
1	1	1	322	5	604	105
2	1	1	927	5	603	105
3	1	1	1695	5	601	105
4	1	1	2512	4	597	105
5	1	1	3132	5	596	105
6	1	1	3505	5	594	105
7	1	1	3725	4	592	105
8	1	1	3849	5	590	105
9	1	1	3919	5	587	104
10	1	1	3955	5	586	105
11	1	1	3484	4	587	105
12	1	1	2928	4	586	104
13	1	1	2403	4	590	105
14	1	1	1880	4	591	105
15	1	1	1313	4	592	105
16	1	1	821	4	594	104
17	1	1	470	3	596	105
18	1	1	285	4	600	105
19	1	1	153	4	602	104
20	1	1	84	4	604	106
21	1	1	304	5	603	105
22	1	1	912	4	604	105
23	1	1	1671	5	601	105
24	1	1	2499	5	597	105
25	1	1	3124	5	596	105
26	1	1	3499	5	593	105
27	1	1	3718	5	591	105
28	1	1	3847	4	590	105
29	1	1	3917	5	587	105
30	1	1	3955	5	586	105
31	1	1	3529	4	587	105
32	1	1	2964	4	586	105
33	1	1	2423	4	587	106
34	1	1	1885	3	589	105
35	1	1	1294	3	593	105
36	1	1	786	4	595	105
37	1	1	434	4	596	104
38	1	1	242	3	599	105
39	1	1	129	3	602	105
40	1	1	70	3	604	105
41	1	1	251	5	603	105
42	1	1	850	5	602	104
43	1	1	1613	6	601	105
44	1	1	2439	4	597	105
45	1	1	3086	5	597	104
46	1	1	3476	5	594	104
47	1	1	3707	5	592	105
48	1	1	3839	6	589	105
49	1	1	3914	5	587	105
50	1	1	3951	5	588	105
51	1	1	3531	4	587	105
52	1	1	2975	4	586	105
53	1	1	2442	4	587	105
54	1	1	1893	3	590	104
55	1	1	1303	3	592	105
56	1	1	788	4	595	105
57	1	1	436	3	597	105
58	1	1	238	5	600	105
59	1	1	128	3	603	106
60	1	1	69	4	603	104
61	1	1	225	4	603	105
62	1	1	828	4	604	105
63	1	1	1603	5	600	105
64	1	1	2467	5	599	105
65	1	1	3100	5	596	104
66	1	1	3485	5	594	105
67	1	1	3712	5	592	105
68	1	1	3842	5	590	105
69	1	1	3915	4	588	105
70	1	1	3953	5	586	105
71	1	1	3543	4	587	105
72	1	1	2983	4	588	105
73	1	1	2446	4	587	105
74	1	1	1896	4	592	105
75	1	1	1296	4	591	104
76	1	1	769	3	594	105
77	1	1	425	4	596	104
78	1	1	230	4	600	105
79	1	1	124	3	603	105
80	1	1	67	4	605	104
81	1	1	222	5	603	105
82	1	1	832	5	604	105
83	1	0	1616	4	602	105
84	1	0	2486	4	599	105
85	1	0	3112	5	596	104
86	1	0	3492	5	594	105
87	1	0	3716	5	592	104
88	1	0	3846	5	590	105
89	1	0	3916	5	587	105
90	1	0	3953	5	588	105
91	1	0	3531	4	587	105
92	1	0	2972	4	587	105
93	1	0	2439	5	589	105
94	1	0	1888	3	590	105
95	1	0	1296	3	593	104
96	1	0	773	3	595	105
97	1	0	428	5	596	105
98	1	0	231	5	600	105
99	1	0	123	4	603	105
100	1	0	68	4	605	105
101	1	0	198	4	605	105
102	1	0	802	4	603	105
103	1	0	1588	5	602	105
104	1	0	2462	5	598	105
105	1	0	3096	5	597	104
106	1	0	3483	5	595	105
107	1	0	3713	4	593	105
108	1	0	3843	6	591	105
109	1	0	3915	5	588	105
110	0	0	3952	5	586	104
111	0	0	3572	4	589	105
112	0	0	3008	4	589	105
113	0	0	2473	3	591	105
114	0	0	1922	4	592	105
115	0	0	1309	3	593	104
116	0	0	779	4	596	105
117	0	0	434	4	599	105
118	0	0	235	4	599	104
119	0	0	126	4	605	105
120	0	0	69	4	606	104
121	0	0	185	5	605	105
122	0	0	791	5	605	104
123	0	0	1572	5	602	105
124	0	0	2439	4	600	105
125	0	0	3091	5	597	105
126	0	0	3479	5	595	105
127	0	0	3707	4	593	105
0	0	0	3840	5	590	105
1	0	0	3914	5	588	105
2	0	0	3952	5	587	104
3	0	0	3628	4	588	104
4	0	0	3056	3	587	105
5	0	0	2479	4	589	105
6	0	0	1920	3	591	105
7	0	0	1301	4	593	104
8	0	0	772	3	595	105
9	0	0	428	4	597	105
10	0	0	233	4	601	104
11	0	0	123	4	602	104
12	0	0	68	4	604	104
13	0	0	153	4	604	104
14	0	0	760	4	604	105
15	0	0	1534	5	601	105
16	0	0	2415	5	598	105
17	0	0	3074	5	596	104
18	0	0	3470	5	594	105
19	0	0	3704	5	592	105
20	0	0	3838	5	589	105
21	0	0	3913	5	587	105
22	0	0	3953	5	588	104
23	0	0	3640	4	586	105
24	0	0	3067	4	587	105
25	0	0	2515	4	587	105
26	0	0	1928	3	591	105
27	0	0	1281	3	591	103
28	0	0	737	4	595	105
29	0	0	406	3	595	104
30	0	0	222	4	600	105
31	0	0	119	4	602	105
32	0	0	64	4	605	104
33	0	0	134	5	604	105
34	0	0	748	5	602	105
35	0	0	1551	5	601	105
36	0	0	2451	5	598	105
37	0	0	3091	5	597	103
38	0	0	3480	5	593	105
39	0	0	3711	4	591	105
40	0	0	3841	5	589	105
41	0	0	3915	5	585	105
42	0	0	3956	5	586	105
43	0	0	3623	4	586	105
44	0	0	3041	4	586	105
45	0	0	2476	4	588	105
46	0	0	1895	3	590	105
47	0	0	1269	4	591	104
48	0	0	738	4	594	105
49	0	0	408	4	596	105
50	0	0	221	4	600	104
51	0	0	119	4	601	105
52	0	0	65	4	603	103
53	0	0	127	5	602	104
54	0	0	732	5	603	105
55	0	0	1518	5	599	105
56	0	0	2426	4	598	105
57	0	0	3077	5	595	104
58	0	0	3473	4	595	105
59	0	0	3707	5	591	105
60	0	0	3840	5	589	105
61	0	0	3915	5	587	105
62	0	0	3952	5	585	103
63	0	0	3665	4	585	105
64	0	0	3095	4	586	106
65	0	0	2530	4	588	106
66	0	0	1958	4	589	105
67	0	0	1316	3	591	104
68	0	0	771	4	594	105
69	0	0	427	4	597	105
70	0	0	232	4	599	105
71	0	0	125	4	603	105
72	0	0	69	4	603	103
73	0	0	96	5	602	105
74	0	0	687	5	603	105
75	0	0	1486	5	600	104
76	0	0	2399	5	598	105
77	0	0	3059	5	595	104
78	0	0	3462	5	593	105
79	0	0	3701	5	592	105
80	0	0	3837	5	588	105
81	0	0	3912	5	586	105
82	0	0	3953	5	585	104
83	0	0	3667	4	586	105
84	0	0	3088	4	587	105
85	0	0	2529	4	589	104
86	0	0	1943	4	590	105
87	0	0	1298	3	592	105
88	0	0	757	3	594	105
89	0	0	418	4	594	105
90	0	0	228	4	598	105
91	0	0	123	4	603	105
92	0	0	68	4	602	105
93	0	0	72	5	602	104
94	0	0	670	5	604	105
95	0	0	1468	5	601	105
96	0	0	2401	5	597	105
97	0	0	3068	5	596	105
98	0	0	3464	5	593	105
99	0	0	3702	5	591	104
100	0	0	3839	5	589	105
101	0	0	3913	5	587	105
102	0	0	3953	5	586	105
103	0	0	3683	3	586	105
104	0	0	3093	4	584	106
105	0	0	2531	4	588	105
106	0	0	1934	4	589	104
107	0	0	1265	4	592	104
108	0	0	727	3	593	104
109	0	0	403	3	596	105
110	0	0	218	4	597	105
111	0	0	118	4	602	105
112	0	0	66	4	602	104
113	0	0	76	4	604	105
114	0	0	682	5	605	105
115	0	0	1489	5	600	105
116	0	0	2421	5	599	105
117	0	0	3080	5	596	104
118	0	0	3471	5	593	105
119	0	0	3707	5	592	105
120	0	0	3842	5	590	105
121	0	0	3916	5	587	105
122	0	0	3955	5	586	105
123	0	0	3691	4	586	104
124	0	0	3094	4	590	105
125	0	0	2530	4	587	105
126	0	0	1940	4	590	105
127	0	0	1285	4	592	104
0	0	0	743	3	595	105
1	0	0	414	4	597	105
2	0	0	226	4	598	105
3	0	0	122	4	602	105
4	0	0	68	4	603	104
5	0	0	92	4	603	105
6	0	0	698	5	602	105
7	0	0	1492	5	601	105
8	0	0	2398	4	599	105
9	0	0	3067	5	596	105
10	0	0	3467	5	593	105
11	0	0	3701	5	591	104
12	0	0	3839	5	589	104
13	0	0	3917	5	587	105
14	0	0	3955	5	586	104
15	0	0	3691	3	587	105
16	0	0	3129	4	586	105
17	0	0	2585	4	589	105
18	0	0	2020	3	590	105
19	0	0	1372	4	592	104
20	0	0	807	3	594	105
21	0	0	453	4	597	105
22	0	0	247	5	598	105
23	0	0	134	4	602	105
24	0	0	74	4	603	104
25	0	0	87	4	605	105
26	0	0	662	5	601	105
27	0	0	1426	6	599	105
28	0	0	2323	5	598	104
29	0	0	3020	5	596	105
30	0	0	3440	4	593	105
31	0	0	3686	5	592	105
32	0	0	3831	5	590	105
33	0	0	3910	5	588	105
34	0	0	3955	5	586	105
35	0	0	3710	4	587	105
36	0	0	3142	4	586	104
37	0	0	2582	4	586	105
38	0	0	2023	4	590	105
39	0	0	1385	3	590	105
40	0	0	815	4	594	105
41	0	0	453	4	595	105
42	0	0	249	4	599	105
43	0	0	134	4	601	105
44	0	0	75	4	603	105
45	0	0	70	4	603	105
46	0	0	652	5	602	105
47	0	0	1439	4	600	105
48	0	0	2360	6	597	105
49	0	0	3044	5	595	105
50	0	0	3455	5	593	105
51	0	0	3697	5	593	105
52	0	0	3835	5	590	105
53	0	0	3912	5	587	105
54	0	0	3953	5	586	105
55	0	0	3708	3	587	105
56	0	0	3148	4	587	105
57	0	0	2591	5	587	105
58	0	0	1998	3	590	105
59	0	0	1333	3	592	105
60	0	0	772	3	595	105
61	0	0	428	5	597	104
62	0	0	235	4	598	106
63	0	0	128	4	600	104
64	0	0	70	4	603	105
65	0	0	66	4	603	105
66	0	0	645	4	603	105
67	0	0	1418	5	601	105
68	0	0	2352	4	598	105
69	0	0	3032	5	596	105
70	0	0	3447	4	594	105
71	0	0	3693	5	592	104
72	0	0	3833	5	589	104
73	0	0	3911	6	587	105
74	0	0	3954	5	587	105
75	0	0	3657	4	587	105
76	0	0	3100	4	587	105
77	0	0	2563	5	588	104
78	0	0	2006	4	589	105
79	0	0	1377	4	591	105
80	0	0	815	3	594	105
81	0	0	454	3	598	105
82	0	0	247	3	599	105
83	0	0	136	4	601	105
84	0	0	75	4	602	105
85	0	0	81	3	603	105
86	0	0	657	5	604	106
87	0	0	1426	5	601	105
88	0	0	2343	5	598	105
89	0	0	3025	5	596	104
90	0	0	3443	5	593	105
91	0	0	3690	5	591	105
92	0	0	3833	5	590	104
93	0	0	3911	4	586	105
94	0	0	3953	5	586	105
95	0	0	3674	4	587	104
96	0	0	3122	4	587	105
97	0	0	2588	4	588	104
98	0	0	2029	4	589	105
99	0	0	1384	3	593	104
100	0	0	823	4	594	105
101	0	0	458	4	597	104
102	0	0	251	4	598	105
103	0	0	138	5	601	105
104	0	0	77	3	603	105
105	0	0	70	5	603	105
106	0	0	626	4	603	105
107	0	0	1365	4	598	106
108	0	0	2275	5	598	105
109	0	0	2989	5	597	105
110	0	0	3418	4	593	106
111	0	0	3676	5	591	105
112	0	0	3826	5	590	105
113	0	0	3907	5	588	105
114	0	0	3951	5	587	105
115	0	0	3687	3	587	105
116	0	0	3129	5	587	105
117	0	0	2604	4	587	105
118	0	0	2045	4	590	105
119	0	0	1407	4	592	105
120	0	0	841	3	595	105
121	0	0	469	4	596	105
122	0	0	257	4	596	106
123	0	0	140	4	600	105
124	0	0	78	4	604	105
125	0	0	63	4	603	105
126	0	0	630	5	604	104
127	0	0	1388	4	601	105
0	0	0	2303	5	597	105
1	0	0	3007	5	596	105
2	0	0	3429	5	594	105
3	0	0	3682	5	593	105
4	0	0	3828	5	588	106
5	0	0	3910	5	587	105
6	0	0	3954	5	587	104
7	0	0	3691	4	588	105
8	0	0	3145	3	586	106
9	0	0	2636	4	589	104
10	0	0	2070	3	589	105
11	0	0	1412	4	591	105
12	0	0	833	4	595	105
13	0	0	467	4	597	105
14	0	0	256	4	596	105
15	0	0	140	3	601	105
16	0	0	78	4	603	105
17	0	0	72	5	602	105
18	0	0	646	5	603	105
19	0	0	1409	5	600	105
20	0	0	2312	5	598	105
21	0	0	3014	5	596	105
22	0	0	3436	4	595	105
23	0	0	3686	5	592	105
24	0	0	3829	5	590	104
25	0	0	3910	4	588	105
26	0	0	3953	5	586	105
27	0	0	3665	4	586	105
28	0	0	3113	4	587	105
29	0	0	2600	4	588	104
30	0	0	2070	3	589	104
31	0	0	1442	4	592	105
32	0	0	867	4	593	105
33	0	0	487	3	596	105
34	0	0	268	4	597	104
35	0	0	146	3	601	105
36	0	0	81	4	602	105
37	0	0	72	5	603	105
38	0	0	648	5	602	105
39	0	0	1402	5	600	105
40	0	0	2304	4	598	104
41	0	0	3009	5	597	105
42	0	0	3430	5	594	105
43	0	0	3684	5	591	105
44	0	0	3830	5	589	105
45	0	0	3910	4	587	105
46	0	0	3953	5	587	105
47	0	0	3685	4	586	105
48	0	0	3137	4	587	105
49	0	0	2613	4	587	105
50	0	0	2066	4	591	105
51	0	0	1432	4	592	105
52	0	0	866	4	594	105
53	0	0	483	4	595	105
54	0	0	265	4	598	105
55	0	0	144	3	602	105
56	0	0	81	4	604	105
57	0	0	76	5	603	105
58	0	0	630	5	603	105
59	0	0	1341	5	600	105
60	0	0	2241	4	599	105
61	0	0	2968	5	596	105
62	0	0	3409	5	593	105
63	0	0	3669	5	591	105
64	0	0	3821	5	590	105
65	0	0	3904	5	589	104
66	0	0	3950	5	587	105
67	0	0	3695	4	587	105
68	0	0	3147	4	585	106
69	0	0	2631	3	588	105
70	0	0	2086	4	590	105
71	0	0	1438	4	592	105
72	0	0	859	4	595	105
73	0	0	483	3	597	105
74	0	0	265	4	598	105
75	0	0	145	3	602	105
76	0	0	81	4	603	105
77	0	0	48	5	602	105
78	0	0	609	5	602	105
79	0	0	1362	5	601	105
80	0	0	2262	5	598	105
81	0	0	2982	4	596	105
82	0	0	3417	5	595	105
83	0	0	3673	4	593	105
84	0	0	3823	5	591	105
85	0	0	3906	4	588	105
86	0	0	3952	5	589	105
87	0	0	3698	4	589	105
88	0	0	3150	3	587	105
89	0	0	2637	4	587	105
90	0	0	2083	4	590	105
91	0	0	1429	4	592	105
92	0	0	844	4	595	104
93	0	0	474	3	595	105
94	0	0	260	4	599	104
95	0	0	141	3	602	105
96	0	0	79	3	604	105
97	0	0	47	4	604	105
98	0	0	605	4	602	105
99	0	0	1338	5	603	105
100	0	0	2239	4	600	105
101	0	0	2966	4	596	105
102	0	0	3409	5	595	105
103	0	0	3672	5	592	105
104	0	0	3821	5	589	105
105	0	0	3907	5	590	104
106	0	0	3952	5	587	105
107	0	0	3686	3	586	105
108	0	0	3126	3	588	104
109	0	0	2622	3	589	104
110	0	0	2085	3	591	105
111	0	0	1442	4	592	105
112	0	0	861	4	595	105
113	0	0	481	3	597	105
114	0	0	266	3	599	105
115	0	0	145	4	603	105
116	0	0	81	4	604	105
117	0	0	48	5	604	105
118	0	0	598	5	604	105
119	0	0	1339	5	601	105
120	0	0	2252	5	599	105
121	0	0	2968	5	598	105
122	0	0	3409	5	594	105
123	0	0	3671	4	591	105
124	0	0	3822	5	591	105
125	0	0	3906	5	589	105
126	0	0	3952	5	588	105
127	0	0	3703	4	588	104
0	0	0	3166	4	588	104
1	0	0	2653	4	590	105
2	0	0	2105	4	591	105
3	0	0	1478	4	594	105
4	0	0	888	4	595	105
5	0	0	497	4	597	105
6	0	0	275	3	600	105
7	0	0	150	4	603	105
8	0	0	84	4	604	105
9	0	0	50	5	604	105
10	0	0	577	5	605	104
11	0	0	1308	4	602	105
12	0	0	2228	4	601	105
13	0	0	2957	5	597	105
14	0	0	3403	5	595	105
15	0	0	3667	5	593	105
16	0	0	3822	5	591	104
17	0	0	3905	5	589	105
18	0	0	3951	5	587	105
19	0	0	3716	4	588	105
20	0	0	3177	4	588	105
21	0	0	2669	3	589	105
22	0	0	2122	3	590	105
23	0	0	1488	4	592	105
24	0	0	892	4	595	104
25	0	0	499	3	598	104
26	0	0	274	4	599	105
27	0	0	151	2	602	105
28	0	0	84	4	604	105
29	0	0	51	4	603	105
30	0	0	564	4	604	105
31	0	0	1301	5	601	105
32	0	0	2231	3	599	105
33	0	0	2964	5	597	105
34	0	0	3404	6	594	105
35	0	0	3668	5	593	105
36	0	0	3821	5	592	105
37	0	0	3905	4	588	105
38	0	0	3952	5	587	105
39	0	0	3712	4	588	105
40	0	0	3156	3	590	105
41	0	0	2660	3	588	105
42	0	0	2089	3	590	105
43	0	0	1425	4	594	105
44	0	0	841	4	595	105
45	0	0	470	5	596	104
46	0	0	258	4	601	105
47	0	0	142	4	604	105
48	0	0	80	4	604	105
49	0	0	48	4	603	105
50	0	0	569	5	604	105
51	0	0	1302	5	604	105
52	0	0	2236	4	600	105
53	0	0	2966	5	597	104
54	0	0	3405	5	596	105
55	0	0	3670	5	593	104
56	0	0	3822	5	592	105
57	0	0	3906	5	588	105
58	0	0	3952	5	588	105
59	0	0	3695	4	588	105
60	0	0	3137	4	588	105
61	0	0	2630	4	588	105
62	0	0	2078	2	593	105
63	0	0	1430	4	592	106
64	0	0	850	4	595	105
65	0	0	475	4	597	105
66	0	0	261	4	599	105
67	0	0	143	3	604	105
68	0	0	81	4	605	105
69	0	0	48	4	605	105
70	0	0	565	5	604	105
71	0	0	1286	4	601	105
72	0	0	2234	4	601	105
73	0	0	2967	5	596	105
74	0	0	3411	6	597	105
75	0	0	3672	5	594	105
76	0	0	3824	5	591	105
77	0	0	3907	4	590	105
78	0	0	3954	5	587	105
79	0	0	3761	4	589	105
80	0	0	3197	4	588	105
81	0	0	2652	4	590	105
82	0	0	2075	4	591	105
83	0	0	1390	4	593	104
84	0	0	799	3	597	105
85	0	0	449	4	598	104
86	0	0	247	4	601	104
87	0	0	136	3	604	105
88	0	0	78	3	605	105
89	0	0	48	5	605	104
90	0	0	467	4	606	105
91	0	0	1229	5	604	105
92	0	0	2218	5	601	105
93	0	0	2961	5	598	105
94	0	0	3407	6	595	104
95	0	0	3670	5	592	105
96	0	0	3823	5	589	105
97	0	0	3909	4	589	104
98	0	0	3953	5	587	105
99	0	0	3878	4	587	105
100	0	0	3304	4	589	105
101	0	0	2733	4	588	105
102	0	0	2114	4	590	105
103	0	0	1379	4	594	105
104	0	0	783	4	595	105
105	0	0	440	4	597	105
106	0	0	242	4	601	105
107	0	0	134	4	606	105
108	0	0	76	4	606	104
109	0	0	47	4	606	105
110	0	0	419	5	605	104
111	0	0	1206	5	602	104
112	0	0	2233	5	600	105
113	0	0	2971	5	598	105
114	0	0	3414	5	596	104
115	0	0	3675	5	593	105
116	0	0	3827	5	592	105
117	0	0	3910	5	587	105
118	0	0	3957	5	587	105
119	0	0	3874	4	587	105
120	0	0	3288	4	588	105
121	0	0	2713	4	589	105
122	0	0	2090	3	591	105
123	0	0	1352	4	591	105
124	0	0	767	3	597	105
125	0	0	427	4	597	104
126	0	0	238	4	600	105
127	0	0	131	4	605	105
0	0	0	75	4	606	105
1	0	0	48	4	607	105
2	0	0	427	4	606	105
3	0	0	1228	4	603	105
4	0	0	2270	5	600	105
5	0	0	2987	5	599	105
6	0	0	3423	5	594	105
7	0	0	3682	5	592	106
8	0	0	3829	5	592	104
9	0	0	3913	5	589	104
10	0	0	3958	5	588	105
11	0	0	3838	4	586	105
12	0	0	3247	4	589	105
13	0	0	2697	4	589	105
14	0	0	2092	4	590	104
15	0	0	1363	4	594	105
16	0	0	775	4	596	105
17	0	0	433	4	598	105
18	0	0	241	4	601	104
19	0	0	134	4	605	105
20	0	0	78	4	607	105
21	0	0	49	4	608	105
22	0	0	427	5	607	105
23	0	0	1211	4	604	104
24	0	0	2247	5	601	105
25	0	0	2974	5	601	105
26	0	0	3417	6	597	104
27	0	0	3677	5	593	105
28	0	0	3829	5	591	104
29	0	0	3912	5	589	105
30	0	0	3960	5	588	105
31	0	0	3864	4	585	105
32	0	0	3290	4	587	106
33	0	0	2735	4	589	104
34	0	0	2117	4	591	105
35	0	0	1388	4	592	105
36	0	0	790	3	595	105
37	0	0	442	4	598	105
38	0	0	247	4	602	105
39	0	0	137	4	604	105
40	0	0	79	4	607	105
41	0	0	51	4	606	105
42	0	0	417	5	606	105
43	0	0	1191	4	605	105
44	0	0	2223	4	601	105
45	0	0	2959	5	598	105
46	0	0	3408	5	596	105
47	0	0	3675	5	593	106
48	0	0	3828	5	590	105
49	0	0	3913	5	588	105
50	0	0	3959	5	585	105
51	0	0	3877	4	585	105
52	0	0	3298	3	587	105
53	0	0	2742	4	589	104
54	0	0	2125	4	590	105
55	0	0	1400	4	592	104
56	0	0	797	4	597	105
57	0	0	446	4	597	105
58	0	0	248	4	602	105
59	0	0	139	4	606	105
60	0	0	81	4	607	105
61	0	0	52	4	607	105
62	0	0	431	5	605	105
63	0	0	1215	4	604	105
64	0	0	2242	5	602	105
65	0	0	2977	5	599	105
66	0	0	3415	5	595	105
67	0	0	3678	5	593	105
68	0	0	3830	5	590	105
69	0	0	3914	5	589	105
70	0	0	3961	5	588	105
71	0	0	3878	4	587	105
72	0	0	3291	4	587	105
73	0	0	2753	4	590	105
74	0	0	2121	4	590	105
75	0	0	1378	3	593	105
76	0	0	789	3	595	105
77	0	0	441	5	598	104
78	0	0	246	4	601	105
79	0	0	138	4	604	105
80	0	0	80	4	607	105
81	0	0	52	4	607	105
82	0	0	438	4	607	105
83	0	0	1199	4	603	105
84	0	0	2229	5	602	105
85	0	0	2970	5	598	105
86	0	0	3410	5	595	105
87	0	0	3676	4	593	105
88	0	0	3830	5	591	105
89	0	0	3914	5	590	105
90	0	0	3960	5	587	105
91	0	0	3860	4	587	104
92	0	0	3264	3	587	105
93	0	0	2723	3	587	105
94	0	0	2110	3	592	105
95	0	0	1395	4	593	105
96	0	0	802	3	595	105
97	0	0	449	3	600	105
98	0	0	250	4	601	105
99	0	0	141	4	605	105
100	0	0	83	4	608	105
101	0	0	53	3	608	105
102	0	0	438	5	607	105
103	0	0	1196	4	605	105
104	0	0	2232	5	602	105
105	0	0	2974	5	600	105
106	0	0	3417	6	595	105
107	0	0	3677	5	592	105
108	0	0	3830	5	591	105
109	0	0	3915	5	590	105
110	0	0	3961	5	587	105
111	0	0	3870	4	587	105
112	0	0	3279	3	587	105
113	0	0	2717	4	590	104
114	0	0	2114	4	592	105
115	0	0	1386	4	593	105
116	0	0	790	4	597	105
117	0	0	446	3	600	105
118	0	0	249	4	600	105
119	0	0	140	4	604	105
120	0	0	83	5	609	105
121	0	0	53	4	606	105
122	0	0	419	4	607	105
123	0	0	1181	4	604	105
124	0	0	2204	5	602	104
125	0	0	2956	5	599	105
126	0	0	3407	5	596	105
127	0	0	3671	4	594	105
0	0	0	3828	5	592	105
1	0	0	3915	5	588	105
2	0	0	3961	5	587	105
3	0	0	3883	4	588	105
4	0	0	3295	4	587	105
5	0	0	2737	3	588	105
6	0	0	2116	4	592	105
7	0	0	1377	4	594	105
8	0	0	784	4	597	105
9	0	0	444	3	599	105
10	0	0	248	4	602	105
11	0	0	139	4	607	105
12	0	0	83	4	608	105
13	0	0	54	4	608	105
14	0	0	402	5	608	105
15	0	0	1170	5	606	105
16	0	0	2201	5	603	105
17	0	0	2954	5	599	105
18	0	0	3406	5	596	104
19	0	0	3672	5	595	105
20	0	0	3830	5	592	105
21	0	0	3915	5	590	104
22	0	0	3964	5	587	105
23	0	0	3906	4	587	105
24	0	0	3317	4	587	105
25	0	0	2759	4	589	105
26	0	0	2114	4	589	105
27	0	0	1351	4	593	105
28	0	0	768	4	596	104
29	0	0	435	4	599	105
30	0	0	243	4	602	103
31	0	0	138	4	609	105
32	0	0	82	4	609	105
33	0	0	55	4	609	105
34	0	0	323	4	610	105
35	0	0	1118	5	607	104
36	0	0	2152	5	599	105
37	0	0	2910	5	600	105
38	0	0	3380	4	598	105
39	0	0	3660	5	594	104
40	0	0	3820	5	590	104
41	0	0	3912	5	586	105
42	0	0	3961	5	586	105
43	0	0	3736	4	587	105
44	0	0	3072	4	586	105
45	0	0	2476	4	588	105
46	0	0	1815	4	590	105
47	0	0	1090	4	594	105
48	0	0	621	4	596	105
49	0	0	348	4	600	105
50	0	0	199	4	602	104
51	0	0	116	4	606	105
52	0	0	73	4	608	105
53	0	0	53	4	610	105
54	0	0	330	4	609	105
55	0	0	1180	5	607	105
56	0	0	2296	5	604	105
57	0	0	3007	5	601	105
58	0	0	3440	5	597	105
59	0	0	3699	5	594	105
60	0	0	3847	5	591	105
61	0	0	3928	5	586	105
62	0	0	3976	5	587	105
63	0	0	3996	5	586	104
64	0	0	3622	4	586	105
65	0	0	3064	4	588	104
66	0	0	2417	4	590	105
67	0	0	1669	4	593	105
68	0	0	975	4	593	105
69	0	0	554	3	599	105
70	0	0	314	4	601	105
71	0	0	178	4	608	105
72	0	0	105	4	608	104
73	0	0	68	4	608	105
74	0	0	442	4	609	105
75	0	0	1233	4	606	104
76	0	0	2304	4	602	105
77	0	0	3009	5	599	105
78	0	0	3440	5	596	105
79	0	0	3696	5	593	105
80	0	0	3843	5	589	104
81	0	0	3923	5	589	105
82	0	0	3967	5	586	105
83	0	0	3975	4	585	105
84	0	0	3410	3	586	105
85	0	0	2826	4	587	104
86	0	0	2184	4	587	105
87	0	0	1455	4	591	104
88	0	0	832	4	594	105
89	0	0	468	3	598	105
90	0	0	261	4	601	104
91	0	0	149	4	604	105
92	0	0	88	4	606	105
93	0	0	58	3	607	105
94	0	0	438	5	607	105
95	0	0	1225	5	605	105
96	0	0	2284	5	600	105
97	0	0	3003	5	599	105
98	0	0	3432	5	594	105
99	0	0	3689	5	591	105
100	0	0	3839	4	590	105
101	0	0	3920	5	587	105
102	0	0	3965	5	584	105
103	0	0	3931	4	584	105
104	0	0	3337	4	583	105
105	0	0	2787	4	587	105
106	0	0	2136	4	589	105
107	0	0	1390	4	591	105
108	0	0	797	4	593	105
109	0	0	448	4	596	105
110	0	0	250	4	600	105
111	0	0	142	4	605	105
112	0	0	83	4	607	105
113	0	0	55	4	607	105
114	0	0	336	4	605	105
115	0	0	1090	4	605	105
116	0	0	2138	5	602	105
117	0	0	2916	5	597	105
118	0	0	3379	4	596	105
119	0	0	3659	5	593	105
120	0	0	3821	5	590	105
121	0	0	3910	5	587	105
122	0	0	3962	5	586	105
123	0	0	3839	4	586	105
124	0	0	3223	4	586	105
125	0	0	2679	4	586	105
126	0	0	2069	4	591	105
127	0	0	1348	4	593	105
0	0	0	774	4	595	105
1	0	0	436	4	598	105
2	0	0	244	4	599	105
3	0	0	140	4	605	105
4	0	0	85	4	607	105
5	0	0	56	4	607	105
6	0	0	403	5	607	105
7	0	0	1141	5	604	105
8	0	0	2172	4	601	105
9	0	0	2938	5	598	105
10	0	0	3394	5	597	105
11	0	0	3669	5	593	105
12	0	0	3829	5	590	105
13	0	0	3916	5	588	105
14	0	0	3966	5	587	105
15	0	0	3859	4	587	105
16	0	0	3256	4	587	105
17	0	0	2723	4	588	105
18	0	0	2115	4	590	105
19	0	0	1401	3	594	105
20	0	0	808	3	596	105
21	0	0	457	4	599	105
22	0	0	256	4	601	105
23	0	0	147	4	607	105
24	0	0	89	4	607	105
25	0	0	60	4	608	105
26	0	0	427	5	607	105
27	0	0	1158	5	605	105
28	0	0	2186	5	602	105
29	0	0	2947	5	599	105
30	0	0	3403	5	596	104
31	0	0	3672	5	594	105
32	0	0	3831	5	591	105
33	0	0	3918	4	589	104
34	0	0	3966	5	587	105
35	0	0	3904	5	588	105
36	0	0	3315	4	589	105
37	0	0	2780	3	589	104
38	0	0	2194	4	590	104
39	0	0	1497	4	593	105
40	0	0	869	3	596	105
41	0	0	495	4	600	105
42	0	0	279	4	601	105
43	0	0	159	4	606	105
44	0	0	96	4	607	105
45	0	0	63	3	608	105
46	0	0	477	5	607	106
47	0	0	1214	5	606	105
48	0	0	2215	5	603	105
49	0	0	2962	5	600	105
50	0	0	3412	5	597	105
51	0	0	3676	5	594	104
52	0	0	3832	5	592	105
53	0	0	3919	5	590	104
54	0	0	3966	5	588	105
55	0	0	3888	4	589	105
56	0	0	3292	3	589	105
57	0	0	2745	4	590	104
58	0	0	2130	4	590	104
59	0	0	1432	3	593	105
60	0	0	820	5	595	104
61	0	0	467	3	598	105
62	0	0	262	4	601	105
63	0	0	150	4	604	105
64	0	0	91	4	607	105
65	0	0	61	4	607	105
66	0	0	435	4	607	105
67	0	0	1162	5	605	105
68	0	0	2164	5	601	104
69	0	0	2933	5	600	105
70	0	0	3396	5	595	104
71	0	0	3670	5	592	105
72	0	0	3828	4	591	105
73	0	0	3916	5	588	105
74	0	0	3965	5	588	105
75	0	0	3833	3	587	105
76	0	0	3240	4	587	104
77	0	0	2726	4	590	105
78	0	0	2150	4	590	104
79	0	0	1464	3	593	105
80	0	0	849	4	596	105
81	0	0	480	4	600	104
82	0	0	272	4	602	105
83	0	0	155	4	604	104
84	0	0	93	4	606	104
85	0	0	62	5	606	105
86	0	0	436	5	606	105
87	0	0	1156	4	605	105
88	0	0	2151	5	601	105
89	0	0	2916	5	600	105
90	0	0	3385	5	597	105
91	0	0	3663	5	595	105
92	0	0	3825	5	592	105
93	0	0	3915	5	587	105
94	0	0	3965	4	587	105
95	0	0	3863	4	589	105
96	0	0	3275	4	589	105
97	0	0	2750	4	590	104
98	0	0	2173	4	590	104
99	0	0	1496	4	593	105
100	0	0	877	4	596	105
101	0	0	497	3	598	104
102	0	0	281	4	601	106
103	0	0	161	4	606	105
104	0	0	97	4	608	104
105	0	0	64	4	606	106
106	0	0	443	4	606	105
107	0	0	1149	4	605	104
108	0	0	2140	5	601	104
109	0	0	2910	4	600	105
110	0	0	3383	6	598	105
111	0	0	3662	5	594	105
112	0	0	3824	5	592	103
113	0	0	3914	5	589	105
114	0	0	3965	4	588	105
115	0	0	3895	4	589	105
116	0	0	3317	3	590	105
117	0	0	2789	4	589	105
118	0	0	2199	4	592	104
119	0	0	1519	3	594	105
120	0	0	884	4	596	104
121	0	0	501	4	599	105
122	0	0	284	4	600	106
123	0	0	162	4	605	105
124	0	0	97	4	608	105
125	0	0	64	3	607	105
126	0	0	433	5	608	105
127	0	0	1157	4	606	103
0	0	0	2153	5	602	105
1	0	0	2918	5	599	105
2	0	0	3387	7	597	104
3	0	0	3663	5	595	105
4	0	0	3826	5	592	105
5	0	0	3917	5	589	104
6	0	0	3965	5	589	105
7	0	0	3890	4	589	105
8	0	0	3310	3	588	105
9	0	0	2790	4	590	104
10	0	0	2188	4	591	104
11	0	0	1501	3	594	105
12	0	0	870	4	598	105
13	0	0	491	3	597	105
14	0	0	276	4	601	106
15	0	0	158	3	604	105
16	0	0	96	4	606	105
17	0	0	63	4	607	105
18	0	0	434	4	607	105
19	0	0	1154	5	604	105
20	0	0	2154	4	601	105
21	0	0	2925	4	599	105
22	0	0	3386	5	596	105
23	0	0	3665	5	595	105
24	0	0	3825	5	592	105
25	0	0	3914	5	591	105
26	0	0	3968	5	589	105
27	0	0	3849	3	588	105
28	0	0	3252	3	587	105
29	0	0	2737	4	589	106
30	0	0	2152	4	590	105
31	0	0	1467	4	594	105
32	0	0	857	4	595	105
33	0	0	486	3	599	105
34	0	0	273	4	600	104
35	0	0	158	4	603	104
36	0	0	95	4	605	105
37	0	0	63	4	607	105
38	0	0	432	4	607	105
39	0	0	1129	4	605	105
40	0	0	2130	4	602	104
41	0	0	2913	5	599	105
42	0	0	3379	5	596	104
43	0	0	3661	5	594	105
44	0	0	3825	5	592	105
45	0	0	3914	5	589	105
46	0	0	3966	5	590	105
47	0	0	3910	4	589	105
48	0	0	3328	4	588	104
49	0	0	2800	4	590	105
50	0	0	2210	4	592	105
51	0	0	1549	4	593	105
52	0	0	920	4	597	105
53	0	0	522	4	599	104
54	0	0	294	4	600	105
55	0	0	167	4	604	105
56	0	0	100	4	606	105
57	0	0	66	4	608	105
58	0	0	412	4	607	105
59	0	0	1106	5	603	104
60	0	0	2107	5	601	105
61	0	0	2900	4	600	105
62	0	0	3373	5	596	105
63	0	0	3655	5	595	105
64	0	0	3820	5	592	105
65	0	0	3912	5	590	104
66	0	0	3963	5	589	105
67	0	0	3923	4	588	105
68	0	0	3338	4	588	105
69	0	0	2815	4	589	106
70	0	0	2233	4	590	105
71	0	0	1555	4	594	105
72	0	0	907	3	594	105
73	0	0	518	4	599	104
74	0	0	291	4	602	105
75	0	0	166	4	605	105
76	0	0	100	4	608	105
77	0	0	66	4	607	105
78	0	0	373	4	606	105
79	0	0	1088	5	605	105
80	0	0	2087	5	601	105
81	0	0	2884	5	600	105
82	0	0	3366	5	597	105
83	0	0	3651	5	595	105
84	0	0	3817	5	593	105
85	0	0	3911	5	589	104
86	0	0	3962	5	588	105
87	0	0	3928	4	588	105
88	0	0	3337	4	590	104
89	0	0	2805	4	590	105
90	0	0	2193	4	592	105
91	0	0	1490	4	593	105
92	0	0	859	3	597	106
93	0	0	489	3	599	105
94	0	0	275	4	600	105
95	0	0	157	3	605	105
96	0	0	95	4	607	105
97	0	0	63	4	607	104
98	0	0	392	5	608	104
99	0	0	1093	5	604	105
100	0	0	2098	4	602	105
101	0	0	2892	5	599	105
102	0	0	3372	5	597	105
103	0	0	3654	5	595	105
104	0	0	3820	5	593	106
105	0	0	3912	5	589	105
106	0	0	3963	5	589	105
107	0	0	3930	4	587	105
108	0	0	3338	4	589	104
109	0	0	2801	4	590	105
110	0	0	2211	4	590	105
111	0	0	1522	4	593	105
112	0	0	881	4	595	105
113	0	0	502	2	598	105
114	0	0	282	3	602	105
115	0	0	161	4	604	105
116	0	0	96	4	606	105
117	0	0	66	4	606	105
118	0	0	371	3	606	105
119	0	0	1081	4	605	105
120	0	0	2093	5	602	104
121	0	0	2891	5	599	105
122	0	0	3370	5	597	105
123	0	0	3655	4	594	105
124	0	0	3820	5	593	105
125	0	0	3912	5	589	104
126	0	0	3963	5	587	105
127	0	0	3958	4	587	105
0	0	0	3383	4	588	105
1	0	0	2853	4	589	105
2	0	0	2256	4	590	105
3	0	0	1563	4	594	105
4	0	0	912	2	595	105
5	0	0	517	3	598	105
6	0	0	292	4	600	105
7	0	0	167	4	604	104
8	0	0	99	4	604	105
9	0	0	66	4	606	105
10	0	0	350	4	606	105
11	0	0	1045	5	604	105
12	0	0	2078	5	601	105
13	0	0	2875	4	599	105
14	0	0	3360	5	598	105
15	0	0	3650	5	594	105
16	0	0	3815	5	592	105
17	0	0	3910	5	589	105
18	0	0	3961	5	587	104
19	0	0	3972	4	588	105
20	0	0	3404	4	590	105
21	0	0	2867	4	590	105
22	0	0	2260	4	591	104
23	0	0	1577	4	593	105
24	0	0	917	4	596	104
25	0	0	520	2	599	105
26	0	0	294	4	600	105
27	0	0	167	4	604	104
28	0	0	99	4	606	105
29	0	0	65	4	607	105
30	0	0	328	4	606	105
31	0	0	1030	4	603	105
32	0	0	2072	5	602	105
33	0	0	2870	5	598	105
34	0	0	3358	5	598	105
35	0	0	3647	4	595	105
36	0	0	3817	5	592	105
37	0	0	3909	5	590	105
38	0	0	3963	5	589	105
39	0	0	3974	4	590	105
40	0	0	3405	4	590	105
41	0	0	2873	4	589	105
42	0	0	2243	4	590	105
43	0	0	1546	4	593	105
44	0	0	891	3	596	105
45	0	0	506	4	598	105
46	0	0	283	4	599	105
47	0	0	162	4	603	105
48	0	0	96	4	607	105
49	0	0	64	4	607	105
50	0	0	311	4	606	105
51	0	0	1016	4	604	105
52	0	0	2067	5	602	105
53	0	0	2875	4	600	104
54	0	0	3356	5	596	104
55	0	0	3647	5	595	106
56	0	0	3814	5	592	104
57	0	0	3909	5	590	105
58	0	0	3961	5	589	105
59	0	0	3964	4	589	105
60	0	0	3379	2	588	105
61	0	0	2855	4	590	105
62	0	0	2241	4	593	105
63	0	0	1528	4	593	105
64	0	0	888	4	597	105
65	0	0	503	4	598	105
66	0	0	282	4	600	105
67	0	0	162	4	604	105
68	0	0	96	3	606	105
69	0	0	64	4	607	105
70	0	0	322	5	606	105
71	0	0	1027	4	605	105
72	0	0	2075	5	602	105
73	0	0	2881	5	601	105
74	0	0	3360	6	597	105
75	0	0	3649	5	594	105
76	0	0	3816	5	593	105
77	0	0	3909	5	590	104
78	0	0	3961	5	588	105
79	0	0	3988	4	588	105
80	0	0	3444	4	588	105
81	0	0	2919	3	590	105
82	0	0	2296	4	592	105
83	0	0	1582	4	594	104
84	0	0	923	4	596	105
85	0	0	523	4	599	105
86	0	0	294	4	600	105
87	0	0	167	4	604	105
88	0	0	100	4	606	105
89	0	0	65	4	606	105
90	0	0	319	5	607	105
91	0	0	1005	4	604	104
92	0	0	2056	5	602	105
93	0	0	2869	5	599	105
94	0	0	3353	4	595	105
95	0	0	3644	5	594	105
96	0	0	3815	5	592	105
97	0	0	3908	5	589	105
98	0	0	3959	5	589	105
99	0	0	3987	5	588	105
100	0	0	3466	4	587	105
101	0	0	2930	3	591	105
102	0	0	2304	4	591	104
103	0	0	1587	4	592	105
104	0	0	925	4	596	105
105	0	0	524	3	599	105
106	0	0	294	3	599	105
107	0	0	166	4	605	105
108	0	0	99	4	607	105
109	0	0	64	4	608	104
110	0	0	312	5	607	105
111	0	0	1015	5	604	105
112	0	0	2076	4	602	104
113	0	0	2879	5	599	105
114	0	0	3364	5	596	104
115	0	0	3647	5	595	105
116	0	0	3815	5	593	106
117	0	0	3909	5	589	104
118	0	0	3959	5	588	105
119	0	0	3987	4	589	104
120	0	0	3468	3	588	105
121	0	0	2935	4	589	105
122	0	0	2298	4	591	105
123	0	0	1577	4	593	105
124	0	0	908	4	595	105
125	0	0	516	3	598	105
126	0	0	289	3	601	105
127	0	0	163	4	603	105
0	0	0	96	4	605	105
1	0	0	62	4	606	103
2	0	0	304	5	606	105
3	0	0	1008	4	603	106
4	0	0	2057	5	601	105
5	0	0	2867	5	598	105
6	0	0	3356	5	598	104
7	0	0	3643	5	594	105
8	0	0	3812	4	593	106
9	0	0	3907	5	589	105
10	0	0	3959	5	588	105
11	0	0	3986	4	588	104
12	0	0	3445	3	588	105
13	0	0	2912	4	589	105
14	0	0	2303	4	591	105
15	0	0	1619	3	592	105
16	0	0	946	4	596	105
17	0	0	539	4	597	105
18	0	0	301	4	600	105
19	0	0	169	3	605	105
20	0	0	99	4	605	105
21	0	0	64	4	606	105
22	0	0	321	5	606	105
23	0	0	1021	4	604	105
24	0	0	2066	5	603	106
25	0	0	2874	4	600	105
26	0	0	3358	5	596	105
27	0	0	3647	5	595	105
28	0	0	3812	4	591	105
29	0	0	3906	5	591	106
30	0	0	3959	5	588	105
31	0	0	3985	5	587	104
32	0	0	3488	4	587	105
33	0	0	2944	3	589	105
34	0	0	2329	4	593	105
35	0	0	1622	4	593	105
36	0	0	944	4	596	105
37	0	0	533	4	597	105
38	0	0	299	3	601	105
39	0	0	168	4	605	105
40	0	0	98	4	606	105
41	0	0	62	4	607	105
42	0	0	300	5	606	105
43	0	0	999	4	605	104
44	0	0	2054	5	602	105
45	0	0	2858	5	599	105
46	0	0	3350	5	595	104
47	0	0	3641	4	594	105
48	0	0	3807	4	592	105
49	0	0	3904	5	590	104
50	0	0	3956	5	587	104
51	0	0	3983	5	588	104
52	0	0	3503	4	587	105
53	0	0	2968	3	590	105
54	0	0	2344	4	592	105
55	0	0	1631	4	593	104
56	0	0	955	4	594	104
57	0	0	539	4	597	105
58	0	0	300	4	601	105
59	0	0	168	4	604	104
60	0	0	97	4	606	104
61	0	0	61	5	605	105
62	0	0	305	5	606	105
63	0	0	999	4	604	104
64	0	0	2067	5	602	105
65	0	0	2874	5	600	105
66	0	0	3352	5	597	104
67	0	0	3643	4	595	105
68	0	0	3810	4	591	105
69	0	0	3904	5	590	106
70	0	0	3955	5	587	105
71	0	0	3981	5	589	104
72	0	0	3490	4	589	106
73	0	0	2969	4	591	105
74	0	0	2328	4	590	105
75	0	0	1609	4	593	105
76	0	0	935	4	595	105
77	0	0	527	4	597	105
78	0	0	292	4	599	105
79	0	0	163	4	603	105
80	0	0	94	4	605	105
81	0	0	58	4	605	105
82	0	0	318	5	606	105
83	0	0	1003	4	605	105
84	0	0	2065	5	601	104
85	0	0	2871	5	598	105
86	0	0	3355	5	596	104
87	0	0	3642	5	595	105
88	0	0	3807	4	593	104
89	0	0	3902	5	590	105
90	0	0	3954	5	588	105
91	0	0	3980	5	588	105
92	0	0	3459	4	588	104
93	0	0	2921	4	590	104
94	0	0	2307	4	590	104
95	0	0	1602	3	593	105
96	0	0	928	4	596	105
97	0	0	526	3	598	105
98	0	0	291	3	599	105
99	0	0	162	4	604	104
100	0	0	93	4	606	104
101	0	0	57	4	607	104
102	0	0	318	5	607	105
103	0	0	1013	4	604	105
104	0	0	2055	5	601	104
105	0	0	2866	5	598	105
106	0	0	3351	5	596	104
107	0	0	3638	6	596	105
108	0	0	3807	4	592	105
109	0	0	3901	4	589	104
110	0	0	3953	5	588	105
111	0	0	3980	5	588	105
112	0	0	3498	3	589	105
113	0	0	2969	4	589	105
114	0	0	2361	4	592	104
115	0	0	1688	3	593	104
116	0	0	994	5	595	105
117	0	0	564	3	599	104
118	0	0	313	4	600	104
119	0	0	173	4	605	105
120	0	0	98	4	606	105
121	0	0	59	4	604	105
122	0	0	283	4	605	105
123	0	0	974	5	605	105
124	0	0	2025	4	603	104
125	0	0	2847	5	599	105
126	0	0	3340	5	597	104
127	0	0	3633	4	595	105
0	0	0	3801	5	593	105
1	0	0	3899	5	589	105
2	0	0	3950	5	588	105
3	0	0	3977	5	588	105
4	0	0	3500	5	588	105
5	0	0	2975	4	590	105
6	0	0	2364	4	591	104
7	0	0	1674	4	594	105
8	0	0	979	4	596	105
9	0	0	551	3	598	105
10	0	0	307	3	600	105
11	0	0	169	3	604	104
12	0	0	95	4	606	105
13	0	0	57	4	607	105
14	0	0	309	5	606	105
15	0	0	991	4	604	105
16	0	0	2035	5	602	104
17	0	0	2844	5	599	105
18	0	0	3337	5	597	104
19	0	0	3632	5	594	105
20	0	0	3799	5	592	105
21	0	0	3897	5	590	105
22	0	0	3948	5	588	105
23	0	0	3975	5	588	105
24	0	0	3489	4	589	104
25	0	0	2963	4	590	105
26	0	0	2326	5	591	104
27	0	0	1615	4	594	105
28	0	0	932	4	596	105
29	0	0	523	3	598	104
30	0	0	290	4	600	105
31	0	0	159	4	602	104
32	0	0	89	4	605	105
33	0	0	53	4	606	105
34	0	0	302	5	606	105
35	0	0	981	4	605	105
36	0	0	2032	5	602	104
37	0	0	2843	5	599	105
38	0	0	3338	5	597	104
39	0	0	3629	5	594	105
40	0	0	3800	5	592	104
41	0	0	3895	5	589	104
42	0	0	3948	5	588	104
43	0	0	3974	5	589	105
44	0	0	3467	4	590	105
45	0	0	2946	4	588	105
46	0	0	2344	4	590	104
47	0	0	1672	4	595	105
48	0	0	983	4	596	105
49	0	0	556	4	598	104
50	0	0	306	4	600	105
51	0	0	168	4	604	104
52	0	0	94	4	605	105
53	0	0	55	3	605	105
54	0	0	313	5	606	105
55	0	0	1000	5	605	105
56	0	0	2037	5	601	104
57	0	0	2853	5	601	105
58	0	0	3341	5	597	105
59	0	0	3632	5	594	105
60	0	0	3799	5	592	105
61	0	0	3895	5	589	104
62	0	0	3947	5	589	105
63	0	0	3975	5	589	105
64	0	0	3492	5	589	105
65	0	0	2971	4	590	105
66	0	0	2372	4	592	105
67	0	0	1701	4	593	105
68	0	0	1007	4	595	104
69	0	0	566	4	598	105
70	0	0	314	4	601	104
71	0	0	171	4	604	104
72	0	0	94	4	606	105
73	0	0	55	4	608	105
74	0	0	292	5	606	105
75	0	0	966	5	605	105
76	0	0	2010	5	602	104
77	0	0	2828	5	599	105
78	0	0	3326	5	597	105
79	0	0	3623	5	594	105
80	0	0	3794	4	593	105
81	0	0	3890	5	590	104
82	0	0	3944	5	588	105
83	0	0	3972	5	588	105
84	0	0	3501	4	590	105
85	0	0	2971	4	591	105
86	0	0	2363	4	590	105
87	0	0	1703	3	592	105
88	0	0	1006	4	596	104
89	0	0	564	4	600	104
90	0	0	312	4	600	105
91	0	0	170	4	604	105
92	0	0	94	4	606	105
93	0	0	54	3	607	105
94	0	0	299	4	606	104
95	0	0	986	5	605	105
96	0	0	2035	5	601	104
97	0	0	2844	4	599	105
98	0	0	3335	5	598	104
99	0	0	3627	5	595	105
100	0	0	3797	5	592	105
101	0	0	3893	5	591	105
102	0	0	3943	5	589	105
103	0	0	3971	5	588	105
104	0	0	3504	4	589	105
105	0	0	2974	4	588	105
106	0	0	2344	4	591	104
107	0	0	1679	4	593	105
108	0	0	985	4	596	105
109	0	0	552	4	599	105
110	0	0	302	4	600	105
111	0	0	164	3	604	104
112	0	0	89	4	605	105
113	0	0	51	4	605	105
114	0	0	305	5	606	104
115	0	0	985	5	605	105
116	0	0	2017	5	601	103
117	0	0	2839	4	600	105
118	0	0	3327	6	597	105
119	0	0	3622	5	594	105
120	0	0	3793	4	592	105
121	0	0	3888	5	589	104
122	0	0	3942	5	589	105
123	0	0	3969	5	588	105
124	0	0	3453	4	589	105
125	0	0	2935	4	590	105
126	0	0	2331	4	590	105
127	0	0	1658	4	593	105
0	0	0	979	4	594	105
1	0	0	548	4	597	106
2	0	0	300	4	601	105
3	0	0	163	3	603	104
4	0	0	88	5	605	105
5	0	0	51	4	605	106
6	0	0	302	4	606	105
7	0	0	968	5	605	104
8	0	0	2007	5	602	105
9	0	0	2831	5	598	105
10	0	0	3321	5	598	104
11	0	0	3619	5	595	105
12	0	0	3791	5	593	104
13	0	0	3888	5	590	103
14	0	0	3941	4	589	104
15	0	0	3970	6	589	104
16	0	0	3489	4	588	105
17	0	0	2976	4	589	105
18	0	0	2369	4	592	104
19	0	0	1694	4	593	104
20	0	0	1006	4	594	105
21	0	0	563	4	597	105
22	0	0	308	4	600	105
23	0	0	166	4	604	104
24	0	0	90	3	605	104
25	0	0	50	3	609	105
26	0	0	288	5	605	105
27	0	0	936	5	605	105
28	0	0	1966	5	601	105
29	0	0	2806	5	599	105
30	0	0	3306	5	597	105
31	0	0	3610	5	595	105
32	0	0	3785	5	592	104
33	0	0	3884	5	591	104
34	0	0	3939	6	588	105
35	0	0	3966	5	589	105
36	0	0	3488	4	589	105
37	0	0	2974	4	590	105
38	0	0	2362	4	591	104
39	0	0	1684	4	592	105
40	0	0	996	4	597	105
41	0	0	557	4	597	105
42	0	0	304	4	601	105
43	0	0	163	4	604	104
44	0	0	88	3	606	104
45	0	0	50	4	605	105
46	0	0	288	5	605	105
47	0	0	949	4	605	105
48	0	0	1978	5	602	104
49	0	0	2813	5	600	105
50	0	0	3315	5	597	104
51	0	0	3611	5	595	105
52	0	0	3785	5	593	105
53	0	0	3884	5	590	104
54	0	0	3939	4	590	105
55	0	0	3968	6	588	105
56	0	0	3475	3	589	105
57	0	0	2957	4	591	105
58	0	0	2340	4	591	105
59	0	0	1655	3	594	105
60	0	0	965	3	595	105
61	0	0	542	3	599	105
62	0	0	296	3	599	105
63	0	0	158	4	603	104
64	0	0	86	3	607	104
65	0	0	47	4	607	105
66	0	0	306	5	606	105
67	0	0	973	5	605	104
68	0	0	1983	5	603	105
69	0	0	2816	5	600	105
70	0	0	3316	5	596	106
71	0	0	3613	6	594	105
72	0	0	3786	4	592	105
73	0	0	3885	5	589	105
74	0	0	3938	4	591	105
75	0	0	3965	5	590	105
76	0	0	3456	4	590	105
77	0	0	2940	4	589	105
78	0	0	2345	4	591	105
79	0	0	1693	3	594	104
80	0	0	1006	5	595	105
81	0	0	566	3	599	105
82	0	0	309	3	600	104
83	0	0	165	4	604	105
84	0	0	88	4	607	105
85	0	0	50	4	605	105
86	0	0	300	6	605	105
87	0	0	950	4	604	105
88	0	0	1955	5	601	105
89	0	0	2798	5	599	105
90	0	0	3307	5	599	105
91	0	0	3609	6	596	105
92	0	0	3782	6	592	104
93	0	0	3885	5	592	105
94	0	0	3936	5	590	105
95	0	0	3965	5	588	104
96	0	0	3481	4	591	105
97	0	0	2960	3	591	105
98	0	0	2366	4	591	105
99	0	0	1711	3	594	105
100	0	0	1018	3	596	104
101	0	0	569	4	599	105
102	0	0	312	5	600	105
103	0	0	168	4	604	105
104	0	0	89	4	607	105
105	0	0	49	4	607	105
106	0	0	271	5	605	105
107	0	0	912	5	606	105
108	0	0	1924	5	602	105
109	0	0	2772	5	600	105
110	0	0	3290	5	596	105
111	0	0	3599	5	595	105
112	0	0	3777	5	594	105
113	0	0	3880	4	590	105
114	0	0	3936	5	590	105
115	0	0	3964	5	589	105
116	0	0	3491	4	589	105
117	0	0	2974	4	590	105
118	0	0	2369	4	591	104
119	0	0	1706	3	593	105
120	0	0	1012	4	596	105
121	0	0	565	4	599	105
122	0	0	310	4	599	105
123	0	0	166	4	604	105
124	0	0	88	4	606	105
125	0	0	48	4	606	105
126	0	0	277	4	607	105
127	0	0	934	5	604	105
0	0	0	1948	5	603	105
1	0	0	2784	4	600	105
2	0	0	3299	5	597	105
3	0	0	3603	5	596	105
4	0	0	3781	5	593	104
5	0	0	3879	5	591	105
6	0	0	3936	4	589	105
7	0	0	3965	5	589	105
8	0	0	3479	4	589	105
9	0	0	2960	4	592	105
10	0	0	2344	4	590	105
11	0	0	1676	3	593	105
12	0	0	982	5	596	105
13	0	0	548	4	597	104
14	0	0	301	3	600	105
15	0	0	160	4	603	104
16	0	0	86	3	605	105
17	0	0	47	4	608	105
18	0	0	296	4	604	105
19	0	0	938	4	604	105
20	0	0	1933	5	602	105
21	0	0	2771	4	601	105
22	0	0	3291	5	597	105
23	0	0	3597	5	593	106
24	0	0	3778	6	593	105
25	0	0	3878	5	589	105
26	0	0	3934	5	589	105
27	0	0	3964	4	589	105
28	0	0	3451	4	586	105
29	0	0	2935	4	589	105
30	0	0	2347	4	591	104
31	0	0	1703	4	594	105
32	0	0	1016	5	595	105
33	0	0	567	4	596	105
34	0	0	310	4	600	105
35	0	0	167	4	603	105
36	0	0	89	4	607	105
37	0	0	49	4	606	104
38	0	0	286	4	606	105
39	0	0	929	6	605	105
40	0	0	1928	5	602	105
41	0	0	2779	4	598	105
42	0	0	3288	5	599	105
43	0	0	3598	5	594	106
44	0	0	3777	5	595	105
45	0	0	3878	5	590	105
46	0	0	3935	5	590	105
47	0	0	3964	6	588	105
48	0	0	3480	4	588	104
49	0	0	2968	4	590	105
50	0	0	2370	4	591	104
51	0	0	1726	3	594	105
52	0	0	1041	4	594	105
53	0	0	581	4	597	105
54	0	0	317	4	600	104
55	0	0	171	4	603	104
56	0	0	91	4	605	105
57	0	0	50	4	607	105
58	0	0	260	5	606	105
59	0	0	895	4	604	105
60	0	0	1900	5	601	105
61	0	0	2761	5	600	105
62	0	0	3278	5	596	104
63	0	0	3592	5	594	104
64	0	0	3773	4	593	105
65	0	0	3877	5	590	105
66	0	0	3933	5	589	105
67	0	0	3963	5	588	105
68	0	0	3467	4	588	104
69	0	0	2956	3	588	105
70	0	0	2364	4	590	104
71	0	0	1720	4	593	105
72	0	0	1038	4	595	105
73	0	0	579	4	597	105
74	0	0	316	4	600	105
75	0	0	169	4	603	104
76	0	0	91	4	605	104
77	0	0	49	4	608	105
78	0	0	281	5	605	104
79	0	0	915	5	603	104
80	0	0	1910	5	601	105
81	0	0	2767	5	598	105
82	0	0	3287	5	596	105
83	0	0	3595	5	595	104
84	0	0	3775	4	594	105
85	0	0	3878	5	591	105
86	0	0	3934	5	589	105
87	0	0	3963	5	590	105
88	0	0	3466	4	589	105
89	0	0	2953	4	589	104
90	0	0	2347	4	590	105
91	0	0	1681	3	593	105
92	0	0	992	3	596	104
93	0	0	557	4	598	105
94	0	0	304	4	599	105
95	0	0	162	4	603	104
96	0	0	87	4	607	105
97	0	0	47	4	606	105
98	0	0	277	5	606	105
99	0	0	911	4	604	104
100	0	0	1890	5	603	105
101	0	0	2752	5	599	105
102	0	0	3278	5	597	105
103	0	0	3589	5	595	104
104	0	0	3772	5	593	105
105	0	0	3878	5	592	104
106	0	0	3934	5	589	105
107	0	0	3963	4	589	105
108	0	0	3467	4	590	105
109	0	0	2944	4	592	105
110	0	0	2359	4	592	104
111	0	0	1715	4	594	105
112	0	0	1030	4	596	104
113	0	0	579	4	597	104
114	0	0	316	3	599	105
115	0	0	169	3	604	104
116	0	0	90	4	605	105
117	0	0	50	3	606	105
118	0	0	292	5	605	104
119	0	0	931	4	606	105
120	0	0	1908	5	602	105
121	0	0	2763	5	599	104
122	0	0	3285	5	598	105
123	0	0	3596	5	596	105
124	0	0	3774	4	593	105
125	0	0	3879	5	592	105
126	0	0	3934	5	589	105
127	0	0	3963	4	588	105
0	0	0	3480	4	590	105
1	0	0	2965	3	590	105
2	0	0	2379	3	591	104
3	0	0	1727	4	593	105
4	0	0	1035	4	594	105
5	0	0	582	4	598	105
6	0	0	317	4	599	104
7	0	0	170	4	602	105
8	0	0	90	4	606	105
9	0	0	49	4	606	105
10	0	0	249	5	606	104
11	0	0	873	4	605	105
12	0	0	1849	5	601	104
13	0	0	2724	5	600	105
14	0	0	3262	5	599	105
15	0	0	3581	5	596	105
16	0	0	3768	5	593	105
17	0	0	3873	5	591	105
18	0	0	3931	5	588	105
19	0	0	3963	5	589	105
20	0	0	3476	4	588	104
21	0	0	2953	4	589	105
22	0	0	2369	4	590	103
23	0	0	1723	4	592	105
24	0	0	1030	4	595	105
25	0	0	575	3	597	105
26	0	0	316	3	598	104
27	0	0	170	4	604	105
28	0	0	90	4	605	105
29	0	0	50	4	605	105
30	0	0	269	4	605	105
31	0	0	914	5	604	105
32	0	0	1901	4	601	105
33	0	0	2750	4	598	105
34	0	0	3278	4	597	105
35	0	0	3591	5	594	105
36	0	0	3772	3	592	105
37	0	0	3875	5	590	105
38	0	0	3934	5	588	105
39	0	0	3963	5	588	105
40	0	0	3474	4	589	105
41	0	0	2964	4	588	105
42	0	0	2357	4	590	105
43	0	0	1727	4	593	105
44	0	0	1036	4	595	105
45	0	0	578	4	598	105
46	0	0	318	4	599	105
47	0	0	170	4	603	104
48	0	0	91	3	605	105
49	0	0	50	3	606	105
50	0	0	270	5	606	105
51	0	0	904	5	604	105
52	0	0	1885	5	601	105
53	0	0	2739	5	599	105
54	0	0	3271	5	598	104
55	0	0	3587	5	594	104
56	0	0	3770	3	593	105
57	0	0	3875	5	586	105
58	0	0	3932	5	589	105
59	0	0	3963	5	588	105
60	0	0	3437	4	589	105
61	0	0	2924	3	590	104
62	0	0	2336	4	591	105
63	0	0	1712	4	592	105
64	0	0	1030	4	594	105
65	0	0	575	4	597	105
66	0	0	315	4	600	104
67	0	0	170	2	603	105
68	0	0	90	4	607	105
69	0	0	50	4	606	105
70	0	0	269	5	605	105
71	0	0	912	3	604	105
72	0	0	1890	5	602	105
73	0	0	2753	5	599	105
74	0	0	3274	5	598	106
75	0	0	3589	5	594	105
76	0	0	3772	3	592	105
77	0	0	3876	5	591	105
78	0	0	3934	5	589	105
79	0	0	3964	5	588	104
80	0	0	3462	4	589	105
81	0	0	2954	3	589	105
82	0	0	2370	4	590	105
83	0	0	1746	4	593	105
84	0	0	1067	3	596	104
85	0	0	597	4	597	104
86	0	0	326	3	599	105
87	0	0	177	4	604	105
88	0	0	95	4	604	105
89	0	0	52	4	607	104
90	0	0	251	4	606	105
91	0	0	857	4	605	105
92	0	0	1820	5	602	105
93	0	0	2699	5	599	105
94	0	0	3242	5	598	104
95	0	0	3570	5	596	105
96	0	0	3761	4	594	105
97	0	0	3871	5	589	105
98	0	0	3930	5	589	105
99	0	0	3963	6	589	105
100	0	0	3457	4	589	105
101	0	0	2942	4	590	104
102	0	0	2358	4	589	105
103	0	0	1738	4	592	104
104	0	0	1063	4	596	105
105	0	0	595	4	598	105
106	0	0	326	4	601	105
107	0	0	176	4	604	105
108	0	0	94	3	606	105
109	0	0	52	4	606	105
110	0	0	241	4	607	104
111	0	0	869	4	606	105
112	0	0	1835	5	602	105
113	0	0	2708	5	600	105
114	0	0	3246	5	598	105
115	0	0	3573	5	596	105
116	0	0	3764	4	592	105
117	0	0	3872	5	589	105
118	0	0	3931	5	589	105
119	0	0	3962	5	587	105
120	0	0	3442	4	589	105
121	0	0	2923	4	591	104
122	0	0	2316	4	589	104
123	0	0	1682	4	593	105
124	0	0	1012	4	597	105
125	0	0	567	3	598	105
126	0	0	310	3	599	105
127	0	0	167	4	603	104
0	0	0	91	4	605	104
1	0	0	50	4	606	104
2	0	0	261	5	605	105
3	0	0	874	5	606	105
4	0	0	1822	5	602	104
5	0	0	2697	5	599	105
6	0	0	3246	5	597	105
7	0	0	3570	5	596	105
8	0	0	3763	4	593	105
9	0	0	3872	5	590	105
10	0	0	3932	5	587	105
11	0	0	3964	4	588	105
12	0	0	3408	4	587	105
13	0	0	2900	4	589	105
14	0	0	2335	4	591	105
15	0	0	1729	4	592	104
16	0	0	1052	4	594	104
17	0	0	594	4	599	105
18	0	0	327	3	600	105
19	0	0	176	4	602	105
20	0	0	96	4	606	105
21	0	0	54	4	605	105
22	0	0	257	5	607	105
23	0	0	893	5	604	105
24	0	0	1829	5	602	105
25	0	0	2700	5	601	105
26	0	0	3248	5	597	104
27	0	0	3572	5	595	105
28	0	0	3764	5	591	105
29	0	0	3873	5	590	105
30	0	0	3934	5	588	105
31	0	0	3965	4	589	104
32	0	0	3403	4	590	105
33	0	0	2881	4	589	105
34	0	0	2323	4	590	105
35	0	0	1727	4	593	105
36	0	0	1063	3	595	105
37	0	0	600	3	598	105
38	0	0	331	4	600	105
39	0	0	179	4	604	104
40	0	0	99	4	606	104
41	0	0	56	4	607	105
42	0	0	256	4	605	105
43	0	0	858	5	606	105
44	0	0	1775	5	603	105
45	0	0	2658	4	600	105
46	0	0	3222	5	597	105
47	0	0	3561	5	596	105
48	0	0	3758	5	592	105
49	0	0	3869	5	590	105
50	0	0	3932	4	589	105
51	0	0	3960	4	588	105
52	0	0	3388	4	588	105
53	0	0	2878	4	588	105
54	0	0	2318	4	590	105
55	0	0	1717	4	593	104
56	0	0	1047	4	595	104
57	0	0	588	4	598	105
58	0	0	326	4	598	105
59	0	0	178	4	603	105
60	0	0	98	4	606	105
61	0	0	58	4	607	106
62	0	0	252	5	608	104
63	0	0	879	5	605	105
64	0	0	1808	5	604	105
65	0	0	2665	4	601	105
66	0	0	3228	5	598	104
67	0	0	3565	5	596	105
68	0	0	3760	5	592	105
69	0	0	3873	5	591	105
70	0	0	3936	5	590	104
71	0	0	3942	4	587	105
72	0	0	3375	4	590	105
73	0	0	2866	4	589	105
74	0	0	2291	4	590	105
75	0	0	1690	4	593	105
76	0	0	1028	4	595	105
77	0	0	578	4	598	104
78	0	0	321	4	599	105
79	0	0	177	4	604	105
80	0	0	98	4	606	105
81	0	0	57	4	607	105
82	0	0	278	5	607	104
83	0	0	889	5	605	105
84	0	0	1801	5	604	105
85	0	0	2654	4	600	105
86	0	0	3223	5	597	105
87	0	0	3563	5	596	104
88	0	0	3762	5	592	105
89	0	0	3872	5	591	105
90	0	0	3936	5	589	105
91	0	0	3913	4	587	106
92	0	0	3336	4	588	104
93	0	0	2833	4	589	105
94	0	0	2286	4	592	105
95	0	0	1710	4	593	105
96	0	0	1060	4	595	106
97	0	0	597	4	598	104
98	0	0	334	4	601	105
99	0	0	184	4	603	104
100	0	0	103	3	607	105
101	0	0	61	4	607	105
102	0	0	287	5	606	104
103	0	0	893	5	605	105
104	0	0	1791	5	603	105
105	0	0	2642	5	600	105
106	0	0	3217	5	597	105
107	0	0	3560	5	596	104
108	0	0	3760	5	592	104
109	0	0	3874	5	590	105
110	0	0	3937	5	588	105
111	0	0	3917	4	588	106
112	0	0	3344	4	589	105
113	0	0	2836	4	589	105
114	0	0	2293	4	590	105
115	0	0	1708	4	591	105
116	0	0	1077	4	596	103
117	0	0	608	4	598	104
118	0	0	338	4	600	105
119	0	0	188	4	603	105
120	0	0	107	4	608	105
121	0	0	64	4	606	105
122	0	0	273	4	606	105
123	0	0	875	4	606	105
124	0	0	1772	5	603	105
125	0	0	2646	5	599	105
126	0	0	3213	5	597	105
127	0	0	3559	4	596	104
0	0	0	3761	5	593	104
1	0	0	3875	5	589	105
2	0	0	3938	5	589	105
3	0	0	3913	3	589	105
4	0	0	3340	4	588	104
5	0	0	2842	4	590	105
6	0	0	2281	4	592	105
7	0	0	1713	4	593	105
8	0	0	1090	3	594	105
9	0	0	616	3	598	105
10	0	0	344	4	599	105
11	0	0	194	4	604	105
12	0	0	110	4	605	105
13	0	0	66	4	605	105
14	0	0	290	5	607	105
15	0	0	866	5	605	105
16	0	0	1764	5	602	105
17	0	0	2636	5	600	105
18	0	0	3209	4	599	105
19	0	0	3557	5	594	105
20	0	0	3760	5	592	105
21	0	0	3876	5	590	104
22	0	0	3940	5	588	105
23	0	0	3900	4	588	105
24	0	0	3327	4	588	105
25	0	0	2832	4	589	105
26	0	0	2256	4	590	105
27	0	0	1667	4	592	105
28	0	0	1050	4	595	105
29	0	0	594	4	597	105
30	0	0	332	4	600	105
31	0	0	186	4	604	106
32	0	0	108	3	606	104
33	0	0	66	4	605	105
34	0	0	316	4	607	105
35	0	0	905	4	606	105
36	0	0	1805	5	604	105
37	0	0	2661	3	601	105
38	0	0	3229	5	598	105
39	0	0	3567	5	595	104
40	0	0	3766	5	592	105
41	0	0	3881	5	590	105
42	0	0	3944	5	588	104
43	0	0	3874	3	589	105
44	0	0	3308	4	589	104
45	0	0	2814	4	590	105
46	0	0	2277	4	590	105
47	0	0	1715	4	592	105
48	0	0	1100	3	596	105
49	0	0	630	4	598	103
50	0	0	354	4	600	105
51	0	0	199	4	603	105
52	0	0	116	4	607	105
53	0	0	72	4	606	105
54	0	0	320	5	607	104
55	0	0	905	5	606	105
56	0	0	1780	5	603	105
57	0	0	2642	5	599	105
58	0	0	3219	4	598	104
59	0	0	3562	5	595	103
60	0	0	3764	5	594	105
61	0	0	3880	5	590	104
62	0	0	3944	5	587	105
63	0	0	3896	4	587	105
64	0	0	3334	4	589	104
65	0	0	2833	4	589	105
66	0	0	2298	3	589	105
67	0	0	1731	3	592	105
68	0	0	1110	4	595	103
69	0	0	637	4	597	104
70	0	0	358	4	599	105
71	0	0	202	3	603	104
72	0	0	118	4	607	104
73	0	0	74	4	608	105
74	0	0	302	4	607	104
75	0	0	883	4	605	105
76	0	0	1765	5	603	105
77	0	0	2623	4	600	104
78	0	0	3207	4	598	105
79	0	0	3559	5	595	105
80	0	0	3761	5	592	105
81	0	0	3879	5	590	104
82	0	0	3945	5	589	105
83	0	0	3911	4	589	105
84	0	0	3349	4	588	105
85	0	0	2847	4	590	105
86	0	0	2307	4	590	105
87	0	0	1733	4	593	105
88	0	0	1111	3	595	105
89	0	0	637	3	598	105
90	0	0	359	4	597	105
91	0	0	203	4	604	105
92	0	0	118	5	607	104
93	0	0	76	4	608	104
94	0	0	321	5	608	104
95	0	0	912	4	607	105
96	0	0	1784	5	602	105
97	0	0	2638	6	600	104
98	0	0	3217	5	598	105
99	0	0	3565	5	595	104
100	0	0	3765	5	592	105
101	0	0	3884	6	589	105
102	0	0	3946	5	589	105
103	0	0	3897	4	588	105
104	0	0	3335	4	589	105
105	0	0	2848	4	587	105
106	0	0	2291	4	589	105
107	0	0	1719	3	592	105
108	0	0	1098	3	595	104
109	0	0	625	3	597	103
110	0	0	356	4	600	105
111	0	0	202	4	603	104
112	0	0	118	4	607	104
113	0	0	76	4	606	105
114	0	0	311	5	609	105
115	0	0	906	4	607	105
116	0	0	1791	5	603	105
117	0	0	2645	5	600	105
118	0	0	3224	5	598	105
119	0	0	3568	5	596	105
120	0	0	3768	4	595	105
121	0	0	3885	5	589	104
122	0	0	3949	5	589	105
123	0	0	3881	4	589	105
124	0	0	3324	4	588	105
125	0	0	2829	4	587	105
126	0	0	2299	4	590	105
127	0	0	1754	4	592	104
0	0	0	1137	4	595	105
1	0	0	650	4	598	104
2	0	0	370	4	601	105
3	0	0	210	5	604	104
4	0	0	124	4	607	105
5	0	0	79	4	608	105
6	0	0	320	5	607	105
7	0	0	908	5	606	105
8	0	0	1777	5	604	105
9	0	0	2627	4	599	105
10	0	0	3213	5	598	105
11	0	0	3562	5	596	104
12	0	0	3767	5	592	105
13	0	0	3884	5	591	105
14	0	0	3948	5	587	105
15	0	0	3919	4	588	105
16	0	0	3354	4	586	105
17	0	0	2849	4	590	105
18	0	0	2315	4	590	105
19	0	0	1761	3	592	104
20	0	0	1138	4	596	105
21	0	0	652	4	597	104
22	0	0	369	4	599	105
23	0	0	211	3	602	105
24	0	0	124	4	607	105
25	0	0	79	4	608	105
26	0	0	290	5	607	106
27	0	0	873	5	606	105
28	0	0	1754	4	603	105
29	0	0	2615	4	600	105
30	0	0	3201	5	598	105
31	0	0	3555	5	595	105
32	0	0	3763	5	593	105
33	0	0	3882	5	590	105
34	0	0	3947	5	587	105
35	0	0	3928	4	585	105
36	0	0	3366	4	588	104
37	0	0	2865	4	588	105
38	0	0	2319	4	590	105
39	0	0	1753	4	591	105
40	0	0	1132	4	595	104
41	0	0	647	4	597	105
42	0	0	367	4	600	105
43	0	0	211	4	604	105
44	0	0	125	4	605	105
45	0	0	80	4	607	105
46	0	0	306	5	607	104
47	0	0	883	5	606	105
48	0	0	1753	5	603	104
49	0	0	2617	5	599	105
50	0	0	3202	5	599	105
51	0	0	3557	5	594	105
52	0	0	3765	5	592	105
53	0	0	3883	5	589	105
54	0	0	3948	4	589	105
55	0	0	3946	4	588	105
56	0	0	3392	4	587	105
57	0	0	2897	4	589	104
58	0	0	2330	4	589	105
59	0	0	1744	4	592	105
60	0	0	1115	4	593	106
61	0	0	636	4	598	105
62	0	0	361	3	599	104
63	0	0	206	4	603	105
64	0	0	124	4	606	105
65	0	0	80	4	607	105
66	0	0	299	5	608	105
67	0	0	886	4	606	104
68	0	0	1768	5	602	105
69	0	0	2632	4	600	105
70	0	0	3217	5	598	105
71	0	0	3563	5	595	105
72	0	0	3768	5	592	105
73	0	0	3888	5	590	105
74	0	0	3951	5	588	105
75	0	0	3933	4	588	105
76	0	0	3378	4	587	105
77	0	0	2868	4	589	105
78	0	0	2331	4	589	105
79	0	0	1765	3	590	105
80	0	0	1132	3	594	105
81	0	0	652	4	597	105
82	0	0	371	4	599	104
83	0	0	212	4	605	105
84	0	0	127	4	606	105
85	0	0	83	4	607	105
86	0	0	288	4	606	105
87	0	0	880	5	606	105
88	0	0	1755	5	603	105
89	0	0	2634	4	601	105
90	0	0	3218	5	599	105
91	0	0	3563	5	595	105
92	0	0	3772	5	592	105
93	0	0	3887	5	590	105
94	0	0	3952	5	586	105
95	0	0	3958	4	588	105
96	0	0	3404	4	587	105
97	0	0	2899	4	587	105
98	0	0	2361	4	589	105
99	0	0	1803	4	593	105
100	0	0	1171	4	595	105
101	0	0	672	4	596	105
102	0	0	384	4	598	105
103	0	0	220	3	604	105
104	0	0	130	3	605	105
105	0	0	84	4	607	105
106	0	0	257	4	607	105
107	0	0	838	5	606	105
108	0	0	1709	5	603	105
109	0	0	2601	4	601	105
110	0	0	3199	5	598	105
111	0	0	3555	5	595	105
112	0	0	3763	5	592	105
113	0	0	3883	5	589	105
114	0	0	3950	5	588	105
115	0	0	3964	3	587	105
116	0	0	3412	4	587	105
117	0	0	2898	4	588	105
118	0	0	2350	4	589	105
119	0	0	1783	4	592	105
120	0	0	1140	3	595	105
121	0	0	653	4	599	105
122	0	0	373	4	599	104
123	0	0	214	3	603	105
124	0	0	130	4	606	105
125	0	0	84	4	608	105
126	0	0	262	4	607	105
127	0	0	853	5	606	104
0	0	0	1739	5	603	105
1	0	0	2614	4	600	105
2	0	0	3205	5	596	105
3	0	0	3561	5	595	104
4	0	0	3766	5	593	105
5	0	0	3886	5	591	105
6	0	0	3952	5	587	105
7	0	0	3979	4	588	104
8	0	0	3434	4	587	105
9	0	0	2921	4	588	104
10	0	0	2343	4	590	105
11	0	0	1761	3	590	105
12	0	0	1116	3	596	105
13	0	0	638	4	598	104
14	0	0	363	3	599	105
15	0	0	210	4	603	105
16	0	0	126	3	607	105
17	0	0	81	4	606	104
18	0	0	265	4	606	105
19	0	0	863	4	605	105
20	0	0	1750	5	604	105
21	0	0	2623	5	600	105
22	0	0	3212	5	599	105
23	0	0	3565	5	595	105
24	0	0	3770	5	592	105
25	0	0	3888	5	590	105
26	0	0	3952	5	587	104
27	0	0	3965	4	586	105
28	0	0	3426	4	589	104
29	0	0	2910	4	588	105
30	0	0	2352	3	590	105
31	0	0	1774	3	593	105
32	0	0	1132	3	595	105
33	0	0	648	3	598	105
34	0	0	368	4	600	104
35	0	0	214	3	604	105
36	0	0	128	4	604	105
37	0	0	83	3	607	105
38	0	0	265	4	607	105
39	0	0	853	5	606	105
40	0	0	1738	5	601	106
41	0	0	2626	4	601	105
42	0	0	3208	5	599	105
43	0	0	3562	5	595	106
44	0	0	3770	5	593	105
45	0	0	3887	5	590	105
46	0	0	3953	4	587	105
47	0	0	3987	4	586	105
48	0	0	3460	4	587	105
49	0	0	2946	4	587	104
50	0	0	2384	4	588	105
51	0	0	1799	4	592	105
52	0	0	1154	3	595	105
53	0	0	660	3	597	106
54	0	0	376	4	600	105
55	0	0	216	4	604	105
56	0	0	130	4	606	105
57	0	0	85	3	606	105
58	0	0	222	4	607	105
59	0	0	803	5	607	105
60	0	0	1682	5	605	105
61	0	0	2581	5	601	105
62	0	0	3188	4	596	105
63	0	0	3547	5	594	104
64	0	0	3760	5	593	105
65	0	0	3882	5	591	105
66	0	0	3950	5	589	105
67	0	0	3987	5	587	105
68	0	0	3486	4	587	104
69	0	0	2951	4	588	104
70	0	0	2388	4	589	105
71	0	0	1798	4	591	104
72	0	0	1133	4	594	105
73	0	0	652	4	597	105
74	0	0	370	3	601	105
75	0	0	213	3	605	105
76	0	0	128	3	607	105
77	0	0	84	4	609	104
78	0	0	185	5	611	106
79	0	0	788	4	608	105
80	0	0	1708	5	605	105
81	0	0	2628	5	602	105
82	0	0	3216	5	599	105
83	0	0	3563	5	598	105
84	0	0	3772	4	593	104
85	0	0	3889	5	589	105
86	0	0	3955	5	587	104
87	0	0	3989	5	587	105
88	0	0	3464	4	589	105
89	0	0	2923	4	588	105
90	0	0	2317	4	588	105
91	0	0	1701	4	591	105
92	0	0	1028	3	594	105
93	0	0	588	3	597	104
94	0	0	337	4	599	105
95	0	0	195	4	605	105
96	0	0	118	2	607	104
97	0	0	80	4	609	105
98	0	0	195	5	609	105
99	0	0	791	5	607	105
100	0	0	1671	4	605	105
101	0	0	2611	5	603	105
102	0	0	3206	5	598	105
103	0	0	3561	5	596	104
104	0	0	3768	5	591	104
105	0	0	3889	5	588	104
106	0	0	3956	5	587	104
107	0	0	3991	5	585	105
108	0	0	3603	4	586	105
109	0	0	3084	4	586	105
110	0	0	2501	4	589	105
111	0	0	1911	3	591	105
112	0	0	1225	3	593	105
113	0	0	702	4	597	105
114	0	0	403	4	596	104
115	0	0	231	4	603	105
116	0	0	139	4	608	105
117	0	0	89	3	609	105
118	0	0	216	4	609	106
119	0	0	841	5	605	105
120	0	0	1779	5	603	104
121	0	0	2677	5	601	105
122	0	0	3244	5	599	104
123	0	0	3584	5	595	105
124	0	0	3781	5	592	105
125	0	0	3894	5	589	105
126	0	0	3957	5	587	105
127	0	0	3990	5	585	104
0	0	0	3562	4	586	105
1	0	0	3023	4	586	104
2	0	0	2447	4	585	105
3	0	0	1856	3	592	105
4	0	0	1165	3	593	105
5	0	0	666	4	598	105
6	0	0	378	3	599	105
7	0	0	217	4	604	105
8	0	0	130	4	607	104
9	0	0	83	4	607	104
10	0	0	206	5	608	105
11	0	0	820	5	606	104
12	0	0	1737	5	602	105
13	0	0	2644	5	601	105
14	0	0	3224	5	597	104
15	0	0	3571	5	594	105
16	0	0	3775	5	592	104
17	0	0	3890	5	589	105
18	0	0	3953	5	584	105
19	0	0	3989	5	587	104
20	0	0	3561	4	585	105
21	0	0	3036	4	586	104
22	0	0	2470	3	588	105
23	0	0	1870	3	589	105
24	0	0	1198	3	593	105
25	0	0	685	4	596	105
26	0	0	388	4	597	104
27	0	0	223	3	602	105
28	0	0	131	3	604	105
29	0	0	84	3	607	105
30	0	0	239	5	606	105
31	0	0	833	5	604	104
32	0	0	1720	4	603	105
33	0	0	2619	5	599	105
34	0	0	3204	3	596	105
35	0	0	3559	5	594	104
36	0	0	3766	5	592	104
37	0	0	3885	5	589	105
38	0	0	3949	5	586	105
39	0	0	3985	5	587	105
40	0	0	3497	4	587	105
41	0	0	2976	4	586	105
42	0	0	2402	3	588	105
43	0	0	1817	4	591	105
44	0	0	1169	4	595	105
45	0	0	669	4	596	105
46	0	0	381	4	599	105
47	0	0	218	4	603	105
48	0	0	129	4	605	105
49	0	0	84	4	606	105
50	0	0	255	5	606	105
51	0	0	862	5	607	104
52	0	0	1731	5	603	105
53	0	0	2627	5	601	104
54	0	0	3214	5	598	105
55	0	0	3563	5	595	105
56	0	0	3767	5	592	105
57	0	0	3885	5	591	105
58	0	0	3950	5	587	105
59	0	0	3984	4	587	105
60	0	0	3462	4	587	105
61	0	0	2952	4	588	105
62	0	0	2404	3	591	105
63	0	0	1856	4	591	105
64	0	0	1227	4	594	105
65	0	0	710	4	598	105
66	0	0	405	4	597	105
67	0	0	230	4	603	105
68	0	0	135	4	606	105
69	0	0	85	3	607	105
70	0	0	287	4	608	105
71	0	0	884	5	606	104
72	0	0	1753	5	603	105
73	0	0	2636	5	599	105
74	0	0	3217	5	598	106
75	0	0	3566	5	596	105
76	0	0	3768	5	591	105
77	0	0	3885	5	591	105
78	0	0	3950	5	587	105
79	0	0	3983	5	588	105
80	0	0	3494	4	588	105
81	0	0	2989	4	589	105
82	0	0	2455	4	589	105
83	0	0	1905	4	591	104
84	0	0	1276	4	595	105
85	0	0	742	4	598	105
86	0	0	420	4	600	105
87	0	0	240	4	603	105
88	0	0	139	4	605	106
89	0	0	86	2	608	105
90	0	0	278	4	608	105
91	0	0	869	4	607	105
92	0	0	1727	4	603	105
93	0	0	2604	5	600	105
94	0	0	3198	5	597	105
95	0	0	3553	5	595	105
96	0	0	3761	5	592	105
97	0	0	3880	5	591	105
98	0	0	3945	5	589	105
99	0	0	3980	5	587	105
100	0	0	3510	4	589	105
101	0	0	2993	4	589	105
102	0	0	2451	4	590	105
103	0	0	1891	4	592	105
104	0	0	1268	3	594	105
105	0	0	738	4	597	105
106	0	0	417	3	601	105
107	0	0	236	4	603	105
108	0	0	137	3	605	104
109	0	0	85	4	608	106
110	0	0	297	4	606	105
111	0	0	890	4	606	105
112	0	0	1753	5	603	104
113	0	0	2630	5	600	106
114	0	0	3208	5	599	105
115	0	0	3559	5	596	105
116	0	0	3763	5	593	105
117	0	0	3878	5	592	105
118	0	0	3943	5	589	105
119	0	0	3979	5	589	105
120	0	0	3502	4	589	105
121	0	0	3005	4	589	105
122	0	0	2454	3	590	105
123	0	0	1888	4	592	105
124	0	0	1266	4	595	105
125	0	0	738	4	598	105
126	0	0	415	4	600	106
127	0	0	233	4	603	105
0	0	0	136	3	605	105
1	0	0	82	4	607	105
2	0	0	314	5	607	105
3	0	0	903	5	607	105
4	0	0	1750	5	605	105
5	0	0	2629	5	601	105
6	0	0	3206	5	598	105
7	0	0	3557	5	595	106
8	0	0	3762	5	594	105
9	0	0	3878	5	592	105
10	0	0	3943	5	589	104
11	0	0	3978	4	589	105
12	0	0	3468	4	588	104
13	0	0	2976	4	589	105
14	0	0	2454	4	591	105
15	0	0	1915	4	592	105
16	0	0	1302	4	596	105
17	0	0	776	3	597	105
18	0	0	436	4	600	105
19	0	0	244	4	603	105
20	0	0	141	3	605	104
21	0	0	84	4	607	105
22	0	0	310	4	606	106
23	0	0	906	5	605	105
24	0	0	1738	5	605	105
25	0	0	2616	4	602	105
26	0	0	3197	5	598	105
27	0	0	3552	4	596	104
28	0	0	3757	5	593	105
29	0	0	3876	5	592	105
30	0	0	3940	5	589	105
31	0	0	3974	5	590	105
32	0	0	3503	4	589	105
33	0	0	3009	4	589	104
34	0	0	2483	4	592	105
35	0	0	1945	4	593	105
36	0	0	1332	4	595	105
37	0	0	797	3	597	106
38	0	0	448	4	599	104
39	0	0	249	4	602	105
40	0	0	142	4	606	103
41	0	0	84	4	608	105
42	0	0	271	4	608	105
43	0	0	852	5	605	105
44	0	0	1684	5	604	105
45	0	0	2572	5	601	105
46	0	0	3176	5	598	105
47	0	0	3534	5	596	105
48	0	0	3745	5	594	105
49	0	0	3868	5	592	105
50	0	0	3934	5	590	105
51	0	0	3971	4	589	105
52	0	0	3518	4	589	105
53	0	0	3017	4	589	105
54	0	0	2495	4	591	105
55	0	0	1959	3	594	104
56	0	0	1344	3	596	105
57	0	0	807	3	598	106
58	0	0	453	3	600	105
59	0	0	251	4	603	105
60	0	0	140	4	606	104
61	0	0	82	4	608	105
62	0	0	275	4	608	105
63	0	0	872	5	606	104
64	0	0	1700	5	602	105
65	0	0	2587	5	600	105
66	0	0	3183	5	599	105
67	0	0	3536	5	596	105
68	0	0	3746	5	594	106
69	0	0	3868	5	593	105
70	0	0	3934	5	589	104
71	0	0	3970	5	590	105
72	0	0	3505	4	590	105
73	0	0	3001	4	589	105
74	0	0	2461	4	591	105
75	0	0	1906	3	591	104
76	0	0	1285	3	596	105
77	0	0	752	3	599	106
78	0	0	423	3	600	105
79	0	0	234	4	602	105
80	0	0	130	4	606	104
81	0	0	77	4	606	105
82	0	0	283	4	606	105
83	0	0	880	5	605	106
84	0	0	1716	5	604	105
85	0	0	2594	6	602	105
86	0	0	3186	5	598	105
87	0	0	3542	5	597	105
88	0	0	3747	5	593	105
89	0	0	3867	4	591	105
90	0	0	3932	5	590	105
91	0	0	3968	4	589	105
92	0	0	3501	4	591	105
93	0	0	3000	4	589	106
94	0	0	2470	4	591	105
95	0	0	1932	4	593	105
96	0	0	1317	4	596	105
97	0	0	779	3	598	105
98	0	0	438	4	600	105
99	0	0	241	4	603	105
100	0	0	134	4	606	104
101	0	0	77	4	609	105
102	0	0	286	4	607	105
103	0	0	876	5	607	105
104	0	0	1701	5	604	105
105	0	0	2564	5	601	105
106	0	0	3168	4	599	104
107	0	0	3529	4	597	105
108	0	0	3739	5	595	104
109	0	0	3861	5	592	105
110	0	0	3929	5	590	104
111	0	0	3964	4	589	105
112	0	0	3520	3	591	105
113	0	0	3023	3	590	105
114	0	0	2503	4	591	105
115	0	0	1966	4	593	104
116	0	0	1343	4	595	104
117	0	0	793	4	599	105
118	0	0	441	4	600	106
119	0	0	244	4	603	105
120	0	0	134	4	605	104
121	0	0	76	4	607	105
122	0	0	259	5	607	105
123	0	0	833	4	605	104
124	0	0	1658	5	604	105
125	0	0	2532	5	603	105
126	0	0	3149	4	599	105
127	0	0	3516	5	598	105
0	0	0	3735	5	595	105
1	0	0	3855	6	592	105
2	0	0	3923	5	589	105
3	0	0	3962	5	590	105
4	0	0	3534	3	590	105
5	0	0	3028	4	590	104
6	0	0	2511	4	592	105
7	0	0	1963	3	594	105
8	0	0	1343	4	595	105
9	0	0	796	4	597	105
10	0	0	443	4	600	105
11	0	0	244	4	602	105
12	0	0	133	4	606	104
13	0	0	75	3	606	105
14	0	0	271	5	606	104
15	0	0	870	4	605	105
16	0	0	1701	5	605	105
17	0	0	2574	5	603	105
18	0	0	3173	3	599	105
19	0	0	3529	5	597	105
20	0	0	3742	5	595	105
21	0	0	3858	6	593	105
22	0	0	3925	5	592	104
23	0	0	3963	5	590	105
24	0	0	3516	4	590	105
25	0	0	3017	4	590	104
26	0	0	2480	4	592	105
27	0	0	1937	4	592	105
28	0	0	1332	5	596	105
29	0	0	789	3	597	105
30	0	0	438	4	601	104
31	0	0	241	4	603	105
32	0	0	130	4	605	105
33	0	0	72	3	606	105
34	0	0	272	4	607	105
35	0	0	852	4	606	105
36	0	0	1667	5	603	105
37	0	0	2553	3	602	104
38	0	0	3153	5	599	105
39	0	0	3517	5	597	105
40	0	0	3731	5	595	104
41	0	0	3853	5	594	105
42	0	0	3921	5	591	105
43	0	0	3959	4	591	105
44	0	0	3480	4	590	105
45	0	0	2986	4	590	104
46	0	0	2474	3	594	105
47	0	0	1943	4	594	105
48	0	0	1340	4	597	105
49	0	0	805	3	598	105
50	0	0	447	3	601	105
51	0	0	243	4	604	105
52	0	0	132	4	606	105
53	0	0	72	4	606	105
54	0	0	282	4	607	105
55	0	0	857	4	606	105
56	0	0	1660	5	603	105
57	0	0	2533	5	601	105
58	0	0	3142	5	600	105
59	0	0	3509	5	598	105
60	0	0	3727	5	594	104
61	0	0	3852	5	592	105
62	0	0	3920	4	593	105
63	0	0	3957	5	591	105
64	0	0	3499	4	591	105
65	0	0	3004	4	590	104
66	0	0	2497	4	592	105
67	0	0	1966	4	595	105
68	0	0	1353	5	596	105
69	0	0	824	4	599	105
70	0	0	456	4	601	104
71	0	0	248	4	603	105
72	0	0	134	4	605	105
73	0	0	72	4	608	105
74	0	0	275	4	607	105
75	0	0	841	6	606	105
76	0	0	1633	5	605	105
77	0	0	2496	5	602	105
78	0	0	3122	4	598	105
79	0	0	3495	5	598	105
80	0	0	3717	5	595	105
81	0	0	3846	5	593	105
82	0	0	3917	5	592	105
83	0	0	3954	5	591	105
84	0	0	3482	4	592	105
85	0	0	2986	4	593	104
86	0	0	2492	5	593	105
87	0	0	1968	4	596	105
88	0	0	1367	5	597	105
89	0	0	849	3	599	105
90	0	0	473	3	601	104
91	0	0	258	4	605	105
92	0	0	138	4	607	105
93	0	0	74	4	608	105
94	0	0	308	4	608	105
95	0	0	888	4	606	104
96	0	0	1661	5	604	105
97	0	0	2504	5	601	105
98	0	0	3127	5	600	105
99	0	0	3497	5	597	105
100	0	0	3719	5	596	104
101	0	0	3845	5	595	105
102	0	0	3915	4	593	105
103	0	0	3953	4	592	105
104	0	0	3453	4	591	105
105	0	0	2964	4	592	104
106	0	0	2452	4	593	105
107	0	0	1925	4	596	105
108	0	0	1337	4	597	105
109	0	0	833	4	598	105
110	0	0	476	4	600	104
111	0	0	285	4	603	105
112	0	0	153	4	606	105
113	0	0	82	4	607	105
114	0	0	356	5	607	105
115	0	0	932	5	607	104
116	0	0	1688	5	606	105
117	0	0	2513	5	601	105
118	0	0	3131	5	600	105
119	0	0	3501	5	598	105
120	0	0	3717	5	597	105
121	0	0	3843	5	594	105
122	0	0	3915	5	592	105
123	0	0	3855	4	591	105
124	0	0	3351	4	591	105
125	0	0	2888	4	593	105
126	0	0	2429	4	593	105
127	0	0	1959	4	595	104
0	0	0	1413	4	597	104
1	0	0	927	4	599	105
2	0	0	580	3	602	103
3	0	0	381	3	604	105
4	0	0	205	3	607	105
5	0	0	111	4	607	105
6	0	0	410	4	607	104
7	0	0	967	4	608	104
8	0	0	1695	5	605	105
9	0	0	2499	5	604	105
10	0	0	3081	5	599	105
11	0	0	3452	5	599	105
12	0	0	3687	5	595	104
13	0	0	3806	5	595	105
14	0	0	3874	5	593	104
15	0	0	3748	5	591	105
16	0	0	3303	4	592	105
17	0	0	2856	4	594	103
18	0	0	2409	4	595	105
19	0	0	1965	4	595	105
20	0	0	1439	4	598	105
21	0	0	970	4	600	105
22	0	0	641	3	601	104
23	0	0	450	4	604	105
24	0	0	245	4	605	105
25	0	0	131	4	608	104
26	0	0	452	5	608	105
27	0	0	981	5	606	105
28	0	0	1692	5	605	105
29	0	0	2443	5	603	105
30	0	0	3020	5	600	105
31	0	0	3402	5	599	105
32	0	0	3634	5	598	104
33	0	0	3735	5	595	105
34	0	0	3804	5	592	105
35	0	0	3645	4	591	105
36	0	0	3227	4	593	105
37	0	0	2799	3	593	105
38	0	0	2365	4	595	105
39	0	0	1926	4	595	105
40	0	0	1419	4	597	105
41	0	0	986	3	600	105
42	0	0	669	4	602	103
43	0	0	499	3	605	105
44	0	0	278	4	607	105
45	0	0	149	4	607	105
46	0	0	537	4	607	105
47	0	0	1065	5	607	104
48	0	0	1738	6	604	105
49	0	0	2453	5	602	106
50	0	0	2995	5	601	105
51	0	0	3347	5	599	105
52	0	0	3561	5	596	105
53	0	0	3641	5	595	105
54	0	0	3698	5	592	106
55	0	0	3550	3	593	105
56	0	0	3155	4	594	105
57	0	0	2761	4	593	104
58	0	0	2338	3	595	105
59	0	0	1900	4	596	105
60	0	0	1425	4	599	105
61	0	0	1013	4	599	104
62	0	0	733	3	603	105
63	0	0	607	3	603	105
64	0	0	352	4	607	105
65	0	0	191	5	607	105
66	0	0	638	4	608	105
67	0	0	1140	5	607	104
68	0	0	1780	5	605	105
69	0	0	2467	5	604	105
70	0	0	2968	5	601	105
71	0	0	3287	5	599	105
72	0	0	3480	5	595	104
73	0	0	3558	5	596	105
74	0	0	3582	5	595	105
75	0	0	3423	4	594	105
76	0	0	3043	4	594	105
77	0	0	2677	4	594	105
78	0	0	2299	3	596	105
79	0	0	1906	4	597	105
80	0	0	1471	3	597	105
81	0	0	1095	4	601	105
82	0	0	833	4	603	104
83	0	0	707	5	605	105
84	0	0	428	3	606	106
85	0	0	312	5	607	105
86	0	0	731	5	608	105
87	0	0	1190	5	607	105
88	0	0	1788	4	605	105
89	0	0	2442	5	603	104
90	0	0	2897	4	602	105
91	0	0	3184	5	601	105
92	0	0	3369	5	596	104
93	0	0	3453	4	597	105
94	0	0	3516	5	594	105
95	0	0	3384	4	593	105
96	0	0	3021	4	594	105
97	0	0	2653	4	594	105
98	0	0	2281	3	595	105
99	0	0	1920	4	597	105
100	0	0	1499	4	598	105
101	0	0	1139	3	601	105
102	0	0	884	4	603	105
103	0	0	754	3	605	105
104	0	0	463	4	607	105
105	0	0	395	6	608	105
106	0	0	775	4	607	105
107	0	0	1210	5	607	104
108	0	0	1783	4	606	105
109	0	0	2414	4	605	105
110	0	0	2875	5	601	104
111	0	0	3159	4	600	105
112	0	0	3335	5	598	105
113	0	0	3396	4	598	105
114	0	0	3441	5	595	105
115	0	0	3319	6	594	105
116	0	0	2974	4	595	105
117	0	0	2630	4	595	105
118	0	0	2278	3	596	105
119	0	0	1928	4	599	105
120	0	0	1525	4	598	105
121	0	0	1182	4	602	105
122	0	0	925	4	602	105
123	0	0	784	3	605	105
124	0	0	486	4	606	106
125	0	0	438	5	609	105
126	0	0	821	5	608	105
127	0	0	1256	5	606	104
0	0	0	1810	5	607	105
1	0	0	2421	5	604	105
2	0	0	2860	5	603	105
3	0	0	3126	5	601	105
4	0	0	3290	5	598	105
5	0	0	3345	5	597	105
6	0	0	3384	5	596	105
7	0	0	3258	4	595	105
8	0	0	2919	4	596	105
9	0	0	2588	4	596	104
10	0	0	2238	4	597	105
11	0	0	1877	4	597	105
12	0	0	1488	5	599	105
13	0	0	1169	5	602	105
14	0	0	953	4	603	105
15	0	0	853	3	606	105
16	0	0	566	3	607	105
17	0	0	538	5	610	105
18	0	0	898	5	608	105
19	0	0	1318	5	607	104
20	0	0	1849	4	606	105
21	0	0	2426	5	604	105
22	0	0	2841	4	603	105
23	0	0	3091	5	601	105
24	0	0	3242	5	598	105
25	0	0	3300	5	598	105
26	0	0	3320	5	597	104
27	0	0	3184	4	595	105
28	0	0	2854	5	593	105
29	0	0	2536	4	596	105
30	0	0	2226	3	595	105
31	0	0	1898	4	598	105
32	0	0	1524	3	601	105
33	0	0	1211	4	602	105
34	0	0	999	4	603	105
35	0	0	900	3	605	105
36	0	0	619	4	608	105
37	0	0	589	4	608	104
38	0	0	942	5	608	105
39	0	0	1347	4	609	105
40	0	0	1852	5	608	105
41	0	0	2412	4	605	104
42	0	0	2798	4	603	105
43	0	0	3025	5	601	105
44	0	0	3170	5	601	105
45	0	0	3232	4	599	105
46	0	0	3286	5	596	105
47	0	0	3176	5	594	105
48	0	0	2860	4	596	105
49	0	0	2545	4	595	105
50	0	0	2232	4	596	105
51	0	0	1912	5	598	105
52	0	0	1548	4	600	105
53	0	0	1238	4	604	105
54	0	0	1030	4	604	105
55	0	0	928	3	605	105
56	0	0	656	3	608	105
57	0	0	632	4	611	105
58	0	0	945	4	608	105
59	0	0	1317	5	609	105
60	0	0	1818	5	606	105
61	0	0	2367	5	605	105
62	0	0	2773	5	603	105
63	0	0	3020	5	602	105
64	0	0	3169	5	601	105
65	0	0	3229	5	599	105
66	0	0	3264	5	596	104
67	0	0	3154	4	596	106
68	0	0	2847	4	595	105
69	0	0	2533	3	597	105
70	0	0	2218	3	597	105
71	0	0	1906	5	599	104
72	0	0	1546	3	597	106
73	0	0	1246	4	602	105
74	0	0	1024	4	605	105
75	0	0	905	4	606	105
76	0	0	638	4	607	105
77	0	0	617	5	609	104
78	0	0	960	4	609	105
79	0	0	1355	5	610	105
80	0	0	1846	5	608	105
81	0	0	2387	5	605	105
82	0	0	2788	5	603	104
83	0	0	3029	5	601	105
84	0	0	3174	5	601	105
85	0	0	3219	4	600	105
86	0	0	3251	5	598	105
87	0	0	3135	5	597	105
88	0	0	2828	4	597	105
89	0	0	2525	4	596	105
90	0	0	2203	3	598	105
91	0	0	1876	5	600	105
92	0	0	1530	4	600	105
93	0	0	1237	4	603	105
94	0	0	1043	3	604	105
95	0	0	944	4	606	105
96	0	0	680	3	609	105
97	0	0	650	4	608	106
98	0	0	979	4	609	105
99	0	0	1365	5	609	105
100	0	0	1860	4	608	106
101	0	0	2393	5	605	105
102	0	0	2781	5	605	104
103	0	0	3006	4	601	105
104	0	0	3137	5	600	105
105	0	0	3187	5	598	105
106	0	0	3203	5	597	105
107	0	0	3079	4	597	105
108	0	0	2780	3	597	105
109	0	0	2485	4	598	105
110	0	0	2197	2	598	105
111	0	0	1899	4	601	105
112	0	0	1561	3	602	105
113	0	0	1271	3	602	105
114	0	0	1068	3	604	105
115	0	0	976	4	607	105
116	0	0	714	4	608	105
117	0	0	678	5	610	104
118	0	0	1005	4	610	105
119	0	0	1378	5	609	104
120	0	0	1857	5	608	105
121	0	0	2388	5	606	105
122	0	0	2753	5	604	104
123	0	0	2965	5	603	105
124	0	0	3102	5	599	105
125	0	0	3153	5	599	105
126	0	0	3192	5	598	104
127	0	0	3100	4	597	105
0	0	0	2805	4	599	105
1	0	0	2509	4	597	105
2	0	0	2218	5	598	105
3	0	0	1912	4	600	105
4	0	0	1571	3	601	105
5	0	0	1275	3	603	105
6	0	0	1076	4	604	105
7	0	0	980	4	607	105
8	0	0	724	4	609	105
9	0	0	688	5	609	104
10	0	0	989	4	610	105
11	0	0	1347	4	610	105
12	0	0	1823	5	609	105
13	0	0	2353	5	606	105
14	0	0	2737	5	605	105
15	0	0	2973	4	602	105
16	0	0	3113	5	600	105
17	0	0	3163	5	601	105
18	0	0	3201	5	598	105
19	0	0	3107	4	598	105
20	0	0	2809	3	598	105
21	0	0	2507	4	598	105
22	0	0	2206	4	598	105
23	0	0	1904	4	599	105
24	0	0	1562	4	601	105
25	0	0	1278	3	602	105
26	0	0	1058	4	606	105
27	0	0	942	4	607	105
28	0	0	692	4	610	105
29	0	0	660	5	612	105
30	0	0	985	4	611	105
31	0	0	1367	4	610	104
32	0	0	1844	4	609	105
33	0	0	2371	5	607	105
34	0	0	2753	5	605	104
35	0	0	2985	4	603	105
36	0	0	3125	5	602	105
37	0	0	3179	5	600	105
38	0	0	3214	5	599	105
39	0	0	3114	4	597	104
40	0	0	2813	3	599	105
41	0	0	2518	4	599	104
42	0	0	2212	4	599	105
43	0	0	1892	4	602	105
44	0	0	1543	4	603	105
45	0	0	1257	3	604	105
46	0	0	1062	4	606	105
47	0	0	968	3	609	105
48	0	0	715	4	611	105
49	0	0	676	5	610	104
50	0	0	996	4	610	105
51	0	0	1376	5	610	105
52	0	0	1848	5	608	105
53	0	0	2376	5	607	105
54	0	0	2759	5	605	104
55	0	0	2988	4	604	105
56	0	0	3130	5	601	105
57	0	0	3185	5	599	105
58	0	0	3195	5	599	104
59	0	0	3075	4	599	104
60	0	0	2779	4	599	105
61	0	0	2484	4	599	105
62	0	0	2201	4	599	105
63	0	0	1908	4	600	105
64	0	0	1565	3	602	105
65	0	0	1271	4	604	105
66	0	0	1073	4	605	105
67	0	0	972	3	608	105
68	0	0	710	3	610	105
69	0	0	662	5	611	105
70	0	0	985	5	612	105
71	0	0	1371	5	611	105
72	0	0	1840	5	608	106
73	0	0	2380	5	608	104
74	0	0	2752	5	606	104
75	0	0	2966	4	603	105
76	0	0	3096	5	602	105
77	0	0	3155	4	600	105
78	0	0	3186	4	599	105
79	0	0	3105	4	599	105
80	0	0	2819	3	598	105
81	0	0	2514	4	598	105
82	0	0	2221	4	598	105
83	0	0	1924	4	601	104
84	0	0	1582	4	603	105
85	0	0	1284	4	605	105
86	0	0	1078	4	607	105
87	0	0	977	4	608	105
88	0	0	713	3	610	105
89	0	0	663	4	611	105
90	0	0	955	3	610	105
91	0	0	1323	4	611	104
92	0	0	1796	5	608	105
93	0	0	2341	5	607	105
94	0	0	2746	5	607	105
95	0	0	2985	6	604	105
96	0	0	3131	5	602	105
97	0	0	3187	5	601	105
98	0	0	3223	5	599	105
99	0	0	3133	4	598	105
100	0	0	2841	4	600	105
101	0	0	2531	4	599	105
102	0	0	2238	4	600	105
103	0	0	1927	3	601	105
104	0	0	1578	4	603	105
105	0	0	1274	3	604	105
106	0	0	1043	4	606	105
107	0	0	928	4	608	104
108	0	0	683	4	611	105
109	0	0	634	5	613	104
110	0	0	959	4	610	105
111	0	0	1344	5	612	105
112	0	0	1824	5	609	105
113	0	0	2368	5	608	105
114	0	0	2766	5	607	105
115	0	0	3004	3	604	104
116	0	0	3147	5	603	105
117	0	0	3198	6	602	105
118	0	0	3229	5	599	104
119	0	0	3135	5	599	105
120	0	0	2834	5	600	105
121	0	0	2534	4	600	105
122	0	0	2221	4	600	105
123	0	0	1892	4	602	105
124	0	0	1540	4	604	105
125	0	0	1241	2	605	105
126	0	0	1040	4	607	105
127	0	0	946	4	609	105
0	0	0	701	4	612	104
1	0	0	648	5	612	105
2	0	0	975	3	612	105
3	0	0	1359	4	613	105
4	0	0	1833	5	610	105
5	0	0	2370	5	609	104
6	0	0	2759	5	605	105
7	0	0	2997	4	606	105
8	0	0	3136	5	604	105
9	0	0	3200	5	601	105
10	0	0	3218	5	601	105
11	0	0	3107	4	599	104
12	0	0	2809	3	598	105
13	0	0	2513	4	601	105
14	0	0	2219	5	599	105
15	0	0	1915	4	601	105
16	0	0	1571	4	604	105
17	0	0	1273	4	605	105
18	0	0	1067	4	608	105
19	0	0	968	4	608	105
20	0	0	720	4	612	105
21	0	0	653	5	613	105
22	0	0	966	4	612	105
23	0	0	1348	5	612	105
24	0	0	1817	5	610	105
25	0	0	2359	5	609	105
26	0	0	2734	5	608	105
27	0	0	2959	5	604	105
28	0	0	3105	5	604	104
29	0	0	3171	5	601	105
30	0	0	3215	5	600	105
31	0	0	3133	4	602	105
32	0	0	2842	3	600	105
33	0	0	2528	4	599	105
34	0	0	2232	4	600	105
35	0	0	1926	3	602	106
36	0	0	1577	3	604	105
37	0	0	1278	4	607	105
38	0	0	1069	4	608	106
39	0	0	967	4	609	105
40	0	0	718	4	610	104
41	0	0	660	4	612	105
42	0	0	949	4	613	105
43	0	0	1315	5	612	104
44	0	0	1786	5	610	105
45	0	0	2341	5	608	104
46	0	0	2749	5	606	105
47	0	0	2988	5	605	105
48	0	0	3135	5	602	105
49	0	0	3194	5	602	105
50	0	0	3223	5	602	105
51	0	0	3140	4	600	105
52	0	0	2850	4	601	104
53	0	0	2545	4	602	105
54	0	0	2253	4	603	105
55	0	0	1942	4	603	105
56	0	0	1592	4	605	105
57	0	0	1288	2	606	104
58	0	0	1061	4	608	105
59	0	0	936	5	611	105
60	0	0	678	4	612	105
61	0	0	618	4	615	105
62	0	0	943	5	615	105
63	0	0	1335	4	612	105
64	0	0	1810	5	612	105
65	0	0	2360	4	609	105
66	0	0	2766	5	607	105
67	0	0	3011	4	604	105
68	0	0	3163	5	604	105
69	0	0	3219	5	603	105
70	0	0	3238	5	602	105
71	0	0	3153	4	599	105
72	0	0	2863	4	600	105
73	0	0	2559	4	601	104
74	0	0	2237	3	602	105
75	0	0	1918	4	601	104
76	0	0	1571	3	603	105
77	0	0	1268	4	607	105
78	0	0	1065	5	609	105
79	0	0	961	4	611	105
80	0	0	706	4	613	104
81	0	0	641	4	612	104
82	0	0	958	4	614	105
83	0	0	1350	5	612	105
84	0	0	1820	5	611	105
85	0	0	2359	5	609	104
86	0	0	2767	5	606	105
87	0	0	3008	5	605	104
88	0	0	3150	5	605	104
89	0	0	3206	5	603	105
90	0	0	3208	5	602	105
91	0	0	3108	4	599	105
92	0	0	2827	4	602	105
93	0	0	2526	4	601	105
94	0	0	2233	4	602	105
95	0	0	1930	3	602	105
96	0	0	1585	4	605	105
97	0	0	1282	3	607	105
98	0	0	1071	4	608	105
99	0	0	970	4	610	105
100	0	0	729	3	613	104
101	0	0	657	5	614	105
102	0	0	965	5	613	106
103	0	0	1349	5	614	105
104	0	0	1810	5	611	105
105	0	0	2350	5	610	105
106	0	0	2732	5	607	104
107	0	0	2959	5	606	105
108	0	0	3105	5	604	105
109	0	0	3173	4	606	105
110	0	0	3210	5	601	104
111	0	0	3132	4	601	105
112	0	0	2855	4	601	105
113	0	0	2544	4	600	105
114	0	0	2251	4	602	105
115	0	0	1939	4	603	104
116	0	0	1589	4	607	104
117	0	0	1284	4	608	105
118	0	0	1072	4	609	104
119	0	0	973	4	611	105
120	0	0	723	4	614	104
121	0	0	652	4	614	105
122	0	0	941	4	614	105
123	0	0	1308	5	614	105
124	0	0	1781	5	613	105
125	0	0	2335	4	609	105
126	0	0	2741	5	610	105
127	0	0	2988	5	607	105
0	0	0	3136	4	605	105
1	0	0	3196	5	603	105
2	0	0	3230	4	602	105
3	0	0	3152	4	601	105
4	0	0	2863	4	601	105
5	0	0	2554	5	602	105
6	0	0	2254	4	602	105
7	0	0	1939	4	603	105
8	0	0	1592	3	605	105
9	0	0	1289	3	608	105
10	0	0	1055	4	609	105
11	0	0	932	5	611	105
12	0	0	693	4	613	105
13	0	0	624	5	615	105
14	0	0	938	4	615	104
15	0	0	1322	5	614	105
16	0	0	1797	5	612	105
17	0	0	2345	5	610	105
18	0	0	2747	5	609	105
19	0	0	2996	5	608	105
20	0	0	3148	5	607	105
21	0	0	3213	5	603	105
22	0	0	3243	6	601	104
23	0	0	3160	4	602	105
24	0	0	2859	4	602	105
25	0	0	2551	4	601	105
26	0	0	2234	4	602	105
27	0	0	1907	4	605	105
28	0	0	1561	4	606	105
29	0	0	1266	4	607	105
30	0	0	1062	4	609	104
31	0	0	959	3	613	105
32	0	0	717	3	616	105
33	0	0	640	4	614	104
34	0	0	954	5	615	105
35	0	0	1343	5	614	104
36	0	0	1802	5	613	105
37	0	0	2353	6	611	104
38	0	0	2760	5	610	105
39	0	0	3000	5	607	105
40	0	0	3149	5	606	105
41	0	0	3207	5	604	105
42	0	0	3207	5	602	105
43	0	0	3109	4	602	104
44	0	0	2818	4	601	104
45	0	0	2516	6	603	105
46	0	0	2237	4	602	104
47	0	0	1934	4	605	106
48	0	0	1598	3	605	104
49	0	0	1297	4	609	105
50	0	0	1083	4	611	105
51	0	0	976	4	612	105
52	0	0	726	4	614	104
53	0	0	645	4	616	105
54	0	0	949	5	616	105
55	0	0	1333	4	615	105
56	0	0	1793	5	613	105
57	0	0	2349	5	611	105
58	0	0	2751	5	609	105
59	0	0	2972	5	608	105
60	0	0	3112	5	607	104
61	0	0	3170	5	604	105
62	0	0	3189	5	604	105
63	0	0	3126	4	602	105
64	0	0	2845	4	603	105
65	0	0	2538	4	603	105
66	0	0	2252	4	604	105
67	0	0	1952	4	605	105
68	0	0	1612	4	608	104
69	0	0	1298	4	608	105
70	0	0	1085	4	611	105
71	0	0	975	4	613	105
72	0	0	729	4	614	105
73	0	0	649	5	616	105
74	0	0	929	5	616	105
75	0	0	1298	5	615	105
76	0	0	1753	4	614	105
77	0	0	2305	4	613	105
78	0	0	2722	5	611	105
79	0	0	2977	4	609	105
80	0	0	3127	5	606	105
81	0	0	3193	5	605	105
82	0	0	3224	5	604	105
83	0	0	3149	4	603	105
84	0	0	2865	4	604	105
85	0	0	2554	4	603	105
86	0	0	2262	4	602	105
87	0	0	1956	4	605	105
88	0	0	1603	4	608	105
89	0	0	1297	3	609	105
90	0	0	1069	4	610	105
91	0	0	944	4	612	105
92	0	0	704	4	616	105
93	0	0	632	5	617	105
94	0	0	940	5	616	105
95	0	0	1324	5	616	105
96	0	0	1791	5	613	105
97	0	0	2329	5	613	104
98	0	0	2736	5	609	104
99	0	0	2987	5	609	105
100	0	0	3137	5	607	105
101	0	0	3201	3	605	105
102	0	0	3229	5	603	105
103	0	0	3150	4	604	105
104	0	0	2860	4	604	105
105	0	0	2551	3	603	105
106	0	0	2238	4	603	105
107	0	0	1914	4	605	105
108	0	0	1567	4	607	105
109	0	0	1270	4	609	105
110	0	0	1067	4	611	105
111	0	0	964	3	613	105
112	0	0	738	3	616	105
113	0	0	657	4	615	105
114	0	0	957	4	615	105
115	0	0	1344	5	617	105
116	0	0	1800	6	614	105
117	0	0	2342	5	613	105
118	0	0	2752	5	610	103
119	0	0	2994	5	609	105
120	0	0	3134	5	607	105
121	0	0	3198	5	605	105
122	0	0	3198	5	605	105
123	0	0	3104	4	603	104
124	0	0	2825	4	603	105
125	0	0	2524	4	605	105
126	0	0	2239	4	605	105
127	0	0	1940	4	606	105
0	0	0	1601	4	607	103
1	0	0	1298	4	609	105
2	0	0	1087	4	612	105
3	0	0	982	4	614	105
4	0	0	746	4	615	105
5	0	0	659	4	616	104
6	0	0	956	5	618	105
7	0	0	1335	5	617	105
8	0	0	1781	5	615	105
9	0	0	2335	4	613	104
10	0	0	2726	5	611	104
11	0	0	2956	5	611	105
12	0	0	3099	5	607	105
