# bioPlux Text File Format
# Version: 1
# StartDateTime: 2011-07-19 11:05:51
# SamplingFrequency: 1000
# SampledChannels: 1 2 3 4
# SamplingResolution: 12
# AcquiringDevice: 00:07:80:42:0F:8B
# EndOfHeader
0	0	0	2332	9	2705	50
1	0	0	2324	9	2709	50
2	0	0	2328	10	2714	50
3	0	0	2336	9	2720	51
4	0	0	2276	6	2725	49
5	0	0	2174	5	2727	48
6	0	0	2075	7	2726	48
7	0	0	1977	8	2721	46
8	0	0	1891	7	2710	48
9	0	0	1840	8	2704	49
10	0	0	1824	7	2704	49
11	0	0	1781	7	2708	47
12	0	0	1725	7	2714	50
13	0	0	1710	11	2720	51
14	0	0	1771	11	2725	52
15	0	0	1886	10	2728	52
16	0	0	2011	11	2726	51
17	0	0	2172	12	2722	51
18	0	0	2311	10	2711	56
19	0	0	2400	7	2704	51
20	0	0	2420	10	2705	50
21	0	0	2394	7	2709	51
22	0	0	2362	7	2714	50
23	0	0	2317	6	2720	49
24	0	0	2268	5	2725	50
25	0	0	2203	6	2727	50
26	0	0	2124	5	2726	50
27	0	0	2034	6	2721	49
28	0	0	1943	6	2710	48
29	0	0	1843	6	2705	47
30	0	0	1778	7	2704	50
31	0	0	1746	7	2708	50
32	0	0	1719	7	2714	51
33	0	0	1753	11	2720	50
34	0	0	1840	12	2724	53
35	0	0	1973	10	2727	51
36	0	0	2083	10	2726	52
37	0	0	2190	11	2721	51
38	0	0	2303	10	2710	52
39	0	0	2357	10	2704	51
40	0	0	2360	8	2705	47
41	0	0	2341	10	2708	50
42	0	0	2351	10	2714	49
43	0	0	2333	7	2720	49
44	0	0	2280	8	2724	50
45	0	0	2195	5	2727	49
46	0	0	2071	6	2727	50
47	0	0	1972	7	2721	47
48	0	0	1899	7	2710	48
49	0	0	1821	7	2705	51
50	0	0	1772	7	2704	48
51	0	0	1754	8	2708	49
52	0	0	1752	12	2714	51
53	0	0	1766	11	2720	52
54	0	0	1826	12	2724	51
55	0	0	1938	9	2727	51
56	0	0	2062	11	2725	51
57	0	0	2162	7	2721	51
58	0	0	2225	10	2710	51
59	0	0	2277	11	2704	51
60	0	0	2318	9	2705	47
61	0	0	2344	8	2708	50
62	0	0	2352	7	2714	51
63	0	0	2353	9	2720	50
64	0	0	2331	8	2725	49
65	0	0	2271	6	2727	47
66	0	0	2185	6	2725	49
67	0	0	2056	3	2721	47
68	0	0	1899	5	2709	49
69	0	0	1787	8	2703	51
70	0	0	1732	7	2704	47
71	0	0	1721	11	2707	50
72	0	0	1760	7	2714	51
73	0	0	1836	10	2719	51
74	0	0	1928	11	2725	50
75	0	0	2003	11	2727	47
76	0	0	2052	10	2726	52
77	0	0	2127	7	2721	52
78	0	0	2215	10	2710	51
79	0	0	2330	10	2705	49
80	0	0	2392	10	2704	51
81	0	0	2383	11	2708	50
82	0	0	2349	7	2714	50
83	0	0	2286	6	2720	48
84	0	0	2198	7	2724	50
85	0	0	2126	6	2727	50
86	0	0	2049	7	2726	49
87	0	0	1972	3	2721	49
88	0	0	1889	6	2710	48
89	0	0	1802	7	2704	47
90	0	0	1760	11	2704	47
91	0	0	1753	8	2708	48
92	0	0	1752	11	2714	53
93	0	0	1801	11	2719	51
94	0	0	1922	11	2725	51
95	0	0	2014	9	2727	56
96	0	0	2078	11	2727	52
97	0	0	2143	8	2721	51
98	0	0	2211	10	2711	53
99	0	0	2287	10	2704	50
100	0	0	2333	10	2705	50
101	0	0	2362	10	2709	49
102	0	0	2365	8	2714	50
103	0	0	2344	9	2720	52
104	0	0	2329	13	2724	49
105	0	0	2288	10	2727	47
106	0	0	2188	6	2727	50
107	0	0	2079	4	2721	47
108	0	0	1973	6	2710	49
109	0	0	1866	7	2704	47
110	0	0	1797	9	2704	49
111	0	0	1796	11	2707	49
112	0	0	1812	11	2714	50
113	0	0	1847	11	2719	52
114	0	0	1912	11	2724	51
115	0	0	2008	11	2727	51
116	0	0	2090	11	2726	51
117	0	0	2149	11	2721	51
118	0	0	2213	10	2710	52
119	0	0	2277	10	2704	53
120	0	0	2330	11	2704	49
121	0	0	2363	10	2707	50
122	0	0	2360	8	2714	50
123	0	0	2319	6	2719	51
124	0	0	2279	10	2724	49
125	0	0	2203	8	2726	50
126	0	0	2096	6	2726	50
127	0	0	2014	3	2721	47
0	0	0	1954	7	2710	47
1	0	0	1869	7	2704	47
2	0	0	1803	7	2705	51
3	0	0	1774	9	2708	49
4	0	0	1779	10	2714	50
5	0	0	1786	11	2719	51
6	0	0	1816	11	2725	51
7	0	0	1891	9	2727	51
8	0	0	2003	11	2726	51
9	0	0	2135	8	2721	51
10	0	0	2256	10	2710	50
11	0	0	2337	10	2704	51
12	0	0	2382	11	2703	51
13	0	0	2415	10	2708	50
14	0	0	2406	6	2714	50
15	0	0	2379	8	2720	49
16	0	0	2370	11	2724	50
17	0	0	2315	8	2727	49
18	0	0	2184	6	2726	49
19	0	0	2060	7	2721	48
20	0	0	1941	6	2710	49
21	0	0	1842	5	2704	48
22	0	0	1781	5	2704	47
23	0	0	1759	10	2708	50
24	0	0	1777	11	2714	50
25	0	0	1829	11	2719	52
26	0	0	1909	11	2724	51
27	0	0	1992	9	2727	52
28	0	0	2076	11	2726	52
29	0	0	2161	8	2721	51
30	0	0	2244	11	2710	50
31	0	0	2321	10	2704	50
32	0	0	2381	10	2705	49
33	0	0	2408	9	2709	51
34	0	0	2397	8	2714	51
35	0	0	2375	8	2720	48
36	0	0	2328	5	2724	49
37	0	0	2256	5	2727	49
38	0	0	2169	7	2726	49
39	0	0	2028	3	2721	48
40	0	0	1916	5	2710	48
41	0	0	1829	5	2705	47
42	0	0	1725	8	2704	47
43	0	0	1667	7	2708	50
44	0	0	1695	10	2713	50
45	0	0	1804	12	2719	51
46	0	0	1922	11	2725	51
47	0	0	2035	11	2727	51
48	0	0	2151	9	2727	52
49	0	0	2229	10	2722	52
50	0	0	2273	10	2711	50
51	0	0	2312	9	2704	50
52	0	0	2348	12	2704	49
53	0	0	2352	10	2708	49
54	0	0	2340	9	2714	50
55	0	0	2295	8	2720	50
56	0	0	2220	7	2725	50
57	0	0	2145	8	2726	49
58	0	0	2071	8	2726	49
59	0	0	1999	6	2721	48
60	0	0	1920	4	2709	49
61	0	0	1818	6	2704	50
62	0	0	1782	8	2704	49
63	0	0	1770	8	2708	50
64	0	0	1788	11	2714	50
65	0	0	1889	11	2719	52
66	0	0	2019	9	2726	51
67	0	0	2121	11	2727	49
68	0	0	2222	11	2726	52
69	0	0	2274	11	2722	51
70	0	0	2292	11	2711	53
71	0	0	2326	10	2706	50
72	0	0	2324	12	2704	49
73	0	0	2300	9	2708	51
74	0	0	2297	10	2714	51
75	0	0	2290	11	2720	49
76	0	0	2268	7	2724	50
77	0	0	2226	8	2726	48
78	0	0	2158	5	2726	50
79	0	0	2088	7	2721	47
80	0	0	2011	6	2710	49
81	0	0	1923	7	2704	48
82	0	0	1842	7	2704	48
83	0	0	1817	9	2708	50
84	0	0	1807	10	2714	51
85	0	0	1834	11	2720	50
86	0	0	1928	8	2725	51
87	0	0	2023	12	2727	51
88	0	0	2103	11	2726	52
89	0	0	2158	10	2722	52
90	0	0	2220	11	2710	52
91	0	0	2309	9	2704	51
92	0	0	2366	10	2705	52
93	0	0	2377	10	2708	49
94	0	0	2380	9	2714	50
95	0	0	2359	7	2720	49
96	0	0	2306	4	2725	49
97	0	0	2226	8	2727	48
98	0	0	2116	7	2726	50
99	0	0	2003	7	2721	47
100	0	0	1884	6	2711	48
101	0	0	1785	7	2704	49
102	0	0	1748	10	2704	49
103	0	0	1748	11	2708	49
104	0	0	1759	11	2714	50
105	0	0	1774	10	2720	50
106	0	0	1853	12	2725	51
107	0	0	1978	15	2727	50
108	0	0	2114	11	2726	51
109	0	0	2225	11	2721	52
110	0	0	2270	10	2710	51
111	0	0	2287	11	2704	50
112	0	0	2269	7	2705	50
113	0	0	2248	9	2709	51
114	0	0	2278	11	2714	50
115	0	0	2271	7	2720	49
116	0	0	2212	6	2724	50
117	0	0	2149	7	2727	49
118	0	0	2065	7	2726	48
119	0	0	1979	3	2721	49
120	0	0	1904	7	2710	49
121	0	0	1820	6	2704	50
122	0	0	1755	7	2705	50
123	0	0	1752	10	2708	45
124	0	0	1800	10	2713	51
125	0	0	1873	7	2720	51
126	0	0	1958	11	2725	51
127	0	0	2015	11	2728	51
0	0	0	2096	11	2727	50
1	0	0	2197	12	2722	51
2	0	0	2273	10	2711	51
3	0	0	2344	12	2705	49
4	0	0	2403	10	2705	50
5	0	0	2407	9	2709	51
6	0	0	2363	6	2714	52
7	0	0	2306	6	2720	49
8	0	0	2238	7	2725	48
9	0	0	2184	5	2727	50
10	0	0	2137	6	2727	48
11	0	0	2045	6	2721	47
12	0	0	1956	8	2710	48
13	0	0	1874	6	2704	51
14	0	0	1803	7	2704	48
15	0	0	1785	11	2708	49
16	0	0	1798	11	2714	51
17	0	0	1815	10	2720	51
18	0	0	1853	11	2725	51
19	0	0	1906	9	2728	51
20	0	0	1979	11	2727	51
21	0	0	2023	10	2721	51
22	0	0	2081	10	2711	53
23	0	0	2217	10	2705	50
24	0	0	2348	7	2705	51
25	0	0	2439	10	2709	49
26	0	0	2458	9	2715	51
27	0	0	2401	10	2720	50
28	0	0	2307	9	2725	49
29	0	0	2214	6	2727	48
30	0	0	2117	6	2726	47
31	0	0	2001	6	2721	47
32	0	0	1904	6	2710	48
33	0	0	1811	7	2704	49
34	0	0	1735	7	2705	48
35	0	0	1697	7	2708	47
36	0	0	1694	11	2714	50
37	0	0	1749	11	2720	50
38	0	0	1832	13	2725	50
39	0	0	1916	12	2728	51
40	0	0	1988	10	2727	50
41	0	0	2035	11	2721	51
42	0	0	2070	10	2710	52
43	0	0	2118	9	2705	51
44	0	0	2155	10	2705	51
45	0	0	2199	10	2709	50
46	0	0	2241	10	2714	51
47	0	0	2252	10	2720	50
48	0	0	2231	7	2725	49
49	0	0	2193	5	2727	49
50	0	0	2132	7	2726	47
51	0	0	2052	6	2721	47
52	0	0	1985	7	2711	47
53	0	0	1941	7	2704	47
54	0	0	1915	8	2705	48
55	0	0	1939	11	2708	47
56	0	0	2011	11	2714	51
57	0	0	2102	11	2720	52
58	0	0	2221	11	2725	51
59	0	0	2362	10	2727	51
60	0	0	2525	11	2727	51
61	0	0	2669	16	2720	52
62	0	0	2776	10	2710	52
63	0	0	2863	10	2704	51
64	0	0	2946	8	2705	50
65	0	0	3006	10	2708	47
66	0	0	3033	10	2713	49
67	0	0	3003	7	2719	50
68	0	0	2914	8	2724	49
69	0	0	2804	5	2727	49
70	0	0	2714	7	2725	50
71	0	0	2643	7	2721	48
72	0	0	2576	7	2710	48
73	0	0	2481	7	2704	48
74	0	0	2399	6	2704	48
75	0	0	2315	7	2708	47
76	0	0	2227	7	2714	50
77	0	0	2179	9	2719	54
78	0	0	2194	10	2725	51
79	0	0	2224	10	2727	52
80	0	0	2276	11	2727	51
81	0	0	2311	11	2721	52
82	0	0	2304	10	2710	50
83	0	0	2306	10	2704	51
84	0	0	2280	7	2704	51
85	0	0	2210	7	2707	52
86	0	0	2156	7	2714	52
87	0	0	2113	6	2720	49
88	0	0	2052	6	2724	49
89	0	0	1995	6	2727	49
90	0	0	1944	7	2726	47
91	0	0	1889	8	2722	50
92	0	0	1823	6	2711	48
93	0	0	1767	6	2703	49
94	0	0	1729	7	2704	49
95	0	0	1710	8	2708	29
96	0	0	1721	10	2714	50
97	0	0	1784	12	2719	53
98	0	0	1862	12	2724	51
99	0	0	1969	10	2727	51
100	0	0	2060	11	2726	50
101	0	0	2118	11	2721	51
102	0	0	2160	10	2710	51
103	0	0	2216	10	2704	51
104	0	0	2244	9	2704	51
105	0	0	2274	10	2709	50
106	0	0	2305	10	2714	50
107	0	0	2288	7	2720	49
108	0	0	2210	6	2725	49
109	0	0	2100	6	2727	49
110	0	0	1979	6	2725	50
111	0	0	1886	5	2721	49
112	0	0	1828	7	2710	47
113	0	0	1776	9	2704	48
114	0	0	1744	10	2704	47
115	0	0	1790	11	2709	49
116	0	0	1876	12	2714	51
117	0	0	1949	11	2720	51
118	0	0	2003	12	2724	51
119	0	0	2046	9	2727	51
120	0	0	2058	12	2726	50
121	0	0	2060	12	2722	52
122	0	0	2071	11	2710	52
123	0	0	2125	10	2705	51
124	0	0	2173	8	2705	50
125	0	0	2228	10	2708	51
126	0	0	2253	9	2715	50
127	0	0	2244	10	2720	50
0	0	0	2233	9	2725	49
1	0	0	2188	5	2727	52
2	0	0	2107	6	2726	47
3	0	0	2014	7	2721	47
4	0	0	1914	6	2710	47
5	0	0	1826	7	2704	48
6	0	0	1764	7	2704	50
7	0	0	1745	9	2708	49
8	0	0	1763	12	2714	51
9	0	0	1817	11	2719	51
10	0	0	1881	11	2725	51
11	0	0	1942	10	2727	51
12	0	0	2039	9	2726	53
13	0	0	2140	13	2721	53
14	0	0	2238	10	2712	51
15	0	0	2332	11	2705	50
16	0	0	2372	11	2704	51
17	0	0	2362	7	2708	50
18	0	0	2294	7	2714	50
19	0	0	2206	6	2720	49
20	0	0	2119	6	2725	49
21	0	0	2062	6	2727	48
22	0	0	2049	9	2726	47
23	0	0	2026	7	2720	47
24	0	0	1964	7	2710	48
25	0	0	1849	7	2704	47
26	0	0	1802	9	2704	47
27	0	0	1795	8	2708	49
28	0	0	1767	10	2713	47
29	0	0	1802	11	2720	51
30	0	0	1888	12	2724	51
31	0	0	1968	11	2727	51
32	0	0	2065	10	2726	51
33	0	0	2153	10	2720	51
34	0	0	2242	10	2711	51
35	0	0	2289	10	2705	50
36	0	0	2330	10	2704	52
37	0	0	2360	10	2708	47
38	0	0	2372	10	2715	50
39	0	0	2338	7	2720	49
40	0	0	2252	6	2725	48
41	0	0	2150	7	2727	49
42	0	0	2059	6	2726	49
43	0	0	1932	6	2721	48
44	0	0	1806	7	2711	47
45	0	0	1719	7	2704	47
46	0	0	1663	7	2703	50
47	0	0	1642	9	2708	48
48	0	0	1673	11	2713	50
49	0	0	1777	11	2720	52
50	0	0	1902	11	2725	51
51	0	0	2042	11	2726	53
52	0	0	2178	10	2726	49
53	0	0	2271	11	2722	51
54	0	0	2327	11	2710	51
55	0	0	2358	10	2705	48
56	0	0	2380	11	2704	51
57	0	0	2376	8	2708	50
58	0	0	2329	7	2714	50
59	0	0	2285	7	2720	50
60	0	0	2244	6	2725	50
61	0	0	2183	7	2727	50
62	0	0	2112	6	2727	49
63	0	0	2034	7	2721	47
64	0	0	1972	6	2710	49
65	0	0	1891	7	2704	50
66	0	0	1812	7	2704	49
67	0	0	1782	9	2708	48
68	0	0	1807	11	2713	49
69	0	0	1883	12	2720	50
70	0	0	1969	11	2725	52
71	0	0	2055	10	2727	51
72	0	0	2107	11	2727	50
73	0	0	2132	11	2720	52
74	0	0	2154	8	2710	51
75	0	0	2202	8	2705	50
76	0	0	2275	10	2705	50
77	0	0	2323	10	2708	48
78	0	0	2342	10	2714	49
79	0	0	2344	10	2720	49
80	0	0	2295	8	2725	50
81	0	0	2209	5	2727	49
82	0	0	2134	6	2726	48
83	0	0	2053	6	2721	48
84	0	0	1981	6	2710	49
85	0	0	1920	8	2704	48
86	0	0	1867	7	2704	47
87	0	0	1837	8	2707	48
88	0	0	1831	12	2714	51
89	0	0	1863	12	2720	51
90	0	0	1928	16	2724	52
91	0	0	1994	9	2727	51
92	0	0	2068	11	2726	48
93	0	0	2133	11	2721	52
94	0	0	2190	8	2710	53
95	0	0	2264	9	2705	50
96	0	0	2338	10	2705	53
97	0	0	2372	9	2709	52
98	0	0	2374	10	2714	49
99	0	0	2339	6	2720	49
100	0	0	2275	7	2725	50
101	0	0	2208	4	2727	49
102	0	0	2125	6	2726	48
103	0	0	2042	6	2721	48
104	0	0	1959	5	2710	48
105	0	0	1847	5	2704	48
106	0	0	1767	6	2704	49
107	0	0	1784	10	2708	52
108	0	0	1835	11	2714	50
109	0	0	1873	10	2720	51
110	0	0	1899	11	2725	51
111	0	0	1989	12	2727	51
112	0	0	2123	11	2727	52
113	0	0	2235	11	2722	50
114	0	0	2320	11	2711	53
115	0	0	2394	8	2705	50
116	0	0	2461	11	2705	46
117	0	0	2503	10	2708	48
118	0	0	2485	7	2714	50
119	0	0	2425	7	2720	49
120	0	0	2356	6	2725	50
121	0	0	2271	7	2727	50
122	0	0	2153	5	2726	49
123	0	0	2049	6	2721	47
124	0	0	1946	7	2710	48
125	0	0	1851	12	2703	50
126	0	0	1783	6	2704	48
127	0	0	1735	7	2708	48
0	0	0	1727	11	2713	49
1	0	0	1783	11	2720	51
2	0	0	1908	7	2726	52
3	0	0	2044	13	2728	52
4	0	0	2148	11	2727	52
5	0	0	2216	10	2721	50
6	0	0	2264	11	2711	50
7	0	0	2315	10	2705	49
8	0	0	2361	8	2705	51
9	0	0	2411	11	2709	52
10	0	0	2436	10	2713	50
11	0	0	2388	6	2720	48
12	0	0	2317	3	2724	50
13	0	0	2233	9	2727	51
14	0	0	2172	6	2726	52
15	0	0	2119	7	2721	48
16	0	0	2060	6	2710	48
17	0	0	1983	4	2705	48
18	0	0	1918	8	2705	48
19	0	0	1929	12	2708	52
20	0	0	1974	11	2714	50
21	0	0	2005	11	2721	51
22	0	0	2031	11	2725	51
23	0	0	2081	11	2727	51
24	0	0	2159	11	2727	55
25	0	0	2214	11	2722	51
26	0	0	2261	11	2710	51
27	0	0	2302	10	2704	49
28	0	0	2291	9	2705	48
29	0	0	2288	11	2708	52
30	0	0	2275	8	2714	50
31	0	0	2246	9	2720	50
32	0	0	2256	10	2725	49
33	0	0	2226	7	2728	51
34	0	0	2161	7	2727	49
35	0	0	2106	7	2722	47
36	0	0	2054	7	2710	48
37	0	0	1969	7	2704	48
38	0	0	1918	8	2705	47
39	0	0	1920	10	2708	52
40	0	0	1934	11	2713	49
41	0	0	1976	12	2720	51
42	0	0	2063	11	2725	51
43	0	0	2162	13	2727	53
44	0	0	2228	10	2727	53
45	0	0	2282	12	2721	51
46	0	0	2375	11	2711	51
47	0	0	2482	7	2705	49
48	0	0	2567	12	2705	52
49	0	0	2594	10	2709	53
50	0	0	2571	7	2714	51
51	0	0	2487	6	2720	51
52	0	0	2360	6	2725	49
53	0	0	2268	6	2728	48
54	0	0	2169	5	2726	51
55	0	0	2017	6	2720	48
56	0	0	1910	7	2710	48
57	0	0	1921	10	2704	47
58	0	0	1956	12	2704	50
59	0	0	1973	12	2708	51
60	0	0	1963	10	2714	50
61	0	0	1980	11	2720	50
62	0	0	2044	11	2725	51
63	0	0	2129	13	2727	51
64	0	0	2176	11	2727	51
65	0	0	2240	11	2722	52
66	0	0	2327	10	2711	53
67	0	0	2398	10	2705	50
68	0	0	2456	10	2705	50
69	0	0	2479	10	2709	54
70	0	0	2488	9	2715	49
71	0	0	2451	7	2720	49
72	0	0	2394	7	2725	48
73	0	0	2325	8	2728	51
74	0	0	2245	6	2726	47
75	0	0	2150	7	2721	47
76	0	0	2081	7	2711	48
77	0	0	2038	5	2703	50
78	0	0	2015	7	2704	48
79	0	0	1982	8	2708	51
80	0	0	1927	7	2713	50
81	0	0	1891	9	2720	51
82	0	0	1917	10	2725	52
83	0	0	2004	12	2728	50
84	0	0	2109	12	2727	55
85	0	0	2211	10	2722	51
86	0	0	2281	11	2711	51
87	0	0	2313	11	2705	51
88	0	0	2344	8	2705	51
89	0	0	2372	10	2709	51
90	0	0	2350	9	2714	49
91	0	0	2308	8	2720	50
92	0	0	2295	10	2725	49
93	0	0	2233	7	2727	50
94	0	0	2131	6	2726	51
95	0	0	2078	6	2722	48
96	0	0	2044	6	2711	47
97	0	0	1993	4	2704	50
98	0	0	1939	5	2704	47
99	0	0	1922	12	2708	48
100	0	0	1924	14	2713	48
101	0	0	1915	10	2720	51
102	0	0	1955	11	2724	52
103	0	0	2059	11	2727	52
104	0	0	2143	11	2726	51
105	0	0	2182	8	2722	51
106	0	0	2210	10	2711	52
107	0	0	2240	10	2704	52
108	0	0	2261	10	2705	48
109	0	0	2291	8	2709	49
110	0	0	2308	9	2714	52
111	0	0	2274	7	2720	49
112	0	0	2239	8	2725	49
113	0	0	2213	7	2727	49
114	0	0	2120	6	2726	49
115	0	0	2012	6	2721	47
116	0	0	1934	6	2710	48
117	0	0	1841	7	2704	48
118	0	0	1777	7	2704	49
119	0	0	1746	9	2708	51
120	0	0	1776	12	2715	50
121	0	0	1811	11	2720	51
122	0	0	1857	12	2725	52
123	0	0	1948	10	2727	53
124	0	0	2056	11	2726	51
125	0	0	2143	10	2722	52
126	0	0	2201	10	2711	50
127	0	0	2251	10	2704	50
0	0	0	2294	9	2705	50
1	0	0	2294	9	2708	52
2	0	0	2271	9	2714	50
3	0	0	2265	9	2720	51
4	0	0	2223	6	2725	47
5	0	0	2147	6	2727	48
6	0	0	2032	5	2726	48
7	0	0	1925	7	2721	47
8	0	0	1835	7	2710	49
9	0	0	1795	9	2704	47
10	0	0	1798	8	2704	48
11	0	0	1794	12	2708	48
12	0	0	1785	10	2713	49
13	0	0	1803	11	2720	51
14	0	0	1880	9	2724	53
15	0	0	1933	7	2727	50
16	0	0	1986	11	2726	52
17	0	0	2052	10	2721	51
18	0	0	2141	10	2710	53
19	0	0	2261	11	2704	51
20	0	0	2353	10	2704	53
21	0	0	2365	8	2709	49
22	0	0	2324	8	2714	51
23	0	0	2273	6	2720	49
24	0	0	2213	8	2725	49
25	0	0	2136	5	2727	47
26	0	0	2047	7	2726	48
27	0	0	1957	7	2722	48
28	0	0	1879	6	2711	49
29	0	0	1808	8	2704	48
30	0	0	1788	7	2703	51
31	0	0	1786	10	2708	48
32	0	0	1790	10	2713	49
33	0	0	1814	11	2720	50
34	0	0	1866	10	2724	51
35	0	0	1940	11	2727	51
36	0	0	2035	12	2726	49
37	0	0	2146	11	2722	52
38	0	0	2228	11	2710	51
39	0	0	2264	11	2704	51
40	0	0	2257	7	2704	51
41	0	0	2203	6	2709	49
42	0	0	2147	7	2714	50
43	0	0	2112	7	2719	49
44	0	0	2091	7	2725	49
45	0	0	2050	6	2727	49
46	0	0	1978	8	2726	51
47	0	0	1940	7	2721	47
48	0	0	1888	6	2710	48
49	0	0	1831	7	2704	48
50	0	0	1827	10	2704	48
51	0	0	1791	9	2708	51
52	0	0	1753	8	2714	50
53	0	0	1780	12	2719	52
54	0	0	1840	11	2725	50
55	0	0	1914	11	2727	50
56	0	0	2037	11	2727	51
57	0	0	2148	11	2721	51
58	0	0	2223	10	2710	51
59	0	0	2296	10	2705	49
60	0	0	2353	7	2705	51
61	0	0	2336	8	2709	51
62	0	0	2315	9	2714	50
63	0	0	2274	8	2720	49
64	0	0	2213	6	2724	49
65	0	0	2145	7	2727	48
66	0	0	2038	6	2726	50
67	0	0	1944	6	2721	48
68	0	0	1877	7	2710	47
69	0	0	1820	7	2704	45
70	0	0	1787	7	2705	47
71	0	0	1749	8	2708	51
72	0	0	1729	9	2713	53
73	0	0	1741	10	2719	52
74	0	0	1790	12	2725	51
75	0	0	1870	7	2727	51
76	0	0	1966	11	2727	51
77	0	0	2060	11	2723	55
78	0	0	2147	12	2711	51
79	0	0	2233	11	2705	48
80	0	0	2284	10	2704	49
81	0	0	2302	10	2708	51
82	0	0	2293	9	2714	50
83	0	0	2259	6	2720	51
84	0	0	2207	7	2725	48
85	0	0	2156	7	2727	51
86	0	0	2088	7	2726	52
87	0	0	1994	7	2721	48
88	0	0	1908	6	2710	49
89	0	0	1829	7	2705	48
90	0	0	1805	11	2705	50
91	0	0	1799	11	2708	49
92	0	0	1794	11	2714	50
93	0	0	1827	11	2720	51
94	0	0	1889	11	2726	49
95	0	0	1961	12	2728	51
96	0	0	2045	11	2727	51
97	0	0	2105	10	2722	51
98	0	0	2156	10	2711	51
99	0	0	2221	10	2705	49
100	0	0	2252	12	2705	50
101	0	0	2245	11	2708	50
102	0	0	2235	10	2714	50
103	0	0	2249	9	2720	49
104	0	0	2229	6	2725	50
105	0	0	2161	6	2727	50
106	0	0	2096	8	2726	53
107	0	0	2055	8	2721	51
108	0	0	1973	6	2710	49
109	0	0	1848	6	2704	48
110	0	0	1743	8	2704	48
111	0	0	1693	7	2708	53
112	0	0	1685	11	2714	51
113	0	0	1733	11	2720	50
114	0	0	1844	12	2724	49
115	0	0	1980	10	2727	52
116	0	0	2098	11	2726	49
117	0	0	2165	11	2722	51
118	0	0	2213	10	2710	53
119	0	0	2262	11	2705	49
120	0	0	2307	11	2705	48
121	0	0	2307	7	2708	50
122	0	0	2261	7	2714	52
123	0	0	2228	7	2720	50
124	0	0	2177	6	2725	50
125	0	0	2130	8	2727	48
126	0	0	2053	4	2726	50
127	0	0	1942	6	2721	47
0	0	0	1851	7	2710	48
1	0	0	1796	8	2704	48
2	0	0	1787	12	2704	52
3	0	0	1797	11	2709	54
4	0	0	1841	11	2713	51
5	0	0	1937	10	2720	48
6	0	0	2039	14	2725	52
7	0	0	2111	8	2726	53
8	0	0	2144	12	2726	51
9	0	0	2183	11	2721	55
10	0	0	2251	10	2710	51
11	0	0	2287	10	2705	52
12	0	0	2275	8	2704	48
13	0	0	2209	4	2708	51
14	0	0	2181	10	2714	49
15	0	0	2160	8	2720	49
16	0	0	2111	7	2725	50
17	0	0	2042	8	2727	52
18	0	0	1985	8	2726	50
19	0	0	1924	7	2721	47
20	0	0	1863	8	2710	49
21	0	0	1811	7	2704	47
22	0	0	1781	8	2704	47
23	0	0	1790	10	2708	49
24	0	0	1843	11	2713	51
25	0	0	1933	11	2719	51
26	0	0	1996	11	2725	51
27	0	0	2041	8	2727	51
28	0	0	2062	13	2727	55
29	0	0	2087	11	2721	53
30	0	0	2139	11	2711	50
31	0	0	2204	11	2704	51
32	0	0	2257	8	2705	50
33	0	0	2289	9	2709	50
34	0	0	2285	10	2714	51
35	0	0	2257	7	2720	49
36	0	0	2193	7	2725	47
37	0	0	2121	8	2727	49
38	0	0	2068	6	2726	49
39	0	0	2018	7	2720	48
40	0	0	1942	6	2710	49
41	0	0	1864	6	2704	48
42	0	0	1776	8	2704	50
43	0	0	1736	8	2708	50
44	0	0	1746	11	2713	51
45	0	0	1779	10	2720	52
46	0	0	1853	11	2725	50
47	0	0	1949	12	2727	51
48	0	0	2026	11	2726	50
49	0	0	2110	10	2722	50
50	0	0	2224	11	2711	52
51	0	0	2328	11	2704	51
52	0	0	2379	10	2704	49
53	0	0	2412	7	2708	50
54	0	0	2408	10	2714	49
55	0	0	2365	7	2720	49
56	0	0	2309	6	2725	48
57	0	0	2214	5	2727	49
58	0	0	2046	6	2726	49
59	0	0	1921	7	2721	47
60	0	0	1864	7	2711	49
61	0	0	1798	7	2704	48
62	0	0	1732	8	2705	49
63	0	0	1724	10	2708	50
64	0	0	1749	10	2715	50
65	0	0	1809	11	2720	50
66	0	0	1892	11	2725	52
67	0	0	1983	15	2727	50
68	0	0	2083	10	2726	53
69	0	0	2175	11	2721	51
70	0	0	2249	11	2710	52
71	0	0	2307	11	2705	50
72	0	0	2311	12	2705	49
73	0	0	2290	12	2709	49
74	0	0	2282	10	2713	48
75	0	0	2255	5	2720	50
76	0	0	2206	7	2725	47
77	0	0	2150	7	2727	49
78	0	0	2084	7	2726	48
79	0	0	2001	6	2721	47
80	0	0	1925	8	2710	49
81	0	0	1867	8	2705	50
82	0	0	1836	10	2704	49
83	0	0	1821	10	2708	49
84	0	0	1815	11	2713	49
85	0	0	1840	13	2720	51
86	0	0	1899	11	2725	50
87	0	0	1935	7	2727	51
88	0	0	1953	10	2727	52
89	0	0	1992	11	2721	50
90	0	0	2043	11	2711	51
91	0	0	2145	10	2704	49
92	0	0	2257	7	2705	51
93	0	0	2316	11	2709	50
94	0	0	2334	10	2714	48
95	0	0	2340	11	2720	49
96	0	0	2300	7	2726	50
97	0	0	2222	1	2727	49
98	0	0	2117	5	2726	50
99	0	0	2030	7	2721	46
100	0	0	1976	7	2711	47
101	0	0	1902	7	2704	47
102	0	0	1861	7	2704	49
103	0	0	1848	9	2708	49
104	0	0	1849	11	2713	52
105	0	0	1882	11	2720	51
106	0	0	1938	12	2726	52
107	0	0	2005	10	2727	55
108	0	0	2075	11	2726	53
109	0	0	2157	11	2721	50
110	0	0	2260	11	2711	52
111	0	0	2356	10	2704	52
112	0	0	2392	7	2705	49
113	0	0	2353	7	2709	50
114	0	0	2301	7	2714	49
115	0	0	2256	4	2721	49
116	0	0	2176	6	2725	49
117	0	0	2105	10	2727	49
118	0	0	2045	6	2727	48
119	0	0	1992	7	2721	48
120	0	0	1934	5	2711	47
121	0	0	1853	6	2705	49
122	0	0	1802	8	2704	45
123	0	0	1786	8	2709	49
124	0	0	1768	8	2714	49
125	0	0	1767	10	2720	50
126	0	0	1809	11	2724	49
127	0	0	1911	15	2728	51
0	0	0	2034	11	2727	51
1	0	0	2155	11	2721	50
2	0	0	2249	8	2711	50
3	0	0	2321	10	2705	49
4	0	0	2325	8	2705	49
5	0	0	2269	5	2709	50
6	0	0	2223	7	2714	50
7	0	0	2182	7	2720	49
8	0	0	2136	7	2725	47
9	0	0	2091	5	2727	49
10	0	0	2013	6	2726	50
11	0	0	1900	6	2721	48
12	0	0	1820	6	2710	47
13	0	0	1767	8	2704	49
14	0	0	1724	7	2704	49
15	0	0	1734	10	2708	47
16	0	0	1774	10	2714	51
17	0	0	1815	10	2720	51
18	0	0	1879	11	2725	50
19	0	0	1986	10	2728	51
20	0	0	2109	11	2727	51
21	0	0	2208	11	2721	52
22	0	0	2285	10	2711	51
23	0	0	2339	11	2705	48
24	0	0	2345	9	2705	50
25	0	0	2296	6	2709	51
26	0	0	2240	7	2714	50
27	0	0	2195	7	2720	49
28	0	0	2150	5	2725	50
29	0	0	2098	7	2727	49
30	0	0	2057	8	2727	47
31	0	0	2010	7	2721	47
32	0	0	1944	7	2710	48
33	0	0	1865	7	2704	49
34	0	0	1814	8	2704	49
35	0	0	1815	10	2709	49
36	0	0	1826	11	2713	50
37	0	0	1867	14	2721	50
38	0	0	1919	11	2724	52
39	0	0	1996	11	2727	52
40	0	0	2067	9	2726	52
41	0	0	2131	11	2721	54
42	0	0	2182	10	2710	52
43	0	0	2223	11	2704	50
44	0	0	2268	9	2705	52
45	0	0	2284	8	2709	50
46	0	0	2268	7	2714	50
47	0	0	2245	8	2720	50
48	0	0	2192	7	2725	48
49	0	0	2114	8	2727	50
50	0	0	2069	7	2726	51
51	0	0	2021	7	2721	47
52	0	0	1959	9	2711	50
53	0	0	1881	6	2705	51
54	0	0	1795	8	2704	47
55	0	0	1764	10	2708	48
56	0	0	1786	11	2714	51
57	0	0	1833	11	2720	51
58	0	0	1891	12	2726	51
59	0	0	1935	12	2727	54
60	0	0	2013	10	2727	53
61	0	0	2092	11	2721	47
62	0	0	2148	10	2711	52
63	0	0	2191	7	2704	51
64	0	0	2204	9	2705	52
65	0	0	2204	10	2709	49
66	0	0	2236	10	2714	47
67	0	0	2278	10	2720	50
68	0	0	2280	7	2725	50
69	0	0	2203	8	2727	50
70	0	0	2087	5	2727	49
71	0	0	2000	7	2721	47
72	0	0	1957	7	2711	47
73	0	0	1876	6	2704	52
74	0	0	1804	8	2704	50
75	0	0	1793	11	2708	49
76	0	0	1824	11	2714	47
77	0	0	1878	11	2720	51
78	0	0	1940	11	2725	51
79	0	0	2009	11	2728	52
80	0	0	2092	12	2727	51
81	0	0	2152	11	2721	52
82	0	0	2187	11	2711	52
83	0	0	2234	11	2704	51
84	0	0	2311	12	2705	51
85	0	0	2367	10	2709	51
86	0	0	2381	10	2714	47
87	0	0	2347	6	2720	49
88	0	0	2287	7	2725	49
89	0	0	2194	4	2727	51
90	0	0	2084	7	2726	48
91	0	0	1993	6	2721	47
92	0	0	1917	7	2710	48
93	0	0	1832	7	2704	50
94	0	0	1782	5	2704	49
95	0	0	1778	11	2708	48
96	0	0	1790	12	2713	49
97	0	0	1815	10	2720	51
98	0	0	1850	7	2725	51
99	0	0	1878	8	2727	53
100	0	0	1946	11	2727	52
101	0	0	2057	11	2721	47
102	0	0	2177	11	2711	51
103	0	0	2260	11	2705	50
104	0	0	2303	8	2705	51
105	0	0	2329	10	2709	50
106	0	0	2332	10	2714	47
107	0	0	2303	7	2721	48
108	0	0	2247	6	2725	49
109	0	0	2154	7	2727	50
110	0	0	2052	7	2726	49
111	0	0	1960	7	2721	48
112	0	0	1905	8	2710	48
113	0	0	1838	9	2705	49
114	0	0	1790	6	2705	47
115	0	0	1762	9	2708	48
116	0	0	1757	11	2714	50
117	0	0	1780	13	2720	51
118	0	0	1854	11	2725	52
119	0	0	1963	11	2727	49
120	0	0	2084	10	2727	52
121	0	0	2201	11	2721	48
122	0	0	2300	11	2710	52
123	0	0	2325	9	2705	52
124	0	0	2306	8	2705	51
125	0	0	2282	9	2709	50
126	0	0	2264	7	2714	48
127	0	0	2195	7	2719	50
0	0	0	2091	6	2725	52
1	0	0	1981	5	2727	51
2	0	0	1907	5	2726	48
3	0	0	1856	7	2721	43
4	0	0	1827	7	2710	47
5	0	0	1796	5	2704	49
6	0	0	1797	12	2704	48
7	0	0	1798	11	2708	49
8	0	0	1828	11	2714	49
9	0	0	1920	12	2720	50
10	0	0	2019	11	2725	51
11	0	0	2087	13	2728	51
12	0	0	2137	7	2726	52
13	0	0	2200	11	2721	50
14	0	0	2257	11	2711	52
15	0	0	2288	8	2705	50
16	0	0	2300	10	2704	49
17	0	0	2301	7	2709	50
18	0	0	2283	8	2714	48
19	0	0	2247	6	2720	50
20	0	0	2214	5	2725	50
21	0	0	2168	8	2727	50
22	0	0	2098	4	2726	49
23	0	0	2020	6	2721	48
24	0	0	1940	5	2711	48
25	0	0	1858	6	2705	49
26	0	0	1796	7	2704	48
27	0	0	1769	10	2709	48
28	0	0	1777	11	2715	45
29	0	0	1819	11	2720	51
30	0	0	1871	11	2725	51
31	0	0	1950	10	2728	51
32	0	0	2018	10	2727	52
33	0	0	2076	11	2721	52
34	0	0	2128	9	2711	51
35	0	0	2192	10	2705	51
36	0	0	2259	10	2705	51
37	0	0	2297	9	2709	50
38	0	0	2298	10	2714	48
39	0	0	2279	8	2720	49
40	0	0	2236	8	2725	49
41	0	0	2169	8	2727	49
42	0	0	2088	4	2726	49
43	0	0	1990	7	2720	48
44	0	0	1901	7	2710	47
45	0	0	1840	5	2704	47
46	0	0	1810	11	2703	48
47	0	0	1792	7	2708	49
48	0	0	1809	11	2714	50
49	0	0	1871	11	2720	50
50	0	0	1901	12	2725	51
51	0	0	1935	14	2727	50
52	0	0	2027	7	2726	51
53	0	0	2134	12	2721	48
54	0	0	2187	10	2711	51
55	0	0	2172	8	2705	51
56	0	0	2155	11	2704	48
57	0	0	2192	8	2709	50
58	0	0	2215	9	2714	50
59	0	0	2218	9	2720	50
60	0	0	2181	6	2725	51
61	0	0	2105	7	2726	49
62	0	0	2034	6	2726	48
63	0	0	2015	10	2721	47
64	0	0	2012	7	2711	48
65	0	0	1948	6	2704	48
66	0	0	1880	7	2704	48
67	0	0	1848	8	2708	48
68	0	0	1852	11	2713	48
69	0	0	1894	12	2721	50
70	0	0	1959	11	2726	51
71	0	0	2033	11	2728	51
72	0	0	2124	10	2727	51
73	0	0	2212	11	2722	51
74	0	0	2262	8	2711	51
75	0	0	2301	9	2705	49
76	0	0	2279	11	2705	50
77	0	0	2197	9	2709	51
78	0	0	2116	6	2715	51
79	0	0	2077	6	2720	50
80	0	0	2063	9	2725	48
81	0	0	2058	15	2727	49
82	0	0	2056	10	2726	50
83	0	0	2024	7	2722	47
84	0	0	1981	6	2710	49
85	0	0	1940	7	2704	49
86	0	0	1899	7	2705	47
87	0	0	1833	11	2708	49
88	0	0	1783	9	2714	51
89	0	0	1822	12	2720	51
90	0	0	1886	12	2726	49
91	0	0	1945	10	2728	51
92	0	0	2012	11	2727	51
93	0	0	2063	11	2722	48
94	0	0	2141	11	2711	51
95	0	0	2251	10	2705	51
96	0	0	2305	10	2705	52
97	0	0	2318	12	2709	51
98	0	0	2276	7	2714	52
99	0	0	2212	4	2720	49
100	0	0	2158	6	2725	51
101	0	0	2108	7	2728	50
102	0	0	2050	11	2726	49
103	0	0	1993	7	2722	47
104	0	0	1951	7	2710	47
105	0	0	1881	7	2704	44
106	0	0	1798	7	2704	49
107	0	0	1751	8	2709	49
108	0	0	1754	11	2714	51
109	0	0	1803	9	2721	50
110	0	0	1871	11	2725	51
111	0	0	1936	11	2729	52
112	0	0	2017	15	2727	51
113	0	0	2103	11	2721	53
114	0	0	2166	8	2711	52
115	0	0	2232	11	2704	51
116	0	0	2282	9	2706	50
117	0	0	2286	13	2709	50
118	0	0	2276	10	2714	50
119	0	0	2249	4	2721	49
120	0	0	2180	6	2725	50
121	0	0	2105	5	2728	49
122	0	0	2026	9	2727	48
123	0	0	1968	7	2721	48
124	0	0	1949	4	2711	48
125	0	0	1903	6	2705	51
126	0	0	1833	7	2705	48
127	0	0	1775	11	2708	50
0	0	0	1761	11	2714	50
1	0	0	1806	11	2720	51
2	0	0	1898	11	2726	52
3	0	0	1983	11	2728	51
4	0	0	2038	11	2727	52
5	0	0	2090	11	2721	51
6	0	0	2159	7	2711	48
7	0	0	2218	12	2705	53
8	0	0	2258	12	2706	50
9	0	0	2282	10	2709	50
10	0	0	2299	10	2714	50
11	0	0	2298	6	2721	49
12	0	0	2261	7	2726	48
13	0	0	2190	5	2729	50
14	0	0	2126	5	2727	49
15	0	0	2022	6	2721	48
16	0	0	1886	4	2711	48
17	0	0	1790	7	2704	44
18	0	0	1784	12	2705	49
19	0	0	1801	9	2708	48
20	0	0	1816	12	2714	50
21	0	0	1849	11	2720	52
22	0	0	1906	12	2725	52
23	0	0	1972	12	2728	51
24	0	0	2029	10	2726	50
25	0	0	2106	11	2722	50
26	0	0	2206	15	2710	50
27	0	0	2281	11	2705	50
28	0	0	2308	14	2705	51
29	0	0	2303	13	2709	50
30	0	0	2256	7	2714	50
31	0	0	2176	5	2721	50
32	0	0	2116	7	2725	50
33	0	0	2072	6	2728	53
34	0	0	2022	6	2726	48
35	0	0	1955	6	2721	49
36	0	0	1873	6	2710	49
37	0	0	1777	7	2704	48
38	0	0	1717	7	2705	49
39	0	0	1689	8	2708	49
40	0	0	1709	11	2714	51
41	0	0	1760	11	2720	51
42	0	0	1879	11	2725	51
43	0	0	1995	11	2728	51
44	0	0	2078	12	2727	51
45	0	0	2178	11	2721	54
46	0	0	2251	8	2711	51
47	0	0	2293	10	2704	49
48	0	0	2326	12	2705	50
49	0	0	2327	8	2708	50
50	0	0	2287	7	2714	51
51	0	0	2215	7	2720	50
52	0	0	2152	6	2725	47
53	0	0	2081	6	2727	49
54	0	0	2018	5	2726	48
55	0	0	1970	7	2721	47
56	0	0	1926	5	2710	48
57	0	0	1872	7	2703	49
58	0	0	1811	7	2704	49
59	0	0	1776	8	2709	49
60	0	0	1796	5	2714	50
61	0	0	1862	10	2721	50
62	0	0	1925	11	2725	52
63	0	0	1977	11	2728	53
64	0	0	2040	9	2726	50
65	0	0	2105	11	2721	52
66	0	0	2172	11	2711	52
67	0	0	2252	9	2705	49
68	0	0	2286	10	2705	49
69	0	0	2267	8	2709	50
70	0	0	2218	6	2714	51
71	0	0	2167	7	2720	49
72	0	0	2124	5	2725	50
73	0	0	2084	6	2727	51
74	0	0	2025	8	2727	49
75	0	0	1969	7	2721	47
76	0	0	1925	4	2710	49
77	0	0	1867	6	2704	48
78	0	0	1816	10	2705	47
79	0	0	1776	8	2708	50
80	0	0	1753	10	2713	51
81	0	0	1784	10	2721	50
82	0	0	1866	10	2726	50
83	0	0	1977	11	2728	49
84	0	0	2100	10	2726	51
85	0	0	2177	13	2721	52
86	0	0	2191	9	2711	52
87	0	0	2189	9	2705	47
88	0	0	2158	9	2705	51
89	0	0	2125	7	2709	49
90	0	0	2121	10	2715	50
91	0	0	2095	6	2721	49
92	0	0	2059	7	2725	50
93	0	0	2037	7	2727	50
94	0	0	2008	8	2726	49
95	0	0	1950	6	2721	47
96	0	0	1867	6	2710	48
97	0	0	1757	4	2704	48
98	0	0	1712	10	2704	49
99	0	0	1740	11	2708	48
100	0	0	1780	9	2714	51
101	0	0	1834	11	2720	51
102	0	0	1918	11	2725	51
103	0	0	2004	13	2728	52
104	0	0	2068	10	2727	51
105	0	0	2132	11	2721	51
106	0	0	2192	10	2710	51
107	0	0	2271	10	2705	51
108	0	0	2336	10	2705	48
109	0	0	2336	7	2709	49
110	0	0	2303	7	2714	51
111	0	0	2229	6	2720	49
112	0	0	2140	6	2726	50
113	0	0	2046	5	2727	48
114	0	0	1976	4	2727	50
115	0	0	1882	4	2721	49
116	0	0	1775	6	2710	47
117	0	0	1719	7	2705	48
118	0	0	1715	11	2704	48
119	0	0	1730	7	2709	48
120	0	0	1752	10	2714	50
121	0	0	1845	11	2720	51
122	0	0	1944	11	2726	51
123	0	0	2018	11	2727	48
124	0	0	2099	12	2726	51
125	0	0	2162	13	2721	52
126	0	0	2197	10	2711	52
127	0	0	2244	10	2705	51
0	0	0	2273	11	2706	51
1	0	0	2232	7	2710	50
2	0	0	2226	10	2715	52
3	0	0	2243	8	2721	49
4	0	0	2230	7	2725	50
5	0	0	2155	6	2728	50
6	0	0	2041	6	2727	48
7	0	0	1955	6	2721	48
8	0	0	1895	6	2711	48
9	0	0	1816	5	2704	47
10	0	0	1754	7	2705	49
11	0	0	1747	11	2709	50
12	0	0	1773	11	2714	52
13	0	0	1845	10	2721	50
14	0	0	1959	11	2726	51
15	0	0	2056	11	2727	52
16	0	0	2093	7	2727	51
17	0	0	2120	11	2722	51
18	0	0	2128	15	2711	50
19	0	0	2176	10	2705	51
20	0	0	2219	10	2706	50
21	0	0	2201	10	2709	50
22	0	0	2192	10	2715	50
23	0	0	2155	10	2720	50
24	0	0	2094	6	2725	49
25	0	0	2007	7	2727	50
26	0	0	1932	3	2726	49
27	0	0	1892	6	2721	49
28	0	0	1845	7	2711	47
29	0	0	1821	9	2705	47
30	0	0	1821	11	2706	50
31	0	0	1838	11	2708	48
32	0	0	1850	11	2714	51
33	0	0	1875	11	2720	51
34	0	0	1937	12	2726	52
35	0	0	1969	11	2727	51
36	0	0	1990	9	2727	52
37	0	0	2041	12	2721	51
38	0	0	2159	11	2711	52
39	0	0	2256	11	2704	51
40	0	0	2298	10	2706	51
41	0	0	2284	7	2710	49
42	0	0	2235	7	2715	48
43	0	0	2158	7	2721	49
44	0	0	2110	7	2725	47
45	0	0	2082	7	2727	50
46	0	0	2050	4	2726	49
47	0	0	1980	6	2721	48
48	0	0	1892	7	2710	48
49	0	0	1811	5	2704	47
50	0	0	1774	8	2704	50
51	0	0	1794	7	2708	47
52	0	0	1820	11	2714	51
53	0	0	1881	11	2720	51
54	0	0	1939	9	2726	50
55	0	0	1985	11	2727	52
56	0	0	2044	7	2727	52
57	0	0	2104	10	2722	51
58	0	0	2119	10	2711	52
59	0	0	2143	10	2705	49
60	0	0	2197	8	2705	50
61	0	0	2255	7	2709	49
62	0	0	2286	10	2714	50
63	0	0	2242	11	2720	49
64	0	0	2194	7	2725	47
65	0	0	2130	6	2727	50
66	0	0	2041	4	2726	48
67	0	0	1962	7	2721	47
68	0	0	1881	6	2710	48
69	0	0	1813	7	2704	49
70	0	0	1780	8	2704	49
71	0	0	1791	11	2709	48
72	0	0	1853	11	2714	51
73	0	0	1940	11	2721	50
74	0	0	2012	11	2726	51
75	0	0	2069	11	2727	52
76	0	0	2121	10	2727	52
77	0	0	2215	11	2721	48
78	0	0	2316	10	2711	50
79	0	0	2360	11	2705	50
80	0	0	2356	10	2705	51
81	0	0	2317	8	2709	50
82	0	0	2198	6	2714	50
83	0	0	2064	6	2720	49
84	0	0	1964	8	2724	49
85	0	0	1938	9	2727	49
86	0	0	1931	3	2726	49
87	0	0	1912	7	2722	49
88	0	0	1874	7	2710	49
89	0	0	1828	8	2704	47
90	0	0	1833	9	2705	48
91	0	0	1852	8	2708	48
92	0	0	1894	11	2714	51
93	0	0	1937	11	2719	51
94	0	0	2005	11	2725	49
95	0	0	2076	11	2727	34
96	0	0	2111	10	2727	52
97	0	0	2140	11	2721	51
98	0	0	2183	11	2711	51
99	0	0	2242	11	2704	50
100	0	0	2294	9	2705	51
101	0	0	2321	10	2709	49
102	0	0	2275	7	2714	51
103	0	0	2201	5	2721	49
104	0	0	2124	5	2726	50
105	0	0	2097	8	2728	50
106	0	0	2063	6	2727	49
107	0	0	2005	7	2721	48
108	0	0	1946	6	2710	48
109	0	0	1874	6	2704	45
110	0	0	1843	9	2705	49
111	0	0	1860	10	2708	49
112	0	0	1896	11	2714	51
113	0	0	1908	11	2720	51
114	0	0	1935	12	2725	51
115	0	0	1985	11	2727	52
116	0	0	2007	11	2727	51
117	0	0	2023	11	2721	49
118	0	0	2067	10	2711	51
119	0	0	2160	12	2705	47
120	0	0	2293	10	2705	51
121	0	0	2360	7	2709	49
122	0	0	2309	7	2714	51
123	0	0	2250	6	2720	50
124	0	0	2194	6	2725	48
125	0	0	2143	6	2727	49
126	0	0	2061	7	2727	49
127	0	0	1967	6	2721	49
0	0	0	1920	11	2709	48
1	0	0	1893	8	2704	48
2	0	0	1861	10	2704	47
3	0	0	1890	11	2708	49
4	0	0	1919	11	2714	51
5	0	0	1943	11	2720	50
6	0	0	1969	10	2725	52
7	0	0	2017	11	2728	52
8	0	0	2099	11	2727	49
9	0	0	2181	11	2722	51
10	0	0	2256	10	2711	52
11	0	0	2296	11	2705	50
12	0	0	2304	12	2705	50
13	0	0	2261	0	2708	51
14	0	0	2203	6	2714	50
15	0	0	2176	8	2720	50
16	0	0	2149	6	2725	50
17	0	0	2078	5	2726	50
18	0	0	2004	6	2726	49
19	0	0	1956	8	2721	47
20	0	0	1932	6	2710	48
21	0	0	1896	8	2703	49
22	0	0	1879	12	2704	48
23	0	0	1912	11	2709	49
24	0	0	1939	11	2714	51
25	0	0	1957	10	2721	50
26	0	0	2016	11	2726	53
27	0	0	2074	10	2728	52
28	0	0	2107	12	2726	52
29	0	0	2156	10	2722	50
30	0	0	2208	7	2711	51
31	0	0	2264	12	2704	51
32	0	0	2304	11	2705	49
33	0	0	2296	11	2709	50
34	0	0	2273	5	2714	53
35	0	0	2227	7	2720	49
36	0	0	2160	6	2726	51
37	0	0	2074	6	2727	50
38	0	0	1975	3	2726	49
39	0	0	1908	6	2721	49
40	0	0	1865	5	2710	47
41	0	0	1819	7	2705	46
42	0	0	1802	11	2704	49
43	0	0	1822	10	2709	50
44	0	0	1852	9	2714	51
45	0	0	1902	14	2720	49
46	0	0	1985	12	2726	49
47	0	0	2044	11	2727	51
48	0	0	2067	12	2727	51
49	0	0	2087	10	2721	52
50	0	0	2087	10	2711	51
51	0	0	2094	10	2705	50
52	0	0	2163	11	2705	49
53	0	0	2244	10	2708	50
54	0	0	2297	10	2714	50
55	0	0	2303	10	2720	49
56	0	0	2250	7	2726	51
57	0	0	2155	6	2727	49
58	0	0	2058	7	2726	46
59	0	0	1966	12	2720	48
60	0	0	1891	7	2710	51
61	0	0	1819	7	2704	49
62	0	0	1762	7	2704	49
63	0	0	1749	10	2708	48
64	0	0	1757	12	2714	49
65	0	0	1788	11	2720	50
66	0	0	1849	9	2725	51
67	0	0	1969	11	2727	51
68	0	0	2071	11	2727	51
69	0	0	2133	8	2721	52
70	0	0	2187	11	2710	50
71	0	0	2242	11	2705	51
72	0	0	2285	10	2705	50
73	0	0	2273	7	2708	49
74	0	0	2239	8	2714	52
75	0	0	2228	10	2720	49
76	0	0	2175	6	2725	50
77	0	0	2119	7	2728	49
78	0	0	2075	7	2726	49
79	0	0	2010	7	2721	47
80	0	0	1927	6	2709	49
81	0	0	1853	7	2704	47
82	0	0	1807	7	2704	46
83	0	0	1792	11	2708	50
84	0	0	1810	11	2714	50
85	0	0	1850	10	2720	51
86	0	0	1915	9	2725	51
87	0	0	2003	11	2727	49
88	0	0	2071	11	2726	51
89	0	0	2145	11	2721	52
90	0	0	2227	13	2711	52
91	0	0	2290	10	2705	50
92	0	0	2345	10	2706	50
93	0	0	2357	10	2709	50
94	0	0	2321	6	2715	49
95	0	0	2190	6	2720	49
96	0	0	2054	7	2725	50
97	0	0	2015	8	2727	47
98	0	0	1992	7	2726	48
99	0	0	1923	6	2720	48
100	0	0	1830	7	2709	50
101	0	0	1741	7	2703	49
102	0	0	1736	11	2704	49
103	0	0	1771	11	2708	49
104	0	0	1823	12	2714	51
105	0	0	1865	11	2720	50
106	0	0	1911	11	2725	51
107	0	0	1957	11	2728	51
108	0	0	1985	11	2726	50
109	0	0	2017	11	2721	51
110	0	0	2042	10	2711	53
111	0	0	2077	11	2704	51
112	0	0	2131	10	2706	50
113	0	0	2148	10	2709	51
114	0	0	2160	10	2714	51
115	0	0	2168	10	2720	50
116	0	0	2159	7	2725	50
117	0	0	2123	6	2727	49
118	0	0	2085	7	2726	49
119	0	0	2063	10	2721	48
120	0	0	2049	8	2710	48
121	0	0	2012	7	2704	49
122	0	0	1993	11	2705	47
123	0	0	2037	11	2709	48
124	0	0	2115	7	2714	50
125	0	0	2228	13	2721	51
126	0	0	2345	12	2726	51
127	0	0	2460	11	2728	49
0	0	0	2577	11	2727	52
1	0	0	2682	11	2721	50
2	0	0	2750	10	2710	52
3	0	0	2795	10	2705	52
4	0	0	2842	11	2705	49
5	0	0	2852	10	2707	50
6	0	0	2848	10	2715	49
7	0	0	2851	10	2719	49
8	0	0	2844	7	2725	48
9	0	0	2795	7	2727	50
10	0	0	2711	8	2727	50
11	0	0	2604	6	2723	49
12	0	0	2515	6	2709	48
13	0	0	2452	7	2705	50
14	0	0	2396	7	2705	47
15	0	0	2350	8	2708	50
16	0	0	2318	9	2714	51
17	0	0	2315	13	2719	51
18	0	0	2329	11	2725	51
19	0	0	2335	11	2728	50
20	0	0	2343	10	2727	52
21	0	0	2360	11	2721	51
22	0	0	2330	7	2710	51
23	0	0	2251	4	2705	50
24	0	0	2164	7	2705	49
25	0	0	2070	6	2709	50
26	0	0	2041	10	2714	51
27	0	0	2031	6	2720	49
28	0	0	1991	6	2726	50
29	0	0	1920	6	2727	47
30	0	0	1836	7	2727	49
31	0	0	1788	7	2721	47
32	0	0	1807	10	2710	49
33	0	0	1829	10	2704	49
34	0	0	1822	8	2704	50
35	0	0	1785	8	2709	49
36	0	0	1752	9	2714	50
37	0	0	1753	12	2720	51
38	0	0	1816	9	2726	50
39	0	0	1922	11	2727	52
40	0	0	2049	13	2727	53
41	0	0	2164	10	2722	51
42	0	0	2250	13	2711	51
43	0	0	2300	11	2705	49
44	0	0	2318	10	2707	50
45	0	0	2320	12	2710	52
46	0	0	2271	6	2714	51
47	0	0	2178	6	2720	50
48	0	0	2075	7	2725	49
49	0	0	1977	6	2727	47
50	0	0	1890	6	2726	50
51	0	0	1826	7	2721	49
52	0	0	1792	6	2710	49
53	0	0	1740	4	2704	48
54	0	0	1701	7	2705	46
55	0	0	1716	11	2709	49
56	0	0	1751	11	2714	50
57	0	0	1775	11	2720	50
58	0	0	1830	11	2726	51
59	0	0	1901	11	2728	49
60	0	0	2011	13	2727	51
61	0	0	2111	10	2721	52
62	0	0	2217	12	2710	52
63	0	0	2310	8	2705	51
64	0	0	2358	10	2705	49
65	0	0	2362	7	2709	50
66	0	0	2324	6	2715	50
67	0	0	2235	6	2721	50
68	0	0	2146	4	2725	50
69	0	0	2066	6	2727	51
70	0	0	2001	6	2725	48
71	0	0	1949	7	2721	48
72	0	0	1857	6	2710	47
73	0	0	1763	7	2704	52
74	0	0	1709	7	2704	51
75	0	0	1679	10	2710	51
76	0	0	1723	13	2714	51
77	0	0	1808	12	2720	50
78	0	0	1927	11	2726	55
79	0	0	2026	10	2727	51
80	0	0	2102	10	2727	52
81	0	0	2164	10	2721	51
82	0	0	2196	12	2711	51
83	0	0	2223	10	2705	52
84	0	0	2242	10	2705	50
85	0	0	2231	7	2709	49
86	0	0	2187	6	2714	51
87	0	0	2120	6	2720	48
88	0	0	2040	7	2725	50
89	0	0	1984	7	2727	51
90	0	0	1981	8	2727	48
91	0	0	1955	7	2721	48
92	0	0	1901	7	2710	49
93	0	0	1815	7	2704	48
94	0	0	1766	8	2704	48
95	0	0	1773	11	2708	47
96	0	0	1819	11	2714	51
97	0	0	1886	12	2720	51
98	0	0	1970	11	2725	51
99	0	0	2084	11	2728	51
100	0	0	2173	12	2727	51
101	0	0	2212	10	2722	50
102	0	0	2251	11	2711	52
103	0	0	2286	11	2704	50
104	0	0	2320	10	2705	48
105	0	0	2325	8	2708	50
106	0	0	2263	7	2714	51
107	0	0	2172	6	2720	49
108	0	0	2107	6	2724	51
109	0	0	2048	6	2727	47
110	0	0	2005	7	2727	48
111	0	0	1991	8	2721	48
112	0	0	1910	6	2710	44
113	0	0	1772	7	2704	49
114	0	0	1705	8	2705	49
115	0	0	1712	11	2708	49
116	0	0	1759	11	2715	51
117	0	0	1804	13	2721	51
118	0	0	1868	11	2725	50
119	0	0	1998	10	2728	49
120	0	0	2131	10	2726	52
121	0	0	2231	11	2721	52
122	0	0	2282	10	2711	51
123	0	0	2290	10	2704	51
124	0	0	2247	7	2705	51
125	0	0	2178	7	2709	51
126	0	0	2163	9	2714	51
127	0	0	2159	9	2721	50
0	0	0	2135	7	2725	51
1	0	0	2108	6	2727	49
2	0	0	2056	7	2726	48
3	0	0	1998	10	2721	48
4	0	0	1956	8	2710	49
5	0	0	1909	7	2704	51
6	0	0	1853	7	2705	49
7	0	0	1821	8	2708	49
8	0	0	1816	11	2714	48
9	0	0	1852	11	2720	51
10	0	0	1927	11	2726	49
11	0	0	2037	10	2728	50
12	0	0	2142	10	2725	49
13	0	0	2204	8	2721	53
14	0	0	2267	10	2710	52
15	0	0	2304	10	2704	53
16	0	0	2320	10	2705	50
17	0	0	2265	6	2709	49
18	0	0	2196	7	2714	50
19	0	0	2153	7	2721	49
20	0	0	2141	8	2726	53
21	0	0	2095	5	2727	48
22	0	0	2014	6	2727	49
23	0	0	1932	6	2721	48
24	0	0	1862	4	2710	47
25	0	0	1815	7	2704	49
26	0	0	1809	11	2704	48
27	0	0	1829	10	2709	50
28	0	0	1852	11	2714	51
29	0	0	1880	9	2721	51
30	0	0	1928	10	2726	53
31	0	0	2019	11	2728	51
32	0	0	2123	11	2727	51
33	0	0	2179	10	2721	51
34	0	0	2216	8	2711	51
35	0	0	2267	10	2706	55
36	0	0	2284	10	2706	49
37	0	0	2283	9	2709	50
38	0	0	2270	9	2715	51
39	0	0	2247	8	2720	50
40	0	0	2217	7	2725	49
41	0	0	2176	6	2728	48
42	0	0	2112	6	2726	48
43	0	0	2031	7	2721	48
44	0	0	1945	6	2710	47
45	0	0	1877	7	2704	47
46	0	0	1860	9	2704	48
47	0	0	1842	9	2708	49
48	0	0	1852	11	2714	50
49	0	0	1921	15	2720	48
50	0	0	1996	12	2725	51
51	0	0	2073	11	2727	51
52	0	0	2168	16	2726	52
53	0	0	2273	12	2721	51
54	0	0	2330	10	2711	50
55	0	0	2320	9	2704	51
56	0	0	2284	7	2704	49
57	0	0	2240	7	2708	49
58	0	0	2205	7	2714	51
59	0	0	2177	6	2720	49
60	0	0	2152	7	2724	49
61	0	0	2123	6	2727	48
62	0	0	2073	6	2725	47
63	0	0	2013	6	2721	49
64	0	0	1960	4	2710	48
65	0	0	1924	8	2704	47
66	0	0	1892	7	2704	47
67	0	0	1890	7	2707	48
68	0	0	1916	12	2714	51
69	0	0	1973	9	2720	51
70	0	0	2052	11	2725	51
71	0	0	2147	12	2727	54
72	0	0	2246	11	2726	51
73	0	0	2306	11	2721	51
74	0	0	2315	9	2710	51
75	0	0	2304	11	2705	48
76	0	0	2291	10	2704	48
77	0	0	2295	10	2708	50
78	0	0	2288	8	2714	51
79	0	0	2247	6	2720	49
80	0	0	2216	7	2725	51
81	0	0	2197	8	2727	50
82	0	0	2158	7	2726	49
83	0	0	2065	6	2720	47
84	0	0	1946	6	2709	47
85	0	0	1882	6	2703	51
86	0	0	1894	11	2704	47
87	0	0	1930	11	2707	47
88	0	0	1989	12	2713	51
89	0	0	2041	9	2719	51
90	0	0	2098	11	2725	48
91	0	0	2160	11	2726	50
92	0	0	2196	12	2726	50
93	0	0	2241	11	2721	51
94	0	0	2306	9	2710	50
95	0	0	2378	11	2704	48
96	0	0	2393	11	2705	50
97	0	0	2379	10	2708	47
98	0	0	2356	8	2714	51
99	0	0	2322	8	2720	48
100	0	0	2292	7	2725	51
101	0	0	2249	7	2727	52
102	0	0	2179	6	2726	49
103	0	0	2080	7	2720	49
104	0	0	1991	6	2710	48
105	0	0	1943	8	2704	51
106	0	0	1943	12	2704	47
107	0	0	1952	11	2708	49
108	0	0	1995	11	2713	50
109	0	0	2050	12	2720	49
110	0	0	2114	13	2725	53
111	0	0	2192	11	2727	52
112	0	0	2270	13	2726	51
113	0	0	2320	12	2720	52
114	0	0	2346	10	2710	51
115	0	0	2342	11	2704	49
116	0	0	2336	11	2704	51
117	0	0	2345	10	2708	50
118	0	0	2314	7	2714	49
119	0	0	2278	4	2719	50
120	0	0	2263	11	2725	50
121	0	0	2231	6	2727	52
122	0	0	2189	7	2725	49
123	0	0	2156	7	2720	48
124	0	0	2114	7	2710	47
125	0	0	2064	10	2704	48
126	0	0	2016	7	2704	51
127	0	0	2020	11	2706	50
0	0	0	2037	11	2713	51
1	0	0	2055	13	2719	51
2	0	0	2116	13	2725	51
3	0	0	2227	10	2727	49
4	0	0	2324	11	2725	51
5	0	0	2387	12	2720	52
6	0	0	2431	15	2709	53
7	0	0	2489	13	2705	50
8	0	0	2502	11	2704	44
9	0	0	2427	7	2708	50
10	0	0	2349	7	2714	50
11	0	0	2278	4	2719	50
12	0	0	2199	7	2725	50
13	0	0	2150	7	2727	49
14	0	0	2114	7	2725	48
15	0	0	2073	6	2720	49
16	0	0	2040	8	2709	49
17	0	0	1990	8	2703	50
18	0	0	1990	12	2704	53
19	0	0	2006	12	2708	49
20	0	0	2028	9	2713	50
21	0	0	2071	15	2719	51
22	0	0	2134	10	2725	51
23	0	0	2201	12	2727	51
24	0	0	2266	12	2726	51
25	0	0	2331	11	2721	51
26	0	0	2347	11	2710	49
27	0	0	2392	9	2704	51
28	0	0	2407	11	2705	47
29	0	0	2359	7	2708	49
30	0	0	2322	7	2714	49
31	0	0	2288	5	2719	51
32	0	0	2243	5	2725	49
33	0	0	2172	7	2727	51
34	0	0	2100	7	2725	49
35	0	0	2056	7	2720	49
36	0	0	2014	7	2709	49
37	0	0	1965	7	2704	47
38	0	0	1906	7	2704	51
39	0	0	1901	11	2708	50
40	0	0	1924	12	2713	51
41	0	0	1955	15	2719	51
42	0	0	2011	9	2725	50
43	0	0	2082	11	2727	48
44	0	0	2169	11	2726	51
45	0	0	2268	11	2720	51
46	0	0	2333	11	2710	49
47	0	0	2339	9	2704	50
48	0	0	2307	9	2705	48
49	0	0	2304	10	2709	49
50	0	0	2290	7	2714	50
51	0	0	2226	3	2720	51
52	0	0	2158	3	2725	49
53	0	0	2097	7	2727	48
54	0	0	2043	7	2726	48
55	0	0	1982	6	2720	48
56	0	0	1943	7	2709	49
57	0	0	1891	5	2704	49
58	0	0	1848	6	2704	44
59	0	0	1839	11	2708	47
60	0	0	1839	12	2713	50
61	0	0	1879	11	2720	49
62	0	0	1974	10	2725	50
63	0	0	2078	11	2727	48
64	0	0	2148	11	2726	51
65	0	0	2190	11	2721	52
66	0	0	2226	12	2710	51
67	0	0	2268	7	2704	49
68	0	0	2259	6	2704	48
69	0	0	2195	6	2708	50
70	0	0	2140	8	2714	51
71	0	0	2118	9	2720	48
72	0	0	2108	9	2725	49
73	0	0	2117	10	2727	48
74	0	0	2107	7	2726	49
75	0	0	2069	5	2720	49
76	0	0	2020	7	2710	48
77	0	0	1912	4	2704	48
78	0	0	1781	6	2704	47
79	0	0	1711	7	2708	47
80	0	0	1721	11	2713	50
81	0	0	1786	12	2719	52
82	0	0	1864	11	2724	52
83	0	0	1989	10	2727	49
84	0	0	2107	11	2726	51
85	0	0	2175	11	2720	51
86	0	0	2200	12	2710	53
87	0	0	2216	10	2703	54
88	0	0	2214	10	2704	49
89	0	0	2197	9	2708	50
90	0	0	2176	8	2714	51
91	0	0	2123	8	2720	50
92	0	0	2039	4	2725	49
93	0	0	1990	7	2727	49
94	0	0	1955	7	2725	48
95	0	0	1895	7	2721	47
96	0	0	1826	6	2709	47
97	0	0	1744	3	2703	48
98	0	0	1677	7	2704	49
99	0	0	1680	11	2707	50
100	0	0	1791	11	2714	50
101	0	0	1928	8	2719	53
102	0	0	2040	10	2724	51
103	0	0	2096	11	2727	52
104	0	0	2145	11	2725	51
105	0	0	2201	11	2720	51
106	0	0	2249	11	2709	51
107	0	0	2283	9	2704	51
108	0	0	2294	10	2704	51
109	0	0	2290	9	2708	48
110	0	0	2233	6	2714	50
111	0	0	2143	6	2720	47
112	0	0	2072	6	2725	49
113	0	0	2006	8	2727	50
114	0	0	1917	6	2725	48
115	0	0	1830	6	2720	49
116	0	0	1760	8	2709	49
117	0	0	1708	7	2703	49
118	0	0	1705	11	2704	51
119	0	0	1744	11	2707	48
120	0	0	1784	11	2713	50
121	0	0	1818	12	2719	52
122	0	0	1895	11	2724	51
123	0	0	1983	11	2727	52
124	0	0	2037	11	2726	50
125	0	0	2097	11	2720	52
126	0	0	2179	11	2709	51
127	0	0	2262	10	2704	51
0	0	0	2298	9	2704	49
1	0	0	2270	7	2708	51
2	0	0	2216	7	2714	49
3	0	0	2160	8	2720	49
4	0	0	2077	3	2724	49
5	0	0	1973	6	2727	51
6	0	0	1884	6	2725	50
7	0	0	1841	9	2720	49
8	0	0	1857	10	2708	47
9	0	0	1868	10	2703	47
10	0	0	1852	8	2704	50
11	0	0	1790	8	2708	50
12	0	0	1765	11	2713	50
13	0	0	1796	11	2720	49
14	0	0	1857	10	2725	49
15	0	0	1946	11	2727	51
16	0	0	2053	11	2726	52
17	0	0	2132	10	2720	51
18	0	0	2164	7	2709	50
19	0	0	2177	13	2704	50
20	0	0	2174	10	2705	48
21	0	0	2178	10	2708	48
22	0	0	2158	7	2714	49
23	0	0	2114	11	2720	48
24	0	0	2041	6	2724	51
25	0	0	1963	9	2727	51
26	0	0	1935	10	2725	49
27	0	0	1944	10	2720	47
28	0	0	1943	10	2710	48
29	0	0	1927	11	2704	47
30	0	0	1942	12	2704	51
31	0	0	1952	12	2708	50
32	0	0	1936	10	2713	50
33	0	0	1937	12	2720	50
34	0	0	1991	10	2724	52
35	0	0	2090	10	2727	54
36	0	0	2177	11	2726	50
37	0	0	2222	10	2721	50
38	0	0	2246	15	2710	49
39	0	0	2267	11	2704	51
40	0	0	2278	10	2705	51
41	0	0	2251	7	2707	50
42	0	0	2206	7	2714	51
43	0	0	2153	7	2720	48
44	0	0	2087	7	2724	48
45	0	0	2001	6	2727	49
46	0	0	1915	7	2726	48
47	0	0	1835	7	2720	48
48	0	0	1812	9	2709	49
49	0	0	1793	7	2703	49
50	0	0	1749	8	2704	47
51	0	0	1752	11	2707	51
52	0	0	1801	10	2714	50
53	0	0	1896	15	2720	48
54	0	0	2005	10	2724	53
55	0	0	2095	11	2727	51
56	0	0	2169	10	2725	52
57	0	0	2241	11	2720	51
58	0	0	2283	11	2710	50
59	0	0	2310	11	2704	50
60	0	0	2334	10	2705	52
61	0	0	2291	5	2709	50
62	0	0	2219	7	2714	49
63	0	0	2167	7	2720	49
64	0	0	2096	7	2725	49
65	0	0	2006	5	2727	52
66	0	0	1931	7	2725	52
67	0	0	1896	7	2720	48
68	0	0	1879	7	2709	47
69	0	0	1864	6	2703	47
70	0	0	1862	11	2704	48
71	0	0	1888	11	2707	50
72	0	0	1925	10	2713	51
73	0	0	1969	11	2720	48
74	0	0	2012	11	2725	49
75	0	0	2047	10	2727	51
76	0	0	2080	11	2725	51
77	0	0	2132	11	2719	52
78	0	0	2162	11	2709	51
79	0	0	2193	10	2704	50
80	0	0	2213	10	2705	53
81	0	0	2198	10	2708	51
82	0	0	2194	10	2715	50
83	0	0	2158	9	2720	49
84	0	0	2088	7	2725	48
85	0	0	2041	7	2727	48
86	0	0	2007	7	2725	50
87	0	0	1957	4	2720	48
88	0	0	1885	7	2709	44
89	0	0	1834	9	2704	52
90	0	0	1831	11	2704	49
91	0	0	1825	11	2708	51
92	0	0	1849	11	2713	50
93	0	0	1918	12	2720	52
94	0	0	2027	13	2725	52
95	0	0	2133	10	2727	51
96	0	0	2216	11	2726	53
97	0	0	2251	11	2721	51
98	0	0	2286	11	2710	50
99	0	0	2308	10	2705	49
100	0	0	2280	7	2705	51
101	0	0	2256	9	2709	51
102	0	0	2237	8	2714	50
103	0	0	2174	6	2720	49
104	0	0	2080	4	2724	50
105	0	0	1979	7	2727	52
106	0	0	1865	6	2725	49
107	0	0	1791	7	2720	50
108	0	0	1815	10	2709	49
109	0	0	1856	12	2703	49
110	0	0	1888	11	2704	49
111	0	0	1922	12	2708	49
112	0	0	1961	12	2713	50
113	0	0	2030	13	2720	51
114	0	0	2103	8	2725	51
115	0	0	2149	11	2727	51
116	0	0	2206	11	2726	50
117	0	0	2265	11	2721	51
118	0	0	2300	13	2710	52
119	0	0	2316	10	2704	50
120	0	0	2318	12	2705	50
121	0	0	2336	10	2708	50
122	0	0	2348	10	2714	51
123	0	0	2286	6	2719	49
124	0	0	2189	7	2725	47
125	0	0	2092	4	2726	50
126	0	0	2023	6	2725	48
127	0	0	1959	8	2720	47
0	0	0	1916	7	2709	48
1	0	0	1862	4	2703	51
2	0	0	1839	9	2704	48
3	0	0	1858	11	2707	47
4	0	0	1891	12	2713	51
5	0	0	1950	13	2719	51
6	0	0	2061	12	2725	55
7	0	0	2161	12	2727	51
8	0	0	2217	13	2725	50
9	0	0	2254	11	2721	51
10	0	0	2273	11	2709	54
11	0	0	2272	10	2704	49
12	0	0	2267	11	2704	47
13	0	0	2275	10	2708	48
14	0	0	2260	7	2713	50
15	0	0	2183	8	2720	50
16	0	0	2085	6	2725	51
17	0	0	1975	6	2727	49
18	0	0	1898	6	2725	49
19	0	0	1866	7	2720	49
20	0	0	1849	10	2709	49
21	0	0	1850	12	2704	52
22	0	0	1828	5	2704	50
23	0	0	1823	10	2707	48
24	0	0	1876	11	2713	50
25	0	0	1959	12	2719	51
26	0	0	2036	10	2725	55
27	0	0	2099	10	2727	51
28	0	0	2184	10	2725	52
29	0	0	2253	11	2720	52
30	0	0	2294	12	2709	52
31	0	0	2303	10	2704	55
32	0	0	2291	7	2704	52
33	0	0	2270	10	2708	48
34	0	0	2248	7	2714	51
35	0	0	2191	6	2720	47
36	0	0	2098	6	2725	49
37	0	0	1985	6	2727	50
38	0	0	1925	7	2726	49
39	0	0	1912	7	2720	48
40	0	0	1878	7	2709	44
41	0	0	1825	7	2703	50
42	0	0	1813	11	2703	49
43	0	0	1829	11	2708	50
44	0	0	1861	13	2713	51
45	0	0	1896	11	2719	53
46	0	0	1970	15	2725	49
47	0	0	2060	11	2727	51
48	0	0	2148	12	2725	50
49	0	0	2228	10	2720	51
50	0	0	2286	12	2709	51
51	0	0	2320	9	2703	51
52	0	0	2325	10	2704	48
53	0	0	2303	8	2708	48
54	0	0	2269	5	2714	49
55	0	0	2220	10	2720	50
56	0	0	2180	7	2725	48
57	0	0	2148	6	2727	49
58	0	0	2102	7	2725	48
59	0	0	2056	7	2720	47
60	0	0	1993	7	2709	47
61	0	0	1909	3	2703	48
62	0	0	1832	7	2704	49
63	0	0	1815	11	2708	47
64	0	0	1860	11	2713	50
65	0	0	1942	11	2719	53
66	0	0	2049	11	2725	51
67	0	0	2119	11	2727	50
68	0	0	2200	11	2725	49
69	0	0	2319	9	2720	51
70	0	0	2363	11	2709	48
71	0	0	2340	1	2704	49
72	0	0	2287	5	2704	50
73	0	0	2237	6	2708	50
74	0	0	2156	7	2713	50
75	0	0	2089	7	2719	49
76	0	0	2061	3	2725	49
77	0	0	2038	5	2726	51
78	0	0	1989	7	2725	50
79	0	0	1939	7	2719	49
80	0	0	1903	7	2709	48
81	0	0	1855	6	2703	49
82	0	0	1815	7	2704	48
83	0	0	1836	11	2707	48
84	0	0	1901	10	2714	50
85	0	0	1966	11	2719	51
86	0	0	2056	11	2724	49
87	0	0	2154	10	2727	51
88	0	0	2216	15	2725	52
89	0	0	2267	12	2720	53
90	0	0	2289	10	2710	50
91	0	0	2293	11	2704	52
92	0	0	2263	3	2704	51
93	0	0	2224	7	2708	49
94	0	0	2189	8	2713	50
95	0	0	2184	10	2720	49
96	0	0	2171	7	2724	49
97	0	0	2117	6	2727	52
98	0	0	2032	6	2725	140
99	0	0	1953	5	2720	431
100	0	0	1903	7	2708	897
101	0	0	1866	6	2703	1411
102	0	0	1835	8	2704	1898
103	0	0	1802	8	2707	2312
104	0	0	1832	12	2713	2639
105	0	0	1947	12	2720	2894
106	0	0	2060	11	2725	3091
107	0	0	2141	10	2727	3240
108	0	0	2209	11	2725	3356
109	0	0	2243	10	2721	3449
110	0	0	2253	11	2709	3521
111	0	0	2279	8	2704	3580
112	0	0	2268	8	2704	3629
113	0	0	2215	5	2708	3669
114	0	0	2195	10	2714	3701
115	0	0	2195	9	2720	3731
116	0	0	2171	7	2725	3754
117	0	0	2110	4	2727	3774
118	0	0	2038	6	2725	3792
119	0	0	1978	6	2719	3807
120	0	0	1933	7	2710	3820
121	0	0	1891	8	2703	3833
122	0	0	1877	11	2704	3843
123	0	0	1882	11	2707	3852
124	0	0	1911	10	2713	3861
125	0	0	1966	11	2719	3869
126	0	0	2040	8	2725	3877
127	0	0	2102	11	2727	3883
0	0	0	2139	11	2725	3888
1	0	0	2210	12	2720	3895
2	0	0	2281	9	2709	3898
3	0	0	2325	12	2704	3904
4	0	0	2332	11	2704	3907
5	0	0	2329	9	2708	3912
6	0	0	2289	7	2713	3914
7	0	0	2190	6	2720	3918
8	0	0	2067	8	2724	3922
9	0	0	1950	6	2727	3924
10	0	0	1873	6	2725	3928
11	0	0	1867	9	2719	3928
12	0	0	1898	10	2710	3930
13	0	0	1925	8	2703	3933
14	0	0	1962	11	2704	3936
15	0	0	1986	12	2707	3936
16	0	0	2000	13	2713	3939
17	0	0	2040	12	2720	3941
18	0	0	2113	12	2725	3943
19	0	0	2179	11	2727	3945
20	0	0	2239	11	2726	3946
21	0	0	2268	11	2720	3947
22	0	0	2276	11	2709	3949
23	0	0	2304	12	2704	3952
24	0	0	2327	11	2704	3952
25	0	0	2299	7	2708	3952
26	0	0	2210	5	2714	3953
27	0	0	2108	6	2719	3955
28	0	0	2041	4	2725	3956
29	0	0	2006	9	2727	3957
30	0	0	2005	11	2725	3958
31	0	0	2014	10	2720	3958
32	0	0	2015	9	2709	3959
33	0	0	1975	8	2703	3961
34	0	0	1949	12	2704	3962
35	0	0	1972	11	2707	3962
36	0	0	2038	14	2714	3964
37	0	0	2110	12	2720	3962
38	0	0	2165	14	2724	3964
39	0	0	2201	11	2727	3966
40	0	0	2216	11	2725	3966
41	0	0	2213	11	2720	3965
42	0	0	2206	12	2710	3967
43	0	0	2226	9	2704	3968
44	0	0	2255	11	2704	3969
45	0	0	2268	8	2708	3969
46	0	0	2224	6	2713	3969
47	0	0	2168	7	2719	3970
48	0	0	2143	7	2724	3970
49	0	0	2106	8	2727	3970
50	0	0	2079	8	2725	3971
51	0	0	2037	9	2720	3972
52	0	0	1915	7	2708	3972
53	0	0	1742	4	2703	3973
54	0	0	1684	11	2704	3974
55	0	0	1760	10	2707	3976
56	0	0	1881	11	2714	3975
57	0	0	2012	11	2720	3972
58	0	0	2107	11	2724	3975
59	0	0	2169	11	2727	3975
60	0	0	2216	11	2726	3972
61	0	0	2264	11	2719	3976
62	0	0	2298	11	2709	3975
63	0	0	2321	8	2704	3976
64	0	0	2335	9	2704	3978
65	0	0	2339	10	2708	3979
66	0	0	2328	8	2713	3977
67	0	0	2269	6	2720	3975
68	0	0	2188	8	2724	3978
69	0	0	2116	7	2726	3979
70	0	0	2058	7	2725	3980
71	0	0	2014	7	2719	3979
72	0	0	1975	7	2709	3980
73	0	0	1923	7	2704	3982
74	0	0	1881	8	2704	3981
75	0	0	1878	11	2708	3982
76	0	0	1912	13	2713	3980
77	0	0	2019	12	2719	3981
78	0	0	2106	12	2724	3982
79	0	0	2171	10	2727	3982
80	0	0	2208	12	2725	3982
81	0	0	2235	10	2720	3984
82	0	0	2271	10	2710	3980
83	0	0	2293	8	2704	3982
84	0	0	2278	7	2704	3983
85	0	0	2262	10	2708	3985
86	0	0	2232	7	2713	3983
87	0	0	2165	5	2719	3983
88	0	0	2090	8	2724	3983
89	0	0	2034	5	2727	3985
90	0	0	2004	8	2725	3983
91	0	0	1995	10	2719	3984
92	0	0	2003	8	2709	3984
93	0	0	1977	8	2703	3983
94	0	0	1982	11	2703	3985
95	0	0	1973	11	2707	3985
96	0	0	1976	12	2713	3985
97	0	0	2016	10	2719	3985
98	0	0	2074	14	2724	3985
99	0	0	2128	9	2727	3986
100	0	0	2159	13	2725	3988
101	0	0	2198	11	2720	3983
102	0	0	2233	8	2709	3986
103	0	0	2296	12	2703	3985
104	0	0	2330	9	2704	3987
105	0	0	2285	7	2708	3987
106	0	0	2228	7	2714	3986
107	0	0	2169	6	2720	3987
108	0	0	2096	6	2725	3988
109	0	0	2036	3	2726	3987
110	0	0	2003	7	2726	3988
111	0	0	1977	10	2719	3987
112	0	0	1952	7	2708	3988
113	0	0	1913	7	2703	3988
114	0	0	1888	8	2704	3988
115	0	0	1898	11	2707	3991
116	0	0	1943	12	2713	3988
117	0	0	2012	11	2720	3988
118	0	0	2115	11	2723	3988
119	0	0	2198	11	2726	3990
120	0	0	2254	11	2725	3989
121	0	0	2322	10	2720	3990
122	0	0	2336	10	2709	3988
123	0	0	2352	11	2703	3988
124	0	0	2357	10	2704	3990
125	0	0	2324	8	2707	3989
126	0	0	2306	9	2713	3989
127	0	0	2295	7	2719	3988
0	0	0	2231	8	2724	3988
1	0	0	2092	6	2726	3989
2	0	0	1938	6	2724	3988
3	0	0	1827	7	2719	3989
4	0	0	1799	11	2708	3991
5	0	0	1833	14	2702	3990
6	0	0	1881	10	2703	3990
7	0	0	1931	12	2707	3991
8	0	0	1959	12	2712	3990
9	0	0	1984	11	2719	3991
10	0	0	2026	12	2724	3992
11	0	0	2092	8	2726	3990
12	0	0	2198	9	2725	3991
13	0	0	2287	11	2719	3994
14	0	0	2348	11	2709	3993
15	0	0	2384	10	2704	3991
16	0	0	2393	7	2704	3992
17	0	0	2352	7	2707	3991
18	0	0	2291	7	2714	3992
19	0	0	2221	6	2720	3992
20	0	0	2125	6	2723	3992
21	0	0	2034	5	2726	3993
22	0	0	1960	7	2725	3991
23	0	0	1929	7	2720	3993
24	0	0	1898	8	2709	3992
25	0	0	1885	10	2703	3991
26	0	0	1905	13	2703	3992
27	0	0	1944	11	2708	3993
28	0	0	1953	10	2713	3992
29	0	0	2000	12	2719	3994
30	0	0	2095	11	2724	3991
31	0	0	2163	15	2727	3993
32	0	0	2225	11	2725	3992
33	0	0	2275	12	2719	3992
34	0	0	2307	12	2708	3992
35	0	0	2329	11	2704	3992
36	0	0	2352	10	2704	3993
37	0	0	2336	6	2707	3993
38	0	0	2296	7	2713	3992
39	0	0	2222	8	2719	3993
40	0	0	2150	6	2723	3993
41	0	0	2105	6	2726	3994
42	0	0	2068	7	2724	3992
43	0	0	1996	7	2720	3994
44	0	0	1963	9	2709	3993
45	0	0	1959	10	2703	3991
46	0	0	1931	11	2703	3994
47	0	0	1919	12	2707	3996
48	0	0	1959	11	2713	3994
49	0	0	2043	7	2719	3995
50	0	0	2120	12	2724	3993
51	0	0	2188	11	2726	3994
52	0	0	2234	11	2726	3994
53	0	0	2252	7	2719	3993
54	0	0	2247	11	2709	3995
55	0	0	2268	11	2703	3992
56	0	0	2267	9	2704	3995
57	0	0	2261	10	2707	3993
58	0	0	2259	10	2713	3994
59	0	0	2243	15	2719	3993
60	0	0	2205	7	2724	3992
61	0	0	2117	4	2726	3994
62	0	0	1989	7	2725	3994
63	0	0	1897	7	2719	3994
64	0	0	1859	12	2708	3994
65	0	0	1874	11	2702	3995
66	0	0	1909	11	2704	3996
67	0	0	1942	12	2706	3998
68	0	0	1998	11	2713	3996
69	0	0	2053	12	2719	3995
70	0	0	2105	12	2724	3992
71	0	0	2199	15	2726	3996
72	0	0	2283	12	2725	3994
73	0	0	2348	11	2719	3995
74	0	0	2398	12	2709	3996
75	0	0	2419	11	2703	3995
76	0	0	2403	11	2704	3996
77	0	0	2355	7	2708	3996
78	0	0	2280	6	2713	3995
79	0	0	2212	8	2719	3995
80	0	0	2164	6	2725	3993
81	0	0	2119	9	2726	3996
82	0	0	2071	8	2724	3995
83	0	0	2057	11	2719	3995
84	0	0	2039	11	2708	3995
85	0	0	1974	8	2703	3996
86	0	0	1899	5	2703	3996
87	0	0	1819	7	2707	3996
88	0	0	1786	9	2713	3997
89	0	0	1842	12	2719	3996
90	0	0	1955	11	2725	3996
91	0	0	2069	15	2726	3996
92	0	0	2170	11	2725	3996
93	0	0	2211	10	2719	3996
94	0	0	2210	11	2709	3995
95	0	0	2223	10	2704	3997
96	0	0	2262	10	2704	3996
97	0	0	2271	10	2707	3996
98	0	0	2254	7	2713	3996
99	0	0	2214	7	2719	3995
100	0	0	2197	9	2725	3996
101	0	0	2162	7	2726	3997
102	0	0	2084	6	2724	3996
103	0	0	2006	7	2719	3996
104	0	0	1959	8	2708	3997
105	0	0	1904	10	2703	3996
106	0	0	1909	10	2703	3997
107	0	0	1957	12	2706	3996
108	0	0	1973	11	2712	3997
109	0	0	1973	11	2719	3996
110	0	0	1991	11	2724	3998
111	0	0	2101	12	2726	3997
112	0	0	2230	11	2724	3996
113	0	0	2328	7	2719	3996
114	0	0	2369	11	2708	4000
115	0	0	2385	10	2703	3997
116	0	0	2363	7	2704	3997
117	0	0	2291	6	2707	3996
118	0	0	2204	8	2712	3997
119	0	0	2101	8	2718	3996
120	0	0	2073	8	2724	3997
121	0	0	2041	5	2726	3998
122	0	0	1990	7	2724	3998
123	0	0	1960	10	2718	3998
124	0	0	1983	12	2707	3997
125	0	0	1971	11	2701	3998
126	0	0	1951	8	2703	3998
127	0	0	1951	11	2706	3997
0	0	0	1959	12	2713	3997
1	0	0	2003	12	2719	3997
2	0	0	2062	11	2724	3999
3	0	0	2138	10	2726	3998
4	0	0	2185	11	2725	3999
5	0	0	2217	11	2719	3997
6	0	0	2264	12	2708	3997
7	0	0	2288	11	2703	3998
8	0	0	2292	10	2703	3998
9	0	0	2266	8	2707	3997
10	0	0	2222	7	2712	3997
11	0	0	2199	10	2719	4000
12	0	0	2187	7	2723	3998
13	0	0	2134	5	2725	3999
14	0	0	2060	6	2724	3997
15	0	0	1990	8	2718	4000
16	0	0	1939	7	2708	3999
17	0	0	1903	8	2703	3998
18	0	0	1896	11	2703	3999
19	0	0	1925	11	2706	3998
20	0	0	1991	10	2713	3999
21	0	0	2061	11	2719	3999
22	0	0	2100	10	2724	3998
23	0	0	2114	12	2726	3998
24	0	0	2154	12	2724	3998
25	0	0	2229	12	2719	3998
26	0	0	2293	10	2708	3997
27	0	0	2309	12	2702	3999
28	0	0	2262	7	2703	3999
29	0	0	2175	6	2707	3998
30	0	0	2099	8	2712	4000
31	0	0	2076	7	2719	4000
32	0	0	2057	11	2723	3999
33	0	0	2075	10	2725	3999
34	0	0	2084	11	2724	3998
35	0	0	2064	9	2718	3998
36	0	0	2017	7	2708	4000
37	0	0	1963	7	2702	3999
38	0	0	1927	10	2703	3999
39	0	0	1932	11	2706	3998
40	0	0	1953	12	2712	3996
41	0	0	1999	11	2719	3998
42	0	0	2054	12	2723	3999
43	0	0	2128	12	2725	3999
44	0	0	2193	11	2724	3997
45	0	0	2222	11	2719	3998
46	0	0	2263	10	2708	3998
47	0	0	2324	11	2702	3999
48	0	0	2351	7	2703	3999
49	0	0	2342	8	2707	3998
50	0	0	2288	6	2712	3998
51	0	0	2216	6	2719	3999
52	0	0	2141	6	2724	4000
53	0	0	2073	8	2724	3999
54	0	0	2050	8	2725	4000
55	0	0	2041	12	2718	3999
56	0	0	2030	7	2708	3999
57	0	0	1976	7	2702	4000
58	0	0	1918	8	2703	3999
59	0	0	1919	12	2706	3999
60	0	0	1943	10	2713	4000
61	0	0	1993	11	2718	3999
62	0	0	2068	12	2724	3999
63	0	0	2143	11	2726	4000
64	0	0	2189	11	2724	3999
65	0	0	2201	10	2720	4000
66	0	0	2224	10	2709	4002
67	0	0	2269	10	2702	4000
68	0	0	2280	10	2704	4000
69	0	0	2257	9	2707	3999
70	0	0	2232	6	2713	4000
71	0	0	2194	7	2719	4000
72	0	0	2116	6	2724	4000
73	0	0	2029	7	2725	3999
74	0	0	1978	8	2724	3999
75	0	0	1959	8	2718	3999
76	0	0	1923	7	2707	4000
77	0	0	1870	7	2702	4000
78	0	0	1844	13	2703	4000
79	0	0	1881	11	2706	3998
80	0	0	1948	12	2712	3999
81	0	0	2040	11	2719	3999
82	0	0	2132	12	2723	4000
83	0	0	2205	7	2725	4000
84	0	0	2266	11	2724	3999
85	0	0	2289	11	2719	3999
86	0	0	2295	11	2708	3998
87	0	0	2296	11	2702	3999
88	0	0	2260	7	2703	4000
89	0	0	2187	6	2707	4000
90	0	0	2127	12	2712	3999
91	0	0	2113	10	2719	3999
92	0	0	2111	8	2724	4000
93	0	0	2065	3	2725	4000
94	0	0	1996	7	2724	3999
95	0	0	1930	8	2718	4000
96	0	0	1901	10	2707	3998
97	0	0	1908	11	2702	4000
98	0	0	1917	11	2703	4001
99	0	0	1895	9	2706	3999
100	0	0	1903	14	2712	3999
101	0	0	1955	11	2718	3999
102	0	0	2038	11	2723	4000
103	0	0	2122	9	2725	4000
104	0	0	2194	12	2724	3999
105	0	0	2249	10	2719	4000
106	0	0	2316	11	2708	3999
107	0	0	2370	10	2702	3999
108	0	0	2385	7	2703	4000
109	0	0	2363	7	2707	3999
110	0	0	2311	7	2713	4001
111	0	0	2229	6	2719	3999
112	0	0	2114	6	2724	4000
113	0	0	2041	7	2725	4001
114	0	0	2008	7	2723	4000
115	0	0	1960	7	2718	4000
116	0	0	1926	7	2708	3999
117	0	0	1867	7	2702	4000
118	0	0	1834	7	2702	4001
119	0	0	1865	11	2706	4000
120	0	0	1913	11	2712	3999
121	0	0	1979	11	2718	4000
122	0	0	2065	11	2723	3999
123	0	0	2127	8	2725	4000
124	0	0	2157	11	2724	4000
125	0	0	2199	11	2718	4000
126	0	0	2256	12	2707	3999
127	0	0	2298	10	2702	4000
0	0	0	2294	5	2703	4000
1	0	0	2256	7	2707	4001
2	0	0	2219	9	2712	4000
3	0	0	2166	7	2718	4000
4	0	0	2099	7	2723	4001
5	0	0	2035	1	2725	4001
6	0	0	2009	8	2723	3999
7	0	0	1986	8	2718	4001
8	0	0	1949	7	2708	4000
9	0	0	1906	7	2701	4000
10	0	0	1886	11	2702	4002
11	0	0	1917	11	2706	4000
12	0	0	1984	11	2712	3999
13	0	0	2048	11	2718	4000
14	0	0	2119	11	2723	4001
15	0	0	2193	10	2725	4001
16	0	0	2260	11	2724	4000
17	0	0	2327	11	2718	4000
18	0	0	2367	11	2707	3999
19	0	0	2378	11	2702	4000
20	0	0	2348	4	2702	4001
21	0	0	2327	8	2706	3999
22	0	0	2284	6	2712	4000
23	0	0	2229	8	2717	3999
24	0	0	2144	6	2723	4000
25	0	0	2063	3	2725	4001
26	0	0	2041	8	2724	4001
27	0	0	1993	7	2718	4000
28	0	0	1946	7	2707	4000
29	0	0	1915	8	2702	4001
30	0	0	1898	8	2702	4002
31	0	0	1915	11	2706	4000
32	0	0	1945	15	2711	4000
33	0	0	1991	13	2717	4000
34	0	0	2070	11	2722	4001
35	0	0	2160	8	2725	4001
36	0	0	2221	11	2723	4000
37	0	0	2253	11	2719	4001
38	0	0	2299	10	2708	4001
39	0	0	2334	10	2702	4000
40	0	0	2345	10	2703	4002
41	0	0	2285	6	2706	4000
42	0	0	2183	6	2712	4000
43	0	0	2123	6	2718	4002
44	0	0	2083	7	2723	4001
45	0	0	2046	2	2725	4001
46	0	0	2033	9	2723	4000
47	0	0	2049	11	2717	4000
48	0	0	2079	12	2706	4001
49	0	0	2065	9	2702	4002
50	0	0	2040	8	2702	4002
51	0	0	1984	8	2705	4001
52	0	0	1941	8	2711	4000
53	0	0	1958	12	2717	4001
54	0	0	2035	11	2723	4001
55	0	0	2113	8	2725	4001
56	0	0	2186	11	2724	4002
57	0	0	2233	7	2719	3999
58	0	0	2264	10	2708	4002
59	0	0	2307	10	2702	4003
60	0	0	2314	6	2702	4001
61	0	0	2282	8	2706	4000
62	0	0	2268	11	2711	4001
63	0	0	2230	6	2718	4001
64	0	0	2129	7	2722	4001
65	0	0	2035	6	2724	4003
66	0	0	1964	7	2723	4000
67	0	0	1918	7	2717	4001
68	0	0	1895	8	2706	4001
69	0	0	1895	11	2701	4001
70	0	0	1935	12	2702	4002
71	0	0	1963	11	2705	4001
72	0	0	1986	12	2712	4002
73	0	0	2024	9	2718	4003
74	0	0	2075	12	2721	4000
75	0	0	2147	10	2725	4002
76	0	0	2216	11	2723	3999
77	0	0	2245	8	2719	4000
78	0	0	2233	8	2707	4002
79	0	0	2235	10	2702	4002
80	0	0	2246	10	2702	4002
81	0	0	2223	8	2706	4001
82	0	0	2218	10	2711	4001
83	0	0	2208	8	2718	4001
84	0	0	2167	7	2722	4000
85	0	0	2086	6	2724	4001
86	0	0	2018	7	2723	4002
87	0	0	1984	7	2718	4001
88	0	0	1948	8	2706	4001
89	0	0	1887	7	2701	4001
90	0	0	1859	10	2701	4001
91	0	0	1871	11	2705	4001
92	0	0	1912	10	2712	4001
93	0	0	2001	11	2718	4001
94	0	0	2055	11	2723	4000
95	0	0	2067	11	2725	4003
96	0	0	2093	12	2723	4001
97	0	0	2164	10	2718	4002
98	0	0	2251	8	2707	4002
99	0	0	2282	11	2701	4001
100	0	0	2244	7	2702	4002
101	0	0	2200	3	2706	4000
102	0	0	2188	11	2711	4001
103	0	0	2202	10	2717	4001
104	0	0	2204	8	2722	4001
105	0	0	2153	6	2724	4002
106	0	0	2074	7	2722	4002
107	0	0	1990	6	2717	4000
108	0	0	1911	6	2707	4002
109	0	0	1849	7	2701	4001
110	0	0	1824	10	2702	4002
111	0	0	1840	11	2705	4001
112	0	0	1884	11	2711	4001
113	0	0	1947	12	2717	4001
114	0	0	2020	12	2722	4000
115	0	0	2085	7	2724	4002
116	0	0	2129	13	2722	3999
117	0	0	2190	11	2717	4000
118	0	0	2239	11	2707	4002
119	0	0	2272	10	2701	4001
120	0	0	2279	10	2702	4003
121	0	0	2233	7	2705	4001
122	0	0	2180	7	2711	4002
123	0	0	2122	6	2717	4001
124	0	0	2071	7	2722	4000
125	0	0	2026	7	2724	4002
126	0	0	1993	7	2723	4001
127	0	0	1967	5	2718	4002
0	0	0	1925	7	2707	4004
1	0	0	1882	9	2701	4002
2	0	0	1864	9	2702	4003
3	0	0	1870	11	2705	4000
4	0	0	1920	12	2711	4003
5	0	0	1999	12	2717	4004
6	0	0	2096	11	2722	4001
7	0	0	2164	7	2724	4002
8	0	0	2211	11	2723	4001
9	0	0	2265	11	2717	4001
10	0	0	2291	15	2706	4001
11	0	0	2278	11	2701	4001
12	0	0	2267	9	2701	4003
13	0	0	2224	10	2705	4001
14	0	0	2175	6	2711	4001
15	0	0	2117	6	2718	4002
16	0	0	2049	7	2722	4001
17	0	0	1983	7	2724	4002
18	0	0	1946	7	2723	4003
19	0	0	1920	7	2717	4001
20	0	0	1877	7	2706	4002
21	0	0	1852	9	2701	4003
22	0	0	1851	10	2701	4003
23	0	0	1830	8	2705	4001
24	0	0	1816	11	2710	4001
25	0	0	1835	11	2717	4002
26	0	0	1886	10	2722	4000
27	0	0	1918	7	2723	4003
28	0	0	1956	11	2723	4002
29	0	0	2026	11	2717	4001
30	0	0	2121	7	2706	4001
31	0	0	2210	9	2702	4001
32	0	0	2236	9	2701	4002
33	0	0	2221	8	2706	4001
34	0	0	2201	10	2711	4001
35	0	0	2205	7	2717	4002
36	0	0	2191	8	2722	4001
37	0	0	2164	8	2723	4003
38	0	0	2156	11	2722	4002
39	0	0	2162	12	2717	4003
40	0	0	2137	7	2706	4004
41	0	0	2127	11	2700	4002
42	0	0	2183	11	2701	4003
43	0	0	2242	12	2705	3999
44	0	0	2311	13	2711	4003
45	0	0	2405	11	2717	4001
46	0	0	2507	12	2722	4001
47	0	0	2602	11	2724	4002
48	0	0	2692	11	2723	4002
49	0	0	2752	12	2717	4001
50	0	0	2803	11	2706	4002
51	0	0	2863	10	2702	4003
52	0	0	2898	5	2701	4003
53	0	0	2901	14	2705	3999
54	0	0	2846	9	2710	4001
55	0	0	2791	7	2717	4001
56	0	0	2767	9	2722	4001
57	0	0	2707	7	2724	4004
58	0	0	2632	7	2722	4002
59	0	0	2563	7	2717	4001
60	0	0	2459	7	2706	4001
61	0	0	2337	5	2701	4002
62	0	0	2225	7	2701	4002
63	0	0	2142	7	2705	4002
64	0	0	2074	7	2711	4003
65	0	0	2063	12	2718	4005
66	0	0	2066	12	2722	4001
67	0	0	2026	7	2724	4003
68	0	0	1988	8	2722	4000
69	0	0	1995	11	2716	4002
70	0	0	2022	11	2705	4002
71	0	0	2046	10	2701	4003
72	0	0	2049	10	2701	4003
73	0	0	2023	7	2705	4003
74	0	0	1995	7	2711	4002
75	0	0	1984	8	2717	4002
76	0	0	1969	7	2722	4002
77	0	0	1934	7	2723	4003
78	0	0	1882	7	2722	4002
79	0	0	1814	6	2716	4002
80	0	0	1770	7	2705	4002
81	0	0	1755	8	2701	4003
82	0	0	1757	11	2701	4002
83	0	0	1784	12	2704	4001
84	0	0	1804	11	2710	4002
85	0	0	1846	11	2717	4003
86	0	0	1905	12	2722	4003
87	0	0	1972	11	2723	4003
88	0	0	2078	11	2723	4002
89	0	0	2159	13	2717	4002
90	0	0	2187	11	2706	4002
91	0	0	2182	10	2701	4002
92	0	0	2178	8	2701	4003
93	0	0	2176	13	2705	4002
94	0	0	2166	11	2710	4002
95	0	0	2133	4	2717	4001
96	0	0	2052	7	2721	4002
97	0	0	1976	8	2724	4003
98	0	0	1933	8	2722	4002
99	0	0	1909	9	2716	4002
100	0	0	1874	5	2706	4001
101	0	0	1855	8	2700	4003
102	0	0	1839	9	2701	4004
103	0	0	1831	10	2704	4002
104	0	0	1829	11	2711	4003
105	0	0	1860	13	2717	4001
106	0	0	1931	11	2722	4005
107	0	0	2001	11	2724	4004
108	0	0	2069	11	2722	4002
109	0	0	2134	11	2717	4001
110	0	0	2155	11	2706	4002
111	0	0	2202	10	2701	4003
112	0	0	2254	11	2702	4003
113	0	0	2256	9	2705	4002
114	0	0	2223	7	2710	4002
115	0	0	2172	6	2717	4002
116	0	0	2115	7	2721	4003
117	0	0	2053	7	2724	4003
118	0	0	1985	6	2722	4004
119	0	0	1936	9	2716	4003
120	0	0	1888	6	2705	4002
121	0	0	1803	7	2700	4005
122	0	0	1739	7	2701	4003
123	0	0	1755	11	2704	4003
124	0	0	1841	12	2710	4003
125	0	0	1930	12	2716	4002
126	0	0	1976	11	2721	4005
127	0	0	2010	11	2724	4004
0	0	0	2068	11	2722	4002
1	0	0	2118	12	2717	4004
2	0	0	2172	12	2706	4005
3	0	0	2225	11	2700	4005
4	0	0	2231	10	2700	4003
5	0	0	2208	7	2705	4001
6	0	0	2135	7	2710	4002
7	0	0	2057	6	2717	4002
8	0	0	1999	5	2721	4002
9	0	0	1953	8	2724	4002
10	0	0	1927	9	2721	4003
11	0	0	1938	11	2716	4002
12	0	0	1940	8	2705	4003
13	0	0	1892	7	2699	4003
14	0	0	1871	11	2701	4002
15	0	0	1880	11	2704	4005
16	0	0	1899	13	2710	4003
17	0	0	1944	11	2716	4002
18	0	0	1987	11	2722	4004
19	0	0	2037	12	2725	4000
20	0	0	2081	14	2722	4003
21	0	0	2115	11	2717	4002
22	0	0	2171	10	2705	4003
23	0	0	2210	9	2700	4004
24	0	0	2227	10	2701	4003
25	0	0	2199	7	2704	4002
26	0	0	2153	8	2710	4003
27	0	0	2110	8	2716	4002
28	0	0	2061	5	2721	4002
29	0	0	1976	7	2723	4003
30	0	0	1907	7	2721	4002
31	0	0	1854	8	2716	4003
32	0	0	1805	7	2705	4000
33	0	0	1778	8	2700	4003
34	0	0	1787	11	2701	4003
35	0	0	1831	11	2705	4004
36	0	0	1870	7	2710	4003
37	0	0	1923	12	2716	4002
38	0	0	1959	11	2721	4004
39	0	0	1990	13	2722	4003
40	0	0	2064	12	2722	4003
41	0	0	2165	11	2716	4003
42	0	0	2225	10	2705	4003
43	0	0	2255	10	2700	4003
44	0	0	2225	8	2701	4003
45	0	0	2187	8	2703	4003
46	0	0	2145	7	2710	4003
47	0	0	2071	6	2716	4003
48	0	0	1977	7	2720	4003
49	0	0	1899	7	2722	4003
50	0	0	1885	10	2721	4002
51	0	0	1881	11	2716	4003
52	0	0	1887	10	2705	4004
53	0	0	1890	9	2700	4002
54	0	0	1857	7	2699	4003
55	0	0	1820	11	2704	4003
56	0	0	1844	8	2710	4002
57	0	0	1916	11	2716	4004
58	0	0	2001	11	2720	4000
59	0	0	2071	11	2722	4004
60	0	0	2123	12	2721	4003
61	0	0	2146	8	2716	4002
62	0	0	2165	11	2705	4004
63	0	0	2202	9	2700	4002
64	0	0	2241	10	2700	4003
65	0	0	2222	9	2704	4003
66	0	0	2197	8	2710	4002
67	0	0	2172	8	2717	4004
68	0	0	2135	7	2721	4003
69	0	0	2063	6	2723	4004
70	0	0	1984	6	2721	4002
71	0	0	1916	7	2716	4005
72	0	0	1871	7	2705	4001
73	0	0	1830	9	2700	4003
74	0	0	1808	9	2700	4004
75	0	0	1812	11	2704	4003
76	0	0	1831	9	2710	4003
77	0	0	1896	11	2716	4005
78	0	0	2007	11	2721	4004
79	0	0	2097	10	2723	4004
80	0	0	2162	11	2721	4003
81	0	0	2199	8	2716	4002
82	0	0	2212	11	2705	4003
83	0	0	2251	10	2700	4004
84	0	0	2280	5	2700	4003
85	0	0	2281	10	2704	4004
86	0	0	2246	7	2710	4002
87	0	0	2149	6	2715	4003
88	0	0	2052	6	2721	4004
89	0	0	1992	9	2721	4003
90	0	0	1953	8	2721	4003
91	0	0	1942	11	2716	4003
92	0	0	1914	7	2704	4004
93	0	0	1829	7	2699	4003
94	0	0	1771	8	2699	4003
95	0	0	1773	12	2703	4003
96	0	0	1834	9	2710	4002
97	0	0	1925	10	2716	4004
98	0	0	2035	11	2721	4005
99	0	0	2108	11	2723	4003
100	0	0	2149	11	2721	4002
101	0	0	2191	9	2716	4003
102	0	0	2238	11	2705	4004
103	0	0	2281	11	2700	4004
104	0	0	2314	10	2700	4003
105	0	0	2316	8	2704	4003
106	0	0	2253	4	2710	4002
107	0	0	2165	5	2716	4004
108	0	0	2082	7	2721	4003
109	0	0	2002	6	2722	4003
110	0	0	1945	7	2721	4004
111	0	0	1907	10	2716	4002
112	0	0	1903	10	2703	4003
113	0	0	1871	8	2699	4005
114	0	0	1840	9	2699	4003
115	0	0	1849	11	2703	4005
116	0	0	1880	9	2710	4004
117	0	0	1914	10	2716	4003
118	0	0	1978	11	2721	4003
119	0	0	2042	11	2723	4002
120	0	0	2091	11	2721	4003
121	0	0	2162	10	2715	4004
122	0	0	2228	11	2704	4003
123	0	0	2266	10	2699	4003
124	0	0	2261	10	2699	4004
125	0	0	2250	10	2703	4003
126	0	0	2277	16	2709	4004
127	0	0	2287	9	2716	4003
0	0	0	2226	6	2720	4003
1	0	0	2145	7	2722	4003
2	0	0	2105	8	2721	4004
3	0	0	2074	7	2715	4003
4	0	0	1993	7	2704	4003
5	0	0	1898	6	2699	4005
6	0	0	1851	9	2699	4003
7	0	0	1865	12	2703	4003
8	0	0	1906	11	2709	4003
9	0	0	1915	10	2716	4004
10	0	0	1964	11	2721	4001
11	0	0	2051	11	2722	4005
12	0	0	2123	11	2721	4003
13	0	0	2188	8	2716	4002
14	0	0	2231	11	2705	4002
15	0	0	2293	10	2699	4003
16	0	0	2330	10	2699	4004
17	0	0	2354	11	2703	4003
18	0	0	2359	8	2709	4003
19	0	0	2318	7	2716	4002
20	0	0	2252	7	2720	4001
21	0	0	2174	7	2722	4004
22	0	0	2095	6	2720	4003
23	0	0	2044	7	2715	4004
24	0	0	2022	8	2704	4004
25	0	0	2015	11	2699	4003
26	0	0	2026	11	2700	4004
27	0	0	2007	9	2703	4003
28	0	0	1992	13	2708	4004
29	0	0	2016	12	2715	4003
30	0	0	2065	13	2720	4003
31	0	0	2091	11	2721	4004
32	0	0	2117	11	2720	4003
33	0	0	2150	10	2715	4003
34	0	0	2196	12	2704	4003
35	0	0	2251	11	2699	4003
36	0	0	2313	3	2699	4003
37	0	0	2340	10	2702	4004
38	0	0	2327	7	2709	4003
39	0	0	2272	8	2715	4003
40	0	0	2174	5	2720	4004
41	0	0	2077	7	2721	4003
42	0	0	2024	7	2721	4004
43	0	0	2012	7	2715	4002
44	0	0	2017	13	2704	4003
45	0	0	2019	11	2699	4003
46	0	0	2045	11	2699	4003
47	0	0	2085	12	2703	4000
48	0	0	2114	10	2709	4002
49	0	0	2148	12	2715	4002
50	0	0	2117	7	2720	4003
51	0	0	2077	12	2721	4004
52	0	0	2124	11	2720	4003
53	0	0	2174	9	2715	4002
54	0	0	2200	11	2704	4003
55	0	0	2249	10	2699	4004
56	0	0	2286	10	2699	4004
57	0	0	2283	9	2703	4003
58	0	0	2265	8	2709	4006
59	0	0	2211	6	2715	4004
60	0	0	2126	7	2720	4001
61	0	0	2075	6	2722	4004
62	0	0	2028	7	2720	4003
63	0	0	2002	11	2714	4004
64	0	0	2013	12	2704	4002
65	0	0	1978	7	2698	4004
66	0	0	1917	8	2698	4004
67	0	0	1906	11	2702	4003
68	0	0	1940	11	2708	4003
69	0	0	2011	14	2715	4003
70	0	0	2090	12	2720	4004
71	0	0	2168	12	2722	4004
72	0	0	2234	10	2720	4003
73	0	0	2284	10	2715	4003
74	0	0	2317	11	2704	4003
75	0	0	2323	11	2699	4000
76	0	0	2305	10	2699	4004
77	0	0	2285	10	2703	4003
78	0	0	2260	8	2708	4005
79	0	0	2229	9	2715	4003
80	0	0	2173	7	2719	4004
81	0	0	2099	8	2721	4004
82	0	0	2041	8	2719	4003
83	0	0	2023	11	2714	4003
84	0	0	1996	8	2703	4003
85	0	0	1925	7	2698	4002
86	0	0	1843	8	2698	4003
87	0	0	1762	7	2703	4004
88	0	0	1725	8	2708	4004
89	0	0	1768	13	2714	4002
90	0	0	1900	11	2719	4001
91	0	0	2048	11	2721	4004
92	0	0	2146	11	2720	4003
93	0	0	2207	10	2714	4004
94	0	0	2252	11	2704	4003
95	0	0	2280	9	2698	4003
96	0	0	2258	7	2699	4004
97	0	0	2201	7	2702	4003
98	0	0	2147	7	2709	4006
99	0	0	2140	10	2715	4005
100	0	0	2127	7	2719	4004
101	0	0	2061	6	2720	4004
102	0	0	1985	7	2719	4003
103	0	0	1930	8	2713	4003
104	0	0	1890	9	2703	4002
105	0	0	1845	7	2697	4004
106	0	0	1825	9	2698	4003
107	0	0	1838	11	2703	4005
108	0	0	1878	9	2707	4003
109	0	0	1936	9	2714	4003
110	0	0	2007	11	2719	4004
111	0	0	2063	11	2721	4004
112	0	0	2101	11	2720	4004
113	0	0	2118	8	2714	4004
114	0	0	2129	11	2703	4003
115	0	0	2159	10	2698	4006
116	0	0	2175	13	2698	4005
117	0	0	2169	8	2703	4000
118	0	0	2117	6	2708	4003
119	0	0	2055	6	2714	4004
120	0	0	1983	6	2719	4002
121	0	0	1939	7	2720	4005
122	0	0	1923	8	2719	4003
123	0	0	1904	8	2714	4003
124	0	0	1857	8	2702	4004
125	0	0	1778	7	2697	4004
126	0	0	1703	8	2699	4003
127	0	0	1672	9	2702	4003
0	0	0	1689	11	2708	4003
1	0	0	1765	10	2713	4004
2	0	0	1832	11	2719	4004
3	0	0	1879	12	2720	4005
4	0	0	1947	11	2719	4003
5	0	0	2008	12	2714	4003
6	0	0	2061	10	2703	4004
7	0	0	2108	10	2698	4004
8	0	0	2081	7	2698	4002
9	0	0	2032	8	2702	4003
10	0	0	2035	9	2708	4003
11	0	0	2029	9	2714	4004
12	0	0	2004	5	2719	4004
13	0	0	1971	3	2721	4004
14	0	0	1933	7	2719	4003
15	0	0	1880	7	2714	4003
16	0	0	1820	7	2703	4003
17	0	0	1764	7	2697	4004
18	0	0	1773	11	2698	4005
19	0	0	1813	11	2702	4003
20	0	0	1852	12	2708	4003
21	0	0	1889	11	2714	4004
22	0	0	1948	11	2719	4003
23	0	0	2027	12	2721	4003
24	0	0	2105	11	2719	4003
25	0	0	2139	12	2714	4003
26	0	0	2110	5	2703	4002
27	0	0	2102	10	2698	4004
28	0	0	2090	9	2698	4003
29	0	0	2060	8	2702	4003
30	0	0	2057	8	2708	4003
31	0	0	2031	6	2714	4004
32	0	0	1979	8	2719	4006
33	0	0	1938	6	2721	4004
34	0	0	1878	6	2720	4004
35	0	0	1814	8	2714	4002
36	0	0	1755	2	2702	4003
37	0	0	1717	8	2698	4005
38	0	0	1748	11	2697	4003
39	0	0	1831	13	2702	4003
40	0	0	1920	11	2707	4004
41	0	0	1968	11	2713	4004
42	0	0	2016	12	2719	4003
43	0	0	2072	11	2721	4003
44	0	0	2092	11	2719	4003
45	0	0	2115	10	2714	4004
46	0	0	2138	10	2703	4004
47	0	0	2151	10	2698	4003
48	0	0	2129	8	2699	4003
49	0	0	2101	6	2702	4003
50	0	0	2045	8	2708	4003
51	0	0	1976	6	2713	4003
52	0	0	1924	7	2719	4004
53	0	0	1916	10	2720	4003
54	0	0	1898	7	2719	4004
55	0	0	1856	11	2713	4002
56	0	0	1793	3	2702	4003
57	0	0	1740	7	2696	4003
58	0	0	1740	11	2697	4003
59	0	0	1749	11	2701	4003
60	0	0	1810	11	2707	4004
61	0	0	1911	11	2714	4004
62	0	0	2000	12	2719	4004
63	0	0	2043	11	2721	4004
64	0	0	2080	11	2719	4003
65	0	0	2106	10	2714	4001
66	0	0	2128	10	2703	4004
67	0	0	2201	10	2698	4004
68	0	0	2262	11	2698	4003
69	0	0	2289	11	2702	4003
70	0	0	2260	6	2708	4002
71	0	0	2138	5	2713	4004
72	0	0	1990	7	2719	4004
73	0	0	1889	7	2719	4003
74	0	0	1843	7	2718	4003
75	0	0	1811	7	2712	4004
76	0	0	1802	9	2702	4004
77	0	0	1785	11	2697	4005
78	0	0	1804	11	2697	4004
79	0	0	1840	11	2701	4003
80	0	0	1882	11	2708	4005
81	0	0	1925	12	2714	4004
82	0	0	1951	12	2718	4002
83	0	0	1976	11	2721	4005
84	0	0	2012	11	2719	4003
85	0	0	2057	11	2713	4000
86	0	0	2093	11	2702	4002
87	0	0	2112	11	2697	4004
88	0	0	2143	10	2697	4004
89	0	0	2150	10	2701	4003
90	0	0	2105	7	2707	4002
91	0	0	2021	6	2713	4004
92	0	0	1967	8	2718	4006
93	0	0	1949	8	2719	4005
94	0	0	1937	8	2718	4003
95	0	0	1903	7	2713	4004
96	0	0	1878	10	2703	4005
97	0	0	1884	11	2697	4004
98	0	0	1901	11	2698	4005
99	0	0	1893	12	2701	4003
100	0	0	1899	11	2707	4004
101	0	0	1939	11	2713	4003
102	0	0	1993	13	2718	4005
103	0	0	2073	11	2719	4004
104	0	0	2127	11	2719	4003
105	0	0	2160	11	2713	4003
106	0	0	2192	9	2702	4003
107	0	0	2227	9	2697	4002
108	0	0	2195	7	2696	4007
109	0	0	2134	7	2701	4008
110	0	0	2095	6	2707	4003
111	0	0	2028	7	2713	4004
112	0	0	1950	7	2719	4004
113	0	0	1897	7	2720	4004
114	0	0	1923	9	2719	4004
115	0	0	1949	14	2713	4003
116	0	0	1909	7	2701	4003
117	0	0	1878	9	2697	4003
118	0	0	1886	9	2697	4005
119	0	0	1903	11	2701	4003
120	0	0	1906	11	2707	4003
121	0	0	1913	11	2712	3984
122	0	0	1957	13	2718	3959
123	0	0	2046	12	2720	3941
124	0	0	2123	11	2718	3919
125	0	0	2173	10	2713	3897
126	0	0	2206	10	2701	3877
127	0	0	2232	10	2696	3853
0	0	0	2230	11	2697	3836
1	0	0	2203	7	2701	3813
2	0	0	2147	7	2707	3792
3	0	0	2100	4	2713	3772
4	0	0	2083	8	2718	3751
5	0	0	2049	7	2719	3732
6	0	0	1990	6	2719	3710
7	0	0	1930	11	2712	3688
8	0	0	1861	6	2701	3668
9	0	0	1799	7	2696	3650
10	0	0	1777	10	2696	3628
11	0	0	1804	11	2700	3607
12	0	0	1876	11	2706	3588
13	0	0	1959	11	2713	3568
14	0	0	2066	11	2718	3548
15	0	0	2153	11	2720	3528
16	0	0	2209	12	2718	3507
17	0	0	2258	11	2712	3489
18	0	0	2286	9	2702	3469
19	0	0	2285	11	2697	3451
20	0	0	2253	8	2697	3432
21	0	0	2217	6	2701	3413
22	0	0	2173	7	2707	3393
23	0	0	2116	8	2713	3375
24	0	0	2081	6	2718	3357
25	0	0	2016	7	2720	3339
26	0	0	1968	7	2718	3320
27	0	0	1937	7	2713	3303
28	0	0	1895	8	2701	3285
29	0	0	1821	5	2696	3268
30	0	0	1786	12	2696	3248
31	0	0	1832	11	2700	3232
32	0	0	1875	11	2707	3216
33	0	0	1918	11	2713	3199
34	0	0	1943	12	2718	3182
35	0	0	1978	11	2720	3165
36	0	0	2034	11	2718	3149
37	0	0	2119	11	2712	3132
38	0	0	2183	8	2701	3116
39	0	0	2234	10	2697	3100
40	0	0	2248	10	2697	3082
41	0	0	2193	6	2701	3067
42	0	0	2121	5	2705	3052
43	0	0	2043	8	2712	3036
44	0	0	2012	8	2718	3020
45	0	0	2019	10	2719	3004
46	0	0	2037	9	2718	2990
47	0	0	1969	6	2712	2975
48	0	0	1863	4	2701	2959
49	0	0	1784	6	2696	2946
50	0	0	1770	11	2696	2930
51	0	0	1805	12	2701	2917
52	0	0	1862	13	2707	2902
53	0	0	1934	12	2713	2888
54	0	0	2017	12	2718	2874
55	0	0	2083	11	2719	2859
56	0	0	2158	11	2718	2846
57	0	0	2242	10	2712	2832
58	0	0	2276	8	2702	2818
59	0	0	2257	9	2696	2804
60	0	0	2221	7	2696	2791
61	0	0	2153	6	2701	2779
62	0	0	2106	6	2706	2766
63	0	0	2099	10	2713	2751
64	0	0	2103	10	2718	2738
65	0	0	2066	7	2719	2724
66	0	0	2024	8	2718	2712
67	0	0	2021	10	2713	2700
68	0	0	1991	8	2701	2687
69	0	0	1936	8	2696	2675
70	0	0	1905	9	2696	2662
71	0	0	1898	11	2701	2650
72	0	0	1897	11	2707	2639
73	0	0	1922	12	2713	2627
74	0	0	1999	11	2718	2615
75	0	0	2101	11	2719	2602
76	0	0	2166	10	2718	2591
77	0	0	2237	11	2713	2580
78	0	0	2313	10	2702	2569
79	0	0	2355	10	2696	2556
80	0	0	2320	7	2696	2544
81	0	0	2268	7	2701	2533
82	0	0	2167	6	2707	2521
83	0	0	2079	6	2713	2510
84	0	0	1975	5	2718	2499
85	0	0	1882	6	2720	2488
86	0	0	1840	8	2718	2477
87	0	0	1847	10	2712	2466
88	0	0	1892	11	2701	2456
89	0	0	1944	11	2696	2445
90	0	0	1934	8	2696	2434
91	0	0	1921	11	2701	2424
92	0	0	1966	11	2707	2414
93	0	0	2019	12	2713	2405
94	0	0	2070	11	2718	2395
95	0	0	2111	12	2719	2384
96	0	0	2162	11	2718	2375
97	0	0	2198	11	2712	2365
98	0	0	2207	7	2702	2354
99	0	0	2202	10	2696	2345
100	0	0	2198	11	2697	2336
101	0	0	2199	9	2701	2326
102	0	0	2199	10	2707	2316
103	0	0	2171	6	2713	2306
104	0	0	2102	5	2718	2296
105	0	0	2024	7	2719	2287
106	0	0	1949	8	2718	2278
107	0	0	1878	7	2712	2269
108	0	0	1843	11	2701	2258
109	0	0	1857	11	2696	2250
110	0	0	1887	12	2696	2241
111	0	0	1923	11	2700	2233
112	0	0	1953	11	2706	2225
113	0	0	2003	11	2713	2216
114	0	0	2049	11	2717	2207
115	0	0	2088	12	2719	2198
116	0	0	2140	12	2718	2190
117	0	0	2201	11	2712	2181
118	0	0	2247	11	2702	2173
119	0	0	2254	10	2697	2165
120	0	0	2255	11	2697	2156
121	0	0	2233	8	2701	2147
122	0	0	2188	8	2706	2138
123	0	0	2119	8	2713	2130
124	0	0	2080	7	2718	2123
125	0	0	2063	9	2719	2114
126	0	0	2050	9	2718	2106
127	0	0	2041	9	2711	2098
0	0	0	1980	6	2701	2090
1	0	0	1874	6	2696	2083
2	0	0	1821	9	2695	2073
3	0	0	1821	11	2700	2067
4	0	0	1871	12	2706	2059
5	0	0	1972	10	2713	2053
6	0	0	2037	9	2717	2044
7	0	0	2101	11	2719	2036
8	0	0	2167	11	2718	2030
9	0	0	2209	10	2713	2023
10	0	0	2249	9	2702	2015
11	0	0	2271	11	2696	2006
12	0	0	2289	10	2698	1999
13	0	0	2272	7	2701	1993
14	0	0	2206	7	2707	1984
15	0	0	2158	7	2713	1976
16	0	0	2101	6	2718	1970
17	0	0	2060	9	2719	1962
18	0	0	2044	8	2718	1956
19	0	0	2003	8	2712	1949
20	0	0	1953	7	2701	1943
21	0	0	1891	7	2696	1936
22	0	0	1860	9	2696	1928
23	0	0	1849	7	2701	1922
24	0	0	1838	11	2706	1915
25	0	0	1869	11	2713	1910
26	0	0	1948	10	2718	1903
27	0	0	2023	15	2719	1897
28	0	0	2111	11	2718	1890
29	0	0	2207	10	2712	1883
30	0	0	2293	9	2701	1877
31	0	0	2363	9	2696	1871
32	0	0	2369	9	2696	1864
33	0	0	2331	4	2702	1857
34	0	0	2273	7	2706	1850
35	0	0	2193	5	2713	1844
36	0	0	2115	6	2718	1839
37	0	0	2029	6	2720	1832
38	0	0	1981	8	2718	1826
39	0	0	1947	8	2712	1819
40	0	0	1922	6	2701	1813
41	0	0	1883	8	2696	1808
42	0	0	1856	9	2696	1802
43	0	0	1878	12	2701	1797
44	0	0	1915	11	2707	1790
45	0	0	1979	11	2713	1785
46	0	0	2075	10	2718	1779
47	0	0	2194	11	2719	1774
48	0	0	2292	10	2718	1768
49	0	0	2345	10	2712	1762
50	0	0	2346	11	2702	1757
51	0	0	2341	10	2696	1751
52	0	0	2304	8	2696	1744
53	0	0	2269	7	2701	1739
54	0	0	2234	5	2706	1733
55	0	0	2173	7	2713	1727
56	0	0	2108	6	2718	1722
57	0	0	2045	6	2719	1715
58	0	0	2000	10	2719	1711
59	0	0	1969	8	2712	1706
60	0	0	1951	7	2701	1700
61	0	0	1911	6	2697	1694
62	0	0	1877	8	2696	1690
63	0	0	1887	12	2701	1683
64	0	0	1914	12	2707	1680
65	0	0	1949	10	2713	1675
66	0	0	1997	11	2718	1670
67	0	0	2076	11	2719	1663
68	0	0	2178	11	2718	1659
69	0	0	2242	12	2712	1654
70	0	0	2264	11	2701	1649
71	0	0	2296	9	2696	1644
72	0	0	2315	10	2697	1639
73	0	0	2295	8	2701	1632
74	0	0	2253	7	2707	1628
75	0	0	2204	7	2714	1623
76	0	0	2149	8	2718	1617
77	0	0	2090	6	2720	1613
78	0	0	2009	8	2718	1608
79	0	0	1938	8	2712	1602
80	0	0	1887	8	2701	1599
81	0	0	1839	7	2696	1593
82	0	0	1829	11	2696	1589
83	0	0	1854	10	2700	1585
84	0	0	1903	10	2706	1580
85	0	0	1963	11	2713	1576
86	0	0	2013	11	2718	1571
87	0	0	2077	11	2719	1567
88	0	0	2144	8	2718	1562
89	0	0	2188	12	2712	1560
90	0	0	2234	9	2701	1554
91	0	0	2279	11	2697	1549
92	0	0	2293	9	2697	1543
93	0	0	2277	10	2701	1540
94	0	0	2258	10	2707	1534
95	0	0	2252	10	2713	1525
96	0	0	2228	10	2718	1525
97	0	0	2179	6	2719	1519
98	0	0	2095	5	2718	1516
99	0	0	2036	7	2712	1510
100	0	0	2016	10	2701	1506
101	0	0	2000	9	2696	1503
102	0	0	1991	12	2696	1498
103	0	0	1994	12	2701	1495
104	0	0	2024	12	2706	1492
105	0	0	2115	9	2713	1487
106	0	0	2189	11	2718	1483
107	0	0	2138	7	2719	1479
108	0	0	2045	8	2718	1476
109	0	0	2069	11	2713	1472
110	0	0	2120	11	2702	1467
111	0	0	2177	10	2697	1462
112	0	0	2228	10	2697	1459
113	0	0	2242	9	2701	1453
114	0	0	2207	5	2707	1450
115	0	0	2145	7	2713	1445
116	0	0	2082	7	2718	1442
117	0	0	2043	7	2719	1435
118	0	0	2012	11	2717	1433
119	0	0	1959	8	2712	1430
120	0	0	1915	5	2701	1427
121	0	0	1871	6	2696	1422
122	0	0	1830	8	2697	1415
123	0	0	1855	11	2701	1414
124	0	0	1919	9	2707	1411
125	0	0	2009	8	2713	1408
126	0	0	2103	11	2718	1403
127	0	0	2163	11	2719	1399
0	0	0	2205	10	2719	1396
1	0	0	2237	10	2713	1394
2	0	0	2276	8	2702	1391
3	0	0	2299	9	2696	1386
4	0	0	2270	3	2697	1379
5	0	0	2245	8	2700	1378
6	0	0	2225	7	2707	1373
7	0	0	2207	8	2713	1369
8	0	0	2185	7	2718	1367
9	0	0	2130	7	2719	1363
10	0	0	2066	7	2718	1359
11	0	0	2005	7	2712	1355
12	0	0	1960	8	2701	1351
13	0	0	1908	7	2696	1348
14	0	0	1867	8	2697	1344
15	0	0	1866	11	2701	1341
16	0	0	1893	11	2707	1338
17	0	0	1931	12	2713	1335
18	0	0	2011	10	2718	1332
19	0	0	2124	16	2719	1327
20	0	0	2212	11	2717	1326
21	0	0	2291	9	2712	1322
22	0	0	2343	8	2701	1320
23	0	0	2356	11	2696	1315
24	0	0	2362	9	2697	1310
25	0	0	2345	8	2701	1309
26	0	0	2288	7	2707	1307
27	0	0	2204	6	2712	1302
28	0	0	2149	7	2718	1298
29	0	0	2107	7	2719	1293
30	0	0	2049	8	2719	1291
31	0	0	1978	7	2713	1287
32	0	0	1925	9	2701	1284
33	0	0	1935	10	2696	1281
34	0	0	1949	11	2696	1278
35	0	0	1950	12	2701	1275
36	0	0	1985	11	2707	1273
37	0	0	2039	12	2712	1270
38	0	0	2113	11	2718	1268
39	0	0	2156	12	2719	1264
40	0	0	2180	11	2718	1262
41	0	0	2207	11	2713	1258
42	0	0	2236	12	2701	1254
43	0	0	2260	9	2696	1252
44	0	0	2274	11	2697	1249
45	0	0	2294	10	2701	1247
46	0	0	2301	10	2707	1242
47	0	0	2293	10	2713	1239
48	0	0	2285	7	2718	1237
49	0	0	2260	7	2719	1233
50	0	0	2126	8	2718	1230
51	0	0	1952	6	2712	1227
52	0	0	1840	9	2701	1224
53	0	0	1800	11	2695	1222
54	0	0	1811	11	2696	1219
55	0	0	1834	12	2700	1217
56	0	0	1878	9	2706	1214
57	0	0	1940	12	2713	1213
58	0	0	2007	11	2717	1208
59	0	0	2079	12	2719	1204
60	0	0	2131	12	2718	1203
61	0	0	2163	12	2712	1200
62	0	0	2211	14	2701	1196
63	0	0	2259	8	2696	1194
64	0	0	2276	10	2697	1192
65	0	0	2265	14	2701	1188
66	0	0	2257	10	2707	1185
67	0	0	2231	7	2715	1182
68	0	0	2174	1	2717	1179
69	0	0	2107	7	2719	1177
70	0	0	2078	10	2717	1173
71	0	0	2079	12	2712	1171
72	0	0	2066	8	2700	1168
73	0	0	2006	6	2696	1167
74	0	0	1960	8	2696	1162
75	0	0	1947	12	2700	1161
76	0	0	1956	12	2706	1159
77	0	0	1989	14	2712	1156
78	0	0	2043	13	2718	1154
79	0	0	2122	12	2719	1152
80	0	0	2190	12	2718	1149
81	0	0	2237	11	2713	1146
82	0	0	2287	7	2700	1144
83	0	0	2334	10	2696	1141
84	0	0	2328	9	2696	1134
85	0	0	2281	6	2701	1137
86	0	0	2228	6	2707	1133
87	0	0	2183	10	2712	1130
88	0	0	2123	9	2717	1127
89	0	0	2068	6	2718	1125
90	0	0	2030	8	2717	1122
91	0	0	2003	12	2711	1119
92	0	0	1980	11	2700	1116
93	0	0	1965	11	2695	1114
94	0	0	1953	10	2696	1113
95	0	0	1959	12	2700	1110
96	0	0	1975	12	2706	1109
97	0	0	1992	15	2712	1106
98	0	0	2063	15	2717	1104
99	0	0	2137	11	2719	1101
100	0	0	2194	12	2717	1099
101	0	0	2233	10	2712	1099
102	0	0	2244	11	2702	1097
103	0	0	2251	13	2696	1093
104	0	0	2253	10	2696	1089
105	0	0	2220	4	2701	1087
106	0	0	2187	7	2706	1082
107	0	0	2188	15	2712	1082
108	0	0	2182	11	2717	1079
109	0	0	2112	6	2718	1077
110	0	0	2019	7	2718	1074
111	0	0	1975	11	2712	1071
112	0	0	2008	11	2700	1071
113	0	0	2035	15	2695	1067
114	0	0	2044	12	2696	1067
115	0	0	2040	8	2700	1063
116	0	0	2044	12	2706	1062
117	0	0	2074	15	2712	1060
118	0	0	2136	14	2717	1058
119	0	0	2209	12	2719	1056
120	0	0	2296	8	2718	1053
121	0	0	2350	11	2712	1053
122	0	0	2348	12	2702	1049
123	0	0	2301	11	2696	1048
124	0	0	2234	7	2697	1044
125	0	0	2218	10	2701	1042
126	0	0	2220	10	2706	1039
127	0	0	2196	7	2712	1039
0	0	0	2149	9	2717	1034
1	0	0	2099	7	2719	1033
2	0	0	2055	7	2717	1030
3	0	0	2001	8	2711	1027
4	0	0	1959	7	2701	1026
5	0	0	1914	11	2695	1023
6	0	0	1868	9	2696	1021
7	0	0	1879	10	2700	1021
8	0	0	1941	12	2706	1016
9	0	0	2019	11	2712	1017
10	0	0	2101	11	2717	1015
11	0	0	2180	13	2719	1013
12	0	0	2233	12	2717	1011
13	0	0	2277	11	2711	1009
14	0	0	2289	11	2701	1006
15	0	0	2286	11	2695	1004
16	0	0	2294	10	2695	1002
17	0	0	2272	6	2700	1000
18	0	0	2237	8	2706	996
19	0	0	2208	8	2713	998
20	0	0	2173	11	2717	994
21	0	0	2097	6	2718	991
22	0	0	2045	5	2717	990
23	0	0	2019	7	2711	985
24	0	0	1994	9	2700	986
25	0	0	1988	9	2695	984
26	0	0	1991	11	2695	982
27	0	0	2000	8	2700	980
28	0	0	1979	9	2706	976
29	0	0	1952	8	2713	977
30	0	0	1945	10	2717	975
31	0	0	2002	11	2719	974
32	0	0	2083	11	2717	973
33	0	0	2140	12	2711	968
34	0	0	2193	11	2701	969
35	0	0	2258	11	2695	964
36	0	0	2296	11	2696	967
37	0	0	2317	10	2700	963
38	0	0	2315	11	2706	960
39	0	0	2276	8	2712	957
40	0	0	2193	6	2717	955
41	0	0	2077	7	2717	953
42	0	0	1987	4	2717	954
43	0	0	1951	10	2710	950
44	0	0	1960	12	2700	948
45	0	0	1954	8	2695	946
46	0	0	1952	13	2695	944
47	0	0	1961	12	2699	941
48	0	0	1983	12	2705	942
49	0	0	2050	11	2712	940
50	0	0	2138	12	2717	939
51	0	0	2217	11	2718	938
52	0	0	2283	10	2717	935
53	0	0	2330	11	2711	933
54	0	0	2340	11	2701	933
55	0	0	2306	9	2695	930
56	0	0	2248	7	2695	928
57	0	0	2219	10	2699	926
58	0	0	2210	12	2705	924
59	0	0	2183	11	2712	921
60	0	0	2160	8	2716	921
61	0	0	2135	8	2718	918
62	0	0	2079	5	2716	916
63	0	0	2019	8	2710	913
64	0	0	1984	8	2700	911
65	0	0	1956	8	2695	910
66	0	0	1957	11	2695	909
67	0	0	1971	10	2699	910
68	0	0	1975	13	2705	907
69	0	0	2034	12	2712	905
70	0	0	2097	12	2717	904
71	0	0	2143	11	2718	903
72	0	0	2188	12	2716	901
73	0	0	2256	12	2711	901
74	0	0	2332	12	2700	899
75	0	0	2364	10	2695	895
76	0	0	2333	7	2696	894
77	0	0	2282	5	2699	892
78	0	0	2252	7	2705	890
79	0	0	2201	7	2712	887
80	0	0	2155	8	2716	887
81	0	0	2097	8	2718	885
82	0	0	2031	7	2716	883
83	0	0	1981	6	2710	882
84	0	0	1979	11	2700	879
85	0	0	1967	11	2694	879
86	0	0	1956	11	2695	875
87	0	0	1983	11	2699	875
88	0	0	2024	11	2705	874
89	0	0	2087	13	2711	872
90	0	0	2135	12	2716	872
91	0	0	2184	14	2717	871
92	0	0	2241	11	2716	869
93	0	0	2283	10	2711	868
94	0	0	2287	11	2700	865
95	0	0	2258	8	2695	863
96	0	0	2247	11	2695	862
97	0	0	2230	8	2699	861
98	0	0	2204	8	2705	859
99	0	0	2193	9	2711	856
100	0	0	2150	8	2715	856
101	0	0	2094	10	2717	854
102	0	0	2067	8	2716	852
103	0	0	2055	8	2710	851
104	0	0	2026	9	2699	850
105	0	0	1964	7	2695	847
106	0	0	1877	7	2695	847
107	0	0	1828	8	2700	846
108	0	0	1859	11	2704	845
109	0	0	1957	11	2712	844
110	0	0	2057	11	2716	842
111	0	0	2141	11	2717	841
112	0	0	2227	11	2717	840
113	0	0	2323	11	2710	839
114	0	0	2366	11	2700	837
115	0	0	2352	9	2695	832
116	0	0	2330	11	2695	832
117	0	0	2348	10	2700	831
118	0	0	2345	7	2705	829
119	0	0	2282	7	2712	827
120	0	0	2196	7	2716	826
121	0	0	2160	8	2717	825
122	0	0	2112	7	2716	823
123	0	0	2026	5	2710	820
124	0	0	1969	6	2698	820
125	0	0	1922	9	2694	820
126	0	0	1911	11	2694	817
127	0	0	1923	11	2698	817
0	0	0	1960	11	2705	816
1	0	0	2051	12	2711	815
2	0	0	2135	11	2716	813
3	0	0	2176	11	2718	813
4	0	0	2203	16	2716	812
5	0	0	2244	10	2710	811
6	0	0	2276	11	2699	809
7	0	0	2294	13	2694	805
8	0	0	2299	9	2695	805
9	0	0	2314	12	2699	804
10	0	0	2317	10	2705	803
11	0	0	2293	7	2711	800
12	0	0	2226	3	2716	799
13	0	0	2150	7	2717	797
14	0	0	2067	6	2716	796
15	0	0	1993	7	2710	796
16	0	0	1949	7	2699	794
17	0	0	1915	7	2694	792
18	0	0	1896	9	2694	790
19	0	0	1903	12	2698	790
20	0	0	1966	11	2704	790
21	0	0	2063	11	2711	789
22	0	0	2148	13	2716	789
23	0	0	2242	12	2718	787
24	0	0	2303	14	2716	785
25	0	0	2296	7	2710	785
26	0	0	2273	11	2700	784
27	0	0	2324	11	2695	782
28	0	0	2381	11	2695	782
29	0	0	2405	10	2699	778
30	0	0	2385	7	2705	776
31	0	0	2292	6	2710	774
32	0	0	2158	7	2716	774
33	0	0	2033	6	2717	772
34	0	0	1957	7	2715	771
35	0	0	1931	7	2709	767
36	0	0	1907	8	2698	768
37	0	0	1880	7	2694	767
38	0	0	1891	11	2694	766
39	0	0	1927	12	2698	766
40	0	0	1965	11	2705	766
41	0	0	2031	11	2711	763
42	0	0	2112	11	2716	763
43	0	0	2221	11	2718	762
44	0	0	2320	15	2716	762
45	0	0	2370	11	2710	759
46	0	0	2339	7	2699	757
47	0	0	2280	3	2694	756
48	0	0	2256	10	2694	755
49	0	0	2265	10	2699	754
50	0	0	2274	7	2704	753
51	0	0	2209	5	2710	751
52	0	0	2134	7	2715	750
53	0	0	2076	8	2717	749
54	0	0	2019	7	2715	748
55	0	0	1985	9	2709	745
56	0	0	1982	8	2698	744
57	0	0	1972	8	2693	742
58	0	0	1990	11	2694	742
59	0	0	2017	12	2698	739
60	0	0	2024	12	2705	740
61	0	0	2049	12	2711	741
62	0	0	2125	9	2716	739
63	0	0	2212	11	2718	739
64	0	0	2268	15	2715	738
65	0	0	2304	11	2710	736
66	0	0	2340	11	2699	735
67	0	0	2375	11	2694	733
68	0	0	2375	10	2695	736
69	0	0	2334	7	2700	732
70	0	0	2308	7	2705	729
71	0	0	2274	7	2711	728
72	0	0	2213	4	2716	727
73	0	0	2137	3	2718	725
74	0	0	2078	7	2716	725
75	0	0	2033	11	2710	723
76	0	0	2005	7	2699	721
77	0	0	1982	7	2694	721
78	0	0	1993	11	2695	720
79	0	0	2017	15	2698	720
80	0	0	2048	11	2704	719
81	0	0	2073	11	2711	719
82	0	0	2099	8	2716	718
83	0	0	2151	12	2717	716
84	0	0	2248	11	2716	715
85	0	0	2308	11	2710	713
86	0	0	2338	11	2699	715
87	0	0	2372	9	2694	711
88	0	0	2377	10	2695	710
89	0	0	2345	7	2699	709
90	0	0	2299	5	2705	708
91	0	0	2244	7	2711	707
92	0	0	2198	0	2716	706
93	0	0	2183	10	2718	704
94	0	0	2175	15	2715	703
95	0	0	2141	8	2710	700
96	0	0	2075	7	2698	701
97	0	0	1991	4	2694	699
98	0	0	1934	9	2694	699
99	0	0	1897	11	2698	699
100	0	0	1873	13	2704	697
101	0	0	1938	11	2711	698
102	0	0	2023	11	2716	696
103	0	0	2108	12	2717	697
104	0	0	2163	11	2716	695
105	0	0	2190	12	2710	694
106	0	0	2211	11	2699	693
107	0	0	2268	8	2694	691
108	0	0	2330	11	2695	690
109	0	0	2357	10	2699	689
110	0	0	2333	5	2705	688
111	0	0	2271	6	2711	686
112	0	0	2198	6	2716	686
113	0	0	2117	7	2717	684
114	0	0	2061	11	2715	684
115	0	0	2040	9	2709	680
116	0	0	2025	9	2697	680
117	0	0	1999	8	2693	679
118	0	0	1966	9	2694	679
119	0	0	1962	10	2698	678
120	0	0	1982	10	2704	678
121	0	0	2022	12	2711	678
122	0	0	2074	12	2716	677
123	0	0	2144	12	2717	676
124	0	0	2229	11	2716	676
125	0	0	2290	11	2710	675
126	0	0	2289	10	2699	674
127	0	0	2273	10	2694	673
0	0	0	2254	9	2694	670
1	0	0	2235	9	2699	670
2	0	0	2218	9	2704	668
3	0	0	2177	7	2710	667
4	0	0	2132	7	2716	666
5	0	0	2084	7	2716	664
6	0	0	2040	7	2716	664
7	0	0	2010	8	2710	659
8	0	0	1972	9	2698	662
9	0	0	1892	7	2694	662
10	0	0	1847	9	2695	661
11	0	0	1848	10	2699	660
12	0	0	1852	11	2704	658
13	0	0	1906	12	2711	659
14	0	0	2010	10	2716	658
15	0	0	2131	11	2717	658
16	0	0	2226	11	2715	657
17	0	0	2282	12	2709	656
18	0	0	2309	11	2700	655
19	0	0	2309	10	2695	653
20	0	0	2292	7	2695	653
21	0	0	2241	7	2699	652
22	0	0	2174	6	2705	651
23	0	0	2110	6	2712	649
24	0	0	2075	8	2716	647
25	0	0	2074	11	2717	646
26	0	0	2060	8	2715	646
27	0	0	2034	8	2709	645
28	0	0	2025	11	2698	644
29	0	0	2021	11	2694	641
30	0	0	2005	11	2694	642
31	0	0	2006	11	2699	642
32	0	0	2019	12	2705	642
33	0	0	2030	11	2712	642
34	0	0	2064	11	2716	641
35	0	0	2079	12	2717	639
36	0	0	2091	12	2716	639
37	0	0	2126	12	2710	637
38	0	0	2156	11	2700	637
39	0	0	2212	11	2694	635
40	0	0	2246	10	2695	635
41	0	0	2231	10	2699	634
42	0	0	2202	7	2705	632
43	0	0	2147	6	2711	631
44	0	0	2075	4	2716	630
45	0	0	2016	7	2718	629
46	0	0	1960	7	2716	629
47	0	0	1933	9	2710	624
48	0	0	1929	10	2699	626
49	0	0	1896	8	2694	626
50	0	0	1866	9	2695	623
51	0	0	1873	12	2699	626
52	0	0	1892	13	2705	624
53	0	0	1933	12	2711	623
54	0	0	1965	12	2716	624
55	0	0	1952	10	2718	623
56	0	0	1954	12	2716	622
57	0	0	2002	12	2710	622
58	0	0	2059	11	2699	620
59	0	0	2101	11	2694	618
60	0	0	2145	10	2695	617
61	0	0	2161	10	2700	616
62	0	0	2124	7	2705	614
63	0	0	2092	8	2712	614
64	0	0	2087	10	2716	615
65	0	0	2109	10	2717	613
66	0	0	2120	12	2716	611
67	0	0	2123	11	2710	609
68	0	0	2126	11	2699	611
69	0	0	2123	12	2694	608
70	0	0	2168	12	2694	607
71	0	0	2264	12	2699	608
72	0	0	2356	14	2704	605
73	0	0	2445	13	2711	608
74	0	0	2550	12	2715	608
75	0	0	2647	12	2717	607
76	0	0	2729	12	2716	607
77	0	0	2792	11	2710	605
78	0	0	2824	11	2699	605
79	0	0	2846	12	2694	602
80	0	0	2872	11	2695	603
81	0	0	2896	11	2699	601
82	0	0	2899	11	2706	598
83	0	0	2846	6	2711	597
84	0	0	2753	7	2716	598
85	0	0	2677	7	2717	596
86	0	0	2618	8	2715	598
87	0	0	2575	11	2709	592
88	0	0	2523	7	2699	594
89	0	0	2441	7	2694	594
90	0	0	2365	7	2694	592
91	0	0	2327	9	2699	593
92	0	0	2295	9	2705	592
93	0	0	2290	12	2712	592
94	0	0	2328	12	2716	592
95	0	0	2327	10	2718	591
96	0	0	2266	6	2716	591
97	0	0	2210	7	2710	590
98	0	0	2155	7	2699	589
99	0	0	2099	7	2694	588
100	0	0	2050	7	2695	586
101	0	0	2017	10	2699	585
102	0	0	2029	9	2706	583
103	0	0	2040	9	2712	583
104	0	0	2019	7	2715	581
105	0	0	1947	6	2717	583
106	0	0	1856	7	2715	581
107	0	0	1791	7	2709	580
108	0	0	1779	9	2699	579
109	0	0	1771	9	2693	579
110	0	0	1765	10	2694	579
111	0	0	1784	11	2699	579
112	0	0	1854	11	2705	578
113	0	0	1939	12	2711	577
114	0	0	1974	9	2715	577
115	0	0	1994	11	2717	579
116	0	0	2037	11	2716	577
117	0	0	2087	9	2710	576
118	0	0	2152	10	2700	574
119	0	0	2193	10	2694	573
120	0	0	2196	10	2695	573
121	0	0	2162	9	2699	572
122	0	0	2129	8	2705	570
123	0	0	2086	7	2711	567
124	0	0	2052	7	2716	568
125	0	0	2033	8	2717	568
126	0	0	2012	8	2715	569
127	0	0	1978	7	2709	567
0	0	0	1920	7	2699	565
1	0	0	1842	6	2693	565
2	0	0	1809	9	2694	563
3	0	0	1810	11	2699	565
4	0	0	1815	11	2705	564
5	0	0	1880	11	2712	564
6	0	0	1974	12	2717	564
7	0	0	2046	12	2718	563
8	0	0	2096	11	2716	562
9	0	0	2155	11	2710	561
10	0	0	2194	9	2699	561
11	0	0	2222	10	2694	560
12	0	0	2232	10	2695	559
13	0	0	2194	6	2699	558
14	0	0	2151	5	2705	556
15	0	0	2129	8	2712	556
16	0	0	2087	7	2716	555
17	0	0	2005	7	2718	555
18	0	0	1945	8	2715	554
19	0	0	1918	8	2710	551
20	0	0	1921	10	2699	551
21	0	0	1922	16	2693	552
22	0	0	1907	8	2695	550
23	0	0	1862	6	2699	550
24	0	0	1819	7	2706	549
25	0	0	1840	11	2711	547
26	0	0	1947	11	2716	550
27	0	0	2063	11	2717	550
28	0	0	2130	11	2716	551
29	0	0	2165	11	2710	548
30	0	0	2179	10	2699	547
31	0	0	2171	9	2695	545
32	0	0	2127	8	2695	546
33	0	0	2091	8	2700	545
34	0	0	2079	9	2706	544
35	0	0	2065	8	2712	543
36	0	0	2045	7	2717	542
37	0	0	2004	8	2716	542
38	0	0	1942	6	2716	541
39	0	0	1877	6	2710	539
40	0	0	1823	7	2699	540
41	0	0	1776	8	2695	538
42	0	0	1751	10	2695	537
43	0	0	1789	12	2699	538
44	0	0	1848	9	2706	537
45	0	0	1920	12	2712	538
46	0	0	2026	11	2716	537
47	0	0	2093	11	2718	537
48	0	0	2148	11	2716	537
49	0	0	2199	11	2710	535
50	0	0	2229	10	2699	537
51	0	0	2272	11	2695	536
52	0	0	2244	7	2695	535
53	0	0	2180	6	2700	533
54	0	0	2126	6	2706	530
55	0	0	2041	6	2712	530
56	0	0	1996	9	2717	532
57	0	0	1997	10	2718	530
58	0	0	1990	8	2717	528
59	0	0	1969	8	2710	527
60	0	0	1925	7	2699	526
61	0	0	1862	7	2694	526
62	0	0	1836	9	2695	526
63	0	0	1847	11	2699	526
64	0	0	1886	11	2706	526
65	0	0	1955	11	2711	526
66	0	0	2012	12	2717	526
67	0	0	2061	11	2718	526
68	0	0	2134	11	2716	524
69	0	0	2199	8	2711	523
70	0	0	2211	11	2699	523
71	0	0	2186	9	2695	523
72	0	0	2187	10	2696	520
73	0	0	2162	5	2700	520
74	0	0	2109	7	2706	519
75	0	0	2060	7	2713	519
76	0	0	2014	7	2717	519
77	0	0	1994	10	2718	519
78	0	0	1977	9	2716	517
79	0	0	1943	4	2710	514
80	0	0	1871	6	2699	514
81	0	0	1819	7	2694	514
82	0	0	1806	9	2695	513
83	0	0	1811	12	2699	513
84	0	0	1864	12	2705	515
85	0	0	1972	10	2712	515
86	0	0	2075	7	2717	514
87	0	0	2135	11	2718	515
88	0	0	2163	12	2716	512
89	0	0	2180	10	2711	514
90	0	0	2193	10	2700	512
91	0	0	2202	10	2695	509
92	0	0	2185	9	2695	510
93	0	0	2174	10	2700	506
94	0	0	2178	8	2706	506
95	0	0	2166	11	2712	507
96	0	0	2133	7	2717	506
97	0	0	2071	5	2717	505
98	0	0	1998	7	2716	505
99	0	0	1930	8	2710	504
100	0	0	1886	8	2699	503
101	0	0	1871	9	2694	500
102	0	0	1872	11	2695	502
103	0	0	1908	12	2700	502
104	0	0	1984	10	2706	501
105	0	0	2052	11	2712	502
106	0	0	2115	11	2716	502
107	0	0	2152	11	2718	501
108	0	0	2174	11	2716	501
109	0	0	2189	11	2710	500
110	0	0	2190	10	2700	500
111	0	0	2171	8	2696	498
112	0	0	2138	10	2696	498
113	0	0	2153	11	2700	497
114	0	0	2181	8	2706	496
115	0	0	2191	10	2712	495
116	0	0	2185	9	2716	495
117	0	0	2132	7	2719	494
118	0	0	2070	7	2716	493
119	0	0	2016	7	2710	492
120	0	0	1995	10	2700	491
121	0	0	1977	7	2695	490
122	0	0	1936	9	2695	489
123	0	0	1930	11	2700	491
124	0	0	1964	12	2705	491
125	0	0	1999	11	2712	490
126	0	0	2029	11	2716	491
127	0	0	2101	11	2718	491
0	0	0	2173	12	2716	490
1	0	0	2230	11	2710	491
2	0	0	2257	12	2700	489
3	0	0	2244	8	2694	487
4	0	0	2216	10	2696	488
5	0	0	2216	9	2700	486
6	0	0	2196	8	2706	486
7	0	0	2153	6	2713	483
8	0	0	2094	6	2717	484
9	0	0	2065	8	2718	483
10	0	0	2040	7	2717	482
11	0	0	2000	7	2711	479
12	0	0	1950	4	2700	480
13	0	0	1912	8	2695	479
14	0	0	1900	11	2696	481
15	0	0	1930	11	2700	481
16	0	0	1962	12	2706	480
17	0	0	1995	11	2713	480
18	0	0	2028	12	2716	479
19	0	0	2070	11	2719	480
20	0	0	2123	12	2716	481
21	0	0	2188	11	2710	480
22	0	0	2221	11	2700	479
23	0	0	2238	11	2694	477
24	0	0	2257	10	2696	476
25	0	0	2254	10	2700	476
26	0	0	2212	7	2706	474
27	0	0	2168	7	2712	473
28	0	0	2145	9	2717	473
29	0	0	2131	7	2718	474
30	0	0	2064	7	2716	472
31	0	0	1967	7	2710	471
32	0	0	1884	7	2699	471
33	0	0	1842	8	2694	470
34	0	0	1839	11	2696	471
35	0	0	1877	9	2700	471
36	0	0	1916	12	2705	470
37	0	0	1974	11	2712	469
38	0	0	2072	12	2717	471
39	0	0	2174	12	2718	471
40	0	0	2244	11	2717	471
41	0	0	2308	11	2710	469
42	0	0	2345	11	2700	466
43	0	0	2372	10	2695	467
44	0	0	2385	10	2698	468
45	0	0	2366	9	2700	467
46	0	0	2309	6	2706	467
47	0	0	2186	6	2712	464
48	0	0	2054	5	2717	463
49	0	0	1986	7	2718	464
50	0	0	1969	7	2717	463
51	0	0	1974	10	2711	462
52	0	0	1958	7	2699	459
53	0	0	1924	8	2693	458
54	0	0	1930	11	2696	461
55	0	0	1952	9	2699	462
56	0	0	1982	12	2706	462
57	0	0	2047	13	2713	462
58	0	0	2125	12	2716	462
59	0	0	2197	12	2719	460
60	0	0	2259	14	2717	461
61	0	0	2294	11	2711	460
62	0	0	2313	11	2700	459
63	0	0	2348	11	2695	458
64	0	0	2394	11	2696	457
65	0	0	2380	5	2701	456
66	0	0	2317	7	2706	456
67	0	0	2284	8	2712	456
68	0	0	2251	8	2716	455
69	0	0	2190	7	2718	455
70	0	0	2113	5	2717	454
71	0	0	2052	7	2710	455
72	0	0	2023	8	2699	447
73	0	0	2006	9	2694	452
74	0	0	1962	6	2695	452
75	0	0	1926	8	2700	451
76	0	0	1929	11	2706	453
77	0	0	1953	11	2712	452
78	0	0	2029	12	2717	452
79	0	0	2112	11	2718	453
80	0	0	2194	11	2716	453
81	0	0	2273	12	2709	451
82	0	0	2334	10	2700	447
83	0	0	2398	10	2695	447
84	0	0	2411	10	2696	446
85	0	0	2361	3	2700	448
86	0	0	2250	7	2706	447
87	0	0	2166	7	2712	446
88	0	0	2163	10	2717	445
89	0	0	2120	7	2718	445
90	0	0	2072	5	2716	444
91	0	0	2058	8	2710	444
92	0	0	2035	8	2700	446
93	0	0	1986	8	2695	444
94	0	0	1968	13	2696	442
95	0	0	1974	16	2700	443
96	0	0	2024	12	2706	443
97	0	0	2092	11	2713	444
98	0	0	2133	11	2717	444
99	0	0	2181	11	2718	443
100	0	0	2238	7	2717	443
101	0	0	2284	10	2711	442
102	0	0	2318	10	2700	442
103	0	0	2326	10	2695	441
104	0	0	2317	10	2696	441
105	0	0	2281	4	2700	439
106	0	0	2236	7	2707	438
107	0	0	2208	9	2712	440
108	0	0	2188	8	2717	437
109	0	0	2147	7	2718	433
110	0	0	2104	14	2716	433
111	0	0	2045	9	2710	434
112	0	0	1961	7	2700	432
113	0	0	1898	8	2694	434
114	0	0	1870	10	2695	434
115	0	0	1885	10	2700	434
116	0	0	1936	11	2706	433
117	0	0	1973	13	2712	434
118	0	0	2026	13	2716	434
119	0	0	2113	11	2718	435
120	0	0	2192	15	2716	435
121	0	0	2231	13	2711	435
122	0	0	2241	11	2700	431
123	0	0	2234	10	2696	431
124	0	0	2223	10	2696	432
125	0	0	2226	15	2700	431
126	0	0	2192	9	2707	430
127	0	0	2130	7	2713	431
0	0	0	2065	7	2716	428
1	0	0	1999	6	2719	428
2	0	0	1912	6	2717	431
3	0	0	1835	9	2710	427
4	0	0	1784	7	2699	428
5	0	0	1758	8	2694	426
6	0	0	1768	11	2695	425
7	0	0	1759	10	2700	425
8	0	0	1799	11	2706	425
9	0	0	1891	11	2712	429
10	0	0	1996	11	2716	426
11	0	0	2092	11	2718	427
12	0	0	2170	15	2716	426
13	0	0	2230	13	2710	425
14	0	0	2270	10	2700	424
15	0	0	2279	11	2695	425
16	0	0	2253	6	2696	424
17	0	0	2194	4	2701	424
18	0	0	2114	7	2707	421
19	0	0	2036	6	2712	422
20	0	0	1988	7	2717	421
21	0	0	1964	7	2718	421
22	0	0	1924	7	2716	420
23	0	0	1868	7	2710	416
24	0	0	1811	8	2699	415
25	0	0	1733	7	2694	417
26	0	0	1683	7	2696	417
27	0	0	1663	11	2699	418
28	0	0	1715	13	2706	418
29	0	0	1801	11	2713	418
30	0	0	1877	11	2716	419
31	0	0	1958	12	2718	419
32	0	0	2030	11	2716	419
33	0	0	2073	11	2711	417
34	0	0	2092	10	2700	419
35	0	0	2139	9	2694	415
36	0	0	2159	8	2696	416
37	0	0	2150	10	2700	416
38	0	0	2121	7	2706	415
39	0	0	2087	7	2712	409
40	0	0	2036	7	2716	411
41	0	0	1963	7	2718	413
42	0	0	1887	6	2716	412
43	0	0	1820	7	2710	410
44	0	0	1771	7	2699	407
45	0	0	1731	8	2694	409
46	0	0	1745	8	2696	411
47	0	0	1773	11	2700	411
48	0	0	1779	12	2706	408
49	0	0	1802	11	2712	408
50	0	0	1852	12	2717	411
51	0	0	1926	11	2718	414
52	0	0	1982	11	2716	410
53	0	0	2004	10	2710	410
54	0	0	2010	10	2699	410
55	0	0	2039	10	2694	407
56	0	0	2063	10	2696	405
57	0	0	2040	8	2700	407
58	0	0	2025	10	2706	406
59	0	0	2031	8	2712	405
60	0	0	2030	10	2716	404
61	0	0	1992	7	2717	406
62	0	0	1909	6	2716	405
63	0	0	1801	7	2710	403
64	0	0	1715	6	2699	403
65	0	0	1664	8	2695	403
66	0	0	1674	11	2695	403
67	0	0	1714	12	2700	404
68	0	0	1799	11	2706	401
69	0	0	1896	12	2712	403
70	0	0	1941	11	2717	403
71	0	0	1994	11	2718	403
72	0	0	2033	11	2716	401
73	0	0	2054	7	2710	403
74	0	0	2057	11	2700	401
75	0	0	2080	11	2695	400
76	0	0	2104	10	2696	401
77	0	0	2080	11	2700	398
78	0	0	2028	5	2706	399
79	0	0	1991	7	2712	400
80	0	0	1970	8	2717	398
81	0	0	1926	7	2718	399
82	0	0	1888	7	2716	400
83	0	0	1828	6	2709	397
84	0	0	1772	7	2699	394
85	0	0	1749	8	2695	396
86	0	0	1752	11	2695	396
87	0	0	1792	11	2699	395
88	0	0	1857	11	2706	396
89	0	0	1910	11	2712	396
90	0	0	1944	11	2717	395
91	0	0	1976	11	2718	397
92	0	0	2022	11	2716	400
93	0	0	2054	11	2710	396
94	0	0	2037	11	2700	393
95	0	0	2065	10	2695	394
96	0	0	2103	10	2696	394
97	0	0	2092	6	2700	394
98	0	0	2029	3	2707	392
99	0	0	1999	9	2712	391
100	0	0	1989	7	2717	392
101	0	0	1948	7	2719	391
102	0	0	1894	8	2716	391
103	0	0	1851	5	2709	389
104	0	0	1826	9	2699	388
105	0	0	1810	10	2695	389
106	0	0	1823	11	2696	388
107	0	0	1845	14	2700	388
108	0	0	1880	7	2706	389
109	0	0	1935	12	2712	391
110	0	0	2013	12	2716	389
111	0	0	2092	12	2718	390
112	0	0	2126	11	2716	391
113	0	0	2143	10	2710	391
114	0	0	2176	11	2699	386
115	0	0	2211	10	2695	387
116	0	0	2181	7	2695	387
117	0	0	2138	8	2700	386
118	0	0	2110	8	2707	385
119	0	0	2054	5	2712	388
120	0	0	1972	7	2716	384
121	0	0	1896	6	2718	384
122	0	0	1840	8	2716	385
123	0	0	1822	4	2710	382
124	0	0	1771	7	2699	382
125	0	0	1711	10	2694	382
126	0	0	1688	10	2696	382
127	0	0	1700	10	2699	384
0	0	0	1715	10	2705	383
1	0	0	1763	11	2712	383
2	0	0	1907	11	2717	384
3	0	0	2031	11	2718	383
4	0	0	2079	11	2716	384
5	0	0	2085	11	2710	382
6	0	0	2095	11	2700	383
7	0	0	2118	11	2695	380
8	0	0	2126	10	2696	380
9	0	0	2117	11	2700	380
10	0	0	2092	6	2706	379
11	0	0	2070	10	2712	376
12	0	0	2032	6	2717	380
13	0	0	1997	7	2718	375
14	0	0	1948	10	2716	376
15	0	0	1865	3	2710	376
16	0	0	1783	7	2699	375
17	0	0	1717	7	2694	374
18	0	0	1688	9	2696	376
19	0	0	1690	11	2700	375
20	0	0	1730	11	2706	374
21	0	0	1794	12	2712	376
22	0	0	1879	12	2717	375
23	0	0	1996	11	2718	377
24	0	0	2074	11	2717	375
25	0	0	2099	10	2710	376
26	0	0	2110	12	2699	376
27	0	0	2146	11	2695	375
28	0	0	2164	10	2695	374
29	0	0	2140	7	2700	376
30	0	0	2117	9	2706	374
31	0	0	2109	10	2712	376
32	0	0	2092	8	2716	371
33	0	0	2055	6	2717	371
34	0	0	2001	5	2716	371
35	0	0	1890	5	2709	369
36	0	0	1746	7	2699	368
37	0	0	1660	5	2694	367
38	0	0	1649	11	2695	370
39	0	0	1730	12	2700	370
40	0	0	1820	11	2706	369
41	0	0	1915	11	2713	370
42	0	0	1987	12	2716	374
43	0	0	2036	11	2719	370
44	0	0	2048	11	2716	369
45	0	0	2066	10	2709	370
46	0	0	2102	11	2699	369
47	0	0	2128	10	2695	369
48	0	0	2121	8	2697	369
49	0	0	2076	7	2701	366
50	0	0	2039	5	2706	366
51	0	0	1994	6	2713	368
52	0	0	1952	7	2716	365
53	0	0	1931	7	2718	367
54	0	0	1896	6	2716	365
55	0	0	1851	6	2710	362
56	0	0	1782	7	2700	364
57	0	0	1710	7	2695	365
58	0	0	1699	10	2696	362
59	0	0	1726	15	2700	362
60	0	0	1796	10	2706	364
61	0	0	1875	12	2712	366
62	0	0	1903	11	2716	365
63	0	0	1956	11	2718	364
64	0	0	2024	11	2717	362
65	0	0	2077	11	2710	362
66	0	0	2175	9	2699	363
67	0	0	2255	10	2695	360
68	0	0	2243	7	2696	362
69	0	0	2179	5	2700	362
70	0	0	2101	7	2706	358
71	0	0	2012	5	2713	360
72	0	0	1917	6	2717	360
73	0	0	1859	6	2718	360
74	0	0	1856	10	2716	359
75	0	0	1866	9	2710	358
76	0	0	1828	8	2699	357
77	0	0	1763	7	2694	357
78	0	0	1751	11	2695	357
79	0	0	1787	11	2700	356
80	0	0	1873	11	2705	359
81	0	0	1957	11	2712	359
82	0	0	2031	11	2716	362
83	0	0	2098	11	2718	358
84	0	0	2125	10	2716	358
85	0	0	2152	8	2710	358
86	0	0	2159	11	2700	356
87	0	0	2160	11	2695	356
88	0	0	2143	7	2696	356
89	0	0	2088	7	2701	356
90	0	0	2022	8	2706	356
91	0	0	1984	10	2713	355
92	0	0	1964	7	2717	354
93	0	0	1905	7	2718	354
94	0	0	1836	7	2716	352
95	0	0	1790	7	2710	339
96	0	0	1770	9	2699	355
97	0	0	1745	8	2694	354
98	0	0	1734	11	2696	351
99	0	0	1772	15	2700	351
100	0	0	1853	10	2706	351
101	0	0	1936	11	2712	352
102	0	0	1997	11	2716	355
103	0	0	2057	10	2718	353
104	0	0	2104	11	2717	352
105	0	0	2120	12	2710	354
106	0	0	2159	11	2699	351
107	0	0	2163	11	2695	351
108	0	0	2149	10	2695	352
109	0	0	2142	9	2700	350
110	0	0	2132	10	2706	351
111	0	0	2090	6	2713	351
112	0	0	2017	7	2716	351
113	0	0	1946	7	2718	348
114	0	0	1899	7	2716	348
115	0	0	1841	8	2709	348
116	0	0	1786	6	2699	350
117	0	0	1735	7	2694	348
118	0	0	1731	11	2695	346
119	0	0	1777	11	2700	347
120	0	0	1838	12	2706	350
121	0	0	1910	11	2712	347
122	0	0	1981	11	2716	351
123	0	0	2042	11	2718	348
124	0	0	2063	12	2716	348
125	0	0	2060	12	2710	348
126	0	0	2079	10	2699	350
127	0	0	2079	11	2695	346
0	0	0	2078	11	2696	345
1	0	0	2077	11	2700	345
2	0	0	2055	9	2706	344
3	0	0	2013	4	2712	343
4	0	0	1972	7	2717	343
5	0	0	1935	8	2718	343
6	0	0	1885	7	2716	341
7	0	0	1844	7	2710	340
8	0	0	1810	8	2699	340
9	0	0	1757	7	2695	341
10	0	0	1749	12	2695	342
11	0	0	1777	11	2700	343
12	0	0	1845	12	2707	342
13	0	0	1919	12	2712	342
14	0	0	1972	11	2717	342
15	0	0	2009	12	2718	343
16	0	0	2055	11	2716	341
17	0	0	2104	11	2710	342
18	0	0	2162	10	2699	341
19	0	0	2219	10	2695	340
20	0	0	2230	11	2696	341
21	0	0	2169	6	2700	337
22	0	0	2093	8	2706	339
23	0	0	2042	7	2712	338
24	0	0	2020	8	2716	337
25	0	0	2001	8	2718	339
26	0	0	1953	8	2716	338
27	0	0	1906	10	2710	336
28	0	0	1864	7	2699	337
29	0	0	1788	7	2694	337
30	0	0	1752	11	2695	336
31	0	0	1785	12	2700	337
32	0	0	1825	16	2706	336
33	0	0	1869	12	2713	337
34	0	0	1914	11	2718	335
35	0	0	2002	11	2719	337
36	0	0	2101	11	2716	339
37	0	0	2148	14	2710	336
38	0	0	2150	10	2699	336
39	0	0	2128	9	2695	335
40	0	0	2097	7	2696	336
41	0	0	2071	10	2700	335
42	0	0	2074	10	2707	335
43	0	0	2068	9	2712	333
44	0	0	2062	10	2718	333
45	0	0	2031	7	2718	334
46	0	0	1945	8	2716	333
47	0	0	1841	5	2710	331
48	0	0	1773	7	2699	330
49	0	0	1747	9	2695	331
50	0	0	1759	11	2695	331
51	0	0	1800	11	2700	330
52	0	0	1856	12	2706	332
53	0	0	1926	9	2712	332
54	0	0	1997	14	2716	331
55	0	0	2063	12	2718	333
56	0	0	2099	11	2717	332
57	0	0	2084	11	2710	330
58	0	0	2072	10	2700	332
59	0	0	2080	11	2695	329
60	0	0	2076	12	2696	330
61	0	0	2073	11	2701	330
62	0	0	2076	7	2707	330
63	0	0	2042	7	2712	328
64	0	0	1980	7	2717	328
65	0	0	1922	6	2718	327
66	0	0	1861	6	2716	325
67	0	0	1795	7	2710	325
68	0	0	1743	6	2699	327
69	0	0	1718	10	2694	325
70	0	0	1729	11	2696	326
71	0	0	1740	11	2700	324
72	0	0	1792	11	2707	329
73	0	0	1848	11	2713	327
74	0	0	1922	11	2717	328
75	0	0	2006	9	2719	328
76	0	0	2085	10	2716	327
77	0	0	2126	14	2710	326
78	0	0	2108	8	2700	326
79	0	0	2086	9	2695	325
80	0	0	2071	8	2696	327
81	0	0	2049	9	2700	323
82	0	0	2032	3	2707	323
83	0	0	2008	6	2713	324
84	0	0	1974	7	2716	324
85	0	0	1952	9	2718	324
86	0	0	1923	7	2716	323
87	0	0	1872	3	2710	320
88	0	0	1815	6	2699	322
89	0	0	1782	9	2694	320
90	0	0	1800	13	2696	321
91	0	0	1832	11	2700	321
92	0	0	1875	10	2707	321
93	0	0	1939	11	2712	322
94	0	0	1976	11	2718	322
95	0	0	2026	10	2718	323
96	0	0	2089	11	2716	323
97	0	0	2112	15	2710	320
98	0	0	2106	10	2700	323
99	0	0	2130	11	2695	319
100	0	0	2159	9	2697	320
101	0	0	2160	10	2701	319
102	0	0	2116	9	2706	319
103	0	0	2059	5	2713	318
104	0	0	1980	6	2716	319
105	0	0	1911	8	2717	318
106	0	0	1869	7	2716	315
107	0	0	1845	3	2710	315
108	0	0	1824	8	2699	315
109	0	0	1807	9	2694	318
110	0	0	1795	11	2695	316
111	0	0	1812	11	2701	315
112	0	0	1833	8	2706	317
113	0	0	1841	10	2713	318
114	0	0	1910	11	2717	317
115	0	0	1996	12	2718	319
116	0	0	2049	11	2716	317
117	0	0	2085	11	2710	317
118	0	0	2120	12	2699	319
119	0	0	2139	11	2695	318
120	0	0	2123	8	2697	317
121	0	0	2104	11	2700	317
122	0	0	2068	8	2706	315
123	0	0	1997	6	2713	314
124	0	0	1940	7	2716	314
125	0	0	1921	10	2718	314
126	0	0	1891	7	2715	312
127	0	0	1849	9	2709	312
0	0	0	1813	9	2699	310
1	0	0	1806	11	2694	311
2	0	0	1815	13	2695	311
3	0	0	1812	11	2700	310
4	0	0	1807	10	2706	312
5	0	0	1825	12	2712	313
6	0	0	1895	12	2716	314
7	0	0	1966	12	2717	313
8	0	0	2057	12	2717	312
9	0	0	2110	8	2709	312
10	0	0	2092	9	2699	311
11	0	0	2082	11	2694	311
12	0	0	2051	8	2695	310
13	0	0	1997	7	2701	311
14	0	0	1964	6	2707	310
15	0	0	1965	11	2712	309
16	0	0	1948	8	2716	310
17	0	0	1909	7	2717	310
18	0	0	1876	7	2715	309
19	0	0	1851	7	2709	309
20	0	0	1837	8	2698	307
21	0	0	1810	8	2694	303
22	0	0	1778	9	2695	308
23	0	0	1777	10	2699	309
24	0	0	1797	9	2705	309
25	0	0	1856	13	2711	308
26	0	0	1912	12	2715	311
27	0	0	1941	12	2717	309
28	0	0	1996	11	2715	309
29	0	0	2051	10	2708	310
30	0	0	2085	11	2698	308
31	0	0	2123	12	2694	307
32	0	0	2131	11	2695	308
33	0	0	2109	7	2699	308
34	0	0	2059	7	2705	308
35	0	0	2002	9	2711	305
36	0	0	1991	8	2715	305
37	0	0	1953	7	2716	304
38	0	0	1888	6	2714	304
39	0	0	1816	5	2707	305
40	0	0	1778	10	2697	303
41	0	0	1781	11	2692	299
42	0	0	1824	11	2693	303
43	0	0	1844	11	2697	304
44	0	0	1844	11	2704	305
45	0	0	1861	16	2710	305
46	0	0	1897	12	2714	303
47	0	0	1971	11	2715	304
48	0	0	2033	11	2713	304
49	0	0	2071	8	2707	306
50	0	0	2115	13	2696	303
51	0	0	2144	15	2692	303
52	0	0	2139	11	2693	304
53	0	0	2127	7	2697	302
54	0	0	2096	5	2703	303
55	0	0	2074	8	2709	300
56	0	0	2029	7	2712	301
57	0	0	1919	6	2713	301
58	0	0	1778	5	2712	301
59	0	0	1690	8	2705	299
60	0	0	1708	12	2695	300
61	0	0	1774	9	2691	300
62	0	0	1805	11	2692	300
63	0	0	1853	11	2696	300
64	0	0	1898	9	2702	301
65	0	0	1930	13	2708	301
66	0	0	1964	14	2711	295
67	0	0	1977	12	2713	300
68	0	0	2019	11	2711	300
69	0	0	2072	12	2705	301
70	0	0	2099	11	2694	299
71	0	0	2127	11	2689	295
72	0	0	2124	9	2691	298
73	0	0	2088	7	2695	298
74	0	0	2030	8	2701	298
75	0	0	1965	8	2707	297
76	0	0	1913	7	2711	296
77	0	0	1867	8	2711	297
78	0	0	1859	7	2709	297
79	0	0	1843	11	2703	296
80	0	0	1857	11	2693	299
81	0	0	1859	11	2688	293
82	0	0	1847	11	2690	294
83	0	0	1829	9	2694	299
84	0	0	1809	11	2699	297
85	0	0	1842	12	2706	296
86	0	0	1892	12	2709	296
87	0	0	1952	10	2711	296
88	0	0	2042	12	2709	299
89	0	0	2133	11	2702	295
90	0	0	2180	11	2692	294
91	0	0	2185	10	2687	293
92	0	0	2146	7	2689	293
93	0	0	2084	10	2693	295
94	0	0	2033	7	2698	293
95	0	0	1998	7	2705	293
96	0	0	1963	7	2708	292
97	0	0	1921	6	2709	292
98	0	0	1875	7	2708	295
99	0	0	1821	7	2701	292
100	0	0	1789	7	2691	291
101	0	0	1757	9	2686	289
102	0	0	1740	8	2688	291
103	0	0	1711	9	2692	293
104	0	0	1736	12	2697	291
105	0	0	1823	12	2703	293
106	0	0	1925	12	2706	292
107	0	0	1987	10	2708	291
108	0	0	1997	11	2706	292
109	0	0	1988	10	2700	293
110	0	0	2000	10	2689	292
111	0	0	2065	11	2685	288
112	0	0	2118	11	2686	292
113	0	0	2095	8	2691	291
114	0	0	2066	11	2696	289
115	0	0	2067	8	2702	289
116	0	0	2033	7	2705	287
117	0	0	1978	8	2707	288
118	0	0	1875	6	2705	289
119	0	0	1794	7	2698	285
120	0	0	1799	10	2688	287
121	0	0	1820	11	2683	288
122	0	0	1802	9	2684	289
123	0	0	1779	7	2689	292
124	0	0	1776	14	2694	288
125	0	0	1856	11	2700	289
126	0	0	1987	11	2705	288
127	0	0	2080	10	2705	289
0	0	0	2117	11	2703	287
1	0	0	2120	11	2697	289
2	0	0	2122	10	2687	289
3	0	0	2135	11	2683	286
4	0	0	2152	9	2685	287
5	0	0	2159	10	2689	286
6	0	0	2136	8	2693	288
7	0	0	2088	3	2700	286
8	0	0	1998	7	2703	284
9	0	0	1929	7	2705	283
10	0	0	1878	6	2702	285
11	0	0	1843	10	2696	282
12	0	0	1801	5	2685	284
13	0	0	1774	8	2681	284
14	0	0	1769	12	2682	284
15	0	0	1783	11	2687	286
16	0	0	1828	12	2693	284
17	0	0	1895	10	2698	285
18	0	0	1948	12	2702	284
19	0	0	2007	11	2704	284
20	0	0	2066	11	2703	286
21	0	0	2106	11	2694	286
22	0	0	2115	10	2686	285
23	0	0	2095	8	2681	285
24	0	0	2069	8	2682	283
25	0	0	2059	10	2686	285
26	0	0	2040	7	2691	282
27	0	0	1988	7	2697	284
28	0	0	1944	8	2701	282
29	0	0	1892	8	2702	282
30	0	0	1840	7	2700	279
31	0	0	1788	7	2693	280
32	0	0	1751	6	2683	281
33	0	0	1734	9	2679	280
34	0	0	1719	8	2680	281
35	0	0	1739	12	2685	281
36	0	0	1799	13	2690	281
37	0	0	1857	11	2697	281
38	0	0	1910	11	2700	280
39	0	0	1950	11	2701	282
40	0	0	1982	11	2699	282
41	0	0	2044	11	2693	281
42	0	0	2079	11	2683	281
43	0	0	2087	10	2678	280
44	0	0	2096	9	2680	281
45	0	0	2097	12	2684	280
46	0	0	2090	14	2689	278
47	0	0	2062	11	2695	278
48	0	0	2001	6	2699	279
49	0	0	1924	7	2700	277
50	0	0	1865	7	2699	278
51	0	0	1841	8	2691	278
52	0	0	1814	7	2682	276
53	0	0	1759	7	2678	275
54	0	0	1736	7	2679	278
55	0	0	1742	11	2683	276
56	0	0	1787	12	2688	276
57	0	0	1883	10	2694	276
58	0	0	2016	12	2698	279
59	0	0	2114	12	2699	278
60	0	0	2172	12	2698	275
61	0	0	2212	11	2691	277
62	0	0	2202	7	2681	277
63	0	0	2138	7	2677	278
64	0	0	2090	7	2679	279
65	0	0	2046	7	2682	277
66	0	0	1984	7	2688	276
67	0	0	1918	8	2694	274
68	0	0	1897	10	2698	274
69	0	0	1901	7	2698	275
70	0	0	1896	10	2696	272
71	0	0	1922	10	2690	276
72	0	0	1913	11	2680	274
73	0	0	1855	7	2675	273
74	0	0	1800	5	2677	276
75	0	0	1719	9	2681	275
76	0	0	1705	11	2687	275
77	0	0	1763	11	2692	275
78	0	0	1877	12	2696	274
79	0	0	1981	8	2698	274
80	0	0	2000	10	2695	274
81	0	0	1976	9	2690	273
82	0	0	2016	14	2680	273
83	0	0	2089	11	2675	274
84	0	0	2103	7	2676	273
85	0	0	2070	7	2681	272
86	0	0	2037	8	2686	272
87	0	0	2022	8	2692	270
88	0	0	1988	7	2695	271
89	0	0	1932	6	2696	271
90	0	0	1879	7	2694	271
91	0	0	1835	8	2689	270
92	0	0	1791	8	2678	271
93	0	0	1756	7	2675	270
94	0	0	1722	9	2675	269
95	0	0	1743	12	2679	270
96	0	0	1791	12	2686	271
97	0	0	1854	11	2691	271
98	0	0	1913	12	2694	271
99	0	0	1954	7	2695	271
100	0	0	1994	12	2694	268
101	0	0	2033	11	2688	270
102	0	0	2092	11	2678	269
103	0	0	2155	11	2674	270
104	0	0	2194	10	2676	271
105	0	0	2195	10	2679	271
106	0	0	2139	8	2686	270
107	0	0	2051	7	2690	268
108	0	0	1961	6	2694	266
109	0	0	1896	7	2695	267
110	0	0	1859	5	2693	268
111	0	0	1829	8	2686	268
112	0	0	1811	8	2676	268
113	0	0	1788	8	2673	267
114	0	0	1797	11	2673	268
115	0	0	1817	12	2678	267
116	0	0	1860	15	2684	268
117	0	0	1918	15	2690	267
118	0	0	1951	12	2693	268
119	0	0	1960	11	2694	268
120	0	0	1976	11	2693	264
121	0	0	2032	11	2687	271
122	0	0	2095	10	2677	268
123	0	0	2122	11	2673	266
124	0	0	2142	7	2674	266
125	0	0	2158	10	2678	266
126	0	0	2136	9	2683	265
127	0	0	2068	5	2689	264
0	0	0	1985	7	2692	265
1	0	0	1921	7	2693	266
2	0	0	1906	11	2692	260
3	0	0	1913	12	2686	263
4	0	0	1885	8	2675	262
5	0	0	1814	8	2672	263
6	0	0	1751	7	2673	266
7	0	0	1742	12	2677	260
8	0	0	1748	14	2682	265
9	0	0	1757	11	2688	263
10	0	0	1827	12	2692	265
11	0	0	1930	12	2693	265
12	0	0	2003	11	2691	264
13	0	0	2054	13	2685	267
14	0	0	2096	12	2675	264
15	0	0	2131	11	2671	263
16	0	0	2153	11	2673	263
17	0	0	2126	11	2676	263
18	0	0	2084	7	2682	261
19	0	0	2046	8	2687	263
20	0	0	2012	0	2691	262
21	0	0	1978	6	2693	260
22	0	0	1922	7	2691	260
23	0	0	1849	6	2684	261
