# bioPlux Text File Format
# Version: 1
# StartDateTime: 2011-07-19 18:00:07
# SamplingFrequency: 1000
# SampledChannels: 1 2 3 4
# SamplingResolution: 12
# AcquiringDevice: 00:07:80:42:0F:8B
# EndOfHeader
0	0	0	2059	1619	3846	81
1	0	0	2031	1621	3847	81
2	0	0	2015	1621	3847	78
3	0	0	1989	1620	3846	79
4	0	0	1954	1620	3846	79
5	0	0	1916	1621	3845	78
6	0	0	1887	1622	3847	80
7	0	0	1866	1623	3846	79
8	0	0	1860	1625	3845	80
9	0	0	1862	1625	3845	80
10	0	0	1875	1625	3845	79
11	0	0	1903	1625	3847	80
12	0	0	1930	1622	3846	79
13	0	0	1948	1622	3846	79
14	0	0	1969	1623	3846	79
15	0	0	1985	1623	3844	79
16	0	0	2008	1621	3845	80
17	0	0	2035	1619	3846	77
18	0	0	2041	1621	3846	77
19	0	0	2033	1621	3846	80
20	0	0	2026	1622	3845	80
21	0	0	2017	1622	3845	80
22	0	0	2003	1620	3846	77
23	0	0	1982	1620	3845	78
24	0	0	1953	1620	3845	79
25	0	0	1934	1622	3845	78
26	0	0	1928	1624	3843	81
27	0	0	1931	1622	3846	79
28	0	0	1928	1624	3846	80
29	0	0	1925	1625	3846	79
30	0	0	1929	1625	3847	82
31	0	0	1932	1624	3847	79
32	0	0	1935	1624	3847	78
33	0	0	1951	1623	3846	78
34	0	0	1989	1622	3846	78
35	0	0	2037	1621	3846	79
36	0	0	2071	1621	3847	79
37	0	0	2081	1619	3846	79
38	0	0	2089	1621	3847	79
39	0	0	2086	1621	3845	77
40	0	0	2068	1619	3846	77
41	0	0	2036	1619	3845	78
42	0	0	1989	1617	3845	77
43	0	0	1950	1620	3845	81
44	0	0	1930	1622	3845	82
45	0	0	1926	1624	3844	81
46	0	0	1903	1622	3846	77
47	0	0	1891	1622	3846	81
48	0	0	1885	1624	3845	80
49	0	0	1893	1624	3846	80
50	0	0	1916	1626	3845	80
51	0	0	1944	1624	3847	80
52	0	0	1972	1623	3847	79
53	0	0	1992	1623	3847	79
54	0	0	1999	1621	3846	78
55	0	0	2021	1623	3844	77
56	0	0	2080	1622	3845	81
57	0	0	2127	1620	3846	77
58	0	0	2133	1619	3845	78
59	0	0	2109	1618	3845	77
60	0	0	2091	1620	3845	80
61	0	0	2069	1619	3846	81
62	0	0	2034	1617	3846	80
63	0	0	1991	1617	3846	77
64	0	0	1952	1620	3847	78
65	0	0	1922	1621	3845	78
66	0	0	1890	1620	3845	79
67	0	0	1866	1623	3847	80
68	0	0	1867	1624	3846	80
69	0	0	1895	1625	3847	79
70	0	0	1931	1624	3848	81
71	0	0	1968	1624	3844	80
72	0	0	1991	1623	3847	78
73	0	0	2003	1622	3845	79
74	0	0	2015	1622	3847	78
75	0	0	2038	1621	3847	79
76	0	0	2079	1620	3843	79
77	0	0	2110	1621	3846	79
78	0	0	2128	1619	3847	81
79	0	0	2134	1619	3848	81
80	0	0	2115	1618	3846	76
81	0	0	2082	1617	3846	78
82	0	0	2029	1616	3847	78
83	0	0	1991	1619	3846	79
84	0	0	1979	1623	3846	81
85	0	0	1969	1622	3846	81
86	0	0	1941	1621	3847	81
87	0	0	1906	1619	3848	80
88	0	0	1858	1620	3846	80
89	0	0	1837	1623	3845	79
90	0	0	1850	1624	3847	79
91	0	0	1872	1623	3848	79
92	0	0	1892	1622	3847	78
93	0	0	1920	1621	3845	78
94	0	0	1947	1621	3847	78
95	0	0	1978	1621	3846	79
96	0	0	2021	1620	3844	80
97	0	0	2054	1620	3847	76
98	0	0	2079	1619	3846	78
99	0	0	2106	1619	3848	77
100	0	0	2105	1619	3846	78
101	0	0	2091	1620	3848	81
102	0	0	2077	1620	3848	81
103	0	0	2058	1619	3846	80
104	0	0	2023	1619	3846	79
105	0	0	1999	1620	3845	78
106	0	0	1966	1620	3844	78
107	0	0	1925	1619	3846	80
108	0	0	1905	1621	3844	81
109	0	0	1896	1624	3845	80
110	0	0	1903	1624	3845	80
111	0	0	1927	1623	3846	79
112	0	0	1957	1623	3847	79
113	0	0	1984	1621	3845	80
114	0	0	2003	1621	3846	78
115	0	0	2022	1621	3847	79
116	0	0	2049	1620	3844	80
117	0	0	2072	1620	3847	76
118	0	0	2086	1618	3845	79
119	0	0	2098	1618	3847	80
120	0	0	2094	1619	3846	79
121	0	0	2062	1618	3846	77
122	0	0	2036	1618	3847	78
123	0	0	2007	1618	3846	78
124	0	0	1978	1619	3845	79
125	0	0	1965	1622	3845	79
126	0	0	1956	1622	3845	81
127	0	0	1939	1622	3847	79
0	0	0	1920	1620	3845	80
1	0	0	1911	1624	3846	80
2	0	0	1926	1623	3847	77
3	0	0	1959	1623	3847	78
4	0	0	1982	1622	3847	78
5	0	0	2000	1622	3847	79
6	0	0	2019	1618	3846	79
7	0	0	2044	1621	3847	78
8	0	0	2079	1620	3846	79
9	0	0	2109	1619	3847	77
10	0	0	2124	1620	3846	80
11	0	0	2126	1619	3846	81
12	0	0	2115	1619	3847	81
13	0	0	2082	1616	3847	77
14	0	0	2026	1617	3846	78
15	0	0	1990	1618	3845	77
16	0	0	1963	1618	3846	79
17	0	0	1936	1619	3846	82
18	0	0	1916	1621	3846	79
19	0	0	1904	1623	3847	77
20	0	0	1911	1624	3846	80
21	0	0	1919	1623	3846	79
22	0	0	1934	1623	3847	78
23	0	0	1955	1622	3847	78
24	0	0	1973	1622	3848	79
25	0	0	1972	1621	3846	79
26	0	0	1982	1620	3847	78
27	0	0	2002	1621	3845	76
28	0	0	2047	1619	3846	79
29	0	0	2094	1618	3846	80
30	0	0	2133	1619	3845	77
31	0	0	2158	1619	3846	79
32	0	0	2138	1617	3846	77
33	0	0	2107	1618	3847	77
34	0	0	2086	1620	3846	81
35	0	0	2083	1620	3846	81
36	0	0	2066	1618	3847	82
37	0	0	2029	1618	3846	78
38	0	0	1984	1620	3847	77
39	0	0	1931	1619	3847	80
40	0	0	1884	1619	3846	80
41	0	0	1880	1622	3845	80
42	0	0	1894	1623	3846	77
43	0	0	1922	1622	3846	79
44	0	0	1942	1621	3846	80
45	0	0	1967	1623	3846	77
46	0	0	2002	1620	3846	79
47	0	0	2036	1619	3846	77
48	0	0	2075	1619	3847	78
49	0	0	2105	1618	3846	76
50	0	0	2110	1618	3845	78
51	0	0	2109	1620	3846	80
52	0	0	2105	1619	3847	78
53	0	0	2089	1618	3847	79
54	0	0	2065	1619	3847	77
55	0	0	2041	1618	3844	77
56	0	0	2012	1618	3845	78
57	0	0	1989	1621	3846	76
58	0	0	1969	1620	3847	80
59	0	0	1947	1620	3846	81
60	0	0	1934	1621	3846	77
61	0	0	1914	1621	3846	80
62	0	0	1912	1623	3846	80
63	0	0	1947	1622	3847	80
64	0	0	1973	1622	3846	79
65	0	0	2005	1621	3846	80
66	0	0	2051	1620	3846	79
67	0	0	2094	1620	3846	79
68	0	0	2134	1619	3847	79
69	0	0	2148	1619	3846	79
70	0	0	2151	1619	3847	79
71	0	0	2133	1615	3846	77
72	0	0	2099	1616	3847	78
73	0	0	2072	1616	3846	77
74	0	0	2036	1616	3847	78
75	0	0	1994	1619	3846	80
76	0	0	1955	1618	3845	81
77	0	0	1930	1619	3846	81
78	0	0	1924	1621	3847	77
79	0	0	1935	1622	3846	80
80	0	0	1962	1622	3845	80
81	0	0	1972	1623	3847	79
82	0	0	1975	1623	3847	79
83	0	0	1970	1623	3845	77
84	0	0	1970	1621	3846	79
85	0	0	1985	1621	3847	78
86	0	0	1999	1619	3846	78
87	0	0	2024	1619	3846	79
88	0	0	2072	1619	3846	77
89	0	0	2122	1618	3847	77
90	0	0	2165	1618	3846	76
91	0	0	2188	1618	3846	78
92	0	0	2197	1617	3847	80
93	0	0	2185	1617	3845	79
94	0	0	2145	1616	3847	81
95	0	0	2094	1615	3846	78
96	0	0	2029	1616	3845	79
97	0	0	1971	1617	3846	78
98	0	0	1947	1620	3845	75
99	0	0	1933	1622	3847	79
100	0	0	1932	1622	3846	80
101	0	0	1936	1624	3847	80
102	0	0	1945	1622	3847	78
103	0	0	1965	1622	3847	77
104	0	0	1988	1621	3847	79
105	0	0	2005	1620	3846	79
106	0	0	2023	1620	3847	78
107	0	0	2040	1619	3847	79
108	0	0	2065	1619	3847	79
109	0	0	2088	1615	3847	80
110	0	0	2100	1618	3845	79
111	0	0	2101	1617	3846	81
112	0	0	2098	1618	3846	77
113	0	0	2099	1620	3847	77
114	0	0	2081	1616	3847	81
115	0	0	2049	1617	3845	78
116	0	0	2015	1618	3845	79
117	0	0	1978	1617	3847	78
118	0	0	1963	1621	3847	78
119	0	0	1965	1621	3848	82
120	0	0	1978	1620	3846	80
121	0	0	2004	1622	3846	80
122	0	0	2019	1621	3847	80
123	0	0	2021	1622	3845	79
124	0	0	2020	1621	3847	79
125	0	0	2034	1621	3843	80
126	0	0	2054	1619	3846	78
127	0	0	2064	1619	3847	78
0	0	0	2084	1618	3843	79
1	0	0	2105	1618	3847	80
2	0	0	2137	1618	3845	80
3	0	0	2140	1615	3845	80
4	0	0	2100	1614	3847	78
5	0	0	2090	1620	3843	78
6	0	0	2096	1618	3845	79
7	0	0	2052	1615	3846	79
8	0	0	1995	1617	3846	81
9	0	0	1981	1620	3846	81
10	0	0	1986	1622	3847	80
11	0	0	1967	1619	3847	81
12	0	0	1942	1620	3847	80
13	0	0	1931	1621	3847	80
14	0	0	1937	1622	3846	79
15	0	0	1962	1622	3848	79
16	0	0	1996	1622	3847	79
17	0	0	2034	1621	3847	78
18	0	0	2062	1618	3843	79
19	0	0	2088	1618	3846	79
20	0	0	2116	1618	3846	79
21	0	0	2141	1619	3845	76
22	0	0	2157	1617	3846	77
23	0	0	2164	1617	3846	77
24	0	0	2161	1617	3846	77
25	0	0	2132	1616	3847	80
26	0	0	2100	1616	3847	81
27	0	0	2079	1617	3846	81
28	0	0	2060	1618	3847	79
29	0	0	2029	1617	3847	78
30	0	0	1989	1618	3843	76
31	0	0	1960	1620	3847	80
32	0	0	1952	1622	3846	80
33	0	0	1958	1621	3846	79
34	0	0	1981	1621	3846	79
35	0	0	2014	1622	3844	79
36	0	0	2030	1620	3846	80
37	0	0	2029	1620	3846	80
38	0	0	2029	1619	3845	79
39	0	0	2036	1619	3845	79
40	0	0	2068	1616	3844	79
41	0	0	2106	1618	3846	77
42	0	0	2139	1617	3845	80
43	0	0	2146	1617	3846	80
44	0	0	2138	1617	3847	81
45	0	0	2121	1617	3847	78
46	0	0	2089	1618	3848	79
47	0	0	2084	1620	3847	78
48	0	0	2083	1618	3845	79
49	0	0	2034	1617	3845	80
50	0	0	1991	1619	3846	81
51	0	0	1970	1620	3846	80
52	0	0	1960	1621	3845	80
53	0	0	1950	1622	3845	80
54	0	0	1949	1620	3846	80
55	0	0	1951	1621	3846	79
56	0	0	1965	1620	3844	78
57	0	0	1990	1619	3846	79
58	0	0	2025	1620	3846	77
59	0	0	2060	1619	3846	78
60	0	0	2105	1618	3847	79
61	0	0	2138	1617	3848	81
62	0	0	2159	1617	3847	77
63	0	0	2158	1618	3846	77
64	0	0	2131	1615	3846	77
65	0	0	2097	1616	3846	77
66	0	0	2081	1619	3844	79
67	0	0	2070	1618	3846	81
68	0	0	2044	1617	3845	82
69	0	0	2017	1617	3842	79
70	0	0	1982	1618	3845	75
71	0	0	1959	1619	3844	79
72	0	0	1961	1621	3845	80
73	0	0	1971	1622	3845	80
74	0	0	1969	1621	3843	80
75	0	0	1980	1620	3847	78
76	0	0	2009	1621	3847	78
77	0	0	2052	1619	3848	79
78	0	0	2081	1619	3848	77
79	0	0	2118	1619	3845	79
80	0	0	2148	1617	3846	79
81	0	0	2171	1617	3844	76
82	0	0	2182	1617	3847	77
83	0	0	2188	1618	3845	80
84	0	0	2181	1617	3845	80
85	0	0	2153	1615	3846	79
86	0	0	2123	1616	3845	78
87	0	0	2094	1616	3845	78
88	0	0	2068	1616	3848	78
89	0	0	2042	1618	3847	82
90	0	0	2012	1618	3847	80
91	0	0	1982	1618	3844	79
92	0	0	1964	1620	3846	80
93	0	0	1963	1621	3846	80
94	0	0	1967	1621	3845	79
95	0	0	1988	1621	3846	79
96	0	0	2009	1619	3847	78
97	0	0	2042	1620	3847	78
98	0	0	2071	1619	3846	79
99	0	0	2089	1618	3845	78
100	0	0	2127	1617	3846	80
101	0	0	2167	1617	3847	79
102	0	0	2190	1616	3845	80
103	0	0	2201	1616	3846	80
104	0	0	2206	1618	3845	80
105	0	0	2207	1618	3846	79
106	0	0	2222	1618	3843	80
107	0	0	2221	1617	3845	81
108	0	0	2168	1615	3846	83
109	0	0	2100	1616	3846	81
110	0	0	2028	1617	3846	79
111	0	0	1986	1617	3847	78
112	0	0	1960	1618	3846	79
113	0	0	1933	1617	3847	79
114	0	0	1928	1620	3847	79
115	0	0	1955	1620	3846	77
116	0	0	1984	1619	3845	79
117	0	0	2014	1616	3845	79
118	0	0	2042	1617	3847	79
119	0	0	2081	1617	3846	78
120	0	0	2115	1616	3846	77
121	0	0	2127	1616	3846	79
122	0	0	2131	1617	3847	80
123	0	0	2140	1616	3846	81
124	0	0	2142	1616	3846	80
125	0	0	2120	1617	3846	80
126	0	0	2107	1617	3846	81
127	0	0	2097	1618	3846	81
0	0	0	2077	1616	3847	82
1	0	0	2057	1618	3844	79
2	0	0	2035	1618	3846	80
3	0	0	2014	1619	3847	80
4	0	0	2010	1620	3846	80
5	0	0	2014	1620	3846	80
6	0	0	2023	1620	3846	79
7	0	0	2027	1619	3847	79
8	0	0	2027	1618	3846	78
9	0	0	2035	1619	3845	79
10	0	0	2046	1617	3846	78
11	0	0	2061	1617	3846	78
12	0	0	2106	1617	3846	79
13	0	0	2150	1615	3846	79
14	0	0	2163	1616	3846	80
15	0	0	2141	1614	3846	80
16	0	0	2102	1614	3847	80
17	0	0	2072	1614	3846	80
18	0	0	2039	1614	3847	79
19	0	0	2010	1616	3847	80
20	0	0	1984	1616	3847	82
21	0	0	1967	1618	3845	81
22	0	0	1969	1619	3846	80
23	0	0	1985	1619	3846	80
24	0	0	1983	1617	3845	80
25	0	0	1957	1617	3847	79
26	0	0	1944	1621	3847	79
27	0	0	1951	1619	3846	80
28	0	0	1971	1619	3847	79
29	0	0	1991	1618	3846	79
30	0	0	2018	1620	3845	79
31	0	0	2053	1618	3846	78
32	0	0	2097	1617	3847	79
33	0	0	2136	1615	3847	79
34	0	0	2150	1617	3846	80
35	0	0	2153	1615	3848	81
36	0	0	2146	1616	3847	80
37	0	0	2119	1614	3847	84
38	0	0	2074	1614	3846	80
39	0	0	2036	1613	3845	81
40	0	0	2011	1616	3847	82
41	0	0	1997	1618	3846	79
42	0	0	1975	1617	3846	80
43	0	0	1966	1619	3846	80
44	0	0	1972	1619	3845	80
45	0	0	1976	1620	3847	79
46	0	0	1966	1619	3846	79
47	0	0	1968	1619	3847	79
48	0	0	1974	1618	3846	79
49	0	0	1998	1620	3846	79
50	0	0	2032	1617	3848	79
51	0	0	2056	1617	3847	78
52	0	0	2076	1616	3846	80
53	0	0	2086	1615	3847	79
54	0	0	2094	1616	3845	81
55	0	0	2114	1615	3847	80
56	0	0	2127	1616	3846	80
57	0	0	2127	1617	3844	80
58	0	0	2102	1614	3845	79
59	0	0	2070	1613	3845	81
60	0	0	2036	1616	3845	82
61	0	0	2002	1617	3846	81
62	0	0	1968	1616	3846	80
63	0	0	1946	1618	3845	79
64	0	0	1943	1619	3846	80
65	0	0	1948	1618	3846	80
66	0	0	1963	1619	3847	77
67	0	0	1973	1619	3845	77
68	0	0	1995	1618	3845	79
69	0	0	2021	1618	3846	79
70	0	0	2056	1617	3846	79
71	0	0	2090	1617	3846	76
72	0	0	2118	1616	3846	78
73	0	0	2140	1615	3845	78
74	0	0	2148	1615	3845	81
75	0	0	2149	1615	3845	80
76	0	0	2131	1613	3847	80
77	0	0	2099	1615	3845	80
78	0	0	2074	1615	3844	80
79	0	0	2050	1614	3846	80
80	0	0	2032	1618	3847	79
81	0	0	2027	1619	3846	80
82	0	0	2008	1617	3846	83
83	0	0	1982	1617	3847	80
84	0	0	1965	1619	3846	80
85	0	0	1950	1618	3847	79
86	0	0	1947	1620	3847	79
87	0	0	1970	1619	3846	82
88	0	0	1994	1619	3847	79
89	0	0	2006	1618	3845	79
90	0	0	2019	1617	3846	77
91	0	0	2042	1617	3846	79
92	0	0	2090	1616	3846	79
93	0	0	2133	1615	3844	79
94	0	0	2160	1615	3845	79
95	0	0	2165	1614	3845	81
96	0	0	2152	1617	3846	81
97	0	0	2140	1617	3847	81
98	0	0	2131	1616	3845	81
99	0	0	2115	1615	3846	81
100	0	0	2087	1614	3847	80
101	0	0	2036	1615	3847	80
102	0	0	1966	1615	3847	83
103	0	0	1921	1618	3846	80
104	0	0	1924	1620	3845	80
105	0	0	1933	1619	3845	80
106	0	0	1944	1620	3846	79
107	0	0	1953	1619	3847	79
108	0	0	1959	1618	3845	76
109	0	0	1983	1618	3846	79
110	0	0	2006	1617	3845	78
111	0	0	2031	1618	3845	79
112	0	0	2076	1616	3846	79
113	0	0	2122	1615	3848	79
114	0	0	2153	1614	3845	80
115	0	0	2153	1614	3847	80
116	0	0	2118	1612	3846	80
117	0	0	2074	1612	3846	80
118	0	0	2033	1614	3845	80
119	0	0	1999	1615	3846	80
120	0	0	1973	1615	3845	82
121	0	0	1972	1618	3845	80
122	0	0	1970	1619	3846	81
123	0	0	1956	1617	3844	79
124	0	0	1941	1617	3846	79
125	0	0	1925	1619	3845	79
126	0	0	1938	1618	3846	79
127	0	0	1971	1619	3848	79
0	0	0	2016	1617	3848	79
1	0	0	2068	1618	3847	79
2	0	0	2117	1618	3845	79
3	0	0	2168	1616	3846	79
4	0	0	2230	1616	3845	79
5	0	0	2288	1615	3847	79
6	0	0	2320	1615	3846	80
7	0	0	2360	1614	3845	79
8	0	0	2411	1614	3846	81
9	0	0	2444	1616	3846	79
10	0	0	2461	1616	3848	81
11	0	0	2476	1617	3845	81
12	0	0	2493	1618	3845	82
13	0	0	2498	1617	3845	82
14	0	0	2481	1617	3846	80
15	0	0	2451	1616	3848	81
16	0	0	2432	1618	3845	80
17	0	0	2425	1619	3845	80
18	0	0	2423	1617	3846	81
19	0	0	2424	1618	3846	473
20	0	0	2454	1617	3848	1346
21	0	0	2492	1618	3847	2175
22	0	0	2490	1616	3845	2753
23	0	0	2467	1615	3846	3127
24	0	0	2444	1613	3846	3365
25	0	0	2394	1610	3847	3519
26	0	0	2311	1610	3845	3623
27	0	0	2221	1610	3845	3696
28	0	0	2135	1611	3846	3749
29	0	0	2052	1611	3844	3788
30	0	0	1962	1611	3846	3817
31	0	0	1875	1611	3845	3840
32	0	0	1841	1616	3845	3861
33	0	0	1843	1615	3845	3877
34	0	0	1845	1618	3847	3891
35	0	0	1839	1615	3848	3899
36	0	0	1803	1615	3847	3907
37	0	0	1773	1617	3845	3914
38	0	0	1800	1617	3846	3920
39	0	0	1832	1618	3847	3928
40	0	0	1853	1616	3847	3932
41	0	0	1869	1616	3845	3936
42	0	0	1883	1616	3844	3940
43	0	0	1901	1615	3844	3944
44	0	0	1945	1614	3845	3946
45	0	0	1996	1614	3846	3952
46	0	0	2024	1614	3845	3952
47	0	0	2020	1614	3845	3954
48	0	0	2006	1614	3844	3957
49	0	0	2002	1616	3846	3960
50	0	0	2006	1615	3846	3963
51	0	0	2010	1615	3845	3964
52	0	0	2004	1616	3845	3967
53	0	0	1997	1614	3846	3964
54	0	0	1990	1618	3846	3967
55	0	0	1974	1616	3847	3967
56	0	0	1958	1617	3847	3969
57	0	0	1937	1616	3844	3970
58	0	0	1926	1617	3845	3972
59	0	0	1932	1619	3846	3970
60	0	0	1974	1617	3847	3972
61	0	0	2007	1616	3845	3973
62	0	0	2026	1615	3842	3974
63	0	0	2047	1614	3844	3976
64	0	0	2078	1614	3846	3977
65	0	0	2127	1613	3847	3976
66	0	0	2172	1613	3845	3979
67	0	0	2190	1614	3845	3979
68	0	0	2183	1614	3846	3982
69	0	0	2152	1612	3846	3981
70	0	0	2125	1613	3847	3980
71	0	0	2102	1613	3846	3977
72	0	0	2090	1615	3846	3979
73	0	0	2073	1612	3847	3982
74	0	0	2035	1614	3846	3984
75	0	0	1986	1613	3845	3981
76	0	0	1948	1615	3845	3981
77	0	0	1939	1617	3845	3982
78	0	0	1958	1615	3845	3983
79	0	0	1980	1618	3846	3983
80	0	0	1998	1615	3845	3984
81	0	0	2011	1616	3845	3983
82	0	0	2028	1616	3845	3984
83	0	0	2050	1611	3845	3984
84	0	0	2092	1615	3846	3985
85	0	0	2138	1613	3845	3983
86	0	0	2189	1614	3847	3986
87	0	0	2227	1613	3844	3985
88	0	0	2209	1608	3846	3987
89	0	0	2151	1611	3846	3989
90	0	0	2110	1610	3847	3988
91	0	0	2083	1612	3846	3988
92	0	0	2058	1613	3846	3986
93	0	0	2037	1611	3846	3987
94	0	0	2017	1615	3845	3990
95	0	0	2009	1617	3844	3988
96	0	0	1988	1614	3845	3988
97	0	0	1966	1615	3845	3988
98	0	0	1956	1617	3845	3988
99	0	0	1979	1618	3847	3990
100	0	0	2017	1616	3845	3988
101	0	0	2062	1617	3847	3990
102	0	0	2106	1615	3845	3989
103	0	0	2132	1612	3845	3989
104	0	0	2155	1614	3846	3989
105	0	0	2174	1612	3845	3993
106	0	0	2178	1612	3846	3992
107	0	0	2179	1613	3844	3992
108	0	0	2180	1611	3845	3992
109	0	0	2154	1612	3847	3988
110	0	0	2133	1613	3845	3991
111	0	0	2108	1612	3848	3989
112	0	0	2076	1611	3845	3992
113	0	0	2043	1612	3845	3994
114	0	0	2008	1614	3845	3992
115	0	0	1972	1614	3846	3992
116	0	0	1953	1617	3845	3991
117	0	0	1968	1616	3847	3992
118	0	0	1992	1616	3846	3992
119	0	0	2023	1618	3846	3992
120	0	0	2067	1613	3846	3992
121	0	0	2096	1614	3846	3992
122	0	0	2131	1615	3848	3991
123	0	0	2161	1614	3845	3992
124	0	0	2182	1614	3846	3991
125	0	0	2202	1612	3845	3995
126	0	0	2216	1612	3845	3992
127	0	0	2215	1613	3844	3992
0	0	0	2195	1613	3847	3993
1	0	0	2172	1611	3845	3993
2	0	0	2141	1611	3845	3995
3	0	0	2131	1615	3845	3995
4	0	0	2145	1615	3844	3995
5	0	0	2140	1615	3846	3994
6	0	0	2083	1613	3846	3991
7	0	0	2035	1612	3845	3994
8	0	0	1991	1615	3845	3993
9	0	0	1980	1617	3844	3992
10	0	0	1999	1619	3847	3994
11	0	0	2020	1616	3846	3991
12	0	0	2035	1615	3846	3995
13	0	0	2060	1615	3845	3993
14	0	0	2106	1615	3844	3993
15	0	0	2149	1614	3845	3995
16	0	0	2195	1613	3845	3991
17	0	0	2219	1612	3844	3995
18	0	0	2219	1613	3844	3996
19	0	0	2217	1612	3843	3996
20	0	0	2210	1615	3846	3997
21	0	0	2190	1612	3846	3997
22	0	0	2159	1611	3846	3995
23	0	0	2129	1611	3847	3996
24	0	0	2100	1614	3846	3995
25	0	0	2082	1613	3846	3997
26	0	0	2062	1614	3846	3998
27	0	0	2032	1613	3845	3995
28	0	0	2011	1615	3847	3996
29	0	0	2008	1617	3846	3995
30	0	0	2023	1615	3846	3995
31	0	0	2048	1617	3847	3996
32	0	0	2078	1615	3845	3996
33	0	0	2107	1615	3845	3995
34	0	0	2124	1614	3846	3995
35	0	0	2122	1614	3846	3996
36	0	0	2133	1612	3845	3996
37	0	0	2163	1611	3845	3999
38	0	0	2216	1610	3845	3997
39	0	0	2253	1612	3845	3996
40	0	0	2252	1611	3843	3996
41	0	0	2234	1611	3846	3995
42	0	0	2199	1610	3846	3998
43	0	0	2156	1611	3847	3999
44	0	0	2102	1611	3847	3998
45	0	0	2073	1613	3843	3998
46	0	0	2070	1615	3845	3996
47	0	0	2064	1615	3847	3997
48	0	0	2051	1615	3844	3995
49	0	0	2026	1613	3844	3996
50	0	0	2015	1616	3847	3997
51	0	0	2030	1615	3846	3996
52	0	0	2053	1614	3845	3996
53	0	0	2080	1614	3845	3996
54	0	0	2118	1613	3843	3996
55	0	0	2144	1613	3844	3996
56	0	0	2173	1612	3846	3997
57	0	0	2209	1612	3845	4000
58	0	0	2247	1611	3844	3998
59	0	0	2279	1611	3846	3997
60	0	0	2289	1612	3846	3997
61	0	0	2265	1610	3846	3997
62	0	0	2216	1609	3846	3997
63	0	0	2158	1609	3846	3998
64	0	0	2108	1610	3846	3998
65	0	0	2068	1612	3844	3999
66	0	0	2044	1613	3845	3996
67	0	0	2031	1614	3844	3997
68	0	0	2037	1615	3845	3996
69	0	0	2046	1616	3844	3996
70	0	0	2058	1616	3847	3994
71	0	0	2087	1614	3846	3997
72	0	0	2111	1615	3846	3997
73	0	0	2141	1614	3845	3996
74	0	0	2161	1612	3845	3997
75	0	0	2155	1611	3843	3997
76	0	0	2152	1611	3846	3996
77	0	0	2179	1611	3845	3996
78	0	0	2204	1611	3845	3996
79	0	0	2231	1613	3846	3999
80	0	0	2238	1612	3846	3999
81	0	0	2208	1609	3846	4001
82	0	0	2154	1609	3845	4000
83	0	0	2108	1607	3845	3997
84	0	0	2098	1613	3844	3998
85	0	0	2101	1616	3845	3995
86	0	0	2098	1614	3846	4001
87	0	0	2078	1613	3846	3998
88	0	0	2050	1613	3844	3997
89	0	0	2046	1614	3845	3997
90	0	0	2079	1614	3845	3996
91	0	0	2119	1614	3846	3996
92	0	0	2154	1613	3845	3997
93	0	0	2179	1614	3846	3997
94	0	0	2206	1614	3846	3997
95	0	0	2226	1610	3844	3997
96	0	0	2247	1611	3846	3998
97	0	0	2271	1611	3846	3998
98	0	0	2285	1610	3845	4000
99	0	0	2293	1610	3845	4000
100	0	0	2281	1613	3846	3998
101	0	0	2261	1610	3845	3999
102	0	0	2214	1609	3848	3996
103	0	0	2160	1610	3846	4001
104	0	0	2125	1610	3846	3999
105	0	0	2092	1610	3844	3999
106	0	0	2071	1614	3845	4000
107	0	0	2081	1614	3845	3998
108	0	0	2092	1614	3845	3997
109	0	0	2100	1614	3845	3998
110	0	0	2116	1613	3847	3996
111	0	0	2147	1615	3846	3999
112	0	0	2178	1614	3847	3999
113	0	0	2172	1614	3845	3998
114	0	0	2145	1611	3845	3997
115	0	0	2149	1612	3844	3997
116	0	0	2178	1611	3845	3996
117	0	0	2215	1610	3844	3998
118	0	0	2252	1611	3846	3999
119	0	0	2279	1610	3845	3997
120	0	0	2301	1611	3845	4000
121	0	0	2295	1611	3846	4001
122	0	0	2254	1608	3845	3998
123	0	0	2189	1608	3845	4000
124	0	0	2142	1610	3844	4000
125	0	0	2132	1612	3846	3996
126	0	0	2126	1614	3846	3998
127	0	0	2107	1612	3844	3999
0	0	0	2085	1612	3847	3998
1	0	0	2064	1614	3846	3998
2	0	0	2056	1612	3847	3996
3	0	0	2059	1613	3846	3999
4	0	0	2075	1614	3846	4000
5	0	0	2104	1614	3844	3998
6	0	0	2139	1612	3846	3999
7	0	0	2169	1612	3845	3999
8	0	0	2193	1608	3845	3999
9	0	0	2211	1611	3846	4003
10	0	0	2223	1610	3845	4000
11	0	0	2226	1610	3845	4001
12	0	0	2206	1609	3846	3999
13	0	0	2164	1608	3846	3998
14	0	0	2133	1609	3845	3999
15	0	0	2123	1613	3847	3999
16	0	0	2109	1611	3845	4002
17	0	0	2079	1608	3847	4000
18	0	0	2042	1611	3846	4001
19	0	0	2014	1612	3846	4000
20	0	0	1993	1613	3845	3999
21	0	0	1986	1614	3846	3999
22	0	0	2001	1614	3846	4000
23	0	0	2017	1612	3845	3999
24	0	0	2045	1613	3845	3999
25	0	0	2062	1613	3845	3999
26	0	0	2050	1610	3844	3998
27	0	0	2049	1612	3845	3997
28	0	0	2085	1610	3846	3998
29	0	0	2117	1610	3845	3999
30	0	0	2132	1609	3845	3999
31	0	0	2132	1610	3845	3999
32	0	0	2128	1609	3847	3996
33	0	0	2111	1609	3847	4000
34	0	0	2084	1608	3846	4002
35	0	0	2062	1610	3847	4003
36	0	0	2036	1607	3847	4001
37	0	0	1999	1607	3845	3999
38	0	0	1957	1611	3845	3999
39	0	0	1926	1611	3845	3999
40	0	0	1911	1613	3844	3999
41	0	0	1923	1614	3845	3999
42	0	0	1937	1615	3846	4000
43	0	0	1948	1612	3847	4000
44	0	0	1957	1613	3846	4000
45	0	0	1979	1612	3845	3999
46	0	0	2004	1611	3844	3999
47	0	0	2018	1611	3846	4000
48	0	0	2037	1611	3846	3997
49	0	0	2073	1610	3845	4002
50	0	0	2093	1610	3847	4000
51	0	0	2098	1610	3844	3998
52	0	0	2088	1611	3846	3999
53	0	0	2064	1610	3846	4004
54	0	0	2044	1610	3847	3999
55	0	0	2024	1609	3846	4003
56	0	0	1998	1610	3844	4001
57	0	0	1961	1611	3844	4000
58	0	0	1925	1609	3845	4000
59	0	0	1899	1612	3844	3999
60	0	0	1889	1611	3845	3999
61	0	0	1886	1611	3844	3999
62	0	0	1897	1614	3846	3999
63	0	0	1914	1613	3846	4000
64	0	0	1947	1612	3846	4000
65	0	0	1995	1612	3846	4000
66	0	0	2051	1610	3845	3999
67	0	0	2091	1611	3846	4000
68	0	0	2120	1611	3847	4000
69	0	0	2139	1609	3845	3999
70	0	0	2146	1612	3847	4003
71	0	0	2145	1607	3843	4002
72	0	0	2116	1607	3845	4002
73	0	0	2061	1606	3846	4003
74	0	0	2000	1608	3844	3996
75	0	0	1960	1608	3844	3999
76	0	0	1929	1608	3844	3999
77	0	0	1902	1610	3845	4003
78	0	0	1873	1610	3846	4001
79	0	0	1851	1612	3844	3999
80	0	0	1840	1611	3844	3999
81	0	0	1837	1611	3845	3999
82	0	0	1853	1613	3845	4000
83	0	0	1894	1611	3847	4000
84	0	0	1944	1612	3845	4000
85	0	0	1982	1612	3845	4000
86	0	0	2011	1608	3844	3999
87	0	0	2035	1610	3845	4000
88	0	0	2073	1610	3845	4000
89	0	0	2106	1609	3843	4001
90	0	0	2121	1609	3845	4001
91	0	0	2135	1607	3845	3999
92	0	0	2116	1607	3845	4000
93	0	0	2093	1609	3847	3998
94	0	0	2063	1608	3845	4000
95	0	0	2030	1608	3847	4000
96	0	0	1997	1607	3845	4002
97	0	0	1963	1609	3845	4002
98	0	0	1930	1610	3846	4000
99	0	0	1911	1611	3845	4000
100	0	0	1911	1613	3847	4000
101	0	0	1924	1611	3843	4001
102	0	0	1951	1612	3846	4000
103	0	0	1983	1612	3846	4000
104	0	0	2010	1611	3845	4000
105	0	0	2026	1614	3846	4000
106	0	0	2045	1612	3846	4001
107	0	0	2074	1610	3844	4000
108	0	0	2100	1610	3846	4000
109	0	0	2123	1610	3846	4000
110	0	0	2135	1610	3845	3999
111	0	0	2135	1610	3845	4001
112	0	0	2128	1609	3845	4003
113	0	0	2092	1608	3846	4003
114	0	0	2044	1608	3846	4003
115	0	0	2011	1609	3846	4001
116	0	0	1987	1610	3847	4000
117	0	0	1964	1609	3845	3999
118	0	0	1940	1610	3846	4003
119	0	0	1917	1610	3845	4000
120	0	0	1917	1614	3847	4001
121	0	0	1928	1612	3844	4000
122	0	0	1944	1612	3845	4000
123	0	0	1976	1612	3846	4001
124	0	0	2009	1612	3845	4000
125	0	0	2040	1612	3844	3999
126	0	0	2070	1611	3845	3999
127	0	0	2108	1610	3845	4000
0	0	0	2151	1610	3846	4000
1	0	0	2167	1610	3846	4003
2	0	0	2148	1608	3845	4002
3	0	0	2133	1610	3846	4002
4	0	0	2118	1609	3846	4000
5	0	0	2081	1608	3847	4001
6	0	0	2039	1607	3846	4000
7	0	0	1997	1609	3847	4004
8	0	0	1957	1608	3844	4003
9	0	0	1927	1609	3845	4004
10	0	0	1907	1611	3846	4003
11	0	0	1896	1612	3844	4000
12	0	0	1895	1612	3844	3999
13	0	0	1912	1613	3844	3999
14	0	0	1950	1610	3845	4000
15	0	0	1987	1611	3845	4001
16	0	0	2023	1614	3846	4001
17	0	0	2041	1612	3845	4000
18	0	0	2064	1610	3845	4000
19	0	0	2090	1610	3845	4000
20	0	0	2128	1610	3846	4001
21	0	0	2139	1610	3846	4002
22	0	0	2157	1611	3847	4001
23	0	0	2174	1609	3844	4000
24	0	0	2146	1607	3844	4004
25	0	0	2101	1607	3846	4003
26	0	0	2055	1607	3844	4004
27	0	0	2015	1607	3845	4002
28	0	0	1977	1608	3846	3999
29	0	0	1942	1608	3845	4002
30	0	0	1910	1611	3843	4003
31	0	0	1905	1611	3843	4008
32	0	0	1928	1611	3844	4000
33	0	0	1980	1611	3845	4000
34	0	0	2022	1610	3845	3999
35	0	0	2044	1611	3846	4001
36	0	0	2061	1612	3847	4002
37	0	0	2064	1611	3845	4000
38	0	0	2071	1610	3847	4000
39	0	0	2096	1611	3846	4001
40	0	0	2128	1609	3846	4000
41	0	0	2143	1609	3845	4002
42	0	0	2136	1610	3845	4000
43	0	0	2122	1609	3845	4000
44	0	0	2097	1608	3843	4004
45	0	0	2082	1609	3846	4004
46	0	0	2075	1610	3845	4004
47	0	0	2053	1610	3846	4004
48	0	0	2018	1608	3846	3999
49	0	0	1968	1609	3844	4002
50	0	0	1914	1608	3845	4001
51	0	0	1880	1609	3845	4001
52	0	0	1866	1612	3847	4003
53	0	0	1884	1612	3845	3999
54	0	0	1926	1612	3845	3999
55	0	0	1972	1611	3846	4001
56	0	0	2015	1611	3845	3999
57	0	0	2056	1610	3845	4000
58	0	0	2093	1610	3846	4001
59	0	0	2125	1610	3846	4002
60	0	0	2167	1609	3845	4001
61	0	0	2203	1610	3844	4003
62	0	0	2228	1610	3845	4003
63	0	0	2229	1608	3845	4003
64	0	0	2185	1609	3844	4004
65	0	0	2156	1608	3846	4000
66	0	0	2132	1607	3845	4003
67	0	0	2069	1607	3845	4000
68	0	0	1990	1608	3846	4003
69	0	0	1944	1610	3845	4002
70	0	0	1917	1609	3845	4003
71	0	0	1910	1611	3845	4004
72	0	0	1927	1612	3847	4001
73	0	0	1935	1612	3848	4000
74	0	0	1946	1612	3845	4001
75	0	0	1987	1611	3846	4001
76	0	0	2036	1610	3845	4003
77	0	0	2076	1611	3845	4000
78	0	0	2098	1609	3846	4000
79	0	0	2128	1612	3844	3999
80	0	0	2175	1609	3845	4001
81	0	0	2205	1609	3845	4006
82	0	0	2207	1610	3845	4000
83	0	0	2195	1608	3845	4000
84	0	0	2160	1608	3845	3999
85	0	0	2112	1606	3846	4003
86	0	0	2070	1607	3845	4003
87	0	0	2029	1608	3846	4002
88	0	0	1992	1608	3846	4003
89	0	0	1956	1610	3845	3999
90	0	0	1916	1608	3846	4001
91	0	0	1895	1611	3846	4001
92	0	0	1904	1612	3846	4001
93	0	0	1944	1611	3845	4001
94	0	0	2013	1612	3843	4001
95	0	0	2070	1612	3846	4001
96	0	0	2098	1611	3845	4000
97	0	0	2124	1612	3846	4002
98	0	0	2146	1612	3845	4004
99	0	0	2174	1610	3844	3999
100	0	0	2229	1609	3845	4001
101	0	0	2265	1611	3846	4002
102	0	0	2253	1609	3845	4003
103	0	0	2222	1606	3846	4003
104	0	0	2173	1607	3845	4003
105	0	0	2115	1606	3847	4003
106	0	0	2065	1607	3846	4000
107	0	0	2013	1606	3844	4000
108	0	0	1971	1608	3845	4000
109	0	0	1937	1608	3846	4001
110	0	0	1899	1610	3845	4003
111	0	0	1889	1611	3844	4003
112	0	0	1898	1611	3845	4000
113	0	0	1916	1612	3845	4000
114	0	0	1941	1612	3844	4001
115	0	0	1976	1612	3846	4003
116	0	0	2027	1611	3845	4001
117	0	0	2077	1611	3847	4002
118	0	0	2104	1611	3846	4001
119	0	0	2135	1610	3845	4000
120	0	0	2182	1611	3845	4001
121	0	0	2207	1609	3845	4003
122	0	0	2196	1609	3846	4006
123	0	0	2187	1610	3845	4001
124	0	0	2157	1607	3845	4001
125	0	0	2103	1606	3846	4001
126	0	0	2050	1607	3845	4003
127	0	0	2009	1608	3845	4003
0	0	0	1987	1610	3845	4004
1	0	0	1969	1609	3846	4004
2	0	0	1927	1610	3846	4001
3	0	0	1905	1610	3844	4001
4	0	0	1901	1612	3844	4000
5	0	0	1908	1612	3846	3999
6	0	0	1935	1612	3846	4000
7	0	0	1996	1612	3846	4002
8	0	0	2039	1611	3845	4000
9	0	0	2060	1611	3847	4002
10	0	0	2086	1611	3847	3999
11	0	0	2113	1610	3844	3999
12	0	0	2142	1612	3846	4001
13	0	0	2166	1609	3845	4001
14	0	0	2173	1608	3846	3999
15	0	0	2165	1610	3845	4002
16	0	0	2142	1608	3846	4002
17	0	0	2117	1609	3845	4001
18	0	0	2097	1608	3845	4003
19	0	0	2061	1606	3847	4002
20	0	0	2018	1608	3844	4002
21	0	0	1966	1609	3845	4004
22	0	0	1897	1611	3844	4001
23	0	0	1855	1609	3845	4000
24	0	0	1864	1611	3846	3999
25	0	0	1893	1613	3846	3999
26	0	0	1924	1613	3847	4001
27	0	0	1952	1613	3846	4002
28	0	0	1995	1611	3846	4000
29	0	0	2036	1609	3847	3999
30	0	0	2068	1611	3846	3998
31	0	0	2093	1611	3846	4001
32	0	0	2138	1611	3845	4001
33	0	0	2177	1609	3844	4000
34	0	0	2194	1609	3847	3999
35	0	0	2193	1610	3845	3999
36	0	0	2158	1607	3847	4003
37	0	0	2116	1608	3846	4003
38	0	0	2089	1608	3845	4003
39	0	0	2071	1608	3847	3999
40	0	0	2051	1609	3846	4002
41	0	0	2015	1609	3846	4002
42	0	0	1953	1609	3846	4004
43	0	0	1912	1610	3847	4002
44	0	0	1912	1612	3845	4001
45	0	0	1920	1612	3845	4000
46	0	0	1927	1611	3846	4002
47	0	0	1933	1615	3847	4001
48	0	0	1976	1611	3846	4002
49	0	0	2025	1611	3845	4001
50	0	0	2054	1611	3845	4001
51	0	0	2073	1610	3846	4002
52	0	0	2123	1609	3845	4001
53	0	0	2175	1608	3844	4003
54	0	0	2211	1609	3846	4004
55	0	0	2224	1610	3847	4001
56	0	0	2204	1606	3848	4000
57	0	0	2166	1608	3846	4001
58	0	0	2120	1607	3845	4001
59	0	0	2091	1608	3846	4001
60	0	0	2073	1610	3846	4004
61	0	0	2044	1609	3847	4003
62	0	0	2006	1611	3846	4004
63	0	0	1966	1610	3845	4001
64	0	0	1938	1609	3845	4000
65	0	0	1928	1612	3845	4001
66	0	0	1928	1613	3846	4002
67	0	0	1927	1614	3846	4002
68	0	0	1937	1611	3845	4001
69	0	0	1962	1611	3845	4001
70	0	0	1999	1611	3845	3999
71	0	0	2035	1610	3847	4000
72	0	0	2064	1612	3846	4002
73	0	0	2091	1609	3845	4001
74	0	0	2116	1608	3846	4003
75	0	0	2138	1608	3847	4000
76	0	0	2148	1609	3847	4004
77	0	0	2143	1609	3847	4005
78	0	0	2120	1607	3843	4004
79	0	0	2090	1607	3846	4003
80	0	0	2054	1608	3845	4001
81	0	0	2013	1609	3845	4002
82	0	0	1985	1611	3845	4002
83	0	0	1963	1610	3844	4000
84	0	0	1951	1612	3844	4001
85	0	0	1954	1613	3844	4002
86	0	0	1972	1613	3844	4002
87	0	0	1994	1614	3845	4002
88	0	0	2030	1607	3845	4001
89	0	0	2070	1611	3845	4000
90	0	0	2104	1610	3845	4001
91	0	0	2107	1610	3847	4002
92	0	0	2102	1608	3845	4002
93	0	0	2118	1610	3846	4004
94	0	0	2139	1609	3845	4003
95	0	0	2131	1608	3845	4003
96	0	0	2091	1605	3846	4004
97	0	0	2046	1606	3845	4002
98	0	0	2029	1609	3845	4001
99	0	0	2019	1610	3845	4001
100	0	0	1999	1608	3844	4003
101	0	0	1992	1611	3845	4004
102	0	0	1968	1608	3845	4003
103	0	0	1940	1609	3845	4001
104	0	0	1930	1612	3845	4001
105	0	0	1936	1612	3845	4000
106	0	0	1952	1612	3846	4003
107	0	0	1965	1612	3845	4002
108	0	0	1976	1612	3847	4003
109	0	0	1994	1611	3845	4001
110	0	0	2041	1608	3845	4000
111	0	0	2083	1609	3846	4000
112	0	0	2107	1608	3846	4001
113	0	0	2122	1609	3845	4003
114	0	0	2129	1608	3845	4001
115	0	0	2132	1608	3845	4001
116	0	0	2128	1608	3847	4000
117	0	0	2100	1606	3845	4001
118	0	0	2071	1608	3844	4003
119	0	0	2042	1606	3845	4003
120	0	0	2009	1608	3844	4004
121	0	0	1970	1607	3845	4002
122	0	0	1916	1608	3845	4003
123	0	0	1876	1609	3844	4001
124	0	0	1875	1611	3847	4003
125	0	0	1889	1612	3846	4000
126	0	0	1909	1611	3846	4002
127	0	0	1936	1610	3846	4002
0	0	0	1975	1611	3848	4000
1	0	0	2015	1610	3846	4001
2	0	0	2041	1610	3846	4000
3	0	0	2068	1609	3846	4001
4	0	0	2120	1608	3844	4001
5	0	0	2165	1606	3843	4003
6	0	0	2193	1608	3844	4001
7	0	0	2196	1607	3845	4001
8	0	0	2173	1607	3846	4001
9	0	0	2129	1606	3846	4005
10	0	0	2082	1606	3845	4003
11	0	0	2040	1608	3844	4003
12	0	0	2006	1608	3845	4003
13	0	0	1982	1609	3844	4003
14	0	0	1962	1611	3846	4001
15	0	0	1962	1612	3847	4002
16	0	0	1972	1609	3845	4001
17	0	0	1978	1609	3845	4001
18	0	0	1985	1610	3846	4002
19	0	0	1992	1610	3845	4002
20	0	0	2019	1612	3846	4001
21	0	0	2053	1609	3845	4001
22	0	0	2086	1608	3845	4001
23	0	0	2111	1609	3846	4002
24	0	0	2145	1608	3846	4002
25	0	0	2177	1608	3844	4001
26	0	0	2205	1608	3845	4004
27	0	0	2220	1606	3845	4003
28	0	0	2194	1606	3844	4005
29	0	0	2153	1606	3845	4001
30	0	0	2110	1606	3847	4002
31	0	0	2063	1606	3845	4001
32	0	0	2017	1605	3845	4001
33	0	0	1988	1608	3847	4004
34	0	0	1964	1608	3846	4004
35	0	0	1944	1608	3845	4001
36	0	0	1940	1610	3845	4001
37	0	0	1973	1611	3844	4001
38	0	0	2033	1611	3846	4002
39	0	0	2089	1608	3844	4001
40	0	0	2118	1610	3844	4001
41	0	0	2135	1609	3845	4001
42	0	0	2151	1609	3846	4001
43	0	0	2172	1609	3847	4002
44	0	0	2191	1608	3846	4005
45	0	0	2206	1607	3845	4004
46	0	0	2221	1608	3847	4005
47	0	0	2228	1608	3844	3999
48	0	0	2215	1606	3847	4002
49	0	0	2166	1605	3846	4002
50	0	0	2127	1606	3846	4003
51	0	0	2095	1607	3845	4003
52	0	0	2059	1605	3845	4003
53	0	0	2032	1608	3844	4005
54	0	0	1999	1607	3845	3999
55	0	0	1961	1608	3844	3999
56	0	0	1945	1610	3844	4001
57	0	0	1945	1612	3844	4000
58	0	0	1955	1612	3843	4003
59	0	0	1963	1611	3845	4002
60	0	0	1973	1611	3845	4002
61	0	0	2007	1612	3844	4001
62	0	0	2064	1610	3845	4001
63	0	0	2112	1608	3846	4002
64	0	0	2141	1609	3846	4002
65	0	0	2175	1605	3847	4001
66	0	0	2180	1608	3846	4001
67	0	0	2170	1608	3844	4003
68	0	0	2156	1608	3847	4004
69	0	0	2142	1606	3847	4004
70	0	0	2112	1605	3845	4002
71	0	0	2075	1607	3844	4001
72	0	0	2060	1609	3844	4000
73	0	0	2058	1610	3843	4003
74	0	0	2031	1607	3845	4005
75	0	0	2003	1610	3844	4001
76	0	0	1989	1610	3846	4003
77	0	0	1987	1612	3844	4000
78	0	0	1989	1611	3845	4001
79	0	0	1984	1611	3847	4002
80	0	0	1982	1611	3845	4001
81	0	0	1984	1610	3846	4002
82	0	0	1976	1607	3846	4001
83	0	0	1963	1609	3844	4002
84	0	0	1988	1606	3846	4001
85	0	0	2037	1608	3845	4003
86	0	0	2088	1607	3844	4004
87	0	0	2116	1608	3845	4003
88	0	0	2110	1607	3846	4002
89	0	0	2080	1603	3846	4001
90	0	0	2043	1605	3845	4000
91	0	0	2013	1607	3844	4004
92	0	0	2004	1611	3843	4003
93	0	0	2000	1610	3843	4003
94	0	0	1963	1607	3846	4004
95	0	0	1928	1607	3844	4001
96	0	0	1933	1611	3844	4001
97	0	0	1947	1612	3844	4000
98	0	0	1954	1612	3845	4001
99	0	0	1965	1609	3846	4002
100	0	0	1964	1610	3846	4001
101	0	0	1976	1610	3845	4004
102	0	0	2015	1612	3844	4001
103	0	0	2053	1609	3843	4001
104	0	0	2081	1607	3845	4002
105	0	0	2105	1608	3844	4001
106	0	0	2121	1607	3844	4001
107	0	0	2135	1609	3844	4000
108	0	0	2133	1608	3845	4004
109	0	0	2101	1603	3845	4005
110	0	0	2075	1608	3844	4003
111	0	0	2063	1608	3845	4004
112	0	0	2045	1608	3845	4002
113	0	0	2022	1608	3846	4002
114	0	0	1979	1607	3845	4003
115	0	0	1941	1610	3846	4003
116	0	0	1943	1610	3845	4001
117	0	0	1956	1613	3846	4001
118	0	0	1951	1612	3846	4003
119	0	0	1950	1610	3846	4001
120	0	0	1969	1612	3847	4003
121	0	0	1988	1610	3844	4001
122	0	0	2001	1610	3845	4004
123	0	0	2017	1609	3846	4003
124	0	0	2045	1608	3845	4001
125	0	0	2089	1608	3846	4003
126	0	0	2108	1606	3845	4001
127	0	0	2111	1607	3845	4001
0	0	0	2110	1608	3846	4002
1	0	0	2101	1606	3846	4003
2	0	0	2069	1605	3845	4002
3	0	0	2024	1605	3846	4002
4	0	0	1974	1606	3845	4002
5	0	0	1944	1609	3847	4002
6	0	0	1940	1609	3847	4003
7	0	0	1948	1610	3845	4001
8	0	0	1950	1611	3845	4001
9	0	0	1932	1609	3845	4002
10	0	0	1911	1611	3846	4003
11	0	0	1914	1611	3846	4002
12	0	0	1914	1611	3847	4003
13	0	0	1918	1610	3845	4002
14	0	0	1943	1609	3845	4002
15	0	0	1992	1609	3842	4002
16	0	0	2046	1608	3846	4003
17	0	0	2089	1607	3845	4001
18	0	0	2112	1607	3845	4003
19	0	0	2127	1609	3845	4002
20	0	0	2122	1609	3844	4003
21	0	0	2096	1605	3847	4002
22	0	0	2057	1602	3846	4001
23	0	0	2019	1607	3846	4001
24	0	0	1987	1609	3844	4001
25	0	0	1985	1611	3844	4002
26	0	0	1984	1611	3846	4004
27	0	0	1954	1609	3844	4001
28	0	0	1937	1610	3847	4002
29	0	0	1945	1612	3846	4003
30	0	0	1974	1612	3843	4001
31	0	0	1985	1610	3846	4002
32	0	0	1976	1609	3842	4002
33	0	0	1968	1611	3845	4002
34	0	0	1982	1611	3845	4001
35	0	0	2014	1609	3844	4001
36	0	0	2045	1608	3846	4002
37	0	0	2065	1606	3845	4003
38	0	0	2082	1607	3845	4001
39	0	0	2090	1608	3846	4001
40	0	0	2077	1608	3844	4001
41	0	0	2056	1607	3847	4003
42	0	0	2029	1606	3845	4002
43	0	0	2017	1608	3846	4001
44	0	0	2019	1609	3845	4002
45	0	0	2021	1612	3844	4001
46	0	0	1993	1608	3847	4002
47	0	0	1957	1609	3844	4001
48	0	0	1926	1608	3845	4001
49	0	0	1900	1608	3845	4003
50	0	0	1879	1611	3847	4002
51	0	0	1877	1611	3847	4003
52	0	0	1906	1611	3847	4004
53	0	0	1966	1611	3846	4001
54	0	0	2021	1610	3845	4002
55	0	0	2053	1609	3844	4002
56	0	0	2087	1610	3846	4003
57	0	0	2100	1606	3842	4003
58	0	0	2086	1608	3845	4002
59	0	0	2061	1604	3846	4003
60	0	0	2035	1607	3845	4002
61	0	0	2032	1607	3847	4004
62	0	0	2040	1609	3845	4001
63	0	0	2045	1608	3845	4001
64	0	0	2020	1606	3845	4001
65	0	0	1982	1608	3846	4002
66	0	0	1944	1608	3846	4003
67	0	0	1912	1609	3846	4001
68	0	0	1904	1611	3847	4003
69	0	0	1930	1612	3847	4003
70	0	0	1974	1612	3846	4001
71	0	0	2019	1611	3847	4003
72	0	0	2060	1610	3846	4001
73	0	0	2117	1609	3847	4001
74	0	0	2177	1610	3845	4002
75	0	0	2233	1609	3845	4002
76	0	0	2295	1608	3844	4003
77	0	0	2358	1607	3844	4002
78	0	0	2425	1607	3845	4002
79	0	0	2479	1608	3845	4002
80	0	0	2514	1608	3846	4003
81	0	0	2528	1607	3847	4001
82	0	0	2539	1609	3847	4003
83	0	0	2545	1609	3845	4003
84	0	0	2537	1610	3846	4003
85	0	0	2518	1610	3844	4003
86	0	0	2486	1607	3847	4001
87	0	0	2451	1608	3845	4001
88	0	0	2409	1608	3846	4002
89	0	0	2354	1608	3846	4003
90	0	0	2304	1608	3845	4000
91	0	0	2268	1608	3846	4002
92	0	0	2236	1607	3845	4002
93	0	0	2194	1607	3845	4001
94	0	0	2146	1606	3846	4001
95	0	0	2090	1605	3845	4000
96	0	0	2036	1604	3845	4002
97	0	0	1999	1605	3844	4002
98	0	0	1976	1605	3845	4002
99	0	0	1955	1604	3846	4002
100	0	0	1923	1605	3845	4001
101	0	0	1883	1605	3846	4004
102	0	0	1850	1604	3845	4002
103	0	0	1821	1605	3843	4002
104	0	0	1804	1608	3846	4002
105	0	0	1799	1609	3846	4003
106	0	0	1776	1607	3845	4001
107	0	0	1746	1607	3845	4001
108	0	0	1722	1608	3846	4001
109	0	0	1718	1611	3846	4002
110	0	0	1733	1611	3845	4000
111	0	0	1765	1611	3846	4003
112	0	0	1808	1610	3845	4001
113	0	0	1846	1609	3847	4000
114	0	0	1895	1611	3844	4003
115	0	0	1940	1608	3846	4001
116	0	0	1981	1608	3845	4003
117	0	0	2015	1607	3845	4002
118	0	0	2046	1607	3845	4002
119	0	0	2055	1608	3845	4003
120	0	0	2052	1608	3847	4002
121	0	0	2042	1607	3846	4001
122	0	0	2040	1609	3846	4001
123	0	0	2031	1607	3846	4001
124	0	0	2017	1610	3844	4003
125	0	0	2013	1611	3845	4001
126	0	0	1988	1607	3844	4002
127	0	0	1945	1607	3845	4001
0	0	0	1899	1607	3844	4001
1	0	0	1871	1610	3844	4002
2	0	0	1895	1611	3845	4000
3	0	0	1927	1611	3846	4003
4	0	0	1958	1610	3845	4001
5	0	0	1992	1611	3844	4003
6	0	0	2013	1610	3846	4002
7	0	0	2012	1608	3845	4001
8	0	0	2014	1607	3845	4002
9	0	0	2036	1607	3845	4002
10	0	0	2064	1606	3845	4001
11	0	0	2078	1607	3845	4003
12	0	0	2093	1608	3847	4001
13	0	0	2092	1607	3846	4004
14	0	0	2089	1608	3845	4004
15	0	0	2082	1607	3845	4002
16	0	0	2046	1605	3846	4001
17	0	0	2023	1608	3847	4001
18	0	0	1991	1607	3845	4003
19	0	0	1952	1608	3845	4003
20	0	0	1916	1609	3845	4001
21	0	0	1909	1611	3845	4002
22	0	0	1931	1611	3845	4003
23	0	0	1950	1611	3843	4003
24	0	0	1971	1610	3845	4001
25	0	0	2009	1610	3845	4001
26	0	0	2060	1609	3846	4002
27	0	0	2084	1609	3847	4002
28	0	0	2107	1607	3846	4002
29	0	0	2140	1607	3845	4002
30	0	0	2152	1606	3845	4002
31	0	0	2158	1606	3846	4002
32	0	0	2152	1607	3847	4002
33	0	0	2136	1607	3846	4002
34	0	0	2119	1608	3844	4001
35	0	0	2106	1607	3845	4001
36	0	0	2078	1606	3844	4002
37	0	0	2059	1608	3845	4003
38	0	0	2031	1607	3843	4003
39	0	0	2002	1610	3844	4001
40	0	0	1974	1608	3845	4001
41	0	0	1959	1611	3846	4001
42	0	0	1968	1611	3847	4001
43	0	0	1979	1610	3846	4002
44	0	0	1985	1610	3846	4001
45	0	0	2004	1610	3845	4001
46	0	0	2032	1609	3846	3999
47	0	0	2066	1609	3843	4002
48	0	0	2108	1607	3845	4003
49	0	0	2169	1606	3844	4002
50	0	0	2214	1607	3844	4001
51	0	0	2226	1607	3847	4001
52	0	0	2208	1607	3846	4001
53	0	0	2174	1605	3844	4003
54	0	0	2146	1606	3848	4004
55	0	0	2113	1606	3846	4003
56	0	0	2075	1606	3846	4003
57	0	0	2043	1607	3846	4003
58	0	0	2011	1608	3846	4002
59	0	0	1993	1610	3846	4002
60	0	0	1988	1607	3847	4001
61	0	0	1990	1611	3846	4002
62	0	0	1997	1612	3844	4003
63	0	0	2011	1612	3843	4003
64	0	0	2044	1611	3846	4003
65	0	0	2081	1611	3845	4003
66	0	0	2116	1609	3843	4002
67	0	0	2154	1609	3844	4003
68	0	0	2185	1607	3845	4003
69	0	0	2202	1607	3844	4001
70	0	0	2200	1608	3843	4001
71	0	0	2178	1604	3847	4002
72	0	0	2160	1607	3846	4005
73	0	0	2137	1606	3846	4004
74	0	0	2106	1606	3845	4001
75	0	0	2096	1608	3846	4001
76	0	0	2093	1609	3846	4001
77	0	0	2087	1610	3845	4002
78	0	0	2078	1610	3846	4003
79	0	0	2048	1608	3845	4001
80	0	0	2021	1609	3845	4001
81	0	0	2014	1610	3845	4001
82	0	0	2001	1610	3843	4002
83	0	0	1995	1610	3846	4002
84	0	0	2011	1610	3845	4001
85	0	0	2023	1610	3845	4001
86	0	0	2062	1609	3845	4002
87	0	0	2119	1610	3846	4003
88	0	0	2172	1607	3846	4003
89	0	0	2204	1607	3845	4001
90	0	0	2202	1608	3845	4001
91	0	0	2198	1606	3845	4003
92	0	0	2193	1608	3846	4005
93	0	0	2172	1606	3847	4003
94	0	0	2140	1605	3846	4002
95	0	0	2099	1606	3845	4001
96	0	0	2057	1606	3847	4001
97	0	0	2031	1609	3843	4002
98	0	0	2023	1610	3845	4003
99	0	0	2011	1611	3844	4001
100	0	0	2006	1613	3843	4002
101	0	0	2011	1610	3843	4001
102	0	0	2027	1611	3843	4002
103	0	0	2062	1610	3845	4002
104	0	0	2109	1611	3845	4001
105	0	0	2153	1610	3845	4003
106	0	0	2167	1610	3846	4003
107	0	0	2162	1606	3847	4001
108	0	0	2165	1608	3845	4002
109	0	0	2188	1608	3846	4004
110	0	0	2202	1607	3846	4003
111	0	0	2203	1607	3848	4002
112	0	0	2209	1608	3847	4003
113	0	0	2205	1607	3846	4002
114	0	0	2175	1605	3845	4001
115	0	0	2133	1606	3845	4003
116	0	0	2090	1606	3843	4003
117	0	0	2062	1608	3845	4005
118	0	0	2054	1610	3843	4002
119	0	0	2048	1611	3845	4002
120	0	0	2052	1611	3845	4003
121	0	0	2051	1612	3846	4001
122	0	0	2053	1611	3844	4003
123	0	0	2058	1610	3846	4002
124	0	0	2068	1610	3845	4002
125	0	0	2102	1611	3846	4002
126	0	0	2125	1611	3846	4002
127	0	0	2142	1609	3846	4003
0	0	0	2167	1608	3846	4002
1	0	0	2189	1607	3845	4002
2	0	0	2226	1608	3845	4002
3	0	0	2254	1608	3845	4001
4	0	0	2249	1607	3846	4003
5	0	0	2222	1606	3844	4003
6	0	0	2192	1606	3845	4002
7	0	0	2167	1607	3845	4002
8	0	0	2149	1609	3843	4002
9	0	0	2141	1610	3844	4002
10	0	0	2126	1610	3845	4002
11	0	0	2115	1612	3846	4002
12	0	0	2107	1613	3845	4002
13	0	0	2128	1612	3846	4003
14	0	0	2152	1612	3846	4003
15	0	0	2153	1611	3843	4000
16	0	0	2140	1609	3846	4002
17	0	0	2146	1611	3846	4002
18	0	0	2154	1610	3843	4003
19	0	0	2166	1609	3845	4002
20	0	0	2179	1609	3844	4001
21	0	0	2195	1607	3844	4003
22	0	0	2223	1607	3845	4003
23	0	0	2242	1608	3843	4003
24	0	0	2247	1608	3845	4001
25	0	0	2258	1608	3844	4002
26	0	0	2249	1608	3845	4002
27	0	0	2236	1609	3845	4003
28	0	0	2214	1607	3846	4003
29	0	0	2167	1607	3846	4004
30	0	0	2131	1609	3846	4004
31	0	0	2093	1608	3845	4001
32	0	0	2062	1609	3846	4002
33	0	0	2056	1612	3845	4001
34	0	0	2077	1612	3844	4002
35	0	0	2105	1611	3844	4002
36	0	0	2127	1611	3845	4002
37	0	0	2137	1610	3846	4002
38	0	0	2160	1609	3844	4002
39	0	0	2196	1609	3845	4001
40	0	0	2224	1608	3842	4002
41	0	0	2265	1608	3844	4003
42	0	0	2301	1607	3846	4003
43	0	0	2313	1608	3846	4004
44	0	0	2307	1609	3846	4002
45	0	0	2303	1609	3846	4004
46	0	0	2291	1607	3845	4001
47	0	0	2254	1606	3846	4003
48	0	0	2211	1607	3844	4002
49	0	0	2189	1609	3845	4001
50	0	0	2165	1609	3844	4002
51	0	0	2138	1608	3845	4001
52	0	0	2127	1611	3844	4002
53	0	0	2131	1612	3843	4002
54	0	0	2154	1612	3846	4002
55	0	0	2170	1611	3843	4003
56	0	0	2166	1611	3845	4001
57	0	0	2147	1609	3845	4001
58	0	0	2134	1610	3845	4002
59	0	0	2140	1610	3846	4002
60	0	0	2169	1608	3845	4001
61	0	0	2215	1607	3846	4003
62	0	0	2242	1609	3844	4002
63	0	0	2262	1608	3844	4002
64	0	0	2260	1608	3846	4004
65	0	0	2243	1607	3847	4003
66	0	0	2223	1608	3844	4004
67	0	0	2201	1607	3846	4002
68	0	0	2176	1606	3842	4003
69	0	0	2154	1609	3845	4002
70	0	0	2139	1610	3846	4003
71	0	0	2109	1608	3845	4001
72	0	0	2072	1608	3847	4003
73	0	0	2052	1612	3846	4000
74	0	0	2056	1611	3846	4003
75	0	0	2046	1609	3843	4002
76	0	0	2031	1610	3845	4001
77	0	0	2023	1610	3845	4001
78	0	0	2014	1609	3845	4002
79	0	0	2049	1609	3846	4003
80	0	0	2116	1608	3845	4002
81	0	0	2173	1608	3845	4001
82	0	0	2201	1607	3846	4002
83	0	0	2197	1607	3843	4002
84	0	0	2181	1608	3846	4003
85	0	0	2167	1608	3846	4003
86	0	0	2142	1606	3845	3999
87	0	0	2107	1605	3846	4002
88	0	0	2071	1606	3846	4003
89	0	0	2041	1608	3845	4003
90	0	0	2021	1608	3845	4002
91	0	0	2004	1610	3844	4001
92	0	0	1988	1609	3844	4002
93	0	0	1969	1610	3844	4002
94	0	0	1950	1610	3844	4001
95	0	0	1951	1610	3844	4003
96	0	0	1970	1612	3847	4003
97	0	0	1987	1611	3846	4002
98	0	0	1999	1611	3846	4002
99	0	0	2013	1609	3846	4003
100	0	0	2041	1608	3846	4003
101	0	0	2081	1607	3845	4002
102	0	0	2115	1606	3846	4003
103	0	0	2133	1608	3846	4003
104	0	0	2131	1607	3845	4001
105	0	0	2120	1607	3845	4002
106	0	0	2088	1605	3845	4001
107	0	0	2044	1605	3845	4001
108	0	0	2006	1606	3845	3999
109	0	0	1985	1608	3844	4002
110	0	0	1969	1609	3845	4003
111	0	0	1948	1609	3841	4002
112	0	0	1938	1610	3844	4001
113	0	0	1935	1610	3846	4000
114	0	0	1932	1611	3845	3999
115	0	0	1931	1611	3845	4003
116	0	0	1949	1610	3845	4002
117	0	0	1960	1609	3845	4001
118	0	0	1956	1610	3846	3999
119	0	0	1946	1609	3845	4001
120	0	0	1970	1608	3843	4002
121	0	0	2026	1607	3844	4003
122	0	0	2066	1607	3844	4002
123	0	0	2068	1607	3845	3999
124	0	0	2073	1608	3844	4001
125	0	0	2071	1605	3843	4004
126	0	0	2046	1606	3845	4002
127	0	0	2025	1606	3845	4002
0	0	0	2005	1607	3846	3999
1	0	0	1972	1606	3845	4002
2	0	0	1928	1607	3845	4002
3	0	0	1882	1608	3846	4004
4	0	0	1857	1608	3846	4001
5	0	0	1857	1611	3846	4002
6	0	0	1879	1612	3847	4002
7	0	0	1899	1610	3843	4002
8	0	0	1905	1611	3846	4003
9	0	0	1903	1609	3843	4001
10	0	0	1914	1610	3845	4002
11	0	0	1952	1608	3846	4003
12	0	0	2008	1607	3843	4001
13	0	0	2081	1607	3846	4003
14	0	0	2121	1608	3845	4002
15	0	0	2109	1607	3846	4002
16	0	0	2086	1605	3846	4001
17	0	0	2077	1607	3844	4003
18	0	0	2048	1604	3845	4002
19	0	0	2006	1604	3847	4001
20	0	0	1970	1605	3847	3999
21	0	0	1943	1607	3846	4000
22	0	0	1911	1605	3842	4004
23	0	0	1887	1608	3842	4002
24	0	0	1877	1610	3844	4002
25	0	0	1885	1611	3845	3999
26	0	0	1899	1611	3845	4000
27	0	0	1910	1611	3845	4003
28	0	0	1921	1610	3845	4002
29	0	0	1938	1610	3846	4004
30	0	0	1964	1610	3846	4003
31	0	0	1996	1609	3845	4000
32	0	0	2013	1607	3844	4003
33	0	0	2024	1606	3845	4002
34	0	0	2058	1607	3846	4005
35	0	0	2074	1607	3846	4002
36	0	0	2076	1607	3846	4003
37	0	0	2065	1607	3845	4002
38	0	0	2064	1608	3845	4003
39	0	0	2042	1605	3845	4002
40	0	0	2008	1607	3845	4003
41	0	0	1970	1607	3846	4003
42	0	0	1943	1607	3844	4002
43	0	0	1920	1608	3844	4001
44	0	0	1912	1610	3846	4001
45	0	0	1895	1608	3846	4000
46	0	0	1878	1610	3845	4000
47	0	0	1873	1611	3846	4003
48	0	0	1882	1609	3844	4002
49	0	0	1902	1609	3845	4004
50	0	0	1932	1610	3846	4001
51	0	0	1960	1608	3845	4003
52	0	0	1987	1605	3848	4004
53	0	0	2023	1606	3845	4001
54	0	0	2050	1606	3845	4002
55	0	0	2069	1607	3845	4003
56	0	0	2066	1606	3847	4004
57	0	0	2062	1607	3844	4002
58	0	0	2053	1605	3845	4003
59	0	0	2013	1604	3845	4003
60	0	0	1967	1605	3845	4002
61	0	0	1928	1606	3845	4000
62	0	0	1902	1606	3848	4002
63	0	0	1871	1607	3843	4001
64	0	0	1855	1611	3845	4004
65	0	0	1875	1611	3846	4004
66	0	0	1902	1611	3845	4000
67	0	0	1915	1610	3844	4003
68	0	0	1945	1609	3845	4002
69	0	0	1978	1609	3846	4004
70	0	0	1998	1609	3846	4002
71	0	0	2012	1609	3846	4003
72	0	0	2022	1607	3846	4003
73	0	0	2040	1606	3844	4002
74	0	0	2068	1606	3845	4001
75	0	0	2081	1606	3846	4003
76	0	0	2073	1606	3846	4002
77	0	0	2057	1607	3845	4004
78	0	0	2050	1606	3844	4002
79	0	0	2038	1607	3843	4002
80	0	0	2014	1605	3846	4002
81	0	0	1997	1608	3846	4004
82	0	0	1974	1606	3847	4003
83	0	0	1937	1606	3845	4002
84	0	0	1911	1608	3846	4005
85	0	0	1914	1611	3847	4000
86	0	0	1926	1611	3847	4002
87	0	0	1933	1610	3847	4002
88	0	0	1934	1609	3846	4001
89	0	0	1940	1608	3846	4003
90	0	0	1963	1608	3846	4001
91	0	0	1991	1607	3844	4006
92	0	0	2027	1606	3845	4002
93	0	0	2076	1607	3844	4003
94	0	0	2124	1606	3845	4002
95	0	0	2139	1603	3846	4001
96	0	0	2121	1604	3846	4003
97	0	0	2101	1606	3847	4002
98	0	0	2093	1606	3845	4001
99	0	0	2064	1604	3846	4003
100	0	0	2016	1603	3845	4003
101	0	0	1967	1606	3846	4004
102	0	0	1925	1605	3847	4002
103	0	0	1895	1608	3846	4003
104	0	0	1882	1609	3844	4002
105	0	0	1882	1610	3843	4002
106	0	0	1889	1610	3846	4002
107	0	0	1891	1609	3847	4003
108	0	0	1896	1608	3846	4002
109	0	0	1908	1608	3842	4002
110	0	0	1936	1607	3846	4003
111	0	0	1970	1607	3844	4002
112	0	0	1995	1606	3846	4003
113	0	0	2028	1606	3844	4002
114	0	0	2066	1606	3846	4001
115	0	0	2085	1605	3846	4003
116	0	0	2090	1606	3846	4003
117	0	0	2084	1607	3847	4004
118	0	0	2081	1606	3845	4002
119	0	0	2073	1606	3846	4001
120	0	0	2053	1603	3846	4002
121	0	0	2013	1606	3847	4003
122	0	0	1963	1605	3847	4002
123	0	0	1927	1606	3845	4002
124	0	0	1899	1607	3842	4003
125	0	0	1889	1608	3846	4003
126	0	0	1898	1610	3845	4001
127	0	0	1913	1609	3845	4003
0	0	0	1925	1607	3844	4001
1	0	0	1961	1608	3844	4003
2	0	0	2004	1605	3847	4001
3	0	0	2022	1607	3846	4004
4	0	0	2031	1606	3847	4003
5	0	0	2060	1607	3847	4003
6	0	0	2088	1605	3846	4001
7	0	0	2105	1604	3847	4003
8	0	0	2098	1605	3846	4003
9	0	0	2067	1603	3847	4002
10	0	0	2038	1604	3846	4002
11	0	0	2004	1604	3846	4001
12	0	0	1984	1607	3846	4004
13	0	0	1976	1609	3846	4003
14	0	0	1962	1608	3846	4004
15	0	0	1936	1606	3844	4001
16	0	0	1920	1608	3845	4000
17	0	0	1915	1607	3846	4001
18	0	0	1898	1607	3846	4003
19	0	0	1890	1609	3845	4003
20	0	0	1914	1607	3845	4002
21	0	0	1938	1608	3846	4001
22	0	0	1946	1605	3845	4001
23	0	0	1964	1607	3845	4004
24	0	0	2000	1605	3845	4002
25	0	0	2032	1606	3846	4003
26	0	0	2057	1605	3845	4001
27	0	0	2082	1602	3846	4002
28	0	0	2102	1606	3846	4003
29	0	0	2110	1606	3845	4003
30	0	0	2111	1607	3846	4004
31	0	0	2083	1601	3847	4002
32	0	0	2046	1603	3843	4002
33	0	0	2013	1606	3845	4002
34	0	0	1990	1605	3845	4002
35	0	0	1962	1607	3846	4002
36	0	0	1930	1607	3845	4001
37	0	0	1904	1607	3846	4003
38	0	0	1881	1608	3845	4004
39	0	0	1880	1608	3845	4003
40	0	0	1897	1608	3845	4001
41	0	0	1930	1607	3846	4001
42	0	0	1979	1606	3845	4002
43	0	0	2021	1607	3846	4003
44	0	0	2050	1604	3845	4002
45	0	0	2091	1605	3844	4002
46	0	0	2117	1605	3847	4003
47	0	0	2095	1603	3846	4003
48	0	0	2062	1603	3846	4001
49	0	0	2051	1606	3847	4004
50	0	0	2032	1604	3845	4003
51	0	0	2002	1603	3845	4003
52	0	0	1971	1604	3845	4003
53	0	0	1941	1606	3847	3999
54	0	0	1923	1607	3847	4000
55	0	0	1910	1606	3848	4001
56	0	0	1888	1605	3845	4002
57	0	0	1869	1606	3845	4004
58	0	0	1856	1608	3846	4005
59	0	0	1854	1609	3845	4003
60	0	0	1870	1608	3846	4002
61	0	0	1912	1607	3845	4001
62	0	0	1956	1607	3845	4002
63	0	0	1988	1608	3845	4001
64	0	0	2028	1606	3844	4003
65	0	0	2059	1605	3844	4002
66	0	0	2063	1604	3844	4003
67	0	0	2049	1604	3845	4005
68	0	0	2032	1605	3844	4005
69	0	0	2030	1604	3845	4004
70	0	0	2032	1606	3844	4003
71	0	0	2025	1606	3845	4002
72	0	0	2005	1603	3845	4002
73	0	0	1973	1605	3846	4002
74	0	0	1966	1609	3846	4003
75	0	0	1960	1607	3845	4002
76	0	0	1941	1607	3846	4003
77	0	0	1925	1608	3845	4003
78	0	0	1913	1611	3846	4002
79	0	0	1930	1609	3846	4004
80	0	0	1957	1608	3845	4002
81	0	0	1954	1608	3847	4003
82	0	0	1957	1608	3846	4003
83	0	0	1979	1607	3846	4002
84	0	0	1998	1605	3844	4004
85	0	0	2027	1604	3844	4002
86	0	0	2045	1603	3845	4001
87	0	0	2045	1605	3845	4002
88	0	0	2039	1605	3846	4003
89	0	0	2017	1603	3845	4003
90	0	0	2001	1604	3845	4002
91	0	0	1995	1606	3847	3999
92	0	0	1979	1605	3845	4005
93	0	0	1957	1605	3845	4003
94	0	0	1924	1606	3843	4004
95	0	0	1914	1608	3843	4002
96	0	0	1929	1609	3846	4003
97	0	0	1939	1610	3846	4002
98	0	0	1931	1609	3846	4003
99	0	0	1911	1607	3845	4003
100	0	0	1901	1608	3845	4002
101	0	0	1911	1607	3845	4003
102	0	0	1949	1607	3845	4002
103	0	0	1978	1607	3847	4003
104	0	0	1995	1605	3844	4003
105	0	0	2029	1605	3844	4002
106	0	0	2064	1605	3846	3999
107	0	0	2078	1605	3845	4003
108	0	0	2073	1605	3846	4003
109	0	0	2063	1604	3846	4003
110	0	0	2048	1603	3845	4001
111	0	0	2011	1603	3846	4003
112	0	0	1969	1603	3846	4002
113	0	0	1939	1605	3846	4002
114	0	0	1924	1606	3845	4002
115	0	0	1917	1607	3844	4002
116	0	0	1922	1607	3844	4002
117	0	0	1929	1608	3844	4002
118	0	0	1927	1608	3847	4000
119	0	0	1920	1607	3845	4004
120	0	0	1922	1608	3846	4003
121	0	0	1943	1608	3844	4002
122	0	0	1969	1605	3844	4002
123	0	0	1993	1605	3846	4002
124	0	0	2008	1605	3845	4001
125	0	0	2024	1604	3845	4002
126	0	0	2036	1604	3845	4003
127	0	0	2056	1605	3846	4003
0	0	0	2080	1602	3846	4002
1	0	0	2085	1604	3845	4002
2	0	0	2086	1604	3845	4002
3	0	0	2083	1606	3844	4004
4	0	0	2061	1602	3844	4003
5	0	0	2019	1603	3846	4000
6	0	0	1951	1604	3845	4001
7	0	0	1896	1605	3845	4001
8	0	0	1881	1607	3845	4002
9	0	0	1882	1607	3845	4002
10	0	0	1899	1609	3847	4004
11	0	0	1922	1607	3845	4002
12	0	0	1944	1608	3847	4003
13	0	0	1958	1607	3848	4002
14	0	0	1970	1606	3844	4001
15	0	0	1986	1607	3846	4002
16	0	0	2033	1604	3845	4003
17	0	0	2099	1604	3845	4001
18	0	0	2150	1603	3845	4001
19	0	0	2160	1605	3845	4003
20	0	0	2141	1602	3845	4003
21	0	0	2112	1601	3843	4003
22	0	0	2065	1601	3844	3999
23	0	0	2025	1603	3845	4001
24	0	0	1996	1604	3845	4003
25	0	0	1966	1604	3846	4003
26	0	0	1932	1605	3846	4003
27	0	0	1892	1605	3845	4002
28	0	0	1880	1607	3845	4003
29	0	0	1884	1607	3845	4002
30	0	0	1893	1608	3846	4003
31	0	0	1914	1607	3844	4001
32	0	0	1947	1605	3845	4002
33	0	0	1971	1606	3845	4003
34	0	0	1991	1606	3846	4000
35	0	0	2002	1607	3845	4002
36	0	0	2020	1604	3844	4002
37	0	0	2052	1605	3844	4002
38	0	0	2091	1605	3845	4002
39	0	0	2121	1605	3846	4001
40	0	0	2125	1604	3845	4003
41	0	0	2109	1601	3845	4000
42	0	0	2090	1606	3846	4004
43	0	0	2083	1607	3846	4003
44	0	0	2056	1604	3846	4002
45	0	0	1996	1604	3848	4004
46	0	0	1936	1603	3846	4003
47	0	0	1913	1605	3845	4002
48	0	0	1912	1607	3845	4003
49	0	0	1911	1608	3846	4000
50	0	0	1909	1607	3846	4002
51	0	0	1919	1607	3845	4000
52	0	0	1933	1608	3845	4001
53	0	0	1954	1606	3844	4003
54	0	0	1984	1605	3846	4000
55	0	0	2021	1604	3845	4002
56	0	0	2066	1605	3844	4000
57	0	0	2106	1604	3845	4003
58	0	0	2116	1604	3846	4004
59	0	0	2107	1605	3846	4003
60	0	0	2097	1604	3848	4003
61	0	0	2091	1606	3847	4003
62	0	0	2063	1602	3845	4002
63	0	0	2028	1603	3845	4003
64	0	0	2014	1606	3846	4002
65	0	0	1998	1606	3846	4003
66	0	0	1976	1605	3845	4001
67	0	0	1954	1606	3844	4000
68	0	0	1946	1607	3844	4002
69	0	0	1944	1607	3846	4000
70	0	0	1953	1609	3846	4002
71	0	0	1971	1608	3845	4003
72	0	0	1981	1608	3845	4002
73	0	0	1979	1607	3846	4004
74	0	0	1980	1608	3847	4002
75	0	0	2007	1605	3846	4002
76	0	0	2060	1606	3846	4003
77	0	0	2105	1605	3844	4003
78	0	0	2131	1604	3846	4003
79	0	0	2138	1605	3846	4001
80	0	0	2156	1602	3846	4003
81	0	0	2146	1603	3846	4003
82	0	0	2098	1602	3846	4003
83	0	0	2045	1604	3846	4002
84	0	0	2012	1605	3846	4001
85	0	0	2002	1606	3846	4001
86	0	0	1997	1607	3845	4002
87	0	0	1976	1606	3844	4002
88	0	0	1944	1606	3845	4002
89	0	0	1915	1605	3846	4000
90	0	0	1911	1607	3846	4003
91	0	0	1935	1608	3845	4003
92	0	0	1960	1608	3846	4003
93	0	0	1972	1609	3846	4003
94	0	0	1991	1608	3846	3999
95	0	0	2010	1605	3845	4003
96	0	0	2057	1604	3845	4003
97	0	0	2132	1604	3845	4001
98	0	0	2195	1604	3846	4003
99	0	0	2228	1605	3847	4004
100	0	0	2222	1602	3847	4004
101	0	0	2172	1601	3845	4002
102	0	0	2105	1601	3845	4002
103	0	0	2041	1602	3846	4003
104	0	0	2003	1604	3846	3999
105	0	0	1969	1603	3846	4002
106	0	0	1954	1607	3844	4003
107	0	0	1954	1608	3845	4001
108	0	0	1951	1606	3844	4001
109	0	0	1948	1610	3846	4001
110	0	0	1940	1607	3845	4001
111	0	0	1916	1605	3845	4002
112	0	0	1911	1607	3846	4002
113	0	0	1927	1606	3844	4002
114	0	0	1941	1607	3846	3999
115	0	0	1969	1605	3846	4002
116	0	0	2011	1604	3845	4003
117	0	0	2051	1604	3845	4003
118	0	0	2075	1601	3844	4001
119	0	0	2083	1602	3845	4002
120	0	0	2085	1603	3846	4001
121	0	0	2076	1604	3846	4003
122	0	0	2063	1604	3845	4001
123	0	0	2039	1602	3844	4003
124	0	0	2007	1601	3846	4002
125	0	0	1969	1603	3846	4002
126	0	0	1946	1605	3844	4003
127	0	0	1942	1607	3845	4002
0	0	0	1942	1606	3845	4002
1	0	0	1949	1607	3845	4003
2	0	0	1955	1608	3846	4000
3	0	0	1943	1606	3845	4003
4	0	0	1938	1607	3845	4002
5	0	0	1950	1605	3845	4001
6	0	0	1989	1605	3846	4002
7	0	0	2017	1606	3845	4002
8	0	0	2017	1605	3844	4001
9	0	0	2028	1604	3844	4002
10	0	0	2041	1602	3844	4002
11	0	0	2045	1604	3845	4003
12	0	0	2048	1604	3846	4004
13	0	0	2031	1602	3846	4004
14	0	0	2001	1603	3844	4004
15	0	0	1980	1604	3845	4003
16	0	0	1984	1606	3846	4004
17	0	0	1989	1607	3846	4002
18	0	0	1974	1605	3846	4003
19	0	0	1953	1608	3844	4002
20	0	0	1944	1607	3845	4003
21	0	0	1920	1605	3847	4003
22	0	0	1905	1606	3846	4003
23	0	0	1917	1607	3846	4004
24	0	0	1923	1608	3845	4001
25	0	0	1951	1607	3844	4003
26	0	0	1983	1607	3845	4003
27	0	0	1989	1605	3845	4001
28	0	0	1980	1603	3844	4001
29	0	0	1973	1602	3844	4002
30	0	0	1984	1601	3844	4001
31	0	0	2033	1604	3845	4004
32	0	0	2067	1604	3846	4003
33	0	0	2040	1601	3845	4003
34	0	0	2021	1605	3846	4002
35	0	0	2035	1603	3846	4002
36	0	0	2042	1606	3846	4002
37	0	0	2032	1605	3846	4003
38	0	0	2013	1605	3845	4001
39	0	0	2008	1609	3847	4003
40	0	0	2001	1605	3843	4003
41	0	0	1978	1605	3845	4002
42	0	0	1969	1608	3846	4003
43	0	0	1982	1607	3845	4001
44	0	0	1989	1608	3844	4002
45	0	0	2000	1607	3845	4001
46	0	0	1998	1606	3846	4003
47	0	0	1992	1605	3845	4003
48	0	0	2010	1603	3845	4002
49	0	0	2028	1604	3845	4003
50	0	0	2054	1603	3847	4002
51	0	0	2061	1602	3847	4002
52	0	0	2048	1604	3846	4002
53	0	0	2046	1605	3847	4003
54	0	0	2049	1604	3847	4002
55	0	0	2040	1603	3847	4004
56	0	0	2006	1604	3847	4004
57	0	0	1976	1603	3846	3982
58	0	0	1960	1604	3844	3960
59	0	0	1933	1606	3846	3937
60	0	0	1889	1604	3844	3915
61	0	0	1865	1605	3846	3891
62	0	0	1866	1608	3845	3870
63	0	0	1893	1607	3846	3848
64	0	0	1929	1608	3845	3825
65	0	0	1951	1606	3843	3803
66	0	0	1985	1605	3847	3782
67	0	0	2022	1605	3846	3760
68	0	0	2040	1605	3846	3738
69	0	0	2070	1603	3845	3716
70	0	0	2112	1603	3846	3694
71	0	0	2140	1604	3846	3673
72	0	0	2148	1604	3846	3654
73	0	0	2138	1603	3845	3632
74	0	0	2119	1605	3847	3611
75	0	0	2100	1604	3846	3589
76	0	0	2076	1603	3844	3565
77	0	0	2039	1603	3847	3544
78	0	0	1986	1603	3842	3521
79	0	0	1934	1606	3844	3503
80	0	0	1930	1607	3845	3482
81	0	0	1941	1607	3845	3463
82	0	0	1944	1608	3846	3440
83	0	0	1942	1607	3845	3420
84	0	0	1939	1606	3846	3400
85	0	0	1948	1606	3847	3379
86	0	0	1963	1604	3847	3363
87	0	0	1987	1604	3846	3343
88	0	0	2006	1604	3845	3324
89	0	0	2023	1603	3846	3305
90	0	0	2032	1603	3843	3285
91	0	0	2030	1601	3847	3268
92	0	0	2041	1602	3846	3249
93	0	0	2059	1603	3846	3230
94	0	0	2055	1603	3846	3211
95	0	0	2057	1604	3845	3193
96	0	0	2054	1605	3844	3176
97	0	0	2025	1603	3846	3158
98	0	0	1984	1602	3845	3141
99	0	0	1954	1605	3846	3121
100	0	0	1968	1608	3844	3102
101	0	0	2016	1608	3845	3086
102	0	0	2053	1607	3847	3068
103	0	0	2065	1606	3846	3054
104	0	0	2092	1606	3847	3036
105	0	0	2159	1606	3847	3020
106	0	0	2227	1607	3847	3002
107	0	0	2277	1604	3846	2985
108	0	0	2331	1605	3846	2969
109	0	0	2400	1603	3844	2955
110	0	0	2482	1603	3845	2939
111	0	0	2543	1604	3846	2923
112	0	0	2554	1603	3846	2908
113	0	0	2542	1602	3845	2894
114	0	0	2528	1604	3845	2878
115	0	0	2535	1605	3847	2863
116	0	0	2536	1605	3846	2847
117	0	0	2507	1602	3846	2833
118	0	0	2483	1606	3845	2818
119	0	0	2466	1606	3846	2801
120	0	0	2451	1605	3843	2790
121	0	0	2395	1601	3847	2775
122	0	0	2310	1602	3846	2760
123	0	0	2223	1603	3847	2744
124	0	0	2141	1601	3845	2729
125	0	0	2077	1601	3845	2715
126	0	0	2009	1601	3845	2702
127	0	0	1938	1599	3846	2691
0	0	0	1882	1599	3845	2678
1	0	0	1856	1601	3846	2664
2	0	0	1862	1603	3846	2651
3	0	0	1877	1602	3844	2638
4	0	0	1888	1601	3846	2625
5	0	0	1878	1600	3845	2612
6	0	0	1857	1600	3846	2600
7	0	0	1810	1600	3847	2587
8	0	0	1758	1600	3847	2575
9	0	0	1721	1600	3846	2562
10	0	0	1701	1603	3845	2548
11	0	0	1692	1605	3845	2535
12	0	0	1685	1606	3843	2524
13	0	0	1691	1606	3844	2512
14	0	0	1699	1605	3846	2500
15	0	0	1709	1606	3845	2488
16	0	0	1740	1605	3846	2477
17	0	0	1782	1606	3845	2465
18	0	0	1805	1604	3844	2453
19	0	0	1830	1604	3846	2441
20	0	0	1860	1603	3845	2430
21	0	0	1908	1602	3846	2419
22	0	0	1963	1602	3847	2408
23	0	0	2013	1603	3846	2397
24	0	0	2035	1601	3846	2386
25	0	0	2029	1602	3846	2376
26	0	0	2020	1602	3845	2364
27	0	0	2014	1603	3842	2354
28	0	0	2000	1603	3844	2343
29	0	0	1983	1602	3845	2333
30	0	0	1959	1602	3845	2323
31	0	0	1936	1603	3844	2312
32	0	0	1921	1605	3845	2301
33	0	0	1926	1607	3845	2292
34	0	0	1945	1605	3846	2282
35	0	0	1967	1605	3844	2273
36	0	0	1983	1605	3847	2262
37	0	0	1986	1606	3845	2252
38	0	0	2013	1604	3844	2242
39	0	0	2038	1604	3847	2231
40	0	0	2050	1602	3845	2223
41	0	0	2066	1602	3846	2214
42	0	0	2074	1601	3847	2204
43	0	0	2057	1601	3845	2194
44	0	0	2048	1601	3846	2185
45	0	0	2048	1602	3846	2175
46	0	0	2037	1601	3845	2167
47	0	0	2021	1602	3846	2159
48	0	0	2010	1603	3846	2150
49	0	0	1986	1601	3845	2141
50	0	0	1968	1605	3846	2132
51	0	0	1975	1606	3845	2122
52	0	0	1991	1606	3845	2113
53	0	0	1979	1605	3849	2105
54	0	0	1955	1601	3846	2096
55	0	0	1946	1606	3846	2087
56	0	0	1956	1605	3847	2079
57	0	0	1980	1605	3846	2070
58	0	0	2013	1605	3846	2061
59	0	0	2038	1603	3846	2053
60	0	0	2056	1602	3845	2044
61	0	0	2079	1602	3845	2036
62	0	0	2096	1601	3845	2028
63	0	0	2113	1603	3844	2020
64	0	0	2123	1603	3846	2013
65	0	0	2116	1601	3845	2004
66	0	0	2077	1599	3845	1997
67	0	0	2043	1601	3845	1989
68	0	0	2021	1603	3845	1981
69	0	0	2000	1602	3846	1974
70	0	0	1977	1600	3844	1965
71	0	0	1941	1602	3845	1958
72	0	0	1915	1604	3845	1950
73	0	0	1914	1607	3845	1942
74	0	0	1924	1608	3846	1936
75	0	0	1941	1605	3845	1928
76	0	0	1955	1604	3846	1921
77	0	0	1965	1604	3846	1913
78	0	0	1980	1604	3845	1906
79	0	0	2006	1601	3846	1898
80	0	0	2042	1603	3844	1891
81	0	0	2086	1601	3844	1885
82	0	0	2118	1602	3845	1878
83	0	0	2126	1602	3845	1871
84	0	0	2121	1603	3846	1864
85	0	0	2113	1601	3843	1857
86	0	0	2096	1600	3845	1851
87	0	0	2069	1600	3846	1843
88	0	0	2045	1600	3846	1837
89	0	0	2021	1602	3846	1831
90	0	0	1997	1602	3847	1823
91	0	0	1975	1602	3845	1817
92	0	0	1974	1606	3845	1810
93	0	0	2006	1605	3846	1804
94	0	0	2021	1603	3847	1797
95	0	0	2022	1604	3845	1790
96	0	0	2034	1604	3845	1784
97	0	0	2038	1604	3845	1778
98	0	0	2044	1604	3845	1771
99	0	0	2061	1605	3846	1764
100	0	0	2078	1602	3846	1758
101	0	0	2093	1601	3845	1753
102	0	0	2115	1601	3845	1747
103	0	0	2145	1601	3846	1740
104	0	0	2156	1601	3846	1735
105	0	0	2145	1600	3847	1728
106	0	0	2117	1599	3846	1722
107	0	0	2082	1599	3846	1718
108	0	0	2050	1600	3847	1712
109	0	0	2029	1604	3846	1706
110	0	0	2020	1602	3846	1700
111	0	0	1990	1602	3845	1694
112	0	0	1968	1599	3846	1688
113	0	0	1960	1605	3846	1682
114	0	0	1953	1607	3846	1676
115	0	0	1948	1605	3846	1671
116	0	0	1957	1605	3845	1664
117	0	0	1983	1604	3845	1660
118	0	0	2009	1604	3846	1653
119	0	0	2038	1603	3846	1646
120	0	0	2081	1603	3845	1642
121	0	0	2130	1601	3846	1636
122	0	0	2156	1601	3846	1633
123	0	0	2176	1600	3848	1627
124	0	0	2181	1601	3847	1621
125	0	0	2162	1599	3845	1616
126	0	0	2137	1598	3847	1610
127	0	0	2113	1600	3848	1605
0	0	0	2099	1602	3847	1600
1	0	0	2079	1602	3847	1596
2	0	0	2052	1600	3845	1591
3	0	0	2016	1601	3846	1585
4	0	0	1991	1603	3846	1582
5	0	0	1987	1606	3847	1574
6	0	0	2007	1605	3847	1569
7	0	0	2026	1604	3845	1564
8	0	0	2037	1604	3846	1559
9	0	0	2066	1605	3846	1554
10	0	0	2106	1603	3848	1549
11	0	0	2144	1602	3846	1543
12	0	0	2152	1601	3845	1538
13	0	0	2175	1600	3846	1533
14	0	0	2188	1600	3846	1528
15	0	0	2192	1599	3848	1524
16	0	0	2207	1600	3847	1519
17	0	0	2202	1600	3845	1515
18	0	0	2183	1599	3845	1510
19	0	0	2157	1599	3845	1506
20	0	0	2131	1599	3847	1501
21	0	0	2119	1603	3844	1497
22	0	0	2123	1603	3846	1493
23	0	0	2112	1603	3844	1487
24	0	0	2079	1598	3845	1483
25	0	0	2066	1604	3847	1478
26	0	0	2067	1604	3846	1473
27	0	0	2069	1603	3845	1469
28	0	0	2082	1603	3846	1464
29	0	0	2108	1603	3845	1460
30	0	0	2147	1602	3848	1455
31	0	0	2181	1602	3847	1451
32	0	0	2195	1601	3845	1446
33	0	0	2199	1599	3845	1442
34	0	0	2215	1601	3844	1437
35	0	0	2236	1600	3846	1434
36	0	0	2244	1600	3846	1430
37	0	0	2245	1599	3845	1426
38	0	0	2260	1601	3847	1422
39	0	0	2280	1602	3846	1418
40	0	0	2265	1599	3847	1413
41	0	0	2224	1600	3846	1410
42	0	0	2181	1599	3845	1405
43	0	0	2141	1601	3844	1401
44	0	0	2112	1603	3845	1397
45	0	0	2103	1604	3845	1392
46	0	0	2107	1603	3845	1388
47	0	0	2124	1604	3847	1385
48	0	0	2134	1603	3846	1380
49	0	0	2152	1601	3845	1376
50	0	0	2176	1602	3847	1373
51	0	0	2201	1600	3845	1369
52	0	0	2240	1601	3845	1364
53	0	0	2287	1600	3846	1363
54	0	0	2313	1598	3844	1357
55	0	0	2326	1599	3844	1352
56	0	0	2333	1598	3845	1350
57	0	0	2323	1598	3845	1346
58	0	0	2293	1598	3845	1341
59	0	0	2272	1599	3846	1337
60	0	0	2247	1599	3847	1334
61	0	0	2212	1598	3846	1331
62	0	0	2192	1602	3847	1327
63	0	0	2169	1601	3846	1324
64	0	0	2148	1601	3845	1320
65	0	0	2129	1602	3848	1318
66	0	0	2132	1604	3845	1312
67	0	0	2165	1603	3845	1308
68	0	0	2198	1603	3845	1305
69	0	0	2196	1602	3846	1302
70	0	0	2194	1602	3846	1299
71	0	0	2210	1599	3845	1294
72	0	0	2229	1599	3844	1290
73	0	0	2248	1599	3844	1286
74	0	0	2282	1598	3845	1284
75	0	0	2328	1600	3846	1281
76	0	0	2355	1598	3846	1278
77	0	0	2356	1599	3845	1275
78	0	0	2329	1597	3847	1271
79	0	0	2288	1597	3844	1266
80	0	0	2251	1598	3847	1264
81	0	0	2240	1602	3846	1262
82	0	0	2242	1601	3843	1259
83	0	0	2259	1603	3847	1256
84	0	0	2265	1601	3844	1251
85	0	0	2258	1604	3844	1246
86	0	0	2227	1599	3846	1244
87	0	0	2187	1600	3844	1241
88	0	0	2158	1600	3845	1238
89	0	0	2147	1602	3845	1234
90	0	0	2169	1603	3846	1231
91	0	0	2195	1601	3845	1226
92	0	0	2229	1599	3844	1223
93	0	0	2264	1599	3846	1221
94	0	0	2290	1599	3846	1218
95	0	0	2302	1599	3846	1215
96	0	0	2317	1597	3846	1212
97	0	0	2330	1599	3846	1210
98	0	0	2329	1599	3846	1206
99	0	0	2309	1598	3845	1203
100	0	0	2278	1598	3844	1200
101	0	0	2233	1597	3845	1198
102	0	0	2187	1598	3839	1195
103	0	0	2153	1599	3845	1192
104	0	0	2130	1599	3846	1188
105	0	0	2097	1600	3844	1184
106	0	0	2062	1600	3846	1182
107	0	0	2046	1602	3847	1179
108	0	0	2052	1602	3845	1176
109	0	0	2070	1601	3846	1173
110	0	0	2092	1602	3845	1168
111	0	0	2105	1599	3846	1166
112	0	0	2137	1600	3847	1163
113	0	0	2182	1598	3845	1161
114	0	0	2218	1598	3846	1158
115	0	0	2230	1599	3847	1156
116	0	0	2221	1597	3847	1153
117	0	0	2201	1598	3843	1150
118	0	0	2193	1598	3847	1147
119	0	0	2171	1598	3846	1147
120	0	0	2142	1598	3846	1142
121	0	0	2115	1599	3847	1140
122	0	0	2079	1598	3845	1137
123	0	0	2041	1599	3845	1134
124	0	0	2022	1599	3845	1131
125	0	0	2013	1603	3844	1128
126	0	0	2004	1602	3846	1126
127	0	0	1997	1602	3846	1123
0	0	0	1997	1602	3846	1119
1	0	0	1994	1602	3846	1116
2	0	0	2006	1601	3847	1115
3	0	0	2008	1599	3847	1111
4	0	0	2020	1600	3847	1108
5	0	0	2072	1600	3845	1106
6	0	0	2113	1597	3845	1103
7	0	0	2137	1598	3847	1101
8	0	0	2162	1597	3846	1099
9	0	0	2156	1598	3845	1097
10	0	0	2132	1597	3845	1095
11	0	0	2115	1599	3846	1092
12	0	0	2100	1598	3845	1089
13	0	0	2068	1597	3846	1085
14	0	0	2054	1599	3844	1083
15	0	0	2038	1599	3845	1083
16	0	0	1995	1600	3844	1079
17	0	0	1954	1599	3845	1074
18	0	0	1923	1599	3846	1073
19	0	0	1907	1600	3845	1071
20	0	0	1908	1602	3846	1069
21	0	0	1922	1601	3845	1066
22	0	0	1951	1601	3845	1064
23	0	0	1988	1599	3847	1060
24	0	0	2035	1600	3845	1058
25	0	0	2074	1598	3844	1055
26	0	0	2108	1599	3844	1053
27	0	0	2134	1598	3845	1051
28	0	0	2125	1595	3845	1049
29	0	0	2094	1596	3843	1047
30	0	0	2069	1596	3845	1047
31	0	0	2048	1598	3845	1043
32	0	0	2040	1599	3847	1041
33	0	0	2019	1599	3846	1038
34	0	0	1995	1598	3845	1036
35	0	0	1971	1600	3846	1033
36	0	0	1963	1602	3847	1033
37	0	0	1969	1603	3846	1027
38	0	0	1963	1602	3847	1027
39	0	0	1937	1599	3844	1024
40	0	0	1915	1600	3847	1021
41	0	0	1907	1602	3845	1017
42	0	0	1915	1601	3847	1017
43	0	0	1949	1600	3845	1014
44	0	0	1996	1598	3845	1011
45	0	0	2050	1597	3845	1010
46	0	0	2095	1598	3845	1007
47	0	0	2105	1597	3845	1005
48	0	0	2106	1597	3846	1003
49	0	0	2114	1598	3846	1002
50	0	0	2102	1595	3847	1000
51	0	0	2089	1600	3846	999
52	0	0	2087	1600	3847	996
53	0	0	2056	1597	3847	994
54	0	0	2005	1597	3845	991
55	0	0	1964	1599	3846	990
56	0	0	1926	1598	3845	988
57	0	0	1893	1598	3846	984
58	0	0	1866	1600	3847	983
59	0	0	1875	1601	3845	981
60	0	0	1898	1601	3845	978
61	0	0	1930	1600	3846	977
62	0	0	1957	1600	3845	974
63	0	0	1973	1599	3846	971
64	0	0	1990	1598	3845	968
65	0	0	2011	1597	3845	967
66	0	0	2031	1598	3846	966
67	0	0	2052	1598	3847	964
68	0	0	2070	1596	3846	962
69	0	0	2081	1598	3847	960
70	0	0	2065	1598	3846	958
71	0	0	2053	1597	3846	956
72	0	0	2050	1599	3843	954
73	0	0	2038	1597	3847	953
74	0	0	2008	1597	3845	952
75	0	0	1967	1599	3844	948
76	0	0	1954	1604	3844	946
77	0	0	1970	1602	3844	945
78	0	0	2001	1601	3846	942
79	0	0	2021	1599	3845	940
80	0	0	2005	1599	3846	938
81	0	0	1991	1601	3845	936
82	0	0	1991	1601	3844	934
83	0	0	2000	1599	3847	931
84	0	0	2014	1598	3845	929
85	0	0	2037	1598	3847	927
86	0	0	2046	1598	3847	928
87	0	0	2067	1597	3843	926
88	0	0	2101	1596	3847	923
89	0	0	2122	1595	3843	922
90	0	0	2113	1597	3845	919
91	0	0	2082	1596	3845	918
92	0	0	2045	1596	3843	917
93	0	0	2014	1596	3845	914
94	0	0	1987	1596	3844	913
95	0	0	1958	1598	3845	910
96	0	0	1936	1600	3844	910
97	0	0	1926	1601	3844	907
98	0	0	1922	1602	3847	905
99	0	0	1911	1600	3845	903
100	0	0	1911	1600	3846	901
101	0	0	1939	1600	3846	899
102	0	0	1972	1599	3847	898
103	0	0	1991	1598	3847	894
104	0	0	2016	1598	3846	893
105	0	0	2044	1597	3845	891
106	0	0	2075	1596	3845	890
107	0	0	2103	1596	3845	889
108	0	0	2124	1596	3847	887
109	0	0	2114	1596	3845	885
110	0	0	2090	1595	3845	885
111	0	0	2072	1596	3845	881
112	0	0	2040	1595	3846	881
113	0	0	1995	1594	3845	879
114	0	0	1955	1597	3845	877
115	0	0	1922	1597	3845	876
116	0	0	1907	1601	3846	873
117	0	0	1917	1601	3846	871
118	0	0	1930	1602	3847	871
119	0	0	1928	1600	3846	868
120	0	0	1921	1601	3848	866
121	0	0	1933	1601	3845	865
122	0	0	1972	1599	3844	863
123	0	0	2002	1599	3846	861
124	0	0	2029	1598	3845	860
125	0	0	2063	1596	3847	857
126	0	0	2097	1596	3844	854
127	0	0	2132	1598	3846	855
0	0	0	2148	1596	3846	854
1	0	0	2133	1595	3845	853
2	0	0	2102	1594	3845	851
3	0	0	2071	1595	3846	849
4	0	0	2043	1596	3847	848
5	0	0	2018	1596	3846	847
6	0	0	2008	1600	3846	845
7	0	0	1999	1599	3845	843
8	0	0	1990	1601	3845	842
9	0	0	1989	1601	3844	841
10	0	0	1975	1600	3846	838
11	0	0	1962	1601	3846	837
12	0	0	1949	1600	3846	835
13	0	0	1959	1600	3846	834
14	0	0	1992	1600	3846	831
15	0	0	2038	1597	3846	829
16	0	0	2069	1598	3845	828
17	0	0	2084	1600	3845	827
18	0	0	2092	1597	3846	828
19	0	0	2095	1597	3844	824
20	0	0	2091	1596	3847	823
21	0	0	2086	1596	3845	822
22	0	0	2078	1596	3847	820
23	0	0	2063	1597	3849	817
24	0	0	2052	1599	3847	816
25	0	0	2053	1598	3846	816
26	0	0	2054	1599	3846	815
27	0	0	2025	1597	3844	813
28	0	0	1985	1598	3845	810
29	0	0	1949	1597	3847	810
30	0	0	1925	1598	3847	808
31	0	0	1920	1601	3845	807
32	0	0	1940	1600	3845	803
33	0	0	1990	1600	3845	801
34	0	0	2028	1600	3847	802
35	0	0	2041	1597	3845	800
36	0	0	2053	1599	3845	798
37	0	0	2083	1597	3845	799
38	0	0	2097	1596	3845	796
39	0	0	2103	1596	3847	794
40	0	0	2092	1597	3847	794
41	0	0	2077	1595	3846	793
42	0	0	2053	1594	3846	792
43	0	0	2033	1596	3847	791
44	0	0	2023	1598	3847	787
45	0	0	2039	1599	3847	787
46	0	0	2063	1598	3845	786
47	0	0	2054	1600	3845	787
48	0	0	2014	1597	3845	783
49	0	0	1977	1598	3846	781
50	0	0	1957	1600	3846	780
51	0	0	1957	1600	3847	778
52	0	0	1962	1597	3845	777
53	0	0	1978	1599	3846	775
54	0	0	2002	1600	3844	774
55	0	0	2015	1598	3845	772
56	0	0	2025	1598	3845	771
57	0	0	2032	1596	3846	770
58	0	0	2047	1597	3845	768
59	0	0	2076	1596	3845	767
60	0	0	2107	1596	3846	766
61	0	0	2123	1595	3846	766
62	0	0	2122	1597	3845	763
63	0	0	2109	1598	3846	767
64	0	0	2087	1596	3846	762
65	0	0	2059	1595	3846	761
66	0	0	2020	1595	3845	760
67	0	0	1984	1600	3845	759
68	0	0	1958	1598	3846	757
69	0	0	1948	1599	3845	755
70	0	0	1945	1600	3847	754
71	0	0	1948	1600	3846	735
72	0	0	1950	1598	3843	751
73	0	0	1943	1599	3846	750
74	0	0	1954	1600	3847	748
75	0	0	1975	1598	3846	746
76	0	0	1996	1597	3846	746
77	0	0	2035	1596	3845	744
78	0	0	2075	1597	3846	743
79	0	0	2099	1596	3845	742
80	0	0	2122	1596	3847	741
81	0	0	2121	1595	3845	741
82	0	0	2114	1597	3845	739
83	0	0	2098	1596	3846	738
84	0	0	2059	1595	3847	737
85	0	0	2007	1594	3845	736
86	0	0	1960	1594	3845	735
87	0	0	1933	1597	3844	732
88	0	0	1938	1601	3846	733
89	0	0	1953	1600	3847	730
90	0	0	1940	1599	3847	730
91	0	0	1933	1598	3846	728
92	0	0	1938	1599	3846	727
93	0	0	1952	1598	3848	726
94	0	0	1961	1599	3847	724
95	0	0	1971	1597	3846	723
96	0	0	1997	1596	3845	721
97	0	0	2045	1595	3845	721
98	0	0	2100	1595	3845	720
99	0	0	2138	1595	3847	718
100	0	0	2137	1594	3847	717
101	0	0	2105	1592	3843	718
102	0	0	2062	1593	3846	716
103	0	0	2029	1594	3846	715
104	0	0	2021	1596	3846	713
105	0	0	1996	1595	3847	713
106	0	0	1965	1595	3846	713
107	0	0	1947	1597	3847	710
108	0	0	1936	1599	3847	709
109	0	0	1921	1598	3845	706
110	0	0	1921	1600	3847	707
111	0	0	1939	1600	3846	706
112	0	0	1978	1601	3847	704
113	0	0	2029	1599	3847	703
114	0	0	2076	1598	3845	700
115	0	0	2096	1597	3846	699
116	0	0	2101	1596	3845	698
117	0	0	2110	1595	3843	699
118	0	0	2112	1594	3845	698
119	0	0	2099	1594	3847	696
120	0	0	2081	1593	3846	695
121	0	0	2060	1593	3846	695
122	0	0	2037	1592	3846	694
123	0	0	2008	1593	3846	693
124	0	0	1993	1595	3846	691
125	0	0	1974	1595	3847	694
126	0	0	1966	1599	3847	689
127	0	0	1960	1597	3846	689
0	0	0	1959	1599	3846	687
1	0	0	1960	1600	3845	684
2	0	0	1957	1599	3847	684
3	0	0	1960	1598	3845	684
4	0	0	1956	1600	3844	682
5	0	0	1950	1597	3847	681
6	0	0	1960	1598	3845	678
7	0	0	1975	1597	3846	679
8	0	0	1996	1596	3845	677
9	0	0	2029	1594	3845	675
10	0	0	2068	1594	3847	676
11	0	0	2093	1595	3848	675
12	0	0	2101	1595	3847	674
13	0	0	2100	1594	3846	674
14	0	0	2098	1594	3847	672
15	0	0	2086	1596	3847	671
16	0	0	2070	1595	3846	670
17	0	0	2044	1594	3847	670
18	0	0	2012	1595	3845	669
19	0	0	1973	1594	3845	669
20	0	0	1920	1595	3845	666
21	0	0	1901	1601	3846	663
22	0	0	1920	1598	3844	665
23	0	0	1958	1600	3847	663
24	0	0	1975	1598	3846	662
25	0	0	1985	1598	3846	661
26	0	0	2007	1598	3846	658
27	0	0	2036	1596	3847	659
28	0	0	2049	1595	3846	658
29	0	0	2077	1594	3847	656
30	0	0	2112	1595	3846	655
31	0	0	2121	1594	3844	657
32	0	0	2116	1595	3847	655
33	0	0	2107	1594	3845	655
34	0	0	2105	1595	3846	653
35	0	0	2107	1595	3846	652
36	0	0	2086	1594	3847	651
37	0	0	2050	1593	3844	651
38	0	0	2018	1595	3846	649
39	0	0	1990	1595	3845	649
40	0	0	1966	1596	3846	648
41	0	0	1950	1597	3846	645
42	0	0	1936	1598	3846	645
43	0	0	1939	1598	3846	644
44	0	0	1961	1598	3846	643
45	0	0	1993	1597	3847	642
46	0	0	2031	1598	3847	639
47	0	0	2085	1596	3846	639
48	0	0	2109	1595	3846	638
49	0	0	2110	1594	3846	638
50	0	0	2109	1593	3847	636
51	0	0	2108	1594	3846	635
52	0	0	2112	1595	3847	635
53	0	0	2116	1595	3845	635
54	0	0	2108	1595	3848	634
55	0	0	2092	1594	3847	633
56	0	0	2067	1593	3846	631
57	0	0	2034	1594	3845	632
58	0	0	2004	1594	3845	631
59	0	0	1976	1595	3846	630
60	0	0	1954	1596	3847	629
61	0	0	1940	1599	3846	627
62	0	0	1945	1598	3848	626
63	0	0	1965	1598	3846	624
64	0	0	1990	1598	3848	624
65	0	0	2011	1597	3847	624
66	0	0	2022	1597	3847	622
67	0	0	2027	1596	3847	621
68	0	0	2020	1595	3845	619
69	0	0	2032	1594	3845	619
70	0	0	2062	1593	3846	619
71	0	0	2086	1595	3844	619
72	0	0	2102	1593	3844	619
73	0	0	2118	1595	3847	618
74	0	0	2131	1595	3845	615
75	0	0	2122	1595	3846	616
76	0	0	2091	1593	3847	614
77	0	0	2055	1593	3846	615
78	0	0	2022	1593	3846	614
79	0	0	1985	1594	3846	613
80	0	0	1951	1595	3844	612
81	0	0	1921	1595	3847	608
82	0	0	1913	1597	3844	610
83	0	0	1924	1598	3846	609
84	0	0	1935	1598	3846	607
85	0	0	1958	1598	3845	606
86	0	0	1985	1597	3844	606
87	0	0	2006	1591	3847	603
88	0	0	2032	1595	3846	602
89	0	0	2054	1595	3846	603
90	0	0	2066	1594	3845	603
91	0	0	2065	1592	3846	600
92	0	0	2051	1593	3844	602
93	0	0	2039	1593	3845	600
94	0	0	2027	1594	3846	600
95	0	0	2010	1593	3848	599
96	0	0	2003	1595	3846	597
97	0	0	2007	1595	3845	598
98	0	0	2003	1596	3846	598
99	0	0	1979	1595	3845	596
100	0	0	1958	1596	3845	595
101	0	0	1946	1597	3844	595
102	0	0	1938	1597	3845	593
103	0	0	1922	1596	3845	594
104	0	0	1916	1597	3846	591
105	0	0	1923	1595	3844	591
106	0	0	1933	1596	3846	589
107	0	0	1960	1594	3842	588
108	0	0	1997	1595	3847	588
109	0	0	2028	1594	3846	586
110	0	0	2042	1593	3846	586
111	0	0	2050	1593	3847	586
112	0	0	2043	1593	3846	585
113	0	0	2051	1593	3847	585
114	0	0	2058	1593	3844	585
115	0	0	2051	1594	3847	583
116	0	0	2035	1595	3847	582
117	0	0	2009	1593	3839	581
118	0	0	1974	1593	3847	581
119	0	0	1934	1594	3844	581
120	0	0	1916	1597	3844	579
121	0	0	1925	1597	3846	577
122	0	0	1941	1597	3847	577
123	0	0	1941	1596	3845	577
124	0	0	1937	1597	3848	576
125	0	0	1945	1597	3845	574
126	0	0	1979	1595	3846	573
127	0	0	2009	1595	3845	573
0	0	0	2030	1594	3845	572
1	0	0	2062	1592	3846	571
2	0	0	2092	1594	3846	571
3	0	0	2097	1593	3848	570
4	0	0	2090	1593	3846	569
5	0	0	2089	1593	3847	569
6	0	0	2081	1594	3845	569
7	0	0	2060	1591	3845	568
8	0	0	2023	1591	3847	568
9	0	0	1988	1592	3847	567
10	0	0	1967	1594	3846	567
11	0	0	1951	1594	3846	566
12	0	0	1941	1596	3844	565
13	0	0	1935	1596	3846	562
14	0	0	1918	1595	3844	562
15	0	0	1920	1596	3850	562
16	0	0	1954	1596	3846	561
17	0	0	1991	1595	3844	561
18	0	0	2013	1595	3847	560
19	0	0	2024	1595	3847	558
20	0	0	2038	1593	3846	558
21	0	0	2062	1593	3846	557
22	0	0	2066	1593	3846	556
23	0	0	2045	1591	3847	555
24	0	0	2042	1591	3846	555
25	0	0	2038	1593	3847	556
26	0	0	2019	1594	3846	554
27	0	0	2002	1592	3844	555
28	0	0	1993	1594	3845	552
29	0	0	1978	1592	3847	554
30	0	0	1954	1592	3843	553
31	0	0	1944	1594	3846	552
32	0	0	1927	1596	3846	550
33	0	0	1928	1597	3845	548
34	0	0	1927	1596	3847	548
35	0	0	1929	1596	3846	548
36	0	0	1930	1595	3846	547
37	0	0	1948	1595	3846	547
38	0	0	1980	1595	3847	544
39	0	0	2013	1593	3845	543
40	0	0	2046	1593	3846	542
41	0	0	2065	1592	3845	543
42	0	0	2071	1591	3847	542
43	0	0	2087	1592	3845	541
44	0	0	2096	1592	3847	542
45	0	0	2102	1592	3843	542
46	0	0	2094	1592	3846	542
47	0	0	2087	1593	3844	541
48	0	0	2090	1594	3846	541
49	0	0	2070	1592	3845	540
50	0	0	2035	1593	3847	539
51	0	0	1998	1593	3846	538
52	0	0	1979	1595	3847	537
53	0	0	1959	1594	3847	536
54	0	0	1927	1593	3847	535
55	0	0	1905	1596	3847	534
56	0	0	1917	1595	3846	534
57	0	0	1955	1596	3846	533
58	0	0	1992	1595	3847	532
59	0	0	2022	1594	3845	530
60	0	0	2041	1594	3845	530
61	0	0	2051	1592	3847	530
62	0	0	2064	1591	3847	530
63	0	0	2093	1592	3846	530
64	0	0	2119	1592	3847	529
65	0	0	2118	1592	3846	528
66	0	0	2094	1590	3846	527
67	0	0	2065	1591	3847	528
68	0	0	2036	1591	3846	526
69	0	0	2018	1592	3845	527
70	0	0	2007	1593	3846	527
71	0	0	1983	1592	3846	526
72	0	0	1959	1594	3846	524
73	0	0	1935	1594	3847	523
74	0	0	1926	1595	3845	523
75	0	0	1931	1597	3846	522
76	0	0	1964	1594	3847	520
77	0	0	1999	1595	3847	519
78	0	0	2051	1595	3847	520
79	0	0	2095	1594	3847	518
80	0	0	2128	1592	3845	518
81	0	0	2180	1592	3845	519
82	0	0	2238	1593	3847	518
83	0	0	2284	1592	3846	517
84	0	0	2313	1591	3846	518
85	0	0	2336	1591	3847	516
86	0	0	2360	1591	3847	516
87	0	0	2396	1593	3845	515
88	0	0	2419	1592	3847	515
89	0	0	2433	1593	3845	514
90	0	0	2447	1594	3846	515
91	0	0	2417	1591	3847	513
92	0	0	2372	1593	3847	513
93	0	0	2353	1596	3846	515
94	0	0	2352	1595	3845	509
95	0	0	2354	1595	3846	507
96	0	0	2362	1594	3846	508
97	0	0	2388	1595	3847	505
98	0	0	2408	1594	3847	508
99	0	0	2417	1594	3847	505
100	0	0	2419	1592	3846	506
101	0	0	2407	1592	3847	503
102	0	0	2399	1592	3847	504
103	0	0	2356	1588	3847	507
104	0	0	2278	1586	3845	503
105	0	0	2180	1586	3846	503
106	0	0	2072	1587	3846	503
107	0	0	1965	1588	3848	503
108	0	0	1872	1588	3846	502
109	0	0	1801	1589	3845	502
110	0	0	1751	1590	3846	501
111	0	0	1703	1590	3845	500
112	0	0	1681	1593	3847	497
113	0	0	1688	1595	3847	499
114	0	0	1671	1592	3846	499
115	0	0	1671	1596	3847	497
116	0	0	1673	1595	3848	497
117	0	0	1690	1595	3847	495
118	0	0	1728	1594	3845	494
119	0	0	1766	1592	3847	495
120	0	0	1808	1591	3846	494
121	0	0	1853	1590	3847	494
122	0	0	1892	1591	3847	494
123	0	0	1908	1591	3846	493
124	0	0	1916	1590	3848	491
125	0	0	1934	1591	3846	492
126	0	0	1958	1591	3846	491
127	0	0	1970	1591	3846	492
0	0	0	1952	1591	3847	491
1	0	0	1932	1592	3847	491
2	0	0	1928	1593	3846	490
3	0	0	1933	1594	3846	487
4	0	0	1929	1595	3846	488
5	0	0	1920	1594	3848	487
6	0	0	1904	1593	3848	485
7	0	0	1903	1593	3846	486
8	0	0	1918	1593	3847	485
9	0	0	1932	1594	3846	484
10	0	0	1948	1593	3847	485
11	0	0	1965	1592	3848	482
12	0	0	1988	1591	3845	482
13	0	0	2028	1590	3845	482
14	0	0	2070	1591	3846	482
15	0	0	2101	1590	3847	479
16	0	0	2127	1590	3848	481
17	0	0	2139	1589	3846	481
18	0	0	2119	1588	3847	481
19	0	0	2079	1589	3848	481
20	0	0	2055	1591	3846	481
21	0	0	2045	1592	3848	480
22	0	0	2048	1594	3847	479
23	0	0	2044	1595	3848	479
24	0	0	2017	1592	3848	478
25	0	0	1991	1592	3847	479
26	0	0	1980	1594	3847	476
27	0	0	1976	1593	3847	476
28	0	0	1974	1594	3847	476
29	0	0	1979	1592	3848	474
30	0	0	1991	1593	3847	469
31	0	0	2000	1592	3847	472
32	0	0	2011	1591	3846	472
33	0	0	2048	1591	3846	472
34	0	0	2082	1590	3846	471
35	0	0	2090	1590	3847	467
36	0	0	2075	1588	3847	471
37	0	0	2061	1587	3846	471
38	0	0	2063	1590	3847	470
39	0	0	2075	1588	3847	471
40	0	0	2078	1592	3848	470
41	0	0	2057	1589	3848	468
42	0	0	2035	1590	3846	469
43	0	0	2010	1591	3847	469
44	0	0	2001	1595	3847	467
45	0	0	2001	1594	3846	467
46	0	0	1987	1593	3847	466
47	0	0	1981	1593	3846	466
48	0	0	1954	1591	3848	464
49	0	0	1947	1592	3846	464
50	0	0	1968	1593	3847	463
51	0	0	2007	1592	3847	462
52	0	0	2030	1590	3846	462
53	0	0	2065	1590	3846	462
54	0	0	2113	1588	3847	462
55	0	0	2141	1588	3847	463
56	0	0	2155	1589	3847	461
57	0	0	2159	1589	3847	462
58	0	0	2145	1589	3847	462
59	0	0	2116	1587	3848	460
60	0	0	2083	1589	3847	458
61	0	0	2057	1589	3847	459
62	0	0	2053	1592	3846	460
63	0	0	2057	1593	3848	459
64	0	0	2033	1588	3847	458
65	0	0	2000	1592	3847	456
66	0	0	1989	1593	3848	456
67	0	0	1996	1594	3846	456
68	0	0	2002	1593	3848	456
69	0	0	2013	1591	3847	454
70	0	0	2029	1593	3848	454
71	0	0	2043	1591	3850	452
72	0	0	2051	1589	3846	454
73	0	0	2063	1590	3847	453
74	0	0	2089	1590	3848	451
75	0	0	2104	1589	3847	452
76	0	0	2114	1589	3847	451
77	0	0	2113	1589	3846	453
78	0	0	2110	1591	3848	452
79	0	0	2109	1588	3847	451
80	0	0	2087	1589	3847	449
81	0	0	2058	1588	3847	450
82	0	0	2035	1591	3847	449
83	0	0	2016	1592	3844	451
84	0	0	1992	1589	3847	449
85	0	0	1974	1592	3847	448
86	0	0	1969	1595	3847	446
87	0	0	1981	1593	3846	447
88	0	0	2003	1592	3848	447
89	0	0	2016	1590	3848	445
90	0	0	2031	1592	3847	444
91	0	0	2065	1588	3847	443
92	0	0	2093	1589	3846	444
93	0	0	2114	1592	3845	444
94	0	0	2125	1591	3847	442
95	0	0	2123	1589	3847	441
96	0	0	2129	1589	3847	442
97	0	0	2123	1589	3846	443
98	0	0	2117	1589	3846	443
99	0	0	2124	1588	3847	442
100	0	0	2107	1589	3846	440
101	0	0	2075	1588	3846	441
102	0	0	2048	1590	3846	441
103	0	0	2019	1591	3848	440
104	0	0	2008	1595	3847	439
105	0	0	2009	1594	3847	437
106	0	0	2014	1593	3847	438
107	0	0	2038	1593	3847	438
108	0	0	2051	1593	3847	437
109	0	0	2052	1590	3847	435
110	0	0	2058	1592	3847	434
111	0	0	2077	1591	3846	434
112	0	0	2097	1590	3846	435
113	0	0	2117	1590	3846	434
114	0	0	2133	1589	3846	432
115	0	0	2134	1589	3847	432
116	0	0	2130	1589	3846	433
117	0	0	2123	1589	3846	433
118	0	0	2122	1587	3846	434
119	0	0	2115	1589	3847	433
120	0	0	2112	1591	3847	432
121	0	0	2112	1591	3846	432
122	0	0	2096	1590	3847	432
123	0	0	2070	1591	3847	432
124	0	0	2061	1590	3847	431
125	0	0	2057	1593	3848	430
126	0	0	2052	1593	3848	429
127	0	0	2043	1592	3844	430
0	0	0	2042	1592	3848	428
1	0	0	2042	1592	3847	427
2	0	0	2045	1592	3847	429
3	0	0	2059	1590	3847	426
4	0	0	2081	1589	3846	426
5	0	0	2119	1589	3846	426
6	0	0	2154	1587	3845	427
7	0	0	2199	1590	3846	428
8	0	0	2222	1589	3846	426
9	0	0	2212	1588	3848	425
10	0	0	2184	1587	3845	426
11	0	0	2151	1587	3844	426
12	0	0	2129	1591	3847	425
13	0	0	2130	1591	3848	425
14	0	0	2120	1590	3846	423
15	0	0	2078	1589	3848	424
16	0	0	2035	1589	3845	423
17	0	0	2021	1593	3847	425
18	0	0	2020	1592	3846	422
19	0	0	2043	1591	3846	421
20	0	0	2059	1591	3846	420
21	0	0	2064	1591	3845	420
22	0	0	2067	1591	3847	420
23	0	0	2075	1590	3846	417
24	0	0	2089	1590	3847	418
25	0	0	2109	1588	3846	415
26	0	0	2137	1588	3847	415
27	0	0	2165	1589	3848	414
28	0	0	2196	1588	3847	419
29	0	0	2204	1588	3848	418
30	0	0	2171	1586	3847	417
31	0	0	2135	1587	3844	415
32	0	0	2123	1589	3847	414
33	0	0	2099	1588	3845	415
34	0	0	2075	1589	3847	414
35	0	0	2049	1589	3847	412
36	0	0	2015	1589	3846	416
37	0	0	1999	1593	3846	415
38	0	0	2003	1592	3846	415
39	0	0	2028	1592	3845	413
40	0	0	2061	1591	3846	413
41	0	0	2085	1593	3848	412
42	0	0	2107	1591	3847	411
43	0	0	2119	1591	3848	410
44	0	0	2121	1589	3847	410
45	0	0	2122	1588	3846	410
46	0	0	2132	1588	3847	410
47	0	0	2141	1589	3847	410
48	0	0	2150	1588	3846	408
49	0	0	2142	1586	3847	407
50	0	0	2109	1586	3847	405
51	0	0	2097	1589	3846	404
52	0	0	2096	1589	3847	409
53	0	0	2096	1590	3846	410
54	0	0	2081	1589	3846	409
55	0	0	2061	1589	3846	408
56	0	0	2035	1590	3846	408
57	0	0	2022	1592	3847	406
58	0	0	2036	1593	3848	406
59	0	0	2051	1591	3847	405
60	0	0	2041	1591	3847	404
61	0	0	2033	1592	3848	404
62	0	0	2037	1588	3847	403
63	0	0	2042	1589	3847	404
64	0	0	2048	1589	3847	403
65	0	0	2074	1588	3847	401
66	0	0	2101	1586	3845	401
67	0	0	2123	1587	3846	404
68	0	0	2148	1587	3846	401
69	0	0	2156	1588	3847	402
70	0	0	2142	1587	3847	402
71	0	0	2118	1587	3846	400
72	0	0	2098	1584	3847	399
73	0	0	2067	1587	3847	401
74	0	0	2035	1588	3847	399
75	0	0	2007	1586	3844	403
76	0	0	1975	1588	3847	399
77	0	0	1955	1590	3847	400
78	0	0	1941	1590	3845	399
79	0	0	1946	1588	3847	399
80	0	0	1966	1591	3846	398
81	0	0	1998	1589	3845	397
82	0	0	2016	1590	3847	395
83	0	0	2020	1589	3846	398
84	0	0	2015	1588	3846	394
85	0	0	2025	1587	3846	392
86	0	0	2048	1588	3848	398
87	0	0	2071	1586	3847	395
88	0	0	2086	1587	3846	397
89	0	0	2098	1588	3846	392
90	0	0	2103	1587	3847	392
91	0	0	2083	1587	3848	392
92	0	0	2050	1586	3847	391
93	0	0	2001	1586	3846	395
94	0	0	1955	1587	3848	392
95	0	0	1911	1588	3849	397
96	0	0	1882	1588	3847	393
97	0	0	1871	1590	3848	391
98	0	0	1866	1591	3846	393
99	0	0	1874	1591	3848	392
100	0	0	1875	1590	3846	390
101	0	0	1869	1591	3848	392
102	0	0	1864	1589	3847	390
103	0	0	1880	1588	3846	391
104	0	0	1927	1588	3846	388
105	0	0	1986	1588	3845	388
106	0	0	2040	1587	3847	386
107	0	0	2065	1586	3847	385
108	0	0	2061	1586	3846	385
109	0	0	2026	1584	3847	386
110	0	0	1985	1584	3847	387
111	0	0	1956	1585	3847	388
112	0	0	1940	1587	3848	389
113	0	0	1920	1586	3847	385
114	0	0	1908	1590	3847	385
115	0	0	1908	1590	3847	387
116	0	0	1883	1588	3847	385
117	0	0	1834	1588	3847	387
118	0	0	1800	1587	3846	385
119	0	0	1777	1588	3846	383
120	0	0	1757	1589	3847	384
121	0	0	1758	1589	3847	383
122	0	0	1786	1589	3847	382
123	0	0	1836	1588	3845	380
124	0	0	1886	1589	3847	381
125	0	0	1925	1588	3849	379
126	0	0	1936	1586	3846	379
127	0	0	1934	1585	3847	381
0	0	0	1936	1586	3847	381
1	0	0	1946	1586	3848	383
2	0	0	1948	1586	3846	379
3	0	0	1955	1586	3848	381
4	0	0	1952	1587	3847	377
5	0	0	1932	1585	3846	379
6	0	0	1907	1587	3847	379
7	0	0	1891	1588	3846	380
8	0	0	1860	1587	3847	382
9	0	0	1819	1586	3847	378
10	0	0	1782	1587	3847	377
11	0	0	1766	1589	3846	377
12	0	0	1775	1590	3846	378
13	0	0	1805	1590	3847	376
14	0	0	1830	1589	3847	375
15	0	0	1861	1588	3846	374
16	0	0	1886	1587	3846	374
17	0	0	1902	1586	3846	375
18	0	0	1930	1585	3848	378
19	0	0	1949	1584	3847	372
20	0	0	1956	1585	3847	371
21	0	0	1928	1583	3846	372
22	0	0	1912	1585	3846	374
23	0	0	1910	1585	3847	375
24	0	0	1901	1587	3847	376
25	0	0	1878	1585	3846	373
26	0	0	1861	1587	3846	371
27	0	0	1855	1590	3847	371
28	0	0	1842	1588	3848	372
29	0	0	1811	1586	3847	372
30	0	0	1781	1587	3848	371
31	0	0	1764	1589	3846	371
32	0	0	1779	1588	3847	372
33	0	0	1811	1591	3847	369
34	0	0	1839	1588	3847	370
35	0	0	1858	1588	3847	368
36	0	0	1885	1587	3846	368
37	0	0	1916	1585	3846	366
38	0	0	1949	1587	3847	365
39	0	0	1967	1585	3847	366
40	0	0	1988	1583	3846	368
41	0	0	1993	1585	3846	369
42	0	0	1992	1586	3846	369
43	0	0	1991	1583	3847	365
44	0	0	1977	1586	3847	367
45	0	0	1966	1588	3843	365
46	0	0	1944	1585	3845	363
47	0	0	1909	1586	3845	367
48	0	0	1876	1585	3847	367
49	0	0	1870	1589	3847	368
50	0	0	1873	1590	3846	366
51	0	0	1874	1589	3847	366
52	0	0	1881	1589	3847	365
53	0	0	1901	1588	3847	364
54	0	0	1930	1586	3847	365
55	0	0	1951	1589	3846	362
56	0	0	1972	1586	3846	362
57	0	0	1994	1584	3845	362
58	0	0	2022	1583	3847	363
59	0	0	2048	1585	3847	364
60	0	0	2069	1584	3846	360
61	0	0	2066	1584	3846	359
62	0	0	2041	1584	3846	360
63	0	0	2028	1587	3847	359
64	0	0	2010	1584	3848	362
65	0	0	1973	1584	3847	361
66	0	0	1920	1584	3847	362
67	0	0	1876	1584	3847	362
68	0	0	1851	1588	3847	359
69	0	0	1860	1590	3848	359
70	0	0	1878	1589	3846	360
71	0	0	1895	1589	3848	359
72	0	0	1916	1586	3847	359
73	0	0	1939	1590	3847	358
74	0	0	1938	1587	3847	357
75	0	0	1913	1585	3846	358
76	0	0	1915	1586	3846	357
77	0	0	1951	1586	3846	354
78	0	0	2010	1585	3846	354
79	0	0	2050	1587	3847	354
80	0	0	2070	1586	3846	354
81	0	0	2082	1583	3846	357
82	0	0	2069	1583	3846	357
83	0	0	2048	1585	3847	356
84	0	0	2017	1584	3846	355
85	0	0	1990	1584	3847	354
86	0	0	1984	1587	3846	353
87	0	0	1982	1588	3846	356
88	0	0	1962	1585	3846	356
89	0	0	1927	1586	3847	355
90	0	0	1912	1588	3846	354
91	0	0	1902	1590	3847	353
92	0	0	1903	1589	3846	352
93	0	0	1913	1589	3847	353
94	0	0	1939	1589	3847	351
95	0	0	1959	1587	3848	350
96	0	0	1977	1586	3846	351
97	0	0	2013	1586	3846	347
98	0	0	2057	1585	3846	352
99	0	0	2071	1585	3847	351
100	0	0	2065	1584	3845	351
101	0	0	2047	1584	3847	350
102	0	0	2050	1583	3847	348
103	0	0	2061	1585	3847	348
104	0	0	2071	1587	3847	350
105	0	0	2066	1585	3848	351
106	0	0	2032	1585	3845	351
107	0	0	1998	1585	3846	350
108	0	0	1967	1586	3847	349
109	0	0	1947	1589	3846	349
110	0	0	1941	1590	3847	348
111	0	0	1942	1588	3846	348
112	0	0	1940	1589	3848	348
113	0	0	1932	1588	3847	348
114	0	0	1944	1588	3847	346
115	0	0	1962	1587	3846	347
116	0	0	1976	1585	3846	346
117	0	0	2006	1585	3847	341
118	0	0	2046	1586	3847	347
119	0	0	2073	1585	3847	346
120	0	0	2085	1584	3847	347
121	0	0	2099	1584	3847	343
122	0	0	2106	1585	3847	342
123	0	0	2083	1584	3847	344
124	0	0	2043	1584	3847	343
125	0	0	2009	1584	3846	347
126	0	0	1981	1586	3847	346
127	0	0	1965	1586	3848	345
0	0	0	1942	1587	3846	344
1	0	0	1940	1589	3847	343
2	0	0	1949	1589	3846	343
3	0	0	1949	1590	3848	343
4	0	0	1946	1589	3847	343
5	0	0	1958	1588	3847	343
6	0	0	1967	1587	3848	341
7	0	0	1977	1586	3846	339
8	0	0	1998	1584	3847	340
9	0	0	2034	1585	3848	344
10	0	0	2077	1584	3847	338
11	0	0	2112	1585	3847	338
12	0	0	2126	1584	3847	338
13	0	0	2125	1584	3846	338
14	0	0	2105	1582	3847	341
15	0	0	2073	1583	3849	341
16	0	0	2034	1582	3847	341
17	0	0	2000	1583	3846	337
18	0	0	1981	1587	3847	336
19	0	0	1960	1585	3846	340
20	0	0	1935	1585	3847	339
21	0	0	1932	1588	3848	338
22	0	0	1926	1587	3847	335
23	0	0	1903	1586	3847	338
24	0	0	1898	1588	3845	338
25	0	0	1924	1585	3849	337
26	0	0	1986	1588	3848	336
27	0	0	2043	1587	3847	334
28	0	0	2057	1584	3846	335
29	0	0	2052	1584	3846	332
30	0	0	2056	1586	3846	334
31	0	0	2069	1584	3846	335
32	0	0	2097	1584	3846	335
33	0	0	2097	1582	3847	336
34	0	0	2063	1582	3843	333
35	0	0	2026	1582	3847	333
36	0	0	1990	1582	3848	332
37	0	0	1955	1583	3847	334
38	0	0	1924	1586	3846	336
39	0	0	1895	1586	3847	335
40	0	0	1882	1589	3848	334
41	0	0	1892	1587	3847	333
42	0	0	1923	1588	3847	331
43	0	0	1951	1587	3847	333
44	0	0	1961	1588	3847	331
45	0	0	1969	1588	3846	331
46	0	0	1974	1587	3847	331
47	0	0	1991	1586	3846	327
48	0	0	2002	1586	3848	331
49	0	0	2020	1584	3843	331
50	0	0	2068	1583	3846	331
51	0	0	2106	1584	3847	328
52	0	0	2122	1583	3847	325
53	0	0	2104	1583	3846	328
54	0	0	2071	1582	3848	328
55	0	0	2053	1584	3847	331
56	0	0	2037	1584	3847	331
57	0	0	2015	1584	3849	331
58	0	0	1990	1584	3846	328
59	0	0	1958	1585	3847	330
60	0	0	1952	1587	3847	329
61	0	0	1951	1587	3846	329
62	0	0	1953	1589	3847	327
63	0	0	1943	1586	3846	328
64	0	0	1936	1587	3846	327
65	0	0	1948	1587	3845	325
66	0	0	1968	1585	3847	326
67	0	0	2016	1586	3846	323
68	0	0	2058	1586	3846	326
69	0	0	2082	1584	3843	324
70	0	0	2091	1584	3846	323
71	0	0	2090	1583	3847	323
72	0	0	2093	1583	3847	324
73	0	0	2089	1583	3848	327
74	0	0	2074	1583	3845	327
75	0	0	2054	1583	3846	323
76	0	0	2033	1583	3849	322
77	0	0	2020	1585	3846	321
78	0	0	2018	1587	3847	323
79	0	0	2007	1585	3844	323
80	0	0	1974	1584	3847	327
81	0	0	1941	1585	3847	323
82	0	0	1925	1586	3846	324
83	0	0	1929	1587	3848	323
84	0	0	1945	1587	3848	326
85	0	0	1974	1588	3846	322
86	0	0	1989	1586	3847	321
87	0	0	1989	1586	3846	320
88	0	0	1999	1585	3848	321
89	0	0	2046	1584	3847	322
90	0	0	2104	1584	3846	321
91	0	0	2128	1583	3847	321
92	0	0	2138	1584	3848	317
93	0	0	2134	1583	3847	318
94	0	0	2122	1582	3846	319
95	0	0	2101	1583	3844	318
96	0	0	2072	1583	3848	321
97	0	0	2035	1583	3846	320
98	0	0	2009	1585	3845	321
99	0	0	1982	1583	3847	321
100	0	0	1963	1586	3845	320
101	0	0	1954	1586	3847	319
102	0	0	1952	1587	3846	318
103	0	0	1959	1587	3844	318
104	0	0	1973	1587	3847	318
105	0	0	1997	1587	3848	316
106	0	0	2014	1585	3847	317
107	0	0	2026	1586	3847	316
108	0	0	2044	1586	3846	315
109	0	0	2079	1582	3846	315
110	0	0	2118	1584	3844	317
111	0	0	2158	1583	3847	316
112	0	0	2181	1583	3846	314
113	0	0	2189	1584	3846	314
114	0	0	2182	1582	3847	315
115	0	0	2153	1582	3846	313
116	0	0	2123	1582	3847	317
117	0	0	2092	1582	3846	316
118	0	0	2061	1584	3846	318
119	0	0	2025	1584	3846	316
120	0	0	1990	1585	3846	316
121	0	0	1967	1584	3847	315
122	0	0	1952	1586	3846	314
123	0	0	1945	1587	3847	314
124	0	0	1945	1586	3847	314
125	0	0	1962	1587	3847	313
126	0	0	1981	1586	3847	312
127	0	0	2011	1589	3845	312
0	0	0	2051	1584	3846	312
1	0	0	2091	1585	3845	309
2	0	0	2136	1583	3845	308
3	0	0	2175	1583	3844	308
4	0	0	2194	1583	3846	308
5	0	0	2176	1580	3846	313
6	0	0	2141	1580	3846	313
7	0	0	2111	1583	3846	312
8	0	0	2084	1583	3847	310
9	0	0	2049	1582	3847	310
10	0	0	2029	1586	3846	310
11	0	0	2030	1587	3847	311
12	0	0	2030	1588	3848	310
13	0	0	2030	1587	3846	311
14	0	0	2029	1588	3847	310
15	0	0	2039	1587	3846	311
16	0	0	2079	1587	3847	310
17	0	0	2067	1585	3847	309
18	0	0	2038	1587	3847	308
19	0	0	2034	1586	3847	308
20	0	0	2037	1585	3846	308
21	0	0	2046	1582	3846	304
22	0	0	2073	1584	3847	308
23	0	0	2114	1585	3846	307
24	0	0	2160	1583	3846	309
25	0	0	2193	1581	3846	306
26	0	0	2175	1582	3846	305
27	0	0	2137	1580	3846	306
28	0	0	2095	1582	3847	305
29	0	0	2068	1583	3847	308
30	0	0	2062	1583	3846	309
31	0	0	2048	1586	3846	307
32	0	0	2032	1586	3846	307
33	0	0	2014	1587	3847	307
34	0	0	1999	1587	3846	307
35	0	0	1999	1587	3847	305
36	0	0	1986	1587	3844	304
37	0	0	1985	1586	3846	305
38	0	0	2016	1587	3847	303
39	0	0	2043	1585	3846	303
40	0	0	2068	1584	3846	305
41	0	0	2106	1583	3846	304
42	0	0	2136	1583	3846	302
43	0	0	2158	1585	3847	301
44	0	0	2167	1582	3846	302
45	0	0	2155	1582	3846	301
46	0	0	2133	1583	3846	305
47	0	0	2111	1583	3847	303
48	0	0	2088	1585	3847	304
49	0	0	2069	1584	3847	302
50	0	0	2058	1583	3846	301
51	0	0	2036	1585	3846	304
52	0	0	1999	1584	3848	303
53	0	0	1972	1588	3846	302
54	0	0	1974	1587	3846	302
55	0	0	1983	1587	3847	301
56	0	0	1990	1588	3846	302
57	0	0	2014	1588	3849	303
58	0	0	2048	1589	3847	301
59	0	0	2071	1586	3845	300
60	0	0	2098	1585	3846	300
61	0	0	2143	1585	3846	298
62	0	0	2179	1584	3846	298
63	0	0	2195	1588	3846	300
64	0	0	2196	1584	3847	300
65	0	0	2186	1583	3845	300
66	0	0	2170	1585	3846	298
67	0	0	2158	1584	3848	301
68	0	0	2136	1584	3846	297
69	0	0	2096	1582	3846	296
70	0	0	2049	1582	3847	300
71	0	0	2010	1585	3846	300
72	0	0	2003	1588	3847	302
73	0	0	2008	1587	3847	299
74	0	0	2011	1587	3845	299
75	0	0	2025	1587	3846	298
76	0	0	2028	1587	3847	297
77	0	0	2029	1587	3849	299
78	0	0	2041	1588	3847	296
79	0	0	2052	1587	3847	295
80	0	0	2067	1585	3845	296
81	0	0	2094	1587	3845	296
82	0	0	2116	1584	3848	297
83	0	0	2139	1584	3847	293
84	0	0	2158	1584	3846	294
85	0	0	2152	1584	3847	293
86	0	0	2139	1584	3846	291
87	0	0	2107	1582	3848	295
88	0	0	2072	1583	3847	293
89	0	0	2061	1586	3846	291
90	0	0	2063	1587	3846	297
91	0	0	2056	1587	3845	297
92	0	0	2016	1585	3846	295
93	0	0	1979	1584	3846	294
94	0	0	1971	1588	3845	292
95	0	0	1980	1587	3846	295
96	0	0	1981	1588	3847	294
97	0	0	1975	1589	3847	291
98	0	0	1994	1587	3847	292
99	0	0	2035	1587	3847	292
100	0	0	2066	1583	3846	292
101	0	0	2097	1585	3845	292
102	0	0	2138	1585	3848	295
103	0	0	2165	1584	3845	289
104	0	0	2158	1583	3847	289
105	0	0	2139	1582	3846	290
106	0	0	2125	1586	3845	290
107	0	0	2113	1586	3848	293
108	0	0	2112	1586	3847	293
109	0	0	2112	1586	3846	292
110	0	0	2091	1586	3845	289
111	0	0	2053	1585	3846	293
112	0	0	2014	1586	3847	293
113	0	0	1997	1588	3846	291
114	0	0	1987	1588	3846	291
115	0	0	1970	1586	3846	290
116	0	0	1960	1589	3845	290
117	0	0	1984	1589	3846	288
118	0	0	2015	1587	3846	289
119	0	0	2038	1587	3845	289
120	0	0	2062	1586	3845	289
121	0	0	2085	1585	3845	286
122	0	0	2119	1585	3846	285
123	0	0	2139	1584	3846	286
124	0	0	2136	1584	3846	289
125	0	0	2112	1583	3846	289
126	0	0	2098	1585	3846	290
127	0	0	2095	1585	3846	283
0	0	0	2090	1586	3847	286
1	0	0	2067	1583	3846	284
2	0	0	2036	1584	3846	287
3	0	0	1996	1584	3846	289
4	0	0	1960	1587	3846	287
5	0	0	1954	1588	3846	288
6	0	0	1948	1589	3846	287
7	0	0	1948	1589	3846	287
8	0	0	1976	1588	3845	287
9	0	0	2015	1588	3847	286
10	0	0	2040	1587	3847	285
11	0	0	2053	1586	3845	285
12	0	0	2054	1586	3847	284
13	0	0	2060	1585	3845	286
14	0	0	2096	1585	3846	286
15	0	0	2123	1585	3847	285
16	0	0	2129	1583	3846	282
17	0	0	2126	1585	3845	282
18	0	0	2136	1583	3846	283
19	0	0	2145	1585	3847	282
20	0	0	2116	1583	3846	285
21	0	0	2080	1583	3846	285
22	0	0	2061	1586	3845	286
23	0	0	2049	1586	3846	285
24	0	0	2039	1588	3844	282
25	0	0	2055	1588	3845	284
26	0	0	2098	1589	3846	283
27	0	0	2140	1589	3845	284
28	0	0	2202	1585	3845	283
29	0	0	2254	1588	3846	283
30	0	0	2301	1588	3847	282
31	0	0	2349	1586	3846	283
32	0	0	2407	1587	3845	280
33	0	0	2472	1582	3845	278
34	0	0	2528	1585	3845	277
35	0	0	2576	1584	3847	279
36	0	0	2611	1584	3845	279
37	0	0	2629	1584	3846	283
38	0	0	2614	1582	3845	281
39	0	0	2583	1583	3845	280
40	0	0	2545	1583	3846	279
41	0	0	2505	1584	3845	279
42	0	0	2469	1584	3847	280
43	0	0	2430	1585	3845	281
44	0	0	2381	1585	3845	280
45	0	0	2321	1585	3846	279
46	0	0	2262	1585	3846	279
47	0	0	2187	1583	3845	280
48	0	0	2101	1582	3846	280
49	0	0	2006	1584	3847	280
50	0	0	1942	1586	3846	278
51	0	0	1917	1583	3848	278
52	0	0	1905	1585	3846	278
53	0	0	1911	1584	3846	276
54	0	0	1929	1585	3844	278
55	0	0	1936	1583	3846	278
56	0	0	1946	1584	3845	280
57	0	0	1947	1585	3846	275
58	0	0	1932	1585	3847	279
59	0	0	1910	1583	3844	273
60	0	0	1867	1583	3846	276
61	0	0	1831	1583	3845	277
62	0	0	1802	1584	3845	280
63	0	0	1778	1584	3845	279
64	0	0	1750	1585	3845	278
65	0	0	1728	1586	3844	278
66	0	0	1728	1590	3846	277
67	0	0	1752	1588	3845	277
68	0	0	1789	1589	3845	277
69	0	0	1823	1588	3845	274
70	0	0	1849	1588	3846	275
71	0	0	1882	1587	3845	251
72	0	0	1914	1586	3844	274
73	0	0	1961	1586	3844	272
74	0	0	2018	1586	3843	268
75	0	0	2060	1585	3845	271
76	0	0	2075	1584	3845	276
77	0	0	2083	1585	3845	277
78	0	0	2089	1585	3846	276
79	0	0	2082	1585	3845	272
80	0	0	2059	1583	3846	272
81	0	0	2020	1584	3847	272
82	0	0	1996	1585	3847	272
83	0	0	1985	1588	3845	276
84	0	0	1971	1588	3847	275
85	0	0	1956	1588	3847	275
86	0	0	1935	1587	3845	274
87	0	0	1938	1589	3846	272
88	0	0	1951	1589	3848	273
89	0	0	1963	1588	3845	273
90	0	0	1980	1588	3847	272
91	0	0	1994	1587	3845	271
92	0	0	2013	1586	3845	272
93	0	0	2060	1587	3845	271
94	0	0	2115	1586	3845	271
95	0	0	2154	1585	3845	271
96	0	0	2168	1585	3845	270
97	0	0	2172	1587	3845	269
98	0	0	2173	1587	3845	270
99	0	0	2151	1584	3847	271
100	0	0	2128	1586	3846	273
101	0	0	2114	1586	3846	272
102	0	0	2083	1586	3845	273
103	0	0	2034	1587	3844	272
104	0	0	1993	1586	3845	272
105	0	0	1987	1589	3845	271
106	0	0	2012	1589	3845	270
107	0	0	2042	1590	3845	269
108	0	0	2052	1590	3847	272
109	0	0	2053	1590	3847	270
110	0	0	2049	1589	3846	269
111	0	0	2060	1588	3843	267
112	0	0	2103	1587	3845	269
113	0	0	2142	1586	3845	267
114	0	0	2166	1586	3844	265
115	0	0	2182	1585	3846	266
116	0	0	2198	1585	3845	266
117	0	0	2208	1585	3845	269
118	0	0	2218	1588	3844	270
119	0	0	2220	1586	3845	270
120	0	0	2205	1584	3846	266
121	0	0	2171	1585	3846	266
122	0	0	2124	1583	3843	267
123	0	0	2072	1585	3845	269
124	0	0	2030	1587	3845	269
125	0	0	2006	1587	3844	268
126	0	0	1990	1588	3844	268
127	0	0	1985	1591	3844	267
0	0	0	2009	1592	3843	267
1	0	0	2050	1590	3845	267
2	0	0	2081	1588	3846	265
3	0	0	2103	1589	3845	266
4	0	0	2114	1587	3845	265
5	0	0	2126	1588	3844	262
6	0	0	2151	1586	3843	267
7	0	0	2180	1587	3846	265
8	0	0	2200	1586	3845	266
9	0	0	2219	1587	3847	264
10	0	0	2223	1588	3846	263
11	0	0	2199	1585	3843	264
12	0	0	2158	1584	3845	263
13	0	0	2126	1587	3846	266
14	0	0	2105	1589	3844	266
15	0	0	2092	1589	3844	266
16	0	0	2073	1589	3843	266
17	0	0	2049	1588	3846	265
18	0	0	2030	1588	3843	266
19	0	0	2023	1591	3847	263
20	0	0	2031	1591	3845	263
21	0	0	2064	1591	3846	264
22	0	0	2101	1588	3847	263
23	0	0	2128	1589	3846	264
24	0	0	2144	1589	3845	262
25	0	0	2178	1588	3845	263
26	0	0	2211	1588	3845	259
27	0	0	2229	1586	3847	261
28	0	0	2227	1587	3844	260
29	0	0	2229	1587	3844	262
30	0	0	2237	1589	3845	264
31	0	0	2215	1586	3843	264
32	0	0	2185	1587	3846	263
33	0	0	2165	1588	3844	260
34	0	0	2135	1587	3846	260
35	0	0	2093	1587	3845	263
36	0	0	2056	1589	3844	263
37	0	0	2034	1592	3847	262
38	0	0	2036	1591	3845	262
39	0	0	2042	1592	3845	263
40	0	0	2061	1591	3846	258
41	0	0	2085	1591	3847	261
42	0	0	2106	1590	3846	261
43	0	0	2112	1590	3845	261
44	0	0	2116	1590	3845	260
45	0	0	2134	1590	3843	255
46	0	0	2168	1589	3841	257
47	0	0	2205	1589	3845	259
48	0	0	2230	1587	3844	261
49	0	0	2244	1588	3844	261
50	0	0	2240	1588	3844	257
51	0	0	2213	1587	3846	257
52	0	0	2183	1587	3846	258
53	0	0	2155	1588	3845	258
54	0	0	2132	1589	3845	261
55	0	0	2116	1592	3845	260
56	0	0	2094	1590	3846	261
57	0	0	2069	1591	3846	258
58	0	0	2058	1594	3846	258
59	0	0	2057	1594	3844	258
60	0	0	2081	1594	3844	258
61	0	0	2098	1593	3844	258
62	0	0	2127	1594	3846	258
63	0	0	2157	1591	3843	255
64	0	0	2186	1589	3846	256
65	0	0	2198	1589	3844	255
66	0	0	2200	1589	3845	255
67	0	0	2218	1589	3845	256
68	0	0	2242	1589	3844	255
69	0	0	2252	1589	3845	259
70	0	0	2236	1590	3845	254
71	0	0	2214	1589	3845	256
72	0	0	2189	1589	3845	255
73	0	0	2149	1588	3843	255
74	0	0	2116	1591	3845	258
75	0	0	2129	1593	3845	256
76	0	0	2151	1594	3846	256
77	0	0	2143	1593	3845	257
78	0	0	2132	1594	3846	256
79	0	0	2142	1594	3844	256
80	0	0	2153	1595	3844	255
81	0	0	2142	1593	3844	255
82	0	0	2145	1591	3846	255
83	0	0	2177	1590	3842	255
84	0	0	2207	1590	3845	254
85	0	0	2240	1591	3845	255
86	0	0	2266	1590	3848	255
87	0	0	2279	1591	3845	252
88	0	0	2271	1590	3845	252
89	0	0	2252	1589	3845	253
90	0	0	2243	1591	3846	254
91	0	0	2242	1592	3847	256
92	0	0	2227	1591	3846	255
93	0	0	2212	1593	3844	255
94	0	0	2201	1593	3844	252
95	0	0	2189	1594	3845	254
96	0	0	2169	1593	3844	255
97	0	0	2147	1594	3844	254
98	0	0	2144	1595	3846	252
99	0	0	2139	1595	3844	253
100	0	0	2134	1596	3844	253
101	0	0	2130	1595	3843	252
102	0	0	2144	1594	3845	251
103	0	0	2168	1595	3844	253
104	0	0	2197	1593	3844	250
105	0	0	2246	1592	3847	249
106	0	0	2303	1592	3846	249
107	0	0	2338	1590	3846	250
108	0	0	2353	1591	3844	251
109	0	0	2355	1592	3844	255
110	0	0	2349	1592	3845	252
111	0	0	2336	1593	3845	249
112	0	0	2304	1590	3845	249
113	0	0	2269	1591	3844	249
114	0	0	2241	1593	3844	250
115	0	0	2231	1595	3843	252
116	0	0	2204	1593	3845	251
117	0	0	2177	1594	3844	252
118	0	0	2165	1595	3844	251
119	0	0	2164	1598	3844	251
120	0	0	2176	1596	3845	255
121	0	0	2189	1595	3845	248
122	0	0	2218	1596	3846	249
123	0	0	2246	1594	3845	249
124	0	0	2262	1592	3847	249
125	0	0	2256	1594	3844	248
126	0	0	2287	1594	3846	247
127	0	0	2349	1592	3845	247
0	0	0	2399	1592	3844	247
1	0	0	2407	1594	3843	247
2	0	0	2372	1590	3845	251
3	0	0	2316	1591	3847	248
4	0	0	2271	1591	3845	250
5	0	0	2260	1594	3844	250
6	0	0	2257	1596	3843	247
7	0	0	2241	1595	3845	251
8	0	0	2211	1594	3847	249
9	0	0	2193	1595	3845	249
10	0	0	2172	1594	3844	248
11	0	0	2154	1596	3845	247
12	0	0	2152	1598	3846	247
13	0	0	2183	1596	3847	247
14	0	0	2214	1595	3845	248
15	0	0	2244	1596	3844	247
16	0	0	2277	1596	3843	247
17	0	0	2301	1594	3844	243
18	0	0	2323	1593	3846	242
19	0	0	2347	1593	3843	243
20	0	0	2375	1593	3843	244
21	0	0	2374	1592	3844	248
22	0	0	2339	1591	3844	247
23	0	0	2299	1591	3846	248
24	0	0	2253	1592	3845	245
25	0	0	2219	1594	3845	243
26	0	0	2189	1593	3844	245
27	0	0	2147	1594	3844	247
28	0	0	2119	1596	3846	247
29	0	0	2106	1598	3844	247
30	0	0	2094	1597	3846	245
31	0	0	2075	1597	3845	246
32	0	0	2074	1598	3845	245
33	0	0	2093	1598	3846	244
34	0	0	2117	1597	3845	245
35	0	0	2144	1597	3845	243
36	0	0	2163	1597	3844	242
37	0	0	2180	1596	3843	241
38	0	0	2202	1595	3845	243
39	0	0	2218	1593	3844	243
40	0	0	2224	1595	3845	244
41	0	0	2215	1596	3844	241
42	0	0	2189	1593	3845	243
43	0	0	2171	1594	3845	243
44	0	0	2158	1595	3845	241
45	0	0	2131	1593	3845	243
46	0	0	2097	1595	3844	243
47	0	0	2058	1595	3844	245
48	0	0	2026	1596	3844	242
49	0	0	2010	1599	3845	243
50	0	0	2007	1598	3844	244
51	0	0	2016	1598	3841	243
52	0	0	2020	1599	3843	243
53	0	0	2030	1599	3845	242
54	0	0	2044	1598	3845	242
55	0	0	2071	1598	3845	242
56	0	0	2092	1598	3844	241
57	0	0	2111	1595	3843	238
58	0	0	2132	1595	3844	239
59	0	0	2151	1594	3846	241
60	0	0	2167	1596	3844	243
61	0	0	2166	1597	3843	239
62	0	0	2149	1594	3847	240
63	0	0	2113	1594	3844	238
64	0	0	2078	1595	3846	239
65	0	0	2063	1598	3844	243
66	0	0	2055	1598	3841	243
67	0	0	2024	1597	3843	242
68	0	0	1980	1596	3843	243
69	0	0	1928	1597	3845	242
70	0	0	1905	1600	3844	242
71	0	0	1928	1600	3844	241
72	0	0	1965	1599	3845	240
73	0	0	1998	1600	3846	239
74	0	0	2033	1599	3845	239
75	0	0	2080	1598	3844	240
76	0	0	2120	1600	3843	239
77	0	0	2159	1596	3846	240
78	0	0	2191	1597	3847	235
79	0	0	2178	1594	3845	236
80	0	0	2155	1596	3844	237
81	0	0	2156	1597	3841	239
82	0	0	2159	1597	3844	241
83	0	0	2151	1597	3844	240
84	0	0	2110	1595	3845	241
85	0	0	2078	1595	3843	237
86	0	0	2046	1596	3843	237
87	0	0	2023	1597	3846	240
88	0	0	1997	1598	3843	241
89	0	0	1984	1601	3844	240
90	0	0	1969	1601	3845	239
91	0	0	1954	1601	3844	239
92	0	0	1957	1601	3844	238
93	0	0	1972	1601	3845	237
94	0	0	1993	1601	3845	237
95	0	0	2008	1599	3844	236
96	0	0	2027	1599	3844	237
97	0	0	2066	1598	3844	235
98	0	0	2128	1598	3843	235
99	0	0	2172	1597	3845	236
100	0	0	2185	1597	3843	234
101	0	0	2178	1597	3844	238
102	0	0	2157	1596	3843	235
103	0	0	2142	1599	3842	236
104	0	0	2120	1597	3844	235
105	0	0	2092	1597	3843	235
106	0	0	2062	1597	3843	238
107	0	0	2023	1598	3844	237
108	0	0	1992	1600	3845	237
109	0	0	1973	1601	3846	239
110	0	0	1975	1603	3845	236
111	0	0	1981	1602	3844	237
112	0	0	1984	1602	3844	236
113	0	0	2003	1602	3845	235
114	0	0	2025	1602	3844	236
115	0	0	2035	1603	3844	234
116	0	0	2043	1600	3843	236
117	0	0	2073	1600	3843	236
118	0	0	2112	1598	3841	236
119	0	0	2139	1599	3843	231
120	0	0	2146	1598	3843	232
121	0	0	2141	1600	3845	233
122	0	0	2139	1601	3845	233
123	0	0	2140	1601	3844	235
124	0	0	2127	1599	3845	236
125	0	0	2092	1599	3845	235
126	0	0	2056	1600	3843	233
127	0	0	2022	1600	3844	236
0	0	0	2002	1602	3845	234
1	0	0	1991	1603	3842	235
2	0	0	1982	1603	3844	235
3	0	0	1965	1604	3845	234
4	0	0	1984	1602	3845	234
5	0	0	2026	1603	3844	234
6	0	0	2063	1602	3842	232
7	0	0	2070	1602	3839	235
8	0	0	2084	1602	3843	232
9	0	0	2127	1600	3843	230
10	0	0	2173	1601	3845	229
11	0	0	2199	1600	3845	230
12	0	0	2191	1600	3844	233
13	0	0	2171	1599	3845	232
14	0	0	2143	1598	3845	233
15	0	0	2111	1598	3845	230
16	0	0	2092	1600	3843	231
17	0	0	2080	1602	3844	231
18	0	0	2058	1601	3844	232
19	0	0	2023	1601	3846	234
20	0	0	1987	1602	3844	231
21	0	0	1972	1604	3844	232
22	0	0	1968	1605	3844	232
23	0	0	1975	1605	3844	232
24	0	0	1991	1604	3843	232
25	0	0	2017	1604	3844	229
26	0	0	2043	1605	3844	230
27	0	0	2066	1603	3843	231
28	0	0	2086	1602	3845	228
29	0	0	2110	1602	3844	231
30	0	0	2151	1601	3845	231
31	0	0	2184	1601	3845	231
32	0	0	2211	1600	3844	233
33	0	0	2210	1601	3845	231
34	0	0	2172	1598	3843	232
35	0	0	2131	1601	3845	231
36	0	0	2108	1602	3843	233
37	0	0	2078	1601	3844	231
38	0	0	2050	1602	3845	234
39	0	0	2044	1605	3843	232
40	0	0	2033	1605	3844	231
41	0	0	2037	1606	3841	231
42	0	0	2052	1606	3844	230
43	0	0	2055	1606	3846	230
44	0	0	2043	1607	3845	229
45	0	0	2030	1606	3845	229
46	0	0	2031	1606	3845	229
47	0	0	2066	1604	3844	228
48	0	0	2093	1604	3845	226
49	0	0	2102	1604	3844	229
50	0	0	2129	1603	3845	229
51	0	0	2163	1603	3842	228
52	0	0	2192	1603	3844	229
53	0	0	2204	1603	3844	230
54	0	0	2196	1603	3841	231
55	0	0	2167	1601	3844	231
56	0	0	2123	1601	3842	229
57	0	0	2094	1603	3845	229
58	0	0	2080	1606	3843	229
59	0	0	2061	1605	3843	229
60	0	0	2039	1604	3844	227
61	0	0	2004	1604	3844	229
62	0	0	1972	1605	3843	228
63	0	0	1961	1607	3847	227
64	0	0	1969	1608	3843	227
65	0	0	1996	1606	3845	225
66	0	0	2029	1606	3843	226
67	0	0	2061	1606	3844	227
68	0	0	2092	1605	3844	227
69	0	0	2130	1605	3843	226
70	0	0	2179	1605	3843	224
71	0	0	2215	1603	3839	228
72	0	0	2243	1605	3845	227
73	0	0	2248	1604	3844	228
74	0	0	2228	1603	3842	229
75	0	0	2205	1603	3843	227
76	0	0	2169	1602	3842	228
77	0	0	2135	1604	3846	228
78	0	0	2105	1604	3843	228
79	0	0	2073	1605	3841	229
80	0	0	2046	1606	3843	225
81	0	0	2029	1609	3844	226
82	0	0	2026	1608	3844	226
83	0	0	2026	1610	3844	226
84	0	0	2020	1608	3844	227
85	0	0	2035	1609	3846	224
86	0	0	2061	1607	3839	224
87	0	0	2080	1608	3842	225
88	0	0	2100	1607	3843	223
89	0	0	2130	1606	3841	226
90	0	0	2171	1606	3843	225
91	0	0	2205	1605	3843	225
92	0	0	2219	1605	3843	226
93	0	0	2212	1605	3844	226
94	0	0	2197	1605	3844	227
95	0	0	2176	1603	3844	224
96	0	0	2134	1604	3844	226
97	0	0	2100	1606	3846	225
98	0	0	2068	1604	3846	226
99	0	0	2039	1607	3844	225
100	0	0	2033	1611	3845	224
101	0	0	2037	1609	3845	224
102	0	0	2042	1611	3845	224
103	0	0	2040	1610	3844	225
104	0	0	2037	1611	3845	223
105	0	0	2053	1610	3845	223
106	0	0	2074	1609	3845	222
107	0	0	2086	1609	3843	223
108	0	0	2094	1609	3844	220
109	0	0	2114	1607	3844	223
110	0	0	2160	1607	3844	224
111	0	0	2208	1607	3843	222
112	0	0	2241	1607	3843	224
113	0	0	2255	1607	3844	225
114	0	0	2238	1605	3844	223
115	0	0	2204	1605	3843	224
116	0	0	2174	1606	3845	222
117	0	0	2144	1606	3844	224
118	0	0	2109	1606	3845	223
119	0	0	2078	1609	3845	223
120	0	0	2066	1611	3843	223
121	0	0	2061	1612	3843	222
122	0	0	2062	1613	3844	221
123	0	0	2063	1609	3845	221
124	0	0	2052	1611	3843	221
125	0	0	2039	1612	3845	222
126	0	0	2065	1610	3843	222
127	0	0	2123	1611	3843	221
0	0	0	2165	1610	3844	218
1	0	0	2189	1611	3844	221
2	0	0	2207	1609	3843	220
3	0	0	2223	1609	3845	221
4	0	0	2219	1608	3844	222
5	0	0	2202	1607	3844	222
6	0	0	2180	1608	3844	221
7	0	0	2170	1610	3844	222
8	0	0	2152	1608	3843	222
9	0	0	2120	1607	3843	222
10	0	0	2079	1608	3843	223
11	0	0	2041	1609	3843	220
12	0	0	2018	1611	3842	220
13	0	0	2003	1612	3843	220
14	0	0	2000	1614	3844	222
15	0	0	2001	1614	3843	221
16	0	0	2003	1613	3843	220
17	0	0	2024	1613	3844	218
18	0	0	2049	1612	3843	219
19	0	0	2077	1612	3843	219
20	0	0	2106	1611	3844	218
21	0	0	2129	1611	3844	217
22	0	0	2168	1611	3844	220
23	0	0	2215	1610	3845	219
24	0	0	2230	1609	3843	221
25	0	0	2211	1608	3844	219
26	0	0	2180	1609	3845	220
27	0	0	2156	1609	3843	220
28	0	0	2128	1609	3844	219
29	0	0	2084	1608	3843	217
30	0	0	2054	1610	3842	222
31	0	0	2042	1614	3843	220
32	0	0	2037	1614	3843	222
33	0	0	2026	1613	3843	218
34	0	0	2011	1613	3843	219
35	0	0	2008	1614	3845	218
36	0	0	2030	1614	3844	216
37	0	0	2055	1614	3844	217
38	0	0	2078	1614	3844	217
39	0	0	2104	1613	3843	217
40	0	0	2105	1612	3845	216
41	0	0	2103	1612	3844	216
42	0	0	2128	1612	3843	218
43	0	0	2157	1611	3843	216
44	0	0	2173	1611	3842	218
45	0	0	2187	1611	3844	217
46	0	0	2195	1612	3844	217
47	0	0	2181	1611	3843	220
48	0	0	2144	1610	3844	218
49	0	0	2096	1610	3843	218
50	0	0	2056	1611	3843	219
51	0	0	2042	1616	3843	218
52	0	0	2032	1615	3844	218
53	0	0	2010	1613	3842	217
54	0	0	1998	1615	3843	217
55	0	0	1999	1616	3843	217
56	0	0	2022	1618	3844	216
57	0	0	2057	1617	3845	215
58	0	0	2090	1614	3844	214
59	0	0	2112	1614	3843	215
60	0	0	2125	1614	3843	214
61	0	0	2137	1613	3845	216
62	0	0	2153	1614	3843	215
63	0	0	2171	1613	3843	215
64	0	0	2196	1613	3843	216
65	0	0	2205	1612	3843	215
66	0	0	2197	1614	3844	217
67	0	0	2187	1613	3844	217
68	0	0	2173	1613	3842	215
69	0	0	2158	1614	3843	216
70	0	0	2151	1614	3843	217
71	0	0	2131	1614	3843	216
72	0	0	2086	1613	3844	214
73	0	0	2039	1614	3841	214
74	0	0	2012	1614	3843	214
75	0	0	2002	1617	3841	215
76	0	0	2000	1617	3843	212
77	0	0	2009	1616	3843	215
78	0	0	2025	1616	3842	213
79	0	0	2048	1615	3843	214
80	0	0	2083	1616	3843	212
81	0	0	2124	1614	3844	211
82	0	0	2152	1615	3843	215
83	0	0	2169	1613	3844	214
84	0	0	2178	1614	3843	214
85	0	0	2181	1614	3843	215
86	0	0	2173	1613	3844	214
87	0	0	2135	1612	3844	215
88	0	0	2099	1613	3844	214
89	0	0	2078	1615	3844	215
90	0	0	2075	1616	3845	215
91	0	0	2079	1617	3843	214
92	0	0	2059	1615	3843	213
93	0	0	2026	1616	3843	213
94	0	0	2013	1618	3842	212
95	0	0	2025	1618	3843	213
96	0	0	2045	1619	3843	211
97	0	0	2058	1618	3843	211
98	0	0	2055	1617	3844	212
99	0	0	2058	1617	3843	211
100	0	0	2077	1617	3842	211
101	0	0	2105	1616	3844	211
102	0	0	2130	1615	3843	211
103	0	0	2151	1614	3846	210
104	0	0	2169	1615	3843	213
105	0	0	2174	1616	3843	213
106	0	0	2167	1614	3843	214
107	0	0	2160	1615	3843	211
108	0	0	2149	1616	3844	211
109	0	0	2138	1617	3844	212
110	0	0	2110	1616	3840	213
111	0	0	2078	1615	3842	213
112	0	0	2050	1617	3843	211
113	0	0	2028	1617	3843	211
114	0	0	2011	1615	3842	211
115	0	0	2003	1618	3841	212
116	0	0	2020	1618	3841	211
117	0	0	2045	1619	3844	210
118	0	0	2051	1618	3844	210
119	0	0	2053	1619	3843	211
120	0	0	2064	1618	3843	209
121	0	0	2105	1617	3844	213
122	0	0	2178	1617	3843	209
123	0	0	2241	1616	3843	210
124	0	0	2276	1616	3842	211
125	0	0	2280	1617	3842	211
126	0	0	2257	1614	3841	212
127	0	0	2203	1614	3844	210
0	0	0	2144	1613	3844	211
1	0	0	2103	1614	3842	211
2	0	0	2084	1618	3840	213
3	0	0	2090	1620	3843	211
4	0	0	2090	1620	3843	211
5	0	0	2053	1617	3843	210
6	0	0	1997	1617	3842	210
7	0	0	1959	1619	3840	211
8	0	0	1961	1620	3842	207
9	0	0	1982	1622	3843	207
10	0	0	2012	1620	3845	208
11	0	0	2042	1620	3843	207
12	0	0	2086	1619	3843	207
13	0	0	2126	1617	3843	211
14	0	0	2149	1618	3843	208
15	0	0	2166	1619	3843	208
16	0	0	2180	1617	3842	209
17	0	0	2193	1617	3842	212
18	0	0	2191	1618	3841	210
19	0	0	2171	1617	3843	208
20	0	0	2128	1616	3843	210
21	0	0	2080	1616	3843	209
22	0	0	2046	1618	3842	210
23	0	0	2028	1618	3841	211
24	0	0	2012	1618	3842	207
25	0	0	2010	1621	3843	208
26	0	0	2019	1621	3842	208
27	0	0	2018	1622	3842	208
28	0	0	2009	1621	3842	207
29	0	0	2012	1622	3841	208
30	0	0	2024	1621	3845	208
31	0	0	2049	1621	3841	208
32	0	0	2073	1621	3842	206
33	0	0	2083	1619	3841	207
34	0	0	2089	1619	3842	205
35	0	0	2117	1618	3843	206
36	0	0	2161	1618	3841	208
37	0	0	2202	1618	3841	208
38	0	0	2211	1618	3841	207
39	0	0	2179	1618	3842	208
40	0	0	2143	1618	3842	207
41	0	0	2117	1618	3839	210
42	0	0	2095	1620	3842	209
43	0	0	2078	1621	3843	207
44	0	0	2054	1620	3843	207
45	0	0	2035	1622	3843	206
46	0	0	2028	1622	3842	207
47	0	0	2023	1623	3843	205
48	0	0	2031	1623	3843	205
49	0	0	2035	1623	3842	205
50	0	0	2051	1622	3843	205
51	0	0	2074	1621	3841	205
52	0	0	2092	1621	3842	206
53	0	0	2110	1618	3841	204
54	0	0	2131	1621	3842	208
55	0	0	2149	1619	3843	205
56	0	0	2145	1621	3842	206
57	0	0	2146	1622	3842	205
58	0	0	2152	1617	3843	206
59	0	0	2155	1622	3842	206
60	0	0	2158	1621	3841	205
61	0	0	2131	1618	3842	207
62	0	0	2083	1619	3843	205
63	0	0	2034	1620	3842	206
64	0	0	1991	1621	3842	207
65	0	0	1969	1622	3841	204
66	0	0	1966	1623	3841	205
67	0	0	1978	1623	3841	204
68	0	0	2006	1622	3841	204
69	0	0	2029	1624	3842	202
70	0	0	2055	1622	3840	204
71	0	0	2080	1622	3841	204
72	0	0	2103	1622	3841	203
73	0	0	2118	1622	3841	201
74	0	0	2141	1622	3842	204
75	0	0	2148	1620	3841	203
76	0	0	2130	1622	3843	203
77	0	0	2138	1619	3840	205
78	0	0	2152	1620	3842	204
79	0	0	2152	1623	3843	205
80	0	0	2159	1622	3841	205
81	0	0	2172	1623	3843	204
82	0	0	2179	1624	3840	204
83	0	0	2177	1623	3841	205
84	0	0	2179	1625	3841	205
85	0	0	2188	1625	3841	203
86	0	0	2216	1625	3840	203
87	0	0	2273	1625	3842	203
88	0	0	2331	1623	3841	202
89	0	0	2369	1625	3842	201
90	0	0	2397	1625	3841	203
91	0	0	2428	1623	3841	202
92	0	0	2489	1622	3841	201
93	0	0	2543	1622	3841	201
94	0	0	2603	1624	3842	204
95	0	0	2656	1622	3841	202
96	0	0	2692	1622	3841	203
97	0	0	2717	1622	3841	203
98	0	0	2716	1623	3840	201
99	0	0	2690	1623	3841	204
100	0	0	2639	1620	3840	204
101	0	0	2578	1621	3841	203
102	0	0	2505	1622	3843	203
103	0	0	2439	1620	3840	202
104	0	0	2365	1623	3842	201
105	0	0	2280	1622	3840	202
106	0	0	2194	1623	3839	203
107	0	0	2116	1623	3841	200
108	0	0	2040	1623	3841	200
109	0	0	1979	1623	3841	200
110	0	0	1935	1623	3841	200
111	0	0	1916	1624	3839	203
112	0	0	1899	1623	3842	200
113	0	0	1895	1625	3841	199
114	0	0	1911	1624	3841	200
115	0	0	1923	1624	3840	202
116	0	0	1919	1623	3840	201
117	0	0	1915	1623	3840	202
118	0	0	1923	1624	3840	201
119	0	0	1927	1625	3841	201
120	0	0	1894	1622	3840	202
121	0	0	1862	1624	3841	201
122	0	0	1838	1625	3839	203
123	0	0	1825	1625	3840	203
124	0	0	1829	1628	3841	201
125	0	0	1832	1629	3842	200
126	0	0	1826	1627	3840	200
127	0	0	1828	1628	3839	202
0	0	0	1857	1626	3840	199
1	0	0	1904	1627	3840	202
2	0	0	1935	1627	3840	200
3	0	0	1961	1626	3840	199
4	0	0	1997	1625	3840	198
5	0	0	2031	1625	3840	199
6	0	0	2070	1625	3840	199
7	0	0	2107	1625	3840	199
8	0	0	2131	1625	3840	200
