# bioPlux Text File Format
# Version: 1
# StartDateTime: 2011-07-18 14:39:50
# SamplingFrequency: 1000
# SampledChannels: 1 2 3 4 5
# SamplingResolution: 12
# AcquiringDevice: 00:07:80:42:0F:95
# EndOfHeader
0	0	0	1482	4	184	307	3968
1	0	0	1420	4	184	307	3968
2	0	0	1473	5	184	307	3968
3	0	0	1595	5	184	307	3968
4	0	0	1454	4	184	307	3969
5	0	0	1515	5	184	307	3968
6	0	0	1927	4	184	307	3968
7	0	0	2229	5	185	306	3968
8	0	0	2486	5	184	306	3969
9	0	0	2772	5	184	307	3969
10	0	0	2825	4	182	307	3969
11	0	0	2739	4	184	307	3968
12	0	0	2625	4	184	306	3968
13	0	0	2504	4	184	307	3969
14	0	0	2375	4	183	307	3969
15	0	0	2265	4	184	307	3968
16	0	0	2006	4	184	306	3968
17	0	0	1823	4	184	307	3968
18	0	0	1719	4	183	307	3968
19	0	0	1615	4	183	307	3969
20	0	0	1503	5	184	307	3968
21	0	0	1448	4	184	307	3969
22	0	0	1485	5	185	307	3970
23	0	0	1584	5	183	307	3969
24	0	0	1519	4	185	307	3969
25	0	0	1572	5	184	307	3970
26	0	0	1953	5	184	307	3968
27	0	0	2240	5	185	306	3968
28	0	0	2490	5	185	307	3969
29	0	0	2771	5	184	306	3969
30	0	0	2828	4	184	307	3968
31	0	0	2733	4	183	307	3969
32	0	0	2618	4	184	307	3969
33	0	0	2494	4	182	307	3968
34	0	0	2364	4	183	307	3967
35	0	0	2254	4	183	307	3968
36	0	0	1994	4	183	307	3968
37	0	0	1811	4	184	305	3967
38	0	0	1704	4	183	306	3969
39	0	0	1598	4	183	307	3969
40	0	0	1476	4	184	307	3969
41	0	0	1427	4	184	308	3969
42	0	0	1483	5	184	306	3969
43	0	0	1576	5	184	306	3969
44	0	0	1465	4	185	307	3969
45	0	0	1528	5	184	307	3968
46	0	0	1930	5	184	307	3968
47	0	0	2228	5	185	307	3968
48	0	0	2484	5	183	307	3969
49	0	0	2773	5	184	307	3968
50	0	0	2822	4	183	306	3968
51	0	0	2734	4	184	307	3968
52	0	0	2624	4	184	307	3969
53	0	0	2505	4	184	307	3968
54	0	0	2371	4	183	306	3968
55	0	0	2259	4	184	307	3968
56	0	0	1995	4	182	307	3969
57	0	0	1811	4	183	305	3969
58	0	0	1700	4	183	307	3969
59	0	0	1603	4	184	306	3968
60	0	0	1495	4	183	307	3968
61	0	0	1445	4	184	306	3968
62	0	0	1482	5	187	307	3968
63	0	0	1582	5	184	307	3969
64	0	0	1529	4	184	307	3968
65	0	0	1573	5	185	307	3968
66	0	0	1954	5	184	307	3968
67	0	0	2241	5	184	307	3969
68	0	0	2489	5	183	306	3969
69	0	0	2775	5	185	307	3969
70	0	0	2825	4	184	307	3968
71	0	0	2735	4	184	307	3968
72	0	0	2625	4	184	306	3968
73	0	0	2503	4	184	307	3969
74	0	0	2373	4	183	307	3968
75	0	0	2261	4	183	306	3968
76	0	0	2002	4	184	307	3968
77	0	0	1820	4	184	306	3969
78	0	0	1713	4	184	307	3969
79	0	0	1594	4	184	307	3968
80	0	0	1478	4	183	307	3968
81	0	0	1433	4	184	307	3968
82	0	0	1491	5	184	307	3969
83	0	0	1545	5	183	307	3968
84	0	0	1500	5	184	306	3968
85	0	0	1549	4	184	307	3968
86	0	0	1947	5	184	307	3968
87	0	0	2242	5	184	306	3968
88	0	0	2485	5	185	306	3969
89	0	0	2775	5	184	307	3968
90	0	0	2837	4	184	307	3968
91	0	0	2751	4	184	307	3968
92	0	0	2637	4	183	307	3968
93	0	0	2517	4	184	307	3969
94	0	0	2392	4	184	306	3968
95	0	0	2274	4	183	307	3969
96	0	0	2014	4	183	307	3968
97	0	0	1829	4	183	306	3968
98	0	0	1718	4	183	307	3969
99	0	0	1614	4	183	307	3968
100	0	0	1498	4	184	307	3967
101	0	0	1447	4	184	307	3968
102	0	0	1486	5	184	307	3969
103	0	0	1585	5	185	307	3968
104	0	0	1528	4	184	307	3968
105	0	0	1570	5	184	306	3968
106	0	0	1950	5	184	306	3969
107	0	0	2238	5	184	307	3968
108	0	0	2486	5	185	307	3969
109	0	0	2765	5	184	306	3968
110	0	0	2819	4	184	307	3968
111	0	0	2730	4	184	307	3968
112	0	0	2618	4	183	307	3969
113	0	0	2504	4	183	307	3969
114	0	0	2374	4	183	306	3968
115	0	0	2266	4	183	307	3969
116	0	0	2013	4	183	307	3968
117	0	0	1825	4	183	306	3968
118	0	0	1718	4	183	307	3968
119	0	0	1598	4	183	307	3968
120	0	0	1488	4	184	307	3968
121	0	0	1446	4	183	307	3968
122	0	0	1472	4	185	307	3968
123	0	0	1530	5	185	307	3969
124	0	0	1502	4	184	306	3968
125	0	0	1556	5	185	306	3968
126	0	0	1942	5	184	307	3968
127	0	0	2233	5	184	307	3968
0	0	0	2475	5	183	307	3969
1	0	0	2768	5	183	307	3969
2	0	0	2825	5	185	307	3968
3	0	0	2736	4	182	307	3969
4	0	0	2629	4	182	307	3969
5	0	0	2509	4	185	306	3968
6	0	0	2382	4	184	307	3969
7	0	0	2270	5	184	307	3968
8	0	0	2013	4	184	307	3968
9	0	0	1827	4	183	307	3968
10	0	0	1722	4	183	306	3969
11	0	0	1615	4	183	306	3968
12	0	0	1500	4	183	307	3968
13	0	0	1448	4	185	306	3968
14	0	0	1485	5	184	307	3969
15	0	0	1587	4	184	307	3970
16	0	0	1535	4	184	307	3968
17	0	0	1575	5	184	307	3969
18	0	0	1949	5	185	307	3968
19	0	0	2244	5	184	307	3968
20	0	0	2486	5	184	307	3968
21	0	0	2771	5	183	307	3968
22	0	0	2825	4	183	307	3968
23	0	0	2733	4	183	306	3968
24	0	0	2621	4	184	306	3968
25	0	0	2503	4	183	306	3968
26	0	0	2369	4	182	307	3968
27	0	0	2255	4	183	307	3968
28	0	0	2007	4	185	307	3968
29	0	0	1826	4	183	307	3969
30	0	0	1709	4	184	307	3969
31	0	0	1600	4	183	307	3970
32	0	0	1499	4	183	308	3968
33	0	0	1457	5	184	307	3968
34	0	0	1452	5	184	307	3969
35	0	0	1552	5	184	306	3969
36	0	0	1505	4	184	307	3968
37	0	0	1560	5	184	307	3968
38	0	0	1946	5	185	307	3968
39	0	0	2243	5	184	307	3968
40	0	0	2485	5	183	307	3968
41	0	0	2777	5	184	307	3969
42	0	0	2834	5	184	306	3968
43	0	0	2745	5	184	307	3968
44	0	0	2632	4	183	307	3969
45	0	0	2509	4	183	307	3970
46	0	0	2374	5	182	307	3968
47	0	0	2263	4	184	306	3968
48	0	0	2006	4	183	307	3969
49	0	0	1824	4	184	307	3969
50	0	0	1724	4	183	306	3969
51	0	0	1619	4	183	306	3968
52	0	0	1504	4	184	307	3968
53	0	0	1448	4	183	307	3968
54	0	0	1482	5	184	307	3969
55	0	0	1577	5	184	307	3968
56	0	0	1525	4	186	307	3968
57	0	0	1558	5	184	307	3969
58	0	0	1940	5	185	306	3968
59	0	0	2228	5	184	307	3968
60	0	0	2473	5	183	307	3969
61	0	0	2764	5	184	307	3968
62	0	0	2823	4	183	307	3968
63	0	0	2732	4	184	307	3969
64	0	0	2618	4	183	307	3968
65	0	0	2503	4	183	307	3969
66	0	0	2369	4	183	307	3968
67	0	0	2264	4	184	307	3968
68	0	0	2009	4	183	307	3968
69	0	0	1828	4	183	307	3969
70	0	0	1715	4	183	306	3969
71	0	0	1612	4	184	307	3969
72	0	0	1510	4	184	307	3969
73	0	0	1449	4	184	307	3968
74	0	0	1428	5	185	307	3968
75	0	0	1546	5	183	306	3968
76	0	0	1512	4	184	307	3968
77	0	0	1559	4	185	307	3968
78	0	0	1936	5	184	307	3969
79	0	0	2232	5	184	307	3968
80	0	0	2477	5	185	307	3969
81	0	0	2765	5	184	307	3968
82	0	0	2826	4	184	306	3968
83	0	0	2732	5	183	307	3968
84	0	0	2623	4	183	307	3969
85	0	0	2503	4	183	306	3968
86	0	0	2367	4	183	307	3968
87	0	0	2265	3	183	307	3968
88	0	0	2016	4	184	307	3968
89	0	0	1834	4	184	308	3968
90	0	0	1722	4	183	306	3968
91	0	0	1614	3	183	306	3968
92	0	0	1504	4	184	307	3969
93	0	0	1446	4	184	307	3968
94	0	0	1479	5	185	307	3969
95	0	0	1574	5	185	307	3969
96	0	0	1526	4	184	307	3968
97	0	0	1559	6	184	307	3968
98	0	0	1932	4	184	307	3969
99	0	0	2221	5	184	307	3969
100	0	0	2448	5	184	306	3969
101	0	0	2749	5	184	307	3968
102	0	0	2820	4	184	306	3968
103	0	0	2734	4	183	307	3968
104	0	0	2626	4	184	308	3968
105	0	0	2509	4	183	306	3968
106	0	0	2379	3	183	307	3968
107	0	0	2276	4	182	307	3969
108	0	0	2018	4	183	307	3968
109	0	0	1818	4	184	307	3968
110	0	0	1710	4	183	307	3969
111	0	0	1616	4	183	307	3968
112	0	0	1522	4	184	307	3968
113	0	0	1410	4	182	307	3968
114	0	0	1435	5	184	306	3969
115	0	0	1552	5	184	307	3969
116	0	0	1510	4	183	307	3968
117	0	0	1553	6	184	307	3968
118	0	0	1932	5	183	307	3968
119	0	0	2229	5	184	306	3969
120	0	0	2471	5	184	307	3968
121	0	0	2764	5	184	307	3968
122	0	0	2830	4	184	307	3968
123	0	0	2736	4	184	307	3968
124	0	0	2624	4	183	308	3968
125	0	0	2510	4	182	307	3968
126	0	0	2374	3	183	307	3968
127	0	0	2270	4	184	307	3969
0	0	0	2023	4	183	307	3968
1	0	0	1833	4	183	307	3969
2	0	0	1720	4	184	307	3969
3	0	0	1614	4	183	307	3969
4	0	0	1509	3	185	307	3968
5	0	0	1454	4	183	307	3968
6	0	0	1487	4	184	308	3968
7	0	0	1582	5	182	307	3968
8	0	0	1539	5	184	307	3968
9	0	0	1563	5	184	307	3969
10	0	0	1934	5	184	307	3968
11	0	0	2224	5	185	307	3968
12	0	0	2460	5	183	306	3968
13	0	0	2756	5	184	307	3968
14	0	0	2822	5	184	307	3968
15	0	0	2733	4	184	307	3968
16	0	0	2620	4	183	306	3969
17	0	0	2505	4	182	307	3969
18	0	0	2382	4	183	307	3969
19	0	0	2277	4	183	307	3968
20	0	0	2017	4	183	307	3968
21	0	0	1813	5	183	307	3968
22	0	0	1710	4	183	306	3969
23	0	0	1616	5	183	307	3969
24	0	0	1514	4	184	307	3969
25	0	0	1411	4	184	307	3968
26	0	0	1454	5	184	307	3968
27	0	0	1568	5	184	306	3968
28	0	0	1533	4	184	307	3968
29	0	0	1556	5	184	307	3968
30	0	0	1929	5	184	307	3968
31	0	0	2228	5	184	307	3969
32	0	0	2468	5	184	307	3969
33	0	0	2763	5	184	307	3968
34	0	0	2832	4	185	307	3968
35	0	0	2738	4	184	307	3969
36	0	0	2627	4	183	307	3969
37	0	0	2511	4	184	307	3969
38	0	0	2368	4	183	307	3968
39	0	0	2266	4	183	307	3968
40	0	0	2013	4	183	307	3968
41	0	0	1827	4	183	305	3969
42	0	0	1725	4	183	306	3968
43	0	0	1620	4	184	306	3968
44	0	0	1510	5	184	307	3968
45	0	0	1456	4	183	307	3968
46	0	0	1487	5	183	307	3969
47	0	0	1587	5	183	307	3968
48	0	0	1545	4	184	307	3968
49	0	0	1561	5	184	306	3968
50	0	0	1930	5	185	307	3969
51	0	0	2227	5	184	307	3969
52	0	0	2461	5	184	307	3970
53	0	0	2757	5	184	307	3968
54	0	0	2831	5	183	307	3968
55	0	0	2739	4	184	307	3968
56	0	0	2629	4	182	305	3969
57	0	0	2509	4	182	307	3969
58	0	0	2379	4	184	307	3969
59	0	0	2279	5	184	306	3968
60	0	0	2025	4	183	307	3968
61	0	0	1824	4	183	306	3968
62	0	0	1728	4	183	306	3968
63	0	0	1635	4	184	307	3968
64	0	0	1509	4	184	307	3968
65	0	0	1441	4	185	307	3968
66	0	0	1479	5	184	305	3969
67	0	0	1578	5	184	306	3969
68	0	0	1538	4	185	307	3968
69	0	0	1559	5	185	307	3968
70	0	0	1926	5	184	306	3968
71	0	0	2220	5	184	307	3968
72	0	0	2455	5	182	306	3969
73	0	0	2751	5	184	306	3969
74	0	0	2825	5	182	308	3968
75	0	0	2736	4	183	307	3968
76	0	0	2625	4	183	307	3969
77	0	0	2514	4	183	306	3968
78	0	0	2382	4	183	307	3969
79	0	0	2281	4	184	307	3968
80	0	0	2034	4	184	307	3968
81	0	0	1849	4	183	307	3968
82	0	0	1748	4	182	306	3969
83	0	0	1637	4	184	307	3968
84	0	0	1515	4	185	307	3968
85	0	0	1451	4	184	306	3968
86	0	0	1482	5	184	307	3968
87	0	0	1580	5	185	307	3970
88	0	0	1530	4	184	307	3968
89	0	0	1550	5	184	307	3969
90	0	0	1929	5	184	307	3968
91	0	0	2228	5	185	306	3968
92	0	0	2456	5	184	307	3969
93	0	0	2751	5	184	307	3968
94	0	0	2820	4	184	307	3968
95	0	0	2732	4	184	307	3968
96	0	0	2626	4	182	307	3968
97	0	0	2512	4	182	307	3968
98	0	0	2376	4	183	307	3968
99	0	0	2279	4	183	307	3968
100	0	0	2014	3	183	307	3969
101	0	0	1827	4	184	307	3969
102	0	0	1737	4	184	307	3969
103	0	0	1643	4	184	307	3969
104	0	0	1480	4	184	307	3968
105	0	0	1430	4	185	307	3968
106	0	0	1471	5	183	307	3968
107	0	0	1572	5	184	306	3968
108	0	0	1532	4	185	307	3968
109	0	0	1547	5	184	307	3969
110	0	0	1925	5	184	307	3968
111	0	0	2222	5	185	307	3968
112	0	0	2465	5	182	306	3969
113	0	0	2763	5	184	306	3968
114	0	0	2830	4	183	307	3968
115	0	0	2736	3	184	306	3968
116	0	0	2620	4	184	307	3968
117	0	0	2508	4	182	307	3969
118	0	0	2372	4	184	306	3970
119	0	0	2272	5	183	307	3968
120	0	0	2023	3	183	307	3968
121	0	0	1836	4	183	307	3969
122	0	0	1727	4	183	307	3969
123	0	0	1617	4	183	306	3968
124	0	0	1505	4	184	307	3968
125	0	0	1446	4	184	307	3968
126	0	0	1472	5	184	307	3968
127	0	0	1568	5	184	307	3968
0	0	0	1525	4	184	307	3968
1	0	0	1540	5	185	307	3969
2	0	0	1920	5	184	307	3968
3	0	0	2221	5	184	307	3968
4	0	0	2461	5	184	307	3969
5	0	0	2762	5	184	307	3970
6	0	0	2833	6	184	307	3968
7	0	0	2738	4	183	306	3969
8	0	0	2628	4	183	307	3968
9	0	0	2515	4	183	307	3969
10	0	0	2377	5	183	307	3968
11	0	0	2270	4	185	307	3968
12	0	0	2011	4	183	307	3968
13	0	0	1831	4	183	307	3968
14	0	0	1744	4	183	307	3968
15	0	0	1607	4	183	307	3968
16	0	0	1483	4	182	307	3968
17	0	0	1439	4	184	307	3968
18	0	0	1475	5	184	307	3968
19	0	0	1578	5	184	307	3969
20	0	0	1540	4	185	307	3968
21	0	0	1546	5	184	307	3969
22	0	0	1915	5	184	308	3969
23	0	0	2216	5	184	307	3968
24	0	0	2453	5	183	307	3970
25	0	0	2756	5	185	307	3968
26	0	0	2832	4	184	307	3968
27	0	0	2744	3	184	307	3968
28	0	0	2633	4	184	307	3968
29	0	0	2516	3	184	306	3969
30	0	0	2377	4	184	307	3968
31	0	0	2277	4	183	307	3968
32	0	0	2035	4	182	307	3968
33	0	0	1848	4	182	307	3968
34	0	0	1737	4	183	307	3968
35	0	0	1633	4	183	307	3969
36	0	0	1520	6	184	307	3968
37	0	0	1458	4	184	307	3968
38	0	0	1486	5	184	307	3969
39	0	0	1577	5	184	307	3969
40	0	0	1540	4	184	306	3968
41	0	0	1546	5	184	307	3968
42	0	0	1910	5	184	307	3968
43	0	0	2201	5	184	307	3968
44	0	0	2433	5	184	307	3968
45	0	0	2741	5	184	307	3968
46	0	0	2818	4	184	306	3969
47	0	0	2725	4	184	306	3968
48	0	0	2617	4	184	306	3968
49	0	0	2503	4	184	306	3968
50	0	0	2376	5	184	307	3969
51	0	0	2264	4	183	307	3968
52	0	0	2013	3	184	306	3968
53	0	0	1840	4	183	307	3968
54	0	0	1744	4	184	307	3969
55	0	0	1573	4	183	307	3968
56	0	0	1472	4	184	306	3970
57	0	0	1433	4	184	307	3969
58	0	0	1470	5	184	307	3968
59	0	0	1567	5	184	307	3969
60	0	0	1541	4	184	307	3968
61	0	0	1546	5	185	306	3968
62	0	0	1910	6	184	307	3968
63	0	0	2207	5	185	307	3968
64	0	0	2436	5	184	307	3968
65	0	0	2743	5	183	306	3968
66	0	0	2820	5	184	306	3968
67	0	0	2730	4	184	307	3968
68	0	0	2624	4	183	307	3969
69	0	0	2509	4	184	307	3968
70	0	0	2373	4	183	307	3968
71	0	0	2279	4	184	306	3968
72	0	0	2036	4	183	307	3968
73	0	0	1843	4	184	307	3968
74	0	0	1738	4	184	306	3969
75	0	0	1628	5	183	307	3968
76	0	0	1512	4	184	307	3968
77	0	0	1455	3	184	306	3968
78	0	0	1480	5	184	307	3969
79	0	0	1571	5	184	307	3969
80	0	0	1545	4	185	307	3968
81	0	0	1547	5	184	306	3969
82	0	0	1913	5	184	307	3969
83	0	0	2206	5	184	307	3968
84	0	0	2438	5	184	306	3968
85	0	0	2747	5	184	307	3969
86	0	0	2823	4	184	307	3968
87	0	0	2735	5	183	307	3968
88	0	0	2629	4	183	307	3969
89	0	0	2515	4	183	307	3969
90	0	0	2374	4	183	307	3970
91	0	0	2268	4	184	307	3968
92	0	0	2027	4	184	306	3969
93	0	0	1848	4	183	307	3968
94	0	0	1727	4	183	306	3968
95	0	0	1600	4	184	307	3968
96	0	0	1495	4	184	307	3968
97	0	0	1446	4	184	307	3968
98	0	0	1481	5	183	307	3968
99	0	0	1577	5	184	307	3969
100	0	0	1547	4	184	307	3968
101	0	0	1541	5	184	306	3968
102	0	0	1904	5	185	306	3968
103	0	0	2210	5	184	307	3968
104	0	0	2437	5	184	307	3969
105	0	0	2746	5	184	306	3968
106	0	0	2830	4	185	306	3968
107	0	0	2735	5	184	307	3968
108	0	0	2627	4	183	307	3969
109	0	0	2513	4	183	306	3969
110	0	0	2366	5	184	306	3968
111	0	0	2272	4	183	306	3969
112	0	0	2033	4	183	306	3968
113	0	0	1839	4	183	307	3968
114	0	0	1738	4	184	307	3968
115	0	0	1634	4	183	307	3968
116	0	0	1519	4	185	306	3969
117	0	0	1459	4	185	307	3968
118	0	0	1486	4	185	307	3968
119	0	0	1580	5	183	306	3968
120	0	0	1550	3	185	307	3968
121	0	0	1540	5	184	307	3968
122	0	0	1909	4	184	306	3968
123	0	0	2206	5	184	307	3968
124	0	0	2435	5	184	307	3969
125	0	0	2741	5	183	307	3968
126	0	0	2819	5	184	306	3970
127	0	0	2729	4	183	307	3968
0	0	0	2620	4	184	307	3968
1	0	0	2517	4	184	306	3968
2	0	0	2368	4	183	307	3968
3	0	0	2261	4	184	306	3968
4	0	0	2016	4	184	307	3968
5	0	0	1832	4	183	307	3969
6	0	0	1735	4	183	307	3968
7	0	0	1633	4	183	307	3968
8	0	0	1525	4	185	306	3968
9	0	0	1465	4	185	307	3968
10	0	0	1487	5	184	307	3969
11	0	0	1577	5	184	306	3969
12	0	0	1542	4	184	306	3968
13	0	0	1539	5	184	306	3968
14	0	0	1907	4	184	307	3969
15	0	0	2222	5	185	307	3968
16	0	0	2283	5	184	307	3969
17	0	0	2509	5	185	306	3968
18	0	0	2649	5	184	306	3969
19	0	0	2645	5	184	307	3968
20	0	0	2585	4	184	307	3968
21	0	0	2492	4	183	307	3969
22	0	0	2359	4	183	307	3968
23	0	0	2272	4	185	306	3968
24	0	0	2035	4	184	307	3968
25	0	0	1845	4	183	307	3968
26	0	0	1746	4	183	307	3969
27	0	0	1639	4	183	307	3968
28	0	0	1527	4	182	306	3968
29	0	0	1467	4	183	307	3969
30	0	0	1483	5	184	307	3969
31	0	0	1568	5	184	307	3969
32	0	0	1542	4	184	306	3968
33	0	0	1537	5	184	306	3969
34	0	0	1904	5	184	307	3968
35	0	0	2207	5	184	306	3968
36	0	0	2443	5	184	306	3968
37	0	0	2756	5	184	307	3968
38	0	0	2830	5	183	306	3967
39	0	0	2735	4	184	306	3968
40	0	0	2629	4	183	307	3968
41	0	0	2518	4	183	307	3968
42	0	0	2354	4	183	307	3968
43	0	0	2265	5	182	306	3968
44	0	0	2043	3	182	307	3970
45	0	0	1839	4	183	307	3969
46	0	0	1684	4	184	307	3969
47	0	0	1599	4	183	307	3969
48	0	0	1509	4	185	306	3968
49	0	0	1459	5	184	307	3968
50	0	0	1486	5	184	307	3969
51	0	0	1578	5	184	307	3968
52	0	0	1558	4	185	306	3968
53	0	0	1544	5	184	306	3969
54	0	0	1907	4	183	307	3968
55	0	0	2205	5	185	307	3967
56	0	0	2429	5	185	307	3968
57	0	0	2744	5	184	307	3968
58	0	0	2825	5	184	306	3968
59	0	0	2734	5	183	307	3968
60	0	0	2629	4	183	307	3969
61	0	0	2515	4	183	306	3969
62	0	0	2381	3	183	306	3968
63	0	0	2288	4	184	306	3968
64	0	0	2048	4	184	307	3968
65	0	0	1852	3	184	307	3968
66	0	0	1751	4	183	307	3969
67	0	0	1642	4	184	307	3969
68	0	0	1531	4	184	307	3968
69	0	0	1464	4	183	307	3968
70	0	0	1483	5	184	307	3969
71	0	0	1570	5	184	306	3968
72	0	0	1550	4	186	306	3968
73	0	0	1537	5	185	306	3968
74	0	0	1899	5	184	307	3968
75	0	0	2203	5	185	307	3969
76	0	0	2440	5	185	307	3969
77	0	0	2741	5	184	307	3968
78	0	0	2823	5	184	307	3968
79	0	0	2739	3	184	307	3968
80	0	0	2637	4	183	307	3968
81	0	0	2515	5	183	306	3969
82	0	0	2365	4	182	306	3968
83	0	0	2280	4	183	306	3969
84	0	0	2060	4	183	308	3968
85	0	0	1808	4	184	307	3968
86	0	0	1697	4	183	306	3969
87	0	0	1612	4	183	306	3968
88	0	0	1511	4	184	306	3968
89	0	0	1458	4	184	307	3968
90	0	0	1486	5	184	307	3968
91	0	0	1579	5	184	306	3968
92	0	0	1565	4	184	307	3968
93	0	0	1543	5	184	306	3969
94	0	0	1905	6	185	307	3968
95	0	0	2200	5	184	307	3968
96	0	0	2425	5	185	306	3969
97	0	0	2730	5	183	306	3968
98	0	0	2821	5	184	306	3968
99	0	0	2741	6	184	306	3968
100	0	0	2639	4	184	307	3969
101	0	0	2523	4	183	307	3968
102	0	0	2388	4	183	306	3969
103	0	0	2298	5	184	307	3968
104	0	0	2059	5	183	307	3968
105	0	0	1858	4	184	307	3968
106	0	0	1756	4	184	306	3968
107	0	0	1648	4	184	307	3968
108	0	0	1525	4	183	307	3968
109	0	0	1453	4	183	307	3968
110	0	0	1476	5	185	307	3969
111	0	0	1566	5	183	306	3970
112	0	0	1550	4	184	307	3968
113	0	0	1532	5	183	306	3969
114	0	0	1894	5	184	307	3969
115	0	0	2195	5	185	307	3968
116	0	0	2423	5	184	306	3969
117	0	0	2729	5	183	306	3968
118	0	0	2819	5	184	306	3969
119	0	0	2736	5	183	306	3968
120	0	0	2639	3	184	307	3968
121	0	0	2511	4	182	306	3968
122	0	0	2373	4	183	307	3968
123	0	0	2294	4	184	307	3968
124	0	0	2057	5	184	307	3968
125	0	0	1800	4	183	307	3969
126	0	0	1715	4	184	306	3968
127	0	0	1624	5	184	306	3968
0	0	0	1519	4	183	306	3970
1	0	0	1461	4	183	307	3969
2	0	0	1483	5	184	307	3969
3	0	0	1572	5	184	306	3969
4	0	0	1559	4	184	307	3968
5	0	0	1537	4	184	307	3968
6	0	0	1895	5	184	307	3968
7	0	0	2197	5	185	307	3969
8	0	0	2420	5	184	306	3968
9	0	0	2722	5	185	306	3968
10	0	0	2819	5	185	307	3968
11	0	0	2739	4	183	307	3968
12	0	0	2639	4	184	307	3968
13	0	0	2525	4	183	307	3969
14	0	0	2385	4	183	307	3968
15	0	0	2292	4	183	307	3968
16	0	0	2054	4	184	306	3968
17	0	0	1858	4	184	307	3969
18	0	0	1756	5	183	306	3969
19	0	0	1650	4	184	307	3970
20	0	0	1547	5	183	307	3968
21	0	0	1481	5	185	306	3968
22	0	0	1493	5	184	306	3968
23	0	0	1576	5	184	306	3968
24	0	0	1547	4	184	307	3968
25	0	0	1531	5	184	307	3968
26	0	0	1894	6	184	306	3968
27	0	0	2200	5	184	306	3968
28	0	0	2436	5	184	306	3969
29	0	0	2737	5	184	306	3968
30	0	0	2823	5	183	307	3969
31	0	0	2740	5	184	307	3968
32	0	0	2629	4	184	306	3968
33	0	0	2511	4	183	306	3969
34	0	0	2378	4	183	306	3968
35	0	0	2302	4	183	306	3968
36	0	0	2015	4	183	307	3968
37	0	0	1810	4	183	307	3968
38	0	0	1735	4	183	306	3968
39	0	0	1638	4	184	307	3969
40	0	0	1527	5	184	306	3968
41	0	0	1461	4	184	306	3968
42	0	0	1481	4	184	307	3968
43	0	0	1567	5	184	306	3968
44	0	0	1544	4	185	306	3968
45	0	0	1527	5	184	307	3969
46	0	0	1892	5	185	307	3968
47	0	0	2195	5	183	307	3968
48	0	0	2421	5	184	306	3969
49	0	0	2735	5	184	307	3968
50	0	0	2824	4	183	307	3968
51	0	0	2735	4	184	307	3968
52	0	0	2633	4	184	307	3968
53	0	0	2522	4	183	306	3968
54	0	0	2385	5	182	307	3969
55	0	0	2299	4	183	307	3968
56	0	0	2059	4	183	307	3968
57	0	0	1861	4	182	307	3969
58	0	0	1759	4	183	306	3968
59	0	0	1650	4	184	306	3968
60	0	0	1535	4	182	307	3968
61	0	0	1467	5	184	307	3968
62	0	0	1485	5	184	306	3968
63	0	0	1572	5	184	306	3968
64	0	0	1559	4	184	306	3968
65	0	0	1527	5	185	307	3969
66	0	0	1879	5	184	306	3969
67	0	0	2183	5	184	307	3968
68	0	0	2410	5	184	306	3969
69	0	0	2719	6	184	307	3969
70	0	0	2816	5	184	307	3968
71	0	0	2740	4	183	307	3968
72	0	0	2622	4	183	307	3968
73	0	0	2514	4	184	306	3968
74	0	0	2390	4	183	307	3968
75	0	0	2324	4	183	307	3968
76	0	0	2042	4	183	307	3968
77	0	0	1854	4	184	306	3968
78	0	0	1761	4	184	306	3968
79	0	0	1654	4	183	307	3968
80	0	0	1540	4	184	306	3968
81	0	0	1473	4	184	307	3968
82	0	0	1490	5	184	306	3968
83	0	0	1573	6	184	306	3969
84	0	0	1555	4	184	307	3968
85	0	0	1533	4	184	307	3968
86	0	0	1886	6	185	307	3968
87	0	0	2185	5	184	307	3968
88	0	0	2405	5	184	305	3969
89	0	0	2718	5	184	307	3969
90	0	0	2814	5	185	307	3968
91	0	0	2735	5	184	307	3968
92	0	0	2636	4	184	307	3969
93	0	0	2519	4	183	307	3968
94	0	0	2383	4	184	307	3969
95	0	0	2298	4	183	307	3968
96	0	0	2061	4	183	307	3968
97	0	0	1867	4	183	307	3969
98	0	0	1767	4	183	307	3969
99	0	0	1652	5	184	307	3968
100	0	0	1536	4	183	307	3970
101	0	0	1470	4	184	307	3968
102	0	0	1486	5	184	307	3968
103	0	0	1569	5	184	305	3969
104	0	0	1558	4	185	307	3969
105	0	0	1524	5	184	307	3968
106	0	0	1878	5	183	307	3968
107	0	0	2188	5	184	307	3968
108	0	0	2414	5	184	307	3968
109	0	0	2726	5	184	307	3968
110	0	0	2816	5	184	307	3969
111	0	0	2730	4	183	307	3968
112	0	0	2618	3	184	307	3968
113	0	0	2512	4	184	305	3968
114	0	0	2387	3	182	307	3968
115	0	0	2245	4	184	307	3968
116	0	0	1988	4	183	307	3968
117	0	0	1816	4	183	307	3969
118	0	0	1731	4	183	306	3969
119	0	0	1630	4	184	307	3968
120	0	0	1526	4	183	306	3969
121	0	0	1462	4	183	307	3968
122	0	0	1478	5	184	307	3968
123	0	0	1563	5	184	305	3969
124	0	0	1557	4	184	306	3968
125	0	0	1520	5	185	307	3968
126	0	0	1878	5	184	307	3968
127	0	0	2185	5	185	306	3969
0	0	0	2408	5	185	305	3968
1	0	0	2723	5	184	307	3969
2	0	0	2818	6	185	306	3968
3	0	0	2728	5	184	307	3968
4	0	0	2629	5	184	307	3969
5	0	0	2522	4	183	307	3969
6	0	0	2384	4	183	307	3968
7	0	0	2298	4	183	307	3969
8	0	0	2062	4	183	307	3969
9	0	0	1859	4	183	307	3968
10	0	0	1762	4	183	306	3968
11	0	0	1650	3	183	307	3969
12	0	0	1535	4	184	307	3968
13	0	0	1468	4	183	307	3968
14	0	0	1486	5	184	307	3968
15	0	0	1571	5	184	306	3968
16	0	0	1564	4	184	307	3968
17	0	0	1527	5	184	307	3969
18	0	0	1878	5	184	307	3968
19	0	0	2184	5	184	307	3968
20	0	0	2402	5	184	306	3968
21	0	0	2715	5	184	307	3968
22	0	0	2817	5	184	307	3968
23	0	0	2719	5	183	307	3968
24	0	0	2618	4	183	306	3969
25	0	0	2520	4	183	306	3969
26	0	0	2412	4	183	307	3969
27	0	0	2278	3	182	307	3968
28	0	0	2048	4	183	307	3968
29	0	0	1859	4	183	307	3968
30	0	0	1765	4	183	306	3968
31	0	0	1651	4	184	307	3968
32	0	0	1538	4	183	307	3969
33	0	0	1472	4	184	307	3968
34	0	0	1482	5	184	307	3968
35	0	0	1565	5	184	306	3968
36	0	0	1566	4	185	307	3968
37	0	0	1525	5	184	307	3968
38	0	0	1874	4	184	307	3968
39	0	0	2181	5	184	307	3969
40	0	0	2400	5	185	307	3969
41	0	0	2716	6	184	307	3968
42	0	0	2814	5	183	307	3968
43	0	0	2730	4	184	307	3968
44	0	0	2632	4	183	307	3968
45	0	0	2525	4	183	306	3968
46	0	0	2390	4	183	307	3968
47	0	0	2310	4	183	307	3968
48	0	0	2065	4	183	307	3968
49	0	0	1864	5	182	307	3968
50	0	0	1765	4	184	307	3969
51	0	0	1648	4	184	306	3968
52	0	0	1532	4	184	306	3969
53	0	0	1468	4	184	307	3968
54	0	0	1484	5	184	307	3968
55	0	0	1565	5	184	306	3969
56	0	0	1559	4	184	307	3968
57	0	0	1521	5	186	307	3968
58	0	0	1875	5	184	307	3968
59	0	0	2183	5	184	307	3967
60	0	0	2402	5	184	307	3968
61	0	0	2718	4	185	307	3969
62	0	0	2815	5	185	307	3968
63	0	0	2716	4	183	307	3968
64	0	0	2623	4	183	307	3968
65	0	0	2531	4	184	306	3969
66	0	0	2350	4	183	306	3968
67	0	0	2252	4	183	306	3968
68	0	0	2040	4	184	307	3968
69	0	0	1855	4	184	307	3968
70	0	0	1766	4	183	306	3968
71	0	0	1650	4	184	307	3968
72	0	0	1536	4	185	306	3968
73	0	0	1466	5	184	307	3969
74	0	0	1481	5	184	307	3969
75	0	0	1569	5	184	306	3969
76	0	0	1572	3	184	307	3969
77	0	0	1525	5	184	307	3968
78	0	0	1873	5	184	306	3968
79	0	0	2181	5	185	307	3969
80	0	0	2391	5	184	307	3968
81	0	0	2711	5	184	306	3968
82	0	0	2813	5	184	306	3968
83	0	0	2732	5	184	307	3968
84	0	0	2634	4	184	307	3968
85	0	0	2522	4	184	306	3968
86	0	0	2378	4	184	307	3968
87	0	0	2300	4	184	307	3969
88	0	0	2067	4	183	309	3968
89	0	0	1870	4	184	306	3968
90	0	0	1772	4	183	306	3968
91	0	0	1656	3	184	307	3969
92	0	0	1545	4	185	308	3968
93	0	0	1479	4	184	307	3968
94	0	0	1486	5	183	307	3968
95	0	0	1563	5	183	307	3968
96	0	0	1566	4	186	306	3968
97	0	0	1519	5	185	307	3969
98	0	0	1867	5	184	307	3969
99	0	0	2181	5	184	307	3968
100	0	0	2399	5	184	307	3968
101	0	0	2718	6	185	307	3968
102	0	0	2802	5	183	307	3968
103	0	0	2713	4	183	307	3968
104	0	0	2626	4	184	307	3969
105	0	0	2535	4	183	307	3969
106	0	0	2329	3	183	307	3969
107	0	0	2258	4	185	307	3968
108	0	0	2046	4	184	307	3968
109	0	0	1863	5	184	307	3968
110	0	0	1769	4	184	307	3968
111	0	0	1652	3	184	306	3968
112	0	0	1541	4	183	306	3969
113	0	0	1471	4	184	307	3968
114	0	0	1477	5	184	307	3968
115	0	0	1558	5	185	306	3968
116	0	0	1567	3	185	307	3968
117	0	0	1515	5	184	307	3968
118	0	0	1867	5	185	306	3968
119	0	0	2179	5	184	307	3969
120	0	0	2396	5	183	307	3968
121	0	0	2717	5	184	307	3968
122	0	0	2822	5	183	306	3968
123	0	0	2742	4	183	307	3968
124	0	0	2641	4	184	307	3969
125	0	0	2526	4	184	307	3969
126	0	0	2387	4	184	306	3968
127	0	0	2308	4	183	306	3968
0	0	0	2071	4	183	307	3968
1	0	0	1867	5	183	307	3969
2	0	0	1767	4	183	307	3968
3	0	0	1649	3	182	307	3969
4	0	0	1534	4	185	307	3968
5	0	0	1464	4	184	307	3968
6	0	0	1476	5	183	307	3968
7	0	0	1558	5	184	306	3968
8	0	0	1563	4	184	306	3968
9	0	0	1511	5	184	307	3968
10	0	0	1864	5	184	307	3969
11	0	0	2173	6	185	306	3968
12	0	0	2383	5	184	307	3969
13	0	0	2702	5	184	307	3968
14	0	0	2796	5	184	306	3968
15	0	0	2719	4	184	307	3968
16	0	0	2639	4	183	307	3969
17	0	0	2493	4	182	306	3968
18	0	0	2317	4	183	307	3968
19	0	0	2261	4	183	307	3968
20	0	0	2053	4	183	307	3968
21	0	0	1862	4	184	307	3967
22	0	0	1766	4	183	307	3968
23	0	0	1652	4	184	307	3968
24	0	0	1543	4	183	307	3968
25	0	0	1472	4	185	307	3969
26	0	0	1482	5	184	307	3968
27	0	0	1563	5	183	306	3969
28	0	0	1568	4	184	307	3968
29	0	0	1513	6	184	307	3968
30	0	0	1861	5	184	306	3969
31	0	0	2172	5	184	306	3968
32	0	0	2388	5	185	306	3968
33	0	0	2708	5	184	307	3969
34	0	0	2817	5	185	306	3968
35	0	0	2732	4	183	307	3968
36	0	0	2630	4	184	307	3969
37	0	0	2521	4	184	307	3968
38	0	0	2382	4	184	306	3968
39	0	0	2307	4	183	307	3969
40	0	0	2071	4	184	307	3969
41	0	0	1870	4	183	307	3968
42	0	0	1772	4	183	307	3968
43	0	0	1656	4	183	307	3969
44	0	0	1543	4	185	307	3968
45	0	0	1475	4	181	307	3968
46	0	0	1485	5	184	306	3968
47	0	0	1563	5	184	307	3968
48	0	0	1567	4	185	307	3968
49	0	0	1513	5	184	307	3969
50	0	0	1864	5	184	307	3968
51	0	0	2175	5	185	306	3968
52	0	0	2395	5	184	307	3968
53	0	0	2703	5	184	306	3968
54	0	0	2805	5	183	307	3968
55	0	0	2734	4	183	307	3968
56	0	0	2655	4	183	307	3969
57	0	0	2488	4	184	306	3968
58	0	0	2350	4	184	306	3968
59	0	0	2289	5	183	306	3968
60	0	0	2070	4	184	307	3968
61	0	0	1870	4	183	307	3969
62	0	0	1768	4	184	306	3969
63	0	0	1653	4	184	307	3969
64	0	0	1539	4	185	307	3968
65	0	0	1466	4	183	307	3968
66	0	0	1474	5	185	307	3968
67	0	0	1555	5	184	307	3968
68	0	0	1573	4	185	307	3968
69	0	0	1512	5	184	307	3968
70	0	0	1860	5	184	306	3968
71	0	0	2174	5	184	307	3968
72	0	0	2386	5	185	307	3969
73	0	0	2707	4	184	306	3967
74	0	0	2812	5	183	306	3968
75	0	0	2735	5	184	307	3968
76	0	0	2635	4	184	307	3968
77	0	0	2524	4	183	307	3969
78	0	0	2380	5	184	307	3968
79	0	0	2302	4	183	306	3968
80	0	0	2067	4	182	307	3968
81	0	0	1864	4	184	307	3968
82	0	0	1766	4	183	307	3968
83	0	0	1650	4	183	307	3968
84	0	0	1533	4	183	306	3968
85	0	0	1462	4	184	307	3968
86	0	0	1467	5	184	307	3968
87	0	0	1547	5	184	306	3968
88	0	0	1563	4	184	307	3968
89	0	0	1504	5	185	307	3968
90	0	0	1849	5	186	306	3968
91	0	0	2171	5	184	307	3968
92	0	0	2389	5	184	307	3969
93	0	0	2693	5	184	307	3968
94	0	0	2805	5	184	306	3969
95	0	0	2738	5	183	306	3959
96	0	0	2626	3	183	307	3969
97	0	0	2481	4	183	306	3969
98	0	0	2356	5	184	306	3968
99	0	0	2295	5	183	307	3969
100	0	0	2074	4	184	307	3968
101	0	0	1874	4	183	307	3969
102	0	0	1773	4	184	307	3968
103	0	0	1657	5	184	307	3968
104	0	0	1543	4	184	307	3968
105	0	0	1469	4	184	306	3967
106	0	0	1477	5	185	307	3968
107	0	0	1561	5	184	307	3968
108	0	0	1576	4	184	307	3968
109	0	0	1514	5	184	307	3968
110	0	0	1849	5	185	306	3968
111	0	0	2163	5	184	307	3969
112	0	0	2377	5	184	307	3968
113	0	0	2703	5	184	306	3968
114	0	0	2813	5	184	306	3969
115	0	0	2737	4	184	307	3969
116	0	0	2639	4	185	307	3968
117	0	0	2536	4	183	307	3969
118	0	0	2396	5	183	307	3968
119	0	0	2322	4	184	306	3969
120	0	0	2090	4	183	307	3968
121	0	0	1880	4	183	307	3969
122	0	0	1773	4	184	307	3968
123	0	0	1657	4	184	306	3968
124	0	0	1544	4	183	306	3967
125	0	0	1469	4	183	306	3968
126	0	0	1474	4	183	307	3969
127	0	0	1554	5	184	306	3969
0	0	0	1565	4	185	307	3968
1	0	0	1506	5	184	306	3969
2	0	0	1852	5	184	307	3969
3	0	0	2174	4	184	306	3969
4	0	0	2380	5	184	307	3969
5	0	0	2688	5	184	307	3968
6	0	0	2808	5	184	306	3968
7	0	0	2755	4	185	307	3968
8	0	0	2598	4	183	307	3968
9	0	0	2489	4	184	307	3968
10	0	0	2365	4	183	307	3968
11	0	0	2302	3	183	306	3967
12	0	0	2082	4	184	306	3968
13	0	0	1879	4	182	307	3968
14	0	0	1779	4	183	307	3968
15	0	0	1661	4	184	307	3968
16	0	0	1542	4	184	306	3969
17	0	0	1465	4	184	307	3969
18	0	0	1469	4	184	307	3969
19	0	0	1550	5	184	307	3969
20	0	0	1569	4	184	307	3968
21	0	0	1504	4	184	306	3968
22	0	0	1843	5	184	307	3968
23	0	0	2160	4	184	307	3968
24	0	0	2376	5	185	306	3968
25	0	0	2702	5	184	307	3969
26	0	0	2817	5	185	306	3968
27	0	0	2743	4	184	307	3968
28	0	0	2644	4	183	307	3968
29	0	0	2535	4	184	307	3968
30	0	0	2391	4	183	307	3968
31	0	0	2313	4	184	306	3969
32	0	0	2080	4	184	307	3969
33	0	0	1870	4	183	307	3969
34	0	0	1772	4	184	307	3969
35	0	0	1657	4	183	307	3968
36	0	0	1546	4	183	306	3969
37	0	0	1473	4	183	307	3968
38	0	0	1475	5	184	307	3968
39	0	0	1556	5	185	307	3968
40	0	0	1574	4	184	307	3968
41	0	0	1505	5	185	307	3968
42	0	0	1845	5	184	306	3968
43	0	0	2167	4	185	307	3969
44	0	0	2362	5	184	306	3969
45	0	0	2681	5	184	307	3969
46	0	0	2815	5	185	306	3968
47	0	0	2757	4	183	307	3968
48	0	0	2611	3	183	307	3968
49	0	0	2511	4	183	306	3968
50	0	0	2379	4	184	306	3968
51	0	0	2308	4	183	306	3969
52	0	0	2086	4	183	306	3969
53	0	0	1876	4	184	307	3968
54	0	0	1776	4	183	307	3969
55	0	0	1664	4	184	307	3968
56	0	0	1550	4	184	307	3968
57	0	0	1474	4	184	307	3968
58	0	0	1478	5	184	307	3969
59	0	0	1556	5	184	306	3968
60	0	0	1577	4	184	307	3968
61	0	0	1507	5	184	306	3968
62	0	0	1848	5	184	307	3968
63	0	0	2167	4	184	307	3968
64	0	0	2387	5	183	306	3969
65	0	0	2702	5	184	306	3968
66	0	0	2816	5	184	306	3969
67	0	0	2739	4	184	307	3968
68	0	0	2639	3	183	307	3968
69	0	0	2531	4	183	306	3969
70	0	0	2389	5	184	307	3968
71	0	0	2312	4	184	306	3968
72	0	0	2083	4	183	307	3968
73	0	0	1877	4	184	307	3969
74	0	0	1781	4	184	307	3968
75	0	0	1663	4	183	307	3969
76	0	0	1546	4	183	306	3968
77	0	0	1470	4	183	307	3968
78	0	0	1474	4	183	307	3968
79	0	0	1553	5	184	306	3968
80	0	0	1573	4	185	307	3968
81	0	0	1502	5	185	306	3969
82	0	0	1844	5	184	307	3968
83	0	0	2156	5	185	307	3969
84	0	0	2362	5	184	307	3970
85	0	0	2694	5	184	307	3968
86	0	0	2825	5	184	306	3968
87	0	0	2705	4	184	307	3968
88	0	0	2609	3	183	307	3968
89	0	0	2525	5	183	307	3969
90	0	0	2397	5	183	307	3968
91	0	0	2326	4	183	306	3968
92	0	0	2101	4	184	307	3969
93	0	0	1889	4	183	306	3968
94	0	0	1782	4	183	306	3968
95	0	0	1664	4	183	307	3967
96	0	0	1546	5	184	306	3968
97	0	0	1469	4	184	307	3968
98	0	0	1473	4	183	306	3969
99	0	0	1549	5	184	306	3968
100	0	0	1582	4	185	306	3968
101	0	0	1496	5	184	307	3968
102	0	0	1833	5	184	307	3968
103	0	0	2149	4	184	307	3968
104	0	0	2362	5	184	307	3968
105	0	0	2689	5	184	307	3969
106	0	0	2808	5	185	306	3968
107	0	0	2735	4	184	307	3968
108	0	0	2636	4	183	307	3969
109	0	0	2520	4	184	307	3968
110	0	0	2378	4	183	307	3969
111	0	0	2310	4	183	306	3968
112	0	0	2080	4	184	307	3968
113	0	0	1874	4	184	307	3968
114	0	0	1770	4	184	307	3969
115	0	0	1659	3	184	307	3968
116	0	0	1550	6	183	307	3970
117	0	0	1474	4	184	307	3968
118	0	0	1474	5	184	306	3969
119	0	0	1553	5	184	307	3968
120	0	0	1585	5	184	306	3968
121	0	0	1497	5	185	306	3968
122	0	0	1840	5	187	307	3968
123	0	0	2150	4	184	307	3968
124	0	0	2364	5	184	306	3968
125	0	0	2696	5	184	307	3968
126	0	0	2821	4	183	307	3968
127	0	0	2693	4	184	307	3968
0	0	0	2615	4	184	307	3968
1	0	0	2522	4	184	306	3967
2	0	0	2382	4	183	307	3969
3	0	0	2313	4	183	306	3968
4	0	0	2087	4	183	307	3968
5	0	0	1871	4	183	307	3970
6	0	0	1771	4	183	306	3968
7	0	0	1656	4	184	307	3968
8	0	0	1545	4	184	306	3968
9	0	0	1472	4	185	307	3969
10	0	0	1473	4	184	307	3968
11	0	0	1548	5	184	306	3968
12	0	0	1582	4	184	307	3968
13	0	0	1496	5	184	307	3968
14	0	0	1836	5	183	307	3968
15	0	0	2158	5	185	307	3968
16	0	0	2375	5	185	307	3969
17	0	0	2692	5	184	306	3968
18	0	0	2806	5	185	306	3969
19	0	0	2732	4	184	307	3969
20	0	0	2634	4	184	307	3969
21	0	0	2528	4	183	307	3968
22	0	0	2383	5	183	306	3968
23	0	0	2313	4	182	306	3968
24	0	0	2086	4	184	307	3968
25	0	0	1871	4	184	307	3968
26	0	0	1773	4	183	307	3968
27	0	0	1658	4	184	307	3969
28	0	0	1544	4	184	306	3968
29	0	0	1469	4	185	306	3968
30	0	0	1475	5	184	307	3968
31	0	0	1552	5	184	307	3967
32	0	0	1581	3	184	307	3968
33	0	0	1495	5	184	306	3968
34	0	0	1827	5	184	307	3968
35	0	0	2144	5	184	306	3968
36	0	0	2363	5	184	306	3968
37	0	0	2705	5	183	306	3968
38	0	0	2813	5	184	307	3968
39	0	0	2736	4	183	307	3969
40	0	0	2648	5	183	307	3969
41	0	0	2541	4	184	307	3969
42	0	0	2388	4	184	307	3968
43	0	0	2319	4	183	307	3968
44	0	0	2099	4	183	306	3968
45	0	0	1886	4	183	307	3968
46	0	0	1778	4	183	306	3968
47	0	0	1657	5	184	307	3969
48	0	0	1546	4	185	307	3968
49	0	0	1472	4	183	307	3968
50	0	0	1474	5	184	307	3969
51	0	0	1546	5	184	307	3968
52	0	0	1583	3	185	306	3968
53	0	0	1493	5	184	306	3968
54	0	0	1821	5	185	307	3968
55	0	0	2150	5	185	307	3969
56	0	0	2368	5	184	307	3968
57	0	0	2695	5	183	307	3968
58	0	0	2816	5	184	306	3969
59	0	0	2739	4	183	307	3969
60	0	0	2643	4	183	307	3968
61	0	0	2534	4	183	307	3969
62	0	0	2391	4	183	307	3969
63	0	0	2317	4	183	306	3968
64	0	0	2094	4	183	307	3968
65	0	0	1878	4	183	306	3968
66	0	0	1779	4	183	307	3968
67	0	0	1662	4	183	307	3968
68	0	0	1552	4	184	306	3967
69	0	0	1472	4	184	307	3968
70	0	0	1469	5	184	307	3969
71	0	0	1547	5	183	306	3968
72	0	0	1586	4	184	307	3968
73	0	0	1499	5	184	306	3968
74	0	0	1811	5	185	306	3968
75	0	0	2134	5	184	307	3968
76	0	0	2366	5	185	307	3969
77	0	0	2709	5	184	306	3968
78	0	0	2793	6	184	306	3968
79	0	0	2727	4	184	306	3968
80	0	0	2640	4	184	306	3968
81	0	0	2537	4	183	307	3968
82	0	0	2393	4	184	307	3968
83	0	0	2322	4	183	306	3968
84	0	0	2100	4	184	306	3968
85	0	0	1883	4	184	307	3968
86	0	0	1773	4	183	307	3968
87	0	0	1649	4	184	306	3969
88	0	0	1542	4	183	307	3968
89	0	0	1466	4	184	306	3968
90	0	0	1464	5	184	307	3969
91	0	0	1540	5	183	307	3968
92	0	0	1575	4	184	307	3968
93	0	0	1489	5	185	307	3968
94	0	0	1820	5	184	306	3968
95	0	0	2147	5	184	307	3968
96	0	0	2355	5	184	307	3968
97	0	0	2680	6	184	307	3969
98	0	0	2812	5	185	306	3968
99	0	0	2738	4	184	306	3968
100	0	0	2641	4	183	307	3968
101	0	0	2533	4	183	307	3968
102	0	0	2388	4	184	307	3968
103	0	0	2315	5	184	307	3968
104	0	0	2093	4	183	306	3969
105	0	0	1880	4	184	307	3969
106	0	0	1783	4	184	307	3968
107	0	0	1667	4	184	307	3968
108	0	0	1559	4	184	307	3968
109	0	0	1481	4	184	306	3968
110	0	0	1479	5	184	307	3968
111	0	0	1551	5	184	307	3968
112	0	0	1582	4	184	307	3968
113	0	0	1486	5	185	307	3968
114	0	0	1803	5	184	306	3968
115	0	0	2134	5	184	307	3969
116	0	0	2361	5	183	306	3968
117	0	0	2627	5	184	306	3969
118	0	0	2738	5	185	306	3968
119	0	0	2690	4	184	307	3968
120	0	0	2616	4	183	307	3969
121	0	0	2522	4	183	307	3969
122	0	0	2386	4	183	307	3968
123	0	0	2317	5	182	307	3968
124	0	0	2095	4	184	306	3968
125	0	0	1881	4	184	307	3969
126	0	0	1781	4	184	307	3969
127	0	0	1661	4	184	307	3968
0	0	0	1553	4	184	307	3968
1	0	0	1481	4	184	306	3968
2	0	0	1482	5	183	307	3969
3	0	0	1556	5	184	306	3968
4	0	0	1593	4	185	307	3968
5	0	0	1499	5	184	307	3968
6	0	0	1828	5	185	307	3968
7	0	0	2147	5	184	307	3968
8	0	0	2360	5	184	306	3969
9	0	0	2681	5	184	306	3968
10	0	0	2804	6	183	307	3968
11	0	0	2730	4	184	306	3969
12	0	0	2636	4	184	307	3969
13	0	0	2526	4	184	307	3968
14	0	0	2387	5	183	306	3968
15	0	0	2317	4	184	306	3968
16	0	0	2097	4	183	306	3969
17	0	0	1878	4	183	307	3968
18	0	0	1779	4	183	307	3968
19	0	0	1659	4	183	307	3968
20	0	0	1552	5	183	307	3968
21	0	0	1478	4	183	307	3968
22	0	0	1476	5	184	307	3968
23	0	0	1548	5	185	306	3968
24	0	0	1585	4	184	307	3968
25	0	0	1478	5	184	307	3968
26	0	0	1810	5	184	307	3970
27	0	0	2149	5	185	307	3969
28	0	0	2388	5	184	307	3968
29	0	0	2676	5	184	307	3968
30	0	0	2819	5	184	306	3968
31	0	0	2752	4	184	306	3968
32	0	0	2652	4	184	307	3969
33	0	0	2538	4	185	307	3969
34	0	0	2385	4	182	306	3969
35	0	0	2318	4	184	307	3968
36	0	0	2100	4	183	306	3968
37	0	0	1888	4	183	307	3969
38	0	0	1787	4	183	306	3969
39	0	0	1665	3	183	307	3968
40	0	0	1551	4	184	307	3968
41	0	0	1469	4	184	307	3969
42	0	0	1467	5	184	307	3969
43	0	0	1545	5	184	307	3968
44	0	0	1588	4	184	307	3968
45	0	0	1492	5	184	307	3968
46	0	0	1813	5	184	307	3969
47	0	0	2142	5	184	307	3969
48	0	0	2353	5	184	307	3969
49	0	0	2669	5	183	307	3969
50	0	0	2800	5	184	306	3968
51	0	0	2732	4	183	306	3968
52	0	0	2641	4	184	307	3969
53	0	0	2533	4	184	307	3969
54	0	0	2385	4	183	307	3968
55	0	0	2315	4	184	307	3968
56	0	0	2097	4	183	307	3969
57	0	0	1881	4	183	307	3968
58	0	0	1782	4	183	307	3969
59	0	0	1665	4	183	307	3968
60	0	0	1557	4	184	307	3968
61	0	0	1477	4	183	306	3969
62	0	0	1470	5	184	307	3970
63	0	0	1546	5	184	307	3969
64	0	0	1582	4	183	307	3968
65	0	0	1473	5	185	307	3969
66	0	0	1803	5	185	307	3969
67	0	0	2140	5	184	307	3969
68	0	0	2294	6	184	306	3968
69	0	0	2609	5	183	307	3969
70	0	0	2765	5	184	309	3968
71	0	0	2716	4	183	306	3968
72	0	0	2628	4	183	307	3968
73	0	0	2525	4	183	307	3969
74	0	0	2389	3	183	307	3968
75	0	0	2320	4	183	307	3968
76	0	0	2097	4	184	307	3969
77	0	0	1883	4	183	307	3969
78	0	0	1782	4	183	306	3969
79	0	0	1663	4	183	307	3968
80	0	0	1553	3	184	307	3968
81	0	0	1477	4	184	307	3968
82	0	0	1479	5	182	307	3969
83	0	0	1558	5	184	307	3969
84	0	0	1601	5	184	307	3968
85	0	0	1502	5	185	307	3968
86	0	0	1817	5	184	307	3969
87	0	0	2145	5	185	307	3969
88	0	0	2358	5	184	307	3969
89	0	0	2674	5	184	307	3968
90	0	0	2803	5	184	307	3968
91	0	0	2735	4	184	306	3968
92	0	0	2643	4	183	307	3969
93	0	0	2535	4	184	307	3968
94	0	0	2394	4	184	307	3968
95	0	0	2329	4	183	306	3968
96	0	0	2109	4	184	306	3968
97	0	0	1886	4	184	307	3969
98	0	0	1775	4	183	307	3968
99	0	0	1658	4	184	307	3968
100	0	0	1555	4	184	307	3968
101	0	0	1479	4	184	306	3968
102	0	0	1473	5	184	307	3969
103	0	0	1554	5	184	306	3968
104	0	0	1589	4	183	307	3969
105	0	0	1489	5	184	307	3968
106	0	0	1817	5	184	306	3968
107	0	0	2156	5	184	306	3969
108	0	0	2297	5	183	307	3969
109	0	0	2632	5	184	307	3968
110	0	0	2792	5	184	307	3969
111	0	0	2736	4	183	307	3969
112	0	0	2644	5	183	307	3969
113	0	0	2538	4	184	307	3968
114	0	0	2388	4	183	307	3968
115	0	0	2324	4	184	307	3968
116	0	0	2110	4	184	307	3968
117	0	0	1895	4	182	307	3969
118	0	0	1797	4	183	307	3969
119	0	0	1677	4	183	307	3968
120	0	0	1574	4	184	307	3968
121	0	0	1492	4	184	307	3969
122	0	0	1480	5	184	307	3969
123	0	0	1547	5	184	307	3968
124	0	0	1579	4	184	307	3968
125	0	0	1481	5	184	307	3968
126	0	0	1804	5	184	307	3969
127	0	0	2134	5	184	307	3969
0	0	0	2348	5	184	307	3969
1	0	0	2671	5	183	307	3969
2	0	0	2811	5	184	307	3968
3	0	0	2738	5	184	306	3968
4	0	0	2641	4	183	307	3969
5	0	0	2536	4	184	307	3968
6	0	0	2386	4	182	307	3968
7	0	0	2321	4	184	307	3968
8	0	0	2112	4	184	307	3968
9	0	0	1894	4	182	307	3968
10	0	0	1791	4	184	307	3968
11	0	0	1672	4	184	307	3968
12	0	0	1571	4	184	307	3968
13	0	0	1490	4	186	307	3968
14	0	0	1480	5	184	306	3969
15	0	0	1546	5	184	307	3970
16	0	0	1570	6	184	307	3969
17	0	0	1474	5	184	307	3969
18	0	0	1805	5	184	307	3969
19	0	0	2130	5	184	306	3969
20	0	0	2327	5	184	307	3968
21	0	0	2657	5	184	307	3968
22	0	0	2806	5	184	307	3968
23	0	0	2743	4	183	307	3968
24	0	0	2651	4	185	306	3968
25	0	0	2542	4	183	307	3968
26	0	0	2389	4	183	307	3969
27	0	0	2325	4	183	308	3968
28	0	0	2118	3	184	307	3968
29	0	0	1902	4	184	307	3968
30	0	0	1790	4	184	307	3969
31	0	0	1671	4	185	307	3968
32	0	0	1571	4	184	307	3969
33	0	0	1490	4	185	307	3968
34	0	0	1478	5	184	307	3969
35	0	0	1544	5	185	306	3968
36	0	0	1585	4	183	307	3968
37	0	0	1482	5	184	307	3968
38	0	0	1802	5	185	307	3968
39	0	0	2130	5	185	307	3968
40	0	0	2337	5	184	307	3968
41	0	0	2660	5	183	307	3969
42	0	0	2807	5	183	307	3968
43	0	0	2736	4	184	307	3968
44	0	0	2644	4	183	307	3969
45	0	0	2533	4	183	307	3968
46	0	0	2382	4	184	307	3968
47	0	0	2320	4	183	306	3969
48	0	0	2111	5	184	307	3969
49	0	0	1892	4	184	307	3969
50	0	0	1788	4	183	306	3968
51	0	0	1669	4	183	307	3968
52	0	0	1571	4	183	307	3968
53	0	0	1489	4	184	307	3969
54	0	0	1480	5	184	307	3969
55	0	0	1525	5	183	307	3969
56	0	0	1559	3	184	307	3968
57	0	0	1465	5	184	306	3968
58	0	0	1803	5	185	307	3968
59	0	0	2077	5	184	306	3968
60	0	0	2303	5	184	307	3968
61	0	0	2647	4	184	307	3968
62	0	0	2807	5	185	307	3968
63	0	0	2743	4	184	307	3968
64	0	0	2649	4	183	307	3969
65	0	0	2542	4	184	307	3969
66	0	0	2389	3	182	307	3970
67	0	0	2323	4	183	307	3968
68	0	0	2113	4	183	307	3969
69	0	0	1896	4	184	307	3969
70	0	0	1795	4	183	307	3968
71	0	0	1675	4	184	307	3968
72	0	0	1573	4	184	306	3968
73	0	0	1487	4	184	307	3968
74	0	0	1473	5	184	307	3968
75	0	0	1537	5	185	307	3968
76	0	0	1582	4	185	307	3968
77	0	0	1483	5	184	307	3968
78	0	0	1804	5	185	306	3968
79	0	0	2135	5	184	307	3968
80	0	0	2339	5	184	307	3968
81	0	0	2665	5	183	307	3968
82	0	0	2816	5	184	307	3969
83	0	0	2747	4	184	307	3970
84	0	0	2644	4	183	307	3968
85	0	0	2534	4	183	307	3968
86	0	0	2384	3	183	307	3968
87	0	0	2317	4	183	307	3968
88	0	0	2109	4	183	307	3968
89	0	0	1890	4	184	307	3969
90	0	0	1790	4	183	307	3968
91	0	0	1672	4	184	306	3968
92	0	0	1566	4	183	307	3968
93	0	0	1487	4	183	307	3968
94	0	0	1477	5	183	306	3968
95	0	0	1530	5	183	307	3968
96	0	0	1582	4	184	306	3968
97	0	0	1494	5	185	306	3968
98	0	0	1779	5	183	307	3969
99	0	0	2086	5	183	306	3969
100	0	0	2311	5	184	307	3968
101	0	0	2654	5	184	307	3968
102	0	0	2818	5	183	307	3968
103	0	0	2752	4	184	307	3969
104	0	0	2651	4	182	307	3968
105	0	0	2540	4	183	307	3968
106	0	0	2382	4	183	307	3968
107	0	0	2321	4	185	307	3968
108	0	0	2117	4	183	307	3968
109	0	0	1898	4	183	306	3968
110	0	0	1791	4	183	307	3968
111	0	0	1667	4	184	307	3968
112	0	0	1567	4	184	307	3968
113	0	0	1489	4	185	307	3968
114	0	0	1478	5	183	306	3969
115	0	0	1546	5	184	307	3968
116	0	0	1597	4	184	307	3968
117	0	0	1487	5	184	307	3968
118	0	0	1800	5	185	307	3969
119	0	0	2137	5	183	307	3969
120	0	0	2347	5	183	307	3969
121	0	0	2675	5	183	307	3969
122	0	0	2817	5	183	307	3968
123	0	0	2748	4	184	305	3968
124	0	0	2652	4	183	307	3968
125	0	0	2545	4	184	307	3969
126	0	0	2393	4	183	307	3968
127	0	0	2325	4	183	307	3968
0	0	0	2120	4	183	307	3969
1	0	0	1898	4	183	306	3968
2	0	0	1791	4	183	307	3969
3	0	0	1676	4	184	307	3968
4	0	0	1575	4	184	307	3968
5	0	0	1495	4	184	307	3969
6	0	0	1466	4	183	306	3969
7	0	0	1529	5	184	307	3968
8	0	0	1587	3	185	307	3968
9	0	0	1492	5	184	307	3968
10	0	0	1755	5	184	308	3968
11	0	0	2096	5	184	306	3968
12	0	0	2328	5	184	307	3968
13	0	0	2661	5	185	307	3968
14	0	0	2815	5	184	307	3968
15	0	0	2751	4	184	306	3968
16	0	0	2654	4	183	307	3968
17	0	0	2546	4	183	307	3968
18	0	0	2394	4	184	307	3969
19	0	0	2330	4	183	307	3968
20	0	0	2123	4	183	307	3969
21	0	0	1903	4	183	307	3970
22	0	0	1795	4	183	306	3969
23	0	0	1676	4	183	306	3968
24	0	0	1580	4	184	307	3969
25	0	0	1496	4	184	307	3969
26	0	0	1476	5	183	306	3969
27	0	0	1543	5	184	307	3968
28	0	0	1592	3	185	307	3968
29	0	0	1482	5	184	307	3968
30	0	0	1792	5	184	307	3968
31	0	0	2127	5	184	306	3968
32	0	0	2336	5	184	307	3968
33	0	0	2659	5	183	306	3968
34	0	0	2811	5	184	306	3968
35	0	0	2748	4	184	308	3968
36	0	0	2656	4	183	307	3969
37	0	0	2547	4	184	307	3969
38	0	0	2396	4	183	307	3970
39	0	0	2334	4	183	307	3968
40	0	0	2128	4	183	308	3969
41	0	0	1900	4	183	306	3969
42	0	0	1790	4	183	307	3968
43	0	0	1673	4	183	307	3968
44	0	0	1577	4	182	307	3968
45	0	0	1493	4	184	307	3968
46	0	0	1467	5	184	307	3969
47	0	0	1539	5	184	307	3969
48	0	0	1595	5	184	306	3978
49	0	0	1452	4	184	307	3968
50	0	0	1723	5	185	307	3969
51	0	0	2080	5	183	306	3968
52	0	0	2317	5	184	307	3968
53	0	0	2649	4	184	307	3968
54	0	0	2806	5	185	307	3969
55	0	0	2746	4	183	308	3969
56	0	0	2654	4	183	306	3969
57	0	0	2542	4	183	307	3968
58	0	0	2389	4	182	307	3968
59	0	0	2322	4	183	307	3968
60	0	0	2116	4	183	308	3968
61	0	0	1897	4	183	307	3969
62	0	0	1793	4	184	307	3968
63	0	0	1672	4	184	307	3968
64	0	0	1574	4	183	307	3968
65	0	0	1491	4	184	306	3968
66	0	0	1480	5	184	306	3968
67	0	0	1546	5	184	307	3968
68	0	0	1592	4	184	307	3968
69	0	0	1479	5	185	307	3969
70	0	0	1790	5	185	307	3970
71	0	0	2127	5	183	307	3969
72	0	0	2339	5	184	307	3969
73	0	0	2661	5	184	307	3970
74	0	0	2817	5	183	307	3970
75	0	0	2751	4	184	307	3969
76	0	0	2655	4	183	307	3969
77	0	0	2540	4	184	307	3968
78	0	0	2387	4	183	307	3968
79	0	0	2327	4	183	307	3968
80	0	0	2127	4	184	307	3969
81	0	0	1903	4	183	307	3968
82	0	0	1795	4	184	306	3968
83	0	0	1673	4	183	307	3969
84	0	0	1583	4	185	307	3968
85	0	0	1487	4	184	307	3969
86	0	0	1464	5	183	306	3969
87	0	0	1540	5	184	306	3969
88	0	0	1609	4	183	307	3968
89	0	0	1454	5	185	307	3969
90	0	0	1755	5	185	307	3968
91	0	0	2112	5	183	306	3969
92	0	0	2330	5	184	307	3969
93	0	0	2655	4	184	307	3968
94	0	0	2812	5	184	307	3968
95	0	0	2748	4	184	307	3968
96	0	0	2657	4	183	307	3969
97	0	0	2544	4	183	307	3968
98	0	0	2389	4	183	307	3968
99	0	0	2320	3	183	307	3968
100	0	0	2115	4	184	307	3968
101	0	0	1894	4	181	306	3968
102	0	0	1786	4	183	307	3968
103	0	0	1665	4	184	307	3968
104	0	0	1563	4	183	307	3969
105	0	0	1485	4	184	307	3970
106	0	0	1473	5	183	307	3969
107	0	0	1536	5	184	307	3970
108	0	0	1603	5	185	307	3968
109	0	0	1486	5	185	307	3969
110	0	0	1784	5	184	307	3968
111	0	0	2119	5	184	307	3969
112	0	0	2331	5	184	307	3968
113	0	0	2655	5	184	307	3968
114	0	0	2801	5	184	306	3968
115	0	0	2742	4	184	307	3968
116	0	0	2650	4	182	306	3968
117	0	0	2542	4	183	307	3968
118	0	0	2398	4	184	307	3968
119	0	0	2329	4	183	306	3968
120	0	0	2118	4	183	307	3969
121	0	0	1896	4	183	307	3970
122	0	0	1788	4	184	307	3968
123	0	0	1668	4	182	307	3969
124	0	0	1567	4	184	307	3969
125	0	0	1472	4	184	307	3968
126	0	0	1460	5	185	307	3969
127	0	0	1545	5	184	306	3973
0	0	0	1600	4	183	307	3968
1	0	0	1443	5	184	307	3968
2	0	0	1754	5	184	307	3968
3	0	0	2112	5	184	306	3968
4	0	0	2332	5	185	307	3968
5	0	0	2655	5	184	307	3968
6	0	0	2803	5	183	306	3968
7	0	0	2752	4	183	307	3968
8	0	0	2660	4	182	306	3968
9	0	0	2551	4	184	307	3969
10	0	0	2406	4	183	307	3968
11	0	0	2337	4	183	307	3968
12	0	0	2123	4	183	307	3968
13	0	0	1894	4	183	307	3969
14	0	0	1786	4	184	307	3968
15	0	0	1669	4	183	307	3968
16	0	0	1565	3	183	307	3968
17	0	0	1484	4	184	307	3968
18	0	0	1471	5	184	307	3969
19	0	0	1542	5	184	307	3968
20	0	0	1611	4	183	307	3968
21	0	0	1496	5	184	307	3968
22	0	0	1787	5	185	307	3969
23	0	0	2118	5	184	307	3968
24	0	0	2326	5	183	307	3970
25	0	0	2648	6	184	307	3968
26	0	0	2804	4	184	307	3968
27	0	0	2747	4	183	307	3968
28	0	0	2652	4	183	307	3969
29	0	0	2544	5	184	307	3968
30	0	0	2403	4	183	307	3968
31	0	0	2342	4	183	307	3968
32	0	0	2125	4	183	307	3968
33	0	0	1893	4	184	306	3969
34	0	0	1782	4	183	307	3968
35	0	0	1664	4	184	306	3969
36	0	0	1553	4	183	307	3969
37	0	0	1467	4	183	307	3968
38	0	0	1467	5	184	307	3969
39	0	0	1550	5	185	307	3968
40	0	0	1574	4	184	307	3968
41	0	0	1454	3	184	307	3969
42	0	0	1763	5	184	307	3968
43	0	0	2123	5	184	307	3969
44	0	0	2341	5	184	307	3968
45	0	0	2658	5	184	306	3968
46	0	0	2810	4	184	307	3969
47	0	0	2753	4	184	307	3969
48	0	0	2658	4	182	307	3968
49	0	0	2547	4	183	307	3969
50	0	0	2402	6	184	306	3968
51	0	0	2339	3	183	307	3968
52	0	0	2127	4	183	307	3968
53	0	0	1894	4	183	307	3968
54	0	0	1782	4	184	307	3968
55	0	0	1660	4	183	306	3968
56	0	0	1557	4	183	307	3968
57	0	0	1479	4	185	307	3968
58	0	0	1472	5	183	307	3969
59	0	0	1544	5	185	307	3968
60	0	0	1614	4	184	307	3968
61	0	0	1490	5	185	307	3968
62	0	0	1784	5	184	307	3968
63	0	0	2126	5	184	307	3968
64	0	0	2342	5	184	307	3968
65	0	0	2660	5	184	307	3969
66	0	0	2811	5	184	307	3969
67	0	0	2751	4	183	307	3968
68	0	0	2660	4	183	307	3969
69	0	0	2550	4	183	307	3968
70	0	0	2406	4	183	306	3969
71	0	0	2340	4	183	307	3968
72	0	0	2126	4	184	307	3968
73	0	0	1892	4	183	307	3968
74	0	0	1777	4	184	307	3968
75	0	0	1660	4	184	307	3968
76	0	0	1543	3	183	307	3969
77	0	0	1462	4	183	307	3968
78	0	0	1468	5	184	307	3969
79	0	0	1559	5	184	307	3969
80	0	0	1580	4	184	307	3968
81	0	0	1469	5	185	307	3969
82	0	0	1775	5	185	306	3969
83	0	0	2125	6	184	306	3968
84	0	0	2339	5	184	307	3968
85	0	0	2660	5	183	306	3969
86	0	0	2817	4	184	307	3968
87	0	0	2760	4	183	307	3968
88	0	0	2670	4	183	307	3968
89	0	0	2562	4	182	307	3968
90	0	0	2415	4	183	307	3968
91	0	0	2342	4	183	307	3968
92	0	0	2133	4	183	307	3968
93	0	0	1899	4	182	307	3969
94	0	0	1783	4	182	307	3970
95	0	0	1657	6	183	307	3968
96	0	0	1557	4	182	307	3968
97	0	0	1474	4	184	307	3969
98	0	0	1461	5	184	307	3968
99	0	0	1528	5	184	306	3968
100	0	0	1603	4	184	307	3968
101	0	0	1479	5	184	307	3968
102	0	0	1769	5	184	307	3968
103	0	0	2116	5	184	307	3968
104	0	0	2336	5	184	306	3968
105	0	0	2658	5	183	306	3969
106	0	0	2814	5	184	307	3969
107	0	0	2754	4	184	307	3968
108	0	0	2659	4	184	307	3970
109	0	0	2550	4	183	306	3968
110	0	0	2406	4	184	307	3968
111	0	0	2338	4	183	306	3969
112	0	0	2127	4	184	307	3968
113	0	0	1894	4	184	307	3969
114	0	0	1784	4	184	307	3968
115	0	0	1661	4	183	307	3968
116	0	0	1550	4	183	307	3968
117	0	0	1475	4	185	308	3968
118	0	0	1477	5	183	307	3968
119	0	0	1498	5	184	307	3968
120	0	0	1557	4	183	306	3969
121	0	0	1458	5	184	308	3968
122	0	0	1764	4	186	307	3968
123	0	0	2121	5	183	307	3969
124	0	0	2340	4	184	306	3968
125	0	0	2660	5	184	306	3970
126	0	0	2817	5	184	307	3969
127	0	0	2759	4	184	307	3969
0	0	0	2671	4	184	307	3969
1	0	0	2560	4	183	307	3968
2	0	0	2408	4	184	307	3968
3	0	0	2342	5	184	307	3968
4	0	0	2137	4	183	307	3968
5	0	0	1902	4	183	306	3968
6	0	0	1785	4	183	307	3968
7	0	0	1663	4	184	307	3968
8	0	0	1564	4	183	307	3968
9	0	0	1480	4	183	307	3968
10	0	0	1464	5	184	307	3968
11	0	0	1528	5	184	307	3969
12	0	0	1602	6	183	307	3968
13	0	0	1477	5	185	307	3968
14	0	0	1768	5	183	307	3970
15	0	0	2115	5	184	306	3969
16	0	0	2336	5	184	306	3970
17	0	0	2663	6	184	307	3968
18	0	0	2823	5	184	307	3968
19	0	0	2765	4	184	307	3969
20	0	0	2668	4	183	307	3968
21	0	0	2555	4	184	307	3969
22	0	0	2407	5	183	307	3968
23	0	0	2340	4	183	307	3968
24	0	0	2128	4	183	307	3969
25	0	0	1891	4	182	307	3968
26	0	0	1785	3	183	307	3968
27	0	0	1640	4	183	307	3968
28	0	0	1533	4	185	306	3968
29	0	0	1466	4	184	307	3968
30	0	0	1489	5	184	307	3969
31	0	0	1516	5	184	307	3968
32	0	0	1598	4	184	306	3968
33	0	0	1482	5	183	307	3968
34	0	0	1779	4	185	307	3968
35	0	0	2138	5	185	307	3969
36	0	0	2352	5	183	307	3968
37	0	0	2672	5	184	307	3968
38	0	0	2833	5	184	306	3968
39	0	0	2776	4	183	307	3969
40	0	0	2679	4	184	307	3968
41	0	0	2565	4	183	307	3968
42	0	0	2417	4	182	307	3968
43	0	0	2346	4	184	307	3968
44	0	0	2130	4	183	307	3968
45	0	0	1884	4	183	306	3968
46	0	0	1770	4	183	307	3969
47	0	0	1644	5	184	306	3968
48	0	0	1542	4	184	307	3969
49	0	0	1462	4	183	307	3970
50	0	0	1452	5	183	306	3968
51	0	0	1523	5	183	307	3969
52	0	0	1601	4	184	307	3968
53	0	0	1475	5	184	307	3968
54	0	0	1770	5	184	307	3969
55	0	0	2121	5	185	307	3968
56	0	0	2346	5	185	307	3969
57	0	0	2673	5	184	306	3968
58	0	0	2834	5	184	307	3968
59	0	0	2774	4	183	307	3969
60	0	0	2676	4	182	307	3968
61	0	0	2566	4	184	307	3969
62	0	0	2413	4	183	307	3968
63	0	0	2340	4	184	305	3968
64	0	0	2127	4	183	307	3969
65	0	0	1887	4	182	308	3969
66	0	0	1767	3	184	307	3968
67	0	0	1630	4	184	307	3968
68	0	0	1533	4	183	307	3968
69	0	0	1465	4	184	307	3968
70	0	0	1404	4	183	307	3969
71	0	0	1458	5	184	307	3968
72	0	0	1563	4	185	306	3968
73	0	0	1457	5	184	308	3968
74	0	0	1761	5	184	307	3968
75	0	0	2124	5	183	307	3968
76	0	0	2349	5	184	307	3968
77	0	0	2675	5	185	306	3969
78	0	0	2846	5	184	307	3969
79	0	0	2788	4	183	306	3968
80	0	0	2690	4	184	307	3969
81	0	0	2572	4	183	306	3968
82	0	0	2418	4	183	306	3969
83	0	0	2348	4	183	307	3969
84	0	0	2137	4	183	307	3968
85	0	0	1891	4	183	307	3969
86	0	0	1766	4	183	307	3968
87	0	0	1638	4	183	307	3968
88	0	0	1539	4	184	306	3968
89	0	0	1456	4	182	307	3969
90	0	0	1445	5	184	307	3968
91	0	0	1518	5	184	307	3969
92	0	0	1600	5	185	306	3968
93	0	0	1471	5	184	307	3968
94	0	0	1764	5	183	307	3967
95	0	0	2125	5	185	307	3968
96	0	0	2354	5	183	306	3968
97	0	0	2684	5	184	306	3970
98	0	0	2847	5	184	307	3969
99	0	0	2786	4	184	307	3969
100	0	0	2687	4	183	307	3969
101	0	0	2570	4	184	307	3969
102	0	0	2416	4	183	307	3968
103	0	0	2339	6	183	307	3968
104	0	0	2125	4	182	307	3969
105	0	0	1888	4	183	307	3968
106	0	0	1751	5	183	307	3968
107	0	0	1622	4	183	306	3968
108	0	0	1532	4	184	305	3968
109	0	0	1472	4	184	307	3968
110	0	0	1418	5	184	307	3969
111	0	0	1497	5	184	306	3968
112	0	0	1583	4	184	307	3968
113	0	0	1461	6	183	306	3968
114	0	0	1760	5	183	308	3968
115	0	0	2129	5	184	306	3969
116	0	0	2356	5	185	307	3968
117	0	0	2683	5	184	307	3968
118	0	0	2856	5	184	307	3969
119	0	0	2804	4	184	307	3969
120	0	0	2702	4	183	307	3968
121	0	0	2581	4	183	307	3969
122	0	0	2424	5	183	307	3968
123	0	0	2342	4	184	307	3968
124	0	0	2127	4	183	307	3969
125	0	0	1876	4	184	307	3968
126	0	0	1754	4	183	307	3968
127	0	0	1628	4	184	307	3968
0	0	0	1528	3	184	307	3968
1	0	0	1445	4	183	307	3968
2	0	0	1436	5	184	306	3969
3	0	0	1509	5	184	307	3968
4	0	0	1600	4	184	307	3968
5	0	0	1464	5	184	307	3968
6	0	0	1757	5	184	307	3968
7	0	0	2126	5	184	306	3968
8	0	0	2355	5	183	307	3968
9	0	0	2685	5	184	306	3969
10	0	0	2857	5	183	307	3969
11	0	0	2800	4	184	307	3969
12	0	0	2694	4	184	307	3969
13	0	0	2571	4	183	307	3968
14	0	0	2420	4	183	306	3969
15	0	0	2346	4	183	307	3968
16	0	0	2130	4	184	307	3968
17	0	0	1874	5	184	306	3968
18	0	0	1733	4	184	307	3969
19	0	0	1612	5	185	307	3968
20	0	0	1531	5	183	307	3968
21	0	0	1419	4	184	307	3969
22	0	0	1378	5	184	306	3969
23	0	0	1473	5	184	307	3968
24	0	0	1580	4	184	307	3968
25	0	0	1455	4	184	306	3968
26	0	0	1757	4	184	307	3968
27	0	0	2129	5	184	306	3969
28	0	0	2359	5	185	307	3968
29	0	0	2691	5	184	307	3968
30	0	0	2869	5	184	307	3968
31	0	0	2808	4	184	307	3969
32	0	0	2704	4	184	307	3969
33	0	0	2580	4	182	306	3968
34	0	0	2420	4	183	306	3969
35	0	0	2343	4	184	307	3968
36	0	0	2128	4	183	307	3969
37	0	0	1873	4	183	307	3969
38	0	0	1748	4	182	307	3968
39	0	0	1620	4	184	307	3968
40	0	0	1520	5	184	307	3968
41	0	0	1432	4	184	307	3968
42	0	0	1423	5	184	306	3969
43	0	0	1497	5	184	307	3968
44	0	0	1587	4	183	307	3968
45	0	0	1448	7	184	307	3968
46	0	0	1746	5	184	307	3968
47	0	0	2124	5	184	306	3968
48	0	0	2365	5	184	306	3967
49	0	0	2702	5	184	306	3968
50	0	0	2877	5	184	307	3968
51	0	0	2826	4	184	307	3969
52	0	0	2715	4	183	306	3969
53	0	0	2584	4	183	307	3969
54	0	0	2426	4	181	308	3968
55	0	0	2346	5	183	307	3968
56	0	0	2138	4	183	306	3969
57	0	0	1864	4	183	306	3968
58	0	0	1733	4	184	307	3969
59	0	0	1615	4	183	307	3968
60	0	0	1531	4	184	307	3968
61	0	0	1400	4	184	307	3968
62	0	0	1398	5	184	306	3968
63	0	0	1488	5	184	307	3968
64	0	0	1602	4	183	307	3968
65	0	0	1469	6	184	307	3968
66	0	0	1766	5	184	307	3968
67	0	0	2144	5	185	307	3969
68	0	0	2379	5	185	307	3968
69	0	0	2716	5	183	307	3969
70	0	0	2892	5	184	307	3969
71	0	0	2829	4	185	307	3968
72	0	0	2724	4	184	307	3970
73	0	0	2590	4	183	307	3968
74	0	0	2430	4	183	307	3969
75	0	0	2349	4	184	306	3969
76	0	0	2132	4	183	307	3968
77	0	0	1869	4	183	307	3969
78	0	0	1737	4	184	307	3968
79	0	0	1604	4	184	307	3968
80	0	0	1505	4	184	306	3968
81	0	0	1422	4	184	306	3968
82	0	0	1412	5	184	306	3968
83	0	0	1487	5	185	307	3968
84	0	0	1592	3	184	307	3968
85	0	0	1453	5	184	307	3968
86	0	0	1747	5	184	307	3968
87	0	0	2129	5	185	306	3969
88	0	0	2370	5	183	307	3970
89	0	0	2714	5	184	307	3968
90	0	0	2900	5	184	307	3968
91	0	0	2851	4	183	307	3969
92	0	0	2741	4	184	306	3968
93	0	0	2607	4	183	306	3968
94	0	0	2441	4	183	307	3968
95	0	0	2354	5	183	307	3968
96	0	0	2125	4	184	307	3968
97	0	0	1845	4	183	306	3968
98	0	0	1718	4	184	307	3968
99	0	0	1599	4	183	307	3968
100	0	0	1469	4	184	307	3968
101	0	0	1359	4	184	307	3968
102	0	0	1362	5	184	307	3969
103	0	0	1461	5	184	307	3968
104	0	0	1580	4	183	307	3968
105	0	0	1447	6	184	307	3968
106	0	0	1754	5	184	307	3968
107	0	0	2145	5	184	306	3968
108	0	0	2391	5	184	307	3968
109	0	0	2735	5	183	306	3969
110	0	0	2921	5	183	307	3969
111	0	0	2859	4	183	307	3968
112	0	0	2744	4	184	306	3968
113	0	0	2611	3	184	307	3969
114	0	0	2439	4	184	307	3968
115	0	0	2346	4	183	307	3968
116	0	0	2123	4	183	307	3969
117	0	0	1848	4	183	306	3968
118	0	0	1712	5	183	307	3969
119	0	0	1578	4	184	307	3968
120	0	0	1472	4	183	307	3969
121	0	0	1387	4	183	307	3969
122	0	0	1377	5	184	306	3969
123	0	0	1462	6	184	307	3968
124	0	0	1578	4	183	307	3968
125	0	0	1444	6	184	307	3968
126	0	0	1750	5	185	307	3968
127	0	0	2149	5	184	307	3968
0	0	0	2400	5	184	306	3968
1	0	0	2750	5	184	307	3968
2	0	0	2943	5	184	307	3968
3	0	0	2887	4	185	307	3968
4	0	0	2768	4	183	306	3968
5	0	0	2621	4	183	307	3968
6	0	0	2447	4	182	307	3969
7	0	0	2355	4	183	307	3968
8	0	0	2109	4	183	307	3968
9	0	0	1829	4	183	307	3969
10	0	0	1703	4	183	307	3968
11	0	0	1594	4	183	306	3969
12	0	0	1453	4	183	307	3969
13	0	0	1369	4	183	307	3969
14	0	0	1372	5	183	306	3969
15	0	0	1468	5	184	306	3968
16	0	0	1592	4	184	306	3968
17	0	0	1453	5	185	308	3968
18	0	0	1757	5	184	307	3967
19	0	0	2157	5	185	307	3968
20	0	0	2406	5	184	306	3968
21	0	0	2760	5	184	307	3969
22	0	0	2958	5	184	307	3968
23	0	0	2892	3	184	307	3968
24	0	0	2772	4	184	305	3969
25	0	0	2626	4	183	307	3970
26	0	0	2448	4	184	307	3968
27	0	0	2350	5	183	307	3968
28	0	0	2116	4	184	307	3968
29	0	0	1835	4	183	307	3969
30	0	0	1697	4	183	307	3968
31	0	0	1565	4	183	306	3968
32	0	0	1458	4	183	306	3969
33	0	0	1368	4	183	307	3968
34	0	0	1361	5	184	307	3969
35	0	0	1449	5	185	307	3968
36	0	0	1568	4	184	306	3968
37	0	0	1438	6	183	307	3968
38	0	0	1744	5	185	307	3968
39	0	0	2152	5	184	306	3968
40	0	0	2416	5	184	307	3969
41	0	0	2775	5	185	308	3969
42	0	0	2968	5	183	307	3968
43	0	0	2903	4	184	306	3969
44	0	0	2782	4	185	307	3969
45	0	0	2633	3	183	307	3968
46	0	0	2452	4	184	307	3968
47	0	0	2341	4	184	307	3969
48	0	0	2095	4	183	307	3969
49	0	0	1817	4	183	307	3969
50	0	0	1688	4	183	306	3972
51	0	0	1530	4	183	306	3968
52	0	0	1390	4	184	307	3968
53	0	0	1323	4	184	307	3968
54	0	0	1339	5	183	305	3968
55	0	0	1440	5	184	307	3969
56	0	0	1572	4	184	308	3968
57	0	0	1439	5	183	307	3968
58	0	0	1757	5	185	307	3969
59	0	0	2169	5	184	307	3969
60	0	0	2421	5	184	307	3968
61	0	0	2776	5	185	306	3968
62	0	0	2974	5	183	307	3968
63	0	0	2913	4	184	307	3969
64	0	0	2787	4	183	306	3968
65	0	0	2637	3	183	306	3968
66	0	0	2453	4	184	306	3969
67	0	0	2350	4	183	306	3968
68	0	0	2112	4	183	307	3968
69	0	0	1822	4	184	307	3969
70	0	0	1681	4	183	307	3968
71	0	0	1544	4	185	307	3968
72	0	0	1436	5	184	307	3968
73	0	0	1352	4	182	307	3968
74	0	0	1349	5	183	306	3968
75	0	0	1442	4	184	307	3968
76	0	0	1571	4	186	307	3968
77	0	0	1437	6	184	307	3969
78	0	0	1749	5	184	307	3968
79	0	0	2163	5	185	307	3968
80	0	0	2421	5	183	306	3968
81	0	0	2778	5	184	307	3969
82	0	0	2980	5	184	307	3969
83	0	0	2917	4	184	307	3969
84	0	0	2791	4	183	306	3968
85	0	0	2645	3	183	307	3969
86	0	0	2466	4	184	306	3968
87	0	0	2345	4	183	307	3968
88	0	0	2104	4	183	307	3969
89	0	0	1830	4	183	306	3968
90	0	0	1708	4	184	307	3969
91	0	0	1559	4	183	307	3968
92	0	0	1450	4	183	307	3969
93	0	0	1369	4	184	307	3970
94	0	0	1367	5	184	306	3969
95	0	0	1454	4	183	307	3968
96	0	0	1575	4	184	307	3969
97	0	0	1443	5	185	307	3968
98	0	0	1757	5	184	307	3968
99	0	0	2167	5	185	306	3968
100	0	0	2428	5	185	307	3968
101	0	0	2781	5	184	306	3968
102	0	0	2979	5	183	307	3968
103	0	0	2912	4	185	307	3968
104	0	0	2789	4	183	307	3968
105	0	0	2634	3	184	307	3969
106	0	0	2444	4	183	308	3968
107	0	0	2338	4	183	307	3968
108	0	0	2111	3	183	307	3968
109	0	0	1824	4	183	306	3969
110	0	0	1680	3	184	306	3968
111	0	0	1545	4	184	307	3969
112	0	0	1444	4	184	307	3968
113	0	0	1354	4	183	307	3968
114	0	0	1350	5	185	307	3969
115	0	0	1445	5	183	307	3968
116	0	0	1578	4	184	307	3969
117	0	0	1446	5	185	307	3968
118	0	0	1750	4	184	307	3968
119	0	0	2166	5	184	307	3968
120	0	0	2425	4	184	307	3969
121	0	0	2780	5	184	306	3968
122	0	0	2981	5	184	307	3968
123	0	0	2915	4	184	307	3968
124	0	0	2790	4	184	307	3969
125	0	0	2644	3	184	306	3968
126	0	0	2465	4	183	307	3968
127	0	0	2330	5	185	307	3969
0	0	0	2089	4	184	307	3968
1	0	0	1807	4	183	306	3969
2	0	0	1667	3	183	306	3968
3	0	0	1538	4	185	307	3968
4	0	0	1437	5	184	307	3969
5	0	0	1355	5	185	307	3968
6	0	0	1354	5	185	307	3969
7	0	0	1449	4	183	307	3968
8	0	0	1582	4	183	306	3967
9	0	0	1449	5	184	306	3968
10	0	0	1757	5	185	307	3969
11	0	0	2175	5	184	307	3969
12	0	0	2430	5	184	307	3969
13	0	0	2653	5	184	307	3968
14	0	0	2814	5	183	307	3969
15	0	0	2809	5	183	307	3969
16	0	0	2735	4	183	307	3969
17	0	0	2612	4	184	306	3968
18	0	0	2440	4	184	307	3969
19	0	0	2332	4	183	307	3969
20	0	0	2099	5	183	307	3968
21	0	0	1816	4	183	307	3969
22	0	0	1678	4	183	307	3968
23	0	0	1546	4	183	306	3969
24	0	0	1441	4	183	307	3969
25	0	0	1354	4	184	307	3968
26	0	0	1347	5	184	307	3969
27	0	0	1440	5	184	307	3968
28	0	0	1577	4	184	306	3968
29	0	0	1441	5	184	306	3968
30	0	0	1742	5	185	307	3969
31	0	0	2168	5	185	307	3969
32	0	0	2435	5	184	307	3968
33	0	0	2788	5	184	306	3968
34	0	0	2984	5	183	307	3968
35	0	0	2922	4	183	307	3969
36	0	0	2791	4	183	307	3969
37	0	0	2637	3	184	307	3969
38	0	0	2450	4	185	307	3968
39	0	0	2332	4	183	307	3968
40	0	0	2108	5	183	307	3968
41	0	0	1835	4	183	307	3968
42	0	0	1658	3	183	307	3968
43	0	0	1507	4	184	307	3968
44	0	0	1424	4	182	307	3968
45	0	0	1353	4	184	306	3969
46	0	0	1358	5	183	307	3969
47	0	0	1452	4	184	307	3968
48	0	0	1579	6	185	307	3968
49	0	0	1451	5	184	306	3968
50	0	0	1760	6	184	307	3969
51	0	0	2185	5	185	307	3969
52	0	0	2443	5	184	306	3968
53	0	0	2789	5	184	306	3969
54	0	0	2994	5	184	307	3969
55	0	0	2926	5	184	306	3968
56	0	0	2795	4	183	306	3968
57	0	0	2644	4	183	306	3968
58	0	0	2459	4	183	307	3968
59	0	0	2352	4	182	307	3968
60	0	0	2119	4	183	307	3969
61	0	0	1824	4	184	306	3968
62	0	0	1672	4	183	306	3968
63	0	0	1533	4	183	307	3969
64	0	0	1442	3	183	307	3969
65	0	0	1354	5	184	307	3968
66	0	0	1350	5	184	307	3969
67	0	0	1444	5	184	307	3968
68	0	0	1579	5	184	307	3968
69	0	0	1440	5	183	308	3968
70	0	0	1740	5	185	306	3967
71	0	0	2166	5	185	306	3968
72	0	0	2428	5	184	307	3969
73	0	0	2778	5	185	307	3968
74	0	0	2983	6	183	307	3968
75	0	0	2930	3	184	307	3968
76	0	0	2797	4	184	307	3968
77	0	0	2648	4	183	307	3968
78	0	0	2444	4	183	307	3969
79	0	0	2339	4	183	306	3969
80	0	0	2112	4	182	307	3969
81	0	0	1848	4	183	307	3969
82	0	0	1666	4	184	306	3968
83	0	0	1539	4	184	306	3969
84	0	0	1449	4	184	307	3969
85	0	0	1368	3	184	307	3968
86	0	0	1359	5	183	307	3969
87	0	0	1446	4	183	306	3968
88	0	0	1576	5	184	307	3968
89	0	0	1441	5	185	307	3968
90	0	0	1739	5	184	307	3968
91	0	0	2163	5	183	307	3969
92	0	0	2418	5	184	307	3968
93	0	0	2769	5	184	307	3969
94	0	0	2984	5	184	307	3969
95	0	0	2927	4	183	307	3968
96	0	0	2799	4	184	307	3969
97	0	0	2648	4	183	307	3968
98	0	0	2467	4	183	307	3969
99	0	0	2353	3	183	306	3969
100	0	0	2115	3	184	307	3968
101	0	0	1820	4	183	307	3969
102	0	0	1672	4	183	307	3968
103	0	0	1541	4	183	307	3969
104	0	0	1444	4	184	307	3969
105	0	0	1353	4	184	307	3968
106	0	0	1344	5	184	306	3968
107	0	0	1438	5	184	307	3969
108	0	0	1576	4	185	307	3968
109	0	0	1441	5	183	307	3968
110	0	0	1738	5	184	306	3968
111	0	0	2165	5	185	306	3968
112	0	0	2427	4	185	308	3968
113	0	0	2775	5	184	306	3968
114	0	0	2981	6	184	306	3968
115	0	0	2928	4	183	307	3969
116	0	0	2797	4	183	307	3968
117	0	0	2639	4	183	307	3968
118	0	0	2447	4	183	306	3969
119	0	0	2346	4	183	307	3969
120	0	0	2127	4	183	307	3968
121	0	0	1816	4	183	306	3969
122	0	0	1647	4	184	307	3968
123	0	0	1521	4	183	306	3968
124	0	0	1434	4	184	307	3968
125	0	0	1352	3	184	307	3968
126	0	0	1344	5	184	306	3968
127	0	0	1436	6	185	307	3968
0	0	0	1576	4	184	307	3968
1	0	0	1442	5	184	306	3968
2	0	0	1738	5	184	307	3969
3	0	0	2163	5	184	307	3969
4	0	0	2429	5	185	307	3968
5	0	0	2781	5	184	306	3969
6	0	0	2989	5	184	307	3969
7	0	0	2933	3	183	307	3968
8	0	0	2801	4	184	307	3969
9	0	0	2644	4	183	307	3968
10	0	0	2463	4	184	306	3969
11	0	0	2344	4	183	307	3968
12	0	0	2117	3	183	307	3968
13	0	0	1828	4	183	307	3968
14	0	0	1676	4	183	307	3968
15	0	0	1544	4	183	306	3968
16	0	0	1448	4	184	306	3967
17	0	0	1354	4	184	307	3968
18	0	0	1349	5	184	307	3968
19	0	0	1439	5	184	306	3968
20	0	0	1578	4	184	306	3968
21	0	0	1450	5	184	307	3968
22	0	0	1740	5	184	307	3969
23	0	0	2160	5	185	307	3968
24	0	0	2427	5	184	307	3968
25	0	0	2780	5	184	306	3969
26	0	0	2988	5	184	307	3969
27	0	0	2922	4	183	306	3968
28	0	0	2800	4	183	307	3969
29	0	0	2634	4	183	306	3968
30	0	0	2456	4	183	306	3968
31	0	0	2348	4	183	307	3968
32	0	0	2144	3	184	307	3968
33	0	0	1806	4	183	306	3968
34	0	0	1666	4	183	307	3968
35	0	0	1546	4	183	306	3968
36	0	0	1446	4	184	307	3968
37	0	0	1357	4	183	306	3969
38	0	0	1346	5	184	307	3968
39	0	0	1440	5	183	306	3968
40	0	0	1581	4	184	307	3968
41	0	0	1442	5	184	306	3967
42	0	0	1730	4	184	307	3968
43	0	0	2161	5	185	307	3969
44	0	0	2426	5	184	307	3968
45	0	0	2778	5	184	307	3968
46	0	0	2987	5	184	307	3969
47	0	0	2933	3	184	306	3968
48	0	0	2807	4	184	307	3969
49	0	0	2652	5	184	307	3968
50	0	0	2477	4	184	307	3968
51	0	0	2352	3	183	307	3969
52	0	0	2123	4	182	307	3968
53	0	0	1830	4	183	307	3969
54	0	0	1677	4	183	307	3968
55	0	0	1546	4	183	306	3968
56	0	0	1449	4	183	307	3968
57	0	0	1359	4	184	307	3968
58	0	0	1347	5	184	307	3968
59	0	0	1436	5	184	307	3969
60	0	0	1568	5	185	306	3968
61	0	0	1440	5	185	307	3968
62	0	0	1738	4	185	307	3968
63	0	0	2161	5	184	306	3969
64	0	0	2420	5	183	306	3968
65	0	0	2773	5	185	306	3968
66	0	0	2992	5	184	306	3968
67	0	0	2939	4	184	307	3968
68	0	0	2807	4	183	307	3968
69	0	0	2634	5	184	307	3968
70	0	0	2458	4	183	307	3968
71	0	0	2359	4	183	307	3971
72	0	0	2126	4	183	307	3969
73	0	0	1806	4	183	306	3968
74	0	0	1668	4	183	307	3968
75	0	0	1544	4	183	307	3968
76	0	0	1444	4	184	307	3968
77	0	0	1358	4	184	307	3969
78	0	0	1345	5	183	306	3968
79	0	0	1432	5	184	306	3969
80	0	0	1574	5	185	308	3968
81	0	0	1443	5	184	307	3968
82	0	0	1733	5	185	307	3968
83	0	0	2163	5	184	307	3968
84	0	0	2431	5	185	307	3969
85	0	0	2788	5	184	308	3969
86	0	0	3000	5	184	307	3969
87	0	0	2942	4	184	307	3969
88	0	0	2805	4	183	307	3969
89	0	0	2648	4	183	306	3969
90	0	0	2465	4	184	307	3968
91	0	0	2339	4	183	306	3968
92	0	0	2121	4	184	307	3969
93	0	0	1833	4	184	307	3968
94	0	0	1679	4	183	307	3969
95	0	0	1550	4	186	307	3967
96	0	0	1447	4	184	307	3968
97	0	0	1354	3	184	306	3968
98	0	0	1341	5	184	306	3968
99	0	0	1432	5	185	307	3968
100	0	0	1570	5	184	306	3968
101	0	0	1438	5	185	306	3968
102	0	0	1729	5	184	306	3969
103	0	0	2155	5	184	307	3968
104	0	0	2420	5	184	307	3968
105	0	0	2774	5	184	307	3968
106	0	0	2995	5	184	307	3968
107	0	0	2949	3	184	307	3969
108	0	0	2801	4	183	307	3969
109	0	0	2640	5	184	307	3968
110	0	0	2469	4	183	306	3969
111	0	0	2363	4	184	307	3969
112	0	0	2079	3	183	306	3968
113	0	0	1793	4	183	307	3969
114	0	0	1664	5	184	307	3968
115	0	0	1545	4	183	306	3969
116	0	0	1451	4	183	306	3968
117	0	0	1359	3	183	307	3968
118	0	0	1347	5	184	306	3969
119	0	0	1439	5	184	307	3968
120	0	0	1580	5	185	306	3969
121	0	0	1440	5	184	307	3969
122	0	0	1715	4	185	307	3969
123	0	0	2145	5	184	307	3969
124	0	0	2416	5	185	307	3968
125	0	0	2764	6	184	306	3968
126	0	0	2991	5	184	307	3968
127	0	0	2940	3	183	307	3968
0	0	0	2806	4	183	306	3968
1	0	0	2649	5	184	307	3968
2	0	0	2469	4	183	307	3968
3	0	0	2352	4	184	307	3968
4	0	0	2131	4	184	307	3968
5	0	0	1837	4	184	307	3968
6	0	0	1682	4	183	307	3969
7	0	0	1539	4	185	307	3968
8	0	0	1439	4	184	307	3968
9	0	0	1342	3	183	307	3969
10	0	0	1332	5	184	307	3968
11	0	0	1423	5	183	307	3968
12	0	0	1565	5	184	306	3968
13	0	0	1436	5	185	307	3968
14	0	0	1715	4	184	306	3968
15	0	0	2142	5	185	307	3968
16	0	0	2415	5	184	306	3968
17	0	0	2769	5	184	306	3968
18	0	0	2993	5	183	306	3968
19	0	0	2937	4	184	307	3968
20	0	0	2791	4	185	307	3968
21	0	0	2638	4	184	307	3968
22	0	0	2469	4	183	307	3968
23	0	0	2359	4	185	307	3968
24	0	0	2118	3	183	307	3968
25	0	0	1833	4	183	307	3968
26	0	0	1686	4	184	307	3969
27	0	0	1555	4	183	306	3969
28	0	0	1452	4	184	307	3968
29	0	0	1357	4	183	307	3969
30	0	0	1346	5	184	307	3968
31	0	0	1434	5	184	307	3968
32	0	0	1575	5	184	307	3969
33	0	0	1442	4	185	307	3969
34	0	0	1716	5	184	306	3968
35	0	0	2154	5	184	307	3968
36	0	0	2423	6	184	307	3968
37	0	0	2770	5	185	307	3969
38	0	0	2994	5	185	307	3969
39	0	0	2942	4	184	307	3969
40	0	0	2810	5	184	307	3969
41	0	0	2649	4	184	307	3968
42	0	0	2465	4	184	306	3968
43	0	0	2349	4	184	307	3968
44	0	0	2131	4	183	306	3969
45	0	0	1837	4	183	307	3968
46	0	0	1679	5	184	307	3968
47	0	0	1548	4	184	307	3968
48	0	0	1447	4	183	307	3968
49	0	0	1345	4	184	307	3968
50	0	0	1335	5	184	307	3968
51	0	0	1425	5	183	307	3969
52	0	0	1570	5	183	307	3968
53	0	0	1433	4	184	307	3968
54	0	0	1709	5	184	307	3969
55	0	0	2139	5	184	307	3967
56	0	0	2419	5	184	307	3969
57	0	0	2775	5	185	306	3968
58	0	0	2999	5	186	307	3968
59	0	0	2925	4	183	306	3969
60	0	0	2783	4	183	306	3969
61	0	0	2645	4	183	307	3968
62	0	0	2483	4	184	306	3968
63	0	0	2304	4	184	307	3968
64	0	0	2087	4	183	307	3968
65	0	0	1817	4	182	306	3968
66	0	0	1677	4	184	307	3968
67	0	0	1551	4	184	306	3969
68	0	0	1457	4	183	306	3969
69	0	0	1359	4	183	307	3968
70	0	0	1346	5	184	306	3969
71	0	0	1436	5	184	307	3968
72	0	0	1580	5	185	306	3969
73	0	0	1444	5	184	307	3969
74	0	0	1710	5	185	307	3969
75	0	0	2147	5	184	307	3969
76	0	0	2423	5	183	307	3970
77	0	0	2772	5	185	306	3968
78	0	0	2996	5	183	306	3968
79	0	0	2950	4	183	307	3969
80	0	0	2818	4	184	306	3968
81	0	0	2658	4	184	306	3968
82	0	0	2473	4	184	306	3968
83	0	0	2351	4	181	306	3968
84	0	0	2135	4	183	307	3968
85	0	0	1837	4	183	306	3968
86	0	0	1679	4	184	306	3968
87	0	0	1548	4	184	308	3968
88	0	0	1454	4	184	306	3968
89	0	0	1358	4	184	307	3968
90	0	0	1344	5	184	306	3968
91	0	0	1429	5	185	306	3968
92	0	0	1562	5	184	307	3969
93	0	0	1426	4	183	307	3969
94	0	0	1703	5	184	307	3968
95	0	0	2141	5	184	306	3968
96	0	0	2419	5	185	307	3969
97	0	0	2772	5	184	307	3968
98	0	0	2995	5	185	306	3968
99	0	0	2928	4	183	306	3969
100	0	0	2794	4	183	307	3968
101	0	0	2653	4	184	307	3968
102	0	0	2485	4	183	306	3967
103	0	0	2324	4	184	307	3968
104	0	0	2116	4	183	307	3968
105	0	0	1834	4	182	306	3968
106	0	0	1681	4	184	307	3968
107	0	0	1547	4	183	306	3968
108	0	0	1442	4	184	306	3969
109	0	0	1344	4	184	307	3969
110	0	0	1329	5	184	307	3969
111	0	0	1423	5	184	306	3968
112	0	0	1567	5	185	307	3969
113	0	0	1435	4	184	306	3969
114	0	0	1701	5	186	306	3968
115	0	0	2135	5	184	307	3968
116	0	0	2414	5	184	307	3968
117	0	0	2762	5	184	306	3968
118	0	0	2988	5	184	307	3968
119	0	0	2939	4	184	307	3968
120	0	0	2809	4	184	307	3968
121	0	0	2653	4	183	307	3968
122	0	0	2465	4	184	306	3968
123	0	0	2344	4	184	306	3969
124	0	0	2131	4	183	306	3969
125	0	0	1833	4	183	307	3969
126	0	0	1676	4	183	306	3968
127	0	0	1545	4	184	307	3969
0	0	0	1445	4	183	307	3969
1	0	0	1343	4	183	305	3968
2	0	0	1327	5	183	306	3968
3	0	0	1423	5	184	307	3969
4	0	0	1572	5	184	306	3968
5	0	0	1441	5	185	306	3968
6	0	0	1706	5	184	307	3969
7	0	0	2136	5	184	306	3969
8	0	0	2417	5	185	307	3968
9	0	0	2769	6	185	306	3968
10	0	0	2987	5	184	306	3968
11	0	0	2932	4	184	307	3969
12	0	0	2807	4	184	307	3968
13	0	0	2667	4	183	307	3968
14	0	0	2450	5	183	306	3968
15	0	0	2315	4	183	307	3969
16	0	0	2112	4	183	307	3968
17	0	0	1826	4	183	307	3968
18	0	0	1671	4	183	307	3968
19	0	0	1540	5	184	306	3968
20	0	0	1443	4	184	307	3968
21	0	0	1342	4	184	307	3968
22	0	0	1328	5	184	307	3968
23	0	0	1420	5	184	307	3968
24	0	0	1564	5	185	307	3968
25	0	0	1434	5	184	306	3969
26	0	0	1696	5	184	307	3968
27	0	0	2136	5	185	307	3968
28	0	0	2413	5	185	307	3968
29	0	0	2750	5	184	307	3969
30	0	0	2983	5	184	307	3969
31	0	0	2938	4	184	307	3969
32	0	0	2808	4	184	307	3969
33	0	0	2658	5	184	307	3968
34	0	0	2477	4	183	307	3968
35	0	0	2356	4	184	307	3969
36	0	0	2137	4	183	307	3968
37	0	0	1840	4	182	307	3969
38	0	0	1679	4	183	307	3968
39	0	0	1545	5	183	307	3968
40	0	0	1441	4	183	306	3968
41	0	0	1337	4	184	307	3968
42	0	0	1324	5	184	307	3968
43	0	0	1419	5	185	307	3968
44	0	0	1565	5	185	306	3968
45	0	0	1430	4	184	306	3968
46	0	0	1696	5	184	307	3968
47	0	0	2136	5	184	307	3968
48	0	0	2418	5	184	306	3968
49	0	0	2768	4	184	307	3968
50	0	0	2978	5	184	307	3968
51	0	0	2931	4	183	307	3969
52	0	0	2811	4	185	307	3968
53	0	0	2678	4	184	307	3969
54	0	0	2471	3	183	306	3968
55	0	0	2347	4	183	306	3968
56	0	0	2140	4	184	307	3969
57	0	0	1843	4	183	307	3968
58	0	0	1680	4	182	307	3969
59	0	0	1547	5	183	306	3968
60	0	0	1451	4	183	307	3968
61	0	0	1358	4	184	307	3968
62	0	0	1342	5	184	307	3969
63	0	0	1427	5	184	307	3968
64	0	0	1571	5	184	306	3968
65	0	0	1442	4	185	306	3968
66	0	0	1693	5	185	307	3969
67	0	0	2136	5	184	307	3968
68	0	0	2416	5	185	307	3968
69	0	0	2757	5	184	307	3968
70	0	0	2988	5	184	307	3969
71	0	0	2941	4	184	307	3968
72	0	0	2814	4	184	307	3969
73	0	0	2659	4	183	307	3968
74	0	0	2479	4	184	306	3968
75	0	0	2348	4	183	307	3969
76	0	0	2139	4	185	307	3968
77	0	0	1843	4	184	306	3969
78	0	0	1681	4	183	307	3968
79	0	0	1548	4	184	306	3968
80	0	0	1446	4	183	306	3968
81	0	0	1341	4	183	306	3968
82	0	0	1324	6	184	307	3968
83	0	0	1411	5	185	306	3968
84	0	0	1562	5	185	306	3968
85	0	0	1434	4	183	306	3968
86	0	0	1697	5	185	306	3968
87	0	0	2140	5	185	307	3969
88	0	0	2427	6	183	306	3969
89	0	0	2759	5	184	307	3968
90	0	0	2980	5	185	306	3968
91	0	0	2945	4	184	307	3969
92	0	0	2827	4	183	307	3968
93	0	0	2633	4	184	307	3968
94	0	0	2454	4	183	307	3968
95	0	0	2331	4	184	307	3968
96	0	0	2127	4	183	307	3969
97	0	0	1841	4	183	307	3969
98	0	0	1677	4	184	307	3968
99	0	0	1542	4	183	307	3968
100	0	0	1447	4	184	306	3968
101	0	0	1351	4	183	307	3969
102	0	0	1332	5	185	306	3968
103	0	0	1420	5	185	307	3968
104	0	0	1566	5	184	306	3968
105	0	0	1439	4	185	307	3968
106	0	0	1697	5	184	307	3968
107	0	0	2136	5	185	306	3968
108	0	0	2417	5	184	307	3968
109	0	0	2759	5	184	307	3968
110	0	0	2992	5	185	306	3968
111	0	0	2949	4	184	307	3969
112	0	0	2818	4	184	307	3969
113	0	0	2661	4	184	307	3968
114	0	0	2483	4	183	307	3969
115	0	0	2353	4	183	307	3970
116	0	0	2142	4	182	307	3969
117	0	0	1840	4	182	307	3968
118	0	0	1678	4	183	307	3968
119	0	0	1549	4	184	307	3968
120	0	0	1450	4	184	305	3967
121	0	0	1352	4	184	307	3968
122	0	0	1335	5	184	306	3968
123	0	0	1422	5	183	307	3969
124	0	0	1565	5	183	308	3968
125	0	0	1435	4	185	306	3968
126	0	0	1686	5	184	307	3968
127	0	0	2124	5	185	307	3968
0	0	0	2413	5	185	307	3968
1	0	0	2741	5	184	306	3968
2	0	0	2973	5	184	307	3969
3	0	0	2947	4	183	306	3969
4	0	0	2835	4	183	306	3969
5	0	0	2631	4	184	307	3968
6	0	0	2471	4	185	306	3968
7	0	0	2351	4	184	306	3968
8	0	0	2144	4	183	307	3968
9	0	0	1848	4	184	307	3969
10	0	0	1689	5	183	307	3968
11	0	0	1563	4	184	306	3968
12	0	0	1459	4	183	306	3968
13	0	0	1356	4	184	307	3969
14	0	0	1333	5	183	306	3968
15	0	0	1421	5	185	306	3967
16	0	0	1564	5	184	306	3968
17	0	0	1432	4	186	307	3968
18	0	0	1685	4	185	307	3968
19	0	0	2132	5	184	307	3969
20	0	0	2419	5	184	307	3968
21	0	0	2754	5	184	306	3968
22	0	0	2989	5	184	305	3968
23	0	0	2948	4	182	307	3969
24	0	0	2818	4	183	306	3968
25	0	0	2659	4	184	306	3968
26	0	0	2480	4	184	307	3968
27	0	0	2352	4	183	306	3968
28	0	0	2146	4	183	306	3969
29	0	0	1844	4	183	307	3967
30	0	0	1678	4	183	307	3968
31	0	0	1551	4	184	306	3968
32	0	0	1450	4	184	306	3968
33	0	0	1349	4	183	307	3968
34	0	0	1328	5	185	307	3968
35	0	0	1413	5	185	307	3968
36	0	0	1564	4	185	307	3968
37	0	0	1434	5	185	307	3968
38	0	0	1674	5	184	307	3969
39	0	0	2115	5	183	307	3968
40	0	0	2399	5	184	307	3968
41	0	0	2735	5	184	307	3968
42	0	0	2981	5	184	307	3969
43	0	0	2955	4	183	307	3968
44	0	0	2777	4	184	307	3969
45	0	0	2608	5	184	307	3968
46	0	0	2457	4	183	306	3968
47	0	0	2342	4	183	307	3968
48	0	0	2144	4	183	307	3968
49	0	0	1851	4	182	307	3968
50	0	0	1693	3	182	306	3968
51	0	0	1564	4	184	307	3968
52	0	0	1457	4	183	306	3968
53	0	0	1351	4	184	307	3969
54	0	0	1326	5	183	307	3968
55	0	0	1414	5	183	307	3969
56	0	0	1561	5	184	307	3968
57	0	0	1430	4	185	307	3968
58	0	0	1680	5	184	307	3968
59	0	0	2123	5	184	307	3968
60	0	0	2413	5	184	307	3968
61	0	0	2756	5	184	307	3968
62	0	0	2993	5	185	307	3968
63	0	0	2954	4	185	307	3968
64	0	0	2818	4	184	307	3968
65	0	0	2657	4	184	306	3967
66	0	0	2480	4	184	307	3968
67	0	0	2344	4	183	306	3968
68	0	0	2141	4	184	306	3969
69	0	0	1845	4	183	307	3969
70	0	0	1681	5	183	307	3968
71	0	0	1549	4	183	307	3969
72	0	0	1448	4	184	307	3969
73	0	0	1345	4	184	307	3969
74	0	0	1325	5	184	307	3968
75	0	0	1412	4	183	307	3968
76	0	0	1564	5	184	306	3968
77	0	0	1432	4	185	307	3968
78	0	0	1675	5	185	307	3969
79	0	0	2121	5	185	306	3967
80	0	0	2397	4	183	307	3968
81	0	0	2737	5	184	305	3967
82	0	0	2986	5	184	307	3968
83	0	0	2963	4	184	306	3968
84	0	0	2774	4	183	307	3968
85	0	0	2635	4	183	307	3968
86	0	0	2483	4	183	307	3968
87	0	0	2352	4	183	307	3968
88	0	0	2147	4	184	307	3969
89	0	0	1848	4	183	307	3968
90	0	0	1675	4	183	306	3968
91	0	0	1543	4	183	307	3968
92	0	0	1449	4	184	307	3968
93	0	0	1347	4	184	306	3968
94	0	0	1327	5	184	306	3969
95	0	0	1414	6	185	307	3968
96	0	0	1566	5	184	306	3968
97	0	0	1450	4	184	307	3969
98	0	0	1685	5	185	307	3968
99	0	0	2119	5	184	307	3968
100	0	0	2403	4	185	307	3968
101	0	0	2744	5	185	307	3968
102	0	0	2984	5	184	307	3968
103	0	0	2949	4	183	306	3969
104	0	0	2819	4	183	306	3968
105	0	0	2659	4	182	307	3969
106	0	0	2492	4	183	307	3968
107	0	0	2355	4	184	307	3968
108	0	0	2149	4	183	306	3969
109	0	0	1853	4	183	307	3968
110	0	0	1692	4	184	307	3968
111	0	0	1564	4	184	307	3968
112	0	0	1455	4	183	307	3968
113	0	0	1347	4	184	306	3968
114	0	0	1323	5	185	307	3968
115	0	0	1409	4	184	307	3968
116	0	0	1566	5	185	306	3967
117	0	0	1440	4	185	306	3968
118	0	0	1676	5	184	307	3969
119	0	0	2112	5	185	306	3968
120	0	0	2391	5	184	307	3969
121	0	0	2738	5	185	306	3968
122	0	0	2992	5	185	307	3969
123	0	0	2908	4	184	307	3969
124	0	0	2764	4	184	307	3968
125	0	0	2633	4	183	307	3968
126	0	0	2483	4	183	306	3968
127	0	0	2351	4	184	307	3968
0	0	0	2153	4	183	307	3968
1	0	0	1857	4	183	306	3969
2	0	0	1685	4	183	307	3968
3	0	0	1552	4	185	307	3967
4	0	0	1449	4	183	307	3968
5	0	0	1352	4	183	307	3969
6	0	0	1334	5	184	307	3968
7	0	0	1418	5	184	307	3968
8	0	0	1569	5	185	306	3968
9	0	0	1445	4	184	307	3968
10	0	0	1675	5	183	306	3968
11	0	0	2115	5	184	306	3968
12	0	0	2404	5	185	306	3968
13	0	0	2750	5	184	306	3968
14	0	0	2995	5	184	306	3968
15	0	0	2962	4	184	306	3968
16	0	0	2832	4	184	307	3968
17	0	0	2671	4	184	307	3968
18	0	0	2502	5	183	307	3968
19	0	0	2361	4	183	307	3969
20	0	0	2155	4	183	307	3968
21	0	0	1850	4	183	307	3969
22	0	0	1679	4	184	307	3968
23	0	0	1550	4	183	306	3968
24	0	0	1451	4	183	307	3969
25	0	0	1351	4	184	307	3969
26	0	0	1326	5	183	306	3968
27	0	0	1413	5	183	306	3968
28	0	0	1562	5	184	307	3968
29	0	0	1441	4	184	307	3968
30	0	0	1668	5	183	306	3968
31	0	0	2091	5	184	307	3968
32	0	0	2388	5	183	307	3968
33	0	0	2735	5	184	307	3968
34	0	0	2994	5	184	307	3968
35	0	0	2896	4	183	306	3968
36	0	0	2785	4	183	307	3968
37	0	0	2649	4	184	306	3968
38	0	0	2488	4	183	307	3968
39	0	0	2351	4	183	307	3969
40	0	0	2158	4	183	306	3969
41	0	0	1865	4	183	307	3968
42	0	0	1692	4	182	307	3968
43	0	0	1562	4	184	307	3968
44	0	0	1464	4	184	308	3968
45	0	0	1362	4	183	306	3969
46	0	0	1337	5	184	307	3968
47	0	0	1422	4	184	307	3969
48	0	0	1561	5	184	306	3968
49	0	0	1431	4	185	308	3968
50	0	0	1663	5	184	306	3968
51	0	0	2107	5	184	306	3968
52	0	0	2398	5	184	307	3967
53	0	0	2740	5	184	306	3968
54	0	0	2983	5	184	307	3968
55	0	0	2960	4	183	306	3968
56	0	0	2831	4	183	307	3968
57	0	0	2670	4	183	307	3968
58	0	0	2495	4	183	307	3968
59	0	0	2349	4	183	306	3968
60	0	0	2146	4	182	306	3969
61	0	0	1853	4	184	307	3969
62	0	0	1681	2	183	307	3968
63	0	0	1551	4	184	307	3968
64	0	0	1451	4	184	307	3969
65	0	0	1352	4	183	307	3968
66	0	0	1330	5	184	307	3969
67	0	0	1415	4	184	306	3968
68	0	0	1566	5	184	306	3968
69	0	0	1446	4	185	307	3968
70	0	0	1657	5	184	306	3968
71	0	0	2093	5	184	307	3968
72	0	0	2385	4	184	306	3968
73	0	0	2733	5	185	306	3968
74	0	0	2935	5	184	308	3968
75	0	0	2885	4	183	306	3969
76	0	0	2785	4	184	307	3968
77	0	0	2647	4	183	307	3969
78	0	0	2490	4	183	307	3968
79	0	0	2353	4	184	307	3968
80	0	0	2165	4	182	306	3968
81	0	0	1870	4	183	306	3968
82	0	0	1699	4	184	307	3968
83	0	0	1572	4	183	307	3968
84	0	0	1470	4	184	307	3968
85	0	0	1363	4	184	307	3968
86	0	0	1331	5	184	306	3968
87	0	0	1411	4	185	307	3968
88	0	0	1559	5	184	307	3968
89	0	0	1437	4	184	308	3968
90	0	0	1657	5	184	307	3969
91	0	0	2104	5	185	306	3968
92	0	0	2400	5	184	307	3969
93	0	0	2730	5	184	306	3968
94	0	0	2985	5	183	308	3968
95	0	0	2969	4	184	307	3968
96	0	0	2841	4	183	307	3969
97	0	0	2679	4	182	306	3968
98	0	0	2511	4	183	306	3968
99	0	0	2375	4	183	307	3968
100	0	0	2176	4	183	306	3968
101	0	0	1867	4	184	307	3968
102	0	0	1689	5	184	307	3968
103	0	0	1565	4	184	307	3968
104	0	0	1456	4	184	307	3968
105	0	0	1351	4	184	307	3968
106	0	0	1328	5	184	307	3968
107	0	0	1410	5	185	307	3968
108	0	0	1561	5	185	306	3968
109	0	0	1450	4	184	306	3969
110	0	0	1644	5	183	306	3969
111	0	0	2088	5	184	307	3968
112	0	0	2397	5	183	306	3968
113	0	0	2754	5	183	307	3968
114	0	0	2946	5	183	307	3969
115	0	0	2928	5	184	306	3968
116	0	0	2817	4	183	307	3969
117	0	0	2669	3	184	307	3968
118	0	0	2509	4	184	306	3968
119	0	0	2368	5	183	306	3968
120	0	0	2168	4	182	307	3968
121	0	0	1868	4	183	307	3969
122	0	0	1691	4	184	307	3968
123	0	0	1559	4	183	306	3968
124	0	0	1458	4	183	307	3969
125	0	0	1354	4	183	306	3969
126	0	0	1327	5	184	306	3968
127	0	0	1412	4	184	307	3968
0	0	0	1566	5	184	306	3968
1	0	0	1447	4	184	307	3968
2	0	0	1658	5	184	307	3968
3	0	0	2101	5	185	306	3968
4	0	0	2399	5	184	307	3968
5	0	0	2730	5	185	307	3968
6	0	0	2984	5	185	307	3968
7	0	0	2963	4	184	307	3968
8	0	0	2831	5	183	307	3968
9	0	0	2673	4	183	306	3969
10	0	0	2505	4	184	306	3969
11	0	0	2363	4	184	307	3968
12	0	0	2169	4	183	306	3969
13	0	0	1867	4	183	306	3968
14	0	0	1694	4	183	307	3968
15	0	0	1565	4	183	306	3968
16	0	0	1460	4	184	306	3968
17	0	0	1354	4	183	306	3968
18	0	0	1325	5	183	307	3968
19	0	0	1409	5	184	306	3968
20	0	0	1565	5	184	306	3968
21	0	0	1444	4	183	307	3968
22	0	0	1635	5	183	306	3968
23	0	0	2086	5	184	307	3967
24	0	0	2400	5	185	307	3969
25	0	0	2717	5	184	307	3968
26	0	0	2950	5	184	307	3969
27	0	0	2940	4	183	306	3968
28	0	0	2821	4	184	307	3969
29	0	0	2674	4	182	307	3968
30	0	0	2509	4	182	307	3969
31	0	0	2362	4	184	307	3969
32	0	0	2174	4	183	306	3969
33	0	0	1874	4	183	306	3969
34	0	0	1695	4	184	307	3968
35	0	0	1563	4	184	307	3968
36	0	0	1459	4	183	307	3968
37	0	0	1356	4	184	307	3968
38	0	0	1331	5	183	307	3968
39	0	0	1410	5	184	306	3968
40	0	0	1562	5	184	306	3968
41	0	0	1446	4	185	307	3967
42	0	0	1650	5	184	306	3968
43	0	0	2087	5	184	307	3968
44	0	0	2387	5	185	307	3968
45	0	0	2721	5	185	306	3969
46	0	0	2980	5	184	307	3969
47	0	0	2962	4	184	306	3968
48	0	0	2833	4	184	307	3968
49	0	0	2675	4	183	307	3969
50	0	0	2506	4	182	307	3969
51	0	0	2361	5	185	306	3968
52	0	0	2168	4	183	306	3968
53	0	0	1868	4	182	307	3968
54	0	0	1686	4	184	307	3968
55	0	0	1554	3	184	307	3967
56	0	0	1454	4	183	307	3968
57	0	0	1354	4	184	306	3968
58	0	0	1328	5	183	306	3968
59	0	0	1412	5	185	307	3969
60	0	0	1565	5	184	306	3968
61	0	0	1435	4	185	307	3968
62	0	0	1628	5	184	307	3969
63	0	0	2090	5	184	306	3969
64	0	0	2402	5	184	307	3968
65	0	0	2679	4	185	307	3968
66	0	0	2949	5	184	307	3968
67	0	0	2948	4	182	306	3968
68	0	0	2830	5	184	307	3968
69	0	0	2680	4	185	307	3968
70	0	0	2509	4	184	307	3968
71	0	0	2365	4	184	307	3968
72	0	0	2172	3	183	306	3968
73	0	0	1870	4	183	307	3968
74	0	0	1692	4	184	307	3968
75	0	0	1563	4	184	307	3967
76	0	0	1458	4	183	307	3968
77	0	0	1350	4	184	307	3969
78	0	0	1318	4	184	307	3968
79	0	0	1399	5	183	307	3968
80	0	0	1549	3	184	306	3968
81	0	0	1436	4	185	307	3968
82	0	0	1639	5	184	307	3969
83	0	0	2086	5	185	307	3969
84	0	0	2386	5	185	307	3969
85	0	0	2716	5	184	307	3968
86	0	0	2983	5	185	307	3968
87	0	0	2967	4	183	306	3968
88	0	0	2839	4	183	307	3969
89	0	0	2676	5	183	306	3968
90	0	0	2506	3	183	306	3968
91	0	0	2362	4	183	307	3968
92	0	0	2169	4	182	307	3968
93	0	0	1870	4	184	307	3968
94	0	0	1692	4	185	307	3968
95	0	0	1564	5	183	306	3969
96	0	0	1463	4	183	307	3969
97	0	0	1359	4	183	307	3969
98	0	0	1327	5	183	307	3968
99	0	0	1406	5	183	306	3969
100	0	0	1558	5	184	307	3968
101	0	0	1432	4	184	307	3968
102	0	0	1635	5	185	307	3968
103	0	0	2097	5	184	306	3978
104	0	0	2400	5	184	307	3968
105	0	0	2684	4	184	306	3968
106	0	0	2958	5	184	307	3968
107	0	0	2959	4	183	307	3968
108	0	0	2835	4	183	307	3969
109	0	0	2681	4	184	306	3967
110	0	0	2517	4	184	307	3968
111	0	0	2369	4	184	307	3968
112	0	0	2180	4	183	307	3969
113	0	0	1874	5	183	307	3968
114	0	0	1696	4	183	306	3968
115	0	0	1560	4	184	307	3968
116	0	0	1458	4	184	307	3968
117	0	0	1354	4	184	307	3969
118	0	0	1332	6	184	307	3968
119	0	0	1415	5	184	306	3968
120	0	0	1561	6	184	307	3968
121	0	0	1447	4	184	307	3968
122	0	0	1635	5	184	307	3969
123	0	0	2078	5	184	307	3969
124	0	0	2376	5	184	307	3968
125	0	0	2697	4	185	306	3968
126	0	0	2973	5	184	307	3968
127	0	0	2969	4	184	307	3968
0	0	0	2840	5	184	307	3968
1	0	0	2684	4	183	306	3968
2	0	0	2519	5	184	306	3969
3	0	0	2369	5	184	307	3968
4	0	0	2175	4	184	307	3969
5	0	0	1871	4	183	307	3968
6	0	0	1686	4	183	306	3968
7	0	0	1561	4	183	307	3968
8	0	0	1455	4	184	307	3968
9	0	0	1350	4	184	307	3969
10	0	0	1316	4	184	307	3969
11	0	0	1403	5	184	307	3968
12	0	0	1541	5	184	306	3968
13	0	0	1423	4	184	307	3969
14	0	0	1622	5	184	307	3968
15	0	0	2097	5	184	307	3968
16	0	0	2365	5	185	307	3968
17	0	0	2686	5	185	306	3968
18	0	0	2964	5	184	307	3968
19	0	0	2962	4	184	307	3968
20	0	0	2837	5	183	306	3968
21	0	0	2683	4	183	307	3968
22	0	0	2513	5	184	306	3968
23	0	0	2364	4	184	307	3968
24	0	0	2176	4	183	307	3969
25	0	0	1876	4	183	306	3968
26	0	0	1695	4	183	307	3968
27	0	0	1569	4	184	306	3968
28	0	0	1466	4	183	307	3968
29	0	0	1358	4	183	307	3968
30	0	0	1331	5	184	306	3968
31	0	0	1408	7	183	307	3968
32	0	0	1558	6	184	306	3968
33	0	0	1459	4	185	306	3969
34	0	0	1639	5	184	307	3969
35	0	0	2082	5	185	307	3969
36	0	0	2384	6	185	307	3968
37	0	0	2704	5	184	306	3968
38	0	0	2973	5	183	307	3969
39	0	0	2968	4	184	307	3968
40	0	0	2840	4	184	307	3969
41	0	0	2682	4	185	306	3968
42	0	0	2515	5	183	307	3968
43	0	0	2368	4	184	307	3968
44	0	0	2182	4	184	307	3968
45	0	0	1881	5	184	307	3968
46	0	0	1695	4	184	307	3968
47	0	0	1560	4	183	307	3968
48	0	0	1462	4	184	307	3968
49	0	0	1362	4	183	307	3968
50	0	0	1331	5	184	306	3968
51	0	0	1408	5	184	306	3968
52	0	0	1539	5	184	307	3968
53	0	0	1436	4	185	308	3968
54	0	0	1628	5	185	306	3971
55	0	0	2081	5	184	307	3968
56	0	0	2351	5	184	307	3968
57	0	0	2681	5	184	307	3968
58	0	0	2966	5	184	307	3969
59	0	0	2967	4	184	307	3968
60	0	0	2846	4	184	307	3969
61	0	0	2689	4	183	306	3968
62	0	0	2520	5	183	306	3968
63	0	0	2369	4	184	306	3968
64	0	0	2185	4	183	306	3968
65	0	0	1887	4	183	307	3969
66	0	0	1699	3	181	307	3968
67	0	0	1574	4	183	307	3969
68	0	0	1468	4	183	307	3970
69	0	0	1359	4	184	307	3969
70	0	0	1329	5	183	306	3970
71	0	0	1406	5	183	307	3968
72	0	0	1547	5	184	307	3968
73	0	0	1435	4	184	307	3968
74	0	0	1621	5	184	306	3968
75	0	0	2080	5	184	307	3968
76	0	0	2390	5	184	307	3968
77	0	0	2707	5	183	307	3968
78	0	0	2977	5	184	307	3968
79	0	0	2972	4	184	307	3968
80	0	0	2843	4	183	307	3968
81	0	0	2689	4	184	307	3968
82	0	0	2520	4	183	307	3968
83	0	0	2373	4	183	307	3968
84	0	0	2184	4	183	307	3970
85	0	0	1881	4	184	307	3968
86	0	0	1696	4	183	306	3970
87	0	0	1566	4	183	306	3968
88	0	0	1467	3	184	307	3969
89	0	0	1360	4	184	307	3969
90	0	0	1335	5	184	306	3968
91	0	0	1399	5	184	306	3968
92	0	0	1539	5	185	306	3968
93	0	0	1446	4	185	307	3968
94	0	0	1636	5	183	306	3969
95	0	0	2030	5	184	307	3968
96	0	0	2335	5	184	307	3968
97	0	0	2660	5	184	307	3968
98	0	0	2958	5	183	308	3968
99	0	0	2974	4	183	307	3969
100	0	0	2852	4	184	307	3968
101	0	0	2697	4	184	307	3968
102	0	0	2532	5	183	307	3969
103	0	0	2386	4	184	307	3969
104	0	0	2193	4	183	307	3969
105	0	0	1882	4	183	307	3969
106	0	0	1693	4	184	307	3968
107	0	0	1559	4	183	307	3968
108	0	0	1462	4	183	307	3969
109	0	0	1357	4	184	307	3969
110	0	0	1323	5	186	307	3968
111	0	0	1399	5	184	306	3968
112	0	0	1548	5	183	307	3968
113	0	0	1448	3	183	307	3968
114	0	0	1626	5	184	308	3968
115	0	0	2074	5	184	307	3968
116	0	0	2384	5	185	307	3968
117	0	0	2690	5	184	307	3968
118	0	0	2965	5	185	307	3968
119	0	0	2966	4	183	307	3969
120	0	0	2843	4	183	307	3968
121	0	0	2689	4	184	307	3969
122	0	0	2527	4	183	306	3968
123	0	0	2385	4	183	307	3968
124	0	0	2198	4	182	306	3969
125	0	0	1884	4	184	306	3968
126	0	0	1698	4	184	306	3969
127	0	0	1570	4	183	307	3968
0	0	0	1465	3	184	307	3968
1	0	0	1356	4	183	307	3968
2	0	0	1321	4	183	307	3968
3	0	0	1384	5	184	306	3969
4	0	0	1534	5	184	306	3968
5	0	0	1446	4	183	307	3968
6	0	0	1618	5	184	307	3969
7	0	0	2010	5	185	306	3968
8	0	0	2334	5	184	307	3968
9	0	0	2669	6	184	307	3969
10	0	0	2963	5	183	307	3970
11	0	0	2969	4	183	308	3969
12	0	0	2849	5	184	307	3968
13	0	0	2689	4	184	307	3969
14	0	0	2526	4	183	306	3968
15	0	0	2374	4	183	307	3968
16	0	0	2198	4	183	306	3968
17	0	0	1889	4	183	307	3968
18	0	0	1700	4	183	307	3968
19	0	0	1567	5	183	307	3968
20	0	0	1465	3	183	307	3968
21	0	0	1356	5	183	307	3969
22	0	0	1325	4	183	307	3970
23	0	0	1401	5	184	307	3968
24	0	0	1551	5	185	307	3969
25	0	0	1458	4	184	306	3969
26	0	0	1621	5	185	306	3969
27	0	0	2073	5	184	306	3968
28	0	0	2380	5	185	306	3968
29	0	0	2695	5	184	307	3968
30	0	0	2972	5	184	307	3969
31	0	0	2970	5	183	307	3969
32	0	0	2838	4	182	306	3968
33	0	0	2686	4	183	307	3968
34	0	0	2522	3	182	307	3968
35	0	0	2364	4	184	307	3968
36	0	0	2190	4	182	306	3968
37	0	0	1896	4	183	307	3969
38	0	0	1708	3	184	307	3968
39	0	0	1578	4	183	307	3969
40	0	0	1468	4	183	307	3970
41	0	0	1356	4	183	306	3969
42	0	0	1310	5	183	306	3970
43	0	0	1383	5	183	306	3968
44	0	0	1545	6	184	307	3969
45	0	0	1465	4	185	307	3969
46	0	0	1616	5	185	307	3969
47	0	0	2046	5	184	307	3968
48	0	0	2364	5	184	307	3968
49	0	0	2689	5	184	307	3968
50	0	0	2960	5	184	307	3968
51	0	0	2963	4	182	306	3968
52	0	0	2839	4	184	307	3968
53	0	0	2689	4	183	306	3969
54	0	0	2540	4	184	307	3968
55	0	0	2383	4	183	307	3968
56	0	0	2199	4	183	307	3970
57	0	0	1890	4	182	307	3968
58	0	0	1693	4	183	305	3970
59	0	0	1568	5	184	307	3968
60	0	0	1469	4	183	307	3968
61	0	0	1355	4	183	306	3969
62	0	0	1321	5	183	306	3968
63	0	0	1405	5	184	307	3968
64	0	0	1564	6	184	307	3968
65	0	0	1485	4	184	307	3968
66	0	0	1598	5	184	306	3968
67	0	0	2056	5	184	307	3968
68	0	0	2387	5	185	307	3968
69	0	0	2697	6	184	307	3968
70	0	0	2961	5	183	307	3969
71	0	0	2959	4	184	307	3968
72	0	0	2844	4	184	307	3969
73	0	0	2686	4	183	306	3968
74	0	0	2520	5	184	307	3969
75	0	0	2355	4	183	307	3970
76	0	0	2196	4	183	306	3969
77	0	0	1897	4	184	307	3969
78	0	0	1702	4	182	306	3968
79	0	0	1576	5	183	307	3968
80	0	0	1472	4	183	307	3969
81	0	0	1365	4	183	306	3968
82	0	0	1311	4	185	306	3968
83	0	0	1390	5	184	307	3968
84	0	0	1553	4	184	307	3967
85	0	0	1481	4	185	307	3968
86	0	0	1539	5	184	306	3968
87	0	0	2023	5	184	307	3968
88	0	0	2368	5	183	306	3969
89	0	0	2684	5	185	306	3969
90	0	0	2959	5	184	307	3968
91	0	0	2973	4	183	307	3970
92	0	0	2858	4	183	307	3968
93	0	0	2700	4	183	307	3968
94	0	0	2527	5	182	307	3968
95	0	0	2370	4	183	307	3968
96	0	0	2205	4	183	306	3968
97	0	0	1892	4	182	307	3968
98	0	0	1693	4	184	307	3968
99	0	0	1567	5	183	306	3968
100	0	0	1463	4	184	307	3968
101	0	0	1353	4	184	306	3968
102	0	0	1311	5	183	307	3968
103	0	0	1397	5	185	307	3968
104	0	0	1552	5	183	307	3968
105	0	0	1475	4	184	307	3969
106	0	0	1608	5	184	306	3969
107	0	0	2053	5	184	306	3968
108	0	0	2374	5	184	307	3969
109	0	0	2683	5	184	307	3968
110	0	0	2956	5	184	307	3968
111	0	0	2964	4	185	306	3969
112	0	0	2854	4	184	307	3968
113	0	0	2692	5	182	307	3969
114	0	0	2525	4	183	306	3968
115	0	0	2358	4	183	307	3968
116	0	0	2199	4	183	307	3968
117	0	0	1899	4	183	306	3968
118	0	0	1696	4	184	307	3968
119	0	0	1573	4	183	306	3968
120	0	0	1474	4	184	307	3967
121	0	0	1354	4	184	306	3968
122	0	0	1302	4	183	307	3968
123	0	0	1399	5	185	307	3968
124	0	0	1569	4	184	307	3969
125	0	0	1433	4	184	307	3968
126	0	0	1555	5	183	306	3969
127	0	0	2033	5	184	306	3968
0	0	0	2371	5	184	307	3969
1	0	0	2688	5	184	307	3969
2	0	0	2964	5	183	307	3968
3	0	0	2972	4	183	307	3969
4	0	0	2852	4	183	307	3968
5	0	0	2691	4	183	307	3969
6	0	0	2520	4	184	306	3968
7	0	0	2354	4	183	306	3968
8	0	0	2203	4	184	307	3969
9	0	0	1901	4	184	307	3969
10	0	0	1700	4	183	307	3968
11	0	0	1577	4	184	307	3968
12	0	0	1473	4	184	307	3969
13	0	0	1359	4	184	306	3969
14	0	0	1314	5	184	306	3968
15	0	0	1397	5	183	307	3968
16	0	0	1549	5	184	307	3969
17	0	0	1473	4	184	307	3968
18	0	0	1592	5	184	306	3968
19	0	0	2041	5	184	306	3968
20	0	0	2374	5	184	307	3968
21	0	0	2686	6	185	307	3968
22	0	0	2957	5	184	307	3968
23	0	0	2964	4	183	307	3968
24	0	0	2845	4	185	307	3968
25	0	0	2687	4	183	307	3969
26	0	0	2524	4	184	307	3969
27	0	0	2348	4	182	307	3968
28	0	0	2199	4	182	306	3969
29	0	0	1898	4	183	307	3968
30	0	0	1687	4	184	307	3969
31	0	0	1571	4	183	306	3968
32	0	0	1475	4	183	307	3968
33	0	0	1346	4	184	306	3969
34	0	0	1297	4	184	307	3969
35	0	0	1391	5	185	307	3968
36	0	0	1544	5	185	307	3968
37	0	0	1406	4	185	306	3968
38	0	0	1544	5	184	307	3969
39	0	0	2020	5	184	307	3968
40	0	0	2362	5	184	306	3969
41	0	0	2680	5	185	307	3968
42	0	0	2960	5	184	307	3968
43	0	0	2977	4	184	307	3969
44	0	0	2860	4	184	307	3968
45	0	0	2701	4	183	307	3970
46	0	0	2536	4	184	307	3969
47	0	0	2366	4	183	307	3969
48	0	0	2217	4	183	306	3969
49	0	0	1916	4	184	307	3968
50	0	0	1708	4	184	307	3968
51	0	0	1584	4	184	306	3968
52	0	0	1481	4	184	307	3968
53	0	0	1367	4	184	307	3969
54	0	0	1322	4	183	307	3969
55	0	0	1400	5	184	307	3968
56	0	0	1549	6	184	307	3968
57	0	0	1480	3	185	307	3968
58	0	0	1588	5	184	305	3968
59	0	0	2041	5	184	306	3968
60	0	0	2373	5	184	307	3969
61	0	0	2678	5	184	307	3970
62	0	0	2958	5	184	307	3969
63	0	0	2967	4	183	307	3969
64	0	0	2844	4	184	307	3968
65	0	0	2687	4	184	307	3969
66	0	0	2522	4	184	307	3968
67	0	0	2351	4	183	307	3969
68	0	0	2208	4	182	307	3969
69	0	0	1907	4	184	307	3968
70	0	0	1699	4	183	307	3968
71	0	0	1575	4	183	306	3968
72	0	0	1469	4	183	307	3968
73	0	0	1345	4	184	307	3969
74	0	0	1313	5	183	307	3968
75	0	0	1406	5	183	306	3968
76	0	0	1506	5	184	307	3968
77	0	0	1424	4	184	307	3968
78	0	0	1549	5	184	307	3969
79	0	0	2024	5	184	307	3970
80	0	0	2377	5	183	307	3968
81	0	0	2682	5	183	307	3969
82	0	0	2961	5	183	307	3969
83	0	0	2975	4	183	306	3969
84	0	0	2854	4	184	307	3969
85	0	0	2698	5	183	306	3968
86	0	0	2529	4	183	307	3968
87	0	0	2352	5	183	306	3968
88	0	0	2209	4	183	307	3968
89	0	0	1906	3	183	306	3968
90	0	0	1702	4	184	307	3969
91	0	0	1585	4	183	307	3969
92	0	0	1480	4	183	306	3968
93	0	0	1359	4	183	305	3968
94	0	0	1316	4	184	306	3968
95	0	0	1394	5	184	307	3968
96	0	0	1547	5	184	307	3968
97	0	0	1489	4	184	307	3968
98	0	0	1589	5	184	307	3969
99	0	0	2034	5	184	307	3970
100	0	0	2367	5	185	307	3968
101	0	0	2670	5	184	307	3968
102	0	0	2964	5	184	307	3969
103	0	0	2982	4	184	306	3968
104	0	0	2861	5	184	307	3968
105	0	0	2703	4	182	307	3968
106	0	0	2534	4	183	307	3968
107	0	0	2358	5	183	307	3968
108	0	0	2215	4	183	306	3968
109	0	0	1903	4	184	307	3968
110	0	0	1696	4	182	307	3969
111	0	0	1583	4	183	307	3968
112	0	0	1465	4	183	307	3968
113	0	0	1346	4	183	305	3969
114	0	0	1316	4	184	307	3969
115	0	0	1411	5	186	306	3968
116	0	0	1490	5	184	308	3969
117	0	0	1447	5	184	307	3968
118	0	0	1552	5	184	306	3968
119	0	0	2024	5	184	307	3968
120	0	0	2371	5	183	308	3968
121	0	0	2675	5	184	307	3968
122	0	0	2957	5	184	307	3968
123	0	0	2980	4	183	307	3968
124	0	0	2853	4	184	307	3968
125	0	0	2691	4	183	307	3968
126	0	0	2527	4	184	307	3968
127	0	0	2346	4	183	306	3969
0	0	0	2212	4	184	307	3970
1	0	0	1908	5	182	307	3969
2	0	0	1698	4	183	307	3970
3	0	0	1580	4	183	307	3969
4	0	0	1480	4	183	307	3968
5	0	0	1364	4	184	307	3969
6	0	0	1319	4	183	307	3968
7	0	0	1394	5	185	306	3968
8	0	0	1545	4	184	307	3968
9	0	0	1488	3	184	307	3968
10	0	0	1576	5	184	306	3968
11	0	0	2024	4	184	307	3968
12	0	0	2358	5	184	307	3968
13	0	0	2662	6	184	306	3968
14	0	0	2958	5	184	307	3968
15	0	0	2983	5	183	306	3968
16	0	0	2859	4	183	307	3968
17	0	0	2697	4	184	307	3970
18	0	0	2531	4	183	307	3970
19	0	0	2354	3	183	307	3968
20	0	0	2223	4	184	307	3970
21	0	0	1920	4	183	307	3968
22	0	0	1712	4	183	307	3969
23	0	0	1591	4	183	307	3968
24	0	0	1476	3	184	307	3968
25	0	0	1367	4	183	307	3969
26	0	0	1347	4	184	307	3968
27	0	0	1368	4	184	306	3968
28	0	0	1489	5	185	307	3968
29	0	0	1452	4	185	307	3968
30	0	0	1564	5	184	307	3968
31	0	0	2028	5	185	307	3968
32	0	0	2369	5	184	307	3968
33	0	0	2672	5	184	307	3968
34	0	0	2964	4	184	307	3970
35	0	0	2990	4	184	307	3969
36	0	0	2856	4	183	307	3968
37	0	0	2694	4	183	307	3969
38	0	0	2545	4	183	307	3969
39	0	0	2364	5	184	307	3968
40	0	0	2230	4	184	307	3968
41	0	0	1928	4	183	307	3968
42	0	0	1729	4	183	307	3968
43	0	0	1624	5	182	307	3968
44	0	0	1516	3	183	306	3968
45	0	0	1390	4	183	307	3968
46	0	0	1331	3	184	307	3968
47	0	0	1404	5	183	306	3968
48	0	0	1544	6	184	306	3968
49	0	0	1476	4	184	307	3968
50	0	0	1565	5	184	306	3969
51	0	0	2026	4	185	307	3969
52	0	0	2370	7	185	307	3968
53	0	0	2654	5	183	307	3968
54	0	0	2950	5	185	307	3969
55	0	0	2980	4	184	307	3969
56	0	0	2856	3	183	307	3969
57	0	0	2700	4	185	307	3968
58	0	0	2540	4	183	307	3968
59	0	0	2362	5	183	307	3968
60	0	0	2229	4	184	307	3968
61	0	0	1920	4	184	307	3968
62	0	0	1721	4	184	307	3968
63	0	0	1588	5	183	306	3968
64	0	0	1480	5	183	306	3968
65	0	0	1370	4	184	307	3968
66	0	0	1351	5	182	306	3968
67	0	0	1376	6	184	307	3968
68	0	0	1527	6	184	306	3968
69	0	0	1477	4	184	307	3968
70	0	0	1577	5	183	307	3969
71	0	0	2034	5	184	307	3968
72	0	0	2380	5	184	306	3968
73	0	0	2676	5	184	307	3968
74	0	0	2971	5	184	307	3969
75	0	0	3007	4	184	307	3968
76	0	0	2867	3	184	307	3969
77	0	0	2696	4	183	307	3968
78	0	0	2519	4	183	307	3968
79	0	0	2334	4	184	306	3968
80	0	0	2204	4	183	306	3968
81	0	0	1892	3	183	307	3969
82	0	0	1692	4	185	307	3968
83	0	0	1581	4	184	307	3968
84	0	0	1488	5	184	307	3969
85	0	0	1373	4	185	306	3969
86	0	0	1329	3	183	308	3969
87	0	0	1408	5	184	307	3968
88	0	0	1561	5	184	306	3968
89	0	0	1483	4	184	307	3968
90	0	0	1573	5	185	307	3968
91	0	0	2035	5	184	306	3968
92	0	0	2370	5	185	307	3968
93	0	0	2643	5	184	307	3969
94	0	0	2941	6	185	307	3968
95	0	0	2983	4	184	307	3968
96	0	0	2864	4	184	307	3969
97	0	0	2703	4	183	307	3968
98	0	0	2534	4	184	308	3968
99	0	0	2366	4	183	307	3968
100	0	0	2219	4	183	307	3968
101	0	0	1889	4	183	307	3968
102	0	0	1684	4	184	307	3969
103	0	0	1558	4	184	307	3969
104	0	0	1462	3	184	307	3968
105	0	0	1358	4	183	307	3977
106	0	0	1318	3	184	307	3968
107	0	0	1384	5	184	306	3968
108	0	0	1551	5	184	306	3968
109	0	0	1485	4	185	307	3969
110	0	0	1576	5	184	307	3968
111	0	0	2050	5	185	307	3968
112	0	0	2387	5	185	307	3968
113	0	0	2669	5	184	306	3968
114	0	0	2961	5	184	307	3968
115	0	0	3003	4	183	307	3969
116	0	0	2874	4	183	307	3968
117	0	0	2709	4	183	306	3968
118	0	0	2537	4	182	307	3968
119	0	0	2374	5	183	307	3968
120	0	0	2233	4	183	307	3969
121	0	0	1923	4	183	306	3968
122	0	0	1715	4	184	306	3968
123	0	0	1606	4	182	308	3968
124	0	0	1512	4	184	307	3968
125	0	0	1388	4	183	306	3968
126	0	0	1337	4	183	307	3968
127	0	0	1404	6	184	307	3968
0	0	0	1561	5	182	307	3968
1	0	0	1495	4	184	307	3969
2	0	0	1566	5	184	307	3968
3	0	0	2018	5	184	307	3968
4	0	0	2351	5	183	307	3968
5	0	0	2642	5	184	306	3969
6	0	0	2944	5	183	306	3969
7	0	0	2982	4	184	307	3969
8	0	0	2864	4	183	307	3968
9	0	0	2707	4	184	306	3969
10	0	0	2535	4	182	306	3969
11	0	0	2373	4	184	307	3968
12	0	0	2233	4	184	307	3968
13	0	0	1919	3	184	307	3969
14	0	0	1699	4	184	307	3968
15	0	0	1584	4	183	307	3968
16	0	0	1494	3	184	307	3968
17	0	0	1404	4	183	306	3968
18	0	0	1317	4	184	308	3968
19	0	0	1384	5	184	307	3968
20	0	0	1550	5	184	307	3969
21	0	0	1486	4	185	307	3968
22	0	0	1561	5	185	306	3969
23	0	0	2021	5	185	307	3968
24	0	0	2355	6	184	307	3968
25	0	0	2642	4	182	307	3968
26	0	0	2948	5	184	307	3968
27	0	0	2983	4	184	306	3968
28	0	0	2855	4	183	307	3969
29	0	0	2691	4	184	308	3968
30	0	0	2518	4	184	307	3968
31	0	0	2349	4	183	307	3969
32	0	0	2216	4	183	307	3968
33	0	0	1908	4	183	306	3968
34	0	0	1705	4	183	307	3968
35	0	0	1594	4	183	306	3968
36	0	0	1491	4	183	307	3968
37	0	0	1384	4	184	306	3968
38	0	0	1345	4	183	307	3968
39	0	0	1404	5	184	307	3969
40	0	0	1551	5	185	307	3970
41	0	0	1475	3	184	307	3969
42	0	0	1569	5	184	306	3969
43	0	0	2022	5	185	306	3969
44	0	0	2346	5	185	307	3968
45	0	0	2626	5	184	307	3968
46	0	0	2941	5	183	307	3968
47	0	0	2979	4	184	307	3968
48	0	0	2860	4	183	307	3968
49	0	0	2707	4	183	307	3968
50	0	0	2547	4	183	306	3968
51	0	0	2394	3	183	307	3968
52	0	0	2246	4	183	307	3968
53	0	0	1928	4	183	307	3968
54	0	0	1706	4	183	307	3968
55	0	0	1597	4	184	306	3968
56	0	0	1499	3	183	306	3974
57	0	0	1354	4	183	307	3969
58	0	0	1256	4	183	307	3968
59	0	0	1342	5	184	306	3969
60	0	0	1515	5	184	306	3969
61	0	0	1466	3	184	307	3968
62	0	0	1543	5	185	307	3969
63	0	0	2012	5	184	307	3968
64	0	0	2351	5	185	307	3968
65	0	0	2624	5	185	307	3968
66	0	0	2945	5	184	307	3968
67	0	0	2989	4	182	307	3968
68	0	0	2881	5	184	307	3968
69	0	0	2721	4	183	307	3968
70	0	0	2547	4	183	306	3967
71	0	0	2383	3	182	307	3968
72	0	0	2255	4	183	306	3968
73	0	0	1931	4	183	307	3970
74	0	0	1716	4	183	307	3968
75	0	0	1582	4	184	307	3968
76	0	0	1472	3	183	307	3969
77	0	0	1357	4	183	307	3969
78	0	0	1308	4	183	307	3968
79	0	0	1380	4	184	306	3968
80	0	0	1534	4	185	307	3968
81	0	0	1489	4	184	307	3968
82	0	0	1565	5	184	307	3968
83	0	0	2028	5	184	307	3968
84	0	0	2357	5	184	307	3968
85	0	0	2632	5	184	307	3968
86	0	0	2951	5	184	307	3969
87	0	0	2993	4	184	307	3968
88	0	0	2879	4	183	307	3969
89	0	0	2728	4	185	307	3968
90	0	0	2548	4	184	307	3969
91	0	0	2378	4	183	307	3969
92	0	0	2251	4	183	306	3969
93	0	0	1912	4	184	307	3968
94	0	0	1693	4	183	307	3969
95	0	0	1588	4	183	307	3969
96	0	0	1491	3	183	307	3968
97	0	0	1335	4	184	307	3968
98	0	0	1281	4	184	307	3968
99	0	0	1367	5	184	307	3968
100	0	0	1546	5	184	307	3968
101	0	0	1487	4	183	307	3968
102	0	0	1555	5	185	307	3968
103	0	0	2023	5	184	307	3968
104	0	0	2369	5	184	307	3968
105	0	0	2645	5	184	306	3968
106	0	0	2961	5	184	306	3968
107	0	0	2992	4	183	307	3968
108	0	0	2871	4	183	307	3969
109	0	0	2720	4	185	307	3968
110	0	0	2548	4	183	307	3968
111	0	0	2381	4	183	307	3969
112	0	0	2247	4	183	307	3968
113	0	0	1938	4	183	307	3969
114	0	0	1726	4	184	306	3968
115	0	0	1601	4	183	307	3968
116	0	0	1485	4	183	307	3968
117	0	0	1371	4	183	307	3968
118	0	0	1322	4	184	307	3968
119	0	0	1391	4	184	306	3968
120	0	0	1540	5	185	307	3968
121	0	0	1492	3	184	307	3968
122	0	0	1556	5	185	307	3969
123	0	0	2023	5	184	306	3968
124	0	0	2359	5	184	306	3969
125	0	0	2646	5	184	307	3969
126	0	0	2960	4	184	307	3969
127	0	0	2985	4	183	307	3969
0	0	0	2853	4	183	307	3969
1	0	0	2676	4	184	307	3968
2	0	0	2510	4	183	307	3968
3	0	0	2347	3	183	307	3968
4	0	0	2223	4	184	307	3968
5	0	0	1896	4	183	307	3968
6	0	0	1696	4	184	307	3968
7	0	0	1618	4	184	307	3968
8	0	0	1508	3	184	307	3968
9	0	0	1342	4	182	306	3969
10	0	0	1303	4	184	306	3968
11	0	0	1388	5	184	307	3968
12	0	0	1548	5	184	306	3968
13	0	0	1497	3	185	307	3968
14	0	0	1556	5	184	307	3968
15	0	0	2034	5	184	307	3968
16	0	0	2365	5	185	307	3968
17	0	0	2636	5	184	307	3968
18	0	0	2954	5	185	307	3969
19	0	0	2981	4	184	307	3968
20	0	0	2858	4	183	307	3969
21	0	0	2705	4	185	307	3967
22	0	0	2534	4	182	307	3968
23	0	0	2372	4	184	307	3969
24	0	0	2249	4	183	307	3968
25	0	0	1932	4	183	307	3969
26	0	0	1715	4	183	306	3968
27	0	0	1602	4	183	307	3968
28	0	0	1488	3	183	307	3969
29	0	0	1386	4	184	307	3968
30	0	0	1329	4	183	306	3968
31	0	0	1392	5	184	306	3968
32	0	0	1544	5	184	307	3968
33	0	0	1494	3	183	307	3969
34	0	0	1555	5	184	306	3968
35	0	0	2017	5	184	307	3968
36	0	0	2354	5	184	306	3968
37	0	0	2626	5	184	307	3968
38	0	0	2947	5	183	307	3968
39	0	0	2970	4	183	307	3969
40	0	0	2843	4	183	306	3968
41	0	0	2687	4	183	306	3969
42	0	0	2533	4	184	307	3969
43	0	0	2374	4	183	307	3969
44	0	0	2235	4	184	307	3969
45	0	0	1908	5	182	306	3968
46	0	0	1700	5	183	307	3970
47	0	0	1603	4	184	307	3968
48	0	0	1455	3	183	306	3968
49	0	0	1342	4	183	307	3968
50	0	0	1315	5	184	307	3968
51	0	0	1385	5	184	307	3968
52	0	0	1531	5	185	307	3968
53	0	0	1486	4	184	307	3969
54	0	0	1544	5	184	306	3968
55	0	0	2005	5	183	306	3968
56	0	0	2326	5	184	306	3968
57	0	0	2603	5	183	306	3968
58	0	0	2932	4	185	307	3968
59	0	0	2975	4	183	307	3969
60	0	0	2854	4	184	307	3968
61	0	0	2704	5	183	307	3968
62	0	0	2559	4	183	307	3969
63	0	0	2387	4	183	307	3970
64	0	0	2253	4	183	307	3968
65	0	0	1944	4	183	307	3968
66	0	0	1733	5	183	306	3968
67	0	0	1612	4	182	307	3968
68	0	0	1495	4	183	307	3969
69	0	0	1384	3	184	307	3968
70	0	0	1334	5	183	307	3968
71	0	0	1400	5	183	307	3968
72	0	0	1542	5	181	307	3968
73	0	0	1483	3	184	307	3968
74	0	0	1548	5	184	306	3968
75	0	0	2010	5	185	307	3969
76	0	0	2337	5	185	306	3968
77	0	0	2610	5	185	307	3968
78	0	0	2942	4	184	307	3969
79	0	0	2986	4	184	307	3969
80	0	0	2855	4	184	307	3968
81	0	0	2697	4	184	307	3970
82	0	0	2538	4	183	307	3969
83	0	0	2369	4	183	307	3968
84	0	0	2233	4	184	307	3968
85	0	0	1919	5	183	306	3968
86	0	0	1714	4	184	307	3968
87	0	0	1624	4	185	307	3968
88	0	0	1468	4	183	307	3968
89	0	0	1367	4	184	307	3968
90	0	0	1326	4	185	307	3968
91	0	0	1386	5	183	306	3968
92	0	0	1511	5	182	306	3968
93	0	0	1457	4	184	307	3968
94	0	0	1527	5	185	307	3969
95	0	0	2003	5	185	307	3968
96	0	0	2341	5	184	306	3968
97	0	0	2610	5	185	307	3968
98	0	0	2941	5	183	307	3969
99	0	0	2980	4	184	307	3968
100	0	0	2856	4	183	307	3968
101	0	0	2710	4	183	306	3968
102	0	0	2555	4	183	306	3968
103	0	0	2387	4	182	307	3968
104	0	0	2252	4	183	307	3967
105	0	0	1940	4	184	306	3968
106	0	0	1722	4	183	306	3969
107	0	0	1605	4	183	307	3969
108	0	0	1488	4	183	307	3968
109	0	0	1360	4	184	307	3968
110	0	0	1307	5	184	307	3968
111	0	0	1373	5	184	307	3968
112	0	0	1511	5	186	306	3968
113	0	0	1481	4	184	306	3969
114	0	0	1530	5	184	307	3968
115	0	0	1988	5	184	307	3969
116	0	0	2321	5	185	306	3968
117	0	0	2598	5	185	307	3968
118	0	0	2936	5	184	307	3968
119	0	0	2988	4	184	306	3968
120	0	0	2880	4	184	306	3968
121	0	0	2720	5	184	306	3968
122	0	0	2555	4	184	307	3968
123	0	0	2375	4	183	307	3968
124	0	0	2221	4	183	307	3968
125	0	0	1900	5	183	307	3968
126	0	0	1687	4	183	307	3968
127	0	0	1583	4	183	306	3968
0	0	0	1466	4	183	307	3969
1	0	0	1352	4	183	306	3969
2	0	0	1314	4	184	307	3969
3	0	0	1384	5	186	307	3968
4	0	0	1546	5	187	307	3968
5	0	0	1509	4	185	307	3969
6	0	0	1554	5	184	306	3968
7	0	0	2018	5	184	306	3969
8	0	0	2365	5	185	306	3968
9	0	0	2590	5	185	306	3968
10	0	0	2801	5	184	306	3968
11	0	0	2851	5	183	306	3968
12	0	0	2790	4	184	307	3968
13	0	0	2678	4	183	306	3967
14	0	0	2534	4	182	307	3968
15	0	0	2367	4	184	306	3969
16	0	0	2246	4	183	307	3969
17	0	0	1942	4	183	307	3968
18	0	0	1709	4	183	307	3968
19	0	0	1588	4	181	306	3969
20	0	0	1476	4	183	307	3969
21	0	0	1365	4	183	307	3969
22	0	0	1320	4	184	307	3968
23	0	0	1381	5	184	306	3968
24	0	0	1522	5	185	306	3969
25	0	0	1492	3	184	307	3968
26	0	0	1543	5	185	307	3968
27	0	0	1998	5	186	307	3969
28	0	0	2340	5	184	307	3968
29	0	0	2618	5	185	307	3968
30	0	0	2964	5	185	307	3968
31	0	0	3004	4	183	307	3968
32	0	0	2874	4	184	306	3968
33	0	0	2721	4	183	307	3968
34	0	0	2574	4	183	307	3969
35	0	0	2378	4	183	307	3969
36	0	0	2235	4	184	307	3969
37	0	0	1938	4	183	307	3968
38	0	0	1735	4	183	307	3968
39	0	0	1563	4	183	307	3969
40	0	0	1444	4	183	307	3968
41	0	0	1334	4	183	307	3969
42	0	0	1295	4	184	307	3968
43	0	0	1366	5	184	307	3968
44	0	0	1511	5	185	306	3968
45	0	0	1482	4	184	307	3969
46	0	0	1539	5	185	307	3967
47	0	0	2002	5	184	307	3968
48	0	0	2341	5	185	306	3968
49	0	0	2612	5	185	307	3969
50	0	0	2954	5	184	307	3969
51	0	0	3007	5	185	307	3969
52	0	0	2875	4	184	307	3970
53	0	0	2712	4	184	306	3968
54	0	0	2550	4	183	306	3968
55	0	0	2365	4	184	307	3969
56	0	0	2230	4	183	307	3968
57	0	0	1926	5	182	307	3968
58	0	0	1709	4	184	307	3968
59	0	0	1605	4	183	307	3969
60	0	0	1500	4	183	306	3968
61	0	0	1389	4	183	307	3968
62	0	0	1330	4	184	307	3968
63	0	0	1388	5	184	307	3968
64	0	0	1524	5	184	307	3968
65	0	0	1479	4	184	307	3969
66	0	0	1526	5	184	307	3969
67	0	0	1993	5	184	307	3969
68	0	0	2338	5	184	307	3968
69	0	0	2599	5	185	306	3969
70	0	0	2937	5	183	307	3969
71	0	0	2987	4	184	307	3968
72	0	0	2859	4	184	307	3968
73	0	0	2704	5	183	306	3968
74	0	0	2539	4	183	307	3968
75	0	0	2349	4	183	306	3968
76	0	0	2240	5	183	306	3968
77	0	0	1944	4	184	307	3960
78	0	0	1711	4	183	306	3968
79	0	0	1555	4	184	307	3968
80	0	0	1453	4	184	306	3968
81	0	0	1355	4	183	306	3968
82	0	0	1313	5	183	307	3968
83	0	0	1381	5	183	307	3968
84	0	0	1526	5	183	307	3969
85	0	0	1494	4	184	307	3969
86	0	0	1505	5	184	307	3968
87	0	0	1972	5	185	307	3968
88	0	0	2318	4	184	307	3968
89	0	0	2589	5	185	306	3968
90	0	0	2945	5	184	307	3969
91	0	0	3012	4	183	307	3968
92	0	0	2899	5	182	307	3969
93	0	0	2726	4	183	308	3968
94	0	0	2551	4	184	306	3968
95	0	0	2374	4	183	307	3969
96	0	0	2254	4	183	307	3968
97	0	0	1942	4	182	307	3968
98	0	0	1724	4	183	306	3968
99	0	0	1612	4	183	306	3968
100	0	0	1489	4	183	307	3969
101	0	0	1378	5	184	307	3969
102	0	0	1327	4	184	307	3968
103	0	0	1380	4	184	307	3968
104	0	0	1521	4	185	306	3968
105	0	0	1489	4	184	307	3969
106	0	0	1525	5	184	306	3968
107	0	0	2002	5	185	307	3968
108	0	0	2352	5	185	307	3968
109	0	0	2627	5	184	307	3969
110	0	0	2953	5	183	307	3968
111	0	0	3000	4	184	307	3968
112	0	0	2873	4	183	307	3968
113	0	0	2721	4	184	307	3968
114	0	0	2549	4	183	306	3968
115	0	0	2371	4	184	307	3969
116	0	0	2256	4	183	306	3968
117	0	0	1953	4	182	307	3969
118	0	0	1684	4	184	307	3968
119	0	0	1560	4	184	306	3969
120	0	0	1451	4	184	307	3969
121	0	0	1362	4	183	307	3968
122	0	0	1331	4	183	307	3969
123	0	0	1387	5	183	306	3968
124	0	0	1524	5	183	307	3968
125	0	0	1492	4	185	307	3968
126	0	0	1524	5	184	307	3968
127	0	0	1990	5	184	307	3968
0	0	0	2325	5	184	307	3968
1	0	0	2585	5	185	307	3968
2	0	0	2927	5	184	306	3968
3	0	0	2987	4	184	307	3968
4	0	0	2863	4	182	307	3968
5	0	0	2709	4	183	307	3969
6	0	0	2561	4	184	307	3969
7	0	0	2386	4	183	307	3969
8	0	0	2269	4	183	307	3969
9	0	0	1953	4	183	307	3968
10	0	0	1733	4	184	307	3968
11	0	0	1620	4	183	307	3969
12	0	0	1499	4	183	307	3968
13	0	0	1380	4	184	307	3969
14	0	0	1326	4	183	307	3968
15	0	0	1386	5	183	307	3968
16	0	0	1529	5	184	306	3968
17	0	0	1504	4	184	307	3968
18	0	0	1521	5	184	307	3968
19	0	0	1982	5	184	307	3967
20	0	0	2326	5	184	307	3969
21	0	0	2589	5	184	307	3969
22	0	0	2927	5	185	307	3969
23	0	0	2995	4	183	307	3969
24	0	0	2878	4	184	307	3968
25	0	0	2726	3	184	307	3968
26	0	0	2546	4	184	306	3968
27	0	0	2364	4	183	307	3969
28	0	0	2260	4	184	307	3966
29	0	0	1949	3	183	307	3969
30	0	0	1667	4	183	306	3968
31	0	0	1571	4	183	307	3968
32	0	0	1478	4	183	307	3969
33	0	0	1385	4	183	307	3968
34	0	0	1330	4	183	307	3968
35	0	0	1371	5	183	307	3968
36	0	0	1510	5	184	307	3968
37	0	0	1470	4	184	307	3969
38	0	0	1496	5	185	306	3968
39	0	0	1974	5	185	307	3968
40	0	0	2323	5	184	307	3969
41	0	0	2582	5	184	307	3969
42	0	0	2930	5	185	306	3969
43	0	0	2986	4	184	306	3968
44	0	0	2862	4	182	307	3969
45	0	0	2712	4	183	306	3968
46	0	0	2554	4	183	307	3968
47	0	0	2390	4	184	307	3969
48	0	0	2268	4	183	307	3968
49	0	0	1947	4	183	307	3969
50	0	0	1723	4	184	308	3968
51	0	0	1611	4	183	305	3968
52	0	0	1503	4	183	307	3969
53	0	0	1390	4	183	307	3968
54	0	0	1329	4	183	307	3968
55	0	0	1375	5	184	307	3968
56	0	0	1508	5	185	307	3968
57	0	0	1479	4	184	307	3969
58	0	0	1502	5	184	307	3968
59	0	0	1982	5	184	307	3968
60	0	0	2339	5	184	307	3969
61	0	0	2599	5	184	307	3969
62	0	0	2930	5	183	307	3969
63	0	0	2993	4	184	306	3969
64	0	0	2873	4	183	307	3968
65	0	0	2717	4	183	307	3968
66	0	0	2549	4	184	306	3968
67	0	0	2379	4	183	306	3968
68	0	0	2270	4	183	306	3968
69	0	0	1958	4	184	307	3968
70	0	0	1726	4	184	307	3968
71	0	0	1624	4	184	307	3968
72	0	0	1506	4	183	307	3969
73	0	0	1395	4	184	306	3968
74	0	0	1336	4	183	307	3969
75	0	0	1385	5	184	307	3968
76	0	0	1522	5	185	306	3968
77	0	0	1500	4	184	307	3969
78	0	0	1517	5	184	307	3968
79	0	0	1978	5	184	306	3968
80	0	0	2323	5	185	307	3968
81	0	0	2590	5	186	307	3968
82	0	0	2932	5	184	307	3968
83	0	0	2989	4	184	307	3968
84	0	0	2867	5	183	307	3968
85	0	0	2714	4	183	307	3968
86	0	0	2551	4	183	307	3969
87	0	0	2373	4	184	307	3969
88	0	0	2256	4	183	307	3969
89	0	0	1939	4	184	307	3968
90	0	0	1716	4	183	307	3969
91	0	0	1608	4	184	306	3969
92	0	0	1484	4	184	306	3969
93	0	0	1366	4	183	306	3968
94	0	0	1318	4	183	307	3969
95	0	0	1391	5	184	307	3968
96	0	0	1532	5	184	307	3968
97	0	0	1502	4	184	306	3968
98	0	0	1506	5	184	307	3968
99	0	0	1984	5	185	306	3968
100	0	0	2331	5	184	307	3968
101	0	0	2588	5	185	307	3968
102	0	0	2922	5	184	307	3968
103	0	0	2996	4	184	307	3968
104	0	0	2874	5	184	307	3968
105	0	0	2699	4	184	307	3968
106	0	0	2532	4	183	307	3968
107	0	0	2372	4	184	307	3968
108	0	0	2280	4	183	307	3969
109	0	0	1927	4	182	306	3968
110	0	0	1687	4	183	307	3968
111	0	0	1580	4	183	307	3969
112	0	0	1471	4	184	307	3969
113	0	0	1367	4	184	306	3969
114	0	0	1321	4	185	307	3968
115	0	0	1386	5	184	306	3968
116	0	0	1534	5	184	307	3968
117	0	0	1519	4	184	307	3968
118	0	0	1525	6	185	306	3968
119	0	0	1985	5	184	307	3968
120	0	0	2343	5	186	306	3968
121	0	0	2600	5	185	307	3968
122	0	0	2938	5	185	307	3969
123	0	0	2998	4	184	307	3968
124	0	0	2870	4	183	307	3968
125	0	0	2720	4	184	306	3968
126	0	0	2554	4	183	306	3968
127	0	0	2371	4	184	307	3969
0	0	0	2251	4	183	307	3968
1	0	0	1939	4	182	306	3968
2	0	0	1721	4	184	306	3968
3	0	0	1621	4	183	307	3968
4	0	0	1507	4	184	307	3968
5	0	0	1387	4	184	307	3968
6	0	0	1328	4	184	306	3968
7	0	0	1380	5	185	307	3968
8	0	0	1528	5	185	307	3968
9	0	0	1521	4	185	307	3968
10	0	0	1512	5	184	307	3968
11	0	0	1976	5	183	307	3969
12	0	0	2328	5	184	307	3969
13	0	0	2583	5	184	307	3970
14	0	0	2921	5	183	306	3969
15	0	0	2992	4	183	307	3969
16	0	0	2863	3	184	307	3968
17	0	0	2699	4	183	307	3969
18	0	0	2538	4	184	307	3969
19	0	0	2361	4	184	307	3968
20	0	0	2206	4	183	306	3968
21	0	0	1890	4	184	307	3968
22	0	0	1688	4	184	306	3968
23	0	0	1597	4	183	307	3968
24	0	0	1498	4	183	306	3968
25	0	0	1401	4	184	306	3968
26	0	0	1342	4	184	307	3968
27	0	0	1384	5	185	307	3968
28	0	0	1523	5	184	307	3969
29	0	0	1497	4	184	307	3969
30	0	0	1494	5	184	307	3968
31	0	0	1958	5	185	307	3967
32	0	0	2319	5	185	307	3968
33	0	0	2582	5	185	307	3968
34	0	0	2923	5	185	307	3969
35	0	0	2993	4	184	306	3968
36	0	0	2855	4	183	307	3969
37	0	0	2709	4	185	308	3968
38	0	0	2548	4	184	307	3968
39	0	0	2373	4	183	307	3969
40	0	0	2262	4	183	306	3968
41	0	0	1958	3	182	307	3968
42	0	0	1742	4	183	307	3968
43	0	0	1623	4	184	307	3968
44	0	0	1497	4	183	306	3969
45	0	0	1382	4	184	307	3968
46	0	0	1326	4	184	307	3968
47	0	0	1373	5	184	307	3969
48	0	0	1507	5	184	307	3969
49	0	0	1501	4	184	306	3969
50	0	0	1490	5	184	306	3968
51	0	0	1961	5	184	307	3969
52	0	0	2314	5	185	307	3968
53	0	0	2569	5	184	307	3968
54	0	0	2920	5	183	306	3968
55	0	0	3004	4	184	307	3968
56	0	0	2876	3	184	307	3968
57	0	0	2720	4	184	307	3968
58	0	0	2553	4	184	307	3969
59	0	0	2386	4	182	306	3969
60	0	0	2219	4	183	306	3968
61	0	0	1918	4	184	307	3968
62	0	0	1688	4	183	307	3968
63	0	0	1590	4	183	306	3969
64	0	0	1476	4	183	307	3969
65	0	0	1365	4	183	306	3968
66	0	0	1317	4	184	307	3969
67	0	0	1369	5	183	307	3968
68	0	0	1518	5	184	307	3968
69	0	0	1525	4	184	307	3969
70	0	0	1512	5	184	307	3968
71	0	0	1975	5	185	306	3967
72	0	0	2332	5	185	307	3968
73	0	0	2595	5	184	307	3968
74	0	0	2935	5	184	307	3968
75	0	0	2994	4	183	306	3968
76	0	0	2866	4	184	306	3968
77	0	0	2723	5	184	307	3968
78	0	0	2560	4	184	307	3969
79	0	0	2380	4	183	306	3969
80	0	0	2265	4	183	306	3968
81	0	0	1955	4	183	307	3969
82	0	0	1728	4	183	307	3968
83	0	0	1619	4	183	306	3968
84	0	0	1498	4	183	306	3968
85	0	0	1383	4	184	307	3968
86	0	0	1336	4	184	307	3968
87	0	0	1395	5	185	307	3968
88	0	0	1529	5	185	307	3968
89	0	0	1521	4	183	306	3968
90	0	0	1512	5	184	307	3968
91	0	0	1969	5	184	306	3968
92	0	0	2314	5	184	306	3968
93	0	0	2564	5	185	306	3969
94	0	0	2917	5	183	306	3969
95	0	0	2982	5	184	307	3968
96	0	0	2848	5	184	307	3968
97	0	0	2706	4	184	307	3969
98	0	0	2561	4	182	306	3969
99	0	0	2363	4	183	307	3969
100	0	0	2233	4	184	307	3969
101	0	0	1930	3	183	307	3968
102	0	0	1719	4	182	307	3968
103	0	0	1628	4	183	306	3969
104	0	0	1513	4	183	306	3968
105	0	0	1393	4	184	307	3968
106	0	0	1328	4	184	307	3968
107	0	0	1371	5	183	306	3967
108	0	0	1510	5	185	308	3968
109	0	0	1500	4	184	306	3968
110	0	0	1492	5	184	307	3968
111	0	0	1955	5	185	307	3970
112	0	0	2316	5	184	307	3968
113	0	0	2571	4	184	307	3968
114	0	0	2922	5	183	306	3969
115	0	0	2999	4	184	306	3968
116	0	0	2877	5	184	307	3968
117	0	0	2731	4	184	307	3968
118	0	0	2570	4	183	307	3969
119	0	0	2380	4	184	307	3968
120	0	0	2268	4	184	307	3967
121	0	0	1962	3	183	306	3968
122	0	0	1732	4	184	307	3968
123	0	0	1618	4	183	307	3968
124	0	0	1481	4	184	306	3968
125	0	0	1372	5	184	306	3968
126	0	0	1313	4	184	307	3969
127	0	0	1365	5	184	307	3968
0	0	0	1506	5	184	308	3968
1	0	0	1500	4	184	306	3969
2	0	0	1495	5	183	307	3968
3	0	0	1961	5	184	307	3969
4	0	0	2324	5	185	307	3969
5	0	0	2587	5	184	307	3968
6	0	0	2947	5	183	306	3968
7	0	0	3003	4	183	306	3968
8	0	0	2872	4	185	307	3968
9	0	0	2732	4	184	307	3968
10	0	0	2592	4	183	308	3968
11	0	0	2336	4	182	306	3968
12	0	0	2235	4	182	306	3968
13	0	0	1941	4	184	307	3968
14	0	0	1721	4	184	307	3969
15	0	0	1619	4	182	308	3969
16	0	0	1506	4	183	307	3970
17	0	0	1399	4	184	307	3968
18	0	0	1339	4	184	307	3968
19	0	0	1376	5	184	307	3968
20	0	0	1508	5	184	306	3969
21	0	0	1506	4	183	306	3968
22	0	0	1488	5	184	307	3968
23	0	0	1948	5	184	307	3968
24	0	0	2312	5	184	307	3968
25	0	0	2559	5	184	307	3969
26	0	0	2914	5	184	307	3968
27	0	0	2995	4	184	306	3968
28	0	0	2874	4	183	307	3968
29	0	0	2730	4	184	307	3967
30	0	0	2579	4	183	307	3968
31	0	0	2380	4	183	307	3968
32	0	0	2279	4	183	307	3969
