# bioPlux Text File Format
# Version: 1
# StartDateTime: 2011-07-18 10:10:43
# SamplingFrequency: 1000
# SampledChannels: 1 2 3 4
# SamplingResolution: 12
# AcquiringDevice: 00:07:80:42:0F:8B
# EndOfHeader
0	0	0	2153	1226	1679	34
1	0	0	2177	1228	1670	31
2	0	0	2204	1228	1656	33
3	0	0	2174	1224	1651	32
4	0	0	2108	1223	1653	33
5	0	0	2060	1225	1658	33
6	0	0	2025	1225	1667	29
7	0	0	1989	1222	1676	32
8	0	0	1948	1223	1681	33
9	0	0	1912	1224	1682	32
10	0	0	1886	1223	1679	32
11	0	0	1860	1223	1667	32
12	0	0	1819	1223	1654	32
13	0	0	1808	1226	1649	32
14	0	0	1844	1227	1650	32
15	0	0	1895	1226	1658	35
16	0	0	1958	1226	1667	32
17	0	0	2021	1226	1675	33
18	0	0	2075	1226	1681	32
19	0	0	2110	1225	1683	33
20	0	0	2133	1226	1681	33
21	0	0	2166	1227	1669	30
22	0	0	2229	1226	1655	32
23	0	0	2253	1226	1651	32
24	0	0	2234	1223	1653	32
25	0	0	2176	1222	1659	33
26	0	0	2091	1221	1667	32
27	0	0	2005	1222	1676	32
28	0	0	1936	1222	1681	32
29	0	0	1889	1223	1682	32
30	0	0	1868	1222	1679	34
31	0	0	1864	1225	1668	29
32	0	0	1849	1224	1654	32
33	0	0	1849	1225	1649	31
34	0	0	1872	1225	1652	32
35	0	0	1898	1224	1658	34
36	0	0	1924	1225	1665	32
37	0	0	1957	1226	1675	33
38	0	0	2007	1225	1681	33
39	0	0	2059	1224	1683	33
40	0	0	2111	1225	1679	32
41	0	0	2151	1226	1668	32
42	0	0	2192	1226	1656	32
43	0	0	2205	1224	1651	32
44	0	0	2182	1222	1653	32
45	0	0	2138	1222	1660	33
46	0	0	2072	1222	1667	32
47	0	0	1999	1221	1676	32
48	0	0	1944	1221	1681	32
49	0	0	1907	1221	1683	32
50	0	0	1863	1221	1679	32
51	0	0	1816	1221	1667	32
52	0	0	1782	1222	1654	32
53	0	0	1779	1224	1650	31
54	0	0	1799	1224	1652	32
55	0	0	1837	1223	1659	34
56	0	0	1894	1225	1668	32
57	0	0	1953	1223	1675	32
58	0	0	2018	1223	1681	32
59	0	0	2074	1224	1682	33
60	0	0	2110	1225	1680	33
61	0	0	2131	1225	1668	32
62	0	0	2171	1225	1655	33
63	0	0	2190	1225	1651	32
64	0	0	2186	1224	1654	32
65	0	0	2162	1221	1658	33
66	0	0	2095	1221	1666	32
67	0	0	2010	1219	1675	32
68	0	0	1945	1221	1681	31
69	0	0	1925	1224	1682	32
70	0	0	1937	1223	1678	33
71	0	0	1970	1224	1666	32
72	0	0	2008	1224	1655	32
73	0	0	2066	1224	1650	31
74	0	0	2129	1224	1651	32
75	0	0	2181	1222	1657	33
76	0	0	2240	1224	1666	32
77	0	0	2296	1224	1676	32
78	0	0	2356	1223	1680	31
79	0	0	2417	1224	1684	35
80	0	0	2465	1223	1679	31
81	0	0	2503	1224	1668	32
82	0	0	2555	1223	1655	32
83	0	0	2578	1224	1651	32
84	0	0	2572	1224	1653	32
85	0	0	2558	1223	1659	32
86	0	0	2515	1222	1666	32
87	0	0	2472	1219	1675	33
88	0	0	2441	1221	1681	33
89	0	0	2413	1221	1682	32
90	0	0	2381	1221	1679	31
91	0	0	2350	1220	1668	32
92	0	0	2303	1219	1654	31
93	0	0	2271	1221	1650	32
94	0	0	2255	1222	1651	32
95	0	0	2244	1223	1658	33
96	0	0	2254	1223	1668	32
97	0	0	2279	1220	1674	33
98	0	0	2317	1223	1681	33
99	0	0	2352	1224	1683	33
100	0	0	2355	1223	1680	32
101	0	0	2345	1224	1670	33
102	0	0	2352	1221	1655	33
103	0	0	2322	1220	1650	33
104	0	0	2258	1219	1653	32
105	0	0	2182	1221	1658	32
106	0	0	2080	1218	1668	32
107	0	0	1962	1219	1676	33
108	0	0	1859	1218	1681	32
109	0	0	1765	1219	1682	32
110	0	0	1678	1219	1679	32
111	0	0	1615	1219	1668	32
112	0	0	1574	1217	1653	32
113	0	0	1588	1222	1649	32
114	0	0	1642	1221	1652	32
115	0	0	1707	1221	1658	31
116	0	0	1775	1222	1666	31
117	0	0	1830	1221	1675	33
118	0	0	1871	1222	1681	33
119	0	0	1918	1222	1683	32
120	0	0	1954	1223	1680	32
121	0	0	1976	1222	1669	32
122	0	0	2017	1220	1655	34
123	0	0	2033	1222	1650	31
124	0	0	2023	1220	1654	32
125	0	0	2001	1220	1659	32
126	0	0	1953	1219	1666	31
127	0	0	1905	1217	1675	32
0	0	0	1869	1219	1681	32
1	0	0	1810	1218	1682	32
2	0	0	1763	1218	1678	33
3	0	0	1730	1219	1669	33
4	0	0	1687	1216	1654	32
5	0	0	1677	1221	1649	32
6	0	0	1709	1222	1651	32
7	0	0	1757	1222	1658	32
8	0	0	1811	1221	1668	33
9	0	0	1864	1222	1675	32
10	0	0	1935	1222	1681	33
11	0	0	2007	1222	1683	33
12	0	0	2070	1221	1679	31
13	0	0	2117	1223	1669	32
14	0	0	2168	1221	1655	32
15	0	0	2168	1220	1650	32
16	0	0	2129	1215	1653	32
17	0	0	2083	1218	1659	32
18	0	0	2024	1218	1667	32
19	0	0	1980	1216	1675	33
20	0	0	1961	1220	1681	32
21	0	0	1941	1220	1681	32
22	0	0	1913	1218	1678	32
23	0	0	1872	1217	1668	32
24	0	0	1830	1218	1654	31
25	0	0	1803	1219	1649	32
26	0	0	1806	1222	1651	32
27	0	0	1838	1221	1658	32
28	0	0	1888	1222	1668	33
29	0	0	1941	1221	1675	33
30	0	0	1996	1221	1681	32
31	0	0	2054	1219	1681	32
32	0	0	2106	1220	1679	31
33	0	0	2136	1221	1668	32
34	0	0	2169	1220	1655	32
35	0	0	2172	1221	1650	32
36	0	0	2147	1217	1653	32
37	0	0	2114	1217	1659	31
38	0	0	2061	1217	1667	32
39	0	0	2013	1216	1675	33
40	0	0	1978	1218	1680	32
41	0	0	1953	1220	1682	32
42	0	0	1929	1218	1678	32
43	0	0	1913	1220	1668	31
44	0	0	1900	1220	1653	31
45	0	0	1898	1220	1649	32
46	0	0	1908	1220	1651	32
47	0	0	1930	1219	1659	31
48	0	0	1960	1220	1667	32
49	0	0	1985	1220	1675	33
50	0	0	2026	1220	1680	33
51	0	0	2080	1219	1683	32
52	0	0	2123	1220	1679	31
53	0	0	2163	1221	1669	32
54	0	0	2225	1221	1655	34
55	0	0	2250	1221	1650	34
56	0	0	2225	1218	1653	31
57	0	0	2190	1217	1659	32
58	0	0	2118	1217	1667	32
59	0	0	2038	1216	1676	32
60	0	0	1980	1217	1681	32
61	0	0	1922	1215	1681	31
62	0	0	1864	1218	1678	33
63	0	0	1834	1217	1667	32
64	0	0	1814	1218	1653	32
65	0	0	1824	1221	1649	31
66	0	0	1865	1219	1652	32
67	0	0	1911	1220	1658	33
68	0	0	1965	1220	1668	33
69	0	0	2025	1220	1676	32
70	0	0	2079	1220	1681	32
71	0	0	2122	1219	1682	31
72	0	0	2161	1221	1679	32
73	0	0	2195	1220	1669	33
74	0	0	2248	1221	1656	33
75	0	0	2282	1220	1650	33
76	0	0	2285	1220	1653	33
77	0	0	2253	1218	1659	32
78	0	0	2177	1216	1668	33
79	0	0	2073	1216	1675	32
80	0	0	1984	1216	1680	32
81	0	0	1926	1217	1681	31
82	0	0	1894	1217	1679	34
83	0	0	1896	1219	1667	33
84	0	0	1902	1220	1654	33
85	0	0	1913	1219	1649	32
86	0	0	1950	1219	1652	32
87	0	0	1984	1219	1658	29
88	0	0	2000	1220	1667	33
89	0	0	2015	1220	1674	33
90	0	0	2050	1219	1681	32
91	0	0	2096	1219	1682	32
92	0	0	2129	1220	1679	35
93	0	0	2143	1220	1666	32
94	0	0	2190	1220	1656	32
95	0	0	2225	1221	1650	32
96	0	0	2230	1220	1652	32
97	0	0	2220	1218	1659	34
98	0	0	2164	1217	1667	33
99	0	0	2095	1215	1675	32
100	0	0	2030	1216	1680	31
101	0	0	1980	1216	1681	34
102	0	0	1957	1217	1677	33
103	0	0	1950	1219	1667	32
104	0	0	1955	1220	1654	33
105	0	0	1982	1218	1648	32
106	0	0	2011	1220	1651	32
107	0	0	2012	1219	1658	34
108	0	0	2015	1219	1666	33
109	0	0	2021	1219	1676	33
110	0	0	2052	1219	1681	33
111	0	0	2098	1219	1682	33
112	0	0	2150	1220	1679	32
113	0	0	2196	1219	1669	32
114	0	0	2260	1218	1654	33
115	0	0	2295	1220	1651	33
116	0	0	2279	1217	1652	32
117	0	0	2240	1217	1659	32
118	0	0	2166	1216	1667	32
119	0	0	2085	1215	1676	31
120	0	0	2026	1216	1680	32
121	0	0	1984	1215	1683	31
122	0	0	1960	1215	1679	33
123	0	0	1953	1219	1668	30
124	0	0	1942	1215	1653	31
125	0	0	1942	1218	1649	31
126	0	0	1962	1218	1653	33
127	0	0	1998	1217	1658	33
0	0	0	2054	1218	1665	32
1	0	0	2117	1220	1676	33
2	0	0	2178	1218	1680	32
3	0	0	2228	1219	1682	32
4	0	0	2260	1219	1679	32
5	0	0	2278	1216	1668	31
6	0	0	2324	1220	1656	32
7	0	0	2355	1219	1650	32
8	0	0	2350	1218	1652	32
9	0	0	2317	1215	1658	32
10	0	0	2235	1215	1667	31
11	0	0	2142	1214	1675	32
12	0	0	2072	1214	1680	32
13	0	0	2025	1215	1681	31
14	0	0	1986	1215	1679	34
15	0	0	1968	1216	1665	32
16	0	0	1944	1215	1652	32
17	0	0	1945	1218	1649	32
18	0	0	1966	1220	1651	32
19	0	0	1989	1217	1657	33
20	0	0	2037	1218	1667	30
21	0	0	2093	1218	1674	33
22	0	0	2143	1217	1680	33
23	0	0	2182	1220	1681	32
24	0	0	2218	1218	1680	33
25	0	0	2259	1219	1668	31
26	0	0	2327	1218	1654	32
27	0	0	2367	1218	1650	32
28	0	0	2349	1215	1652	31
29	0	0	2294	1215	1658	32
30	0	0	2216	1214	1668	32
31	0	0	2138	1213	1673	32
32	0	0	2087	1215	1681	32
33	0	0	2059	1214	1680	32
34	0	0	2045	1219	1677	33
35	0	0	2054	1217	1667	30
36	0	0	2048	1217	1653	33
37	0	0	2055	1217	1649	33
38	0	0	2087	1219	1651	32
39	0	0	2128	1217	1658	32
40	0	0	2171	1217	1667	30
41	0	0	2205	1217	1674	32
42	0	0	2244	1217	1680	32
43	0	0	2278	1218	1681	33
44	0	0	2303	1217	1678	34
45	0	0	2331	1218	1667	32
46	0	0	2383	1219	1654	33
47	0	0	2397	1217	1650	32
48	0	0	2354	1213	1652	31
49	0	0	2300	1214	1658	32
50	0	0	2229	1214	1667	31
51	0	0	2150	1213	1674	34
52	0	0	2098	1213	1680	32
53	0	0	2072	1216	1681	32
54	0	0	2076	1216	1678	33
55	0	0	2078	1216	1666	29
56	0	0	2067	1217	1652	33
57	0	0	2062	1216	1648	33
58	0	0	2065	1216	1650	33
59	0	0	2068	1217	1657	32
60	0	0	2096	1216	1668	31
61	0	0	2146	1217	1674	33
62	0	0	2232	1216	1680	33
63	0	0	2318	1216	1681	33
64	0	0	2366	1217	1677	32
65	0	0	2390	1217	1668	32
66	0	0	2422	1217	1653	33
67	0	0	2418	1217	1650	32
68	0	0	2382	1215	1651	32
69	0	0	2347	1214	1658	33
70	0	0	2293	1213	1668	32
71	0	0	2223	1212	1675	34
72	0	0	2162	1213	1680	32
73	0	0	2113	1214	1681	32
74	0	0	2080	1214	1676	32
75	0	0	2067	1215	1666	30
76	0	0	2048	1214	1652	32
77	0	0	2052	1215	1648	31
78	0	0	2088	1215	1651	32
79	0	0	2135	1216	1656	32
80	0	0	2185	1214	1667	29
81	0	0	2224	1216	1675	32
82	0	0	2253	1215	1680	32
83	0	0	2286	1216	1683	35
84	0	0	2315	1216	1679	34
85	0	0	2347	1217	1668	31
86	0	0	2402	1215	1655	32
87	0	0	2433	1217	1649	32
88	0	0	2424	1217	1651	32
89	0	0	2392	1213	1659	33
90	0	0	2313	1212	1667	30
91	0	0	2221	1212	1676	32
92	0	0	2145	1212	1680	31
93	0	0	2094	1213	1680	31
94	0	0	2072	1213	1678	32
95	0	0	2070	1216	1666	31
96	0	0	2069	1216	1653	32
97	0	0	2087	1216	1648	33
98	0	0	2124	1215	1650	32
99	0	0	2156	1215	1658	33
100	0	0	2187	1216	1667	31
101	0	0	2216	1216	1677	34
102	0	0	2251	1216	1680	34
103	0	0	2288	1216	1681	33
104	0	0	2334	1215	1678	33
105	0	0	2368	1215	1668	31
106	0	0	2401	1216	1655	33
107	0	0	2400	1215	1650	31
108	0	0	2364	1213	1652	32
109	0	0	2334	1214	1657	32
110	0	0	2279	1211	1667	30
111	0	0	2208	1212	1675	32
112	0	0	2128	1212	1680	32
113	0	0	2049	1211	1681	31
114	0	0	1984	1211	1678	33
115	0	0	1953	1212	1667	31
116	0	0	1947	1214	1654	31
117	0	0	1976	1215	1648	31
118	0	0	2050	1216	1651	32
119	0	0	2131	1215	1657	32
120	0	0	2182	1216	1666	32
121	0	0	2188	1214	1676	33
122	0	0	2205	1213	1680	32
123	0	0	2229	1216	1680	32
124	0	0	2238	1216	1678	32
125	0	0	2234	1214	1667	30
126	0	0	2254	1216	1655	33
127	0	0	2262	1215	1650	31
0	0	0	2259	1216	1652	33
1	0	0	2238	1212	1660	34
2	0	0	2182	1211	1667	31
3	0	0	2115	1211	1676	32
4	0	0	2067	1211	1680	32
5	0	0	2031	1211	1681	32
6	0	0	1997	1211	1678	32
7	0	0	1974	1212	1666	31
8	0	0	1956	1213	1654	32
9	0	0	1964	1212	1648	32
10	0	0	1995	1214	1651	31
11	0	0	2023	1214	1657	32
12	0	0	2058	1214	1666	31
13	0	0	2105	1215	1676	32
14	0	0	2154	1214	1680	32
15	0	0	2180	1215	1681	32
16	0	0	2195	1214	1678	32
17	0	0	2207	1215	1666	29
18	0	0	2247	1215	1654	32
19	0	0	2255	1215	1650	33
20	0	0	2226	1212	1652	32
21	0	0	2179	1211	1658	32
22	0	0	2109	1211	1667	31
23	0	0	2030	1210	1677	34
24	0	0	1968	1210	1680	32
25	0	0	1933	1212	1680	31
26	0	0	1910	1211	1678	32
27	0	0	1887	1211	1666	29
28	0	0	1851	1212	1652	31
29	0	0	1832	1212	1648	31
30	0	0	1846	1213	1650	31
31	0	0	1882	1214	1658	34
32	0	0	1940	1213	1667	31
33	0	0	2014	1215	1674	33
34	0	0	2072	1214	1680	32
35	0	0	2121	1215	1681	32
36	0	0	2151	1214	1679	34
37	0	0	2155	1214	1667	31
38	0	0	2169	1213	1655	32
39	0	0	2166	1213	1650	32
40	0	0	2149	1214	1652	32
41	0	0	2134	1212	1659	35
42	0	0	2098	1211	1667	31
43	0	0	2055	1210	1676	32
44	0	0	2008	1210	1680	31
45	0	0	1959	1211	1681	32
46	0	0	1910	1210	1678	34
47	0	0	1867	1210	1667	31
48	0	0	1831	1211	1651	32
49	0	0	1826	1213	1648	32
50	0	0	1847	1213	1651	32
51	0	0	1879	1212	1658	31
52	0	0	1930	1212	1666	32
53	0	0	1991	1213	1673	32
54	0	0	2062	1213	1680	31
55	0	0	2122	1213	1681	32
56	0	0	2173	1213	1678	32
57	0	0	2213	1213	1667	31
58	0	0	2246	1214	1654	31
59	0	0	2249	1214	1650	31
60	0	0	2217	1211	1652	32
61	0	0	2156	1210	1658	33
62	0	0	2078	1210	1667	31
63	0	0	2006	1207	1676	32
64	0	0	1946	1210	1681	31
65	0	0	1890	1211	1681	32
66	0	0	1854	1210	1677	32
67	0	0	1843	1213	1666	31
68	0	0	1843	1213	1652	31
69	0	0	1861	1212	1649	32
70	0	0	1901	1213	1651	33
71	0	0	1940	1213	1657	32
72	0	0	1983	1213	1666	32
73	0	0	2018	1212	1673	32
74	0	0	2040	1213	1681	33
75	0	0	2071	1211	1681	33
76	0	0	2118	1213	1679	35
77	0	0	2158	1213	1667	32
78	0	0	2205	1214	1655	32
79	0	0	2223	1212	1650	32
80	0	0	2197	1210	1653	31
81	0	0	2150	1209	1658	32
82	0	0	2071	1209	1668	32
83	0	0	1989	1210	1674	32
84	0	0	1932	1209	1681	31
85	0	0	1885	1209	1681	32
86	0	0	1854	1209	1677	31
87	0	0	1845	1212	1666	29
88	0	0	1846	1213	1651	31
89	0	0	1878	1212	1648	31
90	0	0	1907	1211	1650	32
91	0	0	1932	1213	1658	31
92	0	0	1968	1214	1667	32
93	0	0	2020	1212	1674	32
94	0	0	2071	1211	1681	32
95	0	0	2116	1210	1682	33
96	0	0	2143	1213	1678	33
97	0	0	2154	1214	1668	32
98	0	0	2190	1212	1653	32
99	0	0	2207	1214	1650	32
100	0	0	2193	1211	1653	33
101	0	0	2166	1209	1659	32
102	0	0	2107	1208	1668	32
103	0	0	2021	1208	1674	31
104	0	0	1941	1208	1680	32
105	0	0	1871	1209	1681	32
106	0	0	1818	1209	1677	29
107	0	0	1787	1209	1666	32
108	0	0	1783	1212	1652	32
109	0	0	1816	1212	1649	31
110	0	0	1893	1211	1649	32
111	0	0	1975	1213	1657	32
112	0	0	2035	1212	1667	31
113	0	0	2058	1212	1674	31
114	0	0	2070	1212	1680	32
115	0	0	2086	1211	1682	32
116	0	0	2109	1213	1678	33
117	0	0	2146	1213	1668	30
118	0	0	2203	1213	1654	32
119	0	0	2226	1213	1651	31
120	0	0	2185	1209	1652	32
121	0	0	2129	1209	1658	33
122	0	0	2038	1208	1667	32
123	0	0	1959	1208	1675	32
124	0	0	1913	1207	1680	32
125	0	0	1886	1209	1681	32
126	0	0	1872	1210	1678	33
127	0	0	1871	1211	1667	32
0	0	0	1866	1211	1652	31
1	0	0	1889	1209	1648	32
2	0	0	1934	1214	1650	33
3	0	0	1999	1212	1658	33
4	0	0	2070	1212	1667	32
5	0	0	2121	1212	1676	33
6	0	0	2151	1211	1680	32
7	0	0	2181	1210	1681	31
8	0	0	2207	1213	1679	31
9	0	0	2218	1212	1668	34
10	0	0	2243	1212	1654	31
11	0	0	2247	1211	1650	31
12	0	0	2223	1209	1653	32
13	0	0	2172	1209	1658	33
14	0	0	2077	1208	1667	36
15	0	0	1984	1208	1676	32
16	0	0	1909	1208	1680	33
17	0	0	1861	1210	1681	34
18	0	0	1839	1209	1678	32
19	0	0	1852	1211	1667	31
20	0	0	1869	1211	1653	32
21	0	0	1882	1211	1649	31
22	0	0	1911	1211	1651	32
23	0	0	1945	1213	1658	32
24	0	0	1992	1213	1667	31
25	0	0	2042	1211	1675	31
26	0	0	2096	1211	1681	32
27	0	0	2144	1210	1681	32
28	0	0	2173	1212	1679	33
29	0	0	2191	1212	1668	31
30	0	0	2215	1211	1655	31
31	0	0	2220	1210	1650	32
32	0	0	2203	1210	1652	31
33	0	0	2175	1209	1660	32
34	0	0	2116	1208	1667	31
35	0	0	2055	1208	1676	31
36	0	0	2014	1208	1680	32
37	0	0	1993	1211	1680	33
38	0	0	1982	1212	1678	32
39	0	0	1978	1211	1667	31
40	0	0	1961	1208	1653	31
41	0	0	1948	1211	1649	31
42	0	0	1953	1209	1651	32
43	0	0	1960	1211	1658	33
44	0	0	1984	1211	1667	31
45	0	0	2011	1212	1675	32
46	0	0	2049	1211	1681	33
47	0	0	2095	1215	1681	33
48	0	0	2145	1213	1679	33
49	0	0	2197	1211	1667	36
50	0	0	2261	1213	1655	31
51	0	0	2262	1209	1650	32
52	0	0	2206	1208	1652	31
53	0	0	2139	1209	1660	33
54	0	0	2076	1208	1668	27
55	0	0	2034	1208	1676	32
56	0	0	2006	1209	1681	32
57	0	0	1984	1211	1681	32
58	0	0	1967	1211	1678	32
59	0	0	1959	1211	1667	30
60	0	0	1936	1208	1653	32
61	0	0	1924	1209	1649	31
62	0	0	1927	1213	1650	33
63	0	0	1946	1211	1658	33
64	0	0	1987	1213	1668	31
65	0	0	2034	1211	1675	33
66	0	0	2088	1211	1681	32
67	0	0	2141	1211	1683	33
68	0	0	2187	1212	1679	33
69	0	0	2218	1211	1667	31
70	0	0	2245	1211	1655	32
71	0	0	2233	1208	1651	32
72	0	0	2193	1209	1652	32
73	0	0	2168	1210	1660	33
74	0	0	2128	1208	1668	35
75	0	0	2080	1207	1675	32
76	0	0	2036	1207	1681	32
77	0	0	1991	1207	1682	33
78	0	0	1940	1206	1678	32
79	0	0	1899	1207	1667	27
80	0	0	1852	1206	1652	32
81	0	0	1823	1207	1650	31
82	0	0	1839	1211	1651	32
83	0	0	1878	1212	1659	33
84	0	0	1940	1211	1668	32
85	0	0	2012	1210	1675	33
86	0	0	2090	1208	1681	32
87	0	0	2160	1210	1683	34
88	0	0	2208	1211	1680	36
89	0	0	2241	1211	1668	35
90	0	0	2278	1211	1655	32
91	0	0	2284	1211	1651	32
92	0	0	2264	1211	1653	32
93	0	0	2241	1210	1661	33
94	0	0	2186	1207	1668	31
95	0	0	2091	1207	1675	32
96	0	0	1994	1206	1682	32
97	0	0	1905	1204	1681	32
98	0	0	1853	1206	1678	32
99	0	0	1845	1210	1666	33
100	0	0	1849	1209	1653	32
101	0	0	1872	1210	1649	32
102	0	0	1914	1211	1652	33
103	0	0	1958	1210	1659	32
104	0	0	2005	1209	1668	12
105	0	0	2059	1211	1675	33
106	0	0	2118	1210	1682	33
107	0	0	2163	1210	1683	33
108	0	0	2187	1211	1680	31
109	0	0	2200	1211	1671	31
110	0	0	2245	1211	1653	32
111	0	0	2265	1211	1650	32
112	0	0	2239	1208	1653	32
113	0	0	2200	1207	1659	31
114	0	0	2136	1207	1668	31
115	0	0	2063	1205	1675	33
116	0	0	2008	1206	1681	32
117	0	0	1964	1207	1682	32
118	0	0	1924	1206	1679	31
119	0	0	1892	1206	1667	29
120	0	0	1866	1209	1652	31
121	0	0	1881	1209	1650	31
122	0	0	1911	1209	1652	32
123	0	0	1954	1208	1658	31
124	0	0	2013	1210	1668	29
125	0	0	2074	1210	1675	32
126	0	0	2122	1209	1682	33
127	0	0	2149	1209	1683	31
0	0	0	2159	1211	1680	31
1	0	0	2188	1211	1668	33
2	0	0	2241	1211	1656	32
3	0	0	2264	1210	1651	32
4	0	0	2244	1208	1654	34
5	0	0	2204	1207	1660	36
6	0	0	2125	1205	1669	32
7	0	0	2057	1207	1677	33
8	0	0	2024	1207	1681	32
9	0	0	2006	1207	1682	34
10	0	0	1990	1205	1678	32
11	0	0	1959	1206	1667	31
12	0	0	1915	1206	1653	32
13	0	0	1911	1209	1650	32
14	0	0	1943	1210	1652	32
15	0	0	1970	1209	1658	31
16	0	0	1990	1210	1668	32
17	0	0	2027	1210	1676	32
18	0	0	2084	1209	1682	32
19	0	0	2139	1209	1683	36
20	0	0	2184	1207	1680	32
21	0	0	2220	1210	1668	32
22	0	0	2258	1210	1656	33
23	0	0	2261	1210	1651	33
24	0	0	2228	1207	1653	32
25	0	0	2188	1205	1660	32
26	0	0	2131	1206	1669	32
27	0	0	2072	1206	1676	32
28	0	0	2013	1206	1682	32
29	0	0	1968	1206	1682	32
30	0	0	1930	1203	1680	32
31	0	0	1905	1207	1667	29
32	0	0	1887	1209	1653	32
33	0	0	1884	1208	1648	32
34	0	0	1892	1210	1653	32
35	0	0	1911	1206	1659	33
36	0	0	1953	1210	1668	31
37	0	0	2018	1209	1676	32
38	0	0	2095	1210	1682	32
39	0	0	2151	1210	1682	32
40	0	0	2192	1206	1680	32
41	0	0	2229	1209	1669	34
42	0	0	2282	1210	1654	32
43	0	0	2280	1208	1652	32
44	0	0	2234	1206	1654	31
45	0	0	2175	1203	1660	32
46	0	0	2093	1206	1669	32
47	0	0	2017	1206	1676	32
48	0	0	1967	1206	1682	32
49	0	0	1932	1206	1682	32
50	0	0	1910	1205	1679	33
51	0	0	1899	1208	1667	32
52	0	0	1875	1206	1654	32
53	0	0	1882	1209	1650	31
54	0	0	1922	1209	1651	32
55	0	0	1964	1205	1660	32
56	0	0	1997	1209	1668	31
57	0	0	2022	1208	1677	32
58	0	0	2060	1209	1682	32
59	0	0	2104	1209	1683	34
60	0	0	2161	1209	1680	32
61	0	0	2211	1210	1669	31
62	0	0	2268	1210	1656	32
63	0	0	2277	1209	1651	32
64	0	0	2241	1206	1654	32
65	0	0	2190	1205	1660	31
66	0	0	2110	1205	1669	34
67	0	0	2035	1206	1678	32
68	0	0	1990	1207	1682	32
69	0	0	1964	1207	1682	32
70	0	0	1955	1208	1679	33
71	0	0	1950	1211	1667	31
72	0	0	1940	1207	1654	32
73	0	0	1936	1207	1650	32
74	0	0	1950	1210	1654	32
75	0	0	1975	1207	1660	32
76	0	0	2015	1210	1668	32
77	0	0	2064	1209	1677	33
78	0	0	2121	1209	1682	32
79	0	0	2179	1208	1683	32
80	0	0	2225	1208	1680	33
81	0	0	2246	1210	1669	32
82	0	0	2284	1209	1655	32
83	0	0	2291	1209	1652	32
84	0	0	2248	1206	1654	32
85	0	0	2197	1205	1660	32
86	0	0	2123	1206	1669	33
87	0	0	2049	1202	1677	33
88	0	0	1986	1204	1681	32
89	0	0	1936	1205	1684	32
90	0	0	1914	1207	1679	32
91	0	0	1924	1208	1667	32
92	0	0	1936	1208	1654	32
93	0	0	1973	1208	1651	32
94	0	0	2013	1211	1653	32
95	0	0	2026	1207	1660	34
96	0	0	2042	1208	1668	31
97	0	0	2068	1208	1676	36
98	0	0	2100	1208	1682	32
99	0	0	2135	1209	1683	32
100	0	0	2174	1210	1679	32
101	0	0	2198	1210	1669	31
102	0	0	2237	1209	1656	33
103	0	0	2247	1209	1652	31
104	0	0	2218	1205	1654	32
105	0	0	2179	1205	1661	32
106	0	0	2113	1205	1669	33
107	0	0	2055	1206	1678	32
108	0	0	2012	1206	1682	32
109	0	0	1980	1205	1684	32
110	0	0	1971	1208	1679	33
111	0	0	1973	1209	1667	31
112	0	0	1966	1207	1654	33
113	0	0	1964	1207	1650	31
114	0	0	1975	1207	1653	32
115	0	0	1994	1207	1660	34
116	0	0	2033	1208	1669	34
117	0	0	2069	1207	1676	35
118	0	0	2116	1208	1682	32
119	0	0	2162	1207	1683	32
120	0	0	2200	1209	1679	32
121	0	0	2234	1209	1669	31
122	0	0	2282	1208	1656	35
123	0	0	2299	1208	1652	32
124	0	0	2273	1205	1653	32
125	0	0	2214	1204	1661	33
126	0	0	2124	1205	1669	32
127	0	0	2042	1204	1676	32
0	0	0	1993	1204	1681	32
1	0	0	1959	1205	1684	32
2	0	0	1931	1206	1679	32
3	0	0	1924	1208	1667	31
4	0	0	1927	1207	1653	35
5	0	0	1949	1208	1650	33
6	0	0	1990	1207	1653	31
7	0	0	2029	1209	1659	36
8	0	0	2062	1208	1668	31
9	0	0	2077	1208	1676	32
10	0	0	2099	1208	1682	33
11	0	0	2125	1208	1684	31
12	0	0	2158	1208	1680	32
13	0	0	2193	1209	1668	31
14	0	0	2244	1208	1656	32
15	0	0	2253	1208	1651	32
16	0	0	2211	1205	1655	31
17	0	0	2156	1204	1661	33
18	0	0	2090	1204	1669	31
19	0	0	2022	1204	1677	35
20	0	0	1970	1205	1682	32
21	0	0	1931	1205	1682	32
22	0	0	1903	1204	1679	34
23	0	0	1897	1208	1668	33
24	0	0	1892	1206	1654	34
25	0	0	1903	1207	1650	31
26	0	0	1938	1207	1652	32
27	0	0	1974	1208	1659	33
28	0	0	2027	1207	1668	32
29	0	0	2089	1207	1676	35
30	0	0	2139	1209	1682	32
31	0	0	2173	1208	1684	33
32	0	0	2197	1208	1680	33
33	0	0	2205	1208	1669	32
34	0	0	2234	1208	1656	34
35	0	0	2246	1206	1651	32
36	0	0	2230	1207	1655	32
37	0	0	2208	1206	1659	36
38	0	0	2168	1204	1669	32
39	0	0	2122	1204	1677	33
40	0	0	2067	1204	1682	32
41	0	0	2000	1204	1683	31
42	0	0	1959	1205	1679	33
43	0	0	1952	1208	1667	31
44	0	0	1944	1207	1654	31
45	0	0	1948	1207	1650	32
46	0	0	1974	1207	1653	31
47	0	0	2008	1207	1660	33
48	0	0	2037	1204	1668	33
49	0	0	2056	1208	1676	35
50	0	0	2079	1207	1682	32
51	0	0	2109	1208	1684	33
52	0	0	2153	1208	1679	36
53	0	0	2190	1209	1670	35
54	0	0	2254	1207	1656	34
55	0	0	2290	1207	1652	32
56	0	0	2284	1207	1654	32
57	0	0	2240	1205	1661	36
58	0	0	2160	1204	1669	32
59	0	0	2082	1203	1677	33
60	0	0	2017	1203	1682	32
61	0	0	1958	1205	1683	32
62	0	0	1910	1204	1679	36
63	0	0	1880	1204	1667	33
64	0	0	1879	1207	1654	32
65	0	0	1903	1207	1651	33
66	0	0	1948	1208	1653	32
67	0	0	1996	1208	1659	36
68	0	0	2041	1207	1669	32
69	0	0	2083	1207	1678	35
70	0	0	2127	1207	1682	31
71	0	0	2169	1207	1683	32
72	0	0	2208	1207	1680	34
73	0	0	2236	1208	1669	31
74	0	0	2287	1208	1656	32
75	0	0	2307	1209	1652	32
76	0	0	2297	1207	1654	31
77	0	0	2273	1205	1661	33
78	0	0	2213	1203	1669	32
79	0	0	2141	1204	1677	33
80	0	0	2070	1203	1682	32
81	0	0	2001	1203	1683	29
82	0	0	1930	1204	1680	33
83	0	0	1876	1204	1668	31
84	0	0	1850	1208	1654	32
85	0	0	1862	1207	1651	31
86	0	0	1895	1207	1653	32
87	0	0	1960	1206	1660	32
88	0	0	2035	1206	1669	32
89	0	0	2093	1207	1676	32
90	0	0	2147	1207	1682	31
91	0	0	2184	1207	1683	31
92	0	0	2222	1205	1680	35
93	0	0	2243	1207	1669	32
94	0	0	2286	1207	1657	33
95	0	0	2307	1208	1651	32
96	0	0	2302	1208	1655	32
97	0	0	2276	1204	1661	33
98	0	0	2204	1202	1669	31
99	0	0	2113	1203	1677	32
100	0	0	2035	1202	1682	32
101	0	0	1973	1203	1683	32
102	0	0	1942	1206	1679	32
103	0	0	1934	1207	1668	31
104	0	0	1932	1206	1654	32
105	0	0	1960	1206	1651	31
106	0	0	2002	1207	1652	31
107	0	0	2045	1207	1660	31
108	0	0	2091	1206	1669	32
109	0	0	2149	1206	1677	33
110	0	0	2204	1207	1683	32
111	0	0	2218	1207	1685	32
112	0	0	2222	1203	1681	32
113	0	0	2236	1207	1669	32
114	0	0	2286	1208	1656	32
115	0	0	2297	1207	1652	32
116	0	0	2265	1205	1654	33
117	0	0	2233	1206	1661	32
118	0	0	2172	1203	1670	32
119	0	0	2098	1203	1677	32
120	0	0	2049	1204	1682	32
121	0	0	2015	1204	1683	32
122	0	0	1977	1203	1680	32
123	0	0	1943	1203	1668	31
124	0	0	1900	1203	1654	32
125	0	0	1882	1204	1651	32
126	0	0	1891	1207	1654	32
127	0	0	1910	1205	1660	33
0	0	0	1948	1206	1669	32
1	0	0	2000	1207	1677	32
2	0	0	2067	1207	1683	32
3	0	0	2129	1207	1685	33
4	0	0	2166	1207	1681	31
5	0	0	2185	1206	1669	31
6	0	0	2230	1207	1656	32
7	0	0	2247	1208	1652	32
8	0	0	2219	1204	1654	32
9	0	0	2174	1201	1661	32
10	0	0	2114	1202	1670	31
11	0	0	2044	1203	1677	31
12	0	0	1983	1202	1683	32
13	0	0	1943	1204	1684	32
14	0	0	1918	1204	1680	31
15	0	0	1914	1206	1668	32
16	0	0	1914	1206	1655	31
17	0	0	1934	1207	1650	31
18	0	0	1976	1207	1654	32
19	0	0	2010	1207	1660	31
20	0	0	2063	1206	1669	31
21	0	0	2121	1206	1677	31
22	0	0	2183	1205	1683	32
23	0	0	2219	1206	1683	32
24	0	0	2225	1207	1681	32
25	0	0	2226	1207	1669	32
26	0	0	2255	1207	1656	36
27	0	0	2259	1205	1653	33
28	0	0	2225	1204	1655	32
29	0	0	2176	1201	1661	33
30	0	0	2097	1202	1671	32
31	0	0	2012	1203	1677	31
32	0	0	1941	1203	1681	32
33	0	0	1894	1203	1684	32
34	0	0	1867	1205	1680	31
35	0	0	1867	1207	1667	31
36	0	0	1885	1206	1655	31
37	0	0	1918	1205	1651	31
38	0	0	1953	1207	1652	32
39	0	0	1977	1206	1661	31
40	0	0	1986	1207	1670	31
41	0	0	2001	1206	1678	32
42	0	0	2049	1206	1682	32
43	0	0	2108	1208	1685	32
44	0	0	2153	1207	1681	31
45	0	0	2182	1207	1669	32
46	0	0	2211	1207	1656	31
47	0	0	2203	1206	1651	32
48	0	0	2174	1205	1655	32
49	0	0	2145	1205	1662	33
50	0	0	2087	1203	1670	32
51	0	0	2008	1203	1678	32
52	0	0	1944	1204	1683	32
53	0	0	1893	1204	1684	32
54	0	0	1863	1201	1679	33
55	0	0	1840	1203	1668	31
56	0	0	1821	1205	1655	31
57	0	0	1843	1207	1650	32
58	0	0	1890	1205	1654	32
59	0	0	1924	1206	1661	33
60	0	0	1956	1205	1669	31
61	0	0	1999	1206	1678	31
62	0	0	2051	1209	1684	32
63	0	0	2083	1203	1685	31
64	0	0	2102	1208	1681	31
65	0	0	2126	1207	1669	31
66	0	0	2191	1206	1657	31
67	0	0	2233	1208	1651	32
68	0	0	2234	1207	1655	32
69	0	0	2202	1204	1663	33
70	0	0	2133	1203	1670	32
71	0	0	2071	1202	1678	31
72	0	0	2031	1204	1683	31
73	0	0	2017	1205	1684	31
74	0	0	2011	1205	1680	33
75	0	0	1997	1205	1668	31
76	0	0	1984	1206	1655	31
77	0	0	2008	1206	1651	31
78	0	0	2072	1203	1653	32
79	0	0	2144	1203	1661	35
80	0	0	2229	1207	1670	31
81	0	0	2307	1206	1678	33
82	0	0	2374	1207	1683	33
83	0	0	2441	1206	1684	31
84	0	0	2498	1206	1681	31
85	0	0	2548	1206	1669	33
86	0	0	2616	1206	1657	31
87	0	0	2657	1209	1654	30
88	0	0	2659	1206	1655	34
89	0	0	2626	1202	1662	34
90	0	0	2559	1203	1670	32
91	0	0	2475	1202	1678	31
92	0	0	2400	1202	1683	32
93	0	0	2343	1203	1683	33
94	0	0	2305	1203	1680	31
95	0	0	2279	1204	1668	32
96	0	0	2251	1204	1654	31
97	0	0	2242	1207	1652	32
98	0	0	2251	1206	1654	31
99	0	0	2262	1207	1661	32
100	0	0	2274	1205	1670	32
101	0	0	2290	1206	1678	33
102	0	0	2316	1206	1683	32
103	0	0	2337	1206	1684	31
104	0	0	2349	1207	1681	32
105	0	0	2347	1207	1669	31
106	0	0	2349	1206	1657	32
107	0	0	2308	1203	1653	32
108	0	0	2234	1201	1655	33
109	0	0	2144	1203	1662	31
110	0	0	2040	1202	1671	32
111	0	0	1925	1202	1678	31
112	0	0	1835	1201	1683	32
113	0	0	1772	1201	1684	33
114	0	0	1718	1203	1680	31
115	0	0	1664	1202	1668	31
116	0	0	1620	1201	1655	32
117	0	0	1620	1205	1652	31
118	0	0	1654	1207	1654	32
119	0	0	1691	1205	1661	36
120	0	0	1743	1204	1670	32
121	0	0	1799	1205	1678	32
122	0	0	1856	1205	1683	32
123	0	0	1898	1204	1685	33
124	0	0	1930	1204	1681	33
125	0	0	1964	1205	1670	32
126	0	0	2010	1206	1656	31
127	0	0	2027	1206	1653	31
0	0	0	2026	1205	1656	32
1	0	0	2011	1201	1662	34
2	0	0	1960	1201	1670	31
3	0	0	1895	1200	1679	32
4	0	0	1822	1201	1683	33
5	0	0	1761	1200	1684	33
6	0	0	1726	1202	1680	32
7	0	0	1712	1206	1668	31
8	0	0	1710	1208	1655	32
9	0	0	1730	1204	1651	31
10	0	0	1774	1203	1654	33
11	0	0	1819	1204	1661	35
12	0	0	1854	1204	1670	31
13	0	0	1895	1205	1678	32
14	0	0	1945	1205	1683	36
15	0	0	1984	1205	1684	33
16	0	0	1996	1205	1681	32
17	0	0	2001	1206	1669	32
18	0	0	2046	1206	1656	32
19	0	0	2085	1206	1653	32
20	0	0	2103	1206	1654	36
21	0	0	2082	1203	1662	33
22	0	0	2028	1202	1671	31
23	0	0	1973	1202	1677	32
24	0	0	1920	1202	1683	32
25	0	0	1872	1202	1685	30
26	0	0	1835	1202	1680	33
27	0	0	1815	1202	1668	32
28	0	0	1800	1203	1654	32
29	0	0	1815	1204	1651	31
30	0	0	1856	1204	1653	33
31	0	0	1899	1205	1661	32
32	0	0	1940	1204	1670	32
33	0	0	1982	1205	1679	32
34	0	0	2026	1204	1684	33
35	0	0	2060	1205	1684	31
36	0	0	2087	1206	1679	32
37	0	0	2111	1204	1670	31
38	0	0	2156	1205	1657	32
39	0	0	2163	1205	1653	32
40	0	0	2126	1203	1656	31
41	0	0	2080	1202	1662	32
42	0	0	2019	1200	1671	32
43	0	0	1959	1201	1679	32
44	0	0	1903	1201	1683	33
45	0	0	1860	1201	1683	35
46	0	0	1838	1203	1680	32
47	0	0	1835	1204	1668	31
48	0	0	1832	1205	1656	31
49	0	0	1842	1205	1652	31
50	0	0	1863	1204	1654	31
51	0	0	1888	1204	1660	32
52	0	0	1924	1203	1671	32
53	0	0	1969	1205	1679	33
54	0	0	2026	1204	1684	32
55	0	0	2080	1207	1685	32
56	0	0	2123	1206	1680	32
57	0	0	2153	1206	1669	32
58	0	0	2194	1205	1657	32
59	0	0	2206	1205	1653	32
60	0	0	2182	1203	1656	32
61	0	0	2153	1203	1661	32
62	0	0	2092	1200	1671	32
63	0	0	2013	1201	1679	32
64	0	0	1940	1201	1684	32
65	0	0	1897	1200	1685	33
66	0	0	1883	1205	1680	32
67	0	0	1881	1205	1668	31
68	0	0	1856	1202	1656	33
69	0	0	1836	1202	1651	31
70	0	0	1841	1205	1654	32
71	0	0	1871	1201	1661	33
72	0	0	1924	1202	1671	32
73	0	0	1999	1204	1678	32
74	0	0	2074	1204	1683	33
75	0	0	2131	1206	1685	32
76	0	0	2170	1206	1680	32
77	0	0	2200	1207	1670	32
78	0	0	2237	1205	1657	33
79	0	0	2238	1205	1654	32
80	0	0	2201	1202	1655	35
81	0	0	2141	1200	1661	36
82	0	0	2053	1201	1671	32
83	0	0	1973	1200	1678	32
84	0	0	1917	1201	1683	32
85	0	0	1880	1199	1684	32
86	0	0	1853	1201	1679	34
87	0	0	1834	1201	1668	32
88	0	0	1821	1203	1655	32
89	0	0	1835	1203	1652	31
90	0	0	1874	1204	1655	33
91	0	0	1918	1205	1660	33
92	0	0	1976	1203	1671	33
93	0	0	2024	1204	1679	33
94	0	0	2073	1203	1685	32
95	0	0	2116	1205	1685	34
96	0	0	2134	1204	1680	34
97	0	0	2149	1206	1670	32
98	0	0	2190	1204	1657	35
99	0	0	2199	1204	1653	32
100	0	0	2169	1201	1656	33
101	0	0	2132	1201	1662	31
102	0	0	2079	1205	1671	32
103	0	0	2032	1201	1679	30
104	0	0	1995	1201	1684	32
105	0	0	1955	1203	1684	32
106	0	0	1910	1201	1680	31
107	0	0	1877	1201	1669	31
108	0	0	1855	1202	1656	31
109	0	0	1863	1204	1651	32
110	0	0	1884	1203	1655	32
111	0	0	1907	1202	1662	33
112	0	0	1940	1207	1671	32
113	0	0	1987	1204	1679	33
114	0	0	2041	1202	1684	33
115	0	0	2095	1202	1685	34
116	0	0	2153	1204	1680	36
117	0	0	2196	1207	1670	32
118	0	0	2243	1205	1657	32
119	0	0	2255	1204	1654	33
120	0	0	2233	1204	1656	32
121	0	0	2199	1201	1661	33
122	0	0	2132	1202	1672	32
123	0	0	2056	1200	1678	32
124	0	0	1986	1199	1685	33
125	0	0	1918	1200	1684	34
126	0	0	1868	1201	1681	32
127	0	0	1852	1206	1669	31
0	0	0	1845	1203	1656	32
1	0	0	1859	1202	1652	32
2	0	0	1890	1206	1654	32
3	0	0	1933	1204	1660	36
4	0	0	1981	1204	1670	31
5	0	0	2040	1204	1679	34
6	0	0	2100	1202	1684	33
7	0	0	2136	1205	1684	32
8	0	0	2159	1204	1682	31
9	0	0	2180	1205	1671	32
10	0	0	2220	1204	1657	33
11	0	0	2229	1204	1654	32
12	0	0	2215	1202	1655	32
13	0	0	2182	1200	1661	33
14	0	0	2107	1201	1672	32
15	0	0	2016	1200	1679	32
16	0	0	1958	1201	1685	33
17	0	0	1917	1201	1685	32
18	0	0	1879	1201	1680	33
19	0	0	1857	1202	1669	31
20	0	0	1845	1202	1655	32
21	0	0	1858	1203	1652	32
22	0	0	1908	1205	1654	32
23	0	0	1973	1202	1662	31
24	0	0	2039	1205	1671	32
25	0	0	2095	1204	1679	32
26	0	0	2142	1203	1684	33
27	0	0	2185	1205	1685	32
28	0	0	2222	1204	1681	35
29	0	0	2250	1204	1670	33
30	0	0	2288	1204	1657	33
31	0	0	2276	1201	1654	32
32	0	0	2220	1201	1656	31
33	0	0	2151	1201	1663	35
34	0	0	2061	1201	1671	32
35	0	0	1989	1200	1679	33
36	0	0	1950	1201	1684	33
37	0	0	1936	1204	1685	34
38	0	0	1940	1204	1681	31
39	0	0	1961	1204	1668	31
40	0	0	1980	1203	1656	31
41	0	0	1989	1202	1651	32
42	0	0	1990	1204	1655	32
43	0	0	1991	1203	1662	35
44	0	0	2009	1203	1671	32
45	0	0	2046	1204	1679	33
46	0	0	2102	1204	1684	32
47	0	0	2153	1203	1686	31
48	0	0	2181	1204	1681	32
49	0	0	2201	1204	1670	32
50	0	0	2255	1204	1657	34
51	0	0	2275	1204	1653	33
52	0	0	2256	1200	1656	32
53	0	0	2217	1200	1663	33
54	0	0	2149	1200	1671	31
55	0	0	2067	1199	1679	34
56	0	0	2008	1200	1683	33
57	0	0	1965	1201	1684	33
58	0	0	1944	1202	1681	33
59	0	0	1947	1204	1669	31
60	0	0	1938	1203	1655	31
61	0	0	1951	1203	1652	32
62	0	0	1988	1204	1655	29
63	0	0	2034	1203	1662	33
64	0	0	2092	1202	1671	32
65	0	0	2148	1203	1679	33
66	0	0	2200	1203	1684	32
67	0	0	2240	1202	1685	33
68	0	0	2260	1204	1682	31
69	0	0	2269	1204	1670	33
70	0	0	2307	1206	1657	33
71	0	0	2335	1203	1654	33
72	0	0	2310	1200	1657	33
73	0	0	2266	1201	1664	29
74	0	0	2195	1200	1671	33
75	0	0	2123	1199	1679	34
76	0	0	2075	1200	1684	32
77	0	0	2032	1200	1685	33
78	0	0	2006	1202	1681	31
79	0	0	2003	1204	1667	31
80	0	0	2003	1204	1655	32
81	0	0	2022	1203	1652	32
82	0	0	2051	1203	1654	32
83	0	0	2079	1203	1661	32
84	0	0	2119	1204	1672	32
85	0	0	2166	1203	1680	31
86	0	0	2225	1202	1684	33
87	0	0	2275	1204	1685	32
88	0	0	2292	1203	1682	32
89	0	0	2283	1205	1669	32
90	0	0	2296	1204	1657	33
91	0	0	2280	1202	1653	33
92	0	0	2240	1200	1656	32
93	0	0	2202	1200	1663	33
94	0	0	2144	1200	1670	31
95	0	0	2087	1200	1679	32
96	0	0	2055	1200	1684	32
97	0	0	2032	1200	1685	32
98	0	0	1999	1199	1679	33
99	0	0	1963	1200	1668	31
100	0	0	1933	1199	1656	33
101	0	0	1930	1201	1653	32
102	0	0	1951	1200	1655	32
103	0	0	1993	1202	1661	33
104	0	0	2060	1203	1671	32
105	0	0	2140	1203	1679	35
106	0	0	2204	1203	1684	32
107	0	0	2244	1202	1686	34
108	0	0	2264	1204	1680	32
109	0	0	2268	1203	1670	32
110	0	0	2287	1203	1657	32
111	0	0	2283	1202	1654	32
112	0	0	2249	1200	1657	32
113	0	0	2203	1199	1664	32
114	0	0	2118	1199	1671	32
115	0	0	2021	1198	1679	33
116	0	0	1957	1200	1684	33
117	0	0	1926	1200	1685	32
118	0	0	1899	1200	1680	32
119	0	0	1879	1199	1668	32
120	0	0	1859	1199	1655	32
121	0	0	1859	1202	1652	32
122	0	0	1873	1201	1656	33
123	0	0	1897	1202	1661	33
124	0	0	1931	1202	1671	32
125	0	0	1974	1202	1679	33
126	0	0	2019	1201	1685	33
127	0	0	2070	1203	1683	32
0	0	0	2115	1202	1680	33
1	0	0	2147	1203	1670	33
2	0	0	2194	1202	1657	33
3	0	0	2213	1203	1654	32
4	0	0	2183	1198	1656	32
5	0	0	2136	1199	1662	32
6	0	0	2070	1199	1671	31
7	0	0	2012	1199	1679	34
8	0	0	1959	1199	1684	32
9	0	0	1897	1199	1685	32
10	0	0	1843	1199	1680	32
11	0	0	1802	1199	1668	31
12	0	0	1767	1199	1656	32
13	0	0	1767	1204	1652	32
14	0	0	1798	1202	1655	32
15	0	0	1842	1203	1662	33
16	0	0	1895	1203	1670	32
17	0	0	1947	1202	1679	33
18	0	0	1979	1200	1685	33
19	0	0	2007	1204	1686	31
20	0	0	2038	1202	1681	33
21	0	0	2073	1203	1670	32
22	0	0	2128	1202	1657	33
23	0	0	2156	1202	1654	33
24	0	0	2135	1200	1657	33
25	0	0	2093	1199	1664	31
26	0	0	2012	1198	1672	32
27	0	0	1934	1199	1679	32
28	0	0	1879	1199	1684	32
29	0	0	1846	1199	1685	31
30	0	0	1834	1203	1681	32
31	0	0	1818	1199	1666	31
32	0	0	1782	1198	1655	32
33	0	0	1775	1204	1652	32
34	0	0	1800	1203	1655	32
35	0	0	1832	1202	1661	34
36	0	0	1868	1200	1671	31
37	0	0	1908	1200	1679	33
38	0	0	1955	1204	1684	32
39	0	0	1987	1203	1684	32
40	0	0	1996	1202	1680	32
41	0	0	1990	1201	1669	32
42	0	0	2015	1202	1657	32
43	0	0	2033	1203	1653	32
44	0	0	2032	1202	1656	34
45	0	0	2011	1199	1664	32
46	0	0	1968	1199	1672	32
47	0	0	1916	1198	1679	32
48	0	0	1872	1199	1685	33
49	0	0	1837	1197	1684	32
50	0	0	1810	1199	1680	32
51	0	0	1799	1199	1668	31
52	0	0	1785	1199	1656	32
53	0	0	1779	1201	1652	32
54	0	0	1791	1202	1654	32
55	0	0	1821	1202	1661	32
56	0	0	1859	1199	1671	32
57	0	0	1906	1201	1679	33
58	0	0	1976	1201	1684	31
59	0	0	2044	1202	1685	33
60	0	0	2090	1202	1681	33
61	0	0	2101	1200	1669	33
62	0	0	2113	1202	1658	33
63	0	0	2091	1197	1654	33
64	0	0	2044	1199	1656	31
65	0	0	1990	1199	1663	33
66	0	0	1922	1197	1671	31
67	0	0	1870	1198	1679	33
68	0	0	1827	1199	1683	32
69	0	0	1790	1199	1684	32
70	0	0	1776	1200	1682	33
71	0	0	1776	1200	1668	32
72	0	0	1766	1201	1656	32
73	0	0	1769	1201	1653	32
74	0	0	1781	1203	1656	33
75	0	0	1794	1201	1662	33
76	0	0	1828	1201	1671	32
77	0	0	1866	1201	1678	32
78	0	0	1907	1201	1685	33
79	0	0	1942	1201	1685	33
80	0	0	1976	1201	1681	33
81	0	0	2010	1200	1669	32
82	0	0	2065	1202	1657	32
83	0	0	2087	1202	1653	32
84	0	0	2069	1200	1654	32
85	0	0	2027	1198	1663	34
86	0	0	1948	1196	1671	32
87	0	0	1863	1198	1679	33
88	0	0	1804	1198	1684	32
89	0	0	1782	1201	1683	32
90	0	0	1778	1200	1680	32
91	0	0	1774	1199	1668	31
92	0	0	1765	1200	1656	31
93	0	0	1768	1203	1651	31
94	0	0	1807	1201	1655	32
95	0	0	1841	1200	1661	33
96	0	0	1879	1200	1671	32
97	0	0	1916	1200	1679	33
98	0	0	1969	1201	1683	32
99	0	0	2039	1203	1683	32
100	0	0	2097	1203	1682	33
101	0	0	2125	1202	1669	32
102	0	0	2163	1202	1657	33
103	0	0	2161	1201	1653	32
104	0	0	2116	1198	1657	31
105	0	0	2043	1197	1664	32
106	0	0	1951	1196	1671	32
107	0	0	1872	1197	1679	33
108	0	0	1815	1197	1684	32
109	0	0	1774	1197	1685	31
110	0	0	1732	1198	1680	31
111	0	0	1721	1200	1668	31
112	0	0	1730	1201	1655	32
113	0	0	1754	1203	1651	32
114	0	0	1800	1200	1655	33
115	0	0	1839	1200	1663	34
116	0	0	1875	1200	1671	32
117	0	0	1914	1201	1678	33
118	0	0	1958	1200	1685	33
119	0	0	2005	1202	1685	31
120	0	0	2037	1201	1682	33
121	0	0	2062	1201	1669	31
122	0	0	2111	1201	1656	31
123	0	0	2126	1201	1653	32
124	0	0	2110	1200	1656	31
125	0	0	2088	1199	1663	33
126	0	0	2042	1197	1671	31
127	0	0	1979	1197	1678	31
0	0	0	1915	1197	1683	32
1	0	0	1865	1197	1683	32
2	0	0	1824	1197	1681	33
3	0	0	1797	1198	1667	32
4	0	0	1770	1198	1656	32
5	0	0	1756	1202	1651	32
6	0	0	1769	1201	1655	32
7	0	0	1786	1200	1661	33
8	0	0	1823	1199	1671	32
9	0	0	1880	1200	1677	32
10	0	0	1958	1201	1684	33
11	0	0	2050	1200	1684	34
12	0	0	2115	1202	1681	33
13	0	0	2153	1200	1668	32
14	0	0	2191	1200	1656	33
15	0	0	2175	1198	1653	32
16	0	0	2132	1200	1654	33
17	0	0	2092	1197	1661	33
18	0	0	2026	1197	1671	31
19	0	0	1966	1197	1678	34
20	0	0	1924	1197	1683	32
21	0	0	1880	1197	1684	31
22	0	0	1831	1197	1679	33
23	0	0	1795	1196	1667	33
24	0	0	1771	1199	1654	32
25	0	0	1773	1200	1651	31
26	0	0	1795	1200	1654	31
27	0	0	1819	1199	1660	32
28	0	0	1856	1202	1670	32
29	0	0	1903	1195	1679	33
30	0	0	1957	1200	1683	33
31	0	0	2013	1199	1685	31
32	0	0	2067	1201	1680	32
33	0	0	2099	1201	1668	32
34	0	0	2127	1201	1656	32
35	0	0	2111	1197	1654	32
36	0	0	2070	1198	1655	30
37	0	0	2032	1198	1663	31
38	0	0	1983	1197	1671	32
39	0	0	1939	1198	1678	33
40	0	0	1912	1196	1684	32
41	0	0	1894	1198	1683	33
42	0	0	1872	1197	1679	32
43	0	0	1851	1198	1667	32
44	0	0	1833	1198	1654	32
45	0	0	1835	1199	1652	31
46	0	0	1856	1200	1654	32
47	0	0	1884	1200	1661	34
48	0	0	1923	1200	1670	33
49	0	0	1967	1200	1678	33
50	0	0	2019	1200	1683	32
51	0	0	2066	1203	1684	33
52	0	0	2102	1200	1680	31
53	0	0	2132	1201	1668	32
54	0	0	2181	1200	1656	32
55	0	0	2187	1199	1652	32
56	0	0	2142	1197	1655	31
57	0	0	2099	1197	1662	33
58	0	0	2029	1197	1670	31
59	0	0	1962	1197	1678	34
60	0	0	1912	1196	1683	32
61	0	0	1871	1197	1683	32
62	0	0	1842	1197	1679	33
63	0	0	1825	1199	1665	31
64	0	0	1806	1197	1654	32
65	0	0	1801	1199	1651	32
66	0	0	1814	1199	1655	33
67	0	0	1857	1199	1660	32
68	0	0	1910	1200	1668	33
69	0	0	1967	1199	1677	32
70	0	0	2017	1199	1683	33
71	0	0	2061	1200	1684	32
72	0	0	2089	1200	1678	32
73	0	0	2098	1200	1666	33
74	0	0	2127	1200	1655	33
75	0	0	2122	1199	1651	32
76	0	0	2089	1198	1655	30
77	0	0	2053	1197	1661	32
78	0	0	2005	1197	1668	32
79	0	0	1955	1196	1677	34
80	0	0	1908	1197	1681	32
81	0	0	1865	1197	1682	32
82	0	0	1829	1197	1678	33
83	0	0	1807	1197	1665	31
84	0	0	1804	1199	1653	32
85	0	0	1828	1199	1651	32
86	0	0	1861	1199	1653	32
87	0	0	1895	1200	1659	33
88	0	0	1932	1199	1668	32
89	0	0	1970	1200	1676	33
90	0	0	2018	1199	1681	33
91	0	0	2056	1199	1683	33
92	0	0	2090	1200	1678	32
93	0	0	2117	1200	1665	32
94	0	0	2151	1201	1654	33
95	0	0	2141	1197	1651	32
96	0	0	2105	1195	1653	32
97	0	0	2075	1197	1660	32
98	0	0	2019	1196	1668	31
99	0	0	1957	1196	1676	33
100	0	0	1901	1195	1680	32
101	0	0	1860	1196	1682	33
102	0	0	1841	1197	1677	32
103	0	0	1822	1196	1664	31
104	0	0	1792	1196	1652	32
105	0	0	1782	1198	1649	32
106	0	0	1795	1199	1651	32
107	0	0	1833	1198	1658	32
108	0	0	1893	1200	1667	32
109	0	0	1956	1199	1675	33
110	0	0	2020	1199	1680	33
111	0	0	2062	1199	1681	32
112	0	0	2087	1200	1679	35
113	0	0	2094	1201	1664	33
114	0	0	2124	1200	1653	32
115	0	0	2129	1200	1650	32
116	0	0	2125	1200	1653	32
117	0	0	2098	1196	1659	31
118	0	0	2023	1196	1668	31
119	0	0	1951	1196	1675	31
120	0	0	1894	1197	1680	32
121	0	0	1853	1196	1681	31
122	0	0	1824	1196	1677	31
123	0	0	1807	1196	1663	34
124	0	0	1796	1199	1651	32
125	0	0	1814	1199	1648	31
126	0	0	1841	1198	1652	33
127	0	0	1861	1199	1658	32
0	0	0	1891	1199	1666	32
1	0	0	1943	1199	1675	33
2	0	0	2015	1200	1680	31
3	0	0	2075	1199	1681	33
4	0	0	2111	1199	1677	31
5	0	0	2127	1200	1665	32
6	0	0	2163	1200	1653	32
7	0	0	2168	1201	1649	32
8	0	0	2134	1196	1653	33
9	0	0	2074	1196	1660	34
10	0	0	1989	1195	1667	32
11	0	0	1918	1196	1675	32
12	0	0	1884	1196	1679	33
13	0	0	1873	1197	1680	32
14	0	0	1852	1195	1676	32
15	0	0	1819	1195	1665	32
16	0	0	1795	1197	1651	32
17	0	0	1799	1198	1648	32
18	0	0	1822	1198	1651	32
19	0	0	1852	1199	1658	32
20	0	0	1904	1199	1666	32
21	0	0	1970	1199	1675	32
22	0	0	2026	1197	1680	32
23	0	0	2074	1199	1681	33
24	0	0	2114	1199	1677	31
25	0	0	2138	1198	1666	32
26	0	0	2172	1199	1652	32
27	0	0	2170	1199	1648	32
28	0	0	2133	1195	1651	32
29	0	0	2089	1195	1659	31
30	0	0	2006	1195	1668	32
31	0	0	1925	1195	1674	32
32	0	0	1870	1195	1679	33
33	0	0	1840	1195	1680	32
34	0	0	1826	1198	1676	31
35	0	0	1824	1196	1663	32
36	0	0	1801	1196	1651	32
37	0	0	1797	1198	1648	31
38	0	0	1821	1198	1651	32
39	0	0	1856	1199	1657	33
40	0	0	1899	1199	1667	32
41	0	0	1947	1198	1674	33
42	0	0	2002	1199	1679	33
43	0	0	2036	1198	1681	33
44	0	0	2068	1199	1677	34
45	0	0	2104	1199	1665	32
46	0	0	2150	1199	1652	32
47	0	0	2155	1199	1649	32
48	0	0	2143	1197	1652	32
49	0	0	2123	1197	1659	34
50	0	0	2071	1195	1668	32
51	0	0	2006	1195	1675	32
52	0	0	1944	1192	1679	32
53	0	0	1886	1194	1680	32
54	0	0	1848	1195	1675	32
55	0	0	1822	1195	1663	35
56	0	0	1801	1195	1650	32
57	0	0	1809	1198	1646	31
58	0	0	1839	1197	1650	32
59	0	0	1871	1198	1658	31
60	0	0	1901	1200	1668	34
61	0	0	1935	1198	1674	33
62	0	0	1976	1200	1678	32
63	0	0	2032	1198	1681	33
64	0	0	2080	1199	1677	34
65	0	0	2117	1198	1667	32
66	0	0	2151	1198	1652	32
67	0	0	2145	1197	1650	32
68	0	0	2115	1197	1652	31
69	0	0	2075	1195	1657	31
70	0	0	2005	1195	1667	31
71	0	0	1935	1195	1674	31
72	0	0	1895	1195	1679	32
73	0	0	1867	1195	1679	32
74	0	0	1843	1195	1675	31
75	0	0	1825	1194	1664	31
76	0	0	1802	1195	1649	32
77	0	0	1805	1198	1647	31
78	0	0	1830	1197	1652	31
79	0	0	1859	1197	1658	35
80	0	0	1900	1198	1666	31
81	0	0	1948	1197	1674	35
82	0	0	1991	1199	1679	33
83	0	0	2039	1197	1682	31
84	0	0	2083	1198	1676	33
85	0	0	2122	1197	1666	33
86	0	0	2159	1197	1652	32
87	0	0	2145	1196	1649	32
88	0	0	2101	1194	1652	33
89	0	0	2055	1193	1659	35
90	0	0	1995	1194	1666	31
91	0	0	1946	1194	1674	31
92	0	0	1911	1195	1679	33
93	0	0	1887	1195	1679	31
94	0	0	1869	1194	1675	33
95	0	0	1847	1194	1664	31
96	0	0	1839	1197	1650	32
97	0	0	1856	1197	1647	33
98	0	0	1876	1196	1651	31
99	0	0	1891	1198	1657	33
100	0	0	1915	1196	1667	32
101	0	0	1952	1197	1673	31
102	0	0	1997	1198	1679	32
103	0	0	2049	1197	1680	32
104	0	0	2093	1196	1675	11
105	0	0	2141	1198	1663	33
106	0	0	2184	1197	1651	32
107	0	0	2189	1198	1647	32
108	0	0	2149	1194	1650	32
109	0	0	2092	1194	1656	32
110	0	0	2014	1194	1665	31
111	0	0	1956	1194	1672	32
112	0	0	1920	1193	1677	33
113	0	0	1876	1194	1678	36
114	0	0	1839	1194	1674	32
115	0	0	1815	1194	1661	33
116	0	0	1798	1195	1648	31
117	0	0	1808	1197	1645	33
118	0	0	1847	1197	1648	32
119	0	0	1890	1196	1654	32
120	0	0	1921	1197	1662	34
121	0	0	1951	1197	1672	31
122	0	0	1989	1197	1676	32
123	0	0	2035	1197	1677	32
124	0	0	2100	1197	1674	32
125	0	0	2169	1197	1661	34
126	0	0	2239	1197	1649	32
127	0	0	2252	1197	1645	32
0	0	0	2210	1193	1650	31
1	0	0	2151	1194	1655	32
2	0	0	2065	1193	1664	31
3	0	0	1977	1193	1671	32
4	0	0	1906	1193	1677	33
5	0	0	1852	1194	1677	33
6	0	0	1819	1194	1673	32
7	0	0	1801	1194	1659	34
8	0	0	1787	1195	1648	31
9	0	0	1800	1196	1644	32
10	0	0	1824	1196	1647	35
11	0	0	1863	1195	1654	29
12	0	0	1919	1197	1663	34
13	0	0	1976	1196	1671	32
14	0	0	2028	1197	1677	32
15	0	0	2058	1197	1678	35
16	0	0	2074	1196	1674	32
17	0	0	2112	1197	1660	34
18	0	0	2174	1196	1649	33
19	0	0	2189	1195	1645	32
20	0	0	2149	1194	1648	32
21	0	0	2085	1192	1656	32
22	0	0	1999	1192	1662	33
23	0	0	1925	1193	1671	32
24	0	0	1873	1193	1676	33
25	0	0	1845	1194	1677	33
26	0	0	1853	1196	1673	32
27	0	0	1870	1194	1658	33
28	0	0	1871	1196	1648	32
29	0	0	1871	1194	1644	32
30	0	0	1882	1196	1647	32
31	0	0	1904	1196	1653	32
32	0	0	1942	1196	1662	32
33	0	0	1987	1197	1671	32
34	0	0	2042	1195	1677	33
35	0	0	2099	1197	1676	33
36	0	0	2128	1197	1674	32
37	0	0	2147	1196	1661	33
38	0	0	2189	1196	1649	32
39	0	0	2191	1194	1646	33
40	0	0	2139	1193	1648	32
41	0	0	2076	1194	1655	32
42	0	0	1999	1192	1663	33
43	0	0	1927	1192	1671	32
44	0	0	1863	1192	1677	31
45	0	0	1803	1192	1677	33
46	0	0	1746	1195	1673	32
47	0	0	1706	1192	1657	32
48	0	0	1701	1195	1647	32
49	0	0	1738	1195	1643	32
50	0	0	1803	1195	1647	32
51	0	0	1881	1195	1654	32
52	0	0	1955	1194	1662	33
53	0	0	2018	1196	1671	33
54	0	0	2069	1195	1675	32
55	0	0	2096	1195	1677	35
56	0	0	2119	1196	1674	32
57	0	0	2131	1197	1660	33
58	0	0	2157	1196	1648	32
59	0	0	2156	1196	1646	31
60	0	0	2138	1195	1649	34
61	0	0	2111	1194	1656	32
62	0	0	2053	1192	1664	32
63	0	0	1978	1191	1671	35
64	0	0	1913	1192	1676	31
65	0	0	1870	1193	1676	32
66	0	0	1850	1194	1673	32
67	0	0	1839	1193	1659	32
68	0	0	1815	1192	1647	33
69	0	0	1813	1195	1644	33
70	0	0	1837	1195	1647	34
71	0	0	1880	1195	1655	32
72	0	0	1931	1196	1662	32
73	0	0	1977	1195	1671	32
74	0	0	2013	1194	1675	36
75	0	0	2034	1197	1677	34
76	0	0	2063	1196	1674	36
77	0	0	2102	1195	1661	33
78	0	0	2156	1196	1649	32
79	0	0	2164	1194	1645	33
80	0	0	2135	1192	1649	30
81	0	0	2097	1192	1655	34
82	0	0	2039	1192	1663	32
83	0	0	1979	1191	1671	32
84	0	0	1925	1191	1676	33
85	0	0	1881	1193	1676	33
86	0	0	1841	1192	1673	32
87	0	0	1819	1195	1660	31
88	0	0	1816	1196	1648	31
89	0	0	1830	1191	1644	32
90	0	0	1857	1196	1646	32
91	0	0	1886	1196	1655	36
92	0	0	1914	1194	1663	33
93	0	0	1946	1195	1671	32
94	0	0	1988	1194	1677	33
95	0	0	2034	1196	1678	33
96	0	0	2073	1197	1674	35
97	0	0	2096	1195	1661	33
98	0	0	2138	1195	1649	32
99	0	0	2160	1198	1645	34
100	0	0	2152	1197	1649	32
101	0	0	2131	1193	1656	32
102	0	0	2075	1191	1663	33
103	0	0	2010	1192	1671	32
104	0	0	1960	1195	1675	33
105	0	0	1905	1192	1677	33
106	0	0	1863	1192	1673	31
107	0	0	1833	1191	1659	33
108	0	0	1812	1194	1648	32
109	0	0	1824	1193	1644	32
110	0	0	1857	1196	1647	33
111	0	0	1895	1195	1654	35
112	0	0	1934	1195	1663	33
113	0	0	1966	1196	1671	32
114	0	0	2009	1195	1676	31
115	0	0	2056	1196	1678	34
116	0	0	2092	1195	1673	31
117	0	0	2121	1195	1661	33
118	0	0	2156	1195	1649	32
119	0	0	2168	1198	1644	34
120	0	0	2154	1194	1649	32
121	0	0	2113	1192	1656	32
122	0	0	2048	1191	1663	33
123	0	0	1980	1192	1671	32
124	0	0	1924	1192	1677	32
125	0	0	1880	1193	1677	32
126	0	0	1848	1192	1673	36
127	0	0	1837	1194	1659	34
0	0	0	1834	1193	1647	33
1	0	0	1845	1194	1645	32
2	0	0	1867	1194	1647	32
3	0	0	1884	1195	1655	33
4	0	0	1910	1194	1663	33
5	0	0	1934	1195	1672	32
6	0	0	1955	1192	1677	35
7	0	0	1976	1194	1678	33
8	0	0	2007	1195	1674	35
9	0	0	2053	1195	1660	33
10	0	0	2128	1193	1649	32
11	0	0	2167	1194	1646	32
12	0	0	2170	1197	1649	32
13	0	0	2144	1192	1656	33
14	0	0	2079	1191	1664	31
15	0	0	1996	1190	1672	32
16	0	0	1921	1192	1676	34
17	0	0	1866	1192	1678	32
18	0	0	1831	1191	1673	35
19	0	0	1805	1190	1659	33
20	0	0	1795	1192	1648	31
21	0	0	1807	1194	1645	32
22	0	0	1835	1195	1648	31
23	0	0	1874	1194	1655	28
24	0	0	1925	1194	1663	34
25	0	0	1980	1194	1671	33
26	0	0	2029	1194	1677	32
27	0	0	2075	1193	1678	33
28	0	0	2123	1195	1674	27
29	0	0	2157	1195	1661	33
30	0	0	2199	1193	1650	32
31	0	0	2195	1193	1646	33
32	0	0	2154	1193	1649	32
33	0	0	2105	1191	1655	28
34	0	0	2052	1191	1663	33
35	0	0	2004	1189	1672	33
36	0	0	1943	1189	1676	33
37	0	0	1878	1190	1677	31
38	0	0	1825	1191	1673	31
39	0	0	1793	1190	1659	33
40	0	0	1779	1192	1648	32
41	0	0	1795	1194	1645	32
42	0	0	1836	1193	1649	30
43	0	0	1896	1193	1656	35
44	0	0	1949	1194	1664	31
45	0	0	1998	1194	1672	32
46	0	0	2050	1194	1678	34
47	0	0	2092	1194	1679	34
48	0	0	2123	1195	1675	33
49	0	0	2151	1194	1662	33
50	0	0	2191	1194	1650	32
51	0	0	2197	1195	1647	34
52	0	0	2163	1191	1651	32
53	0	0	2107	1190	1657	31
54	0	0	2022	1191	1665	31
55	0	0	1940	1190	1674	32
56	0	0	1885	1191	1679	31
57	0	0	1864	1190	1679	33
58	0	0	1860	1193	1675	32
59	0	0	1846	1190	1661	33
60	0	0	1830	1192	1651	32
61	0	0	1844	1193	1648	33
62	0	0	1887	1192	1651	32
63	0	0	1929	1193	1658	33
64	0	0	1967	1193	1666	32
65	0	0	2014	1193	1674	33
66	0	0	2071	1193	1681	31
67	0	0	2126	1194	1681	33
68	0	0	2151	1194	1677	32
69	0	0	2159	1194	1664	31
70	0	0	2184	1194	1653	33
71	0	0	2186	1194	1649	31
72	0	0	2166	1192	1653	31
73	0	0	2147	1191	1660	31
74	0	0	2104	1190	1668	32
75	0	0	2041	1190	1676	32
76	0	0	1988	1190	1680	34
77	0	0	1939	1190	1681	33
78	0	0	1880	1190	1677	33
79	0	0	1832	1190	1664	31
80	0	0	1806	1190	1651	32
81	0	0	1814	1193	1649	34
82	0	0	1857	1190	1651	32
83	0	0	1898	1194	1659	32
84	0	0	1942	1192	1668	31
85	0	0	1984	1193	1676	33
86	0	0	2019	1194	1681	33
87	0	0	2051	1189	1682	33
88	0	0	2080	1193	1678	33
89	0	0	2111	1193	1664	31
90	0	0	2161	1193	1653	32
91	0	0	2169	1193	1651	31
92	0	0	2147	1190	1652	31
93	0	0	2110	1190	1661	32
94	0	0	2052	1190	1668	32
95	0	0	1996	1190	1677	33
96	0	0	1957	1190	1681	31
97	0	0	1921	1190	1681	31
98	0	0	1880	1190	1677	34
99	0	0	1854	1190	1664	32
100	0	0	1837	1191	1652	33
101	0	0	1840	1193	1649	32
102	0	0	1878	1193	1653	33
103	0	0	1923	1193	1660	33
104	0	0	1964	1192	1667	32
105	0	0	1995	1193	1677	33
106	0	0	2022	1193	1681	34
107	0	0	2058	1192	1681	31
108	0	0	2095	1193	1679	35
109	0	0	2135	1194	1665	32
110	0	0	2183	1193	1654	32
111	0	0	2196	1194	1651	32
112	0	0	2175	1189	1653	31
113	0	0	2131	1190	1661	32
114	0	0	2060	1189	1668	31
115	0	0	1996	1189	1676	32
116	0	0	1938	1189	1681	31
117	0	0	1894	1188	1682	35
118	0	0	1857	1191	1677	33
119	0	0	1842	1190	1665	31
120	0	0	1840	1191	1652	32
121	0	0	1858	1192	1649	34
122	0	0	1895	1191	1652	31
123	0	0	1928	1193	1660	32
124	0	0	1958	1192	1668	31
125	0	0	1985	1191	1676	33
126	0	0	2025	1192	1682	33
127	0	0	2069	1189	1682	33
0	0	0	2102	1192	1679	34
1	0	0	2119	1192	1666	32
2	0	0	2159	1193	1654	33
3	0	0	2177	1193	1651	31
4	0	0	2160	1191	1654	31
5	0	0	2115	1190	1661	33
6	0	0	2044	1187	1669	32
7	0	0	1977	1189	1677	32
8	0	0	1929	1191	1683	33
9	0	0	1884	1186	1682	32
10	0	0	1864	1191	1678	34
11	0	0	1868	1192	1665	32
12	0	0	1874	1192	1652	32
13	0	0	1908	1192	1649	32
14	0	0	1961	1193	1653	32
15	0	0	1987	1192	1660	33
16	0	0	2003	1193	1669	32
17	0	0	2008	1191	1677	33
18	0	0	2024	1192	1681	35
19	0	0	2056	1191	1684	32
20	0	0	2093	1194	1679	32
21	0	0	2131	1193	1666	32
22	0	0	2175	1191	1654	33
23	0	0	2180	1192	1651	32
24	0	0	2145	1189	1654	32
25	0	0	2097	1189	1661	33
26	0	0	2014	1187	1669	32
27	0	0	1941	1189	1677	33
28	0	0	1904	1190	1682	32
29	0	0	1890	1190	1682	32
30	0	0	1882	1192	1678	32
31	0	0	1887	1190	1665	31
32	0	0	1886	1191	1653	32
33	0	0	1902	1192	1649	35
34	0	0	1927	1190	1653	32
35	0	0	1951	1193	1660	33
36	0	0	1988	1190	1669	32
37	0	0	2044	1190	1677	33
38	0	0	2114	1191	1682	33
39	0	0	2173	1193	1683	32
40	0	0	2209	1193	1679	36
41	0	0	2221	1192	1666	35
42	0	0	2253	1192	1655	33
43	0	0	2233	1191	1651	32
44	0	0	2154	1188	1655	34
45	0	0	2080	1189	1661	32
46	0	0	2009	1188	1670	31
47	0	0	1955	1188	1677	33
48	0	0	1928	1190	1681	32
49	0	0	1917	1189	1683	31
50	0	0	1906	1190	1678	36
51	0	0	1896	1189	1665	32
52	0	0	1875	1188	1653	32
53	0	0	1868	1189	1650	32
54	0	0	1871	1191	1654	31
55	0	0	1889	1192	1660	37
56	0	0	1917	1192	1668	35
57	0	0	1989	1192	1677	33
58	0	0	2066	1191	1682	33
59	0	0	2127	1190	1683	33
60	0	0	2165	1191	1679	33
61	0	0	2182	1192	1666	31
62	0	0	2209	1193	1655	33
63	0	0	2203	1191	1652	33
64	0	0	2166	1189	1655	34
65	0	0	2140	1190	1661	34
66	0	0	2100	1188	1669	33
67	0	0	2057	1188	1679	33
68	0	0	2000	1188	1683	32
69	0	0	1940	1188	1683	36
70	0	0	1902	1189	1678	37
71	0	0	1887	1190	1665	32
72	0	0	1889	1191	1653	33
73	0	0	1915	1191	1651	31
74	0	0	1946	1191	1653	32
75	0	0	1975	1190	1660	36
76	0	0	2011	1191	1669	35
77	0	0	2061	1191	1677	34
78	0	0	2117	1192	1683	31
79	0	0	2166	1192	1683	32
80	0	0	2202	1188	1679	33
81	0	0	2219	1192	1667	32
82	0	0	2241	1192	1654	33
83	0	0	2224	1189	1652	32
84	0	0	2193	1188	1655	34
85	0	0	2165	1188	1662	36
86	0	0	2103	1188	1669	34
87	0	0	2040	1188	1678	33
88	0	0	2004	1190	1683	32
89	0	0	1983	1187	1683	32
90	0	0	1961	1188	1678	33
91	0	0	1939	1189	1665	31
92	0	0	1906	1187	1653	32
93	0	0	1898	1191	1650	33
94	0	0	1913	1189	1654	33
95	0	0	1948	1191	1661	35
96	0	0	1999	1190	1669	34
97	0	0	2055	1191	1677	33
98	0	0	2109	1191	1682	32
99	0	0	2155	1192	1683	32
100	0	0	2192	1192	1679	35
101	0	0	2220	1191	1666	34
102	0	0	2244	1191	1655	33
103	0	0	2233	1191	1652	33
104	0	0	2191	1188	1655	36
105	0	0	2131	1188	1662	35
106	0	0	2048	1188	1670	34
107	0	0	1989	1188	1677	33
108	0	0	1963	1189	1682	32
109	0	0	1937	1189	1683	32
110	0	0	1913	1190	1678	33
111	0	0	1904	1190	1665	32
112	0	0	1899	1191	1653	32
113	0	0	1921	1191	1650	32
114	0	0	1956	1192	1653	36
115	0	0	1986	1191	1661	35
116	0	0	2023	1191	1671	35
117	0	0	2072	1190	1678	33
118	0	0	2121	1191	1683	33
119	0	0	2166	1192	1683	36
120	0	0	2206	1188	1680	32
121	0	0	2233	1191	1666	31
122	0	0	2274	1192	1655	33
123	0	0	2283	1192	1653	32
124	0	0	2266	1188	1655	32
125	0	0	2225	1188	1662	33
126	0	0	2152	1187	1670	33
127	0	0	2081	1188	1678	33
0	0	0	2012	1186	1684	33
1	0	0	1954	1186	1683	31
2	0	0	1918	1188	1679	33
3	0	0	1902	1188	1665	31
4	0	0	1901	1191	1654	32
5	0	0	1906	1191	1651	32
6	0	0	1920	1192	1654	32
7	0	0	1939	1190	1661	33
8	0	0	1975	1190	1670	32
9	0	0	2025	1191	1678	33
10	0	0	2076	1190	1683	32
11	0	0	2124	1192	1684	33
12	0	0	2163	1191	1679	33
13	0	0	2196	1191	1667	32
14	0	0	2227	1192	1655	33
15	0	0	2206	1189	1652	32
16	0	0	2161	1186	1654	35
17	0	0	2112	1187	1662	33
18	0	0	2055	1187	1670	31
19	0	0	2005	1188	1679	33
20	0	0	1964	1187	1681	32
21	0	0	1931	1188	1684	32
22	0	0	1898	1187	1679	36
23	0	0	1884	1188	1665	32
24	0	0	1877	1189	1653	32
25	0	0	1887	1189	1651	31
26	0	0	1913	1190	1654	36
27	0	0	1933	1189	1662	33
28	0	0	1964	1190	1671	32
29	0	0	2005	1190	1678	33
30	0	0	2052	1189	1682	31
31	0	0	2111	1188	1683	35
32	0	0	2152	1188	1680	33
33	0	0	2174	1190	1667	32
34	0	0	2214	1190	1655	33
35	0	0	2212	1188	1652	32
36	0	0	2174	1188	1656	32
37	0	0	2129	1186	1660	33
38	0	0	2065	1187	1671	31
39	0	0	2003	1187	1678	33
40	0	0	1964	1187	1683	33
41	0	0	1937	1187	1683	31
42	0	0	1903	1186	1679	33
43	0	0	1873	1186	1665	31
44	0	0	1837	1186	1654	32
45	0	0	1826	1189	1651	31
46	0	0	1853	1188	1654	35
47	0	0	1901	1189	1662	36
48	0	0	1954	1189	1670	32
49	0	0	2008	1190	1679	35
50	0	0	2066	1189	1683	32
51	0	0	2113	1189	1684	33
52	0	0	2130	1189	1679	34
53	0	0	2133	1191	1667	32
54	0	0	2152	1190	1655	33
55	0	0	2143	1187	1652	33
56	0	0	2113	1188	1656	32
57	0	0	2061	1186	1662	35
58	0	0	1987	1186	1671	32
59	0	0	1930	1187	1679	33
60	0	0	1903	1188	1684	33
61	0	0	1883	1187	1684	32
62	0	0	1857	1186	1679	34
63	0	0	1834	1189	1665	32
64	0	0	1810	1187	1654	32
65	0	0	1819	1188	1651	32
66	0	0	1852	1191	1655	32
67	0	0	1897	1189	1662	34
68	0	0	1949	1189	1670	32
69	0	0	2017	1188	1679	33
70	0	0	2093	1187	1684	31
71	0	0	2155	1190	1684	32
72	0	0	2197	1189	1680	33
73	0	0	2240	1189	1667	32
74	0	0	2282	1190	1656	32
75	0	0	2283	1189	1652	31
76	0	0	2283	1189	1655	32
77	0	0	2304	1189	1663	33
78	0	0	2296	1188	1671	32
79	0	0	2275	1189	1679	33
80	0	0	2259	1189	1683	32
81	0	0	2240	1187	1683	32
82	0	0	2238	1189	1679	33
83	0	0	2256	1190	1666	31
84	0	0	2271	1190	1654	33
85	0	0	2300	1189	1652	32
86	0	0	2337	1188	1655	33
87	0	0	2371	1189	1661	33
88	0	0	2430	1189	1670	31
89	0	0	2483	1188	1678	33
90	0	0	2532	1188	1683	33
91	0	0	2580	1190	1685	31
92	0	0	2616	1190	1680	33
93	0	0	2652	1189	1667	32
94	0	0	2693	1189	1655	33
95	0	0	2688	1186	1652	32
96	0	0	2627	1183	1656	32
97	0	0	2545	1185	1663	35
98	0	0	2452	1185	1671	31
99	0	0	2353	1185	1679	33
100	0	0	2256	1187	1684	32
101	0	0	2162	1186	1684	32
102	0	0	2087	1185	1680	32
103	0	0	2026	1185	1666	32
104	0	0	1975	1184	1655	33
105	0	0	1952	1187	1651	32
106	0	0	1943	1188	1655	31
107	0	0	1935	1187	1662	35
108	0	0	1935	1188	1671	32
109	0	0	1951	1187	1678	33
110	0	0	1978	1187	1683	32
111	0	0	1998	1189	1684	32
112	0	0	2002	1189	1680	33
113	0	0	2006	1188	1667	31
114	0	0	2025	1188	1656	33
115	0	0	2019	1187	1651	34
116	0	0	1981	1186	1656	33
117	0	0	1921	1186	1663	33
118	0	0	1833	1184	1671	32
119	0	0	1762	1184	1679	33
120	0	0	1717	1186	1684	32
121	0	0	1690	1185	1684	32
122	0	0	1681	1189	1679	33
123	0	0	1684	1187	1666	31
124	0	0	1682	1187	1654	32
125	0	0	1702	1189	1652	32
126	0	0	1737	1188	1655	33
127	0	0	1773	1188	1662	33
0	0	0	1820	1183	1669	31
1	0	0	1873	1188	1679	33
2	0	0	1921	1189	1683	33
3	0	0	1960	1188	1685	32
4	0	0	1996	1190	1680	33
5	0	0	2024	1189	1668	32
6	0	0	2054	1188	1656	33
7	0	0	2052	1188	1653	32
8	0	0	2031	1187	1657	34
9	0	0	2004	1187	1663	33
10	0	0	1949	1185	1671	31
11	0	0	1884	1184	1679	33
12	0	0	1835	1186	1684	32
13	0	0	1804	1185	1684	34
14	0	0	1777	1185	1680	33
15	0	0	1762	1183	1665	31
16	0	0	1752	1187	1654	33
17	0	0	1760	1189	1652	32
18	0	0	1788	1186	1655	35
19	0	0	1842	1188	1662	33
20	0	0	1918	1188	1671	31
21	0	0	2000	1188	1679	33
22	0	0	2075	1188	1683	34
23	0	0	2129	1188	1685	33
24	0	0	2158	1188	1680	32
25	0	0	2179	1188	1668	31
26	0	0	2199	1186	1655	33
27	0	0	2177	1186	1653	32
28	0	0	2134	1186	1657	32
29	0	0	2072	1185	1664	32
30	0	0	2001	1185	1672	31
31	0	0	1962	1187	1680	31
32	0	0	1953	1188	1683	32
33	0	0	1941	1186	1685	31
34	0	0	1909	1185	1679	33
35	0	0	1873	1184	1666	27
36	0	0	1833	1185	1654	33
37	0	0	1833	1188	1652	32
38	0	0	1869	1187	1656	32
39	0	0	1916	1188	1663	33
40	0	0	1964	1188	1671	31
41	0	0	2009	1188	1679	32
42	0	0	2065	1187	1684	33
43	0	0	2108	1186	1685	35
44	0	0	2137	1188	1681	32
45	0	0	2167	1187	1667	32
46	0	0	2219	1188	1656	34
47	0	0	2217	1183	1653	32
48	0	0	2175	1184	1657	34
49	0	0	2131	1185	1663	34
50	0	0	2070	1183	1672	31
51	0	0	2020	1185	1679	33
52	0	0	1993	1185	1684	32
53	0	0	1967	1184	1685	35
54	0	0	1936	1184	1680	32
55	0	0	1907	1183	1666	27
56	0	0	1881	1185	1655	33
57	0	0	1883	1187	1652	32
58	0	0	1890	1185	1656	35
59	0	0	1908	1187	1663	33
60	0	0	1949	1187	1671	31
61	0	0	1990	1187	1679	33
62	0	0	2028	1187	1684	33
63	0	0	2073	1188	1686	33
64	0	0	2123	1187	1681	32
65	0	0	2172	1188	1667	32
66	0	0	2223	1188	1656	33
67	0	0	2231	1188	1654	33
68	0	0	2196	1186	1657	33
69	0	0	2150	1184	1664	32
70	0	0	2074	1183	1672	32
71	0	0	2003	1184	1680	32
72	0	0	1956	1186	1685	32
73	0	0	1927	1183	1685	32
74	0	0	1893	1185	1680	32
75	0	0	1858	1183	1666	31
76	0	0	1832	1185	1655	31
77	0	0	1862	1187	1652	32
78	0	0	1910	1187	1656	33
79	0	0	1948	1185	1663	34
80	0	0	1987	1187	1671	32
81	0	0	2040	1189	1680	33
82	0	0	2099	1186	1687	35
83	0	0	2143	1187	1685	32
84	0	0	2167	1186	1681	33
85	0	0	2189	1188	1668	32
86	0	0	2220	1188	1657	33
87	0	0	2215	1186	1656	34
88	0	0	2185	1184	1658	33
89	0	0	2150	1183	1664	31
90	0	0	2090	1184	1672	32
91	0	0	2017	1184	1680	32
92	0	0	1961	1186	1685	32
93	0	0	1914	1183	1684	32
94	0	0	1886	1184	1680	31
95	0	0	1875	1185	1667	31
96	0	0	1859	1185	1655	33
97	0	0	1863	1186	1652	31
98	0	0	1882	1187	1656	32
99	0	0	1916	1185	1663	33
100	0	0	1968	1187	1672	32
101	0	0	2031	1188	1680	33
102	0	0	2100	1187	1686	34
103	0	0	2155	1188	1685	32
104	0	0	2184	1186	1681	33
105	0	0	2203	1187	1667	32
106	0	0	2220	1188	1657	33
107	0	0	2206	1184	1653	35
108	0	0	2177	1185	1656	32
109	0	0	2149	1184	1664	32
110	0	0	2100	1184	1673	32
111	0	0	2059	1184	1680	32
112	0	0	2024	1183	1684	35
113	0	0	2006	1187	1684	33
114	0	0	1988	1183	1680	32
115	0	0	1957	1184	1667	32
116	0	0	1915	1183	1655	32
117	0	0	1905	1185	1652	31
118	0	0	1934	1186	1655	32
119	0	0	1984	1187	1663	33
120	0	0	2029	1186	1671	32
121	0	0	2065	1187	1679	33
122	0	0	2102	1186	1684	35
123	0	0	2142	1187	1684	34
124	0	0	2194	1187	1681	32
125	0	0	2249	1187	1667	32
126	0	0	2293	1187	1657	34
127	0	0	2274	1183	1653	32
0	0	0	2241	1186	1656	33
1	0	0	2197	1182	1664	31
2	0	0	2129	1182	1672	32
3	0	0	2069	1182	1679	32
4	0	0	2025	1183	1685	32
5	0	0	2003	1184	1685	33
6	0	0	1992	1186	1680	32
7	0	0	1988	1186	1667	32
8	0	0	1979	1188	1655	32
9	0	0	1983	1186	1652	32
10	0	0	1993	1186	1656	32
11	0	0	2000	1185	1663	34
12	0	0	2007	1186	1672	32
13	0	0	2032	1184	1680	32
14	0	0	2077	1185	1684	33
15	0	0	2113	1188	1685	32
16	0	0	2144	1188	1681	32
17	0	0	2183	1186	1668	33
18	0	0	2247	1186	1656	33
19	0	0	2272	1187	1654	33
20	0	0	2267	1186	1657	33
21	0	0	2237	1183	1664	31
22	0	0	2178	1182	1672	32
23	0	0	2107	1182	1680	32
24	0	0	2042	1182	1685	33
25	0	0	1989	1182	1684	32
26	0	0	1946	1184	1680	32
27	0	0	1908	1182	1666	31
28	0	0	1889	1183	1656	32
29	0	0	1911	1187	1653	32
30	0	0	1971	1186	1655	36
31	0	0	2036	1187	1664	31
32	0	0	2093	1186	1673	32
33	0	0	2146	1186	1680	32
34	0	0	2197	1187	1685	33
35	0	0	2229	1186	1684	32
36	0	0	2241	1188	1681	32
37	0	0	2248	1187	1666	32
38	0	0	2271	1185	1656	33
39	0	0	2277	1187	1654	32
40	0	0	2256	1185	1657	34
41	0	0	2225	1185	1664	32
42	0	0	2173	1182	1672	32
43	0	0	2127	1183	1681	32
44	0	0	2080	1184	1685	32
45	0	0	2043	1183	1683	34
46	0	0	2015	1185	1680	33
47	0	0	1988	1182	1666	31
48	0	0	1959	1181	1656	32
49	0	0	1956	1185	1653	32
50	0	0	1977	1185	1657	33
51	0	0	2005	1187	1664	31
52	0	0	2046	1186	1673	33
53	0	0	2107	1187	1681	33
54	0	0	2176	1186	1685	34
55	0	0	2239	1184	1686	33
56	0	0	2273	1189	1681	32
57	0	0	2300	1186	1668	32
58	0	0	2345	1183	1656	32
59	0	0	2347	1185	1654	32
60	0	0	2307	1183	1657	36
61	0	0	2255	1186	1664	32
62	0	0	2176	1181	1673	32
63	0	0	2114	1181	1680	32
64	0	0	2085	1187	1684	32
65	0	0	2069	1184	1685	31
66	0	0	2055	1187	1680	31
67	0	0	2044	1184	1667	32
68	0	0	2033	1185	1656	33
69	0	0	2042	1187	1653	31
70	0	0	2074	1185	1656	33
71	0	0	2109	1185	1664	32
72	0	0	2140	1185	1672	32
73	0	0	2172	1184	1680	36
74	0	0	2213	1186	1685	35
75	0	0	2258	1185	1685	31
76	0	0	2293	1187	1681	32
77	0	0	2320	1185	1668	32
78	0	0	2344	1186	1656	34
79	0	0	2323	1184	1654	34
80	0	0	2281	1183	1658	31
81	0	0	2239	1182	1665	31
82	0	0	2181	1183	1673	32
83	0	0	2134	1182	1680	32
84	0	0	2110	1183	1685	34
85	0	0	2090	1183	1685	33
86	0	0	2069	1188	1681	32
87	0	0	2068	1185	1668	31
88	0	0	2063	1185	1655	33
89	0	0	2093	1186	1653	32
90	0	0	2137	1184	1655	36
91	0	0	2168	1185	1664	32
92	0	0	2193	1185	1672	32
93	0	0	2213	1183	1680	32
94	0	0	2238	1185	1684	33
95	0	0	2264	1185	1686	33
96	0	0	2283	1184	1681	33
97	0	0	2297	1185	1668	32
98	0	0	2329	1187	1655	32
99	0	0	2334	1187	1654	34
100	0	0	2307	1183	1658	35
101	0	0	2267	1181	1664	31
102	0	0	2198	1181	1673	33
103	0	0	2129	1181	1680	32
104	0	0	2083	1182	1685	33
105	0	0	2060	1184	1686	31
106	0	0	2046	1184	1680	33
107	0	0	2025	1182	1667	32
108	0	0	1987	1182	1656	32
109	0	0	1979	1185	1653	31
110	0	0	2002	1181	1656	32
111	0	0	2043	1184	1664	33
112	0	0	2100	1184	1672	33
113	0	0	2160	1185	1680	33
114	0	0	2215	1184	1685	34
115	0	0	2264	1187	1686	31
116	0	0	2287	1185	1681	32
117	0	0	2302	1185	1668	33
118	0	0	2337	1185	1657	35
119	0	0	2324	1183	1654	33
120	0	0	2277	1182	1658	31
121	0	0	2223	1180	1665	32
122	0	0	2144	1180	1672	32
123	0	0	2080	1181	1680	32
124	0	0	2036	1183	1684	33
125	0	0	2003	1182	1686	31
126	0	0	1973	1184	1680	33
127	0	0	1949	1183	1667	32
0	0	0	1920	1182	1655	33
1	0	0	1922	1184	1653	33
2	0	0	1954	1186	1657	31
3	0	0	1995	1184	1664	31
4	0	0	2032	1184	1673	33
5	0	0	2068	1184	1680	35
6	0	0	2105	1183	1686	34
7	0	0	2148	1183	1687	31
8	0	0	2187	1185	1681	32
9	0	0	2219	1185	1668	32
10	0	0	2264	1184	1657	33
11	0	0	2267	1184	1653	36
12	0	0	2227	1181	1657	33
13	0	0	2166	1181	1664	31
14	0	0	2087	1180	1673	32
15	0	0	2012	1180	1680	32
16	0	0	1947	1180	1683	36
17	0	0	1889	1180	1685	33
18	0	0	1852	1182	1680	31
19	0	0	1854	1184	1667	31
20	0	0	1859	1185	1654	32
21	0	0	1875	1183	1653	33
22	0	0	1908	1185	1657	32
23	0	0	1938	1182	1665	31
24	0	0	1969	1184	1673	32
25	0	0	2004	1182	1680	32
26	0	0	2044	1184	1685	33
27	0	0	2085	1184	1685	32
28	0	0	2111	1183	1681	33
29	0	0	2138	1184	1667	33
30	0	0	2182	1184	1657	33
31	0	0	2194	1184	1655	31
32	0	0	2171	1181	1657	33
33	0	0	2127	1180	1665	31
34	0	0	2037	1180	1673	33
35	0	0	1951	1180	1681	32
36	0	0	1901	1180	1685	32
37	0	0	1882	1182	1684	33
38	0	0	1879	1183	1681	32
39	0	0	1870	1181	1667	32
40	0	0	1856	1182	1655	33
41	0	0	1860	1183	1655	33
42	0	0	1872	1184	1655	33
43	0	0	1873	1184	1664	32
44	0	0	1894	1183	1672	34
45	0	0	1942	1182	1681	32
46	0	0	2006	1184	1685	30
47	0	0	2070	1184	1685	33
48	0	0	2130	1183	1681	31
49	0	0	2179	1184	1668	32
50	0	0	2214	1184	1656	32
51	0	0	2197	1179	1654	32
52	0	0	2155	1181	1657	32
53	0	0	2096	1180	1664	31
54	0	0	2022	1180	1673	32
55	0	0	1962	1180	1680	32
56	0	0	1916	1179	1686	33
57	0	0	1880	1181	1685	32
58	0	0	1852	1181	1680	31
59	0	0	1833	1180	1667	32
60	0	0	1810	1179	1655	32
61	0	0	1810	1184	1653	32
62	0	0	1831	1184	1656	33
63	0	0	1855	1182	1662	33
64	0	0	1885	1183	1672	32
65	0	0	1929	1184	1681	33
66	0	0	1982	1183	1687	33
67	0	0	2035	1183	1685	33
68	0	0	2076	1183	1681	33
69	0	0	2132	1183	1668	32
70	0	0	2190	1183	1657	33
71	0	0	2198	1183	1655	32
72	0	0	2164	1180	1656	32
73	0	0	2105	1180	1665	31
74	0	0	2027	1180	1673	32
75	0	0	1967	1180	1680	32
76	0	0	1929	1179	1684	33
77	0	0	1897	1179	1684	32
78	0	0	1870	1180	1680	34
79	0	0	1840	1179	1667	32
80	0	0	1823	1181	1654	31
81	0	0	1833	1180	1653	32
82	0	0	1862	1183	1656	32
83	0	0	1897	1183	1664	31
84	0	0	1943	1183	1673	31
85	0	0	1987	1182	1680	33
86	0	0	2031	1181	1685	32
87	0	0	2078	1183	1685	32
88	0	0	2144	1183	1681	32
89	0	0	2213	1183	1668	31
90	0	0	2254	1184	1657	33
91	0	0	2232	1179	1654	32
92	0	0	2192	1180	1656	32
93	0	0	2134	1179	1665	31
94	0	0	2052	1180	1672	32
95	0	0	1983	1179	1680	32
96	0	0	1933	1179	1685	32
97	0	0	1887	1179	1684	32
98	0	0	1853	1179	1681	31
99	0	0	1828	1179	1666	32
100	0	0	1810	1180	1655	33
101	0	0	1827	1183	1654	33
102	0	0	1881	1182	1656	32
103	0	0	1932	1181	1663	34
104	0	0	1962	1183	1672	32
105	0	0	1982	1182	1680	33
106	0	0	2019	1182	1685	31
107	0	0	2060	1182	1686	33
108	0	0	2080	1183	1681	31
109	0	0	2091	1183	1669	32
110	0	0	2109	1182	1657	33
111	0	0	2112	1183	1654	31
112	0	0	2123	1183	1658	33
113	0	0	2122	1179	1664	31
114	0	0	2073	1179	1674	32
115	0	0	2010	1177	1681	32
116	0	0	1956	1177	1685	33
117	0	0	1911	1179	1686	33
118	0	0	1881	1179	1680	31
119	0	0	1859	1179	1667	32
120	0	0	1844	1182	1656	32
121	0	0	1869	1183	1655	31
122	0	0	1914	1182	1658	34
123	0	0	1955	1180	1663	34
124	0	0	1992	1182	1673	32
125	0	0	2021	1182	1681	32
126	0	0	2065	1182	1685	31
127	0	0	2113	1181	1686	33
0	0	0	2147	1184	1680	32
1	0	0	2184	1182	1668	32
2	0	0	2219	1183	1656	32
3	0	0	2206	1181	1655	32
4	0	0	2177	1180	1658	32
5	0	0	2136	1178	1664	31
6	0	0	2076	1179	1673	32
7	0	0	2020	1178	1681	32
8	0	0	1970	1178	1685	32
9	0	0	1922	1178	1685	32
10	0	0	1876	1176	1680	32
11	0	0	1841	1179	1667	32
12	0	0	1826	1179	1657	33
13	0	0	1846	1180	1654	33
14	0	0	1882	1183	1658	33
15	0	0	1916	1180	1664	31
16	0	0	1963	1182	1673	32
17	0	0	2034	1182	1681	32
18	0	0	2105	1182	1685	33
19	0	0	2159	1182	1687	34
20	0	0	2192	1180	1681	34
21	0	0	2211	1183	1668	32
22	0	0	2226	1179	1656	34
23	0	0	2204	1179	1654	31
24	0	0	2165	1178	1658	33
25	0	0	2118	1180	1665	32
26	0	0	2057	1178	1673	33
27	0	0	1995	1181	1680	32
28	0	0	1947	1179	1686	32
29	0	0	1911	1179	1687	34
30	0	0	1882	1178	1680	31
31	0	0	1867	1179	1667	31
32	0	0	1870	1182	1656	32
33	0	0	1894	1182	1653	35
34	0	0	1936	1181	1658	34
35	0	0	1980	1179	1664	31
36	0	0	2029	1182	1672	33
37	0	0	2079	1179	1681	32
38	0	0	2115	1183	1685	31
39	0	0	2140	1183	1686	31
40	0	0	2161	1180	1681	32
41	0	0	2185	1181	1668	33
42	0	0	2218	1182	1656	33
43	0	0	2215	1180	1654	32
44	0	0	2187	1179	1659	33
45	0	0	2150	1176	1665	32
46	0	0	2085	1179	1673	32
47	0	0	2028	1179	1680	32
48	0	0	1990	1178	1685	32
49	0	0	1969	1180	1685	33
50	0	0	1961	1180	1681	32
51	0	0	1947	1178	1667	32
52	0	0	1919	1179	1655	32
53	0	0	1897	1179	1655	33
54	0	0	1887	1180	1658	33
55	0	0	1889	1182	1664	31
56	0	0	1906	1181	1673	33
57	0	0	1970	1181	1681	31
58	0	0	2059	1181	1685	32
59	0	0	2127	1181	1685	34
60	0	0	2169	1181	1681	32
61	0	0	2197	1181	1668	32
62	0	0	2218	1179	1657	32
63	0	0	2191	1178	1655	36
64	0	0	2145	1178	1657	33
65	0	0	2105	1178	1665	32
66	0	0	2061	1180	1673	32
67	0	0	2037	1179	1681	31
68	0	0	2034	1180	1685	36
69	0	0	2022	1178	1685	32
70	0	0	1981	1177	1681	32
71	0	0	1921	1177	1666	32
72	0	0	1882	1178	1656	33
73	0	0	1895	1180	1653	31
74	0	0	1939	1180	1657	33
75	0	0	1979	1181	1665	31
76	0	0	1988	1180	1673	32
77	0	0	2009	1181	1681	32
78	0	0	2053	1181	1684	33
79	0	0	2107	1181	1687	34
80	0	0	2157	1181	1682	32
81	0	0	2205	1181	1668	32
82	0	0	2263	1180	1658	33
83	0	0	2262	1179	1656	33
84	0	0	2208	1177	1657	31
85	0	0	2139	1178	1665	31
86	0	0	2054	1177	1673	33
87	0	0	1987	1176	1682	32
88	0	0	1953	1177	1686	34
89	0	0	1934	1179	1687	33
90	0	0	1928	1181	1680	32
91	0	0	1918	1178	1667	31
92	0	0	1900	1179	1656	33
93	0	0	1905	1180	1654	31
94	0	0	1937	1180	1656	32
95	0	0	1980	1181	1665	31
96	0	0	2009	1180	1673	32
97	0	0	2029	1180	1681	33
98	0	0	2064	1180	1686	34
99	0	0	2109	1181	1686	33
100	0	0	2140	1180	1681	32
101	0	0	2173	1181	1668	32
102	0	0	2218	1181	1658	33
103	0	0	2238	1181	1655	32
104	0	0	2218	1179	1658	12
105	0	0	2176	1176	1665	32
106	0	0	2101	1178	1674	33
107	0	0	2015	1178	1680	32
108	0	0	1933	1176	1686	32
109	0	0	1879	1178	1685	32
110	0	0	1848	1178	1681	32
111	0	0	1849	1181	1667	31
112	0	0	1855	1180	1656	33
113	0	0	1880	1182	1653	32
114	0	0	1920	1180	1657	33
115	0	0	1955	1180	1665	32
116	0	0	1989	1179	1673	32
117	0	0	2016	1180	1681	33
118	0	0	2044	1180	1686	34
119	0	0	2082	1180	1686	32
120	0	0	2122	1180	1681	32
121	0	0	2179	1180	1668	32
122	0	0	2247	1180	1658	33
123	0	0	2268	1182	1654	32
124	0	0	2239	1178	1657	32
125	0	0	2192	1177	1666	32
126	0	0	2117	1176	1673	32
127	0	0	2040	1176	1681	32
0	0	0	1977	1176	1686	32
1	0	0	1929	1178	1686	33
2	0	0	1895	1177	1680	32
3	0	0	1871	1177	1667	32
4	0	0	1860	1178	1657	33
5	0	0	1884	1179	1654	33
6	0	0	1947	1179	1657	32
7	0	0	2009	1179	1664	31
8	0	0	2054	1180	1673	32
9	0	0	2091	1180	1681	32
10	0	0	2131	1182	1685	33
11	0	0	2176	1181	1687	31
12	0	0	2199	1180	1680	33
13	0	0	2212	1179	1668	31
14	0	0	2231	1178	1658	33
15	0	0	2212	1177	1654	32
16	0	0	2179	1177	1658	31
17	0	0	2123	1177	1665	31
18	0	0	2041	1176	1673	33
19	0	0	1975	1177	1682	31
20	0	0	1959	1182	1684	32
21	0	0	1970	1179	1684	32
22	0	0	1965	1179	1679	31
23	0	0	1953	1178	1667	32
24	0	0	1938	1178	1655	33
25	0	0	1947	1181	1653	32
26	0	0	1975	1179	1658	31
27	0	0	1992	1179	1664	31
28	0	0	2024	1179	1673	32
29	0	0	2058	1180	1681	32
30	0	0	2088	1179	1685	33
31	0	0	2114	1180	1686	31
32	0	0	2131	1180	1681	32
33	0	0	2141	1179	1668	32
34	0	0	2173	1180	1658	34
35	0	0	2179	1181	1654	32
36	0	0	2170	1180	1658	33
37	0	0	2141	1176	1664	32
38	0	0	2081	1176	1673	33
39	0	0	2015	1176	1681	33
40	0	0	1970	1175	1685	32
41	0	0	1943	1176	1684	32
42	0	0	1920	1177	1680	32
43	0	0	1900	1177	1667	32
44	0	0	1880	1175	1655	32
45	0	0	1887	1179	1654	33
46	0	0	1920	1180	1657	32
47	0	0	1947	1179	1663	32
48	0	0	1979	1180	1673	32
49	0	0	2020	1179	1680	33
50	0	0	2081	1179	1685	33
51	0	0	2150	1180	1686	33
52	0	0	2192	1180	1681	32
53	0	0	2226	1180	1668	31
54	0	0	2271	1178	1656	33
55	0	0	2268	1179	1654	32
56	0	0	2232	1177	1659	31
57	0	0	2174	1176	1664	32
58	0	0	2084	1175	1673	33
59	0	0	2004	1177	1680	32
60	0	0	1947	1175	1684	32
61	0	0	1909	1176	1686	31
62	0	0	1878	1176	1680	32
63	0	0	1856	1176	1666	32
64	0	0	1838	1177	1655	33
65	0	0	1854	1179	1653	32
66	0	0	1894	1179	1657	31
67	0	0	1946	1178	1665	31
68	0	0	2014	1179	1673	33
69	0	0	2070	1178	1681	31
70	0	0	2110	1179	1686	32
71	0	0	2140	1179	1686	33
72	0	0	2154	1179	1680	33
73	0	0	2165	1179	1668	32
74	0	0	2186	1179	1656	33
75	0	0	2179	1179	1654	32
76	0	0	2156	1176	1658	34
77	0	0	2116	1175	1665	32
78	0	0	2045	1175	1673	32
79	0	0	1983	1175	1680	32
80	0	0	1944	1176	1684	32
81	0	0	1926	1177	1686	32
82	0	0	1922	1179	1680	33
83	0	0	1917	1177	1667	31
84	0	0	1910	1180	1657	33
85	0	0	1919	1179	1654	32
86	0	0	1949	1178	1657	32
87	0	0	1982	1177	1666	34
88	0	0	2031	1178	1673	33
89	0	0	2077	1181	1681	32
90	0	0	2114	1179	1685	32
91	0	0	2141	1179	1686	31
92	0	0	2158	1178	1680	32
93	0	0	2179	1179	1668	34
94	0	0	2220	1180	1656	32
95	0	0	2218	1177	1653	32
96	0	0	2191	1177	1659	34
97	0	0	2151	1176	1667	32
98	0	0	2089	1177	1673	32
99	0	0	2028	1176	1681	32
100	0	0	1979	1176	1686	31
101	0	0	1946	1179	1685	31
102	0	0	1934	1177	1681	32
103	0	0	1928	1178	1667	31
104	0	0	1926	1179	1655	32
105	0	0	1932	1179	1652	32
106	0	0	1951	1179	1657	32
107	0	0	1975	1179	1666	32
108	0	0	2006	1178	1673	32
109	0	0	2034	1178	1680	32
110	0	0	2064	1178	1686	33
111	0	0	2094	1178	1687	34
112	0	0	2130	1179	1681	33
113	0	0	2185	1179	1668	32
114	0	0	2243	1181	1657	31
115	0	0	2247	1178	1655	33
116	0	0	2200	1176	1658	31
117	0	0	2137	1175	1665	31
118	0	0	2046	1175	1673	32
119	0	0	1964	1175	1681	31
120	0	0	1920	1176	1686	33
121	0	0	1900	1177	1687	34
122	0	0	1897	1178	1681	33
123	0	0	1898	1178	1666	32
124	0	0	1897	1179	1655	32
125	0	0	1917	1178	1654	33
126	0	0	1947	1178	1658	34
127	0	0	1967	1180	1667	32
0	0	0	2012	1178	1673	32
1	0	0	2058	1178	1680	33
2	0	0	2099	1178	1686	34
3	0	0	2130	1177	1687	34
4	0	0	2161	1178	1682	33
5	0	0	2206	1178	1668	31
6	0	0	2255	1179	1657	33
7	0	0	2244	1176	1656	32
8	0	0	2202	1176	1659	35
9	0	0	2151	1175	1665	31
10	0	0	2072	1175	1674	33
11	0	0	1997	1175	1681	32
12	0	0	1939	1173	1685	32
13	0	0	1892	1175	1685	33
14	0	0	1876	1180	1681	31
15	0	0	1884	1178	1663	33
16	0	0	1897	1178	1655	33
17	0	0	1925	1176	1654	33
18	0	0	1953	1178	1658	35
19	0	0	1973	1178	1666	32
20	0	0	2013	1178	1672	32
21	0	0	2064	1179	1681	32
22	0	0	2110	1178	1685	33
23	0	0	2145	1178	1686	32
24	0	0	2173	1179	1682	32
25	0	0	2198	1179	1668	32
26	0	0	2221	1180	1656	32
27	0	0	2198	1176	1655	32
28	0	0	2151	1176	1658	32
29	0	0	2100	1174	1667	33
30	0	0	2042	1175	1674	32
31	0	0	2002	1173	1682	33
32	0	0	1975	1175	1685	33
33	0	0	1952	1176	1686	34
34	0	0	1932	1175	1679	34
35	0	0	1912	1174	1666	32
36	0	0	1906	1178	1654	31
37	0	0	1933	1178	1655	31
38	0	0	1969	1177	1657	32
39	0	0	1993	1179	1666	32
40	0	0	2014	1178	1673	32
41	0	0	2040	1180	1681	31
42	0	0	2078	1177	1686	33
43	0	0	2117	1177	1686	32
44	0	0	2152	1177	1680	33
45	0	0	2188	1178	1668	34
46	0	0	2220	1178	1656	33
47	0	0	2204	1175	1656	31
48	0	0	2167	1175	1658	31
49	0	0	2132	1174	1665	31
50	0	0	2084	1174	1673	32
51	0	0	2042	1174	1682	32
52	0	0	2012	1175	1686	33
53	0	0	1989	1175	1687	33
54	0	0	1969	1175	1680	31
55	0	0	1953	1175	1668	31
56	0	0	1933	1176	1654	32
57	0	0	1938	1177	1652	32
58	0	0	1968	1178	1657	32
59	0	0	1998	1176	1665	32
60	0	0	2033	1177	1673	33
61	0	0	2073	1177	1682	34
62	0	0	2124	1177	1687	34
63	0	0	2175	1177	1686	31
64	0	0	2222	1177	1681	33
65	0	0	2254	1177	1668	32
66	0	0	2282	1177	1657	32
67	0	0	2271	1176	1653	32
68	0	0	2228	1175	1658	32
69	0	0	2164	1174	1665	31
70	0	0	2074	1175	1674	31
71	0	0	1993	1173	1680	32
72	0	0	1932	1174	1687	33
73	0	0	1891	1175	1686	30
74	0	0	1867	1174	1680	32
75	0	0	1848	1174	1667	32
76	0	0	1833	1176	1656	33
77	0	0	1852	1177	1654	32
78	0	0	1894	1177	1658	32
79	0	0	1931	1175	1665	32
80	0	0	1978	1177	1674	33
81	0	0	2022	1176	1681	33
82	0	0	2070	1178	1684	32
83	0	0	2119	1177	1685	32
84	0	0	2166	1177	1680	33
85	0	0	2216	1178	1668	32
86	0	0	2267	1178	1656	33
87	0	0	2264	1176	1655	33
88	0	0	2224	1174	1658	32
89	0	0	2177	1174	1665	31
90	0	0	2114	1174	1674	33
91	0	0	2045	1173	1681	32
92	0	0	1985	1174	1684	32
93	0	0	1943	1174	1686	32
94	0	0	1919	1175	1679	33
95	0	0	1915	1176	1667	33
96	0	0	1911	1178	1656	34
97	0	0	1921	1177	1652	32
98	0	0	1941	1177	1657	32
99	0	0	1959	1177	1664	32
100	0	0	1991	1177	1674	31
101	0	0	2032	1177	1682	33
102	0	0	2077	1176	1685	33
103	0	0	2116	1177	1687	32
104	0	0	2146	1177	1680	32
105	0	0	2184	1177	1668	31
106	0	0	2229	1176	1656	34
107	0	0	2225	1175	1656	31
108	0	0	2190	1175	1659	32
109	0	0	2151	1173	1666	31
110	0	0	2088	1173	1674	33
111	0	0	2022	1175	1681	32
112	0	0	1981	1174	1684	32
113	0	0	1960	1175	1686	32
114	0	0	1947	1175	1680	32
115	0	0	1920	1172	1667	32
116	0	0	1890	1173	1655	32
117	0	0	1890	1176	1653	31
118	0	0	1915	1177	1658	32
119	0	0	1946	1177	1663	33
120	0	0	1987	1176	1673	32
121	0	0	2041	1176	1681	33
122	0	0	2095	1177	1685	32
123	0	0	2147	1176	1686	36
124	0	0	2185	1177	1682	33
125	0	0	2219	1177	1668	32
126	0	0	2255	1176	1657	33
127	0	0	2253	1176	1655	29
0	0	0	2217	1173	1659	32
1	0	0	2170	1173	1665	30
2	0	0	2088	1172	1674	33
3	0	0	2012	1173	1681	33
4	0	0	1960	1173	1685	34
5	0	0	1925	1173	1686	34
6	0	0	1901	1174	1680	31
7	0	0	1882	1174	1666	31
8	0	0	1872	1175	1656	33
9	0	0	1880	1176	1653	32
10	0	0	1903	1176	1657	32
11	0	0	1941	1176	1665	31
12	0	0	1993	1175	1673	33
13	0	0	2055	1176	1681	33
14	0	0	2115	1179	1686	33
15	0	0	2166	1177	1686	36
16	0	0	2198	1177	1681	31
17	0	0	2229	1176	1668	33
18	0	0	2255	1175	1657	33
19	0	0	2242	1175	1654	32
20	0	0	2196	1173	1659	32
21	0	0	2151	1173	1666	31
22	0	0	2091	1172	1674	33
23	0	0	2039	1173	1681	32
24	0	0	2006	1173	1685	33
25	0	0	1968	1172	1686	32
26	0	0	1936	1173	1680	31
27	0	0	1908	1173	1667	32
28	0	0	1890	1175	1657	33
29	0	0	1899	1176	1654	32
30	0	0	1941	1176	1658	32
31	0	0	1978	1176	1663	32
32	0	0	2003	1176	1673	33
33	0	0	2032	1175	1681	32
34	0	0	2071	1175	1686	32
35	0	0	2122	1176	1686	32
36	0	0	2165	1176	1681	33
37	0	0	2200	1176	1668	33
38	0	0	2236	1178	1657	35
39	0	0	2224	1175	1655	33
40	0	0	2198	1174	1659	31
41	0	0	2167	1173	1666	31
42	0	0	2123	1174	1674	32
43	0	0	2076	1174	1682	34
44	0	0	2034	1174	1685	33
45	0	0	1998	1174	1687	35
46	0	0	1965	1173	1681	32
47	0	0	1936	1171	1666	32
48	0	0	1914	1174	1656	31
49	0	0	1925	1176	1654	32
50	0	0	1945	1176	1657	36
51	0	0	1965	1175	1665	31
52	0	0	1991	1176	1673	32
53	0	0	2028	1179	1680	33
54	0	0	2079	1177	1686	34
55	0	0	2131	1176	1686	31
56	0	0	2166	1176	1681	33
57	0	0	2207	1177	1668	32
58	0	0	2248	1177	1656	36
59	0	0	2247	1177	1655	33
60	0	0	2214	1174	1658	37
61	0	0	2160	1172	1666	32
62	0	0	2073	1172	1674	35
63	0	0	1998	1172	1681	32
64	0	0	1946	1175	1686	33
65	0	0	1921	1174	1686	32
66	0	0	1908	1175	1679	33
67	0	0	1892	1174	1666	32
68	0	0	1881	1177	1655	33
69	0	0	1894	1176	1654	32
70	0	0	1932	1176	1657	31
71	0	0	1970	1176	1665	31
72	0	0	2022	1175	1673	33
73	0	0	2073	1176	1682	32
74	0	0	2116	1177	1686	33
75	0	0	2149	1175	1686	31
76	0	0	2169	1175	1680	33
77	0	0	2197	1176	1668	32
78	0	0	2235	1179	1656	34
79	0	0	2235	1177	1655	32
80	0	0	2209	1174	1659	29
81	0	0	2153	1172	1665	32
82	0	0	2075	1171	1673	32
83	0	0	2011	1173	1681	33
84	0	0	1972	1174	1686	32
85	0	0	1936	1173	1686	31
86	0	0	1892	1172	1680	33
87	0	0	1870	1171	1667	31
88	0	0	1873	1177	1655	33
89	0	0	1904	1177	1654	32
90	0	0	1950	1175	1657	29
91	0	0	1989	1175	1665	32
92	0	0	2024	1175	1674	32
93	0	0	2053	1177	1682	31
94	0	0	2091	1176	1686	33
95	0	0	2126	1175	1686	33
96	0	0	2162	1173	1681	32
97	0	0	2206	1175	1668	33
98	0	0	2260	1175	1657	32
99	0	0	2270	1177	1655	33
100	0	0	2240	1173	1658	28
101	0	0	2179	1171	1664	31
102	0	0	2095	1172	1674	33
103	0	0	2035	1172	1682	32
104	0	0	2003	1172	1685	32
105	0	0	1988	1173	1686	31
106	0	0	1969	1173	1679	33
107	0	0	1947	1172	1666	32
108	0	0	1915	1172	1656	33
109	0	0	1914	1176	1654	33
110	0	0	1933	1176	1657	32
111	0	0	1966	1175	1664	31
112	0	0	2016	1175	1674	33
113	0	0	2062	1175	1682	33
114	0	0	2116	1173	1685	32
115	0	0	2160	1175	1685	33
116	0	0	2195	1175	1681	33
117	0	0	2232	1174	1667	32
118	0	0	2274	1175	1657	34
119	0	0	2255	1173	1655	33
120	0	0	2211	1172	1658	33
121	0	0	2161	1171	1664	32
122	0	0	2080	1171	1674	33
123	0	0	2006	1172	1682	33
124	0	0	1967	1172	1686	35
125	0	0	1940	1172	1686	32
126	0	0	1934	1175	1681	32
127	0	0	1940	1175	1666	32
0	0	0	1939	1174	1655	32
1	0	0	1953	1173	1653	32
2	0	0	1976	1176	1658	31
3	0	0	1993	1175	1664	32
4	0	0	2022	1176	1674	33
5	0	0	2069	1176	1681	33
6	0	0	2129	1171	1685	32
7	0	0	2198	1176	1686	32
8	0	0	2253	1176	1680	33
9	0	0	2291	1175	1667	32
10	0	0	2334	1177	1657	33
11	0	0	2324	1171	1655	32
12	0	0	2281	1173	1658	34
13	0	0	2227	1171	1664	32
14	0	0	2154	1172	1674	32
15	0	0	2081	1171	1681	32
16	0	0	2018	1168	1685	32
17	0	0	1969	1172	1686	33
18	0	0	1941	1172	1680	32
19	0	0	1932	1174	1666	32
20	0	0	1932	1176	1656	33
21	0	0	1953	1172	1653	32
22	0	0	1988	1175	1657	31
23	0	0	2022	1175	1664	32
24	0	0	2054	1174	1673	32
25	0	0	2098	1176	1681	33
26	0	0	2145	1174	1685	33
27	0	0	2177	1175	1686	33
28	0	0	2195	1174	1680	31
29	0	0	2229	1176	1668	32
30	0	0	2280	1176	1656	32
31	0	0	2299	1173	1654	32
32	0	0	2288	1174	1659	34
33	0	0	2244	1171	1664	31
34	0	0	2170	1171	1674	33
35	0	0	2103	1171	1682	31
36	0	0	2055	1171	1685	31
37	0	0	2024	1172	1685	36
38	0	0	2000	1172	1680	32
39	0	0	1966	1171	1666	32
40	0	0	1932	1172	1655	32
41	0	0	1943	1173	1652	31
42	0	0	1970	1175	1657	34
43	0	0	2010	1175	1665	32
44	0	0	2060	1174	1673	33
45	0	0	2105	1175	1681	33
46	0	0	2154	1174	1686	33
47	0	0	2189	1177	1685	33
48	0	0	2213	1172	1680	32
49	0	0	2235	1175	1667	33
50	0	0	2275	1175	1656	33
51	0	0	2282	1174	1654	31
52	0	0	2247	1172	1659	36
53	0	0	2202	1171	1664	31
54	0	0	2123	1171	1674	32
55	0	0	2033	1171	1681	34
56	0	0	1971	1170	1685	31
57	0	0	1942	1173	1686	32
58	0	0	1932	1173	1680	32
59	0	0	1931	1174	1666	32
60	0	0	1933	1173	1656	32
61	0	0	1953	1175	1654	32
62	0	0	1986	1174	1658	34
63	0	0	2012	1174	1665	32
64	0	0	2034	1174	1673	33
65	0	0	2063	1174	1681	36
66	0	0	2093	1172	1685	32
67	0	0	2120	1175	1686	32
68	0	0	2145	1175	1680	32
69	0	0	2184	1174	1667	32
70	0	0	2230	1176	1657	33
71	0	0	2249	1173	1655	32
72	0	0	2247	1174	1659	33
73	0	0	2212	1171	1665	31
74	0	0	2141	1172	1674	33
75	0	0	2069	1171	1681	32
76	0	0	2017	1170	1685	31
77	0	0	1978	1173	1686	32
78	0	0	1943	1170	1680	32
79	0	0	1914	1172	1667	31
80	0	0	1901	1172	1655	33
81	0	0	1910	1174	1654	34
82	0	0	1929	1175	1657	35
83	0	0	1960	1174	1665	32
84	0	0	2026	1174	1674	33
85	0	0	2094	1175	1681	32
86	0	0	2144	1174	1685	32
87	0	0	2178	1175	1686	33
88	0	0	2207	1174	1681	32
89	0	0	2249	1173	1667	32
90	0	0	2305	1175	1656	36
91	0	0	2311	1174	1655	31
92	0	0	2272	1171	1658	34
93	0	0	2213	1170	1664	32
94	0	0	2140	1172	1674	31
95	0	0	2076	1171	1680	32
96	0	0	2014	1170	1686	33
97	0	0	1961	1170	1686	35
98	0	0	1923	1170	1680	34
99	0	0	1887	1171	1667	32
100	0	0	1872	1174	1656	32
101	0	0	1898	1175	1654	32
102	0	0	1945	1175	1658	32
103	0	0	1989	1174	1663	32
104	0	0	2038	1174	1673	33
105	0	0	2089	1173	1681	32
106	0	0	2139	1175	1686	32
107	0	0	2180	1175	1686	35
108	0	0	2205	1173	1681	33
109	0	0	2241	1174	1667	32
110	0	0	2286	1174	1656	33
111	0	0	2266	1170	1654	32
112	0	0	2216	1172	1658	33
113	0	0	2166	1171	1665	32
114	0	0	2103	1171	1673	33
115	0	0	2042	1171	1683	31
116	0	0	1990	1170	1686	33
117	0	0	1944	1173	1685	33
118	0	0	1910	1171	1680	33
119	0	0	1881	1171	1666	31
120	0	0	1864	1172	1657	32
121	0	0	1880	1174	1654	32
122	0	0	1925	1173	1657	32
123	0	0	1966	1173	1664	34
124	0	0	2004	1173	1673	33
125	0	0	2050	1173	1681	33
126	0	0	2088	1172	1686	35
127	0	0	2118	1174	1685	36
0	0	0	2128	1174	1680	32
1	0	0	2157	1174	1668	32
2	0	0	2201	1174	1657	32
3	0	0	2192	1171	1655	34
4	0	0	2156	1171	1658	33
5	0	0	2122	1171	1665	34
6	0	0	2067	1171	1674	33
7	0	0	2017	1171	1681	31
8	0	0	1983	1171	1686	37
9	0	0	1964	1171	1686	33
10	0	0	1951	1172	1680	32
11	0	0	1941	1172	1666	32
12	0	0	1948	1173	1655	32
13	0	0	1981	1173	1654	30
14	0	0	2036	1174	1657	32
15	0	0	2100	1174	1664	35
16	0	0	2173	1173	1673	32
17	0	0	2248	1172	1680	32
18	0	0	2315	1175	1685	36
19	0	0	2394	1175	1686	36
20	0	0	2463	1173	1680	34
21	0	0	2531	1174	1667	33
22	0	0	2595	1175	1656	33
23	0	0	2611	1174	1655	32
24	0	0	2599	1174	1658	36
25	0	0	2554	1171	1664	31
26	0	0	2496	1170	1674	33
27	0	0	2448	1170	1681	32
28	0	0	2413	1172	1685	36
29	0	0	2393	1174	1685	37
30	0	0	2386	1174	1680	33
31	0	0	2392	1173	1667	32
32	0	0	2388	1173	1655	33
33	0	0	2381	1174	1653	32
34	0	0	2389	1173	1657	33
35	0	0	2413	1173	1664	34
36	0	0	2436	1173	1673	33
37	0	0	2462	1173	1680	32
38	0	0	2492	1174	1685	36
39	0	0	2509	1175	1685	32
40	0	0	2499	1172	1681	32
41	0	0	2492	1175	1667	32
42	0	0	2492	1174	1656	31
43	0	0	2437	1170	1654	33
44	0	0	2355	1171	1658	32
45	0	0	2269	1170	1665	32
46	0	0	2155	1169	1673	33
47	0	0	2054	1170	1682	31
48	0	0	1975	1170	1686	33
49	0	0	1926	1169	1685	33
50	0	0	1900	1170	1680	32
51	0	0	1867	1170	1666	31
52	0	0	1827	1170	1655	34
53	0	0	1798	1170	1653	31
54	0	0	1786	1171	1657	32
55	0	0	1781	1174	1665	33
56	0	0	1803	1171	1673	32
57	0	0	1844	1172	1682	31
58	0	0	1887	1172	1685	37
59	0	0	1941	1173	1686	33
60	0	0	1989	1173	1680	33
61	0	0	2030	1173	1667	32
62	0	0	2075	1172	1656	31
63	0	0	2074	1172	1654	36
64	0	0	2055	1170	1658	35
65	0	0	2028	1170	1666	32
66	0	0	1974	1170	1674	33
67	0	0	1919	1170	1681	31
68	0	0	1883	1170	1686	33
69	0	0	1854	1168	1685	32
70	0	0	1837	1170	1680	32
71	0	0	1819	1170	1666	32
72	0	0	1803	1171	1655	34
73	0	0	1814	1172	1653	32
74	0	0	1834	1172	1657	32
75	0	0	1854	1174	1664	32
76	0	0	1877	1174	1673	33
77	0	0	1910	1174	1681	33
78	0	0	1951	1173	1685	36
79	0	0	1998	1173	1686	33
80	0	0	2041	1173	1680	33
81	0	0	2088	1175	1667	32
82	0	0	2122	1174	1657	31
83	0	0	2118	1175	1654	32
84	0	0	2109	1173	1658	33
85	0	0	2088	1171	1666	32
86	0	0	2029	1169	1673	32
87	0	0	1962	1168	1681	34
88	0	0	1908	1170	1686	32
89	0	0	1867	1170	1686	32
90	0	0	1840	1171	1680	33
91	0	0	1834	1172	1666	33
92	0	0	1845	1173	1656	33
93	0	0	1890	1175	1653	32
94	0	0	1922	1172	1658	32
95	0	0	1935	1173	1665	31
96	0	0	1961	1173	1673	33
97	0	0	2000	1174	1681	33
98	0	0	2044	1172	1685	33
99	0	0	2084	1173	1686	33
100	0	0	2115	1173	1680	32
101	0	0	2160	1173	1667	32
102	0	0	2208	1172	1656	32
103	0	0	2209	1175	1655	32
104	0	0	2192	1172	1658	32
105	0	0	2176	1171	1665	32
106	0	0	2120	1168	1675	33
107	0	0	2034	1169	1680	31
108	0	0	1964	1168	1684	35
109	0	0	1911	1169	1686	34
110	0	0	1874	1170	1679	32
111	0	0	1866	1171	1666	31
112	0	0	1874	1173	1655	32
113	0	0	1901	1173	1654	32
114	0	0	1935	1172	1657	32
115	0	0	1961	1173	1664	32
116	0	0	1995	1173	1673	32
117	0	0	2039	1173	1681	33
118	0	0	2089	1174	1685	33
119	0	0	2129	1173	1686	33
120	0	0	2160	1173	1680	32
121	0	0	2196	1173	1667	31
122	0	0	2226	1172	1656	31
123	0	0	2218	1170	1654	33
124	0	0	2176	1169	1657	33
125	0	0	2129	1170	1665	32
126	0	0	2070	1169	1674	32
127	0	0	2011	1169	1681	32
0	0	0	1963	1169	1685	32
1	0	0	1929	1168	1685	33
2	0	0	1907	1170	1679	32
3	0	0	1890	1170	1665	32
4	0	0	1885	1173	1655	33
5	0	0	1901	1173	1653	32
6	0	0	1919	1171	1657	36
7	0	0	1939	1172	1665	33
8	0	0	1980	1172	1673	32
9	0	0	2036	1174	1681	32
10	0	0	2092	1175	1685	32
11	0	0	2136	1171	1686	32
12	0	0	2182	1173	1680	32
13	0	0	2236	1171	1668	31
14	0	0	2293	1173	1656	32
15	0	0	2306	1173	1655	31
16	0	0	2264	1169	1658	33
17	0	0	2200	1169	1665	32
18	0	0	2114	1169	1673	33
19	0	0	2049	1170	1680	32
20	0	0	2023	1173	1685	32
21	0	0	2017	1171	1685	36
22	0	0	2011	1172	1679	31
23	0	0	2006	1170	1665	32
24	0	0	1992	1172	1655	33
25	0	0	1989	1172	1652	32
26	0	0	1995	1171	1657	34
27	0	0	1997	1172	1664	32
28	0	0	2006	1171	1673	33
29	0	0	2048	1174	1681	31
30	0	0	2105	1173	1686	33
31	0	0	2158	1173	1686	32
32	0	0	2188	1172	1680	31
33	0	0	2212	1171	1667	33
34	0	0	2240	1173	1656	32
35	0	0	2234	1167	1654	32
36	0	0	2199	1171	1658	33
37	0	0	2165	1169	1665	32
38	0	0	2118	1170	1672	32
39	0	0	2061	1170	1681	32
40	0	0	2014	1168	1685	33
41	0	0	1979	1169	1685	35
42	0	0	1955	1170	1679	31
43	0	0	1939	1170	1664	32
44	0	0	1929	1171	1655	32
45	0	0	1938	1173	1653	32
46	0	0	1968	1173	1657	32
47	0	0	2011	1172	1664	31
48	0	0	2059	1170	1673	33
49	0	0	2109	1173	1681	32
50	0	0	2161	1173	1685	32
51	0	0	2205	1173	1685	33
52	0	0	2233	1173	1680	32
53	0	0	2253	1174	1665	31
54	0	0	2281	1174	1656	32
55	0	0	2260	1168	1654	32
56	0	0	2226	1171	1658	33
57	0	0	2190	1169	1665	31
58	0	0	2133	1169	1672	32
59	0	0	2084	1169	1681	33
60	0	0	2045	1170	1686	33
61	0	0	2026	1171	1685	32
62	0	0	2019	1172	1679	34
63	0	0	2007	1169	1665	32
64	0	0	1973	1169	1654	32
65	0	0	1957	1173	1653	33
66	0	0	1976	1173	1657	33
67	0	0	2006	1172	1664	31
68	0	0	2035	1172	1673	33
69	0	0	2067	1173	1680	32
70	0	0	2117	1170	1685	34
71	0	0	2166	1173	1685	31
72	0	0	2205	1173	1680	33
73	0	0	2236	1173	1667	32
74	0	0	2273	1173	1655	33
75	0	0	2272	1173	1654	32
76	0	0	2240	1170	1657	32
77	0	0	2201	1169	1665	31
78	0	0	2139	1169	1673	33
79	0	0	2068	1169	1681	32
80	0	0	2017	1169	1685	36
81	0	0	1984	1171	1685	33
82	0	0	1965	1170	1679	31
83	0	0	1955	1171	1666	31
84	0	0	1949	1173	1655	32
85	0	0	1968	1170	1652	31
86	0	0	2017	1173	1656	33
87	0	0	2064	1172	1664	32
88	0	0	2101	1173	1672	31
89	0	0	2155	1173	1680	32
90	0	0	2215	1170	1685	33
91	0	0	2269	1172	1686	32
92	0	0	2306	1171	1680	31
93	0	0	2336	1173	1667	33
94	0	0	2356	1173	1656	32
95	0	0	2327	1168	1654	33
96	0	0	2268	1168	1658	32
97	0	0	2199	1169	1665	31
98	0	0	2119	1169	1673	32
99	0	0	2069	1167	1680	32
100	0	0	2056	1170	1685	35
101	0	0	2056	1172	1684	32
102	0	0	2054	1172	1679	31
103	0	0	2037	1170	1665	32
104	0	0	2027	1171	1654	33
105	0	0	2032	1169	1653	35
106	0	0	2062	1173	1656	33
107	0	0	2107	1172	1664	32
108	0	0	2162	1173	1672	32
109	0	0	2208	1172	1680	33
110	0	0	2243	1173	1684	34
111	0	0	2267	1174	1686	33
112	0	0	2306	1173	1680	32
113	0	0	2350	1173	1667	32
114	0	0	2400	1172	1656	34
115	0	0	2389	1169	1654	32
116	0	0	2329	1169	1657	33
117	0	0	2258	1169	1665	32
118	0	0	2176	1169	1674	33
119	0	0	2116	1169	1680	34
120	0	0	2087	1168	1685	33
121	0	0	2069	1169	1684	32
122	0	0	2042	1170	1679	33
123	0	0	2015	1170	1665	32
124	0	0	1997	1170	1655	33
125	0	0	2014	1172	1653	31
126	0	0	2062	1172	1656	32
127	0	0	2112	1172	1665	31
0	0	0	2167	1172	1673	33
1	0	0	2232	1173	1679	32
2	0	0	2290	1173	1685	31
3	0	0	2332	1171	1686	32
4	0	0	2353	1172	1680	32
5	0	0	2368	1173	1666	31
6	0	0	2391	1172	1656	32
7	0	0	2380	1170	1654	32
8	0	0	2333	1168	1658	33
9	0	0	2286	1168	1664	31
10	0	0	2229	1170	1673	33
11	0	0	2201	1171	1680	32
12	0	0	2184	1171	1684	36
13	0	0	2165	1169	1684	33
14	0	0	2148	1170	1679	32
15	0	0	2134	1171	1664	31
16	0	0	2126	1170	1655	33
17	0	0	2123	1172	1652	32
18	0	0	2121	1171	1657	32
19	0	0	2129	1172	1665	32
20	0	0	2165	1172	1673	33
21	0	0	2235	1172	1680	33
22	0	0	2304	1172	1685	33
23	0	0	2355	1171	1684	33
24	0	0	2389	1172	1679	32
25	0	0	2412	1174	1666	32
26	0	0	2444	1171	1655	33
27	0	0	2432	1171	1653	32
28	0	0	2386	1168	1658	33
29	0	0	2323	1168	1664	32
30	0	0	2248	1169	1673	33
31	0	0	2189	1168	1681	33
32	0	0	2141	1168	1685	33
33	0	0	2100	1167	1686	32
34	0	0	2066	1170	1679	32
35	0	0	2039	1168	1665	32
36	0	0	2034	1173	1655	31
37	0	0	2066	1174	1652	32
38	0	0	2115	1170	1656	33
39	0	0	2156	1169	1664	27
40	0	0	2189	1172	1673	32
41	0	0	2222	1173	1681	31
42	0	0	2267	1171	1685	33
43	0	0	2307	1171	1685	33
44	0	0	2327	1171	1679	32
45	0	0	2353	1172	1666	32
46	0	0	2397	1173	1655	32
47	0	0	2395	1172	1653	33
48	0	0	2359	1168	1657	33
49	0	0	2311	1168	1664	32
50	0	0	2232	1168	1673	34
51	0	0	2151	1167	1680	33
52	0	0	2091	1170	1684	32
53	0	0	2060	1168	1685	32
54	0	0	2041	1169	1679	32
55	0	0	2020	1169	1665	32
56	0	0	2012	1171	1655	32
57	0	0	2032	1173	1652	32
58	0	0	2074	1171	1656	33
59	0	0	2109	1172	1664	32
60	0	0	2145	1172	1673	33
61	0	0	2184	1172	1680	32
62	0	0	2217	1169	1685	33
63	0	0	2247	1167	1684	33
64	0	0	2283	1171	1679	34
65	0	0	2302	1172	1666	32
66	0	0	2320	1170	1656	33
67	0	0	2296	1169	1653	32
68	0	0	2253	1171	1658	32
69	0	0	2205	1168	1664	32
70	0	0	2137	1168	1673	33
71	0	0	2081	1168	1680	32
72	0	0	2037	1170	1684	32
73	0	0	1999	1167	1685	32
74	0	0	1971	1169	1678	33
75	0	0	1960	1170	1665	31
76	0	0	1957	1171	1654	31
77	0	0	1975	1171	1651	32
78	0	0	2006	1172	1656	33
79	0	0	2030	1171	1663	31
80	0	0	2067	1172	1673	31
81	0	0	2113	1172	1680	33
82	0	0	2167	1173	1684	32
83	0	0	2209	1171	1685	34
84	0	0	2239	1172	1679	32
85	0	0	2262	1172	1666	32
86	0	0	2283	1170	1655	33
87	0	0	2246	1170	1653	32
88	0	0	2190	1171	1657	33
89	0	0	2135	1168	1665	31
90	0	0	2074	1168	1673	33
91	0	0	2020	1168	1680	33
92	0	0	1974	1168	1684	33
93	0	0	1932	1167	1684	33
94	0	0	1899	1169	1678	32
95	0	0	1880	1168	1664	32
96	0	0	1875	1172	1654	32
97	0	0	1892	1173	1651	32
98	0	0	1919	1174	1656	31
99	0	0	1957	1171	1664	32
100	0	0	2004	1172	1673	33
101	0	0	2044	1174	1681	32
102	0	0	2095	1171	1683	36
103	0	0	2160	1173	1685	33
104	0	0	2204	1172	1679	33
105	0	0	2230	1172	1666	33
106	0	0	2251	1171	1655	32
107	0	0	2225	1171	1652	32
108	0	0	2177	1167	1657	33
109	0	0	2131	1168	1664	32
110	0	0	2067	1168	1673	31
111	0	0	2008	1168	1680	32
112	0	0	1968	1169	1684	31
113	0	0	1959	1174	1684	33
114	0	0	1956	1170	1678	33
115	0	0	1926	1168	1664	31
116	0	0	1902	1172	1653	32
117	0	0	1917	1171	1652	31
118	0	0	1955	1172	1656	32
119	0	0	1994	1172	1663	33
120	0	0	2044	1171	1672	32
121	0	0	2099	1172	1680	32
122	0	0	2146	1172	1684	31
123	0	0	2189	1175	1685	32
124	0	0	2214	1171	1679	33
125	0	0	2239	1172	1665	33
126	0	0	2260	1175	1654	32
127	0	0	2226	1169	1653	31
0	0	0	2172	1167	1657	33
1	0	0	2105	1168	1665	31
2	0	0	2018	1170	1673	32
3	0	0	1947	1168	1680	32
4	0	0	1906	1168	1684	33
5	0	0	1891	1170	1684	33
6	0	0	1891	1171	1678	36
7	0	0	1878	1167	1665	31
8	0	0	1853	1169	1654	32
9	0	0	1862	1171	1651	33
10	0	0	1898	1171	1656	32
11	0	0	1940	1171	1663	34
12	0	0	1987	1169	1672	32
13	0	0	2033	1173	1680	34
14	0	0	2076	1171	1684	33
15	0	0	2108	1172	1685	32
16	0	0	2138	1172	1679	33
17	0	0	2169	1174	1665	31
18	0	0	2189	1172	1655	32
19	0	0	2186	1172	1653	35
20	0	0	2181	1174	1657	32
21	0	0	2165	1169	1662	33
22	0	0	2120	1168	1673	32
23	0	0	2072	1170	1680	31
24	0	0	2009	1168	1683	36
25	0	0	1951	1168	1684	33
26	0	0	1916	1168	1678	33
27	0	0	1903	1170	1664	32
28	0	0	1907	1172	1654	34
29	0	0	1932	1172	1652	31
30	0	0	1958	1173	1656	32
31	0	0	1967	1170	1663	33
32	0	0	1983	1171	1672	33
33	0	0	2026	1173	1679	33
34	0	0	2077	1170	1685	31
35	0	0	2104	1170	1684	34
36	0	0	2109	1171	1679	34
37	0	0	2129	1171	1665	32
38	0	0	2165	1174	1654	32
39	0	0	2161	1170	1654	31
40	0	0	2128	1171	1657	32
41	0	0	2089	1169	1664	31
42	0	0	2032	1168	1672	33
43	0	0	1982	1171	1679	33
44	0	0	1950	1169	1684	31
45	0	0	1931	1169	1683	33
46	0	0	1919	1163	1678	33
47	0	0	1899	1168	1664	32
48	0	0	1876	1171	1652	32
49	0	0	1884	1172	1652	31
50	0	0	1920	1171	1656	32
51	0	0	1976	1172	1664	32
52	0	0	2048	1171	1672	33
53	0	0	2105	1173	1679	33
54	0	0	2152	1171	1684	31
55	0	0	2180	1175	1685	33
56	0	0	2189	1172	1679	33
57	0	0	2199	1173	1666	33
58	0	0	2222	1172	1655	34
59	0	0	2206	1169	1653	33
60	0	0	2165	1168	1657	33
61	0	0	2137	1169	1664	32
62	0	0	2095	1168	1671	32
63	0	0	2039	1168	1679	33
64	0	0	1990	1170	1684	33
65	0	0	1946	1168	1684	33
66	0	0	1924	1171	1679	34
67	0	0	1918	1171	1663	34
68	0	0	1919	1171	1654	32
69	0	0	1940	1172	1651	33
70	0	0	1985	1172	1655	33
71	0	0	2026	1171	1663	33
72	0	0	2060	1171	1672	33
73	0	0	2086	1171	1680	31
74	0	0	2108	1173	1685	32
75	0	0	2131	1172	1684	33
76	0	0	2160	1171	1678	33
77	0	0	2197	1172	1665	31
78	0	0	2245	1171	1656	33
79	0	0	2259	1172	1653	33
80	0	0	2241	1170	1657	33
81	0	0	2196	1168	1664	32
82	0	0	2114	1168	1672	32
83	0	0	2039	1167	1679	33
84	0	0	1987	1169	1684	32
85	0	0	1946	1168	1683	33
86	0	0	1928	1170	1678	33
87	0	0	1920	1170	1664	32
88	0	0	1922	1170	1653	32
89	0	0	1950	1171	1652	32
90	0	0	1992	1171	1655	32
91	0	0	2021	1171	1663	33
92	0	0	2048	1171	1672	33
93	0	0	2069	1171	1679	31
94	0	0	2096	1173	1683	33
95	0	0	2126	1172	1684	33
96	0	0	2155	1172	1678	33
97	0	0	2185	1173	1664	32
98	0	0	2223	1170	1654	33
99	0	0	2216	1171	1653	32
100	0	0	2198	1171	1656	32
101	0	0	2164	1168	1663	32
102	0	0	2097	1169	1673	31
103	0	0	2034	1166	1679	32
104	0	0	1984	1169	1683	21
105	0	0	1961	1171	1683	32
106	0	0	1958	1171	1677	33
107	0	0	1943	1170	1665	31
108	0	0	1925	1169	1653	32
109	0	0	1928	1173	1652	32
110	0	0	1962	1172	1655	32
111	0	0	2014	1172	1663	33
112	0	0	2066	1172	1670	32
113	0	0	2111	1170	1679	33
114	0	0	2150	1172	1683	33
115	0	0	2192	1171	1684	33
116	0	0	2230	1171	1679	33
117	0	0	2269	1170	1665	32
118	0	0	2317	1172	1655	33
119	0	0	2314	1170	1651	32
120	0	0	2258	1170	1657	32
121	0	0	2194	1168	1664	32
122	0	0	2107	1167	1673	33
123	0	0	2026	1168	1680	33
124	0	0	1964	1169	1682	33
125	0	0	1916	1167	1683	31
126	0	0	1888	1169	1678	33
127	0	0	1872	1167	1663	33
0	0	0	1866	1169	1653	32
1	0	0	1891	1171	1652	33
2	0	0	1940	1172	1655	32
3	0	0	1997	1170	1663	34
4	0	0	2050	1172	1672	33
5	0	0	2099	1172	1679	31
6	0	0	2130	1171	1682	33
7	0	0	2164	1172	1683	32
8	0	0	2205	1170	1678	33
9	0	0	2246	1173	1665	31
10	0	0	2262	1172	1654	31
11	0	0	2223	1169	1652	33
12	0	0	2172	1169	1656	33
13	0	0	2127	1168	1663	34
14	0	0	2079	1168	1672	32
15	0	0	2042	1168	1681	33
16	0	0	2018	1169	1682	33
17	0	0	2006	1170	1683	33
18	0	0	1987	1169	1677	33
19	0	0	1968	1169	1664	34
20	0	0	1963	1170	1652	32
21	0	0	1994	1171	1650	31
22	0	0	2041	1171	1654	33
23	0	0	2072	1171	1662	33
24	0	0	2106	1172	1671	33
25	0	0	2146	1171	1679	34
26	0	0	2177	1172	1684	32
27	0	0	2200	1171	1684	33
28	0	0	2222	1172	1678	33
29	0	0	2251	1172	1665	32
30	0	0	2295	1172	1655	31
31	0	0	2304	1172	1651	33
32	0	0	2268	1167	1656	33
33	0	0	2202	1167	1663	34
34	0	0	2132	1168	1673	33
35	0	0	2088	1168	1680	33
36	0	0	2056	1169	1684	33
37	0	0	2014	1167	1683	32
38	0	0	1979	1169	1678	34
39	0	0	1957	1168	1663	34
40	0	0	1952	1170	1652	32
41	0	0	1969	1172	1652	33
42	0	0	2000	1169	1655	33
43	0	0	2032	1170	1662	33
44	0	0	2081	1172	1672	33
45	0	0	2126	1171	1680	32
46	0	0	2164	1172	1684	33
47	0	0	2208	1171	1683	33
48	0	0	2234	1172	1678	33
49	0	0	2256	1172	1665	31
50	0	0	2279	1173	1654	32
51	0	0	2266	1170	1652	32
52	0	0	2226	1170	1657	33
53	0	0	2175	1168	1663	33
54	0	0	2108	1168	1672	31
55	0	0	2055	1169	1679	31
56	0	0	2014	1168	1683	32
57	0	0	1971	1167	1683	33
58	0	0	1938	1169	1678	33
59	0	0	1912	1169	1663	34
60	0	0	1902	1170	1653	33
61	0	0	1926	1172	1652	33
62	0	0	1967	1171	1655	32
63	0	0	2010	1172	1662	32
64	0	0	2057	1172	1671	32
65	0	0	2097	1172	1680	31
66	0	0	2126	1172	1685	34
67	0	0	2156	1170	1683	32
68	0	0	2191	1172	1678	33
69	0	0	2239	1172	1664	31
70	0	0	2301	1172	1654	31
71	0	0	2307	1172	1652	32
72	0	0	2274	1171	1656	32
73	0	0	2239	1168	1663	34
74	0	0	2186	1171	1671	32
75	0	0	2136	1170	1679	32
76	0	0	2091	1168	1684	34
77	0	0	2034	1168	1683	33
78	0	0	1993	1169	1676	33
79	0	0	1966	1170	1663	33
80	0	0	1948	1170	1654	32
81	0	0	1961	1172	1652	33
82	0	0	1983	1169	1655	32
83	0	0	2002	1172	1662	34
84	0	0	2028	1172	1671	33
85	0	0	2069	1171	1679	31
86	0	0	2120	1172	1684	34
87	0	0	2174	1172	1683	34
88	0	0	2212	1173	1678	33
89	0	0	2241	1172	1664	32
90	0	0	2276	1173	1654	31
91	0	0	2273	1172	1653	33
92	0	0	2241	1168	1655	32
93	0	0	2192	1169	1664	31
94	0	0	2120	1169	1671	32
95	0	0	2059	1168	1679	33
96	0	0	1994	1168	1684	33
97	0	0	1943	1168	1683	32
98	0	0	1921	1170	1677	33
99	0	0	1911	1173	1662	33
100	0	0	1921	1172	1652	32
101	0	0	1951	1172	1653	34
102	0	0	1989	1170	1657	32
103	0	0	2040	1172	1662	33
104	0	0	2086	1171	1671	33
105	0	0	2136	1174	1677	32
106	0	0	2188	1172	1683	33
107	0	0	2220	1172	1684	32
108	0	0	2235	1171	1677	33
109	0	0	2244	1172	1664	31
110	0	0	2261	1173	1653	32
111	0	0	2239	1170	1653	33
112	0	0	2198	1170	1657	32
113	0	0	2152	1168	1663	34
114	0	0	2086	1169	1671	33
115	0	0	2039	1171	1677	32
116	0	0	2025	1172	1683	33
117	0	0	2021	1172	1683	33
118	0	0	2019	1172	1676	33
119	0	0	1999	1168	1663	32
120	0	0	1983	1173	1651	32
121	0	0	1996	1172	1652	33
122	0	0	2019	1172	1655	34
123	0	0	2029	1170	1663	33
124	0	0	2051	1172	1671	33
125	0	0	2090	1173	1678	32
126	0	0	2140	1173	1683	35
127	0	0	2192	1173	1684	33
0	0	0	2224	1172	1678	33
1	0	0	2243	1173	1665	32
2	0	0	2269	1173	1654	36
3	0	0	2263	1172	1653	33
4	0	0	2240	1171	1656	33
5	0	0	2201	1169	1663	36
6	0	0	2133	1170	1671	32
7	0	0	2057	1169	1679	33
8	0	0	1981	1168	1684	33
9	0	0	1924	1169	1683	32
10	0	0	1893	1170	1677	33
11	0	0	1888	1170	1663	32
12	0	0	1900	1171	1653	31
13	0	0	1937	1172	1651	33
14	0	0	1982	1172	1655	33
15	0	0	2022	1172	1662	32
16	0	0	2070	1172	1671	33
17	0	0	2121	1173	1679	32
18	0	0	2154	1173	1683	32
19	0	0	2168	1172	1684	32
20	0	0	2182	1173	1679	33
21	0	0	2200	1174	1665	33
22	0	0	2226	1173	1654	32
23	0	0	2219	1173	1652	32
24	0	0	2204	1173	1656	33
25	0	0	2187	1168	1663	35
26	0	0	2138	1171	1671	32
27	0	0	2081	1169	1678	34
28	0	0	2026	1169	1683	34
29	0	0	1978	1169	1683	32
30	0	0	1941	1169	1677	33
31	0	0	1911	1169	1663	33
32	0	0	1891	1171	1653	31
33	0	0	1899	1172	1652	33
34	0	0	1940	1172	1655	33
35	0	0	2003	1172	1663	34
36	0	0	2073	1172	1672	33
37	0	0	2139	1173	1679	30
38	0	0	2189	1173	1683	34
39	0	0	2216	1173	1683	33
40	0	0	2230	1173	1678	34
41	0	0	2266	1172	1664	32
42	0	0	2313	1174	1654	31
43	0	0	2317	1173	1653	33
44	0	0	2280	1170	1655	33
45	0	0	2230	1169	1663	34
46	0	0	2144	1169	1671	32
47	0	0	2059	1169	1679	33
48	0	0	1997	1169	1683	32
49	0	0	1949	1169	1683	33
50	0	0	1930	1171	1677	33
51	0	0	1925	1171	1663	34
52	0	0	1921	1172	1653	33
53	0	0	1940	1172	1651	32
54	0	0	1979	1172	1654	33
55	0	0	2017	1173	1663	34
56	0	0	2066	1171	1671	33
57	0	0	2115	1174	1679	34
58	0	0	2163	1173	1684	31
59	0	0	2208	1173	1683	33
60	0	0	2245	1173	1678	33
61	0	0	2265	1173	1665	32
62	0	0	2292	1173	1655	34
63	0	0	2301	1174	1653	34
64	0	0	2274	1170	1656	33
65	0	0	2221	1169	1663	33
66	0	0	2150	1168	1672	32
67	0	0	2087	1170	1679	32
68	0	0	2039	1170	1681	32
69	0	0	2007	1170	1683	31
70	0	0	1988	1171	1679	33
71	0	0	1964	1167	1662	33
72	0	0	1934	1173	1652	32
73	0	0	1937	1173	1651	31
74	0	0	1950	1173	1655	32
75	0	0	1968	1172	1662	33
76	0	0	2009	1172	1671	33
77	0	0	2079	1172	1679	34
78	0	0	2150	1175	1682	30
79	0	0	2201	1171	1682	32
80	0	0	2230	1175	1677	33
81	0	0	2273	1174	1663	33
82	0	0	2314	1174	1654	33
83	0	0	2304	1171	1652	31
84	0	0	2260	1171	1656	32
85	0	0	2203	1170	1662	33
86	0	0	2144	1170	1671	32
87	0	0	2084	1170	1679	34
88	0	0	2030	1169	1683	33
89	0	0	1990	1170	1681	33
90	0	0	1962	1172	1677	32
91	0	0	1946	1170	1663	34
92	0	0	1939	1173	1653	32
93	0	0	1961	1172	1651	30
94	0	0	1997	1172	1654	33
95	0	0	2028	1173	1661	35
96	0	0	2052	1173	1671	33
97	0	0	2079	1173	1679	33
98	0	0	2121	1172	1684	32
99	0	0	2172	1174	1684	33
100	0	0	2219	1173	1677	33
101	0	0	2280	1175	1664	32
102	0	0	2339	1174	1654	33
103	0	0	2325	1170	1652	30
104	0	0	2264	1170	1655	33
105	0	0	2191	1170	1663	33
106	0	0	2102	1169	1671	33
107	0	0	2018	1171	1678	32
108	0	0	1978	1171	1681	32
109	0	0	1969	1174	1682	32
110	0	0	1973	1173	1676	33
111	0	0	1960	1170	1662	35
112	0	0	1934	1171	1651	32
113	0	0	1945	1173	1650	32
114	0	0	1973	1173	1653	32
115	0	0	2011	1174	1662	33
116	0	0	2054	1172	1670	31
117	0	0	2105	1173	1679	34
118	0	0	2150	1173	1684	33
119	0	0	2176	1174	1683	33
120	0	0	2202	1175	1678	32
121	0	0	2243	1175	1664	32
122	0	0	2290	1173	1654	33
123	0	0	2280	1171	1652	31
124	0	0	2242	1171	1655	33
125	0	0	2200	1170	1661	32
126	0	0	2152	1172	1670	32
127	0	0	2105	1169	1678	32
0	0	0	2063	1171	1682	32
1	0	0	2012	1167	1682	32
2	0	0	1978	1171	1676	33
3	0	0	1960	1173	1662	33
4	0	0	1947	1172	1653	32
5	0	0	1949	1173	1651	30
6	0	0	1956	1174	1655	33
7	0	0	1974	1173	1662	32
8	0	0	2007	1173	1671	33
9	0	0	2055	1174	1678	34
10	0	0	2126	1174	1684	32
11	0	0	2191	1174	1682	33
12	0	0	2232	1174	1677	33
13	0	0	2264	1174	1663	33
14	0	0	2285	1175	1653	32
15	0	0	2274	1172	1652	31
16	0	0	2225	1172	1655	33
17	0	0	2172	1167	1662	33
18	0	0	2111	1170	1671	32
19	0	0	2066	1171	1679	33
20	0	0	2031	1171	1683	34
21	0	0	1997	1171	1683	32
22	0	0	1970	1172	1676	33
23	0	0	1955	1171	1662	33
24	0	0	1939	1172	1653	32
25	0	0	1940	1174	1651	32
26	0	0	1958	1174	1655	32
27	0	0	1986	1173	1662	34
28	0	0	2030	1174	1671	31
29	0	0	2087	1173	1679	34
30	0	0	2145	1174	1684	32
31	0	0	2197	1174	1683	32
32	0	0	2236	1174	1678	33
33	0	0	2268	1175	1662	33
34	0	0	2301	1174	1654	33
35	0	0	2302	1175	1652	31
36	0	0	2267	1172	1656	33
37	0	0	2215	1170	1663	36
38	0	0	2134	1171	1671	32
39	0	0	2066	1171	1679	37
40	0	0	2025	1172	1683	31
41	0	0	2006	1173	1683	33
42	0	0	2003	1174	1677	32
43	0	0	1990	1171	1662	33
44	0	0	1976	1173	1653	33
45	0	0	1986	1175	1652	32
46	0	0	2015	1174	1657	32
47	0	0	2044	1174	1662	33
48	0	0	2073	1175	1671	32
49	0	0	2093	1172	1680	32
50	0	0	2116	1174	1684	34
51	0	0	2158	1173	1683	32
52	0	0	2203	1175	1677	33
53	0	0	2246	1175	1663	33
54	0	0	2276	1174	1653	32
55	0	0	2242	1171	1652	33
56	0	0	2173	1173	1657	33
57	0	0	2114	1167	1662	33
58	0	0	2051	1170	1671	33
59	0	0	2012	1172	1680	32
60	0	0	1989	1172	1684	34
61	0	0	1973	1172	1683	35
62	0	0	1960	1173	1677	33
63	0	0	1949	1174	1662	33
64	0	0	1957	1173	1652	32
65	0	0	1979	1174	1652	31
66	0	0	1999	1175	1656	32
67	0	0	2019	1173	1662	35
68	0	0	2052	1174	1671	33
69	0	0	2104	1173	1680	32
70	0	0	2162	1175	1684	34
71	0	0	2215	1174	1683	35
72	0	0	2258	1175	1678	33
73	0	0	2294	1175	1664	31
74	0	0	2314	1175	1654	32
75	0	0	2286	1172	1652	31
76	0	0	2234	1172	1657	33
77	0	0	2177	1172	1663	32
78	0	0	2109	1172	1671	31
79	0	0	2057	1172	1679	33
80	0	0	2030	1172	1683	32
81	0	0	2007	1173	1684	32
82	0	0	1985	1172	1676	33
83	0	0	1961	1172	1662	34
84	0	0	1949	1174	1652	32
85	0	0	1951	1174	1651	31
86	0	0	1963	1176	1655	32
87	0	0	1993	1175	1662	34
88	0	0	2036	1173	1671	33
89	0	0	2066	1175	1679	34
90	0	0	2095	1175	1683	31
91	0	0	2141	1175	1684	32
92	0	0	2189	1175	1678	34
93	0	0	2237	1176	1663	34
94	0	0	2287	1176	1654	34
95	0	0	2275	1174	1652	31
96	0	0	2231	1172	1656	33
97	0	0	2174	1172	1662	33
98	0	0	2078	1171	1671	32
99	0	0	1992	1171	1678	33
100	0	0	1941	1172	1682	33
101	0	0	1919	1173	1683	31
102	0	0	1923	1176	1677	33
103	0	0	1934	1176	1662	33
104	0	0	1932	1175	1652	32
105	0	0	1951	1175	1651	31
106	0	0	1973	1176	1656	32
107	0	0	1994	1175	1662	34
108	0	0	2016	1175	1670	31
109	0	0	2060	1174	1680	32
110	0	0	2121	1175	1683	31
111	0	0	2184	1176	1682	34
112	0	0	2235	1175	1677	33
113	0	0	2286	1176	1663	33
114	0	0	2331	1175	1654	34
115	0	0	2318	1173	1652	31
116	0	0	2267	1172	1656	33
117	0	0	2196	1172	1662	33
118	0	0	2096	1171	1672	32
119	0	0	2005	1172	1679	34
120	0	0	1949	1172	1683	32
121	0	0	1916	1173	1681	33
122	0	0	1909	1177	1677	31
123	0	0	1910	1176	1662	34
124	0	0	1911	1174	1653	31
125	0	0	1935	1176	1651	33
126	0	0	1974	1176	1654	33
127	0	0	2030	1175	1661	33
0	0	0	2084	1175	1671	33
1	0	0	2137	1175	1679	35
2	0	0	2180	1175	1683	34
3	0	0	2207	1176	1682	33
4	0	0	2223	1176	1677	34
5	0	0	2263	1175	1663	33
6	0	0	2305	1175	1653	31
7	0	0	2288	1173	1652	32
8	0	0	2245	1174	1653	32
9	0	0	2199	1171	1662	33
10	0	0	2129	1172	1671	32
11	0	0	2075	1173	1679	35
12	0	0	2043	1173	1682	32
13	0	0	2020	1174	1681	33
14	0	0	2011	1175	1676	33
15	0	0	1985	1173	1661	33
16	0	0	1945	1173	1652	32
17	0	0	1939	1176	1650	32
18	0	0	1964	1176	1653	32
19	0	0	1994	1176	1662	34
20	0	0	2030	1176	1671	32
21	0	0	2072	1176	1678	33
22	0	0	2117	1177	1682	33
23	0	0	2158	1178	1681	32
24	0	0	2192	1176	1677	33
25	0	0	2229	1177	1663	34
26	0	0	2262	1177	1653	32
27	0	0	2247	1175	1652	32
28	0	0	2210	1174	1655	32
29	0	0	2175	1173	1663	31
30	0	0	2120	1171	1670	31
31	0	0	2074	1173	1679	33
32	0	0	2030	1173	1683	32
33	0	0	1996	1173	1682	31
34	0	0	1964	1173	1676	33
35	0	0	1924	1172	1662	34
36	0	0	1881	1173	1651	32
37	0	0	1885	1176	1651	32
38	0	0	1924	1177	1650	31
39	0	0	1975	1176	1662	33
40	0	0	2026	1176	1669	32
41	0	0	2065	1177	1677	32
42	0	0	2110	1177	1683	32
43	0	0	2161	1176	1681	33
44	0	0	2193	1177	1677	34
45	0	0	2218	1175	1663	35
46	0	0	2236	1177	1654	31
47	0	0	2198	1173	1652	32
48	0	0	2136	1174	1655	32
49	0	0	2085	1172	1662	33
50	0	0	2035	1173	1671	31
51	0	0	1998	1174	1677	32
52	0	0	1974	1175	1683	32
53	0	0	1951	1174	1682	31
54	0	0	1931	1174	1676	32
55	0	0	1918	1174	1661	33
56	0	0	1925	1177	1652	32
57	0	0	1958	1177	1651	32
58	0	0	2000	1176	1654	32
59	0	0	2037	1176	1662	33
60	0	0	2074	1176	1670	31
61	0	0	2113	1177	1678	33
62	0	0	2159	1174	1682	32
63	0	0	2196	1176	1681	33
64	0	0	2217	1178	1677	33
65	0	0	2249	1180	1663	32
66	0	0	2280	1177	1652	33
67	0	0	2266	1175	1651	34
68	0	0	2229	1173	1654	31
69	0	0	2172	1173	1662	34
70	0	0	2082	1173	1671	33
71	0	0	2005	1173	1678	32
72	0	0	1960	1175	1682	32
73	0	0	1935	1174	1682	32
74	0	0	1925	1177	1676	32
75	0	0	1923	1177	1661	31
76	0	0	1925	1177	1652	32
77	0	0	1943	1178	1649	32
78	0	0	1964	1176	1653	31
79	0	0	1986	1178	1661	33
80	0	0	2020	1177	1671	32
81	0	0	2063	1177	1678	32
82	0	0	2116	1177	1682	34
83	0	0	2181	1178	1682	33
84	0	0	2224	1178	1677	33
85	0	0	2260	1177	1664	32
86	0	0	2281	1178	1652	32
87	0	0	2257	1175	1652	32
88	0	0	2217	1175	1654	31
89	0	0	2179	1174	1662	33
90	0	0	2121	1173	1670	33
91	0	0	2070	1174	1678	33
92	0	0	2040	1174	1683	36
93	0	0	2009	1174	1682	32
94	0	0	1978	1175	1676	32
95	0	0	1964	1176	1661	31
96	0	0	1968	1176	1650	32
97	0	0	2004	1177	1650	32
98	0	0	2055	1177	1654	32
99	0	0	2090	1177	1661	33
100	0	0	2121	1177	1670	33
101	0	0	2155	1180	1678	34
102	0	0	2185	1178	1683	31
103	0	0	2209	1178	1683	31
104	0	0	2227	1178	1677	33
105	0	0	2244	1177	1662	33
106	0	0	2270	1179	1653	32
107	0	0	2247	1176	1651	32
108	0	0	2208	1175	1655	32
109	0	0	2160	1175	1662	33
110	0	0	2083	1171	1670	32
111	0	0	2017	1176	1679	34
112	0	0	1971	1175	1682	31
113	0	0	1941	1176	1682	31
114	0	0	1926	1176	1676	32
115	0	0	1922	1176	1662	32
116	0	0	1931	1178	1652	32
117	0	0	1961	1177	1650	34
118	0	0	1999	1180	1654	32
119	0	0	2034	1178	1660	33
120	0	0	2064	1177	1670	32
121	0	0	2106	1178	1678	32
122	0	0	2150	1177	1682	31
123	0	0	2182	1177	1683	31
124	0	0	2209	1178	1676	32
125	0	0	2245	1179	1663	33
126	0	0	2292	1180	1654	32
127	0	0	2293	1179	1651	31
0	0	0	2255	1177	1654	31
1	0	0	2210	1175	1662	32
2	0	0	2133	1173	1671	32
3	0	0	2059	1175	1679	32
4	0	0	2002	1174	1682	31
5	0	0	1960	1175	1682	31
6	0	0	1947	1179	1675	33
7	0	0	1939	1177	1662	33
8	0	0	1943	1179	1653	32
9	0	0	1955	1178	1650	31
10	0	0	1955	1177	1654	32
11	0	0	1942	1177	1660	32
12	0	0	1944	1178	1670	32
13	0	0	1984	1180	1679	32
14	0	0	2039	1178	1682	35
15	0	0	2100	1181	1683	32
16	0	0	2149	1179	1677	33
17	0	0	2207	1179	1663	33
18	0	0	2266	1179	1653	31
19	0	0	2269	1181	1652	32
20	0	0	2232	1177	1655	32
21	0	0	2181	1175	1662	33
22	0	0	2111	1175	1671	32
23	0	0	2042	1176	1678	32
24	0	0	1986	1175	1682	32
25	0	0	1932	1175	1682	32
26	0	0	1880	1175	1676	33
27	0	0	1857	1177	1662	32
28	0	0	1867	1178	1651	32
29	0	0	1898	1179	1651	35
30	0	0	1933	1178	1654	33
31	0	0	1967	1179	1661	33
32	0	0	2000	1179	1671	33
33	0	0	2028	1179	1678	37
34	0	0	2055	1179	1683	33
35	0	0	2077	1180	1682	33
36	0	0	2105	1180	1677	33
37	0	0	2143	1179	1662	33
38	0	0	2189	1179	1653	32
39	0	0	2190	1179	1652	31
40	0	0	2160	1177	1655	32
41	0	0	2121	1176	1662	33
42	0	0	2057	1175	1669	34
43	0	0	2006	1177	1678	33
44	0	0	1982	1176	1682	31
45	0	0	1975	1175	1681	32
46	0	0	1967	1178	1675	33
47	0	0	1944	1176	1662	32
48	0	0	1915	1176	1651	31
49	0	0	1914	1179	1650	33
50	0	0	1925	1178	1653	33
51	0	0	1942	1179	1661	33
52	0	0	1966	1178	1672	31
53	0	0	2006	1180	1679	32
54	0	0	2053	1179	1682	31
55	0	0	2087	1178	1681	32
56	0	0	2110	1179	1677	33
57	0	0	2153	1180	1663	34
58	0	0	2207	1179	1653	32
59	0	0	2198	1176	1651	33
60	0	0	2147	1177	1655	33
61	0	0	2088	1176	1661	32
62	0	0	2029	1176	1670	32
63	0	0	1977	1177	1679	34
64	0	0	1944	1177	1682	33
65	0	0	1911	1176	1680	32
66	0	0	1898	1178	1675	33
67	0	0	1893	1178	1662	35
68	0	0	1891	1179	1650	31
69	0	0	1902	1179	1650	29
70	0	0	1915	1179	1652	32
71	0	0	1930	1180	1660	33
72	0	0	1959	1180	1670	31
73	0	0	2003	1179	1678	33
74	0	0	2046	1180	1682	33
75	0	0	2086	1180	1681	32
76	0	0	2118	1180	1676	33
77	0	0	2146	1181	1662	33
78	0	0	2177	1180	1653	33
79	0	0	2149	1177	1651	32
80	0	0	2097	1177	1653	32
81	0	0	2043	1175	1661	33
82	0	0	1977	1176	1671	31
83	0	0	1926	1176	1677	31
84	0	0	1887	1176	1682	32
85	0	0	1860	1177	1682	32
86	0	0	1854	1180	1676	32
87	0	0	1861	1180	1661	34
88	0	0	1872	1179	1652	32
89	0	0	1905	1180	1650	34
90	0	0	1961	1180	1652	32
91	0	0	2022	1180	1661	33
92	0	0	2091	1180	1669	31
93	0	0	2169	1180	1678	34
94	0	0	2244	1180	1682	32
95	0	0	2312	1180	1683	32
96	0	0	2382	1180	1676	33
97	0	0	2463	1179	1662	36
98	0	0	2547	1178	1652	32
99	0	0	2571	1181	1651	32
100	0	0	2568	1178	1655	31
101	0	0	2542	1178	1662	33
102	0	0	2481	1178	1670	32
103	0	0	2433	1175	1678	33
104	0	0	2413	1180	1682	32
105	0	0	2397	1180	1680	31
106	0	0	2380	1181	1676	33
107	0	0	2352	1177	1661	35
108	0	0	2325	1178	1650	31
109	0	0	2319	1182	1650	31
110	0	0	2330	1180	1652	32
111	0	0	2336	1180	1661	33
112	0	0	2340	1181	1670	34
113	0	0	2354	1181	1678	36
114	0	0	2379	1181	1682	34
115	0	0	2401	1181	1680	31
116	0	0	2408	1181	1676	33
117	0	0	2422	1181	1662	33
118	0	0	2437	1178	1652	32
119	0	0	2404	1178	1651	32
120	0	0	2329	1177	1654	32
121	0	0	2232	1178	1662	34
122	0	0	2107	1176	1671	31
123	0	0	1981	1177	1677	34
124	0	0	1874	1177	1682	32
125	0	0	1786	1176	1680	32
126	0	0	1708	1175	1675	33
127	0	0	1654	1177	1661	33
0	0	0	1614	1177	1650	31
1	0	0	1610	1182	1650	32
2	0	0	1663	1181	1653	32
3	0	0	1737	1181	1661	33
4	0	0	1802	1181	1670	32
5	0	0	1853	1179	1678	33
6	0	0	1897	1181	1682	31
7	0	0	1919	1181	1682	32
8	0	0	1917	1181	1676	33
9	0	0	1926	1182	1662	32
10	0	0	1962	1181	1652	31
11	0	0	1969	1182	1651	34
12	0	0	1954	1178	1655	34
13	0	0	1920	1178	1661	34
14	0	0	1867	1178	1670	31
15	0	0	1824	1177	1678	32
16	0	0	1776	1180	1682	32
17	0	0	1737	1179	1681	32
18	0	0	1705	1178	1675	33
19	0	0	1682	1178	1662	32
20	0	0	1679	1181	1651	32
21	0	0	1695	1181	1650	32
22	0	0	1735	1181	1654	33
23	0	0	1786	1182	1661	33
24	0	0	1843	1181	1669	36
25	0	0	1902	1180	1678	34
26	0	0	1961	1182	1682	32
27	0	0	1998	1182	1682	32
28	0	0	2015	1182	1676	34
29	0	0	2037	1182	1663	32
30	0	0	2055	1181	1652	32
31	0	0	2030	1180	1651	32
32	0	0	2008	1179	1654	33
33	0	0	1973	1178	1661	33
34	0	0	1922	1178	1670	32
35	0	0	1872	1179	1678	33
36	0	0	1838	1179	1681	33
37	0	0	1817	1179	1682	32
38	0	0	1803	1180	1675	35
39	0	0	1797	1181	1660	35
40	0	0	1807	1181	1652	31
41	0	0	1834	1182	1649	32
42	0	0	1857	1181	1653	34
43	0	0	1878	1180	1660	33
44	0	0	1922	1181	1669	32
45	0	0	1971	1179	1678	34
46	0	0	2025	1181	1682	31
47	0	0	2058	1184	1681	31
48	0	0	2081	1181	1676	33
49	0	0	2111	1181	1662	33
50	0	0	2157	1181	1652	32
51	0	0	2168	1182	1651	31
52	0	0	2140	1179	1654	32
53	0	0	2099	1178	1662	33
54	0	0	2035	1179	1669	32
55	0	0	1966	1177	1678	34
56	0	0	1914	1179	1682	32
57	0	0	1868	1178	1682	34
58	0	0	1827	1178	1676	33
59	0	0	1814	1180	1662	32
60	0	0	1823	1182	1651	32
61	0	0	1859	1181	1650	34
62	0	0	1886	1181	1654	32
63	0	0	1897	1182	1661	33
64	0	0	1920	1182	1671	32
65	0	0	1950	1182	1678	33
66	0	0	1974	1182	1681	35
67	0	0	2000	1182	1682	34
68	0	0	2043	1183	1676	33
69	0	0	2098	1181	1661	33
70	0	0	2142	1184	1653	32
71	0	0	2151	1184	1650	36
72	0	0	2116	1181	1653	33
73	0	0	2075	1179	1661	33
74	0	0	2020	1177	1670	32
75	0	0	1972	1180	1678	32
76	0	0	1937	1180	1683	38
77	0	0	1908	1179	1681	35
78	0	0	1875	1179	1674	31
79	0	0	1835	1178	1660	33
80	0	0	1805	1182	1651	32
81	0	0	1811	1181	1649	31
82	0	0	1827	1182	1653	33
83	0	0	1858	1182	1661	33
84	0	0	1914	1183	1669	32
85	0	0	1976	1184	1678	32
86	0	0	2045	1184	1681	36
87	0	0	2094	1181	1681	33
88	0	0	2130	1182	1676	33
89	0	0	2171	1183	1663	32
90	0	0	2206	1182	1653	31
91	0	0	2191	1181	1650	32
92	0	0	2152	1180	1655	32
93	0	0	2102	1178	1662	33
94	0	0	2027	1179	1670	31
95	0	0	1944	1179	1678	37
96	0	0	1883	1179	1681	33
97	0	0	1847	1180	1681	32
98	0	0	1843	1184	1676	33
99	0	0	1837	1181	1662	31
100	0	0	1832	1183	1651	35
101	0	0	1852	1183	1649	31
102	0	0	1893	1183	1654	32
103	0	0	1932	1182	1660	33
104	0	0	1984	1182	1669	33
105	0	0	2053	1184	1678	35
106	0	0	2114	1183	1682	31
107	0	0	2149	1183	1681	31
108	0	0	2164	1184	1676	33
109	0	0	2191	1183	1662	34
110	0	0	2231	1184	1653	33
111	0	0	2245	1182	1651	35
112	0	0	2228	1182	1653	35
113	0	0	2179	1179	1661	33
114	0	0	2101	1180	1670	32
115	0	0	2009	1177	1677	33
116	0	0	1913	1179	1682	32
117	0	0	1837	1179	1681	32
118	0	0	1800	1181	1676	32
119	0	0	1787	1182	1661	33
120	0	0	1784	1184	1651	33
121	0	0	1812	1183	1649	34
122	0	0	1861	1183	1653	33
123	0	0	1902	1183	1662	34
124	0	0	1948	1182	1669	31
125	0	0	2014	1184	1677	36
126	0	0	2082	1184	1681	35
127	0	0	2144	1184	1681	35
0	0	0	2181	1183	1676	33
1	0	0	2214	1183	1662	31
2	0	0	2242	1185	1652	33
3	0	0	2219	1181	1650	32
4	0	0	2178	1181	1654	32
5	0	0	2128	1180	1661	33
6	0	0	2065	1181	1670	32
7	0	0	2000	1180	1678	33
8	0	0	1941	1180	1682	32
9	0	0	1892	1180	1680	32
10	0	0	1866	1179	1674	32
11	0	0	1859	1182	1661	31
12	0	0	1868	1184	1651	36
13	0	0	1896	1183	1649	32
14	0	0	1931	1183	1653	32
15	0	0	1964	1183	1660	31
16	0	0	1996	1184	1669	29
17	0	0	2033	1184	1678	33
18	0	0	2080	1185	1682	33
19	0	0	2117	1183	1681	33
20	0	0	2150	1184	1676	32
21	0	0	2190	1183	1661	33
22	0	0	2230	1184	1652	32
23	0	0	2233	1183	1650	32
24	0	0	2218	1182	1655	33
25	0	0	2178	1180	1661	33
26	0	0	2111	1180	1670	33
27	0	0	2042	1182	1677	32
28	0	0	1984	1181	1682	32
29	0	0	1949	1181	1681	31
30	0	0	1924	1181	1676	32
31	0	0	1896	1180	1660	32
32	0	0	1884	1184	1651	32
33	0	0	1898	1183	1650	32
34	0	0	1919	1183	1653	32
35	0	0	1945	1184	1661	34
36	0	0	1976	1183	1670	31
37	0	0	2008	1182	1676	35
38	0	0	2043	1183	1682	32
39	0	0	2074	1184	1681	32
40	0	0	2100	1184	1675	33
41	0	0	2145	1185	1662	34
42	0	0	2202	1183	1651	35
43	0	0	2220	1184	1651	31
44	0	0	2200	1183	1655	32
45	0	0	2134	1182	1661	33
46	0	0	2026	1180	1670	31
47	0	0	1939	1180	1678	33
48	0	0	1894	1181	1681	32
49	0	0	1893	1184	1681	32
50	0	0	1909	1184	1675	33
51	0	0	1924	1184	1661	33
52	0	0	1922	1187	1651	32
53	0	0	1946	1183	1649	32
54	0	0	1987	1183	1653	32
55	0	0	2022	1184	1660	33
56	0	0	2057	1185	1670	32
57	0	0	2094	1181	1677	33
58	0	0	2143	1183	1682	34
59	0	0	2203	1184	1681	32
60	0	0	2250	1185	1676	33
61	0	0	2285	1184	1661	32
62	0	0	2310	1187	1652	32
63	0	0	2285	1181	1651	32
64	0	0	2232	1181	1654	32
65	0	0	2165	1180	1662	33
66	0	0	2087	1181	1669	31
67	0	0	2017	1177	1677	32
68	0	0	1997	1185	1681	33
69	0	0	2008	1184	1680	32
70	0	0	2009	1185	1675	33
71	0	0	1985	1181	1660	35
72	0	0	1967	1179	1651	32
73	0	0	1976	1183	1649	32
74	0	0	2006	1183	1653	31
75	0	0	2046	1185	1659	32
76	0	0	2095	1184	1669	32
77	0	0	2147	1184	1678	33
78	0	0	2188	1185	1682	33
79	0	0	2223	1184	1682	36
80	0	0	2254	1185	1676	33
81	0	0	2299	1185	1664	32
82	0	0	2327	1186	1652	32
83	0	0	2303	1182	1651	32
84	0	0	2267	1183	1654	32
85	0	0	2242	1180	1662	33
86	0	0	2189	1181	1670	32
87	0	0	2131	1181	1677	33
88	0	0	2075	1181	1681	32
89	0	0	2019	1181	1680	32
90	0	0	1973	1181	1675	33
91	0	0	1939	1181	1661	32
92	0	0	1925	1185	1651	32
93	0	0	1947	1184	1649	34
94	0	0	1998	1184	1653	32
95	0	0	2050	1185	1659	32
96	0	0	2112	1185	1669	32
97	0	0	2173	1186	1677	33
98	0	0	2222	1184	1682	33
99	0	0	2254	1185	1681	32
100	0	0	2278	1184	1676	34
101	0	0	2309	1185	1661	31
102	0	0	2361	1184	1651	32
