# bioPlux Text File Format
# Version: 1
# StartDateTime: 2011-07-19 17:22:31
# SamplingFrequency: 1000
# SampledChannels: 1 2 3 4 5
# SamplingResolution: 12
# AcquiringDevice: 00:07:80:42:0F:95
# EndOfHeader
0	0	0	1890	4	183	823	3956
1	0	0	1884	5	183	823	3957
2	0	0	1884	5	183	823	3956
3	0	0	1877	5	185	823	3957
4	0	0	1873	5	184	823	3956
5	0	0	1879	4	182	823	3956
6	0	0	1877	5	184	823	3956
7	0	0	1867	4	183	823	3957
8	0	0	1873	5	183	823	3958
9	0	0	1913	5	183	823	3957
10	0	0	1965	5	182	823	3957
11	0	0	1965	5	184	823	3957
12	0	0	1937	4	184	823	3957
13	0	0	1918	5	184	823	3957
14	0	0	1905	4	184	823	3957
15	0	0	1902	4	183	823	3958
16	0	0	1915	5	183	823	3956
17	0	0	1909	4	184	823	3957
18	0	0	1889	4	184	823	3957
19	0	0	1893	5	184	823	3956
20	0	0	1902	5	183	823	3956
21	0	0	1929	5	183	823	3957
22	0	0	1940	4	183	823	3957
23	0	0	1931	5	183	823	3957
24	0	0	1902	4	183	823	3957
25	0	0	1868	4	184	823	3957
26	0	0	1850	4	183	823	3957
27	0	0	1858	5	184	823	3957
28	0	0	1878	5	185	823	3958
29	0	0	1898	5	183	823	3958
30	0	0	1905	5	183	823	3957
31	0	0	1891	4	182	823	3957
32	0	0	1886	5	184	824	3957
33	0	0	1908	5	184	823	3957
34	0	0	1933	5	184	823	3956
35	0	0	1960	5	182	823	3956
36	0	0	1974	5	185	823	3956
37	0	0	1949	5	183	823	3957
38	0	0	1917	4	183	823	3958
39	0	0	1889	4	183	823	3957
40	0	0	1875	5	183	823	3956
41	0	0	1855	5	184	823	3957
42	0	0	1835	4	183	823	3957
43	0	0	1836	5	183	823	3958
44	0	0	1852	5	183	823	3957
45	0	0	1870	5	183	823	3957
46	0	0	1884	5	183	823	3958
47	0	0	1884	5	183	823	3958
48	0	0	1903	5	182	823	3957
49	0	0	1920	5	184	823	3958
50	0	0	1925	4	183	823	3956
51	0	0	1922	5	183	823	3956
52	0	0	1905	5	183	823	3957
53	0	0	1887	4	183	823	3957
54	0	0	1899	5	183	823	3957
55	0	0	1909	5	184	823	3956
56	0	0	1895	5	184	823	3957
57	0	0	1880	4	184	823	3957
58	0	0	1888	5	184	823	3957
59	0	0	1903	5	184	823	3957
60	0	0	1916	5	183	823	3957
61	0	0	1929	5	183	823	3958
62	0	0	1922	4	183	823	3958
63	0	0	1933	5	184	823	3958
64	0	0	1955	5	184	823	3958
65	0	0	1963	5	183	823	3956
66	0	0	1958	5	184	823	3956
67	0	0	1960	5	184	824	3957
68	0	0	1976	5	183	823	3957
69	0	0	1974	4	184	823	3956
70	0	0	1953	3	184	823	3956
71	0	0	1929	4	183	823	3956
72	0	0	1915	5	184	823	3957
73	0	0	1906	4	184	823	3958
74	0	0	1901	5	183	823	3957
75	0	0	1903	5	182	823	3958
76	0	0	1921	5	184	823	3957
77	0	0	1926	5	184	823	3958
78	0	0	1908	4	183	823	3958
79	0	0	1905	5	184	823	3957
80	0	0	1922	5	183	823	3957
81	0	0	1937	5	184	823	3957
82	0	0	1939	5	184	823	3957
83	0	0	1940	5	182	823	3957
84	0	0	1952	5	183	823	3957
85	0	0	1977	5	184	823	3956
86	0	0	1997	5	183	823	3956
87	0	0	2018	5	183	823	3957
88	0	0	1987	4	183	823	3957
89	0	0	1942	4	183	823	3958
90	0	0	1938	5	182	823	3956
91	0	0	1951	5	183	823	3957
92	0	0	1956	5	184	823	3958
93	0	0	1940	4	183	823	3958
94	0	0	1907	4	183	824	3958
95	0	0	1915	5	185	823	3957
96	0	0	1933	5	183	823	3957
97	0	0	1932	5	184	823	3956
98	0	0	1933	5	183	823	3957
99	0	0	1932	5	183	823	3956
100	0	0	1932	4	184	823	3956
101	0	0	1934	5	183	823	3957
102	0	0	1951	5	183	823	3957
103	0	0	1987	5	183	823	3957
104	0	0	2017	5	183	823	3957
105	0	0	2028	4	184	823	3958
106	0	0	2018	4	183	824	3958
107	0	0	1999	4	183	824	3957
108	0	0	1981	4	183	823	3958
109	0	0	1970	4	183	824	3958
110	0	0	1964	5	184	823	3957
111	0	0	1968	5	183	823	3957
112	0	0	1968	5	182	824	3957
113	0	0	1976	5	183	823	3958
114	0	0	2005	5	184	823	3957
115	0	0	2027	5	184	823	3957
116	0	0	2028	5	184	823	3957
117	0	0	2041	5	183	824	3957
118	0	0	2059	5	183	823	3958
119	0	0	2032	4	183	823	3957
120	0	0	2023	5	183	823	3958
121	0	0	2023	4	183	823	3958
122	0	0	2009	4	183	823	3957
123	0	0	1987	4	183	823	3958
124	0	0	1951	4	183	823	3957
125	0	0	1922	4	183	823	3957
126	0	0	1919	4	183	823	3958
127	0	0	1913	4	183	824	3957
0	0	0	1911	5	183	823	3957
1	0	0	1924	5	183	823	3957
2	0	0	1942	5	183	823	3957
3	0	0	1940	5	183	823	3957
4	0	0	1965	5	184	823	3957
5	0	0	1977	5	183	823	3957
6	0	0	1959	4	184	823	3957
7	0	0	1951	5	184	823	3956
8	0	0	1957	5	183	823	3957
9	0	0	1950	4	184	823	3957
10	0	0	1954	5	183	823	3957
11	0	0	1973	5	183	823	3957
12	0	0	1999	5	183	823	3956
13	0	0	2013	5	183	823	3958
14	0	0	2021	5	183	823	3958
15	0	0	2008	4	183	823	3958
16	0	0	1992	4	183	823	3958
17	0	0	1970	4	182	823	3957
18	0	0	1943	4	183	823	3958
19	0	0	1909	4	184	823	3958
20	0	0	1889	4	183	823	3957
21	0	0	1899	5	185	823	3956
22	0	0	1934	5	184	823	3958
23	0	0	1928	4	184	823	3957
24	0	0	1917	4	183	824	3957
25	0	0	1906	5	183	823	3958
26	0	0	1883	4	184	823	3957
27	0	0	1888	5	184	823	3958
28	0	0	1922	5	184	823	3957
29	0	0	1947	5	184	823	3957
30	0	0	1951	5	182	823	3958
31	0	0	1951	4	184	823	3958
32	0	0	1934	6	184	823	3957
33	0	0	1907	4	183	823	3957
34	0	0	1882	4	183	824	3957
35	0	0	1872	5	182	823	3958
36	0	0	1879	6	184	823	3957
37	0	0	1879	4	184	823	3957
38	0	0	1890	5	183	823	3958
39	0	0	1921	5	183	823	3957
40	0	0	1944	5	183	823	3957
41	0	0	1944	5	184	823	3956
42	0	0	1927	7	183	823	3957
43	0	0	1906	4	184	823	3957
44	0	0	1900	5	184	823	3957
45	0	0	1907	5	184	823	3958
46	0	0	1902	4	184	823	3957
47	0	0	1889	4	183	823	3957
48	0	0	1875	4	183	823	3957
49	0	0	1906	5	182	822	3958
50	0	0	1959	5	183	823	3958
51	0	0	1981	5	183	823	3957
52	0	0	1988	7	183	823	3957
53	0	0	1968	4	183	823	3957
54	0	0	1978	5	183	823	3958
55	0	0	2008	5	181	823	3957
56	0	0	1994	4	184	823	3958
57	0	0	1959	4	184	823	3957
58	0	0	1936	4	184	823	3957
59	0	0	1923	5	184	823	3957
60	0	0	1904	4	184	823	3958
61	0	0	1889	4	183	823	3957
62	0	0	1900	5	182	823	3957
63	0	0	1926	4	183	823	3957
64	0	0	1934	5	183	822	3958
65	0	0	1937	5	183	823	3958
66	0	0	1947	5	183	823	3957
67	0	0	1941	5	184	823	3957
68	0	0	1943	5	184	823	3957
69	0	0	1963	5	183	822	3957
70	0	0	1970	5	183	823	3957
71	0	0	1948	5	183	823	3956
72	0	0	1917	5	183	823	3956
73	0	0	1903	4	183	823	3957
74	0	0	1914	5	183	823	3958
75	0	0	1917	5	183	823	3957
76	0	0	1900	4	183	823	3956
77	0	0	1905	5	183	823	3958
78	0	0	1915	5	183	823	3958
79	0	0	1933	5	183	823	3958
80	0	0	1953	5	184	823	3958
81	0	0	1943	4	183	823	3957
82	0	0	1907	5	184	823	3957
83	0	0	1918	5	185	823	3957
84	0	0	1946	5	184	823	3958
85	0	0	1957	5	183	823	3958
86	0	0	1961	5	183	823	3957
87	0	0	1964	5	184	823	3956
88	0	0	1984	5	184	823	3956
89	0	0	2003	5	184	823	3956
90	0	0	1998	5	183	823	3957
91	0	0	2005	5	183	823	3957
92	0	0	2023	5	184	823	3956
93	0	0	2033	5	184	823	3957
94	0	0	2040	5	183	822	3958
95	0	0	2060	5	182	823	3957
96	0	0	2072	5	183	823	3957
97	0	0	2058	5	183	823	3958
98	0	0	2049	4	183	824	3957
99	0	0	2059	5	184	823	3957
100	0	0	2095	5	183	823	3958
101	0	0	2150	5	183	823	3957
102	0	0	2201	5	183	823	3956
103	0	0	2211	5	183	823	3957
104	0	0	2220	5	183	823	3958
105	0	0	2251	5	182	823	3957
106	0	0	2293	5	183	823	3956
107	0	0	2332	5	184	823	3958
108	0	0	2370	5	184	823	3957
109	0	0	2424	5	184	824	3956
110	0	0	2448	5	183	823	3957
111	0	0	2448	5	183	823	3958
112	0	0	2449	5	184	823	3957
113	0	0	2448	5	185	823	3957
114	0	0	2445	5	184	824	3957
115	0	0	2456	4	182	823	3958
116	0	0	2469	6	183	823	3957
117	0	0	2470	5	184	823	3957
118	0	0	2456	5	184	823	3957
119	0	0	2418	4	184	824	3956
120	0	0	2357	4	182	823	3958
121	0	0	2317	4	183	823	3957
122	0	0	2286	4	183	823	3956
123	0	0	2258	3	184	823	3957
124	0	0	2252	5	183	823	3957
125	0	0	2229	4	182	823	3957
126	0	0	2175	4	182	823	3957
127	0	0	2099	4	184	823	3956
0	0	0	2039	4	183	823	3957
1	0	0	2027	4	183	823	3958
2	0	0	2001	4	184	823	3957
3	0	0	1961	4	183	823	3957
4	0	0	1926	4	184	823	3957
5	0	0	1921	5	184	823	3957
6	0	0	1932	5	184	823	3957
7	0	0	1950	5	183	823	3958
8	0	0	1970	5	184	823	3956
9	0	0	1962	4	183	824	3957
10	0	0	1943	3	183	823	3957
11	0	0	1930	5	183	823	3957
12	0	0	1925	5	182	823	3957
13	0	0	1937	5	183	823	3958
14	0	0	1957	5	185	823	3956
15	0	0	1961	4	184	823	3957
16	0	0	1974	5	183	823	3957
17	0	0	1984	5	184	823	3957
18	0	0	1977	5	183	823	3957
19	0	0	1950	4	184	824	3958
20	0	0	1919	4	183	824	3957
21	0	0	1911	4	183	823	3957
22	0	0	1920	5	182	823	3957
23	0	0	1894	4	184	823	3957
24	0	0	1888	5	184	823	3956
25	0	0	1901	4	183	823	3957
26	0	0	1897	5	183	823	3957
27	0	0	1907	5	183	823	3957
28	0	0	1929	5	183	824	3958
29	0	0	1959	6	183	823	3956
30	0	0	1957	3	183	823	3956
31	0	0	1941	5	183	823	3956
32	0	0	1930	5	183	823	3958
33	0	0	1903	4	183	823	3957
34	0	0	1887	4	183	824	3957
35	0	0	1882	4	184	823	3957
36	0	0	1866	4	183	823	3958
37	0	0	1850	4	183	823	3958
38	0	0	1858	5	183	823	3958
39	0	0	1881	6	185	823	3957
40	0	0	1903	3	184	823	3957
41	0	0	1905	4	184	823	3956
42	0	0	1897	4	184	823	3957
43	0	0	1910	5	183	823	3957
44	0	0	1907	4	183	823	3958
45	0	0	1890	5	184	824	3957
46	0	0	1871	4	184	823	3957
47	0	0	1859	5	182	823	3957
48	0	0	1876	5	183	823	3957
49	0	0	1892	5	184	823	3956
50	0	0	1907	5	184	823	3957
51	0	0	1899	4	184	823	3956
52	0	0	1902	5	184	823	3957
53	0	0	1899	4	183	823	3958
54	0	0	1874	6	185	823	3957
55	0	0	1857	3	183	823	3958
56	0	0	1879	5	183	823	3958
57	0	0	1945	5	183	823	3957
58	0	0	2003	5	184	823	3958
59	0	0	1994	4	184	823	3956
60	0	0	1948	4	184	823	3956
61	0	0	1914	4	184	823	3957
62	0	0	1898	4	184	823	3957
63	0	0	1889	4	183	823	3956
64	0	0	1877	5	183	823	3956
65	0	0	1896	6	183	823	3957
66	0	0	1921	5	184	823	3958
67	0	0	1940	5	183	823	3957
68	0	0	1957	5	184	823	3957
69	0	0	1974	5	184	823	3957
70	0	0	1989	5	184	823	3957
71	0	0	1987	4	183	823	3957
72	0	0	1964	4	183	824	3958
73	0	0	1961	5	184	823	3957
74	0	0	1956	4	183	823	3957
75	0	0	1926	4	183	823	3957
76	0	0	1911	4	183	824	3956
77	0	0	1936	5	184	823	3957
78	0	0	1961	5	184	823	3956
79	0	0	1965	5	184	823	3957
80	0	0	1973	5	183	824	3956
81	0	0	1967	5	183	823	3956
82	0	0	1962	5	183	823	3957
83	0	0	1963	5	183	823	3956
84	0	0	1957	5	184	823	3957
85	0	0	1973	5	182	823	3957
86	0	0	1970	5	184	823	3957
87	0	0	1963	5	183	824	3958
88	0	0	1970	5	184	823	3957
89	0	0	1963	5	183	823	3958
90	0	0	1970	5	183	823	3957
91	0	0	1985	5	183	823	3957
92	0	0	1990	5	184	823	3958
93	0	0	1985	5	183	823	3957
94	0	0	1988	5	183	823	3958
95	0	0	1980	4	184	823	3957
96	0	0	1955	5	183	823	3957
97	0	0	1933	4	183	823	3957
98	0	0	1928	5	183	823	3956
99	0	0	1945	5	184	823	3956
100	0	0	1970	5	185	823	3957
101	0	0	1988	5	183	824	3957
102	0	0	1992	5	184	823	3958
103	0	0	1986	5	183	823	3957
104	0	0	1976	4	183	823	3957
105	0	0	1964	4	183	823	3957
106	0	0	1957	4	183	824	3957
107	0	0	1974	5	183	823	3958
108	0	0	2001	5	183	823	3958
109	0	0	2026	5	184	823	3956
110	0	0	2018	5	183	823	3957
111	0	0	1993	4	184	824	3957
112	0	0	1979	4	183	823	3957
113	0	0	1956	4	183	823	3958
114	0	0	1948	5	184	823	3956
115	0	0	1984	5	185	823	3956
116	0	0	2024	5	183	823	3957
117	0	0	2014	5	183	823	3958
118	0	0	1992	4	183	823	3957
119	0	0	1965	4	183	823	3957
120	0	0	1951	5	184	823	3957
121	0	0	1964	5	183	823	3957
122	0	0	1977	5	183	823	3957
123	0	0	1977	4	183	823	3957
124	0	0	1969	4	183	823	3957
125	0	0	1976	5	183	823	3957
126	0	0	2012	5	183	823	3957
127	0	0	2055	5	184	823	3958
0	0	0	2065	4	183	823	3956
1	0	0	2038	4	184	823	3958
2	0	0	2008	5	184	823	3957
3	0	0	1993	4	184	823	3957
4	0	0	1995	5	183	823	3957
5	0	0	2009	5	184	823	3957
6	0	0	2032	5	184	823	3957
7	0	0	2027	4	183	823	3957
8	0	0	2014	5	183	823	3958
9	0	0	2028	5	183	823	3957
10	0	0	2051	4	184	823	3957
11	0	0	2056	5	184	823	3957
12	0	0	2049	4	182	824	3956
13	0	0	1999	4	183	823	3957
14	0	0	1971	5	183	823	3958
15	0	0	1993	5	183	823	3956
16	0	0	2022	5	183	823	3956
17	0	0	2060	5	183	823	3956
18	0	0	2078	4	184	824	3956
19	0	0	2056	4	183	823	3957
20	0	0	2068	5	184	823	3958
21	0	0	2090	6	183	823	3957
22	0	0	2107	5	183	823	3957
23	0	0	2084	4	184	823	3957
24	0	0	2056	4	184	823	3958
25	0	0	2032	5	183	823	3957
26	0	0	2033	5	183	823	3957
27	0	0	2044	5	184	823	3957
28	0	0	2027	4	183	823	3957
29	0	0	2030	5	184	823	3958
30	0	0	2044	5	184	823	3957
31	0	0	2039	5	184	823	3957
32	0	0	2059	5	182	824	3956
33	0	0	2085	5	183	823	3956
34	0	0	2090	5	183	824	3957
35	0	0	2095	5	184	823	3958
36	0	0	2095	6	183	823	3956
37	0	0	2077	4	183	823	3957
38	0	0	2057	4	183	823	3958
39	0	0	2050	4	182	823	3958
40	0	0	2056	5	183	823	3957
41	0	0	2057	5	183	823	3957
42	0	0	2058	5	183	823	3957
43	0	0	2063	5	183	823	3957
44	0	0	2080	5	184	824	3958
45	0	0	2103	5	183	823	3957
46	0	0	2116	5	183	823	3958
47	0	0	2107	4	183	823	3956
48	0	0	2104	4	183	823	3957
49	0	0	2103	5	184	823	3957
50	0	0	2099	5	183	823	3958
51	0	0	2092	5	182	823	3957
52	0	0	2076	5	183	823	3956
53	0	0	2068	5	184	823	3957
54	0	0	2089	5	184	824	3957
55	0	0	2105	5	185	823	3956
56	0	0	2091	4	183	823	3956
57	0	0	2076	5	183	824	3957
58	0	0	2079	5	183	824	3957
59	0	0	2118	5	183	823	3958
60	0	0	2168	5	184	823	3957
61	0	0	2177	5	183	823	3958
62	0	0	2155	4	183	823	3958
63	0	0	2161	5	183	823	3957
64	0	0	2139	4	183	823	3958
65	0	0	2113	4	182	823	3956
66	0	0	2100	4	183	823	3956
67	0	0	2101	5	183	823	3956
68	0	0	2094	4	183	823	3956
69	0	0	2103	5	183	823	3957
70	0	0	2124	5	184	823	3956
71	0	0	2135	5	184	823	3956
72	0	0	2149	6	183	823	3956
73	0	0	2172	5	182	824	3956
74	0	0	2176	4	183	824	3957
75	0	0	2165	4	184	823	3957
76	0	0	2152	5	184	823	3957
77	0	0	2150	5	183	823	3957
78	0	0	2149	5	184	823	3957
79	0	0	2156	5	183	823	3958
80	0	0	2174	5	183	823	3956
81	0	0	2192	5	183	823	3956
82	0	0	2203	6	183	823	3956
83	0	0	2188	4	183	824	3956
84	0	0	2175	5	183	823	3957
85	0	0	2158	5	183	823	3956
86	0	0	2134	4	183	823	3956
87	0	0	2099	3	184	823	3957
88	0	0	2066	4	183	824	3957
89	0	0	2069	5	183	823	3958
90	0	0	2101	5	184	823	3957
91	0	0	2144	5	183	823	3957
92	0	0	2155	5	184	823	3957
93	0	0	2159	5	183	823	3958
94	0	0	2150	4	183	823	3958
95	0	0	2144	5	184	823	3958
96	0	0	2147	5	184	823	3956
97	0	0	2125	5	184	823	3957
98	0	0	2110	5	183	823	3958
99	0	0	2115	5	183	823	3957
100	0	0	2124	5	184	823	3957
101	0	0	2141	3	183	823	3956
102	0	0	2162	7	183	823	3957
103	0	0	2172	5	183	823	3957
104	0	0	2161	4	184	823	3957
105	0	0	2147	5	183	823	3957
106	0	0	2150	5	184	823	3957
107	0	0	2173	5	183	823	3957
108	0	0	2179	4	183	823	3958
109	0	0	2167	4	182	823	3957
110	0	0	2168	5	183	823	3957
111	0	0	2173	5	184	823	3958
112	0	0	2175	5	183	823	3958
113	0	0	2160	4	183	823	3957
114	0	0	2150	5	183	823	3958
115	0	0	2164	5	184	823	3956
116	0	0	2200	5	183	823	3956
117	0	0	2222	5	183	823	3957
118	0	0	2194	4	183	823	3958
119	0	0	2153	5	183	823	3957
120	0	0	2127	5	184	823	3957
121	0	0	2132	5	183	823	3956
122	0	0	2138	4	183	823	3956
123	0	0	2103	4	183	823	3956
124	0	0	2066	4	183	823	3958
125	0	0	2037	4	183	823	3957
126	0	0	2030	5	183	823	3958
127	0	0	2054	5	184	823	3956
0	0	0	2097	5	184	823	3958
1	0	0	2136	5	183	823	3958
2	0	0	2140	5	183	823	3957
3	0	0	2137	5	184	823	3957
4	0	0	2117	6	183	823	3957
5	0	0	2090	4	184	824	3956
6	0	0	2119	5	184	823	3957
7	0	0	2169	5	183	823	3958
8	0	0	2188	7	184	823	3956
9	0	0	2165	5	183	823	3957
10	0	0	2130	4	184	823	3957
11	0	0	2129	5	183	823	3958
12	0	0	2150	5	184	823	3957
13	0	0	2168	5	182	823	3958
14	0	0	2176	6	184	823	3957
15	0	0	2187	5	183	823	3957
16	0	0	2172	4	183	823	3957
17	0	0	2138	4	183	823	3957
18	0	0	2105	5	184	823	3957
19	0	0	2079	6	184	823	3957
20	0	0	2066	4	184	823	3956
21	0	0	2079	5	183	823	3957
22	0	0	2079	5	184	823	3956
23	0	0	2077	5	183	823	3956
24	0	0	2053	5	184	823	3956
25	0	0	2042	5	184	823	3957
26	0	0	2060	5	183	823	3957
27	0	0	2071	5	182	823	3956
28	0	0	2054	4	182	823	3957
29	0	0	2056	4	183	823	3957
30	0	0	2063	5	183	823	3957
31	0	0	2058	5	183	822	3958
32	0	0	2060	5	184	823	3957
33	0	0	2066	5	183	823	3958
34	0	0	2081	5	183	824	3957
35	0	0	2065	4	184	823	3956
36	0	0	2061	5	184	823	3958
37	0	0	2083	5	184	823	3956
38	0	0	2096	5	183	823	3958
39	0	0	2112	5	184	825	3957
40	0	0	2106	4	183	823	3956
41	0	0	2060	4	184	823	3957
42	0	0	2019	4	183	823	3956
43	0	0	2056	5	183	823	3958
44	0	0	2086	5	183	823	3958
45	0	0	2091	5	183	823	3957
46	0	0	2108	6	183	822	3957
47	0	0	2102	4	184	823	3957
48	0	0	2093	4	184	823	3957
49	0	0	2096	6	183	823	3957
50	0	0	2091	4	184	823	3957
51	0	0	2067	4	183	823	3956
52	0	0	2020	4	183	823	3957
53	0	0	2016	5	184	823	3956
54	0	0	2050	6	183	823	3956
55	0	0	2058	4	183	823	3956
56	0	0	2028	4	184	823	3957
57	0	0	2002	4	184	823	3958
58	0	0	1998	7	184	823	3956
59	0	0	2015	5	184	823	3957
60	0	0	2045	5	183	823	3958
61	0	0	2064	5	183	822	3957
62	0	0	2070	5	183	823	3958
63	0	0	2061	4	184	823	3957
64	0	0	2063	5	183	823	3957
65	0	0	2083	5	183	823	3958
66	0	0	2109	5	184	823	3958
67	0	0	2120	6	184	823	3957
68	0	0	2109	4	183	823	3957
69	0	0	2104	5	184	823	3956
70	0	0	2099	5	184	823	3957
71	0	0	2090	5	183	823	3957
72	0	0	2109	5	183	823	3956
73	0	0	2121	5	183	823	3957
74	0	0	2108	5	183	823	3957
75	0	0	2105	4	184	823	3958
76	0	0	2095	5	183	822	3957
77	0	0	2087	4	183	823	3958
78	0	0	2102	7	183	823	3957
79	0	0	2136	5	184	823	3957
80	0	0	2149	5	184	823	3957
81	0	0	2135	5	183	823	3958
82	0	0	2112	5	184	823	3957
83	0	0	2089	4	183	823	3957
84	0	0	2067	5	183	823	3957
85	0	0	2055	5	183	823	3956
86	0	0	2059	5	183	823	3958
87	0	0	2067	5	183	823	3956
88	0	0	2100	5	182	823	3958
89	0	0	2131	5	183	823	3958
90	0	0	2132	4	184	823	3957
91	0	0	2102	4	184	823	3957
92	0	0	2093	5	182	823	3956
93	0	0	2106	5	183	823	3957
94	0	0	2108	5	183	823	3956
95	0	0	2124	5	184	823	3957
96	0	0	2142	4	184	823	3957
97	0	0	2122	4	184	823	3957
98	0	0	2101	4	184	823	3957
99	0	0	2077	4	184	823	3958
100	0	0	2048	4	183	823	3958
101	0	0	2031	5	183	823	3958
102	0	0	2057	5	183	823	3958
103	0	0	2105	7	184	823	3956
104	0	0	2122	5	183	823	3956
105	0	0	2104	4	183	823	3957
106	0	0	2093	4	183	823	3957
107	0	0	2083	4	183	823	3956
108	0	0	2065	4	183	824	3957
109	0	0	2082	5	184	823	3957
110	0	0	2113	5	183	823	3957
111	0	0	2139	5	183	823	3958
112	0	0	2128	5	183	823	3957
113	0	0	2108	4	184	823	3957
114	0	0	2092	5	183	823	3957
115	0	0	2089	5	183	823	3958
116	0	0	2081	5	184	823	3958
117	0	0	2091	5	184	823	3957
118	0	0	2126	5	182	824	3957
119	0	0	2173	5	184	823	3957
120	0	0	2183	5	184	823	3957
121	0	0	2135	4	184	823	3957
122	0	0	2081	4	183	823	3957
123	0	0	2052	4	184	823	3957
124	0	0	2067	5	183	823	3957
125	0	0	2084	5	184	823	3957
126	0	0	2105	5	183	823	3957
127	0	0	2137	5	183	823	3958
0	0	0	2164	5	182	824	3957
1	0	0	2178	6	184	823	3957
2	0	0	2186	5	183	823	3958
3	0	0	2199	5	184	823	3958
4	0	0	2181	4	183	823	3957
5	0	0	2156	4	184	823	3957
6	0	0	2150	5	183	823	3957
7	0	0	2160	5	183	824	3957
8	0	0	2174	5	183	823	3957
9	0	0	2180	5	183	823	3956
10	0	0	2183	5	184	823	3957
11	0	0	2159	4	184	823	3957
12	0	0	2136	4	183	823	3958
13	0	0	2128	5	184	822	3955
14	0	0	2137	5	183	823	3956
15	0	0	2167	5	182	823	3958
16	0	0	2197	5	184	824	3958
17	0	0	2209	5	183	823	3957
18	0	0	2200	4	184	822	3957
19	0	0	2177	4	183	823	3957
20	0	0	2172	5	184	823	3957
21	0	0	2176	5	184	823	3958
22	0	0	2164	4	184	823	3958
23	0	0	2149	4	183	822	3958
24	0	0	2138	6	183	823	3957
25	0	0	2120	4	182	824	3956
26	0	0	2100	4	184	823	3957
27	0	0	2069	4	182	823	3957
28	0	0	2087	5	184	823	3958
29	0	0	2146	5	183	823	3956
30	0	0	2222	5	183	823	3957
31	0	0	2256	5	183	823	3956
32	0	0	2231	4	184	823	3957
33	0	0	2157	4	183	823	3957
34	0	0	2098	4	184	823	3957
35	0	0	2112	5	184	823	3957
36	0	0	2156	5	183	823	3957
37	0	0	2194	5	184	823	3958
38	0	0	2208	5	184	822	3958
39	0	0	2223	5	183	823	3957
40	0	0	2210	4	183	823	3958
41	0	0	2179	4	183	823	3957
42	0	0	2156	5	183	823	3957
43	0	0	2127	4	183	823	3957
44	0	0	2104	4	183	823	3956
45	0	0	2100	5	184	823	3957
46	0	0	2129	5	183	823	3957
47	0	0	2168	5	183	823	3958
48	0	0	2186	5	184	822	3957
49	0	0	2186	6	183	823	3956
50	0	0	2179	5	184	823	3957
51	0	0	2161	6	183	823	3958
52	0	0	2143	4	183	823	3957
53	0	0	2117	4	183	822	3957
54	0	0	2156	4	184	823	3957
55	0	0	2220	5	183	823	3958
56	0	0	2264	5	183	824	3958
57	0	0	2257	5	183	823	3957
58	0	0	2237	5	183	823	3957
59	0	0	2221	4	183	823	3957
60	0	0	2202	4	183	823	3957
61	0	0	2186	5	182	823	3957
62	0	0	2171	4	183	823	3958
63	0	0	2153	4	184	822	3957
64	0	0	2145	5	184	823	3956
65	0	0	2152	5	184	823	3956
66	0	0	2152	5	183	823	3958
67	0	0	2121	5	183	823	3957
68	0	0	2109	5	183	823	3958
69	0	0	2137	5	183	823	3957
70	0	0	2186	5	184	823	3957
71	0	0	2209	5	182	823	3957
72	0	0	2213	5	183	823	3958
73	0	0	2220	5	183	822	3958
74	0	0	2228	4	184	824	3957
75	0	0	2223	4	184	823	3956
76	0	0	2200	6	183	823	3957
77	0	0	2168	5	183	823	3957
78	0	0	2129	4	183	823	3957
79	0	0	2142	4	184	823	3956
80	0	0	2161	5	184	823	3958
81	0	0	2140	5	183	823	3957
82	0	0	2131	4	183	823	3956
83	0	0	2137	5	184	823	3957
84	0	0	2120	5	183	823	3957
85	0	0	2109	5	186	823	3957
86	0	0	2128	5	184	824	3957
87	0	0	2159	5	183	823	3958
88	0	0	2196	5	184	823	3958
89	0	0	2234	4	184	823	3958
90	0	0	2241	5	182	823	3957
91	0	0	2250	6	183	823	3957
92	0	0	2246	4	183	823	3957
93	0	0	2226	4	183	823	3957
94	0	0	2202	4	183	823	3956
95	0	0	2195	5	183	823	3957
96	0	0	2194	6	183	823	3956
97	0	0	2172	4	183	823	3957
98	0	0	2129	4	184	823	3957
99	0	0	2108	5	183	823	3956
100	0	0	2126	5	184	823	3957
101	0	0	2161	5	183	823	3957
102	0	0	2206	5	183	823	3957
103	0	0	2228	5	184	823	3958
104	0	0	2211	5	183	823	3957
105	0	0	2198	5	183	823	3958
106	0	0	2195	5	183	823	3957
107	0	0	2173	4	183	823	3958
108	0	0	2162	5	184	823	3958
109	0	0	2151	4	183	823	3956
110	0	0	2137	5	183	823	3958
111	0	0	2129	5	184	823	3957
112	0	0	2129	6	183	823	3957
113	0	0	2130	5	184	823	3957
114	0	0	2135	5	183	823	3956
115	0	0	2141	6	183	823	3956
116	0	0	2138	5	183	824	3956
117	0	0	2154	5	183	823	3957
118	0	0	2183	5	184	823	3958
119	0	0	2221	5	184	823	3958
120	0	0	2227	4	184	823	3957
121	0	0	2168	4	183	823	3957
122	0	0	2106	4	184	823	3958
123	0	0	2058	4	183	823	3957
124	0	0	2039	4	183	823	3957
125	0	0	2065	5	184	823	3957
126	0	0	2095	5	183	823	3956
127	0	0	2120	4	184	823	3956
0	0	0	2126	5	183	823	3957
1	0	0	2128	5	183	823	3957
2	0	0	2144	5	183	823	3958
3	0	0	2160	5	183	823	3958
4	0	0	2150	5	184	823	3957
5	0	0	2178	5	183	823	3958
6	0	0	2223	5	184	823	3957
7	0	0	2253	5	183	823	3957
8	0	0	2276	5	183	824	3957
9	0	0	2283	6	183	823	3957
10	0	0	2244	4	184	823	3958
11	0	0	2183	4	183	823	3957
12	0	0	2148	4	184	823	3957
13	0	0	2115	4	183	823	3957
14	0	0	2090	4	184	823	3958
15	0	0	2102	5	184	823	3957
16	0	0	2139	5	184	823	3956
17	0	0	2203	5	183	823	3958
18	0	0	2251	5	183	823	3957
19	0	0	2232	5	183	823	3957
20	0	0	2164	4	183	823	3957
21	0	0	2100	4	183	823	3957
22	0	0	2096	6	184	823	3957
23	0	0	2112	5	182	823	3957
24	0	0	2129	6	183	823	3957
25	0	0	2154	5	183	823	3957
26	0	0	2169	4	184	823	3957
27	0	0	2192	6	184	823	3957
28	0	0	2237	5	184	823	3957
29	0	0	2235	5	183	823	3957
30	0	0	2193	4	183	823	3957
31	0	0	2173	4	184	824	3958
32	0	0	2182	5	185	823	3956
33	0	0	2188	5	183	823	3956
34	0	0	2198	5	183	823	3957
35	0	0	2206	5	184	823	3957
36	0	0	2204	5	183	823	3956
37	0	0	2201	5	184	823	3957
38	0	0	2204	5	184	823	3957
39	0	0	2186	5	184	823	3957
40	0	0	2174	5	183	823	3958
41	0	0	2172	4	183	823	3957
42	0	0	2165	5	183	823	3958
43	0	0	2174	5	184	823	3958
44	0	0	2172	4	184	823	3957
45	0	0	2156	5	183	823	3957
46	0	0	2155	4	184	824	3958
47	0	0	2152	5	183	823	3957
48	0	0	2151	5	183	823	3957
49	0	0	2132	4	184	823	3957
50	0	0	2133	5	184	823	3957
51	0	0	2150	5	183	823	3956
52	0	0	2163	5	183	823	3956
53	0	0	2160	5	184	823	3957
54	0	0	2136	5	184	823	3957
55	0	0	2118	4	184	823	3958
56	0	0	2111	5	182	823	3957
57	0	0	2117	5	184	823	3958
58	0	0	2127	5	184	823	3957
59	0	0	2134	5	184	823	3957
60	0	0	2148	5	183	823	3957
61	0	0	2166	5	184	823	3957
62	0	0	2148	5	183	823	3957
63	0	0	2136	4	183	823	3957
64	0	0	2139	5	183	823	3956
65	0	0	2152	5	184	823	3957
66	0	0	2160	4	184	823	3958
67	0	0	2174	5	183	823	3957
68	0	0	2201	5	182	823	3957
69	0	0	2218	5	184	823	3958
70	0	0	2213	5	183	823	3957
71	0	0	2189	4	184	824	3957
72	0	0	2154	5	183	823	3956
73	0	0	2133	5	184	823	3957
74	0	0	2123	4	183	823	3958
75	0	0	2122	5	183	823	3957
76	0	0	2124	5	184	823	3957
77	0	0	2135	5	183	823	3957
78	0	0	2163	5	184	823	3957
79	0	0	2186	5	184	823	3957
80	0	0	2190	5	184	823	3957
81	0	0	2149	5	184	823	3956
82	0	0	2106	4	183	823	3957
83	0	0	2104	5	184	823	3958
84	0	0	2131	5	182	823	3956
85	0	0	2179	5	183	823	3958
86	0	0	2193	5	184	823	3957
87	0	0	2205	5	184	823	3957
88	0	0	2228	5	183	823	3957
89	0	0	2208	4	183	823	3958
90	0	0	2141	4	184	823	3957
91	0	0	2114	5	184	823	3957
92	0	0	2130	5	184	823	3957
93	0	0	2170	5	183	823	3957
94	0	0	2208	5	185	823	3958
95	0	0	2232	5	182	823	3957
96	0	0	2208	5	183	823	3956
97	0	0	2163	5	183	823	3956
98	0	0	2143	5	184	823	3956
99	0	0	2117	4	183	823	3957
100	0	0	2092	5	182	823	3957
101	0	0	2103	5	184	823	3958
102	0	0	2110	5	184	823	3956
103	0	0	2117	5	184	823	3957
104	0	0	2135	5	183	824	3958
105	0	0	2160	5	183	823	3957
106	0	0	2172	5	184	823	3957
107	0	0	2195	5	183	823	3957
108	0	0	2205	6	185	823	3958
109	0	0	2193	5	184	823	3958
110	0	0	2199	5	184	823	3958
111	0	0	2180	4	184	823	3957
112	0	0	2181	5	183	823	3956
113	0	0	2163	4	183	823	3957
114	0	0	2129	4	184	823	3957
115	0	0	2107	4	184	823	3957
116	0	0	2101	4	183	823	3958
117	0	0	2095	4	184	823	3956
118	0	0	2105	5	182	823	3956
119	0	0	2140	5	183	823	3957
120	0	0	2159	5	183	823	3957
121	0	0	2160	5	183	824	3957
122	0	0	2161	5	184	823	3958
123	0	0	2171	5	183	823	3958
124	0	0	2174	5	184	823	3958
125	0	0	2180	5	183	823	3957
126	0	0	2163	5	183	823	3957
127	0	0	2159	5	183	822	3957
0	0	0	2156	5	184	823	3957
1	0	0	2153	5	183	823	3957
2	0	0	2114	4	183	823	3957
3	0	0	2087	5	183	823	3956
4	0	0	2115	5	183	823	3957
5	0	0	2167	5	184	823	3957
6	0	0	2209	4	182	823	3957
7	0	0	2254	5	183	823	3957
8	0	0	2297	5	184	823	3958
9	0	0	2280	4	183	823	3957
10	0	0	2209	4	184	823	3956
11	0	0	2123	4	184	823	3957
12	0	0	2088	5	184	823	3958
13	0	0	2118	4	184	823	3956
14	0	0	2145	4	184	823	3957
15	0	0	2165	5	184	823	3957
16	0	0	2189	4	184	823	3957
17	0	0	2190	5	183	823	3957
18	0	0	2189	5	183	823	3956
19	0	0	2198	5	184	822	3957
20	0	0	2216	5	184	823	3957
21	0	0	2240	5	183	823	3958
22	0	0	2239	5	184	823	3956
23	0	0	2232	5	183	823	3956
24	0	0	2206	5	183	823	3956
25	0	0	2167	4	183	823	3956
26	0	0	2167	4	184	823	3957
27	0	0	2184	5	183	823	3958
28	0	0	2186	5	184	823	3956
29	0	0	2163	4	183	823	3958
30	0	0	2158	5	183	823	3958
31	0	0	2165	4	184	823	3957
32	0	0	2179	5	184	823	3958
33	0	0	2170	4	184	823	3958
34	0	0	2160	5	185	823	3957
35	0	0	2165	5	183	823	3957
36	0	0	2180	5	183	823	3956
37	0	0	2208	5	184	823	3956
38	0	0	2233	5	184	823	3956
39	0	0	2232	4	183	824	3956
40	0	0	2212	4	182	823	3958
41	0	0	2191	4	183	823	3957
42	0	0	2192	5	184	823	3957
43	0	0	2208	5	183	823	3956
44	0	0	2217	5	183	822	3957
45	0	0	2210	5	182	823	3957
46	0	0	2194	5	184	823	3957
47	0	0	2183	4	183	823	3958
48	0	0	2177	5	184	823	3957
49	0	0	2196	5	184	823	3957
50	0	0	2226	5	184	823	3957
51	0	0	2249	5	184	823	3958
52	0	0	2254	5	184	823	3957
53	0	0	2250	5	183	823	3956
54	0	0	2236	5	183	823	3956
55	0	0	2227	5	183	823	3957
56	0	0	2219	5	183	823	3957
57	0	0	2215	5	183	823	3957
58	0	0	2234	5	185	823	3956
59	0	0	2228	5	183	823	3958
60	0	0	2211	5	184	823	3958
61	0	0	2216	5	183	823	3957
62	0	0	2216	5	183	823	3957
63	0	0	2221	5	184	823	3956
64	0	0	2238	5	183	824	3957
65	0	0	2261	5	184	823	3957
66	0	0	2268	4	182	823	3956
67	0	0	2257	4	184	823	3957
68	0	0	2222	5	183	823	3956
69	0	0	2223	5	184	823	3957
70	0	0	2270	5	184	823	3957
71	0	0	2293	5	184	823	3956
72	0	0	2293	5	183	823	3956
73	0	0	2277	5	184	823	3958
74	0	0	2256	4	184	823	3957
75	0	0	2238	5	184	823	3957
76	0	0	2227	4	183	823	3957
77	0	0	2232	5	183	823	3957
78	0	0	2244	5	184	823	3957
79	0	0	2247	5	183	823	3957
80	0	0	2252	5	183	823	3958
81	0	0	2251	4	184	823	3958
82	0	0	2231	4	183	823	3956
83	0	0	2204	4	184	823	3957
84	0	0	2196	5	184	823	3956
85	0	0	2214	5	184	823	3957
86	0	0	2228	4	184	823	3957
87	0	0	2210	4	184	823	3958
88	0	0	2219	5	183	823	3956
89	0	0	2238	5	184	823	3957
90	0	0	2259	5	184	823	3958
91	0	0	2255	5	184	823	3957
92	0	0	2230	3	184	823	3956
93	0	0	2197	5	183	823	3956
94	0	0	2156	5	183	823	3956
95	0	0	2154	5	184	823	3957
96	0	0	2173	4	183	823	3957
97	0	0	2184	5	184	823	3957
98	0	0	2194	5	183	823	3958
99	0	0	2193	5	185	823	3957
100	0	0	2161	4	184	823	3956
101	0	0	2133	4	183	823	3957
102	0	0	2130	5	184	823	3957
103	0	0	2144	5	183	823	3956
104	0	0	2176	5	183	823	3957
105	0	0	2191	5	184	823	3957
106	0	0	2171	3	183	823	3957
107	0	0	2142	5	183	823	3956
108	0	0	2136	5	183	823	3956
109	0	0	2134	5	183	823	3956
110	0	0	2139	5	184	823	3957
111	0	0	2155	4	184	823	3957
112	0	0	2182	5	183	823	3958
113	0	0	2190	5	183	823	3957
114	0	0	2182	5	185	823	3958
115	0	0	2185	5	183	823	3958
116	0	0	2165	4	183	823	3958
117	0	0	2143	4	183	823	3956
118	0	0	2154	5	184	823	3958
119	0	0	2187	5	184	823	3957
120	0	0	2215	5	183	823	3957
121	0	0	2223	4	183	823	3957
122	0	0	2209	4	183	823	3956
123	0	0	2182	5	183	823	3957
124	0	0	2188	5	184	823	3958
125	0	0	2199	5	184	824	3958
126	0	0	2167	4	184	823	3958
127	0	0	2155	5	184	824	3958
0	0	0	2184	6	183	823	3957
1	0	0	2245	5	183	823	3958
2	0	0	2276	5	183	823	3958
3	0	0	2261	4	184	823	3958
4	0	0	2209	4	183	823	3957
5	0	0	2160	5	185	823	3957
6	0	0	2160	4	184	823	3957
7	0	0	2180	5	184	823	3957
8	0	0	2199	4	183	823	3957
9	0	0	2204	5	183	823	3957
10	0	0	2194	4	183	823	3958
11	0	0	2182	4	183	823	3956
12	0	0	2170	5	184	823	3957
13	0	0	2174	5	183	823	3957
14	0	0	2165	5	184	823	3957
15	0	0	2155	5	184	824	3958
16	0	0	2158	5	183	823	3957
17	0	0	2161	5	185	823	3957
18	0	0	2176	4	182	823	3958
19	0	0	2181	5	183	823	3958
20	0	0	2164	5	183	823	3957
21	0	0	2140	5	183	823	3957
22	0	0	2133	5	185	823	3957
23	0	0	2152	5	183	823	3957
24	0	0	2172	5	184	823	3956
25	0	0	2166	6	184	823	3957
26	0	0	2179	5	183	823	3956
27	0	0	2206	5	183	823	3957
28	0	0	2210	5	184	823	3958
29	0	0	2221	5	183	823	3957
30	0	0	2243	5	183	823	3958
31	0	0	2229	4	184	823	3957
32	0	0	2191	4	184	823	3957
33	0	0	2175	4	183	823	3958
34	0	0	2155	5	184	823	3958
35	0	0	2137	5	184	823	3957
36	0	0	2151	5	184	823	3958
37	0	0	2172	5	183	823	3958
38	0	0	2161	5	183	823	3958
39	0	0	2153	5	183	823	3957
40	0	0	2151	5	184	823	3957
41	0	0	2154	5	184	823	3956
42	0	0	2160	5	183	823	3956
43	0	0	2166	4	183	823	3957
44	0	0	2182	5	184	823	3957
45	0	0	2208	5	184	823	3956
46	0	0	2234	5	184	823	3956
47	0	0	2241	5	181	823	3957
48	0	0	2237	5	183	823	3957
49	0	0	2239	4	184	823	3957
50	0	0	2257	5	183	823	3958
51	0	0	2293	5	184	822	3957
52	0	0	2322	5	183	823	3957
53	0	0	2327	5	184	823	3959
54	0	0	2315	5	184	823	3957
55	0	0	2336	5	183	823	3957
56	0	0	2377	5	183	823	3958
57	0	0	2423	5	183	823	3958
58	0	0	2450	5	183	823	3957
59	0	0	2488	5	183	823	3957
60	0	0	2532	5	184	823	3957
61	0	0	2571	5	183	823	3957
62	0	0	2571	5	183	823	3956
63	0	0	2569	5	184	823	3957
64	0	0	2591	5	182	823	3957
65	0	0	2619	5	184	823	3956
66	0	0	2649	5	183	823	3957
67	0	0	2681	5	183	823	3957
68	0	0	2710	5	184	823	3957
69	0	0	2727	5	185	823	3957
70	0	0	2726	5	184	823	3958
71	0	0	2729	5	183	823	3957
72	0	0	2749	5	183	823	3958
73	0	0	2748	4	183	823	3958
74	0	0	2718	5	184	823	3957
75	0	0	2692	5	183	823	3958
76	0	0	2667	5	184	823	3957
77	0	0	2642	5	183	823	3956
78	0	0	2612	5	183	823	3957
79	0	0	2597	5	183	823	3957
80	0	0	2562	4	184	823	3957
81	0	0	2491	4	182	823	3956
82	0	0	2422	5	184	823	3957
83	0	0	2370	4	183	823	3957
84	0	0	2320	4	185	823	3957
85	0	0	2256	4	184	823	3957
86	0	0	2202	4	182	823	3957
87	0	0	2176	4	183	823	3958
88	0	0	2174	5	184	823	3958
89	0	0	2169	5	183	823	3957
90	0	0	2167	5	184	823	3958
91	0	0	2168	5	183	823	3957
92	0	0	2181	5	184	823	3957
93	0	0	2169	4	184	823	3957
94	0	0	2156	5	183	823	3956
95	0	0	2158	5	183	823	3956
96	0	0	2174	5	183	823	3957
97	0	0	2183	5	184	823	3958
98	0	0	2182	5	183	823	3957
99	0	0	2187	5	184	823	3957
100	0	0	2190	5	183	823	3956
101	0	0	2206	5	182	823	3957
102	0	0	2207	5	183	823	3957
103	0	0	2218	5	183	823	3958
104	0	0	2232	5	183	823	3957
105	0	0	2189	4	184	823	3957
106	0	0	2133	4	182	823	3956
107	0	0	2112	4	184	823	3957
108	0	0	2094	4	183	823	3956
109	0	0	2081	5	184	823	3957
110	0	0	2113	5	183	823	3956
111	0	0	2140	5	183	823	3956
112	0	0	2127	4	184	823	3957
113	0	0	2123	5	184	823	3957
114	0	0	2142	6	184	823	3957
115	0	0	2165	5	184	823	3956
116	0	0	2183	5	182	823	3957
117	0	0	2169	4	184	823	3957
118	0	0	2151	5	183	823	3958
119	0	0	2147	5	183	823	3957
120	0	0	2148	5	184	823	3958
121	0	0	2153	5	184	823	3957
122	0	0	2161	5	184	823	3957
123	0	0	2161	5	183	823	3958
124	0	0	2155	5	183	823	3957
125	0	0	2161	5	183	823	3956
126	0	0	2181	6	183	823	3956
127	0	0	2196	5	185	823	3956
0	0	0	2203	5	183	823	3957
1	0	0	2208	6	184	823	3956
2	0	0	2192	4	183	823	3958
3	0	0	2172	4	184	824	3956
4	0	0	2139	5	184	823	3956
5	0	0	2139	5	182	823	3957
6	0	0	2177	5	183	823	3958
7	0	0	2166	6	183	823	3957
8	0	0	2155	5	184	823	3957
9	0	0	2169	5	183	823	3957
10	0	0	2191	5	183	823	3958
11	0	0	2165	4	183	823	3956
12	0	0	2139	5	183	823	3956
13	0	0	2147	5	183	823	3956
14	0	0	2156	5	184	823	3957
15	0	0	2156	5	182	824	3958
16	0	0	2141	4	184	823	3957
17	0	0	2126	5	183	823	3958
18	0	0	2141	5	184	824	3956
19	0	0	2168	5	184	823	3957
20	0	0	2183	5	182	823	3957
21	0	0	2180	5	183	823	3957
22	0	0	2168	5	184	823	3958
23	0	0	2150	5	183	823	3957
24	0	0	2147	5	183	823	3957
25	0	0	2155	5	183	823	3958
26	0	0	2170	5	183	823	3957
27	0	0	2173	5	182	823	3957
28	0	0	2170	5	183	823	3957
29	0	0	2176	5	184	823	3957
30	0	0	2178	5	183	823	3957
31	0	0	2158	4	183	823	3958
32	0	0	2149	5	183	823	3956
33	0	0	2167	5	183	823	3957
34	0	0	2201	5	183	823	3956
35	0	0	2225	5	183	823	3957
36	0	0	2218	4	183	823	3956
37	0	0	2188	4	184	823	3956
38	0	0	2157	4	183	823	3956
39	0	0	2130	4	183	823	3957
40	0	0	2131	5	183	823	3958
41	0	0	2150	5	183	823	3957
42	0	0	2156	6	183	823	3958
43	0	0	2170	5	184	823	3957
44	0	0	2168	4	184	823	3957
45	0	0	2166	5	183	823	3957
46	0	0	2166	5	184	823	3956
47	0	0	2157	5	183	823	3957
48	0	0	2131	4	183	823	3956
49	0	0	2118	5	183	823	3957
50	0	0	2108	4	183	823	3957
51	0	0	2105	5	183	823	3958
52	0	0	2127	5	184	823	3957
53	0	0	2160	5	183	823	3957
54	0	0	2178	5	183	823	3958
55	0	0	2177	6	183	823	3958
56	0	0	2166	5	184	823	3956
57	0	0	2159	5	184	823	3958
58	0	0	2148	5	184	823	3957
59	0	0	2136	5	184	823	3957
60	0	0	2139	5	182	823	3958
61	0	0	2150	5	183	823	3958
62	0	0	2133	4	183	823	3956
63	0	0	2132	5	183	823	3957
64	0	0	2143	5	184	823	3957
65	0	0	2157	5	183	823	3957
66	0	0	2186	5	183	823	3957
67	0	0	2224	5	183	823	3956
68	0	0	2251	5	184	823	3956
69	0	0	2252	4	184	823	3956
70	0	0	2238	5	184	823	3957
71	0	0	2230	5	184	823	3957
72	0	0	2210	4	183	823	3958
73	0	0	2205	5	184	824	3957
74	0	0	2201	5	183	823	3957
75	0	0	2199	5	184	823	3958
76	0	0	2191	5	183	823	3958
77	0	0	2197	5	184	823	3957
78	0	0	2220	5	183	823	3957
79	0	0	2244	5	183	823	3957
80	0	0	2234	4	184	823	3957
81	0	0	2211	4	183	823	3956
82	0	0	2201	5	183	823	3956
83	0	0	2199	5	183	823	3958
84	0	0	2201	5	184	822	3957
85	0	0	2203	5	184	823	3958
86	0	0	2208	5	183	823	3957
87	0	0	2205	5	183	823	3956
88	0	0	2180	4	184	823	3956
89	0	0	2185	5	184	823	3958
90	0	0	2205	5	185	823	3958
91	0	0	2215	5	183	823	3957
92	0	0	2221	4	182	824	3957
93	0	0	2226	5	183	823	3958
94	0	0	2221	5	183	823	3958
95	0	0	2191	4	183	823	3957
96	0	0	2167	5	184	823	3958
97	0	0	2193	6	183	823	3956
98	0	0	2238	5	184	823	3957
99	0	0	2256	5	184	824	3958
100	0	0	2254	4	184	823	3957
101	0	0	2224	4	184	823	3958
102	0	0	2193	4	183	823	3956
103	0	0	2148	4	184	823	3957
104	0	0	2127	5	183	823	3956
105	0	0	2146	5	183	823	3957
106	0	0	2182	5	184	823	3957
107	0	0	2213	4	182	823	3957
108	0	0	2217	5	184	823	3956
109	0	0	2203	5	184	823	3958
110	0	0	2217	5	182	823	3958
111	0	0	2214	5	183	823	3957
112	0	0	2198	3	183	823	3956
113	0	0	2184	5	183	823	3957
114	0	0	2189	5	184	823	3958
115	0	0	2193	5	183	823	3957
116	0	0	2185	5	184	823	3956
117	0	0	2173	5	182	823	3958
118	0	0	2171	5	183	823	3957
119	0	0	2177	5	184	822	3957
120	0	0	2206	5	182	823	3957
121	0	0	2244	5	185	823	3956
122	0	0	2263	4	183	824	3957
123	0	0	2272	5	184	823	3958
124	0	0	2260	5	184	824	3958
125	0	0	2244	5	183	823	3957
126	0	0	2251	5	183	823	3957
127	0	0	2263	5	184	823	3958
0	0	0	2275	5	184	824	3956
1	0	0	2276	5	183	823	3957
2	0	0	2276	5	183	823	3957
3	0	0	2283	5	184	823	3956
4	0	0	2287	6	183	823	3956
5	0	0	2269	4	184	823	3956
6	0	0	2247	5	185	824	3957
7	0	0	2253	5	184	823	3957
8	0	0	2287	5	184	823	3957
9	0	0	2315	5	183	824	3957
10	0	0	2309	5	183	823	3956
11	0	0	2287	5	183	824	3957
12	0	0	2287	5	182	823	3958
13	0	0	2281	5	184	823	3958
14	0	0	2274	4	182	823	3957
15	0	0	2250	4	184	823	3957
16	0	0	2234	4	185	822	3957
17	0	0	2231	5	183	823	3957
18	0	0	2244	5	184	823	3956
19	0	0	2256	5	183	823	3956
20	0	0	2253	5	183	823	3956
21	0	0	2266	5	183	823	3957
22	0	0	2276	5	184	823	3958
23	0	0	2286	5	184	823	3956
24	0	0	2280	4	183	823	3958
25	0	0	2266	5	184	823	3957
26	0	0	2261	5	183	822	3957
27	0	0	2278	5	184	823	3958
28	0	0	2329	5	184	823	3957
29	0	0	2362	5	183	823	3957
30	0	0	2325	4	184	823	3957
31	0	0	2294	5	183	824	3958
32	0	0	2306	5	185	823	3958
33	0	0	2309	5	183	823	3957
34	0	0	2284	5	182	824	3956
35	0	0	2254	4	183	823	3957
36	0	0	2246	5	183	823	3958
37	0	0	2249	5	183	823	3957
38	0	0	2267	5	183	823	3956
39	0	0	2282	5	183	823	3958
40	0	0	2308	5	184	824	3957
41	0	0	2333	5	183	823	3957
42	0	0	2346	5	185	823	3958
43	0	0	2344	5	183	823	3957
44	0	0	2312	5	183	824	3956
45	0	0	2284	5	183	823	3957
46	0	0	2279	5	184	823	3958
47	0	0	2280	5	182	823	3958
48	0	0	2278	5	184	823	3958
49	0	0	2280	5	184	823	3957
50	0	0	2290	5	183	823	3957
51	0	0	2300	5	184	822	3958
52	0	0	2297	5	185	823	3957
53	0	0	2263	4	184	823	3956
54	0	0	2233	5	183	823	3956
55	0	0	2227	5	184	823	3956
56	0	0	2241	5	183	822	3957
57	0	0	2254	5	184	823	3957
58	0	0	2273	5	183	823	3957
59	0	0	2323	5	183	823	3956
60	0	0	2336	5	185	823	3957
61	0	0	2334	5	184	823	3957
62	0	0	2323	4	184	823	3958
63	0	0	2300	5	183	823	3958
64	0	0	2297	5	184	823	3957
65	0	0	2292	5	183	823	3958
66	0	0	2303	5	184	823	3958
67	0	0	2308	5	184	823	3957
68	0	0	2300	5	184	823	3958
69	0	0	2285	6	183	823	3956
70	0	0	2271	5	182	823	3957
71	0	0	2270	5	184	823	3958
72	0	0	2275	5	183	823	3957
73	0	0	2284	5	183	823	3956
74	0	0	2304	5	182	823	3957
75	0	0	2315	5	184	823	3956
76	0	0	2302	5	183	823	3957
77	0	0	2277	4	183	823	3958
78	0	0	2256	4	183	823	3956
79	0	0	2254	5	184	823	3957
80	0	0	2260	6	184	823	3957
81	0	0	2252	5	183	823	3957
82	0	0	2226	5	184	823	3958
83	0	0	2218	5	184	823	3957
84	0	0	2216	5	184	823	3957
85	0	0	2226	5	183	823	3958
86	0	0	2263	5	184	823	3958
87	0	0	2296	5	183	823	3957
88	0	0	2302	5	184	823	3958
89	0	0	2271	4	184	823	3956
90	0	0	2228	5	184	823	3956
91	0	0	2210	5	184	823	3956
92	0	0	2221	5	184	823	3958
93	0	0	2239	5	183	823	3956
94	0	0	2243	5	184	823	3956
95	0	1	2253	5	184	823	3957
96	0	1	2267	5	184	823	3957
97	0	1	2255	5	184	823	3958
98	0	1	2237	5	183	823	3957
99	0	1	2213	5	184	823	3957
100	0	1	2194	4	183	823	3957
101	0	1	2184	5	183	823	3958
102	0	1	2190	5	183	823	3957
103	0	1	2231	5	184	823	3957
104	0	1	2255	5	184	823	3956
105	0	1	2230	5	183	823	3957
106	0	1	2212	5	183	823	3958
107	0	1	2220	5	183	823	3957
108	0	1	2227	5	184	823	3958
109	0	1	2220	4	184	823	3957
110	0	1	2241	5	184	823	3957
111	0	1	2262	5	184	823	3956
112	0	1	2262	5	183	823	3957
113	0	1	2233	4	184	823	3954
114	0	1	2189	4	184	823	3957
115	0	1	2178	5	183	823	3957
116	0	1	2187	5	183	823	3957
117	0	1	2198	5	184	824	3958
118	0	1	2205	5	183	823	3956
119	0	1	2213	4	184	823	3958
120	0	1	2224	5	184	823	3957
121	0	1	2236	5	183	823	3956
122	0	1	2251	5	183	823	3957
123	0	1	2247	5	183	823	3956
124	0	1	2225	5	182	823	3957
125	0	1	2227	5	184	823	3957
126	0	1	2210	5	185	823	3957
127	0	1	2188	4	183	823	3957
0	0	1	2158	4	183	823	3957
1	0	1	2157	5	184	823	3957
2	0	1	2183	5	183	823	3957
3	0	1	2210	5	184	823	3958
4	0	1	2231	5	183	823	3958
5	0	1	2239	5	184	823	3957
6	0	1	2225	4	184	823	3958
7	0	1	2199	4	184	824	3957
8	0	1	2179	5	183	823	3956
9	0	1	2162	5	183	823	3957
10	0	1	2165	5	183	823	3956
11	0	1	2187	5	183	823	3957
12	0	1	2203	5	183	823	3957
13	0	1	2220	5	183	823	3958
14	0	1	2235	5	183	823	3957
15	0	1	2234	5	185	823	3956
16	0	1	2226	5	184	823	3957
17	0	1	2216	5	182	823	3957
18	0	1	2190	4	184	823	3957
19	0	1	2169	4	183	823	3958
20	0	1	2164	5	183	823	3957
21	0	1	2186	5	183	823	3957
22	0	1	2219	5	184	823	3957
23	0	1	2234	5	184	823	3957
24	0	1	2233	5	183	823	3957
25	0	1	2236	5	182	823	3957
26	0	1	2233	4	184	823	3958
27	0	1	2212	4	184	823	3956
28	0	1	2204	5	183	823	3957
29	0	1	2221	5	183	823	3957
30	0	1	2250	5	183	823	3957
31	0	1	2249	5	183	823	3957
32	0	1	2222	5	184	823	3957
33	0	1	2207	5	185	823	3957
34	0	1	2212	5	183	823	3958
35	0	1	2233	5	184	823	3958
36	0	1	2231	6	184	823	3957
37	0	1	2209	4	184	823	3958
38	0	1	2188	5	183	823	3958
39	0	1	2190	5	184	823	3957
40	0	1	2201	5	183	823	3958
41	0	1	2201	5	183	823	3956
42	0	1	2199	5	184	823	3957
43	0	1	2209	5	183	824	3958
44	0	1	2208	5	183	823	3957
45	0	1	2208	5	183	823	3957
46	0	1	2207	4	183	823	3956
47	0	1	2200	5	184	823	3958
48	0	1	2199	5	183	824	3957
49	0	1	2204	5	183	823	3957
50	0	1	2221	5	184	823	3957
51	0	1	2228	5	184	823	3957
52	0	1	2236	5	183	823	3957
53	0	1	2238	5	184	823	3958
54	0	1	2223	4	184	823	3958
55	0	1	2217	5	183	823	3957
56	0	1	2231	5	183	823	3958
57	0	1	2242	5	183	824	3956
58	0	1	2232	5	184	824	3957
59	0	1	2219	5	183	823	3957
60	0	1	2225	5	183	823	3956
61	0	1	2249	5	183	823	3956
62	0	1	2246	4	183	823	3956
63	0	1	2206	4	184	823	3957
64	0	1	2179	5	183	823	3957
65	0	1	2183	5	184	823	3958
66	0	1	2194	6	184	823	3956
67	0	1	2204	5	184	823	3957
68	1	1	2221	5	184	824	3958
69	1	1	2215	5	183	823	3957
70	1	1	2191	5	183	823	3957
71	1	1	2198	4	184	823	3957
72	1	1	2218	5	183	823	3957
73	1	1	2234	5	183	824	3957
74	1	1	2249	5	183	823	3958
75	1	1	2235	4	184	823	3957
76	1	1	2213	5	184	823	3958
77	1	1	2210	5	184	825	3957
78	1	1	2198	4	184	824	3957
79	1	1	2192	5	184	823	3958
80	1	1	2216	5	184	823	3957
81	1	1	2231	5	183	823	3958
82	1	1	2258	5	183	824	3957
83	1	1	2275	5	183	823	3958
84	1	1	2278	5	183	823	3958
85	1	1	2254	4	184	823	3957
86	1	1	2228	5	184	823	3957
87	1	1	2226	5	183	823	3957
88	1	1	2240	5	183	823	3957
89	1	1	2224	4	183	823	3958
90	1	1	2205	5	183	823	3957
91	1	1	2219	5	184	823	3957
92	1	1	2258	5	183	823	3957
93	1	1	2281	5	184	823	3957
94	1	1	2262	4	183	823	3957
95	1	1	2246	4	184	823	3957
96	1	1	2235	5	184	823	3957
97	1	1	2219	4	183	823	3957
98	1	1	2202	5	183	823	3957
99	1	1	2187	4	182	823	3958
100	1	1	2188	5	184	823	3957
101	1	1	2202	5	184	823	3957
102	1	1	2212	5	182	823	3957
103	1	1	2191	4	184	822	3957
104	1	1	2171	4	183	823	3958
105	1	1	2169	5	183	823	3957
106	1	1	2185	5	183	823	3957
107	1	1	2232	5	184	823	3957
108	1	1	2272	5	184	823	3957
109	1	1	2284	5	182	823	3957
110	1	1	2248	4	184	823	3957
111	1	1	2204	5	183	823	3957
112	1	1	2207	5	183	823	3957
113	1	1	2229	5	183	823	3958
114	1	1	2257	5	183	823	3958
115	1	1	2283	5	184	823	3957
116	1	1	2291	5	184	824	3958
117	1	1	2272	4	183	823	3957
118	1	1	2253	5	184	823	3957
119	1	1	2231	4	183	823	3958
120	1	1	2206	5	183	823	3957
121	1	1	2212	5	184	823	3958
122	1	1	2199	5	183	823	3957
123	1	1	2176	5	184	824	3957
124	1	1	2177	5	183	823	3957
125	1	1	2192	5	183	823	3957
126	1	1	2211	5	183	823	3957
127	1	1	2220	5	183	823	3957
0	1	1	2241	5	183	823	3956
1	1	1	2258	5	183	823	3957
2	1	1	2278	5	183	823	3956
3	1	1	2265	5	184	823	3957
4	1	1	2236	4	183	823	3957
5	1	1	2199	5	183	823	3957
6	1	1	2193	5	182	823	3958
7	1	1	2220	5	183	823	3958
8	1	1	2238	4	182	823	3957
9	1	1	2236	5	184	823	3958
10	1	1	2246	4	183	823	3958
11	1	1	2260	5	183	823	3957
12	1	1	2252	5	184	823	3958
13	1	1	2225	5	185	823	3956
14	1	1	2177	4	184	823	3957
15	1	1	2149	4	183	823	3963
16	1	1	2142	5	182	823	3957
17	1	1	2156	5	184	823	3957
18	1	1	2173	5	184	823	3956
19	1	1	2196	5	183	823	3957
20	1	1	2234	5	183	823	3957
21	1	1	2243	5	183	823	3958
22	1	1	2215	4	183	823	3957
23	1	1	2203	5	183	823	3957
24	1	1	2192	3	183	823	3958
25	1	1	2182	5	183	823	3958
26	1	1	2178	5	184	823	3958
27	1	1	2180	5	184	824	3958
28	1	1	2208	5	183	824	3956
29	1	1	2223	5	184	823	3956
30	1	1	2202	4	183	823	3957
31	1	1	2170	4	184	823	3958
32	1	1	2170	5	184	823	3956
33	1	1	2196	5	183	823	3957
34	1	1	2215	4	184	823	3957
35	1	1	2217	5	182	823	3957
36	1	1	2210	5	182	823	3957
37	1	1	2188	5	184	823	3957
38	1	1	2182	5	183	823	3957
39	1	1	2165	4	184	824	3957
40	1	1	2144	4	183	823	3957
41	1	1	2143	5	183	823	3958
42	1	1	2166	5	183	823	3957
43	1	1	2190	5	184	824	3958
44	1	1	2206	5	184	823	3957
45	1	1	2224	5	182	824	3957
46	1	1	2233	5	183	823	3958
47	1	1	2240	5	183	823	3957
48	1	1	2243	5	184	824	3957
49	1	1	2240	5	184	823	3957
50	1	1	2234	5	183	823	3957
51	1	1	2213	4	183	823	3957
52	1	1	2181	4	184	823	3958
53	1	1	2162	4	183	823	3957
54	1	1	2152	4	184	823	3958
55	1	1	2163	5	182	823	3958
56	1	1	2173	4	183	823	3958
57	1	1	2166	5	183	823	3958
58	1	1	2161	5	184	823	3957
59	1	1	2162	5	183	823	3957
60	1	1	2164	5	184	823	3958
61	1	1	2170	5	184	823	3958
62	1	1	2179	5	183	823	3958
63	1	1	2180	6	183	823	3956
64	1	1	2168	3	183	823	3957
65	1	1	2157	5	183	823	3958
66	1	1	2159	5	184	823	3957
67	1	1	2171	5	183	823	3956
68	1	1	2176	5	184	823	3957
69	1	1	2174	5	184	823	3957
70	1	1	2171	5	183	824	3957
71	1	1	2163	5	184	823	3958
72	1	1	2161	5	184	823	3957
73	1	1	2181	5	184	823	3958
74	1	1	2189	5	183	823	3958
75	1	1	2177	5	183	823	3957
76	1	1	2175	5	183	823	3958
77	1	1	2181	5	184	823	3957
78	1	1	2200	5	183	823	3957
79	1	1	2210	4	184	823	3957
80	1	1	2208	5	184	823	3957
81	1	1	2219	5	182	823	3958
82	1	1	2229	5	183	823	3956
83	1	1	2238	5	184	823	3957
84	1	1	2237	4	184	823	3957
85	1	1	2203	4	184	824	3958
86	1	1	2163	4	184	823	3958
87	1	1	2127	5	183	823	3957
88	1	1	2120	5	184	823	3958
89	1	1	2144	5	184	823	3957
90	1	1	2163	5	184	823	3958
91	1	1	2164	4	184	823	3958
92	1	1	2147	4	183	823	3957
93	1	1	2153	5	184	823	3957
94	1	1	2186	5	184	823	3960
95	1	1	2224	5	183	823	3957
96	1	1	2215	5	183	823	3957
97	1	1	2192	4	184	823	3957
98	1	1	2179	5	184	823	3957
99	1	1	2167	5	183	823	3957
100	1	1	2139	4	184	823	3956
101	1	1	2120	5	183	823	3958
102	1	1	2122	5	184	823	3958
103	1	1	2137	6	183	823	3957
104	1	1	2151	5	183	823	3958
105	1	1	2168	5	183	823	3958
106	1	1	2172	5	183	823	3958
107	1	1	2160	5	183	823	3958
108	1	1	2163	7	183	823	3957
109	1	1	2154	5	184	823	3957
110	1	1	2145	5	183	823	3957
111	1	1	2154	5	184	823	3958
112	1	1	2170	5	184	823	3957
113	1	1	2172	5	184	823	3957
114	1	1	2165	5	183	823	3957
115	1	1	2155	5	184	823	3957
116	1	1	2140	5	184	823	3958
117	1	1	2138	5	184	823	3956
118	1	1	2171	5	183	823	3957
119	1	1	2191	5	183	823	3957
120	1	1	2188	5	184	824	3957
121	1	1	2183	5	184	823	3957
122	1	1	2185	5	183	823	3957
123	1	1	2192	5	183	823	3958
124	1	1	2196	5	184	823	3957
125	1	1	2207	5	183	823	3958
126	1	1	2194	4	184	824	3958
127	1	1	2162	4	183	823	3957
0	1	1	2149	5	184	823	3957
1	1	1	2155	5	183	823	3957
2	1	1	2158	5	183	823	3958
3	1	1	2156	5	183	823	3957
4	1	1	2167	5	184	823	3958
5	1	1	2173	6	183	823	3957
6	1	1	2182	6	184	823	3957
7	1	1	2199	5	183	823	3958
8	1	1	2207	5	183	823	3957
9	1	1	2222	5	184	823	3957
10	1	1	2229	5	184	823	3957
11	1	1	2212	5	183	823	3957
12	1	1	2205	5	184	823	3958
13	1	1	2177	5	184	823	3958
14	1	1	2138	4	183	823	3958
15	1	1	2130	4	184	823	3957
16	1	1	2137	6	184	823	3957
17	1	1	2138	5	183	823	3957
18	1	1	2160	5	184	823	3957
19	1	1	2179	5	183	823	3957
20	1	1	2197	5	184	823	3957
21	1	1	2213	5	184	823	3957
22	1	1	2189	4	184	823	3957
23	1	1	2159	4	184	823	3958
24	1	1	2152	5	184	823	3957
25	1	1	2161	5	183	823	3957
26	1	1	2166	5	184	823	3957
27	1	1	2170	5	183	823	3958
28	1	1	2153	4	183	823	3958
29	1	1	2126	5	184	823	3957
30	1	1	2117	5	183	823	3958
31	1	1	2140	5	183	824	3957
32	1	1	2170	5	184	823	3958
33	1	1	2177	5	183	823	3958
34	1	1	2173	5	183	823	3957
35	1	1	2158	5	183	823	3957
36	1	1	2149	5	184	823	3958
37	1	1	2152	5	184	824	3957
38	1	1	2195	5	184	824	3958
39	1	1	2242	5	183	823	3958
40	1	1	2239	5	183	823	3957
41	1	1	2229	5	185	823	3957
42	1	1	2213	4	183	823	3958
43	1	1	2187	4	183	823	3958
44	1	1	2185	5	183	823	3957
45	1	1	2200	5	183	823	3958
46	1	1	2198	5	184	823	3958
47	1	1	2184	5	183	824	3958
48	1	1	2199	5	184	823	3959
49	1	1	2222	5	183	823	3957
50	1	1	2201	4	183	823	3958
51	1	1	2158	4	184	823	3957
52	1	1	2152	5	183	823	3957
53	1	1	2178	5	184	823	3958
54	1	1	2193	5	183	823	3957
55	1	1	2175	5	184	823	3957
56	1	1	2167	5	183	823	3957
57	1	1	2164	5	183	823	3957
58	1	1	2154	5	183	823	3958
59	1	1	2163	5	184	824	3958
60	1	1	2174	6	183	823	3957
61	1	1	2178	6	183	823	3957
62	1	1	2174	5	184	823	3958
63	1	1	2170	5	183	823	3958
64	1	1	2171	5	184	823	3958
65	1	1	2172	5	184	823	3959
66	1	1	2183	5	183	823	3957
67	1	1	2191	5	183	823	3957
68	1	1	2199	5	184	823	3958
69	1	1	2216	5	183	823	3957
70	1	1	2220	5	184	823	3957
71	1	1	2199	5	183	824	3957
72	1	1	2204	5	181	824	3957
73	1	1	2230	5	184	823	3957
74	1	1	2232	5	184	823	3957
75	1	1	2207	4	183	823	3957
76	1	1	2178	5	183	824	3957
77	1	1	2160	4	184	823	3957
78	1	1	2157	5	184	824	3958
79	1	1	2135	4	183	824	3959
80	1	1	2121	5	182	823	3958
81	1	1	2143	5	184	823	3958
82	1	1	2191	5	184	824	3958
83	1	1	2219	5	183	823	3958
84	1	1	2223	5	183	823	3958
85	1	1	2205	5	184	823	3957
86	1	1	2194	5	185	823	3957
87	1	1	2214	4	184	823	3957
88	1	1	2237	5	183	823	3958
89	1	1	2245	5	185	823	3957
90	1	1	2194	4	184	823	3958
91	1	1	2139	4	184	823	3958
92	1	1	2111	4	184	824	3957
93	1	1	2100	5	183	823	3958
94	1	1	2125	5	184	823	3957
95	1	1	2169	5	183	823	3957
96	1	1	2180	6	184	823	3957
97	1	1	2172	5	183	823	3957
98	1	1	2170	5	183	823	3958
99	1	1	2176	5	183	823	3958
100	1	1	2202	5	182	824	3957
101	1	1	2222	5	183	823	3958
102	1	1	2230	5	183	824	3958
103	1	1	2229	5	183	824	3958
104	1	1	2241	5	183	823	3957
105	1	1	2244	4	185	823	3957
106	1	1	2201	5	182	824	3957
107	1	1	2159	4	183	823	3957
108	1	1	2119	4	183	824	3958
109	1	1	2111	5	184	823	3957
110	1	1	2145	5	183	823	3958
111	1	1	2180	5	184	824	3958
112	1	1	2206	5	183	823	3958
113	1	1	2215	5	183	823	3958
114	1	1	2214	5	183	823	3959
115	1	1	2192	4	183	823	3957
116	1	1	2184	5	183	822	3958
117	1	1	2194	5	184	823	3957
118	1	1	2190	5	183	823	3958
119	1	1	2189	5	183	823	3957
120	1	1	2204	5	184	823	3957
121	1	1	2211	5	183	823	3957
122	1	1	2200	5	184	823	3958
123	1	1	2174	4	184	824	3958
124	1	1	2172	5	184	823	3957
125	1	1	2194	6	183	823	3957
126	1	1	2196	5	183	824	3957
127	1	1	2198	5	184	824	3957
0	1	1	2237	5	183	823	3958
1	1	1	2279	5	183	823	3957
2	1	1	2296	5	182	823	3959
3	1	1	2266	5	183	823	3958
4	1	1	2228	4	182	823	3958
5	1	1	2224	5	183	823	3958
6	1	1	2204	4	183	823	3957
7	1	1	2163	4	184	823	3957
8	1	1	2153	6	182	823	3957
9	1	1	2164	5	184	823	3957
10	1	1	2177	5	183	823	3958
11	1	1	2179	5	184	823	3957
12	1	1	2187	5	182	824	3957
13	1	1	2196	5	182	823	3957
14	1	1	2201	4	184	824	3957
15	1	1	2205	5	183	823	3958
16	1	1	2209	5	183	823	3957
17	1	1	2189	4	184	822	3958
18	1	1	2176	5	183	823	3958
19	1	1	2173	5	183	823	3958
20	1	1	2190	5	183	823	3958
21	1	1	2210	5	183	823	3957
22	1	1	2211	5	183	823	3957
23	1	1	2188	5	183	823	3957
24	1	1	2172	4	183	824	3957
25	1	1	2181	5	184	823	3957
26	1	1	2201	5	183	823	3957
27	1	1	2204	5	183	823	3956
28	1	1	2195	5	183	823	3957
29	1	1	2171	5	183	824	3958
30	1	1	2176	5	183	823	3958
31	1	1	2199	5	183	824	3958
32	1	1	2221	5	183	823	3957
33	1	1	2257	6	184	823	3957
34	1	1	2276	5	184	823	3959
35	1	1	2281	5	184	823	3958
36	1	1	2286	5	183	823	3957
37	1	1	2267	4	182	823	3958
38	1	1	2226	4	183	823	3958
39	1	1	2214	5	184	823	3958
40	1	1	2243	6	183	823	3958
41	1	1	2276	5	183	823	3957
42	1	1	2302	5	183	823	3957
43	1	1	2301	6	184	823	3957
44	1	1	2278	5	182	823	3957
45	1	1	2267	5	183	823	3958
46	1	1	2231	4	183	823	3957
47	1	1	2192	5	183	823	3957
48	1	1	2192	5	183	823	3957
49	1	1	2206	5	184	824	3957
50	1	1	2217	5	183	823	3958
51	1	1	2212	5	183	824	3958
52	1	1	2223	5	183	823	3958
53	1	1	2237	6	183	823	3958
54	1	1	2239	5	183	823	3958
55	1	1	2246	5	183	823	3957
56	1	1	2242	5	183	823	3958
57	1	1	2215	4	184	824	3957
58	1	1	2214	5	185	823	3957
59	1	1	2235	4	183	823	3957
60	1	1	2233	5	184	823	3957
61	1	1	2231	5	185	823	3958
62	1	1	2253	5	183	823	3957
63	1	1	2245	4	182	823	3957
64	1	1	2199	4	183	823	3957
65	1	1	2184	5	183	823	3958
66	1	1	2198	5	183	823	3957
67	1	1	2215	5	184	823	3958
68	1	1	2219	5	184	823	3958
69	1	1	2207	4	183	823	3958
70	1	1	2188	5	183	823	3958
71	1	1	2180	5	182	823	3957
72	1	1	2183	5	183	823	3957
73	1	1	2188	5	184	823	3957
74	1	1	2180	5	183	824	3957
75	1	1	2170	5	183	823	3957
76	1	1	2177	5	183	823	3957
77	1	1	2178	4	183	823	3957
78	1	1	2180	7	184	823	3957
79	1	1	2204	5	184	823	3958
80	1	1	2210	5	184	823	3957
81	1	1	2237	5	184	823	3958
82	1	1	2234	4	182	824	3957
83	1	1	2207	5	184	823	3957
84	1	1	2191	4	182	823	3957
85	1	1	2177	5	185	823	3958
86	1	1	2167	4	185	823	3958
87	1	1	2159	5	184	823	3957
88	1	1	2132	4	183	823	3957
89	1	1	2121	5	184	823	3957
90	1	1	2124	5	184	823	3957
91	1	1	2138	5	184	823	3957
92	1	1	2162	5	182	823	3958
93	1	1	2176	5	183	823	3958
94	1	1	2174	4	183	823	3957
95	1	1	2148	5	184	823	3958
96	1	1	2143	4	184	823	3958
97	1	1	2156	6	183	823	3957
98	1	1	2173	5	183	823	3957
99	1	1	2187	4	184	823	3957
100	1	1	2186	5	183	823	3958
101	1	1	2187	5	184	823	3957
102	1	1	2194	5	183	823	3957
103	1	1	2198	5	183	823	3957
104	1	1	2194	4	183	823	3957
105	1	1	2166	4	183	823	3958
106	1	1	2154	5	184	823	3957
107	1	1	2170	5	183	823	3958
108	1	1	2198	5	184	823	3957
109	1	1	2219	5	183	823	3957
110	1	1	2214	5	184	823	3957
111	1	1	2201	5	184	823	3957
112	1	1	2193	5	183	823	3958
113	1	1	2193	5	184	823	3957
114	1	1	2188	5	183	823	3957
115	1	1	2184	5	183	823	3958
116	1	1	2184	5	182	823	3957
117	1	1	2190	5	183	823	3957
118	1	1	2201	5	183	823	3958
119	1	1	2202	5	183	823	3959
120	1	1	2215	5	183	823	3958
121	1	1	2224	5	183	823	3958
122	1	1	2179	4	182	823	3957
123	1	1	2131	4	184	823	3957
124	1	1	2131	5	184	823	3957
125	1	1	2159	5	184	823	3957
126	1	1	2167	5	183	823	3957
127	1	1	2156	5	183	824	3957
0	1	1	2160	5	183	823	3957
1	1	1	2150	4	184	824	3957
2	1	1	2134	4	183	823	3958
3	1	1	2129	5	183	823	3957
4	1	1	2153	5	184	823	3958
5	1	1	2179	5	183	823	3958
6	1	1	2167	5	184	823	3958
7	1	1	2141	4	183	823	3958
8	1	1	2114	4	184	823	3958
9	1	1	2110	5	183	823	3958
10	1	1	2105	5	184	823	3957
11	1	1	2104	5	183	823	3957
12	1	1	2116	5	184	823	3957
13	1	1	2127	5	184	823	3957
14	1	1	2141	5	184	823	3957
15	1	1	2121	5	183	823	3957
16	1	1	2110	5	183	823	3957
17	1	1	2122	5	184	823	3958
18	1	1	2148	5	183	823	3957
19	1	1	2173	5	184	823	3957
20	1	1	2168	5	184	823	3957
21	1	1	2138	4	183	823	3957
22	1	1	2133	5	183	823	3958
23	1	1	2139	5	184	823	3959
24	1	1	2142	5	183	823	3957
25	1	1	2151	5	183	823	3958
26	1	1	2176	5	183	823	3958
27	1	1	2211	5	183	823	3957
28	1	1	2246	5	184	823	3958
29	1	1	2252	5	183	824	3957
30	1	1	2204	5	184	823	3957
31	1	1	2173	5	183	823	3958
32	1	1	2181	5	183	823	3958
33	1	1	2223	5	182	823	3957
34	1	1	2270	5	184	824	3957
35	1	1	2305	5	183	823	3957
36	1	1	2346	5	184	823	3958
37	1	1	2401	5	184	823	3958
38	1	1	2443	5	184	823	3957
39	1	1	2447	6	183	823	3958
40	1	1	2438	6	184	824	3957
41	1	1	2463	5	184	823	3958
42	1	1	2497	5	183	823	3958
43	1	1	2523	5	184	824	3958
44	1	1	2544	5	183	823	3957
45	1	1	2575	6	183	823	3957
46	1	1	2588	5	184	823	3958
47	1	1	2578	5	183	823	3958
48	1	1	2589	6	183	823	3957
49	1	1	2633	5	183	823	3958
50	1	1	2656	5	183	823	3958
51	1	1	2656	5	183	823	3958
52	1	1	2667	5	183	823	3958
53	1	1	2698	5	183	823	3957
54	1	1	2748	5	183	823	3957
55	1	1	2783	5	183	823	3957
56	1	1	2760	4	184	823	3957
57	1	1	2698	5	183	822	3958
58	1	1	2627	4	183	823	3957
59	1	1	2556	5	184	823	3957
60	1	1	2455	4	184	823	3957
61	1	1	2388	5	184	823	3957
62	1	1	2362	5	183	823	3958
63	1	1	2362	4	183	824	3958
64	1	1	2379	5	182	823	3957
65	1	1	2356	5	184	823	3957
66	1	1	2301	4	184	823	3960
67	1	1	2244	4	184	822	3957
68	1	1	2202	4	183	824	3957
69	1	1	2172	4	182	824	3958
70	1	1	2145	4	184	824	3958
71	1	1	2137	5	183	823	3957
72	1	1	2125	5	184	823	3958
73	1	1	2108	5	183	823	3957
74	1	1	2091	5	183	823	3957
75	1	1	2092	5	182	823	3957
76	1	1	2131	5	184	824	3957
77	1	1	2169	5	184	823	3958
78	1	1	2166	5	184	823	3957
79	1	1	2129	5	183	823	3957
80	1	1	2109	5	183	823	3957
81	1	1	2114	5	184	823	3957
82	1	1	2119	5	183	822	3958
83	1	1	2123	4	184	823	3958
84	1	1	2134	5	182	823	3957
85	1	1	2153	5	183	823	3958
86	1	1	2166	5	182	823	3958
87	1	1	2175	5	184	822	3958
88	1	1	2148	5	183	823	3957
89	1	1	2113	4	183	823	3957
90	1	1	2109	6	183	823	3958
91	1	1	2140	5	183	823	3958
92	1	1	2177	5	184	822	3958
93	1	1	2143	5	183	823	3957
94	1	1	2121	5	183	823	3957
95	1	1	2119	5	183	823	3957
96	1	1	2096	5	183	823	3957
97	1	1	2068	5	183	823	3958
98	1	1	2075	5	183	823	3957
99	1	1	2089	5	184	823	3957
100	1	1	2084	6	183	823	3957
101	1	1	2078	5	182	823	3957
102	1	1	2089	5	184	822	3958
103	1	1	2121	4	183	824	3958
104	1	1	2120	4	184	824	3958
105	1	1	2095	5	183	823	3957
106	1	1	2083	5	183	824	3958
107	1	1	2081	4	184	823	3959
108	1	1	2033	4	184	823	3957
109	1	1	2002	5	183	823	3958
110	1	1	2025	5	183	824	3957
111	1	1	2069	5	184	823	3957
112	1	1	2102	5	183	823	3958
113	1	1	2119	5	183	823	3957
114	1	1	2128	5	183	823	3958
115	1	1	2139	5	184	823	3958
116	1	1	2156	5	183	823	3957
117	1	1	2172	5	184	823	3957
118	1	1	2169	5	185	823	3957
119	1	1	2134	4	184	823	3958
120	1	1	2096	5	183	823	3957
121	1	1	2071	4	183	823	3957
122	1	1	2072	5	183	823	3958
123	1	1	2063	5	184	823	3957
124	1	1	2065	5	183	823	3957
125	1	1	2073	5	183	823	3958
126	1	1	2085	5	183	823	3958
127	1	1	2102	5	183	823	3957
0	1	1	2106	4	184	823	3958
1	1	1	2106	5	186	823	3957
2	1	1	2118	5	183	824	3957
3	1	1	2139	5	183	823	3957
4	1	1	2144	5	183	823	3957
5	1	1	2125	4	184	823	3957
6	1	1	2100	4	183	823	3957
7	1	1	2080	5	183	823	3958
8	1	1	2057	4	183	823	3957
9	1	1	2040	4	183	823	3958
10	1	1	2025	5	183	823	3957
11	1	1	2024	5	183	823	3957
12	1	1	2037	5	183	823	3958
13	1	1	2066	5	183	824	3958
14	1	1	2079	5	182	823	3958
15	1	1	2109	5	183	823	3957
16	1	1	2125	5	184	823	3957
17	1	1	2118	6	183	823	3952
18	1	1	2113	4	184	823	3958
19	1	1	2096	5	183	823	3957
20	1	1	2092	5	182	823	3958
21	1	1	2112	5	182	824	3957
22	1	1	2121	5	183	824	3957
23	1	1	2104	5	184	823	3957
24	1	1	2078	4	184	823	3957
25	1	1	2056	4	184	823	3957
26	1	1	2055	5	183	823	3957
27	1	1	2073	5	183	824	3958
28	1	1	2072	4	184	823	3957
29	1	1	2072	5	183	823	3958
30	1	1	2086	5	183	823	3957
31	1	1	2108	5	184	823	3957
32	1	1	2131	6	184	823	3958
33	1	1	2128	5	184	823	3957
34	1	1	2102	4	183	823	3958
35	1	1	2084	5	183	823	3957
36	1	1	2104	5	183	823	3958
37	1	1	2123	5	184	823	3957
38	1	1	2097	5	183	823	3958
39	1	1	2066	4	183	823	3958
40	1	1	2059	5	184	823	3957
41	1	1	2071	5	184	823	3957
42	1	1	2069	5	183	823	3957
43	1	1	2075	5	183	823	3958
44	1	1	2108	5	184	823	3958
45	1	1	2127	5	183	823	3958
46	1	1	2127	5	183	823	3959
47	1	1	2125	5	183	824	3958
48	1	1	2120	6	183	823	3958
49	1	1	2120	4	184	823	3957
50	1	1	2089	4	183	823	3957
51	1	1	2083	5	184	823	3957
52	1	1	2096	5	182	823	3957
53	1	1	2104	5	183	823	3958
54	1	1	2111	5	183	823	3957
55	1	1	2126	4	184	824	3958
56	1	1	2152	5	185	823	3957
57	1	1	2147	5	184	824	3957
58	1	1	2118	5	184	823	3958
59	1	1	2093	4	184	823	3958
60	1	1	2089	5	183	823	3957
61	1	1	2117	5	184	823	3957
62	1	1	2125	5	183	823	3958
63	1	1	2109	4	184	823	3958
64	1	1	2113	5	184	823	3958
65	1	1	2133	5	183	823	3957
66	1	1	2126	4	184	823	3957
67	1	1	2118	5	182	823	3957
68	1	1	2097	5	184	823	3957
69	1	1	2056	4	183	823	3958
70	1	1	2030	4	183	823	3957
71	1	1	2036	5	184	823	3957
72	1	1	2058	5	183	823	3957
73	1	1	2090	5	183	823	3958
74	1	1	2119	5	184	823	3957
75	1	1	2115	5	183	823	3957
76	1	1	2094	5	183	823	3958
77	1	1	2102	5	184	824	3958
78	1	1	2131	5	183	823	3958
79	1	1	2139	5	183	823	3958
80	1	1	2132	4	183	823	3957
81	1	1	2128	5	182	823	3957
82	1	1	2124	5	183	823	3958
83	1	1	2112	5	184	823	3957
84	1	1	2107	5	183	823	3957
85	1	1	2114	5	184	823	3957
86	1	1	2117	6	183	823	3957
87	1	1	2099	5	182	823	3958
88	1	1	2075	4	183	823	3957
89	1	1	2056	5	184	823	3957
90	1	1	2061	4	183	823	3957
91	1	1	2088	5	183	823	3957
92	1	1	2117	5	183	823	3958
93	1	1	2146	6	183	823	3958
94	1	1	2154	5	183	823	3958
95	1	1	2142	6	183	823	3957
96	1	1	2124	4	183	824	3958
97	1	1	2118	5	183	823	3959
98	1	1	2132	5	183	823	3958
99	1	1	2136	5	183	823	3958
100	1	1	2150	5	183	823	3957
101	1	1	2151	5	183	823	3957
102	1	1	2121	4	181	823	3957
103	1	1	2084	4	183	823	3957
104	1	1	2078	5	183	823	3957
105	1	1	2088	4	184	823	3958
106	1	1	2113	5	185	823	3957
107	1	1	2146	5	182	823	3957
108	1	1	2170	5	183	823	3958
109	1	1	2165	5	183	823	3957
110	1	1	2142	4	183	825	3958
111	1	1	2096	4	183	823	3958
112	1	1	2063	5	183	823	3958
113	1	1	2077	5	184	823	3957
114	1	1	2098	5	183	823	3958
115	1	1	2120	4	183	823	3957
116	1	1	2147	6	184	823	3957
117	1	1	2126	4	183	823	3957
118	1	1	2107	5	183	823	3958
119	1	1	2112	5	183	823	3957
120	1	1	2149	5	183	823	3957
121	1	1	2190	5	184	824	3958
122	1	1	2218	5	183	823	3957
123	1	1	2240	5	184	824	3957
124	1	1	2244	5	184	823	3958
125	1	1	2216	5	183	823	3957
126	1	1	2179	5	183	823	3957
127	1	1	2157	4	182	823	3957
0	1	1	2155	5	184	823	3958
1	1	1	2152	5	184	823	3958
2	1	1	2152	4	184	823	3958
3	1	1	2165	5	185	823	3957
4	1	1	2168	5	184	823	3958
5	1	1	2154	5	183	823	3958
6	1	1	2150	5	183	823	3957
7	1	1	2127	4	184	823	3958
8	1	1	2121	5	185	823	3957
9	1	1	2137	5	181	823	3958
10	1	1	2162	5	183	824	3958
11	1	1	2181	5	182	823	3957
12	1	1	2196	5	184	823	3957
13	1	1	2195	5	183	823	3957
14	1	1	2167	5	184	823	3957
15	1	1	2138	4	183	823	3958
16	1	1	2129	5	183	823	3958
17	1	1	2144	5	184	823	3957
18	1	1	2174	5	184	823	3958
19	1	1	2181	5	183	823	3958
20	1	1	2160	4	185	823	3957
21	1	1	2132	4	183	823	3958
22	1	1	2104	5	183	823	3957
23	1	1	2108	5	184	824	3958
24	1	1	2150	5	183	823	3957
25	1	1	2198	5	183	824	3958
26	1	1	2199	5	183	823	3957
27	1	1	2174	5	183	823	3957
28	1	1	2168	5	184	823	3957
29	1	1	2172	5	184	823	3957
30	1	1	2178	5	184	823	3958
31	1	1	2149	4	183	823	3958
32	1	1	2109	4	184	823	3957
33	1	1	2096	5	183	823	3957
34	1	1	2103	6	184	823	3958
35	1	1	2104	5	184	823	3958
36	1	1	2105	5	183	823	3957
37	1	1	2084	4	184	823	3957
38	1	1	2079	5	183	823	3958
39	1	1	2111	5	183	823	3958
40	1	1	2143	4	183	823	3958
41	1	1	2164	5	184	823	3958
42	1	1	2171	5	183	823	3957
43	1	1	2171	5	183	823	3958
44	1	1	2169	5	183	823	3958
45	1	1	2172	5	183	823	3958
46	1	1	2180	5	184	823	3957
47	1	1	2149	4	183	824	3957
48	1	1	2109	4	184	823	3957
49	1	1	2110	6	184	823	3957
50	1	1	2140	4	183	823	3958
51	1	1	2170	5	183	823	3958
52	1	1	2163	4	183	823	3957
53	1	1	2130	4	183	823	3957
54	1	1	2097	4	184	823	3957
55	1	1	2064	4	183	823	3958
56	1	1	2079	5	183	823	3958
57	1	1	2129	5	184	823	3957
58	1	1	2182	5	183	823	3958
59	1	1	2206	5	183	823	3958
60	1	1	2184	4	183	823	3958
61	1	1	2177	5	183	823	3957
62	1	1	2161	5	183	823	3957
63	1	1	2136	4	183	823	3957
64	1	1	2111	4	184	823	3958
65	1	1	2095	5	183	823	3958
66	1	1	2106	5	184	823	3958
67	1	1	2131	5	183	823	3958
68	1	1	2156	4	183	824	3957
69	1	1	2194	5	184	823	3957
70	1	1	2195	4	183	823	3958
71	1	1	2142	4	183	823	3958
72	1	1	2085	4	184	823	3957
73	1	1	2070	5	183	823	3957
74	1	1	2073	5	185	823	3957
75	1	1	2077	4	183	823	3957
76	1	1	2082	5	183	823	3957
77	1	1	2076	5	184	823	3957
78	1	1	2054	4	183	823	3957
79	1	1	2028	4	183	823	3958
80	1	1	2038	5	184	823	3958
81	1	1	2076	5	183	823	3957
82	1	1	2083	5	184	823	3958
83	1	1	2067	4	184	823	3958
84	1	1	2041	4	183	823	3957
85	1	1	2025	4	183	823	3958
86	1	1	2051	5	183	823	3957
87	1	1	2089	5	183	823	3957
88	1	1	2099	5	183	823	3957
89	1	1	2074	4	183	822	3957
90	1	1	2069	4	183	823	3958
91	1	1	2097	5	184	823	3958
92	1	1	2098	5	184	823	3957
93	1	1	2084	4	184	823	3957
94	1	1	2085	5	183	823	3957
95	1	1	2077	5	185	823	3958
96	1	1	2053	4	183	823	3958
97	1	1	2035	4	183	824	3958
98	1	1	2004	4	182	823	3957
99	1	1	1988	5	184	823	3957
100	1	1	2017	4	182	823	3958
101	1	1	2063	5	183	823	3958
102	1	1	2077	5	183	823	3957
103	1	1	2064	4	183	823	3957
104	1	1	2043	4	183	823	3957
105	1	1	2023	4	183	823	3957
106	1	1	2018	5	184	823	3957
107	1	1	2020	5	183	823	3956
108	1	1	2040	5	183	823	3958
109	1	1	2056	5	183	823	3958
110	1	1	2041	3	183	823	3958
111	1	1	2017	5	183	823	3958
112	1	1	2014	6	183	823	3957
113	1	1	2028	5	184	823	3958
114	1	1	2034	5	184	823	3958
115	1	1	2045	4	183	823	3958
116	1	1	2075	5	183	823	3958
117	1	1	2077	5	182	823	3957
118	1	1	2065	5	183	823	3958
119	1	1	2026	4	183	823	3957
120	1	1	1972	3	183	823	3958
121	1	1	1957	5	184	823	3957
122	1	1	1976	5	184	823	3957
123	1	1	1988	5	183	823	3956
124	1	1	1981	5	185	823	3957
125	1	1	1998	5	183	823	3958
126	1	1	2031	5	184	823	3957
127	1	1	2057	5	183	823	3957
0	1	1	2065	5	184	823	3958
1	1	1	2068	5	184	823	3958
2	1	1	2077	5	183	823	3958
3	1	1	2082	5	183	823	3957
4	1	1	2064	5	184	823	3957
5	1	1	2053	5	183	823	3957
6	1	1	2038	4	184	823	3958
7	1	1	2011	4	184	823	3958
8	1	1	1989	5	183	823	3958
9	1	1	1996	4	182	823	3957
10	1	1	2006	5	184	823	3957
11	1	1	2008	5	183	823	3957
12	1	1	1994	3	184	824	3957
13	1	1	1987	5	183	823	3958
14	1	1	2001	4	183	823	3957
15	1	1	2040	6	183	823	3957
16	1	1	2049	5	184	823	3957
17	1	1	2028	3	183	823	3958
18	1	1	1989	4	183	823	3957
19	1	1	1976	5	183	823	3958
20	1	1	1993	5	185	823	3957
21	1	1	2003	5	184	823	3957
22	1	1	2012	5	184	823	3958
23	1	1	2036	5	183	823	3957
24	1	1	2063	5	183	823	3957
25	1	1	2072	5	184	823	3958
26	1	1	2051	4	183	823	3957
27	1	1	2020	3	183	823	3958
28	1	1	2017	5	184	823	3957
29	1	1	2041	5	183	823	3957
30	1	1	2035	4	183	823	3957
31	1	1	1994	4	184	823	3957
32	1	1	1988	4	183	823	3958
33	1	1	2010	5	183	823	3957
34	1	1	2033	5	184	823	3957
35	1	1	2044	5	183	823	3957
36	1	1	2049	5	182	823	3956
37	1	1	2048	4	182	823	3958
38	1	1	2032	5	183	823	3956
39	1	1	2035	5	184	824	3959
40	1	1	2018	4	183	824	3957
41	1	1	2002	5	184	823	3958
42	1	1	2018	5	184	823	3958
43	1	1	2027	5	185	823	3957
44	1	1	2036	5	183	823	3958
45	1	1	2048	5	184	823	3957
46	1	1	2048	5	184	823	3957
47	1	1	2058	5	183	824	3958
48	1	1	2074	5	184	823	3957
49	1	1	2086	5	184	823	3958
50	1	1	2067	4	183	823	3957
51	1	1	2049	5	184	823	3957
52	1	1	2052	4	184	823	3958
53	1	1	2051	5	183	823	3958
54	1	1	2032	4	183	823	3957
55	1	1	2035	5	183	823	3958
56	1	1	2058	5	182	823	3958
57	1	1	2091	5	183	823	3958
58	1	1	2080	4	183	823	3957
59	1	1	2028	4	184	823	3957
60	1	1	1983	4	183	823	3957
61	1	1	1963	4	181	823	3958
62	1	1	1983	4	184	823	3958
63	1	1	2017	5	184	824	3958
64	1	1	2059	5	184	823	3957
65	1	1	2065	5	183	823	3958
66	1	1	2060	5	184	823	3958
67	1	1	2083	4	183	823	3958
68	1	1	2099	5	183	823	3958
69	1	1	2085	5	184	823	3957
70	1	1	2070	5	184	823	3959
71	1	1	2040	4	185	823	3957
72	1	1	2017	4	182	823	3958
73	1	1	1994	4	184	823	3958
74	1	1	2005	5	184	823	3957
75	1	1	2033	5	184	824	3957
76	1	1	2038	5	185	823	3957
77	1	1	2035	5	184	823	3958
78	1	1	2053	5	184	823	3957
79	1	1	2087	5	184	824	3958
80	1	1	2097	5	184	823	3957
81	1	1	2095	5	184	823	3957
82	1	1	2054	4	183	823	3957
83	1	1	2012	4	183	823	3957
84	1	1	2012	5	184	823	3956
85	1	1	2027	5	183	823	3957
86	1	1	2046	5	182	823	3958
87	1	1	2060	5	184	823	3958
88	1	1	2048	5	184	823	3958
89	1	1	2030	6	184	823	3957
90	1	1	2025	5	183	823	3958
91	1	1	2017	5	183	823	3958
92	1	1	2029	5	183	823	3958
93	1	1	2037	5	183	823	3958
94	1	1	2045	4	183	823	3957
95	1	1	2059	5	183	823	3957
96	1	1	2063	5	181	823	3957
97	1	1	2071	5	184	823	3957
98	1	1	2089	6	183	823	3957
99	1	1	2072	4	183	823	3958
100	1	1	2043	5	184	823	3957
101	1	1	2073	5	183	823	3957
102	1	1	2099	5	184	823	3958
103	1	1	2079	4	184	823	3957
104	1	1	2051	4	184	823	3957
105	1	1	2037	5	184	823	3958
106	1	1	2020	4	183	824	3958
107	1	1	1983	4	183	823	3958
108	1	1	1973	5	184	823	3958
109	1	1	1998	5	184	823	3957
110	1	1	2042	5	184	824	3957
111	1	1	2057	5	183	823	3957
112	1	1	2048	5	183	823	3958
113	1	1	2046	5	183	823	3957
114	1	1	2037	5	184	823	3958
115	1	1	2019	4	184	822	3957
116	1	1	2009	5	183	823	3957
117	1	1	1996	4	183	823	3960
118	1	1	1960	4	183	823	3957
119	1	1	1962	5	183	823	3957
120	1	1	2030	5	184	822	3957
121	1	1	2084	5	183	823	3958
122	1	1	2060	4	184	823	3958
123	1	1	2046	6	183	823	3958
124	1	1	2050	5	183	823	3957
125	1	1	2061	5	183	824	3957
126	1	1	2053	5	184	823	3958
127	1	1	2040	5	183	823	3958
0	1	1	2024	4	183	823	3957
1	1	1	1976	4	184	823	3958
2	1	1	1970	5	184	823	3957
3	1	1	2010	5	185	823	3956
4	1	1	2038	5	184	823	3958
5	1	1	2030	5	183	823	3958
6	1	1	2025	5	184	823	3957
7	1	1	2026	5	183	823	3957
8	1	1	2034	5	184	823	3958
9	1	1	2044	5	184	823	3958
10	1	1	2062	5	184	824	3958
11	1	1	2056	5	183	823	3957
12	1	1	2031	5	183	823	3958
13	1	1	2004	5	184	824	3958
14	1	1	1999	5	184	823	3958
15	1	1	2017	5	183	823	3958
16	1	1	2031	5	184	823	3957
17	1	1	2014	5	183	825	3957
18	1	1	2003	5	183	823	3957
19	1	1	2002	5	184	823	3958
20	1	1	2000	5	183	823	3957
21	1	1	2006	5	183	823	3958
22	1	1	2015	5	184	823	3957
23	1	1	2009	5	184	823	3957
24	1	1	2012	5	183	823	3958
25	1	1	2029	5	183	823	3958
26	1	1	2025	5	184	823	3957
27	1	1	2022	6	183	823	3958
28	1	1	2022	5	184	823	3957
29	1	1	2022	5	184	823	3958
30	1	1	2030	5	184	823	3957
31	1	1	2050	5	183	823	3957
32	1	1	2049	5	184	824	3957
33	1	1	2027	4	184	823	3957
34	1	1	2017	4	184	823	3958
35	1	1	1999	4	183	823	3957
36	1	1	1987	4	183	823	3957
37	1	1	1990	5	183	823	3957
38	1	1	1999	5	183	824	3958
39	1	1	1995	4	184	823	3958
40	1	1	1957	4	183	823	3958
41	1	1	1937	5	183	823	3957
42	1	1	1956	5	184	823	3957
43	1	1	1977	5	183	823	3957
44	1	1	1994	5	183	823	3958
45	1	1	1991	5	184	823	3957
46	1	1	2005	6	183	823	3958
47	1	1	2030	5	183	823	3957
48	1	1	2034	5	184	823	3958
49	1	1	2039	5	183	823	3958
50	1	1	2050	5	184	823	3958
51	1	1	2036	4	184	823	3957
52	1	1	1999	5	183	823	3958
53	1	1	1969	5	183	823	3957
54	1	1	1960	5	184	823	3958
55	1	1	1960	5	183	823	3957
56	1	1	1984	5	184	823	3957
57	1	1	2024	6	184	823	3957
58	1	1	2040	5	183	823	3958
59	1	1	2032	5	183	823	3958
60	1	1	2027	5	184	823	3957
61	1	1	2014	5	183	823	3957
62	1	1	1996	5	183	823	3957
63	1	1	1977	4	184	823	3958
64	1	1	1956	4	183	823	3958
65	1	1	1938	5	183	823	3957
66	1	1	1925	5	184	823	3957
67	1	1	1939	5	183	823	3958
68	1	1	1971	5	183	823	3964
69	1	1	1996	5	183	824	3957
70	1	1	2001	5	184	823	3958
71	1	1	1966	5	182	823	3957
72	1	1	1946	5	183	823	3958
73	1	1	1952	5	184	823	3958
74	1	1	1968	5	183	823	3958
75	1	1	1980	5	184	823	3957
76	1	1	1984	5	183	823	3958
77	1	1	1962	4	183	824	3957
78	1	1	1934	4	184	823	3958
79	1	1	1940	5	183	823	3958
80	1	1	1975	5	183	823	3958
81	1	1	2002	5	184	823	3957
82	1	1	1986	5	183	823	3957
83	1	1	1962	4	183	823	3957
84	1	1	1935	4	184	823	3958
85	1	1	1938	5	184	823	3957
86	1	1	1977	5	184	823	3957
87	1	1	2035	5	184	823	3957
88	1	1	2043	4	183	823	3957
89	1	1	2009	4	183	823	3958
90	1	1	1971	4	183	823	3958
91	1	1	1964	5	183	823	3957
92	1	1	1982	4	184	823	3957
93	1	1	1980	4	183	823	3957
94	1	1	1965	4	183	823	3958
95	1	1	1968	5	183	823	3958
96	1	1	1986	5	183	823	3957
97	1	1	2009	5	183	823	3958
98	1	1	2001	5	184	823	3958
99	1	1	1974	4	184	823	3958
100	1	1	1979	5	183	823	3958
101	1	1	1991	5	184	823	3956
102	1	1	1964	4	183	823	3957
103	1	1	1920	4	183	823	3957
104	1	1	1899	5	183	823	3957
105	1	1	1896	5	185	823	3958
106	1	1	1909	5	184	823	3957
107	1	1	1942	4	185	823	3957
108	1	1	1972	5	184	823	3957
109	1	1	1976	5	184	823	3958
110	1	1	1979	5	184	823	3957
111	1	1	1999	5	183	823	3957
112	1	1	2016	5	183	823	3958
113	1	1	2003	4	183	823	3959
114	1	1	1995	5	183	823	3958
115	1	1	1981	4	183	823	3958
116	1	1	1962	5	184	823	3957
117	1	1	1964	5	184	823	3958
118	1	1	1962	5	183	823	3958
119	1	1	1961	5	183	823	3957
120	1	1	1975	5	183	823	3958
121	1	1	1990	5	183	823	3957
122	1	1	1968	4	183	823	3958
123	1	1	1936	4	184	823	3958
124	1	1	1928	5	183	823	3958
125	1	1	1948	5	184	823	3958
126	1	1	1980	5	182	823	3958
127	1	1	1995	5	183	825	3958
0	1	1	1995	5	184	823	3957
1	1	1	1967	4	184	824	3958
2	1	1	1962	5	183	823	3957
3	1	1	1980	5	183	823	3957
4	1	1	1992	5	183	823	3957
5	1	1	1973	4	184	823	3957
6	1	1	1938	4	183	823	3958
7	1	1	1924	4	183	823	3958
8	1	1	1902	4	183	823	3957
9	1	1	1886	4	184	823	3957
10	1	1	1909	5	184	823	3957
11	1	1	1949	5	184	823	3957
12	1	1	1975	5	184	824	3958
13	1	1	1975	5	183	823	3957
14	1	1	1972	5	183	823	3958
15	1	1	1972	5	184	823	3958
16	1	1	1963	5	182	823	3958
17	1	1	1965	5	183	823	3958
18	1	1	1971	5	183	823	3957
19	1	1	1961	4	183	823	3955
20	1	1	1942	5	184	822	3957
21	1	1	1937	5	183	823	3958
22	1	1	1940	5	183	823	3957
23	1	1	1972	5	183	823	3957
24	1	1	2010	5	184	823	3958
25	1	1	2039	5	183	823	3957
26	1	1	2018	4	184	823	3958
27	1	1	1966	4	184	823	3957
28	1	1	1930	5	184	823	3957
29	1	1	1915	5	182	823	3958
30	1	1	1933	5	183	823	3958
31	1	1	1970	5	183	824	3958
32	1	1	2006	5	182	823	3958
33	1	1	2012	6	184	823	3957
34	1	1	1992	4	184	823	3957
35	1	1	1984	5	183	822	3958
36	1	1	1992	5	182	823	3958
37	1	1	2006	5	184	823	3957
38	1	1	2008	5	184	823	3957
39	1	1	1981	4	184	824	3957
40	1	1	1943	4	184	822	3957
41	1	1	1902	4	183	823	3958
42	1	1	1912	5	183	823	3957
43	1	1	1970	5	182	823	3958
44	1	1	1979	5	184	823	3958
45	1	1	1948	4	184	822	3957
46	1	1	1917	4	184	823	3958
47	1	1	1900	5	183	823	3957
48	1	1	1905	5	182	823	3958
49	1	1	1925	5	184	823	3957
50	1	1	1957	5	183	823	3958
51	1	1	1973	5	184	823	3958
52	1	1	1972	5	183	823	3957
53	1	1	1978	5	184	823	3957
54	1	1	1965	5	183	823	3958
55	1	1	1960	5	184	823	3958
56	1	1	1963	5	182	823	3958
57	1	1	1954	5	183	823	3958
58	1	1	1944	4	181	823	3957
59	1	1	1940	5	183	823	3957
60	1	1	1940	5	184	822	3957
61	1	1	1917	4	185	823	3957
62	1	1	1921	5	183	823	3957
63	1	1	1950	5	184	823	3957
64	1	1	1976	5	184	823	3957
65	1	1	1988	5	184	823	3958
66	1	1	1991	5	184	823	3958
67	1	1	1995	5	183	823	3957
68	1	1	1986	5	183	823	3957
69	1	1	1990	5	184	823	3958
70	1	1	1982	5	183	823	3958
71	1	1	1972	5	184	823	3958
72	1	1	1961	4	184	823	3957
73	1	1	1933	4	182	823	3957
74	1	1	1908	4	183	823	3958
75	1	1	1911	5	183	823	3957
76	1	1	1938	5	183	823	3958
77	1	1	1977	5	184	823	3957
78	1	1	1995	5	183	823	3957
79	1	1	1997	5	184	823	3957
80	1	1	2006	5	183	823	3957
81	1	1	2010	5	184	823	3958
82	1	1	2011	5	184	823	3957
83	1	1	2007	4	183	823	3958
84	1	1	1986	4	184	823	3957
85	1	1	1970	4	184	823	3958
86	1	1	1965	5	185	823	3958
87	1	1	1954	5	184	823	3957
88	1	1	1940	4	184	823	3957
89	1	1	1931	5	183	823	3958
90	1	1	1930	5	184	823	3957
91	1	1	1936	5	184	823	3958
92	1	1	1954	5	184	823	3958
93	1	1	1977	6	185	823	3957
94	1	1	2016	5	183	823	3958
95	1	1	2035	5	183	823	3958
96	1	1	2009	4	184	823	3958
97	1	1	1967	4	183	823	3957
98	1	1	1937	4	183	823	3957
99	1	1	1942	5	183	823	3958
100	1	1	1977	5	183	823	3957
101	1	1	2000	5	184	823	3958
102	1	1	1984	4	183	823	3957
103	1	1	1977	5	183	823	3957
104	1	1	1990	5	184	823	3957
105	1	1	2001	5	183	823	3957
106	1	1	2011	5	183	824	3958
107	1	1	2013	5	183	823	3957
108	1	1	2024	5	181	823	3958
109	1	1	2056	5	184	824	3958
110	1	1	2099	5	183	823	3957
111	1	1	2099	4	184	823	3958
112	1	1	2060	4	183	823	3957
113	1	1	2018	4	183	823	3957
114	1	1	1993	4	184	823	3958
115	1	1	1979	4	184	823	3957
116	1	1	1961	5	183	823	3958
117	1	1	1952	4	183	823	3959
118	1	1	1949	3	183	823	3957
119	1	1	1960	5	183	823	3958
120	1	1	1981	5	184	823	3958
121	1	1	1987	5	184	823	3957
122	1	1	1969	4	184	823	3957
123	1	1	1943	4	183	823	3957
124	1	1	1944	5	181	823	3958
125	1	1	1957	5	184	824	3957
126	1	1	1955	5	183	823	3958
127	1	1	1936	4	184	823	3957
0	1	1	1937	5	184	823	3957
1	1	1	1967	5	183	823	3957
2	1	1	1994	5	183	823	3957
3	1	1	1972	4	184	823	3958
4	1	1	1969	5	184	823	3957
5	1	1	1977	5	183	823	3957
6	1	1	1960	5	183	823	3958
7	1	1	1949	5	183	823	3959
8	1	1	1962	5	183	823	3958
9	1	1	1985	5	184	823	3957
10	1	1	1995	4	183	823	3957
11	1	1	1972	4	185	823	3957
12	1	0	1950	4	183	823	3957
13	1	0	1951	5	182	823	3958
14	1	0	1957	5	183	823	3957
15	1	0	1965	5	182	823	3958
16	1	0	1954	4	183	824	3957
17	1	0	1929	4	184	823	3957
18	1	0	1911	5	185	823	3958
19	1	0	1897	4	183	823	3957
20	1	0	1907	5	184	823	3957
21	1	0	1937	5	183	823	3958
22	1	0	1945	5	184	823	3958
23	1	0	1919	4	182	823	3958
24	1	0	1915	5	183	823	3957
25	1	0	1923	4	184	823	3957
26	1	0	1935	4	184	823	3957
27	1	0	1941	5	183	823	3958
28	1	0	1933	5	183	823	3958
29	1	0	1942	5	183	823	3957
30	1	0	1962	4	182	823	3958
31	1	0	1961	5	184	823	3957
32	1	0	1957	5	184	823	3956
33	1	0	1956	5	183	823	3957
34	1	0	1961	5	184	823	3957
35	1	0	1955	5	184	823	3957
36	1	0	1914	4	184	823	3958
37	1	0	1871	4	184	823	3958
38	1	0	1852	4	183	823	3958
39	1	0	1847	5	183	823	3957
40	1	0	1857	5	184	823	3957
41	1	0	1896	5	183	823	3957
42	1	0	1925	5	183	822	3957
43	1	0	1904	4	184	823	3958
44	1	0	1910	5	183	823	3957
45	1	0	1941	6	184	823	3957
46	1	0	2006	5	183	823	3957
47	1	0	2054	5	184	823	3957
48	1	0	2024	4	183	823	3958
49	1	0	1942	3	183	823	3957
50	1	0	1885	5	183	823	3956
51	1	0	1871	5	183	823	3956
52	1	0	1892	5	183	823	3957
53	1	0	1908	5	183	823	3958
54	1	0	1915	5	184	823	3958
55	1	0	1944	5	183	823	3957
56	0	0	1955	6	184	823	3957
57	0	0	1955	5	184	823	3958
58	0	0	1935	4	183	823	3958
59	0	0	1903	4	184	823	3957
60	0	0	1880	4	183	823	3958
61	0	0	1879	5	183	823	3958
62	0	0	1875	7	183	823	3956
63	0	0	1881	5	183	823	3957
64	0	0	1913	5	183	825	3957
65	0	0	1949	5	182	823	3957
66	0	0	1979	4	183	823	3957
67	0	0	1983	5	184	822	3958
68	0	0	1966	4	183	823	3958
69	0	0	1966	5	184	823	3957
70	0	0	1967	6	184	823	3957
71	0	0	1963	5	183	823	3957
72	0	0	1949	4	184	823	3958
73	0	0	1928	4	183	823	3958
74	0	0	1898	4	183	824	3958
75	0	0	1875	4	184	823	3957
76	0	0	1919	5	183	823	3957
77	0	0	1968	5	183	824	3957
78	0	0	1966	4	183	823	3958
79	0	0	1931	4	183	823	3958
80	0	0	1905	4	184	823	3956
81	0	0	1928	4	183	823	3957
82	0	0	1961	5	184	824	3957
83	0	0	1964	5	183	823	3957
84	0	0	1950	5	184	823	3957
85	0	0	1937	4	184	823	3958
86	0	0	1930	5	183	824	3957
87	0	0	1944	5	183	824	3958
88	0	0	1960	5	184	823	3958
89	0	0	1992	5	184	823	3958
90	0	0	2027	5	182	823	3957
91	0	0	2037	4	183	823	3957
92	0	0	2022	4	184	824	3957
93	0	0	2017	5	183	823	3958
94	0	0	2017	5	184	823	3957
95	0	0	2040	5	183	823	3957
96	0	0	2075	5	183	823	3957
97	0	0	2104	5	183	823	3958
98	0	0	2153	5	184	823	3957
99	0	0	2201	5	183	823	3957
100	0	0	2228	5	184	823	3956
101	0	0	2226	5	184	823	3958
102	0	0	2221	5	183	823	3957
103	0	0	2221	5	183	823	3958
104	0	0	2251	5	183	823	3957
105	0	0	2276	5	184	823	3958
106	0	0	2294	5	184	823	3958
107	0	0	2309	5	183	824	3958
108	0	0	2322	5	184	823	3958
109	0	0	2331	5	183	823	3957
110	0	0	2366	6	182	823	3957
111	0	0	2406	4	183	823	3957
112	0	0	2451	5	184	823	3958
113	0	0	2446	5	183	823	3957
114	0	0	2401	5	184	823	3956
115	0	0	2363	5	183	823	3958
116	0	0	2362	4	184	823	3957
117	0	0	2373	5	183	824	3957
118	0	0	2390	5	183	823	3957
119	0	0	2405	5	183	823	3957
120	0	0	2380	5	183	823	3957
121	0	0	2346	3	183	823	3957
122	0	0	2304	4	183	823	3958
123	0	0	2232	4	182	823	3958
124	0	0	2142	5	183	823	3957
125	0	0	2072	6	184	823	3957
126	0	0	2020	4	184	823	3958
127	0	0	1990	4	184	824	3958
0	0	0	1964	5	182	823	3957
1	0	0	1934	4	183	823	3958
2	0	0	1916	3	184	823	3957
3	0	0	1920	5	183	823	3957
4	0	0	1928	5	183	824	3957
5	0	0	1930	5	183	823	3958
6	0	0	1919	5	183	823	3957
7	0	0	1916	4	184	823	3957
8	0	0	1914	5	183	823	3957
9	0	0	1929	5	184	824	3958
10	0	0	1935	5	184	823	3958
11	0	0	1931	5	183	823	3957
12	0	0	1890	5	182	823	3957
13	0	0	1871	5	184	823	3958
14	0	0	1912	4	184	823	3958
15	0	0	1977	5	184	823	3958
16	0	0	1999	5	183	823	3957
17	0	0	1950	4	184	823	3957
18	0	0	1904	4	184	823	3958
19	0	0	1884	4	183	823	3957
20	0	0	1888	5	183	823	3958
21	0	0	1915	5	183	823	3957
22	0	0	1938	5	183	823	3957
23	0	0	1952	4	182	823	3957
24	0	0	1950	5	184	823	3957
25	0	0	1950	5	183	823	3958
26	0	0	1936	4	184	823	3957
27	0	0	1927	5	183	823	3957
28	0	0	1940	5	183	823	3958
29	0	0	1961	5	183	823	3959
30	0	0	1948	4	183	823	3958
31	0	0	1921	4	183	823	3958
32	0	0	1925	5	183	823	3957
33	0	0	1911	4	184	823	3957
34	0	0	1895	5	183	823	3957
35	0	0	1893	5	183	823	3958
36	0	0	1903	5	183	823	3957
37	0	0	1913	4	183	823	3957
38	0	0	1921	5	183	823	3957
39	0	0	1907	5	184	823	3957
40	0	0	1893	4	183	823	3958
41	0	0	1855	4	183	823	3957
42	0	0	1831	4	183	823	3958
43	0	0	1826	5	184	823	3958
44	0	0	1841	5	183	823	3958
45	0	0	1872	5	183	823	3958
46	0	0	1901	5	182	823	3957
47	0	0	1923	5	184	823	3957
48	0	0	1948	5	182	823	3957
49	0	0	1969	5	184	823	3958
50	0	0	1965	5	181	823	3958
51	0	0	1949	4	183	823	3957
52	0	0	1904	4	183	823	3957
53	0	0	1868	4	184	823	3957
54	0	0	1870	5	183	823	3957
55	0	0	1896	5	183	824	3958
56	0	0	1922	5	184	823	3957
57	0	0	1904	4	184	824	3958
58	0	0	1893	5	184	824	3958
59	0	0	1906	5	183	823	3958
60	0	0	1926	5	184	823	3958
61	0	0	1931	5	184	823	3957
62	0	0	1933	5	184	823	3957
63	0	0	1950	5	183	823	3958
64	0	0	1974	5	183	824	3957
65	0	0	1981	5	182	823	3958
66	0	0	1959	4	183	823	3958
67	0	0	1925	5	183	823	3957
68	0	0	1894	3	184	823	3957
69	0	0	1874	5	183	823	3958
70	0	0	1890	6	183	823	3958
71	0	0	1927	5	184	823	3957
72	0	0	1952	5	184	824	3958
73	0	0	1937	4	184	823	3957
74	0	0	1916	4	183	824	3957
75	0	0	1891	4	182	823	3957
76	0	0	1882	5	183	823	3958
77	0	0	1899	5	183	823	3957
78	0	0	1920	5	184	823	3957
79	0	0	1937	5	184	824	3958
80	0	0	1951	5	183	823	3958
81	0	0	1968	5	183	823	3958
82	0	0	1964	6	185	823	3957
83	0	0	1926	3	183	823	3958
84	0	0	1913	5	183	823	3958
85	0	0	1928	5	182	823	3958
86	0	0	1956	5	183	823	3957
87	0	0	1989	5	183	823	3957
88	0	0	2004	5	184	823	3957
89	0	0	2001	4	184	824	3957
90	0	0	1993	5	183	823	3958
91	0	0	1972	4	184	823	3957
92	0	0	1937	4	183	824	3958
93	0	0	1898	4	183	823	3958
94	0	0	1884	5	184	823	3957
95	0	0	1913	5	183	823	3958
96	0	0	1929	5	184	823	3957
97	0	0	1923	5	184	823	3958
98	0	0	1912	4	184	823	3957
99	0	0	1922	5	183	823	3957
100	0	0	1928	5	183	823	3958
101	0	0	1950	5	183	823	3956
102	0	0	1973	5	183	823	3957
103	0	0	1977	4	183	823	3957
104	0	0	1963	4	183	823	3957
105	0	0	1945	4	184	823	3958
106	0	0	1954	5	183	823	3957
107	0	0	1969	5	184	823	3957
108	0	0	1965	3	184	823	3958
109	0	0	1929	4	183	823	3958
110	0	0	1881	4	183	823	3958
111	0	0	1870	5	184	823	3959
112	0	0	1876	4	184	823	3957
113	0	0	1889	4	184	823	3958
114	0	0	1904	5	184	824	3959
115	0	0	1914	5	184	823	3958
116	0	0	1942	5	183	824	3957
117	0	0	1977	5	184	823	3957
118	0	0	1993	5	183	823	3957
119	0	0	1976	5	183	823	3959
120	0	0	1952	4	182	823	3957
121	0	0	1938	5	184	823	3956
122	0	0	1949	5	183	823	3957
123	0	0	1984	5	184	823	3957
124	0	0	1999	5	183	823	3957
125	0	0	1982	5	183	823	3958
126	0	0	1989	5	184	824	3957
127	0	0	1987	5	183	824	3958
0	0	0	1975	5	183	824	3957
1	0	0	1971	5	183	823	3957
2	0	0	1962	5	184	823	3958
3	0	0	1959	5	184	823	3957
4	0	0	1961	5	183	824	3957
5	0	0	1960	4	184	823	3957
6	0	0	1962	5	184	823	3957
7	0	0	1975	5	183	823	3957
8	0	0	1990	5	184	823	3956
9	0	0	1997	5	184	823	3957
10	0	0	1980	3	183	823	3958
11	0	0	1971	5	183	823	3958
12	0	0	1952	4	184	823	3958
13	0	0	1909	4	183	823	3958
14	0	0	1901	5	183	824	3957
15	0	0	1941	4	184	823	3957
16	0	0	1988	5	184	823	3957
17	0	0	2017	5	184	823	3958
18	0	0	2037	5	184	823	3957
19	0	0	2049	5	183	823	3958
20	0	0	2037	5	183	823	3958
21	0	0	2004	4	184	824	3958
22	0	0	1981	5	183	823	3958
23	0	0	1978	5	184	823	3957
24	0	0	1988	5	183	823	3956
25	0	0	2015	5	183	823	3957
26	0	0	2021	5	184	823	3957
27	0	0	2020	5	184	823	3957
28	0	0	2013	5	184	823	3957
29	0	0	2009	5	184	823	3958
30	0	0	2006	5	184	823	3957
31	0	0	1991	5	183	823	3957
32	0	0	1968	4	185	823	3958
33	0	0	1954	5	183	824	3958
34	0	0	1960	6	184	823	3957
35	0	0	1982	6	185	823	3957
36	0	0	2025	5	183	823	3957
37	0	0	2051	5	183	823	3957
38	0	0	2048	5	184	823	3957
39	0	0	2020	4	183	823	3958
40	0	0	1991	5	183	823	3957
41	0	0	1978	5	184	823	3957
42	0	0	1994	5	184	823	3957
43	0	0	1980	4	183	823	3957
44	0	0	1935	4	183	823	3958
45	0	0	1932	6	183	823	3957
46	0	0	1977	5	183	823	3958
47	0	0	2055	5	184	823	3958
48	0	0	2131	5	183	823	3957
49	0	0	2154	5	184	823	3957
50	0	0	2121	5	184	823	3957
51	0	0	2071	4	184	823	3958
52	0	0	2029	4	184	823	3958
53	0	0	2026	5	183	823	3957
54	0	0	2035	5	184	823	3957
55	0	0	2059	5	184	823	3957
56	0	0	2094	5	184	824	3957
57	0	0	2100	5	183	823	3957
58	0	0	2080	5	183	823	3957
59	0	0	2042	4	183	823	3958
60	0	0	2024	4	183	823	3958
61	0	0	2042	5	183	823	3957
62	0	0	2052	4	184	823	3958
63	0	0	2062	5	184	823	3957
64	0	0	2059	5	183	823	3957
65	0	0	2043	5	184	823	3957
66	0	0	2040	5	184	823	3958
67	0	0	2043	5	183	823	3958
68	0	0	2051	5	183	823	3957
69	0	0	2067	5	184	823	3957
70	0	0	2079	5	183	823	3958
71	0	0	2089	5	184	823	3957
72	0	0	2098	5	183	823	3958
73	0	0	2117	5	183	823	3958
74	0	0	2122	6	183	823	3956
75	0	0	2064	4	184	823	3957
76	0	0	2015	4	183	823	3957
77	0	0	2005	5	183	823	3957
78	0	0	2024	5	183	823	3957
79	0	0	2052	5	183	823	3958
80	0	0	2070	5	184	824	3958
81	0	0	2097	5	183	823	3957
82	0	0	2116	5	183	823	3958
83	0	0	2116	5	183	823	3957
84	0	0	2089	4	185	823	3957
85	0	0	2059	5	183	823	3957
86	0	0	2076	5	184	824	3958
87	0	0	2108	5	184	823	3958
88	0	0	2085	4	183	823	3957
89	0	0	2056	4	184	823	3956
90	0	0	2052	5	183	823	3956
91	0	0	2072	5	183	824	3957
92	0	0	2085	5	183	823	3957
93	0	0	2097	5	183	823	3957
94	0	0	2082	4	183	823	3957
95	0	0	2062	4	183	823	3956
96	0	0	2048	4	184	823	3958
97	0	0	2045	5	184	823	3958
98	0	0	2040	5	184	823	3957
99	0	0	2039	5	185	823	3957
100	0	0	2055	4	184	824	3958
101	0	0	2067	5	183	824	3958
102	0	0	2070	5	184	823	3958
103	0	0	2073	5	184	823	3957
104	0	0	2073	5	184	823	3958
105	0	0	2076	4	184	823	3956
106	0	0	2079	5	183	823	3957
107	0	0	2054	4	184	824	3957
108	0	0	2031	4	184	823	3958
109	0	0	2032	5	183	823	3958
110	0	0	2034	5	184	823	3957
111	0	0	2056	5	184	823	3957
112	0	0	2099	5	183	823	3958
113	0	0	2139	5	183	824	3958
114	0	0	2125	4	183	823	3957
115	0	0	2070	5	184	823	3957
116	0	0	2024	4	184	823	3957
117	0	0	1997	4	183	823	3958
118	0	0	2007	5	183	823	3957
119	0	0	2048	5	184	823	3958
120	0	0	2065	5	183	823	3957
121	0	0	2037	4	184	824	3957
122	0	0	2033	5	183	824	3957
123	0	0	2037	5	183	823	3957
124	0	0	2053	5	184	823	3957
125	0	0	2087	5	184	823	3957
126	0	0	2088	4	183	823	3957
127	0	0	2064	4	183	823	3957
0	0	0	2033	4	183	823	3957
1	0	0	1991	4	183	823	3957
2	0	0	1965	4	184	823	3957
3	0	0	1974	5	183	823	3958
4	0	0	1981	5	183	823	3958
5	0	0	1985	5	184	823	3958
6	0	0	1998	5	184	823	3958
7	0	0	1992	5	184	823	3958
8	0	0	1987	4	184	823	3957
9	0	0	1998	5	184	823	3958
10	0	0	2009	5	183	823	3958
11	0	0	2034	5	183	823	3956
12	0	0	2051	5	183	823	3957
13	0	0	2039	4	183	823	3958
14	0	0	1990	4	183	824	3958
15	0	0	1952	4	183	823	3956
16	0	0	1959	5	184	823	3956
17	0	0	1991	5	184	823	3957
18	0	0	2014	5	184	823	3957
19	0	0	2040	5	183	823	3958
20	0	0	2029	4	183	823	3957
21	0	0	1969	4	183	823	3955
22	0	0	1942	5	183	823	3957
23	0	0	1958	5	183	823	3958
24	0	0	1960	6	184	823	3958
25	0	0	1969	5	183	823	3957
26	0	0	1986	5	183	823	3958
27	0	0	1984	5	183	823	3957
28	0	0	1992	5	183	823	3957
29	0	0	1997	5	183	823	3958
30	0	0	1989	5	184	823	3956
31	0	0	1991	5	183	823	3957
32	0	0	1994	4	181	823	3957
33	0	0	1974	4	183	823	3958
34	0	0	1956	4	183	823	3958
35	0	0	1947	4	183	823	3957
36	0	0	1945	5	183	823	3958
37	0	0	1938	4	183	823	3957
38	0	0	1914	4	183	823	3958
39	0	0	1888	5	183	824	3958
40	0	0	1904	5	183	824	3958
41	0	0	1954	5	184	823	3957
42	0	0	2003	5	183	823	3957
43	0	0	2029	5	183	823	3958
44	0	0	2043	5	183	823	3957
45	0	0	2021	4	183	823	3958
46	0	0	1981	4	185	823	3957
47	0	0	1948	4	183	823	3957
48	0	0	1932	4	184	823	3958
49	0	0	1920	5	183	824	3957
50	0	0	1919	5	183	823	3957
51	0	0	1925	5	183	823	3957
52	0	0	1931	4	184	823	3956
53	0	0	1941	5	183	823	3957
54	0	0	1956	5	184	823	3958
55	0	0	1962	5	184	823	3957
56	0	0	1949	5	184	823	3958
57	0	0	1934	4	184	824	3957
58	0	0	1932	5	183	823	3958
59	0	0	1940	5	184	822	3958
60	0	0	1952	5	183	823	3957
61	0	0	1964	5	183	823	3957
62	0	0	1977	4	184	823	3957
63	0	0	1986	4	183	823	3957
64	0	0	1952	4	183	823	3957
65	0	0	1916	4	184	823	3957
66	0	0	1929	5	184	823	3957
67	0	0	1962	5	183	823	3957
68	0	0	1958	4	183	824	3957
69	0	0	1961	5	183	823	3958
70	0	0	1989	5	184	823	3957
71	0	0	2035	5	183	822	3958
72	0	0	2036	4	183	823	3957
73	0	0	1969	4	183	823	3957
74	0	0	1912	4	183	824	3958
75	0	0	1881	4	185	823	3956
76	0	0	1877	5	182	823	3958
77	0	0	1881	5	184	823	3957
78	0	0	1891	5	183	823	3957
79	0	0	1910	5	184	823	3957
80	0	0	1914	5	184	823	3957
81	0	0	1906	5	184	823	3957
82	0	0	1932	6	184	823	3957
83	0	0	1961	4	184	823	3957
84	0	0	1995	5	183	823	3957
85	0	0	2026	5	184	823	3957
86	0	0	2026	5	183	823	3957
87	0	0	2009	4	182	823	3957
88	0	0	1989	4	183	823	3957
89	0	0	1969	4	184	823	3958
90	0	0	1962	5	183	823	3958
91	0	0	1972	5	183	824	3957
92	0	0	1983	6	183	823	3957
93	0	0	1976	5	184	823	3958
94	0	0	1976	5	182	823	3957
95	0	0	1997	5	183	823	3958
96	0	0	2006	6	183	823	3957
97	0	0	1992	5	184	824	3957
98	0	0	1989	5	183	823	3957
99	0	0	1996	5	183	823	3957
100	0	0	2002	5	183	823	3954
101	0	0	2000	5	183	824	3957
102	0	0	2010	4	183	823	3957
103	0	0	2024	5	184	823	3957
104	0	0	2027	5	183	823	3958
105	0	0	2008	4	184	823	3957
106	0	0	1993	4	183	823	3957
107	0	0	1976	4	183	823	3957
108	0	0	1984	5	184	823	3958
109	0	0	1985	4	184	823	3958
110	0	0	1970	5	183	823	3957
111	0	0	1984	5	183	823	3958
112	0	0	2008	5	183	823	3957
113	0	0	2004	4	183	824	3957
114	0	0	2008	5	184	823	3958
115	0	0	2019	5	184	823	3956
116	0	0	2026	5	183	823	3957
117	0	0	2012	5	184	823	3957
118	0	0	1999	4	183	823	3956
119	0	0	1990	5	184	823	3958
120	0	0	1995	5	185	823	3958
121	0	0	2006	5	183	823	3957
122	0	0	2029	4	183	823	3957
123	0	0	2059	4	183	823	3957
124	0	0	2072	5	183	823	3957
125	0	0	2069	5	184	823	3957
126	0	0	2059	4	184	823	3958
127	0	0	2036	4	183	823	3956
0	0	0	2018	5	183	823	3956
1	0	0	1999	4	184	824	3958
2	0	0	2007	5	184	823	3957
3	0	0	2025	5	184	823	3957
4	0	0	2029	5	184	823	3957
5	0	0	2029	5	184	823	3957
6	0	0	2051	5	184	823	3957
7	0	0	2069	6	184	823	3958
8	0	0	2075	6	183	823	3957
9	0	0	2057	5	183	823	3957
10	0	0	2034	4	184	823	3957
11	0	0	2023	5	183	823	3958
12	0	0	2010	5	183	823	3957
13	0	0	1992	4	183	823	3957
14	0	0	1974	5	184	823	3957
15	0	0	1997	5	183	823	3957
16	0	0	2045	5	184	823	3957
17	0	0	2085	5	183	823	3957
18	0	0	2073	4	183	823	3956
19	0	0	2031	4	183	823	3956
20	0	0	2010	4	182	823	3956
21	0	0	1999	5	183	823	3957
22	0	0	2014	5	184	823	3957
23	0	0	2052	5	184	823	3958
24	0	0	2068	5	184	823	3957
25	0	0	2044	5	184	823	3957
26	0	0	2026	4	182	823	3958
27	0	0	2045	5	183	823	3957
28	0	0	2095	5	184	823	3957
29	0	0	2121	5	184	823	3957
30	0	0	2107	4	183	823	3957
31	0	0	2084	5	183	823	3957
32	0	0	2071	4	184	823	3956
33	0	0	2064	5	183	823	3957
34	0	0	2048	5	184	823	3957
35	0	0	2013	4	184	823	3958
36	0	0	1996	5	183	823	3957
37	0	0	2021	5	183	823	3958
38	0	0	2043	5	184	824	3957
39	0	0	2050	5	183	823	3957
40	0	0	2057	5	183	823	3957
41	0	0	2056	5	184	823	3958
42	0	0	2042	4	183	823	3957
43	0	0	2021	4	183	823	3958
44	0	0	2013	5	183	822	3957
45	0	0	2015	5	183	823	3957
46	0	0	2009	5	183	822	3958
47	0	0	2000	5	183	823	3957
48	0	0	2013	4	183	823	3957
49	0	0	2034	5	184	823	3957
50	0	0	2035	5	183	823	3958
51	0	0	2016	4	184	823	3957
52	0	0	2011	6	182	823	3958
53	0	0	2028	7	183	823	3957
54	0	0	2015	5	184	823	3957
55	0	0	2005	5	183	823	3957
56	0	0	2025	5	183	823	3957
57	0	0	2051	5	183	823	3957
58	0	0	2041	4	184	823	3958
59	0	0	2018	5	184	823	3958
60	0	0	2004	5	183	823	3957
61	0	0	1981	4	183	823	3958
62	0	0	1962	5	183	823	3958
63	0	0	1970	5	183	823	3957
64	0	0	1996	5	183	823	3957
65	0	0	2014	5	184	823	3958
66	0	0	2024	5	184	823	3957
67	0	0	2008	5	184	823	3956
68	0	0	1993	4	184	823	3958
69	0	0	2004	6	184	823	3957
70	0	0	2023	5	183	823	3957
71	0	0	2033	5	184	823	3957
72	0	0	2041	5	183	823	3957
73	0	0	2040	4	183	823	3957
74	0	0	2030	5	184	823	3957
75	0	0	2031	5	183	823	3958
76	0	0	2016	4	183	823	3958
77	0	0	2005	5	183	823	3958
78	0	0	2007	5	182	823	3957
79	0	0	2014	5	184	824	3957
80	0	0	2038	5	183	823	3957
81	0	0	2046	5	184	823	3957
82	0	0	2020	5	184	823	3957
83	0	0	2008	5	183	823	3958
84	0	0	2000	5	183	823	3958
85	0	0	2001	5	183	823	3957
86	0	0	2007	5	183	823	3958
87	0	0	1977	4	183	823	3956
88	0	0	1947	4	183	823	3957
89	0	0	1957	5	183	823	3957
90	0	0	1992	5	184	823	3958
91	0	0	2038	5	183	822	3957
92	0	0	2084	5	184	823	3957
93	0	0	2069	4	183	824	3957
94	0	0	2016	4	183	824	3958
95	0	0	1972	4	183	823	3958
96	0	0	1973	5	184	823	3958
97	0	0	1983	5	184	823	3957
98	0	0	1986	5	184	823	3957
99	0	0	1994	6	184	823	3957
100	0	0	2015	5	184	823	3957
101	0	0	2052	5	184	823	3957
102	0	0	2088	5	183	823	3956
103	0	0	2082	4	184	823	3957
104	0	0	2033	5	183	823	3957
105	0	0	1986	4	184	823	3957
106	0	0	1966	4	184	823	3957
107	0	0	1967	4	182	823	3957
108	0	0	1984	5	184	823	3957
109	0	0	2006	5	183	823	3957
110	0	0	2016	5	183	823	3958
111	0	0	2039	5	184	822	3958
112	0	0	2064	5	182	823	3957
113	0	0	2082	5	184	823	3957
114	0	0	2063	5	183	823	3957
115	0	0	2039	5	183	823	3958
116	0	0	2037	5	184	822	3957
117	0	0	2000	4	184	823	3958
118	0	0	1950	4	183	823	3956
119	0	0	1917	4	182	823	3956
120	0	0	1913	5	183	823	3957
121	0	0	1954	5	183	823	3957
122	0	0	2004	5	182	823	3957
123	0	0	2053	5	183	823	3958
124	0	0	2067	5	183	823	3958
125	0	0	2070	5	182	823	3957
126	0	0	2062	5	183	822	3958
127	0	0	2039	3	183	823	3958
0	0	0	2008	4	183	823	3957
1	0	0	1983	4	184	823	3957
2	0	0	1987	5	184	823	3956
3	0	0	2013	5	183	823	3958
4	0	0	2023	5	183	823	3957
5	0	0	2029	5	184	823	3957
6	0	0	2019	5	183	823	3957
7	0	0	1981	4	183	823	3957
8	0	0	1961	5	183	822	3957
9	0	0	1981	4	184	823	3957
10	0	0	2020	5	186	823	3957
11	0	0	2060	5	184	823	3958
12	0	0	2061	5	182	823	3957
13	0	0	2034	4	183	823	3957
14	0	0	1994	4	182	823	3957
15	0	0	1963	5	184	823	3957
16	0	0	1975	5	183	823	3957
17	0	0	2003	4	184	823	3958
18	0	0	2034	5	183	822	3958
19	0	0	2051	5	183	823	3957
20	0	0	2030	4	183	823	3957
21	0	0	2025	5	183	823	3957
22	0	0	2028	5	184	823	3958
23	0	0	2009	4	184	823	3957
24	0	0	1988	4	183	823	3958
25	0	0	1996	5	183	823	3957
26	0	0	2027	5	183	823	3957
27	0	0	2049	5	184	823	3957
28	0	0	2045	5	183	823	3958
29	0	0	2005	4	184	823	3958
30	0	0	1971	4	184	823	3957
31	0	0	1985	5	184	823	3957
32	0	0	2021	5	183	823	3958
33	0	0	2049	5	183	822	3958
34	0	0	2067	5	183	823	3957
35	0	0	2045	4	184	823	3957
36	0	0	2044	5	183	824	3958
37	0	0	2077	4	183	823	3957
38	0	0	2080	5	183	823	3957
39	0	0	2061	4	185	823	3957
40	0	0	2058	5	184	823	3957
41	0	0	2079	6	183	823	3958
42	0	0	2083	4	183	823	3958
43	0	0	2057	4	183	822	3957
44	0	0	2031	4	184	823	3957
45	0	0	2034	5	183	823	3958
46	0	0	2046	5	184	823	3958
47	0	0	2021	5	184	823	3957
48	0	0	2015	5	183	823	3958
49	0	0	2030	5	183	823	3957
50	0	0	2035	5	184	823	3957
51	0	0	2008	4	182	823	3958
52	0	0	1999	5	184	823	3958
53	0	0	2028	5	183	823	3958
54	0	0	2051	5	183	823	3957
55	0	0	2063	5	184	823	3958
56	0	0	2056	5	183	823	3958
57	0	0	2059	5	183	823	3957
58	0	0	2060	4	184	823	3957
59	0	0	2028	4	184	823	3958
60	0	0	2004	5	183	824	3957
61	0	0	1998	5	183	823	3957
62	0	0	1992	4	183	823	3956
63	0	0	1984	5	183	823	3958
64	0	0	1983	5	185	823	3957
65	0	0	1989	5	182	823	3957
66	0	0	2003	6	184	823	3958
67	0	0	2024	5	183	823	3957
68	0	0	2033	5	183	823	3958
69	0	0	2033	5	184	823	3957
70	0	0	2050	5	183	823	3957
71	0	0	2070	6	184	823	3956
72	0	0	2070	6	184	823	3957
73	0	0	2052	5	184	823	3958
74	0	0	2042	5	184	823	3956
75	0	0	2030	5	184	823	3958
76	0	0	2025	5	184	823	3958
77	0	0	1997	3	183	823	3956
78	0	0	1976	5	183	823	3958
79	0	0	1998	5	184	823	3958
80	0	0	2064	7	184	823	3957
81	0	0	2098	5	183	824	3958
82	0	0	2076	5	182	823	3958
83	0	0	2043	4	184	823	3957
84	0	0	2035	5	184	823	3957
85	0	0	2029	4	183	823	3957
86	0	0	2013	5	183	823	3957
87	0	0	2008	4	184	823	3956
88	0	0	2014	5	184	823	3958
89	0	0	2025	5	184	823	3957
90	0	0	2059	5	183	823	3957
91	0	0	2089	5	183	823	3958
92	0	0	2096	5	183	823	3957
93	0	0	2075	4	183	823	3957
94	0	0	2058	4	184	823	3957
95	0	0	2036	5	182	823	3957
96	0	0	2038	5	184	823	3957
97	0	0	2059	6	183	823	3957
98	0	0	2060	5	183	823	3958
99	0	0	2049	5	183	824	3958
100	0	0	2057	5	184	823	3957
101	0	0	2063	5	181	823	3957
102	0	0	2071	5	183	823	3958
103	0	0	2066	5	184	823	3957
104	0	0	2074	5	183	823	3956
105	0	0	2078	4	184	823	3958
106	0	0	2063	4	183	824	3956
107	0	0	2035	5	183	823	3956
108	0	0	2038	5	183	823	3957
109	0	0	2058	5	184	823	3957
110	0	0	2043	5	183	823	3957
111	0	0	2036	5	183	823	3957
112	0	0	2023	5	184	823	3957
113	0	0	2032	5	183	823	3957
114	0	0	2063	5	183	823	3958
115	0	0	2088	5	184	823	3957
116	0	0	2073	4	184	823	3958
117	0	0	2044	4	184	823	3958
118	0	0	2036	5	183	823	3957
119	0	0	2052	5	184	823	3957
120	0	0	2093	5	183	823	3958
121	0	0	2142	5	183	823	3958
122	0	0	2165	5	183	823	3957
123	0	0	2148	4	183	823	3957
124	0	0	2102	4	184	823	3956
125	0	0	2052	4	183	823	3957
126	0	0	2021	4	181	823	3957
127	0	0	2004	5	183	823	3957
0	0	0	2018	5	184	823	3957
1	0	0	2069	5	183	823	3957
2	0	0	2126	5	185	823	3957
3	0	0	2164	5	183	823	3957
4	0	0	2176	5	184	823	3958
5	0	0	2138	4	184	823	3957
6	0	0	2092	3	183	824	3958
7	0	0	2063	4	182	824	3957
8	0	0	2052	5	182	823	3957
9	0	0	2056	5	183	823	3957
10	0	0	2072	5	184	823	3957
11	0	0	2080	5	184	823	3957
12	0	0	2064	5	183	823	3956
13	0	0	2069	5	183	823	3957
14	0	0	2079	5	184	823	3957
15	0	0	2092	5	183	823	3958
16	0	0	2115	5	183	823	3957
17	0	0	2147	5	183	823	3958
18	0	0	2159	5	183	823	3958
19	0	0	2147	6	183	823	3957
20	0	0	2118	4	184	823	3958
21	0	0	2109	4	184	823	3957
22	0	0	2105	4	184	823	3958
23	0	0	2056	4	182	823	3957
24	0	0	2053	5	183	823	3957
25	0	0	2094	5	184	823	3957
26	0	0	2102	5	183	823	3957
27	0	0	2072	4	184	823	3956
28	0	0	2068	5	182	823	3957
29	0	0	2089	5	184	823	3958
30	0	0	2102	5	184	823	3957
31	0	0	2108	5	184	823	3956
32	0	0	2128	5	182	823	3958
33	0	0	2171	5	184	823	3958
34	0	0	2182	5	184	823	3957
35	0	0	2144	4	183	823	3957
36	0	0	2117	4	183	823	3957
37	0	0	2103	5	184	823	3957
38	0	0	2096	5	184	823	3958
39	0	0	2093	5	183	823	3958
40	0	0	2092	5	184	823	3957
41	0	0	2087	5	183	823	3957
42	0	0	2075	5	183	823	3957
43	0	0	2063	5	183	823	3957
44	0	0	2037	4	184	823	3957
45	0	0	2005	4	183	823	3958
46	0	0	2015	5	184	823	3957
47	0	0	2058	5	183	823	3957
48	0	0	2086	5	184	823	3957
49	0	0	2088	5	183	823	3957
50	0	0	2093	5	183	823	3957
51	0	0	2094	5	184	823	3958
52	0	0	2098	5	185	823	3957
53	0	0	2101	5	182	823	3957
54	0	0	2088	4	183	823	3957
55	0	0	2058	4	183	823	3958
56	0	0	2053	5	183	823	3957
57	0	0	2069	5	183	823	3957
58	0	0	2067	5	183	823	3957
59	0	0	2036	4	184	823	3957
60	0	0	2024	5	184	823	3957
61	0	0	2032	5	184	823	3957
62	0	0	2039	5	184	823	3957
63	0	0	2036	6	185	823	3957
64	0	0	2021	4	183	823	3958
65	0	0	2012	5	183	823	3958
66	0	0	1999	4	183	823	3957
67	0	0	1977	5	184	823	3958
68	0	0	1975	5	183	823	3958
69	0	0	2004	5	183	823	3957
70	0	0	2049	6	184	823	3958
71	0	0	2060	5	183	823	3957
72	0	0	2048	5	184	823	3958
73	0	0	2066	5	184	823	3958
74	0	0	2085	5	183	823	3958
75	0	0	2089	5	184	823	3958
76	0	0	2057	3	184	823	3957
77	0	0	2003	4	183	823	3957
78	0	0	1985	5	183	823	3957
79	0	0	2023	5	184	823	3957
80	0	0	2081	5	183	823	3957
81	0	0	2133	5	183	823	3957
82	0	0	2122	4	183	823	3956
83	0	0	2090	5	183	823	3957
84	0	0	2072	4	184	823	3957
85	0	0	2073	5	183	823	3957
86	0	0	2078	5	184	823	3957
87	0	0	2060	5	183	823	3958
88	0	0	2063	5	184	823	3958
89	0	0	2067	4	184	823	3958
90	0	0	2061	5	183	823	3958
91	0	0	2028	5	183	823	3957
92	0	0	1999	5	184	823	3957
93	0	0	1996	5	184	823	3957
94	0	0	1996	5	183	823	3957
95	0	0	2003	5	183	823	3957
96	0	0	2006	5	184	823	3958
97	0	0	2000	5	184	825	3957
98	0	0	2023	5	184	823	3957
99	0	0	2061	4	182	823	3958
100	0	0	2082	5	183	823	3958
101	0	0	2082	5	183	823	3957
102	0	0	2067	5	183	823	3957
103	0	0	2059	5	183	822	3957
104	0	0	2083	4	183	823	3958
105	0	0	2124	5	183	823	3958
106	0	0	2129	5	183	823	3957
107	0	0	2110	4	183	823	3957
108	0	0	2079	5	183	823	3957
109	0	0	2041	3	183	823	3957
110	0	0	2000	4	183	823	3958
111	0	0	1985	5	183	823	3958
112	0	0	2000	5	184	823	3957
113	0	0	1994	5	183	823	3957
114	0	0	1987	5	183	823	3958
115	0	0	1993	5	183	823	3958
116	0	0	2000	5	182	823	3956
117	0	0	1998	5	184	823	3958
118	0	0	1993	5	183	823	3957
119	0	0	1977	4	183	823	3957
120	0	0	1950	5	183	823	3957
121	0	0	1945	5	183	823	3957
122	0	0	1956	5	183	823	3957
123	0	0	1997	5	184	823	3957
124	0	0	2061	5	184	823	3958
125	0	0	2106	5	184	823	3958
126	0	0	2138	5	184	823	3958
127	0	0	2152	5	184	823	3957
0	0	0	2162	5	184	823	3957
1	0	0	2141	4	184	823	3957
2	0	0	2102	4	184	823	3957
3	0	0	2085	5	183	823	3957
4	0	0	2104	4	183	823	3956
5	0	0	2136	5	184	823	3957
6	0	0	2180	5	183	823	3957
7	0	0	2203	5	184	823	3958
8	0	0	2213	5	184	823	3957
9	0	0	2229	5	184	823	3957
10	0	0	2246	5	182	823	3957
11	0	0	2257	5	183	823	3958
12	0	0	2284	5	183	823	3958
13	0	0	2318	5	185	823	3957
14	0	0	2367	5	183	823	3958
15	0	0	2403	5	184	824	3958
16	0	0	2443	5	184	823	3957
17	0	0	2485	5	184	823	3957
18	0	0	2497	5	183	823	3958
19	0	0	2514	5	184	822	3957
20	0	0	2534	5	184	823	3957
21	0	0	2522	4	184	823	3958
22	0	0	2496	5	184	823	3957
23	0	0	2469	4	184	823	3955
24	0	0	2441	4	183	823	3957
25	0	0	2434	5	183	823	3958
26	0	0	2468	5	183	823	3958
27	0	0	2540	5	183	823	3958
28	0	0	2592	5	184	823	3957
29	0	0	2601	5	183	824	3957
30	0	0	2563	4	183	823	3958
31	0	0	2497	4	183	823	3958
32	0	0	2442	4	184	823	3958
33	0	0	2388	4	184	823	3957
34	0	0	2332	4	184	823	3958
35	0	0	2293	4	183	823	3958
36	0	0	2253	3	183	823	3958
37	0	0	2220	4	183	823	3957
38	0	0	2203	5	183	823	3957
39	0	0	2165	5	184	824	3958
40	0	0	2090	4	183	823	3957
41	0	0	2055	3	184	824	3956
42	0	0	2058	5	183	823	3957
43	0	0	2059	5	184	823	3957
44	0	0	2073	5	183	824	3957
45	0	0	2087	5	184	823	3957
46	0	0	2075	5	184	823	3958
47	0	0	2053	5	183	823	3958
48	0	0	2046	4	184	823	3957
49	0	0	2027	5	183	823	3957
50	0	0	2008	4	184	823	3957
51	0	0	2011	5	184	823	3957
52	0	0	2057	5	183	823	3956
53	0	0	2074	5	183	823	3956
54	0	0	2051	4	184	823	3957
55	0	0	2050	5	184	823	3958
56	0	0	2057	4	183	823	3957
57	0	0	2048	4	184	823	3958
58	0	0	2026	5	184	823	3957
59	0	0	2021	5	185	823	3957
60	0	0	2013	5	184	823	3957
61	0	0	2015	5	183	823	3956
62	0	0	2029	5	184	823	3956
63	0	0	2060	6	183	823	3957
64	0	0	2090	5	183	823	3957
65	0	0	2101	5	184	823	3957
66	0	0	2074	4	184	823	3958
67	0	0	2020	4	182	823	3956
68	0	0	1988	4	184	823	3956
69	0	0	1998	6	184	823	3956
70	0	0	2023	5	184	823	3958
71	0	0	2035	4	183	823	3957
72	0	0	2036	5	183	823	3958
73	0	0	2020	5	184	823	3956
74	0	0	1984	5	183	823	3957
75	0	0	1951	5	184	823	3957
76	0	0	1936	5	182	823	3957
77	0	0	1958	5	183	823	3956
78	0	0	1995	5	184	823	3958
79	0	0	2010	5	184	824	3957
80	0	0	2013	5	184	823	3957
81	0	0	2042	4	184	823	3958
82	0	0	2078	5	183	823	3957
83	0	0	2079	5	184	823	3956
84	0	0	2057	5	183	823	3956
85	0	0	2037	5	182	823	3957
86	0	0	2033	5	184	823	3957
87	0	0	2017	4	183	823	3958
88	0	0	1981	4	184	823	3956
89	0	0	1966	5	183	823	3958
90	0	0	1975	5	184	824	3958
91	0	0	2003	4	183	823	3957
92	0	0	2046	5	184	823	3957
93	0	0	2070	6	184	823	3957
94	0	0	2056	6	184	823	3958
95	0	0	2025	4	184	823	3957
96	0	0	2022	4	184	823	3957
97	0	0	2028	5	182	823	3957
98	0	0	2043	5	184	823	3956
99	0	0	2050	5	184	824	3957
100	0	0	2055	5	185	823	3957
101	0	0	2071	5	183	823	3958
102	0	0	2074	5	184	823	3959
103	0	0	2064	4	183	823	3958
104	0	0	2024	5	184	823	3957
105	0	0	2002	5	184	823	3957
106	0	0	2026	4	183	823	3957
107	0	0	2055	5	183	823	3957
108	0	0	2065	5	183	823	3956
109	0	0	2068	5	183	823	3957
110	0	0	2063	5	181	823	3958
111	0	0	2070	5	183	823	3957
112	0	0	2072	5	183	823	3958
113	0	0	2092	6	183	823	3957
114	0	0	2092	5	183	823	3957
115	0	0	2053	4	185	823	3957
116	0	0	2016	4	184	823	3958
117	0	0	2029	5	184	823	3957
118	0	0	2047	5	184	823	3956
119	0	0	2055	5	184	823	3957
120	0	0	2041	4	183	823	3957
121	0	0	2013	4	184	823	3957
122	0	0	1999	5	184	823	3958
123	0	0	2005	5	183	823	3957
124	0	0	2038	5	184	823	3957
125	0	0	2055	5	183	823	3956
126	0	0	2037	4	183	823	3957
127	0	0	2027	5	184	823	3957
0	0	0	2050	5	183	823	3958
1	0	0	2076	5	184	823	3957
2	0	0	2099	5	184	823	3956
3	0	0	2106	5	183	823	3957
4	0	0	2090	5	183	823	3956
5	0	0	2094	5	183	823	3956
6	0	0	2099	5	184	823	3956
7	0	0	2094	4	182	823	3957
8	0	0	2065	4	184	823	3957
9	0	0	2050	5	183	823	3958
10	0	0	2063	6	183	823	3957
11	0	0	2049	4	184	823	3957
12	0	0	2020	5	183	823	3957
13	0	0	2031	5	183	823	3958
14	0	0	2069	5	184	823	3957
15	0	0	2089	4	184	823	3957
16	0	0	2052	5	184	823	3957
17	0	0	2032	5	182	823	3957
18	0	0	2063	5	184	823	3957
19	0	0	2103	5	183	823	3958
20	0	0	2132	5	183	823	3956
21	0	0	2151	5	184	824	3956
22	0	0	2147	5	181	823	3957
23	0	0	2107	4	183	823	3957
24	0	0	2069	5	184	823	3957
25	0	0	2067	5	184	823	3956
26	0	0	2096	4	183	823	3956
27	0	0	2118	5	184	823	3957
28	0	0	2118	5	183	823	3957
29	0	0	2112	5	183	823	3957
30	0	0	2120	5	183	823	3957
31	0	0	2139	5	184	823	3958
32	0	0	2150	5	183	823	3958
33	0	0	2156	5	184	823	3958
34	0	0	2153	5	183	823	3958
35	0	0	2124	4	184	823	3957
36	0	0	2095	5	183	823	3957
37	0	0	2105	5	183	823	3958
38	0	0	2116	5	184	823	3957
39	0	0	2108	5	183	823	3958
40	0	0	2105	5	183	823	3957
41	0	0	2105	5	184	823	3957
42	0	0	2098	5	185	823	3956
43	0	0	2073	4	183	823	3957
44	0	0	2056	5	184	823	3957
45	0	0	2054	5	184	823	3957
46	0	0	2068	5	184	823	3957
47	0	0	2083	5	183	823	3957
48	0	0	2108	5	183	824	3958
49	0	0	2164	5	184	823	3957
50	0	0	2161	4	185	823	3957
51	0	0	2127	4	183	823	3957
52	0	0	2095	4	184	823	3957
53	0	0	2094	5	185	823	3958
54	0	0	2106	5	183	823	3958
55	0	0	2122	5	183	823	3956
56	0	0	2126	5	183	823	3957
57	0	0	2117	5	184	823	3957
58	0	0	2107	5	184	823	3957
59	0	0	2096	4	183	823	3957
60	0	0	2092	5	183	823	3956
61	0	0	2101	5	184	823	3957
62	0	0	2113	5	184	823	3957
63	0	0	2120	6	184	823	3958
64	0	0	2116	5	183	823	3958
65	0	0	2113	5	183	823	3957
66	0	0	2121	5	182	823	3957
67	0	0	2118	5	184	823	3957
68	0	0	2121	5	183	823	3958
69	0	0	2152	5	183	823	3957
70	0	0	2188	5	183	823	3958
71	0	0	2192	4	183	822	3957
72	0	0	2151	4	184	823	3957
73	0	0	2138	5	184	823	3957
74	0	0	2156	5	184	823	3957
75	0	0	2178	5	184	823	3956
76	0	0	2178	6	184	823	3957
77	0	0	2174	5	184	823	3957
78	0	0	2178	5	184	823	3957
79	0	0	2182	5	183	823	3958
80	0	0	2180	4	183	823	3957
81	0	0	2173	5	183	823	3958
82	0	0	2176	6	183	823	3958
83	0	0	2163	5	183	823	3958
84	0	0	2160	5	184	823	3957
85	0	0	2181	5	183	823	3957
86	0	0	2199	6	183	823	3957
87	0	0	2186	4	184	823	3957
88	0	0	2144	5	183	823	3957
89	0	0	2139	5	184	823	3957
90	0	0	2159	5	184	823	3956
91	0	0	2196	4	183	823	3956
92	0	0	2242	5	183	823	3957
93	0	0	2288	5	183	824	3958
94	0	0	2307	5	183	823	3957
95	0	0	2273	4	184	823	3957
96	0	0	2188	4	184	823	3957
97	0	0	2130	4	183	823	3958
98	0	0	2130	5	184	823	3958
99	0	0	2152	5	183	823	3957
100	0	0	2181	5	184	823	3957
101	0	0	2203	5	183	823	3957
102	0	0	2208	6	184	823	3957
103	0	0	2216	5	184	823	3958
104	0	0	2248	5	184	823	3957
105	0	0	2262	4	183	823	3956
106	0	0	2219	5	183	823	3957
107	0	0	2175	4	184	823	3957
108	0	0	2159	5	183	823	3957
109	0	0	2171	5	184	823	3958
110	0	0	2178	6	184	823	3956
111	0	0	2183	6	183	823	3957
112	0	0	2200	5	183	823	3957
113	0	0	2198	5	183	823	3958
114	0	0	2197	5	183	823	3958
115	0	0	2212	5	183	823	3958
116	0	0	2233	5	184	822	3957
117	0	0	2255	5	183	823	3957
118	0	0	2234	4	183	823	3958
119	0	0	2187	5	183	823	3957
120	0	0	2167	5	184	823	3957
121	0	0	2163	5	183	823	3957
122	0	0	2185	5	184	823	3957
123	0	0	2207	5	184	824	3957
124	0	0	2221	5	183	823	3958
125	0	0	2223	5	184	823	3956
126	0	0	2225	4	184	823	3956
127	0	0	2230	5	183	823	3957
0	0	0	2220	5	184	823	3957
1	0	0	2199	5	184	823	3958
2	0	0	2190	4	183	823	3957
3	0	0	2182	5	183	823	3958
4	0	0	2180	5	183	823	3958
5	0	0	2180	5	184	824	3957
6	0	0	2189	5	184	823	3958
7	0	0	2200	5	183	823	3957
8	0	0	2212	5	183	823	3957
9	0	0	2272	5	183	823	3957
10	0	0	2331	5	184	823	3957
11	0	0	2304	4	183	823	3958
12	0	0	2259	5	183	823	3957
13	0	0	2220	4	183	823	3957
14	0	0	2186	5	183	823	3958
15	0	0	2177	5	184	823	3957
16	0	0	2186	5	183	823	3956
17	0	0	2195	5	183	823	3956
18	0	0	2209	5	184	823	3956
19	0	0	2229	5	183	823	3957
20	0	0	2239	5	182	823	3957
21	0	0	2235	5	183	823	3958
22	0	0	2233	5	183	823	3958
23	0	0	2235	5	183	824	3957
24	0	0	2208	4	183	823	3957
25	0	0	2183	4	184	823	3958
26	0	0	2179	5	184	823	3957
27	0	0	2189	5	184	823	3956
28	0	0	2214	5	184	823	3956
29	0	0	2233	5	184	823	3956
30	0	0	2204	4	184	823	3957
31	0	0	2154	4	184	823	3958
32	0	0	2146	5	184	823	3956
33	0	0	2151	5	184	823	3957
34	0	0	2155	5	183	823	3958
35	0	0	2164	5	184	823	3958
36	0	0	2173	5	184	823	3957
37	0	0	2183	5	183	823	3958
38	0	0	2191	5	183	823	3957
39	0	0	2179	5	183	823	3956
40	0	0	2157	5	184	823	3957
41	0	0	2154	5	184	823	3957
42	0	0	2166	5	184	823	3956
43	0	0	2170	5	183	823	3956
44	0	0	2174	5	185	823	3956
45	0	0	2182	5	184	823	3957
46	0	0	2184	5	184	823	3957
47	0	0	2157	4	183	823	3956
48	0	0	2114	4	183	823	3956
49	0	0	2125	5	184	823	3957
50	0	0	2172	5	182	823	3958
51	0	0	2198	5	183	823	3958
52	0	0	2172	4	183	823	3957
53	0	0	2143	4	184	823	3958
54	0	0	2135	5	184	823	3958
55	0	0	2147	5	182	823	3958
56	0	0	2175	5	183	823	3958
57	0	0	2162	4	183	823	3957
58	0	0	2122	4	184	823	3957
59	0	0	2123	5	183	823	3956
60	0	0	2158	5	184	823	3957
61	0	0	2176	5	184	823	3957
62	0	0	2162	4	182	823	3957
63	0	0	2126	4	184	823	3956
64	0	0	2107	5	184	823	3956
65	0	0	2105	5	182	823	3957
66	0	0	2116	5	184	823	3956
67	0	0	2104	4	183	823	3956
68	0	0	2069	4	184	823	3957
69	0	0	2046	4	183	823	3958
70	0	0	2050	5	184	823	3958
71	0	0	2065	5	184	823	3958
72	0	0	2092	5	183	823	3957
73	0	0	2107	5	183	823	3957
74	0	0	2105	5	184	822	3957
75	0	0	2106	5	183	823	3957
76	0	0	2106	5	183	823	3956
77	0	0	2109	5	182	824	3958
78	0	0	2123	5	183	824	3957
79	0	0	2107	4	184	822	3956
80	0	0	2081	5	183	823	3957
81	0	0	2095	5	183	823	3957
82	0	0	2105	5	183	823	3956
83	0	0	2103	5	184	823	3957
84	0	0	2120	5	183	823	3958
85	0	0	2137	5	182	823	3957
86	0	0	2146	5	184	823	3957
87	0	0	2132	5	184	823	3957
88	0	0	2132	5	183	823	3958
89	0	0	2145	5	183	822	3957
90	0	0	2160	5	183	823	3958
91	0	0	2144	5	183	823	3957
92	0	0	2134	4	184	823	3957
93	0	0	2103	4	184	823	3956
94	0	0	2090	5	183	823	3957
95	0	0	2117	5	183	823	3957
96	0	0	2152	5	184	823	3956
97	0	0	2164	5	184	823	3956
98	0	0	2145	4	184	823	3956
99	0	0	2113	4	184	823	3957
100	0	0	2089	5	182	823	3957
101	0	0	2078	5	183	823	3957
102	0	0	2069	5	183	823	3957
103	0	0	2066	5	183	823	3957
104	0	0	2069	5	183	823	3958
105	0	0	2075	5	184	823	3958
106	0	0	2090	5	184	823	3958
107	0	0	2108	5	184	823	3956
108	0	0	2113	5	183	823	3957
109	0	0	2115	5	183	823	3958
110	0	0	2112	5	183	823	3957
111	0	0	2120	5	183	823	3956
112	0	0	2113	4	183	823	3956
113	0	0	2103	5	182	823	3957
114	0	0	2080	4	184	823	3957
115	0	0	2083	5	184	823	3957
116	0	0	2104	5	183	823	3958
117	0	0	2130	5	184	823	3956
118	0	0	2144	5	183	823	3957
119	0	0	2128	5	184	823	3957
120	0	0	2121	5	184	823	3957
121	0	0	2113	5	184	823	3957
122	0	0	2109	5	184	823	3957
123	0	0	2102	5	184	823	3957
124	0	0	2069	4	184	822	3957
125	0	0	2035	5	183	823	3958
126	0	0	2038	5	183	823	3956
127	0	0	2084	5	183	823	3958
0	0	0	2129	5	183	822	3956
1	0	0	2125	4	184	823	3957
2	0	0	2104	5	184	823	3957
3	0	0	2103	5	184	823	3956
4	0	0	2117	5	184	823	3956
5	0	0	2147	5	183	823	3957
6	0	0	2141	4	185	823	3957
7	0	0	2111	4	184	823	3958
8	0	0	2100	5	183	823	3958
9	0	0	2095	4	183	823	3957
10	0	0	2089	5	184	823	3957
11	0	0	2097	5	183	823	3957
12	0	0	2136	5	183	824	3958
13	0	0	2166	5	183	823	3956
14	0	0	2170	5	181	823	3957
15	0	0	2175	5	183	823	3957
16	0	0	2158	4	184	823	3957
17	0	0	2146	5	184	823	3957
18	0	0	2152	5	184	823	3956
19	0	0	2161	5	183	823	3956
20	0	0	2163	5	183	823	3958
21	0	0	2145	5	183	823	3958
22	0	0	2141	5	184	823	3957
23	0	0	2111	4	184	823	3957
24	0	0	2080	4	182	823	3957
25	0	0	2078	5	184	823	3957
26	0	0	2113	5	184	823	3957
27	0	0	2177	5	184	823	3958
28	0	0	2217	5	183	823	3956
29	0	0	2232	5	183	823	3957
30	0	0	2231	5	184	823	3956
31	0	0	2192	4	184	823	3957
32	0	0	2146	5	184	823	3957
33	0	0	2110	4	184	823	3956
34	0	0	2100	4	183	823	3958
35	0	0	2113	5	183	823	3956
36	0	0	2113	5	183	823	3957
37	0	0	2102	5	184	823	3958
38	0	0	2094	5	183	823	3957
39	0	0	2090	5	182	823	3958
40	0	0	2111	5	184	823	3956
41	0	0	2143	5	184	823	3957
42	0	0	2153	5	182	823	3958
43	0	0	2155	5	183	823	3957
44	0	0	2148	5	184	823	3957
45	0	0	2122	4	183	823	3957
46	0	0	2115	5	184	823	3957
47	0	0	2132	5	184	823	3957
48	0	0	2171	5	184	823	3958
49	0	0	2217	5	184	823	3956
50	0	0	2245	5	183	823	3956
51	0	0	2252	5	184	823	3957
52	0	0	2224	4	184	823	3957
53	0	0	2178	4	183	823	3956
54	0	0	2137	4	182	823	3957
55	0	0	2141	5	185	823	3956
56	0	0	2177	4	184	823	3956
57	0	0	2212	5	183	823	3957
58	0	0	2214	5	183	823	3957
59	0	0	2181	5	182	823	3958
60	0	0	2152	4	183	824	3957
61	0	0	2132	5	184	824	3957
62	0	0	2167	5	184	823	3958
63	0	0	2243	5	183	823	3956
64	0	0	2250	4	183	823	3956
65	0	0	2203	4	182	823	3957
66	0	0	2169	4	183	823	3956
67	0	0	2118	4	184	823	3957
68	0	0	2084	5	184	823	3956
69	0	0	2081	4	184	823	3956
70	0	0	2099	5	183	823	3956
71	0	0	2135	5	184	823	3957
72	0	0	2153	5	183	823	3957
73	0	0	2171	5	184	823	3956
74	0	0	2198	4	183	823	3951
75	0	0	2183	4	183	823	3957
76	0	0	2132	4	183	823	3957
77	0	0	2096	4	183	823	3958
78	0	0	2093	5	184	823	3956
79	0	0	2096	5	184	823	3956
80	0	0	2103	5	184	823	3957
81	0	0	2119	5	185	823	3957
82	0	0	2151	5	183	823	3957
83	0	0	2174	5	183	823	3956
84	0	0	2174	5	183	823	3956
85	0	0	2181	5	183	823	3957
86	0	0	2186	5	184	823	3958
87	0	0	2191	5	183	823	3957
88	0	0	2187	5	183	823	3956
89	0	0	2188	5	184	823	3956
90	0	0	2171	5	184	823	3957
91	0	0	2152	5	184	823	3956
92	0	0	2161	5	183	823	3957
93	0	0	2188	5	183	823	3957
94	0	0	2195	5	183	823	3957
95	0	0	2182	5	184	823	3956
96	0	0	2183	5	183	824	3957
97	0	0	2189	5	183	823	3957
98	0	0	2206	5	183	823	3956
99	0	0	2209	5	183	823	3956
100	0	0	2172	4	184	823	3956
101	0	0	2122	4	184	823	3956
102	0	0	2096	5	183	823	3957
103	0	0	2110	5	183	823	3956
104	0	0	2132	5	183	823	3956
105	0	0	2132	5	183	823	3956
106	0	0	2136	5	184	823	3957
107	0	0	2155	5	183	823	3957
108	0	0	2177	5	183	823	3957
109	0	0	2187	5	184	823	3957
110	0	0	2157	4	183	823	3957
111	0	0	2125	5	183	824	3957
112	0	0	2107	4	184	823	3958
113	0	0	2100	5	184	823	3957
114	0	0	2113	4	184	823	3958
115	0	0	2125	5	184	823	3956
116	0	0	2121	5	183	823	3957
117	0	0	2105	5	183	823	3958
118	0	0	2117	5	184	823	3956
119	0	0	2136	5	184	823	3958
120	0	0	2142	5	184	823	3956
121	0	0	2172	5	184	823	3957
122	0	0	2195	5	183	823	3958
123	0	0	2200	5	184	823	3957
124	0	0	2193	4	184	823	3958
125	0	0	2188	5	184	823	3957
126	0	0	2158	5	184	823	3957
127	0	0	2150	5	183	823	3958
0	0	0	2150	5	184	823	3956
1	0	0	2152	5	183	823	3957
2	0	0	2144	5	183	823	3956
3	0	0	2150	5	183	823	3956
4	0	0	2178	5	182	823	3957
5	0	0	2198	5	184	823	3957
6	0	0	2170	4	183	823	3956
7	0	0	2154	5	182	823	3956
8	0	0	2171	5	184	823	3957
9	0	0	2194	5	183	823	3957
10	0	0	2174	4	183	823	3957
11	0	0	2152	5	184	823	3957
12	0	0	2149	5	183	823	3957
13	0	0	2150	5	184	824	3958
14	0	0	2157	5	183	823	3958
15	0	0	2175	5	183	823	3958
16	0	0	2189	5	183	823	3956
17	0	0	2185	5	184	823	3957
18	0	0	2189	5	184	823	3958
19	0	0	2176	4	184	823	3957
20	0	0	2155	4	183	823	3956
21	0	0	2125	4	183	823	3956
22	0	0	2103	5	183	823	3956
23	0	0	2118	5	183	823	3957
24	0	0	2128	5	183	823	3957
25	0	0	2096	4	183	823	3955
26	0	0	2060	4	185	823	3956
27	0	0	2080	5	183	823	3957
28	0	0	2138	5	184	823	3957
29	0	0	2168	5	182	823	3957
30	0	0	2161	5	183	823	3957
31	0	0	2132	4	184	823	3958
32	0	0	2127	5	183	823	3957
33	0	0	2138	5	183	824	3957
34	0	0	2135	5	183	823	3958
35	0	0	2120	5	184	823	3956
36	0	0	2104	5	182	823	3956
37	0	0	2102	5	183	823	3956
38	0	0	2116	5	184	822	3956
39	0	0	2149	5	184	823	3957
40	0	0	2176	5	183	823	3956
41	0	0	2152	5	184	823	3956
42	0	0	2149	5	183	823	3956
43	0	0	2162	5	184	823	3957
44	0	0	2171	5	182	823	3957
45	0	0	2154	5	184	823	3956
46	0	0	2142	5	183	823	3957
47	0	0	2146	5	183	823	3957
48	0	0	2142	4	183	823	3958
49	0	0	2116	5	183	823	3957
50	0	0	2110	5	183	823	3958
51	0	0	2114	6	183	823	3957
52	0	0	2112	5	183	823	3957
53	0	0	2105	5	184	824	3957
54	0	0	2099	5	183	823	3957
55	0	0	2111	5	183	823	3956
56	0	0	2134	5	184	823	3957
57	0	0	2146	5	183	823	3957
58	0	0	2141	5	183	823	3957
59	0	0	2136	5	183	823	3957
60	0	0	2118	5	182	823	3956
61	0	0	2130	5	183	823	3956
62	0	0	2173	5	184	823	3957
63	0	0	2178	5	184	823	3957
64	0	0	2148	5	182	823	3957
65	0	0	2126	5	184	823	3956
66	0	0	2122	5	183	823	3957
67	0	0	2116	5	184	823	3956
68	0	0	2102	5	184	823	3957
69	0	0	2103	5	183	823	3958
70	0	0	2117	5	184	823	3956
71	0	0	2146	5	183	823	3957
72	0	0	2160	5	185	824	3957
73	0	0	2172	5	184	823	3957
74	0	0	2187	5	183	823	3957
75	0	0	2181	5	183	823	3958
76	0	0	2175	5	184	823	3957
77	0	0	2170	4	183	823	3956
78	0	0	2140	4	183	823	3957
79	0	0	2122	5	183	823	3957
80	0	0	2116	5	183	823	3957
81	0	0	2113	5	184	823	3957
82	0	0	2129	5	184	823	3957
83	0	0	2154	5	183	823	3957
84	0	0	2175	5	183	823	3958
85	0	0	2183	5	184	823	3956
86	0	0	2187	5	183	823	3956
87	0	0	2152	4	184	823	3956
88	0	0	2124	5	183	823	3957
89	0	0	2113	5	182	823	3957
90	0	0	2110	5	183	823	3958
91	0	0	2107	5	182	824	3956
92	0	0	2105	5	184	823	3956
93	0	0	2125	6	183	823	3957
94	0	0	2114	4	183	823	3957
95	0	0	2081	4	183	823	3956
96	0	0	2082	5	183	823	3958
97	0	0	2097	5	183	822	3957
98	0	0	2110	5	184	823	3957
99	0	0	2124	5	182	823	3957
100	0	0	2129	5	184	823	3957
101	0	0	2133	5	183	823	3956
102	0	0	2125	5	184	823	3957
103	0	0	2159	5	183	823	3958
104	0	0	2193	5	183	823	3958
105	0	0	2198	5	183	823	3956
106	0	0	2170	4	184	823	3956
107	0	0	2125	4	184	822	3956
108	0	0	2097	5	183	823	3956
109	0	0	2094	5	183	823	3958
110	0	0	2085	5	183	823	3956
111	0	0	2079	5	184	823	3956
112	0	0	2075	5	185	823	3957
113	0	0	2063	5	183	823	3957
114	0	0	2084	6	182	823	3957
115	0	0	2119	5	184	823	3958
116	0	0	2141	5	184	823	3957
117	0	0	2138	4	183	823	3956
118	0	0	2129	5	184	823	3957
119	0	0	2117	5	184	823	3957
120	0	0	2122	5	184	823	3956
121	0	0	2146	5	184	824	3958
122	0	0	2156	5	184	823	3956
123	0	0	2141	5	183	823	3956
124	0	0	2122	5	184	823	3957
125	0	0	2101	4	184	823	3956
126	0	0	2095	5	184	823	3956
127	0	0	2087	5	184	823	3957
0	0	0	2085	5	183	823	3958
1	0	0	2112	5	183	823	3957
2	0	0	2145	5	184	823	3956
3	0	0	2137	5	184	823	3956
4	0	0	2105	4	184	823	3957
5	0	0	2116	5	183	823	3957
6	0	0	2168	5	182	823	3957
7	0	0	2202	5	183	823	3956
8	0	0	2169	4	183	823	3958
9	0	0	2100	4	184	823	3956
10	0	0	2061	5	184	824	3957
11	0	0	2067	5	183	823	3958
12	0	0	2075	5	184	823	3956
13	0	0	2079	5	183	823	3956
14	0	0	2083	5	185	823	3956
15	0	0	2115	5	183	823	3956
16	0	0	2154	5	184	823	3957
17	0	0	2159	5	184	823	3957
18	0	0	2132	4	185	823	3956
19	0	0	2089	4	183	823	3956
20	0	0	2060	5	183	823	3957
21	0	0	2063	5	184	823	3958
22	0	0	2096	5	183	823	3956
23	0	0	2133	5	184	824	3958
24	0	0	2146	5	183	823	3957
25	0	0	2132	4	183	823	3956
26	0	0	2104	4	183	823	3957
27	0	0	2102	5	183	823	3956
28	0	0	2127	5	183	823	3956
29	0	0	2159	4	184	823	3957
30	0	0	2159	5	183	823	3956
31	0	0	2123	4	184	823	3957
32	0	0	2087	5	184	823	3956
