# bioPlux Text File Format
# Version: 1
# StartDateTime: 2011-07-19 09:32:46
# SamplingFrequency: 1000
# SampledChannels: 1 2 3 4
# SamplingResolution: 12
# AcquiringDevice: 00:07:80:42:0F:8B
# EndOfHeader
0	0	0	2094	8	2908	55
1	0	0	2065	7	2910	55
2	0	0	2016	3	2908	54
3	0	0	1968	7	2902	54
4	0	0	1919	7	2895	55
5	0	0	1922	10	2893	54
6	0	0	1966	10	2894	52
7	0	0	2007	11	2898	54
8	0	0	2072	10	2902	55
9	0	0	2144	10	2906	54
10	0	0	2199	10	2909	55
11	0	0	2233	11	2909	52
12	0	0	2253	7	2908	54
13	0	0	2266	11	2903	54
14	0	0	2298	11	2895	54
15	0	0	2311	10	2894	55
16	0	0	2292	8	2894	54
17	0	0	2250	7	2898	53
18	0	0	2178	7	2902	53
19	0	0	2106	7	2906	55
20	0	0	2051	7	2909	55
21	0	0	2029	10	2909	52
22	0	0	2028	11	2908	55
23	0	0	2044	12	2902	54
24	0	0	2036	11	2896	53
25	0	0	2036	10	2894	55
26	0	0	2053	10	2895	54
27	0	0	2077	7	2898	53
28	0	0	2117	10	2902	55
29	0	0	2172	11	2906	54
30	0	0	2203	11	2909	55
31	0	0	2223	11	2909	52
32	0	0	2230	9	2908	54
33	0	0	2236	11	2903	56
34	0	0	2256	11	2895	54
35	0	0	2236	8	2894	54
36	0	0	2200	9	2895	54
37	0	0	2176	6	2898	54
38	0	0	2157	8	2903	57
39	0	0	2109	7	2906	54
40	0	0	2060	7	2910	55
41	0	0	2023	8	2910	55
42	0	0	2010	11	2908	54
43	0	0	2016	11	2903	55
44	0	0	1986	8	2895	55
45	0	0	1980	11	2894	54
46	0	0	2003	10	2895	55
47	0	0	2041	8	2898	53
48	0	0	2092	11	2903	53
49	0	0	2141	11	2906	55
50	0	0	2181	11	2909	55
51	0	0	2216	11	2910	53
52	0	0	2241	9	2908	54
53	0	0	2265	10	2903	53
54	0	0	2295	12	2895	54
55	0	0	2296	11	2893	54
56	0	0	2267	9	2894	55
57	0	0	2234	5	2898	53
58	0	0	2194	8	2902	53
59	0	0	2151	8	2906	55
60	0	0	2119	9	2908	54
61	0	0	2065	5	2910	55
62	0	0	1996	3	2908	54
63	0	0	1958	4	2902	55
64	0	0	1920	8	2896	54
65	0	0	1923	11	2893	54
66	0	0	1963	10	2895	55
67	0	0	1996	11	2899	53
68	0	0	2016	11	2902	54
69	0	0	2063	10	2906	55
70	0	0	2123	12	2908	54
71	0	0	2162	11	2909	54
72	0	0	2187	10	2908	53
73	0	0	2205	11	2903	54
74	0	0	2233	11	2896	53
75	0	0	2252	10	2894	53
76	0	0	2247	10	2895	55
77	0	0	2230	8	2899	53
78	0	0	2194	8	2902	52
79	0	0	2160	7	2906	55
80	0	0	2109	7	2909	53
81	0	0	2050	7	2909	55
82	0	0	1980	4	2908	55
83	0	0	1904	7	2903	54
84	0	0	1837	11	2895	54
85	0	0	1832	12	2893	53
86	0	0	1884	10	2895	54
87	0	0	1962	8	2898	53
88	0	0	2044	11	2902	53
89	0	0	2123	15	2905	54
90	0	0	2179	12	2908	54
91	0	0	2209	11	2910	55
92	0	0	2219	8	2908	54
93	0	0	2220	11	2902	53
94	0	0	2231	11	2897	53
95	0	0	2221	9	2894	54
96	0	0	2178	8	2894	55
97	0	0	2129	7	2899	53
98	0	0	2093	8	2902	53
99	0	0	2052	7	2906	54
100	0	0	2005	7	2909	55
101	0	0	1978	9	2910	55
102	0	0	1974	8	2908	54
103	0	0	1982	10	2904	53
104	0	0	1938	6	2896	54
105	0	0	1915	8	2893	54
106	0	0	1935	11	2894	54
107	0	0	1963	8	2898	53
108	0	0	1992	7	2901	55
109	0	0	2030	15	2905	54
110	0	0	2082	12	2908	54
111	0	0	2131	10	2910	55
112	0	0	2182	10	2908	54
113	0	0	2225	11	2903	53
114	0	0	2270	10	2897	53
115	0	0	2293	11	2894	53
116	0	0	2263	8	2894	55
117	0	0	2222	8	2898	53
118	0	0	2196	9	2903	54
119	0	0	2160	10	2906	54
120	0	0	2095	5	2909	55
121	0	0	2025	7	2909	55
122	0	0	1970	7	2908	54
123	0	0	1930	6	2903	55
124	0	0	1871	11	2895	54
125	0	0	1846	9	2894	54
126	0	0	1860	10	2894	54
127	0	0	1877	8	2899	54
0	0	0	1910	11	2902	53
1	0	0	1975	10	2906	54
2	0	0	2060	12	2908	54
3	0	0	2144	11	2910	55
4	0	0	2229	11	2909	54
5	0	0	2269	11	2903	54
6	0	0	2294	11	2897	53
7	0	0	2284	8	2894	55
8	0	0	2232	8	2894	55
9	0	0	2174	7	2898	54
10	0	0	2124	7	2902	54
11	0	0	2081	7	2906	53
12	0	0	2034	8	2909	52
13	0	0	1984	7	2909	55
14	0	0	1937	7	2909	54
15	0	0	1913	7	2904	55
16	0	0	1884	7	2896	54
17	0	0	1881	10	2894	54
18	0	0	1906	11	2894	54
19	0	0	1951	10	2899	53
20	0	0	2009	11	2902	54
21	0	0	2076	9	2907	53
22	0	0	2126	10	2909	53
23	0	0	2154	11	2909	55
24	0	0	2179	10	2909	54
25	0	0	2199	11	2903	54
26	0	0	2207	8	2897	53
27	0	0	2167	8	2893	53
28	0	0	2099	6	2896	54
29	0	0	2048	8	2898	54
30	0	0	2038	11	2902	56
31	0	0	2061	10	2906	56
32	0	0	2094	11	2909	54
33	0	0	2124	10	2910	54
34	0	0	2133	11	2909	54
35	0	0	2133	11	2904	56
36	0	0	2113	9	2896	54
37	0	0	2116	11	2894	54
38	0	0	2155	10	2895	54
39	0	0	2205	14	2899	53
40	0	0	2287	11	2903	53
41	0	0	2381	12	2906	55
42	0	0	2457	15	2908	54
43	0	0	2527	11	2910	54
44	0	0	2585	11	2908	54
45	0	0	2628	11	2904	55
46	0	0	2673	11	2896	52
47	0	0	2697	11	2894	53
48	0	0	2721	11	2895	54
49	0	0	2722	11	2898	53
50	0	0	2694	10	2902	54
51	0	0	2658	8	2906	55
52	0	0	2615	8	2909	55
53	0	0	2578	7	2910	54
54	0	0	2546	10	2908	54
55	0	0	2517	8	2904	55
56	0	0	2472	8	2896	53
57	0	0	2453	11	2895	51
58	0	0	2446	10	2895	54
59	0	0	2453	11	2899	54
60	0	0	2517	11	2902	54
61	0	0	2584	11	2906	54
62	0	0	2610	11	2909	52
63	0	0	2603	11	2910	54
64	0	0	2588	11	2908	54
65	0	0	2581	11	2904	54
66	0	0	2581	11	2897	54
67	0	0	2536	7	2894	55
68	0	0	2461	6	2895	53
69	0	0	2368	7	2898	54
70	0	0	2268	6	2902	55
71	0	0	2173	7	2906	53
72	0	0	2089	6	2908	55
73	0	0	2015	7	2909	53
74	0	0	1975	8	2908	55
75	0	0	1961	8	2904	54
76	0	0	1924	8	2896	54
77	0	0	1904	11	2893	54
78	0	0	1915	11	2895	53
79	0	0	1947	11	2898	52
80	0	0	1998	11	2902	53
81	0	0	2062	10	2906	55
82	0	0	2120	11	2909	55
83	0	0	2167	11	2911	54
84	0	0	2200	11	2908	55
85	0	0	2209	11	2904	53
86	0	0	2220	11	2896	54
87	0	0	2223	10	2894	54
88	0	0	2193	8	2895	54
89	0	0	2147	8	2898	54
90	0	0	2099	8	2902	54
91	0	0	2057	7	2906	54
92	0	0	1997	7	2909	55
93	0	0	1948	8	2910	55
94	0	0	1928	9	2907	54
95	0	0	1930	16	2904	55
96	0	0	1909	8	2897	54
97	0	0	1886	7	2894	54
98	0	0	1897	10	2895	53
99	0	0	1919	11	2898	54
100	0	0	1960	11	2902	53
101	0	0	2026	10	2906	54
102	0	0	2049	10	2909	55
103	0	0	2030	9	2910	53
104	0	0	2031	9	2909	54
105	0	0	2044	11	2904	54
106	0	0	2099	13	2897	53
107	0	0	2153	10	2895	53
108	0	0	2187	11	2895	52
109	0	0	2195	10	2899	52
110	0	0	2127	6	2902	56
111	0	0	2049	7	2906	54
112	0	0	1986	6	2910	55
113	0	0	1953	8	2910	53
114	0	0	1957	10	2909	54
115	0	0	1959	10	2904	55
116	0	0	1928	8	2896	54
117	0	0	1886	9	2894	54
118	0	0	1876	10	2895	54
119	0	0	1926	10	2899	53
120	0	0	2037	11	2902	54
121	0	0	2136	11	2905	53
122	0	0	2198	9	2909	54
123	0	0	2237	11	2910	53
124	0	0	2271	11	2909	54
125	0	0	2306	11	2904	54
126	0	0	2329	12	2896	53
127	0	0	2314	7	2894	54
0	0	0	2255	8	2894	55
1	0	0	2185	10	2898	19
2	0	0	2137	8	2902	54
3	0	0	2095	9	2907	54
4	0	0	2043	7	2910	55
5	0	0	1996	8	2910	52
6	0	0	1953	7	2909	55
7	0	0	1904	7	2904	56
8	0	0	1839	7	2896	55
9	0	0	1805	8	2894	55
10	0	0	1828	10	2895	55
11	0	0	1882	10	2898	53
12	0	0	1962	10	2902	54
13	0	0	2067	10	2906	54
14	0	0	2167	7	2909	54
15	0	0	2211	11	2909	55
16	0	0	2203	10	2909	55
17	0	0	2211	10	2905	53
18	0	0	2224	13	2897	54
19	0	0	2201	7	2894	55
20	0	0	2156	8	2895	52
21	0	0	2106	8	2898	54
22	0	0	2078	7	2902	54
23	0	0	2069	9	2907	54
24	0	0	2057	8	2909	55
25	0	0	2038	8	2910	53
26	0	0	2043	10	2910	56
27	0	0	2075	10	2904	55
28	0	0	2080	8	2897	52
29	0	0	2043	7	2894	55
30	0	0	2000	6	2895	56
31	0	0	1995	10	2898	54
32	0	0	2042	10	2902	54
33	0	0	2128	7	2906	56
34	0	0	2195	10	2910	54
35	0	0	2224	11	2909	56
36	0	0	2251	11	2910	54
37	0	0	2278	10	2905	53
38	0	0	2309	11	2897	53
39	0	0	2297	7	2894	54
40	0	0	2248	7	2896	53
41	0	0	2195	7	2899	54
42	0	0	2129	6	2902	54
43	0	0	2057	8	2905	54
44	0	0	1999	7	2908	54
45	0	0	1992	10	2910	55
46	0	0	2012	12	2909	55
47	0	0	2041	11	2905	54
48	0	0	2019	7	2898	54
49	0	0	2007	11	2894	54
50	0	0	2042	11	2895	53
51	0	0	2081	10	2899	53
52	0	0	2109	10	2902	54
53	0	0	2152	12	2905	54
54	0	0	2214	10	2910	54
55	0	0	2264	10	2911	53
56	0	0	2294	11	2909	54
57	0	0	2308	11	2905	54
58	0	0	2342	7	2897	56
59	0	0	2373	11	2895	54
60	0	0	2351	7	2895	53
61	0	0	2260	7	2899	54
62	0	0	2164	7	2902	54
63	0	0	2075	8	2906	53
64	0	0	1993	6	2908	55
65	0	0	1973	10	2910	53
66	0	0	1997	10	2909	54
67	0	0	2023	11	2905	55
68	0	0	2007	3	2898	56
69	0	0	1973	8	2894	55
70	0	0	1987	11	2895	55
71	0	0	2044	11	2898	54
72	0	0	2113	11	2903	53
73	0	0	2172	13	2906	55
74	0	0	2225	11	2909	55
75	0	0	2268	10	2911	53
76	0	0	2296	10	2908	54
77	0	0	2313	12	2905	54
78	0	0	2339	12	2897	53
79	0	0	2345	11	2895	55
80	0	0	2314	8	2895	53
81	0	0	2269	8	2898	53
82	0	0	2201	7	2902	54
83	0	0	2129	3	2906	55
84	0	0	2094	9	2909	55
85	0	0	2079	8	2910	57
86	0	0	2060	8	2910	55
87	0	0	2060	11	2905	54
88	0	0	2052	7	2898	58
89	0	0	2048	11	2895	54
90	0	0	2057	11	2895	55
91	0	0	2071	11	2897	52
92	0	0	2107	10	2902	53
93	0	0	2149	11	2905	54
94	0	0	2192	11	2909	54
95	0	0	2232	11	2911	54
96	0	0	2262	11	2909	54
97	0	0	2269	11	2905	54
98	0	0	2286	12	2897	54
99	0	0	2300	12	2895	54
100	0	0	2268	6	2895	51
101	0	0	2225	4	2897	54
102	0	0	2187	9	2902	54
103	0	0	2139	8	2906	55
104	0	0	2117	9	2909	55
105	0	0	2107	11	2910	55
106	0	0	2093	10	2909	55
107	0	0	2071	9	2905	54
108	0	0	2024	7	2898	53
109	0	0	1998	8	2894	54
110	0	0	2017	11	2896	52
111	0	0	2061	11	2898	53
112	0	0	2101	12	2901	54
113	0	0	2166	11	2906	52
114	0	0	2235	11	2910	54
115	0	0	2283	11	2910	54
116	0	0	2317	11	2908	54
117	0	0	2334	12	2905	54
118	0	0	2366	11	2898	54
119	0	0	2394	11	2895	54
120	0	0	2370	8	2895	52
121	0	0	2310	7	2897	53
122	0	0	2259	8	2902	55
123	0	0	2212	8	2906	54
124	0	0	2155	7	2910	56
125	0	0	2130	8	2911	53
126	0	0	2130	11	2909	54
127	0	0	2176	11	2905	55
0	0	0	2190	10	2898	54
1	0	0	2150	8	2894	54
2	0	0	2106	7	2895	53
3	0	0	2057	7	2897	53
4	0	0	2039	11	2901	54
5	0	0	2094	11	2906	53
6	0	0	2177	11	2909	54
7	0	0	2232	10	2910	53
8	0	0	2276	11	2908	54
9	0	0	2307	10	2905	54
10	0	0	2337	11	2898	54
11	0	0	2348	10	2896	53
12	0	0	2326	9	2895	52
13	0	0	2299	10	2898	53
14	0	0	2278	8	2902	54
15	0	0	2253	8	2906	54
16	0	0	2218	7	2908	55
17	0	0	2191	8	2910	53
18	0	0	2163	6	2910	54
19	0	0	2129	7	2905	54
20	0	0	2076	6	2898	54
21	0	0	2038	8	2895	54
22	0	0	2044	11	2895	53
23	0	0	2082	11	2897	52
24	0	0	2142	11	2901	54
25	0	0	2208	11	2906	55
26	0	0	2259	10	2909	55
27	0	0	2300	10	2911	53
28	0	0	2328	11	2909	54
29	0	0	2286	7	2906	55
30	0	0	2215	8	2898	54
31	0	0	2158	7	2894	55
32	0	0	2121	8	2895	53
33	0	0	2129	11	2898	51
34	0	0	2167	11	2901	54
35	0	0	2196	11	2906	55
36	0	0	2189	10	2908	55
37	0	0	2156	8	2910	53
38	0	0	2126	9	2908	52
39	0	0	2105	7	2906	54
40	0	0	2036	6	2898	54
41	0	0	1982	7	2894	55
42	0	0	2001	10	2895	53
43	0	0	2046	9	2897	53
44	0	0	2109	11	2901	53
45	0	0	2183	10	2906	54
46	0	0	2233	11	2908	55
47	0	0	2260	11	2910	52
48	0	0	2258	13	2909	53
49	0	0	2259	11	2904	53
50	0	0	2279	8	2898	53
51	0	0	2296	10	2895	56
52	0	0	2279	8	2895	52
53	0	0	2244	8	2898	53
54	0	0	2199	7	2901	56
55	0	0	2159	8	2905	55
56	0	0	2117	7	2909	55
57	0	0	2071	6	2911	54
58	0	0	2021	7	2909	54
59	0	0	1993	8	2906	54
60	0	0	1947	12	2899	52
61	0	0	1913	9	2895	55
62	0	0	1927	10	2895	53
63	0	0	1969	11	2898	52
64	0	0	2039	11	2902	53
65	0	0	2122	11	2905	56
66	0	0	2180	11	2908	54
67	0	0	2209	10	2910	56
68	0	0	2234	11	2909	54
69	0	0	2234	11	2905	54
70	0	0	2232	11	2898	54
71	0	0	2227	10	2895	52
72	0	0	2180	9	2895	56
73	0	0	2127	6	2897	53
74	0	0	2094	8	2901	54
75	0	0	2072	7	2905	55
76	0	0	2045	7	2909	54
77	0	0	2032	8	2910	56
78	0	0	2028	10	2910	54
79	0	0	1999	7	2905	54
80	0	0	1956	7	2898	55
81	0	0	1945	12	2895	55
82	0	0	1956	10	2895	54
83	0	0	1969	9	2897	53
84	0	0	1981	9	2901	54
85	0	0	2026	10	2905	54
86	0	0	2060	10	2909	53
87	0	0	2080	10	2910	52
88	0	0	2074	11	2909	54
89	0	0	2068	11	2905	54
90	0	0	2102	11	2898	54
91	0	0	2180	12	2895	52
92	0	0	2225	11	2895	54
93	0	0	2228	11	2897	54
94	0	0	2191	7	2901	54
95	0	0	2126	7	2905	54
96	0	0	2057	7	2909	53
97	0	0	1990	7	2910	52
98	0	0	1976	11	2908	55
99	0	0	1983	10	2906	54
100	0	0	1952	7	2898	54
101	0	0	1893	7	2895	54
102	0	0	1852	7	2895	54
103	0	0	1833	11	2897	53
104	0	0	1868	10	2902	53
105	0	0	1955	10	2906	53
106	0	0	2034	12	2910	53
107	0	0	2099	10	2912	56
108	0	0	2144	10	2910	54
109	0	0	2166	10	2906	54
110	0	0	2194	10	2899	53
111	0	0	2201	11	2895	54
112	0	0	2169	8	2895	54
113	0	0	2127	7	2897	53
114	0	0	2085	7	2902	53
115	0	0	2042	7	2905	54
116	0	0	2004	10	2909	55
117	0	0	1966	6	2911	54
118	0	0	1919	7	2909	55
119	0	0	1880	8	2906	55
120	0	0	1834	4	2899	53
121	0	0	1813	10	2895	55
122	0	0	1857	10	2895	56
123	0	0	1916	10	2897	52
124	0	0	1970	10	2901	54
125	0	0	2032	10	2905	54
126	0	0	2098	11	2909	52
127	0	0	2151	11	2910	58
0	0	0	2178	11	2909	54
1	0	0	2179	10	2905	55
2	0	0	2191	11	2898	53
3	0	0	2209	11	2895	52
4	0	0	2192	9	2895	58
5	0	0	2155	7	2898	56
6	0	0	2121	6	2901	54
7	0	0	2084	8	2906	53
8	0	0	2049	6	2909	53
9	0	0	2011	7	2910	55
10	0	0	1970	7	2909	55
11	0	0	1926	7	2905	54
12	0	0	1878	6	2898	54
13	0	0	1841	10	2895	55
14	0	0	1845	10	2895	54
15	0	0	1874	12	2896	52
16	0	0	1940	10	2902	53
17	0	0	2009	9	2905	54
18	0	0	2057	11	2909	55
19	0	0	2079	9	2911	55
20	0	0	2119	11	2910	54
21	0	0	2156	11	2906	53
22	0	0	2185	11	2899	54
23	0	0	2190	9	2895	54
24	0	0	2134	8	2895	55
25	0	0	2072	7	2898	52
26	0	0	2028	8	2901	54
27	0	0	1999	7	2905	54
28	0	0	1963	6	2909	55
29	0	0	1904	7	2910	54
30	0	0	1888	12	2910	54
31	0	0	1907	10	2907	53
32	0	0	1895	5	2899	53
33	0	0	1873	10	2895	55
34	0	0	1881	10	2895	55
35	0	0	1919	11	2897	53
36	0	0	1974	10	2901	53
37	0	0	2030	10	2905	54
38	0	0	2079	11	2909	52
39	0	0	2113	7	2910	55
40	0	0	2144	9	2910	54
41	0	0	2165	12	2906	54
42	0	0	2189	10	2898	56
43	0	0	2202	10	2894	54
44	0	0	2203	11	2895	55
45	0	0	2180	8	2897	53
46	0	0	2144	7	2902	54
47	0	0	2097	7	2905	55
48	0	0	2045	9	2908	55
49	0	0	1986	7	2911	56
50	0	0	1933	7	2910	53
51	0	0	1901	7	2906	54
52	0	0	1829	4	2899	53
53	0	0	1738	6	2894	55
54	0	0	1721	10	2895	55
55	0	0	1760	10	2898	53
56	0	0	1848	10	2901	54
57	0	0	1964	11	2905	54
58	0	0	2056	10	2908	54
59	0	0	2124	11	2910	56
60	0	0	2184	10	2910	53
61	0	0	2232	12	2906	54
62	0	0	2267	10	2899	54
63	0	0	2257	8	2895	53
64	0	0	2196	4	2895	54
65	0	0	2118	9	2898	53
66	0	0	2059	7	2901	54
67	0	0	2001	8	2905	54
68	0	0	1971	7	2908	55
69	0	0	1958	9	2911	55
70	0	0	1956	11	2911	54
71	0	0	1966	11	2906	55
72	0	0	1945	8	2899	54
73	0	0	1919	8	2894	55
74	0	0	1932	10	2895	53
75	0	0	1952	11	2898	52
76	0	0	1985	10	2902	53
77	0	0	2052	9	2905	54
78	0	0	2122	9	2909	55
79	0	0	2170	10	2910	54
80	0	0	2183	11	2910	54
81	0	0	2189	9	2906	54
82	0	0	2208	11	2898	54
83	0	0	2234	10	2894	55
84	0	0	2210	8	2895	56
85	0	0	2159	8	2898	54
86	0	0	2123	8	2901	53
87	0	0	2115	10	2905	54
88	0	0	2090	6	2909	55
89	0	0	2036	6	2910	56
90	0	0	1987	7	2909	54
91	0	0	1936	8	2906	55
92	0	0	1864	8	2899	54
93	0	0	1808	8	2894	54
94	0	0	1818	11	2895	55
95	0	0	1860	10	2898	54
96	0	0	1918	10	2901	53
97	0	0	2011	11	2905	54
98	0	0	2113	10	2908	55
99	0	0	2179	11	2910	51
100	0	0	2196	12	2909	53
101	0	0	2174	9	2906	55
102	0	0	2181	12	2899	54
103	0	0	2182	9	2894	55
104	0	0	2125	8	2895	52
105	0	0	2057	7	2897	53
106	0	0	2040	11	2901	54
107	0	0	2033	7	2905	54
108	0	0	1990	6	2908	55
109	0	0	1938	6	2910	53
110	0	0	1899	7	2910	52
111	0	0	1881	9	2907	55
112	0	0	1864	8	2899	54
113	0	0	1858	10	2894	55
114	0	0	1875	11	2895	52
115	0	0	1903	11	2897	53
116	0	0	1946	10	2901	53
117	0	0	2027	11	2905	54
118	0	0	2083	10	2908	55
119	0	0	2084	10	2910	52
120	0	0	2069	12	2910	54
121	0	0	2043	7	2907	53
122	0	0	2026	8	2898	55
123	0	0	2048	7	2894	54
124	0	0	2080	11	2895	53
125	0	0	2095	11	2897	53
126	0	0	2098	11	2901	53
127	0	0	2067	3	2904	55
0	0	0	2011	4	2908	54
1	0	0	1968	8	2911	54
2	0	0	1940	8	2910	54
3	0	0	1920	7	2907	54
4	0	0	1871	4	2900	53
5	0	0	1832	7	2895	54
6	0	0	1845	10	2895	53
7	0	0	1881	10	2897	53
8	0	0	1923	11	2901	54
9	0	0	1973	11	2904	55
10	0	0	2027	10	2908	53
11	0	0	2082	11	2910	55
12	0	0	2129	11	2909	53
13	0	0	2154	11	2906	54
14	0	0	2160	11	2899	52
15	0	0	2159	9	2894	53
16	0	0	2139	10	2895	52
17	0	0	2098	7	2897	52
18	0	0	2038	7	2901	54
19	0	0	1985	7	2905	53
20	0	0	1957	8	2909	55
21	0	0	1936	8	2909	54
22	0	0	1910	7	2910	54
23	0	0	1892	9	2906	55
24	0	0	1866	6	2899	54
25	0	0	1852	8	2895	54
26	0	0	1886	10	2895	54
27	0	0	1906	9	2897	54
28	0	0	1932	12	2900	54
29	0	0	2009	10	2905	53
30	0	0	2085	11	2909	54
31	0	0	2136	13	2910	54
32	0	0	2164	7	2909	54
33	0	0	2164	11	2906	54
34	0	0	2180	10	2899	53
35	0	0	2207	10	2895	55
36	0	0	2197	9	2895	56
37	0	0	2161	8	2897	55
38	0	0	2116	7	2900	54
39	0	0	2076	7	2905	54
40	0	0	2034	6	2908	53
41	0	0	1980	7	2910	56
42	0	0	1931	7	2910	54
43	0	0	1909	9	2907	54
44	0	0	1885	6	2899	52
45	0	0	1863	9	2895	54
46	0	0	1875	10	2894	54
47	0	0	1896	11	2898	56
48	0	0	1926	12	2900	54
49	0	0	1972	11	2905	52
50	0	0	2017	10	2908	53
51	0	0	2044	11	2910	54
52	0	0	2090	12	2909	56
53	0	0	2140	11	2907	54
54	0	0	2183	11	2900	52
55	0	0	2217	11	2895	52
56	0	0	2207	12	2895	56
57	0	0	2183	11	2897	53
58	0	0	2162	9	2900	54
59	0	0	2136	8	2905	52
60	0	0	2088	7	2909	54
61	0	0	2040	8	2910	55
62	0	0	2006	7	2910	54
63	0	0	1982	10	2906	54
64	0	0	1959	7	2900	55
65	0	0	1931	8	2895	52
66	0	0	1928	10	2895	54
67	0	0	1942	10	2897	54
68	0	0	1977	11	2900	54
69	0	0	2049	10	2905	52
70	0	0	2112	11	2908	52
71	0	0	2149	10	2910	55
72	0	0	2163	11	2910	56
73	0	0	2161	11	2906	55
74	0	0	2173	11	2899	54
75	0	0	2202	11	2895	53
76	0	0	2212	11	2895	53
77	0	0	2201	11	2897	53
78	0	0	2192	9	2900	54
79	0	0	2133	8	2905	54
80	0	0	2043	5	2908	55
81	0	0	1977	7	2910	55
82	0	0	1937	9	2910	57
83	0	0	1915	7	2907	54
84	0	0	1886	6	2900	54
85	0	0	1851	4	2894	55
86	0	0	1858	11	2895	58
87	0	0	1880	7	2897	53
88	0	0	1910	11	2900	54
89	0	0	1978	10	2905	54
90	0	0	2069	9	2908	54
91	0	0	2132	9	2911	54
92	0	0	2168	11	2910	56
93	0	0	2179	10	2907	55
94	0	0	2172	11	2899	53
95	0	0	2168	8	2895	54
96	0	0	2134	7	2895	53
97	0	0	2076	4	2897	55
98	0	0	2031	6	2900	54
99	0	0	2019	10	2904	55
100	0	0	2024	8	2908	55
101	0	0	1997	7	2910	58
102	0	0	1969	9	2910	55
103	0	0	1954	8	2908	54
104	0	0	1909	11	2900	52
105	0	0	1871	8	2895	55
106	0	0	1888	10	2895	55
107	0	0	1945	10	2896	55
108	0	0	1982	11	2901	55
109	0	0	2014	10	2905	54
110	0	0	2049	12	2908	58
111	0	0	2069	12	2911	55
112	0	0	2088	11	2910	54
113	0	0	2119	8	2907	54
114	0	0	2175	11	2900	53
115	0	0	2223	12	2895	55
116	0	0	2216	9	2895	55
117	0	0	2194	10	2896	55
118	0	0	2189	10	2901	53
119	0	0	2169	8	2904	55
120	0	0	2131	8	2908	55
121	0	0	2069	7	2911	54
122	0	0	2003	7	2910	54
123	0	0	1961	6	2907	55
124	0	0	1913	7	2900	54
125	0	0	1862	7	2896	51
126	0	0	1865	10	2895	54
127	0	0	1898	9	2897	52
0	0	0	1927	8	2900	54
1	0	0	1978	10	2904	55
2	0	0	2046	12	2908	55
3	0	0	2103	10	2911	55
4	0	0	2143	11	2910	53
5	0	0	2169	12	2907	54
6	0	0	2187	10	2900	51
7	0	0	2195	8	2895	55
8	0	0	2159	6	2895	54
9	0	0	2100	7	2897	53
10	0	0	2067	8	2901	54
11	0	0	2043	8	2905	54
12	0	0	2008	8	2908	55
13	0	0	1969	8	2911	54
14	0	0	1944	9	2910	56
15	0	0	1929	9	2908	54
16	0	0	1899	6	2900	54
17	0	0	1861	8	2895	55
18	0	0	1867	11	2895	54
19	0	0	1901	11	2896	52
20	0	0	1946	10	2900	54
21	0	0	2008	10	2904	52
22	0	0	2065	10	2908	54
23	0	0	2102	11	2910	54
24	0	0	2124	11	2910	55
25	0	0	2134	11	2907	55
26	0	0	2149	11	2901	52
27	0	0	2179	12	2895	54
28	0	0	2163	7	2895	54
29	0	0	2114	8	2897	52
30	0	0	2078	10	2900	54
31	0	0	2033	7	2905	53
32	0	0	1987	9	2909	55
33	0	0	1956	6	2910	55
34	0	0	1960	12	2910	55
35	0	0	1969	12	2907	55
36	0	0	1932	8	2901	54
37	0	0	1853	10	2895	54
38	0	0	1802	8	2895	55
39	0	0	1799	10	2896	52
40	0	0	1841	12	2900	54
41	0	0	1940	11	2905	52
42	0	0	2040	7	2909	54
43	0	0	2066	10	2910	56
44	0	0	2063	11	2910	53
45	0	0	2075	11	2907	55
46	0	0	2102	11	2901	54
47	0	0	2137	10	2896	53
48	0	0	2134	10	2895	54
49	0	0	2110	9	2896	52
50	0	0	2099	11	2900	54
51	0	0	2095	11	2905	54
52	0	0	2096	7	2908	54
53	0	0	2058	6	2910	56
54	0	0	1995	8	2910	53
55	0	0	1944	6	2908	54
56	0	0	1902	7	2899	51
57	0	0	1869	7	2896	53
58	0	0	1882	11	2895	56
59	0	0	1931	11	2896	53
60	0	0	1989	11	2900	54
61	0	0	2051	12	2905	54
62	0	0	2098	9	2908	55
63	0	0	2103	9	2910	54
64	0	0	2112	11	2911	53
65	0	0	2138	9	2908	54
66	0	0	2157	14	2901	55
67	0	0	2153	14	2895	54
68	0	0	2125	8	2895	55
69	0	0	2095	8	2896	54
70	0	0	2074	8	2901	53
71	0	0	2056	10	2904	55
72	0	0	2032	11	2908	54
73	0	0	2020	10	2911	54
74	0	0	2003	9	2910	53
75	0	0	1987	9	2908	54
76	0	0	1971	5	2901	53
77	0	0	1950	15	2896	53
78	0	0	1973	11	2896	53
79	0	0	2037	11	2897	54
80	0	0	2106	11	2900	53
81	0	0	2199	11	2905	52
82	0	0	2306	12	2909	54
83	0	0	2394	11	2910	54
84	0	0	2467	11	2911	54
85	0	0	2494	11	2907	54
86	0	0	2509	11	2900	53
87	0	0	2560	13	2895	52
88	0	0	2585	12	2895	54
89	0	0	2587	13	2896	54
90	0	0	2594	12	2900	54
91	0	0	2596	12	2904	54
92	0	0	2575	7	2909	55
93	0	0	2514	6	2910	55
94	0	0	2467	9	2910	56
95	0	0	2445	11	2908	55
96	0	0	2419	6	2901	54
97	0	0	2391	7	2895	54
98	0	0	2396	10	2895	55
99	0	0	2420	8	2897	53
100	0	0	2442	10	2901	53
101	0	0	2480	11	2904	55
102	0	0	2515	15	2908	54
103	0	0	2560	11	2911	56
104	0	0	2581	11	2910	56
105	0	0	2570	9	2908	55
106	0	0	2551	12	2901	55
107	0	0	2539	11	2895	54
108	0	0	2525	10	2895	54
109	0	0	2489	8	2896	54
110	0	0	2405	7	2901	54
111	0	0	2294	7	2904	53
112	0	0	2182	5	2909	54
113	0	0	2064	6	2911	55
114	0	0	1971	7	2910	56
115	0	0	1932	8	2907	55
116	0	0	1906	8	2900	54
117	0	0	1876	8	2895	55
118	0	0	1885	10	2895	55
119	0	0	1930	11	2896	52
120	0	0	1975	13	2901	53
121	0	0	2012	15	2904	52
122	0	0	2050	11	2908	54
123	0	0	2087	11	2910	54
124	0	0	2126	11	2910	55
125	0	0	2155	12	2908	51
126	0	0	2183	11	2901	52
127	0	0	2214	10	2896	53
0	0	0	2206	10	2895	53
1	0	0	2169	8	2897	54
2	0	0	2132	7	2900	54
3	0	0	2086	7	2904	54
4	0	0	2037	8	2908	54
5	0	0	1984	7	2911	57
6	0	0	1948	7	2910	55
7	0	0	1918	9	2908	54
8	0	0	1857	10	2901	52
9	0	0	1781	8	2895	55
10	0	0	1742	9	2895	54
11	0	0	1753	10	2896	55
12	0	0	1791	11	2900	53
13	0	0	1870	11	2904	52
14	0	0	1971	11	2908	55
15	0	0	2062	10	2911	54
16	0	0	2134	11	2911	54
17	0	0	2167	10	2908	54
18	0	0	2164	11	2901	52
19	0	0	2179	12	2895	55
20	0	0	2156	9	2895	54
21	0	0	2127	8	2897	55
22	0	0	2091	8	2901	54
23	0	0	2021	4	2904	55
24	0	0	1959	8	2908	55
25	0	0	1925	7	2910	54
26	0	0	1893	8	2910	55
27	0	0	1887	13	2908	52
28	0	0	1888	10	2901	55
29	0	0	1877	11	2896	94
30	0	0	1902	10	2895	411
31	0	0	1951	11	2897	1007
32	0	0	1991	10	2900	1662
33	0	0	2036	11	2905	2223
34	0	0	2081	10	2909	2658
35	0	0	2105	12	2911	2971
36	0	0	2091	9	2910	3193
37	0	0	2080	13	2908	3355
38	0	0	2097	8	2900	3472
39	0	0	2128	10	2896	3560
40	0	0	2130	10	2895	3628
41	0	0	2087	7	2896	3680
42	0	0	2021	7	2900	3720
43	0	0	1966	8	2904	3751
44	0	0	1929	5	2908	3780
45	0	0	1900	8	2911	3802
46	0	0	1876	8	2909	3824
47	0	0	1854	8	2908	3835
48	0	0	1831	7	2901	3850
49	0	0	1813	9	2896	3863
50	0	0	1840	10	2895	3872
51	0	0	1894	10	2897	3882
52	0	0	1935	10	2900	3889
53	0	0	1981	10	2905	3896
54	0	0	2025	11	2908	3903
55	0	0	2076	12	2911	3908
56	0	0	2122	11	2910	3914
57	0	0	2152	11	2908	3917
58	0	0	2189	11	2901	3921
59	0	0	2226	13	2896	3925
60	0	0	2233	10	2895	3929
61	0	0	2193	7	2896	3932
62	0	0	2141	7	2900	3935
63	0	0	2090	8	2904	3937
64	0	0	2048	8	2908	3940
65	0	0	2015	8	2911	3943
66	0	0	1977	7	2911	3946
67	0	0	1934	8	2908	3946
68	0	0	1886	6	2902	3948
69	0	0	1821	8	2896	3950
70	0	0	1816	10	2895	3952
71	0	0	1859	11	2896	3955
72	0	0	1926	14	2900	3955
73	0	0	2010	11	2904	3955
74	0	0	2086	8	2908	3956
75	0	0	2127	10	2911	3959
76	0	0	2158	11	2910	3960
77	0	0	2172	10	2908	3960
78	0	0	2180	10	2902	3960
79	0	0	2199	12	2896	3963
80	0	0	2190	8	2895	3965
81	0	0	2153	7	2895	3966
82	0	0	2120	8	2900	3966
83	0	0	2086	8	2905	3968
84	0	0	2046	7	2909	3969
85	0	0	2005	7	2911	3968
86	0	0	1975	8	2911	3972
87	0	0	1969	12	2908	3969
88	0	0	1937	5	2902	3970
89	0	0	1854	7	2896	3971
90	0	0	1812	8	2896	3973
91	0	0	1822	10	2897	3975
92	0	0	1850	15	2899	3973
93	0	0	1939	10	2904	3971
94	0	0	2039	10	2908	3972
95	0	0	2110	10	2911	3975
96	0	0	2150	11	2910	3978
97	0	0	2158	11	2908	3975
98	0	0	2176	8	2902	3976
99	0	0	2224	12	2896	3975
100	0	0	2264	10	2895	3977
101	0	0	2267	11	2896	3979
102	0	0	2232	8	2900	3977
103	0	0	2167	5	2904	3978
104	0	0	2111	10	2908	3978
105	0	0	2045	5	2910	3980
106	0	0	2001	8	2910	3982
107	0	0	1994	10	2908	3980
108	0	0	1986	8	2902	3980
109	0	0	1941	8	2896	3979
110	0	0	1916	9	2895	3982
111	0	0	1938	11	2896	3981
112	0	0	1974	10	2900	3981
113	0	0	2019	9	2904	3981
114	0	0	2067	14	2907	3981
115	0	0	2100	11	2910	3984
116	0	0	2136	10	2910	3983
117	0	0	2165	10	2908	3983
118	0	0	2187	8	2902	3983
119	0	0	2224	14	2896	3982
120	0	0	2224	8	2895	3984
121	0	0	2191	8	2897	3984
122	0	0	2143	7	2900	3984
123	0	0	2066	4	2904	3984
124	0	0	2010	8	2908	3984
125	0	0	1967	6	2910	3986
126	0	0	1933	10	2910	3987
127	0	0	1911	8	2908	3988
0	0	0	1891	8	2902	3985
1	0	0	1863	12	2896	3984
2	0	0	1861	8	2895	3987
3	0	0	1891	10	2897	3987
4	0	0	1929	10	2901	3987
5	0	0	1992	10	2905	3987
6	0	0	2042	12	2907	3987
7	0	0	2072	11	2911	3988
8	0	0	2133	10	2911	3987
9	0	0	2201	10	2909	3988
10	0	0	2250	10	2903	3985
11	0	0	2287	10	2895	3988
12	0	0	2293	11	2895	3989
13	0	0	2268	9	2896	3987
14	0	0	2238	7	2901	3989
15	0	0	2178	11	2904	3986
16	0	0	2101	6	2908	3988
17	0	0	2041	7	2910	3989
18	0	0	2001	7	2910	3988
19	0	0	1970	8	2908	3988
20	0	0	1946	6	2903	3986
21	0	0	1912	7	2896	3989
22	0	0	1918	11	2895	3990
23	0	0	1964	10	2896	3989
24	0	0	2016	10	2900	3989
25	0	0	2098	12	2904	3989
26	0	0	2177	14	2907	3989
27	0	0	2227	12	2911	3989
28	0	0	2263	10	2911	3991
29	0	0	2269	12	2908	3990
30	0	0	2260	11	2902	3991
31	0	0	2257	8	2896	3991
32	0	0	2219	4	2895	3991
33	0	0	2145	7	2896	3991
34	0	0	2125	10	2900	3990
35	0	0	2156	12	2904	3991
36	0	0	2154	8	2907	3991
37	0	0	2101	10	2911	3991
38	0	0	2024	7	2910	3991
39	0	0	1991	10	2909	3992
40	0	0	1982	6	2904	3988
41	0	0	1950	7	2896	3991
42	0	0	1970	11	2895	3992
43	0	0	2039	10	2897	3991
44	0	0	2093	7	2900	3993
45	0	0	2117	8	2905	3992
46	0	0	2124	11	2907	3992
47	0	0	2127	12	2911	3992
48	0	0	2165	11	2910	3992
49	0	0	2241	11	2908	3995
50	0	0	2309	9	2902	3993
51	0	0	2350	10	2897	3993
52	0	0	2339	11	2895	3992
53	0	0	2284	7	2897	3993
54	0	0	2231	12	2899	3993
55	0	0	2199	10	2904	3995
56	0	0	2172	8	2908	3991
57	0	0	2146	8	2911	3993
58	0	0	2127	8	2910	3993
59	0	0	2102	7	2908	3993
60	0	0	2055	8	2903	3993
61	0	0	1988	7	2897	3991
62	0	0	1959	13	2895	3994
63	0	0	1969	14	2896	3993
64	0	0	1998	10	2900	3993
65	0	0	2058	15	2903	3993
66	0	0	2141	10	2908	3994
67	0	0	2188	11	2911	3995
68	0	0	2214	10	2910	3994
69	0	0	2264	7	2909	3995
70	0	0	2299	11	2902	3993
71	0	0	2306	10	2897	3992
72	0	0	2287	11	2895	3994
73	0	0	2271	11	2896	3996
74	0	0	2249	8	2900	3995
75	0	0	2200	4	2904	3994
76	0	0	2152	7	2908	3992
77	0	0	2101	10	2910	3995
78	0	0	2038	8	2911	3994
79	0	0	1985	7	2908	3994
80	0	0	1955	12	2903	3994
81	0	0	1931	8	2896	3995
82	0	0	1938	12	2896	3996
83	0	0	1968	11	2896	3995
84	0	0	1992	10	2900	3995
85	0	0	2033	11	2904	3994
86	0	0	2079	10	2908	3996
87	0	0	2115	16	2911	3995
88	0	0	2147	11	2911	3995
89	0	0	2183	7	2908	3995
90	0	0	2225	15	2903	3995
91	0	0	2296	11	2897	3993
92	0	0	2320	9	2895	3996
93	0	0	2285	8	2896	3996
94	0	0	2233	6	2899	3995
95	0	0	2171	9	2903	3995
96	0	0	2117	8	2908	3996
97	0	0	2076	9	2911	3996
98	0	0	2043	8	2910	3996
99	0	0	2012	4	2909	3997
100	0	0	1966	6	2903	3995
101	0	0	1913	3	2897	3996
102	0	0	1898	11	2896	3996
103	0	0	1908	10	2896	3995
104	0	0	1931	11	2900	3996
105	0	0	1984	11	2904	3997
106	0	0	2046	10	2908	3996
107	0	0	2096	11	2911	3997
108	0	0	2147	11	2911	3996
109	0	0	2201	11	2909	3995
110	0	0	2232	11	2903	3995
111	0	0	2231	8	2897	3996
112	0	0	2190	8	2895	3996
113	0	0	2171	10	2897	3999
114	0	0	2162	7	2900	3996
115	0	0	2108	9	2904	3997
116	0	0	2048	7	2909	3996
117	0	0	1991	7	2911	3999
118	0	0	1923	7	2910	3996
119	0	0	1842	7	2908	3996
120	0	0	1764	8	2903	3997
121	0	0	1686	8	2897	3996
122	0	0	1682	11	2896	3997
123	0	0	1753	10	2896	3997
124	0	0	1852	11	2900	3996
125	0	0	1968	12	2904	3998
126	0	0	2054	13	2908	3998
127	0	0	2100	11	2910	3998
0	0	0	2139	7	2911	3998
1	0	0	2167	10	2909	3997
2	0	0	2187	10	2903	3996
3	0	0	2217	10	2897	3998
4	0	0	2225	9	2895	3997
5	0	0	2191	7	2897	3998
6	0	0	2130	8	2900	3997
7	0	0	2069	8	2904	3997
8	0	0	2017	7	2908	3998
9	0	0	1967	8	2911	3998
10	0	0	1930	9	2912	3997
11	0	0	1881	7	2909	3997
12	0	0	1837	6	2904	3998
13	0	0	1790	7	2897	3998
14	0	0	1792	9	2895	3997
15	0	0	1836	11	2897	3997
16	0	0	1888	9	2900	3997
17	0	0	1957	9	2904	3998
18	0	0	2023	12	2908	3998
19	0	0	2066	9	2910	3999
20	0	0	2096	10	2911	3997
21	0	0	2124	10	2909	3999
22	0	0	2147	10	2903	3996
23	0	0	2175	11	2897	3998
24	0	0	2174	10	2896	3999
25	0	0	2145	9	2896	3998
26	0	0	2115	9	2899	3998
27	0	0	2076	7	2904	3997
28	0	0	2040	10	2908	3999
29	0	0	2002	6	2911	3998
30	0	0	1951	7	2911	3998
31	0	0	1898	7	2909	3997
32	0	0	1839	7	2904	3998
33	0	0	1774	7	2897	3999
34	0	0	1765	12	2895	3998
35	0	0	1807	10	2896	3998
36	0	0	1868	9	2900	3998
37	0	0	1947	10	2904	3998
38	0	0	2054	11	2908	3999
39	0	0	2139	10	2911	3999
40	0	0	2182	11	2911	3998
41	0	0	2207	12	2909	3998
42	0	0	2204	10	2903	3997
43	0	0	2215	10	2897	3999
44	0	0	2197	8	2895	3999
45	0	0	2127	7	2896	3998
46	0	0	2065	7	2900	3998
47	0	0	2031	8	2904	3999
48	0	0	2012	9	2907	3999
49	0	0	1975	8	2911	3999
50	0	0	1930	6	2912	4000
51	0	0	1884	5	2909	3998
52	0	0	1845	5	2904	3998
53	0	0	1787	7	2897	3999
54	0	0	1765	9	2895	3999
55	0	0	1786	10	2896	3999
56	0	0	1835	12	2899	3999
57	0	0	1891	10	2904	3998
58	0	0	1949	11	2908	3999
59	0	0	2016	12	2911	4000
60	0	0	2073	12	2911	3999
61	0	0	2104	11	2909	3998
62	0	0	2112	10	2904	3999
63	0	0	2124	11	2897	3999
64	0	0	2133	12	2895	4000
65	0	0	2146	10	2895	3999
66	0	0	2165	10	2900	3999
67	0	0	2157	9	2904	3999
68	0	0	2128	6	2907	3999
69	0	0	2066	7	2911	4000
70	0	0	2004	8	2910	3999
71	0	0	1958	7	2909	4000
72	0	0	1882	6	2904	3999
73	0	0	1773	7	2897	3999
74	0	0	1752	11	2895	4000
75	0	0	1794	10	2897	3999
76	0	0	1836	11	2900	3999
77	0	0	1892	10	2904	3999
78	0	0	1969	10	2907	3999
79	0	0	2033	12	2910	4000
80	0	0	2076	14	2911	3999
81	0	0	2104	11	2909	3999
82	0	0	2139	11	2904	4000
83	0	0	2193	11	2898	4001
84	0	0	2240	12	2896	4000
85	0	0	2240	9	2897	4000
86	0	0	2189	6	2899	3999
87	0	0	2120	7	2904	3999
88	0	0	2049	7	2908	4001
89	0	0	1991	7	2910	4000
90	0	0	1947	7	2912	4001
91	0	0	1912	7	2909	3999
92	0	0	1880	7	2904	3999
93	0	0	1831	8	2899	4000
94	0	0	1815	11	2896	4000
95	0	0	1830	11	2897	3999
96	0	0	1875	10	2901	4001
97	0	0	1950	10	2904	4000
98	0	0	2030	11	2909	4000
99	0	0	2082	7	2911	4000
100	0	0	2115	10	2911	3999
101	0	0	2147	12	2909	3999
102	0	0	2169	11	2904	4000
103	0	0	2187	10	2897	4000
104	0	0	2164	7	2895	4001
105	0	0	2119	7	2897	4001
106	0	0	2062	8	2899	3999
107	0	0	1997	7	2904	4000
108	0	0	1950	7	2908	4000
109	0	0	1917	7	2911	4000
110	0	0	1896	9	2911	4002
111	0	0	1887	9	2910	4000
112	0	0	1880	7	2905	4000
113	0	0	1844	7	2897	4000
114	0	0	1836	7	2895	4000
115	0	0	1869	10	2897	4000
116	0	0	1932	10	2900	3999
117	0	0	2020	7	2904	4000
118	0	0	2106	10	2907	4000
119	0	0	2170	8	2911	4000
120	0	0	2210	10	2911	4000
121	0	0	2236	10	2910	3999
122	0	0	2255	9	2904	4000
123	0	0	2287	10	2897	4000
124	0	0	2250	3	2895	4001
125	0	0	2166	6	2896	4000
126	0	0	2055	5	2900	3999
127	0	0	1921	7	2904	4000
0	0	0	1839	7	2908	4002
1	0	0	1815	8	2911	4000
2	0	0	1834	10	2911	4000
3	0	0	1872	11	2910	4001
4	0	0	1909	10	2904	4000
5	0	0	1904	10	2898	4000
6	0	0	1909	8	2896	4000
7	0	0	1943	11	2896	4000
8	0	0	1970	10	2900	3999
9	0	0	2001	11	2904	4001
10	0	0	2045	9	2908	4002
11	0	0	2086	9	2910	4001
12	0	0	2101	11	2911	4000
13	0	0	2112	12	2910	4001
14	0	0	2122	10	2906	4001
15	0	0	2149	11	2898	4001
16	0	0	2167	8	2896	4001
17	0	0	2155	10	2896	4000
18	0	0	2134	7	2900	3999
19	0	0	2096	7	2904	4000
20	0	0	2046	7	2908	4002
21	0	0	1989	4	2911	4001
22	0	0	1940	8	2911	4000
23	0	0	1910	7	2910	4001
24	0	0	1883	7	2905	3999
25	0	0	1832	7	2897	4001
26	0	0	1817	8	2895	4000
27	0	0	1847	11	2896	4000
28	0	0	1900	9	2900	4001
29	0	0	1968	11	2904	4004
30	0	0	2054	9	2908	4002
31	0	0	2126	8	2911	4001
32	0	0	2166	10	2912	4001
33	0	0	2176	15	2909	4000
34	0	0	2187	9	2905	4000
35	0	0	2203	11	2897	4001
36	0	0	2166	9	2896	4002
37	0	0	2105	7	2896	4001
38	0	0	2078	9	2900	4000
39	0	0	2081	11	2904	4000
40	0	0	2072	8	2908	4002
41	0	0	2024	8	2911	4001
42	0	0	1960	7	2911	4000
43	0	0	1922	12	2909	4000
44	0	0	1897	6	2905	3999
45	0	0	1854	7	2898	4000
46	0	0	1831	8	2896	4001
47	0	0	1852	11	2897	4002
48	0	0	1898	14	2899	4001
49	0	0	1958	9	2904	4001
50	0	0	2017	11	2908	4001
51	0	0	2073	10	2911	4002
52	0	0	2100	11	2911	4001
53	0	0	2110	11	2909	4001
54	0	0	2127	10	2905	3999
55	0	0	2149	11	2897	4001
56	0	0	2152	8	2896	4001
57	0	0	2149	11	2896	4001
58	0	0	2118	7	2900	4001
59	0	0	2057	6	2904	3999
60	0	0	1993	8	2907	4001
61	0	0	1951	8	2911	4003
62	0	0	1923	8	2911	4001
63	0	0	1907	9	2910	4002
64	0	0	1874	6	2906	4000
65	0	0	1821	7	2897	4000
66	0	0	1796	8	2896	4002
67	0	0	1788	9	2896	4001
68	0	0	1798	9	2900	4001
69	0	0	1856	8	2904	4001
70	0	0	1931	10	2908	4003
71	0	0	1999	11	2911	4001
72	0	0	2063	10	2912	4002
73	0	0	2100	14	2909	4001
74	0	0	2111	12	2904	4001
75	0	0	2145	10	2897	4000
76	0	0	2180	10	2896	4002
77	0	0	2166	6	2895	4001
78	0	0	2138	8	2901	4002
79	0	0	2115	8	2904	4003
80	0	0	2090	10	2907	4001
81	0	0	2049	7	2911	4002
82	0	0	2001	7	2911	4001
83	0	0	1967	7	2910	4000
84	0	0	1951	8	2905	4001
85	0	0	1913	7	2898	4001
86	0	0	1884	7	2896	4001
87	0	0	1881	11	2896	3999
88	0	0	1889	11	2899	4001
89	0	0	1945	10	2903	4001
90	0	0	2044	11	2908	4001
91	0	0	2150	10	2911	4002
92	0	0	2223	11	2912	4003
93	0	0	2234	15	2909	4001
94	0	0	2227	11	2905	4003
95	0	0	2222	12	2899	4002
96	0	0	2195	7	2896	4002
97	0	0	2140	7	2896	4001
98	0	0	2083	6	2900	4001
99	0	0	2030	8	2904	4001
100	0	0	1980	8	2908	4001
101	0	0	1931	6	2911	4001
102	0	0	1882	8	2911	4001
103	0	0	1852	8	2911	4003
104	0	0	1848	8	2905	4001
105	0	0	1808	6	2899	4000
106	0	0	1795	10	2896	4002
107	0	0	1850	10	2897	4001
108	0	0	1918	10	2899	4001
109	0	0	1975	12	2904	4003
110	0	0	2051	10	2908	4001
111	0	0	2125	11	2911	4001
112	0	0	2153	11	2911	4001
113	0	0	2158	11	2910	4001
114	0	0	2166	10	2905	4001
115	0	0	2180	11	2898	4001
116	0	0	2191	11	2896	4001
117	0	0	2191	11	2897	4001
118	0	0	2169	6	2901	4003
119	0	0	2132	7	2904	4004
120	0	0	2079	8	2908	4000
121	0	0	2009	7	2911	4003
122	0	0	1942	7	2912	4001
123	0	0	1913	9	2910	4002
124	0	0	1917	12	2906	4004
125	0	0	1874	7	2899	4002
126	0	0	1844	9	2896	4003
127	0	0	1860	11	2897	4000
0	0	0	1880	11	2900	4002
1	0	0	1923	11	2904	4002
2	0	0	1979	11	2908	4001
3	0	0	2032	11	2911	4002
4	0	0	2085	10	2912	4001
5	0	0	2128	11	2910	4002
6	0	0	2172	11	2906	4002
7	0	0	2216	11	2899	4001
8	0	0	2225	12	2896	4003
9	0	0	2177	7	2897	4001
10	0	0	2115	7	2900	4001
11	0	0	2040	6	2904	4002
12	0	0	1974	6	2908	4001
13	0	0	1941	9	2911	4003
14	0	0	1946	12	2911	4001
15	0	0	1946	8	2910	4001
16	0	0	1908	7	2906	4002
17	0	0	1851	7	2898	4001
18	0	0	1826	10	2896	4002
19	0	0	1869	11	2897	3999
20	0	0	1961	11	2900	4002
21	0	0	2053	10	2905	4002
22	0	0	2144	10	2909	4001
23	0	0	2195	11	2911	4001
24	0	0	2198	11	2912	4003
25	0	0	2190	10	2910	4001
26	0	0	2180	11	2906	4002
27	0	0	2210	11	2899	4003
28	0	0	2245	10	2896	4003
29	0	0	2275	11	2897	4003
30	0	0	2250	11	2899	4001
31	0	0	2190	7	2904	4002
32	0	0	2123	7	2908	4003
33	0	0	2060	7	2911	4003
34	0	0	2002	7	2912	4003
35	0	0	1946	7	2911	4002
36	0	0	1895	7	2906	4002
37	0	0	1827	7	2899	4000
38	0	0	1788	8	2896	4003
39	0	0	1815	10	2897	4002
40	0	0	1867	13	2900	4003
41	0	0	1948	10	2905	4004
42	0	0	2025	11	2908	4002
43	0	0	2090	12	2911	4003
44	0	0	2139	10	2912	4002
45	0	0	2156	11	2910	4001
46	0	0	2147	11	2906	4003
47	0	0	2149	11	2900	4003
48	0	0	2138	10	2896	4002
49	0	0	2113	8	2897	4002
50	0	0	2069	7	2900	4001
51	0	0	2010	7	2904	4002
52	0	0	1967	8	2908	4004
53	0	0	1935	7	2911	4002
54	0	0	1919	8	2912	4001
55	0	0	1893	7	2911	4001
56	0	0	1835	5	2906	4002
57	0	0	1769	7	2900	4001
58	0	0	1740	9	2896	4003
59	0	0	1775	10	2898	4001
60	0	0	1839	13	2900	4003
61	0	0	1913	11	2904	4001
62	0	0	2001	10	2908	4000
63	0	0	2063	10	2911	4004
64	0	0	2097	10	2912	4002
65	0	0	2125	10	2910	4003
66	0	0	2139	11	2906	4002
67	0	0	2155	11	2899	4002
68	0	0	2125	8	2896	4003
69	0	0	2060	7	2897	4002
70	0	0	2020	8	2900	4002
71	0	0	2013	11	2904	4002
72	0	0	1996	7	2909	4003
73	0	0	1939	7	2911	4003
74	0	0	1876	7	2912	4002
75	0	0	1842	9	2911	4002
76	0	0	1844	8	2907	4001
77	0	0	1829	8	2899	4003
78	0	0	1834	10	2896	4003
79	0	0	1880	10	2897	4002
80	0	0	1921	10	2900	4002
81	0	0	1944	9	2904	4002
82	0	0	1933	8	2909	4002
83	0	0	1907	8	2911	4003
84	0	0	1906	11	2912	4003
85	0	0	1959	8	2911	4002
86	0	0	2039	10	2906	4003
87	0	0	2134	10	2899	4003
88	0	0	2178	11	2896	4003
89	0	0	2179	11	2896	4002
90	0	0	2167	9	2900	4003
91	0	0	2143	9	2905	4003
92	0	0	2123	9	2908	4003
93	0	0	2096	8	2912	4004
94	0	0	2070	8	2912	4002
95	0	0	2043	8	2910	4003
96	0	0	1980	7	2906	4002
97	0	0	1870	7	2899	4003
98	0	0	1788	8	2897	4003
99	0	0	1801	11	2897	4002
100	0	0	1857	11	2900	4002
101	0	0	1920	10	2904	4002
102	0	0	1993	10	2908	4002
103	0	0	2046	11	2911	4003
104	0	0	2094	11	2912	4002
105	0	0	2123	10	2911	4002
106	0	0	2133	11	2906	4002
107	0	0	2158	11	2899	4002
108	0	0	2173	11	2897	4003
109	0	0	2172	11	2896	4002
110	0	0	2134	7	2899	4002
111	0	0	2070	7	2904	4002
112	0	0	2001	7	2907	4003
113	0	0	1942	7	2911	4002
114	0	0	1891	7	2912	4002
115	0	0	1862	8	2911	4002
116	0	0	1849	5	2907	4001
117	0	0	1803	6	2899	4003
118	0	0	1784	10	2897	4003
119	0	0	1807	12	2897	4002
120	0	0	1858	10	2900	4002
121	0	0	1914	10	2904	4003
122	0	0	1980	10	2908	4003
123	0	0	2043	11	2912	4001
124	0	0	2115	3	2912	4001
125	0	0	2180	10	2912	4003
126	0	0	2238	11	2907	3999
127	0	0	2327	11	2899	4003
0	0	0	2388	11	2897	4003
1	0	0	2404	11	2896	4002
2	0	0	2412	11	2899	4002
3	0	0	2423	11	2904	4002
4	0	0	2427	11	2907	4003
5	0	0	2417	11	2912	4003
6	0	0	2403	10	2912	4002
7	0	0	2357	8	2911	4002
8	0	0	2310	7	2907	4002
9	0	0	2253	7	2899	4003
10	0	0	2233	11	2897	4003
11	0	0	2255	11	2897	4002
12	0	0	2296	11	2900	4002
13	0	0	2385	11	2904	4003
14	0	0	2513	11	2908	4003
15	0	0	2620	9	2912	4003
16	0	0	2688	11	2912	4003
17	0	0	2719	16	2911	4001
18	0	0	2732	11	2907	4002
19	0	0	2745	11	2899	4005
20	0	0	2745	11	2896	4003
21	0	0	2712	11	2897	4004
22	0	0	2656	8	2899	4003
23	0	0	2607	5	2903	4001
24	0	0	2553	7	2908	4002
25	0	0	2479	7	2912	4000
26	0	0	2396	7	2912	4002
27	0	0	2317	7	2912	4003
28	0	0	2239	6	2908	4004
29	0	0	2136	6	2899	4005
30	0	0	2058	7	2897	4004
31	0	0	2039	10	2897	4001
32	0	0	2042	11	2900	3999
33	0	0	2051	10	2904	4002
34	0	0	2067	11	2908	4002
35	0	0	2085	11	2910	4003
36	0	0	2107	11	2912	4002
37	0	0	2131	11	2910	4002
38	0	0	2141	11	2907	4002
39	0	0	2149	10	2899	4003
40	0	0	2109	7	2896	4003
41	0	0	2039	7	2896	4003
42	0	0	1986	8	2900	4002
43	0	0	1971	10	2904	4003
44	0	0	1979	11	2908	4003
45	0	0	1960	8	2910	4001
46	0	0	1924	7	2913	4004
47	0	0	1892	12	2911	4003
48	0	0	1860	7	2907	4002
49	0	0	1814	7	2900	4003
50	0	0	1805	10	2897	4003
51	0	0	1838	11	2897	4004
52	0	0	1859	10	2899	4003
53	0	0	1875	12	2903	4003
54	0	0	1903	9	2907	4002
55	0	0	1923	11	2910	4002
56	0	0	1938	11	2912	4002
57	0	0	1968	10	2912	4003
58	0	0	1997	11	2908	4004
59	0	0	2040	10	2900	4003
60	0	0	2067	11	2896	4003
61	0	0	2063	10	2897	4004
62	0	0	2055	14	2899	4003
63	0	0	2046	10	2903	4002
64	0	0	2014	7	2908	4004
65	0	0	1956	7	2910	4003
66	0	0	1886	7	2912	4002
67	0	0	1842	8	2911	4003
68	0	0	1822	7	2906	4004
69	0	0	1784	7	2900	4004
70	0	0	1779	11	2896	4003
71	0	0	1771	8	2895	4002
72	0	0	1762	10	2899	4002
73	0	0	1787	10	2903	4003
74	0	0	1855	10	2908	4002
75	0	0	1920	10	2910	4003
76	0	0	1973	11	2912	4003
77	0	0	2019	11	2911	4002
78	0	0	2033	11	2906	4003
79	0	0	2057	10	2900	4001
80	0	0	2073	11	2895	4003
81	0	0	2061	9	2896	4002
82	0	0	2038	8	2899	4002
83	0	0	2008	7	2902	4004
84	0	0	1981	9	2908	4002
85	0	0	1933	7	2910	4004
86	0	0	1871	7	2911	4003
87	0	0	1829	8	2911	4003
88	0	0	1804	7	2906	4003
89	0	0	1753	7	2900	4002
90	0	0	1712	8	2896	4003
91	0	0	1733	10	2896	4005
92	0	0	1776	11	2899	4003
93	0	0	1833	11	2902	4004
94	0	0	1890	10	2908	4004
95	0	0	1934	11	2911	4004
96	0	0	1976	11	2912	4003
97	0	0	2026	11	2912	4005
98	0	0	2073	10	2908	4004
99	0	0	2126	11	2900	4005
100	0	0	2160	10	2897	4004
101	0	0	2139	8	2896	4003
102	0	0	2097	5	2900	4004
103	0	0	2036	7	2904	4004
104	0	0	1986	6	2908	4003
105	0	0	1960	7	2911	4004
106	0	0	1921	7	2912	4003
107	0	0	1885	7	2912	4003
108	0	0	1859	8	2907	4003
109	0	0	1811	6	2900	4002
110	0	0	1790	10	2897	4003
111	0	0	1818	11	2897	4003
112	0	0	1862	10	2899	4003
113	0	0	1917	11	2904	4003
114	0	0	1980	11	2908	4004
115	0	0	2045	10	2911	4004
116	0	0	2102	11	2912	4003
117	0	0	2132	11	2911	4004
118	0	0	2144	10	2908	4004
119	0	0	2163	10	2900	4003
120	0	0	2166	10	2896	4003
121	0	0	2135	8	2896	4003
122	0	0	2102	8	2899	4003
123	0	0	2077	8	2903	4003
124	0	0	2044	9	2907	4002
125	0	0	1999	8	2911	4003
126	0	0	1933	7	2912	4003
127	0	0	1880	7	2911	4003
0	0	0	1843	7	2906	4003
1	0	0	1772	6	2900	4003
2	0	0	1717	7	2897	4003
3	0	0	1736	11	2897	4004
4	0	0	1786	15	2900	4003
5	0	0	1849	11	2904	4003
6	0	0	1935	11	2907	4003
7	0	0	1999	10	2911	4004
8	0	0	2050	11	2912	4003
9	0	0	2102	8	2911	4003
10	0	0	2143	10	2908	4002
11	0	0	2180	10	2900	4003
12	0	0	2202	10	2896	4003
13	0	0	2186	7	2897	4004
14	0	0	2127	5	2900	4002
15	0	0	2059	8	2903	4003
16	0	0	2002	7	2908	4004
17	0	0	1961	7	2911	4003
18	0	0	1940	9	2912	4003
19	0	0	1919	7	2911	4003
20	0	0	1897	7	2908	4002
21	0	0	1864	7	2901	4004
22	0	0	1857	9	2896	4003
23	0	0	1877	10	2897	4004
24	0	0	1909	11	2899	4003
25	0	0	1935	11	2903	4003
26	0	0	1991	11	2908	4003
27	0	0	2015	9	2911	4003
28	0	0	1960	6	2912	4003
29	0	0	1914	6	2911	4002
30	0	0	1918	11	2908	4002
31	0	0	1979	11	2900	4005
32	0	0	2052	10	2897	4004
33	0	0	2099	10	2896	4003
34	0	0	2115	10	2899	4004
35	0	0	2110	11	2903	4003
36	0	0	2088	10	2907	4003
37	0	0	2062	7	2911	4004
38	0	0	2023	8	2912	4003
39	0	0	1985	7	2911	4003
40	0	0	1961	8	2908	4003
41	0	0	1929	7	2901	4004
42	0	0	1892	9	2896	4004
43	0	0	1900	12	2897	4003
44	0	0	1944	9	2900	4002
45	0	0	2003	11	2904	4003
46	0	0	2062	10	2908	4003
47	0	0	2107	10	2911	4004
48	0	0	2135	9	2912	4003
49	0	0	2158	11	2911	4004
50	0	0	2186	12	2908	4003
51	0	0	2212	10	2901	4004
52	0	0	2245	11	2896	4004
53	0	0	2242	9	2896	4003
54	0	0	2198	6	2899	4003
55	0	0	2145	7	2903	4002
56	0	0	2102	7	2908	4004
57	0	0	2041	6	2910	4004
58	0	0	1954	6	2913	4004
59	0	0	1866	5	2911	4003
60	0	0	1812	8	2908	4003
61	0	0	1768	6	2900	4002
62	0	0	1755	9	2897	4005
63	0	0	1764	10	2896	4006
64	0	0	1802	11	2899	4004
65	0	0	1882	12	2903	4003
66	0	0	1988	10	2908	4004
67	0	0	2074	10	2910	4004
68	0	0	2121	10	2912	4003
69	0	0	2152	11	2911	4003
70	0	0	2177	11	2908	4003
71	0	0	2194	11	2901	4003
72	0	0	2219	13	2896	4003
73	0	0	2195	7	2895	4003
74	0	0	2131	7	2899	4003
75	0	0	2094	9	2903	4003
76	0	0	2072	8	2908	4004
77	0	0	2057	9	2912	4004
78	0	0	2031	7	2912	4004
79	0	0	1980	7	2912	4003
80	0	0	1943	8	2908	4003
81	0	0	1897	6	2901	4001
82	0	0	1862	8	2897	4004
83	0	0	1873	10	2897	4002
84	0	0	1905	11	2899	4004
85	0	0	1949	12	2903	4003
86	0	0	2015	10	2908	4004
87	0	0	2084	11	2912	4002
88	0	0	2151	10	2913	4000
89	0	0	2193	10	2911	4003
90	0	0	2217	11	2908	4003
91	0	0	2237	10	2901	4001
92	0	0	2265	10	2896	4004
93	0	0	2256	9	2896	4002
94	0	0	2232	8	2899	4003
95	0	0	2206	8	2903	4003
96	0	0	2155	6	2907	4004
97	0	0	2097	7	2910	4004
98	0	0	2041	6	2912	4003
99	0	0	2013	10	2912	4005
100	0	0	2022	11	2909	4005
101	0	0	1989	7	2901	4004
102	0	0	1942	7	2897	4004
103	0	0	1946	10	2897	4003
104	0	0	1976	11	2899	4005
105	0	0	2013	13	2904	4003
106	0	0	2074	10	2907	4004
107	0	0	2152	11	2910	4004
108	0	0	2210	11	2912	4003
109	0	0	2238	11	2911	4003
110	0	0	2260	11	2908	4003
111	0	0	2274	10	2900	4004
112	0	0	2269	12	2896	4004
113	0	0	2241	8	2897	4003
114	0	0	2204	8	2899	4003
115	0	0	2167	9	2903	4003
116	0	0	2134	9	2908	4004
117	0	0	2081	7	2911	4005
118	0	0	2033	7	2912	4004
119	0	0	1980	7	2912	4003
120	0	0	1961	9	2908	4003
121	0	0	1946	9	2901	4004
122	0	0	1942	12	2896	4004
123	0	0	1962	10	2896	4003
124	0	0	1985	12	2899	4003
125	0	0	2027	11	2904	4002
126	0	0	2092	10	2907	4004
127	0	0	2146	10	2911	4003
0	0	0	2201	11	2912	4003
1	0	0	2231	11	2911	4003
2	0	0	2231	8	2908	4003
3	0	0	2255	10	2901	4003
4	0	0	2290	11	2897	4005
5	0	0	2302	10	2897	4004
6	0	0	2286	10	2899	4003
7	0	0	2237	6	2903	4003
8	0	0	2165	5	2908	4004
9	0	0	2094	9	2911	4003
10	0	0	2027	6	2912	4003
11	0	0	1967	8	2911	4003
12	0	0	1916	6	2908	4004
13	0	0	1846	5	2901	4003
14	0	0	1788	7	2898	4004
15	0	0	1794	11	2897	4002
16	0	0	1839	11	2899	4002
17	0	0	1887	11	2904	4004
18	0	0	1953	10	2908	4004
19	0	0	2026	10	2911	4003
20	0	0	2097	11	2912	4003
21	0	0	2138	11	2911	4003
22	0	0	2156	12	2908	4005
23	0	0	2181	9	2901	4004
24	0	0	2205	14	2898	4003
25	0	0	2198	10	2896	4003
26	0	0	2176	10	2899	4003
27	0	0	2151	7	2902	4004
28	0	0	2114	7	2907	4004
29	0	0	2079	10	2911	4002
30	0	0	2052	8	2911	4003
31	0	0	2022	8	2911	4003
32	0	0	1971	8	2908	4004
33	0	0	1905	9	2901	4005
34	0	0	1851	7	2897	4003
35	0	0	1847	10	2896	4002
36	0	0	1858	10	2899	4003
37	0	0	1874	10	2902	4004
38	0	0	1941	9	2907	4004
39	0	0	2022	12	2910	4005
40	0	0	2089	11	2912	4003
41	0	0	2115	10	2912	4002
42	0	0	2123	10	2909	4005
43	0	0	2139	10	2901	4003
44	0	0	2148	11	2897	4005
45	0	0	2105	7	2896	4003
46	0	0	2037	7	2899	4003
47	0	0	1991	7	2903	4004
48	0	0	1959	4	2907	4003
49	0	0	1926	7	2911	4004
50	0	0	1891	8	2912	4003
51	0	0	1875	8	2912	4001
52	0	0	1858	4	2909	4003
53	0	0	1797	7	2902	4004
54	0	0	1738	6	2897	4003
55	0	0	1754	11	2897	4004
56	0	0	1813	7	2899	4004
57	0	0	1869	7	2903	4003
58	0	0	1929	10	2907	4004
59	0	0	1993	10	2911	4003
60	0	0	2046	10	2912	4003
61	0	0	2084	11	2911	4003
62	0	0	2106	10	2907	4004
63	0	0	2118	11	2901	4003
64	0	0	2131	10	2897	4004
65	0	0	2112	7	2896	4003
66	0	0	2081	7	2898	4003
67	0	0	2048	4	2903	4003
68	0	0	1998	7	2907	4006
69	0	0	1948	6	2911	4004
70	0	0	1903	7	2913	4004
71	0	0	1878	8	2911	4003
72	0	0	1871	6	2908	4003
73	0	0	1846	7	2902	4004
74	0	0	1824	9	2897	4004
75	0	0	1848	11	2897	4003
76	0	0	1895	11	2898	4004
77	0	0	1945	10	2903	4004
78	0	0	2014	11	2907	4003
79	0	0	2069	11	2911	4004
80	0	0	2105	7	2912	4003
81	0	0	2130	11	2912	4001
82	0	0	2141	7	2909	4003
83	0	0	2146	11	2901	4004
84	0	0	2161	9	2896	4003
85	0	0	2137	8	2896	4003
86	0	0	2054	6	2899	4003
87	0	0	1966	7	2903	4005
88	0	0	1884	7	2907	4005
89	0	0	1832	8	2910	4004
90	0	0	1823	10	2913	4004
91	0	0	1833	15	2912	4002
92	0	0	1846	7	2909	4003
93	0	0	1815	7	2902	4002
94	0	0	1793	8	2898	4004
95	0	0	1822	10	2896	4002
96	0	0	1867	11	2899	4000
97	0	0	1909	10	2902	4004
98	0	0	1975	11	2907	4003
99	0	0	2037	11	2910	4004
100	0	0	2079	10	2912	4003
101	0	0	2120	10	2911	4003
102	0	0	2158	11	2908	4004
103	0	0	2181	11	2902	4005
104	0	0	2192	14	2896	4005
105	0	0	2177	8	2896	4003
106	0	0	2134	7	2899	4003
107	0	0	2078	3	2903	4003
108	0	0	2010	7	2908	4004
109	0	0	1952	7	2910	4004
110	0	0	1909	7	2913	4004
111	0	0	1879	10	2912	4003
112	0	0	1852	7	2908	4004
113	0	0	1819	8	2902	4004
114	0	0	1799	10	2898	4004
115	0	0	1829	10	2897	4004
116	0	0	1878	11	2899	4003
117	0	0	1923	11	2903	4006
118	0	0	1984	9	2907	4001
119	0	0	2045	11	2910	4005
120	0	0	2093	10	2912	4003
121	0	0	2120	11	2912	4005
122	0	0	2133	10	2909	4004
123	0	0	2145	11	2902	4004
124	0	0	2161	11	2897	4005
125	0	0	2159	10	2897	4004
126	0	0	2137	10	2899	4003
127	0	0	2105	7	2902	4003
0	0	0	2069	7	2907	4004
1	0	0	2020	7	2910	4005
2	0	0	1949	6	2912	4003
3	0	0	1877	7	2912	4003
4	0	0	1848	11	2908	4005
5	0	0	1863	11	2902	4004
6	0	0	1885	10	2897	4004
7	0	0	1908	11	2897	4004
8	0	0	1933	9	2899	4003
9	0	0	1969	11	2903	4005
10	0	0	2002	10	2907	4005
11	0	0	2056	11	2911	4004
12	0	0	2139	11	2912	4003
13	0	0	2190	10	2913	4005
14	0	0	2201	10	2909	4004
15	0	0	2184	11	2902	4004
16	0	0	2165	9	2897	4005
17	0	0	2135	7	2896	4003
18	0	0	2118	9	2899	4003
19	0	0	2107	8	2903	4003
20	0	0	2060	8	2907	4004
21	0	0	2004	7	2910	4004
22	0	0	1959	8	2912	4003
23	0	0	1941	7	2912	4003
24	0	0	1937	12	2909	4003
25	0	0	1908	7	2902	4004
26	0	0	1869	8	2898	4005
27	0	0	1897	11	2897	4003
28	0	0	1956	11	2899	4004
29	0	0	1997	8	2903	4004
30	0	0	2043	8	2907	4004
31	0	0	2069	11	2910	4006
32	0	0	2077	10	2912	4003
33	0	0	2084	11	2912	4003
34	0	0	2091	12	2909	4003
35	0	0	2115	10	2902	4004
36	0	0	2147	11	2897	4004
37	0	0	2152	11	2896	4003
38	0	0	2136	9	2899	4004
39	0	0	2104	9	2902	4003
40	0	0	2055	8	2907	4001
41	0	0	2001	7	2911	4002
42	0	0	1967	8	2912	4004
43	0	0	1951	9	2912	4003
44	0	0	1940	10	2910	4005
45	0	0	1904	7	2902	4004
46	0	0	1863	7	2898	4005
47	0	0	1853	11	2897	4003
48	0	0	1869	10	2899	4004
49	0	0	1919	8	2902	4004
50	0	0	1986	10	2907	4004
51	0	0	2063	8	2910	4002
52	0	0	2116	12	2912	4003
53	0	0	2135	11	2912	4003
54	0	0	2160	12	2909	4001
55	0	0	2175	11	2902	4004
56	0	0	2169	11	2897	4004
57	0	0	2152	8	2897	4005
58	0	0	2132	10	2898	4003
59	0	0	2115	8	2902	4004
60	0	0	2110	11	2907	4004
61	0	0	2088	7	2911	4004
62	0	0	2009	7	2912	4003
63	0	0	1942	8	2912	4004
64	0	0	1937	12	2909	4002
65	0	0	1941	10	2903	4004
66	0	0	1928	10	2897	4002
67	0	0	1940	11	2897	4003
68	0	0	1980	11	2899	4003
69	0	0	2034	8	2902	4003
70	0	0	2092	10	2907	4004
71	0	0	2126	9	2910	4000
72	0	0	2140	11	2912	4003
73	0	0	2171	11	2912	4003
74	0	0	2213	8	2909	4004
75	0	0	2240	10	2903	4005
76	0	0	2252	11	2897	4001
77	0	0	2251	12	2897	4005
78	0	0	2246	10	2900	4003
79	0	0	2214	8	2903	4002
80	0	0	2155	8	2907	4004
81	0	0	2106	8	2910	4002
82	0	0	2074	9	2912	4003
83	0	0	2020	6	2911	4004
84	0	0	1946	8	2909	4001
85	0	0	1887	7	2902	4005
86	0	0	1881	11	2897	4003
87	0	0	1909	11	2896	4003
88	0	0	1934	11	2898	4004
89	0	0	1961	12	2903	4000
90	0	0	2011	10	2907	4004
91	0	0	2083	11	2910	4003
92	0	0	2140	11	2912	4002
93	0	0	2189	12	2912	4003
94	0	0	2225	12	2910	4001
95	0	0	2246	11	2903	4003
96	0	0	2259	10	2897	4002
97	0	0	2236	8	2896	4003
98	0	0	2200	7	2899	4003
99	0	0	2148	6	2903	4000
100	0	0	2087	7	2907	4004
101	0	0	2037	7	2910	4001
102	0	0	1989	7	2912	4003
103	0	0	1954	9	2912	4003
104	0	0	1936	10	2910	4001
105	0	0	1910	6	2903	4003
106	0	0	1873	8	2897	4004
107	0	0	1879	11	2897	4003
108	0	0	1900	11	2899	4003
109	0	0	1944	9	2903	4000
110	0	0	2032	10	2907	4004
111	0	0	2114	10	2910	4001
112	0	0	2176	11	2912	4004
113	0	0	2231	10	2912	4006
114	0	0	2259	11	2910	4005
115	0	0	2264	11	2903	4005
116	0	0	2277	10	2898	4005
117	0	0	2256	12	2896	4003
118	0	0	2204	7	2899	4006
119	0	0	2157	9	2902	4004
120	0	0	2120	8	2907	4001
121	0	0	2081	7	2910	4003
122	0	0	2023	6	2913	4005
123	0	0	1982	4	2911	4003
124	0	0	1976	14	2909	4003
125	0	0	1946	6	2903	4003
126	0	0	1883	7	2895	4002
127	0	0	1865	9	2897	4002
0	0	0	1882	11	2898	4004
1	0	0	1924	3	2902	4004
2	0	0	1994	9	2907	4004
3	0	0	2078	11	2910	4004
4	0	0	2153	11	2912	4003
5	0	0	2174	11	2912	4004
6	0	0	2164	7	2910	4004
7	0	0	2156	10	2903	4003
8	0	0	2168	11	2897	4003
9	0	0	2158	10	2896	4003
10	0	0	2124	7	2898	4004
11	0	0	2093	7	2903	4004
12	0	0	2063	7	2907	4003
13	0	0	2048	9	2910	4003
14	0	0	2032	9	2912	4003
15	0	0	2009	8	2912	4005
16	0	0	1979	7	2910	4005
17	0	0	1936	6	2903	4004
18	0	0	1895	7	2898	4004
19	0	0	1894	11	2897	4003
20	0	0	1924	11	2899	4003
21	0	0	1978	15	2903	4002
22	0	0	2030	8	2907	4003
23	0	0	2060	11	2910	4003
24	0	0	2080	10	2912	4003
25	0	0	2101	10	2913	4002
26	0	0	2139	11	2909	4003
27	0	0	2196	11	2903	4005
28	0	0	2255	11	2897	4003
29	0	0	2271	9	2897	4003
30	0	0	2247	8	2899	4005
31	0	0	2200	7	2903	4004
32	0	0	2144	9	2907	4004
33	0	0	2073	7	2910	4005
34	0	0	2007	6	2912	4003
35	0	0	1957	8	2912	4003
36	0	0	1929	11	2910	4003
37	0	0	1891	6	2903	4003
38	0	0	1838	7	2897	4003
39	0	0	1847	10	2897	4003
40	0	0	1908	10	2900	4002
41	0	0	1972	14	2902	4004
42	0	0	2025	10	2907	4004
43	0	0	2081	11	2910	4003
44	0	0	2110	9	2912	4003
45	0	0	2128	11	2912	4006
46	0	0	2184	5	2910	4004
47	0	0	2246	9	2903	4005
48	0	0	2280	9	2898	4005
49	0	0	2266	9	2896	4003
50	0	0	2222	7	2899	4003
51	0	0	2172	7	2903	4003
52	0	0	2101	7	2907	4003
53	0	0	2033	7	2910	4003
54	0	0	2007	6	2913	4005
55	0	0	1986	5	2912	4004
56	0	0	1968	8	2910	4005
57	0	0	1943	6	2904	4004
58	0	0	1909	8	2897	4005
59	0	0	1922	12	2897	4005
60	0	0	1955	11	2898	4005
61	0	0	2000	5	2902	4005
62	0	0	2063	10	2906	4004
63	0	0	2111	10	2910	4002
64	0	0	2146	11	2911	4003
65	0	0	2164	11	2912	4004
66	0	0	2187	8	2910	4004
67	0	0	2232	11	2903	4004
68	0	0	2279	11	2897	4003
69	0	0	2286	10	2896	4003
70	0	0	2255	7	2898	4005
71	0	0	2207	7	2903	4005
72	0	0	2152	8	2907	4005
73	0	0	2097	7	2910	4003
74	0	0	2052	8	2913	4005
75	0	0	2022	7	2912	4003
76	0	0	2009	12	2910	4004
77	0	0	1983	8	2903	4004
78	0	0	1942	7	2897	4003
79	0	0	1926	10	2897	4003
80	0	0	1927	11	2898	4005
81	0	0	1936	11	2903	4005
82	0	0	2010	10	2907	4004
83	0	0	2094	11	2910	4003
84	0	0	2149	10	2912	4003
85	0	0	2195	11	2913	4002
86	0	0	2237	12	2910	4004
87	0	0	2260	10	2904	4002
88	0	0	2261	11	2897	4003
89	0	0	2240	8	2897	4003
90	0	0	2213	9	2898	4003
91	0	0	2189	6	2902	4005
92	0	0	2135	6	2906	4004
93	0	0	2071	7	2910	4004
94	0	0	2027	7	2912	4003
95	0	0	2001	8	2913	4003
96	0	0	1970	4	2911	4004
97	0	0	1924	8	2904	4004
98	0	0	1878	8	2898	4003
99	0	0	1891	11	2897	4005
100	0	0	1940	11	2899	4004
101	0	0	2001	11	2903	4004
102	0	0	2081	10	2907	4004
103	0	0	2139	10	2910	4004
104	0	0	2160	10	2912	4004
105	0	0	2202	11	2912	4004
106	0	0	2237	11	2910	4006
107	0	0	2222	11	2904	4004
108	0	0	2207	10	2897	4003
109	0	0	2176	7	2896	4003
110	0	0	2132	7	2898	4003
111	0	0	2094	8	2902	4004
112	0	0	2064	7	2907	4005
113	0	0	2037	8	2910	4004
114	0	0	2014	12	2911	4003
115	0	0	1996	10	2912	4003
116	0	0	1989	9	2910	4004
117	0	0	1964	8	2905	4004
118	0	0	1935	9	2898	4004
119	0	0	1937	11	2897	3999
120	0	0	1963	11	2899	4004
121	0	0	1980	10	2903	4004
122	0	0	2016	11	2906	4004
123	0	0	2068	10	2910	4003
124	0	0	2110	12	2912	4003
125	0	0	2145	12	2913	4004
126	0	0	2166	12	2910	4004
127	0	0	2189	11	2904	4004
0	0	0	2219	11	2897	4004
1	0	0	2232	14	2896	4003
2	0	0	2196	8	2898	4003
3	0	0	2133	4	2902	4003
4	0	0	2058	8	2907	4004
5	0	0	2001	7	2910	4004
6	0	0	1954	8	2912	4003
7	0	0	1926	8	2913	4004
8	0	0	1914	8	2911	4004
9	0	0	1886	7	2904	4005
10	0	0	1844	8	2898	4006
11	0	0	1865	11	2897	4003
12	0	0	1925	7	2899	4003
13	0	0	1982	11	2902	4004
14	0	0	2073	10	2906	4004
15	0	0	2168	7	2910	4002
16	0	0	2225	9	2912	4005
17	0	0	2240	14	2912	4005
18	0	0	2226	11	2910	4004
19	0	0	2202	11	2904	4005
20	0	0	2187	9	2898	4006
21	0	0	2146	7	2897	4003
22	0	0	2104	8	2899	4004
23	0	0	2073	7	2903	4004
24	0	0	2034	8	2907	4004
25	0	0	2018	8	2910	4004
26	0	0	1996	9	2912	4003
27	0	0	1966	5	2912	4004
28	0	0	1933	7	2910	4001
29	0	0	1882	7	2904	4004
30	0	0	1823	7	2898	4007
31	0	0	1825	10	2896	4004
32	0	0	1870	11	2898	4003
33	0	0	1909	12	2901	4002
34	0	0	1974	9	2906	4003
35	0	0	2043	10	2910	4004
36	0	0	2106	10	2912	4003
37	0	0	2154	8	2912	4003
38	0	0	2180	12	2910	4003
39	0	0	2184	14	2904	4004
40	0	0	2191	13	2897	4005
41	0	0	2176	9	2896	4003
42	0	0	2140	5	2899	4003
43	0	0	2099	4	2902	4004
44	0	0	2052	6	2907	4004
45	0	0	2010	7	2911	4008
46	0	0	1979	8	2912	3999
47	0	0	1954	5	2912	4004
48	0	0	1928	8	2910	4002
49	0	0	1895	6	2904	4004
50	0	0	1845	6	2898	4005
51	0	0	1837	10	2896	4004
52	0	0	1865	9	2899	4003
53	0	0	1912	8	2902	4003
54	0	0	1974	8	2906	4004
55	0	0	2040	8	2910	4005
56	0	0	2089	11	2912	4003
57	0	0	2128	11	2912	4004
58	0	0	2168	10	2910	4005
59	0	0	2191	8	2904	4003
60	0	0	2220	12	2898	4007
61	0	0	2213	8	2897	4005
62	0	0	2167	7	2899	4007
63	0	0	2114	7	2901	4004
64	0	0	2059	7	2907	4005
65	0	0	2010	7	2910	4003
66	0	0	1963	8	2913	4005
67	0	0	1921	7	2913	4007
68	0	0	1863	7	2910	4004
69	0	0	1820	6	2905	4005
70	0	0	1787	8	2898	4006
71	0	0	1792	10	2897	4005
72	0	0	1819	14	2899	4005
73	0	0	1843	10	2902	4005
74	0	0	1877	11	2906	4004
75	0	0	1914	10	2910	4003
76	0	0	1939	11	2912	4004
77	0	0	1954	10	2913	4000
78	0	0	1983	14	2910	4003
79	0	0	2038	10	2905	4004
80	0	0	2125	10	2898	4005
81	0	0	2195	11	2896	4005
82	0	0	2221	12	2898	4004
83	0	0	2217	14	2901	4003
84	0	0	2195	7	2906	4004
85	0	0	2157	7	2911	4005
86	0	0	2112	8	2911	4003
87	0	0	2102	8	2912	4003
88	0	0	2124	10	2910	4004
89	0	0	2153	11	2905	4005
90	0	0	2155	11	2898	4003
91	0	0	2177	11	2898	4005
92	0	0	2209	15	2899	4003
93	0	0	2255	11	2902	4003
94	0	0	2337	11	2907	4005
95	0	0	2428	11	2910	4003
96	0	0	2508	11	2913	4005
97	0	0	2567	11	2912	4004
98	0	0	2618	11	2910	4003
99	0	0	2672	12	2904	4005
100	0	0	2726	11	2897	4004
101	0	0	2739	11	2896	4003
102	0	0	2733	11	2898	4004
103	0	0	2737	15	2901	4003
104	0	0	2719	10	2906	4005
105	0	0	2704	12	2910	4006
106	0	0	2684	10	2912	4004
107	0	0	2633	7	2913	4005
108	0	0	2575	7	2911	4005
109	0	0	2511	9	2905	4004
110	0	0	2428	7	2899	4005
111	0	0	2391	11	2897	4004
112	0	0	2426	11	2898	4005
113	0	0	2484	11	2901	4003
114	0	0	2553	11	2906	4004
115	0	0	2618	12	2909	4003
116	0	0	2661	10	2911	4004
117	0	0	2686	14	2912	4004
118	0	0	2701	11	2909	4003
119	0	0	2703	12	2905	4005
120	0	0	2690	14	2898	4004
121	0	0	2631	7	2897	4003
122	0	0	2545	11	2898	4003
123	0	0	2435	6	2902	4004
124	0	0	2281	6	2907	4005
125	0	0	2142	6	2910	4004
126	0	0	2033	7	2913	4005
127	0	0	1970	11	2912	4003
0	0	0	1927	7	2910	4003
1	0	0	1869	11	2905	4005
2	0	0	1791	3	2898	4004
3	0	0	1746	5	2898	4003
4	0	0	1774	10	2899	4005
5	0	0	1833	11	2902	4003
6	0	0	1901	10	2907	4004
7	0	0	1969	10	2909	4004
8	0	0	2007	9	2912	4004
9	0	0	2015	12	2913	4004
10	0	0	2021	11	2911	4001
11	0	0	2049	14	2906	4004
12	0	0	2100	11	2898	4004
13	0	0	2114	10	2897	4004
14	0	0	2086	12	2898	4003
15	0	0	2062	9	2902	4003
16	0	0	2033	9	2906	4005
17	0	0	1996	8	2910	4003
18	0	0	1952	5	2913	4005
19	0	0	1898	7	2914	4004
20	0	0	1856	7	2911	4004
21	0	0	1823	7	2905	4005
22	0	0	1783	8	2898	4004
23	0	0	1779	11	2898	4005
24	0	0	1793	12	2899	4005
25	0	0	1831	11	2903	4004
26	0	0	1891	14	2906	4004
27	0	0	1954	10	2909	4004
28	0	0	2006	9	2913	4003
29	0	0	2042	12	2913	4005
30	0	0	2073	11	2911	4003
31	0	0	2099	12	2905	4004
32	0	0	2125	11	2899	4003
33	0	0	2131	11	2897	4004
34	0	0	2107	8	2898	4003
35	0	0	2078	8	2903	4005
36	0	0	2029	11	2907	4004
37	0	0	1987	7	2911	4005
38	0	0	1939	8	2912	4004
39	0	0	1890	9	2913	4005
40	0	0	1858	7	2911	4003
41	0	0	1832	6	2906	4004
42	0	0	1789	6	2899	4004
43	0	0	1782	8	2897	4003
44	0	0	1809	11	2898	4004
45	0	0	1854	10	2903	4001
46	0	0	1919	12	2906	4004
47	0	0	1987	16	2909	4003
48	0	0	2025	11	2912	4004
49	0	0	2037	15	2912	4004
50	0	0	2052	11	2911	4004
51	0	0	2086	10	2906	4005
52	0	0	2109	11	2898	4004
53	0	0	2114	9	2897	4005
54	0	0	2123	11	2898	4002
55	0	0	2117	10	2903	4004
56	0	0	2087	8	2906	4005
57	0	0	2040	7	2910	4006
58	0	0	1971	4	2913	4002
59	0	0	1904	8	2913	4004
60	0	0	1849	8	2911	4004
61	0	0	1807	6	2906	4004
62	0	0	1772	8	2899	4004
63	0	0	1780	10	2897	4004
64	0	0	1818	10	2899	4004
65	0	0	1873	11	2903	4005
66	0	0	1942	10	2907	4005
67	0	0	2009	11	2910	4004
68	0	0	2055	11	2912	4004
69	0	0	2084	11	2912	4004
70	0	0	2109	8	2912	4004
71	0	0	2129	11	2906	4005
72	0	0	2150	11	2899	4004
73	0	0	2155	11	2897	4004
74	0	0	2122	9	2898	4004
75	0	0	2075	7	2902	4005
76	0	0	2018	7	2906	4005
77	0	0	1970	7	2910	4003
78	0	0	1923	7	2912	4003
79	0	0	1885	8	2913	4004
80	0	0	1867	8	2912	4005
81	0	0	1844	5	2906	4004
82	0	0	1796	7	2899	4004
83	0	0	1800	11	2897	4003
84	0	0	1839	11	2898	4004
85	0	0	1912	10	2902	4004
86	0	0	2004	10	2906	4005
87	0	0	2087	7	2909	4003
88	0	0	2138	8	2913	4005
89	0	0	2169	11	2914	4001
90	0	0	2173	11	2912	4004
91	0	0	2160	9	2905	4005
92	0	0	2163	11	2899	4004
93	0	0	2140	6	2898	4002
94	0	0	2088	8	2899	4003
95	0	0	2038	8	2903	4006
96	0	0	1989	8	2906	4004
97	0	0	1954	8	2910	4004
98	0	0	1925	7	2912	4003
99	0	0	1893	7	2913	4003
100	0	0	1856	7	2911	4004
101	0	0	1809	6	2906	4005
102	0	0	1746	8	2899	4004
103	0	0	1736	10	2898	4005
104	0	0	1791	10	2899	4004
105	0	0	1856	12	2902	4004
106	0	0	1930	12	2906	4004
107	0	0	2001	11	2909	4005
108	0	0	2059	10	2913	4005
109	0	0	2112	11	2914	4004
110	0	0	2149	11	2911	4005
111	0	0	2176	8	2906	4004
112	0	0	2221	7	2899	4004
113	0	0	2206	7	2897	4004
114	0	0	2126	6	2899	4004
115	0	0	2054	8	2902	4004
116	0	0	1994	7	2906	4005
117	0	0	1954	7	2910	4004
118	0	0	1924	8	2912	4003
119	0	0	1905	7	2913	4003
120	0	0	1882	8	2911	4005
121	0	0	1846	8	2905	4004
122	0	0	1789	6	2899	4003
123	0	0	1773	11	2897	4003
124	0	0	1800	9	2899	4004
125	0	0	1844	12	2902	4004
126	0	0	1915	12	2905	4004
127	0	0	2006	13	2909	4003
0	0	0	2093	10	2912	4004
1	0	0	2150	11	2912	4004
2	0	0	2170	11	2910	4005
3	0	0	2166	10	2905	4005
4	0	0	2165	11	2898	4004
5	0	0	2149	8	2897	4005
6	0	0	2117	7	2898	4004
7	0	0	2089	9	2902	4004
8	0	0	2070	8	2906	4005
9	0	0	2041	8	2909	4003
10	0	0	2001	6	2913	4005
11	0	0	1971	8	2913	4002
12	0	0	1955	8	2911	4004
13	0	0	1932	8	2906	4005
14	0	0	1883	7	2900	4001
15	0	0	1870	10	2898	4005
16	0	0	1886	10	2899	4004
17	0	0	1906	11	2902	4004
18	0	0	1965	12	2906	4005
19	0	0	2040	10	2909	4002
20	0	0	2096	11	2912	4004
21	0	0	2140	10	2912	4003
22	0	0	2174	10	2910	4003
23	0	0	2197	11	2906	4004
24	0	0	2216	11	2899	4003
25	0	0	2204	9	2897	4002
26	0	0	2163	7	2898	4003
27	0	0	2122	7	2901	4005
28	0	0	2082	9	2905	4004
29	0	0	2060	8	2910	4005
30	0	0	2034	12	2912	4004
31	0	0	2003	7	2913	4003
32	0	0	1985	8	2911	4004
33	0	0	1964	7	2906	4005
34	0	0	1908	7	2899	4004
35	0	0	1884	9	2898	4005
36	0	0	1909	10	2899	4006
37	0	0	1966	9	2903	4004
38	0	0	2051	11	2906	4005
39	0	0	2123	11	2909	4004
40	0	0	2156	10	2912	4004
41	0	0	2192	10	2913	4003
42	0	0	2198	8	2912	4005
43	0	0	2177	7	2906	4004
44	0	0	2193	11	2900	4005
45	0	0	2200	10	2896	4003
46	0	0	2178	7	2898	4004
47	0	0	2167	11	2902	4004
48	0	0	2161	12	2906	4004
49	0	0	2160	11	2909	4004
50	0	0	2134	12	2911	4003
51	0	0	2067	7	2913	4003
52	0	0	1993	7	2911	4004
53	0	0	1915	3	2907	4005
54	0	0	1818	6	2899	4005
55	0	0	1778	9	2897	4003
56	0	0	1817	11	2898	4003
57	0	0	1908	11	2902	4004
58	0	0	1997	11	2906	4005
59	0	0	2067	11	2909	4004
60	0	0	2131	11	2912	4004
61	0	0	2186	11	2912	4003
62	0	0	2230	11	2911	4005
63	0	0	2253	3	2907	4004
64	0	0	2273	11	2899	4005
65	0	0	2264	10	2897	4003
66	0	0	2233	8	2898	4003
67	0	0	2202	8	2902	4005
68	0	0	2171	7	2905	4004
69	0	0	2157	11	2909	4003
70	0	0	2144	15	2911	4003
71	0	0	2136	13	2912	4003
72	0	0	2131	8	2911	4004
73	0	0	2065	7	2907	4005
74	0	0	1986	7	2899	4004
75	0	0	1953	8	2897	4004
76	0	0	1947	11	2898	4003
77	0	0	1973	12	2901	4003
78	0	0	2064	7	2905	4004
79	0	0	2197	11	2910	4005
80	0	0	2292	7	2912	4004
81	0	0	2333	11	2913	4004
82	0	0	2334	11	2912	4005
83	0	0	2330	7	2907	4003
84	0	0	2355	11	2899	4004
85	0	0	2362	14	2897	4004
86	0	0	2326	7	2899	4004
87	0	0	2276	8	2901	4004
88	0	0	2220	6	2906	4005
89	0	0	2178	8	2909	4003
90	0	0	2147	7	2912	4003
91	0	0	2102	5	2913	4004
92	0	0	2051	7	2912	4004
93	0	0	2012	3	2906	4004
94	0	0	1968	5	2899	4003
95	0	0	1962	11	2897	4005
96	0	0	1996	11	2898	4003
97	0	0	2029	11	2901	4004
98	0	0	2078	8	2905	4004
99	0	0	2148	11	2909	4004
100	0	0	2196	10	2912	4003
101	0	0	2214	9	2913	4004
102	0	0	2223	10	2912	4004
103	0	0	2221	9	2907	4004
104	0	0	2231	11	2899	4004
105	0	0	2238	9	2898	4003
106	0	0	2223	9	2899	4006
107	0	0	2188	7	2902	4005
108	0	0	2138	4	2906	4005
109	0	0	2088	7	2909	4004
110	0	0	2042	6	2912	4003
111	0	0	2003	8	2913	4007
112	0	0	1992	8	2912	4005
113	0	0	1994	5	2907	4005
114	0	0	1918	7	2899	4004
115	0	0	1853	6	2897	4003
116	0	0	1855	10	2899	4006
117	0	0	1904	10	2902	4006
118	0	0	1995	8	2906	4005
119	0	0	2108	10	2909	4004
120	0	0	2185	10	2912	4003
121	0	0	2180	8	2913	4005
122	0	0	2158	9	2912	4005
123	0	0	2159	8	2906	4004
124	0	0	2184	11	2899	4004
125	0	0	2194	7	2897	4005
126	0	0	2172	8	2898	4007
127	0	0	2138	7	2901	4005
0	0	0	2095	6	2906	4005
1	0	0	2044	7	2909	4004
2	0	0	1983	5	2912	4003
3	0	0	1907	6	2913	4003
4	0	0	1842	7	2912	4005
5	0	0	1806	4	2907	4005
6	0	0	1796	11	2901	4005
7	0	0	1841	10	2898	4005
8	0	0	1928	11	2898	4004
9	0	0	1966	10	2901	4004
10	0	0	1990	10	2906	4004
11	0	0	2031	11	2910	4006
12	0	0	2087	10	2912	4005
13	0	0	2130	11	2914	4005
14	0	0	2151	11	2910	4004
15	0	0	2180	10	2907	4005
16	0	0	2204	11	2899	4004
17	0	0	2206	8	2898	4003
18	0	0	2166	8	2898	4004
19	0	0	2114	7	2904	4006
20	0	0	2057	7	2906	4004
21	0	0	2002	5	2909	4005
22	0	0	1960	9	2912	4004
23	0	0	1942	9	2913	4001
24	0	0	1939	11	2914	4006
25	0	0	1941	10	2908	4004
26	0	0	1890	7	2900	3999
27	0	0	1832	6	2899	3978
28	0	0	1827	9	2899	3957
29	0	0	1845	11	2901	3934
30	0	0	1894	11	2906	3914
31	0	0	1970	11	2910	3892
32	0	0	2040	11	2912	3870
33	0	0	2089	9	2913	3849
34	0	0	2121	11	2912	3828
35	0	0	2135	11	2907	3808
36	0	0	2160	10	2899	3786
37	0	0	2178	10	2897	3766
38	0	0	2153	8	2899	3745
39	0	0	2104	7	2901	3724
40	0	0	2054	7	2906	3704
41	0	0	2010	7	2909	3683
42	0	0	1960	5	2913	3662
43	0	0	1907	8	2913	3642
44	0	0	1868	7	2912	3621
45	0	0	1844	8	2908	3603
46	0	0	1804	7	2900	3580
47	0	0	1783	9	2897	3561
48	0	0	1792	11	2898	3541
49	0	0	1817	10	2902	3522
50	0	0	1876	10	2906	3502
51	0	0	1954	11	2909	3482
52	0	0	2025	11	2912	3463
53	0	0	2085	10	2913	3444
54	0	0	2117	11	2912	3425
55	0	0	2125	10	2908	3407
56	0	0	2153	11	2900	3387
57	0	0	2170	11	2897	3369
58	0	0	2136	8	2899	3351
59	0	0	2095	8	2901	3333
60	0	0	2054	6	2906	3315
61	0	0	2006	7	2909	3296
62	0	0	1976	8	2912	3279
63	0	0	1960	8	2913	3262
64	0	0	1949	10	2912	3244
65	0	0	1963	12	2907	3228
66	0	0	1934	7	2900	3210
67	0	0	1891	7	2897	3193
68	0	0	1882	10	2899	3176
69	0	0	1894	7	2901	3160
70	0	0	1916	8	2906	3143
71	0	0	1966	11	2909	3126
72	0	0	2060	11	2912	3110
73	0	0	2155	12	2913	3095
74	0	0	2217	11	2912	3079
75	0	0	2221	11	2907	3063
76	0	0	2222	11	2901	3047
77	0	0	2216	10	2897	3031
78	0	0	2169	7	2898	3016
79	0	0	2107	6	2902	3001
80	0	0	2029	6	2905	2985
81	0	0	1949	6	2910	2971
82	0	0	1884	5	2912	2955
83	0	0	1858	12	2913	2939
84	0	0	1863	10	2912	2925
85	0	0	1888	10	2908	2912
86	0	0	1856	8	2900	2897
87	0	0	1770	5	2898	2883
88	0	0	1715	6	2899	2869
89	0	0	1716	11	2901	2853
90	0	0	1793	12	2905	2840
91	0	0	1936	11	2909	2826
92	0	0	2066	10	2912	2813
93	0	0	2116	14	2913	2799
94	0	0	2135	10	2912	2786
95	0	0	2136	11	2907	2773
96	0	0	2163	10	2901	2760
97	0	0	2167	10	2897	2746
98	0	0	2151	11	2898	2733
99	0	0	2140	10	2901	2720
100	0	0	2140	10	2905	2708
101	0	0	2144	11	2909	2696
102	0	0	2121	9	2912	2683
103	0	0	2073	7	2914	2671
104	0	0	2024	8	2912	2657
105	0	0	1987	7	2908	2646
106	0	0	1930	7	2900	2633
107	0	0	1895	8	2897	2621
108	0	0	1901	13	2898	2609
109	0	0	1938	10	2902	2597
110	0	0	1981	10	2905	2586
111	0	0	2045	11	2909	2574
112	0	0	2107	10	2912	2563
113	0	0	2150	11	2913	2551
114	0	0	2163	10	2912	2539
115	0	0	2165	11	2908	2528
116	0	0	2204	11	2901	2517
117	0	0	2237	11	2897	2505
118	0	0	2204	7	2899	2494
119	0	0	2126	7	2902	2483
120	0	0	2041	7	2905	2472
121	0	0	1976	7	2910	2462
122	0	0	1941	7	2913	2451
123	0	0	1921	9	2913	2441
124	0	0	1904	7	2913	2431
125	0	0	1870	7	2908	2420
126	0	0	1827	7	2901	2410
127	0	0	1806	11	2897	2399
0	0	0	1835	11	2898	2389
1	0	0	1895	11	2901	2379
2	0	0	1981	11	2905	2370
3	0	0	2070	11	2909	2359
4	0	0	2136	11	2912	2350
5	0	0	2181	9	2913	2340
6	0	0	2215	10	2912	2330
7	0	0	2230	8	2908	2321
8	0	0	2247	11	2900	2311
9	0	0	2277	11	2897	2301
10	0	0	2257	7	2898	2292
11	0	0	2190	7	2902	2283
12	0	0	2107	6	2906	2274
13	0	0	2033	6	2909	2265
14	0	0	1977	7	2912	2255
15	0	0	1954	7	2914	2246
16	0	0	1945	8	2912	2236
17	0	0	1921	7	2908	2228
18	0	0	1863	6	2900	2219
19	0	0	1829	11	2898	2211
20	0	0	1859	9	2899	2202
21	0	0	1916	11	2901	2193
22	0	0	1986	10	2906	2185
23	0	0	2062	11	2909	2176
24	0	0	2128	13	2912	2168
25	0	0	2163	11	2913	2159
26	0	0	2197	10	2913	2151
27	0	0	2226	10	2908	2143
28	0	0	2240	11	2900	2135
29	0	0	2208	7	2897	2126
30	0	0	2143	7	2898	2118
31	0	0	2075	8	2902	2109
32	0	0	2018	7	2905	2102
33	0	0	1970	7	2909	2094
34	0	0	1927	7	2912	2086
35	0	0	1898	7	2913	2078
36	0	0	1888	9	2912	2071
37	0	0	1881	9	2908	2063
38	0	0	1832	7	2901	2056
39	0	0	1796	7	2897	2046
40	0	0	1827	10	2898	2039
41	0	0	1885	10	2901	2031
42	0	0	1950	12	2905	2024
43	0	0	2044	10	2909	2016
44	0	0	2114	12	2911	2009
45	0	0	2141	8	2914	2002
46	0	0	2162	11	2912	1995
47	0	0	2176	11	2908	1988
48	0	0	2179	12	2900	1980
49	0	0	2174	10	2897	1973
50	0	0	2148	5	2899	1966
51	0	0	2116	7	2901	1959
52	0	0	2081	8	2906	1952
53	0	0	2050	9	2909	1946
54	0	0	2000	6	2912	1938
55	0	0	1936	4	2913	1932
56	0	0	1850	6	2912	1925
57	0	0	1757	6	2908	1919
58	0	0	1667	7	2901	1911
59	0	0	1641	10	2898	1905
60	0	0	1703	11	2898	1898
61	0	0	1813	11	2902	1890
62	0	0	1932	10	2905	1885
63	0	0	2044	10	2909	1879
64	0	0	2141	12	2912	1872
65	0	0	2202	10	2912	1866
66	0	0	2234	11	2913	1859
67	0	0	2252	12	2909	1853
68	0	0	2283	10	2900	1847
69	0	0	2297	9	2897	1840
70	0	0	2243	7	2899	1834
71	0	0	2179	7	2902	1828
72	0	0	2125	7	2905	1822
73	0	0	2078	7	2909	1816
74	0	0	2037	7	2912	1810
75	0	0	2007	7	2913	1804
76	0	0	1979	7	2912	1799
77	0	0	1948	6	2909	1792
78	0	0	1878	7	2901	1786
79	0	0	1826	8	2897	1780
80	0	0	1833	8	2899	1774
81	0	0	1873	10	2901	1768
82	0	0	1966	10	2905	1763
83	0	0	2072	10	2910	1757
84	0	0	2141	11	2912	1751
85	0	0	2185	10	2913	1746
86	0	0	2211	10	2913	1740
87	0	0	2218	10	2908	1735
88	0	0	2227	13	2901	1729
89	0	0	2227	10	2897	1723
90	0	0	2204	8	2898	1717
91	0	0	2181	8	2901	1713
92	0	0	2156	7	2904	1707
93	0	0	2113	7	2909	1701
94	0	0	2045	8	2911	1697
95	0	0	1970	4	2914	1691
96	0	0	1912	7	2912	1686
97	0	0	1896	10	2909	1680
98	0	0	1880	8	2901	1675
99	0	0	1877	11	2898	1670
100	0	0	1900	9	2899	1666
101	0	0	1934	11	2900	1660
102	0	0	1988	9	2905	1654
103	0	0	2058	10	2909	1650
104	0	0	2134	11	2912	1643
105	0	0	2199	11	2913	1639
106	0	0	2236	11	2912	1635
107	0	0	2204	7	2908	1630
108	0	0	2161	8	2901	1625
109	0	0	2145	10	2897	1619
110	0	0	2119	8	2898	1614
111	0	0	2105	10	2900	1611
112	0	0	2080	7	2905	1605
113	0	0	2035	7	2909	1600
114	0	0	1981	8	2912	1595
115	0	0	1934	7	2913	1590
116	0	0	1911	7	2913	1586
117	0	0	1894	8	2908	1580
118	0	0	1858	7	2902	1576
119	0	0	1826	8	2897	1571
120	0	0	1840	10	2898	1566
121	0	0	1873	10	2901	1562
122	0	0	1924	11	2905	1558
123	0	0	1999	11	2908	1553
124	0	0	2060	11	2912	1548
125	0	0	2095	10	2913	1544
126	0	0	2119	10	2912	1541
127	0	0	2134	10	2908	1534
0	0	0	2150	11	2901	1530
1	0	0	2167	11	2897	1525
2	0	0	2174	11	2897	1522
3	0	0	2171	12	2901	1517
4	0	0	2128	7	2905	1512
5	0	0	2077	7	2909	1508
6	0	0	2027	7	2912	1504
7	0	0	1988	8	2913	1500
8	0	0	1971	8	2912	1496
9	0	0	1967	11	2908	1491
10	0	0	1929	7	2901	1487
11	0	0	1886	9	2898	1482
12	0	0	1886	10	2897	1479
13	0	0	1914	11	2902	1474
14	0	0	1972	10	2905	1469
15	0	0	2065	7	2909	1466
16	0	0	2140	11	2912	1461
17	0	0	2175	10	2912	1458
18	0	0	2181	10	2913	1453
19	0	0	2190	11	2909	1450
20	0	0	2213	11	2901	1446
21	0	0	2225	11	2898	1442
22	0	0	2197	7	2897	1439
23	0	0	2147	6	2901	1433
24	0	0	2096	7	2905	1430
25	0	0	2037	8	2908	1427
26	0	0	2000	7	2913	1423
27	0	0	1964	7	2914	1419
28	0	0	1900	7	2913	1414
29	0	0	1843	7	2909	1411
30	0	0	1811	7	2901	1408
31	0	0	1820	11	2898	1403
32	0	0	1872	11	2898	1399
33	0	0	1933	10	2901	1395
34	0	0	2005	11	2904	1392
35	0	0	2092	11	2909	1388
36	0	0	2153	10	2912	1385
37	0	0	2178	11	2912	1381
38	0	0	2184	10	2913	1377
39	0	0	2186	11	2908	1374
40	0	0	2206	11	2901	1370
41	0	0	2248	11	2897	1367
42	0	0	2255	10	2898	1363
43	0	0	2229	8	2901	1360
44	0	0	2190	7	2904	1356
45	0	0	2147	7	2909	1353
46	0	0	2081	7	2911	1349
47	0	0	2025	7	2912	1345
48	0	0	1991	8	2913	1341
49	0	0	1979	9	2908	1339
50	0	0	1934	7	2901	1334
51	0	0	1878	7	2898	1331
52	0	0	1891	11	2897	1329
53	0	0	1959	10	2900	1324
54	0	0	2041	11	2905	1321
55	0	0	2128	10	2909	1317
56	0	0	2191	11	2912	1315
57	0	0	2224	10	2912	1311
58	0	0	2247	10	2912	1309
59	0	0	2256	11	2908	1306
60	0	0	2270	11	2901	1301
61	0	0	2285	9	2899	1298
62	0	0	2261	7	2899	1295
63	0	0	2202	7	2901	1292
64	0	0	2138	7	2905	1288
65	0	0	2077	6	2909	1286
66	0	0	2031	8	2911	1283
67	0	0	2003	8	2913	1279
68	0	0	1977	7	2913	1275
69	0	0	1949	8	2908	1274
70	0	0	1911	7	2902	1270
71	0	0	1889	9	2898	1267
72	0	0	1906	10	2899	1263
73	0	0	1945	10	2902	1260
74	0	0	2002	11	2905	1257
75	0	0	2073	11	2908	1255
76	0	0	2124	11	2912	1252
77	0	0	2173	11	2913	1248
78	0	0	2217	11	2912	1244
79	0	0	2252	11	2909	1242
80	0	0	2278	10	2901	1239
81	0	0	2338	11	2897	1237
82	0	0	2388	11	2897	1233
83	0	0	2366	8	2901	1229
84	0	0	2246	6	2905	1227
85	0	0	2112	7	2908	1224
86	0	0	1994	7	2912	1222
87	0	0	1897	7	2913	1217
88	0	0	1839	6	2912	1214
89	0	0	1812	7	2909	1213
90	0	0	1786	7	2902	1210
91	0	0	1779	8	2898	1207
92	0	0	1814	10	2899	1205
93	0	0	1876	11	2901	1201
94	0	0	1960	10	2905	1198
95	0	0	2043	11	2908	1195
96	0	0	2121	10	2912	1194
97	0	0	2174	12	2913	1190
98	0	0	2205	10	2912	1186
99	0	0	2210	11	2909	1184
100	0	0	2197	10	2902	1182
101	0	0	2183	9	2898	1179
102	0	0	2187	11	2898	1177
103	0	0	2192	10	2901	1172
104	0	0	2158	10	2904	1171
105	0	0	2111	7	2908	1168
106	0	0	2059	7	2912	1166
107	0	0	2006	9	2913	1163
108	0	0	1967	7	2913	1161
109	0	0	1930	7	2909	1158
110	0	0	1886	6	2902	1156
111	0	0	1856	14	2897	1153
112	0	0	1874	10	2898	1150
113	0	0	1908	9	2901	1147
114	0	0	1943	11	2904	1144
115	0	0	1984	11	2909	1142
116	0	0	2029	11	2912	1140
117	0	0	2088	12	2913	1137
118	0	0	2141	11	2914	1134
119	0	0	2166	11	2909	1134
120	0	0	2190	11	2902	1132
121	0	0	2215	8	2899	1126
122	0	0	2191	8	2899	1125
123	0	0	2147	8	2901	1124
124	0	0	2105	8	2904	1120
125	0	0	2059	7	2908	1117
126	0	0	2009	5	2911	1115
127	0	0	1956	6	2914	1112
0	0	0	1918	8	2913	1110
1	0	0	1885	8	2909	1108
2	0	0	1851	6	2902	1105
3	0	0	1819	8	2899	1102
4	0	0	1835	12	2899	1100
5	0	0	1869	9	2901	1098
6	0	0	1907	10	2905	1095
7	0	0	1964	11	2908	1094
8	0	0	2031	10	2912	1090
9	0	0	2101	10	2914	1089
10	0	0	2153	11	2912	1087
11	0	0	2171	11	2909	1083
12	0	0	2183	11	2902	1081
13	0	0	2203	16	2897	1079
14	0	0	2201	12	2898	1076
15	0	0	2166	7	2901	1074
16	0	0	2117	8	2904	1072
17	0	0	2076	7	2908	1070
18	0	0	2039	7	2912	1067
19	0	0	1991	7	2914	1065
20	0	0	1942	7	2913	1063
21	0	0	1889	7	2909	1062
22	0	0	1827	6	2902	1059
23	0	0	1779	6	2899	1056
24	0	0	1793	12	2899	1054
25	0	0	1845	11	2902	1052
26	0	0	1914	11	2904	1049
27	0	0	1994	10	2908	1048
28	0	0	2057	8	2911	1045
29	0	0	2111	12	2914	1043
30	0	0	2163	11	2913	1043
31	0	0	2196	11	2909	1039
32	0	0	2199	11	2902	1037
33	0	0	2205	8	2899	1034
34	0	0	2182	8	2898	1033
35	0	0	2132	7	2901	1029
36	0	0	2084	7	2904	1028
37	0	0	2038	5	2909	1027
38	0	0	1984	7	2912	1024
39	0	0	1924	6	2914	1022
40	0	0	1888	9	2913	1019
41	0	0	1888	11	2910	1017
42	0	0	1858	8	2902	1015
43	0	0	1847	11	2898	1013
44	0	0	1871	11	2898	1011
45	0	0	1896	11	2901	1009
46	0	0	1927	11	2904	1007
47	0	0	1990	11	2908	1005
48	0	0	2045	11	2912	1003
49	0	0	2086	13	2913	1001
50	0	0	2120	10	2913	999
51	0	0	2146	11	2910	998
52	0	0	2173	10	2902	995
53	0	0	2204	11	2898	993
54	0	0	2199	8	2898	991
55	0	0	2147	6	2901	989
56	0	0	2076	9	2904	987
57	0	0	1994	7	2908	986
58	0	0	1910	7	2912	983
59	0	0	1845	9	2914	982
60	0	0	1817	8	2913	979
61	0	0	1819	11	2911	978
62	0	0	1805	8	2902	976
63	0	0	1787	11	2898	974
64	0	0	1800	9	2898	972
65	0	0	1852	10	2901	968
66	0	0	1934	11	2904	968
67	0	0	2042	11	2908	967
68	0	0	2123	11	2912	964
69	0	0	2176	11	2914	963
70	0	0	2232	11	2913	959
71	0	0	2288	11	2910	959
72	0	0	2348	11	2902	957
73	0	0	2409	11	2898	955
74	0	0	2434	12	2898	952
75	0	0	2426	11	2901	951
76	0	0	2409	12	2904	950
77	0	0	2380	8	2908	948
78	0	0	2357	10	2912	946
79	0	0	2333	10	2913	944
80	0	0	2322	10	2913	943
81	0	0	2326	12	2911	941
82	0	0	2344	11	2902	939
83	0	0	2359	11	2898	937
84	0	0	2403	12	2898	934
85	0	0	2465	12	2901	931
86	0	0	2525	12	2904	932
87	0	0	2613	11	2909	929
88	0	0	2678	16	2912	929
89	0	0	2712	9	2913	926
90	0	0	2726	11	2913	925
91	0	0	2717	11	2910	923
92	0	0	2675	8	2903	921
93	0	0	2630	8	2898	919
94	0	0	2585	7	2898	918
95	0	0	2555	9	2901	918
96	0	0	2532	12	2905	914
97	0	0	2548	11	2909	913
98	0	0	2591	11	2913	911
99	0	0	2568	3	2914	909
100	0	0	2499	7	2913	908
101	0	0	2426	7	2910	906
102	0	0	2343	7	2903	905
103	0	0	2259	7	2898	903
104	0	0	2216	8	2898	902
105	0	0	2186	7	2901	900
106	0	0	2153	8	2905	897
107	0	0	2153	10	2908	897
108	0	0	2179	11	2912	894
109	0	0	2187	9	2913	893
110	0	0	2159	8	2913	892
111	0	0	2152	10	2910	890
112	0	0	2162	11	2902	888
113	0	0	2176	10	2898	888
114	0	0	2150	5	2898	884
115	0	0	2108	6	2901	883
116	0	0	2058	7	2905	881
117	0	0	1995	6	2908	881
118	0	0	1948	8	2912	879
119	0	0	1930	5	2914	876
120	0	0	1908	6	2913	873
121	0	0	1887	7	2911	875
122	0	0	1851	7	2903	872
123	0	0	1820	9	2898	870
124	0	0	1827	7	2899	869
125	0	0	1861	11	2902	867
126	0	0	1920	10	2904	865
127	0	0	1988	11	2909	864
0	0	0	2031	7	2913	862
1	0	0	2056	7	2914	861
2	0	0	2068	10	2913	860
3	0	0	2080	10	2911	858
4	0	0	2088	11	2904	857
5	0	0	2073	8	2899	855
6	0	0	2023	8	2898	854
7	0	0	1964	6	2901	852
8	0	0	1914	7	2904	850
9	0	0	1878	8	2908	850
10	0	0	1872	12	2912	848
11	0	0	1867	7	2914	847
12	0	0	1835	8	2914	844
13	0	0	1795	7	2910	844
14	0	0	1764	8	2903	843
15	0	0	1770	10	2898	841
16	0	0	1829	10	2898	839
17	0	0	1876	11	2901	836
18	0	0	1931	12	2904	836
19	0	0	2009	11	2909	835
20	0	0	2064	11	2911	834
21	0	0	2097	7	2913	832
22	0	0	2108	10	2914	830
23	0	0	2111	11	2911	828
24	0	0	2115	11	2903	827
25	0	0	2133	11	2899	826
26	0	0	2129	7	2898	825
27	0	0	2098	8	2901	825
28	0	0	2067	8	2904	822
29	0	0	2027	8	2908	821
30	0	0	1994	7	2912	819
31	0	0	1957	7	2913	816
32	0	0	1923	8	2913	818
33	0	0	1904	8	2911	815
34	0	0	1877	7	2903	814
35	0	0	1840	8	2899	815
36	0	0	1839	7	2899	811
37	0	0	1844	11	2901	808
38	0	0	1873	11	2904	808
39	0	0	1946	11	2909	808
40	0	0	2023	11	2911	806
41	0	0	2082	7	2914	804
42	0	0	2121	10	2914	803
43	0	0	2132	13	2910	802
44	0	0	2121	12	2903	801
45	0	0	2105	9	2899	798
46	0	0	2095	11	2899	797
47	0	0	2084	12	2901	798
48	0	0	2065	8	2904	796
49	0	0	2008	7	2908	794
50	0	0	1937	7	2913	792
51	0	0	1883	4	2914	792
52	0	0	1851	9	2913	792
53	0	0	1821	7	2910	789
54	0	0	1793	7	2903	787
55	0	0	1782	10	2898	786
56	0	0	1812	9	2898	785
57	0	0	1856	11	2901	783
58	0	0	1897	10	2904	782
59	0	0	1956	12	2908	782
60	0	0	2014	11	2912	779
61	0	0	2068	10	2913	777
62	0	0	2115	10	2914	776
63	0	0	2143	11	2911	777
64	0	0	2162	10	2903	775
65	0	0	2183	11	2899	775
66	0	0	2166	7	2897	773
67	0	0	2132	8	2901	772
68	0	0	2100	8	2904	770
69	0	0	2071	8	2908	769
70	0	0	2045	7	2912	767
71	0	0	2005	7	2914	766
72	0	0	1980	8	2914	765
73	0	0	1957	8	2910	766
74	0	0	1908	8	2904	763
75	0	0	1845	7	2899	761
76	0	0	1844	11	2898	760
77	0	0	1878	10	2901	759
78	0	0	1890	11	2904	758
79	0	0	1905	11	2907	757
80	0	0	1928	11	2912	754
81	0	0	1954	10	2914	756
82	0	0	1998	11	2914	755
83	0	0	2053	11	2910	754
84	0	0	2109	10	2903	751
85	0	0	2186	11	2899	748
86	0	0	2202	5	2898	749
87	0	0	2142	5	2901	747
88	0	0	2070	7	2904	747
89	0	0	2004	8	2908	746
90	0	0	1950	8	2912	742
91	0	0	1915	9	2913	744
92	0	0	1892	7	2913	743
93	0	0	1867	7	2910	742
94	0	0	1835	7	2903	740
95	0	0	1805	8	2900	737
96	0	0	1807	9	2899	737
97	0	0	1832	10	2901	735
98	0	0	1866	10	2904	735
99	0	0	1929	9	2908	734
100	0	0	2017	11	2912	732
101	0	0	2098	8	2913	732
102	0	0	2164	11	2913	732
103	0	0	2176	3	2910	733
104	0	0	2163	10	2904	728
105	0	0	2152	8	2897	727
106	0	0	2126	7	2897	727
107	0	0	2084	8	2901	724
108	0	0	2049	8	2904	725
109	0	0	2024	8	2908	723
110	0	0	1999	7	2912	719
111	0	0	1967	7	2914	720
112	0	0	1947	8	2914	719
113	0	0	1927	8	2911	719
114	0	0	1895	7	2904	717
115	0	0	1853	7	2899	716
116	0	0	1861	9	2897	715
117	0	0	1877	10	2901	715
118	0	0	1911	11	2904	714
119	0	0	1978	11	2908	712
120	0	0	2045	10	2912	709
121	0	0	2094	8	2913	711
122	0	0	2122	11	2913	711
123	0	0	2138	11	2910	709
124	0	0	2157	10	2904	707
125	0	0	2178	10	2899	704
126	0	0	2174	8	2898	705
127	0	0	2147	8	2901	705
0	0	0	2107	7	2904	703
1	0	0	2056	7	2908	702
2	0	0	2022	8	2912	699
3	0	0	1994	8	2914	699
4	0	0	1968	7	2914	699
5	0	0	1937	8	2911	699
6	0	0	1898	6	2904	697
7	0	0	1852	7	2899	693
8	0	0	1857	8	2898	694
9	0	0	1886	10	2901	693
10	0	0	1927	11	2905	693
11	0	0	1997	10	2908	692
12	0	0	2073	11	2911	689
13	0	0	2133	12	2914	689
14	0	0	2188	10	2913	689
15	0	0	2222	11	2911	690
16	0	0	2240	10	2904	687
17	0	0	2256	11	2899	684
18	0	0	2229	8	2899	684
19	0	0	2178	8	2901	683
20	0	0	2133	7	2904	681
21	0	0	2073	6	2908	682
22	0	0	2005	6	2911	679
23	0	0	1950	8	2914	680
24	0	0	1903	7	2914	678
25	0	0	1886	9	2911	678
26	0	0	1881	8	2904	677
27	0	0	1879	11	2899	676
28	0	0	1922	10	2899	676
29	0	0	1968	11	2900	675
30	0	0	1994	10	2904	672
31	0	0	2040	11	2908	672
32	0	0	2100	11	2912	671
33	0	0	2184	9	2914	670
34	0	0	2270	11	2915	668
35	0	0	2332	11	2912	667
36	0	0	2342	11	2904	666
37	0	0	2295	7	2899	664
38	0	0	2218	9	2899	665
39	0	0	2142	4	2901	664
40	0	0	2086	7	2905	663
41	0	0	2032	8	2908	663
42	0	0	1984	7	2912	659
43	0	0	1943	7	2915	663
44	0	0	1905	7	2914	659
45	0	0	1913	11	2912	658
46	0	0	1926	7	2904	658
47	0	0	1904	8	2899	657
48	0	0	1917	12	2899	655
49	0	0	1979	11	2901	656
50	0	0	2054	11	2904	654
51	0	0	2137	10	2909	653
52	0	0	2232	10	2912	653
53	0	0	2261	12	2914	651
54	0	0	2259	10	2914	649
55	0	0	2235	8	2911	649
56	0	0	2204	9	2904	649
57	0	0	2199	11	2899	647
58	0	0	2187	9	2899	646
59	0	0	2164	7	2901	646
60	0	0	2148	9	2904	645
61	0	0	2123	7	2909	644
62	0	0	2082	4	2913	643
63	0	0	2022	7	2914	643
64	0	0	1962	6	2914	641
65	0	0	1910	7	2912	640
66	0	0	1875	7	2905	640
67	0	0	1861	10	2899	639
68	0	0	1891	9	2899	637
69	0	0	1950	9	2901	637
70	0	0	2011	11	2904	635
71	0	0	2092	10	2910	635
72	0	0	2173	12	2912	635
73	0	0	2219	10	2915	635
74	0	0	2235	11	2914	633
75	0	0	2238	11	2912	631
76	0	0	2235	12	2905	631
77	0	0	2241	11	2900	628
78	0	0	2226	9	2899	629
79	0	0	2193	7	2901	628
80	0	0	2158	8	2904	627
81	0	0	2113	8	2908	627
82	0	0	2053	8	2912	627
83	0	0	1991	10	2915	624
84	0	0	1946	6	2915	624
85	0	0	1921	8	2911	624
86	0	0	1892	8	2905	623
87	0	0	1841	8	2899	622
88	0	0	1833	10	2899	623
89	0	0	1861	9	2901	622
90	0	0	1904	10	2904	618
91	0	0	1978	10	2909	619
92	0	0	2071	8	2912	619
93	0	0	2132	15	2914	617
94	0	0	2165	11	2915	615
95	0	0	2176	11	2911	616
96	0	0	2160	9	2906	615
97	0	0	2173	11	2899	614
98	0	0	2172	15	2899	611
99	0	0	2158	9	2901	611
100	0	0	2145	10	2904	610
101	0	0	2107	8	2908	611
102	0	0	2041	7	2912	609
103	0	0	1967	6	2914	609
104	0	0	1908	7	2914	608
105	0	0	1869	8	2912	608
106	0	0	1857	8	2905	607
107	0	0	1852	10	2899	606
108	0	0	1870	9	2899	605
109	0	0	1889	9	2901	604
110	0	0	1920	9	2905	603
111	0	0	1973	10	2908	603
112	0	0	2023	11	2912	601
113	0	0	2062	10	2915	601
114	0	0	2098	10	2914	600
115	0	0	2140	11	2912	600
116	0	0	2178	11	2905	599
117	0	0	2194	10	2899	598
118	0	0	2161	11	2899	596
119	0	0	2117	5	2901	597
120	0	0	2063	9	2904	596
121	0	0	2002	5	2909	595
122	0	0	1951	7	2912	593
123	0	0	1903	9	2914	594
124	0	0	1855	7	2914	593
125	0	0	1837	9	2912	592
126	0	0	1826	7	2905	592
127	0	0	1790	7	2900	590
0	0	0	1786	11	2899	590
1	0	0	1805	9	2901	571
2	0	0	1827	10	2904	588
3	0	0	1912	9	2908	588
4	0	0	1996	10	2912	587
5	0	0	2046	11	2914	585
6	0	0	2078	9	2914	587
7	0	0	2102	11	2911	586
8	0	0	2097	11	2905	584
9	0	0	2107	10	2899	583
10	0	0	2086	8	2899	583
11	0	0	2040	9	2901	582
12	0	0	2004	7	2904	582
13	0	0	1970	6	2909	580
14	0	0	1927	3	2912	580
15	0	0	1876	7	2914	579
16	0	0	1827	6	2914	579
17	0	0	1799	8	2911	575
18	0	0	1798	9	2905	577
19	0	0	1781	9	2899	576
20	0	0	1795	11	2899	575
21	0	0	1829	11	2901	573
22	0	0	1862	10	2904	572
23	0	0	1914	11	2907	576
24	0	0	1987	7	2912	572
25	0	0	2050	11	2914	572
26	0	0	2084	10	2914	570
27	0	0	2098	10	2912	569
28	0	0	2098	10	2905	570
29	0	0	2097	11	2900	568
30	0	0	2079	6	2899	567
31	0	0	2042	8	2901	567
32	0	0	2005	8	2904	567
33	0	0	1958	8	2908	564
34	0	0	1917	8	2912	568
35	0	0	1879	7	2914	566
36	0	0	1828	7	2914	563
37	0	0	1801	9	2912	562
38	0	0	1808	10	2905	563
39	0	0	1804	7	2899	562
40	0	0	1826	11	2899	562
41	0	0	1868	13	2901	560
42	0	0	1879	11	2905	559
43	0	0	1907	10	2908	559
44	0	0	1981	10	2912	558
45	0	0	2043	11	2914	557
46	0	0	2074	8	2914	557
47	0	0	2070	9	2911	558
48	0	0	2049	9	2905	556
49	0	0	2054	7	2899	555
50	0	0	2053	12	2899	555
51	0	0	2048	11	2901	555
52	0	0	2061	11	2904	551
53	0	0	2063	9	2908	553
54	0	0	2033	6	2911	553
55	0	0	1998	5	2914	553
56	0	0	1962	8	2915	551
57	0	0	1901	7	2912	551
58	0	0	1837	7	2907	550
59	0	0	1774	7	2899	548
60	0	0	1763	12	2899	548
61	0	0	1782	10	2901	547
62	0	0	1809	11	2905	543
63	0	0	1878	13	2909	544
64	0	0	1959	11	2912	544
65	0	0	2019	8	2914	546
66	0	0	2057	11	2914	544
67	0	0	2092	11	2912	543
68	0	0	2115	11	2905	543
69	0	0	2134	12	2900	544
70	0	0	2121	6	2899	543
71	0	0	2083	10	2901	541
72	0	0	2056	9	2904	539
73	0	0	2019	7	2908	542
74	0	0	1971	7	2912	539
75	0	0	1921	7	2915	538
76	0	0	1880	6	2915	538
77	0	0	1853	8	2913	537
78	0	0	1835	7	2906	537
79	0	0	1801	8	2900	537
80	0	0	1780	11	2898	535
81	0	0	1798	10	2901	535
82	0	0	1843	11	2904	531
83	0	0	1902	11	2908	533
84	0	0	1975	11	2912	533
85	0	0	2051	12	2914	532
86	0	0	2114	12	2914	531
87	0	0	2137	16	2911	527
88	0	0	2143	11	2906	531
89	0	0	2148	9	2900	530
90	0	0	2132	8	2899	530
91	0	0	2099	8	2901	529
92	0	0	2065	7	2903	528
93	0	0	2028	8	2907	527
94	0	0	2001	7	2912	527
95	0	0	1969	4	2914	527
96	0	0	1936	6	2914	526
97	0	0	1906	7	2912	523
98	0	0	1868	7	2906	525
99	0	0	1817	5	2900	524
100	0	0	1818	8	2899	523
101	0	0	1857	10	2901	522
102	0	0	1913	13	2903	517
103	0	0	1959	10	2907	521
104	0	0	1974	11	2912	521
105	0	0	1978	12	2914	520
106	0	0	1998	10	2915	519
107	0	0	2013	10	2912	516
108	0	0	2030	11	2906	518
109	0	0	2065	12	2900	518
110	0	0	2076	12	2899	518
111	0	0	2048	7	2901	517
112	0	0	2001	7	2904	515
113	0	0	1949	8	2909	516
114	0	0	1911	6	2912	516
115	0	0	1888	8	2914	515
116	0	0	1892	11	2915	513
117	0	0	1894	11	2912	512
118	0	0	1880	6	2907	513
119	0	0	1825	8	2900	510
120	0	0	1810	9	2899	512
121	0	0	1857	10	2901	512
122	0	0	1928	10	2904	508
123	0	0	2021	8	2909	512
124	0	0	2098	10	2912	511
125	0	0	2134	8	2914	508
126	0	0	2117	6	2915	507
127	0	0	2085	9	2912	504
0	0	0	2088	11	2906	506
1	0	0	2127	10	2900	505
2	0	0	2155	11	2899	504
3	0	0	2147	9	2900	504
4	0	0	2114	8	2904	504
5	0	0	2058	8	2908	503
6	0	0	2006	10	2912	502
7	0	0	1960	7	2914	501
8	0	0	1930	7	2915	502
9	0	0	1896	7	2912	502
10	0	0	1861	7	2906	500
11	0	0	1806	7	2900	502
12	0	0	1789	12	2899	498
13	0	0	1805	9	2901	498
14	0	0	1856	11	2904	496
15	0	0	1939	10	2908	495
16	0	0	2003	8	2912	497
17	0	0	2054	12	2914	496
18	0	0	2096	11	2914	496
19	0	0	2127	10	2912	495
20	0	0	2145	11	2906	495
21	0	0	2178	11	2900	494
22	0	0	2185	8	2899	493
23	0	0	2144	3	2900	494
24	0	0	2092	7	2904	492
25	0	0	2035	8	2908	493
26	0	0	1978	5	2912	491
27	0	0	1934	7	2913	490
28	0	0	1901	6	2915	491
29	0	0	1872	8	2912	491
30	0	0	1847	7	2906	490
31	0	0	1806	7	2900	490
32	0	0	1808	10	2898	489
33	0	0	1842	10	2901	487
34	0	0	1881	10	2904	486
35	0	0	1950	10	2908	488
36	0	0	2023	10	2911	487
37	0	0	2065	14	2913	485
38	0	0	2084	9	2914	486
39	0	0	2103	12	2913	485
40	0	0	2111	11	2906	485
41	0	0	2140	10	2900	483
42	0	0	2154	10	2899	484
43	0	0	2137	9	2901	483
44	0	0	2100	7	2904	480
45	0	0	2034	9	2908	483
46	0	0	1970	8	2912	482
47	0	0	1910	7	2913	481
48	0	0	1867	6	2915	480
49	0	0	1831	7	2912	480
50	0	0	1801	6	2907	481
51	0	0	1773	7	2901	479
52	0	0	1802	14	2899	478
53	0	0	1868	13	2901	478
54	0	0	1908	10	2904	479
55	0	0	1961	11	2907	478
56	0	0	2018	11	2912	476
57	0	0	2072	10	2915	475
58	0	0	2093	10	2915	476
59	0	0	2059	8	2912	475
60	0	0	2054	9	2907	475
61	0	0	2107	8	2900	474
62	0	0	2145	10	2899	474
63	0	0	2125	8	2901	473
64	0	0	2097	8	2904	473
65	0	0	2058	6	2908	473
66	0	0	1981	7	2912	473
67	0	0	1901	7	2914	472
68	0	0	1846	9	2915	471
69	0	0	1818	8	2912	470
70	0	0	1820	8	2907	470
71	0	0	1805	7	2900	470
72	0	0	1805	15	2899	469
73	0	0	1834	13	2901	469
74	0	0	1882	10	2904	468
75	0	0	1952	9	2908	467
76	0	0	2014	11	2912	468
77	0	0	2063	11	2914	466
78	0	0	2096	13	2915	466
79	0	0	2120	11	2913	464
80	0	0	2130	11	2907	465
81	0	0	2150	11	2900	464
82	0	0	2160	11	2898	464
83	0	0	2132	9	2900	464
84	0	0	2081	7	2903	463
85	0	0	2015	6	2908	463
86	0	0	1958	8	2912	463
87	0	0	1944	10	2915	463
88	0	0	1931	11	2915	461
89	0	0	1892	7	2912	461
90	0	0	1838	4	2907	460
91	0	0	1787	7	2901	458
92	0	0	1777	11	2899	459
93	0	0	1822	11	2901	458
94	0	0	1875	10	2904	458
95	0	0	1935	7	2909	458
96	0	0	1995	13	2912	456
97	0	0	2056	10	2915	459
98	0	0	2113	13	2915	456
99	0	0	2156	11	2911	456
100	0	0	2186	11	2907	456
101	0	0	2193	11	2900	452
102	0	0	2174	8	2899	456
103	0	0	2137	8	2900	454
104	0	0	2103	9	2903	454
105	0	0	2061	4	2907	453
106	0	0	2012	8	2912	452
107	0	0	1970	8	2915	455
108	0	0	1942	10	2914	452
109	0	0	1906	7	2912	452
110	0	0	1871	6	2907	452
111	0	0	1836	7	2901	448
112	0	0	1823	10	2899	451
113	0	0	1847	10	2901	450
114	0	0	1886	10	2904	449
115	0	0	1956	10	2908	449
116	0	0	2035	11	2911	450
117	0	0	2087	12	2914	448
118	0	0	2126	9	2915	447
119	0	0	2166	11	2912	448
120	0	0	2183	11	2906	447
121	0	0	2205	12	2900	447
122	0	0	2198	12	2899	446
123	0	0	2165	9	2900	445
124	0	0	2126	8	2903	445
125	0	0	2069	6	2907	445
126	0	0	2017	7	2912	445
127	0	0	1968	6	2914	443
0	0	0	1913	7	2914	441
1	0	0	1877	8	2912	443
2	0	0	1876	11	2907	442
3	0	0	1861	10	2900	443
4	0	0	1857	12	2899	441
5	0	0	1878	11	2900	441
6	0	0	1880	10	2903	440
7	0	0	1885	10	2907	441
8	0	0	1936	12	2911	439
9	0	0	1995	13	2913	438
10	0	0	2064	10	2914	438
11	0	0	2143	10	2912	438
12	0	0	2193	8	2907	438
13	0	0	2222	11	2900	437
14	0	0	2203	9	2899	436
15	0	0	2165	8	2901	437
16	0	0	2128	8	2903	437
17	0	0	2082	6	2908	436
18	0	0	2032	7	2911	436
19	0	0	1982	7	2914	435
20	0	0	1944	8	2914	434
21	0	0	1925	8	2913	434
22	0	0	1902	8	2907	434
23	0	0	1847	6	2900	434
24	0	0	1813	8	2899	433
25	0	0	1835	8	2901	432
26	0	0	1909	10	2903	433
27	0	0	2037	11	2907	432
28	0	0	2169	11	2911	432
29	0	0	2252	12	2914	431
30	0	0	2274	10	2914	430
31	0	0	2281	2	2912	430
32	0	0	2287	11	2907	430
33	0	0	2292	10	2900	430
34	0	0	2251	7	2899	427
35	0	0	2183	8	2900	428
36	0	0	2126	9	2903	428
37	0	0	2076	7	2907	430
38	0	0	2031	8	2911	428
39	0	0	1993	8	2914	427
40	0	0	1971	8	2914	426
41	0	0	1945	7	2912	427
42	0	0	1904	7	2907	426
43	0	0	1856	7	2900	425
44	0	0	1853	11	2898	423
45	0	0	1892	8	2900	425
46	0	0	1946	16	2903	424
47	0	0	1996	10	2907	424
48	0	0	2053	9	2911	424
49	0	0	2105	10	2914	423
50	0	0	2169	11	2915	422
51	0	0	2214	11	2912	423
52	0	0	2226	10	2908	422
53	0	0	2236	9	2901	419
54	0	0	2232	11	2899	421
55	0	0	2214	9	2901	420
56	0	0	2178	7	2903	420
57	0	0	2118	6	2908	420
58	0	0	2065	6	2912	422
59	0	0	2020	7	2914	419
60	0	0	1998	8	2914	419
61	0	0	1982	8	2912	418
62	0	0	1955	7	2907	418
63	0	0	1905	6	2900	418
64	0	0	1886	9	2898	416
65	0	0	1894	12	2900	416
66	0	0	1931	10	2904	415
67	0	0	2003	11	2907	416
68	0	0	2077	11	2911	416
69	0	0	2120	11	2914	414
70	0	0	2145	15	2913	415
71	0	0	2164	10	2912	415
72	0	0	2184	8	2907	414
73	0	0	2205	8	2900	413
74	0	0	2198	10	2899	413
75	0	0	2168	9	2900	413
76	0	0	2141	8	2903	413
77	0	0	2106	8	2907	412
78	0	0	2065	6	2912	412
79	0	0	2007	6	2914	412
80	0	0	1942	8	2914	411
81	0	0	1895	7	2912	408
82	0	0	1860	7	2907	411
83	0	0	1816	6	2901	411
84	0	0	1821	10	2899	410
85	0	0	1860	10	2900	412
86	0	0	1896	10	2902	408
87	0	0	1942	10	2907	408
88	0	0	2001	9	2911	412
89	0	0	2050	10	2914	408
90	0	0	2093	12	2914	406
91	0	0	2132	11	2912	407
92	0	0	2153	11	2907	407
93	0	0	2178	10	2900	405
94	0	0	2186	9	2897	404
95	0	0	2158	7	2899	405
96	0	0	2110	7	2903	405
97	0	0	2048	7	2906	405
98	0	0	1998	7	2910	405
99	0	0	1961	9	2913	404
100	0	0	1940	8	2913	404
101	0	0	1921	8	2911	405
102	0	0	1919	9	2908	403
103	0	0	1889	7	2900	400
104	0	0	1876	9	2898	402
105	0	0	1889	7	2899	401
106	0	0	1925	10	2902	403
107	0	0	1982	10	2907	403
108	0	0	2016	11	2910	401
109	0	0	2041	10	2911	400
110	0	0	2068	12	2913	399
111	0	0	2084	11	2911	400
112	0	0	2089	11	2906	400
113	0	0	2096	11	2899	398
114	0	0	2123	10	2898	399
115	0	0	2138	10	2899	397
116	0	0	2146	11	2902	398
117	0	0	2139	10	2907	398
118	0	0	2121	8	2910	400
119	0	0	2067	7	2911	398
120	0	0	1985	7	2912	397
121	0	0	1903	7	2911	399
122	0	0	1847	7	2906	398
123	0	0	1815	7	2899	394
124	0	0	1823	10	2896	392
125	0	0	1854	9	2899	395
126	0	0	1906	11	2901	394
127	0	0	1973	11	2905	396
0	0	0	2039	11	2908	394
1	0	0	2078	11	2911	394
2	0	0	2091	7	2912	393
3	0	0	2122	10	2911	393
4	0	0	2157	12	2905	393
5	0	0	2200	11	2899	392
6	0	0	2206	14	2897	391
7	0	0	2176	1	2899	391
8	0	0	2158	10	2901	391
9	0	0	2123	7	2904	391
10	0	0	2078	8	2909	392
11	0	0	2052	8	2911	391
12	0	0	2026	3	2912	390
13	0	0	1972	3	2910	391
14	0	0	1917	7	2905	390
15	0	0	1863	7	2898	388
16	0	0	1848	11	2896	389
17	0	0	1857	10	2898	387
18	0	0	1859	11	2900	387
19	0	0	1883	11	2904	388
20	0	0	1945	10	2908	386
21	0	0	2038	11	2910	388
22	0	0	2134	9	2912	386
23	0	0	2182	10	2909	386
24	0	0	2202	7	2905	386
25	0	0	2232	11	2898	385
26	0	0	2227	9	2896	385
27	0	0	2195	7	2897	385
28	0	0	2188	11	2900	384
29	0	0	2176	9	2903	385
30	0	0	2151	8	2907	383
31	0	0	2119	7	2910	384
32	0	0	2096	8	2911	384
33	0	0	2091	11	2909	383
34	0	0	2091	12	2904	383
35	0	0	2080	12	2897	381
36	0	0	2095	12	2895	383
37	0	0	2147	9	2896	381
38	0	0	2208	12	2899	381
39	0	0	2280	11	2903	384
40	0	0	2375	13	2907	380
41	0	0	2458	11	2910	381
42	0	0	2525	8	2910	380
43	0	0	2581	11	2909	380
44	0	0	2622	11	2904	378
45	0	0	2668	12	2898	382
46	0	0	2695	11	2895	379
47	0	0	2676	9	2897	377
48	0	0	2633	8	2899	378
49	0	0	2597	9	2903	378
50	0	0	2564	7	2906	378
51	0	0	2524	7	2909	378
52	0	0	2474	6	2910	377
53	0	0	2437	8	2908	377
54	0	0	2403	7	2904	377
55	0	0	2326	8	2897	375
56	0	0	2270	8	2895	377
57	0	0	2264	5	2896	375
58	0	0	2296	12	2899	375
59	0	0	2354	11	2902	374
60	0	0	2425	10	2906	375
61	0	0	2471	12	2909	374
62	0	0	2486	8	2910	374
63	0	0	2468	7	2908	373
64	0	0	2398	8	2903	373
65	0	0	2351	8	2896	372
66	0	0	2309	8	2893	373
67	0	0	2257	4	2895	372
68	0	0	2204	7	2898	371
69	0	0	2142	7	2901	371
70	0	0	2055	8	2905	371
71	0	0	1951	7	2907	371
72	0	0	1868	5	2909	371
73	0	0	1800	7	2907	371
74	0	0	1773	7	2904	370
75	0	0	1745	8	2896	367
76	0	0	1751	11	2894	370
77	0	0	1788	8	2895	369
78	0	0	1813	8	2896	369
79	0	0	1836	10	2903	368
80	0	0	1884	10	2906	371
81	0	0	1952	11	2907	368
82	0	0	2032	10	2909	367
83	0	0	2104	11	2907	368
84	0	0	2142	11	2902	367
85	0	0	2179	12	2895	364
86	0	0	2196	11	2894	367
87	0	0	2146	6	2895	368
88	0	0	2070	7	2898	365
89	0	0	2009	7	2901	365
90	0	0	1970	8	2904	365
91	0	0	1926	7	2907	366
92	0	0	1871	6	2908	365
93	0	0	1839	8	2906	365
94	0	0	1855	10	2903	364
95	0	0	1842	7	2896	362
96	0	0	1829	8	2892	364
97	0	0	1833	10	2894	363
98	0	0	1858	11	2896	362
99	0	0	1914	11	2900	361
100	0	0	1988	12	2903	362
101	0	0	2053	9	2907	363
102	0	0	2101	10	2907	364
103	0	0	2137	6	2905	362
104	0	0	2157	11	2901	361
105	0	0	2168	12	2894	361
106	0	0	2154	8	2892	361
107	0	0	2107	8	2894	360
108	0	0	2045	6	2896	360
109	0	0	1993	7	2900	362
110	0	0	1956	8	2903	360
111	0	0	1937	8	2907	360
112	0	0	1921	10	2908	359
113	0	0	1898	7	2905	359
114	0	0	1871	7	2901	358
115	0	0	1820	8	2894	358
116	0	0	1797	9	2892	358
117	0	0	1816	10	2894	358
118	0	0	1863	16	2896	357
119	0	0	1924	11	2899	356
120	0	0	1982	10	2903	357
121	0	0	2016	10	2906	357
122	0	0	2044	11	2907	355
123	0	0	2077	11	2905	355
124	0	0	2105	9	2902	354
125	0	0	2141	8	2895	359
126	0	0	2153	11	2892	354
127	0	0	2140	8	2893	355
0	0	0	2104	7	2896	353
1	0	0	2063	9	2900	355
2	0	0	2018	8	2903	354
3	0	0	1976	7	2906	353
4	0	0	1921	6	2907	353
5	0	0	1865	6	2905	355
6	0	0	1834	6	2901	352
7	0	0	1804	9	2894	350
8	0	0	1791	10	2892	352
9	0	0	1809	10	2893	351
10	0	0	1840	11	2895	351
11	0	0	1887	9	2900	351
12	0	0	1954	10	2902	350
13	0	0	2023	11	2905	350
14	0	0	2071	10	2906	350
15	0	0	2107	11	2904	352
16	0	0	2141	10	2900	349
17	0	0	2165	12	2894	348
18	0	0	2158	8	2892	350
19	0	0	2112	8	2892	349
20	0	0	2072	9	2895	349
21	0	0	2035	6	2899	349
22	0	0	2000	9	2902	351
23	0	0	1987	8	2905	349
24	0	0	1960	7	2906	348
25	0	0	1911	8	2904	348
26	0	0	1859	6	2900	348
27	0	0	1812	8	2894	351
28	0	0	1786	8	2892	347
29	0	0	1807	10	2892	346
30	0	0	1851	12	2895	346
31	0	0	1905	10	2899	345
32	0	0	1979	11	2903	345
33	0	0	2051	10	2905	344
34	0	0	2103	10	2905	346
35	0	0	2146	10	2904	344
36	0	0	2171	7	2899	344
37	0	0	2196	15	2893	344
38	0	0	2201	10	2891	343
39	0	0	2162	8	2891	344
40	0	0	2118	8	2894	344
41	0	0	2070	7	2898	343
42	0	0	2019	7	2902	341
43	0	0	1971	8	2904	342
44	0	0	1966	11	2905	342
45	0	0	1944	8	2904	342
46	0	0	1913	10	2900	341
47	0	0	1872	7	2893	342
48	0	0	1849	8	2891	341
49	0	0	1864	11	2891	341
50	0	0	1884	11	2894	341
51	0	0	1930	10	2898	341
52	0	0	2013	11	2901	343
53	0	0	2089	10	2904	338
54	0	0	2130	12	2905	339
55	0	0	2146	11	2903	339
56	0	0	2146	12	2898	338
57	0	0	2135	11	2893	339
58	0	0	2121	10	2892	339
59	0	0	2101	9	2891	337
60	0	0	2088	10	2893	339
61	0	0	2069	9	2897	337
62	0	0	2036	7	2902	338
63	0	0	1996	8	2904	335
64	0	0	1939	7	2905	337
65	0	0	1894	8	2903	337
66	0	0	1895	11	2898	339
67	0	0	1856	7	2892	336
68	0	0	1845	9	2891	335
69	0	0	1882	11	2890	335
70	0	0	1932	11	2893	336
71	0	0	1982	12	2897	333
72	0	0	2046	11	2900	335
73	0	0	2109	10	2904	335
74	0	0	2143	11	2904	335
75	0	0	2166	11	2903	334
76	0	0	2179	13	2898	334
77	0	0	2211	11	2892	334
78	0	0	2233	11	2889	332
79	0	0	2220	8	2891	333
80	0	0	2183	9	2893	334
81	0	0	2141	8	2896	334
82	0	0	2096	11	2900	332
83	0	0	2073	8	2903	333
84	0	0	2051	8	2904	332
85	0	0	2023	8	2903	332
86	0	0	1988	8	2899	331
87	0	0	1926	7	2892	332
88	0	0	1891	9	2889	332
89	0	0	1900	11	2890	331
90	0	0	1922	9	2892	331
91	0	0	1940	10	2896	328
92	0	0	1983	11	2900	330
93	0	0	2049	10	2902	330
94	0	0	2087	11	2904	330
95	0	0	2112	10	2903	329
96	0	0	2126	7	2898	329
97	0	0	2159	11	2892	329
98	0	0	2188	11	2889	327
99	0	0	2198	11	2890	328
100	0	0	2179	7	2892	329
101	0	0	2129	9	2895	328
102	0	0	2080	7	2900	327
103	0	0	2038	8	2902	326
104	0	0	2018	9	2903	328
105	0	0	2004	7	2902	327
106	0	0	1985	8	2898	325
107	0	0	1946	6	2892	327
108	0	0	1910	10	2889	325
109	0	0	1941	11	2890	325
110	0	0	1995	11	2892	326
111	0	0	2066	10	2896	325
112	0	0	2139	10	2899	325
113	0	0	2197	10	2903	324
114	0	0	2237	11	2904	325
115	0	0	2251	11	2903	324
116	0	0	2248	11	2898	324
117	0	0	2266	11	2892	325
118	0	0	2289	10	2889	323
119	0	0	2263	8	2890	323
120	0	0	2219	8	2892	324
121	0	0	2198	8	2896	323
122	0	0	2180	8	2900	324
123	0	0	2147	7	2902	321
124	0	0	2106	7	2904	323
125	0	0	2071	8	2902	321
126	0	0	2044	5	2898	322
127	0	0	1998	7	2891	322
0	0	0	1976	10	2889	319
1	0	0	1997	10	2890	321
2	0	0	2039	10	2892	321
3	0	0	2087	11	2895	322
4	0	0	2138	8	2900	320
5	0	0	2182	11	2902	318
6	0	0	2219	11	2904	320
7	0	0	2251	12	2902	321
8	0	0	2274	11	2898	320
9	0	0	2301	9	2892	320
10	0	0	2310	11	2888	318
11	0	0	2280	7	2889	319
12	0	0	2229	7	2891	319
13	0	0	2182	8	2896	318
14	0	0	2160	9	2899	318
15	0	0	2149	9	2902	317
16	0	0	2117	8	2903	318
17	0	0	2073	10	2902	318
18	0	0	2020	8	2897	317
19	0	0	1954	5	2892	317
20	0	0	1924	10	2889	316
21	0	0	1964	8	2890	317
22	0	0	2017	11	2892	316
23	0	0	2074	12	2895	317
24	0	0	2138	8	2899	316
25	0	0	2185	10	2902	315
26	0	0	2228	9	2903	315
27	0	0	2263	11	2901	316
28	0	0	2279	11	2898	314
29	0	0	2273	11	2891	315
30	0	0	2260	11	2888	314
31	0	0	2223	8	2890	315
32	0	0	2186	7	2891	314
33	0	0	2151	9	2894	314
34	0	0	2113	8	2899	314
35	0	0	2094	10	2902	313
36	0	0	2086	7	2903	314
37	0	0	2059	7	2901	314
38	0	0	2010	8	2898	314
39	0	0	1975	5	2891	312
40	0	0	1968	11	2888	314
41	0	0	1991	11	2889	311
42	0	0	2028	11	2891	312
43	0	0	2081	11	2895	312
44	0	0	2138	10	2899	312
45	0	0	2169	11	2901	312
46	0	0	2192	11	2904	313
47	0	0	2233	11	2901	312
48	0	0	2247	11	2898	310
49	0	0	2244	8	2891	310
50	0	0	2216	7	2888	311
51	0	0	2181	9	2889	310
52	0	0	2155	8	2891	311
53	0	0	2119	8	2895	310
54	0	0	2066	8	2898	310
55	0	0	1997	7	2900	311
56	0	0	1933	10	2903	310
57	0	0	1884	7	2901	309
58	0	0	1847	8	2897	309
59	0	0	1809	8	2891	308
60	0	0	1803	10	2888	310
61	0	0	1851	11	2888	308
62	0	0	1926	13	2890	308
63	0	0	2001	10	2895	307
64	0	0	2070	10	2899	306
65	0	0	2129	10	2902	306
66	0	0	2166	11	2903	307
67	0	0	2180	11	2901	307
68	0	0	2174	11	2898	306
69	0	0	2165	11	2892	306
70	0	0	2162	9	2888	306
71	0	0	2139	8	2889	305
72	0	0	2119	9	2891	306
73	0	0	2100	8	2896	305
74	0	0	2079	7	2899	303
75	0	0	2048	7	2902	303
76	0	0	2008	7	2902	304
77	0	0	1976	8	2901	305
78	0	0	1956	7	2898	304
79	0	0	1918	7	2892	304
80	0	0	1890	8	2888	303
81	0	0	1901	10	2888	303
82	0	0	1924	11	2891	303
83	0	0	1962	10	2895	303
84	0	0	2027	11	2897	303
85	0	0	2087	11	2901	301
86	0	0	2128	11	2902	303
87	0	0	2163	11	2901	303
88	0	0	2193	11	2898	302
89	0	0	2214	11	2890	303
90	0	0	2229	11	2888	301
91	0	0	2205	6	2889	301
92	0	0	2163	8	2891	301
93	0	0	2123	7	2895	301
94	0	0	2088	7	2899	301
95	0	0	2041	7	2901	299
96	0	0	1997	7	2901	301
97	0	0	1952	7	2901	301
98	0	0	1910	8	2897	301
99	0	0	1847	7	2891	300
100	0	0	1802	9	2888	301
101	0	0	1803	10	2888	299
102	0	0	1826	10	2891	300
103	0	0	1867	11	2894	300
104	0	0	1930	10	2897	300
105	0	0	1987	11	2901	298
106	0	0	2031	10	2902	298
107	0	0	2077	10	2901	298
108	0	0	2112	11	2897	298
109	0	0	2150	11	2891	298
110	0	0	2190	11	2887	297
111	0	0	2173	8	2887	295
112	0	0	2122	7	2890	296
113	0	0	2069	7	2894	298
114	0	0	2037	8	2897	299
115	0	0	2006	7	2901	296
116	0	0	1978	7	2902	297
117	0	0	1948	7	2901	298
118	0	0	1912	7	2898	297
119	0	0	1867	7	2890	297
120	0	0	1829	8	2887	295
121	0	0	1834	10	2887	295
122	0	0	1870	10	2891	295
123	0	0	1931	10	2894	296
124	0	0	2004	11	2896	297
125	0	0	2051	10	2900	294
126	0	0	2061	10	2902	295
127	0	0	2079	11	2900	295
0	0	0	2116	11	2898	294
1	0	0	2162	11	2891	295
2	0	0	2194	11	2887	292
3	0	0	2173	8	2887	293
4	0	0	2132	7	2890	294
5	0	0	2100	8	2893	294
6	0	0	2057	8	2897	293
7	0	0	2026	7	2901	293
8	0	0	1990	7	2901	293
9	0	0	1930	7	2901	292
10	0	0	1875	11	2897	293
11	0	0	1839	8	2891	293
12	0	0	1824	9	2888	292
13	0	0	1833	11	2887	291
14	0	0	1862	12	2890	292
15	0	0	1904	8	2894	292
16	0	0	1970	9	2897	289
17	0	0	2022	10	2900	291
18	0	0	2058	9	2901	290
19	0	0	2084	10	2900	291
20	0	0	2112	10	2897	291
21	0	0	2138	11	2890	291
22	0	0	2152	10	2887	288
23	0	0	2126	7	2887	289
24	0	0	2092	8	2890	289
25	0	0	2067	5	2894	290
26	0	0	2036	8	2897	290
27	0	0	1987	7	2900	288
28	0	0	1944	7	2900	289
29	0	0	1919	8	2900	289
30	0	0	1910	8	2897	289
31	0	0	1874	7	2891	288
32	0	0	1845	8	2887	290
33	0	0	1861	11	2887	287
34	0	0	1904	10	2889	289
35	0	0	1960	10	2893	288
36	0	0	2023	11	2896	288
37	0	0	2061	9	2899	286
38	0	0	2081	12	2901	287
39	0	0	2098	11	2900	287
40	0	0	2116	10	2896	287
41	0	0	2134	11	2890	287
42	0	0	2159	11	2887	286
43	0	0	2164	7	2887	286
44	0	0	2153	10	2890	286
45	0	0	2123	10	2893	287
46	0	0	2074	8	2896	286
47	0	0	2018	7	2899	285
48	0	0	1965	7	2901	285
49	0	0	1927	8	2899	285
50	0	0	1903	8	2897	285
51	0	0	1868	7	2891	285
52	0	0	1847	10	2887	288
53	0	0	1876	10	2887	284
54	0	0	1922	10	2889	285
55	0	0	1976	10	2892	286
56	0	0	2035	12	2896	284
57	0	0	2079	10	2899	282
58	0	0	2114	10	2900	283
59	0	0	2155	11	2899	283
60	0	0	2190	10	2896	283
61	0	0	2218	11	2889	283
62	0	0	2222	10	2886	281
63	0	0	2158	7	2886	285
64	0	0	2056	7	2888	282
65	0	0	1970	6	2892	283
66	0	0	1909	9	2896	282
67	0	0	1874	8	2899	282
68	0	0	1889	11	2899	281
69	0	0	1937	11	2900	281
70	0	0	1985	10	2896	282
71	0	0	1997	9	2890	282
72	0	0	1939	7	2886	284
73	0	0	1894	9	2886	281
74	0	0	1906	10	2888	281
75	0	0	1946	8	2892	280
76	0	0	2015	13	2896	281
77	0	0	2088	10	2898	280
78	0	0	2139	10	2899	279
79	0	0	2166	11	2898	281
80	0	0	2162	10	2895	280
81	0	0	2156	12	2889	280
82	0	0	2140	8	2886	279
83	0	0	2100	8	2885	280
84	0	0	2067	9	2888	279
85	0	0	2049	8	2892	279
86	0	0	2032	9	2895	279
87	0	0	2014	9	2898	282
88	0	0	1999	10	2899	278
89	0	0	1992	10	2899	279
90	0	0	1975	9	2895	279
91	0	0	1944	10	2889	279
92	0	0	1917	8	2886	278
93	0	0	1906	8	2885	278
94	0	0	1891	10	2888	277
95	0	0	1898	10	2891	278
96	0	0	1949	11	2894	279
97	0	0	2012	11	2898	278
98	0	0	2076	10	2898	276
99	0	0	2124	11	2899	276
100	0	0	2155	10	2896	277
101	0	0	2168	13	2889	277
102	0	0	2173	12	2885	278
103	0	0	2149	8	2886	274
104	0	0	2115	7	2887	276
105	0	0	2096	9	2891	275
106	0	0	2064	9	2895	277
107	0	0	2013	7	2898	277
108	0	0	1962	7	2898	275
109	0	0	1940	8	2898	278
110	0	0	1936	8	2895	275
111	0	0	1904	8	2889	274
112	0	0	1876	8	2885	275
113	0	0	1894	10	2885	273
114	0	0	1931	10	2887	274
115	0	0	1967	10	2890	274
116	0	0	2024	11	2894	272
117	0	0	2087	11	2897	271
118	0	0	2154	14	2897	272
119	0	0	2194	11	2895	274
120	0	0	2196	10	2894	273
121	0	0	2192	12	2888	272
122	0	0	2196	10	2885	271
123	0	0	2151	8	2884	272
124	0	0	2093	7	2886	272
125	0	0	2046	8	2890	273
126	0	0	2008	8	2894	272
127	0	0	1981	9	2897	273
0	0	0	1944	8	2898	272
1	0	0	1881	7	2897	273
2	0	0	1841	7	2894	272
3	0	0	1820	8	2888	272
4	0	0	1826	11	2884	271
5	0	0	1877	10	2884	270
6	0	0	1949	11	2885	271
7	0	0	2008	11	2890	272
8	0	0	2063	9	2894	270
9	0	0	2102	10	2897	271
10	0	0	2124	11	2898	270
11	0	0	2136	10	2897	270
12	0	0	2147	10	2894	270
13	0	0	2172	9	2887	270
14	0	0	2190	10	2884	269
15	0	0	2162	3	2884	267
16	0	0	2105	6	2887	269
17	0	0	2051	7	2889	269
18	0	0	2023	5	2893	270
19	0	0	1996	8	2896	269
20	0	0	1972	9	2897	268
21	0	0	1971	11	2896	268
22	0	0	1963	9	2894	270
23	0	0	1927	7	2887	272
24	0	0	1908	8	2884	268
25	0	0	1936	10	2884	267
26	0	0	1963	11	2886	267
27	0	0	1997	11	2889	267
28	0	0	2069	11	2893	267
29	0	0	2132	10	2896	267
30	0	0	2181	12	2896	266
31	0	0	2198	11	2897	266
32	0	0	2185	9	2892	267
33	0	0	2184	11	2887	266
34	0	0	2189	11	2884	266
35	0	0	2156	8	2883	266
36	0	0	2124	8	2886	266
37	0	0	2086	9	2889	267
38	0	0	2034	5	2892	266
39	0	0	2005	7	2896	265
40	0	0	1943	7	2896	265
41	0	0	1878	7	2896	266
42	0	0	1827	7	2892	267
43	0	0	1800	8	2886	267
44	0	0	1798	11	2883	264
45	0	0	1828	10	2883	263
46	0	0	1882	10	2885	265
47	0	0	1952	11	2888	264
48	0	0	2031	10	2891	263
49	0	0	2105	11	2895	263
50	0	0	2162	11	2897	263
51	0	0	2184	11	2896	263
52	0	0	2196	11	2893	265
53	0	0	2201	8	2886	263
54	0	0	2185	8	2883	264
55	0	0	2126	7	2883	264
56	0	0	2073	7	2884	263
57	0	0	2037	8	2887	265
58	0	0	2008	7	2891	263
59	0	0	1972	8	2895	264
60	0	0	1948	8	2895	262
61	0	0	1928	8	2895	263
62	0	0	1896	7	2892	263
63	0	0	1845	6	2886	263
64	0	0	1799	4	2883	259
65	0	0	1804	10	2883	261
66	0	0	1839	11	2884	261
67	0	0	1894	11	2888	262
68	0	0	1981	10	2892	262
69	0	0	2050	10	2894	260
70	0	0	2091	10	2896	260
71	0	0	2120	11	2895	263
72	0	0	2133	12	2892	261
73	0	0	2140	7	2886	260
74	0	0	2158	11	2882	259
75	0	0	2152	8	2882	259
76	0	0	2128	9	2885	259
77	0	0	2096	8	2887	259
78	0	0	2048	7	2890	260
79	0	0	1999	8	2894	262
80	0	0	1943	7	2895	259
81	0	0	1897	8	2895	260
82	0	0	1901	11	2892	259
83	0	0	1876	6	2885	259
84	0	0	1823	7	2882	259
85	0	0	1829	10	2883	258
86	0	0	1854	11	2884	259
87	0	0	1912	12	2887	258
88	0	0	2033	10	2890	259
89	0	0	2142	11	2893	259
90	0	0	2206	11	2895	258
91	0	0	2227	11	2894	258
92	0	0	2231	11	2892	259
93	0	0	2232	7	2885	257
94	0	0	2234	11	2882	256
95	0	0	2208	8	2881	255
96	0	0	2174	9	2883	257
97	0	0	2133	7	2886	257
98	0	0	2085	6	2890	259
99	0	0	2032	9	2894	259
100	0	0	1994	10	2894	256
101	0	0	1968	8	2894	257
102	0	0	1950	8	2891	257
103	0	0	1922	6	2885	256
104	0	0	1883	9	2882	256
105	0	0	1902	12	2881	255
106	0	0	1937	10	2883	255
107	0	0	1970	10	2887	254
108	0	0	2026	11	2890	255
109	0	0	2088	11	2893	255
110	0	0	2129	11	2895	255
111	0	0	2158	10	2894	256
112	0	0	2188	11	2891	254
113	0	0	2227	11	2885	255
114	0	0	2278	11	2881	254
115	0	0	2279	9	2881	253
116	0	0	2227	7	2883	254
117	0	0	2173	6	2886	254
118	0	0	2108	4	2890	254
119	0	0	2042	7	2893	256
120	0	0	1977	8	2894	254
121	0	0	1927	7	2893	254
122	0	0	1901	9	2891	254
123	0	0	1897	9	2885	253
124	0	0	1900	10	2882	252
125	0	0	1934	11	2881	251
126	0	0	1981	10	2884	252
127	0	0	2029	12	2886	253
0	0	0	2099	7	2889	253
1	0	0	2164	11	2893	225
2	0	0	2201	11	2894	253
3	0	0	2214	11	2893	253
4	0	0	2204	11	2891	250
5	0	0	2199	10	2885	250
6	0	0	2219	11	2881	253
7	0	0	2223	10	2881	252
8	0	0	2189	8	2883	251
9	0	0	2141	8	2886	251
10	0	0	2088	9	2889	250
11	0	0	2052	9	2892	251
12	0	0	2028	11	2895	250
13	0	0	2009	7	2894	252
14	0	0	1981	8	2892	250
15	0	0	1926	7	2886	252
16	0	0	1876	10	2881	251
17	0	0	1907	10	2881	251
18	0	0	1966	10	2883	250
19	0	0	2012	11	2886	248
20	0	0	2058	11	2889	248
21	0	0	2100	10	2893	250
22	0	0	2140	11	2893	250
23	0	0	2191	11	2893	250
24	0	0	2228	10	2890	249
25	0	0	2252	11	2884	248
26	0	0	2257	11	2881	247
27	0	0	2219	7	2881	248
28	0	0	2175	8	2882	249
29	0	0	2138	7	2886	248
30	0	0	2093	7	2889	248
31	0	0	2035	8	2892	249
32	0	0	1970	7	2893	250
33	0	0	1930	7	2893	249
34	0	0	1900	7	2890	248
35	0	0	1858	5	2884	249
36	0	0	1826	9	2881	248
37	0	0	1856	11	2880	247
38	0	0	1924	10	2882	247
39	0	0	1989	9	2885	247
40	0	0	2067	11	2888	247
41	0	0	2136	10	2892	251
42	0	0	2173	10	2893	249
43	0	0	2207	10	2893	246
44	0	0	2238	9	2890	246
45	0	0	2244	8	2884	246
46	0	0	2238	10	2880	248
47	0	0	2225	11	2879	247
48	0	0	2207	9	2882	246
49	0	0	2177	8	2885	244
50	0	0	2127	8	2888	244
51	0	0	2075	8	2892	246
52	0	0	2017	6	2893	248
53	0	0	1967	7	2893	247
54	0	0	1933	8	2891	244
55	0	0	1904	8	2884	248
56	0	0	1876	8	2880	247
57	0	0	1893	11	2880	246
58	0	0	1923	11	2882	244
59	0	0	1949	9	2885	244
60	0	0	1992	11	2888	244
61	0	0	2034	10	2892	247
62	0	0	2053	11	2892	245
63	0	0	2093	11	2891	245
64	0	0	2147	10	2890	244
65	0	0	2181	12	2884	244
66	0	0	2208	11	2880	247
67	0	0	2198	8	2880	245
68	0	0	2170	9	2881	244
69	0	0	2145	7	2885	243
70	0	0	2098	9	2888	244
71	0	0	2054	8	2892	246
72	0	0	1993	10	2893	245
73	0	0	1940	7	2892	243
74	0	0	1895	7	2890	243
75	0	0	1862	8	2885	246
76	0	0	1831	9	2880	243
77	0	0	1843	10	2879	246
78	0	0	1885	11	2881	239
79	0	0	1937	10	2884	239
80	0	0	2005	10	2889	241
81	0	0	2070	10	2892	242
82	0	0	2121	11	2894	241
83	0	0	2162	11	2893	242
84	0	0	2191	11	2890	239
85	0	0	2197	10	2885	240
86	0	0	2169	8	2880	242
87	0	0	2135	7	2881	239
88	0	0	2100	8	2882	241
89	0	0	2065	7	2885	239
90	0	0	2027	7	2889	240
91	0	0	1998	8	2892	241
92	0	0	1968	8	2893	241
93	0	0	1933	8	2893	241
94	0	0	1899	8	2890	241
95	0	0	1868	4	2884	241
96	0	0	1837	8	2881	240
97	0	0	1845	12	2880	239
98	0	0	1881	10	2883	239
99	0	0	1943	10	2886	239
100	0	0	2043	10	2889	239
101	0	0	2138	11	2892	239
102	0	0	2192	11	2893	238
103	0	0	2217	11	2894	237
104	0	0	2211	9	2892	239
105	0	0	2186	8	2885	239
106	0	0	2186	11	2881	238
107	0	0	2164	8	2880	238
108	0	0	2122	8	2882	239
109	0	0	2112	11	2886	235
110	0	0	2105	11	2889	238
111	0	0	2077	4	2892	238
112	0	0	2012	7	2894	238
113	0	0	1946	8	2894	239
114	0	0	1914	8	2892	235
115	0	0	1911	7	2884	239
116	0	0	1878	7	2881	236
117	0	0	1869	11	2880	237
118	0	0	1884	11	2882	237
119	0	0	1922	12	2886	237
120	0	0	1990	12	2889	237
121	0	0	2069	10	2893	236
122	0	0	2146	11	2894	236
123	0	0	2201	11	2894	237
124	0	0	2214	10	2891	238
125	0	0	2221	12	2886	239
126	0	0	2232	10	2881	235
127	0	0	2241	13	2881	235
0	0	0	2231	12	2882	236
1	0	0	2214	10	2886	237
2	0	0	2187	12	2890	235
3	0	0	2148	6	2893	236
4	0	0	2105	7	2894	237
5	0	0	2073	9	2895	236
6	0	0	2063	12	2892	236
7	0	0	2076	12	2887	235
8	0	0	2115	10	2882	234
9	0	0	2192	11	2881	233
10	0	0	2287	7	2883	234
11	0	0	2373	11	2886	233
12	0	0	2476	10	2890	233
13	0	0	2553	11	2893	234
14	0	0	2618	11	2895	233
15	0	0	2678	11	2895	235
16	0	0	2716	12	2892	234
17	0	0	2748	10	2887	235
18	0	0	2779	9	2882	233
19	0	0	2772	10	2882	232
20	0	0	2728	9	2883	233
21	0	0	2684	8	2887	231
22	0	0	2627	7	2891	233
23	0	0	2556	7	2894	234
24	0	0	2477	7	2895	233
25	0	0	2419	8	2895	234
26	0	0	2395	12	2893	234
27	0	0	2396	14	2888	232
28	0	0	2385	11	2883	232
29	0	0	2390	11	2882	232
30	0	0	2397	12	2884	232
31	0	0	2396	12	2887	232
32	0	0	2402	9	2891	233
33	0	0	2399	9	2895	234
34	0	0	2369	9	2896	230
35	0	0	2344	6	2897	231
36	0	0	2315	10	2894	231
37	0	0	2284	11	2888	231
38	0	0	2258	8	2884	229
39	0	0	2207	7	2883	229
40	0	0	2141	5	2885	231
41	0	0	2070	7	2887	231
42	0	0	1997	7	2891	232
43	0	0	1929	5	2895	232
44	0	0	1880	12	2896	230
45	0	0	1864	10	2897	231
46	0	0	1859	8	2894	231
47	0	0	1832	6	2889	231
48	0	0	1793	6	2884	232
49	0	0	1795	11	2883	228
50	0	0	1835	8	2886	229
51	0	0	1905	11	2889	231
52	0	0	1989	11	2892	230
53	0	0	2057	9	2896	231
54	0	0	2095	11	2897	228
55	0	0	2106	9	2898	232
56	0	0	2104	11	2895	227
57	0	0	2100	11	2890	229
58	0	0	2098	10	2885	228
59	0	0	2068	8	2884	230
60	0	0	2022	5	2886	229
61	0	0	1977	7	2889	228
62	0	0	1944	8	2894	229
63	0	0	1941	9	2896	228
64	0	0	1945	10	2898	228
65	0	0	1927	7	2898	228
66	0	0	1896	6	2896	228
67	0	0	1843	7	2890	228
68	0	0	1783	7	2886	229
69	0	0	1783	10	2885	228
70	0	0	1819	10	2887	228
71	0	0	1864	9	2889	228
72	0	0	1921	7	2894	227
73	0	0	1964	12	2898	227
74	0	0	1984	11	2899	228
75	0	0	1991	8	2900	227
76	0	0	1998	7	2896	228
77	0	0	1999	11	2891	228
78	0	0	2011	11	2886	227
79	0	0	2016	12	2885	225
80	0	0	2027	13	2888	226
81	0	0	2033	9	2890	227
82	0	0	2006	9	2894	227
83	0	0	1955	7	2898	226
84	0	0	1905	8	2899	228
85	0	0	1864	7	2900	226
86	0	0	1837	12	2898	225
87	0	0	1811	7	2892	224
88	0	0	1781	8	2887	225
89	0	0	1782	11	2886	226
90	0	0	1804	12	2887	226
91	0	0	1853	11	2891	224
92	0	0	1931	8	2896	225
93	0	0	2004	11	2899	224
94	0	0	2061	11	2900	223
95	0	0	2090	12	2900	225
96	0	0	2095	11	2900	225
97	0	0	2086	8	2893	225
98	0	0	2098	12	2888	223
99	0	0	2080	8	2887	223
100	0	0	2032	8	2888	225
101	0	0	2008	9	2893	224
102	0	0	1982	4	2896	224
103	0	0	1956	9	2899	224
104	0	0	1937	9	2901	223
105	0	0	1940	12	2901	224
106	0	0	1951	10	2899	224
107	0	0	1904	4	2894	223
108	0	0	1817	7	2888	223
109	0	0	1771	7	2887	223
110	0	0	1776	10	2889	223
111	0	0	1835	11	2894	222
112	0	0	1924	8	2897	223
113	0	0	2000	11	2900	223
114	0	0	2049	11	2903	223
115	0	0	2084	12	2902	223
116	0	0	2108	11	2900	222
117	0	0	2132	11	2895	222
118	0	0	2151	12	2889	223
119	0	0	2108	7	2889	222
120	0	0	2032	8	2890	222
121	0	0	1967	8	2894	223
122	0	0	1915	7	2898	222
123	0	0	1883	8	2902	221
124	0	0	1864	8	2903	223
125	0	0	1847	11	2904	222
126	0	0	1831	8	2901	222
127	0	0	1812	10	2895	223
0	0	0	1785	10	2890	222
1	0	0	1813	11	2889	223
2	0	0	1858	11	2891	222
3	0	0	1900	10	2895	222
4	0	0	1945	8	2899	221
5	0	0	1996	12	2902	221
6	0	0	2050	11	2904	217
7	0	0	2091	10	2903	221
8	0	0	2123	11	2903	220
9	0	0	2128	8	2897	221
10	0	0	2132	11	2891	220
11	0	0	2116	9	2890	221
12	0	0	2078	9	2891	220
13	0	0	2045	7	2895	221
14	0	0	2012	5	2900	221
15	0	0	1975	8	2903	219
16	0	0	1930	8	2905	219
17	0	0	1891	8	2905	221
18	0	0	1877	7	2903	220
19	0	0	1867	7	2897	221
20	0	0	1844	8	2892	219
21	0	0	1855	10	2891	218
22	0	0	1884	11	2893	220
23	0	0	1918	11	2896	219
24	0	0	1970	8	2900	221
25	0	0	2024	11	2904	218
26	0	0	2068	10	2907	218
27	0	0	2109	10	2907	219
28	0	0	2137	11	2904	221
29	0	0	2144	12	2898	219
30	0	0	2156	11	2894	218
31	0	0	2153	10	2892	215
32	0	0	2120	9	2894	218
33	0	0	2089	8	2897	220
34	0	0	2044	7	2901	218
35	0	0	1990	7	2905	217
36	0	0	1923	7	2907	219
37	0	0	1873	6	2908	218
38	0	0	1849	8	2904	218
39	0	0	1839	10	2899	219
40	0	0	1816	6	2894	217
41	0	0	1824	11	2892	215
42	0	0	1856	11	2895	218
43	0	0	1896	8	2898	217
44	0	0	1961	10	2902	217
45	0	0	2010	10	2906	216
46	0	0	2038	11	2907	215
47	0	0	2071	11	2907	215
48	0	0	2096	9	2906	217
49	0	0	2110	8	2900	217
50	0	0	2124	9	2895	217
51	0	0	2123	11	2894	216
52	0	0	2112	10	2895	217
53	0	0	2115	10	2899	216
54	0	0	2083	10	2903	216
55	0	0	2037	10	2907	217
56	0	0	1985	10	2908	215
57	0	0	1943	8	2910	216
58	0	0	1930	11	2908	214
59	0	0	1935	11	2901	215
60	0	0	1902	8	2896	215
61	0	0	1916	11	2895	216
62	0	0	1939	11	2896	216
63	0	0	1957	11	2901	215
64	0	0	1997	10	2904	215
65	0	0	2044	11	2908	215
66	0	0	2087	11	2910	215
67	0	0	2087	11	2910	215
68	0	0	2106	11	2908	215
69	0	0	2128	11	2902	214
70	0	0	2155	15	2896	214
71	0	0	2167	11	2895	214
72	0	0	2141	10	2897	215
73	0	0	2112	7	2900	215
74	0	0	2085	8	2904	213
75	0	0	2026	6	2908	213
76	0	0	1942	9	2910	212
77	0	0	1865	9	2911	215
78	0	0	1827	8	2909	215
79	0	0	1833	12	2903	213
80	0	0	1844	10	2898	213
81	0	0	1891	11	2897	214
82	0	0	1974	9	2898	213
83	0	0	2060	11	2901	211
84	0	0	2149	11	2904	213
85	0	0	2219	11	2910	213
86	0	0	2236	11	2912	208
87	0	0	2229	12	2912	211
88	0	0	2218	9	2910	215
89	0	0	2203	14	2903	212
90	0	0	2205	9	2898	212
91	0	0	2201	11	2896	212
92	0	0	2187	11	2898	213
93	0	0	2182	10	2902	215
94	0	0	2172	15	2905	212
95	0	0	2142	7	2910	212
96	0	0	2082	7	2912	212
97	0	0	2024	7	2912	214
98	0	0	1979	8	2910	212
99	0	0	1966	8	2905	212
100	0	0	1942	8	2899	211
101	0	0	1952	11	2898	211
102	0	0	1985	11	2899	212
103	0	0	2058	11	2902	211
104	0	0	2150	10	2906	212
105	0	0	2230	11	2910	211
106	0	0	2287	12	2912	212
107	0	0	2310	12	2912	211
108	0	0	2318	12	2910	211
109	0	0	2314	12	2904	210
110	0	0	2310	10	2899	211
111	0	0	2283	7	2897	208
112	0	0	2232	8	2899	211
113	0	0	2179	8	2903	211
114	0	0	2112	7	2906	211
115	0	0	2038	8	2911	210
116	0	0	1980	8	2913	210
117	0	0	1968	12	2914	210
118	0	0	1973	11	2911	213
119	0	0	1986	11	2906	210
120	0	0	1979	10	2899	209
121	0	0	2007	11	2898	208
122	0	0	2049	11	2899	211
123	0	0	2061	10	2903	209
124	0	0	2102	14	2907	208
125	0	0	2146	13	2911	210
126	0	0	2179	11	2913	210
127	0	0	2190	11	2913	209
0	0	0	2198	14	2911	210
1	0	0	2217	15	2906	208
2	0	0	2240	10	2900	209
3	0	0	2219	7	2899	208
4	0	0	2165	8	2900	209
5	0	0	2116	7	2904	208
6	0	0	2073	9	2908	209
7	0	0	2029	12	2912	208
8	0	0	1992	8	2914	209
9	0	0	1963	11	2913	208
10	0	0	1965	12	2912	208
11	0	0	1984	10	2906	212
12	0	0	1952	11	2901	207
13	0	0	1956	11	2899	208
14	0	0	1985	7	2901	208
15	0	0	2016	15	2903	207
16	0	0	2083	11	2908	208
17	0	0	2157	13	2912	207
18	0	0	2199	11	2914	207
19	0	0	2218	11	2915	207
20	0	0	2238	11	2912	205
21	0	0	2253	11	2907	207
22	0	0	2268	10	2901	206
23	0	0	2256	9	2899	207
24	0	0	2227	7	2901	210
25	0	0	2195	9	2904	208
26	0	0	2142	7	2908	207
27	0	0	2092	7	2912	206
28	0	0	2055	8	2914	207
29	0	0	2005	7	2915	207
30	0	0	1959	7	2913	207
31	0	0	1928	8	2907	207
32	0	0	1901	13	2901	207
33	0	0	1926	10	2900	207
34	0	0	1966	11	2901	206
35	0	0	1998	10	2905	207
36	0	0	2052	11	2910	206
37	0	0	2117	13	2913	205
38	0	0	2168	11	2915	205
39	0	0	2186	11	2915	206
40	0	0	2165	8	2913	204
41	0	0	2122	8	2908	207
42	0	0	2115	10	2902	205
43	0	0	2092	9	2899	205
44	0	0	2066	8	2901	206
45	0	0	2041	11	2904	206
46	0	0	2024	9	2909	207
47	0	0	2001	8	2913	204
48	0	0	1959	7	2915	204
49	0	0	1924	8	2915	205
50	0	0	1909	13	2913	204
51	0	0	1885	7	2908	205
52	0	0	1845	6	2902	203
53	0	0	1838	10	2900	207
54	0	0	1869	7	2902	204
55	0	0	1911	11	2905	206
56	0	0	1988	10	2910	207
57	0	0	2071	14	2913	204
58	0	0	2115	12	2915	205
59	0	0	2132	7	2915	204
60	0	0	2134	11	2914	205
61	0	0	2142	10	2908	206
62	0	0	2168	9	2902	202
63	0	0	2173	10	2900	203
64	0	0	2133	7	2901	204
65	0	0	2081	7	2904	204
66	0	0	2030	7	2910	204
67	0	0	1996	8	2914	203
68	0	0	1954	7	2915	203
69	0	0	1916	5	2916	203
70	0	0	1887	7	2914	202
71	0	0	1860	7	2909	207
72	0	0	1833	8	2902	202
73	0	0	1835	11	2900	203
74	0	0	1844	10	2902	203
75	0	0	1866	11	2905	202
76	0	0	1943	12	2909	203
