# bioPlux Text File Format
# Version: 1
# StartDateTime: 2011-07-18 13:51:55
# SamplingFrequency: 1000
# SampledChannels: 1 2 3 4 5
# SamplingResolution: 12
# AcquiringDevice: 00:07:80:42:0F:95
# EndOfHeader
0	0	0	2203	5	3079	0	3142
1	0	0	2457	4	3078	0	3144
2	0	0	2593	5	3079	0	3144
3	0	0	2667	4	3077	0	3145
4	0	0	2696	5	3075	0	3142
5	0	0	2673	5	3074	0	3140
6	0	0	2698	5	3074	0	3139
7	0	0	2571	4	3073	0	3139
8	0	0	2367	4	3075	0	3140
9	0	0	2195	4	3073	0	3142
10	0	0	2003	4	3075	0	3142
11	0	0	1817	4	3075	0	3143
12	0	0	1641	4	3075	0	3144
13	0	0	1513	4	3077	0	3144
14	0	0	1451	4	3078	0	3143
15	0	0	1407	4	3080	0	3140
16	0	0	1277	3	3079	0	3139
17	0	0	1404	5	3081	0	3140
18	0	0	1649	4	3081	0	3140
19	0	0	1870	5	3080	0	3141
20	0	0	2190	5	3077	0	3142
21	0	0	2443	4	3078	0	3143
22	0	0	2583	5	3075	0	3144
23	0	0	2655	5	3074	0	3144
24	0	0	2688	5	3073	0	3143
25	0	0	2674	5	3074	0	3140
26	0	0	2689	5	3072	0	3140
27	0	0	2558	4	3072	0	3140
28	0	0	2346	4	3070	0	3141
29	0	0	2177	4	3073	0	3142
30	0	0	1974	4	3074	0	3143
31	0	0	1799	4	3073	0	3143
32	0	0	1638	4	3075	0	3144
33	0	0	1521	3	3076	0	3144
34	0	0	1462	4	3076	0	3143
35	0	0	1406	4	3079	0	3140
36	0	0	1275	3	3079	0	3139
37	0	0	1398	5	3078	0	3140
38	0	0	1638	5	3079	0	3140
39	0	0	1864	5	3076	0	3141
40	0	0	2189	5	3075	0	3142
41	0	0	2447	5	3074	0	3143
42	0	0	2587	5	3074	0	3144
43	0	0	2661	4	3073	0	3144
44	0	0	2691	5	3073	0	3144
45	0	0	2674	5	3072	0	3140
46	0	0	2682	4	3069	0	3140
47	0	0	2554	4	3069	0	3139
48	0	0	2353	4	3069	0	3141
49	0	0	2184	4	3068	0	3141
50	0	0	1995	4	3072	0	3142
51	0	0	1808	4	3072	0	3143
52	0	0	1636	4	3074	0	3144
53	0	0	1513	4	3075	0	3144
54	0	0	1452	4	3075	0	3143
55	0	0	1408	4	3075	0	3140
56	0	0	1277	4	3076	0	3139
57	0	0	1402	5	3076	0	3140
58	0	0	1643	5	3075	0	3140
59	0	0	1866	5	3075	0	3142
60	0	0	2183	5	3075	0	3143
61	0	0	2434	5	3072	0	3144
62	0	0	2571	5	3073	0	3145
63	0	0	2643	5	3068	0	3144
64	0	0	2673	5	3067	0	3143
65	0	0	2665	5	3067	0	3140
66	0	0	2681	5	3068	0	3139
67	0	0	2554	4	3067	0	3139
68	0	0	2351	4	3068	0	3140
69	0	0	2171	4	3066	0	3141
70	0	0	1968	4	3069	0	3143
71	0	0	1795	4	3072	0	3143
72	0	0	1638	4	3072	0	3144
73	0	0	1527	4	3074	0	3144
74	0	0	1472	5	3072	0	3142
75	0	0	1426	4	3074	0	3140
76	0	0	1292	4	3076	0	3139
77	0	0	1411	5	3075	0	3140
78	0	0	1647	4	3075	0	3141
79	0	0	1871	5	3075	0	3142
80	0	0	2191	5	3070	0	3142
81	0	0	2445	5	3068	0	3143
82	0	0	2586	5	3068	0	3144
83	0	0	2663	5	3070	0	3144
84	0	0	2692	5	3066	0	3142
85	0	0	2672	4	3065	0	3140
86	0	0	2690	5	3063	0	3139
87	0	0	2567	4	3066	0	3139
88	0	0	2362	4	3067	0	3140
89	0	0	2193	4	3065	0	3141
90	0	0	1993	4	3067	0	3142
91	0	0	1807	4	3067	0	3144
92	0	0	1630	4	3068	0	3144
93	0	0	1501	3	3069	0	3144
94	0	0	1439	4	3068	0	3143
95	0	0	1392	4	3072	0	3141
96	0	0	1258	4	3072	0	3140
97	0	0	1384	5	3074	0	3140
98	0	0	1633	4	3074	0	3140
99	0	0	1863	5	3073	0	3142
100	0	0	2186	6	3068	0	3142
101	0	0	2442	5	3068	0	3143
102	0	0	2585	5	3067	0	3143
103	0	0	2664	4	3065	0	3144
104	0	0	2697	4	3065	0	3142
105	0	0	2680	5	3065	0	3141
106	0	0	2702	5	3064	0	3139
107	0	0	2575	4	3063	0	3139
108	0	0	2366	3	3064	0	3140
109	0	0	2168	4	3065	0	3142
110	0	0	1977	5	3064	0	3143
111	0	0	1804	4	3065	0	3144
112	0	0	1642	4	3065	0	3143
113	0	0	1521	4	3067	0	3144
114	0	0	1460	4	3067	0	3143
115	0	0	1413	5	3069	0	3140
116	0	0	1280	4	3068	0	3139
117	0	0	1391	5	3070	0	3139
118	0	0	1630	5	3073	0	3141
119	0	0	1850	5	3068	0	3141
120	0	0	2172	5	3067	0	3142
121	0	0	2431	5	3065	0	3144
122	0	0	2577	5	3065	0	3144
123	0	0	2655	4	3063	0	3144
124	0	0	2688	5	3062	0	3143
125	0	0	2678	5	3063	0	3140
126	0	0	2698	4	3062	0	3139
127	0	0	2571	4	3060	0	3140
0	0	0	2366	4	3061	0	3141
1	0	0	2199	4	3061	0	3141
2	0	0	2012	4	3061	0	3143
3	0	0	1820	4	3063	0	3143
4	0	0	1642	4	3063	0	3144
5	0	0	1512	4	3064	0	3144
6	0	0	1450	4	3065	0	3142
7	0	0	1405	4	3066	0	3140
8	0	0	1269	5	3067	0	3140
9	0	0	1387	5	3069	0	3140
10	0	0	1628	5	3068	0	3140
11	0	0	1853	5	3067	0	3142
12	0	0	2174	6	3063	0	3142
13	0	0	2431	5	3064	0	3144
14	0	0	2579	5	3064	0	3145
15	0	0	2652	4	3061	0	3144
16	0	0	2679	5	3060	0	3143
17	0	0	2666	5	3059	0	3140
18	0	0	2685	5	3060	0	3139
19	0	0	2563	4	3059	0	3139
20	0	0	2353	4	3061	0	3140
21	0	0	2158	4	3060	0	3141
22	0	0	1977	4	3062	0	3143
23	0	0	1813	4	3061	0	3143
24	0	0	1650	4	3063	0	3144
25	0	0	1525	3	3064	0	3144
26	0	0	1465	4	3065	0	3142
27	0	0	1410	4	3066	0	3141
28	0	0	1270	4	3067	0	3139
29	0	0	1392	5	3067	0	3139
30	0	0	1635	5	3066	0	3141
31	0	0	1861	5	3065	0	3141
32	0	0	2184	5	3065	0	3144
33	0	0	2447	5	3062	0	3143
34	0	0	2585	5	3062	0	3144
35	0	0	2658	5	3060	0	3144
36	0	0	2686	5	3059	0	3142
37	0	0	2664	5	3059	0	3140
38	0	0	2683	5	3058	0	3139
39	0	0	2560	4	3056	0	3139
40	0	0	2350	4	3057	0	3140
41	0	0	2179	4	3058	0	3141
42	0	0	1991	4	3057	0	3142
43	0	0	1802	4	3059	0	3143
44	0	0	1628	4	3061	0	3144
45	0	0	1501	4	3062	0	3144
46	0	0	1443	4	3063	0	3143
47	0	0	1403	4	3063	0	3140
48	0	0	1272	4	3063	0	3140
49	0	0	1386	5	3064	0	3140
50	0	0	1635	5	3063	0	3141
51	0	0	1865	5	3063	0	3142
52	0	0	2189	5	3060	0	3143
53	0	0	2453	5	3060	0	3144
54	0	0	2598	5	3058	0	3143
55	0	0	2674	5	3056	0	3144
56	0	0	2708	5	3057	0	3142
57	0	0	2691	5	3054	0	3140
58	0	0	2706	4	3054	0	3139
59	0	0	2580	4	3055	0	3139
60	0	0	2358	4	3057	0	3141
61	0	0	2172	4	3055	0	3141
62	0	0	1995	4	3055	0	3142
63	0	0	1818	3	3055	0	3143
64	0	0	1646	4	3056	0	3144
65	0	0	1513	4	3060	0	3145
66	0	0	1450	4	3058	0	3143
67	0	0	1402	3	3062	0	3142
68	0	0	1267	4	3063	0	3140
69	0	0	1382	5	3063	0	3140
70	0	0	1628	5	3064	0	3141
71	0	0	1855	5	3060	0	3141
72	0	0	2181	5	3058	0	3142
73	0	0	2443	5	3057	0	3143
74	0	0	2588	5	3057	0	3144
75	0	0	2665	5	3056	0	3144
76	0	0	2698	5	3055	0	3142
77	0	0	2685	5	3053	0	3140
78	0	0	2706	4	3051	0	3139
79	0	0	2582	4	3053	0	3140
80	0	0	2380	4	3054	0	3140
81	0	0	2210	4	3055	0	3142
82	0	0	2017	4	3053	0	3142
83	0	0	1823	4	3055	0	3144
84	0	0	1645	4	3057	0	3145
85	0	0	1514	4	3056	0	3144
86	0	0	1446	4	3057	0	3143
87	0	0	1397	4	3057	0	3140
88	0	0	1258	4	3058	0	3139
89	0	0	1371	5	3058	0	3139
90	0	0	1618	5	3059	0	3140
91	0	0	1840	5	3057	0	3141
92	0	0	2158	5	3057	0	3143
93	0	0	2419	5	3056	0	3143
94	0	0	2564	5	3054	0	3144
95	0	0	2644	5	3055	0	3145
96	0	0	2676	5	3052	0	3143
97	0	0	2664	5	3052	0	3140
98	0	0	2684	6	3051	0	3140
99	0	0	2561	4	3050	0	3140
100	0	0	2333	4	3050	0	3141
101	0	0	2165	4	3050	0	3142
102	0	0	1993	4	3051	0	3143
103	0	0	1817	3	3056	0	3144
104	0	0	1644	4	3052	0	3144
105	0	0	1516	4	3054	0	3144
106	0	0	1452	4	3056	0	3144
107	0	0	1408	4	3056	0	3140
108	0	0	1273	5	3056	0	3140
109	0	0	1386	5	3057	0	3140
110	0	0	1626	5	3056	0	3140
111	0	0	1853	5	3055	0	3141
112	0	0	2176	5	3053	0	3142
113	0	0	2433	4	3052	0	3143
114	0	0	2571	5	3052	0	3144
115	0	0	2647	5	3050	0	3144
116	0	0	2678	5	3049	0	3143
117	0	0	2665	5	3052	0	3142
118	0	0	2680	5	3051	0	3140
119	0	0	2555	4	3050	0	3140
120	0	0	2354	4	3051	0	3141
121	0	0	2182	4	3049	0	3141
122	0	0	1994	4	3050	0	3142
123	0	0	1810	5	3051	0	3143
124	0	0	1635	4	3052	0	3144
125	0	0	1503	4	3053	0	3144
126	0	0	1439	4	3053	0	3143
127	0	0	1390	4	3054	0	3141
0	0	0	1257	4	3052	0	3139
1	0	0	1382	5	3055	0	3140
2	0	0	1632	5	3055	0	3141
3	0	0	1859	5	3054	0	3143
4	0	0	2181	5	3052	0	3143
5	0	0	2444	5	3050	0	3144
6	0	0	2587	5	3052	0	3145
7	0	0	2667	5	3049	0	3145
8	0	0	2701	5	3048	0	3143
9	0	0	2679	5	3047	0	3141
10	0	0	2698	4	3047	0	3139
11	0	0	2561	4	3047	0	3140
12	0	0	2332	4	3046	0	3141
13	0	0	2174	4	3047	0	3141
14	0	0	2004	4	3049	0	3143
15	0	0	1824	4	3049	0	3143
16	0	0	1641	4	3049	0	3144
17	0	0	1510	4	3050	0	3144
18	0	0	1446	4	3053	0	3144
19	0	0	1399	3	3050	0	3141
20	0	0	1258	4	3052	0	3140
21	0	0	1374	5	3052	0	3140
22	0	0	1625	5	3051	0	3141
23	0	0	1852	6	3052	0	3142
24	0	0	2173	5	3050	0	3143
25	0	0	2435	5	3050	0	3144
26	0	0	2590	5	3048	0	3144
27	0	0	2675	5	3046	0	3144
28	0	0	2707	5	3045	0	3143
29	0	0	2695	6	3047	0	3142
30	0	0	2715	5	3047	0	3140
31	0	0	2585	4	3045	0	3140
32	0	0	2376	4	3045	0	3142
33	0	0	2201	4	3043	0	3141
34	0	0	2008	4	3045	0	3143
35	0	0	1816	4	3046	0	3144
36	0	0	1634	4	3046	0	3145
37	0	0	1504	4	3049	0	3145
38	0	0	1439	4	3048	0	3143
39	0	0	1398	4	3050	0	3141
40	0	0	1253	4	3052	0	3140
41	0	0	1363	5	3051	0	3141
42	0	0	1609	5	3049	0	3141
43	0	0	1842	5	3048	0	3142
44	0	0	2175	5	3049	0	3143
45	0	0	2443	5	3047	0	3144
46	0	0	2594	5	3046	0	3144
47	0	0	2683	5	3046	0	3145
48	0	0	2716	5	3042	0	3143
49	0	0	2700	5	3043	0	3141
50	0	0	2717	5	3043	0	3140
51	0	0	2577	4	3043	0	3141
52	0	0	2358	4	3043	0	3141
53	0	0	2195	5	3042	0	3142
54	0	0	2012	4	3044	0	3142
55	0	0	1816	4	3044	0	3144
56	0	0	1627	4	3045	0	3145
57	0	0	1489	4	3046	0	3145
58	0	0	1420	4	3046	0	3143
59	0	0	1374	4	3046	0	3141
60	0	0	1232	4	3049	0	3140
61	0	0	1342	5	3049	0	3140
62	0	0	1600	5	3049	0	3141
63	0	0	1836	5	3047	0	3142
64	0	0	2169	5	3045	0	3144
65	0	0	2445	5	3046	0	3144
66	0	0	2596	5	3043	0	3144
67	0	0	2681	5	3043	0	3145
68	0	0	2718	5	3041	0	3143
69	0	0	2712	5	3040	0	3141
70	0	0	2731	4	3042	0	3140
71	0	0	2598	4	3041	0	3141
72	0	0	2378	4	3038	0	3141
73	0	0	2193	4	3041	0	3142
74	0	0	1993	3	3042	0	3143
75	0	0	1797	4	3043	0	3144
76	0	0	1611	4	3043	0	3145
77	0	0	1474	4	3043	0	3145
78	0	0	1407	4	3044	0	3143
79	0	0	1370	3	3044	0	3141
80	0	0	1228	4	3047	0	3140
81	0	0	1342	5	3046	0	3140
82	0	0	1598	5	3046	0	3142
83	0	0	1835	5	3045	0	3142
84	0	0	2168	5	3044	0	3144
85	0	0	2447	5	3043	0	3144
86	0	0	2601	5	3043	0	3145
87	0	0	2688	5	3041	0	3145
88	0	0	2719	5	3039	0	3143
89	0	0	2711	5	3039	0	3142
90	0	0	2733	4	3038	0	3141
91	0	0	2579	4	3038	0	3140
92	0	0	2366	4	3038	0	3141
93	0	0	2197	4	3038	0	3142
94	0	0	2005	4	3040	0	3144
95	0	0	1807	4	3040	0	3144
96	0	0	1614	4	3041	0	3145
97	0	0	1476	4	3043	0	3145
98	0	0	1406	4	3042	0	3143
99	0	0	1363	4	3043	0	3141
100	0	0	1215	4	3044	0	3140
101	0	0	1327	5	3044	0	3141
102	0	0	1588	5	3043	0	3141
103	0	0	1830	5	3042	0	3142
104	0	0	2169	5	3041	0	3143
105	0	0	2454	5	3041	0	3145
106	0	0	2610	5	3041	0	3146
107	0	0	2691	5	3038	0	3145
108	0	0	2733	5	3037	0	3144
109	0	0	2717	4	3036	0	3142
110	0	0	2741	5	3037	0	3140
111	0	0	2617	4	3037	0	3141
112	0	0	2395	4	3037	0	3141
113	0	0	2208	4	3039	0	3143
114	0	0	2003	3	3037	0	3143
115	0	0	1804	4	3037	0	3144
116	0	0	1610	4	3040	0	3145
117	0	0	1471	4	3041	0	3145
118	0	0	1399	4	3040	0	3143
119	0	0	1346	4	3042	0	3143
120	0	0	1198	4	3043	0	3141
121	0	0	1317	5	3043	0	3141
122	0	0	1583	5	3042	0	3142
123	0	0	1826	5	3040	0	3142
124	0	0	2164	5	3039	0	3143
125	0	0	2443	5	3038	0	3145
126	0	0	2605	5	3039	0	3145
127	0	0	2695	5	3037	0	3145
0	0	0	2734	5	3034	0	3143
1	0	0	2722	6	3034	0	3141
2	0	0	2737	4	3035	0	3141
3	0	0	2603	4	3034	0	3141
4	0	0	2392	4	3038	0	3141
5	0	0	2215	4	3034	0	3142
6	0	0	2015	4	3035	0	3144
7	0	0	1809	4	3038	0	3144
8	0	0	1615	4	3037	0	3145
9	0	0	1476	4	3037	0	3145
10	0	0	1405	4	3038	0	3144
11	0	0	1365	5	3041	0	3142
12	0	0	1212	4	3039	0	3141
13	0	0	1326	5	3040	0	3140
14	0	0	1584	5	3042	0	3142
15	0	0	1826	5	3040	0	3143
16	0	0	2167	5	3037	0	3143
17	0	0	2441	5	3037	0	3144
18	0	0	2600	5	3036	0	3145
19	0	0	2689	5	3036	0	3145
20	0	0	2727	5	3033	0	3143
21	0	0	2713	4	3033	0	3142
22	0	0	2748	5	3034	0	3140
23	0	0	2624	4	3033	0	3140
24	0	0	2396	4	3033	0	3142
25	0	0	2211	4	3033	0	3143
26	0	0	2005	3	3033	0	3143
27	0	0	1799	4	3033	0	3145
28	0	0	1608	4	3035	0	3145
29	0	0	1470	4	3037	0	3145
30	0	0	1405	4	3036	0	3144
31	0	0	1359	4	3038	0	3142
32	0	0	1204	4	3038	0	3140
33	0	0	1313	5	3038	0	3140
34	0	0	1583	5	3038	0	3142
35	0	0	1834	5	3036	0	3142
36	0	0	2173	4	3037	0	3144
37	0	0	2450	5	3035	0	3144
38	0	0	2610	5	3033	0	3145
39	0	0	2701	5	3034	0	3145
40	0	0	2735	5	3033	0	3144
41	0	0	2728	5	3032	0	3142
42	0	0	2736	5	3030	0	3141
43	0	0	2611	4	3031	0	3141
44	0	0	2402	4	3030	0	3142
45	0	0	2219	4	3030	0	3140
46	0	0	2010	4	3031	0	3143
47	0	0	1802	4	3032	0	3145
48	0	0	1609	4	3035	0	3146
49	0	0	1465	4	3034	0	3145
50	0	0	1396	4	3035	0	3145
51	0	0	1353	3	3036	0	3141
52	0	0	1201	4	3035	0	3140
53	0	0	1312	5	3035	0	3140
54	0	0	1576	5	3036	0	3142
55	0	0	1819	5	3034	0	3142
56	0	0	2160	5	3032	0	3143
57	0	0	2442	5	3033	0	3144
58	0	0	2606	5	3032	0	3145
59	0	0	2695	5	3030	0	3145
60	0	0	2733	5	3029	0	3144
61	0	0	2726	5	3030	0	3143
62	0	0	2761	5	3031	0	3141
63	0	0	2633	4	3029	0	3141
64	0	0	2406	4	3031	0	3142
65	0	0	2210	4	3029	0	3142
66	0	0	2000	4	3029	0	3143
67	0	0	1792	4	3029	0	3145
68	0	0	1599	4	3031	0	3145
69	0	0	1463	4	3032	0	3145
70	0	0	1395	4	3032	0	3144
71	0	0	1355	4	3033	0	3142
72	0	0	1203	4	3035	0	3140
73	0	0	1309	5	3034	0	3141
74	0	0	1577	5	3033	0	3142
75	0	0	1822	5	3034	0	3143
76	0	0	2162	5	3032	0	3143
77	0	0	2448	5	3032	0	3145
78	0	0	2611	5	3030	0	3146
79	0	0	2705	5	3030	0	3146
80	0	0	2742	5	3028	0	3144
81	0	0	2730	5	3029	0	3142
82	0	0	2745	5	3027	0	3141
83	0	0	2627	4	3029	0	3140
84	0	0	2417	4	3029	0	3141
85	0	0	2232	4	3028	0	3143
86	0	0	2021	3	3029	0	3143
87	0	0	1816	4	3028	0	3144
88	0	0	1620	4	3029	0	3145
89	0	0	1481	4	3031	0	3145
90	0	0	1413	4	3032	0	3144
91	0	0	1372	4	3034	0	3142
92	0	0	1214	4	3032	0	3141
93	0	0	1325	5	3032	0	3141
94	0	0	1585	5	3032	0	3142
95	0	0	1828	5	3031	0	3143
96	0	0	2170	5	3030	0	3144
97	0	0	2449	5	3029	0	3145
98	0	0	2608	5	3031	0	3146
99	0	0	2699	5	3027	0	3145
100	0	0	2742	5	3025	0	3144
101	0	0	2736	4	3026	0	3142
102	0	0	2770	5	3026	0	3140
103	0	0	2643	4	3024	0	3140
104	0	0	2414	4	3027	0	3142
105	0	0	2219	4	3025	0	3142
106	0	0	2005	4	3027	0	3144
107	0	0	1802	4	3027	0	3145
108	0	0	1611	4	3028	0	3145
109	0	0	1471	4	3027	0	3146
110	0	0	1401	4	3030	0	3144
111	0	0	1355	4	3030	0	3142
112	0	0	1202	4	3031	0	3141
113	0	0	1315	5	3031	0	3141
114	0	0	1585	5	3032	0	3142
115	0	0	1833	5	3031	0	3142
116	0	0	2174	5	3027	0	3143
117	0	0	2462	5	3029	0	3144
118	0	0	2622	5	3026	0	3145
119	0	0	2715	5	3027	0	3145
120	0	0	2746	5	3024	0	3144
121	0	0	2711	5	3025	0	3143
122	0	0	2741	5	3025	1	3140
123	0	0	2633	4	3025	0	3141
124	0	0	2423	4	3023	0	3144
125	0	0	2233	4	3023	0	3142
126	0	0	2021	4	3025	0	3144
127	0	0	1823	4	3025	0	3145
0	0	0	1622	4	3027	0	3145
1	0	0	1477	5	3028	0	3146
2	0	0	1402	4	3030	0	3145
3	0	0	1353	2	3030	0	3142
4	0	0	1200	5	3028	0	3141
5	0	0	1313	5	3031	0	3141
6	0	0	1575	5	3029	0	3141
7	0	0	1823	5	3028	0	3142
8	0	0	2165	4	3026	0	3143
9	0	0	2447	5	3026	0	3144
10	0	0	2611	5	3025	0	3145
11	0	0	2704	5	3024	0	3145
12	0	0	2746	5	3024	0	3144
13	0	0	2739	5	3023	0	3142
14	0	0	2776	5	3023	0	3141
15	0	0	2650	4	3021	0	3141
16	0	0	2421	4	3024	0	3142
17	0	0	2222	4	3023	0	3143
18	0	0	2006	4	3023	0	3144
19	0	0	1797	4	3023	0	3145
20	0	0	1602	4	3025	0	3145
21	0	0	1462	4	3025	0	3145
22	0	0	1390	4	3025	0	3143
23	0	0	1351	4	3026	0	3142
24	0	0	1200	4	3027	0	3140
25	0	0	1304	5	3029	0	3140
26	0	0	1569	5	3028	0	3142
27	0	0	1813	5	3027	0	3142
28	0	0	2157	5	3027	0	3144
29	0	0	2449	5	3026	0	3144
30	0	0	2613	5	3024	0	3145
31	0	0	2706	5	3023	0	3146
32	0	0	2745	5	3022	0	3144
33	0	0	2713	4	3022	0	3143
34	0	0	2755	5	3022	0	3141
35	0	0	2655	4	3021	0	3141
36	0	0	2435	4	3021	0	3142
37	0	0	2242	4	3020	0	3142
38	0	0	2024	4	3022	0	3143
39	0	0	1813	4	3022	0	3145
40	0	0	1613	4	3025	0	3146
41	0	0	1468	4	3023	0	3145
42	0	0	1395	4	3026	0	3144
43	0	0	1349	4	3028	0	3143
44	0	0	1194	4	3029	0	3140
45	0	0	1300	5	3028	0	3141
46	0	0	1567	5	3027	0	3142
47	0	0	1815	5	3024	0	3142
48	0	0	2151	5	3023	0	3144
49	0	0	2438	5	3021	0	3145
50	0	0	2604	6	3023	0	3145
51	0	0	2700	5	3020	0	3146
52	0	0	2741	5	3020	0	3145
53	0	0	2736	6	3019	0	3142
54	0	0	2774	5	3018	0	3140
55	0	0	2652	4	3018	0	3140
56	0	0	2423	4	3020	0	3142
57	0	0	2228	4	3019	0	3142
58	0	0	2014	4	3019	0	3144
59	0	0	1811	4	3022	0	3144
60	0	0	1617	4	3022	0	3145
61	0	0	1472	4	3022	0	3145
62	0	0	1399	4	3023	0	3145
63	0	0	1358	4	3024	0	3142
64	0	0	1200	4	3024	0	3141
65	0	0	1303	5	3024	0	3141
66	0	0	1566	5	3023	0	3142
67	0	0	1814	5	3023	0	3143
68	0	0	2157	5	3022	0	3144
69	0	0	2449	5	3020	0	3144
70	0	0	2609	5	3021	0	3145
71	0	0	2703	5	3017	0	3145
72	0	0	2739	5	3018	0	3144
73	0	0	2708	5	3017	0	3141
74	0	0	2758	5	3017	0	3140
75	0	0	2660	4	3019	0	3140
76	0	0	2439	4	3017	0	3142
77	0	0	2237	4	3015	0	3142
78	0	0	2024	4	3017	0	3144
79	0	0	1817	4	3019	0	3145
80	0	0	1618	4	3020	0	3145
81	0	0	1471	4	3020	0	3146
82	0	0	1397	4	3022	0	3146
83	0	0	1349	4	3022	0	3142
84	0	0	1192	4	3022	0	3141
85	0	0	1299	5	3024	0	3141
86	0	0	1563	5	3023	0	3142
87	0	0	1810	5	3021	0	3142
88	0	0	2152	5	3021	0	3143
89	0	0	2441	5	3020	0	3144
90	0	0	2606	5	3019	0	3145
91	0	0	2701	5	3018	0	3145
92	0	0	2747	5	3016	0	3144
93	0	0	2746	5	3016	0	3143
94	0	0	2778	5	3016	0	3141
95	0	0	2651	4	3015	0	3141
96	0	0	2425	4	3016	0	3142
97	0	0	2229	4	3017	0	3142
98	0	0	2014	4	3015	0	3144
99	0	0	1803	3	3015	0	3145
100	0	0	1607	4	3017	0	3145
101	0	0	1466	4	3017	0	3146
102	0	0	1395	4	3018	0	3144
103	0	0	1356	4	3019	0	3142
104	0	0	1204	4	3021	0	3141
105	0	0	1306	5	3020	0	3141
106	0	0	1573	5	3020	0	3142
107	0	0	1818	5	3020	0	3143
108	0	0	2148	6	3018	0	3143
109	0	0	2439	5	3018	0	3144
110	0	0	2606	5	3018	0	3145
111	0	0	2704	5	3015	0	3146
112	0	0	2729	5	3015	0	3144
113	0	0	2717	5	3013	0	3142
114	0	0	2769	5	3014	0	3141
115	0	0	2668	4	3013	0	3135
116	0	0	2444	4	3013	0	3142
117	0	0	2244	4	3013	0	3143
118	0	0	2025	4	3015	0	3145
119	0	0	1813	4	3016	0	3145
120	0	0	1616	4	3016	0	3145
121	0	0	1476	4	3018	0	3146
122	0	0	1403	4	3017	0	3144
123	0	0	1356	4	3018	0	3142
124	0	0	1196	3	3018	0	3140
125	0	0	1294	5	3018	0	3140
126	0	0	1564	5	3019	0	3142
127	0	0	1812	5	3017	0	3142
0	0	0	2152	5	3017	0	3144
1	0	0	2435	5	3016	0	3145
2	0	0	2599	5	3016	0	3146
3	0	0	2693	5	3014	0	3146
4	0	0	2736	5	3012	0	3144
5	0	0	2727	5	3013	0	3143
6	0	0	2763	5	3012	0	3141
7	0	0	2650	4	3011	0	3141
8	0	0	2426	4	3011	0	3142
9	0	0	2232	4	3012	0	3142
10	0	0	2018	4	3012	0	3143
11	0	0	1809	4	3014	0	3145
12	0	0	1616	4	3014	0	3145
13	0	0	1475	4	3015	0	3145
14	0	0	1405	4	3016	0	3144
15	0	0	1368	4	3016	0	3142
16	0	0	1214	4	3018	0	3141
17	0	0	1314	5	3017	0	3141
18	0	0	1575	5	3019	0	3143
19	0	0	1814	5	3016	0	3143
20	0	0	2147	5	3015	0	3145
21	0	0	2434	5	3015	0	3145
22	0	0	2599	5	3014	0	3146
23	0	0	2692	5	3012	0	3146
24	0	0	2712	5	3011	0	3145
25	0	0	2712	6	3010	0	3142
26	0	0	2761	5	3011	0	3141
27	0	0	2660	4	3012	0	3141
28	0	0	2427	4	3010	0	3142
29	0	0	2231	4	3010	0	3142
30	0	0	2022	4	3011	0	3145
31	0	0	1822	4	3012	0	3145
32	0	0	1625	3	3013	0	3145
33	0	0	1482	4	3013	0	3146
34	0	0	1409	4	3013	0	3144
35	0	0	1372	4	3014	0	3142
36	0	0	1220	4	3016	0	3141
37	0	0	1318	5	3016	0	3141
38	0	0	1575	5	3017	0	3142
39	0	0	1820	5	3013	0	3143
40	0	0	2156	5	3013	0	3144
41	0	0	2443	5	3013	0	3145
42	0	0	2609	5	3011	0	3145
43	0	0	2705	5	3011	0	3146
44	0	0	2746	5	3010	0	3144
45	0	0	2741	5	3010	0	3143
46	0	0	2775	5	3009	0	3141
47	0	0	2653	4	3009	0	3141
48	0	0	2424	4	3008	0	3142
49	0	0	2227	4	3009	0	3143
50	0	0	2017	4	3009	0	3144
51	0	0	1813	3	3009	0	3145
52	0	0	1621	4	3011	0	3146
53	0	0	1477	4	3011	0	3146
54	0	0	1404	4	3013	0	3144
55	0	0	1369	4	3014	0	3143
56	0	0	1215	4	3014	0	3141
57	0	0	1313	5	3014	0	3141
58	0	0	1579	5	3016	0	3143
59	0	0	1824	5	3013	0	3143
60	0	0	2159	5	3011	0	3144
61	0	0	2448	4	3010	0	3145
62	0	0	2613	5	3009	0	3146
63	0	0	2690	5	3009	0	3146
64	0	0	2721	5	3009	0	3145
65	0	0	2722	5	3008	0	3142
66	0	0	2770	4	3006	0	3140
67	0	0	2662	4	3006	0	3141
68	0	0	2434	4	3005	0	3142
69	0	0	2242	4	3006	0	3142
70	0	0	2031	4	3007	0	3144
71	0	0	1831	4	3008	0	3145
72	0	0	1631	4	3008	0	3146
73	0	0	1482	4	3011	0	3147
74	0	0	1404	4	3010	0	3144
75	0	0	1359	4	3013	0	3143
76	0	0	1201	4	3013	0	3141
77	0	0	1296	5	3013	0	3141
78	0	0	1556	5	3012	0	3142
79	0	0	1805	5	3009	0	3143
80	0	0	2148	5	3009	0	3144
81	0	0	2435	4	3008	0	3145
82	0	0	2601	5	3009	0	3145
83	0	0	2696	5	3006	0	3146
84	0	0	2738	5	3008	0	3145
85	0	0	2732	4	3004	0	3142
86	0	0	2769	5	3005	0	3141
87	0	0	2659	4	3006	0	3141
88	0	0	2440	4	3004	0	3142
89	0	0	2246	4	3004	0	3143
90	0	0	2031	4	3004	0	3144
91	0	0	1828	4	3006	0	3145
92	0	0	1632	4	3008	0	3145
93	0	0	1488	4	3008	0	3146
94	0	0	1413	4	3008	0	3144
95	0	0	1375	4	3008	0	3142
96	0	0	1220	4	3010	0	3141
97	0	0	1314	5	3009	0	3141
98	0	0	1572	5	3010	0	3143
99	0	0	1810	5	3008	0	3143
100	0	0	2136	5	3009	0	3145
101	0	0	2427	5	3008	0	3145
102	0	0	2593	5	3007	0	3146
103	0	0	2668	5	3006	0	3147
104	0	0	2708	5	3003	0	3145
105	0	0	2718	5	3004	0	3143
106	0	0	2770	5	3005	0	3143
107	0	0	2663	4	3003	0	3141
108	0	0	2441	4	3003	0	3142
109	0	0	2250	4	3003	0	3143
110	0	0	2040	4	3003	0	3144
111	0	0	1831	4	3005	0	3145
112	0	0	1631	4	3007	0	3146
113	0	0	1489	4	3005	0	3146
114	0	0	1417	4	3007	0	3145
115	0	0	1381	5	3008	0	3142
116	0	0	1227	4	3009	0	3141
117	0	0	1309	5	3009	0	3141
118	0	0	1564	5	3008	0	3142
119	0	0	1810	5	3007	0	3143
120	0	0	2148	5	3006	0	3144
121	0	0	2435	5	3004	0	3145
122	0	0	2599	4	3005	0	3146
123	0	0	2689	5	3003	0	3146
124	0	0	2730	5	3003	0	3145
125	0	0	2722	5	3002	0	3143
126	0	0	2750	5	3002	0	3141
127	0	0	2638	4	3003	0	3141
0	0	0	2419	4	3003	0	3143
1	0	0	2229	4	3002	0	3143
2	0	0	2029	4	3002	0	3145
3	0	0	1833	4	3003	0	3145
4	0	0	1643	4	3004	0	3146
5	0	0	1496	4	3006	0	3146
6	0	0	1422	4	3005	0	3144
7	0	0	1386	4	3005	0	3143
8	0	0	1228	5	3007	0	3141
9	0	0	1319	5	3007	0	3142
10	0	0	1576	5	3006	0	3142
11	0	0	1813	5	3006	0	3143
12	0	0	2141	5	3006	0	3144
13	0	0	2430	5	3004	0	3145
14	0	0	2592	5	3004	0	3146
15	0	0	2664	5	3002	0	3146
16	0	0	2716	5	3002	0	3146
17	0	0	2729	7	3001	0	3142
18	0	0	2770	6	3000	0	3141
19	0	0	2654	4	3001	0	3141
20	0	0	2433	4	2998	0	3142
21	0	0	2238	5	3000	0	3143
22	0	0	2026	4	3002	0	3144
23	0	0	1823	3	3002	0	3145
24	0	0	1632	4	3004	0	3146
25	0	0	1486	4	3002	0	3146
26	0	0	1411	5	3005	0	3145
27	0	0	1378	4	3005	0	3143
28	0	0	1225	3	3007	0	3142
29	0	0	1311	5	3007	0	3142
30	0	0	1571	5	3006	0	3142
31	0	0	1816	5	3004	0	3143
32	0	0	2148	5	3004	0	3144
33	0	0	2435	4	3003	0	3145
34	0	0	2604	5	3002	0	3146
35	0	0	2697	5	3001	0	3146
36	0	0	2737	6	3000	0	3144
37	0	0	2719	5	2999	0	3143
38	0	0	2750	6	2998	0	3141
39	0	0	2643	4	2998	0	3142
40	0	0	2425	4	2999	0	3142
41	0	0	2237	4	2998	0	3143
42	0	0	2031	4	3000	0	3144
43	0	0	1838	4	3000	0	3146
44	0	0	1647	4	3003	0	3147
45	0	0	1497	4	3003	0	3147
46	0	0	1419	4	3004	0	3146
47	0	0	1375	4	3004	0	3143
48	0	0	1216	4	3006	0	3141
49	0	0	1304	5	3007	0	3141
50	0	0	1563	5	3005	0	3142
51	0	0	1807	5	3005	0	3143
52	0	0	2137	5	3003	0	3144
53	0	0	2425	4	3003	0	3145
54	0	0	2570	5	3001	0	3146
55	0	0	2665	5	2999	0	3146
56	0	0	2724	5	2997	0	3145
57	0	0	2733	5	3000	0	3152
58	0	0	2769	5	3000	0	3141
59	0	0	2660	4	3000	0	3141
60	0	0	2432	4	2999	0	3143
61	0	0	2236	4	2999	0	3143
62	0	0	2034	4	2999	0	3145
63	0	0	1835	4	2999	0	3145
64	0	0	1639	3	3002	0	3146
65	0	0	1495	4	3001	0	3146
66	0	0	1420	4	3002	0	3145
67	0	0	1385	4	3004	0	3143
68	0	0	1226	4	3004	0	3141
69	0	0	1310	5	3006	0	3142
70	0	0	1572	5	3004	0	3143
71	0	0	1820	5	3004	0	3143
72	0	0	2152	5	3003	0	3144
73	0	0	2437	5	3002	0	3146
74	0	0	2600	5	3003	0	3147
75	0	0	2690	5	3000	0	3146
76	0	0	2731	5	3001	0	3146
77	0	0	2723	5	2997	0	3143
78	0	0	2759	5	2998	0	3142
79	0	0	2652	4	2999	0	3142
80	0	0	2436	4	3000	0	3143
81	0	0	2241	4	2998	0	3143
82	0	0	2032	4	3000	0	3146
83	0	0	1830	4	3001	0	3146
84	0	0	1637	4	3002	0	3147
85	0	0	1491	4	3001	0	3146
86	0	0	1419	3	3002	0	3145
87	0	0	1389	4	3004	0	3143
88	0	0	1234	4	3003	0	3141
89	0	0	1314	4	3004	0	3142
90	0	0	1568	5	3003	0	3143
91	0	0	1812	5	3002	0	3143
92	0	0	2143	5	3003	0	3145
93	0	0	2429	5	3002	0	3146
94	0	0	2574	5	3001	0	3146
95	0	0	2678	5	2999	0	3147
96	0	0	2737	5	2999	0	3146
97	0	0	2744	5	2999	0	3143
98	0	0	2783	6	2997	0	3141
99	0	0	2675	4	2998	0	3141
100	0	0	2448	4	2997	0	3143
101	0	0	2247	5	2998	0	3143
102	0	0	2040	4	2999	0	3145
103	0	0	1840	5	2997	0	3146
104	0	0	1647	4	3001	0	3147
105	0	0	1499	4	3000	0	3146
106	0	0	1422	4	3000	0	3145
107	0	0	1384	4	3003	0	3143
108	0	0	1224	4	3004	0	3142
109	0	0	1301	4	3004	0	3142
110	0	0	1558	5	3001	0	3143
111	0	0	1803	5	3001	0	3144
112	0	0	2137	5	3001	0	3145
113	0	0	2425	4	3000	0	3146
114	0	0	2590	5	2999	0	3146
115	0	0	2683	5	2998	0	3147
116	0	0	2729	5	2996	0	3145
117	0	0	2725	5	2997	0	3144
118	0	0	2760	5	2996	0	3142
119	0	0	2653	4	2996	0	3141
120	0	0	2436	4	2996	0	3143
121	0	0	2244	4	2996	0	3143
122	0	0	2038	4	2995	0	3145
123	0	0	1840	4	2998	0	3146
124	0	0	1648	4	2998	0	3146
125	0	0	1500	4	2998	0	3147
126	0	0	1426	4	2999	0	3145
127	0	0	1393	4	3001	0	3143
0	0	0	1230	4	3002	0	3142
1	0	0	1309	5	3003	0	3143
2	0	0	1567	5	3002	0	3143
3	0	0	1808	5	3002	0	3143
4	0	0	2140	5	3000	0	3145
5	0	0	2421	5	2998	0	3145
6	0	0	2572	5	2998	0	3146
7	0	0	2676	5	2997	0	3146
8	0	0	2735	5	2995	0	3145
9	0	0	2729	5	2995	0	3144
10	0	0	2762	5	2996	0	3142
11	0	0	2662	4	2994	0	3142
12	0	0	2440	4	2994	0	3143
13	0	0	2246	4	2995	0	3145
14	0	0	2038	4	2996	0	3145
15	0	0	1844	4	2997	0	3146
16	0	0	1651	4	2997	0	3147
17	0	0	1502	4	3000	0	3147
18	0	0	1420	4	2998	0	3145
19	0	0	1378	4	3000	0	3144
20	0	0	1213	4	3000	0	3142
21	0	0	1285	5	3000	0	3142
22	0	0	1543	5	3000	0	3142
23	0	0	1790	5	2998	0	3143
24	0	0	2120	5	2997	0	3144
25	0	0	2406	5	2996	0	3146
26	0	0	2579	5	2996	0	3147
27	0	0	2675	5	2995	0	3147
28	0	0	2718	6	2994	0	3145
29	0	0	2711	5	2994	0	3144
30	0	0	2756	5	2993	0	3142
31	0	0	2657	4	2992	0	3142
32	0	0	2437	4	2993	0	3143
33	0	0	2240	4	2991	0	3144
34	0	0	2032	4	2992	0	3145
35	0	0	1832	3	2993	0	3146
36	0	0	1640	4	2996	0	3146
37	0	0	1495	4	2995	0	3147
38	0	0	1423	4	2995	0	3145
39	0	0	1391	4	2997	0	3143
40	0	0	1225	5	2999	0	3142
41	0	0	1303	5	2999	0	3143
42	0	0	1558	5	2998	0	3143
43	0	0	1800	5	2999	0	3144
44	0	0	2128	6	2995	0	3145
45	0	0	2397	6	2995	0	3146
46	0	0	2565	4	2994	0	3148
47	0	0	2674	5	2993	0	3147
48	0	0	2731	6	2990	0	3144
49	0	0	2724	5	2993	0	3145
50	0	0	2761	5	2991	0	3143
51	0	0	2658	4	2991	0	3143
52	0	0	2431	4	2991	0	3143
53	0	0	2236	4	2992	0	3144
54	0	0	2027	4	2991	0	3145
55	0	0	1826	4	2992	0	3146
56	0	0	1633	4	2994	0	3146
57	0	0	1487	4	2993	0	3146
58	0	0	1412	4	2995	0	3145
59	0	0	1385	4	2996	0	3143
60	0	0	1228	3	2995	0	3142
61	0	0	1303	5	2997	0	3142
62	0	0	1557	5	2996	0	3143
63	0	0	1797	5	2997	0	3145
64	0	0	2119	5	2994	0	3145
65	0	0	2415	5	2993	0	3146
66	0	0	2585	5	2994	0	3147
67	0	0	2678	5	2990	0	3147
68	0	0	2723	5	2992	0	3147
69	0	0	2710	5	2990	0	3143
70	0	0	2744	6	2989	0	3142
71	0	0	2650	4	2989	0	3142
72	0	0	2435	4	2989	0	3143
73	0	0	2243	4	2990	0	3143
74	0	0	2035	4	2990	0	3146
75	0	0	1834	4	2993	0	3147
76	0	0	1637	4	2994	0	3146
77	0	0	1490	4	2994	0	3147
78	0	0	1412	4	2993	0	3145
79	0	0	1382	4	2995	0	3145
80	0	0	1219	4	2997	0	3143
81	0	0	1288	5	2996	0	3143
82	0	0	1542	5	2997	0	3144
83	0	0	1782	5	2995	0	3144
84	0	0	2107	5	2992	0	3145
85	0	0	2382	5	2992	0	3146
86	0	0	2558	5	2992	0	3147
87	0	0	2670	5	2990	0	3147
88	0	0	2729	5	2989	0	3145
89	0	0	2726	5	2987	0	3143
90	0	0	2763	5	2988	0	3142
91	0	0	2665	4	2988	0	3142
92	0	0	2447	5	2988	0	3143
93	0	0	2250	4	2988	0	3144
94	0	0	2041	4	2989	0	3146
95	0	0	1837	4	2990	0	3147
96	0	0	1640	4	2991	0	3147
97	0	0	1493	4	2992	0	3148
98	0	0	1415	4	2991	0	3146
99	0	0	1385	4	2992	0	3144
100	0	0	1226	4	2993	0	3143
101	0	0	1297	5	2995	0	3142
102	0	0	1551	5	2992	0	3143
103	0	0	1791	5	2993	0	3144
104	0	0	2113	6	2993	0	3145
105	0	0	2410	5	2990	0	3146
106	0	0	2581	5	2990	0	3147
107	0	0	2679	5	2990	0	3147
108	0	0	2724	5	2987	0	3145
109	0	0	2717	5	2987	0	3145
110	0	0	2751	5	2985	0	3142
111	0	0	2658	4	2985	0	3142
112	0	0	2444	4	2986	0	3143
113	0	0	2247	4	2986	0	3144
114	0	0	2042	3	2987	0	3145
115	0	0	1845	4	2987	0	3146
116	0	0	1651	4	2988	0	3147
117	0	0	1501	4	2989	0	3147
118	0	0	1423	4	2989	0	3146
119	0	0	1388	4	2989	0	3144
120	0	0	1228	5	2992	0	3142
121	0	0	1300	5	2991	0	3143
122	0	0	1554	5	2993	0	3143
123	0	0	1791	5	2992	0	3145
124	0	0	2099	5	2990	0	3145
125	0	0	2375	5	2989	0	3146
126	0	0	2559	5	2987	0	3147
127	0	0	2676	5	2987	0	3147
0	0	0	2724	5	2986	0	3146
1	0	0	2719	5	2984	0	3143
2	0	0	2752	6	2986	0	3142
3	0	0	2654	4	2985	0	3143
4	0	0	2431	4	2983	0	3143
5	0	0	2237	4	2983	0	3144
6	0	0	2029	5	2985	0	3145
7	0	0	1835	4	2985	0	3146
8	0	0	1644	4	2988	0	3147
9	0	0	1499	4	2988	0	3147
10	0	0	1424	4	2990	0	3147
11	0	0	1390	4	2990	0	3143
12	0	0	1234	4	2990	0	3142
13	0	0	1296	5	2991	0	3143
14	0	0	1553	5	2990	0	3143
15	0	0	1793	5	2988	0	3144
16	0	0	2118	5	2990	0	3145
17	0	0	2413	5	2988	0	3146
18	0	0	2585	5	2988	0	3147
19	0	0	2677	5	2985	0	3147
20	0	0	2718	5	2985	0	3146
21	0	0	2705	5	2986	0	3145
22	0	0	2740	4	2984	0	3143
23	0	0	2641	4	2983	0	3143
24	0	0	2425	4	2985	0	3144
25	0	0	2235	4	2983	0	3144
26	0	0	2030	4	2984	0	3145
27	0	0	1834	4	2985	0	3146
28	0	0	1640	4	2988	0	3147
29	0	0	1492	4	2987	0	3147
30	0	0	1415	4	2988	0	3146
31	0	0	1390	5	2988	0	3144
32	0	0	1232	4	2991	0	3142
33	0	0	1298	5	2992	0	3142
34	0	0	1548	5	2990	0	3143
35	0	0	1786	5	2992	0	3145
36	0	0	2085	5	2988	0	3145
37	0	0	2376	6	2988	0	3147
38	0	0	2565	5	2988	0	3148
39	0	0	2671	5	2987	0	3147
40	0	0	2717	5	2985	0	3146
41	0	0	2705	5	2984	0	3144
42	0	0	2739	5	2984	0	3142
43	0	0	2644	4	2983	0	3143
44	0	0	2426	4	2984	0	3143
45	0	0	2232	4	2985	0	3144
46	0	0	2033	4	2985	0	3146
47	0	0	1836	4	2989	0	3147
48	0	0	1642	4	2988	0	3147
49	0	0	1494	4	2987	0	3147
50	0	0	1420	4	2990	0	3147
51	0	0	1390	4	2990	0	3144
52	0	0	1235	5	2991	0	3142
53	0	0	1294	5	2991	0	3143
54	0	0	1543	5	2991	0	3143
55	0	0	1783	4	2992	0	3144
56	0	0	2102	5	2989	0	3145
57	0	0	2399	5	2987	0	3146
58	0	0	2577	5	2987	0	3147
59	0	0	2675	5	2987	0	3147
60	0	0	2713	5	2986	0	3146
61	0	0	2703	5	2986	0	3145
62	0	0	2737	5	2986	0	3143
63	0	0	2639	4	2986	0	3143
64	0	0	2430	4	2986	0	3144
65	0	0	2232	4	2984	0	3144
66	0	0	2025	4	2985	0	3146
67	0	0	1830	4	2986	0	3147
68	0	0	1637	4	2987	0	3147
69	0	0	1494	4	2988	0	3147
70	0	0	1419	4	2988	0	3146
71	0	0	1385	4	2990	0	3144
72	0	0	1228	4	2991	0	3143
73	0	0	1290	5	2993	0	3143
74	0	0	1546	5	2992	0	3143
75	0	0	1779	4	2992	0	3145
76	0	0	2086	5	2989	0	3145
77	0	0	2389	5	2988	0	3146
78	0	0	2579	5	2989	0	3147
79	0	0	2688	5	2987	0	3147
80	0	0	2734	4	2989	0	3146
81	0	0	2728	5	2987	0	3144
82	0	0	2759	6	2986	0	3142
83	0	0	2661	4	2986	0	3142
84	0	0	2444	4	2985	0	3143
85	0	0	2251	4	2986	0	3144
86	0	0	2048	4	2987	0	3146
87	0	0	1844	4	2989	0	3148
88	0	0	1645	4	2989	0	3147
89	0	0	1494	4	2991	0	3148
90	0	0	1410	4	2991	0	3146
91	0	0	1384	4	2992	0	3144
92	0	0	1228	4	2993	0	3143
93	0	0	1286	5	2994	0	3142
94	0	0	1541	5	2993	0	3143
95	0	0	1786	5	2992	0	3144
96	0	0	2111	5	2990	0	3145
97	0	0	2406	5	2990	0	3147
98	0	0	2584	5	2991	0	3148
99	0	0	2681	5	2988	0	3147
100	0	0	2724	4	2989	0	3148
101	0	0	2720	5	2988	0	3144
102	0	0	2752	5	2988	0	3143
103	0	0	2663	4	2988	0	3143
104	0	0	2450	4	2987	0	3144
105	0	0	2256	4	2988	0	3144
106	0	0	2055	4	2988	0	3146
107	0	0	1866	4	2989	0	3146
108	0	0	1672	3	2991	0	3147
109	0	0	1516	4	2991	0	3147
110	0	0	1431	4	2992	0	3146
111	0	0	1392	4	2992	0	3144
112	0	0	1226	4	2996	0	3143
113	0	0	1283	5	2996	0	3143
114	0	0	1537	5	2994	0	3144
115	0	0	1758	4	2995	0	3145
116	0	0	2074	5	2994	0	3145
117	0	0	2386	5	2992	0	3147
118	0	0	2573	4	2992	0	3156
119	0	0	2675	5	2990	0	3148
120	0	0	2719	5	2989	0	3146
121	0	0	2708	5	2990	0	3145
122	0	0	2743	6	2989	0	3143
123	0	0	2654	4	2989	0	3143
124	0	0	2441	4	2990	0	3144
125	0	0	2247	5	2989	0	3144
126	0	0	2046	4	2989	0	3147
127	0	0	1852	4	2990	0	3147
0	0	0	1659	3	2993	0	3147
1	0	0	1512	4	2993	0	3147
2	0	0	1434	4	2993	0	3146
3	0	0	1412	4	2994	0	3144
4	0	0	1258	4	2996	0	3143
5	0	0	1311	5	2995	0	3143
6	0	0	1561	5	2995	0	3144
7	0	0	1793	5	2994	0	3144
8	0	0	2108	5	2993	0	3146
9	0	0	2400	6	2992	0	3147
10	0	0	2574	5	2992	0	3148
11	0	0	2673	5	2991	0	3148
12	0	0	2714	5	2989	0	3146
13	0	0	2705	5	2989	0	3145
14	0	0	2738	5	2990	0	3144
15	0	0	2647	4	2989	0	3142
16	0	0	2434	4	2990	0	3143
17	0	0	2242	4	2989	0	3144
18	0	0	2040	4	2988	0	3145
19	0	0	1839	4	2990	0	3147
20	0	0	1644	4	2992	0	3148
21	0	0	1495	4	2991	0	3148
22	0	0	1419	4	2994	0	3146
23	0	0	1395	4	2994	0	3144
24	0	0	1239	5	2995	0	3143
25	0	0	1295	6	2996	0	3143
26	0	0	1545	5	2994	0	3144
27	0	0	1765	5	2995	0	3145
28	0	0	2095	5	2993	0	3147
29	0	0	2407	5	2993	0	3148
30	0	0	2594	4	2992	0	3148
31	0	0	2694	5	2991	0	3148
32	0	0	2738	5	2990	0	3146
33	0	0	2726	5	2989	0	3145
34	0	0	2753	5	2989	0	3143
35	0	0	2665	5	2991	0	3143
36	0	0	2451	4	2990	0	3144
37	0	0	2251	3	2989	0	3144
38	0	0	2048	4	2989	0	3145
39	0	0	1850	5	2990	0	3148
40	0	0	1654	4	2991	0	3148
41	0	0	1502	4	2992	0	3148
42	0	0	1423	4	2993	0	3147
43	0	0	1398	4	2995	0	3146
44	0	0	1238	4	2996	0	3144
45	0	0	1289	6	2998	0	3143
46	0	0	1538	5	2995	0	3144
47	0	0	1782	5	2995	0	3144
48	0	0	2104	5	2994	0	3146
49	0	0	2401	5	2993	0	3147
50	0	0	2578	5	2992	0	3148
51	0	0	2682	4	2992	0	3148
52	0	0	2730	5	2990	0	3146
53	0	0	2723	5	2988	0	3145
54	0	0	2758	5	2989	0	3143
55	0	0	2676	4	2990	0	3143
56	0	0	2462	4	2989	0	3144
57	0	0	2264	3	2989	0	3144
58	0	0	2056	4	2990	0	3146
59	0	0	1850	4	2991	0	3147
60	0	0	1652	5	2992	0	3148
61	0	0	1498	4	2992	0	3148
62	0	0	1415	3	2993	0	3147
63	0	0	1386	4	2995	0	3145
64	0	0	1227	4	2994	0	3143
65	0	0	1276	5	2995	0	3144
66	0	0	1515	5	2994	0	3144
67	0	0	1742	4	2996	0	3146
68	0	0	2071	5	2994	0	3146
69	0	0	2391	5	2992	0	3147
70	0	0	2580	6	2991	0	3148
71	0	0	2684	5	2992	0	3148
72	0	0	2729	5	2988	0	3147
73	0	0	2723	5	2988	0	3145
74	0	0	2760	5	2989	0	3143
75	0	0	2671	4	2988	0	3143
76	0	0	2462	4	2988	0	3144
77	0	0	2265	3	2987	0	3145
78	0	0	2061	4	2989	0	3146
79	0	0	1864	4	2989	0	3147
80	0	0	1662	4	2991	0	3149
81	0	0	1508	4	2991	0	3148
82	0	0	1424	4	2992	0	3147
83	0	0	1403	4	2992	0	3145
84	0	0	1244	4	2994	0	3144
85	0	0	1293	4	2995	0	3143
86	0	0	1540	5	2995	0	3145
87	0	0	1778	5	2995	0	3146
88	0	0	2093	5	2992	0	3146
89	0	0	2388	5	2990	0	3148
90	0	0	2566	4	2991	0	3148
91	0	0	2670	5	2988	0	3148
92	0	0	2717	4	2987	0	3147
93	0	0	2717	5	2988	0	3146
94	0	0	2747	5	2988	0	3145
95	0	0	2656	4	2987	0	3143
96	0	0	2441	4	2987	0	3144
97	0	0	2248	4	2988	0	3146
98	0	0	2054	4	2989	0	3146
99	0	0	1861	4	2988	0	3147
100	0	0	1669	4	2990	0	3149
101	0	0	1514	4	2990	0	3148
102	0	0	1433	3	2992	0	3148
103	0	0	1402	4	2991	0	3145
104	0	0	1246	4	2992	0	3143
105	0	0	1294	4	2994	0	3144
106	0	0	1522	5	2993	0	3144
107	0	0	1763	5	2992	0	3145
108	0	0	2094	5	2991	0	3146
109	0	0	2411	5	2989	0	3148
110	0	0	2591	5	2989	0	3148
111	0	0	2687	5	2989	0	3149
112	0	0	2726	5	2986	0	3147
113	0	0	2709	4	2986	0	3145
114	0	0	2740	5	2985	0	3143
115	0	0	2656	4	2987	0	3144
116	0	0	2442	4	2984	0	3144
117	0	0	2249	4	2987	0	3145
118	0	0	2049	4	2985	0	3146
119	0	0	1851	5	2987	0	3148
120	0	0	1652	4	2987	0	3148
121	0	0	1507	4	2988	0	3148
122	0	0	1426	4	2989	0	3147
123	0	0	1401	4	2989	0	3145
124	0	0	1244	5	2993	0	3144
125	0	0	1290	4	2991	0	3144
126	0	0	1541	5	2990	0	3145
127	0	0	1785	5	2991	0	3145
0	0	0	2098	5	2990	0	3147
1	0	0	2404	5	2990	0	3148
2	0	0	2585	5	2988	0	3148
3	0	0	2686	5	2985	0	3148
4	0	0	2735	4	2986	0	3148
5	0	0	2724	5	2985	0	3145
6	0	0	2759	4	2983	0	3143
7	0	0	2673	4	2984	0	3144
8	0	0	2455	4	2982	0	3144
9	0	0	2259	4	2984	0	3145
10	0	0	2059	4	2985	0	3147
11	0	0	1863	4	2986	0	3149
12	0	0	1670	3	2986	0	3149
13	0	0	1519	4	2987	0	3149
14	0	0	1436	4	2989	0	3148
15	0	0	1406	4	2990	0	3146
16	0	0	1246	4	2990	0	3144
17	0	0	1285	5	2990	0	3145
18	0	0	1512	5	2988	0	3144
19	0	0	1770	5	2990	0	3146
20	0	0	2104	5	2989	0	3146
21	0	0	2409	5	2986	0	3147
22	0	0	2587	4	2986	0	3148
23	0	0	2688	5	2984	0	3148
24	0	0	2734	5	2983	0	3147
25	0	0	2728	5	2982	0	3145
26	0	0	2759	5	2982	0	3144
27	0	0	2677	3	2983	0	3144
28	0	0	2471	4	2984	0	3145
29	0	0	2271	4	2982	0	3145
30	0	0	2067	4	2982	0	3147
31	0	0	1867	4	2985	0	3148
32	0	0	1671	4	2986	0	3150
33	0	0	1520	4	2985	0	3149
34	0	0	1440	4	2984	0	3148
35	0	0	1417	4	2987	0	3146
36	0	0	1262	4	2988	0	3144
37	0	0	1301	4	2990	0	3144
38	0	0	1549	4	2989	0	3144
39	0	0	1786	5	2989	0	3146
40	0	0	2096	5	2987	0	3146
41	0	0	2389	5	2985	0	3148
42	0	0	2569	4	2984	0	3149
43	0	0	2672	5	2983	0	3148
44	0	0	2721	5	2981	0	3148
45	0	0	2721	5	2982	0	3146
46	0	0	2750	5	2980	0	3144
47	0	0	2667	4	2981	0	3144
48	0	0	2457	4	2980	0	3145
49	0	0	2266	4	2982	0	3146
50	0	0	2069	4	2981	0	3147
51	0	0	1878	5	2982	0	3148
52	0	0	1688	3	2984	0	3149
53	0	0	1541	4	2984	0	3149
54	0	0	1458	4	2984	0	3147
55	0	0	1439	4	2985	0	3146
56	0	0	1290	4	2988	0	3144
57	0	0	1310	5	2988	0	3144
58	0	0	1541	5	2987	0	3145
59	0	0	1785	5	2988	0	3146
60	0	0	2101	6	2985	0	3148
61	0	0	2394	5	2983	0	3148
62	0	0	2573	5	2985	0	3149
63	0	0	2667	5	2981	0	3148
64	0	0	2707	5	2983	0	3149
65	0	0	2696	5	2981	0	3146
66	0	0	2720	5	2979	0	3144
67	0	0	2635	4	2980	0	3144
68	0	0	2431	4	2978	0	3145
69	0	0	2248	4	2978	0	3145
70	0	0	2059	3	2981	0	3146
71	0	0	1873	4	2981	0	3148
72	0	0	1685	3	2981	0	3149
73	0	0	1537	4	2985	0	3149
74	0	0	1458	3	2983	0	3147
75	0	0	1438	4	2985	0	3146
76	0	0	1295	4	2986	0	3145
77	0	0	1333	4	2984	0	3144
78	0	0	1567	5	2985	0	3145
79	0	0	1790	5	2984	0	3145
80	0	0	2092	5	2984	0	3147
81	0	0	2379	5	2983	0	3148
82	0	0	2553	5	2982	0	3149
83	0	0	2648	5	2981	0	3149
84	0	0	2690	5	2979	0	3149
85	0	0	2676	4	2978	0	3146
86	0	0	2687	5	2977	0	3144
87	0	0	2608	4	2976	0	3144
88	0	0	2415	4	2979	0	3145
89	0	0	2234	4	2978	0	3145
90	0	0	2052	4	2979	0	3147
91	0	0	1873	4	2978	0	3148
92	0	0	1688	4	2980	0	3148
93	0	0	1540	4	2981	0	3149
94	0	0	1467	4	2982	0	3148
95	0	0	1443	4	2983	0	3146
96	0	0	1291	4	2984	0	3144
97	0	0	1302	5	2983	0	3144
98	0	0	1547	5	2984	0	3145
99	0	0	1789	5	2982	0	3146
100	0	0	2092	5	2983	0	3147
101	0	0	2379	5	2981	0	3148
102	0	0	2552	5	2981	0	3149
103	0	0	2648	5	2978	0	3149
104	0	0	2689	5	2979	0	3149
105	0	0	2678	4	2977	0	3146
106	0	0	2699	5	2976	0	3144
107	0	0	2616	3	2977	0	3144
108	0	0	2419	4	2978	0	3145
109	0	0	2238	4	2975	0	3145
110	0	0	2055	4	2976	0	3147
111	0	0	1873	4	2978	0	3148
112	0	0	1691	3	2978	0	3149
113	0	0	1544	3	2979	0	3149
114	0	0	1461	4	2980	0	3148
115	0	0	1438	4	2981	0	3146
116	0	0	1292	3	2982	0	3145
117	0	0	1322	5	2983	0	3144
118	0	0	1547	5	2980	0	3145
119	0	0	1769	5	2981	0	3147
120	0	0	2067	5	2981	0	3147
121	0	0	2356	5	2979	0	3148
122	0	0	2530	5	2980	0	3149
123	0	0	2631	5	2976	0	3149
124	0	0	2677	4	2975	0	3148
125	0	0	2671	5	2975	0	3145
126	0	0	2689	5	2975	0	3144
127	0	0	2612	3	2975	0	3144
0	0	0	2418	4	2975	0	3144
1	0	0	2239	4	2975	0	3145
2	0	0	2059	4	2974	0	3148
3	0	0	1877	4	2977	0	3149
4	0	0	1694	3	2978	0	3149
5	0	0	1550	4	2980	0	3150
6	0	0	1464	4	2977	0	3148
7	0	0	1443	4	2978	0	3146
8	0	0	1291	4	2982	0	3145
9	0	0	1307	4	2979	0	3144
10	0	0	1552	5	2980	0	3144
11	0	0	1792	5	2979	0	3145
12	0	0	2091	5	2977	0	3146
13	0	0	2381	5	2978	0	3148
14	0	0	2551	5	2977	0	3149
15	0	0	2644	5	2975	0	3148
16	0	0	2685	4	2974	0	3148
17	0	0	2675	5	2973	0	3146
18	0	0	2688	5	2973	0	3144
19	0	0	2611	4	2973	0	3145
20	0	0	2421	4	2973	0	3146
21	0	0	2244	4	2973	0	3146
22	0	0	2062	4	2973	0	3147
23	0	0	1876	4	2975	0	3148
24	0	0	1689	3	2975	0	3149
25	0	0	1544	4	2975	0	3148
26	0	0	1464	4	2977	0	3148
27	0	0	1444	4	2977	0	3146
28	0	0	1298	4	2979	0	3144
29	0	0	1328	4	2978	0	3144
30	0	0	1558	5	2979	0	3144
31	0	0	1781	5	2977	0	3145
32	0	0	2069	5	2977	0	3148
33	0	0	2355	5	2977	0	3149
34	0	0	2530	5	2974	0	3149
35	0	0	2632	5	2972	0	3148
36	0	0	2686	6	2972	0	3148
37	0	0	2689	5	2971	0	3146
38	0	0	2708	6	2971	0	3145
39	0	0	2633	4	2972	0	3145
40	0	0	2432	4	2970	0	3145
41	0	0	2251	4	2971	0	3145
42	0	0	2064	4	2970	0	3147
43	0	0	1883	4	2971	0	3148
44	0	0	1697	4	2974	0	3149
45	0	0	1545	4	2975	0	3148
46	0	0	1459	4	2976	0	3148
47	0	0	1428	4	2978	0	3147
48	0	0	1261	4	2979	0	3145
49	0	0	1288	5	2977	0	3144
50	0	0	1536	5	2976	0	3145
51	0	0	1776	5	2978	0	3140
52	0	0	2079	5	2976	0	3147
53	0	0	2378	5	2974	0	3148
54	0	0	2554	4	2973	0	3149
55	0	0	2653	5	2971	0	3149
56	0	0	2700	5	2970	0	3148
57	0	0	2686	5	2970	0	3146
58	0	0	2705	5	2968	0	3144
59	0	0	2638	4	2970	0	3144
60	0	0	2439	4	2970	0	3144
61	0	0	2255	4	2969	0	3145
62	0	0	2064	4	2970	0	3147
63	0	0	1880	4	2969	0	3148
64	0	0	1691	4	2972	0	3149
65	0	0	1538	4	2972	0	3149
66	0	0	1455	4	2973	0	3148
67	0	0	1432	4	2975	0	3146
68	0	0	1276	4	2975	0	3144
69	0	0	1297	5	2975	0	3145
70	0	0	1536	5	2976	0	3146
71	0	0	1770	4	2975	0	3146
72	0	0	2066	5	2972	0	3148
73	0	0	2361	5	2975	0	3149
74	0	0	2543	5	2970	0	3149
75	0	0	2649	5	2970	0	3148
76	0	0	2696	5	2968	0	3148
77	0	0	2692	4	2968	0	3146
78	0	0	2721	5	2968	0	3144
79	0	0	2649	4	2968	0	3144
80	0	0	2450	4	2966	0	3145
81	0	0	2263	4	2966	0	3145
82	0	0	2075	4	2968	0	3147
83	0	0	1887	4	2967	0	3148
84	0	0	1691	4	2970	0	3149
85	0	0	1534	4	2969	0	3149
86	0	0	1447	4	2972	0	3149
87	0	0	1424	4	2973	0	3147
88	0	0	1253	5	2973	0	3145
89	0	0	1290	5	2974	0	3144
90	0	0	1546	5	2975	0	3146
91	0	0	1790	5	2972	0	3145
92	0	0	2084	5	2972	0	3147
93	0	0	2378	5	2972	0	3149
94	0	0	2554	5	2970	0	3149
95	0	0	2653	5	2969	0	3149
96	0	0	2698	5	2966	0	3148
97	0	0	2697	5	2965	0	3146
98	0	0	2718	5	2965	0	3144
99	0	0	2651	4	2967	0	3145
100	0	0	2456	4	2966	0	3145
101	0	0	2268	4	2966	0	3146
102	0	0	2081	4	2966	0	3147
103	0	0	1898	4	2968	0	3149
104	0	0	1702	4	2968	0	3149
105	0	0	1546	4	2968	0	3149
106	0	0	1456	4	2970	0	3148
107	0	0	1429	4	2971	0	3147
108	0	0	1272	4	2973	0	3145
109	0	0	1291	5	2971	0	3144
110	0	0	1531	5	2973	0	3146
111	0	0	1768	5	2972	0	3146
112	0	0	2066	5	2969	0	3147
113	0	0	2359	5	2969	0	3148
114	0	0	2543	5	2968	0	3149
115	0	0	2647	5	2967	0	3149
116	0	0	2699	5	2967	0	3149
117	0	0	2698	5	2967	0	3146
118	0	0	2721	5	2964	0	3145
119	0	0	2656	4	2964	0	3145
120	0	0	2460	4	2963	0	3145
121	0	0	2272	4	2964	0	3146
122	0	0	2081	4	2964	0	3147
123	0	0	1893	4	2966	0	3148
124	0	0	1699	4	2967	0	3149
125	0	0	1541	4	2967	0	3149
126	0	0	1449	4	2968	0	3148
127	0	0	1409	3	2967	0	3146
0	0	0	1255	4	2972	0	3145
1	0	0	1285	5	2969	0	3145
2	0	0	1540	5	2970	0	3148
3	0	0	1777	5	2969	0	3146
4	0	0	2069	5	2967	0	3148
5	0	0	2369	5	2967	0	3149
6	0	0	2552	5	2965	0	3149
7	0	0	2658	5	2965	0	3150
8	0	0	2705	5	2962	0	3148
9	0	0	2703	5	2963	0	3147
10	0	0	2726	5	2962	0	3145
11	0	0	2654	4	2963	0	3145
12	0	0	2451	4	2962	0	3145
13	0	0	2259	4	2962	0	3146
14	0	0	2065	3	2961	0	3147
15	0	0	1881	4	2965	0	3148
16	0	0	1688	4	2966	0	3150
17	0	0	1533	4	2965	0	3149
18	0	0	1444	4	2968	0	3149
19	0	0	1422	4	2968	0	3147
20	0	0	1277	4	2968	0	3145
21	0	0	1295	5	2968	0	3145
22	0	0	1532	5	2967	0	3145
23	0	0	1769	5	2967	0	3146
24	0	0	2058	6	2966	0	3148
25	0	0	2361	5	2965	0	3149
26	0	0	2550	5	2964	0	3150
27	0	0	2657	5	2963	0	3150
28	0	0	2706	5	2961	0	3148
29	0	0	2707	4	2961	0	3147
30	0	0	2728	5	2961	0	3145
31	0	0	2657	4	2960	0	3145
32	0	0	2463	4	2961	0	3146
33	0	0	2276	5	2960	0	3146
34	0	0	2085	4	2961	0	3148
35	0	0	1899	4	2961	0	3149
36	0	0	1703	4	2963	0	3149
37	0	0	1543	4	2964	0	3150
38	0	0	1449	4	2965	0	3148
39	0	0	1399	5	2965	0	3147
40	0	0	1251	4	2966	0	3145
41	0	0	1283	5	2967	0	3145
42	0	0	1533	6	2960	0	3145
43	0	0	1773	5	2965	0	3146
44	0	0	2066	4	2963	0	3148
45	0	0	2370	4	2962	0	3149
46	0	0	2553	5	2960	0	3149
47	0	0	2654	5	2960	0	3149
48	0	0	2701	5	2961	0	3149
49	0	0	2701	5	2960	1	3147
50	0	0	2722	5	2960	0	3145
51	0	0	2656	4	2958	0	3145
52	0	0	2456	4	2960	0	3145
53	0	0	2266	4	2958	0	3146
54	0	0	2075	5	2960	0	3147
55	0	0	1887	4	2959	0	3149
56	0	0	1694	4	2960	0	3150
57	0	0	1540	4	2961	0	3149
58	0	0	1449	4	2961	0	3149
59	0	0	1419	4	2964	0	3148
60	0	0	1277	3	2965	0	3146
61	0	0	1290	5	2964	0	3145
62	0	0	1524	5	2965	0	3146
63	0	0	1759	5	2964	0	3146
64	0	0	2052	5	2961	0	3148
65	0	0	2350	5	2962	0	3148
66	0	0	2536	5	2960	0	3149
67	0	0	2647	6	2959	0	3149
68	0	0	2698	5	2958	0	3148
69	0	0	2702	4	2957	0	3147
70	0	0	2720	5	2956	0	3145
71	0	0	2651	4	2958	0	3145
72	0	0	2458	4	2956	0	3146
73	0	0	2271	4	2958	0	3147
74	0	0	2082	4	2958	0	3148
75	0	0	1894	4	2958	0	3149
76	0	0	1704	4	2959	0	3150
77	0	0	1546	4	2960	0	3151
78	0	0	1448	4	2960	0	3149
79	0	0	1402	5	2961	0	3147
80	0	0	1268	4	2963	0	3145
81	0	0	1300	4	2962	0	3145
82	0	0	1542	5	2962	0	3145
83	0	0	1774	5	2961	0	3146
84	0	0	2061	4	2961	0	3147
85	0	0	2357	5	2959	0	3149
86	0	0	2538	5	2959	0	3150
87	0	0	2638	5	2956	0	3150
88	0	0	2687	5	2956	0	3150
89	0	0	2693	5	2956	0	3147
90	0	0	2709	5	2955	0	3145
91	0	0	2654	4	2954	0	3145
92	0	0	2462	4	2953	0	3146
93	0	0	2272	4	2955	0	3147
94	0	0	2083	4	2954	0	3148
95	0	0	1894	4	2956	0	3149
96	0	0	1696	4	2956	0	3150
97	0	0	1542	4	2958	0	3150
98	0	0	1457	4	2958	0	3148
99	0	0	1435	4	2959	0	3147
100	0	0	1295	4	2961	0	3146
101	0	0	1307	5	2961	0	3145
102	0	0	1537	5	2960	0	3146
103	0	0	1768	5	2959	0	3146
104	0	0	2051	5	2957	0	3148
105	0	0	2346	5	2958	0	3149
106	0	0	2531	5	2955	0	3150
107	0	0	2635	5	2954	0	3150
108	0	0	2684	5	2953	0	3149
109	0	0	2685	4	2953	0	3147
110	0	0	2696	5	2953	0	3146
111	0	0	2631	4	2954	0	3146
112	0	0	2436	4	2952	0	3145
113	0	0	2256	4	2954	0	3147
114	0	1	2076	4	2953	0	3148
115	0	1	1892	4	2954	0	3149
116	0	1	1702	4	2955	0	3150
117	0	1	1551	4	2955	0	3149
118	0	1	1455	4	2956	0	3149
119	0	1	1413	4	2957	0	3147
120	0	1	1274	4	2959	0	3145
121	0	1	1287	5	2959	0	3145
122	0	1	1518	5	2958	0	3146
123	0	1	1754	5	2957	0	3147
124	0	1	2048	5	2956	0	3148
125	0	1	2346	5	2956	0	3150
126	0	1	2530	5	2954	0	3150
127	0	1	2634	5	2952	0	3150
0	0	1	2685	4	2953	0	3150
1	0	1	2687	5	2952	0	3147
2	0	1	2692	5	2951	0	3145
3	0	1	2630	4	2950	0	3144
4	0	1	2445	6	2952	0	3144
5	0	1	2260	4	2950	0	3146
6	0	1	2077	4	2950	0	3148
7	0	1	1897	4	2951	0	3149
8	0	1	1709	4	2954	0	3151
9	0	1	1556	4	2953	0	3149
10	0	1	1473	4	2955	0	3149
11	0	1	1452	4	2954	0	3147
12	0	1	1316	4	2956	0	3146
13	0	1	1324	5	2956	0	3146
14	0	1	1548	5	2957	0	3147
15	0	1	1774	5	2954	0	3147
16	1	1	2050	5	2953	0	3148
17	1	1	2351	5	2955	0	3149
18	1	1	2535	5	2954	0	3150
19	1	1	2631	5	2956	0	3150
20	1	1	2678	5	2956	0	3150
21	1	1	2677	5	2955	0	3147
22	1	1	2694	5	2956	0	3146
23	1	1	2638	4	2953	0	3146
24	1	1	2454	4	2955	0	3147
25	1	1	2271	5	2956	0	3147
26	1	1	2092	4	2955	0	3148
27	1	1	1914	4	2957	0	3149
28	1	1	1729	4	2957	0	3150
29	1	1	1578	4	2958	0	3151
30	1	1	1471	4	2959	0	3149
31	1	1	1451	4	2960	0	3148
32	1	1	1330	4	2962	0	3147
33	1	1	1347	5	2964	0	3147
34	1	1	1570	5	2961	0	3147
35	1	1	1791	4	2959	0	3147
36	1	1	2066	5	2958	0	3148
37	1	1	2351	5	2958	0	3149
38	1	1	2530	5	2957	0	3150
39	1	1	2631	5	2953	0	3150
40	1	1	2675	5	2954	0	3149
41	1	1	2672	4	2953	0	3147
42	1	1	2678	5	2953	0	3146
43	1	1	2614	4	2952	0	3147
44	1	1	2426	4	2952	0	3146
45	1	1	2249	4	2952	0	3148
46	1	1	2075	4	2954	1	3149
47	1	1	1894	4	2953	0	3150
48	1	1	1706	4	2954	0	3151
49	1	1	1555	4	2954	0	3150
50	1	1	1468	4	2956	0	3150
51	1	1	1447	4	2958	0	3148
52	1	1	1314	4	2958	0	3147
53	1	1	1324	5	2959	0	3146
54	1	1	1547	5	2958	0	3146
55	1	1	1770	5	2958	0	3147
56	1	1	2044	5	2956	0	3148
57	1	1	2336	5	2955	0	3149
58	1	1	2516	5	2953	0	3150
59	1	1	2613	5	2952	0	3150
60	1	1	2661	4	2952	0	3150
61	1	1	2662	5	2950	0	3148
62	1	1	2666	5	2949	0	3146
63	1	1	2603	4	2951	0	3146
64	1	1	2416	4	2947	0	3146
65	1	1	2238	4	2949	0	3147
66	1	1	2058	4	2949	0	3149
67	1	1	1886	4	2950	0	3150
68	1	1	1710	4	2952	0	3151
69	1	1	1559	4	2951	0	3150
70	1	1	1452	4	2952	0	3150
71	1	1	1436	4	2953	0	3148
72	1	1	1319	4	2954	0	3146
73	1	1	1338	5	2955	0	3146
74	1	1	1559	5	2955	0	3147
75	1	1	1781	5	2953	0	3147
76	1	1	2055	5	2952	0	3149
77	1	1	2339	5	2953	0	3151
78	1	1	2515	5	2951	0	3151
79	1	1	2615	5	2950	0	3151
80	1	1	2662	5	2945	0	3150
81	1	1	2667	5	2946	0	3149
82	1	1	2678	5	2947	0	3147
83	1	1	2613	5	2947	0	3146
84	1	1	2426	5	2946	0	3146
85	1	1	2240	3	2945	0	3147
86	1	1	2064	4	2946	0	3148
87	1	1	1889	4	2947	0	3150
88	1	1	1707	4	2949	0	3151
89	1	1	1558	4	2949	0	3150
90	1	1	1472	3	2948	0	3150
91	1	1	1448	4	2950	0	3148
92	1	1	1317	4	2952	0	3146
93	1	1	1320	5	2952	0	3146
94	1	1	1545	5	2951	0	3146
95	1	1	1773	4	2952	0	3148
96	1	1	2044	5	2950	0	3149
97	1	1	2332	4	2949	0	3150
98	1	1	2518	5	2947	0	3151
99	1	1	2616	5	2946	0	3151
100	1	1	2668	5	2946	0	3150
101	1	1	2669	5	2944	0	3149
102	1	1	2673	5	2945	0	3147
103	1	1	2610	4	2942	0	3146
104	1	1	2428	4	2944	0	3146
105	1	1	2248	4	2944	0	3148
106	1	1	2076	4	2945	0	3149
107	1	1	1899	4	2945	0	3150
108	1	1	1712	4	2947	0	3151
109	1	1	1544	4	2947	0	3151
110	1	1	1445	4	2948	0	3150
111	1	1	1445	4	2949	0	3148
112	1	1	1326	4	2951	0	3144
113	1	1	1334	5	2950	0	3147
114	1	1	1559	5	2951	0	3148
115	1	1	1781	4	2948	0	3148
116	1	1	2058	5	2948	0	3150
117	1	1	2350	5	2948	0	3151
118	1	1	2529	5	2945	0	3151
119	1	1	2625	5	2943	0	3151
120	1	1	2672	5	2943	0	3151
121	1	1	2665	4	2944	0	3148
122	1	1	2669	5	2941	0	3146
123	1	1	2616	4	2941	0	3147
124	1	1	2433	4	2940	0	3147
125	1	1	2256	3	2943	0	3148
126	1	1	2082	4	2942	0	3149
127	1	1	1906	4	2944	0	3150
0	1	1	1727	4	2945	0	3151
1	1	1	1573	4	2945	0	3151
2	1	1	1484	4	2945	0	3150
3	1	1	1458	4	2947	0	3149
4	1	1	1318	5	2949	0	3148
5	1	1	1316	5	2947	0	3147
6	1	1	1545	5	2947	0	3148
7	1	1	1773	5	2947	0	3148
8	1	1	2041	5	2946	0	3149
9	1	1	2339	5	2945	0	3150
10	1	1	2521	5	2944	0	3152
11	1	1	2617	5	2940	0	3150
12	1	1	2664	4	2941	0	3151
13	1	1	2667	4	2941	0	3149
14	1	1	2671	5	2938	0	3147
15	1	1	2618	4	2939	0	3147
16	1	1	2435	4	2938	0	3147
17	1	1	2251	4	2939	0	3148
18	1	1	2083	4	2941	0	3150
19	1	1	1914	4	2941	0	3151
20	1	1	1727	4	2942	0	3152
21	1	1	1554	4	2944	0	3152
22	1	1	1468	4	2944	0	3151
23	1	1	1465	4	2944	0	3149
24	1	1	1336	4	2945	0	3148
25	1	1	1336	5	2946	0	3147
26	1	1	1550	5	2944	0	3147
27	1	1	1772	4	2945	0	3148
28	1	1	2039	5	2944	0	3149
29	1	1	2331	5	2942	0	3150
30	1	1	2512	5	2940	0	3151
31	1	1	2611	5	2939	0	3151
32	1	1	2657	4	2938	0	3151
33	1	1	2661	5	2939	0	3149
34	1	1	2671	5	2937	0	3147
35	1	1	2611	4	2939	0	3147
36	1	1	2424	4	2937	0	3147
37	1	1	2243	4	2937	0	3149
38	1	1	2068	4	2937	0	3150
39	1	1	1891	4	2939	0	3151
40	1	1	1705	4	2942	0	3152
41	1	1	1558	4	2940	0	3151
42	1	1	1476	4	2942	0	3151
43	1	1	1458	4	2941	0	3149
44	1	1	1327	4	2944	0	3148
45	1	1	1320	5	2942	0	3147
46	1	1	1539	5	2943	0	3147
47	1	1	1761	5	2943	0	3148
48	1	1	2033	5	2940	0	3150
49	1	1	2331	5	2940	0	3151
50	1	1	2515	5	2940	0	3152
51	1	1	2615	5	2936	0	3151
52	1	1	2662	5	2936	0	3151
53	1	1	2663	5	2936	0	3149
54	1	1	2666	5	2936	0	3148
55	1	1	2606	4	2935	0	3148
56	1	1	2422	4	2935	0	3148
57	1	1	2238	4	2936	0	3148
58	1	1	2061	4	2936	0	3149
59	1	1	1889	4	2936	0	3151
60	1	1	1699	4	2937	0	3152
61	1	1	1536	4	2939	0	3152
62	1	1	1460	4	2940	0	3151
63	1	1	1458	4	2940	0	3149
64	1	1	1336	4	2944	0	3148
65	1	1	1336	5	2941	0	3147
66	1	1	1549	5	2942	0	3148
67	1	1	1770	5	2941	0	3148
68	1	1	2039	5	2940	0	3150
69	1	1	2329	4	2939	0	3151
70	1	1	2511	6	2937	0	3152
71	1	1	2617	5	2936	0	3152
72	1	1	2669	5	2934	0	3151
73	1	1	2674	5	2933	0	3149
74	1	1	2679	5	2933	0	3148
75	1	1	2626	4	2933	0	3147
76	1	1	2442	4	2933	0	3147
77	1	1	2261	4	2934	0	3148
78	1	1	2089	4	2936	0	3149
79	1	1	1909	4	2936	0	3151
80	1	1	1720	4	2937	0	3152
81	1	1	1566	4	2938	0	3152
82	1	1	1474	3	2938	0	3151
83	1	1	1452	4	2938	0	3150
84	1	1	1329	4	2941	0	3149
85	1	1	1320	5	2939	0	3148
86	1	1	1540	5	2938	0	3148
87	1	1	1764	5	2939	0	3149
88	1	1	2031	5	2938	0	3150
89	1	1	2324	5	2937	0	3151
90	1	1	2509	5	2935	0	3152
91	1	1	2611	5	2934	0	3151
92	1	1	2665	5	2933	0	3152
93	1	1	2673	5	2933	0	3150
94	1	1	2679	5	2931	0	3148
95	1	1	2625	4	2932	0	3148
96	1	1	2440	4	2931	0	3148
97	1	1	2257	4	2932	0	3148
98	1	1	2082	4	2931	0	3150
99	1	1	1905	4	2932	0	3151
100	1	1	1706	4	2933	0	3152
101	1	1	1555	4	2935	0	3152
102	1	1	1477	4	2935	0	3151
103	1	1	1474	5	2935	0	3143
104	1	1	1352	4	2936	0	3148
105	1	1	1343	5	2936	0	3148
106	1	1	1554	5	2937	0	3148
107	1	1	1781	5	2937	0	3150
108	1	1	2045	5	2936	0	3150
109	1	1	2330	5	2936	0	3151
110	1	1	2511	5	2935	0	3152
111	1	1	2611	5	2932	0	3151
112	1	1	2659	5	2931	0	3151
113	1	1	2667	5	2931	0	3150
114	1	1	2671	5	2931	0	3148
115	1	1	2617	5	2930	0	3148
116	1	1	2436	4	2930	0	3148
117	1	1	2257	4	2930	0	3149
118	1	1	2084	4	2930	0	3150
119	1	1	1915	4	2931	0	3151
120	1	1	1732	4	2932	0	3152
121	1	1	1578	4	2931	0	3152
122	1	1	1487	4	2933	0	3152
123	1	1	1460	4	2936	0	3150
124	1	1	1330	4	2936	0	3148
125	1	1	1325	5	2936	0	3147
126	1	1	1538	5	2936	0	3147
127	1	1	1762	5	2936	0	3149
0	1	1	2023	5	2934	0	3150
1	1	1	2319	5	2934	0	3151
2	1	1	2507	5	2932	0	3152
3	1	1	2610	5	2929	0	3152
4	1	1	2660	5	2928	0	3151
5	1	1	2659	4	2928	0	3150
6	1	1	2660	5	2928	0	3148
7	1	1	2616	4	2926	0	3148
8	1	1	2434	5	2928	0	3148
9	1	1	2256	5	2926	0	3149
10	1	1	2087	4	2928	0	3151
11	1	1	1914	4	2928	0	3152
12	1	1	1712	4	2929	0	3152
13	1	1	1564	4	2931	0	3152
14	1	1	1488	4	2932	0	3151
15	1	1	1475	4	2932	0	3150
16	1	1	1340	4	2935	0	3149
17	1	1	1334	5	2936	0	3148
18	1	1	1550	5	2936	0	3149
19	1	1	1777	5	2932	0	3149
20	1	1	2038	5	2932	0	3150
21	1	1	2330	5	2930	0	3152
22	1	1	2513	5	2931	0	3152
23	1	1	2615	5	2928	0	3152
24	1	1	2657	5	2928	0	3152
25	1	1	2658	5	2928	0	3150
26	1	1	2660	5	2926	0	3148
27	1	1	2610	4	2924	0	3148
28	1	1	2429	4	2926	0	3148
29	1	1	2250	4	2927	0	3150
30	1	1	2078	3	2926	0	3150
31	1	1	1902	4	2928	0	3151
32	1	1	1718	4	2928	0	3152
33	1	1	1569	4	2928	0	3152
34	1	1	1483	4	2929	0	3151
35	1	1	1465	4	2930	0	3150
36	1	1	1337	3	2932	0	3149
37	1	1	1319	5	2931	0	3148
38	1	1	1533	5	2931	0	3148
39	1	1	1759	5	2931	0	3149
40	1	1	2019	5	2931	0	3151
41	1	1	2317	5	2929	0	3152
42	1	1	2504	5	2928	0	3153
43	1	1	2607	5	2926	0	3152
44	1	1	2657	5	2925	0	3151
45	1	1	2662	4	2924	0	3150
46	1	1	2663	5	2923	0	3148
47	1	1	2611	4	2922	0	3148
48	1	1	2432	4	2924	0	3148
49	1	1	2248	4	2923	0	3149
50	1	1	2078	4	2925	0	3150
51	1	1	1888	4	2927	0	3152
52	1	1	1687	4	2925	0	3152
53	1	1	1545	4	2926	0	3152
54	1	1	1474	4	2928	0	3153
55	1	1	1464	4	2931	0	3150
56	1	1	1335	4	2929	0	3148
57	1	1	1320	5	2929	0	3148
58	1	1	1527	5	2930	0	3149
59	1	1	1755	5	2929	0	3149
60	1	1	2020	5	2928	0	3151
61	1	1	2317	5	2927	0	3151
62	1	1	2505	5	2926	0	3152
63	1	1	2609	5	2924	0	3152
64	1	1	2661	5	2924	0	3151
65	1	1	2668	4	2924	0	3150
66	1	1	2670	5	2923	0	3148
67	1	1	2627	4	2921	0	3148
68	1	1	2450	4	2922	0	3148
69	1	1	2269	4	2922	0	3149
70	1	1	2094	4	2922	0	3151
71	1	1	1915	4	2924	0	3152
72	1	1	1727	4	2924	0	3153
73	1	1	1572	4	2925	0	3152
74	1	1	1482	4	2926	0	3152
75	1	1	1460	4	2928	0	3151
76	1	1	1334	3	2929	0	3149
77	1	1	1316	5	2928	0	3148
78	1	1	1523	5	2928	0	3148
79	1	1	1748	5	2927	0	3149
80	1	1	2011	5	2927	0	3150
81	1	1	2313	5	2925	0	3151
82	1	1	2505	5	2923	0	3152
83	1	1	2613	5	2921	0	3152
84	1	1	2666	5	2920	0	3151
85	1	1	2671	5	2921	0	3150
86	1	1	2668	5	2920	0	3148
87	1	1	2623	4	2920	0	3149
88	1	1	2443	4	2920	0	3148
89	1	1	2261	4	2921	0	3150
90	1	1	2088	4	2922	0	3151
91	1	1	1892	4	2922	0	3152
92	1	1	1706	4	2922	0	3153
93	1	1	1568	4	2924	0	3153
94	1	1	1497	4	2923	0	3151
95	1	1	1471	4	2924	0	3150
96	1	1	1342	3	2926	0	3148
97	1	1	1323	5	2927	0	3149
98	1	1	1529	5	2926	0	3148
99	1	1	1757	5	2925	0	3150
100	1	1	2021	4	2925	0	3151
101	1	1	2316	5	2923	0	3151
102	1	1	2507	5	2921	0	3153
103	1	1	2611	5	2921	0	3152
104	1	1	2662	5	2919	0	3152
105	1	1	2666	4	2920	0	3151
106	1	1	2673	5	2920	0	3150
107	1	1	2627	4	2918	0	3148
108	1	1	2448	4	2918	0	3148
109	1	1	2265	4	2919	0	3151
110	1	1	2091	4	2919	0	3151
111	1	1	1913	4	2920	0	3152
112	1	1	1730	4	2921	0	3153
113	1	1	1576	4	2921	0	3153
114	1	1	1480	4	2922	0	3152
115	1	1	1455	4	2921	0	3150
116	1	1	1328	5	2924	0	3148
117	1	1	1309	5	2923	0	3148
118	1	1	1521	5	2926	0	3149
119	1	1	1751	6	2923	0	3149
120	1	1	2007	4	2922	0	3151
121	1	1	2311	5	2921	0	3152
122	1	1	2503	5	2919	0	3153
123	1	1	2611	5	2919	0	3153
124	1	1	2662	5	2919	0	3152
125	1	1	2667	5	2918	0	3151
126	1	1	2669	5	2918	0	3149
127	1	1	2622	4	2916	0	3148
0	1	1	2444	4	2916	0	3148
1	1	1	2259	4	2916	0	3149
2	1	1	2086	4	2917	0	3151
3	1	1	1888	4	2918	0	3151
4	1	1	1710	4	2919	0	3153
5	1	1	1573	4	2919	0	3153
6	1	1	1494	4	2920	0	3153
7	1	1	1468	4	2921	0	3150
8	1	1	1342	4	2923	0	3149
9	1	1	1316	5	2923	0	3149
10	1	1	1523	5	2921	0	3149
11	1	1	1756	5	2922	0	3151
12	1	1	2021	5	2921	0	3151
13	1	1	2316	5	2919	0	3152
14	1	1	2510	5	2918	0	3153
15	1	1	2613	5	2916	0	3153
16	1	1	2660	5	2916	0	3153
17	1	1	2663	5	2913	0	3151
18	1	1	2665	5	2915	0	3149
19	1	1	2625	4	2914	0	3149
20	1	1	2449	4	2913	0	3148
21	1	1	2268	4	2914	0	3150
22	1	1	2092	3	2915	0	3151
23	1	1	1915	4	2917	0	3153
24	1	1	1729	4	2916	0	3153
25	1	1	1577	4	2919	0	3154
26	1	1	1487	6	2918	0	3152
27	1	1	1468	4	2919	0	3151
28	1	1	1347	4	2921	0	3149
29	1	1	1317	5	2920	0	3149
30	1	1	1523	5	2920	0	3149
31	1	1	1750	5	2920	0	3150
32	1	1	2010	5	2918	0	3151
33	1	1	2312	5	2917	0	3152
34	1	1	2506	5	2917	0	3154
35	1	1	2608	5	2914	0	3153
36	1	1	2656	5	2914	0	3152
37	1	1	2665	5	2913	0	3151
38	1	1	2663	5	2913	0	3150
39	1	1	2621	4	2913	0	3149
40	1	1	2442	4	2912	0	3149
41	1	1	2261	4	2913	0	3150
42	1	1	2081	4	2913	0	3151
43	1	1	1901	4	2915	0	3153
44	1	1	1729	3	2915	0	3154
45	1	1	1585	4	2915	0	3155
46	1	1	1498	4	2916	0	3153
47	1	1	1474	4	2916	0	3151
48	1	1	1351	4	2919	0	3149
49	1	1	1325	5	2918	0	3149
50	1	1	1533	5	2920	0	3150
51	1	1	1761	5	2917	0	3150
52	1	1	2019	5	2918	0	3151
53	1	1	2318	5	2916	0	3153
54	1	1	2513	5	2914	0	3153
55	1	1	2619	5	2913	0	3153
56	1	1	2667	5	2911	0	3154
57	1	1	2671	5	2911	0	3151
58	1	1	2665	5	2911	0	3149
59	1	1	2625	4	2908	0	3149
60	1	1	2452	4	2911	0	3149
61	1	1	2274	4	2910	0	3150
62	1	1	2099	4	2911	0	3151
63	1	1	1924	4	2912	0	3153
64	1	1	1743	4	2912	0	3154
65	1	1	1590	4	2915	0	3154
66	1	1	1492	4	2914	0	3153
67	1	1	1463	5	2915	0	3151
68	1	1	1341	4	2916	0	3149
69	1	1	1317	5	2916	0	3150
70	1	1	1526	5	2915	0	3149
71	1	1	1751	5	2916	0	3151
72	1	1	2013	5	2914	0	3151
73	1	1	2321	5	2913	0	3152
74	1	1	2518	5	2912	0	3153
75	1	1	2619	5	2909	0	3153
76	1	1	2673	5	2909	0	3153
77	1	1	2677	4	2908	0	3151
78	1	1	2669	5	2908	0	3150
79	1	1	2628	4	2908	0	3150
80	1	1	2453	4	2908	0	3150
81	1	1	2267	4	2908	0	3151
82	1	1	2070	4	2908	0	3152
83	1	1	1900	4	2909	0	3153
84	1	1	1738	4	2910	0	3154
85	1	1	1591	4	2913	0	3153
86	1	1	1499	4	2912	0	3153
87	1	1	1468	4	2912	0	3151
88	1	1	1343	4	2915	0	3149
89	1	1	1315	4	2915	0	3150
90	1	1	1519	5	2913	0	3149
91	1	1	1751	5	2914	0	3151
92	1	1	2010	5	2913	0	3152
93	1	1	2311	5	2912	0	3153
94	1	1	2508	5	2912	0	3154
95	1	1	2615	4	2908	0	3154
96	1	1	2669	5	2909	0	3154
97	1	1	2677	4	2907	0	3152
98	1	1	2680	5	2906	0	3150
99	1	1	2640	5	2906	0	3150
100	1	1	2462	4	2907	0	3150
101	1	1	2278	4	2906	0	3150
102	1	1	2103	4	2907	0	3151
103	1	1	1925	3	2910	0	3152
104	1	1	1743	4	2908	0	3154
105	1	1	1587	4	2911	0	3155
106	1	1	1493	4	2912	0	3153
107	1	1	1466	4	2912	0	3152
108	1	1	1348	4	2915	0	3151
109	1	1	1316	5	2912	0	3150
110	1	1	1519	5	2912	0	3150
111	1	1	1742	5	2913	0	3151
112	1	1	1996	5	2911	0	3152
113	1	1	2298	5	2910	0	3153
114	1	1	2494	5	2908	0	3154
115	1	1	2600	5	2907	0	3154
116	1	1	2653	5	2907	0	3154
117	1	1	2665	5	2906	0	3152
118	1	1	2667	5	2905	0	3150
119	1	1	2628	4	2905	0	3150
120	1	1	2451	4	2907	0	3151
121	1	1	2263	6	2906	0	3151
122	1	1	2076	4	2906	0	3152
123	1	1	1904	4	2908	0	3153
124	1	1	1736	4	2907	0	3154
125	1	1	1592	4	2908	0	3154
126	1	1	1498	4	2908	0	3153
127	1	1	1472	4	2909	0	3152
0	1	1	1355	4	2912	0	3150
1	1	1	1322	5	2911	0	3150
2	1	1	1524	5	2910	0	3150
3	1	1	1751	5	2908	0	3151
4	1	1	2006	5	2910	0	3152
5	1	1	2307	4	2908	0	3153
6	1	1	2503	5	2908	0	3155
7	1	1	2606	5	2905	0	3154
8	1	1	2662	5	2905	0	3154
9	1	1	2674	5	2905	0	3152
10	1	1	2673	5	2904	0	3150
11	1	1	2635	4	2905	0	3150
12	1	1	2460	4	2903	0	3150
13	1	1	2277	4	2902	0	3151
14	1	1	2104	5	2904	0	3152
15	1	1	1924	4	2906	0	3154
16	1	1	1739	4	2905	0	3154
17	1	1	1585	4	2907	0	3155
18	1	1	1492	4	2907	0	3154
19	1	1	1463	5	2908	0	3152
20	1	1	1342	4	2908	0	3151
21	1	1	1306	5	2910	0	3150
22	1	1	1511	5	2908	0	3150
23	1	1	1742	5	2908	0	3151
24	1	1	1994	5	2908	0	3152
25	1	1	2297	4	2906	0	3153
26	1	1	2493	5	2903	0	3154
27	1	1	2598	5	2903	0	3154
28	1	1	2650	5	2902	0	3153
29	1	1	2663	5	2902	0	3152
30	1	1	2670	5	2902	0	3151
31	1	1	2639	4	2901	0	3150
32	1	1	2471	4	2903	0	3151
33	1	1	2262	5	2902	0	3151
34	1	1	2089	4	2902	0	3152
35	1	1	1925	4	2902	0	3154
36	1	1	1754	4	2903	0	3163
37	1	1	1599	4	2903	0	3154
38	1	1	1500	4	2904	0	3154
39	1	1	1470	4	2904	0	3152
40	1	1	1349	4	2906	0	3150
41	1	1	1314	5	2908	0	3151
42	1	1	1511	5	2906	0	3150
43	1	1	1738	5	2908	0	3152
44	1	1	1995	5	2906	0	3152
45	1	1	2298	5	2904	0	3154
46	1	1	2501	5	2902	0	3155
47	1	1	2607	5	2902	0	3154
48	1	1	2654	5	2901	0	3154
49	1	1	2658	6	2901	0	3152
50	1	1	2651	5	2900	0	3151
51	1	1	2615	4	2900	0	3150
52	1	1	2444	4	2898	0	3150
53	1	1	2264	4	2898	0	3152
54	1	1	2096	4	2899	0	3152
55	1	1	1922	4	2901	0	3154
56	1	1	1743	4	2901	0	3155
57	1	1	1584	4	2905	0	3155
58	1	1	1484	5	2903	0	3154
59	1	1	1454	6	2903	0	3153
60	1	1	1331	4	2906	0	3151
61	1	1	1296	5	2907	0	3150
62	1	1	1502	5	2907	0	3151
63	1	1	1735	6	2906	0	3151
64	1	1	1985	6	2905	0	3152
65	1	1	2296	5	2903	0	3154
66	1	1	2501	5	2900	0	3155
67	1	1	2608	5	2902	0	3155
68	1	1	2660	5	2900	0	3154
69	1	1	2665	5	2898	0	3153
70	1	1	2658	5	2899	0	3151
71	1	1	2624	4	2898	0	3151
72	1	1	2448	4	2898	0	3151
73	1	1	2245	4	2898	0	3152
74	1	1	2082	4	2900	0	3154
75	1	1	1918	4	2899	0	3154
76	1	1	1743	4	2899	0	3155
77	1	1	1588	4	2902	0	3155
78	1	1	1490	5	2902	0	3154
79	1	1	1458	5	2902	0	3153
80	1	1	1341	4	2902	0	3151
81	1	1	1303	5	2903	0	3151
82	1	1	1498	5	2903	0	3151
83	1	1	1726	5	2904	0	3152
84	1	1	1987	4	2902	0	3153
85	1	1	2288	5	2902	0	3155
86	1	1	2491	5	2900	0	3156
87	1	1	2601	5	2897	0	3155
88	1	1	2654	5	2898	0	3155
89	1	1	2667	5	2898	0	3153
90	1	1	2668	5	2897	0	3151
91	1	1	2636	4	2895	0	3151
92	1	1	2464	4	2896	0	3150
93	1	1	2277	4	2897	0	3152
94	1	1	2106	5	2897	0	3153
95	1	1	1929	4	2895	0	3154
96	1	1	1746	4	2898	0	3155
97	1	1	1593	4	2898	0	3155
98	1	1	1500	4	2899	0	3154
99	1	1	1468	5	2900	0	3153
100	1	1	1358	5	2904	0	3152
101	1	1	1311	5	2901	0	3151
102	1	1	1507	5	2903	0	3152
103	1	1	1737	5	2901	0	3152
104	1	1	1988	5	2899	0	3153
105	1	1	2292	5	2899	0	3155
106	1	1	2491	5	2896	0	3155
107	1	1	2602	5	2895	0	3155
108	1	1	2658	5	2895	0	3154
109	1	1	2672	4	2894	0	3153
110	1	1	2670	5	2894	0	3151
111	1	1	2637	4	2894	0	3151
112	1	1	2450	4	2892	0	3151
113	1	1	2252	4	2894	0	3153
114	1	1	2099	5	2895	0	3153
115	1	1	1936	4	2896	0	3154
116	1	1	1761	4	2896	0	3155
117	1	1	1598	4	2897	0	3155
118	1	1	1498	4	2898	0	3156
119	1	1	1467	5	2899	0	3153
120	1	1	1351	4	2900	0	3151
121	1	1	1307	5	2899	0	3151
122	1	1	1501	5	2899	0	3151
123	1	1	1724	4	2899	0	3152
124	1	1	1973	6	2898	0	3153
125	1	1	2281	5	2898	0	3155
126	1	1	2484	5	2894	0	3155
127	1	1	2596	5	2894	0	3155
0	1	1	2654	5	2894	0	3155
1	1	1	2668	5	2893	0	3154
2	1	1	2670	5	2892	0	3151
3	1	1	2638	4	2892	0	3151
4	1	1	2463	4	2891	0	3151
5	1	1	2281	4	2891	0	3152
6	1	1	2117	4	2895	0	3153
7	1	1	1935	4	2894	0	3155
8	1	1	1746	4	2893	0	3155
9	1	1	1587	4	2895	0	3155
10	1	1	1492	4	2896	0	3155
11	1	1	1464	4	2897	0	3153
12	1	1	1349	4	2900	0	3151
13	1	1	1301	5	2899	0	3151
14	1	1	1495	5	2898	0	3151
15	1	1	1732	5	2898	0	3152
16	1	1	1984	5	2897	0	3153
17	1	1	2289	5	2895	0	3154
18	1	1	2496	5	2893	0	3155
19	1	1	2602	5	2893	0	3155
20	1	1	2659	5	2892	0	3156
21	1	1	2673	5	2891	0	3154
22	1	1	2670	5	2892	0	3151
23	1	1	2635	4	2890	0	3151
24	1	1	2434	4	2889	0	3151
25	1	1	2242	4	2889	0	3152
26	1	1	2092	5	2890	0	3153
27	1	1	1931	4	2892	0	3156
28	1	1	1751	4	2891	0	3156
29	1	1	1592	4	2892	0	3155
30	1	1	1491	4	2894	0	3155
31	1	1	1453	5	2895	0	3153
32	1	1	1331	3	2896	0	3151
33	1	1	1285	5	2895	0	3151
34	1	1	1484	5	2897	0	3152
35	1	1	1713	5	2896	0	3152
36	1	1	1967	5	2893	0	3154
37	1	1	2275	5	2894	0	3156
38	1	1	2486	5	2890	0	3156
39	1	1	2602	5	2891	0	3156
40	1	1	2660	5	2889	0	3155
41	1	1	2666	5	2889	0	3154
42	1	1	2659	5	2887	0	3152
43	1	1	2632	4	2888	0	3151
44	1	1	2464	5	2890	0	3151
45	1	1	2276	4	2888	0	3153
46	1	1	2113	4	2890	0	3154
47	1	1	1934	4	2890	0	3154
48	1	1	1750	4	2889	0	3156
49	1	1	1589	4	2891	0	3155
50	1	1	1486	5	2891	0	3155
51	1	1	1457	4	2893	0	3153
52	1	1	1342	4	2893	0	3151
53	1	1	1295	5	2894	0	3151
54	1	1	1496	6	2895	0	3153
55	1	1	1724	5	2895	0	3152
56	1	1	1971	5	2892	0	3154
57	1	1	2283	5	2892	0	3156
58	1	1	2491	5	2889	0	3156
59	1	1	2603	5	2889	0	3156
60	1	1	2658	5	2888	0	3155
61	1	1	2671	6	2886	0	3153
62	1	1	2676	5	2886	0	3151
63	1	1	2642	4	2886	0	3151
64	1	1	2447	4	2886	0	3151
65	1	1	2269	4	2886	0	3153
66	1	1	2117	4	2888	0	3154
67	1	1	1947	4	2887	0	3155
68	1	1	1761	4	2886	0	3156
69	1	1	1601	4	2890	0	3156
70	1	1	1501	4	2891	0	3155
71	1	1	1462	5	2892	0	3154
72	1	1	1349	4	2892	0	3152
73	1	1	1300	5	2892	0	3152
74	1	1	1493	5	2892	0	3152
75	1	1	1724	5	2890	0	3153
76	1	1	1980	5	2890	0	3154
77	1	1	2284	5	2889	0	3155
78	1	1	2486	5	2889	0	3156
79	1	1	2596	5	2887	0	3155
80	1	1	2654	5	2886	0	3155
81	1	1	2671	5	2884	0	3154
82	1	1	2675	5	2885	0	3152
83	1	1	2657	4	2886	0	3152
84	1	1	2484	4	2884	0	3151
85	1	1	2296	4	2885	0	3154
86	1	1	2127	4	2887	0	3154
87	1	1	1938	4	2886	0	3155
88	1	1	1750	4	2887	0	3157
89	1	1	1588	4	2888	0	3156
90	1	1	1489	4	2887	0	3155
91	1	1	1459	5	2889	0	3154
92	1	1	1350	4	2890	0	3152
93	1	1	1298	5	2889	0	3152
94	1	1	1493	5	2891	0	3152
95	1	1	1725	5	2890	0	3152
96	1	1	1975	5	2888	0	3154
97	1	1	2282	6	2886	0	3155
98	1	1	2493	5	2885	0	3156
99	1	1	2609	5	2883	0	3156
100	1	1	2670	5	2884	0	3156
101	1	1	2683	5	2883	0	3154
102	1	1	2683	5	2882	0	3153
103	1	1	2643	4	2883	0	3153
104	1	1	2460	4	2882	0	3152
105	1	1	2282	4	2882	0	3153
106	1	1	2130	4	2883	0	3155
107	1	1	1952	4	2884	0	3155
108	1	1	1762	4	2886	0	3156
109	1	1	1598	4	2885	0	3156
110	1	1	1499	4	2887	0	3156
111	1	1	1467	4	2887	0	3155
112	1	1	1356	4	2889	0	3153
113	1	1	1304	5	2887	0	3152
114	1	1	1499	4	2889	0	3153
115	1	1	1732	6	2888	0	3153
116	1	1	1981	5	2887	0	3154
117	1	1	2284	5	2886	0	3156
118	1	1	2489	5	2884	0	3156
119	1	1	2604	4	2885	0	3156
120	1	1	2664	5	2883	0	3156
121	1	1	2679	5	2881	0	3155
122	1	1	2680	5	2879	0	3153
123	1	1	2658	4	2880	0	3152
124	1	1	2490	3	2879	0	3152
125	1	1	2299	4	2881	0	3154
126	1	1	2127	4	2884	0	3155
127	1	1	1938	4	2883	0	3155
0	1	1	1744	4	2882	0	3157
1	1	1	1576	3	2884	0	3156
2	1	1	1471	4	2886	0	3157
3	1	1	1438	4	2887	0	3155
4	1	1	1331	4	2887	0	3152
5	1	1	1274	5	2889	0	3153
6	1	1	1458	5	2887	0	3152
7	1	1	1686	5	2884	0	3153
8	1	1	1934	5	2886	0	3155
9	1	1	2242	5	2885	0	3156
10	1	1	2444	5	2882	0	3157
11	1	1	2553	6	2881	0	3156
12	1	1	2611	5	2880	0	3156
13	1	1	2632	5	2880	0	3155
14	1	1	2633	5	2879	0	3153
15	1	1	2585	4	2881	0	3153
16	1	1	2422	4	2878	0	3152
17	1	1	2251	4	2878	0	3154
18	1	1	2098	4	2884	0	3154
19	1	1	1922	4	2880	0	3156
20	1	1	1740	4	2880	0	3156
21	1	1	1578	3	2884	0	3158
22	1	1	1479	4	2882	0	3156
23	1	1	1441	4	2884	0	3155
24	1	1	1329	4	2884	0	3153
25	1	1	1275	5	2883	0	3153
26	1	1	1463	4	2886	0	3153
27	1	1	1698	5	2884	0	3153
28	1	1	1946	5	2883	0	3155
29	1	1	2257	5	2882	0	3156
30	1	1	2478	5	2881	0	3158
31	1	1	2600	4	2880	0	3157
32	1	1	2662	5	2879	0	3156
33	1	1	2680	5	2878	0	3155
34	1	1	2679	5	2879	0	3154
35	1	1	2658	4	2876	0	3152
36	1	1	2492	5	2877	0	3152
37	1	1	2303	4	2877	0	3153
38	1	1	2134	5	2878	0	3155
39	1	1	1952	4	2879	0	3156
40	1	1	1769	4	2880	0	3157
41	1	1	1609	3	2880	0	3157
42	1	1	1508	4	2883	0	3157
43	1	1	1474	4	2884	0	3156
44	1	1	1365	3	2884	0	3153
45	1	1	1304	5	2884	0	3153
46	1	1	1489	5	2883	0	3153
47	1	1	1718	5	2883	0	3155
48	1	1	1955	5	2882	0	3155
49	1	1	2263	5	2881	0	3156
50	1	1	2473	5	2877	0	3157
51	1	1	2586	5	2877	0	3156
52	1	1	2641	5	2877	0	3156
53	1	1	2661	5	2876	0	3155
54	1	1	2658	5	2877	0	3154
55	1	1	2623	4	2875	0	3153
56	1	1	2470	4	2874	0	3153
57	1	1	2298	4	2876	0	3153
58	1	1	2138	5	2877	0	3155
59	1	1	1957	4	2878	0	3156
60	1	1	1772	4	2877	0	3157
61	1	1	1609	4	2877	0	3157
62	1	1	1507	4	2878	0	3158
63	1	1	1472	4	2882	0	3156
64	1	1	1366	3	2882	0	3153
65	1	1	1309	5	2881	0	3153
66	1	1	1498	4	2882	0	3154
67	1	1	1728	5	2880	0	3154
68	1	1	1972	5	2879	0	3154
69	1	1	2278	5	2879	0	3156
70	1	1	2485	5	2877	0	3157
71	1	1	2598	4	2876	0	3157
72	1	1	2657	5	2875	0	3158
73	1	1	2669	5	2874	0	3156
74	1	1	2667	6	2874	0	3153
75	1	1	2650	4	2872	0	3153
76	1	1	2486	4	2874	0	3153
77	1	1	2298	4	2875	0	3154
78	1	1	2129	4	2875	0	3155
79	1	1	1941	3	2875	0	3157
80	1	1	1752	4	2875	0	3158
81	1	1	1593	3	2876	0	3157
82	1	1	1487	4	2878	0	3157
83	1	1	1452	5	2879	0	3156
84	1	1	1353	4	2881	0	3153
85	1	1	1294	5	2879	0	3153
86	1	1	1488	5	2880	0	3153
87	1	1	1720	5	2880	0	3154
88	1	1	1965	5	2878	0	3156
89	1	1	2288	4	2877	0	3157
90	1	1	2503	5	2876	0	3157
91	1	1	2615	5	2877	0	3158
92	1	1	2673	5	2876	0	3157
93	1	1	2682	5	2874	0	3155
94	1	1	2654	5	2872	0	3154
95	1	1	2633	4	2872	0	3153
96	1	1	2487	4	2872	0	3153
97	1	1	2309	4	2872	0	3148
98	1	1	2140	5	2872	0	3155
99	1	1	1949	4	2873	0	3156
100	1	1	1757	4	2872	0	3157
101	1	1	1586	4	2875	0	3157
102	1	1	1483	5	2875	0	3157
103	1	1	1448	5	2875	0	3155
104	1	1	1344	4	2878	0	3154
105	1	1	1279	5	2877	0	3153
106	1	1	1468	3	2879	0	3154
107	1	1	1706	5	2879	0	3155
108	1	1	1957	6	2875	0	3155
109	1	1	2272	5	2875	0	3157
110	1	1	2488	5	2875	0	3158
111	1	1	2608	5	2872	0	3157
112	1	1	2672	5	2871	0	3158
113	1	1	2691	5	2872	0	3156
114	1	1	2689	5	2871	0	3154
115	1	1	2666	4	2870	0	3154
116	1	1	2500	4	2870	0	3153
117	1	1	2308	3	2870	0	3155
118	1	1	2139	4	2872	0	3155
119	1	1	1954	5	2873	0	3157
120	1	1	1768	4	2872	0	3158
121	1	1	1597	4	2873	0	3157
122	1	1	1487	4	2874	0	3157
123	1	1	1449	4	2874	0	3156
124	1	1	1343	4	2876	0	3155
125	1	1	1276	5	2875	0	3153
126	1	1	1462	5	2875	0	3153
127	1	1	1697	5	2874	0	3154
0	1	1	1945	5	2874	0	3156
1	1	1	2260	5	2872	0	3157
2	1	1	2482	5	2873	0	3158
3	1	1	2599	5	2870	0	3158
4	1	1	2661	5	2869	0	3157
5	1	1	2678	5	2868	0	3156
6	1	1	2654	5	2870	0	3155
7	1	1	2644	4	2867	0	3153
8	1	1	2500	4	2868	0	3153
9	1	1	2320	4	2867	0	3154
10	1	1	2150	4	2869	0	3155
11	1	1	1966	4	2870	0	3157
12	1	1	1773	4	2871	0	3157
13	1	1	1604	4	2870	0	3157
14	1	1	1494	4	2873	0	3158
15	1	1	1455	4	2873	0	3156
16	1	1	1347	4	2873	0	3155
17	1	1	1281	5	2876	0	3154
18	1	1	1469	5	2874	0	3153
19	1	1	1704	5	2872	0	3154
20	1	1	1948	5	2870	0	3155
21	1	1	2260	5	2873	0	3157
22	1	1	2475	5	2869	0	3158
23	1	1	2596	4	2869	0	3158
24	1	1	2660	5	2868	0	3157
25	1	1	2678	6	2868	0	3156
26	1	1	2683	5	2867	0	3154
27	1	1	2672	4	2866	0	3153
28	1	1	2506	4	2867	0	3153
29	1	1	2311	4	2866	0	3155
30	1	1	2135	4	2869	0	3156
31	1	1	1944	4	2867	0	3157
32	1	1	1752	4	2869	0	3158
33	1	1	1590	4	2868	0	3158
34	1	1	1487	4	2871	0	3158
35	1	1	1452	4	2869	0	3156
36	1	1	1351	4	2872	0	3155
37	1	1	1283	5	2872	0	3154
38	1	1	1472	4	2872	0	3155
39	1	1	1714	5	2872	0	3154
40	1	1	1954	5	2871	0	3155
41	1	1	2272	5	2869	0	3157
42	1	1	2491	5	2867	0	3158
43	1	1	2610	5	2868	0	3157
44	1	1	2672	5	2865	0	3158
45	1	1	2673	4	2866	0	3157
46	1	1	2663	5	2865	0	3154
47	1	1	2660	4	2864	0	3153
48	1	1	2508	4	2864	0	3153
49	1	1	2318	5	2865	0	3155
50	1	1	2144	4	2865	0	3156
51	1	1	1952	4	2866	0	3158
52	1	1	1755	4	2865	0	3158
53	1	1	1590	4	2868	0	3158
54	1	1	1486	4	2867	0	3158
55	1	1	1444	5	2869	0	3156
56	1	1	1342	4	2870	0	3154
57	1	1	1274	5	2871	0	3154
58	1	1	1462	5	2871	0	3154
59	1	1	1710	5	2871	0	3155
60	1	1	1957	5	2870	0	3157
61	1	1	2273	5	2869	0	3157
62	1	1	2497	5	2869	0	3159
63	1	1	2618	4	2867	0	3158
64	1	1	2679	5	2864	0	3157
65	1	1	2695	5	2865	0	3156
66	1	1	2701	4	2862	0	3155
67	1	1	2684	4	2862	0	3154
68	1	1	2512	4	2863	0	3154
69	1	1	2313	4	2864	0	3155
70	1	1	2131	4	2863	0	3156
71	1	1	1935	3	2865	0	3157
72	1	1	1740	4	2865	0	3158
73	1	1	1574	4	2866	0	3158
74	1	1	1471	4	2867	0	3158
75	1	1	1441	4	2868	0	3156
76	1	1	1349	4	2870	0	3155
77	1	1	1280	5	2869	0	3154
78	1	1	1466	5	2869	0	3155
79	1	1	1710	5	2867	0	3155
80	1	1	1950	5	2866	0	3156
81	1	1	2266	4	2867	0	3157
82	1	1	2491	5	2866	0	3159
83	1	1	2608	5	2864	0	3158
84	1	1	2669	5	2863	0	3159
85	1	1	2660	4	2864	0	3157
86	1	1	2660	4	2863	0	3155
87	1	1	2662	4	2861	0	3154
88	1	1	2511	4	2861	0	3152
89	1	1	2312	4	2862	0	3155
90	1	0	2132	4	2863	0	3156
91	1	0	1940	4	2863	0	3158
92	1	0	1743	4	2864	0	3158
93	1	0	1584	4	2865	0	3159
94	1	0	1482	4	2865	0	3158
95	1	0	1450	5	2865	0	3156
96	1	0	1367	3	2867	0	3155
97	1	0	1314	5	2868	0	3154
98	1	0	1522	5	2869	0	3155
99	1	0	1783	4	2868	0	3155
100	1	0	2035	5	2868	0	3156
101	1	0	2348	4	2866	0	3158
102	1	0	2562	5	2864	0	3159
103	1	0	2660	5	2864	0	3159
104	1	0	2693	5	2862	0	3159
105	1	0	2682	5	2863	0	3158
106	1	0	2648	5	2861	0	3155
107	1	0	2609	4	2862	0	3155
108	1	0	2423	5	2859	0	3154
109	1	0	2212	3	2858	0	3155
110	1	0	2033	4	2860	0	3156
111	1	0	1847	4	2861	0	3157
112	1	0	1673	4	2861	0	3158
113	1	0	1528	4	2862	0	3158
114	1	0	1444	4	2863	0	3158
115	1	0	1438	5	2864	0	3157
116	1	0	1363	4	2867	0	3156
117	1	0	1320	5	2865	0	3155
118	1	0	1542	5	2866	0	3155
119	1	0	1802	4	2867	0	3155
120	1	0	2059	5	2865	0	3157
121	1	0	2374	4	2865	0	3158
122	1	0	2585	5	2864	0	3159
123	1	0	2676	5	2863	0	3158
124	1	0	2699	5	2860	0	3159
125	1	0	2655	4	2860	0	3157
126	1	0	2627	4	2860	0	3155
127	1	0	2609	4	2858	0	3154
0	1	0	2433	4	2858	0	3155
1	1	0	2222	4	2859	0	3155
2	1	0	2044	4	2858	0	3156
3	1	0	1857	3	2860	0	3158
4	1	0	1672	4	2860	0	3159
5	1	0	1524	4	2860	0	3159
6	1	0	1446	4	2862	0	3158
7	1	0	1442	5	2861	0	3157
8	1	0	1375	4	2864	0	3156
9	1	0	1335	5	2867	0	3155
10	1	0	1545	5	2864	0	3154
11	1	0	1805	5	2865	0	3156
12	1	0	2056	5	2865	0	3157
13	1	0	2363	5	2864	0	3158
14	1	0	2566	5	2862	0	3158
15	1	0	2659	5	2859	0	3158
16	1	0	2690	5	2858	0	3158
17	1	0	2668	4	2856	0	3157
18	1	0	2631	5	2857	0	3155
19	1	0	2588	4	2855	0	3154
20	1	0	2395	4	2856	0	3155
21	1	0	2191	4	2854	0	3155
22	1	0	2020	4	2855	0	3157
23	1	0	1846	4	2857	0	3158
24	1	0	1675	4	2859	0	3160
25	1	0	1540	5	2859	0	3159
26	1	0	1475	5	2859	0	3159
27	1	0	1474	5	2861	0	3157
28	1	0	1412	3	2863	0	3155
29	1	0	1375	5	2863	0	3154
30	1	0	1592	5	2862	0	3154
31	1	0	1839	5	2863	0	3155
32	1	0	2078	5	2862	0	3156
33	1	0	2378	4	2862	0	3158
34	1	0	2568	5	2860	0	3159
35	1	0	2644	5	2858	0	3159
36	1	0	2641	4	2857	0	3158
37	1	0	2599	4	2856	0	3158
38	1	0	2562	5	2856	0	3156
39	1	0	2511	4	2853	0	3152
40	1	0	2328	4	2854	0	3156
41	1	0	2132	4	2854	0	3156
42	1	0	1986	4	2854	0	3157
43	1	0	1837	3	2855	0	3158
44	1	0	1689	5	2856	0	3159
45	1	0	1574	4	2857	0	3159
46	1	0	1520	4	2857	0	3158
47	1	0	1531	5	2859	0	3157
48	1	0	1493	3	2862	0	3155
49	1	0	1474	5	2862	0	3155
50	1	0	1683	5	2862	0	3154
51	1	0	1911	5	2860	0	3156
52	1	0	2115	5	2860	0	3157
53	1	0	2376	5	2861	0	3159
54	1	0	2536	5	2858	0	3159
55	1	0	2594	5	2857	0	3160
56	1	0	2600	5	2856	0	3159
57	1	0	2565	4	2853	0	3158
58	1	0	2508	5	2854	0	3156
59	1	0	2441	4	2852	0	3155
60	1	0	2265	4	2852	0	3155
61	1	0	2092	5	2852	0	3156
62	1	0	1960	4	2853	0	3157
63	1	0	1826	3	2854	0	3158
64	1	0	1695	4	2852	0	3158
65	1	0	1590	4	2856	0	3160
66	1	0	1539	4	2856	0	3158
67	1	0	1550	5	2859	0	3157
68	1	0	1508	4	2861	0	3156
69	1	0	1492	5	2859	0	3155
70	1	0	1700	5	2861	0	3155
71	1	0	1926	5	2861	0	3157
72	1	0	2136	5	2860	0	3158
73	1	0	2397	4	2858	0	3159
74	1	0	2552	5	2855	0	3159
75	1	0	2600	6	2854	0	3159
76	1	0	2572	5	2854	0	3159
77	1	0	2545	4	2852	0	3158
78	1	0	2492	4	2851	0	3156
79	1	0	2437	4	2851	0	3154
80	1	0	2273	4	2850	0	3155
81	0	0	2097	4	2851	0	3156
82	0	0	1950	4	2848	0	3156
83	0	0	1814	2	2851	0	3158
84	0	0	1687	4	2851	0	3159
85	0	0	1587	4	2854	0	3160
86	0	0	1540	4	2856	0	3159
87	0	0	1551	5	2857	0	3158
88	0	0	1519	4	2859	0	3156
89	0	0	1500	5	2860	0	3156
90	0	0	1707	5	2859	0	3155
91	0	0	1933	6	2859	0	3157
92	0	0	2138	5	2859	0	3158
93	0	0	2397	5	2855	0	3158
94	0	0	2555	5	2855	0	3159
95	0	0	2607	5	2855	0	3160
96	0	0	2605	5	2853	0	3159
97	0	0	2568	4	2851	0	3157
98	0	0	2501	4	2849	0	3156
99	0	0	2433	4	2849	0	3155
100	0	0	2264	4	2848	0	3155
101	0	0	2092	4	2846	0	3156
102	0	0	1966	4	2847	0	3157
103	0	0	1837	4	2848	0	3159
104	0	0	1706	4	2851	0	3160
105	0	0	1594	5	2851	0	3159
106	0	0	1546	4	2852	0	3159
107	0	0	1561	5	2854	0	3159
108	0	0	1527	4	2855	0	3156
109	0	0	1508	5	2856	0	3155
110	0	0	1710	5	2857	0	3155
111	0	0	1933	5	2856	0	3156
112	0	0	2137	5	2854	0	3156
113	0	0	2392	5	2854	0	3158
114	0	0	2545	5	2851	0	3159
115	0	0	2584	5	2850	0	3159
116	0	0	2571	5	2848	0	3159
117	0	0	2552	4	2846	0	3158
118	0	0	2499	4	2846	0	3156
119	0	0	2437	4	2847	0	3156
120	0	0	2266	4	2845	0	3155
121	0	0	2097	4	2846	0	3156
122	0	0	1969	4	2846	0	3158
123	0	0	1842	4	2846	0	3159
124	0	0	1712	4	2846	0	3159
125	0	0	1607	4	2849	0	3160
126	0	0	1553	4	2851	0	3159
127	0	0	1563	5	2850	0	3158
0	0	0	1533	4	2853	0	3156
1	0	0	1514	5	2854	0	3155
2	0	0	1714	5	2853	0	3155
3	0	0	1934	5	2853	0	3156
4	0	0	2129	5	2854	0	3157
5	0	0	2383	4	2852	0	3158
6	0	0	2542	5	2851	0	3160
7	0	0	2587	5	2848	0	3159
8	0	0	2580	5	2846	0	3159
9	0	0	2541	4	2844	0	3158
10	0	0	2479	4	2843	0	3156
11	0	0	2416	4	2842	0	3155
12	0	0	2256	4	2842	0	3155
13	0	0	2088	4	2843	0	3156
14	0	0	1969	4	2844	0	3157
15	0	0	1844	4	2845	0	3159
16	0	0	1713	4	2844	0	3159
17	0	0	1609	3	2847	0	3159
18	0	0	1561	4	2848	0	3159
19	0	0	1576	5	2850	0	3158
20	0	0	1546	4	2850	0	3156
21	0	0	1522	5	2850	0	3155
22	0	0	1713	5	2851	0	3155
23	0	0	1930	4	2849	0	3156
24	0	0	2127	5	2849	0	3157
25	0	0	2376	5	2849	0	3158
26	0	0	2529	5	2847	0	3159
27	0	0	2557	5	2847	0	3160
28	0	0	2553	5	2846	0	3159
29	0	0	2535	5	2844	0	3158
30	0	0	2484	5	2842	0	3150
31	0	0	2415	4	2840	0	3154
32	0	0	2246	4	2841	0	3155
33	0	0	2078	5	2840	0	3156
34	0	0	1959	4	2840	0	3157
35	0	0	1837	4	2841	0	3158
36	0	0	1711	4	2843	0	3159
37	0	0	1611	4	2844	0	3159
38	0	0	1563	4	2845	0	3159
39	0	0	1574	5	2846	0	3158
40	0	0	1545	4	2849	0	3155
41	0	0	1521	5	2848	0	3155
42	0	0	1714	5	2849	0	3155
43	0	0	1933	5	2851	0	3156
44	0	0	2129	5	2849	0	3158
45	0	0	2381	5	2848	0	3159
46	0	0	2533	5	2846	0	3159
47	0	0	2577	5	2844	0	3159
48	0	0	2577	5	2843	1	3159
49	0	0	2535	4	2841	0	3157
50	0	0	2467	4	2840	0	3155
51	0	0	2400	4	2837	0	3155
52	0	0	2239	4	2840	0	3155
53	0	0	2072	4	2838	0	3155
54	0	0	1952	4	2839	0	3156
55	0	0	1830	4	2840	0	3158
56	0	0	1710	4	2842	0	3159
57	0	0	1609	4	2844	0	3159
58	0	0	1562	4	2845	0	3159
59	0	0	1573	5	2846	0	3159
60	0	0	1549	4	2847	0	3156
61	0	0	1527	5	2849	0	3155
62	0	0	1726	5	2847	0	3155
63	0	0	1940	5	2848	0	3156
64	0	0	2139	5	2846	0	3158
65	0	0	2387	5	2845	0	3158
66	0	0	2533	5	2843	0	3159
67	0	0	2557	5	2840	0	3159
68	0	0	2562	5	2841	0	3158
69	0	0	2541	4	2839	0	3157
70	0	0	2478	4	2837	0	3155
71	0	0	2410	4	2835	0	3154
72	0	0	2247	4	2838	0	3156
73	0	0	2088	4	2837	0	3156
74	0	0	1965	4	2837	0	3157
75	0	0	1836	4	2838	0	3158
76	0	0	1714	4	2837	0	3159
77	0	0	1614	4	2839	0	3159
78	0	0	1562	5	2841	0	3159
79	0	0	1572	5	2844	0	3158
80	0	0	1551	4	2845	0	3156
81	0	0	1528	5	2847	0	3155
82	0	0	1723	5	2846	0	3155
83	0	0	1942	5	2847	0	3156
84	0	0	2139	5	2846	0	3157
85	0	0	2391	5	2844	0	3158
86	0	0	2550	5	2842	0	3159
87	0	0	2597	5	2840	0	3159
88	0	0	2588	5	2838	0	3158
89	0	0	2545	4	2838	0	3158
90	0	0	2463	4	2835	0	3155
91	0	0	2395	4	2836	0	3155
92	0	0	2234	5	2834	0	3154
93	0	0	2077	5	2833	0	3156
94	0	0	1961	4	2836	0	3157
95	0	0	1840	4	2835	0	3158
96	0	0	1720	4	2836	0	3159
97	0	0	1620	4	2840	0	3160
98	0	0	1570	4	2842	0	3159
99	0	0	1582	5	2841	0	3157
100	0	0	1557	4	2844	0	3155
101	0	0	1536	5	2844	0	3154
102	0	0	1728	5	2843	0	3154
103	0	0	1941	5	2845	0	3156
104	0	0	2135	5	2844	0	3157
105	0	0	2387	5	2841	0	3158
106	0	0	2527	5	2840	0	3158
107	0	0	2561	5	2840	0	3159
108	0	0	2570	5	2838	0	3158
109	0	0	2549	4	2835	0	3157
110	0	0	2480	4	2835	0	3155
111	0	0	2409	4	2833	0	3154
112	0	0	2248	4	2833	0	3155
113	0	0	2084	4	2833	0	3155
114	0	0	1957	4	2832	0	3157
115	0	0	1838	4	2833	0	3158
116	0	0	1719	4	2835	0	3158
117	0	0	1617	4	2836	0	3158
118	0	0	1568	4	2837	0	3158
119	0	0	1583	5	2838	0	3158
120	0	0	1562	4	2841	0	3155
121	0	0	1538	5	2844	0	3155
122	0	0	1733	5	2842	0	3154
123	0	0	1945	5	2843	0	3155
124	0	0	2140	5	2841	0	3156
125	0	0	2393	5	2840	0	3158
126	0	0	2543	5	2837	0	3158
127	0	0	2582	5	2837	0	3159
0	0	0	2580	5	2836	0	3158
1	0	0	2541	4	2833	0	3157
2	0	0	2473	4	2834	0	3156
3	0	0	2404	4	2833	0	3155
4	0	0	2236	4	2831	0	3154
5	0	0	2073	5	2830	0	3155
6	0	0	1960	4	2832	0	3157
7	0	0	1840	4	2834	0	3158
8	0	0	1724	4	2833	0	3158
9	0	0	1624	4	2835	0	3158
10	0	0	1576	4	2838	0	3158
11	0	0	1585	5	2839	0	3158
12	0	0	1564	4	2840	0	3155
13	0	0	1538	5	2842	0	3155
14	0	0	1726	5	2840	0	3154
15	0	0	1944	5	2840	0	3156
16	0	0	2138	5	2839	0	3156
17	0	0	2387	5	2838	0	3158
18	0	0	2512	5	2835	0	3159
19	0	0	2557	5	2835	0	3159
20	0	0	2574	5	2833	0	3158
21	0	0	2552	4	2830	0	3157
22	0	0	2490	4	2833	0	3155
23	0	0	2419	4	2829	0	3154
24	0	0	2251	4	2830	0	3155
25	0	0	2082	4	2831	0	3155
26	0	0	1961	4	2831	0	3156
27	0	0	1842	4	2832	0	3158
28	0	0	1725	4	2831	0	3158
29	0	0	1628	4	2834	0	3158
30	0	0	1578	4	2835	0	3158
31	0	0	1586	5	2836	0	3157
32	0	0	1562	4	2838	0	3155
33	0	0	1539	7	2838	0	3154
34	0	0	1729	5	2838	0	3154
35	0	0	1944	5	2838	0	3155
36	0	0	2138	5	2839	0	3156
37	0	0	2388	5	2837	0	3158
38	0	0	2540	5	2834	0	3158
39	0	0	2584	5	2833	0	3159
40	0	0	2579	5	2832	0	3158
41	0	0	2537	4	2830	0	3157
42	0	0	2464	4	2829	0	3155
43	0	0	2393	4	2829	0	3153
44	0	0	2233	4	2828	0	3154
45	0	0	2071	4	2828	0	3155
46	0	0	1961	4	2828	0	3157
47	0	0	1847	4	2828	0	3158
48	0	0	1736	4	2832	0	3159
49	0	0	1641	4	2832	0	3158
50	0	0	1591	4	2832	0	3158
51	0	0	1595	6	2834	0	3158
52	0	0	1568	4	2837	0	3155
53	0	0	1538	5	2836	0	3154
54	0	0	1727	5	2838	0	3154
55	0	0	1942	5	2838	0	3155
56	0	0	2136	5	2837	0	3156
57	0	0	2381	5	2835	0	3157
58	0	0	2514	5	2833	0	3157
59	0	0	2562	5	2832	0	3158
60	0	0	2572	4	2830	0	3157
61	0	0	2544	4	2829	0	3156
62	0	0	2463	4	2827	0	3155
63	0	0	2393	4	2826	0	3154
64	0	0	2231	3	2827	0	3155
65	0	0	2074	4	2827	0	3155
66	0	0	1959	4	2827	0	3156
67	0	0	1844	4	2827	0	3157
68	0	0	1734	4	2829	0	3158
69	0	0	1636	4	2830	0	3158
70	0	0	1588	4	2832	0	3158
71	0	0	1599	5	2835	0	3157
72	0	0	1576	4	2835	0	3155
73	0	0	1548	5	2836	0	3153
74	0	0	1737	5	2838	0	3153
75	0	0	1947	4	2836	0	3154
76	0	0	2135	5	2836	0	3156
77	0	0	2384	5	2836	0	3158
78	0	0	2530	5	2831	0	3157
79	0	0	2572	5	2831	0	3158
80	0	0	2564	5	2829	0	3158
81	0	0	2522	4	2829	0	3156
82	0	0	2453	5	2825	0	3155
83	0	0	2392	4	2826	0	3155
84	0	0	2225	5	2824	0	3153
85	0	0	2065	4	2825	0	3155
86	0	0	1959	4	2827	0	3156
87	0	0	1846	4	2828	0	3157
88	0	0	1727	4	2828	0	3157
89	0	0	1632	4	2829	0	3158
90	0	0	1585	4	2831	0	3157
91	0	0	1596	5	2833	0	3156
92	0	0	1584	4	2836	0	3155
93	0	0	1561	5	2835	0	3153
94	0	0	1750	5	2835	0	3153
95	0	0	1960	5	2835	0	3154
96	0	0	2146	4	2832	0	3155
97	0	0	2371	5	2833	0	3157
98	0	0	2508	5	2831	0	3157
99	0	0	2561	5	2829	0	3158
100	0	0	2574	5	2828	0	3160
101	0	0	2537	4	2828	0	3157
102	0	0	2464	4	2825	0	3155
103	0	0	2394	4	2824	0	3153
104	0	0	2235	4	2822	0	3153
105	0	0	2076	4	2822	0	3154
106	0	0	1964	4	2824	0	3155
107	0	0	1850	4	2825	0	3157
108	0	0	1740	4	2826	0	3157
109	0	0	1639	4	2828	0	3158
110	0	0	1589	4	2831	0	3157
111	0	0	1597	5	2830	0	3156
112	0	0	1579	4	2833	0	3154
113	0	0	1555	5	2833	0	3153
114	0	0	1743	5	2833	0	3154
115	0	0	1959	5	2833	0	3155
116	0	0	2144	5	2833	0	3155
117	0	0	2391	5	2831	0	3157
118	0	0	2540	5	2830	0	3157
119	0	0	2580	5	2827	0	3158
120	0	0	2571	5	2824	0	3157
121	0	0	2527	4	2825	0	3156
122	0	0	2448	5	2825	0	3154
123	0	0	2380	4	2822	0	3153
124	0	0	2226	4	2822	0	3153
125	0	0	2068	4	2821	0	3154
126	0	0	1961	4	2823	0	3155
127	0	0	1854	4	2823	0	3156
0	0	0	1744	4	2825	0	3157
1	0	0	1647	4	2824	0	3157
2	0	0	1601	4	2827	0	3157
3	0	0	1612	5	2829	0	3156
4	0	0	1599	5	2833	0	3154
5	0	0	1569	5	2832	0	3153
6	0	0	1752	5	2833	0	3153
7	0	0	1965	5	2832	0	3154
8	0	0	2147	5	2831	0	3156
9	0	0	2365	5	2831	0	3157
10	0	0	2516	5	2829	0	3157
11	0	0	2573	5	2826	0	3157
12	0	0	2575	5	2825	0	3156
13	0	0	2536	4	2823	0	3155
14	0	0	2461	4	2824	0	3154
15	0	0	2390	4	2822	0	3152
16	0	0	2234	4	2820	0	3153
17	0	0	2075	4	2821	0	3153
18	0	0	1964	4	2822	0	3155
19	0	0	1856	4	2823	0	3156
20	0	0	1748	4	2823	0	3156
21	0	0	1655	4	2825	0	3157
22	0	0	1610	4	2826	0	3157
23	0	0	1622	5	2828	0	3155
24	0	0	1609	4	2830	0	3153
25	0	0	1584	5	2831	0	3152
26	0	0	1773	5	2831	0	3152
27	0	0	1985	5	2831	0	3153
28	0	0	2160	5	2830	0	3154
29	0	0	2399	5	2830	0	3155
30	0	0	2545	5	2827	0	3155
31	0	0	2580	5	2826	0	3157
32	0	0	2558	4	2824	1	3156
33	0	0	2511	4	2822	0	3155
34	0	0	2430	4	2822	0	3153
35	0	0	2362	4	2818	0	3151
36	0	0	2210	4	2819	0	3152
37	0	0	2058	4	2819	0	3153
38	0	0	1953	4	2821	0	3154
39	0	0	1850	4	2822	0	3155
40	0	0	1749	4	2821	0	3155
41	0	0	1655	3	2824	0	3156
42	0	0	1614	4	2826	0	3155
43	0	0	1631	5	2827	0	3154
44	0	0	1617	4	2830	0	3152
45	0	0	1590	5	2829	0	3151
46	0	0	1777	5	2830	0	3152
47	0	0	1981	5	2831	0	3152
48	0	0	2147	5	2830	0	3152
49	0	0	2362	5	2827	0	3154
50	0	0	2521	5	2827	0	3156
51	0	0	2568	6	2824	0	3155
52	0	0	2558	5	2823	0	3155
53	0	0	2505	4	2820	0	3153
54	0	0	2418	4	2819	0	3151
55	0	0	2353	5	2819	0	3150
56	0	0	2199	4	2818	0	3150
57	0	0	2043	4	2818	0	3151
58	0	0	1945	4	2818	0	3152
59	0	0	1841	4	2820	0	3153
60	0	0	1740	4	2820	0	3154
61	0	0	1651	4	2822	0	3154
62	0	0	1608	4	2824	0	3153
63	0	0	1621	5	2826	0	3152
64	0	0	1617	4	2828	0	3151
65	0	0	1594	5	2830	0	3150
66	0	0	1778	6	2828	0	3149
67	0	0	1984	5	2829	0	3150
68	0	0	2158	5	2828	0	3152
69	0	0	2385	5	2827	0	3153
70	0	0	2521	5	2825	0	3154
71	0	0	2550	5	2823	0	3153
72	0	0	2532	5	2821	0	3153
73	0	0	2487	4	2820	0	3152
74	0	0	2410	4	2818	0	3150
75	0	0	2341	4	2817	0	3149
76	0	0	2194	3	2817	0	3148
77	0	0	2046	4	2817	0	3149
78	0	0	1947	4	2816	0	3150
79	0	0	1843	4	2818	0	3151
80	0	0	1742	4	2819	0	3151
81	0	0	1662	4	2821	0	3152
82	0	0	1631	4	2823	0	3151
83	0	0	1649	5	2825	0	3150
84	0	0	1644	4	2825	0	3148
85	0	0	1622	4	2827	0	3147
86	0	0	1802	5	2827	0	3147
87	0	0	2003	5	2828	0	3148
88	0	0	2152	5	2826	0	3149
89	0	0	2367	5	2824	0	3151
90	0	0	2508	5	2822	0	3150
91	0	0	2542	5	2820	0	3143
92	0	0	2519	4	2819	0	3150
93	0	0	2472	4	2818	0	3149
94	0	0	2395	4	2814	0	3147
95	0	0	2333	4	2816	0	3147
96	0	0	2183	4	2815	0	3146
97	0	0	2034	4	2814	0	3146
98	0	0	1935	4	2814	0	3148
99	0	0	1834	4	2817	0	3149
100	0	0	1737	4	2818	0	3149
101	0	0	1654	4	2819	0	3149
102	0	0	1630	4	2821	0	3149
103	0	0	1655	5	2823	0	3148
104	0	0	1659	4	2825	0	3146
105	0	0	1634	5	2828	0	3146
106	0	0	1811	4	2827	0	3145
107	0	0	2012	5	2824	0	3146
108	0	0	2180	5	2826	0	3147
109	0	0	2395	5	2824	0	3148
110	0	0	2519	4	2822	0	3148
111	0	0	2539	4	2820	0	3148
112	0	0	2506	4	2819	0	3147
113	0	0	2453	4	2816	0	3147
114	0	0	2377	4	2816	0	3145
115	0	0	2309	4	2814	0	3143
116	0	0	2166	4	2815	0	3144
117	0	0	2022	4	2813	0	3144
118	0	0	1930	4	2814	0	3146
119	0	0	1833	4	2814	0	3147
120	0	0	1739	4	2819	0	3148
121	0	0	1662	3	2816	0	3147
122	0	0	1635	4	2821	0	3147
123	0	0	1661	5	2822	0	3146
124	0	0	1671	4	2824	0	3145
125	0	0	1648	5	2824	0	3143
126	0	0	1831	5	2825	0	3143
127	0	0	2027	4	2824	0	3143
0	0	0	2164	5	2823	0	3145
1	0	0	2385	5	2821	0	3145
2	0	0	2523	5	2820	0	3146
3	0	0	2546	5	2819	0	3147
4	0	0	2515	4	2818	0	3145
5	0	0	2459	4	2815	0	3145
6	0	0	2374	5	2814	0	3143
7	0	0	2312	4	2813	0	3142
8	0	0	2163	6	2812	0	3142
9	0	0	2013	4	2811	0	3142
10	0	0	1916	4	2814	0	3144
11	0	0	1825	4	2814	0	3145
12	0	0	1742	4	2816	0	3146
13	0	0	1672	3	2816	0	3145
14	0	0	1645	4	2816	0	3145
15	0	0	1669	5	2819	0	3144
16	0	0	1670	4	2821	0	3142
17	0	0	1653	5	2821	0	3141
18	0	0	1835	4	2824	0	3141
19	0	0	2032	5	2824	0	3142
20	0	0	2187	5	2822	0	3143
21	0	0	2401	5	2821	0	3144
22	0	0	2518	5	2818	0	3144
23	0	0	2525	5	2816	0	3144
24	0	0	2488	4	2816	0	3144
25	0	0	2427	4	2814	0	3144
26	0	0	2336	4	2810	0	3142
27	0	0	2274	4	2810	0	3140
28	0	0	2132	4	2812	0	3141
29	0	0	1994	4	2812	0	3141
30	0	0	1911	4	2812	0	3142
31	0	0	1826	4	2813	0	3143
32	0	0	1746	4	2813	0	3143
33	0	0	1677	6	2815	0	3143
34	0	0	1655	4	2816	0	3143
35	0	0	1683	5	2820	0	3143
36	0	0	1697	4	2821	0	3141
37	0	0	1675	5	2820	0	3139
38	0	0	1852	5	2821	0	3140
39	0	0	2035	5	2821	0	3140
40	0	0	2173	5	2821	0	3142
41	0	0	2387	5	2819	0	3143
42	0	0	2514	5	2818	0	3144
43	0	0	2530	5	2817	0	3143
44	0	0	2501	4	2814	0	3143
45	0	0	2443	4	2813	0	3142
46	0	0	2358	4	2811	0	3141
47	0	0	2290	4	2811	0	3140
48	0	0	2148	4	2808	0	3139
49	0	0	2010	4	2809	0	3140
50	0	0	1925	4	2810	0	3141
51	0	0	1837	4	2811	0	3142
52	0	0	1750	4	2812	0	3142
53	0	0	1679	4	2814	0	3142
54	0	0	1664	5	2815	0	3142
55	0	0	1696	5	2817	0	3141
56	0	0	1711	4	2819	0	3140
57	0	0	1687	5	2821	0	3138
58	0	0	1862	5	2820	0	3139
59	0	0	2062	5	2821	0	3140
60	0	0	2211	5	2819	0	3141
61	0	0	2414	5	2817	0	3142
62	0	0	2522	5	2816	0	3142
63	0	0	2525	5	2814	0	3142
64	0	0	2485	5	2813	0	3143
65	0	0	2425	4	2810	0	3141
66	0	0	2350	4	2810	0	3140
67	0	0	2286	4	2807	0	3138
68	0	0	2147	4	2808	0	3138
69	0	0	2015	4	2808	0	3139
70	0	0	1928	5	2810	0	3140
71	0	0	1839	4	2810	0	3141
72	0	0	1756	4	2812	0	3142
73	0	0	1687	3	2812	0	3142
74	0	0	1669	5	2815	0	3141
75	0	0	1698	5	2816	0	3141
76	0	0	1711	4	2819	0	3140
77	0	0	1691	4	2819	0	3138
78	0	0	1863	5	2820	0	3138
79	0	0	2035	5	2819	0	3139
80	0	0	2185	5	2818	0	3140
81	0	0	2402	5	2817	0	3141
82	0	0	2518	5	2818	0	3140
83	0	0	2523	5	2812	0	3141
84	0	0	2486	4	2810	0	3141
85	0	0	2430	4	2810	0	3141
86	0	0	2342	4	2806	0	3138
87	0	0	2277	4	2807	0	3138
88	0	0	2140	4	2805	0	3137
89	0	0	1998	4	2805	0	3139
90	0	0	1911	4	2807	0	3139
91	0	0	1828	4	2808	0	3141
92	0	0	1745	4	2807	0	3141
93	0	0	1684	4	2810	0	3141
94	0	0	1671	5	2812	0	3141
95	0	0	1702	5	2814	0	3140
96	0	0	1720	4	2816	0	3139
97	0	0	1693	5	2817	0	3138
98	0	0	1867	5	2818	0	3138
99	0	0	2054	5	2818	0	3139
100	0	0	2199	5	2817	0	3140
101	0	0	2395	5	2815	0	3140
102	0	0	2498	5	2812	0	3141
103	0	0	2503	5	2810	0	3142
104	0	0	2466	4	2809	0	3141
105	0	0	2407	4	2807	0	3140
106	0	0	2328	4	2805	0	3139
107	0	0	2268	4	2804	0	3137
108	0	0	2125	4	2804	0	3138
109	0	0	1987	4	2805	0	3139
110	0	0	1907	5	2805	0	3140
111	0	0	1823	4	2805	0	3141
112	0	0	1748	4	2806	0	3141
113	0	0	1688	4	2808	0	3141
114	0	0	1674	5	2810	0	3141
115	0	0	1706	5	2812	0	3140
116	0	0	1715	4	2815	0	3138
117	0	0	1693	5	2816	0	3137
118	0	0	1862	5	2816	0	3138
119	0	0	2037	5	2817	0	3138
120	0	0	2174	5	2815	0	3139
121	0	0	2382	5	2814	0	3141
122	0	0	2497	5	2810	0	3140
123	0	0	2503	5	2808	0	3141
124	0	0	2462	4	2807	0	3141
125	0	0	2405	4	2806	0	3140
126	0	0	2324	4	2803	0	3138
127	0	0	2267	4	2801	0	3137
0	0	0	2125	4	2801	0	3137
1	0	0	1992	4	2803	0	3138
2	0	0	1915	4	2804	0	3139
3	0	0	1833	4	2804	0	3140
4	0	0	1759	4	2803	0	3148
5	0	0	1700	4	2805	0	3140
6	0	0	1680	4	2808	0	3140
7	0	0	1715	4	2812	0	3139
8	0	0	1728	4	2811	0	3138
9	0	0	1703	5	2814	0	3137
10	0	0	1874	5	2816	0	3138
11	0	0	2068	5	2816	0	3138
12	0	0	2213	5	2813	0	3139
13	0	0	2403	5	2812	0	3141
14	0	0	2502	5	2808	0	3140
15	0	0	2499	5	2807	0	3142
16	0	0	2453	4	2806	0	3141
17	0	0	2390	4	2804	0	3140
18	0	0	2304	4	2804	0	3139
19	0	0	2239	4	2800	0	3137
20	0	0	2109	4	2801	0	3137
21	0	0	1979	3	2800	0	3137
22	0	0	1901	4	2801	0	3138
23	0	0	1819	4	2801	0	3140
24	0	0	1742	4	2805	0	3140
25	0	0	1680	4	2806	0	3140
26	0	0	1668	3	2807	0	3140
27	0	0	1697	5	2810	0	3139
28	0	0	1718	4	2812	0	3138
29	0	0	1695	5	2812	0	3137
30	0	0	1855	5	2813	0	3137
31	0	0	2031	4	2814	0	3138
32	0	0	2186	5	2813	0	3140
33	0	0	2395	5	2809	0	3140
34	0	0	2504	5	2809	0	3141
35	0	0	2504	6	2805	0	3140
36	0	0	2460	4	2804	0	3141
37	0	0	2395	4	2804	0	3140
38	0	0	2305	4	2800	0	3137
39	0	0	2241	4	2798	0	3136
40	0	0	2106	4	2800	0	3136
41	0	0	1972	4	2799	0	3137
42	0	0	1894	4	2800	0	3138
43	0	0	1814	4	2801	0	3139
44	0	0	1740	4	2801	0	3140
45	0	0	1678	4	2803	0	3140
46	0	0	1667	5	2806	0	3140
47	0	0	1702	5	2808	0	3139
48	0	0	1726	4	2811	0	3138
49	0	0	1702	5	2810	0	3137
50	0	0	1871	5	2812	0	3138
51	0	0	2064	5	2812	0	3138
52	0	0	2197	5	2811	0	3139
53	0	0	2392	5	2809	0	3140
54	0	0	2495	5	2805	0	3140
55	0	0	2493	5	2805	0	3140
56	0	0	2447	4	2802	0	3140
57	0	0	2388	4	2802	0	3139
58	0	0	2302	4	2798	0	3137
59	0	0	2239	4	2798	0	3136
60	0	0	2102	4	2798	0	3136
61	0	0	1959	4	2797	0	3137
62	0	0	1876	4	2799	0	3138
63	0	0	1797	4	2798	0	3140
64	0	0	1728	4	2801	0	3140
65	0	0	1670	4	2803	0	3140
66	0	0	1662	5	2806	0	3140
67	0	0	1694	5	2807	0	3139
68	0	0	1715	4	2809	0	3138
69	0	0	1691	5	2810	0	3136
70	0	0	1838	5	2810	0	3137
71	0	0	2030	5	2812	0	3137
72	0	0	2192	5	2809	0	3138
73	0	0	2404	5	2808	0	3138
74	0	0	2510	5	2805	0	3139
75	0	0	2502	5	2803	0	3141
76	0	0	2454	4	2802	0	3140
77	0	0	2395	4	2800	0	3139
78	0	0	2307	4	2797	0	3138
79	0	0	2240	4	2795	0	3136
80	0	0	2102	4	2795	0	3137
81	0	0	1969	4	2795	0	3138
82	0	0	1895	4	2798	0	3138
83	0	0	1812	4	2799	0	3140
84	0	0	1738	4	2800	0	3140
85	0	0	1677	4	2801	0	3140
86	0	0	1664	5	2803	0	3140
87	0	0	1692	5	2804	0	3139
88	0	0	1710	4	2808	0	3138
89	0	0	1684	5	2809	0	3136
90	0	0	1859	5	2810	0	3137
91	0	0	2056	4	2810	0	3137
92	0	0	2201	5	2809	0	3138
93	0	0	2396	5	2805	0	3140
94	0	0	2501	5	2804	0	3140
95	0	0	2499	5	2802	0	3140
96	0	0	2453	5	2800	0	3140
97	0	0	2392	4	2798	0	3140
98	0	0	2300	4	2796	0	3138
99	0	0	2241	4	2794	0	3136
100	0	0	2109	4	2795	0	3137
101	0	0	1971	4	2795	0	3137
102	0	0	1896	4	2795	0	3139
103	0	0	1817	4	2797	0	3140
104	0	0	1746	4	2797	0	3140
105	0	0	1686	4	2799	0	3140
106	0	0	1674	5	2802	0	3140
107	0	0	1707	5	2804	0	3139
108	0	0	1726	4	2807	0	3137
109	0	0	1696	5	2808	0	3136
110	0	0	1847	5	2808	0	3137
111	0	0	2050	5	2808	0	3137
112	0	0	2211	5	2808	0	3138
113	0	0	2413	5	2804	0	3139
114	0	0	2516	5	2802	0	3140
115	0	0	2506	4	2800	0	3140
116	0	0	2457	5	2797	0	3140
117	0	0	2394	4	2796	0	3139
118	0	0	2299	4	2795	0	3138
119	0	0	2233	4	2795	0	3137
120	0	0	2093	3	2793	0	3136
121	0	0	1957	4	2793	0	3137
122	0	0	1882	5	2794	0	3139
123	0	0	1802	4	2793	0	3139
124	0	0	1740	4	2796	0	3140
125	0	0	1679	4	2797	0	3140
126	0	0	1670	5	2800	0	3140
127	0	0	1700	5	2803	0	3139
0	0	0	1717	4	2803	0	3138
1	0	0	1695	5	2806	0	3137
2	0	0	1873	5	2808	0	3138
3	0	0	2066	5	2806	0	3138
4	0	0	2202	4	2806	0	3139
5	0	0	2388	5	2803	0	3141
6	0	0	2486	5	2801	0	3141
7	0	0	2479	5	2799	0	3142
8	0	0	2432	4	2795	0	3141
9	0	0	2373	4	2795	0	3139
10	0	0	2286	4	2792	0	3138
11	0	0	2226	4	2791	0	3136
12	0	0	2094	4	2792	0	3137
13	0	0	1955	5	2791	0	3138
14	0	0	1874	4	2793	0	3139
15	0	0	1796	4	2793	0	3140
16	0	0	1727	4	2795	0	3140
17	0	0	1672	4	2795	0	3141
18	0	0	1663	5	2798	0	3141
19	0	0	1699	5	2801	0	3141
20	0	0	1725	4	2801	0	3139
21	0	0	1681	5	2806	0	3138
22	0	0	1840	5	2804	0	3137
23	0	0	2046	5	2804	0	3139
24	0	0	2204	5	2804	0	3142
25	0	0	2396	5	2801	0	3140
26	0	0	2491	5	2800	0	3141
27	0	0	2483	5	2798	0	3141
28	0	0	2431	4	2796	0	3141
29	0	0	2365	4	2793	0	3140
30	0	0	2282	4	2792	0	3139
31	0	0	2219	4	2790	0	3137
32	0	0	2089	4	2791	0	3137
33	0	0	1956	4	2789	0	3138
34	0	0	1880	4	2789	0	3139
35	0	0	1805	4	2793	0	3141
36	0	0	1735	4	2793	0	3141
37	0	0	1677	4	2794	0	3142
38	0	0	1670	5	2797	0	3142
39	0	0	1705	5	2800	0	3142
40	0	0	1731	4	2802	0	3139
41	0	0	1704	4	2803	0	3138
42	0	0	1875	5	2804	0	3138
43	0	0	2071	5	2803	0	3139
44	0	0	2205	5	2803	0	3139
45	0	0	2390	5	2800	0	3141
46	0	0	2485	5	2798	0	3141
47	0	0	2471	4	2795	0	3142
48	0	0	2427	5	2794	0	3141
49	0	0	2365	4	2792	0	3141
50	0	0	2276	4	2790	0	3139
51	0	0	2217	4	2790	0	3139
52	0	0	2087	5	2788	0	3138
53	0	0	1955	3	2790	0	3139
54	0	0	1883	4	2789	0	3141
55	0	0	1808	4	2790	0	3142
56	0	0	1741	4	2793	0	3143
57	0	0	1689	5	2794	0	3142
58	0	0	1686	5	2797	0	3142
59	0	0	1726	4	2799	0	3141
60	0	0	1755	4	2800	0	3139
61	0	0	1707	5	2802	0	3138
62	0	0	1876	5	2803	0	3138
63	0	0	2087	5	2802	0	3139
64	0	0	2238	5	2803	0	3140
65	0	0	2430	5	2800	0	3141
66	0	0	2530	5	2798	0	3142
67	0	0	2524	5	2794	0	3142
68	0	0	2476	5	2793	0	3142
69	0	0	2415	4	2793	0	3141
70	0	0	2334	4	2790	0	3139
71	0	0	2269	4	2787	0	3138
72	0	0	2133	4	2788	0	3139
73	0	0	1993	4	2788	0	3139
74	0	0	1910	4	2790	0	3140
75	0	0	1830	4	2790	0	3142
76	0	0	1764	4	2792	0	3142
77	0	0	1704	4	2794	0	3142
78	0	0	1693	5	2796	0	3142
79	0	0	1725	4	2799	0	3141
80	0	0	1743	4	2802	0	3140
81	0	0	1709	5	2801	0	3138
82	0	0	1879	5	2803	0	3139
83	0	0	2065	5	2804	0	3139
84	0	0	2188	5	2803	0	3141
85	0	0	2368	5	2801	0	3142
86	0	0	2463	5	2796	0	3142
87	0	0	2448	4	2794	0	3143
88	0	0	2395	4	2794	0	3143
89	0	0	2324	4	2790	0	3141
90	0	0	2234	4	2788	0	3140
91	0	0	2175	4	2787	0	3138
92	0	0	2044	4	2785	0	3139
93	0	0	1912	4	2787	0	3139
94	0	0	1846	3	2787	0	3140
95	0	0	1777	4	2788	0	3141
96	0	0	1723	4	2789	0	3142
97	0	0	1672	4	2791	0	3142
98	0	0	1668	5	2795	0	3142
99	0	0	1708	5	2796	0	3142
100	0	0	1730	4	2799	0	3140
101	0	0	1686	5	2800	0	3138
102	0	0	1864	5	2802	0	3138
103	0	0	2076	3	2801	0	3140
104	0	0	2222	4	2801	0	3140
105	0	0	2398	5	2798	0	3142
106	0	0	2485	5	2795	0	3142
107	0	0	2464	4	2792	0	3142
108	0	0	2409	5	2791	0	3142
109	0	0	2339	4	2788	0	3142
110	0	0	2252	4	2785	0	3139
111	0	0	2191	4	2786	0	3139
112	0	0	2070	4	2785	0	3138
113	0	0	1941	6	2785	0	3139
114	0	0	1867	4	2786	0	3140
115	0	0	1799	4	2786	0	3141
116	0	0	1738	4	2787	0	3142
117	0	0	1688	4	2790	0	3142
118	0	0	1685	3	2793	0	3143
119	0	0	1726	5	2795	0	3141
120	0	0	1771	4	2798	0	3140
121	0	0	1744	5	2798	0	3138
122	0	0	1911	5	2798	0	3139
123	0	0	2099	3	2800	0	3140
124	0	0	2226	5	2798	0	3141
125	0	0	2405	5	2795	0	3141
126	0	0	2494	5	2793	0	3142
127	0	0	2469	4	2793	0	3142
0	0	0	2416	3	2790	0	3142
1	0	0	2344	4	2788	0	3140
2	0	0	2253	4	2786	0	3140
3	0	0	2189	4	2783	0	3138
4	0	0	2059	4	2783	0	3138
5	0	0	1930	6	2783	0	3139
6	0	0	1860	4	2785	0	3140
7	0	0	1789	4	2786	0	3141
8	0	0	1730	4	2787	0	3141
9	0	0	1685	4	2789	0	3142
10	0	0	1683	6	2792	0	3142
11	0	0	1722	5	2794	0	3141
12	0	0	1732	4	2795	0	3140
13	0	0	1703	5	2798	0	3138
14	0	0	1882	5	2799	0	3138
15	0	0	2086	5	2798	0	3131
16	0	0	2218	5	2797	0	3140
17	0	0	2394	5	2794	0	3141
18	0	0	2484	5	2791	0	3141
19	0	0	2462	4	2790	0	3142
20	0	0	2403	5	2788	0	3141
21	0	0	2329	4	2786	0	3140
22	0	0	2234	4	2784	0	3139
23	0	0	2170	4	2782	0	3137
24	0	0	2048	4	2781	0	3138
25	0	0	1925	2	2781	0	3139
26	0	0	1857	4	2783	0	3139
27	0	0	1787	4	2783	0	3141
28	0	0	1731	4	2785	0	3141
29	0	0	1685	5	2787	0	3142
30	0	0	1686	6	2789	0	3142
31	0	0	1735	5	2792	0	3141
32	0	0	1769	4	2795	0	3139
33	0	0	1744	5	2797	0	3138
34	0	0	1908	5	2797	0	3138
35	0	0	2104	5	2797	0	3139
36	0	0	2236	5	2796	0	3140
37	0	0	2412	5	2794	0	3140
38	0	0	2497	5	2791	0	3142
39	0	0	2467	4	2788	0	3141
40	0	0	2404	4	2785	0	3141
41	0	0	2331	4	2785	0	3141
42	0	0	2234	4	2782	0	3139
43	0	0	2168	5	2779	0	3137
44	0	0	2041	4	2780	0	3138
45	0	0	1907	4	2782	0	3138
46	0	0	1837	4	2780	0	3139
47	0	0	1777	4	2784	0	3141
48	0	0	1728	4	2783	0	3141
49	0	0	1694	4	2788	0	3142
50	0	0	1700	5	2790	0	3142
51	0	0	1747	5	2790	0	3140
52	0	0	1767	4	2794	0	3139
53	0	0	1752	5	2795	0	3137
54	0	0	1930	5	2796	0	3137
55	0	0	2129	5	2796	0	3137
56	0	0	2254	5	2794	0	3139
57	0	0	2418	5	2791	0	3140
58	0	0	2495	6	2789	0	3140
59	0	0	2461	4	2787	0	3142
60	0	0	2395	4	2785	0	3141
61	0	0	2318	4	2784	0	3140
62	0	0	2224	4	2781	0	3138
63	0	0	2164	4	2778	0	3137
64	0	0	2038	3	2778	0	3137
65	0	0	1911	4	2779	0	3137
66	0	0	1840	4	2780	0	3138
67	0	0	1777	4	2781	0	3140
68	0	0	1731	5	2783	0	3141
69	0	0	1687	4	2784	0	3140
70	0	0	1687	5	2786	0	3140
71	0	0	1728	4	2788	0	3140
72	0	0	1757	4	2791	0	3138
73	0	0	1736	6	2793	0	3137
74	0	0	1907	5	2793	0	3137
75	0	0	2095	5	2793	0	3137
76	0	0	2220	5	2793	0	3139
77	0	0	2393	5	2789	0	3140
78	0	0	2476	5	2786	0	3140
79	0	0	2444	4	2785	0	3142
80	0	0	2383	4	2784	0	3141
81	0	0	2309	4	2780	0	3139
82	0	0	2213	4	2779	0	3138
83	0	0	2153	4	2776	0	3136
84	0	0	2036	4	2775	0	3137
85	0	0	1912	4	2775	0	3137
86	0	0	1846	4	2777	0	3138
87	0	0	1785	4	2776	0	3139
88	0	0	1741	4	2778	0	3140
89	0	0	1697	3	2782	0	3140
90	0	0	1702	5	2783	0	3140
91	0	0	1734	5	2787	0	3139
92	0	0	1762	4	2788	0	3138
93	0	0	1755	5	2792	0	3136
94	0	0	1940	5	2791	0	3137
95	0	0	2140	6	2792	0	3137
96	0	0	2265	5	2792	0	3139
97	0	0	2434	5	2787	0	3139
98	0	0	2521	5	2787	0	3141
99	0	0	2488	5	2784	0	3140
100	0	0	2421	4	2781	0	3140
101	0	0	2347	4	2780	0	3139
102	0	0	2244	4	2776	0	3137
103	0	0	2178	4	2775	0	3136
104	0	0	2055	4	2775	0	3136
105	0	0	1931	4	2775	0	3137
106	0	0	1871	4	2775	0	3138
107	0	0	1806	4	2777	0	3139
108	0	0	1754	4	2779	0	3139
109	0	0	1713	5	2781	0	3140
110	0	0	1717	5	2783	0	3140
111	0	0	1758	5	2786	0	3139
112	0	0	1792	4	2790	0	3138
113	0	0	1767	5	2791	0	3136
114	0	0	1931	5	2791	0	3137
115	0	0	2119	5	2793	0	3137
116	0	0	2237	5	2790	0	3138
117	0	0	2406	5	2788	0	3139
118	0	0	2487	5	2786	0	3139
119	0	0	2452	5	2782	0	3139
120	0	0	2386	5	2781	0	3139
121	0	0	2312	5	2778	0	3138
122	0	0	2219	4	2776	0	3137
123	0	0	2157	4	2778	0	3137
124	0	0	2036	4	2774	0	3136
125	0	0	1906	5	2776	0	3137
126	0	0	1837	4	2777	0	3139
127	0	0	1771	4	2776	0	3139
0	0	0	1726	4	2779	0	3139
1	0	0	1685	4	2781	0	3140
2	0	0	1689	5	2784	0	3140
3	0	0	1710	5	2785	0	3139
4	0	0	1756	4	2788	0	3137
5	0	0	1748	5	2789	0	3135
6	0	0	1920	5	2795	0	3137
7	0	0	2113	5	2792	0	3136
8	0	0	2239	5	2791	0	3137
9	0	0	2408	5	2789	0	3139
10	0	0	2482	5	2785	0	3139
11	0	0	2448	4	2783	0	3139
12	0	0	2382	5	2781	0	3139
13	0	0	2309	4	2780	0	3139
14	0	0	2213	4	2775	0	3137
15	0	0	2151	4	2774	0	3135
16	0	0	2030	4	2775	0	3136
17	0	0	1902	4	2774	0	3136
18	0	0	1837	4	2775	0	3137
19	0	0	1775	4	2776	0	3138
20	0	0	1725	4	2778	0	3139
21	0	0	1686	5	2781	0	3139
22	0	0	1691	5	2782	0	3139
23	0	0	1736	5	2786	0	3138
24	0	0	1777	4	2789	0	3137
25	0	0	1752	5	2791	0	3135
26	0	0	1910	5	2792	0	3136
27	0	0	2101	5	2792	0	3136
28	0	0	2223	5	2790	0	3137
29	0	0	2394	5	2788	0	3139
30	0	0	2479	5	2783	0	3139
31	0	0	2445	4	2783	0	3140
32	0	0	2380	4	2780	0	3139
33	0	0	2304	4	2777	0	3139
34	0	0	2212	4	2775	0	3137
35	0	0	2145	3	2775	0	3135
36	0	0	2024	4	2774	0	3135
37	0	0	1901	4	2772	0	3135
38	0	0	1837	4	2774	0	3137
39	0	0	1777	4	2776	0	3138
40	0	0	1731	4	2777	0	3138
41	0	0	1685	5	2779	0	3139
42	0	0	1679	5	2782	0	3139
43	0	0	1701	5	2784	0	3138
44	0	0	1753	4	2789	0	3137
45	0	0	1742	4	2788	0	3135
46	0	0	1918	5	2789	0	3136
47	0	0	2115	5	2791	0	3137
48	0	0	2237	5	2788	0	3137
49	0	0	2400	5	2787	0	3139
50	0	0	2482	5	2783	0	3139
51	0	0	2450	4	2780	0	3139
52	0	0	2386	4	2778	0	3139
53	0	0	2311	4	2776	0	3138
54	0	0	2212	4	2774	0	3136
55	0	0	2153	4	2774	0	3135
56	0	0	2033	4	2771	0	3134
57	0	0	1908	5	2771	0	3135
58	0	0	1845	4	2772	0	3136
59	0	0	1781	4	2773	0	3137
60	0	0	1731	4	2775	0	3138
61	0	0	1685	4	2779	0	3139
62	0	0	1684	5	2782	0	3139
63	0	0	1730	5	2784	0	3138
64	0	0	1768	4	2787	0	3137
65	0	0	1738	5	2787	0	3135
66	0	0	1897	5	2787	0	3135
67	0	0	2085	5	2788	0	3136
68	0	0	2207	5	2787	0	3137
69	0	0	2377	5	2783	0	3137
70	0	0	2456	5	2781	0	3138
71	0	0	2423	5	2779	0	3138
72	0	0	2353	4	2775	0	3138
73	0	0	2280	4	2775	0	3138
74	0	0	2185	4	2772	0	3136
75	0	0	2124	3	2772	0	3135
76	0	0	2006	4	2769	0	3134
77	0	0	1876	4	2768	0	3135
78	0	0	1816	4	2770	0	3136
79	0	0	1757	4	2771	0	3138
80	0	0	1707	4	2773	0	3138
81	0	0	1664	4	2776	0	3139
82	0	0	1643	4	2779	0	3139
83	0	0	1679	4	2780	0	3138
84	0	0	1740	5	2782	0	3136
85	0	0	1729	5	2785	0	3133
86	0	0	1888	5	2785	0	3135
87	0	0	2075	5	2786	0	3135
88	0	0	2196	5	2785	0	3137
89	0	0	2361	5	2780	0	3137
90	0	0	2449	4	2780	0	3138
91	0	0	2416	4	2776	0	3138
92	0	0	2351	4	2774	0	3138
93	0	0	2285	4	2771	0	3137
94	0	0	2191	4	2770	0	3136
95	0	0	2128	4	2767	0	3134
96	0	0	2008	4	2766	0	3134
97	0	0	1880	5	2767	0	3135
98	0	0	1815	4	2767	0	3136
99	0	0	1756	4	2769	0	3138
100	0	0	1709	4	2770	0	3138
101	0	0	1667	4	2772	0	3139
102	0	0	1670	5	2775	0	3139
103	0	0	1713	5	2777	0	3137
104	0	0	1753	4	2779	0	3135
105	0	0	1728	5	2781	0	3134
106	0	0	1887	5	2782	0	3135
107	0	0	2079	5	2782	0	3135
108	0	0	2200	6	2781	0	3136
109	0	0	2366	5	2778	0	3137
110	0	0	2446	5	2775	0	3138
111	0	0	2422	5	2772	0	3138
112	0	0	2366	4	2771	0	3138
113	0	0	2298	4	2769	0	3138
114	0	0	2204	4	2767	0	3136
115	0	0	2139	3	2766	0	3135
116	0	0	2019	4	2765	0	3134
117	0	0	1892	5	2764	0	3135
118	0	0	1825	4	2765	0	3136
119	0	0	1764	4	2765	0	3137
120	0	0	1715	4	2768	0	3137
121	0	0	1677	4	2769	0	3138
122	0	0	1656	6	2772	0	3138
123	0	0	1704	5	2775	0	3137
124	0	0	1780	4	2777	0	3136
125	0	0	1758	5	2781	0	3134
126	0	0	1913	5	2781	0	3135
127	0	0	2103	5	2781	0	3135
0	0	0	2218	5	2780	0	3136
1	0	0	2385	5	2776	0	3137
2	0	0	2465	4	2772	0	3137
3	0	0	2435	4	2772	0	3139
4	0	0	2376	4	2769	0	3138
5	0	0	2307	5	2769	0	3137
6	0	0	2225	4	2765	0	3135
7	0	0	2160	4	2763	0	3134
8	0	0	2036	4	2763	0	3134
9	0	0	1908	4	2763	0	3134
10	0	0	1846	4	2765	0	3136
11	0	0	1787	4	2766	0	3137
12	0	0	1739	3	2768	0	3138
13	0	0	1700	4	2769	0	3138
14	0	0	1700	5	2773	0	3137
15	0	0	1741	6	2773	0	3137
16	0	0	1797	4	2775	0	3135
17	0	0	1761	5	2779	0	3134
18	0	0	1911	5	2780	0	3134
19	0	0	2100	5	2779	0	3135
20	0	0	2224	5	2778	0	3136
21	0	0	2395	5	2777	0	3138
22	0	0	2480	6	2774	0	3138
23	0	0	2451	4	2772	0	3139
24	0	0	2387	4	2769	0	3138
25	0	0	2311	5	2766	0	3137
26	0	0	2219	4	2764	0	3135
27	0	0	2161	3	2763	0	3133
28	0	0	2043	3	2763	0	3135
29	0	0	1918	4	2762	0	3134
30	0	0	1856	5	2764	0	3135
31	0	0	1801	4	2763	0	3137
32	0	0	1755	4	2766	0	3137
33	0	0	1699	6	2770	0	3138
34	0	0	1689	5	2770	0	3138
35	0	0	1746	5	2775	0	3138
36	0	0	1810	5	2777	0	3136
37	0	0	1785	5	2778	0	3134
38	0	0	1929	5	2779	0	3135
39	0	0	2122	5	2781	0	3135
40	0	0	2241	5	2778	0	3136
41	0	0	2410	5	2776	0	3137
42	0	0	2499	5	2774	0	3137
43	0	0	2466	5	2770	0	3137
44	0	0	2404	5	2767	0	3137
45	0	0	2334	5	2767	0	3137
46	0	0	2241	5	2764	0	3135
47	0	0	2181	4	2763	0	3134
48	0	0	2064	4	2762	0	3134
49	0	0	1937	5	2762	0	3134
50	0	0	1875	4	2764	0	3136
51	0	0	1815	4	2767	0	3138
52	0	0	1761	4	2766	0	3137
53	0	0	1719	5	2769	0	3138
54	0	0	1718	5	2770	0	3138
55	0	0	1759	5	2773	0	3137
56	0	0	1814	4	2777	0	3135
57	0	0	1779	4	2779	0	3134
58	0	0	1928	5	2779	0	3134
59	0	0	2120	5	2781	0	3135
60	0	0	2238	5	2779	0	3136
61	0	0	2404	5	2775	0	3137
62	0	0	2492	4	2772	0	3137
63	0	0	2466	5	2771	0	3137
64	0	0	2407	4	2767	0	3137
65	0	0	2339	4	2767	0	3136
66	0	0	2250	4	2764	0	3135
67	0	0	2187	4	2764	0	3135
68	0	0	2070	4	2763	0	3134
69	0	0	1941	4	2760	0	3135
70	0	0	1877	4	2765	0	3136
71	0	0	1815	4	2764	0	3137
72	0	0	1765	4	2766	0	3138
73	0	0	1710	4	2768	0	3138
74	0	0	1716	6	2771	0	3138
75	0	0	1774	4	2773	0	3137
76	0	0	1838	4	2776	0	3129
77	0	0	1800	5	2777	0	3133
78	0	0	1945	5	2779	0	3134
79	0	0	2136	5	2780	0	3135
80	0	0	2255	5	2778	0	3135
81	0	0	2418	5	2775	0	3136
82	0	0	2499	5	2772	0	3137
83	0	0	2465	5	2771	0	3138
84	0	0	2410	4	2769	0	3139
85	0	0	2341	4	2767	0	3137
86	0	0	2258	4	2765	0	3136
87	0	0	2194	4	2763	0	3134
88	0	0	2078	4	2761	0	3134
89	0	0	1953	5	2762	0	3135
90	0	0	1883	4	2763	0	3135
91	0	0	1821	4	2764	0	3137
92	0	0	1773	4	2767	0	3137
93	0	0	1735	4	2767	0	3137
94	0	0	1740	5	2770	0	3137
95	0	0	1783	5	2774	0	3137
96	0	0	1839	4	2776	0	3135
97	0	0	1803	5	2778	0	3134
98	0	0	1952	5	2778	0	3134
99	0	0	2138	4	2780	0	3135
100	0	0	2255	4	2778	0	3136
101	0	0	2424	5	2776	0	3137
102	0	0	2507	5	2772	0	3137
103	0	0	2482	4	2770	0	3138
104	0	0	2425	4	2769	0	3138
105	0	0	2353	4	2766	0	3137
106	0	0	2267	4	2764	0	3135
107	0	0	2205	4	2763	0	3134
108	0	0	2085	4	2761	0	3134
109	0	0	1955	4	2762	0	3134
110	0	0	1890	4	2763	0	3136
111	0	0	1828	4	2763	0	3136
112	0	0	1782	4	2764	0	3137
113	0	0	1719	4	2768	0	3137
114	0	0	1721	5	2770	0	3137
115	0	0	1778	5	2772	0	3136
116	0	0	1836	4	2775	0	3135
117	0	0	1799	5	2779	0	3133
118	0	0	1943	5	2778	0	3134
119	0	0	2132	5	2779	0	3135
120	0	0	2257	4	2778	0	3136
121	0	0	2427	5	2776	0	3137
122	0	0	2516	5	2772	0	3137
123	0	0	2491	4	2770	0	3137
124	0	0	2433	4	2768	0	3137
125	0	0	2363	4	2765	0	3136
126	0	0	2270	4	2763	0	3134
127	0	0	2205	5	2762	0	3133
0	0	0	2089	4	2761	0	3133
1	0	0	1961	4	2760	0	3134
2	0	0	1896	5	2765	0	3136
3	0	0	1836	4	2763	0	3136
4	0	0	1796	4	2766	0	3136
5	0	0	1752	5	2769	0	3137
6	0	0	1753	5	2772	0	3137
7	0	0	1792	4	2773	0	3136
8	0	0	1836	4	2776	0	3135
9	0	0	1803	3	2778	0	3133
10	0	0	1953	4	2778	0	3133
11	0	0	2143	5	2778	0	3134
12	0	0	2269	4	2777	0	3135
13	0	0	2438	5	2774	0	3136
14	0	0	2527	5	2772	0	3136
15	0	0	2498	5	2771	0	3137
16	0	0	2430	4	2767	0	3136
17	0	0	2359	4	2765	0	3136
18	0	0	2269	4	2762	0	3134
19	0	0	2212	4	2761	0	3132
20	0	0	2101	4	2762	0	3133
21	0	0	1972	4	2762	0	3133
22	0	0	1902	4	2763	0	3135
23	0	0	1840	4	2763	0	3136
24	0	0	1776	4	2766	0	3137
25	0	0	1726	4	2769	0	3137
26	0	0	1743	5	2769	0	3137
27	0	0	1804	5	2772	0	3136
28	0	0	1868	4	2776	0	3135
29	0	0	1829	5	2776	0	3133
30	0	0	1962	5	2778	0	3133
31	0	0	2149	5	2779	0	3133
32	0	0	2265	4	2777	0	3134
33	0	0	2427	5	2775	0	3135
34	0	0	2513	5	2771	0	3137
35	0	0	2488	4	2770	0	3136
36	0	0	2421	4	2767	0	3136
37	0	0	2352	3	2766	0	3136
38	0	0	2268	4	2764	0	3134
39	0	0	2206	4	2761	0	3132
40	0	0	2089	4	2760	0	3132
41	0	0	1959	4	2761	0	3134
42	0	0	1894	4	2762	0	3135
43	0	0	1838	4	2763	0	3136
44	0	0	1792	5	2764	0	3136
45	0	0	1752	3	2767	0	3137
46	0	0	1758	5	2769	0	3136
47	0	0	1806	5	2773	0	3136
48	0	0	1863	5	2775	0	3134
49	0	0	1830	5	2778	0	3133
50	0	0	1967	5	2778	0	3132
51	0	0	2155	5	2778	0	3132
52	0	0	2276	4	2777	0	3134
53	0	0	2436	5	2774	0	3135
54	0	0	2520	5	2771	0	3135
55	0	0	2495	4	2769	0	3136
56	0	0	2434	4	2766	0	3136
57	0	0	2362	3	2765	0	3135
58	0	0	2276	4	2762	0	3134
59	0	0	2211	4	2761	0	3132
60	0	0	2095	4	2760	0	3133
61	0	0	1964	4	2761	0	3134
62	0	0	1895	3	2760	0	3134
63	0	0	1833	4	2761	0	3135
64	0	0	1756	4	2764	0	3135
65	0	0	1719	5	2767	0	3135
66	0	0	1740	5	2768	0	3135
67	0	0	1800	5	2771	0	3135
68	0	0	1862	4	2774	0	3133
69	0	0	1822	4	2775	0	3131
70	0	0	1956	4	2778	0	3131
71	0	0	2142	4	2777	0	3133
72	0	0	2262	5	2776	0	3133
73	0	0	2427	5	2773	0	3134
74	0	0	2516	5	2770	0	3135
75	0	0	2488	4	2770	0	3136
76	0	0	2430	4	2766	0	3136
77	0	0	2358	4	2763	0	3135
78	0	0	2271	4	2761	0	3133
79	0	0	2205	4	2761	0	3132
80	0	0	2095	4	2760	0	3131
81	0	0	1962	4	2758	0	3132
82	0	0	1892	3	2759	0	3133
83	0	0	1831	4	2761	0	3133
84	0	0	1783	4	2763	0	3134
85	0	0	1743	5	2765	0	3135
86	0	0	1742	5	2767	0	3135
87	0	0	1785	5	2770	0	3135
88	0	0	1840	4	2773	0	3133
89	0	0	1806	4	2772	0	3131
90	0	0	1946	5	2775	0	3131
91	0	0	2137	5	2776	0	3132
92	0	0	2254	5	2774	0	3133
93	0	0	2419	5	2773	0	3135
94	0	0	2505	6	2769	0	3134
95	0	0	2479	5	2767	0	3135
96	0	0	2416	4	2764	0	3134
97	0	0	2345	3	2763	0	3134
98	0	0	2255	4	2759	0	3131
99	0	0	2190	4	2758	0	3130
100	0	0	2076	4	2758	0	3130
101	0	0	1949	4	2759	0	3131
102	0	0	1882	4	2760	0	3133
103	0	0	1812	4	2759	0	3133
104	0	0	1745	4	2761	0	3134
105	0	0	1717	4	2765	0	3135
106	0	0	1739	5	2767	0	3135
107	0	0	1799	3	2768	0	3134
108	0	0	1862	4	2770	0	3131
109	0	0	1824	6	2773	0	3130
110	0	0	1958	6	2774	0	3131
111	0	0	2143	5	2774	0	3131
112	0	0	2263	5	2772	0	3133
113	0	0	2420	5	2771	0	3132
114	0	0	2505	5	2767	0	3133
115	0	0	2477	5	2764	0	3134
116	0	0	2412	5	2762	0	3134
117	0	0	2337	3	2761	0	3133
118	0	0	2247	4	2759	0	3132
119	0	0	2180	4	2757	0	3129
120	0	0	2068	5	2756	0	3130
121	0	0	1938	4	2756	0	3130
122	0	0	1877	4	2757	0	3131
123	0	0	1822	4	2758	0	3132
124	0	0	1784	5	2759	0	3133
125	0	0	1744	4	2764	0	3134
126	0	0	1746	5	2767	0	3134
127	0	0	1791	5	2769	0	3134
0	0	0	1848	5	2771	0	3131
1	0	0	1812	5	2773	0	3129
2	0	0	1948	5	2772	0	3130
3	0	0	2138	5	2771	0	3130
4	0	0	2259	4	2772	0	3131
5	0	0	2421	5	2768	0	3131
6	0	0	2512	5	2767	0	3132
7	0	0	2483	5	2763	0	3133
8	0	0	2416	5	2760	0	3133
9	0	0	2341	4	2758	0	3132
10	0	0	2247	4	2755	0	3130
11	0	0	2180	4	2757	0	3129
12	0	0	2067	4	2755	0	3129
13	0	0	1942	4	2752	0	3130
14	0	0	1878	4	2755	0	3131
15	0	0	1800	4	2756	0	3131
16	0	0	1757	4	2758	0	3132
17	0	0	1736	5	2761	0	3133
18	0	0	1755	5	2763	0	3131
19	0	0	1801	4	2765	0	3132
20	0	0	1856	5	2769	0	3129
21	0	0	1821	5	2771	0	3128
22	0	0	1964	5	2771	0	3128
23	0	0	2155	5	2770	0	3128
24	0	0	2275	5	2771	0	3130
25	0	0	2435	5	2768	0	3130
26	0	0	2519	5	2765	0	3131
27	0	0	2483	4	2763	0	3132
28	0	0	2415	4	2760	0	3132
29	0	0	2341	4	2758	0	3131
30	0	0	2243	4	2756	0	3129
31	0	0	2178	4	2755	0	3129
32	0	0	2069	4	2756	0	3128
33	0	0	1940	4	2752	0	3129
34	0	0	1871	4	2755	0	3130
35	0	0	1812	4	2756	0	3130
36	0	0	1771	4	2757	0	3131
37	0	0	1733	4	2759	0	3131
38	0	0	1737	5	2760	0	3131
39	0	0	1781	5	2764	0	3131
40	0	0	1844	5	2767	0	3129
41	0	0	1814	5	2768	0	3127
42	0	0	1945	5	2770	0	3127
43	0	0	2140	5	2769	0	3128
44	0	0	2266	5	2770	0	3130
45	0	0	2423	5	2766	0	3130
46	0	0	2508	5	2764	0	3132
47	0	0	2477	4	2762	0	3132
48	0	0	2416	4	2758	0	3131
49	0	0	2339	4	2756	0	3131
50	0	0	2251	4	2754	0	3129
51	0	0	2183	4	2752	0	3128
52	0	0	2069	4	2752	0	3127
53	0	0	1940	4	2752	0	3128
54	0	0	1869	4	2753	0	3129
55	0	0	1788	4	2754	0	3129
56	0	0	1751	4	2755	0	3131
57	0	0	1734	4	2758	0	3130
58	0	0	1750	5	2760	0	3130
59	0	0	1794	5	2763	0	3131
60	0	0	1858	5	2765	0	3128
61	0	0	1822	5	2768	0	3128
62	0	0	1958	5	2769	0	3127
63	0	0	2149	5	2769	0	3128
64	0	0	2269	5	2768	0	3129
65	0	0	2428	5	2764	0	3129
66	0	0	2510	5	2762	0	3130
67	0	0	2475	4	2759	0	3131
68	0	0	2414	4	2756	0	3131
69	0	0	2337	4	2754	0	3130
70	0	0	2249	4	2752	0	3127
71	0	0	2179	4	2749	0	3126
72	0	0	2063	4	2750	0	3126
73	0	0	1938	4	2749	0	3127
74	0	0	1878	4	2749	0	3128
75	0	0	1821	4	2752	0	3129
76	0	0	1774	4	2753	0	3129
77	0	0	1736	4	2755	0	3130
78	0	0	1737	5	2760	0	3131
79	0	0	1779	5	2761	0	3130
80	0	0	1847	5	2763	0	3128
81	0	0	1815	5	2766	0	3126
82	0	0	1946	5	2766	0	3126
83	0	0	2136	5	2766	0	3127
84	0	0	2256	5	2765	0	3128
85	0	0	2409	5	2763	0	3129
86	0	0	2494	5	2760	0	3129
87	0	0	2463	5	2758	0	3129
88	0	0	2397	4	2756	0	3129
89	0	0	2319	4	2753	0	3129
90	0	0	2233	4	2752	0	3128
91	0	0	2172	4	2748	0	3125
92	0	0	2058	4	2748	0	3126
93	0	0	1926	4	2748	0	3126
94	0	0	1848	4	2749	0	3128
95	0	0	1776	4	2748	0	3128
96	0	0	1749	4	2754	0	3130
97	0	0	1735	4	2755	0	3130
98	0	0	1754	5	2757	0	3129
99	0	0	1800	5	2758	0	3129
100	0	0	1861	5	2760	0	3127
101	0	0	1821	5	2763	0	3126
102	0	0	1954	5	2764	0	3126
103	0	0	2143	5	2764	0	3126
104	0	0	2260	5	2764	0	3127
105	0	0	2416	5	2761	0	3127
106	0	0	2509	5	2758	0	3128
107	0	0	2479	4	2755	0	3129
108	0	0	2409	4	2754	0	3129
109	0	0	2325	4	2752	0	3128
110	0	0	2230	4	2750	0	3127
111	0	0	2164	3	2747	0	3125
112	0	0	2053	4	2746	0	3125
113	0	0	1925	4	2746	0	3127
114	0	0	1860	4	2748	0	3127
115	0	0	1806	4	2750	0	3128
116	0	0	1768	4	2749	0	3128
117	0	0	1734	6	2752	0	3129
118	0	0	1734	5	2756	0	3129
119	0	0	1779	5	2757	0	3128
120	0	0	1842	5	2762	0	3126
121	0	0	1806	5	2764	0	3125
122	0	0	1942	5	2764	0	3125
123	0	0	2141	4	2765	0	3126
124	0	0	2259	5	2763	0	3126
125	0	0	2411	5	2760	0	3127
126	0	0	2501	5	2758	0	3128
127	0	0	2467	4	2755	0	3128
0	0	0	2398	4	2752	0	3128
1	0	0	2319	4	2750	0	3128
2	0	0	2224	4	2747	0	3126
3	0	0	2158	4	2746	0	3126
4	0	0	2055	4	2747	1	3125
5	0	0	1926	4	2745	0	3126
6	0	0	1840	4	2747	0	3127
7	0	0	1778	4	2747	0	3127
8	0	0	1760	4	2749	0	3128
9	0	0	1741	5	2752	0	3127
10	0	0	1747	5	2753	0	3128
11	0	0	1790	4	2757	0	3128
12	0	0	1850	5	2759	0	3126
13	0	0	1818	5	2760	0	3124
14	0	0	1949	5	2763	0	3125
15	0	0	2147	5	2763	0	3126
16	0	0	2264	5	2762	0	3126
17	0	0	2415	5	2758	0	3127
18	0	0	2499	5	2758	0	3129
19	0	0	2465	4	2754	0	3128
20	0	0	2400	4	2752	0	3128
21	0	0	2324	4	2748	0	3128
22	0	0	2237	4	2746	0	3126
23	0	0	2170	4	2744	0	3125
24	0	0	2061	5	2743	0	3124
25	0	0	1934	4	2742	0	3125
26	0	0	1866	4	2744	0	3126
27	0	0	1805	4	2745	0	3126
28	0	0	1768	4	2746	0	3127
29	0	0	1735	4	2749	0	3128
30	0	0	1741	5	2751	0	3128
31	0	0	1783	5	2754	0	3128
32	0	0	1852	5	2758	0	3126
33	0	0	1814	6	2760	0	3124
34	0	0	1939	5	2760	0	3125
35	0	0	2132	5	2762	0	3126
36	0	0	2253	5	2761	0	3126
37	0	0	2409	5	2758	0	3128
38	0	0	2493	5	2753	0	3128
39	0	0	2460	4	2752	0	3128
40	0	0	2390	4	2750	0	3128
41	0	0	2312	4	2745	0	3127
42	0	0	2222	4	2745	0	3125
43	0	0	2155	4	2743	0	3124
44	0	0	2040	5	2741	0	3124
45	0	0	1915	4	2741	0	3124
46	0	0	1827	4	2743	0	3126
47	0	0	1782	4	2742	0	3127
48	0	0	1766	4	2745	0	3127
49	0	0	1740	4	2751	0	3128
50	0	0	1744	5	2752	0	3128
51	0	0	1788	5	2753	0	3127
52	0	0	1857	5	2758	0	3126
53	0	0	1814	5	2758	0	3124
54	0	0	1939	5	2758	0	3124
55	0	0	2131	5	2758	0	3125
56	0	0	2247	5	2760	0	3126
57	0	0	2398	5	2756	0	3127
58	0	0	2481	5	2755	0	3128
59	0	0	2453	4	2751	0	3127
60	0	0	2384	4	2748	0	3127
61	0	0	2305	4	2746	0	3127
62	0	0	2219	4	2743	0	3124
63	0	0	2155	4	2741	0	3123
64	0	0	2046	4	2740	0	3124
65	0	0	1915	4	2741	0	3125
66	0	0	1846	4	2741	0	3126
67	0	0	1791	4	2744	0	3127
68	0	0	1758	4	2744	0	3127
69	0	0	1724	4	2747	0	3128
70	0	0	1735	5	2749	0	3128
71	0	0	1782	5	2751	0	3127
72	0	0	1854	5	2755	0	3125
73	0	0	1819	5	2759	0	3125
74	0	0	1945	5	2758	0	3124
75	0	0	2136	5	2758	0	3124
76	0	0	2255	5	2757	0	3125
77	0	0	2402	5	2755	0	3126
78	0	0	2489	5	2751	0	3126
79	0	0	2455	4	2750	0	3127
80	0	0	2385	4	2748	0	3127
81	0	0	2308	4	2745	0	3127
82	0	0	2215	4	2744	0	3126
83	0	0	2146	4	2740	0	3123
84	0	0	2033	4	2739	0	3124
85	0	0	1891	4	2741	0	3125
86	0	0	1820	4	2739	0	3126
87	0	0	1786	4	2741	0	3126
88	0	0	1773	4	2743	0	3127
89	0	0	1748	4	2744	0	3127
90	0	0	1750	5	2748	0	3128
91	0	0	1796	5	2751	0	3127
92	0	0	1861	5	2753	0	3125
93	0	0	1820	5	2756	0	3124
94	0	0	1951	5	2756	0	3124
95	0	0	2142	5	2756	0	3124
96	0	0	2259	5	2755	0	3125
97	0	0	2407	5	2753	0	3126
98	0	0	2496	5	2750	0	3127
99	0	0	2459	4	2748	0	3127
100	0	0	2382	4	2745	0	3127
101	0	0	2302	4	2742	0	3127
102	0	0	2206	4	2741	0	3125
103	0	0	2138	4	2739	0	3124
104	0	0	2033	4	2739	0	3124
105	0	0	1905	4	2738	0	3124
106	0	0	1842	4	2737	0	3126
107	0	0	1793	4	2738	0	3126
108	0	0	1757	4	2742	0	3127
109	0	0	1723	3	2745	0	3127
110	0	0	1735	5	2747	0	3127
111	0	0	1785	5	2747	0	3127
112	0	0	1855	5	2752	0	3126
113	0	0	1823	5	2755	0	3123
114	0	0	1954	5	2755	0	3124
115	0	0	2146	5	2757	0	3125
116	0	0	2263	5	2755	0	3125
117	0	0	2409	5	2753	0	3127
118	0	0	2488	5	2750	0	3127
119	0	0	2458	4	2746	0	3128
120	0	0	2391	5	2745	0	3128
121	0	0	2309	5	2741	0	3127
122	0	0	2221	4	2739	0	3126
123	0	0	2150	4	2737	0	3123
124	0	0	2042	4	2737	0	3124
125	0	0	1889	4	2737	0	3124
126	0	0	1824	4	2736	0	3125
127	0	0	1790	4	2739	0	3126
0	0	0	1765	4	2740	0	3128
1	0	0	1738	4	2743	0	3127
2	0	0	1752	5	2746	0	3127
3	0	0	1801	5	2749	0	3127
4	0	0	1867	5	2750	0	3125
5	0	0	1826	5	2753	0	3125
6	0	0	1953	5	2755	0	3124
7	0	0	2143	5	2753	0	3124
8	0	0	2259	5	2752	0	3126
9	0	0	2403	5	2750	0	3126
10	0	0	2481	5	2747	0	3127
11	0	0	2448	5	2744	0	3128
12	0	0	2378	4	2743	0	3127
13	0	0	2298	4	2740	0	3127
14	0	0	2210	4	2739	0	3126
15	0	0	2143	4	2735	0	3123
16	0	0	2035	4	2735	0	3124
17	0	0	1910	4	2735	0	3124
18	0	0	1849	4	2737	0	3125
19	0	0	1801	4	2736	0	3125
20	0	0	1766	4	2739	0	3127
21	0	0	1732	5	2741	0	3127
22	0	0	1739	5	2743	0	3127
23	0	0	1787	5	2745	0	3127
24	0	0	1862	5	2749	0	3125
25	0	0	1827	5	2752	0	3124
26	0	0	1948	4	2753	0	3124
27	0	0	2140	5	2752	0	3124
28	0	0	2257	5	2754	0	3126
29	0	0	2400	5	2751	0	3127
30	0	0	2478	5	2748	0	3127
31	0	0	2441	5	2744	0	3127
32	0	0	2373	4	2742	0	3128
33	0	0	2299	5	2739	0	3127
34	0	0	2213	4	2736	0	3125
35	0	0	2141	4	2733	0	3123
36	0	0	2032	4	2734	0	3123
37	0	0	1885	4	2734	0	3124
38	0	0	1827	4	2735	0	3125
39	0	0	1796	4	2735	0	3126
40	0	0	1778	4	2737	0	3128
41	0	0	1749	4	2741	0	3128
42	0	0	1760	5	2743	0	3128
43	0	0	1810	5	2746	0	3128
44	0	0	1880	5	2747	0	3125
45	0	0	1841	5	2752	0	3125
46	0	0	1966	5	2752	0	3124
47	0	0	2152	5	2752	0	3124
48	0	0	2268	5	2753	0	3126
49	0	0	2416	5	2749	0	3126
50	0	0	2494	5	2745	0	3127
51	0	0	2456	4	2743	0	3128
52	0	0	2383	4	2742	0	3127
53	0	0	2301	4	2739	0	3127
54	0	0	2215	4	2736	0	3125
55	0	0	2147	4	2735	0	3124
56	0	0	2038	4	2735	0	3125
57	0	0	1907	4	2734	0	3126
58	0	0	1844	4	2733	0	3126
59	0	0	1798	4	2736	0	3128
60	0	0	1767	5	2738	0	3128
61	0	0	1738	4	2739	0	3128
