# bioPlux Text File Format
# Version: 1
# StartDateTime: 2011-07-18 11:19:46
# SamplingFrequency: 1000
# SampledChannels: 1 2 3 4
# SamplingResolution: 12
# AcquiringDevice: 00:07:80:42:0F:8B
# EndOfHeader
0	0	0	1948	1441	3678	74
1	0	0	1941	1442	3677	72
2	0	0	1957	1443	3678	74
3	0	0	1983	1443	3679	73
4	0	0	2034	1443	3678	74
5	0	0	2081	1442	3678	75
6	0	0	2114	1439	3676	76
7	0	0	2109	1443	3677	78
8	0	0	2101	1444	3677	75
9	0	0	2115	1443	3679	75
10	0	0	2131	1443	3677	74
11	0	0	2148	1445	3678	75
12	0	0	2181	1443	3679	78
13	0	0	2211	1444	3678	76
14	0	0	2220	1442	3679	75
15	0	0	2198	1443	3680	75
16	0	0	2172	1442	3677	76
17	0	0	2137	1441	3678	75
18	0	0	2103	1441	3679	73
19	0	0	2072	1441	3679	74
20	0	0	2065	1443	3677	74
21	0	0	2081	1439	3676	72
22	0	0	2091	1443	3677	74
23	0	0	2091	1442	3677	75
24	0	0	2091	1443	3679	79
25	0	0	2096	1443	3678	78
26	0	0	2099	1443	3678	74
27	0	0	2122	1443	3679	75
28	0	0	2156	1444	3680	74
29	0	0	2187	1444	3680	77
30	0	0	2201	1444	3679	78
31	0	0	2219	1444	3679	78
32	0	0	2253	1444	3679	78
33	0	0	2279	1444	3680	75
34	0	0	2261	1441	3680	74
35	0	0	2217	1442	3678	75
36	0	0	2183	1442	3678	74
37	0	0	2158	1442	3680	54
38	0	0	2115	1441	3680	75
39	0	0	2064	1442	3680	74
40	0	0	2016	1440	3678	75
41	0	0	1981	1442	3678	75
42	0	0	1979	1444	3679	75
43	0	0	1974	1444	3680	74
44	0	0	1979	1444	3679	75
45	0	0	1990	1444	3679	78
46	0	0	2010	1445	3679	77
47	0	0	2043	1443	3679	76
48	0	0	2073	1444	3680	73
49	0	0	2087	1444	3681	74
50	0	0	2100	1445	3680	74
51	0	0	2133	1444	3679	76
52	0	0	2193	1444	3680	78
53	0	0	2230	1445	3679	77
54	0	0	2227	1445	3679	75
55	0	0	2231	1444	3678	75
56	0	0	2205	1442	3678	75
57	0	0	2166	1441	3679	74
58	0	0	2117	1441	3677	75
59	0	0	2080	1442	3680	74
60	0	0	2069	1444	3679	75
61	0	0	2070	1443	3679	75
62	0	0	2080	1444	3679	74
63	0	0	2094	1444	3680	75
64	0	0	2132	1444	3681	77
65	0	0	2168	1444	3679	74
66	0	0	2193	1444	3680	74
67	0	0	2212	1442	3679	74
68	0	0	2223	1443	3678	79
69	0	0	2213	1443	3680	76
70	0	0	2188	1442	3674	79
71	0	0	2174	1444	3678	78
72	0	0	2201	1444	3679	74
73	0	0	2223	1445	3677	75
74	0	0	2194	1442	3680	72
75	0	0	2137	1441	3679	75
76	0	0	2060	1441	3679	75
77	0	0	1978	1440	3679	74
78	0	0	1917	1442	3680	75
79	0	0	1893	1442	3680	73
80	0	0	1887	1443	3681	73
81	0	0	1875	1443	3681	73
82	0	0	1868	1444	3680	74
83	0	0	1880	1443	3680	74
84	0	0	1910	1444	3680	74
85	0	0	1946	1443	3681	77
86	0	0	1974	1444	3674	77
87	0	0	1999	1444	3680	74
88	0	0	2031	1444	3679	75
89	0	0	2056	1439	3676	75
90	0	0	2068	1444	3680	73
91	0	0	2094	1444	3680	74
92	0	0	2141	1445	3679	78
93	0	0	2182	1445	3680	75
94	0	0	2186	1445	3680	75
95	0	0	2167	1444	3680	73
96	0	0	2137	1442	3680	74
97	0	0	2108	1442	3682	74
98	0	0	2094	1445	3681	73
99	0	0	2093	1444	3678	75
100	0	0	2090	1443	3679	75
101	0	0	2072	1442	3678	74
102	0	0	2024	1440	3683	74
103	0	0	1996	1444	3680	71
104	0	0	2014	1444	3680	77
105	0	0	2033	1444	3679	78
106	0	0	2042	1444	3680	72
107	0	0	2060	1445	3678	75
108	0	0	2080	1445	3678	75
109	0	0	2083	1444	3679	78
110	0	0	2080	1444	3679	78
111	0	0	2088	1445	3679	77
112	0	0	2130	1445	3680	76
113	0	0	2166	1445	3681	74
114	0	0	2157	1443	3678	75
115	0	0	2130	1442	3679	75
116	0	0	2094	1442	3680	75
117	0	0	2052	1442	3677	76
118	0	0	2039	1445	3683	73
119	0	0	2032	1444	3680	74
120	0	0	2001	1441	3679	75
121	0	0	1975	1442	3680	72
122	0	0	1966	1443	3678	75
123	0	0	1941	1441	3679	73
124	0	0	1909	1440	3676	75
125	0	0	1885	1442	3678	75
126	0	0	1905	1443	3679	77
127	0	0	1971	1443	3678	77
0	0	0	2042	1444	3679	79
1	0	0	2070	1444	3676	78
2	0	0	2088	1444	3680	74
3	0	0	2113	1445	3680	74
4	0	0	2145	1446	3680	74
5	0	0	2171	1445	3683	77
6	0	0	2179	1446	3679	72
7	0	0	2180	1445	3680	74
8	0	0	2154	1442	3678	75
9	0	0	2078	1441	3677	74
10	0	0	2006	1442	3679	72
11	0	0	1986	1444	3676	75
12	0	0	2027	1445	3678	74
13	0	0	2088	1443	3680	75
14	0	0	2132	1443	3676	77
15	0	0	2155	1444	3680	71
16	0	0	2182	1444	3680	77
17	0	0	2213	1442	3679	78
18	0	0	2233	1443	3680	74
19	0	0	2246	1444	3679	74
20	0	0	2264	1444	3680	74
21	0	0	2308	1444	3676	75
22	0	0	2368	1443	3682	77
23	0	0	2435	1444	3679	75
24	0	0	2489	1443	3676	75
25	0	0	2527	1445	3678	76
26	0	0	2552	1445	3679	74
27	0	0	2597	1444	3679	74
28	0	0	2631	1446	3678	74
29	0	0	2628	1445	3679	75
30	0	0	2607	1445	3680	73
31	0	0	2601	1444	3678	72
32	0	0	2611	1445	3679	75
33	0	0	2612	1445	3680	75
34	0	0	2590	1442	3676	75
35	0	0	2581	1444	3681	71
36	0	0	2590	1444	3679	78
37	0	0	2580	1444	3678	77
38	0	0	2538	1439	3674	78
39	0	0	2470	1439	3678	75
40	0	0	2389	1440	3679	73
41	0	0	2287	1441	3678	75
42	0	0	2184	1440	3678	78
43	0	0	2105	1440	3679	78
44	0	0	2049	1441	3680	79
45	0	0	1977	1440	3679	75
46	0	0	1883	1441	3679	75
47	0	0	1786	1440	3678	79
48	0	0	1688	1440	3680	72
49	0	0	1597	1441	3679	74
50	0	0	1537	1441	3680	73
51	0	0	1516	1441	3679	74
52	0	0	1517	1443	3679	75
53	0	0	1526	1444	3678	75
54	0	0	1549	1443	3680	74
55	0	0	1587	1445	3680	72
56	0	0	1628	1443	3679	74
57	0	0	1675	1444	3680	74
58	0	0	1716	1443	3676	72
59	0	0	1746	1445	3679	78
60	0	0	1790	1444	3679	80
61	0	0	1836	1444	3679	78
62	0	0	1857	1445	3678	79
63	0	0	1862	1444	3678	77
64	0	0	1889	1445	3679	74
65	0	0	1921	1444	3680	72
66	0	0	1907	1443	3679	75
67	0	0	1895	1445	3679	74
68	0	0	1900	1445	3679	75
69	0	0	1898	1445	3679	74
70	0	0	1888	1445	3676	77
71	0	0	1870	1441	3679	75
72	0	0	1834	1441	3679	75
73	0	0	1804	1441	3679	74
74	0	0	1802	1445	3679	74
75	0	0	1828	1443	3679	74
76	0	0	1873	1444	3679	75
77	0	0	1911	1443	3679	78
78	0	0	1930	1445	3678	77
79	0	0	1943	1443	3678	77
80	0	0	1949	1445	3679	76
81	0	0	1973	1444	3679	73
82	0	0	2001	1445	3677	72
83	0	0	2041	1444	3678	78
84	0	0	2088	1445	3680	74
85	0	0	2127	1445	3680	76
86	0	0	2130	1444	3682	74
87	0	0	2131	1445	3679	75
88	0	0	2103	1441	3679	74
89	0	0	2043	1441	3679	73
90	0	0	1986	1441	3680	74
91	0	0	1936	1441	3678	74
92	0	0	1892	1442	3678	75
93	0	0	1877	1444	3679	75
94	0	0	1887	1444	3679	74
95	0	0	1923	1445	3678	76
96	0	0	1978	1444	3679	77
97	0	0	2028	1445	3678	75
98	0	0	2069	1444	3678	75
99	0	0	2093	1445	3679	75
100	0	0	2115	1446	3679	79
101	0	0	2136	1444	3680	75
102	0	0	2143	1444	3677	78
103	0	0	2129	1442	3679	78
104	0	0	2124	1446	3680	73
105	0	0	2114	1443	3680	73
106	0	0	2074	1441	3679	75
107	0	0	2024	1441	3678	75
108	0	0	1972	1440	3679	74
109	0	0	1920	1442	3679	72
110	0	0	1882	1442	3679	76
111	0	0	1848	1442	3679	74
112	0	0	1819	1442	3678	74
113	0	0	1808	1444	3678	75
114	0	0	1821	1445	3680	74
115	0	0	1844	1444	3679	74
116	0	0	1891	1443	3678	74
117	0	0	1960	1444	3675	77
118	0	0	2019	1444	3682	77
119	0	0	2044	1444	3680	74
120	0	0	2046	1444	3680	76
121	0	0	2055	1444	3680	74
122	0	0	2075	1444	3680	74
123	0	0	2095	1441	3679	74
124	0	0	2113	1444	3678	77
125	0	0	2113	1443	3678	79
126	0	0	2066	1442	3679	75
127	0	0	2019	1442	3677	71
0	0	0	1994	1442	3677	71
1	0	0	1967	1443	3680	75
2	0	0	1939	1442	3678	74
3	0	0	1908	1441	3677	74
4	0	0	1890	1443	3680	75
5	0	0	1899	1444	3677	75
6	0	0	1913	1444	3684	72
7	0	0	1935	1445	3679	76
8	0	0	1971	1445	3680	77
9	0	0	1999	1443	3678	74
10	0	0	2022	1443	3679	74
11	0	0	2037	1445	3680	72
12	0	0	2060	1444	3679	76
13	0	0	2089	1444	3677	71
14	0	0	2097	1444	3679	74
15	0	0	2088	1443	3677	74
16	0	0	2106	1445	3679	72
17	0	0	2127	1445	3678	75
18	0	0	2091	1441	3678	75
19	0	0	2035	1441	3678	76
20	0	0	1982	1439	3678	74
21	0	0	1907	1441	3681	72
22	0	0	1839	1440	3683	75
23	0	0	1796	1441	3680	75
24	0	0	1777	1442	3679	75
25	0	0	1772	1443	3679	74
26	0	0	1780	1445	3679	75
27	0	0	1814	1445	3680	73
28	0	0	1876	1444	3678	75
29	0	0	1919	1444	3679	74
30	0	0	1916	1443	3678	74
31	0	0	1927	1444	3678	75
32	0	0	1971	1444	3679	75
33	0	0	2019	1444	3680	74
34	0	0	2064	1445	3679	74
35	0	0	2095	1445	3678	75
36	0	0	2139	1446	3680	75
37	0	0	2159	1444	3680	77
38	0	0	2138	1442	3676	75
39	0	0	2106	1442	3678	75
40	0	0	2086	1442	3679	73
41	0	0	2048	1441	3680	74
42	0	0	1993	1441	3680	75
43	0	0	1928	1440	3680	73
44	0	0	1871	1441	3678	74
45	0	0	1873	1446	3678	74
46	0	0	1922	1444	3678	75
47	0	0	1955	1443	3678	75
48	0	0	1965	1444	3678	75
49	0	0	1968	1443	3676	74
50	0	0	1989	1443	3678	74
51	0	0	2032	1441	3678	74
52	0	0	2085	1445	3679	75
53	0	0	2137	1444	3678	71
54	0	0	2165	1443	3680	73
55	0	0	2173	1445	3678	75
56	0	0	2188	1444	3680	73
57	0	0	2196	1445	3680	74
58	0	0	2161	1441	3681	74
59	0	0	2104	1441	3679	75
60	0	0	2038	1441	3679	75
61	0	0	1981	1442	3680	75
62	0	0	1955	1442	3679	71
63	0	0	1957	1444	3679	75
64	0	0	1964	1444	3678	75
65	0	0	1958	1444	3678	74
66	0	0	1922	1439	3678	74
67	0	0	1888	1442	3677	74
68	0	0	1905	1443	3678	74
69	0	0	1947	1444	3680	73
70	0	0	1982	1445	3674	74
71	0	0	2010	1444	3680	74
72	0	0	2043	1445	3680	74
73	0	0	2075	1444	3679	76
74	0	0	2091	1444	3679	74
75	0	0	2102	1444	3677	77
76	0	0	2140	1443	3678	76
77	0	0	2190	1444	3679	75
78	0	0	2211	1444	3678	74
79	0	0	2209	1443	3680	74
80	0	0	2161	1440	3678	75
81	0	0	2099	1439	3676	77
82	0	0	2057	1441	3678	76
83	0	0	2032	1442	3679	74
84	0	0	2010	1441	3678	74
85	0	0	1995	1442	3680	74
86	0	0	1982	1443	3673	74
87	0	0	1975	1442	3679	74
88	0	0	1969	1445	3679	74
89	0	0	1973	1444	3678	75
90	0	0	2006	1443	3680	73
91	0	0	2082	1442	3680	74
92	0	0	2152	1445	3680	72
93	0	0	2203	1443	3679	73
94	0	0	2233	1444	3678	75
95	0	0	2241	1444	3680	72
96	0	0	2250	1444	3679	75
97	0	0	2242	1442	3678	72
98	0	0	2208	1441	3679	74
99	0	0	2185	1443	3677	75
100	0	0	2164	1442	3680	74
101	0	0	2133	1440	3678	75
102	0	0	2107	1442	3682	70
103	0	0	2102	1443	3679	74
104	0	0	2094	1442	3679	75
105	0	0	2054	1442	3679	76
106	0	0	2008	1438	3679	73
107	0	0	1967	1441	3680	76
108	0	0	1952	1443	3680	72
109	0	0	1977	1442	3679	75
110	0	0	2049	1442	3680	76
111	0	0	2134	1439	3679	74
112	0	0	2201	1444	3679	70
113	0	0	2255	1443	3678	73
114	0	0	2292	1444	3679	74
115	0	0	2290	1444	3680	75
116	0	0	2283	1442	3678	74
117	0	0	2276	1444	3678	76
118	0	0	2258	1441	3674	74
119	0	0	2233	1442	3678	75
120	0	0	2201	1441	3679	75
121	0	0	2151	1438	3679	74
122	0	0	2108	1440	3679	72
123	0	0	2071	1440	3678	74
124	0	0	2052	1442	3678	75
125	0	0	2049	1444	3680	74
126	0	0	2041	1439	3679	73
127	0	0	2035	1443	3679	74
0	0	0	2054	1443	3678	73
1	0	0	2075	1444	3678	75
2	0	0	2089	1444	3676	75
3	0	0	2113	1441	3679	74
4	0	0	2140	1443	3678	72
5	0	0	2161	1443	3677	73
6	0	0	2180	1446	3671	73
7	0	0	2234	1444	3678	75
8	0	0	2316	1440	3678	74
9	0	0	2363	1443	3679	76
10	0	0	2351	1442	3678	74
11	0	0	2313	1442	3680	74
12	0	0	2249	1437	3679	74
13	0	0	2165	1438	3679	74
14	0	0	2108	1440	3680	75
15	0	0	2122	1443	3679	74
16	0	0	2183	1445	3678	74
17	0	0	2253	1443	3679	73
18	0	0	2283	1443	3679	75
19	0	0	2277	1442	3678	75
20	0	0	2255	1443	3679	75
21	0	0	2248	1441	3677	75
22	0	0	2245	1442	3679	73
23	0	0	2237	1444	3679	75
24	0	0	2252	1446	3678	74
25	0	0	2311	1442	3678	73
26	0	0	2361	1443	3678	75
27	0	0	2383	1443	3677	75
28	0	0	2394	1442	3679	74
29	0	0	2405	1444	3679	78
30	0	0	2396	1444	3679	74
31	0	0	2359	1440	3678	75
32	0	0	2301	1439	3680	74
33	0	0	2216	1443	3678	74
34	0	0	2131	1439	3679	76
35	0	0	2077	1440	3677	73
36	0	0	2059	1442	3679	75
37	0	0	2052	1443	3678	74
38	0	0	2046	1442	3681	74
39	0	0	2056	1445	3678	77
40	0	0	2081	1443	3677	74
41	0	0	2104	1444	3677	74
42	0	0	2127	1443	3679	73
43	0	0	2152	1444	3680	74
44	0	0	2179	1444	3679	75
45	0	0	2198	1443	3678	74
46	0	0	2199	1443	3679	74
47	0	0	2165	1440	3677	73
48	0	0	2138	1441	3679	74
49	0	0	2096	1441	3680	74
50	0	0	2058	1441	3678	76
51	0	0	2046	1444	3678	75
52	0	0	2029	1441	3678	73
53	0	0	2001	1441	3675	73
54	0	0	1977	1441	3678	74
55	0	0	1975	1443	3679	75
56	0	0	1980	1442	3677	74
57	0	0	1981	1443	3678	75
58	0	0	1969	1441	3677	75
59	0	0	1954	1442	3678	76
60	0	0	1950	1443	3678	76
61	0	0	1967	1441	3678	75
62	0	0	1992	1441	3678	75
63	0	0	2017	1441	3677	75
64	0	0	2044	1443	3679	78
65	0	0	2042	1443	3679	76
66	0	0	2036	1443	3678	75
67	0	0	2052	1442	3678	75
68	0	0	2087	1442	3676	75
69	0	0	2102	1443	3680	76
70	0	0	2063	1439	3677	77
71	0	0	2008	1440	3677	75
72	0	0	1975	1439	3677	74
73	0	0	1951	1441	3677	72
74	0	0	1936	1442	3678	78
75	0	0	1930	1443	3677	76
76	0	0	1928	1443	3678	74
77	0	0	1921	1442	3678	74
78	0	0	1897	1441	3680	72
79	0	0	1878	1443	3679	76
80	0	0	1879	1444	3679	76
81	0	0	1902	1443	3679	72
82	0	0	1927	1442	3678	74
83	0	0	1969	1443	3678	72
84	0	0	2021	1443	3678	77
85	0	0	2043	1444	3677	76
86	0	0	2039	1444	3677	71
87	0	0	2030	1443	3678	74
88	0	0	2044	1445	3680	72
89	0	0	2078	1443	3678	78
90	0	0	2074	1442	3677	76
91	0	0	2034	1440	3677	75
92	0	0	1988	1439	3678	75
93	0	0	1948	1440	3678	75
94	0	0	1917	1440	3679	75
95	0	0	1892	1441	3679	77
96	0	0	1868	1442	3678	73
97	0	0	1842	1441	3680	72
98	0	0	1829	1442	3680	73
99	0	0	1842	1443	3679	75
100	0	0	1871	1443	3679	74
101	0	0	1894	1443	3678	75
102	0	0	1894	1443	3676	74
103	0	0	1872	1442	3678	74
104	0	0	1868	1440	3678	74
105	0	0	1875	1443	3679	75
106	0	0	1882	1443	3677	74
107	0	0	1906	1443	3678	74
108	0	0	1964	1442	3676	75
109	0	0	2020	1443	3678	75
110	0	0	2039	1444	3678	76
111	0	0	2022	1442	3678	74
112	0	0	1995	1441	3679	75
113	0	0	1974	1440	3679	75
114	0	0	1975	1444	3680	73
115	0	0	2000	1443	3678	77
116	0	0	2017	1444	3680	73
117	0	0	2015	1443	3680	75
118	0	0	1996	1440	3678	75
119	0	0	1960	1441	3678	75
120	0	0	1939	1441	3677	76
121	0	0	1932	1444	3676	74
122	0	0	1930	1443	3677	74
123	0	0	1927	1444	3680	76
124	0	0	1920	1443	3679	74
125	0	0	1935	1443	3680	75
126	0	0	1975	1444	3678	74
127	0	0	2010	1443	3678	74
0	0	0	2045	1444	3679	78
1	0	0	2046	1442	3679	75
2	0	0	2025	1441	3679	77
3	0	0	2026	1444	3679	76
4	0	0	2012	1441	3679	75
5	0	0	1975	1440	3680	74
6	0	0	1932	1440	3679	75
7	0	0	1876	1440	3679	75
8	0	0	1842	1441	3678	75
9	0	0	1846	1443	3677	74
10	0	0	1871	1444	3678	73
11	0	0	1910	1444	3678	75
12	0	0	1943	1443	3678	74
13	0	0	1934	1441	3678	74
14	0	0	1912	1441	3677	75
15	0	0	1906	1444	3679	74
16	0	0	1924	1443	3680	73
17	0	0	1951	1443	3679	73
18	0	0	1965	1442	3679	75
19	0	0	1942	1440	3678	77
20	0	0	1953	1442	3679	79
21	0	0	1996	1443	3680	74
22	0	0	2028	1443	3677	75
23	0	0	2027	1443	3678	76
24	0	0	1989	1440	3678	73
25	0	0	1937	1440	3678	78
26	0	0	1889	1441	3677	74
27	0	0	1877	1443	3676	73
28	0	0	1892	1444	3677	75
29	0	0	1907	1444	3677	74
30	0	0	1923	1442	3677	72
31	0	0	1919	1443	3678	74
32	0	0	1923	1442	3677	74
33	0	0	1928	1439	3677	74
34	0	0	1926	1443	3677	75
35	0	0	1945	1442	3679	79
36	0	0	1976	1443	3678	74
37	0	0	2014	1443	3678	72
38	0	0	2048	1443	3679	75
39	0	0	2079	1442	3676	75
40	0	0	2115	1444	3677	78
41	0	0	2126	1442	3676	76
42	0	0	2087	1439	3675	73
43	0	0	2022	1439	3675	76
44	0	0	1955	1439	3675	72
45	0	0	1908	1439	3677	74
46	0	0	1886	1439	3676	74
47	0	0	1874	1442	3677	75
48	0	0	1873	1442	3675	74
49	0	0	1877	1442	3675	75
50	0	0	1874	1442	3676	73
51	0	0	1853	1440	3676	76
52	0	0	1854	1442	3676	75
53	0	0	1876	1444	3678	75
54	0	0	1920	1445	3672	73
55	0	0	1974	1444	3675	74
56	0	0	2020	1443	3676	74
57	0	0	2059	1442	3674	73
58	0	0	2084	1443	3674	74
59	0	0	2091	1443	3673	75
60	0	0	2111	1441	3674	77
61	0	0	2099	1438	3674	74
62	0	0	2057	1441	3672	73
63	0	0	2032	1442	3674	74
64	0	0	2012	1439	3674	74
65	0	0	1990	1442	3674	72
66	0	0	1974	1440	3674	74
67	0	0	1953	1440	3674	73
68	0	0	1937	1440	3673	74
69	0	0	1922	1440	3672	71
70	0	0	1897	1439	3674	75
71	0	0	1873	1439	3673	74
72	0	0	1869	1441	3673	74
73	0	0	1875	1444	3671	74
74	0	0	1904	1441	3671	75
75	0	0	1939	1443	3672	72
76	0	0	1969	1441	3672	76
77	0	0	1977	1442	3672	72
78	0	0	1963	1440	3672	75
79	0	0	1961	1439	3671	72
80	0	0	2004	1443	3671	72
81	0	0	2081	1442	3672	74
82	0	0	2138	1442	3670	76
83	0	0	2153	1442	3671	73
84	0	0	2105	1438	3671	75
85	0	0	2027	1438	3673	73
86	0	0	1939	1437	3676	74
87	0	0	1876	1439	3671	68
88	0	0	1838	1438	3670	74
89	0	0	1806	1438	3670	74
90	0	0	1778	1438	3670	73
91	0	0	1789	1441	3669	73
92	0	0	1824	1442	3671	74
93	0	0	1859	1443	3669	74
94	0	0	1907	1441	3670	71
95	0	0	1949	1441	3670	73
96	0	0	1972	1443	3670	74
97	0	0	1981	1444	3669	72
98	0	0	1998	1439	3669	73
99	0	0	2020	1439	3669	73
100	0	0	2042	1443	3671	72
101	0	0	2063	1442	3667	74
102	0	0	2064	1443	3670	76
103	0	0	2052	1440	3670	74
104	0	0	2023	1438	3670	73
105	0	0	1980	1440	3670	71
106	0	0	1949	1439	3670	75
107	0	0	1949	1442	3669	74
108	0	0	1929	1438	3671	73
109	0	0	1887	1438	3669	71
110	0	0	1840	1439	3670	74
111	0	0	1813	1439	3671	71
112	0	0	1811	1442	3670	75
113	0	0	1815	1440	3670	74
114	0	0	1837	1442	3670	71
115	0	0	1895	1441	3671	75
116	0	0	1952	1441	3671	75
117	0	0	1989	1441	3670	74
118	0	0	2001	1441	3671	74
119	0	0	1977	1439	3672	74
120	0	0	1967	1442	3672	74
121	0	0	1957	1439	3672	74
122	0	0	1939	1439	3670	75
123	0	0	1914	1438	3669	73
124	0	0	1882	1437	3668	73
125	0	0	1851	1438	3670	71
126	0	0	1847	1442	3669	74
127	0	0	1870	1441	3668	74
0	0	0	1870	1438	3668	73
1	0	0	1840	1437	3668	73
2	0	0	1814	1439	3668	74
3	0	0	1819	1442	3669	75
4	0	0	1851	1441	3670	74
5	0	0	1881	1442	3670	73
6	0	0	1906	1441	3668	73
7	0	0	1911	1441	3670	73
8	0	0	1907	1441	3669	74
9	0	0	1937	1441	3667	75
10	0	0	1954	1439	3666	73
11	0	0	1961	1439	3663	74
12	0	0	1980	1441	3663	75
13	0	0	2012	1442	3662	73
14	0	0	2019	1442	3660	74
15	0	0	1996	1441	3659	75
16	0	0	1956	1438	3655	71
17	0	0	1912	1440	3655	74
18	0	0	1893	1440	3655	74
19	0	0	1908	1442	3653	71
20	0	0	1930	1441	3652	72
21	0	0	1939	1439	3651	72
22	0	0	1917	1440	3650	75
23	0	0	1907	1440	3651	73
24	0	0	1902	1442	3647	76
25	0	0	1893	1439	3648	73
26	0	0	1896	1439	3647	74
27	0	0	1906	1441	3645	76
28	0	0	1922	1441	3645	73
29	0	0	1944	1440	3643	63
30	0	0	1983	1441	3641	72
31	0	0	2035	1438	3642	73
32	0	0	2079	1440	3642	75
33	0	0	2084	1440	3641	74
34	0	0	2030	1437	3641	75
35	0	0	1957	1437	3640	74
36	0	0	1900	1435	3640	73
37	0	0	1857	1437	3640	75
38	0	0	1831	1438	3641	73
39	0	0	1805	1440	3639	71
40	0	0	1789	1438	3640	73
41	0	0	1779	1439	3640	74
42	0	0	1772	1439	3640	72
43	0	0	1768	1441	3639	73
44	0	0	1784	1441	3639	72
45	0	0	1827	1439	3637	73
46	0	0	1872	1440	3638	74
47	0	0	1897	1438	3638	73
48	0	0	1906	1440	3637	73
49	0	0	1922	1441	3638	73
50	0	0	1941	1439	3636	73
51	0	0	1972	1441	3636	72
52	0	0	2006	1442	3636	71
53	0	0	2013	1440	3640	73
54	0	0	1975	1438	3636	71
55	0	0	1954	1439	3637	73
56	0	0	1946	1439	3637	73
57	0	0	1920	1439	3637	73
58	0	0	1894	1438	3637	72
59	0	0	1879	1438	3633	69
60	0	0	1852	1437	3629	73
61	0	0	1806	1437	3623	69
62	0	0	1778	1437	3617	71
63	0	0	1767	1438	3611	73
64	0	0	1777	1440	3605	71
65	0	0	1811	1439	3598	72
66	0	0	1858	1438	3592	72
67	0	0	1919	1439	3585	71
68	0	0	1969	1440	3579	73
69	0	0	1985	1439	3573	68
70	0	0	1980	1440	3567	73
71	0	0	1989	1441	3562	72
72	0	0	2019	1441	3556	71
73	0	0	2046	1440	3551	72
74	0	0	2035	1438	3546	71
75	0	0	2009	1437	3537	71
76	0	0	1957	1435	3526	71
77	0	0	1903	1438	3510	71
78	0	0	1884	1439	3495	70
79	0	0	1883	1439	3476	67
80	0	0	1864	1436	3458	69
81	0	0	1829	1437	3439	73
82	0	0	1786	1437	3416	67
83	0	0	1763	1438	3395	67
84	0	0	1794	1439	3371	65
85	0	0	1856	1439	3345	67
86	0	0	1896	1439	3326	71
87	0	0	1915	1440	3301	67
88	0	0	1941	1441	3277	66
89	0	0	1968	1440	3252	65
90	0	0	1991	1439	3225	65
91	0	0	2000	1439	3199	63
92	0	0	2008	1440	3172	63
93	0	0	1997	1436	3146	63
94	0	0	1965	1438	3118	59
95	0	0	1943	1438	3092	61
96	0	0	1924	1438	3064	60
97	0	0	1888	1436	3036	64
98	0	0	1851	1436	3010	59
99	0	0	1821	1436	2982	57
100	0	0	1808	1437	2955	59
101	0	0	1809	1438	2926	63
102	0	0	1801	1436	2899	59
103	0	0	1793	1438	2873	58
104	0	0	1819	1438	2847	57
105	0	0	1852	1440	2821	55
106	0	0	1883	1438	2796	55
107	0	0	1908	1438	2772	53
108	0	0	1931	1439	2748	54
109	0	0	1944	1440	2724	49
110	0	0	1956	1439	2700	53
111	0	0	1972	1440	2675	52
112	0	0	1990	1440	2650	50
113	0	0	1997	1439	2627	50
114	0	0	1984	1438	2604	48
115	0	0	1974	1439	2582	50
116	0	0	1952	1436	2562	54
117	0	0	1920	1437	2542	49
118	0	0	1880	1436	2522	51
119	0	0	1850	1436	2501	43
120	0	0	1831	1437	2482	49
121	0	0	1826	1437	2463	49
122	0	0	1801	1436	2443	48
123	0	0	1759	1434	2425	48
124	0	0	1756	1438	2408	48
125	0	0	1790	1440	2391	47
126	0	0	1831	1438	2376	47
127	0	0	1867	1436	2361	47
0	0	0	1898	1436	2346	47
1	0	0	1944	1439	2332	44
2	0	0	1986	1439	2317	45
3	0	0	2007	1438	2302	46
4	0	0	2032	1438	2286	43
5	0	0	2044	1438	2271	46
6	0	0	2028	1436	2258	44
7	0	0	1992	1436	2246	44
8	0	0	1943	1434	2235	45
9	0	0	1917	1439	2223	44
10	0	0	1901	1436	2213	44
11	0	0	1896	1439	2202	43
12	0	0	1882	1436	2191	43
13	0	0	1862	1436	2179	46
14	0	0	1839	1436	2165	42
15	0	0	1827	1438	2155	41
16	0	0	1831	1437	2144	41
17	0	0	1849	1437	2135	42
18	0	0	1890	1437	2127	43
19	0	0	1945	1439	2119	40
20	0	0	1991	1437	2112	42
21	0	0	2036	1438	2105	40
22	0	0	2078	1437	2095	40
23	0	0	2090	1439	2086	40
24	0	0	2091	1439	2077	41
25	0	0	2094	1436	2068	40
26	0	0	2091	1439	2060	39
27	0	0	2091	1438	2053	39
28	0	0	2074	1434	2048	39
29	0	0	2023	1435	2041	41
30	0	0	1962	1435	2035	40
31	0	0	1915	1434	2028	40
32	0	0	1881	1435	2021	40
33	0	0	1857	1436	2013	40
34	0	0	1831	1435	2003	40
35	0	0	1812	1437	1997	40
36	0	0	1838	1437	1991	40
37	0	0	1894	1436	1984	38
38	0	0	1954	1437	1981	38
39	0	0	1998	1439	1978	39
40	0	0	2015	1439	1974	39
41	0	0	2052	1438	1969	39
42	0	0	2094	1437	1964	39
43	0	0	2128	1439	1959	34
44	0	0	2171	1438	1951	40
45	0	0	2199	1438	1946	37
46	0	0	2184	1436	1941	38
47	0	0	2151	1433	1936	38
48	0	0	2086	1434	1934	39
49	0	0	1993	1435	1929	38
50	0	0	1920	1435	1926	37
51	0	0	1888	1435	1922	37
52	0	0	1883	1437	1918	38
53	0	0	1887	1437	1913	39
54	0	0	1901	1437	1904	40
55	0	0	1916	1439	1900	38
56	0	0	1924	1438	1897	37
57	0	0	1932	1437	1893	37
58	0	0	1945	1437	1891	34
59	0	0	1989	1439	1889	36
60	0	0	2040	1441	1889	37
61	0	0	2079	1438	1884	36
62	0	0	2103	1435	1882	37
63	0	0	2119	1438	1879	35
64	0	0	2140	1438	1874	37
65	0	0	2150	1441	1869	38
66	0	0	2141	1437	1865	37
67	0	0	2134	1437	1863	36
68	0	0	2106	1435	1861	36
69	0	0	2057	1434	1859	38
70	0	0	2008	1436	1856	35
71	0	0	1961	1434	1854	37
72	0	0	1914	1432	1850	36
73	0	0	1878	1433	1846	36
74	0	0	1842	1434	1841	36
75	0	0	1818	1437	1837	36
76	0	0	1826	1437	1834	35
77	0	0	1847	1435	1833	36
78	0	0	1863	1438	1832	32
79	0	0	1900	1437	1831	36
80	0	0	1951	1436	1832	36
81	0	0	2007	1437	1829	35
82	0	0	2053	1438	1828	35
83	0	0	2077	1436	1823	36
84	0	0	2080	1437	1821	36
85	0	0	2053	1436	1818	36
86	0	0	2008	1434	1812	38
87	0	0	1975	1433	1812	35
88	0	0	1954	1434	1810	36
89	0	0	1932	1435	1810	35
90	0	0	1919	1439	1808	33
91	0	0	1907	1434	1807	36
92	0	0	1870	1432	1805	35
93	0	0	1817	1433	1801	32
94	0	0	1762	1433	1799	35
95	0	0	1740	1436	1793	33
96	0	0	1787	1436	1791	36
97	0	0	1847	1437	1791	36
98	0	0	1904	1436	1790	32
99	0	0	1951	1436	1791	36
100	0	0	2007	1440	1790	36
101	0	0	2046	1437	1790	36
102	0	0	2048	1434	1788	36
103	0	0	2036	1436	1784	32
104	0	0	2048	1436	1781	34
105	0	0	2059	1437	1777	34
106	0	0	2042	1435	1775	35
107	0	0	2033	1434	1776	34
108	0	0	2021	1434	1774	32
109	0	0	1979	1434	1776	35
110	0	0	1931	1435	1774	35
111	0	0	1896	1433	1773	35
112	0	0	1870	1434	1771	35
113	0	0	1869	1439	1768	34
114	0	0	1896	1437	1764	36
115	0	0	1931	1436	1761	34
116	0	0	1954	1436	1759	35
117	0	0	1956	1433	1758	34
118	0	0	1915	1433	1758	35
119	0	0	1878	1435	1759	35
120	0	0	1912	1436	1760	34
121	0	0	1957	1435	1759	34
122	0	0	1997	1436	1758	35
123	0	0	2037	1438	1756	31
124	0	0	2075	1438	1752	35
125	0	0	2108	1436	1750	35
126	0	0	2097	1433	1749	33
127	0	0	2059	1432	1748	36
0	0	0	1993	1432	1748	35
1	0	0	1906	1432	1749	31
2	0	0	1828	1432	1749	34
3	0	0	1802	1433	1747	35
4	0	0	1790	1433	1746	34
5	0	0	1770	1434	1745	35
6	0	0	1762	1436	1739	31
7	0	0	1776	1436	1736	34
8	0	0	1802	1436	1735	33
9	0	0	1837	1435	1735	31
10	0	0	1878	1435	1736	33
11	0	0	1936	1437	1737	33
12	0	0	1978	1434	1738	32
13	0	0	2000	1436	1738	33
14	0	0	2012	1436	1736	34
15	0	0	2038	1435	1735	34
16	0	0	2097	1435	1732	35
17	0	0	2149	1436	1730	33
18	0	0	2153	1436	1728	32
19	0	0	2140	1434	1728	34
20	0	0	2112	1435	1728	33
21	0	0	2079	1432	1729	34
22	0	0	2049	1433	1729	32
23	0	0	2035	1437	1727	35
24	0	0	2061	1435	1726	34
25	0	0	2118	1434	1724	35
26	0	0	2174	1435	1720	34
27	0	0	2228	1435	1718	34
28	0	0	2290	1435	1717	32
29	0	0	2357	1435	1717	33
30	0	0	2422	1435	1718	31
31	0	0	2475	1435	1719	34
32	0	0	2524	1435	1720	34
33	0	0	2571	1437	1721	35
34	0	0	2602	1433	1721	34
35	0	0	2617	1434	1719	34
36	0	0	2644	1435	1715	33
37	0	0	2669	1434	1714	31
38	0	0	2676	1437	1711	34
39	0	0	2682	1435	1711	35
40	0	0	2663	1433	1711	34
41	0	0	2619	1432	1711	34
42	0	0	2560	1432	1713	34
43	0	0	2471	1430	1712	31
44	0	0	2353	1431	1711	34
45	0	0	2217	1430	1709	38
46	0	0	2077	1430	1705	34
47	0	0	1954	1430	1703	34
48	0	0	1859	1429	1703	33
49	0	0	1780	1430	1703	32
50	0	0	1733	1431	1704	35
51	0	0	1710	1431	1705	32
52	0	0	1681	1431	1707	32
53	0	0	1640	1431	1705	33
54	0	0	1613	1432	1706	34
55	0	0	1612	1434	1705	34
56	0	0	1636	1435	1702	32
57	0	0	1662	1434	1700	32
58	0	0	1666	1434	1699	33
59	0	0	1662	1433	1698	33
60	0	0	1642	1430	1699	33
61	0	0	1603	1431	1699	33
62	0	0	1595	1435	1700	33
63	0	0	1615	1433	1699	32
64	0	0	1637	1433	1699	33
65	0	0	1672	1433	1699	34
66	0	0	1704	1434	1694	32
67	0	0	1716	1434	1692	34
68	0	0	1733	1432	1691	32
69	0	0	1753	1432	1695	33
70	0	0	1783	1433	1694	34
71	0	0	1813	1434	1693	32
72	0	0	1839	1435	1695	34
73	0	0	1858	1435	1696	31
74	0	0	1861	1434	1696	32
75	0	0	1851	1432	1694	36
76	0	0	1861	1435	1690	33
77	0	0	1889	1435	1690	32
78	0	0	1900	1434	1688	34
79	0	0	1895	1433	1689	33
80	0	0	1896	1434	1688	34
81	0	0	1893	1435	1689	33
82	0	0	1885	1434	1690	32
83	0	0	1890	1434	1690	33
84	0	0	1893	1434	1690	33
85	0	0	1886	1431	1690	32
86	0	0	1856	1430	1683	32
87	0	0	1830	1432	1683	32
88	0	0	1847	1434	1682	32
89	0	0	1868	1432	1682	32
90	0	0	1890	1431	1682	32
91	0	0	1921	1435	1683	32
92	0	0	1957	1431	1685	33
93	0	0	2000	1431	1685	32
94	0	0	2026	1434	1686	33
95	0	0	2030	1434	1684	30
96	0	0	2030	1432	1682	32
97	0	0	2022	1433	1680	31
98	0	0	2013	1434	1679	35
99	0	0	2007	1434	1680	32
100	0	0	1981	1429	1680	32
101	0	0	1933	1430	1682	32
102	0	0	1880	1429	1681	32
103	0	0	1838	1430	1681	36
104	0	0	1834	1433	1680	32
105	0	0	1854	1433	1679	34
106	0	0	1877	1432	1674	32
107	0	0	1885	1431	1674	32
108	0	0	1897	1433	1674	32
109	0	0	1910	1432	1674	33
110	0	0	1920	1433	1674	31
111	0	0	1941	1434	1676	33
112	0	0	1962	1433	1677	32
113	0	0	1978	1434	1678	33
114	0	0	1997	1432	1678	33
115	0	0	2039	1434	1677	33
116	0	0	2108	1433	1676	33
117	0	0	2157	1431	1675	34
118	0	0	2160	1434	1672	33
119	0	0	2137	1431	1672	32
120	0	0	2099	1430	1674	33
121	0	0	2067	1430	1672	33
122	0	0	2049	1431	1673	32
123	0	0	2045	1432	1673	32
124	0	0	2036	1431	1672	35
125	0	0	2003	1428	1670	32
126	0	0	1966	1429	1666	31
127	0	0	1926	1428	1665	31
0	0	0	1908	1429	1665	31
1	0	0	1900	1431	1666	31
2	0	0	1916	1432	1667	31
3	0	0	1951	1433	1669	32
4	0	0	1987	1431	1670	31
5	0	0	2029	1432	1672	33
6	0	0	2083	1433	1671	32
7	0	0	2136	1433	1671	31
8	0	0	2171	1430	1668	33
9	0	0	2173	1429	1665	31
10	0	0	2130	1429	1665	33
11	0	0	2087	1429	1665	31
12	0	0	2056	1429	1665	31
13	0	0	2029	1430	1665	31
14	0	0	2000	1429	1665	32
15	0	0	1964	1429	1666	32
16	0	0	1927	1428	1665	32
17	0	0	1895	1430	1664	32
18	0	0	1865	1428	1660	32
19	0	0	1847	1429	1659	33
20	0	0	1865	1432	1659	32
21	0	0	1912	1433	1658	32
22	0	0	1977	1430	1661	33
23	0	0	2036	1431	1663	33
24	0	0	2089	1432	1663	33
25	0	0	2114	1431	1664	31
26	0	0	2112	1434	1664	31
27	0	0	2106	1433	1661	32
28	0	0	2128	1433	1661	33
29	0	0	2155	1432	1658	33
30	0	0	2158	1432	1658	33
31	0	0	2144	1430	1658	33
32	0	0	2110	1430	1657	32
33	0	0	2049	1428	1660	34
34	0	0	1996	1428	1660	33
35	0	0	1966	1429	1660	33
36	0	0	1957	1431	1660	33
37	0	0	1954	1433	1658	24
38	0	0	1944	1430	1655	33
39	0	0	1939	1429	1655	32
40	0	0	1942	1431	1653	32
41	0	0	1951	1431	1655	32
42	0	0	1957	1432	1655	32
43	0	0	1973	1431	1656	32
44	0	0	2005	1430	1659	32
45	0	0	2040	1432	1658	33
46	0	0	2078	1431	1659	35
47	0	0	2132	1432	1656	32
48	0	0	2183	1430	1656	33
49	0	0	2205	1430	1654	32
50	0	0	2168	1427	1653	31
51	0	0	2110	1427	1654	32
52	0	0	2065	1430	1653	32
53	0	0	2042	1430	1653	33
54	0	0	2042	1426	1654	33
55	0	0	2041	1431	1655	32
56	0	0	2048	1432	1656	32
57	0	0	2057	1430	1654	31
58	0	0	2048	1429	1652	32
59	0	0	2028	1428	1650	33
60	0	0	2027	1431	1650	32
61	0	0	2044	1432	1650	32
62	0	0	2082	1431	1651	32
63	0	0	2104	1431	1653	32
64	0	0	2110	1430	1655	32
65	0	0	2119	1431	1655	32
66	0	0	2134	1428	1655	31
67	0	0	2148	1430	1654	31
68	0	0	2173	1431	1651	32
69	0	0	2196	1431	1652	32
70	0	0	2179	1429	1648	32
71	0	0	2154	1428	1650	32
72	0	0	2119	1427	1651	32
73	0	0	2075	1428	1652	32
74	0	0	2041	1428	1652	31
75	0	0	2027	1429	1652	32
76	0	0	2035	1431	1651	32
77	0	0	2058	1432	1648	32
78	0	0	2063	1430	1647	34
79	0	0	2060	1431	1645	32
80	0	0	2065	1430	1645	33
81	0	0	2094	1428	1645	32
82	0	0	2132	1430	1647	31
83	0	0	2140	1430	1649	31
84	0	0	2127	1428	1651	32
85	0	0	2112	1429	1649	32
86	0	0	2115	1430	1649	32
87	0	0	2143	1430	1649	32
88	0	0	2186	1430	1648	31
89	0	0	2225	1430	1647	33
90	0	0	2232	1429	1646	33
91	0	0	2214	1431	1646	32
92	0	0	2189	1428	1647	34
93	0	0	2153	1426	1648	32
94	0	0	2131	1428	1648	32
95	0	0	2102	1427	1648	32
96	0	0	2064	1427	1647	33
97	0	0	2037	1428	1645	32
98	0	0	2001	1427	1644	33
99	0	0	1983	1429	1642	32
100	0	0	2015	1429	1642	32
101	0	0	2081	1429	1641	32
102	0	0	2134	1429	1643	32
103	0	0	2156	1430	1645	32
104	0	0	2187	1427	1647	33
105	0	0	2233	1430	1648	32
106	0	0	2272	1428	1648	33
107	0	0	2290	1429	1646	31
108	0	0	2308	1430	1647	33
109	0	0	2323	1430	1644	32
110	0	0	2320	1430	1643	32
111	0	0	2286	1427	1643	33
112	0	0	2225	1425	1645	31
113	0	0	2146	1425	1645	33
114	0	0	2089	1426	1646	32
115	0	0	2060	1427	1646	35
116	0	0	2067	1428	1646	33
117	0	0	2098	1426	1645	29
118	0	0	2111	1429	1641	33
119	0	0	2105	1430	1640	31
120	0	0	2110	1429	1640	32
121	0	0	2130	1427	1640	32
122	0	0	2161	1430	1642	32
123	0	0	2205	1429	1643	32
124	0	0	2238	1428	1645	33
125	0	0	2271	1426	1647	35
126	0	0	2308	1428	1647	33
127	0	0	2331	1428	1645	34
0	0	0	2369	1428	1643	33
1	0	0	2410	1429	1642	31
2	0	0	2423	1429	1641	32
3	0	0	2395	1426	1643	32
4	0	0	2344	1426	1643	29
5	0	0	2275	1424	1642	29
6	0	0	2210	1425	1643	32
7	0	0	2178	1426	1644	32
8	0	0	2164	1427	1644	32
9	0	0	2158	1430	1642	32
10	0	0	2160	1428	1639	32
11	0	0	2157	1428	1639	32
12	0	0	2168	1428	1639	31
13	0	0	2191	1428	1640	32
14	0	0	2194	1430	1640	32
15	0	0	2200	1428	1641	32
16	0	0	2216	1430	1643	33
17	0	0	2238	1428	1642	32
18	0	0	2270	1428	1644	33
19	0	0	2290	1428	1643	32
20	0	0	2316	1428	1642	32
21	0	0	2332	1428	1637	31
22	0	0	2325	1427	1639	32
23	0	0	2286	1423	1641	32
24	0	0	2225	1427	1641	32
25	0	0	2174	1426	1643	34
26	0	0	2135	1425	1643	36
27	0	0	2118	1428	1643	35
28	0	0	2110	1427	1644	36
29	0	0	2091	1425	1643	33
30	0	0	2067	1425	1638	32
31	0	0	2058	1427	1637	32
32	0	0	2072	1427	1637	32
33	0	0	2077	1429	1639	32
34	0	0	2094	1428	1640	31
35	0	0	2129	1428	1641	31
36	0	0	2161	1428	1641	32
37	0	0	2170	1428	1645	33
38	0	0	2167	1427	1642	32
39	0	0	2180	1427	1642	32
40	0	0	2223	1428	1641	31
41	0	0	2235	1428	1639	32
42	0	0	2210	1425	1639	31
43	0	0	2168	1425	1641	35
44	0	0	2119	1423	1642	35
45	0	0	2061	1425	1642	35
46	0	0	2006	1424	1641	33
47	0	0	1971	1426	1642	32
48	0	0	1962	1427	1642	32
49	0	0	1953	1426	1640	34
50	0	0	1937	1425	1639	33
51	0	0	1937	1429	1637	34
52	0	0	1971	1427	1636	31
53	0	0	2021	1429	1639	32
54	0	0	2060	1427	1638	33
55	0	0	2072	1427	1640	31
56	0	0	2088	1427	1641	33
57	0	0	2113	1427	1642	32
58	0	0	2134	1429	1643	32
59	0	0	2143	1428	1641	32
60	0	0	2167	1428	1640	32
61	0	0	2184	1427	1638	32
62	0	0	2174	1425	1639	35
63	0	0	2125	1422	1639	32
64	0	0	2034	1423	1640	32
65	0	0	1949	1423	1640	31
66	0	0	1888	1423	1641	35
67	0	0	1851	1423	1641	35
68	0	0	1851	1423	1641	34
69	0	0	1865	1426	1641	35
70	0	0	1871	1427	1636	31
71	0	0	1869	1425	1635	31
72	0	0	1872	1427	1635	31
73	0	0	1869	1427	1636	31
74	0	0	1881	1426	1638	32
75	0	0	1920	1427	1639	30
76	0	0	1954	1426	1640	31
77	0	0	1983	1427	1641	32
78	0	0	1992	1426	1642	32
79	0	0	1970	1425	1640	32
80	0	0	1981	1427	1640	33
81	0	0	1992	1426	1638	31
82	0	0	2000	1427	1637	32
83	0	0	1997	1423	1637	36
84	0	0	1965	1424	1638	35
85	0	0	1923	1424	1642	34
86	0	0	1906	1425	1637	33
87	0	0	1894	1424	1639	32
88	0	0	1879	1424	1639	32
89	0	0	1871	1425	1638	31
90	0	0	1857	1424	1636	36
91	0	0	1841	1424	1635	34
92	0	0	1845	1426	1634	31
93	0	0	1861	1427	1636	31
94	0	0	1886	1426	1636	31
95	0	0	1905	1427	1639	31
96	0	0	1918	1426	1639	33
97	0	0	1937	1426	1640	32
98	0	0	1963	1428	1639	32
99	0	0	1988	1426	1639	32
100	0	0	2005	1427	1637	31
101	0	0	2015	1427	1635	31
102	0	0	2008	1427	1634	34
103	0	0	1999	1425	1637	37
104	0	0	1969	1423	1636	31
105	0	0	1932	1423	1637	32
106	0	0	1905	1424	1637	32
107	0	0	1903	1425	1637	34
108	0	0	1901	1423	1637	36
109	0	0	1886	1424	1636	35
110	0	0	1860	1423	1634	33
111	0	0	1854	1425	1634	32
112	0	0	1866	1423	1632	31
113	0	0	1875	1422	1634	32
114	0	0	1898	1425	1635	31
115	0	0	1918	1425	1637	33
116	0	0	1926	1426	1638	32
117	0	0	1935	1423	1636	31
118	0	0	1941	1423	1635	32
119	0	0	1957	1425	1637	32
120	0	0	1993	1426	1636	33
121	0	0	2022	1426	1635	32
122	0	0	2021	1425	1634	31
123	0	0	2008	1424	1634	31
124	0	0	1982	1422	1635	33
125	0	0	1928	1421	1637	36
126	0	0	1880	1422	1637	34
127	0	0	1860	1423	1636	32
0	0	0	1836	1422	1636	31
1	0	0	1822	1423	1636	31
2	0	0	1834	1426	1633	31
3	0	0	1877	1425	1633	34
4	0	0	1928	1425	1631	32
5	0	0	1954	1425	1630	31
6	0	0	1943	1424	1632	31
7	0	0	1932	1425	1634	30
8	0	0	1943	1423	1636	32
9	0	0	1965	1426	1636	31
10	0	0	1968	1424	1636	32
11	0	0	1958	1425	1635	32
12	0	0	1976	1425	1634	31
13	0	0	2000	1425	1634	32
14	0	0	1989	1423	1633	34
15	0	0	1952	1423	1632	35
16	0	0	1926	1422	1635	35
17	0	0	1912	1423	1634	30
18	0	0	1881	1422	1637	32
19	0	0	1824	1420	1635	32
20	0	0	1781	1422	1634	35
21	0	0	1786	1424	1632	34
22	0	0	1799	1424	1629	35
23	0	0	1820	1425	1628	35
24	0	0	1854	1424	1629	32
25	0	0	1883	1425	1629	32
26	0	0	1915	1424	1632	32
27	0	0	1932	1425	1632	29
28	0	0	1952	1425	1634	32
29	0	0	1975	1425	1634	31
30	0	0	1991	1424	1634	31
31	0	0	2000	1425	1635	33
32	0	0	2031	1425	1632	31
33	0	0	2065	1424	1633	31
34	0	0	2072	1425	1632	31
35	0	0	2038	1422	1631	31
36	0	0	1997	1420	1632	30
37	0	0	1957	1422	1633	32
38	0	0	1948	1423	1632	35
39	0	0	1930	1421	1632	34
40	0	0	1889	1421	1631	35
41	0	0	1856	1421	1631	31
42	0	0	1817	1421	1628	30
43	0	0	1798	1422	1627	31
44	0	0	1816	1423	1626	32
45	0	0	1858	1423	1627	32
46	0	0	1898	1424	1629	32
47	0	0	1941	1424	1630	31
48	0	0	1987	1423	1631	32
49	0	0	2050	1424	1632	31
50	0	0	2079	1424	1632	32
51	0	0	2085	1424	1632	31
52	0	0	2102	1424	1631	33
53	0	0	2108	1423	1629	32
54	0	0	2082	1421	1627	32
55	0	0	2060	1422	1628	35
56	0	0	2029	1420	1630	36
57	0	0	1977	1420	1631	37
58	0	0	1921	1420	1629	33
59	0	0	1875	1421	1630	32
60	0	0	1860	1423	1630	32
61	0	0	1872	1422	1628	35
62	0	0	1885	1424	1625	34
63	0	0	1886	1423	1626	35
64	0	0	1900	1423	1625	31
65	0	0	1910	1423	1626	31
66	0	0	1909	1423	1626	32
67	0	0	1938	1423	1628	31
68	0	0	1989	1423	1629	31
69	0	0	2042	1423	1629	32
70	0	0	2092	1422	1629	33
71	0	0	2126	1423	1630	34
72	0	0	2146	1423	1628	32
73	0	0	2145	1423	1626	31
74	0	0	2104	1419	1625	35
75	0	0	2060	1419	1625	32
76	0	0	2022	1421	1626	32
77	0	0	1987	1420	1627	31
78	0	0	1955	1421	1628	34
79	0	0	1925	1419	1628	36
80	0	0	1892	1419	1628	32
81	0	0	1863	1420	1626	35
82	0	0	1850	1420	1624	32
83	0	0	1856	1422	1621	31
84	0	0	1887	1422	1623	31
85	0	0	1922	1422	1626	31
86	0	0	1956	1423	1622	31
87	0	0	1989	1422	1625	32
88	0	0	2021	1423	1626	32
89	0	0	2049	1423	1627	32
90	0	0	2073	1423	1627	32
91	0	0	2088	1423	1626	32
92	0	0	2111	1423	1625	31
93	0	0	2124	1423	1622	32
94	0	0	2117	1422	1624	31
95	0	0	2089	1420	1622	32
96	0	0	2045	1419	1624	35
97	0	0	1986	1419	1625	35
98	0	0	1945	1419	1625	35
99	0	0	1935	1422	1625	32
100	0	0	1930	1421	1625	31
101	0	0	1908	1419	1623	31
102	0	0	1888	1419	1619	32
103	0	0	1883	1422	1618	34
104	0	0	1897	1422	1619	31
105	0	0	1928	1422	1619	31
106	0	0	1948	1423	1621	31
107	0	0	1953	1421	1622	32
108	0	0	1951	1421	1622	31
109	0	0	1970	1422	1624	32
110	0	0	2008	1421	1624	31
111	0	0	2048	1422	1623	31
112	0	0	2105	1422	1622	32
113	0	0	2151	1424	1620	30
114	0	0	2157	1421	1620	34
115	0	0	2130	1419	1621	35
116	0	0	2089	1418	1621	32
117	0	0	2048	1419	1620	32
118	0	0	2010	1418	1620	31
119	0	0	1976	1420	1621	34
120	0	0	1946	1417	1620	34
121	0	0	1929	1420	1619	36
122	0	0	1909	1419	1617	32
123	0	0	1898	1421	1616	31
124	0	0	1909	1420	1615	32
125	0	0	1925	1421	1616	31
126	0	0	1949	1422	1617	31
127	0	0	1979	1421	1619	31
0	0	0	2017	1421	1619	31
1	0	0	2051	1423	1620	31
2	0	0	2068	1421	1621	32
3	0	0	2069	1420	1619	31
4	0	0	2079	1421	1618	32
5	0	0	2105	1421	1616	31
6	0	0	2119	1421	1617	35
7	0	0	2115	1421	1616	34
8	0	0	2080	1418	1617	30
9	0	0	2025	1417	1617	32
10	0	0	1978	1418	1617	31
11	0	0	1956	1418	1617	35
12	0	0	1928	1417	1616	34
13	0	0	1893	1417	1614	34
14	0	0	1856	1417	1613	32
15	0	0	1849	1418	1610	31
16	0	0	1888	1420	1611	31
17	0	0	1938	1422	1612	32
18	0	0	1982	1421	1612	31
19	0	0	2012	1421	1614	31
20	0	0	2034	1420	1614	31
21	0	0	2058	1421	1619	31
22	0	0	2077	1422	1615	32
23	0	0	2089	1420	1615	32
24	0	0	2104	1421	1613	32
25	0	0	2115	1421	1612	31
26	0	0	2104	1420	1611	31
27	0	0	2089	1420	1611	32
28	0	0	2080	1419	1611	32
29	0	0	2057	1418	1611	33
30	0	0	2017	1416	1611	34
31	0	0	1980	1417	1611	35
32	0	0	1962	1418	1611	31
33	0	0	1959	1419	1609	29
34	0	0	1940	1418	1607	28
35	0	0	1943	1419	1605	34
36	0	0	1976	1420	1605	30
37	0	0	2015	1420	1602	30
38	0	0	2041	1419	1605	31
39	0	0	2080	1421	1608	30
40	0	0	2112	1420	1608	31
41	0	0	2114	1420	1610	31
42	0	0	2087	1418	1609	31
43	0	0	2038	1417	1608	29
44	0	0	2029	1420	1607	29
45	0	0	2043	1423	1602	31
46	0	0	2048	1421	1604	33
47	0	0	2027	1418	1603	34
48	0	0	1992	1417	1604	34
49	0	0	1951	1417	1604	31
50	0	0	1910	1417	1604	30
51	0	0	1884	1419	1604	30
52	0	0	1892	1419	1602	33
53	0	0	1893	1420	1602	32
54	0	0	1898	1419	1599	34
55	0	0	1908	1419	1598	34
56	0	0	1936	1419	1597	32
57	0	0	1966	1418	1598	32
58	0	0	1991	1419	1599	32
59	0	0	2008	1419	1600	31
60	0	0	2031	1419	1599	31
61	0	0	2057	1419	1601	31
62	0	0	2075	1419	1601	31
63	0	0	2088	1420	1601	28
64	0	0	2102	1420	1598	31
65	0	0	2106	1420	1596	31
66	0	0	2081	1417	1596	31
67	0	0	2045	1415	1596	32
68	0	0	2010	1416	1596	29
69	0	0	1960	1416	1596	36
70	0	0	1906	1414	1597	33
71	0	0	1887	1417	1597	35
72	0	0	1878	1416	1596	35
73	0	0	1874	1419	1596	32
74	0	0	1870	1419	1592	31
75	0	0	1887	1419	1590	30
76	0	0	1957	1417	1590	31
77	0	0	2031	1418	1589	31
78	0	0	2064	1419	1591	31
79	0	0	2057	1418	1592	32
80	0	0	2050	1417	1591	31
81	0	0	2054	1419	1594	31
82	0	0	2059	1417	1593	32
83	0	0	2071	1419	1593	31
84	0	0	2103	1419	1592	31
85	0	0	2129	1419	1591	31
86	0	0	2121	1417	1589	31
87	0	0	2100	1418	1589	34
88	0	0	2080	1418	1591	35
89	0	0	2041	1415	1591	36
90	0	0	1986	1414	1591	31
91	0	0	1933	1416	1589	31
92	0	0	1904	1416	1590	30
93	0	0	1892	1417	1589	32
94	0	0	1884	1416	1586	31
95	0	0	1873	1417	1583	34
96	0	0	1883	1417	1584	31
97	0	0	1903	1418	1584	30
98	0	0	1921	1419	1586	28
99	0	0	1939	1417	1587	31
100	0	0	1955	1418	1587	31
101	0	0	1964	1418	1589	31
102	0	0	1990	1418	1588	32
103	0	0	2042	1419	1588	31
104	0	0	2110	1418	1587	33
105	0	0	2152	1419	1586	31
106	0	0	2150	1417	1585	34
107	0	0	2118	1415	1585	32
108	0	0	2070	1416	1586	31
109	0	0	2023	1415	1585	31
110	0	0	1990	1416	1585	31
111	0	0	1961	1415	1586	32
112	0	0	1931	1413	1584	30
113	0	0	1920	1416	1583	33
114	0	0	1917	1416	1581	35
115	0	0	1909	1417	1579	34
116	0	0	1928	1417	1579	31
117	0	0	1969	1417	1581	31
118	0	0	2006	1417	1582	30
119	0	0	2040	1417	1582	31
120	0	0	2075	1416	1584	30
121	0	0	2103	1417	1585	31
122	0	0	2131	1418	1585	32
123	0	0	2147	1419	1585	31
124	0	0	2151	1417	1583	31
125	0	0	2131	1415	1581	31
126	0	0	2111	1416	1582	34
127	0	0	2096	1417	1582	31
0	0	0	2080	1415	1581	30
1	0	0	2064	1415	1582	33
2	0	0	2049	1415	1580	33
3	0	0	2013	1414	1583	34
4	0	0	1954	1413	1583	36
5	0	0	1898	1414	1584	34
6	0	0	1860	1414	1578	32
7	0	0	1854	1417	1575	31
8	0	0	1874	1416	1577	31
9	0	0	1899	1417	1578	31
10	0	0	1921	1416	1579	31
11	0	0	1944	1417	1581	33
12	0	0	1975	1418	1583	31
13	0	0	2007	1416	1583	31
14	0	0	2038	1417	1583	31
15	0	0	2079	1417	1583	31
16	0	0	2130	1416	1581	32
17	0	0	2181	1417	1578	31
18	0	0	2202	1418	1580	31
19	0	0	2184	1415	1580	34
20	0	0	2133	1411	1580	33
21	0	0	2052	1413	1583	33
22	0	0	1978	1412	1580	33
23	0	0	1928	1414	1582	31
24	0	0	1893	1411	1582	31
25	0	0	1883	1415	1580	30
26	0	0	1891	1415	1578	34
27	0	0	1917	1416	1576	34
28	0	0	1950	1416	1577	31
29	0	0	1976	1416	1580	31
30	0	0	1993	1415	1578	31
31	0	0	2017	1416	1581	29
32	0	0	2054	1416	1581	31
33	0	0	2087	1416	1582	32
34	0	0	2100	1417	1583	31
35	0	0	2115	1417	1583	31
36	0	0	2159	1417	1582	32
37	0	0	2201	1418	1579	31
38	0	0	2210	1416	1579	34
39	0	0	2177	1413	1581	36
40	0	0	2103	1412	1582	31
41	0	0	2014	1412	1582	31
42	0	0	1978	1414	1583	31
43	0	0	1972	1416	1583	34
44	0	0	1977	1415	1583	36
45	0	0	1993	1413	1582	34
46	0	0	2011	1416	1581	34
47	0	0	2045	1415	1576	32
48	0	0	2081	1415	1578	31
49	0	0	2077	1414	1580	31
50	0	0	2073	1414	1580	31
51	0	0	2083	1415	1582	31
52	0	0	2093	1416	1584	29
53	0	0	2104	1415	1586	31
54	0	0	2121	1415	1584	31
55	0	0	2142	1415	1584	31
56	0	0	2167	1414	1584	27
57	0	0	2187	1415	1583	32
58	0	0	2190	1416	1583	31
59	0	0	2204	1417	1583	31
60	0	0	2218	1416	1584	33
61	0	0	2170	1412	1585	34
62	0	0	2095	1412	1586	34
63	0	0	2030	1412	1586	34
64	0	0	1991	1413	1585	29
65	0	0	1975	1411	1584	30
66	0	0	1974	1415	1583	32
67	0	0	1972	1414	1581	32
68	0	0	1977	1414	1581	31
69	0	0	1984	1416	1583	31
70	0	0	1993	1412	1582	32
71	0	0	1996	1414	1585	32
72	0	0	1995	1415	1586	30
73	0	0	2004	1415	1588	31
74	0	0	2019	1415	1588	31
75	0	0	2029	1413	1588	31
76	0	0	2052	1415	1587	32
77	0	0	2080	1415	1585	30
78	0	0	2084	1416	1586	34
79	0	0	2079	1415	1585	33
80	0	0	2074	1412	1586	32
81	0	0	2060	1414	1588	31
82	0	0	2045	1413	1589	30
83	0	0	2022	1412	1588	31
84	0	0	2005	1413	1588	32
85	0	0	1991	1411	1585	32
86	0	0	1942	1410	1584	37
87	0	0	1891	1411	1584	32
88	0	0	1875	1413	1584	31
89	0	0	1885	1414	1585	31
90	0	0	1907	1413	1586	31
91	0	0	1929	1414	1588	31
92	0	0	1954	1415	1590	31
93	0	0	2005	1412	1591	31
94	0	0	2066	1414	1592	32
95	0	0	2095	1415	1592	32
96	0	0	2116	1416	1590	31
97	0	0	2146	1413	1588	30
98	0	0	2141	1413	1588	34
99	0	0	2117	1412	1589	34
100	0	0	2067	1408	1589	34
101	0	0	1979	1411	1592	32
102	0	0	1911	1409	1590	32
103	0	0	1880	1411	1591	31
104	0	0	1878	1413	1591	34
105	0	0	1884	1413	1590	32
106	0	0	1875	1411	1588	34
107	0	0	1859	1411	1586	33
108	0	0	1851	1413	1588	30
109	0	0	1868	1413	1589	31
110	0	0	1906	1411	1590	31
111	0	0	1944	1414	1592	29
112	0	0	1964	1413	1593	32
113	0	0	1976	1414	1595	31
114	0	0	2013	1414	1594	31
115	0	0	2049	1414	1594	32
116	0	0	2084	1415	1593	31
117	0	0	2118	1414	1593	32
118	0	0	2140	1413	1591	31
119	0	0	2142	1414	1593	32
120	0	0	2113	1410	1593	31
121	0	0	2061	1411	1593	34
122	0	0	2001	1410	1594	36
123	0	0	1970	1410	1594	34
124	0	0	1950	1410	1594	35
125	0	0	1913	1410	1594	32
126	0	0	1869	1409	1591	32
127	0	0	1844	1410	1590	32
0	0	0	1877	1412	1590	31
1	0	0	1946	1410	1591	31
2	0	0	2005	1413	1592	32
3	0	0	2057	1413	1594	32
4	0	0	2104	1412	1595	35
5	0	0	2145	1413	1595	31
6	0	0	2163	1412	1595	32
7	0	0	2159	1414	1596	32
8	0	0	2165	1413	1594	34
9	0	0	2170	1414	1592	32
10	0	0	2163	1413	1593	31
11	0	0	2153	1411	1593	34
12	0	0	2123	1410	1594	32
13	0	0	2074	1410	1595	36
14	0	0	2043	1411	1596	33
15	0	0	2051	1412	1595	31
16	0	0	2063	1412	1596	32
17	0	0	2089	1412	1596	32
18	0	0	2124	1412	1593	34
19	0	0	2169	1412	1592	35
20	0	0	2237	1412	1592	31
21	0	0	2331	1413	1594	31
22	0	0	2428	1411	1592	31
23	0	0	2517	1412	1595	31
24	0	0	2596	1412	1596	35
25	0	0	2661	1412	1597	31
26	0	0	2700	1412	1597	33
27	0	0	2712	1412	1598	31
28	0	0	2741	1412	1595	32
29	0	0	2773	1413	1594	31
30	0	0	2794	1413	1594	34
31	0	0	2798	1413	1595	31
32	0	0	2793	1411	1595	31
33	0	0	2784	1412	1596	31
34	0	0	2768	1412	1597	37
35	0	0	2733	1408	1597	35
36	0	0	2668	1407	1596	34
37	0	0	2568	1408	1595	35
38	0	0	2456	1407	1592	31
39	0	0	2345	1407	1591	31
40	0	0	2265	1407	1591	30
41	0	0	2207	1408	1592	31
42	0	0	2137	1405	1593	31
43	0	0	2063	1407	1595	31
44	0	0	2000	1407	1596	31
45	0	0	1943	1408	1598	32
46	0	0	1881	1409	1599	33
47	0	0	1827	1408	1598	34
48	0	0	1806	1410	1596	32
49	0	0	1790	1409	1595	33
50	0	0	1789	1412	1595	31
51	0	0	1796	1411	1596	36
52	0	0	1801	1412	1595	36
53	0	0	1792	1411	1595	34
54	0	0	1778	1408	1596	36
55	0	0	1759	1408	1597	32
56	0	0	1743	1408	1596	31
57	0	0	1717	1408	1595	32
58	0	0	1690	1408	1593	35
59	0	0	1693	1411	1591	34
60	0	0	1729	1410	1591	31
61	0	0	1790	1411	1593	31
62	0	0	1810	1411	1594	31
63	0	0	1803	1407	1595	31
64	0	0	1811	1409	1597	35
65	0	0	1835	1412	1597	31
66	0	0	1861	1411	1598	32
67	0	0	1899	1409	1598	33
68	0	0	1975	1412	1596	35
69	0	0	2052	1411	1595	31
70	0	0	2079	1411	1593	34
71	0	0	2082	1410	1593	35
72	0	0	2051	1406	1593	31
73	0	0	2001	1407	1595	32
74	0	0	1978	1409	1595	33
75	0	0	1979	1412	1596	34
76	0	0	1968	1408	1593	36
77	0	0	1934	1406	1593	36
78	0	0	1886	1407	1591	35
79	0	0	1850	1407	1589	31
80	0	0	1887	1411	1590	31
81	0	0	1954	1410	1589	32
82	0	0	2007	1409	1591	31
83	0	0	2044	1411	1593	33
84	0	0	2048	1410	1595	31
85	0	0	2046	1411	1593	32
86	0	0	2063	1410	1592	34
87	0	0	2104	1409	1594	32
88	0	0	2176	1410	1592	31
89	0	0	2236	1410	1590	29
90	0	0	2256	1411	1590	34
91	0	0	2213	1405	1591	34
92	0	0	2149	1407	1591	30
93	0	0	2073	1406	1592	31
94	0	0	1991	1405	1590	31
95	0	0	1947	1407	1592	34
96	0	0	1930	1406	1589	31
97	0	0	1911	1406	1588	36
98	0	0	1898	1408	1586	34
99	0	0	1907	1409	1584	32
100	0	0	1927	1409	1584	31
101	0	0	1950	1408	1587	31
102	0	0	1959	1407	1584	31
103	0	0	1966	1408	1585	32
104	0	0	1993	1409	1587	31
105	0	0	2044	1410	1587	31
106	0	0	2090	1409	1586	29
107	0	0	2104	1410	1586	31
108	0	0	2124	1410	1583	31
109	0	0	2145	1410	1581	31
110	0	0	2126	1408	1580	32
111	0	0	2107	1408	1580	31
112	0	0	2097	1406	1580	34
113	0	0	2066	1405	1580	33
114	0	0	2038	1407	1579	33
115	0	0	2011	1406	1578	33
116	0	0	1974	1405	1576	31
117	0	0	1954	1408	1576	30
118	0	0	1953	1409	1570	30
119	0	0	1963	1409	1567	35
120	0	0	2005	1408	1565	31
121	0	0	2044	1407	1563	31
122	0	0	2079	1407	1561	31
123	0	0	2088	1407	1562	29
124	0	0	2098	1409	1559	29
125	0	0	2119	1410	1557	30
126	0	0	2122	1409	1554	30
127	0	0	2107	1406	1548	31
0	0	0	2115	1408	1544	30
1	0	0	2137	1409	1535	32
2	0	0	2141	1409	1530	34
3	0	0	2125	1406	1526	33
4	0	0	2083	1406	1519	33
5	0	0	2045	1406	1512	30
6	0	0	2010	1403	1507	27
7	0	0	1972	1406	1501	32
8	0	0	1945	1403	1494	30
9	0	0	1931	1411	1487	32
10	0	0	1941	1407	1479	31
11	0	0	1960	1408	1472	32
12	0	0	1980	1408	1466	30
13	0	0	1996	1407	1461	29
14	0	0	2022	1407	1456	31
15	0	0	2038	1405	1454	28
16	0	0	2070	1406	1452	29
17	0	0	2113	1411	1448	28
18	0	0	2160	1408	1445	26
19	0	0	2178	1408	1442	29
20	0	0	2174	1407	1438	28
21	0	0	2149	1406	1433	27
22	0	0	2108	1406	1431	28
23	0	0	2093	1409	1428	29
24	0	0	2100	1407	1426	24
25	0	0	2079	1405	1423	31
26	0	0	2051	1405	1420	28
27	0	0	2031	1405	1419	30
28	0	0	2022	1407	1414	31
29	0	0	2008	1405	1412	26
30	0	0	1969	1403	1408	28
31	0	0	1932	1403	1404	26
32	0	0	1940	1407	1402	27
33	0	0	1976	1407	1401	25
34	0	0	2032	1407	1401	27
35	0	0	2111	1405	1400	28
36	0	0	2205	1407	1401	28
37	0	0	2288	1407	1403	28
38	0	0	2318	1408	1400	26
39	0	0	2278	1404	1398	27
40	0	0	2229	1408	1396	28
41	0	0	2197	1405	1393	27
42	0	0	2156	1404	1391	27
43	0	0	2117	1405	1390	29
44	0	0	2079	1405	1389	28
45	0	0	2043	1404	1388	31
46	0	0	2019	1406	1386	26
47	0	0	2015	1406	1385	26
48	0	0	2039	1407	1383	23
49	0	0	2075	1407	1380	30
50	0	0	2091	1406	1377	29
51	0	0	2097	1406	1374	28
52	0	0	2110	1406	1373	26
53	0	0	2131	1408	1377	28
54	0	0	2166	1405	1374	26
55	0	0	2189	1408	1376	27
56	0	0	2184	1404	1377	26
57	0	0	2169	1407	1376	26
58	0	0	2164	1406	1376	25
59	0	0	2169	1407	1376	24
60	0	0	2197	1407	1374	27
61	0	0	2236	1406	1371	28
62	0	0	2255	1406	1371	29
63	0	0	2260	1405	1372	27
64	0	0	2234	1403	1370	27
65	0	0	2171	1403	1370	26
66	0	0	2118	1403	1369	28
67	0	0	2095	1403	1369	26
68	0	0	2058	1401	1368	26
69	0	0	2013	1403	1365	30
70	0	0	1998	1406	1363	29
71	0	0	2022	1403	1362	28
72	0	0	2084	1405	1362	25
73	0	0	2137	1403	1361	26
74	0	0	2167	1405	1363	26
75	0	0	2199	1406	1364	27
76	0	0	2216	1406	1365	27
77	0	0	2223	1405	1365	26
78	0	0	2242	1404	1367	26
79	0	0	2266	1405	1366	25
80	0	0	2293	1405	1367	27
81	0	0	2294	1404	1366	28
82	0	0	2246	1402	1368	30
83	0	0	2223	1403	1368	26
84	0	0	2193	1403	1371	28
85	0	0	2157	1403	1372	30
86	0	0	2140	1405	1374	31
87	0	0	2132	1405	1377	28
88	0	0	2133	1403	1378	29
89	0	0	2137	1405	1380	29
90	0	0	2136	1406	1380	26
91	0	0	2130	1405	1381	26
92	0	0	2139	1404	1384	27
93	0	0	2182	1405	1387	28
94	0	0	2228	1402	1393	26
95	0	0	2278	1404	1398	27
96	0	0	2323	1405	1404	27
97	0	0	2345	1404	1409	26
98	0	0	2335	1405	1415	26
99	0	0	2326	1406	1420	27
100	0	0	2346	1407	1424	27
101	0	0	2375	1406	1426	27
102	0	0	2373	1407	1430	27
103	0	0	2346	1403	1436	31
104	0	0	2301	1400	1443	30
105	0	0	2254	1402	1449	31
106	0	0	2221	1402	1454	31
107	0	0	2212	1405	1458	28
108	0	0	2200	1402	1461	28
109	0	0	2169	1402	1465	30
110	0	0	2136	1401	1466	31
111	0	0	2110	1403	1469	31
112	0	0	2115	1407	1473	27
113	0	0	2143	1404	1478	27
114	0	0	2189	1404	1483	29
115	0	0	2251	1405	1488	29
116	0	0	2305	1404	1493	31
117	0	0	2346	1404	1500	30
118	0	0	2383	1405	1499	30
119	0	0	2413	1405	1503	29
120	0	0	2428	1404	1505	29
121	0	0	2413	1403	1506	29
122	0	0	2369	1401	1510	32
123	0	0	2344	1404	1513	32
124	0	0	2319	1403	1517	30
125	0	0	2275	1401	1520	29
126	0	0	2206	1400	1523	31
127	0	0	2140	1401	1526	31
0	0	0	2119	1404	1527	36
1	0	0	2129	1402	1529	35
2	0	0	2136	1405	1529	32
3	0	0	2153	1403	1529	27
4	0	0	2187	1403	1532	30
5	0	0	2235	1404	1538	32
6	0	0	2268	1404	1539	30
7	0	0	2298	1402	1545	29
8	0	0	2331	1403	1548	27
9	0	0	2353	1404	1552	29
10	0	0	2369	1404	1554	29
11	0	0	2368	1404	1556	30
12	0	0	2363	1404	1555	30
13	0	0	2347	1402	1555	30
14	0	0	2318	1403	1558	29
15	0	0	2307	1404	1559	30
16	0	0	2283	1401	1563	32
17	0	0	2262	1404	1566	34
18	0	0	2264	1404	1568	32
19	0	0	2265	1403	1571	32
20	0	0	2232	1400	1573	30
21	0	0	2196	1401	1575	29
22	0	0	2158	1400	1570	30
23	0	0	2126	1401	1571	32
24	0	0	2132	1402	1573	30
25	0	0	2161	1403	1575	31
26	0	0	2188	1404	1579	31
27	0	0	2226	1402	1583	30
28	0	0	2281	1403	1586	27
29	0	0	2335	1404	1589	29
30	0	0	2381	1403	1590	30
31	0	0	2414	1404	1591	31
32	0	0	2427	1403	1589	30
33	0	0	2398	1400	1589	27
34	0	0	2346	1401	1590	34
35	0	0	2292	1399	1592	34
36	0	0	2234	1400	1595	35
37	0	0	2173	1398	1596	31
38	0	0	2128	1400	1599	28
39	0	0	2102	1401	1602	30
40	0	0	2081	1400	1603	33
41	0	0	2055	1401	1603	32
42	0	0	2034	1400	1600	32
43	0	0	2028	1402	1599	33
44	0	0	2045	1402	1601	30
45	0	0	2061	1401	1602	31
46	0	0	2063	1400	1606	31
47	0	0	2083	1401	1609	31
48	0	0	2125	1403	1612	28
49	0	0	2175	1402	1614	31
50	0	0	2231	1403	1615	31
51	0	0	2263	1404	1614	32
52	0	0	2294	1401	1613	31
53	0	0	2312	1402	1615	31
54	0	0	2280	1399	1612	34
55	0	0	2211	1398	1614	35
56	0	0	2146	1399	1617	32
57	0	0	2112	1399	1620	29
58	0	0	2110	1402	1622	28
59	0	0	2118	1403	1624	31
60	0	0	2085	1398	1625	34
61	0	0	2029	1399	1623	32
62	0	0	1964	1396	1621	34
63	0	0	1908	1398	1619	32
64	0	0	1890	1400	1619	32
65	0	0	1904	1401	1623	31
66	0	0	1940	1401	1625	31
67	0	0	1993	1401	1628	32
68	0	0	2062	1401	1630	32
69	0	0	2121	1402	1635	31
70	0	0	2158	1402	1633	29
71	0	0	2157	1402	1632	32
72	0	0	2175	1400	1631	32
73	0	0	2199	1402	1630	32
74	0	0	2180	1398	1630	32
75	0	0	2131	1397	1631	31
76	0	0	2067	1398	1634	32
77	0	0	2014	1399	1636	34
78	0	0	1999	1400	1638	35
79	0	0	1982	1400	1640	35
80	0	0	1963	1399	1642	37
81	0	0	1960	1401	1637	32
82	0	0	1971	1401	1636	31
83	0	0	1991	1401	1634	30
84	0	0	1998	1399	1634	32
85	0	0	2013	1400	1639	31
86	0	0	2035	1401	1637	31
87	0	0	2038	1401	1641	32
88	0	0	2039	1401	1644	32
89	0	0	2052	1402	1647	33
90	0	0	2075	1402	1648	32
91	0	0	2106	1401	1645	34
92	0	0	2145	1400	1643	32
93	0	0	2176	1401	1642	31
94	0	0	2164	1400	1643	31
95	0	0	2142	1398	1644	35
96	0	0	2090	1399	1645	36
97	0	0	2020	1396	1648	35
98	0	0	1986	1398	1650	31
99	0	0	1985	1399	1650	32
100	0	0	1974	1400	1652	32
101	0	0	1978	1402	1651	34
102	0	0	1992	1401	1645	36
103	0	0	1991	1401	1644	35
104	0	0	1986	1400	1645	32
105	0	0	1990	1401	1647	32
106	0	0	2009	1400	1648	32
107	0	0	2044	1400	1652	31
108	0	0	2072	1400	1654	33
109	0	0	2093	1399	1657	32
110	0	0	2112	1401	1657	32
111	0	0	2135	1400	1655	32
112	0	0	2171	1401	1654	32
113	0	0	2206	1400	1651	32
114	0	0	2219	1402	1652	34
115	0	0	2217	1401	1652	33
116	0	0	2166	1397	1653	32
117	0	0	2075	1397	1656	32
118	0	0	2010	1396	1659	34
119	0	0	1984	1397	1661	37
120	0	0	1975	1399	1660	36
121	0	0	1971	1402	1658	36
122	0	0	1969	1401	1655	32
123	0	0	1962	1399	1652	32
124	0	0	1981	1398	1654	32
125	0	0	2007	1400	1656	32
126	0	0	2030	1401	1657	33
127	0	0	2065	1402	1661	34
0	0	0	2120	1398	1664	31
1	0	0	2184	1398	1665	32
2	0	0	2219	1400	1666	32
3	0	0	2208	1399	1664	32
4	0	0	2186	1401	1661	33
5	0	0	2177	1400	1661	34
6	0	0	2170	1399	1659	32
7	0	0	2131	1397	1661	40
8	0	0	2066	1396	1661	38
9	0	0	1988	1398	1665	35
10	0	0	1952	1397	1667	34
11	0	0	1935	1398	1668	31
12	0	0	1914	1397	1668	32
13	0	0	1900	1399	1666	32
14	0	0	1888	1398	1662	37
15	0	0	1891	1399	1661	36
16	0	0	1915	1397	1661	32
17	0	0	1943	1400	1663	33
18	0	0	1956	1399	1666	31
19	0	0	1982	1401	1668	32
20	0	0	2035	1398	1671	32
21	0	0	2110	1396	1674	32
22	0	0	2199	1402	1671	32
23	0	0	2251	1399	1670	31
24	0	0	2258	1400	1668	32
25	0	0	2219	1396	1666	31
26	0	0	2156	1395	1666	35
27	0	0	2113	1398	1667	34
28	0	0	2104	1400	1670	31
29	0	0	2089	1399	1670	31
30	0	0	2065	1394	1674	32
31	0	0	2036	1396	1675	34
32	0	0	2017	1399	1674	35
33	0	0	2013	1398	1673	36
34	0	0	2009	1399	1670	35
35	0	0	1996	1397	1668	32
36	0	0	2006	1400	1667	32
37	0	0	2043	1399	1671	25
38	0	0	2089	1396	1670	32
39	0	0	2125	1401	1674	32
40	0	0	2144	1399	1677	32
41	0	0	2158	1399	1678	33
42	0	0	2185	1399	1678	34
43	0	0	2221	1399	1677	33
44	0	0	2255	1398	1673	32
45	0	0	2291	1399	1672	32
46	0	0	2275	1396	1671	32
47	0	0	2214	1395	1673	31
48	0	0	2148	1395	1676	32
49	0	0	2077	1397	1677	32
50	0	0	2028	1395	1679	32
51	0	0	2020	1397	1680	32
52	0	0	2005	1397	1680	32
53	0	0	1983	1395	1677	36
54	0	0	1954	1393	1673	32
55	0	0	1939	1397	1671	31
56	0	0	1965	1397	1672	32
57	0	0	2020	1397	1673	33
58	0	0	2081	1397	1676	32
59	0	0	2132	1398	1679	33
60	0	0	2170	1397	1681	33
61	0	0	2206	1398	1683	32
62	0	0	2221	1398	1683	30
63	0	0	2211	1397	1682	32
64	0	0	2216	1397	1679	33
65	0	0	2226	1398	1676	33
66	0	0	2232	1397	1677	36
67	0	0	2232	1398	1678	34
68	0	0	2219	1396	1681	31
69	0	0	2194	1395	1680	32
70	0	0	2170	1395	1683	33
71	0	0	2144	1395	1684	32
72	0	0	2124	1396	1684	31
73	0	0	2119	1397	1683	32
74	0	0	2112	1397	1678	32
75	0	0	2095	1394	1676	33
76	0	0	2089	1395	1676	33
77	0	0	2104	1397	1677	32
78	0	0	2148	1397	1679	32
79	0	0	2182	1397	1683	32
80	0	0	2202	1397	1686	33
81	0	0	2207	1398	1688	33
82	0	0	2202	1397	1688	34
83	0	0	2192	1398	1687	31
84	0	0	2217	1397	1682	34
85	0	0	2246	1398	1682	32
86	0	0	2237	1395	1679	32
87	0	0	2207	1395	1681	31
88	0	0	2180	1394	1683	32
89	0	0	2138	1392	1685	32
90	0	0	2085	1393	1687	32
91	0	0	2048	1391	1688	32
92	0	0	2040	1395	1688	32
93	0	0	2062	1396	1685	34
94	0	0	2074	1396	1682	32
95	0	0	2070	1396	1680	31
96	0	0	2076	1396	1680	32
97	0	0	2092	1397	1681	32
98	0	0	2118	1396	1685	31
99	0	0	2162	1396	1687	33
100	0	0	2215	1397	1691	32
101	0	0	2261	1397	1688	33
102	0	0	2283	1396	1690	32
103	0	0	2274	1397	1690	33
104	0	0	2267	1396	1685	33
105	0	0	2241	1393	1683	32
106	0	0	2199	1393	1683	32
107	0	0	2160	1393	1684	32
108	0	0	2128	1393	1687	35
109	0	0	2103	1394	1688	31
110	0	0	2076	1392	1690	33
111	0	0	2043	1393	1692	33
112	0	0	2024	1395	1692	33
113	0	0	2029	1394	1689	31
114	0	0	2026	1394	1685	32
115	0	0	2016	1395	1683	32
116	0	0	2033	1397	1681	32
117	0	0	2062	1394	1687	33
118	0	0	2082	1396	1687	31
119	0	0	2107	1396	1689	33
120	0	0	2139	1396	1692	33
121	0	0	2159	1395	1692	33
122	0	0	2156	1396	1693	33
123	0	0	2155	1395	1691	34
124	0	0	2186	1396	1688	34
125	0	0	2227	1395	1686	32
126	0	0	2242	1395	1686	32
127	0	0	2241	1396	1687	31
0	0	0	2231	1394	1688	33
1	0	0	2206	1391	1691	33
2	0	0	2168	1392	1693	33
3	0	0	2117	1392	1694	32
4	0	0	2079	1393	1694	34
5	0	0	2083	1396	1690	32
6	0	0	2088	1395	1687	32
7	0	0	2063	1392	1684	34
8	0	0	2056	1394	1684	32
9	0	0	2072	1394	1687	33
10	0	0	2107	1396	1689	32
11	0	0	2158	1394	1690	33
12	0	0	2182	1394	1694	35
13	0	0	2173	1395	1694	34
14	0	0	2185	1395	1694	33
15	0	0	2209	1396	1693	33
16	0	0	2240	1396	1689	33
17	0	0	2295	1395	1686	33
18	0	0	2321	1394	1686	33
19	0	0	2294	1391	1688	33
20	0	0	2238	1390	1688	33
21	0	0	2181	1392	1690	32
22	0	0	2143	1392	1693	34
23	0	0	2118	1391	1695	33
24	0	0	2096	1392	1695	34
25	0	0	2080	1391	1692	33
26	0	0	2065	1391	1687	32
27	0	0	2036	1392	1684	32
28	0	0	2028	1394	1684	35
29	0	0	2024	1394	1685	32
30	0	0	2024	1394	1686	33
31	0	0	2038	1394	1690	34
32	0	0	2085	1394	1693	34
33	0	0	2156	1394	1694	34
34	0	0	2217	1393	1695	34
35	0	0	2251	1394	1692	34
36	0	0	2270	1395	1690	33
37	0	0	2286	1394	1689	34
38	0	0	2291	1393	1686	32
39	0	0	2298	1395	1689	34
40	0	0	2304	1394	1689	33
41	0	0	2272	1391	1692	33
42	0	0	2305	1393	1693	33
43	0	0	2438	1394	1694	34
44	0	0	2494	1391	1693	32
45	0	0	2486	1393	1691	32
46	0	0	2448	1391	1687	32
47	0	0	2414	1392	1686	33
48	0	0	2420	1394	1684	32
49	0	0	2422	1393	1685	33
50	0	0	2398	1391	1688	34
51	0	0	2381	1391	1691	33
52	0	0	2381	1393	1693	34
53	0	0	2399	1394	1696	32
54	0	0	2431	1393	1695	34
55	0	0	2451	1393	1693	34
56	0	0	2468	1393	1690	33
57	0	0	2458	1393	1687	33
58	0	0	2434	1392	1687	34
59	0	0	2398	1389	1687	31
60	0	0	2321	1390	1688	32
61	0	0	2232	1389	1691	33
62	0	0	2186	1389	1693	32
63	0	0	2162	1391	1695	33
64	0	0	2126	1389	1693	32
65	0	0	2071	1389	1692	33
66	0	0	2035	1388	1687	34
67	0	0	2034	1392	1685	33
68	0	0	2069	1392	1685	33
69	0	0	2106	1390	1688	32
70	0	0	2133	1391	1688	32
71	0	0	2159	1391	1692	34
72	0	0	2181	1392	1695	34
73	0	0	2199	1391	1696	33
74	0	0	2224	1393	1696	33
75	0	0	2246	1393	1694	34
76	0	0	2262	1391	1689	33
77	0	0	2269	1393	1687	34
78	0	0	2252	1390	1687	32
79	0	0	2215	1390	1686	32
80	0	0	2176	1389	1691	34
81	0	0	2152	1389	1692	34
82	0	0	2127	1389	1694	35
83	0	0	2090	1389	1695	33
84	0	0	2043	1389	1694	32
85	0	0	1991	1388	1690	32
86	0	0	1958	1387	1687	32
87	0	0	1954	1387	1686	33
88	0	0	1974	1391	1686	33
89	0	0	2021	1393	1687	32
90	0	0	2086	1391	1689	34
91	0	0	2130	1392	1691	33
92	0	0	2138	1391	1694	32
93	0	0	2136	1391	1695	32
94	0	0	2148	1393	1694	33
95	0	0	2180	1391	1692	34
96	0	0	2230	1391	1690	33
97	0	0	2270	1392	1687	33
98	0	0	2269	1391	1687	33
99	0	0	2254	1392	1687	32
100	0	0	2225	1389	1690	34
101	0	0	2175	1386	1691	32
102	0	0	2133	1383	1694	33
103	0	0	2085	1388	1695	33
104	0	0	2059	1391	1694	32
105	0	0	2063	1391	1693	34
106	0	0	2078	1389	1688	33
107	0	0	2078	1391	1686	32
108	0	0	2087	1392	1685	33
109	0	0	2108	1391	1687	31
110	0	0	2114	1391	1690	33
111	0	0	2113	1388	1694	34
112	0	0	2117	1391	1695	33
113	0	0	2122	1392	1696	33
114	0	0	2137	1391	1696	32
115	0	0	2166	1391	1694	34
116	0	0	2220	1389	1690	33
117	0	0	2270	1391	1690	33
118	0	0	2260	1391	1686	32
119	0	0	2233	1390	1688	32
120	0	0	2191	1388	1692	34
121	0	0	2138	1387	1694	34
122	0	0	2086	1389	1695	33
123	0	0	2051	1388	1696	32
124	0	0	2034	1390	1697	31
125	0	0	2034	1391	1695	34
126	0	0	2041	1391	1689	32
127	0	0	2050	1390	1685	32
0	0	0	2059	1390	1686	33
1	0	0	2084	1389	1687	31
2	0	0	2109	1390	1689	34
3	0	0	2143	1390	1693	33
4	0	0	2192	1390	1695	34
5	0	0	2225	1390	1694	33
6	0	0	2260	1389	1696	31
7	0	0	2299	1390	1695	35
8	0	0	2333	1388	1691	33
9	0	0	2350	1390	1689	33
10	0	0	2312	1386	1688	33
11	0	0	2248	1386	1689	33
12	0	0	2170	1386	1691	32
13	0	0	2102	1386	1693	32
14	0	0	2053	1387	1696	33
15	0	0	2028	1385	1696	31
16	0	0	2023	1389	1696	32
17	0	0	2015	1390	1694	33
18	0	0	2011	1390	1689	32
19	0	0	2023	1390	1686	33
20	0	0	2049	1391	1685	33
21	0	0	2065	1390	1685	32
22	0	0	2076	1390	1691	34
23	0	0	2113	1392	1694	33
24	0	0	2182	1389	1695	33
25	0	0	2227	1389	1697	32
26	0	0	2240	1390	1698	35
27	0	0	2240	1390	1696	33
28	0	0	2229	1389	1692	33
29	0	0	2216	1390	1689	33
30	0	0	2211	1390	1688	33
31	0	0	2222	1390	1689	32
32	0	0	2240	1390	1692	34
33	0	0	2236	1389	1694	33
34	0	0	2227	1389	1695	33
35	0	0	2220	1389	1696	32
36	0	0	2180	1386	1694	32
37	0	0	2107	1385	1697	34
38	0	0	2056	1386	1689	33
39	0	0	2039	1388	1686	32
40	0	0	2059	1388	1687	33
41	0	0	2101	1389	1688	32
42	0	0	2143	1389	1691	34
43	0	0	2183	1388	1694	34
44	0	0	2217	1388	1696	33
45	0	0	2232	1387	1698	33
46	0	0	2228	1389	1698	36
47	0	0	2230	1389	1696	34
48	0	0	2250	1389	1692	33
49	0	0	2274	1389	1689	33
50	0	0	2255	1386	1688	33
51	0	0	2221	1386	1690	32
52	0	0	2195	1387	1691	34
53	0	0	2180	1388	1690	33
54	0	0	2171	1389	1695	35
55	0	0	2163	1388	1696	33
56	0	0	2154	1388	1696	32
57	0	0	2136	1386	1693	33
58	0	0	2105	1385	1690	32
59	0	0	2092	1388	1687	32
60	0	0	2079	1384	1687	33
61	0	0	2056	1387	1688	32
62	0	0	2070	1388	1691	31
63	0	0	2107	1388	1693	35
64	0	0	2135	1388	1696	33
65	0	0	2168	1387	1698	34
66	0	0	2220	1388	1697	36
67	0	0	2285	1389	1696	34
68	0	0	2371	1387	1692	34
69	0	0	2455	1389	1700	33
70	0	0	2486	1389	1687	32
71	0	0	2451	1385	1690	39
72	0	0	2375	1384	1690	34
73	0	0	2279	1383	1694	33
74	0	0	2215	1384	1696	33
75	0	0	2185	1384	1698	33
76	0	0	2173	1388	1697	38
77	0	0	2184	1388	1694	34
78	0	0	2224	1387	1690	33
79	0	0	2262	1388	1687	33
80	0	0	2284	1386	1688	33
81	0	0	2292	1387	1688	31
82	0	0	2286	1388	1690	33
83	0	0	2289	1387	1694	33
84	0	0	2352	1387	1695	34
85	0	0	2419	1389	1708	31
86	0	0	2442	1387	1697	32
87	0	0	2417	1385	1696	32
88	0	0	2387	1386	1691	34
89	0	0	2365	1386	1689	33
90	0	0	2345	1385	1689	34
91	0	0	2333	1387	1689	32
92	0	0	2300	1384	1691	31
93	0	0	2258	1384	1694	34
94	0	0	2231	1385	1696	32
95	0	0	2210	1386	1697	32
96	0	0	2203	1388	1696	32
97	0	0	2212	1387	1695	33
98	0	0	2204	1386	1689	32
99	0	0	2201	1386	1687	32
100	0	0	2212	1386	1687	34
101	0	0	2227	1387	1699	38
102	0	0	2236	1386	1690	31
103	0	0	2254	1386	1693	34
104	0	0	2286	1387	1695	34
105	0	0	2318	1387	1697	33
106	0	0	2340	1387	1697	35
107	0	0	2346	1387	1694	35
108	0	0	2352	1386	1691	34
109	0	0	2328	1382	1689	33
110	0	0	2262	1383	1689	32
111	0	0	2236	1387	1690	31
112	0	0	2251	1387	1692	31
113	0	0	2255	1386	1694	34
114	0	0	2255	1387	1695	34
115	0	0	2235	1384	1698	34
116	0	0	2198	1383	1696	32
117	0	0	2167	1383	1688	33
118	0	0	2144	1383	1688	32
119	0	0	2135	1386	1687	33
120	0	0	2147	1383	1686	33
121	0	0	2173	1387	1687	33
122	0	0	2196	1385	1691	31
123	0	0	2193	1384	1692	34
124	0	0	2193	1385	1696	33
125	0	0	2219	1387	1697	32
126	0	0	2257	1386	1697	32
127	0	0	2302	1385	1696	32
0	0	0	2351	1385	1692	34
1	0	0	2393	1385	1689	33
2	0	0	2378	1384	1689	32
3	0	0	2337	1384	1690	33
4	0	0	2303	1383	1692	33
5	0	0	2259	1382	1688	33
6	0	0	2226	1383	1695	33
7	0	0	2187	1383	1696	32
8	0	0	2154	1383	1697	33
9	0	0	2130	1383	1695	31
10	0	0	2094	1382	1690	33
11	0	0	2083	1384	1687	32
12	0	0	2109	1385	1688	35
13	0	0	2120	1387	1688	32
14	0	0	2130	1385	1692	33
15	0	0	2154	1385	1694	33
16	0	0	2208	1385	1697	33
17	0	0	2273	1382	1697	32
18	0	0	2327	1385	1698	34
19	0	0	2361	1385	1696	31
20	0	0	2390	1384	1692	33
21	0	0	2411	1383	1700	33
22	0	0	2412	1386	1688	32
23	0	0	2400	1385	1690	33
24	0	0	2384	1384	1692	31
25	0	0	2365	1385	1695	33
26	0	0	2369	1384	1696	32
27	0	0	2406	1385	1698	31
28	0	0	2468	1384	1697	33
29	0	0	2513	1384	1696	32
30	0	0	2554	1384	1690	34
31	0	0	2578	1383	1688	33
32	0	0	2609	1383	1688	33
33	0	0	2660	1383	1689	32
34	0	0	2714	1384	1692	32
35	0	0	2740	1384	1695	35
36	0	0	2766	1384	1697	34
37	0	0	2805	1384	1709	34
38	0	0	2851	1384	1697	32
39	0	0	2912	1384	1697	32
40	0	0	2989	1386	1693	34
41	0	0	3048	1385	1689	32
42	0	0	3029	1382	1690	33
43	0	0	2968	1381	1691	32
44	0	0	2881	1380	1694	32
45	0	0	2751	1380	1697	32
46	0	0	2591	1379	1698	35
47	0	0	2418	1379	1699	33
48	0	0	2265	1378	1699	32
49	0	0	2158	1379	1698	33
50	0	0	2073	1379	1692	33
51	0	0	1984	1379	1690	33
52	0	0	1917	1379	1689	33
53	0	0	1867	1380	1686	33
54	0	0	1803	1379	1693	33
55	0	0	1750	1379	1697	33
56	0	0	1732	1382	1699	33
57	0	0	1734	1385	1700	32
58	0	0	1755	1383	1701	33
59	0	0	1804	1384	1700	33
60	0	0	1871	1383	1696	33
61	0	0	1937	1384	1693	34
62	0	0	1982	1384	1692	32
63	0	0	2018	1384	1696	32
64	0	0	2025	1382	1697	32
65	0	0	1977	1380	1701	33
66	0	0	1921	1380	1702	32
67	0	0	1884	1381	1702	33
68	0	0	1889	1383	1702	33
69	0	0	1914	1384	1695	31
70	0	0	1925	1382	1696	32
71	0	0	1935	1382	1692	32
72	0	0	1954	1382	1694	33
73	0	0	1975	1383	1695	31
74	0	0	2011	1382	1697	31
75	0	0	2045	1383	1701	32
76	0	0	2084	1383	1703	33
77	0	0	2143	1382	1705	34
78	0	0	2213	1383	1706	33
79	0	0	2238	1383	1705	33
80	0	0	2234	1383	1703	34
81	0	0	2220	1381	1699	33
82	0	0	2188	1381	1698	32
83	0	0	2160	1381	1701	32
84	0	0	2151	1383	1703	31
85	0	0	2127	1380	1717	34
86	0	0	2110	1381	1706	32
87	0	0	2099	1382	1708	34
88	0	0	2090	1382	1709	34
89	0	0	2085	1382	1707	31
90	0	0	2073	1382	1705	34
91	0	0	2073	1381	1701	33
92	0	0	2084	1381	1701	33
93	0	0	2074	1381	1703	33
94	0	0	2050	1381	1707	35
95	0	0	2069	1381	1711	35
96	0	0	2110	1381	1713	35
97	0	0	2130	1383	1715	33
98	0	0	2142	1382	1717	33
99	0	0	2160	1382	1716	33
100	0	0	2202	1382	1713	34
101	0	0	2247	1383	1704	33
102	0	0	2261	1382	1708	34
103	0	0	2256	1382	1712	33
104	0	0	2250	1382	1714	31
105	0	0	2225	1378	1719	34
106	0	0	2185	1378	1720	34
107	0	0	2125	1378	1721	34
108	0	0	2048	1377	1724	34
109	0	0	1977	1378	1722	32
110	0	0	1942	1380	1719	34
111	0	0	1968	1381	1717	31
112	0	0	2034	1382	1718	33
113	0	0	2106	1381	1722	34
114	0	0	2149	1381	1724	33
115	0	0	2159	1381	1729	34
116	0	0	2178	1381	1731	34
117	0	0	2217	1382	1729	33
118	0	0	2258	1382	1734	33
119	0	0	2288	1381	1734	31
120	0	0	2303	1381	1731	34
121	0	0	2306	1380	1730	34
122	0	0	2256	1377	1732	33
123	0	0	2191	1379	1734	33
124	0	0	2156	1378	1739	35
125	0	0	2119	1375	1743	34
126	0	0	2090	1378	1745	33
127	0	0	2079	1381	1748	34
0	0	0	2086	1381	1750	34
1	0	0	2103	1382	1750	33
2	0	0	2108	1381	1747	34
3	0	0	2102	1380	1745	34
4	0	0	2116	1380	1746	34
5	0	0	2118	1380	1762	37
6	0	0	2100	1379	1753	32
7	0	0	2086	1381	1758	35
8	0	0	2111	1381	1761	35
9	0	0	2151	1380	1765	32
10	0	0	2197	1380	1767	35
11	0	0	2241	1381	1767	35
12	0	0	2272	1381	1765	34
13	0	0	2288	1380	1766	35
14	0	0	2260	1379	1768	35
15	0	0	2232	1378	1771	35
16	0	0	2201	1378	1776	34
17	0	0	2188	1380	1779	35
18	0	0	2187	1379	1783	35
19	0	0	2172	1378	1787	37
20	0	0	2138	1377	1790	37
21	0	0	2115	1381	1784	33
22	0	0	2117	1379	1785	35
23	0	0	2122	1377	1785	35
24	0	0	2150	1380	1787	35
25	0	0	2177	1380	1791	37
26	0	0	2174	1380	1796	32
27	0	0	2177	1379	1800	33
28	0	0	2189	1380	1806	36
29	0	0	2200	1381	1810	36
30	0	0	2221	1380	1813	35
31	0	0	2224	1381	1816	37
32	0	0	2220	1380	1814	36
33	0	0	2243	1380	1815	36
34	0	0	2263	1380	1819	37
35	0	0	2246	1377	1823	38
36	0	0	2198	1378	1827	33
37	0	0	2172	1379	1841	36
38	0	0	2178	1379	1836	37
39	0	0	2171	1379	1839	36
40	0	0	2158	1380	1841	33
41	0	0	2168	1379	1842	33
42	0	0	2183	1379	1841	35
43	0	0	2180	1379	1843	36
44	0	0	2160	1376	1847	37
45	0	0	2130	1378	1852	37
46	0	0	2150	1379	1860	34
47	0	0	2204	1375	1865	36
48	0	0	2265	1379	1872	36
49	0	0	2301	1379	1876	37
50	0	0	2283	1377	1880	36
51	0	0	2260	1379	1885	35
52	0	0	2264	1378	1885	39
53	0	0	2274	1379	1886	38
54	0	0	2284	1379	1890	37
55	0	0	2291	1379	1895	37
56	0	0	2233	1374	1900	36
57	0	0	2165	1375	1905	37
58	0	0	2140	1380	1913	38
59	0	0	2163	1379	1920	37
60	0	0	2194	1379	1926	37
61	0	0	2200	1379	1933	36
62	0	0	2195	1380	1937	38
63	0	0	2192	1378	1943	38
64	0	0	2237	1377	1951	40
65	0	0	2295	1378	1960	39
66	0	0	2342	1378	1971	39
67	0	0	2367	1378	1980	38
68	0	0	2375	1380	1989	39
69	0	0	2381	1379	1990	40
70	0	0	2398	1379	2004	40
71	0	0	2398	1377	2009	40
72	0	0	2402	1378	2012	40
73	0	0	2420	1379	2018	40
74	0	0	2417	1378	2028	41
75	0	0	2370	1375	2040	40
76	0	0	2301	1375	2057	37
77	0	0	2245	1375	2073	40
78	0	0	2221	1377	2089	41
79	0	0	2216	1378	2105	42
80	0	0	2197	1375	2121	39
81	0	0	2163	1376	2135	40
82	0	0	2142	1376	2146	41
83	0	0	2160	1378	2160	42
84	0	0	2211	1379	2172	44
85	0	0	2258	1379	2187	43
86	0	0	2304	1378	2202	41
87	0	0	2343	1378	2215	44
88	0	0	2394	1379	2228	44
89	0	0	2432	1377	2242	43
90	0	0	2459	1377	2257	46
91	0	0	2478	1376	2277	46
92	0	0	2484	1377	2298	45
93	0	0	2482	1377	2322	45
94	0	0	2438	1375	2348	47
95	0	0	2383	1374	2375	45
96	0	0	2341	1375	2403	44
97	0	0	2292	1374	2428	48
98	0	0	2238	1375	2454	48
99	0	0	2204	1374	2478	50
100	0	0	2189	1378	2501	48
101	0	0	2192	1376	2514	48
102	0	0	2204	1376	2539	52
103	0	0	2235	1376	2557	51
104	0	0	2266	1375	2578	51
105	0	0	2299	1377	2596	49
106	0	0	2316	1376	2616	50
107	0	0	2298	1375	2641	51
108	0	0	2274	1375	2671	53
109	0	0	2259	1377	2702	54
110	0	0	2264	1377	2734	55
111	0	0	2311	1378	2766	56
112	0	0	2378	1375	2795	56
113	0	0	2436	1377	2825	56
114	0	0	2464	1375	2854	57
115	0	0	2490	1377	2883	55
116	0	0	2492	1378	2908	56
117	0	0	2455	1374	2927	57
118	0	0	2403	1374	2958	62
119	0	0	2351	1374	2979	59
120	0	0	2289	1373	2999	60
121	0	0	2236	1374	3019	61
122	0	0	2172	1372	3034	62
123	0	0	2142	1377	3055	62
124	0	0	2188	1377	3076	60
125	0	0	2239	1377	3100	62
126	0	0	2293	1376	3125	64
127	0	0	2328	1376	3148	63
0	0	0	2363	1376	3174	64
1	0	0	2409	1378	3196	68
2	0	0	2452	1377	3219	65
3	0	0	2458	1376	3239	69
4	0	0	2445	1376	3257	66
5	0	0	2459	1376	3267	65
6	0	0	2473	1376	3295	66
7	0	0	2457	1375	3311	64
8	0	0	2419	1374	3326	70
9	0	0	2386	1374	3340	67
10	0	0	2358	1375	3353	67
11	0	0	2360	1376	3364	67
12	0	0	2364	1377	3376	68
13	0	0	2358	1377	3389	70
14	0	0	2343	1375	3399	65
15	0	0	2324	1376	3413	67
16	0	0	2323	1376	3423	69
17	0	0	2345	1377	3436	71
18	0	0	2383	1375	3448	74
19	0	0	2413	1375	3458	68
20	0	0	2416	1375	3469	71
21	0	0	2413	1374	3471	70
22	0	0	2414	1376	3489	68
23	0	0	2417	1376	3497	72
24	0	0	2424	1376	3505	71
25	0	0	2431	1377	3512	72
26	0	0	2429	1376	3519	71
27	0	0	2415	1375	3526	71
28	0	0	2349	1371	3532	73
29	0	0	2255	1372	3537	70
30	0	0	2194	1372	3544	74
31	0	0	2172	1375	3549	72
32	0	0	2182	1375	3554	69
33	0	0	2211	1375	3559	74
34	0	0	2237	1375	3564	72
35	0	0	2263	1375	3568	72
36	0	0	2291	1373	3573	72
37	0	0	2285	1375	3572	73
38	0	0	2268	1374	3582	75
39	0	0	2272	1375	3587	69
40	0	0	2299	1375	3593	72
41	0	0	2322	1372	3594	73
42	0	0	2350	1376	3600	73
43	0	0	2368	1375	3602	76
44	0	0	2372	1375	3606	72
45	0	0	2369	1375	3607	71
46	0	0	2358	1375	3611	72
47	0	0	2349	1374	3613	72
48	0	0	2315	1372	3614	75
49	0	0	2227	1370	3616	72
50	0	0	2131	1370	3618	72
51	0	0	2069	1372	3620	72
52	0	0	2028	1373	3624	73
53	0	0	2007	1374	3616	71
54	0	0	1991	1372	3628	73
55	0	0	1987	1375	3628	73
56	0	0	2018	1375	3629	73
57	0	0	2062	1375	3632	73
58	0	0	2104	1374	3634	69
59	0	0	2164	1374	3636	74
60	0	0	2210	1374	3638	73
61	0	0	2236	1372	3637	72
62	0	0	2244	1374	3638	73
63	0	0	2237	1375	3640	72
64	0	0	2237	1374	3640	73
65	0	0	2251	1375	3641	75
66	0	0	2266	1374	3639	74
67	0	0	2261	1376	3642	73
68	0	0	2220	1370	3642	73
69	0	0	2153	1370	3636	73
70	0	0	2081	1369	3644	74
71	0	0	2033	1371	3643	75
72	0	0	2004	1371	3646	73
73	0	0	1982	1372	3648	67
74	0	0	1978	1373	3646	74
75	0	0	1982	1372	3648	73
76	0	0	1975	1373	3649	74
77	0	0	1988	1375	3651	72
78	0	0	2016	1374	3649	72
79	0	0	2050	1373	3652	72
80	0	0	2102	1374	3650	73
81	0	0	2138	1374	3652	73
82	0	0	2157	1372	3651	73
83	0	0	2153	1372	3651	73
84	0	0	2126	1371	3652	73
85	0	0	2099	1370	3655	74
86	0	0	2076	1372	3652	74
87	0	0	2067	1375	3654	75
88	0	0	2035	1368	3654	73
89	0	0	1963	1370	3655	73
90	0	0	1915	1371	3654	73
91	0	0	1893	1370	3655	74
92	0	0	1869	1369	3656	72
93	0	0	1868	1373	3657	68
94	0	0	1869	1372	3656	73
95	0	0	1880	1372	3655	73
96	0	0	1893	1373	3656	73
97	0	0	1919	1371	3656	73
98	0	0	1941	1373	3657	73
99	0	0	1955	1372	3655	73
100	0	0	1972	1371	3655	73
101	0	0	1989	1372	3663	75
102	0	0	2017	1372	3658	74
103	0	0	2062	1374	3657	73
104	0	0	2122	1373	3658	74
105	0	0	2167	1373	3658	73
106	0	0	2167	1372	3658	75
107	0	0	2122	1369	3659	73
108	0	0	2060	1369	3658	76
109	0	0	2011	1369	3659	72
110	0	0	1967	1370	3661	73
111	0	0	1938	1371	3660	73
112	0	0	1941	1369	3661	73
113	0	0	1952	1372	3660	74
114	0	0	1965	1372	3659	72
115	0	0	1986	1372	3659	73
116	0	0	2025	1372	3656	75
117	0	0	2059	1371	3665	74
118	0	0	2095	1373	3661	74
119	0	0	2130	1371	3661	73
120	0	0	2155	1372	3661	74
121	0	0	2173	1372	3664	73
122	0	0	2185	1374	3663	74
123	0	0	2173	1372	3663	76
124	0	0	2171	1372	3664	73
125	0	0	2179	1370	3663	74
126	0	0	2173	1372	3664	74
127	0	0	2164	1370	3664	73
0	0	0	2169	1369	3665	72
1	0	0	2188	1372	3663	72
2	0	0	2179	1372	3666	74
3	0	0	2141	1368	3664	75
4	0	0	2086	1369	3665	73
5	0	0	2020	1368	3658	76
6	0	0	1988	1369	3665	71
7	0	0	1991	1370	3664	73
8	0	0	2023	1372	3664	74
9	0	0	2062	1371	3667	74
10	0	0	2090	1371	3666	74
11	0	0	2117	1371	3667	74
12	0	0	2135	1371	3666	74
13	0	0	2155	1371	3668	76
14	0	0	2145	1368	3669	73
15	0	0	2134	1373	3669	72
16	0	0	2173	1371	3669	73
17	0	0	2216	1371	3667	74
18	0	0	2230	1372	3668	75
19	0	0	2217	1367	3668	73
20	0	0	2183	1368	3669	74
21	0	0	2142	1368	3665	73
22	0	0	2114	1371	3668	74
23	0	0	2098	1369	3668	71
24	0	0	2080	1370	3670	75
25	0	0	2085	1370	3670	75
26	0	0	2112	1371	3669	72
27	0	0	2124	1370	3669	74
28	0	0	2134	1370	3671	72
29	0	0	2164	1369	3671	74
30	0	0	2186	1371	3671	72
31	0	0	2231	1371	3671	73
32	0	0	2276	1370	3671	74
33	0	0	2290	1370	3671	74
34	0	0	2279	1368	3671	74
35	0	0	2266	1371	3672	74
36	0	0	2258	1371	3670	72
37	0	0	2239	1369	3676	74
38	0	0	2182	1369	3670	72
39	0	0	2130	1366	3671	74
40	0	0	2105	1369	3671	75
41	0	0	2096	1370	3672	72
42	0	0	2101	1370	3671	73
43	0	0	2105	1370	3671	74
44	0	0	2104	1369	3671	71
45	0	0	2112	1370	3673	76
46	0	0	2087	1367	3675	72
47	0	0	2038	1367	3671	71
48	0	0	2030	1370	3673	74
49	0	0	2048	1370	3673	72
50	0	0	2088	1370	3674	74
51	0	0	2104	1369	3671	73
52	0	0	2109	1370	3672	75
53	0	0	2162	1370	3677	75
54	0	0	2214	1370	3671	71
55	0	0	2247	1371	3672	72
56	0	0	2287	1370	3671	74
57	0	0	2334	1370	3670	74
58	0	0	2348	1369	3672	74
59	0	0	2303	1367	3672	72
60	0	0	2226	1367	3673	76
61	0	0	2149	1366	3671	72
62	0	0	2099	1366	3672	72
63	0	0	2080	1369	3673	74
64	0	0	2095	1369	3673	71
65	0	0	2110	1370	3675	75
66	0	0	2131	1369	3675	74
67	0	0	2153	1368	3673	74
68	0	0	2161	1369	3675	73
69	0	0	2172	1369	3671	74
70	0	0	2225	1371	3673	75
71	0	0	2271	1369	3674	74
72	0	0	2300	1369	3673	74
73	0	0	2340	1369	3675	72
74	0	0	2346	1369	3675	74
75	0	0	2307	1366	3674	75
76	0	0	2286	1369	3673	76
77	0	0	2297	1368	3673	74
78	0	0	2304	1369	3673	74
79	0	0	2302	1368	3674	74
80	0	0	2309	1370	3676	74
81	0	0	2302	1369	3675	74
82	0	0	2275	1366	3674	74
83	0	0	2245	1366	3676	72
84	0	0	2207	1367	3674	72
85	0	0	2200	1369	3681	75
86	0	0	2209	1368	3674	78
87	0	0	2217	1368	3671	74
88	0	0	2209	1368	3675	73
89	0	0	2214	1369	3674	74
90	0	0	2216	1369	3675	74
91	0	0	2196	1368	3674	76
92	0	0	2200	1367	3674	74
93	0	0	2241	1369	3674	76
94	0	0	2306	1367	3675	74
95	0	0	2346	1369	3676	75
96	0	0	2348	1369	3674	77
97	0	0	2319	1366	3674	74
98	0	0	2268	1366	3676	72
99	0	0	2241	1369	3676	76
100	0	0	2247	1369	3675	75
101	0	0	2250	1368	3672	76
102	0	0	2257	1368	3675	73
103	0	0	2237	1366	3674	74
104	0	0	2197	1365	3676	75
105	0	0	2156	1364	3675	75
106	0	0	2104	1364	3674	77
107	0	0	2085	1368	3674	74
108	0	0	2128	1367	3674	74
109	0	0	2187	1367	3673	75
110	0	0	2237	1368	3675	75
111	0	0	2264	1367	3677	76
112	0	0	2250	1365	3676	75
113	0	0	2217	1365	3676	75
114	0	0	2211	1365	3674	75
115	0	0	2268	1370	3677	73
116	0	0	2330	1368	3676	76
117	0	0	2391	1368	3672	73
118	0	0	2430	1368	3675	74
119	0	0	2436	1369	3676	74
120	0	0	2389	1362	3676	74
121	0	0	2319	1364	3675	77
122	0	0	2257	1363	3675	74
123	0	0	2211	1364	3674	71
124	0	0	2172	1364	3674	75
125	0	0	2158	1368	3676	78
126	0	0	2143	1367	3675	76
127	0	0	2146	1367	3675	75
0	0	0	2165	1367	3675	74
1	0	0	2171	1365	3675	75
2	0	0	2197	1368	3677	73
3	0	0	2233	1367	3676	75
4	0	0	2244	1366	3676	75
5	0	0	2216	1365	3673	72
6	0	0	2208	1368	3676	78
7	0	0	2262	1369	3676	75
8	0	0	2322	1366	3676	74
9	0	0	2383	1365	3675	74
10	0	0	2430	1367	3674	74
11	0	0	2463	1365	3673	75
12	0	0	2463	1366	3675	73
13	0	0	2402	1363	3676	75
14	0	0	2313	1364	3676	75
15	0	0	2239	1362	3678	74
16	0	0	2205	1365	3676	73
17	0	0	2197	1366	3676	74
18	0	0	2167	1364	3675	75
19	0	0	2161	1366	3676	74
20	0	0	2188	1365	3676	76
21	0	0	2222	1366	3673	78
22	0	0	2247	1366	3678	75
23	0	0	2275	1366	3675	73
24	0	0	2308	1366	3676	74
25	0	0	2315	1366	3676	75
26	0	0	2320	1366	3676	79
27	0	0	2333	1366	3676	74
28	0	0	2327	1367	3676	75
29	0	0	2313	1365	3675	74
30	0	0	2295	1367	3676	71
31	0	0	2271	1365	3676	77
32	0	0	2240	1361	3676	74
33	0	0	2205	1364	3676	73
34	0	0	2194	1368	3675	75
35	0	0	2191	1366	3676	76
36	0	0	2191	1365	3678	77
37	0	0	2192	1366	3682	72
38	0	0	2212	1365	3676	75
39	0	0	2191	1362	3676	75
40	0	0	2161	1365	3676	74
41	0	0	2191	1366	3676	78
42	0	0	2238	1366	3676	74
43	0	0	2265	1366	3676	74
44	0	0	2289	1366	3676	75
45	0	0	2306	1364	3675	76
46	0	0	2307	1364	3676	75
47	0	0	2290	1366	3676	74
48	0	0	2308	1365	3675	73
49	0	0	2354	1367	3676	75
50	0	0	2383	1367	3676	75
51	0	0	2365	1364	3676	73
52	0	0	2291	1362	3678	75
53	0	0	2194	1362	3683	75
54	0	0	2131	1362	3677	75
55	0	0	2087	1363	3677	75
56	0	0	2040	1362	3677	75
57	0	0	2023	1365	3678	75
58	0	0	2061	1365	3676	73
59	0	0	2081	1363	3675	74
60	0	0	2100	1364	3676	76
61	0	0	2129	1364	3677	79
62	0	0	2147	1365	3676	77
63	0	0	2180	1365	3676	77
64	0	0	2227	1365	3676	75
65	0	0	2264	1364	3676	77
66	0	0	2290	1365	3678	79
67	0	0	2318	1365	3678	78
68	0	0	2357	1365	3676	76
69	0	0	2382	1365	3679	77
70	0	0	2347	1362	3676	76
71	0	0	2278	1360	3678	75
72	0	0	2233	1362	3678	76
73	0	0	2220	1366	3677	74
74	0	0	2244	1365	3676	75
75	0	0	2254	1364	3677	72
76	0	0	2207	1361	3677	75
77	0	0	2140	1361	3677	74
78	0	0	2077	1361	3676	73
79	0	0	2064	1364	3677	76
80	0	0	2107	1364	3677	78
81	0	0	2133	1365	3677	74
82	0	0	2165	1363	3678	75
83	0	0	2224	1364	3678	74
84	0	0	2263	1365	3677	77
85	0	0	2272	1364	3671	76
86	0	0	2299	1365	3678	77
87	0	0	2347	1363	3678	78
88	0	0	2365	1366	3677	74
89	0	0	2379	1365	3677	75
90	0	0	2391	1366	3680	74
91	0	0	2397	1365	3677	72
92	0	0	2351	1360	3677	76
93	0	0	2283	1360	3676	74
94	0	0	2237	1363	3676	75
95	0	0	2231	1364	3676	75
96	0	0	2222	1361	3677	74
97	0	0	2191	1361	3677	76
98	0	0	2152	1361	3676	76
99	0	0	2145	1364	3676	74
100	0	0	2175	1364	3680	75
101	0	0	2196	1361	3672	77
102	0	0	2198	1363	3678	79
103	0	0	2225	1363	3677	76
104	0	0	2276	1363	3679	78
105	0	0	2322	1364	3678	72
106	0	0	2334	1365	3678	73
107	0	0	2325	1363	3678	74
108	0	0	2338	1363	3676	78
109	0	0	2355	1365	3675	77
110	0	0	2339	1363	3676	71
111	0	0	2310	1359	3677	75
112	0	0	2264	1360	3677	75
113	0	0	2185	1361	3678	75
114	0	0	2140	1362	3676	75
115	0	0	2140	1364	3677	73
116	0	0	2170	1361	3677	75
117	0	0	2194	1363	3687	75
118	0	0	2177	1360	3677	73
119	0	0	2166	1363	3676	74
120	0	0	2185	1363	3680	78
121	0	0	2205	1359	3678	77
122	0	0	2226	1363	3678	75
123	0	0	2269	1362	3677	76
124	0	0	2324	1364	3676	75
125	0	0	2365	1363	3679	77
126	0	0	2391	1361	3676	77
127	0	0	2389	1362	3677	79
0	0	0	2358	1361	3676	78
1	0	0	2326	1361	3675	74
2	0	0	2272	1360	3678	75
3	0	0	2208	1359	3676	74
4	0	0	2203	1363	3678	75
5	0	0	2224	1362	3666	74
6	0	0	2264	1364	3676	73
7	0	0	2258	1360	3680	75
8	0	0	2200	1359	3677	75
9	0	0	2151	1359	3678	75
10	0	0	2120	1359	3678	76
11	0	0	2102	1361	3677	75
12	0	0	2111	1362	3676	74
13	0	0	2148	1363	3678	74
14	0	0	2186	1363	3676	77
15	0	0	2232	1362	3678	78
16	0	0	2260	1362	3676	78
17	0	0	2291	1362	3676	76
18	0	0	2323	1363	3677	74
19	0	0	2341	1363	3678	76
20	0	0	2343	1363	3678	75
21	0	0	2338	1363	3682	77
22	0	0	2335	1363	3676	74
23	0	0	2317	1361	3679	75
24	0	0	2281	1360	3678	75
25	0	0	2260	1362	3679	74
26	0	0	2222	1359	3678	75
27	0	0	2181	1360	3680	73
28	0	0	2141	1359	3678	75
29	0	0	2098	1359	3678	74
30	0	0	2054	1359	3677	76
31	0	0	2045	1360	3677	75
32	0	0	2056	1362	3676	80
33	0	0	2092	1362	3676	78
34	0	0	2156	1362	3677	78
35	0	0	2229	1361	3676	75
36	0	0	2278	1361	3678	74
37	0	0	2296	1363	3670	55
38	0	0	2305	1360	3677	77
39	0	0	2314	1362	3678	75
40	0	0	2335	1365	3677	75
41	0	0	2365	1362	3677	78
42	0	0	2353	1360	3678	75
43	0	0	2325	1362	3679	74
44	0	0	2312	1362	3678	74
45	0	0	2295	1361	3678	75
46	0	0	2253	1359	3677	75
47	0	0	2206	1359	3678	75
48	0	0	2153	1359	3677	75
49	0	0	2102	1359	3677	75
50	0	0	2057	1358	3676	76
51	0	0	2043	1359	3676	74
52	0	0	2063	1359	3676	77
53	0	0	2096	1362	3671	78
54	0	0	2131	1361	3677	74
55	0	0	2187	1361	3677	75
56	0	0	2256	1361	3677	76
57	0	0	2315	1361	3678	78
58	0	0	2344	1362	3678	78
59	0	0	2362	1361	3679	77
60	0	0	2369	1361	3678	79
61	0	0	2367	1361	3679	75
62	0	0	2347	1360	3676	75
63	0	0	2334	1361	3678	75
64	0	0	2306	1358	3677	74
65	0	0	2245	1357	3676	71
66	0	0	2176	1357	3676	75
67	0	0	2130	1359	3676	72
68	0	0	2132	1360	3676	77
69	0	0	2159	1361	3683	73
70	0	0	2174	1360	3677	75
71	0	0	2171	1360	3676	71
72	0	0	2167	1359	3677	75
73	0	0	2158	1360	3678	77
74	0	0	2185	1359	3678	77
75	0	0	2238	1360	3680	77
76	0	0	2270	1361	3678	78
77	0	0	2283	1361	3678	78
78	0	0	2266	1358	3678	75
79	0	0	2223	1358	3677	75
80	0	0	2221	1360	3677	71
81	0	0	2280	1361	3678	76
82	0	0	2322	1361	3676	76
83	0	0	2332	1358	3676	77
84	0	0	2341	1361	3678	74
85	0	0	2305	1357	3667	73
86	0	0	2249	1357	3677	75
87	0	0	2193	1355	3677	75
88	0	0	2149	1356	3677	75
89	0	0	2135	1360	3678	75
90	0	0	2127	1359	3678	74
91	0	0	2090	1357	3678	75
92	0	0	2065	1357	3678	78
93	0	0	2073	1360	3678	78
94	0	0	2107	1359	3679	78
95	0	0	2147	1359	3675	71
96	0	0	2168	1360	3678	75
97	0	0	2175	1360	3677	75
98	0	0	2220	1359	3676	75
99	0	0	2276	1359	3677	77
100	0	0	2326	1359	3677	73
101	0	0	2362	1361	3680	77
102	0	0	2355	1358	3678	79
103	0	0	2302	1356	3676	75
104	0	0	2235	1358	3678	75
105	0	0	2195	1357	3678	74
106	0	0	2160	1356	3677	74
107	0	0	2120	1356	3678	76
108	0	0	2087	1358	3678	75
109	0	0	2083	1360	3679	76
110	0	0	2088	1359	3675	71
111	0	0	2089	1360	3679	73
112	0	0	2093	1358	3679	79
113	0	0	2100	1358	3677	75
114	0	0	2104	1358	3678	75
115	0	0	2114	1358	3677	76
116	0	0	2129	1359	3677	78
117	0	0	2140	1358	3689	82
118	0	0	2148	1357	3677	79
119	0	0	2201	1358	3677	74
120	0	0	2243	1359	3677	72
121	0	0	2260	1359	3677	75
122	0	0	2247	1359	3678	74
123	0	0	2242	1359	3679	74
124	0	0	2216	1356	3679	75
125	0	0	2166	1356	3679	74
126	0	0	2121	1355	3678	75
127	0	0	2077	1354	3678	75
0	0	0	2032	1357	3677	73
1	0	0	2019	1358	3678	74
2	0	0	2033	1355	3677	72
3	0	0	2042	1360	3677	75
4	0	0	2057	1358	3677	75
5	0	0	2059	1359	3670	74
6	0	0	2064	1356	3678	78
7	0	0	2086	1360	3678	73
8	0	0	2109	1358	3677	75
9	0	0	2144	1357	3678	75
10	0	0	2176	1359	3676	74
11	0	0	2189	1359	3679	78
12	0	0	2203	1358	3678	76
13	0	0	2203	1358	3679	78
14	0	0	2168	1359	3678	72
15	0	0	2157	1359	3676	72
16	0	0	2127	1354	3678	76
17	0	0	2060	1355	3678	72
18	0	0	2003	1356	3677	75
19	0	0	1973	1354	3678	75
20	0	0	1963	1358	3676	72
21	0	0	1956	1357	3684	74
22	0	0	1962	1357	3676	74
23	0	0	1974	1357	3676	76
24	0	0	1994	1356	3677	75
25	0	0	2019	1358	3676	77
26	0	0	2063	1357	3679	77
27	0	0	2108	1357	3677	76
28	0	0	2117	1358	3679	75
29	0	0	2086	1356	3679	74
30	0	0	2076	1358	3676	73
31	0	0	2120	1359	3680	76
32	0	0	2158	1358	3678	78
33	0	0	2181	1358	3678	74
34	0	0	2169	1356	3679	79
35	0	0	2144	1355	3677	73
36	0	0	2103	1355	3677	76
37	0	0	2065	1356	3672	72
38	0	0	2066	1357	3676	73
39	0	0	2075	1356	3678	75
40	0	0	2087	1358	3676	73
41	0	0	2101	1356	3679	75
42	0	0	2135	1357	3678	75
43	0	0	2178	1358	3677	75
44	0	0	2228	1355	3677	77
45	0	0	2273	1356	3678	75
46	0	0	2332	1359	3679	75
47	0	0	2396	1357	3678	74
48	0	0	2465	1357	3680	78
49	0	0	2534	1357	3679	78
50	0	0	2613	1358	3678	76
51	0	0	2681	1355	3678	77
52	0	0	2719	1357	3677	75
53	0	0	2762	1357	3673	74
54	0	0	2787	1356	3678	75
55	0	0	2762	1358	3677	74
56	0	0	2740	1359	3678	75
57	0	0	2719	1357	3677	74
58	0	0	2698	1357	3677	75
59	0	0	2676	1356	3678	75
60	0	0	2613	1355	3678	74
61	0	0	2510	1352	3678	74
62	0	0	2422	1350	3678	74
63	0	0	2328	1352	3677	74
64	0	0	2219	1352	3679	75
65	0	0	2141	1353	3679	78
66	0	0	2051	1354	3679	78
67	0	0	1969	1352	3677	78
68	0	0	1909	1353	3678	78
69	0	0	1863	1354	3672	74
70	0	0	1811	1353	3677	74
71	0	0	1746	1349	3678	75
72	0	0	1718	1357	3676	77
73	0	0	1732	1356	3677	78
74	0	0	1731	1356	3677	75
75	0	0	1710	1355	3676	73
76	0	0	1673	1355	3678	73
77	0	0	1634	1353	3675	74
78	0	0	1634	1356	3678	75
79	0	0	1633	1354	3678	76
80	0	0	1616	1354	3679	75
81	0	0	1631	1356	3679	75
82	0	0	1687	1357	3680	74
83	0	0	1715	1356	3678	75
84	0	0	1720	1355	3678	78
85	0	0	1737	1356	3672	77
86	0	0	1753	1359	3679	74
87	0	0	1769	1355	3678	75
88	0	0	1785	1356	3677	74
89	0	0	1818	1356	3677	79
90	0	0	1869	1356	3678	77
91	0	0	1916	1358	3678	78
92	0	0	1958	1356	3678	78
93	0	0	2001	1355	3677	74
94	0	0	2022	1353	3678	76
95	0	0	2007	1353	3679	75
96	0	0	1942	1353	3679	75
97	0	0	1902	1354	3678	74
98	0	0	1885	1352	3678	75
99	0	0	1866	1354	3678	75
100	0	0	1847	1353	3680	76
101	0	0	1824	1355	3683	74
102	0	0	1796	1352	3677	74
103	0	0	1796	1355	3677	74
104	0	0	1849	1357	3677	74
105	0	0	1942	1355	3677	74
106	0	0	1988	1354	3678	77
107	0	0	2010	1356	3676	76
108	0	0	2019	1355	3679	78
109	0	0	2009	1357	3678	76
110	0	0	2020	1355	3680	74
111	0	0	2042	1356	3679	75
112	0	0	2075	1355	3678	75
113	0	0	2127	1354	3679	80
114	0	0	2143	1356	3678	77
115	0	0	2136	1355	3679	75
116	0	0	2084	1354	3679	75
117	0	0	1980	1351	3673	74
118	0	0	1890	1351	3678	75
119	0	0	1852	1353	3678	76
120	0	0	1830	1353	3678	75
121	0	0	1820	1355	3677	74
122	0	0	1802	1351	3677	75
123	0	0	1786	1354	3677	75
124	0	0	1809	1355	3678	79
125	0	0	1832	1355	3679	78
126	0	0	1829	1358	3679	77
127	0	0	1844	1354	3679	75
0	0	0	1892	1354	3679	75
1	0	0	1985	1356	3678	74
2	0	0	2075	1355	3680	79
3	0	0	2121	1354	3679	78
4	0	0	2126	1354	3678	75
5	0	0	2141	1352	3670	77
6	0	0	2122	1354	3678	74
7	0	0	2112	1355	3680	74
8	0	0	2113	1354	3679	74
9	0	0	2074	1351	3677	71
10	0	0	2014	1349	3678	74
11	0	0	1960	1352	3677	77
12	0	0	1917	1352	3677	73
13	0	0	1876	1350	3678	75
14	0	0	1834	1351	3677	74
15	0	0	1831	1352	3679	74
16	0	0	1886	1354	3678	76
17	0	0	1917	1354	3678	77
18	0	0	1910	1354	3678	77
19	0	0	1907	1354	3679	75
20	0	0	1928	1353	3679	75
21	0	0	1974	1356	3667	74
22	0	0	2005	1355	3679	79
23	0	0	2022	1354	3678	77
24	0	0	2062	1355	3678	78
25	0	0	2098	1353	3678	78
26	0	0	2111	1355	3679	76
27	0	0	2104	1354	3678	75
28	0	0	2064	1350	3678	76
29	0	0	2016	1351	3677	75
30	0	0	1995	1353	3675	75
31	0	0	1948	1350	3677	75
32	0	0	1894	1351	3679	75
33	0	0	1870	1352	3679	75
34	0	0	1867	1354	3680	74
35	0	0	1878	1354	3678	75
36	0	0	1925	1352	3678	75
37	0	0	1989	1353	3684	74
38	0	0	2044	1354	3679	75
39	0	0	2080	1353	3678	79
40	0	0	2109	1355	3677	76
41	0	0	2106	1354	3677	79
42	0	0	2075	1350	3677	77
43	0	0	2033	1351	3677	74
44	0	0	2030	1354	3680	75
45	0	0	2056	1353	3677	75
46	0	0	2061	1353	3678	77
47	0	0	2055	1355	3674	74
48	0	0	2034	1350	3678	75
49	0	0	1984	1350	3678	75
50	0	0	1948	1352	3679	75
51	0	0	1960	1354	3679	75
52	0	0	1972	1353	3680	75
53	0	0	2000	1354	3669	74
54	0	0	2011	1352	3678	75
55	0	0	1985	1351	3676	75
56	0	0	1959	1350	3677	75
57	0	0	1950	1353	3676	77
58	0	0	1958	1353	3677	78
59	0	0	1963	1353	3678	78
60	0	0	1993	1351	3677	75
61	0	0	2048	1351	3677	74
62	0	0	2070	1352	3678	75
63	0	0	2067	1353	3678	77
64	0	0	2066	1353	3677	78
65	0	0	2074	1354	3677	77
66	0	0	2077	1352	3677	75
67	0	0	2114	1353	3678	76
68	0	0	2145	1353	3678	74
69	0	0	2123	1350	3673	72
70	0	0	2087	1352	3678	75
71	0	0	2073	1351	3678	73
72	0	0	2050	1349	3676	74
73	0	0	1987	1348	3678	75
74	0	0	1936	1348	3677	75
75	0	0	1885	1350	3676	77
76	0	0	1868	1352	3677	77
77	0	0	1913	1353	3679	75
78	0	0	1998	1352	3677	74
79	0	0	2063	1352	3678	75
80	0	0	2110	1353	3677	78
81	0	0	2145	1352	3678	77
82	0	0	2162	1352	3679	78
83	0	0	2164	1352	3678	78
84	0	0	2166	1352	3678	75
85	0	0	2172	1349	3674	75
86	0	0	2180	1352	3679	77
87	0	0	2204	1352	3679	75
88	0	0	2217	1353	3678	75
89	0	0	2200	1352	3678	75
90	0	0	2195	1353	3676	77
91	0	0	2165	1348	3678	75
92	0	0	2103	1348	3679	75
93	0	0	2051	1349	3678	75
94	0	0	2045	1351	3677	75
95	0	0	2044	1352	3677	74
96	0	0	2038	1351	3677	73
97	0	0	2023	1350	3678	77
98	0	0	2018	1351	3678	78
99	0	0	2042	1351	3678	78
100	0	0	2094	1350	3680	77
101	0	0	2136	1351	3675	71
102	0	0	2174	1352	3679	75
103	0	0	2187	1353	3679	75
104	0	0	2173	1350	3678	78
105	0	0	2165	1351	3680	77
106	0	0	2165	1352	3679	79
107	0	0	2172	1352	3679	75
108	0	0	2163	1350	3678	75
109	0	0	2134	1349	3679	74
110	0	0	2117	1351	3678	75
111	0	0	2088	1350	3677	76
112	0	0	2046	1348	3679	75
113	0	0	2023	1351	3678	75
114	0	0	2034	1350	3677	75
115	0	0	2083	1352	3678	75
116	0	0	2154	1350	3679	79
117	0	0	2202	1350	3674	78
118	0	0	2250	1349	3678	76
119	0	0	2286	1349	3678	75
120	0	0	2288	1351	3678	75
121	0	0	2275	1351	3678	77
122	0	0	2285	1351	3679	79
123	0	0	2306	1351	3678	75
124	0	0	2338	1351	3677	77
125	0	0	2357	1352	3677	78
126	0	0	2322	1347	3677	75
127	0	0	2273	1346	3679	75
0	0	0	2192	1348	3678	75
1	0	0	2109	1347	3677	75
2	0	0	2076	1349	3677	75
3	0	0	2074	1351	3676	74
4	0	0	2095	1351	3677	74
5	0	0	2118	1351	3666	73
6	0	0	2100	1352	3676	75
7	0	0	2079	1350	3678	71
8	0	0	2094	1351	3678	78
9	0	0	2142	1350	3677	76
10	0	0	2189	1349	3679	75
11	0	0	2210	1350	3677	76
12	0	0	2237	1350	3677	75
13	0	0	2266	1352	3677	77
14	0	0	2296	1350	3677	78
15	0	0	2340	1351	3679	77
16	0	0	2357	1350	3676	76
17	0	0	2344	1349	3677	75
18	0	0	2307	1349	3676	75
19	0	0	2271	1347	3677	74
20	0	0	2235	1346	3678	73
21	0	0	2228	1351	3691	75
22	0	0	2234	1350	3678	77
23	0	0	2215	1347	3678	75
24	0	0	2165	1345	3678	76
25	0	0	2099	1345	3678	75
26	0	0	2069	1348	3679	75
27	0	0	2060	1347	3678	75
28	0	0	2068	1351	3677	74
29	0	0	2104	1351	3679	75
30	0	0	2142	1350	3678	78
31	0	0	2161	1350	3675	75
32	0	0	2180	1350	3678	77
33	0	0	2202	1350	3678	75
34	0	0	2229	1349	3676	76
35	0	0	2270	1350	3679	75
36	0	0	2299	1350	3677	75
37	0	0	2315	1351	3685	77
38	0	0	2311	1350	3678	74
39	0	0	2323	1350	3678	75
40	0	0	2340	1350	3679	75
41	0	0	2311	1347	3678	75
42	0	0	2252	1347	3679	75
43	0	0	2174	1346	3680	73
44	0	0	2112	1347	3677	75
45	0	0	2104	1349	3679	75
46	0	0	2126	1349	3677	74
47	0	0	2137	1350	3678	75
48	0	0	2147	1349	3678	79
49	0	0	2149	1350	3675	78
50	0	0	2114	1345	3677	78
51	0	0	2102	1347	3675	75
52	0	0	2115	1351	3676	74
53	0	0	2134	1351	3684	73
54	0	0	2103	1346	3676	79
55	0	0	2052	1348	3678	78
56	0	0	2110	1349	3678	78
57	0	0	2206	1349	3678	76
58	0	0	2244	1351	3677	75
59	0	0	2212	1346	3677	76
60	0	0	2168	1345	3679	75
61	0	0	2135	1347	3677	75
62	0	0	2118	1349	3678	75
63	0	0	2091	1347	3676	74
64	0	0	2067	1347	3675	75
65	0	0	2050	1348	3678	75
66	0	0	2017	1345	3677	75
67	0	0	1978	1346	3676	75
68	0	0	1972	1348	3677	75
69	0	0	1979	1350	3682	75
70	0	0	2002	1346	3678	73
71	0	0	2035	1348	3677	78
72	0	0	2055	1348	3678	78
73	0	0	2077	1348	3679	79
74	0	0	2112	1349	3679	78
75	0	0	2143	1348	3679	74
76	0	0	2153	1349	3680	74
77	0	0	2130	1347	3678	75
78	0	0	2094	1346	3677	75
79	0	0	2049	1346	3676	75
80	0	0	1997	1346	3678	75
81	0	0	1935	1345	3676	74
82	0	0	1886	1346	3679	75
83	0	0	1857	1345	3677	75
84	0	0	1832	1347	3677	75
85	0	0	1829	1348	3669	74
86	0	0	1833	1348	3676	75
87	0	0	1818	1345	3677	75
88	0	0	1797	1345	3678	75
89	0	0	1781	1346	3679	78
90	0	0	1797	1348	3679	78
91	0	0	1860	1347	3678	78
92	0	0	1922	1347	3678	75
93	0	0	1966	1348	3678	75
94	0	0	1989	1349	3676	76
95	0	0	1982	1345	3678	78
96	0	0	1968	1348	3677	78
97	0	0	1975	1347	3678	76
98	0	0	2006	1347	3677	75
99	0	0	2024	1349	3677	75
100	0	0	2037	1348	3678	75
101	0	0	2023	1346	3682	74
102	0	0	1974	1344	3676	75
103	0	0	1885	1343	3677	72
104	0	0	1799	1344	3678	75
105	0	0	1754	1342	3678	75
106	0	0	1737	1345	3677	75
107	0	0	1740	1347	3677	75
108	0	0	1765	1348	3678	75
109	0	0	1805	1348	3678	78
110	0	0	1848	1347	3679	77
111	0	0	1897	1347	3677	79
112	0	0	1945	1347	3677	75
113	0	0	1974	1348	3677	76
114	0	0	1973	1348	3676	76
115	0	0	1948	1345	3678	78
116	0	0	1928	1347	3676	78
117	0	0	1909	1345	3687	78
118	0	0	1854	1344	3678	78
119	0	0	1802	1345	3676	76
120	0	0	1800	1347	3678	75
121	0	0	1812	1348	3677	75
122	0	0	1830	1347	3677	75
123	0	0	1845	1348	3677	73
124	0	0	1845	1347	3680	75
125	0	0	1846	1347	3679	76
126	0	0	1832	1344	3678	75
127	0	0	1799	1344	3678	75
0	0	0	1782	1346	3677	78
1	0	0	1794	1347	3678	74
2	0	0	1826	1346	3678	75
3	0	0	1844	1346	3678	74
4	0	0	1801	1343	3677	78
5	0	0	1758	1344	3669	76
6	0	0	1749	1347	3679	80
7	0	0	1785	1348	3676	79
8	0	0	1864	1347	3677	75
9	0	0	1946	1346	3677	75
10	0	0	1990	1348	3678	72
11	0	0	1991	1347	3677	74
12	0	0	1971	1345	3678	76
13	0	0	1948	1344	3678	72
14	0	0	1917	1344	3678	75
15	0	0	1871	1343	3680	75
16	0	0	1839	1344	3678	75
17	0	0	1825	1346	3679	76
18	0	0	1806	1343	3677	74
19	0	0	1784	1344	3679	74
20	0	0	1790	1348	3676	72
21	0	0	1841	1346	3683	78
22	0	0	1902	1346	3676	78
23	0	0	1947	1347	3678	77
24	0	0	1948	1344	3677	78
25	0	0	1924	1346	3677	75
26	0	0	1924	1346	3678	75
27	0	0	1946	1347	3678	75
28	0	0	1995	1345	3677	78
29	0	0	2046	1346	3677	79
30	0	0	2048	1347	3678	79
31	0	0	2019	1343	3678	75
32	0	0	1981	1344	3678	75
33	0	0	1915	1344	3677	75
34	0	0	1868	1345	3677	75
35	0	0	1824	1344	3677	79
36	0	0	1784	1342	3677	73
37	0	0	1748	1342	3672	74
38	0	0	1730	1343	3676	74
39	0	0	1721	1346	3676	74
40	0	0	1720	1346	3679	79
41	0	0	1741	1346	3678	78
42	0	0	1772	1346	3677	75
43	0	0	1809	1346	3677	75
44	0	0	1843	1348	3677	75
45	0	0	1858	1346	3676	78
46	0	0	1869	1346	3678	77
47	0	0	1905	1346	3678	77
48	0	0	1939	1347	3678	78
49	0	0	1942	1346	3677	73
50	0	0	1950	1347	3678	79
51	0	0	1983	1346	3679	75
52	0	0	1971	1343	3679	74
53	0	0	1935	1343	3674	74
54	0	0	1900	1342	3677	74
55	0	0	1853	1342	3677	74
56	0	0	1815	1343	3678	74
57	0	0	1803	1346	3676	75
58	0	0	1797	1344	3677	75
59	0	0	1779	1343	3676	74
60	0	0	1781	1346	3678	79
61	0	0	1826	1346	3677	74
62	0	0	1898	1345	3678	78
63	0	0	1958	1345	3678	78
64	0	0	2000	1346	3677	77
65	0	0	2030	1346	3679	79
66	0	0	2048	1345	3677	73
67	0	0	2030	1343	3678	74
68	0	0	2022	1346	3676	75
69	0	0	2023	1342	3682	74
70	0	0	1995	1343	3677	74
71	0	0	1961	1342	3679	75
72	0	0	1916	1342	3676	74
73	0	0	1880	1343	3678	74
74	0	0	1851	1344	3676	75
75	0	0	1823	1343	3677	74
76	0	0	1809	1344	3679	74
77	0	0	1798	1343	3678	74
78	0	0	1782	1341	3678	74
79	0	0	1754	1344	3677	73
80	0	0	1748	1345	3679	79
81	0	0	1765	1344	3679	77
82	0	0	1794	1344	3678	78
83	0	0	1842	1343	3677	74
84	0	0	1878	1343	3676	72
85	0	0	1909	1345	3683	75
86	0	0	1950	1344	3679	80
87	0	0	1996	1345	3678	78
88	0	0	2055	1344	3677	78
89	0	0	2098	1345	3676	75
90	0	0	2090	1343	3678	75
91	0	0	2043	1341	3679	73
92	0	0	1980	1341	3678	74
93	0	0	1904	1341	3677	72
94	0	0	1839	1342	3678	74
95	0	0	1798	1341	3680	73
96	0	0	1777	1343	3677	75
97	0	0	1789	1344	3679	73
98	0	0	1815	1344	3678	76
99	0	0	1842	1346	3678	75
100	0	0	1876	1345	3677	78
101	0	0	1908	1345	3684	75
102	0	0	1923	1344	3678	78
103	0	0	1913	1342	3677	74
104	0	0	1909	1345	3678	75
105	0	0	1936	1344	3678	73
106	0	0	1960	1344	3678	77
107	0	0	1976	1345	3678	78
108	0	0	2011	1344	3677	77
109	0	0	2040	1346	3678	78
110	0	0	2022	1341	3679	75
111	0	0	1974	1341	3678	75
112	0	0	1924	1341	3679	75
113	0	0	1919	1343	3678	74
114	0	0	1927	1343	3678	74
115	0	0	1914	1343	3678	74
116	0	0	1898	1344	3679	74
117	0	0	1895	1343	3675	74
118	0	0	1884	1341	3677	74
119	0	0	1844	1340	3677	74
120	0	0	1832	1344	3679	74
121	0	0	1852	1344	3675	75
122	0	0	1876	1343	3679	75
123	0	0	1898	1344	3679	78
124	0	0	1923	1344	3676	77
125	0	0	1952	1342	3678	78
126	0	0	1967	1344	3676	78
127	0	0	1950	1343	3680	75
0	0	0	1978	1344	3678	75
1	0	0	2048	1346	3678	74
2	0	0	2097	1344	3679	74
3	0	0	2090	1340	3679	74
4	0	0	2036	1339	3679	75
5	0	0	1964	1339	3670	73
6	0	0	1886	1340	3680	75
7	0	0	1829	1340	3679	73
8	0	0	1819	1342	3676	77
9	0	0	1810	1343	3679	74
10	0	0	1809	1342	3677	74
11	0	0	1801	1344	3679	75
12	0	0	1816	1343	3679	72
13	0	0	1843	1344	3680	76
14	0	0	1875	1343	3679	77
15	0	0	1918	1343	3678	79
16	0	0	1968	1342	3680	73
17	0	0	2012	1343	3680	75
18	0	0	2042	1343	3678	75
19	0	0	2043	1343	3680	76
20	0	0	2028	1343	3679	77
21	0	0	2023	1344	3673	77
22	0	0	2016	1342	3678	75
23	0	0	1974	1340	3676	77
24	0	0	1913	1339	3680	74
25	0	0	1871	1340	3680	75
26	0	0	1862	1343	3677	74
27	0	0	1856	1342	3678	74
28	0	0	1863	1342	3679	75
29	0	0	1861	1342	3679	75
30	0	0	1833	1340	3679	75
31	0	0	1793	1338	3678	75
32	0	0	1768	1342	3678	78
33	0	0	1797	1343	3678	73
34	0	0	1869	1342	3680	74
35	0	0	1930	1343	3679	74
36	0	0	1962	1342	3679	78
37	0	0	1966	1342	3681	76
38	0	0	1955	1343	3679	76
39	0	0	1969	1342	3680	77
40	0	0	2002	1342	3678	73
41	0	0	2033	1343	3677	74
42	0	0	2022	1340	3679	74
43	0	0	1985	1339	3678	73
44	0	0	1943	1340	3679	75
45	0	0	1922	1343	3678	74
46	0	0	1922	1342	3679	75
47	0	0	1925	1342	3676	76
48	0	0	1917	1341	3679	71
49	0	0	1895	1340	3680	74
50	0	0	1879	1341	3679	75
51	0	0	1846	1339	3679	75
52	0	0	1836	1342	3679	74
53	0	0	1851	1342	3676	74
54	0	0	1876	1341	3680	75
55	0	0	1912	1341	3678	77
56	0	0	1950	1342	3678	77
57	0	0	2005	1342	3677	75
58	0	0	2046	1342	3678	73
59	0	0	2067	1342	3679	75
60	0	0	2085	1342	3678	78
61	0	0	2092	1342	3680	76
62	0	0	2054	1339	3678	75
63	0	0	1998	1340	3678	75
64	0	0	1975	1340	3676	74
65	0	0	1947	1339	3678	74
66	0	0	1927	1341	3678	74
67	0	0	1901	1339	3678	74
68	0	0	1866	1338	3679	72
69	0	0	1833	1338	3683	75
70	0	0	1807	1339	3679	74
71	0	0	1801	1342	3678	75
72	0	0	1815	1340	3677	78
73	0	0	1834	1340	3676	79
74	0	0	1840	1341	3676	75
75	0	0	1864	1341	3679	75
76	0	0	1920	1341	3678	74
77	0	0	1965	1341	3678	78
78	0	0	1993	1342	3680	76
79	0	0	2012	1341	3676	75
80	0	0	2043	1341	3678	78
81	0	0	2117	1343	3678	77
82	0	0	2177	1341	3678	75
83	0	0	2201	1340	3678	75
84	0	0	2151	1338	3677	75
85	0	0	2043	1337	3673	74
86	0	0	1951	1338	3679	75
87	0	0	1896	1337	3676	77
88	0	0	1829	1337	3679	75
89	0	0	1768	1339	3676	76
90	0	0	1770	1341	3680	73
91	0	0	1798	1342	3676	74
92	0	0	1846	1340	3678	77
93	0	0	1895	1340	3678	78
94	0	0	1927	1337	3674	72
95	0	0	1938	1340	3678	74
96	0	0	1959	1341	3680	75
97	0	0	1983	1340	3676	79
98	0	0	2021	1340	3679	74
99	0	0	2034	1340	3676	77
100	0	0	2023	1341	3678	78
101	0	0	2016	1341	3683	75
102	0	0	2008	1341	3678	75
103	0	0	2023	1341	3679	75
104	0	0	2032	1342	3679	75
105	0	0	1999	1338	3678	74
106	0	0	1960	1338	3680	73
107	0	0	1922	1338	3679	74
108	0	0	1892	1338	3678	72
109	0	0	1879	1339	3679	74
110	0	0	1863	1338	3678	76
111	0	0	1845	1337	3679	76
112	0	0	1841	1340	3677	74
113	0	0	1859	1341	3678	74
114	0	0	1883	1341	3679	77
115	0	0	1920	1340	3678	78
116	0	0	1978	1340	3679	78
117	0	0	2018	1341	3675	77
118	0	0	2017	1338	3680	72
119	0	0	1992	1339	3679	76
120	0	0	2003	1340	3679	75
121	0	0	2043	1340	3679	78
122	0	0	2049	1340	3679	75
123	0	0	2036	1340	3680	74
124	0	0	2026	1340	3676	76
125	0	0	2000	1338	3679	74
126	0	0	1954	1339	3677	74
127	0	0	1912	1337	3677	74
0	0	0	1884	1338	3678	72
1	0	0	1860	1338	3679	75
2	0	0	1831	1337	3678	74
3	0	0	1814	1339	3680	75
4	0	0	1817	1339	3676	79
5	0	0	1845	1339	3688	74
6	0	0	1859	1340	3678	77
7	0	0	1861	1341	3681	74
8	0	0	1873	1340	3679	75
9	0	0	1898	1339	3676	75
10	0	0	1950	1340	3680	80
11	0	0	2016	1340	3680	77
12	0	0	2074	1339	3678	78
13	0	0	2110	1339	3679	78
14	0	0	2097	1341	3679	75
15	0	0	2090	1340	3678	75
16	0	0	2089	1337	3678	74
17	0	0	2013	1335	3678	75
18	0	0	1900	1336	3678	75
19	0	0	1823	1335	3676	75
20	0	0	1791	1337	3679	73
21	0	0	1791	1340	3687	73
22	0	0	1807	1339	3679	73
23	0	0	1809	1339	3678	74
24	0	0	1814	1339	3679	73
25	0	0	1856	1340	3680	72
26	0	0	1905	1339	3679	74
27	0	0	1961	1339	3678	77
28	0	0	2005	1338	3678	78
29	0	0	2044	1338	3678	79
30	0	0	2075	1339	3679	76
31	0	0	2084	1339	3678	76
32	0	0	2096	1340	3678	75
33	0	0	2112	1339	3677	75
34	0	0	2068	1335	3679	73
35	0	0	2026	1337	3677	72
36	0	0	1997	1336	3679	75
37	0	0	1937	1335	3676	74
38	0	0	1900	1336	3678	75
39	0	0	1875	1336	3678	75
40	0	0	1877	1340	3680	72
41	0	0	1902	1338	3680	72
42	0	0	1908	1339	3680	74
43	0	0	1907	1339	3680	78
44	0	0	1907	1339	3679	75
45	0	0	1907	1339	3679	75
46	0	0	1932	1335	3678	78
47	0	0	1969	1339	3679	78
48	0	0	1993	1339	3678	75
49	0	0	2017	1340	3678	75
50	0	0	2022	1339	3679	75
51	0	0	2040	1339	3677	77
52	0	0	2078	1339	3678	78
53	0	0	2123	1338	3679	77
54	0	0	2136	1340	3680	73
55	0	0	2126	1339	3679	76
56	0	0	2115	1339	3679	74
57	0	0	2106	1338	3679	75
58	0	0	2097	1338	3679	75
59	0	0	2080	1337	3680	74
60	0	0	2046	1336	3679	72
61	0	0	2020	1336	3679	73
62	0	0	1988	1335	3678	75
63	0	0	1965	1337	3678	75
64	0	0	1973	1337	3678	77
65	0	0	1984	1338	3678	75
66	0	0	1977	1337	3672	73
67	0	0	1989	1338	3679	76
68	0	0	2014	1339	3679	74
69	0	0	2050	1339	3679	75
70	0	0	2065	1339	3679	75
71	0	0	2068	1338	3679	76
72	0	0	2092	1338	3679	75
73	0	0	2148	1337	3679	74
74	0	0	2178	1339	3679	75
75	0	0	2173	1338	3680	74
76	0	0	2131	1335	3680	74
77	0	0	2042	1334	3678	75
78	0	0	1955	1334	3678	74
79	0	0	1933	1338	3680	72
80	0	0	1941	1339	3679	78
81	0	0	1960	1338	3679	74
82	0	0	1965	1338	3678	75
83	0	0	1967	1338	3678	75
84	0	0	1979	1339	3678	74
85	0	0	1975	1336	3677	73
86	0	0	1949	1335	3680	73
87	0	0	1949	1338	3680	71
88	0	0	1984	1338	3678	74
89	0	0	2052	1339	3680	75
90	0	0	2115	1338	3680	78
91	0	0	2137	1337	3680	73
92	0	0	2128	1338	3680	75
93	0	0	2109	1336	3679	74
94	0	0	2073	1335	3680	72
95	0	0	2039	1336	3679	76
96	0	0	2044	1337	3680	74
97	0	0	2045	1338	3678	75
98	0	0	2038	1338	3678	75
99	0	0	2008	1335	3679	74
100	0	0	1962	1334	3679	77
101	0	0	1904	1333	3680	73
102	0	0	1840	1334	3679	75
103	0	0	1793	1335	3680	74
104	0	0	1791	1339	3680	75
105	0	0	1816	1337	3680	76
106	0	0	1854	1336	3676	75
107	0	0	1881	1337	3679	74
108	0	0	1925	1337	3680	73
109	0	0	1988	1339	3680	74
110	0	0	2023	1337	3680	75
111	0	0	2045	1338	3680	73
112	0	0	2070	1337	3679	75
113	0	0	2102	1337	3678	74
114	0	0	2123	1338	3678	75
115	0	0	2107	1335	3678	74
116	0	0	2079	1335	3680	74
117	0	0	2051	1334	3679	75
118	0	0	1990	1333	3680	74
119	0	0	1923	1335	3680	75
120	0	0	1863	1333	3679	75
121	0	0	1823	1335	3680	74
122	0	0	1808	1333	3679	75
123	0	0	1780	1333	3679	73
124	0	0	1757	1335	3680	72
125	0	0	1764	1338	3681	75
126	0	0	1793	1336	3680	73
127	0	0	1854	1336	3678	75
0	0	0	1910	1337	3679	75
1	0	0	1956	1337	3680	72
2	0	0	1993	1337	3680	73
3	0	0	2028	1337	3680	73
4	0	0	2073	1336	3678	75
5	0	0	2114	1337	3678	75
6	0	0	2116	1336	3678	75
7	0	0	2084	1333	3680	74
8	0	0	2031	1333	3680	74
9	0	0	1981	1333	3680	74
10	0	0	1958	1337	3679	77
11	0	0	1933	1333	3680	74
12	0	0	1884	1333	3680	75
13	0	0	1824	1333	3681	73
14	0	0	1775	1332	3679	75
15	0	0	1750	1335	3680	74
16	0	0	1773	1335	3679	74
17	0	0	1817	1335	3679	75
18	0	0	1858	1335	3678	74
19	0	0	1892	1336	3678	74
20	0	0	1927	1337	3678	74
21	0	0	1958	1336	3680	75
22	0	0	1964	1337	3679	75
23	0	0	1957	1335	3679	75
24	0	0	1971	1336	3678	75
25	0	0	1991	1336	3678	74
26	0	0	1985	1334	3679	75
27	0	0	1983	1337	3680	74
28	0	0	2001	1336	3679	75
29	0	0	1988	1333	3680	74
30	0	0	1958	1333	3680	74
31	0	0	1921	1333	3680	73
32	0	0	1916	1336	3680	75
33	0	0	1933	1335	3679	74
34	0	0	1918	1332	3678	75
35	0	0	1891	1333	3677	75
36	0	0	1875	1334	3678	73
37	0	0	1864	1335	3679	73
38	0	0	1867	1335	3679	74
39	0	0	1895	1335	3677	75
40	0	0	1937	1336	3678	75
41	0	0	1958	1335	3678	76
42	0	0	1970	1335	3680	73
43	0	0	1993	1335	3680	73
44	0	0	2040	1335	3679	74
45	0	0	2117	1336	3678	76
46	0	0	2167	1336	3680	74
47	0	0	2170	1334	3680	74
48	0	0	2133	1332	3680	74
49	0	0	2084	1333	3679	75
50	0	0	2076	1335	3680	76
51	0	0	2084	1333	3679	74
52	0	0	2102	1335	3678	71
53	0	0	2135	1334	3680	74
54	0	0	2195	1335	3678	75
55	0	0	2254	1336	3678	75
56	0	0	2298	1334	3678	74
57	0	0	2322	1335	3678	72
58	0	0	2355	1334	3679	74
59	0	0	2405	1334	3678	75
60	0	0	2470	1335	3679	74
61	0	0	2519	1331	3679	75
62	0	0	2553	1335	3680	74
63	0	0	2593	1335	3682	74
64	0	0	2645	1337	3680	74
65	0	0	2688	1334	3676	75
66	0	0	2670	1332	3678	77
67	0	0	2609	1331	3679	76
68	0	0	2555	1331	3679	74
69	0	0	2494	1331	3677	74
70	0	0	2411	1330	3676	75
71	0	0	2296	1329	3678	75
72	0	0	2184	1329	3679	72
73	0	0	2088	1330	3679	74
74	0	0	1980	1329	3678	75
75	0	0	1851	1330	3678	75
76	0	0	1762	1330	3680	74
77	0	0	1700	1330	3680	75
78	0	0	1660	1331	3680	74
79	0	0	1627	1331	3679	75
80	0	0	1621	1334	3680	75
81	0	0	1618	1333	3681	78
82	0	0	1603	1331	3680	74
83	0	0	1583	1332	3679	74
84	0	0	1590	1333	3678	74
85	0	0	1654	1334	3678	74
86	0	0	1708	1331	3679	74
87	0	0	1720	1333	3679	72
88	0	0	1723	1334	3678	74
89	0	0	1726	1335	3679	74
90	0	0	1708	1331	3681	74
91	0	0	1677	1329	3679	74
92	0	0	1663	1333	3679	74
93	0	0	1671	1333	3679	74
94	0	0	1673	1333	3679	75
95	0	0	1672	1333	3679	75
96	0	0	1720	1332	3679	75
97	0	0	1792	1335	3680	70
98	0	0	1823	1334	3679	74
99	0	0	1799	1330	3679	72
100	0	0	1782	1334	3679	75
101	0	0	1809	1335	3680	72
102	0	0	1855	1333	3679	74
103	0	0	1907	1334	3679	76
104	0	0	1938	1334	3678	75
105	0	0	1965	1333	3678	75
106	0	0	1986	1333	3678	75
107	0	0	1953	1331	3678	72
108	0	0	1923	1330	3678	74
109	0	0	1899	1331	3678	76
110	0	0	1875	1331	3679	75
111	0	0	1866	1332	3678	75
112	0	0	1867	1335	3680	72
113	0	0	1879	1333	3679	73
114	0	0	1879	1333	3679	75
115	0	0	1863	1331	3680	72
116	0	0	1851	1332	3679	76
117	0	0	1860	1333	3680	74
118	0	0	1890	1333	3679	74
119	0	0	1922	1331	3678	74
120	0	0	1948	1333	3679	73
121	0	0	1955	1333	3679	73
122	0	0	1950	1334	3679	75
123	0	0	1948	1333	3679	75
124	0	0	1965	1333	3678	75
125	0	0	1996	1333	3680	72
126	0	0	2035	1333	3680	73
127	0	0	2060	1332	3680	75
0	0	0	2062	1331	3679	74
1	0	0	2010	1329	3679	75
2	0	0	1956	1329	3679	75
3	0	0	1913	1327	3679	74
4	0	0	1890	1330	3680	76
5	0	0	1879	1333	3679	73
6	0	0	1875	1331	3678	74
7	0	0	1860	1331	3678	75
8	0	0	1870	1331	3673	72
9	0	0	1913	1332	3678	76
10	0	0	1948	1332	3678	74
11	0	0	1985	1333	3679	74
12	0	0	2053	1333	3679	75
13	0	0	2116	1331	3678	75
14	0	0	2153	1333	3680	72
15	0	0	2138	1331	3677	79
16	0	0	2127	1333	3678	75
17	0	0	2115	1331	3681	72
18	0	0	2081	1329	3677	76
19	0	0	2059	1332	3679	76
20	0	0	2051	1331	3679	75
21	0	0	2022	1329	3679	75
22	0	0	1987	1327	3679	74
23	0	0	1943	1329	3678	73
24	0	0	1907	1329	3679	76
25	0	0	1882	1329	3678	76
26	0	0	1867	1330	3679	96
27	0	0	1868	1332	3676	513
28	0	0	1894	1329	3678	1293
29	0	0	1925	1332	3680	2055
30	0	0	1931	1331	3680	2623
31	0	0	1936	1327	3678	3001
32	0	0	1972	1332	3680	3255
33	0	0	2035	1332	3680	3427
34	0	0	2105	1332	3680	3543
35	0	0	2149	1331	3679	3627
36	0	0	2179	1331	3679	3688
37	0	0	2210	1331	3680	3736
38	0	0	2212	1332	3680	3771
39	0	0	2185	1329	3679	3799
40	0	0	2145	1328	3678	3823
41	0	0	2092	1327	3680	3840
42	0	0	2018	1327	3680	3855
43	0	0	1947	1329	3680	3869
44	0	0	1911	1328	3678	3880
45	0	0	1895	1331	3680	3890
46	0	0	1880	1328	3678	3896
47	0	0	1855	1328	3677	3905
48	0	0	1857	1329	3676	3909
49	0	0	1867	1330	3679	3913
50	0	0	1871	1330	3679	3921
51	0	0	1907	1329	3679	3925
52	0	0	1961	1330	3679	3929
53	0	0	1997	1329	3680	3932
54	0	0	2026	1330	3679	3932
55	0	0	2038	1330	3678	3937
56	0	0	2064	1331	3678	3939
57	0	0	2119	1331	3678	3944
58	0	0	2160	1329	3678	3948
59	0	0	2173	1330	3679	3950
60	0	0	2143	1328	3678	3949
61	0	0	2084	1328	3679	3954
62	0	0	2032	1329	3680	3954
63	0	0	1984	1327	3677	3956
64	0	0	1960	1330	3679	3958
65	0	0	1963	1330	3678	3961
66	0	0	1980	1330	3679	3960
67	0	0	1982	1330	3680	3961
68	0	0	1965	1330	3680	3961
69	0	0	1958	1331	3680	3964
70	0	0	1964	1330	3679	3962
71	0	0	2009	1330	3679	3961
72	0	0	2069	1330	3679	3964
73	0	0	2112	1331	3680	3967
74	0	0	2134	1330	3679	3969
75	0	0	2151	1330	3679	3969
76	0	0	2176	1329	3678	3970
77	0	0	2220	1331	3678	3970
78	0	0	2240	1330	3679	3972
79	0	0	2232	1328	3679	3972
80	0	0	2222	1329	3679	3974
81	0	0	2187	1327	3678	3974
82	0	0	2137	1327	3679	3974
83	0	0	2091	1326	3677	3976
84	0	0	2057	1328	3679	3974
85	0	0	2039	1330	3679	3974
86	0	0	2045	1329	3679	3975
87	0	0	2062	1328	3678	3976
88	0	0	2052	1330	3679	3973
89	0	0	2051	1330	3679	3976
90	0	0	2049	1329	3678	3976
91	0	0	2060	1331	3680	3979
92	0	0	2083	1330	3679	3978
93	0	0	2110	1328	3679	3980
94	0	0	2132	1330	3680	3976
95	0	0	2141	1328	3677	3975
96	0	0	2133	1327	3678	3977
97	0	0	2129	1330	3680	3979
98	0	0	2105	1328	3679	3979
99	0	0	2070	1328	3679	3982
100	0	0	2064	1330	3680	3980
101	0	0	2068	1330	3679	3981
102	0	0	2083	1329	3679	3984
103	0	0	2109	1331	3680	3981
104	0	0	2110	1328	3680	3980
105	0	0	2090	1329	3680	3982
106	0	0	2077	1329	3678	3983
107	0	0	2070	1329	3677	3984
108	0	0	2091	1330	3679	3984
109	0	0	2120	1330	3679	3985
110	0	0	2140	1330	3679	3985
111	0	0	2148	1329	3678	3982
112	0	0	2157	1331	3679	3984
113	0	0	2184	1328	3679	3982
114	0	0	2223	1330	3679	3982
115	0	0	2251	1329	3679	3984
116	0	0	2265	1331	3679	3985
117	0	0	2288	1331	3679	3985
118	0	0	2291	1331	3680	3983
119	0	0	2266	1327	3680	3986
120	0	0	2227	1326	3679	3984
121	0	0	2158	1326	3679	3985
122	0	0	2106	1328	3679	3987
123	0	0	2101	1330	3679	3987
124	0	0	2118	1330	3679	3989
125	0	0	2120	1329	3678	3987
126	0	0	2127	1329	3679	3988
127	0	0	2136	1328	3678	3987
0	0	0	2147	1328	3678	3987
1	0	0	2157	1329	3679	3986
2	0	0	2168	1329	3679	3983
3	0	0	2194	1329	3677	3986
4	0	0	2224	1328	3678	3988
5	0	0	2267	1328	3679	3985
6	0	0	2291	1329	3680	3990
7	0	0	2289	1329	3679	3987
8	0	0	2294	1329	3680	3986
9	0	0	2310	1330	3680	3987
10	0	0	2293	1326	3679	3989
11	0	0	2258	1326	3679	3991
12	0	0	2234	1326	3679	3990
13	0	0	2196	1328	3678	3989
14	0	0	2149	1325	3679	3991
15	0	0	2122	1325	3679	3990
16	0	0	2116	1326	3679	3989
17	0	0	2127	1328	3678	3988
18	0	0	2160	1329	3678	3988
19	0	0	2173	1327	3678	3992
20	0	0	2195	1327	3679	3988
21	0	0	2219	1328	3680	3991
22	0	0	2236	1328	3679	3991
23	0	0	2259	1329	3680	3987
24	0	0	2274	1329	3680	3990
25	0	0	2292	1327	3680	3991
26	0	0	2310	1328	3679	3991
27	0	0	2331	1329	3681	3989
28	0	0	2336	1329	3678	3988
29	0	0	2349	1329	3678	3988
30	0	0	2341	1330	3678	3990
31	0	0	2310	1325	3679	3990
32	0	0	2276	1325	3678	3991
33	0	0	2236	1326	3678	3991
34	0	0	2192	1325	3680	3991
35	0	0	2162	1323	3679	3992
36	0	0	2153	1327	3679	3991
37	0	0	2145	1328	3678	3991
38	0	0	2118	1326	3678	3991
39	0	0	2082	1327	3680	3993
40	0	0	2083	1327	3680	3990
41	0	0	2121	1327	3680	3992
42	0	0	2164	1327	3679	3991
43	0	0	2210	1327	3680	3992
44	0	0	2242	1328	3680	3988
45	0	0	2260	1323	3680	3991
46	0	0	2257	1327	3678	3990
47	0	0	2258	1328	3678	3991
48	0	0	2282	1328	3677	3991
49	0	0	2328	1329	3680	3993
50	0	0	2346	1325	3678	3993
51	0	0	2347	1328	3678	3992
52	0	0	2352	1328	3678	3991
53	0	0	2321	1325	3678	3992
54	0	0	2265	1325	3680	3993
55	0	0	2213	1321	3678	3994
56	0	0	2166	1324	3680	3993
57	0	0	2118	1324	3679	3994
58	0	0	2080	1324	3680	3994
59	0	0	2046	1325	3680	3992
60	0	0	2036	1327	3679	3993
61	0	0	2044	1328	3679	3992
62	0	0	2068	1327	3678	3991
63	0	0	2094	1326	3679	3992
64	0	0	2114	1328	3678	3991
65	0	0	2118	1328	3678	3997
66	0	0	2129	1328	3679	3994
67	0	0	2142	1327	3677	3994
68	0	0	2150	1328	3679	3992
69	0	0	2160	1326	3679	3991
70	0	0	2129	1327	3678	3993
71	0	0	2094	1324	3680	3995
72	0	0	2074	1325	3678	3993
73	0	0	2050	1325	3679	3994
74	0	0	2018	1324	3680	3995
75	0	0	1981	1324	3680	3995
76	0	0	1933	1323	3680	3996
77	0	0	1894	1324	3678	3993
78	0	0	1873	1324	3675	3994
79	0	0	1871	1327	3680	3995
80	0	0	1882	1327	3678	3992
81	0	0	1873	1326	3679	3993
82	0	0	1872	1326	3678	3993
83	0	0	1916	1328	3678	3994
84	0	0	1971	1327	3678	3996
85	0	0	2024	1326	3678	3993
86	0	0	2071	1327	3679	3993
87	0	0	2070	1325	3678	3991
88	0	0	2048	1327	3679	3992
89	0	0	2050	1327	3680	3996
90	0	0	2020	1324	3680	3996
91	0	0	1973	1324	3679	3996
92	0	0	1932	1324	3680	3996
93	0	0	1871	1323	3679	3994
94	0	0	1824	1324	3679	3994
95	0	0	1783	1323	3678	3994
96	0	0	1729	1322	3679	3995
97	0	0	1707	1325	3679	3995
98	0	0	1721	1326	3678	3995
99	0	0	1751	1325	3678	3995
100	0	0	1769	1326	3678	3996
101	0	0	1781	1326	3678	3994
102	0	0	1805	1327	3680	3988
103	0	0	1843	1326	3678	3996
104	0	0	1886	1324	3678	3993
105	0	0	1906	1327	3679	3993
106	0	0	1929	1327	3680	3997
107	0	0	1961	1326	3680	3993
108	0	0	1983	1327	3681	3997
109	0	0	1987	1327	3680	3992
110	0	0	1970	1325	3679	3995
111	0	0	1960	1325	3679	3996
112	0	0	1914	1322	3678	3995
113	0	0	1850	1322	3679	3995
114	0	0	1810	1324	3677	3998
115	0	0	1787	1323	3678	3997
116	0	0	1758	1323	3679	3996
117	0	0	1718	1322	3678	3994
118	0	0	1689	1323	3678	3995
119	0	0	1691	1324	3677	3995
120	0	0	1739	1325	3678	3994
121	0	0	1782	1326	3680	3994
122	0	0	1795	1326	3680	3994
123	0	0	1790	1324	3679	3996
124	0	0	1785	1326	3680	3995
125	0	0	1782	1326	3680	3996
126	0	0	1787	1326	3680	3995
127	0	0	1816	1326	3678	4000
0	0	0	1878	1327	3677	3993
1	0	0	1943	1327	3677	3997
2	0	0	1982	1324	3678	3996
3	0	0	1988	1327	3678	3996
4	0	0	1982	1326	3677	3995
5	0	0	1972	1326	3678	3996
6	0	0	1952	1323	3680	3995
7	0	0	1916	1323	3680	3997
8	0	0	1879	1322	3679	3996
9	0	0	1856	1323	3680	3996
10	0	0	1844	1323	3678	3996
11	0	0	1826	1323	3680	3997
12	0	0	1812	1323	3680	3994
13	0	0	1813	1327	3680	3995
14	0	0	1850	1325	3680	3995
15	0	0	1895	1324	3679	3996
16	0	0	1911	1325	3679	3998
17	0	0	1904	1326	3678	4000
18	0	0	1904	1325	3678	3995
19	0	0	1922	1326	3678	3996
20	0	0	1951	1325	3678	3994
21	0	0	1994	1323	3677	3994
22	0	0	1987	1323	3677	3997
23	0	0	1926	1322	3679	3998
24	0	0	1853	1322	3678	3996
25	0	0	1804	1322	3678	3996
26	0	0	1776	1323	3678	3996
27	0	0	1772	1325	3679	3997
28	0	0	1777	1326	3680	3998
29	0	0	1775	1324	3677	3998
30	0	0	1781	1325	3680	3998
31	0	0	1786	1321	3679	3997
32	0	0	1803	1325	3678	3998
33	0	0	1812	1324	3679	3998
34	0	0	1786	1322	3676	4000
35	0	0	1791	1324	3678	3995
36	0	0	1833	1324	3678	3993
37	0	0	1901	1322	3678	3994
38	0	0	1942	1326	3677	3996
39	0	0	1946	1325	3677	4008
40	0	0	1943	1324	3678	3997
41	0	0	1960	1324	3680	3997
42	0	0	1959	1324	3678	3996
43	0	0	1933	1322	3680	3998
44	0	0	1916	1324	3680	3999
45	0	0	1907	1324	3680	3997
46	0	0	1898	1323	3681	3996
47	0	0	1863	1323	3680	3998
48	0	0	1814	1322	3680	3998
49	0	0	1782	1322	3678	3999
50	0	0	1764	1321	3678	4000
51	0	0	1744	1322	3678	3995
52	0	0	1741	1322	3678	3997
53	0	0	1756	1323	3679	3996
54	0	0	1782	1323	3678	3996
55	0	0	1808	1324	3678	3994
56	0	0	1833	1322	3680	3998
57	0	0	1870	1324	3678	3996
58	0	0	1915	1324	3679	3997
59	0	0	1946	1325	3680	3996
60	0	0	1966	1323	3678	3995
61	0	0	1963	1321	3679	3994
62	0	0	1911	1321	3680	3998
63	0	0	1876	1321	3678	3998
64	0	0	1859	1322	3679	3999
65	0	0	1854	1325	3679	3998
66	0	0	1865	1322	3680	3997
67	0	0	1847	1320	3677	3998
68	0	0	1792	1320	3679	3998
69	0	0	1730	1319	3677	3998
70	0	0	1689	1321	3677	3998
71	0	0	1686	1322	3678	3998
72	0	0	1739	1322	3678	3995
73	0	0	1811	1322	3679	3998
74	0	0	1858	1323	3677	3999
75	0	0	1876	1324	3680	3999
76	0	0	1887	1324	3678	3996
77	0	0	1907	1325	3677	3996
78	0	0	1916	1325	3680	3996
79	0	0	1885	1320	3679	4000
80	0	0	1856	1322	3679	3998
81	0	0	1862	1325	3679	3998
82	0	0	1887	1324	3678	3999
83	0	0	1905	1323	3679	3998
84	0	0	1914	1323	3678	3999
85	0	0	1888	1322	3678	3998
86	0	0	1901	1323	3678	3998
87	0	0	1952	1325	3677	3997
88	0	0	1980	1323	3678	3999
89	0	0	1967	1321	3678	3999
90	0	0	1919	1320	3679	3999
91	0	0	1829	1319	3680	3998
92	0	0	1733	1319	3677	3998
93	0	0	1679	1320	3679	3996
94	0	0	1660	1321	3682	3999
95	0	0	1676	1323	3679	3996
96	0	0	1722	1322	3679	3993
97	0	0	1777	1325	3679	3998
98	0	0	1805	1322	3680	3999
99	0	0	1808	1323	3679	3999
100	0	0	1816	1323	3678	3996
101	0	0	1849	1322	3679	3996
102	0	0	1875	1324	3677	3997
103	0	0	1898	1322	3678	3998
104	0	0	1900	1323	3678	3999
105	0	0	1842	1319	3678	3998
106	0	0	1781	1320	3680	3998
107	0	0	1763	1323	3678	3998
108	0	0	1756	1322	3679	3999
109	0	0	1756	1323	3678	3999
110	0	0	1763	1322	3677	4002
111	0	0	1771	1321	3679	3998
112	0	0	1786	1324	3678	3995
113	0	0	1786	1322	3681	3997
114	0	0	1799	1321	3679	3998
115	0	0	1867	1322	3679	3999
116	0	0	1941	1320	3680	3998
117	0	0	1989	1323	3678	3997
118	0	0	2007	1320	3679	3996
119	0	0	2015	1324	3676	3999
120	0	0	2018	1323	3678	3996
121	0	0	2015	1322	3678	3998
122	0	0	1986	1321	3677	3999
123	0	0	1930	1317	3679	3999
124	0	0	1876	1319	3679	3998
125	0	0	1851	1320	3678	4002
126	0	0	1850	1323	3679	3999
127	0	0	1843	1321	3680	3999
0	0	0	1805	1321	3679	3998
1	0	0	1755	1319	3680	3999
2	0	0	1731	1320	3679	3998
3	0	0	1745	1319	3679	4001
4	0	0	1814	1322	3680	3997
5	0	0	1858	1321	3678	3996
6	0	0	1848	1320	3680	4000
7	0	0	1822	1320	3678	3998
8	0	0	1820	1322	3678	3999
9	0	0	1850	1322	3679	3997
10	0	0	1902	1323	3679	3997
11	0	0	1948	1322	3678	3996
12	0	0	1999	1322	3677	3996
13	0	0	2070	1319	3678	4000
14	0	0	2100	1322	3679	3997
15	0	0	2078	1319	3679	4000
16	0	0	2016	1318	3678	3999
17	0	0	1929	1318	3679	3998
18	0	0	1884	1320	3679	3998
19	0	0	1862	1319	3678	3999
20	0	0	1815	1317	3680	4001
21	0	0	1754	1318	3678	3999
22	0	0	1719	1319	3680	4000
23	0	0	1686	1319	3678	4000
24	0	0	1670	1320	3678	3997
25	0	0	1694	1322	3678	4000
26	0	0	1740	1321	3676	3996
27	0	0	1793	1321	3678	3996
28	0	0	1847	1322	3678	3997
29	0	0	1906	1323	3678	3997
30	0	0	1943	1325	3678	3999
31	0	0	1965	1322	3677	4006
32	0	0	1996	1321	3678	3999
33	0	0	2024	1323	3678	3996
34	0	0	2015	1320	3679	4000
35	0	0	1986	1321	3679	4000
36	0	0	1965	1319	3681	4001
37	0	0	1925	1317	3679	3999
38	0	0	1872	1317	3679	4001
39	0	0	1830	1319	3680	4000
40	0	0	1786	1319	3679	3999
41	0	0	1743	1317	3678	3998
42	0	0	1730	1320	3677	3998
43	0	0	1747	1318	3678	4001
44	0	0	1775	1321	3680	3995
45	0	0	1801	1323	3678	3997
46	0	0	1824	1321	3678	3996
47	0	0	1843	1320	3678	3999
48	0	0	1829	1319	3678	3999
49	0	0	1822	1321	3680	3999
50	0	0	1833	1321	3680	3998
51	0	0	1841	1321	3679	3996
52	0	0	1866	1320	3680	3996
53	0	0	1909	1321	3679	3998
54	0	0	1924	1322	3680	4000
55	0	0	1905	1319	3679	4000
56	0	0	1877	1317	3678	3999
57	0	0	1829	1317	3678	4000
58	0	0	1798	1320	3678	4000
59	0	0	1803	1322	3678	4000
60	0	0	1812	1323	3678	4000
61	0	0	1795	1318	3678	3999
62	0	0	1771	1317	3678	3999
63	0	0	1758	1320	3678	4000
64	0	0	1771	1320	3679	4000
65	0	0	1802	1321	3679	4000
66	0	0	1831	1319	3678	3999
67	0	0	1862	1319	3679	3997
68	0	0	1872	1323	3679	3997
69	0	0	1879	1321	3681	3995
