# bioPlux Text File Format
# Version: 1
# StartDateTime: 2011-07-19 17:17:53
# SamplingFrequency: 1000
# SampledChannels: 1 2 3 4 5
# SamplingResolution: 12
# AcquiringDevice: 00:07:80:42:0F:95
# EndOfHeader
0	0	0	2194	1201	183	821	3807
1	0	0	2412	1201	184	821	3807
2	0	0	2558	1200	183	822	3807
3	0	0	2641	1200	183	822	3807
4	0	0	2697	1200	184	822	3808
5	0	0	2784	1200	183	822	3807
6	0	0	2742	1195	182	822	3807
7	0	0	2567	1195	183	822	3807
8	0	0	2360	1195	184	822	3807
9	0	0	2155	1195	183	822	3808
10	0	0	1959	1194	183	822	3807
11	0	0	1774	1195	183	822	3807
12	0	0	1621	1195	183	822	3807
13	0	0	1520	1196	184	822	3808
14	0	0	1444	1195	184	822	3808
15	0	0	1276	1196	183	822	3807
16	0	0	1256	1201	184	822	3806
17	0	0	1428	1200	184	821	3807
18	0	0	1648	1200	184	821	3807
19	0	0	1918	1201	183	821	3808
20	0	0	2206	1200	184	822	3807
21	0	0	2421	1200	183	822	3807
22	0	0	2564	1200	182	822	3807
23	0	0	2645	1200	184	822	3808
24	0	0	2703	1200	183	822	3807
25	0	0	2788	1200	184	822	3807
26	0	0	2745	1195	183	822	3808
27	0	0	2573	1195	183	822	3807
28	0	0	2365	1194	183	822	3807
29	0	0	2160	1195	183	822	3808
30	0	0	1966	1194	184	822	3807
31	0	0	1781	1194	183	822	3807
32	0	0	1626	1195	184	822	3808
33	0	0	1519	1196	184	822	3808
34	0	0	1437	1195	183	822	3807
35	0	0	1271	1195	183	821	3807
36	0	0	1250	1201	184	822	3807
37	0	0	1415	1200	183	822	3807
38	0	0	1637	1200	184	822	3807
39	0	0	1912	1200	183	822	3808
40	0	0	2201	1200	184	822	3807
41	0	0	2417	1200	184	822	3808
42	0	0	2564	1201	183	822	3808
43	0	0	2648	1201	184	822	3808
44	0	0	2703	1200	183	822	3807
45	0	0	2788	1200	183	822	3808
46	0	0	2750	1195	184	823	3806
47	0	0	2576	1195	183	822	3807
48	0	0	2371	1195	183	821	3807
49	0	0	2160	1195	183	822	3808
50	0	0	1966	1195	183	822	3807
51	0	0	1781	1195	182	822	3808
52	0	0	1627	1195	183	822	3808
53	0	0	1525	1196	183	822	3808
54	0	0	1443	1195	183	822	3807
55	0	0	1276	1195	184	822	3806
56	0	0	1250	1201	184	822	3807
57	0	0	1415	1201	184	822	3807
58	0	0	1634	1200	183	821	3807
59	0	0	1905	1200	184	822	3808
60	0	0	2197	1200	183	821	3807
61	0	0	2417	1200	184	821	3807
62	0	0	2566	1200	184	821	3807
63	0	0	2653	1200	184	822	3808
64	0	0	2710	1200	182	822	3808
65	0	0	2794	1199	183	822	3806
66	0	0	2759	1195	182	822	3808
67	0	0	2580	1195	183	822	3807
68	0	0	2367	1195	183	821	3807
69	0	0	2161	1195	184	822	3808
70	0	0	1966	1195	183	822	3808
71	0	0	1785	1193	184	822	3807
72	0	0	1630	1195	183	822	3807
73	0	0	1521	1196	184	822	3807
74	0	0	1438	1195	183	822	3808
75	0	0	1272	1195	184	822	3807
76	0	0	1247	1200	183	822	3808
77	0	0	1413	1200	184	823	3807
78	0	0	1639	1201	183	820	3807
79	0	0	1910	1200	183	822	3808
80	0	0	2194	1200	184	822	3807
81	0	0	2413	1200	184	822	3807
82	0	0	2558	1200	183	822	3808
83	0	0	2640	1201	184	822	3808
84	0	0	2695	1200	185	822	3807
85	0	0	2786	1200	183	821	3806
86	0	0	2750	1195	183	822	3808
87	0	0	2579	1195	183	823	3807
88	0	0	2372	1195	183	822	3807
89	0	0	2163	1195	184	822	3808
90	0	0	1970	1195	183	822	3808
91	0	0	1789	1195	184	822	3807
92	0	0	1631	1195	183	822	3807
93	0	0	1526	1196	182	822	3807
94	0	0	1446	1195	184	822	3808
95	0	0	1276	1195	184	822	3807
96	0	0	1251	1200	183	822	3807
97	0	0	1417	1200	184	822	3807
98	0	0	1643	1201	183	822	3807
99	0	0	1923	1201	184	822	3808
100	0	0	2211	1200	183	822	3807
101	0	0	2428	1199	183	822	3808
102	0	0	2569	1200	184	822	3808
103	0	0	2652	1200	183	822	3808
104	0	0	2705	1200	185	822	3807
105	0	0	2787	1200	183	822	3807
106	0	0	2750	1195	183	822	3807
107	0	0	2580	1195	183	821	3807
108	0	0	2376	1195	184	822	3807
109	0	0	2170	1194	183	821	3808
110	0	0	1976	1194	183	822	3807
111	0	0	1790	1195	184	822	3807
112	0	0	1633	1195	184	822	3807
113	0	0	1523	1196	185	822	3807
114	0	0	1442	1195	184	822	3808
115	0	0	1277	1195	184	822	3808
116	0	0	1250	1201	183	822	3807
117	0	0	1416	1201	184	822	3807
118	0	0	1637	1201	183	822	3808
119	0	0	1903	1200	183	821	3808
120	0	0	2192	1200	183	822	3808
121	0	0	2409	1199	183	822	3807
122	0	0	2553	1200	184	822	3807
123	0	0	2639	1200	184	822	3808
124	0	0	2696	1200	182	822	3808
125	0	0	2787	1199	183	821	3806
126	0	0	2753	1195	183	822	3807
127	0	0	2580	1194	185	822	3807
0	0	0	2371	1194	183	822	3807
1	0	0	2162	1195	184	822	3808
2	0	0	1969	1194	183	822	3807
3	0	0	1782	1194	183	822	3807
4	0	0	1624	1195	181	822	3808
5	0	0	1520	1196	183	822	3808
6	0	0	1439	1194	183	822	3808
7	0	0	1275	1195	184	822	3808
8	0	0	1250	1200	184	821	3806
9	0	0	1414	1200	183	821	3808
10	0	0	1636	1200	184	822	3807
11	0	0	1908	1200	185	822	3808
12	0	0	2194	1200	184	822	3807
13	0	0	2411	1199	184	822	3808
14	0	0	2557	1200	184	821	3807
15	0	0	2640	1201	184	822	3808
16	0	0	2699	1200	184	822	3807
17	0	0	2787	1199	184	822	3807
18	0	0	2752	1195	183	822	3806
19	0	0	2579	1194	183	822	3807
20	0	0	2371	1194	184	822	3807
21	0	0	2165	1195	183	822	3808
22	0	0	1968	1195	184	822	3807
23	0	0	1782	1194	182	822	3808
24	0	0	1624	1195	184	822	3808
25	0	0	1514	1196	184	822	3808
26	0	0	1437	1195	184	822	3807
27	0	0	1273	1195	184	822	3807
28	0	0	1241	1200	182	822	3808
29	0	0	1409	1201	184	823	3807
30	0	0	1627	1200	184	822	3807
31	0	0	1903	1200	183	822	3808
32	0	0	2192	1200	184	822	3807
33	0	0	2411	1200	184	822	3808
34	0	0	2562	1200	183	824	3808
35	0	0	2649	1200	184	822	3808
36	0	0	2704	1200	184	822	3808
37	0	0	2790	1199	183	822	3808
38	0	0	2755	1195	184	822	3807
39	0	0	2583	1194	184	822	3807
40	0	0	2376	1194	184	822	3807
41	0	0	2171	1194	183	822	3808
42	0	0	1973	1194	183	822	3807
43	0	0	1784	1194	184	821	3807
44	0	0	1624	1194	184	821	3807
45	0	0	1519	1195	184	822	3806
46	0	0	1443	1194	183	822	3807
47	0	0	1279	1195	184	822	3807
48	0	0	1242	1200	183	822	3807
49	0	0	1404	1200	185	822	3806
50	0	0	1626	1200	184	821	3807
51	0	0	1901	1200	183	821	3808
52	0	0	2191	1200	184	822	3807
53	0	0	2408	1200	184	822	3808
54	0	0	2561	1200	183	822	3808
55	0	0	2649	1200	183	821	3808
56	0	0	2705	1199	183	822	3807
57	0	0	2793	1199	183	822	3808
58	0	0	2759	1194	184	822	3807
59	0	0	2587	1194	182	822	3806
60	0	0	2381	1194	184	822	3807
61	0	0	2176	1194	183	822	3808
62	0	0	1980	1194	184	821	3807
63	0	0	1789	1193	184	822	3807
64	0	0	1630	1195	184	822	3807
65	0	0	1522	1195	184	822	3808
66	0	0	1444	1195	183	822	3808
67	0	0	1276	1194	184	822	3806
68	0	0	1243	1200	185	821	3806
69	0	0	1406	1200	183	821	3807
70	0	0	1628	1200	184	822	3808
71	0	0	1900	1200	183	821	3807
72	0	0	2187	1200	183	822	3807
73	0	0	2413	1199	184	821	3807
74	0	0	2563	1199	185	822	3807
75	0	0	2648	1199	184	822	3808
76	0	0	2700	1199	183	822	3807
77	0	0	2787	1199	183	822	3806
78	0	0	2756	1195	183	821	3806
79	0	0	2586	1194	182	821	3807
80	0	0	2384	1194	184	822	3807
81	0	0	2164	1194	183	822	3808
82	0	0	1967	1194	183	822	3808
83	0	0	1782	1195	184	822	3807
84	0	0	1628	1194	184	822	3808
85	0	0	1518	1195	183	822	3808
86	0	0	1443	1194	183	822	3807
87	0	0	1283	1195	184	822	3806
88	0	0	1249	1200	183	822	3808
89	0	0	1412	1200	185	823	3807
90	0	0	1629	1200	184	821	3807
91	0	0	1899	1200	184	821	3808
92	0	0	2190	1199	184	821	3807
93	0	0	2410	1199	183	822	3807
94	0	0	2557	1199	182	822	3808
95	0	0	2644	1199	184	822	3807
96	0	0	2696	1199	183	822	3807
97	0	0	2778	1200	184	822	3808
98	0	0	2750	1194	184	822	3807
99	0	0	2580	1194	183	822	3806
100	0	0	2375	1194	183	822	3807
101	0	0	2166	1194	183	822	3808
102	0	0	1969	1194	183	822	3807
103	0	0	1782	1194	183	822	3807
104	0	0	1627	1194	182	822	3807
105	0	0	1517	1195	184	822	3807
106	0	0	1444	1194	184	822	3808
107	0	0	1279	1194	183	822	3807
108	0	0	1246	1200	185	821	3806
109	0	0	1407	1199	183	821	3807
110	0	0	1629	1200	183	822	3807
111	0	0	1894	1199	183	822	3808
112	0	0	2180	1200	183	822	3807
113	0	0	2402	1199	184	822	3807
114	0	0	2555	1199	184	822	3808
115	0	0	2646	1200	183	822	3808
116	0	0	2703	1199	184	822	3808
117	0	0	2800	1200	183	822	3808
118	0	0	2764	1195	185	822	3807
119	0	0	2591	1194	183	821	3807
120	0	0	2384	1194	184	822	3807
121	0	0	2172	1194	184	822	3808
122	0	0	1974	1194	183	822	3807
123	0	0	1788	1194	183	822	3807
124	0	0	1636	1194	184	822	3808
125	0	0	1528	1195	184	822	3808
126	0	0	1453	1195	183	821	3807
127	0	0	1290	1195	183	822	3807
0	0	0	1248	1200	184	822	3807
1	0	0	1407	1200	183	822	3807
2	0	0	1627	1200	184	821	3807
3	0	0	1897	1200	183	822	3808
4	0	0	2192	1200	183	822	3808
5	0	0	2416	1199	184	821	3807
6	0	0	2563	1199	184	822	3808
7	0	0	2651	1200	182	822	3808
8	0	0	2701	1199	184	822	3808
9	0	0	2785	1200	183	822	3808
10	0	0	2759	1195	183	822	3807
11	0	0	2589	1194	182	822	3807
12	0	0	2385	1194	183	822	3808
13	0	0	2178	1194	183	822	3808
14	0	0	1984	1195	183	822	3807
15	0	0	1795	1194	183	822	3807
16	0	0	1635	1194	184	822	3807
17	0	0	1525	1195	184	823	3808
18	0	0	1451	1195	184	827	3808
19	0	0	1289	1195	183	821	3807
20	0	0	1249	1200	184	822	3808
21	0	0	1403	1200	185	823	3807
22	0	0	1624	1200	184	823	3808
23	0	0	1893	1200	183	821	3808
24	0	0	2188	1200	185	822	3808
25	0	0	2409	1199	183	822	3807
26	0	0	2560	1200	184	822	3808
27	0	0	2648	1200	184	822	3807
28	0	0	2702	1199	184	821	3808
29	0	0	2788	1199	183	822	3807
30	0	0	2757	1194	184	821	3807
31	0	0	2586	1194	184	822	3807
32	0	0	2384	1195	183	823	3807
33	0	0	2178	1194	183	822	3808
34	0	0	1980	1194	183	822	3807
35	0	0	1789	1194	183	821	3808
36	0	0	1633	1195	183	822	3807
37	0	0	1527	1195	184	822	3808
38	0	0	1449	1195	184	822	3808
39	0	0	1280	1195	183	821	3807
40	0	0	1235	1200	184	822	3808
41	0	0	1389	1201	184	822	3807
42	0	0	1613	1201	184	822	3808
43	0	0	1879	1200	183	822	3808
44	0	0	2171	1200	184	822	3807
45	0	0	2397	1199	184	822	3808
46	0	0	2551	1200	183	821	3807
47	0	0	2638	1200	183	822	3808
48	0	0	2692	1200	183	822	3808
49	0	0	2780	1200	183	822	3807
50	0	0	2752	1195	184	822	3807
51	0	0	2590	1195	184	822	3807
52	0	0	2391	1194	183	822	3807
53	0	0	2182	1194	183	822	3808
54	0	0	1989	1195	183	822	3808
55	0	0	1799	1195	184	822	3808
56	0	0	1639	1194	183	822	3808
57	0	0	1526	1196	184	822	3808
58	0	0	1450	1195	182	821	3808
59	0	0	1283	1195	184	822	3807
60	0	0	1234	1200	184	822	3807
61	0	0	1394	1200	185	821	3807
62	0	0	1616	1200	183	822	3808
63	0	0	1887	1199	182	822	3808
64	0	0	2180	1200	184	821	3808
65	0	0	2406	1199	183	822	3807
66	0	0	2552	1200	183	821	3807
67	0	0	2639	1200	184	822	3807
68	0	0	2695	1199	183	821	3808
69	0	0	2779	1200	184	822	3806
70	0	0	2757	1195	183	822	3807
71	0	0	2595	1194	183	822	3807
72	0	0	2393	1194	183	822	3807
73	0	0	2189	1194	184	822	3808
74	0	0	1994	1194	183	822	3808
75	0	0	1802	1194	183	822	3808
76	0	0	1641	1195	184	822	3808
77	0	0	1533	1195	183	822	3808
78	0	0	1456	1195	183	822	3808
79	0	0	1292	1195	185	822	3808
80	0	0	1248	1202	184	822	3807
81	0	0	1402	1200	183	822	3808
82	0	0	1622	1200	184	821	3808
83	0	0	1888	1200	182	821	3808
84	0	0	2172	1200	183	822	3808
85	0	0	2396	1200	185	822	3808
86	0	0	2547	1199	184	822	3808
87	0	0	2637	1199	183	821	3808
88	0	0	2688	1199	182	821	3808
89	0	0	2777	1200	184	822	3807
90	0	0	2758	1195	183	822	3807
91	0	0	2594	1194	184	822	3807
92	0	0	2389	1194	184	822	3807
93	0	0	2187	1194	183	822	3808
94	0	0	1993	1194	183	821	3807
95	0	0	1804	1194	184	822	3808
96	0	0	1646	1195	183	822	3808
97	0	0	1538	1195	184	822	3808
98	0	0	1459	1194	184	822	3808
99	0	0	1297	1194	183	822	3807
100	0	0	1255	1200	183	822	3807
101	0	0	1410	1200	185	822	3807
102	0	0	1626	1200	183	822	3807
103	0	0	1887	1200	184	822	3808
104	0	0	2175	1200	185	821	3808
105	0	0	2399	1200	183	821	3808
106	0	0	2547	1199	183	822	3807
107	0	0	2635	1199	185	822	3808
108	0	0	2687	1200	184	822	3808
109	0	0	2767	1199	183	822	3807
110	0	0	2747	1195	183	821	3808
111	0	0	2585	1194	183	822	3808
112	0	0	2384	1194	184	822	3808
113	0	0	2173	1194	184	822	3808
114	0	0	1980	1194	184	822	3808
115	0	0	1798	1194	184	822	3808
116	0	0	1641	1194	183	822	3808
117	0	0	1537	1195	184	823	3807
118	0	0	1467	1195	184	822	3808
119	0	0	1312	1194	183	822	3807
120	0	0	1266	1200	185	821	3807
121	0	0	1412	1200	184	822	3807
122	0	0	1622	1200	184	821	3807
123	0	0	1877	1201	184	822	3808
124	0	0	2160	1200	184	821	3808
125	0	0	2388	1200	184	823	3808
126	0	0	2541	1200	183	822	3807
127	0	0	2630	1199	183	822	3808
0	0	0	2686	1199	184	822	3808
1	0	0	2770	1199	183	822	3807
2	0	0	2751	1195	183	821	3807
3	0	0	2587	1193	183	822	3808
4	0	0	2384	1194	183	822	3807
5	0	0	2180	1194	184	822	3808
6	0	0	1990	1194	183	822	3807
7	0	0	1805	1194	183	822	3807
8	0	0	1645	1194	183	822	3807
9	0	0	1535	1195	183	822	3807
10	0	0	1463	1195	183	821	3808
11	0	0	1308	1195	183	821	3808
12	0	0	1258	1201	182	822	3807
13	0	0	1406	1198	184	822	3807
14	0	0	1619	1200	184	822	3808
15	0	0	1875	1199	184	822	3808
16	0	0	2165	1199	183	821	3808
17	0	0	2387	1199	184	822	3807
18	0	0	2538	1199	183	822	3808
19	0	0	2628	1199	184	822	3808
20	0	0	2684	1200	183	822	3808
21	0	0	2766	1199	183	822	3807
22	0	0	2746	1194	183	822	3807
23	0	0	2586	1193	183	822	3807
24	0	0	2392	1194	182	822	3808
25	0	0	2190	1193	183	822	3808
26	0	0	1999	1194	183	822	3808
27	0	0	1813	1195	184	822	3807
28	0	0	1652	1194	184	821	3807
29	0	0	1540	1195	184	822	3808
30	0	0	1467	1194	183	822	3808
31	0	0	1311	1194	183	822	3807
32	0	0	1261	1199	184	822	3807
33	0	0	1402	1199	184	822	3808
34	0	0	1613	1199	184	822	3807
35	0	0	1870	1199	184	822	3808
36	0	0	2156	1199	184	822	3807
37	0	0	2380	1200	183	822	3808
38	0	0	2531	1199	184	822	3808
39	0	0	2620	1199	183	821	3807
40	0	0	2676	1199	184	822	3808
41	0	0	2756	1199	184	822	3807
42	0	0	2737	1194	183	822	3808
43	0	0	2582	1194	183	822	3808
44	0	0	2388	1193	184	822	3807
45	0	0	2187	1193	183	822	3808
46	0	0	2000	1193	183	822	3808
47	0	0	1816	1192	183	822	3808
48	0	0	1654	1194	184	822	3807
49	0	0	1542	1194	183	822	3807
50	0	0	1466	1194	183	822	3808
51	0	0	1309	1194	185	822	3807
52	0	0	1259	1199	184	822	3807
53	0	0	1403	1200	185	822	3808
54	0	0	1609	1199	184	822	3808
55	0	0	1863	1199	184	822	3808
56	0	0	2154	1199	184	821	3807
57	0	0	2380	1199	183	821	3808
58	0	0	2534	1199	184	822	3807
59	0	0	2623	1199	184	822	3807
60	0	0	2670	1199	184	822	3808
61	0	0	2753	1198	183	822	3807
62	0	0	2737	1194	184	822	3807
63	0	0	2584	1193	184	822	3807
64	0	0	2393	1193	184	822	3808
65	0	0	2192	1193	183	822	3808
66	0	0	1999	1193	184	822	3807
67	0	0	1813	1193	183	822	3808
68	0	0	1654	1193	183	822	3808
69	0	0	1545	1194	183	822	3808
70	0	0	1474	1194	184	822	3808
71	0	0	1317	1194	184	822	3808
72	0	0	1262	1200	183	823	3807
73	0	0	1406	1199	183	822	3807
74	0	0	1617	1199	184	822	3807
75	0	0	1875	1199	184	822	3808
76	0	0	2155	1200	184	821	3807
77	0	0	2382	1198	184	822	3807
78	0	0	2533	1199	183	822	3808
79	0	0	2620	1199	183	822	3808
80	0	0	2670	1198	183	821	3807
81	0	0	2753	1199	183	822	3807
82	0	0	2738	1195	183	821	3807
83	0	0	2585	1193	183	822	3806
84	0	0	2385	1193	184	822	3807
85	0	0	2186	1193	183	822	3808
86	0	0	1995	1193	184	822	3807
87	0	0	1812	1193	184	821	3808
88	0	0	1653	1194	184	822	3808
89	0	0	1547	1194	184	822	3808
90	0	0	1472	1194	184	822	3808
91	0	0	1314	1193	183	822	3807
92	0	0	1259	1199	184	821	3807
93	0	0	1400	1198	184	822	3808
94	0	0	1609	1199	183	822	3807
95	0	0	1868	1199	183	822	3808
96	0	0	2153	1199	184	822	3807
97	0	0	2381	1199	184	822	3808
98	0	0	2533	1198	183	822	3807
99	0	0	2627	1198	184	822	3808
100	0	0	2679	1199	184	822	3808
101	0	0	2758	1198	183	822	3808
102	0	0	2741	1193	184	822	3808
103	0	0	2584	1193	183	821	3807
104	0	0	2384	1192	183	821	3807
105	0	0	2186	1193	184	821	3808
106	0	0	1996	1193	183	822	3808
107	0	0	1815	1194	183	822	3809
108	0	0	1656	1194	184	822	3807
109	0	0	1545	1194	183	822	3808
110	0	0	1473	1194	184	822	3808
111	0	0	1321	1193	184	822	3807
112	0	0	1267	1198	184	821	3808
113	0	0	1407	1198	184	822	3807
114	0	0	1611	1199	183	822	3807
115	0	0	1868	1199	184	822	3808
116	0	0	2158	1198	184	822	3808
117	0	0	2387	1199	183	822	3807
118	0	0	2534	1199	183	822	3807
119	0	0	2624	1199	183	822	3807
120	0	0	2679	1198	184	822	3808
121	0	0	2759	1198	183	822	3807
122	0	0	2741	1193	184	822	3807
123	0	0	2588	1193	184	822	3807
124	0	0	2393	1193	184	822	3808
125	0	0	2187	1193	183	821	3808
126	0	0	1997	1193	184	822	3808
127	0	0	1816	1194	184	821	3808
0	0	0	1654	1194	183	822	3807
1	0	0	1540	1194	184	822	3808
2	0	0	1469	1194	183	822	3808
3	0	0	1318	1193	183	822	3807
4	0	0	1263	1198	184	822	3807
5	0	0	1399	1198	184	821	3807
6	0	0	1606	1198	184	823	3807
7	0	0	1864	1198	183	822	3808
8	0	0	2155	1197	184	822	3807
9	0	0	2378	1198	183	821	3807
10	0	0	2529	1198	183	822	3807
11	0	0	2622	1198	183	823	3807
12	0	0	2674	1197	183	822	3808
13	0	0	2757	1198	183	821	3807
14	0	0	2745	1193	184	822	3807
15	0	0	2591	1192	183	822	3807
16	0	0	2394	1192	184	823	3807
17	0	0	2194	1192	184	822	3808
18	0	0	2002	1192	183	822	3807
19	0	0	1819	1193	183	822	3808
20	0	0	1663	1193	184	822	3808
21	0	0	1546	1193	184	822	3807
22	0	0	1472	1194	184	822	3808
23	0	0	1314	1192	184	822	3807
24	0	0	1258	1198	183	821	3808
25	0	0	1396	1199	184	822	3807
26	0	0	1608	1199	183	822	3808
27	0	0	1861	1198	183	822	3808
28	0	0	2149	1199	184	821	3807
29	0	0	2384	1198	184	822	3807
30	0	0	2536	1198	184	821	3808
31	0	0	2628	1198	184	822	3809
32	0	0	2675	1198	184	822	3808
33	0	0	2751	1197	183	822	3807
34	0	0	2738	1193	184	822	3806
35	0	0	2584	1192	183	822	3807
36	0	0	2381	1192	183	822	3808
37	0	0	2177	1192	184	823	3808
38	0	0	1986	1192	183	822	3807
39	0	0	1806	1192	183	822	3807
40	0	0	1652	1192	183	822	3807
41	0	0	1542	1193	184	822	3807
42	0	0	1474	1193	184	822	3808
43	0	0	1323	1193	183	822	3807
44	0	0	1264	1198	183	821	3808
45	0	0	1403	1199	184	822	3807
46	0	0	1613	1197	184	822	3807
47	0	0	1868	1198	185	822	3808
48	0	0	2154	1198	184	822	3807
49	0	0	2381	1198	184	821	3808
50	0	0	2529	1197	184	822	3808
51	0	0	2618	1197	184	822	3808
52	0	0	2670	1198	183	822	3808
53	0	0	2754	1197	182	822	3807
54	0	0	2747	1192	183	822	3807
55	0	0	2592	1192	184	822	3807
56	0	0	2390	1192	183	822	3807
57	0	0	2191	1192	183	821	3808
58	0	0	2006	1192	184	822	3807
59	0	0	1825	1192	184	822	3807
60	0	0	1667	1192	184	823	3808
61	0	0	1547	1193	184	822	3807
62	0	0	1472	1193	184	822	3807
63	0	0	1319	1193	185	822	3808
64	0	0	1256	1198	183	822	3807
65	0	0	1393	1198	184	822	3807
66	0	0	1607	1199	183	822	3808
67	0	0	1856	1197	184	822	3808
68	0	0	2142	1197	184	822	3807
69	0	0	2374	1198	183	821	3808
70	0	0	2530	1198	183	822	3808
71	0	0	2623	1197	184	822	3808
72	0	0	2674	1197	183	822	3808
73	0	0	2757	1197	184	821	3807
74	0	0	2748	1192	184	822	3807
75	0	0	2601	1192	183	822	3807
76	0	0	2404	1192	184	822	3807
77	0	0	2208	1192	183	822	3808
78	0	0	2020	1192	184	822	3807
79	0	0	1834	1192	183	822	3807
80	0	0	1674	1192	183	823	3807
81	0	0	1559	1193	184	822	3808
82	0	0	1483	1193	183	822	3808
83	0	0	1324	1192	184	822	3806
84	0	0	1257	1198	184	821	3808
85	0	0	1390	1198	184	822	3808
86	0	0	1597	1197	184	822	3807
87	0	0	1856	1197	184	822	3808
88	0	0	2146	1198	183	822	3808
89	0	0	2373	1198	185	821	3807
90	0	0	2525	1197	183	822	3807
91	0	0	2618	1197	183	822	3807
92	0	0	2667	1197	183	821	3808
93	0	0	2752	1197	183	821	3806
94	0	0	2748	1192	184	822	3807
95	0	0	2601	1191	182	823	3807
96	0	0	2400	1191	184	822	3808
97	0	0	2203	1192	184	822	3808
98	0	0	2013	1191	184	822	3807
99	0	0	1828	1191	183	822	3807
100	0	0	1668	1193	184	822	3808
101	0	0	1551	1193	184	822	3809
102	0	0	1474	1192	184	822	3807
103	0	0	1319	1193	185	821	3807
104	0	0	1253	1197	183	822	3806
105	0	0	1382	1197	183	822	3807
106	0	0	1589	1197	184	822	3807
107	0	0	1841	1197	184	821	3808
108	0	0	2133	1197	184	821	3807
109	0	0	2365	1197	184	822	3807
110	0	0	2521	1196	183	822	3807
111	0	0	2617	1197	184	822	3807
112	0	0	2673	1197	183	821	3808
113	0	0	2755	1196	185	822	3806
114	0	0	2747	1192	183	822	3808
115	0	0	2599	1191	184	822	3807
116	0	0	2398	1191	183	822	3808
117	0	0	2209	1192	183	822	3808
118	0	0	2023	1191	183	822	3807
119	0	0	1837	1191	184	822	3807
120	0	0	1671	1193	183	822	3808
121	0	0	1554	1193	184	822	3808
122	0	0	1482	1192	184	822	3807
123	0	0	1324	1192	184	822	3807
124	0	0	1259	1197	183	822	3806
125	0	0	1395	1196	184	822	3807
126	0	0	1601	1196	184	822	3808
127	0	0	1861	1197	183	822	3808
0	0	0	2149	1196	183	822	3807
1	0	0	2373	1197	184	822	3807
2	0	0	2526	1197	184	822	3807
3	0	0	2616	1197	184	822	3807
4	0	0	2665	1196	184	821	3807
5	0	0	2748	1197	184	822	3808
6	0	0	2743	1193	184	821	3806
7	0	0	2595	1191	184	822	3807
8	0	0	2401	1191	183	822	3808
9	0	0	2208	1191	182	821	3808
10	0	0	2014	1191	184	822	3807
11	0	0	1828	1191	183	822	3808
12	0	0	1666	1191	184	822	3808
13	0	0	1546	1192	184	822	3807
14	0	0	1470	1192	184	822	3807
15	0	0	1319	1192	184	822	3806
16	0	0	1254	1196	184	822	3807
17	0	0	1390	1197	184	822	3807
18	0	0	1601	1197	184	822	3807
19	0	0	1849	1196	184	822	3808
20	0	0	2142	1197	183	822	3808
21	0	0	2375	1197	184	822	3807
22	0	0	2528	1197	184	821	3808
23	0	0	2622	1196	183	822	3808
24	0	0	2676	1197	184	822	3808
25	0	0	2756	1196	183	821	3806
26	0	0	2752	1192	183	822	3808
27	0	0	2603	1192	184	821	3807
28	0	0	2402	1191	184	822	3807
29	0	0	2205	1191	184	821	3808
30	0	0	2016	1190	184	822	3807
31	0	0	1827	1191	184	822	3807
32	0	0	1661	1191	183	822	3807
33	0	0	1545	1192	184	822	3807
34	0	0	1472	1191	183	821	3807
35	0	0	1318	1191	183	822	3807
36	0	0	1248	1196	184	822	3806
37	0	0	1384	1197	185	822	3807
38	0	0	1596	1197	184	822	3808
39	0	0	1843	1196	184	821	3808
40	0	0	2135	1197	184	822	3808
41	0	0	2368	1197	184	822	3807
42	0	0	2524	1197	184	822	3808
43	0	0	2619	1197	184	822	3808
44	0	0	2673	1196	183	821	3807
45	0	0	2757	1196	184	822	3806
46	0	0	2751	1191	182	822	3806
47	0	0	2605	1190	183	822	3807
48	0	0	2406	1191	183	822	3807
49	0	0	2213	1190	183	822	3808
50	0	0	2019	1190	184	822	3807
51	0	0	1829	1190	183	822	3807
52	0	0	1661	1191	184	822	3807
53	0	0	1543	1192	183	822	3807
54	0	0	1467	1191	184	822	3807
55	0	0	1311	1192	184	822	3808
56	0	0	1238	1198	183	822	3807
57	0	0	1371	1197	184	822	3807
58	0	0	1582	1197	183	822	3808
59	0	0	1837	1196	183	822	3808
60	0	0	2131	1196	184	822	3807
61	0	0	2367	1196	184	822	3807
62	0	0	2528	1197	183	822	3807
63	0	0	2631	1196	184	822	3807
64	0	0	2685	1195	184	821	3807
65	0	0	2776	1196	184	822	3806
66	0	0	2776	1191	183	822	3808
67	0	0	2621	1191	182	822	3806
68	0	0	2407	1190	183	822	3807
69	0	0	2201	1191	183	822	3808
70	0	0	2003	1190	184	822	3807
71	0	0	1818	1190	184	822	3807
72	0	0	1652	1191	184	821	3807
73	0	0	1532	1191	184	821	3808
74	0	0	1460	1191	184	821	3807
75	0	0	1300	1190	183	822	3807
76	0	0	1230	1196	184	822	3807
77	0	0	1365	1196	183	822	3807
78	0	0	1582	1196	184	822	3807
79	0	0	1842	1196	183	821	3807
80	0	0	2135	1196	184	822	3808
81	0	0	2372	1196	182	822	3807
82	0	0	2537	1196	184	822	3808
83	0	0	2637	1196	183	822	3808
84	0	0	2692	1195	183	822	3807
85	0	0	2782	1195	184	822	3807
86	0	0	2781	1191	183	822	3806
87	0	0	2625	1190	184	822	3806
88	0	0	2413	1190	184	822	3806
89	0	0	2210	1190	183	821	3807
90	0	0	2013	1190	183	822	3807
91	0	0	1822	1190	183	822	3807
92	0	0	1657	1190	182	822	3807
93	0	0	1540	1191	184	822	3807
94	0	0	1464	1191	184	822	3807
95	0	0	1308	1191	183	822	3808
96	0	0	1230	1197	182	823	3807
97	0	0	1368	1196	184	822	3807
98	0	0	1583	1196	184	822	3808
99	0	0	1837	1196	184	821	3808
100	0	0	2131	1196	184	822	3807
101	0	0	2370	1195	183	822	3808
102	0	0	2529	1196	184	822	3808
103	0	0	2625	1195	184	822	3808
104	0	0	2680	1195	183	821	3807
105	0	0	2774	1195	183	821	3806
106	0	0	2777	1192	184	822	3806
107	0	0	2625	1190	183	822	3806
108	0	0	2416	1190	183	822	3807
109	0	0	2213	1190	184	821	3807
110	0	0	2019	1190	183	822	3807
111	0	0	1828	1190	184	822	3807
112	0	0	1656	1191	185	822	3807
113	0	0	1536	1191	184	822	3807
114	0	0	1465	1190	184	821	3807
115	0	0	1307	1191	184	822	3808
116	0	0	1231	1197	181	822	3806
117	0	0	1365	1196	184	822	3807
118	0	0	1583	1195	184	822	3808
119	0	0	1844	1195	184	821	3808
120	0	0	2137	1195	184	822	3808
121	0	0	2375	1195	184	822	3807
122	0	0	2534	1195	183	822	3807
123	0	0	2633	1195	183	822	3807
124	0	0	2689	1195	183	821	3807
125	0	0	2779	1195	184	822	3807
126	0	0	2782	1190	183	822	3806
127	0	0	2626	1190	183	822	3807
0	0	0	2416	1190	183	822	3807
1	0	0	2209	1189	184	822	3808
2	0	0	2006	1189	183	822	3807
3	0	0	1816	1189	183	822	3808
4	0	0	1651	1190	184	822	3808
5	0	0	1534	1191	184	822	3807
6	0	0	1464	1190	183	822	3808
7	0	0	1310	1190	183	822	3806
8	0	0	1231	1196	184	821	3806
9	0	0	1364	1195	183	822	3806
10	0	0	1578	1195	183	822	3806
11	0	0	1833	1195	183	821	3808
12	0	0	2128	1195	183	822	3807
13	0	0	2369	1195	184	821	3807
14	0	0	2530	1195	184	822	3807
15	0	0	2628	1196	184	822	3808
16	0	0	2683	1195	183	821	3807
17	0	0	2774	1194	183	822	3808
18	0	0	2777	1191	185	822	3806
19	0	0	2626	1190	183	822	3807
20	0	0	2415	1190	184	822	3807
21	0	0	2210	1189	183	821	3808
22	0	0	2015	1189	183	822	3807
23	0	0	1823	1189	183	822	3807
24	0	0	1652	1190	183	822	3807
25	0	0	1534	1191	183	822	3807
26	0	0	1462	1190	184	821	3807
27	0	0	1304	1189	184	822	3806
28	0	0	1225	1196	183	822	3807
29	0	0	1360	1195	183	822	3808
30	0	0	1577	1195	185	822	3806
31	0	0	1832	1195	183	821	3808
32	0	0	2127	1195	183	822	3808
33	0	0	2369	1195	183	822	3807
34	0	0	2532	1195	183	822	3807
35	0	0	2632	1195	183	822	3808
36	0	0	2690	1194	184	822	3807
37	0	0	2782	1194	184	822	3806
38	0	0	2784	1190	183	822	3808
39	0	0	2628	1190	184	822	3808
40	0	0	2417	1189	183	822	3808
41	0	0	2212	1189	183	822	3808
42	0	0	2014	1189	183	822	3807
43	0	0	1822	1189	184	821	3807
44	0	0	1658	1189	183	822	3807
45	0	0	1539	1190	184	822	3808
46	0	0	1462	1189	184	822	3807
47	0	0	1303	1189	184	822	3807
48	0	0	1218	1195	183	822	3806
49	0	0	1355	1195	184	822	3806
50	0	0	1574	1195	184	822	3807
51	0	0	1827	1195	183	822	3808
52	0	0	2127	1195	184	822	3807
53	0	0	2365	1194	183	822	3807
54	0	0	2527	1195	183	822	3807
55	0	0	2626	1194	184	822	3808
56	0	0	2687	1194	183	822	3807
57	0	0	2782	1195	183	822	3806
58	0	0	2787	1190	184	822	3806
59	0	0	2637	1189	184	822	3806
60	0	0	2427	1188	184	822	3807
61	0	0	2216	1188	183	822	3807
62	0	0	2015	1189	183	822	3807
63	0	0	1817	1189	184	822	3807
64	0	0	1651	1189	183	822	3807
65	0	0	1534	1190	183	822	3808
66	0	0	1463	1190	183	822	3807
67	0	0	1307	1189	184	822	3808
68	0	0	1221	1195	182	822	3806
69	0	0	1351	1195	184	822	3807
70	0	0	1574	1194	183	822	3808
71	0	0	1830	1194	184	821	3807
72	0	0	2129	1194	184	821	3807
73	0	0	2367	1194	184	821	3807
74	0	0	2532	1195	184	822	3807
75	0	0	2628	1194	183	822	3808
76	0	0	2684	1194	183	821	3807
77	0	0	2772	1194	183	822	3806
78	0	0	2777	1190	185	822	3806
79	0	0	2631	1190	184	822	3806
80	0	0	2421	1188	183	822	3807
81	0	0	2216	1189	183	822	3807
82	0	0	2014	1189	183	822	3808
83	0	0	1822	1189	184	822	3807
84	0	0	1655	1189	183	822	3807
85	0	0	1539	1190	183	822	3808
86	0	0	1469	1190	184	822	3807
87	0	0	1312	1189	183	822	3806
88	0	0	1229	1195	183	822	3806
89	0	0	1357	1195	183	821	3806
90	0	0	1570	1193	184	822	3807
91	0	0	1819	1194	183	822	3808
92	0	0	2115	1193	183	822	3807
93	0	0	2363	1194	184	821	3807
94	0	0	2527	1195	185	822	3807
95	0	0	2630	1195	184	822	3808
96	0	0	2684	1194	184	822	3807
97	0	0	2777	1194	183	822	3806
98	0	0	2787	1189	184	822	3806
99	0	0	2639	1189	183	822	3807
100	0	0	2431	1189	184	822	3807
101	0	0	2230	1189	184	822	3807
102	0	0	2024	1189	184	822	3807
103	0	0	1827	1189	183	822	3807
104	0	0	1657	1189	184	821	3807
105	0	0	1535	1189	184	822	3807
106	0	0	1463	1189	184	822	3807
107	0	0	1308	1189	184	822	3808
108	0	0	1224	1195	183	822	3806
109	0	0	1353	1195	183	822	3807
110	0	0	1568	1195	184	822	3808
111	0	0	1824	1194	184	821	3807
112	0	0	2121	1194	184	822	3807
113	0	0	2363	1193	183	822	3807
114	0	0	2529	1195	183	822	3807
115	0	0	2626	1195	183	822	3807
116	0	0	2683	1194	183	822	3808
117	0	0	2771	1193	183	822	3806
118	0	0	2779	1189	183	821	3806
119	0	0	2633	1189	183	822	3806
120	0	0	2426	1189	183	822	3807
121	0	0	2215	1188	183	822	3807
122	0	0	2018	1189	183	822	3808
123	0	0	1830	1189	185	822	3807
124	0	0	1665	1189	182	822	3807
125	0	0	1545	1189	184	822	3807
126	0	0	1473	1189	183	822	3807
127	0	0	1321	1188	185	823	3806
0	0	0	1228	1194	184	822	3807
1	0	0	1356	1194	184	822	3808
2	0	0	1572	1194	184	822	3807
3	0	0	1823	1194	184	822	3807
4	0	0	2123	1194	183	822	3807
5	0	0	2367	1194	184	822	3807
6	0	0	2533	1194	182	823	3807
7	0	0	2630	1193	184	822	3807
8	0	0	2686	1193	183	822	3807
9	0	0	2772	1193	183	822	3808
10	0	0	2784	1190	184	823	3807
11	0	0	2634	1188	182	822	3807
12	0	0	2423	1188	184	822	3808
13	0	0	2220	1188	183	821	3807
14	0	0	2025	1188	183	822	3807
15	0	0	1832	1188	184	822	3807
16	0	0	1662	1188	183	822	3808
17	0	0	1543	1188	184	822	3808
18	0	0	1464	1188	183	822	3807
19	0	0	1299	1188	185	822	3806
20	0	0	1211	1194	184	822	3807
21	0	0	1340	1194	184	822	3808
22	0	0	1559	1194	183	822	3807
23	0	0	1816	1193	184	821	3807
24	0	0	2118	1192	183	822	3807
25	0	0	2362	1194	184	822	3807
26	0	0	2530	1193	183	822	3808
27	0	0	2630	1193	183	822	3807
28	0	0	2683	1193	184	822	3808
29	0	0	2771	1192	184	822	3806
30	0	0	2791	1189	183	821	3806
31	0	0	2647	1188	182	822	3807
32	0	0	2439	1187	183	822	3807
33	0	0	2230	1187	183	822	3807
34	0	0	2031	1188	185	822	3807
35	0	0	1847	1188	184	822	3808
36	0	0	1679	1188	184	822	3807
37	0	0	1555	1189	183	822	3808
38	0	0	1478	1188	183	822	3807
39	0	0	1319	1188	184	822	3808
40	0	0	1227	1193	183	822	3806
41	0	0	1353	1194	183	821	3807
42	0	0	1568	1193	183	822	3808
43	0	0	1819	1193	183	821	3807
44	0	0	2117	1193	183	822	3807
45	0	0	2362	1193	183	822	3807
46	0	0	2530	1194	185	822	3808
47	0	0	2628	1193	184	822	3808
48	0	0	2683	1193	184	822	3807
49	0	0	2771	1193	184	822	3806
50	0	0	2784	1189	184	822	3807
51	0	0	2633	1188	183	822	3808
52	0	0	2426	1187	183	822	3807
53	0	0	2218	1187	183	822	3807
54	0	0	2020	1188	183	822	3808
55	0	0	1828	1188	185	822	3806
56	0	0	1661	1188	184	822	3808
57	0	0	1539	1188	184	822	3807
58	0	0	1463	1188	185	822	3807
59	0	0	1313	1187	184	821	3806
60	0	0	1224	1192	184	822	3806
61	0	0	1351	1194	184	822	3807
62	0	0	1571	1193	184	822	3808
63	0	0	1824	1193	184	822	3808
64	0	0	2122	1193	183	822	3807
65	0	0	2369	1193	184	822	3808
66	0	0	2534	1193	183	823	3807
67	0	0	2634	1193	184	822	3807
68	0	0	2686	1193	184	822	3807
69	0	0	2776	1192	183	822	3806
70	0	0	2790	1189	183	822	3807
71	0	0	2646	1187	183	822	3807
72	0	0	2441	1187	183	822	3807
73	0	0	2235	1186	183	822	3807
74	0	0	2037	1187	184	822	3807
75	0	0	1842	1187	184	822	3808
76	0	0	1666	1187	182	823	3807
77	0	0	1546	1187	184	822	3807
78	0	0	1469	1188	183	822	3807
79	0	0	1319	1188	185	822	3807
80	0	0	1228	1193	184	822	3807
81	0	0	1347	1193	184	822	3807
82	0	0	1562	1193	184	822	3808
83	0	0	1815	1193	183	822	3808
84	0	0	2115	1192	184	822	3807
85	0	0	2362	1192	182	822	3808
86	0	0	2529	1193	185	822	3807
87	0	0	2630	1192	184	822	3808
88	0	0	2684	1192	183	822	3807
89	0	0	2773	1192	183	822	3807
90	0	0	2789	1188	184	821	3807
91	0	0	2643	1187	182	822	3807
92	0	0	2433	1186	183	822	3807
93	0	0	2227	1186	183	822	3807
94	0	0	2030	1187	183	822	3807
95	0	0	1843	1187	184	822	3807
96	0	0	1677	1188	185	822	3808
97	0	0	1555	1188	184	823	3808
98	0	0	1475	1188	183	822	3808
99	0	0	1318	1187	184	822	3807
100	0	0	1220	1191	184	822	3807
101	0	0	1343	1193	184	822	3807
102	0	0	1564	1193	183	822	3808
103	0	0	1817	1192	183	822	3808
104	0	0	2114	1192	183	822	3808
105	0	0	2361	1192	183	822	3808
106	0	0	2526	1192	183	822	3807
107	0	0	2630	1192	183	822	3808
108	0	0	2686	1192	184	822	3808
109	0	0	2769	1192	184	822	3808
110	0	0	2785	1187	184	822	3807
111	0	0	2638	1187	184	822	3807
112	0	0	2432	1187	183	822	3808
113	0	0	2227	1187	183	823	3808
114	0	0	2026	1187	184	822	3808
115	0	0	1839	1187	183	822	3808
116	0	0	1671	1187	184	822	3808
117	0	0	1549	1187	183	822	3808
118	0	0	1473	1188	184	822	3807
119	0	0	1321	1187	184	823	3807
120	0	0	1224	1191	183	822	3807
121	0	0	1344	1193	184	821	3807
122	0	0	1558	1192	184	822	3808
123	0	0	1810	1192	183	822	3807
124	0	0	2107	1192	183	822	3807
125	0	0	2352	1192	183	822	3808
126	0	0	2521	1192	183	822	3808
127	0	0	2626	1192	183	822	3808
0	0	0	2681	1193	184	822	3808
1	0	0	2769	1192	182	822	3807
2	0	0	2789	1187	184	822	3807
3	0	0	2649	1187	184	822	3807
4	0	0	2446	1186	183	822	3807
5	0	0	2239	1186	184	822	3808
6	0	0	2038	1186	184	822	3807
7	0	0	1848	1187	183	822	3807
8	0	0	1683	1187	183	822	3808
9	0	0	1561	1187	183	822	3809
10	0	0	1484	1187	183	822	3807
11	0	0	1337	1187	184	822	3808
12	0	0	1241	1191	184	821	3807
13	0	0	1355	1192	184	822	3806
14	0	0	1564	1192	183	822	3808
15	0	0	1806	1192	184	822	3808
16	0	0	2102	1192	184	823	3807
17	0	0	2346	1191	184	822	3807
18	0	0	2508	1192	184	822	3807
19	0	0	2609	1191	183	822	3808
20	0	0	2663	1191	183	822	3808
21	0	0	2744	1191	184	822	3806
22	0	0	2752	1188	184	822	3808
23	0	0	2615	1187	184	822	3808
24	0	0	2418	1185	183	822	3808
25	0	0	2227	1187	183	822	3808
26	0	0	2030	1186	183	822	3807
27	0	0	1843	1187	183	822	3808
28	0	0	1675	1187	184	821	3807
29	0	0	1554	1186	183	822	3808
30	0	0	1482	1187	183	822	3808
31	0	0	1343	1187	184	822	3807
32	0	0	1247	1191	184	822	3807
33	0	0	1364	1192	183	822	3807
34	0	0	1573	1192	183	822	3808
35	0	0	1820	1192	183	822	3808
36	0	0	2113	1192	183	822	3808
37	0	0	2353	1192	183	822	3807
38	0	0	2517	1192	184	822	3807
39	0	0	2620	1191	183	822	3808
40	0	0	2673	1192	183	822	3808
41	0	0	2751	1191	184	823	3807
42	0	0	2768	1187	183	822	3807
43	0	0	2635	1186	183	822	3807
44	0	0	2440	1185	184	822	3807
45	0	0	2239	1186	183	822	3807
46	0	0	2041	1186	183	822	3807
47	0	0	1856	1186	183	821	3808
48	0	0	1689	1187	184	822	3808
49	0	0	1569	1186	183	822	3808
50	0	0	1491	1187	184	822	3808
51	0	0	1349	1186	183	823	3808
52	0	0	1250	1191	184	822	3806
53	0	0	1363	1192	184	822	3807
54	0	0	1571	1191	184	822	3808
55	0	0	1810	1191	183	822	3807
56	0	0	2099	1192	183	822	3807
57	0	0	2341	1191	184	821	3807
58	0	0	2505	1191	184	822	3808
59	0	0	2605	1191	183	821	3808
60	0	0	2662	1191	183	822	3808
61	0	0	2741	1191	183	822	3806
62	0	0	2761	1187	183	822	3808
63	0	0	2630	1186	184	822	3808
64	0	0	2434	1185	183	822	3808
65	0	0	2234	1186	183	822	3807
66	0	0	2041	1186	184	822	3807
67	0	0	1854	1186	183	822	3807
68	0	0	1686	1186	183	822	3807
69	0	0	1566	1186	182	822	3808
70	0	0	1493	1186	184	822	3807
71	0	0	1354	1185	184	822	3806
72	0	0	1251	1189	183	822	3806
73	0	0	1354	1192	184	822	3806
74	0	0	1554	1192	183	822	3807
75	0	0	1799	1192	184	822	3808
76	0	0	2089	1191	184	822	3807
77	0	0	2335	1191	184	822	3808
78	0	0	2500	1191	183	822	3808
79	0	0	2604	1191	183	822	3808
80	0	0	2660	1191	183	822	3807
81	0	0	2733	1191	184	822	3806
82	0	0	2754	1187	184	822	3806
83	0	0	2627	1186	184	822	3807
84	0	0	2436	1186	183	822	3808
85	0	0	2246	1185	183	822	3807
86	0	0	2053	1185	183	822	3807
87	0	0	1863	1186	184	822	3808
88	0	0	1695	1186	183	822	3808
89	0	0	1574	1186	183	822	3807
90	0	0	1499	1187	183	822	3808
91	0	0	1356	1185	183	822	3807
92	0	0	1248	1189	183	822	3807
93	0	0	1352	1192	184	822	3807
94	0	0	1555	1190	184	822	3808
95	0	0	1800	1192	184	822	3807
96	0	0	2096	1191	182	822	3808
97	0	0	2343	1191	184	822	3807
98	0	0	2505	1192	183	822	3808
99	0	0	2605	1191	183	822	3808
100	0	0	2659	1191	184	822	3806
101	0	0	2736	1190	183	822	3807
102	0	0	2758	1187	183	822	3806
103	0	0	2629	1186	182	822	3806
104	0	0	2431	1184	183	822	3807
105	0	0	2233	1185	183	822	3807
106	0	0	2037	1185	183	822	3807
107	0	0	1851	1185	183	822	3807
108	0	0	1686	1185	184	822	3808
109	0	0	1564	1186	184	822	3808
110	0	0	1493	1186	184	822	3807
111	0	0	1356	1186	183	822	3808
112	0	0	1252	1189	184	821	3807
113	0	0	1358	1191	186	822	3807
114	0	0	1560	1191	184	822	3808
115	0	0	1795	1190	184	822	3807
116	0	0	2086	1190	184	822	3807
117	0	0	2335	1191	183	822	3807
118	0	0	2506	1191	184	822	3808
119	0	0	2614	1190	182	822	3808
120	0	0	2669	1191	184	822	3807
121	0	0	2744	1190	184	822	3807
122	0	0	2765	1187	183	822	3806
123	0	0	2636	1185	183	822	3806
124	0	0	2437	1185	184	822	3808
125	0	0	2234	1185	183	822	3807
126	0	0	2042	1185	183	822	3808
127	0	0	1856	1186	184	822	3808
0	0	0	1690	1185	185	822	3807
1	0	0	1567	1186	183	822	3808
2	0	0	1491	1186	184	822	3807
3	0	0	1357	1185	184	822	3806
4	0	0	1249	1188	185	822	3807
5	0	0	1360	1191	183	822	3806
6	0	0	1563	1191	184	822	3808
7	0	0	1799	1191	184	822	3808
8	0	0	2091	1190	183	822	3807
9	0	0	2339	1191	183	822	3808
10	0	0	2511	1191	185	822	3807
11	0	0	2614	1190	183	822	3808
12	0	0	2667	1190	183	821	3808
13	0	0	2745	1190	183	822	3808
14	0	0	2772	1187	184	821	3807
15	0	0	2639	1185	183	822	3806
16	0	0	2440	1185	183	822	3807
17	0	0	2246	1184	183	822	3807
18	0	0	2051	1185	184	823	3807
19	0	0	1859	1185	184	822	3808
20	0	0	1688	1185	182	822	3808
21	0	0	1565	1185	184	822	3808
22	0	0	1488	1185	183	822	3807
23	0	0	1349	1185	184	822	3806
24	0	0	1240	1188	184	822	3807
25	0	0	1349	1191	184	822	3808
26	0	0	1550	1189	183	822	3808
27	0	0	1792	1190	184	822	3807
28	0	0	2087	1190	185	822	3807
29	0	0	2334	1190	184	823	3808
30	0	0	2503	1190	183	822	3808
31	0	0	2607	1190	183	822	3808
32	0	0	2659	1190	183	822	3807
33	0	0	2737	1190	184	822	3807
34	0	0	2767	1187	183	822	3807
35	0	0	2642	1185	182	822	3808
36	0	0	2440	1184	183	822	3808
37	0	0	2237	1185	183	822	3808
38	0	0	2044	1185	183	822	3808
39	0	0	1856	1185	184	822	3808
40	0	0	1687	1186	185	822	3807
41	0	0	1564	1185	183	822	3808
42	0	0	1489	1185	183	822	3808
43	0	0	1353	1185	183	822	3808
44	0	0	1246	1187	184	822	3807
45	0	0	1348	1190	183	821	3807
46	0	0	1553	1190	183	822	3808
47	0	0	1789	1190	184	822	3807
48	0	0	2081	1190	184	823	3808
49	0	0	2325	1190	183	822	3808
50	0	0	2500	1190	183	822	3808
51	0	0	2607	1189	183	822	3808
52	0	0	2662	1190	183	822	3807
53	0	0	2744	1190	183	822	3807
54	0	0	2774	1187	183	823	3807
55	0	0	2644	1185	183	822	3807
56	0	0	2446	1184	182	822	3808
57	0	0	2245	1184	183	822	3807
58	0	0	2051	1185	184	822	3808
59	0	0	1866	1185	184	822	3808
60	0	0	1696	1185	184	822	3808
61	0	0	1564	1185	183	822	3808
62	0	0	1481	1185	184	822	3808
63	0	0	1340	1184	184	822	3807
64	0	0	1229	1188	183	821	3807
65	0	0	1336	1190	182	822	3808
66	0	0	1540	1190	184	822	3808
67	0	0	1781	1190	184	822	3808
68	0	0	2077	1190	184	822	3807
69	0	0	2320	1190	183	822	3808
70	0	0	2487	1190	184	822	3808
71	0	0	2595	1189	183	822	3808
72	0	0	2655	1189	184	822	3807
73	0	0	2734	1189	183	822	3807
74	0	0	2764	1187	183	823	3807
75	0	0	2640	1184	184	822	3807
76	0	0	2444	1184	184	822	3808
77	0	0	2250	1184	184	822	3808
78	0	0	2056	1185	183	822	3807
79	0	0	1865	1184	184	822	3808
80	0	0	1692	1184	184	822	3808
81	0	0	1561	1185	184	822	3808
82	0	0	1485	1185	183	822	3808
83	0	0	1353	1184	184	823	3808
84	0	0	1242	1187	183	822	3807
85	0	0	1344	1190	185	822	3807
86	0	0	1553	1190	183	822	3808
87	0	0	1797	1190	184	822	3807
88	0	0	2090	1189	183	822	3807
89	0	0	2338	1190	183	822	3807
90	0	0	2507	1189	184	822	3808
91	0	0	2614	1189	183	822	3808
92	0	0	2672	1190	184	822	3808
93	0	0	2752	1189	184	822	3807
94	0	0	2780	1186	184	822	3808
95	0	0	2652	1184	183	822	3808
96	0	0	2456	1184	183	822	3807
97	0	0	2254	1184	183	822	3807
98	0	0	2055	1184	183	822	3808
99	0	0	1866	1183	183	823	3807
100	0	0	1697	1184	183	822	3808
101	0	0	1569	1185	184	823	3808
102	0	0	1490	1185	184	822	3808
103	0	0	1354	1184	184	822	3807
104	0	0	1241	1187	183	821	3807
105	0	0	1344	1190	184	822	3808
106	0	0	1549	1190	183	822	3808
107	0	0	1790	1189	183	822	3808
108	0	0	2088	1190	183	822	3808
109	0	0	2333	1190	184	822	3808
110	0	0	2501	1189	184	822	3808
111	0	0	2607	1189	184	822	3808
112	0	0	2665	1189	183	822	3808
113	0	0	2743	1189	183	822	3807
114	0	0	2772	1186	183	823	3807
115	0	0	2643	1184	184	822	3807
116	0	0	2445	1183	184	822	3808
117	0	0	2253	1183	184	822	3807
118	0	0	2063	1184	184	822	3807
119	0	0	1875	1184	184	822	3807
120	0	0	1703	1184	183	822	3808
121	0	0	1571	1184	183	822	3808
122	0	0	1492	1184	184	822	3808
123	0	0	1355	1184	184	822	3807
124	0	0	1238	1187	184	822	3807
125	0	0	1342	1189	185	822	3807
126	0	0	1551	1189	183	822	3808
127	0	0	1786	1190	183	822	3807
0	0	0	2073	1190	183	822	3808
1	0	0	2323	1189	184	822	3807
2	0	0	2499	1189	183	822	3808
3	0	0	2608	1188	183	822	3808
4	0	0	2664	1189	183	822	3807
5	0	0	2749	1189	184	822	3807
6	0	0	2777	1185	184	822	3808
7	0	0	2651	1184	183	823	3808
8	0	0	2452	1183	184	822	3808
9	0	0	2255	1183	183	822	3807
10	0	0	2061	1183	183	822	3807
11	0	0	1870	1184	184	822	3808
12	0	0	1695	1184	183	822	3808
13	0	0	1566	1184	184	822	3808
14	0	0	1488	1184	184	822	3807
15	0	0	1354	1183	183	822	3808
16	0	0	1241	1186	184	822	3807
17	0	0	1337	1189	183	822	3807
18	0	0	1539	1189	184	827	3808
19	0	0	1779	1189	184	822	3808
20	0	1	2073	1189	185	822	3807
21	0	1	2317	1189	183	822	3808
22	0	1	2486	1188	183	822	3807
23	0	1	2594	1188	183	822	3808
24	0	1	2655	1189	184	822	3807
25	0	1	2731	1190	183	822	3808
26	0	1	2763	1186	183	822	3807
27	0	1	2638	1183	183	822	3807
28	0	1	2446	1183	183	822	3808
29	0	1	2247	1183	184	821	3807
30	0	1	2055	1183	183	822	3807
31	0	1	1865	1183	184	822	3808
32	0	1	1699	1183	184	822	3808
33	0	1	1570	1183	183	822	3808
34	0	1	1492	1184	184	822	3807
35	0	1	1362	1183	184	822	3807
36	0	1	1247	1186	184	822	3806
37	0	1	1345	1189	185	822	3807
38	0	1	1551	1188	184	822	3808
39	0	1	1786	1188	184	822	3807
40	0	1	2078	1188	183	822	3807
41	0	1	2331	1188	184	822	3807
42	0	1	2507	1188	184	822	3808
43	0	1	2612	1188	183	822	3808
44	0	1	2668	1188	184	822	3807
45	0	1	2739	1188	184	822	3807
46	0	1	2773	1186	184	822	3807
47	0	1	2650	1183	183	822	3807
48	0	1	2454	1183	184	822	3808
49	0	1	2261	1183	183	822	3807
50	0	1	2067	1183	183	822	3807
51	0	1	1874	1183	183	822	3808
52	0	1	1702	1183	183	822	3808
53	0	1	1575	1183	184	822	3808
54	0	1	1499	1184	184	822	3808
55	0	1	1367	1183	183	822	3807
56	0	1	1247	1185	184	822	3807
57	0	1	1336	1189	184	822	3808
58	0	1	1543	1188	183	822	3808
59	0	1	1778	1189	184	822	3808
60	0	1	2069	1188	183	822	3807
61	0	1	2319	1188	184	822	3808
62	0	1	2494	1188	183	822	3808
63	0	1	2603	1188	183	822	3808
64	0	1	2658	1188	184	822	3808
65	0	1	2736	1189	184	822	3807
66	0	1	2771	1185	183	822	3807
67	0	1	2650	1183	183	821	3807
68	0	1	2457	1183	182	821	3808
69	0	1	2260	1183	184	822	3807
70	0	1	2066	1182	184	822	3807
71	0	1	1874	1182	184	822	3807
72	0	1	1701	1183	184	822	3808
73	0	1	1573	1183	184	822	3808
74	0	1	1496	1183	183	822	3807
75	0	1	1367	1183	183	822	3808
76	0	1	1252	1186	184	823	3806
77	0	1	1348	1189	184	821	3807
78	0	1	1548	1188	183	822	3808
79	0	1	1778	1188	185	822	3807
80	1	1	2070	1188	183	822	3807
81	1	1	2336	1188	184	822	3808
82	1	1	2518	1188	184	822	3807
83	1	1	2630	1188	183	822	3808
84	1	1	2692	1188	183	822	3807
85	1	1	2765	1188	183	822	3807
86	1	1	2797	1186	183	822	3808
87	1	1	2668	1183	184	822	3807
88	1	1	2470	1183	183	822	3808
89	1	1	2264	1183	183	822	3808
90	1	1	2065	1183	183	822	3808
91	1	1	1874	1183	183	822	3808
92	1	1	1705	1183	183	822	3809
93	1	1	1577	1184	183	822	3808
94	1	1	1501	1184	184	822	3808
95	1	1	1368	1183	183	822	3807
96	1	1	1247	1186	184	822	3807
97	1	1	1340	1189	184	822	3808
98	1	1	1538	1188	183	822	3808
99	1	1	1767	1188	183	822	3807
100	1	1	2060	1188	184	822	3808
101	1	1	2305	1188	185	822	3808
102	1	1	2477	1188	183	821	3807
103	1	1	2587	1188	184	822	3808
104	1	1	2645	1188	183	822	3807
105	1	1	2720	1188	183	822	3808
106	1	1	2758	1186	184	822	3807
107	1	1	2637	1183	183	821	3807
108	1	1	2448	1183	183	822	3808
109	1	1	2252	1182	183	822	3807
110	1	1	2058	1182	183	822	3808
111	1	1	1872	1182	183	822	3808
112	1	1	1707	1183	185	822	3808
113	1	1	1578	1183	184	822	3808
114	1	1	1500	1184	184	822	3807
115	1	1	1365	1182	183	822	3807
116	1	1	1244	1185	184	822	3807
117	1	1	1333	1188	185	822	3807
118	1	1	1533	1187	183	822	3808
119	1	1	1763	1187	183	822	3807
120	1	1	2054	1188	183	822	3808
121	1	1	2306	1189	184	822	3808
122	1	1	2482	1187	183	821	3808
123	1	1	2591	1188	183	822	3808
124	1	1	2650	1188	183	822	3807
125	1	1	2728	1187	183	822	3808
126	1	1	2770	1186	184	822	3807
127	1	1	2651	1182	183	822	3807
0	1	1	2458	1183	183	822	3808
1	1	1	2259	1182	183	822	3807
2	1	1	2063	1182	182	822	3807
3	1	1	1877	1182	183	822	3808
4	1	1	1706	1183	183	822	3808
5	1	1	1574	1183	183	822	3808
6	1	1	1497	1183	183	822	3807
7	1	1	1372	1182	183	822	3807
8	1	1	1252	1185	183	822	3808
9	1	1	1342	1188	184	822	3808
10	1	1	1539	1188	185	822	3808
11	1	1	1766	1188	183	822	3808
12	1	1	2056	1187	183	822	3807
13	1	1	2303	1188	184	822	3808
14	1	1	2477	1187	184	822	3808
15	1	1	2587	1187	184	822	3808
16	1	1	2652	1187	183	822	3807
17	1	1	2728	1187	183	822	3807
18	1	1	2763	1186	183	822	3807
19	1	1	2643	1182	184	822	3807
20	1	1	2447	1181	185	822	3808
21	1	1	2257	1182	183	822	3807
22	1	1	2069	1181	184	822	3808
23	1	1	1882	1182	184	822	3808
24	1	1	1713	1182	184	822	3808
25	1	1	1582	1182	184	822	3808
26	1	1	1501	1183	184	822	3808
27	1	1	1363	1182	184	822	3807
28	1	1	1242	1184	183	822	3808
29	1	1	1330	1188	184	822	3808
30	1	1	1526	1187	185	822	3808
31	1	1	1758	1188	184	823	3808
32	1	1	2052	1187	184	822	3808
33	1	1	2303	1187	183	822	3808
34	1	1	2480	1187	183	822	3808
35	1	1	2593	1187	185	822	3808
36	1	1	2655	1187	183	822	3807
37	1	1	2729	1187	184	822	3807
38	1	1	2768	1185	184	822	3807
39	1	1	2651	1181	184	822	3807
40	1	1	2454	1182	184	822	3808
41	1	1	2257	1181	184	822	3807
42	1	1	2062	1182	183	822	3808
43	1	1	1877	1182	184	823	3808
44	1	1	1706	1182	184	822	3808
45	1	1	1575	1182	184	822	3808
46	1	1	1501	1183	184	822	3808
47	1	1	1376	1182	184	822	3807
48	1	1	1256	1184	184	822	3807
49	1	1	1346	1187	184	823	3807
50	1	1	1544	1187	184	822	3808
51	1	1	1774	1187	184	822	3807
52	1	1	2069	1186	183	822	3808
53	1	1	2317	1187	184	824	3808
54	1	1	2482	1187	183	822	3808
55	1	1	2591	1186	183	822	3808
56	1	1	2654	1187	184	822	3808
57	1	1	2730	1186	183	822	3807
58	1	1	2770	1186	183	822	3807
59	1	1	2653	1182	184	823	3807
60	1	1	2459	1181	184	822	3808
61	1	1	2264	1181	183	822	3807
62	1	1	2069	1181	184	822	3807
63	1	1	1875	1181	184	822	3807
64	1	1	1706	1182	184	822	3808
65	1	1	1580	1182	183	822	3808
66	1	1	1506	1182	183	822	3807
67	1	1	1382	1181	183	822	3808
68	1	1	1260	1184	183	823	3807
69	1	1	1339	1187	184	822	3807
70	1	1	1534	1187	184	822	3808
71	1	1	1763	1186	183	822	3807
72	1	1	2053	1187	184	822	3807
73	1	1	2304	1187	184	822	3808
74	1	1	2480	1186	184	822	3808
75	1	1	2592	1186	182	822	3808
76	1	1	2654	1186	184	822	3807
77	1	1	2726	1186	184	822	3807
78	1	1	2761	1185	183	822	3807
79	1	1	2643	1182	184	822	3807
80	1	1	2452	1181	183	822	3808
81	1	1	2258	1181	183	822	3807
82	1	1	2068	1181	183	822	3808
83	1	1	1886	1181	183	822	3808
84	1	1	1714	1182	183	822	3808
85	1	1	1578	1182	182	822	3808
86	1	1	1499	1182	184	822	3807
87	1	1	1373	1181	183	822	3807
88	1	1	1251	1183	185	822	3807
89	1	1	1339	1187	183	822	3807
90	1	1	1538	1186	183	822	3808
91	1	1	1769	1186	184	822	3807
92	1	1	2066	1186	184	822	3807
93	1	1	2320	1186	183	822	3807
94	1	1	2490	1186	183	822	3807
95	1	1	2600	1185	183	822	3808
96	1	1	2658	1186	183	822	3807
97	1	1	2734	1186	183	822	3808
98	1	1	2775	1185	184	822	3808
99	1	1	2656	1181	184	822	3807
100	1	1	2460	1180	183	822	3808
101	1	1	2267	1181	184	822	3808
102	1	1	2073	1181	184	822	3808
103	1	1	1885	1181	184	822	3808
104	1	1	1712	1181	183	822	3808
105	1	1	1581	1182	183	822	3808
106	1	1	1498	1181	184	822	3807
107	1	1	1375	1180	184	822	3807
108	1	1	1250	1182	184	822	3807
109	1	1	1335	1186	183	822	3807
110	1	1	1532	1187	184	822	3808
111	1	1	1761	1186	183	822	3807
112	1	1	2049	1185	183	821	3807
113	1	1	2303	1186	183	822	3808
114	1	1	2476	1186	184	822	3808
115	1	1	2586	1186	183	822	3808
116	1	1	2650	1186	183	822	3807
117	1	1	2719	1186	184	822	3807
118	1	1	2759	1185	183	822	3807
119	1	1	2648	1181	183	822	3807
120	1	1	2464	1180	183	822	3808
121	1	1	2268	1181	183	822	3807
122	1	1	2070	1180	183	822	3807
123	1	1	1887	1181	183	822	3807
124	1	1	1720	1180	183	822	3808
125	1	1	1589	1181	183	822	3808
126	1	1	1507	1181	183	822	3807
127	1	1	1381	1181	184	822	3808
0	1	1	1251	1183	183	822	3807
1	1	1	1336	1187	183	822	3807
2	1	1	1534	1186	184	822	3808
3	1	1	1760	1186	184	822	3807
4	1	1	2056	1186	183	822	3808
5	1	1	2311	1185	183	822	3808
6	1	1	2488	1186	183	822	3808
7	1	1	2599	1186	184	822	3808
8	1	1	2660	1185	184	822	3807
9	1	1	2730	1185	183	822	3807
10	1	1	2775	1185	184	822	3807
11	1	1	2658	1180	184	822	3807
12	1	1	2466	1180	183	822	3808
13	1	1	2274	1180	183	822	3807
14	1	1	2080	1180	183	822	3808
15	1	1	1895	1180	184	822	3807
16	1	1	1724	1180	184	822	3807
17	1	1	1590	1181	183	822	3808
18	1	1	1505	1181	183	822	3807
19	1	1	1377	1180	183	822	3808
20	1	1	1250	1182	184	823	3807
21	1	1	1329	1186	184	823	3807
22	1	1	1525	1186	184	822	3808
23	1	1	1749	1185	183	822	3807
24	1	1	2044	1186	184	822	3808
25	1	1	2299	1186	183	822	3808
26	1	1	2478	1186	184	822	3808
27	1	1	2590	1186	184	821	3808
28	1	1	2651	1186	184	822	3807
29	1	1	2723	1186	183	822	3807
30	1	1	2767	1184	183	822	3807
31	1	1	2654	1180	183	822	3807
32	1	1	2461	1180	183	822	3808
33	1	1	2265	1180	183	822	3807
34	1	1	2068	1180	184	822	3807
35	1	1	1884	1180	184	822	3807
36	1	1	1714	1180	183	822	3808
37	1	1	1585	1180	183	822	3808
38	1	1	1504	1181	183	823	3808
39	1	1	1384	1179	184	822	3807
40	1	1	1255	1181	183	822	3807
41	1	1	1332	1186	183	822	3808
42	1	1	1528	1185	183	822	3808
43	1	1	1758	1186	184	822	3808
44	1	1	2053	1185	183	822	3807
45	1	1	2304	1185	183	822	3808
46	1	1	2476	1186	183	822	3808
47	1	1	2586	1185	183	822	3808
48	1	1	2653	1185	184	822	3807
49	1	1	2725	1185	183	822	3808
50	1	1	2771	1184	184	822	3807
51	1	1	2656	1179	183	823	3807
52	1	1	2465	1179	182	822	3808
53	1	1	2268	1180	183	822	3807
54	1	1	2071	1179	184	822	3807
55	1	1	1884	1179	183	822	3807
56	1	1	1715	1180	182	821	3807
57	1	1	1582	1180	183	822	3808
58	1	1	1498	1181	184	822	3807
59	1	1	1383	1180	184	822	3807
60	1	1	1259	1181	183	822	3806
61	1	1	1334	1186	183	822	3807
62	1	1	1531	1185	182	822	3808
63	1	1	1762	1186	184	822	3808
64	1	1	2053	1185	183	822	3807
65	1	1	2308	1185	184	822	3808
66	1	1	2485	1185	184	823	3808
67	1	1	2594	1184	183	822	3808
68	1	1	2655	1185	184	822	3807
69	1	1	2725	1184	183	822	3807
70	1	1	2767	1185	185	822	3807
71	1	1	2657	1180	183	823	3807
72	1	1	2470	1179	183	822	3808
73	1	1	2277	1179	184	822	3807
74	1	1	2083	1179	183	822	3808
75	1	1	1895	1180	183	822	3808
76	1	1	1718	1179	183	823	3808
77	1	1	1584	1180	183	822	3808
78	1	1	1501	1181	183	822	3808
79	1	1	1383	1180	183	822	3807
80	1	1	1253	1181	184	822	3807
81	1	1	1330	1185	184	823	3808
82	1	1	1525	1185	183	822	3808
83	1	1	1752	1185	183	822	3807
84	1	1	2048	1185	183	822	3808
85	1	1	2301	1186	184	823	3808
86	1	1	2479	1185	183	823	3808
87	1	1	2595	1185	183	822	3808
88	1	1	2661	1185	183	822	3808
89	1	1	2729	1184	183	822	3807
90	1	1	2777	1184	184	822	3807
91	1	1	2665	1180	183	823	3807
92	1	1	2476	1179	183	822	3808
93	1	1	2279	1179	184	823	3807
94	1	1	2081	1179	184	822	3807
95	1	1	1899	1179	184	822	3807
96	1	1	1730	1179	183	822	3807
97	1	1	1593	1180	184	822	3808
98	1	1	1515	1180	183	822	3807
99	1	1	1395	1180	184	822	3808
100	1	1	1261	1182	184	822	3807
101	1	1	1333	1185	184	822	3807
102	1	1	1529	1185	184	822	3808
103	1	1	1753	1184	183	822	3807
104	1	1	2042	1185	183	822	3807
105	1	1	2304	1184	184	822	3808
106	1	1	2484	1185	183	822	3808
107	1	1	2595	1184	183	822	3808
108	1	1	2650	1184	183	822	3807
109	1	1	2708	1184	184	822	3807
110	1	1	2753	1183	183	822	3808
111	1	1	2650	1179	183	822	3808
112	1	1	2461	1179	182	822	3808
113	1	1	2272	1179	183	822	3808
114	1	1	2076	1180	183	822	3807
115	1	1	1892	1178	184	822	3807
116	1	1	1721	1179	183	822	3808
117	1	1	1585	1179	183	822	3808
118	1	1	1505	1180	184	823	3807
119	1	1	1379	1179	184	822	3807
120	1	1	1241	1180	184	822	3806
121	1	1	1317	1185	183	822	3807
122	1	1	1518	1184	182	822	3808
123	1	1	1747	1184	184	822	3807
124	1	1	2039	1184	184	822	3808
125	1	1	2295	1184	183	822	3808
126	1	1	2471	1184	184	822	3808
127	1	1	2584	1184	184	822	3808
0	1	1	2649	1185	184	822	3808
1	1	1	2719	1184	183	822	3807
2	1	1	2764	1183	183	822	3807
3	1	1	2651	1179	184	822	3807
4	1	1	2463	1179	182	822	3808
5	1	1	2272	1178	183	822	3807
6	1	1	2082	1179	184	822	3808
7	1	1	1896	1179	183	822	3808
8	1	1	1726	1179	183	822	3808
9	1	1	1592	1179	182	822	3808
10	1	1	1509	1180	183	822	3807
11	1	1	1395	1179	183	822	3807
12	1	1	1261	1179	184	822	3807
13	1	1	1332	1184	184	822	3808
14	1	1	1526	1184	184	822	3808
15	1	1	1752	1185	184	822	3807
16	1	1	2040	1184	185	822	3807
17	1	1	2298	1184	183	822	3808
18	1	1	2481	1184	183	822	3808
19	1	1	2600	1184	184	823	3808
20	1	1	2659	1183	183	822	3807
21	1	1	2718	1183	183	822	3807
22	1	1	2763	1183	184	822	3807
23	1	1	2662	1179	183	823	3807
24	1	1	2475	1178	183	822	3808
25	1	1	2278	1178	183	822	3807
26	1	1	2081	1178	183	822	3807
27	1	1	1897	1177	183	822	3808
28	1	1	1724	1179	183	822	3808
29	1	1	1591	1179	184	822	3808
30	1	1	1509	1179	184	822	3807
31	1	1	1392	1179	183	822	3807
32	1	1	1260	1180	184	822	3807
33	1	1	1331	1184	184	822	3808
34	1	1	1523	1184	184	822	3808
35	1	1	1746	1184	183	822	3808
36	1	1	2038	1185	185	822	3807
37	1	1	2290	1183	183	822	3808
38	1	1	2466	1184	184	822	3808
39	1	1	2580	1183	182	822	3808
40	1	1	2641	1183	183	822	3807
41	1	1	2710	1183	183	822	3807
42	1	1	2761	1183	182	822	3807
43	1	1	2657	1179	183	822	3807
44	1	1	2471	1178	183	822	3808
45	1	1	2279	1178	183	822	3807
46	1	1	2084	1178	184	822	3807
47	1	1	1901	1178	183	822	3807
48	1	1	1735	1178	183	823	3807
49	1	1	1598	1179	184	822	3808
50	1	1	1515	1179	184	822	3808
51	1	1	1399	1178	184	822	3806
52	1	1	1267	1179	183	822	3807
53	1	1	1335	1184	184	822	3808
54	1	1	1530	1184	184	822	3808
55	1	1	1759	1183	183	822	3807
56	1	1	2042	1184	183	822	3807
57	1	1	2301	1183	184	823	3807
58	1	1	2477	1184	184	822	3807
59	1	1	2591	1183	184	822	3808
60	1	1	2647	1183	184	822	3807
61	1	1	2711	1183	183	822	3807
62	1	1	2764	1183	183	822	3807
63	1	1	2659	1178	183	822	3807
64	1	1	2471	1177	184	822	3808
65	1	1	2278	1177	183	822	3807
66	1	1	2085	1177	183	822	3807
67	1	1	1901	1178	183	822	3808
68	1	1	1726	1178	183	822	3809
69	1	1	1591	1178	182	822	3808
70	1	1	1511	1179	182	822	3808
71	1	1	1399	1178	184	822	3807
72	1	1	1265	1178	185	822	3807
73	1	1	1336	1184	184	822	3808
74	1	1	1527	1184	183	822	3808
75	1	1	1752	1184	183	822	3808
76	1	1	2036	1184	183	822	3807
77	1	1	2288	1183	184	822	3807
78	1	1	2466	1183	184	822	3808
79	1	1	2583	1183	184	822	3808
80	1	1	2643	1183	184	822	3807
81	1	1	2713	1183	184	822	3807
82	1	1	2768	1182	183	822	3807
83	1	1	2664	1178	183	823	3807
84	1	1	2476	1177	183	822	3808
85	1	1	2289	1177	184	822	3807
86	1	1	2089	1177	184	822	3807
87	1	1	1897	1177	183	823	3807
88	1	1	1724	1178	183	822	3808
89	1	1	1590	1179	183	822	3808
90	1	1	1507	1178	184	822	3807
91	1	1	1393	1177	183	822	3808
92	1	1	1255	1179	184	822	3807
93	1	1	1319	1183	184	822	3807
94	1	1	1517	1183	183	822	3808
95	1	1	1740	1183	183	822	3808
96	1	1	2029	1183	182	822	3808
97	1	1	2290	1183	183	822	3807
98	1	1	2469	1183	183	823	3807
99	1	1	2587	1183	183	822	3808
100	1	1	2648	1182	183	822	3807
101	1	1	2716	1183	183	822	3807
102	1	1	2768	1182	184	822	3807
103	1	1	2668	1178	183	822	3807
104	1	1	2482	1177	183	822	3808
105	1	1	2291	1177	183	822	3807
106	1	1	2096	1177	182	822	3807
107	1	1	1907	1177	183	822	3808
108	1	1	1728	1178	183	822	3807
109	1	1	1591	1178	184	823	3808
110	1	1	1505	1179	183	822	3808
111	1	1	1394	1177	184	822	3807
112	1	1	1257	1179	184	822	3807
113	1	1	1324	1183	183	822	3808
114	1	1	1511	1183	184	823	3807
115	1	1	1733	1183	184	822	3808
116	1	1	2027	1182	185	822	3807
117	1	1	2285	1183	184	822	3807
118	1	1	2465	1183	184	823	3808
119	1	1	2579	1182	183	822	3808
120	1	1	2640	1182	184	822	3807
121	1	1	2702	1182	183	822	3807
122	1	1	2753	1182	182	822	3807
123	1	1	2654	1178	183	822	3807
124	1	1	2469	1177	183	822	3808
125	1	1	2279	1177	183	822	3807
126	1	1	2088	1177	183	822	3808
127	1	1	1905	1178	183	822	3808
0	1	1	1736	1177	183	822	3808
1	1	1	1600	1178	183	822	3808
2	1	1	1511	1178	183	822	3807
3	1	1	1402	1177	184	822	3807
4	1	1	1266	1178	183	822	3807
5	1	1	1327	1182	184	823	3807
6	1	1	1522	1182	184	822	3808
7	1	1	1744	1183	183	822	3808
8	1	1	2030	1183	185	822	3807
9	1	1	2288	1183	184	822	3807
10	1	1	2466	1182	183	822	3808
11	1	1	2581	1182	183	822	3808
12	1	1	2645	1182	184	822	3807
13	1	1	2714	1182	183	821	3808
14	1	1	2769	1182	183	822	3807
15	1	1	2673	1177	184	822	3807
16	1	1	2485	1177	184	822	3808
17	1	1	2290	1177	183	822	3808
18	1	1	2093	1177	183	822	3807
19	1	1	1904	1177	184	822	3808
20	1	1	1729	1177	183	822	3808
21	1	1	1594	1177	184	822	3808
22	1	1	1512	1178	183	822	3807
23	1	1	1405	1177	184	822	3807
24	1	1	1267	1178	183	822	3807
25	1	1	1330	1182	184	822	3807
26	1	1	1519	1182	184	822	3808
27	1	1	1740	1182	183	822	3807
28	1	1	2024	1182	183	822	3807
29	1	1	2277	1182	183	822	3807
30	1	1	2457	1182	183	822	3808
31	1	1	2579	1182	183	822	3808
32	1	1	2642	1182	184	822	3807
33	1	1	2708	1182	184	822	3808
34	1	1	2761	1182	184	821	3807
35	1	1	2659	1177	184	822	3807
36	1	1	2467	1176	184	822	3807
37	1	1	2275	1176	183	822	3807
38	1	1	2080	1177	184	822	3807
39	1	1	1897	1177	183	822	3808
40	1	1	1728	1177	184	822	3808
41	1	1	1594	1177	184	823	3808
42	1	1	1508	1177	184	822	3807
43	1	1	1401	1177	184	822	3808
44	1	1	1263	1178	184	822	3807
45	1	1	1326	1182	183	822	3807
46	1	1	1514	1182	183	822	3808
47	1	1	1739	1182	183	822	3807
48	1	1	2023	1182	184	822	3807
49	1	1	2285	1182	185	822	3807
50	1	1	2466	1182	184	823	3808
51	1	1	2585	1181	184	823	3808
52	1	1	2645	1182	183	822	3807
53	1	1	2706	1181	184	822	3807
54	1	1	2756	1181	183	822	3807
55	1	1	2656	1177	184	822	3807
56	1	1	2469	1176	184	822	3808
57	1	1	2281	1176	183	823	3808
58	1	1	2089	1177	184	822	3807
59	1	1	1905	1177	183	822	3808
60	1	1	1733	1177	184	822	3808
61	1	1	1596	1177	183	822	3808
62	1	1	1512	1178	184	822	3808
63	1	1	1407	1177	183	822	3807
64	1	1	1267	1178	184	822	3807
65	1	1	1327	1182	184	822	3808
66	1	1	1509	1182	184	823	3808
67	1	1	1728	1182	183	822	3807
68	1	1	2014	1181	182	822	3807
69	1	1	2276	1182	184	822	3807
70	1	1	2460	1181	182	822	3808
71	1	1	2583	1182	185	822	3808
72	1	1	2644	1182	184	822	3807
73	1	1	2704	1181	183	822	3807
74	1	1	2753	1181	183	822	3807
75	1	1	2652	1177	184	823	3807
76	1	1	2467	1176	184	822	3807
77	1	1	2272	1176	184	822	3807
78	1	1	2085	1176	183	822	3807
79	1	1	1904	1176	184	822	3808
80	1	1	1732	1177	184	822	3808
81	1	1	1593	1177	183	822	3808
82	1	1	1507	1177	183	822	3807
83	1	1	1401	1176	183	821	3808
84	1	1	1266	1178	184	822	3808
85	1	1	1329	1182	184	822	3807
86	1	1	1521	1181	184	822	3808
87	1	1	1745	1181	182	822	3807
88	1	1	2035	1182	183	822	3807
89	1	1	2289	1182	184	822	3808
90	1	1	2467	1182	184	822	3808
91	1	1	2584	1181	183	822	3808
92	1	1	2648	1181	183	822	3807
93	1	1	2712	1181	184	821	3807
94	1	1	2768	1181	183	823	3807
95	1	1	2672	1176	184	822	3807
96	1	1	2484	1176	184	822	3808
97	1	1	2292	1175	183	822	3807
98	1	1	2095	1175	184	822	3807
99	1	1	1907	1176	184	822	3807
100	1	1	1734	1175	184	822	3807
101	1	1	1593	1176	183	822	3808
102	1	1	1504	1177	183	822	3807
103	1	1	1398	1175	183	822	3807
104	1	1	1261	1178	183	822	3807
105	1	1	1316	1181	183	822	3808
106	1	1	1508	1181	184	823	3808
107	1	1	1729	1182	183	822	3807
108	1	1	2022	1182	182	822	3807
109	1	1	2284	1182	184	822	3808
110	1	1	2466	1181	184	822	3808
111	1	1	2578	1181	184	822	3808
112	1	1	2641	1181	183	822	3808
113	1	1	2703	1182	183	821	3807
114	1	1	2760	1181	183	821	3806
115	1	1	2663	1175	183	822	3807
116	1	1	2485	1176	184	822	3808
117	1	1	2288	1176	183	822	3807
118	1	1	2095	1175	183	822	3807
119	1	1	1912	1177	184	822	3807
120	1	1	1741	1176	183	823	3808
121	1	1	1604	1176	183	822	3808
122	1	1	1519	1177	185	821	3807
123	1	1	1415	1176	185	822	3808
124	1	1	1270	1177	184	822	3807
125	1	1	1321	1181	184	822	3807
126	1	1	1506	1181	183	822	3808
127	1	1	1729	1181	184	822	3807
0	1	1	2011	1181	182	822	3807
1	1	1	2269	1181	183	822	3808
2	1	1	2451	1181	184	822	3808
3	1	1	2572	1181	184	822	3808
4	1	1	2638	1181	184	821	3807
5	1	1	2699	1182	184	822	3807
6	1	1	2756	1179	183	822	3808
7	1	1	2661	1175	184	822	3807
8	1	1	2477	1175	184	822	3808
9	1	1	2284	1175	183	822	3807
10	1	1	2092	1175	185	822	3808
11	1	1	1908	1175	183	822	3808
12	1	1	1737	1175	183	822	3808
13	1	1	1603	1176	184	822	3808
14	1	1	1518	1176	183	822	3807
15	1	1	1415	1175	183	821	3808
16	1	1	1273	1177	184	822	3808
17	1	1	1327	1181	184	822	3807
18	1	1	1516	1181	184	822	3808
19	1	1	1735	1181	183	822	3807
20	1	1	2019	1181	184	822	3808
21	1	1	2277	1181	184	822	3808
22	1	1	2460	1181	184	822	3808
23	1	1	2580	1180	184	821	3808
24	1	1	2648	1180	184	822	3808
25	1	1	2713	1181	183	822	3807
26	1	1	2764	1180	183	822	3807
27	1	1	2664	1175	184	822	3807
28	1	1	2479	1175	183	822	3807
29	1	1	2285	1175	184	822	3807
30	1	1	2093	1175	184	822	3807
31	1	1	1912	1174	183	822	3808
32	1	1	1739	1175	184	822	3808
33	1	1	1597	1176	183	822	3808
34	1	1	1505	1176	184	822	3807
35	1	1	1404	1175	183	822	3807
36	1	1	1262	1177	184	822	3807
37	1	1	1316	1181	183	822	3807
38	1	1	1503	1181	184	822	3808
39	1	1	1724	1180	184	822	3807
40	1	1	2013	1181	184	822	3808
41	1	1	2270	1181	184	822	3807
42	1	1	2451	1181	183	822	3808
43	1	1	2574	1180	183	822	3808
44	1	1	2641	1180	183	822	3807
45	1	1	2705	1180	184	822	3806
46	1	1	2763	1180	184	822	3807
47	1	1	2669	1175	183	822	3808
48	1	1	2485	1174	183	822	3808
49	1	1	2295	1175	184	822	3808
50	1	1	2102	1175	184	822	3807
51	1	1	1916	1175	183	822	3808
52	1	1	1746	1175	184	822	3808
53	1	1	1609	1176	184	822	3808
54	1	1	1520	1176	184	822	3807
55	1	1	1412	1175	184	822	3808
56	1	1	1264	1176	184	822	3807
57	1	1	1311	1181	183	822	3808
58	1	1	1500	1181	184	822	3808
59	1	1	1722	1180	184	822	3807
60	1	1	2011	1180	183	822	3807
61	1	1	2274	1179	184	822	3808
62	1	1	2454	1180	184	822	3807
63	1	1	2571	1179	184	821	3808
64	1	1	2637	1180	185	822	3807
65	1	1	2701	1180	183	822	3807
66	1	1	2763	1180	183	822	3808
67	1	1	2674	1174	184	822	3807
68	1	1	2486	1174	183	822	3808
69	1	1	2287	1174	183	822	3807
70	1	1	2087	1174	183	822	3808
71	1	1	1903	1175	184	822	3808
72	1	1	1733	1174	183	822	3807
73	1	1	1598	1176	183	822	3808
74	1	1	1510	1175	184	822	3807
75	1	1	1412	1175	184	822	3807
76	1	1	1266	1175	184	822	3806
77	1	1	1313	1180	184	822	3806
78	1	1	1498	1180	183	821	3807
79	1	1	1715	1181	184	822	3807
80	1	1	2002	1180	183	822	3807
81	1	1	2266	1180	183	822	3807
82	1	1	2452	1180	183	822	3807
83	1	1	2575	1180	183	821	3808
84	1	1	2643	1180	183	822	3807
85	1	1	2707	1179	183	822	3807
86	1	1	2766	1179	184	822	3806
87	1	1	2676	1174	184	822	3807
88	1	1	2492	1174	183	821	3807
89	1	1	2300	1174	183	822	3807
90	1	1	2101	1174	184	822	3808
91	1	1	1919	1174	183	822	3808
92	1	1	1744	1174	183	822	3808
93	1	1	1607	1175	182	822	3808
94	1	1	1514	1175	183	822	3807
95	1	1	1410	1174	183	822	3807
96	1	1	1261	1176	183	822	3807
97	1	1	1306	1179	184	822	3807
98	1	1	1497	1179	185	821	3807
99	1	1	1720	1179	184	822	3807
100	1	1	2004	1179	183	822	3807
101	1	1	2264	1180	184	822	3807
102	1	1	2443	1180	184	822	3807
103	1	1	2564	1179	184	822	3808
104	1	1	2634	1179	184	822	3808
105	1	1	2699	1179	183	822	3808
106	1	1	2761	1179	183	822	3808
107	1	1	2672	1174	184	822	3807
108	1	1	2490	1174	183	822	3808
109	1	1	2300	1174	184	822	3807
110	1	1	2102	1173	183	822	3808
111	1	1	1919	1174	184	822	3808
112	1	1	1743	1174	183	822	3807
113	1	1	1603	1174	183	822	3808
114	1	1	1515	1175	183	822	3808
115	1	1	1416	1175	183	822	3807
116	1	1	1268	1175	183	822	3807
117	1	1	1315	1179	184	822	3807
118	1	1	1500	1180	183	822	3807
119	1	1	1721	1179	184	822	3807
120	1	1	2001	1179	183	822	3807
121	1	1	2263	1179	183	822	3807
122	1	1	2449	1180	183	822	3807
123	1	1	2574	1179	183	822	3808
124	1	1	2641	1179	184	822	3807
125	1	1	2705	1179	184	822	3807
126	1	1	2768	1179	184	822	3806
127	1	1	2683	1174	184	822	3807
0	1	1	2501	1174	184	822	3808
1	1	1	2303	1174	183	822	3807
2	1	1	2108	1174	183	822	3808
3	1	1	1924	1174	183	822	3808
4	1	1	1749	1174	184	822	3807
5	1	1	1613	1174	184	822	3808
6	1	1	1521	1175	184	822	3807
7	1	1	1421	1174	184	822	3808
8	1	1	1274	1175	183	822	3807
9	1	1	1316	1179	185	822	3807
10	1	1	1503	1180	184	822	3808
11	1	1	1720	1180	184	822	3806
12	1	1	1997	1179	183	822	3808
13	1	1	2262	1179	183	822	3808
14	1	1	2445	1179	184	822	3807
15	1	1	2570	1179	183	821	3808
16	1	1	2636	1178	184	822	3807
17	1	1	2701	1178	183	822	3807
18	1	1	2763	1178	183	822	3807
19	1	1	2677	1174	184	822	3807
20	1	1	2500	1173	184	823	3808
21	1	1	2311	1173	183	822	3807
22	1	1	2119	1173	184	822	3808
23	1	1	1931	1173	184	822	3807
24	1	1	1752	1173	184	822	3807
25	1	1	1612	1174	183	821	3807
26	1	1	1519	1174	184	822	3807
27	1	1	1419	1174	183	822	3807
28	1	1	1273	1175	184	822	3807
29	1	1	1316	1179	184	823	3808
30	1	1	1504	1179	184	821	3808
31	1	1	1725	1178	184	822	3808
32	1	1	2008	1179	183	822	3807
33	1	1	2275	1179	183	822	3807
34	1	1	2462	1178	183	822	3808
35	1	1	2587	1178	183	821	3808
36	1	1	2653	1177	184	821	3807
37	1	1	2706	1178	183	822	3807
38	1	1	2766	1178	183	822	3806
39	1	1	2679	1173	184	822	3807
40	1	1	2499	1172	184	821	3808
41	1	1	2304	1173	184	822	3807
42	1	1	2104	1173	182	822	3808
43	1	1	1920	1173	183	822	3808
44	1	1	1747	1173	183	822	3808
45	1	1	1604	1173	184	822	3808
46	1	1	1513	1174	183	822	3807
47	1	1	1416	1173	184	822	3808
48	1	1	1272	1174	184	822	3807
49	1	1	1313	1179	183	822	3807
50	1	1	1493	1179	183	821	3808
51	1	1	1705	1178	184	822	3807
52	1	1	1988	1178	184	822	3807
53	1	1	2264	1179	183	822	3808
54	1	1	2452	1179	184	822	3808
55	1	1	2569	1177	185	822	3808
56	1	1	2635	1177	183	822	3808
57	1	1	2696	1177	182	823	3807
58	1	1	2758	1178	183	822	3806
59	1	1	2674	1173	183	822	3807
60	1	1	2494	1172	183	821	3808
61	1	1	2306	1172	184	822	3807
62	1	1	2110	1173	183	823	3807
63	1	1	1927	1173	184	822	3807
64	1	1	1752	1173	184	822	3807
65	1	1	1616	1173	184	821	3808
66	1	1	1529	1173	183	822	3807
67	1	1	1431	1173	184	822	3808
68	1	1	1280	1174	184	822	3808
69	1	1	1316	1178	184	822	3808
70	1	1	1496	1178	184	822	3807
71	1	1	1711	1178	183	822	3807
72	1	1	1992	1178	183	822	3807
73	1	1	2258	1178	184	822	3807
74	1	1	2443	1177	184	822	3808
75	1	1	2567	1178	183	821	3808
76	1	1	2638	1178	183	822	3807
77	1	1	2700	1177	184	822	3807
78	1	1	2766	1178	183	822	3807
79	1	1	2679	1172	184	822	3806
80	1	1	2499	1171	184	822	3808
81	1	1	2310	1172	184	822	3807
82	1	1	2111	1172	183	822	3807
83	1	1	1927	1172	184	822	3807
84	1	1	1754	1172	184	822	3808
85	1	1	1615	1173	184	822	3808
86	1	1	1523	1173	184	822	3807
87	1	1	1422	1172	184	822	3808
88	1	1	1269	1174	184	822	3808
89	1	1	1305	1178	183	822	3807
90	1	1	1489	1178	183	822	3808
91	1	1	1710	1177	184	822	3807
92	1	1	1997	1178	184	822	3808
93	1	1	2270	1178	184	822	3808
94	1	1	2456	1177	184	822	3808
95	1	1	2583	1177	184	822	3808
96	1	1	2651	1177	184	822	3807
97	1	1	2706	1177	183	822	3808
98	1	1	2768	1177	183	822	3807
99	1	1	2685	1172	184	822	3807
100	1	1	2503	1171	183	822	3807
101	1	1	2313	1171	185	822	3807
102	1	1	2117	1172	184	822	3807
103	1	1	1929	1172	183	822	3807
104	1	1	1752	1173	184	822	3807
105	1	1	1608	1172	183	822	3808
106	1	1	1516	1173	183	822	3807
107	1	1	1417	1172	185	822	3807
108	1	1	1268	1173	183	822	3807
109	1	1	1306	1178	185	822	3808
110	1	1	1484	1177	183	822	3807
111	1	1	1703	1177	184	822	3808
112	1	1	1984	1178	185	822	3807
113	1	1	2249	1177	183	822	3808
114	1	1	2437	1177	184	822	3808
115	1	1	2561	1177	184	822	3808
116	1	1	2628	1177	184	822	3808
117	1	1	2692	1177	184	822	3807
118	1	1	2759	1177	183	822	3807
119	1	1	2681	1172	183	822	3806
120	1	1	2503	1172	183	822	3808
121	1	1	2313	1170	183	822	3807
122	1	1	2112	1172	183	822	3808
123	1	1	1927	1171	183	822	3807
124	1	1	1754	1172	184	822	3808
125	1	1	1611	1172	184	822	3808
126	1	1	1521	1173	184	822	3807
127	1	1	1425	1172	183	822	3807
0	1	1	1275	1173	183	822	3807
1	1	1	1312	1176	184	822	3807
2	1	1	1490	1177	184	822	3807
3	1	1	1704	1177	183	822	3807
4	1	1	1982	1178	185	822	3807
5	1	1	2251	1177	183	822	3808
6	1	1	2441	1178	184	822	3808
7	1	1	2568	1176	183	822	3808
8	1	1	2639	1177	183	822	3808
9	1	1	2702	1177	183	822	3807
10	1	1	2769	1176	183	823	3807
11	1	1	2690	1171	183	822	3807
12	1	1	2508	1171	184	822	3808
13	1	1	2319	1171	183	822	3807
14	1	1	2124	1170	183	822	3808
15	1	1	1940	1171	184	822	3807
16	1	1	1763	1171	184	822	3808
17	1	1	1616	1172	184	821	3808
18	1	1	1521	1172	183	822	3807
19	1	1	1418	1172	184	822	3807
20	1	1	1265	1172	184	822	3807
21	1	1	1298	1178	184	822	3808
22	1	1	1478	1177	184	822	3807
23	1	1	1703	1176	184	822	3807
24	1	1	1987	1176	183	822	3807
25	1	1	2254	1177	184	822	3808
26	1	1	2444	1176	184	822	3808
27	1	1	2569	1177	183	822	3808
28	1	1	2637	1177	183	822	3807
29	1	1	2691	1175	183	822	3807
30	1	1	2755	1176	184	822	3807
31	1	1	2680	1172	183	822	3808
32	1	1	2506	1171	183	822	3807
33	1	1	2319	1171	183	822	3807
34	1	1	2127	1171	184	822	3807
35	1	1	1944	1171	184	822	3808
36	1	1	1765	1172	183	822	3808
37	1	1	1624	1171	184	822	3807
38	1	1	1526	1172	183	822	3807
39	1	1	1429	1172	183	822	3807
40	1	1	1283	1172	183	822	3807
41	1	1	1317	1177	184	822	3807
42	1	1	1496	1176	183	822	3808
43	1	1	1710	1177	184	822	3808
44	1	1	1987	1177	183	822	3807
45	1	1	2253	1176	183	822	3808
46	1	1	2441	1176	184	822	3808
47	1	1	2564	1176	184	822	3807
48	1	1	2638	1176	183	822	3807
49	1	1	2697	1176	183	822	3807
50	1	1	2765	1177	183	822	3806
51	1	1	2686	1171	183	822	3807
52	1	1	2511	1171	184	822	3808
53	1	1	2316	1170	182	822	3807
54	1	1	2119	1170	184	822	3807
55	1	1	1935	1170	183	822	3807
56	1	1	1757	1171	185	822	3807
57	1	1	1614	1171	183	822	3807
58	1	1	1524	1171	183	822	3808
59	1	1	1432	1171	185	822	3807
60	1	1	1277	1171	182	822	3807
61	1	1	1307	1176	183	822	3808
62	1	1	1485	1177	183	822	3807
63	1	1	1703	1176	183	822	3808
64	1	1	1983	1176	185	822	3807
65	1	1	2251	1176	183	822	3807
66	1	1	2441	1176	184	822	3808
67	1	1	2569	1175	183	822	3807
68	1	1	2641	1175	183	822	3807
69	1	1	2703	1177	184	822	3807
70	1	1	2769	1176	182	823	3806
71	1	1	2689	1170	184	822	3807
72	1	1	2507	1170	182	822	3807
73	1	1	2311	1170	183	822	3807
74	1	1	2109	1170	184	822	3807
75	1	1	1926	1170	182	822	3808
76	1	1	1753	1171	184	822	3808
77	1	1	1610	1171	183	822	3808
78	1	1	1521	1171	184	822	3808
79	1	1	1434	1171	184	822	3807
80	1	1	1279	1171	183	823	3806
81	1	1	1307	1175	184	822	3807
82	1	1	1483	1176	183	822	3807
83	1	1	1700	1175	184	821	3807
84	1	1	1979	1176	184	822	3808
85	1	1	2247	1176	183	822	3808
86	1	1	2438	1175	183	822	3808
87	1	1	2561	1175	184	822	3808
88	1	1	2630	1176	184	822	3808
89	1	1	2687	1175	185	822	3806
90	1	1	2755	1176	184	823	3807
91	1	1	2680	1170	183	822	3807
92	1	1	2505	1170	183	822	3808
93	1	1	2315	1169	183	822	3807
94	1	1	2123	1170	183	822	3807
95	1	1	1938	1170	183	821	3807
96	1	1	1761	1170	184	822	3808
97	1	1	1613	1170	183	822	3808
98	1	1	1523	1171	183	822	3807
99	1	1	1433	1170	184	822	3807
100	1	1	1280	1171	183	822	3806
101	1	1	1304	1175	183	822	3807
102	1	1	1487	1176	184	822	3808
103	1	1	1702	1176	184	822	3807
104	1	1	1985	1176	183	822	3808
105	1	1	2254	1175	184	822	3808
106	1	1	2449	1175	183	823	3808
107	1	1	2577	1175	183	822	3808
108	1	1	2643	1175	184	822	3807
109	1	1	2698	1175	184	822	3808
110	1	1	2768	1175	184	822	3808
111	1	1	2695	1170	183	822	3807
112	1	1	2516	1169	183	822	3807
113	1	1	2321	1170	183	822	3808
114	1	1	2126	1170	184	821	3807
115	1	1	1939	1170	182	823	3807
116	1	1	1761	1169	183	822	3808
117	1	1	1613	1170	184	822	3808
118	1	1	1520	1170	183	822	3807
119	1	1	1433	1170	184	822	3807
120	1	1	1279	1171	183	822	3807
121	1	1	1304	1174	184	822	3807
122	1	1	1486	1175	184	822	3807
123	1	1	1700	1175	184	822	3807
124	1	1	1977	1175	184	822	3807
125	1	1	2248	1175	183	822	3808
126	1	1	2444	1175	184	822	3808
127	1	1	2574	1175	183	822	3808
0	1	1	2644	1174	183	822	3807
1	1	1	2696	1174	183	822	3808
2	1	1	2764	1175	184	822	3808
3	1	1	2688	1169	183	822	3807
4	1	1	2514	1169	184	822	3807
5	1	1	2320	1169	183	822	3807
6	1	1	2124	1169	183	822	3807
7	1	1	1941	1169	184	822	3807
8	1	1	1765	1170	183	822	3808
9	1	1	1617	1170	183	822	3808
10	1	1	1520	1171	183	822	3808
11	1	1	1427	1170	183	822	3807
12	1	1	1268	1170	184	822	3807
13	1	1	1290	1175	184	822	3807
14	1	1	1471	1175	184	822	3807
15	1	1	1689	1175	184	822	3807
16	1	1	1975	1174	183	822	3807
17	1	1	2247	1175	184	822	3808
18	1	1	2439	1175	184	827	3807
19	1	1	2569	1175	183	822	3808
20	1	1	2636	1174	183	822	3807
21	1	1	2690	1175	183	822	3806
22	1	1	2760	1175	183	821	3806
23	1	1	2687	1169	183	822	3807
24	1	1	2507	1169	182	822	3807
25	1	1	2314	1168	183	822	3807
26	1	1	2122	1169	184	822	3807
27	1	1	1937	1169	185	822	3808
28	1	1	1759	1170	185	822	3808
29	1	1	1612	1169	184	822	3808
30	1	1	1518	1170	183	822	3808
31	1	1	1430	1169	185	822	3807
32	1	1	1276	1170	184	822	3807
33	1	1	1296	1175	184	822	3808
34	1	1	1469	1174	183	821	3807
35	1	1	1682	1175	184	822	3807
36	1	1	1964	1174	184	822	3807
37	1	1	2233	1175	184	822	3807
38	1	1	2427	1174	183	822	3808
39	1	1	2557	1174	183	823	3808
40	1	1	2632	1175	184	822	3807
41	1	1	2692	1174	184	822	3807
42	1	1	2764	1175	184	822	3807
43	1	1	2695	1169	184	822	3807
44	1	1	2517	1169	184	822	3807
45	1	1	2320	1169	183	822	3807
46	1	1	2119	1169	183	822	3807
47	1	1	1934	1169	185	822	3808
48	1	1	1763	1169	183	822	3808
49	1	1	1621	1169	183	822	3808
50	1	1	1529	1170	184	822	3808
51	1	1	1440	1170	183	821	3807
52	1	1	1281	1169	184	822	3806
53	1	1	1296	1174	183	822	3807
54	1	1	1471	1174	184	822	3807
55	1	1	1689	1174	184	822	3807
56	1	1	1970	1174	185	822	3807
57	1	1	2241	1174	184	822	3807
58	1	1	2436	1174	183	822	3808
59	1	1	2565	1174	184	822	3808
60	1	1	2638	1174	184	822	3807
61	1	1	2698	1173	184	822	3807
62	1	1	2767	1174	183	822	3807
63	1	1	2699	1169	184	822	3808
64	1	1	2521	1168	183	822	3808
65	1	1	2330	1169	184	823	3807
66	1	1	2135	1168	183	822	3807
67	1	1	1947	1169	182	822	3807
68	1	1	1770	1168	183	822	3808
69	1	1	1621	1169	183	822	3808
70	1	1	1523	1169	183	822	3807
71	1	1	1433	1169	184	822	3807
72	1	1	1270	1169	183	822	3807
73	1	1	1285	1174	184	823	3807
74	1	1	1459	1174	184	822	3808
75	1	1	1674	1174	184	822	3807
76	1	1	1959	1174	183	822	3808
77	1	1	2229	1174	183	822	3808
78	1	1	2424	1173	184	822	3808
79	1	1	2560	1174	183	822	3809
80	1	1	2639	1174	183	822	3807
81	1	1	2699	1174	184	821	3808
82	1	1	2772	1174	184	822	3808
83	1	1	2702	1168	183	822	3807
84	1	1	2523	1168	184	822	3808
85	1	1	2329	1168	183	822	3807
86	1	1	2133	1168	183	822	3808
87	1	1	1945	1168	182	822	3807
88	1	1	1766	1167	184	822	3808
89	1	1	1619	1168	183	822	3807
90	1	1	1519	1169	183	822	3807
91	1	1	1427	1168	184	823	3807
92	1	1	1267	1169	184	822	3807
93	1	1	1281	1173	183	822	3807
94	1	1	1456	1173	184	822	3808
95	1	1	1674	1173	184	822	3807
96	1	1	1951	1173	184	823	3807
97	1	1	2223	1174	184	822	3808
98	1	1	2422	1174	184	822	3808
99	1	1	2556	1173	183	822	3808
100	1	1	2635	1173	184	821	3807
101	1	1	2693	1172	184	822	3807
102	1	1	2766	1173	184	822	3808
103	1	1	2700	1168	183	822	3807
104	1	1	2531	1167	183	822	3807
105	1	1	2336	1168	184	822	3807
106	1	1	2136	1168	183	822	3808
107	1	1	1950	1168	183	822	3808
108	1	1	1766	1167	183	822	3808
109	1	1	1616	1168	183	822	3807
110	1	1	1520	1169	184	823	3808
111	1	1	1430	1169	184	822	3807
112	1	1	1266	1168	184	822	3807
113	1	1	1281	1173	184	822	3807
114	1	1	1459	1173	183	822	3807
115	1	1	1676	1173	184	822	3807
116	1	1	1955	1173	184	822	3808
117	1	1	2233	1173	183	822	3808
118	1	1	2432	1172	184	822	3808
119	1	1	2566	1173	184	822	3808
120	1	1	2643	1173	183	822	3808
121	1	1	2703	1173	185	822	3807
122	1	1	2779	1172	183	822	3807
123	1	1	2713	1167	184	822	3807
124	1	1	2537	1167	183	822	3808
125	1	1	2339	1167	183	822	3807
126	1	1	2139	1167	182	822	3808
127	1	1	1953	1167	184	822	3807
0	1	1	1773	1167	183	822	3808
1	1	1	1619	1168	183	822	3808
2	1	1	1518	1168	184	822	3807
3	1	1	1425	1168	183	823	3807
4	1	1	1263	1168	184	822	3807
5	1	1	1275	1172	183	822	3807
6	1	1	1455	1173	184	822	3807
7	1	1	1676	1173	184	822	3807
8	1	1	1953	1173	184	823	3807
9	1	1	2226	1172	184	822	3808
10	1	1	2430	1173	183	822	3808
11	1	1	2565	1173	184	822	3807
12	1	1	2644	1172	183	822	3808
13	1	1	2706	1172	184	823	3808
14	1	1	2777	1173	183	822	3806
15	1	1	2711	1167	183	822	3807
16	1	1	2534	1167	184	822	3807
17	1	1	2338	1167	183	822	3808
18	1	1	2139	1167	184	822	3808
19	1	1	1956	1167	183	822	3808
20	1	1	1782	1167	183	822	3808
21	1	1	1628	1167	184	822	3807
22	1	1	1525	1168	184	822	3807
23	1	1	1435	1167	184	822	3808
24	1	1	1273	1168	184	823	3807
25	1	1	1284	1172	183	822	3807
26	1	1	1459	1172	184	822	3807
27	1	1	1674	1172	184	822	3807
28	1	1	1956	1172	184	822	3807
29	1	1	2228	1172	182	822	3808
30	1	1	2428	1172	183	822	3808
31	1	1	2563	1173	183	822	3808
32	1	1	2642	1172	183	822	3807
33	1	1	2699	1173	183	822	3807
34	1	1	2775	1171	182	822	3808
35	1	1	2713	1166	183	822	3808
36	1	1	2538	1167	184	822	3808
37	1	1	2339	1167	183	822	3807
38	1	1	2138	1167	183	822	3808
39	1	1	1951	1167	185	822	3807
40	1	1	1773	1166	183	822	3808
41	1	1	1622	1167	183	822	3807
42	1	1	1524	1167	184	823	3808
43	1	1	1435	1167	184	823	3807
44	1	1	1272	1167	185	822	3807
45	1	1	1282	1172	183	822	3807
46	1	1	1459	1173	183	822	3808
47	1	1	1676	1172	183	822	3807
48	1	1	1953	1172	184	822	3808
49	1	1	2231	1172	183	822	3807
50	1	1	2431	1172	182	822	3808
51	1	1	2564	1171	184	822	3808
52	1	1	2638	1172	183	822	3808
53	1	1	2701	1172	185	822	3807
54	1	1	2776	1172	184	822	3807
55	1	1	2716	1166	183	822	3808
56	1	1	2542	1166	183	822	3807
57	1	1	2344	1166	183	822	3807
58	1	1	2144	1166	184	822	3807
59	1	1	1955	1166	183	822	3808
60	1	1	1771	1167	183	822	3808
61	1	1	1621	1167	185	823	3808
62	1	1	1515	1167	183	822	3807
63	1	1	1426	1167	183	822	3807
64	1	1	1265	1167	185	822	3807
65	1	1	1271	1172	184	822	3807
66	1	1	1446	1172	183	822	3807
67	1	1	1661	1172	184	822	3808
68	1	1	1941	1172	184	821	3808
69	1	1	2218	1172	185	822	3807
70	1	1	2421	1172	184	822	3808
71	1	1	2562	1172	183	823	3808
72	1	1	2644	1171	184	822	3807
73	1	1	2706	1172	184	822	3807
74	1	1	2783	1171	183	822	3806
75	1	1	2720	1166	184	822	3807
76	1	1	2545	1166	183	822	3807
77	1	1	2350	1166	184	822	3807
78	1	1	2148	1166	184	822	3808
79	1	1	1955	1166	184	822	3808
80	1	1	1772	1166	183	822	3808
81	1	1	1621	1166	184	822	3807
82	1	1	1516	1167	184	822	3807
83	1	1	1424	1166	183	822	3807
84	1	1	1263	1166	185	822	3807
85	1	1	1269	1171	184	822	3808
86	1	1	1441	1171	183	822	3807
87	1	1	1657	1172	183	822	3808
88	1	1	1940	1172	184	821	3807
89	1	1	2225	1171	182	822	3808
90	1	1	2432	1171	183	822	3808
91	1	1	2568	1171	183	822	3807
92	1	1	2648	1171	183	822	3807
93	1	1	2704	1171	184	822	3807
94	1	1	2777	1171	183	822	3807
95	1	1	2715	1166	184	822	3807
96	1	1	2544	1165	182	822	3808
97	1	1	2349	1165	183	822	3807
98	1	1	2148	1165	183	822	3807
99	1	1	1961	1166	185	822	3808
100	1	1	1775	1165	183	822	3808
101	1	1	1621	1166	183	822	3808
102	1	1	1520	1167	184	822	3807
103	1	1	1434	1166	183	822	3807
104	1	1	1270	1166	184	822	3808
105	1	1	1271	1172	184	823	3807
106	1	1	1440	1172	183	822	3808
107	1	1	1656	1171	183	822	3808
108	1	1	1939	1171	184	822	3807
109	1	1	2222	1171	183	822	3808
110	1	1	2427	1171	184	822	3808
111	1	1	2568	1171	184	822	3807
112	1	1	2647	1170	185	822	3808
113	1	1	2704	1171	184	822	3807
114	1	1	2779	1171	184	822	3807
115	1	1	2721	1166	182	822	3808
116	1	1	2551	1166	183	822	3808
117	1	1	2355	1166	183	822	3807
118	1	1	2155	1165	183	822	3808
119	1	1	1965	1165	183	822	3807
120	1	1	1782	1165	184	822	3808
121	1	1	1629	1166	184	822	3808
122	1	1	1526	1167	184	823	3808
123	1	1	1443	1166	184	822	3807
124	1	1	1279	1166	184	822	3807
125	1	1	1276	1171	183	822	3808
126	1	1	1446	1172	183	822	3808
127	1	1	1657	1171	184	822	3807
0	1	1	1937	1171	183	822	3808
1	1	1	2219	1171	184	822	3808
2	1	1	2428	1171	184	822	3808
3	1	1	2566	1170	183	822	3808
4	1	1	2643	1170	183	822	3807
5	1	1	2698	1170	183	822	3807
6	1	1	2775	1170	184	822	3807
7	1	1	2715	1165	183	823	3808
8	1	1	2543	1165	183	822	3807
9	1	1	2343	1165	183	822	3807
10	1	1	2138	1165	183	822	3807
11	1	1	1950	1165	183	822	3808
12	1	1	1771	1165	182	822	3808
13	1	1	1619	1165	184	822	3808
14	1	1	1517	1166	183	822	3808
15	1	1	1429	1166	183	821	3807
16	1	1	1263	1166	183	822	3807
17	1	1	1263	1171	184	822	3807
18	1	1	1431	1170	184	822	3808
19	1	1	1643	1170	184	822	3807
20	1	1	1921	1171	184	822	3808
21	1	1	2200	1171	184	822	3808
22	1	1	2413	1170	183	822	3808
23	1	1	2558	1171	183	822	3808
24	1	1	2639	1171	184	822	3808
25	1	1	2703	1171	184	822	3808
26	1	1	2786	1170	182	822	3807
27	1	1	2727	1165	184	822	3808
28	1	1	2555	1165	183	822	3808
29	1	1	2356	1164	183	822	3807
30	1	1	2151	1165	184	822	3808
31	1	1	1967	1165	184	822	3808
32	1	1	1783	1165	184	822	3808
33	1	1	1628	1165	183	822	3808
34	1	1	1525	1166	184	822	3807
35	1	1	1439	1165	184	822	3808
36	1	1	1271	1165	184	822	3807
37	1	1	1263	1170	184	822	3808
38	1	1	1431	1170	183	822	3808
39	1	1	1646	1171	183	822	3808
40	1	1	1919	1171	183	821	3808
41	1	1	2202	1170	184	822	3808
42	1	1	2412	1170	183	822	3808
43	1	1	2555	1170	184	822	3808
44	1	1	2637	1170	184	822	3808
45	1	1	2701	1170	183	822	3807
46	1	1	2780	1170	183	822	3807
47	1	1	2724	1165	184	822	3808
48	1	1	2554	1164	183	822	3807
49	1	1	2354	1164	184	822	3807
50	1	1	2148	1165	183	822	3808
51	1	1	1961	1165	183	822	3808
52	1	1	1777	1164	184	822	3808
53	1	1	1624	1165	183	822	3808
54	1	1	1520	1165	183	822	3807
55	1	1	1434	1165	184	822	3808
56	1	1	1268	1165	184	822	3808
57	1	1	1258	1169	183	822	3807
58	1	1	1424	1170	184	822	3808
59	1	1	1643	1171	183	822	3807
60	1	1	1923	1170	184	822	3808
61	1	1	2205	1169	185	822	3808
62	1	1	2413	1170	184	822	3808
63	1	1	2553	1169	184	822	3808
64	1	1	2637	1170	183	822	3807
65	1	0	2700	1169	183	822	3807
66	1	0	2784	1169	184	822	3807
67	1	0	2734	1165	185	822	3808
68	1	0	2560	1164	183	822	3807
69	1	0	2365	1164	183	822	3808
70	1	0	2163	1164	183	822	3808
71	1	0	1975	1164	184	822	3808
72	1	0	1791	1164	184	822	3808
73	1	0	1638	1164	183	822	3808
74	1	0	1530	1166	182	822	3808
75	1	0	1440	1164	183	822	3807
76	1	0	1269	1164	184	822	3807
77	1	0	1259	1170	183	822	3807
78	1	0	1425	1169	184	822	3807
79	1	0	1638	1169	183	822	3807
80	1	0	1912	1170	183	822	3808
81	1	0	2198	1170	184	822	3808
82	1	0	2411	1169	184	822	3808
83	1	0	2557	1170	183	822	3809
84	1	0	2639	1170	183	822	3807
85	1	0	2699	1169	183	822	3807
86	1	0	2780	1169	184	822	3807
87	1	0	2729	1164	184	822	3808
88	1	0	2555	1164	184	822	3807
89	1	0	2361	1164	184	822	3807
90	1	0	2162	1163	184	822	3808
91	1	0	1974	1164	184	822	3808
92	1	0	1786	1165	183	822	3808
93	1	0	1627	1164	184	822	3808
94	1	0	1521	1165	183	822	3808
95	1	0	1435	1164	184	823	3808
96	1	0	1270	1164	183	822	3807
97	1	0	1262	1169	184	822	3808
98	1	0	1426	1169	184	822	3807
99	1	0	1645	1170	183	822	3808
100	1	0	1923	1170	184	822	3808
101	1	0	2203	1169	184	822	3808
102	1	0	2410	1168	183	822	3808
103	1	0	2550	1169	183	822	3808
104	1	0	2631	1168	184	822	3808
105	1	0	2688	1169	183	822	3808
106	1	0	2767	1169	184	823	3808
107	1	0	2717	1164	185	822	3808
108	1	0	2548	1163	183	822	3807
109	1	0	2355	1163	183	822	3808
110	1	0	2158	1163	183	823	3808
111	1	0	1966	1163	184	822	3808
112	1	0	1783	1163	184	822	3808
113	1	0	1629	1164	184	822	3808
114	1	0	1524	1165	184	822	3808
115	1	0	1441	1164	183	822	3808
116	1	0	1276	1164	184	823	3808
117	1	0	1267	1169	184	822	3808
118	1	0	1431	1169	184	822	3807
119	1	0	1644	1169	184	822	3807
120	1	0	1917	1169	184	822	3808
121	1	0	2199	1170	183	822	3808
122	1	0	2408	1169	184	823	3808
123	1	0	2544	1168	184	822	3808
124	1	0	2625	1168	183	822	3807
125	1	0	2683	1168	184	822	3808
126	1	0	2761	1169	185	822	3807
127	1	0	2705	1163	183	822	3808
0	1	0	2530	1163	183	822	3808
1	1	0	2324	1163	184	822	3807
2	1	0	2127	1163	183	822	3808
3	1	0	1943	1163	184	821	3807
4	1	0	1766	1163	184	822	3808
5	1	0	1621	1163	183	822	3807
6	1	0	1521	1164	183	822	3808
7	1	0	1446	1163	184	822	3807
8	1	0	1293	1164	184	822	3807
9	1	0	1291	1169	182	822	3808
10	1	0	1460	1168	184	822	3807
11	1	0	1676	1168	184	822	3807
12	1	0	1945	1168	184	822	3808
13	1	0	2219	1169	184	821	3808
14	1	0	2422	1169	183	822	3809
15	1	0	2558	1168	184	822	3808
16	1	0	2635	1168	183	822	3808
17	1	0	2685	1168	184	823	3808
18	1	0	2758	1169	183	822	3807
19	1	0	2701	1163	183	822	3808
20	1	0	2530	1162	184	822	3807
21	1	0	2343	1162	183	822	3807
22	1	0	2150	1163	184	822	3808
23	1	0	1968	1163	183	822	3808
24	1	0	1788	1163	183	822	3808
25	1	0	1637	1163	184	822	3808
26	1	0	1538	1163	183	822	3807
27	1	0	1462	1163	184	822	3807
28	1	0	1311	1163	185	823	3808
29	1	0	1303	1168	183	822	3808
30	1	0	1465	1169	184	823	3808
31	1	0	1676	1167	182	822	3807
32	1	0	1941	1168	184	822	3807
33	1	0	2217	1169	185	822	3808
34	1	0	2415	1168	183	822	3808
35	1	0	2549	1168	184	822	3808
36	1	0	2631	1168	183	823	3807
37	1	0	2678	1167	184	822	3807
38	1	0	2738	1168	185	822	3808
39	1	0	2683	1162	184	822	3808
40	1	0	2514	1163	184	822	3807
41	1	0	2329	1163	183	823	3808
42	1	0	2145	1162	184	822	3808
43	1	0	1972	1163	184	822	3808
44	1	0	1800	1163	183	822	3808
45	1	0	1656	1163	184	822	3809
46	1	0	1559	1163	185	822	3808
47	1	0	1489	1163	183	822	3807
48	1	0	1343	1163	184	821	3807
49	1	0	1329	1168	184	822	3808
50	1	0	1480	1169	184	822	3807
51	1	0	1683	1168	184	822	3808
52	1	0	1935	1168	183	822	3808
53	1	0	2202	1168	183	823	3808
54	0	0	2392	1167	184	822	3808
55	0	0	2514	1167	183	822	3808
56	0	0	2588	1168	183	823	3807
57	0	0	2629	1167	183	822	3808
58	0	0	2688	1167	183	822	3808
59	0	0	2639	1163	185	823	3808
60	0	0	2488	1162	183	822	3807
61	0	0	2313	1162	184	823	3807
62	0	0	2133	1162	184	822	3808
63	0	0	1965	1162	183	823	3808
64	0	0	1801	1162	184	822	3808
65	0	0	1658	1162	183	822	3808
66	0	0	1565	1163	183	823	3808
67	0	0	1502	1163	183	822	3808
68	0	0	1363	1163	183	822	3808
69	0	0	1348	1167	184	823	3808
70	0	0	1489	1168	183	822	3808
71	0	0	1681	1167	184	822	3807
72	0	0	1930	1167	184	822	3808
73	0	0	2198	1167	183	822	3808
74	0	0	2395	1167	184	823	3808
75	0	0	2530	1167	184	822	3808
76	0	0	2610	1166	185	822	3807
77	0	0	2655	1167	184	822	3807
78	0	0	2709	1167	183	823	3808
79	0	0	2659	1163	183	822	3808
80	0	0	2508	1161	183	822	3807
81	0	0	2333	1161	183	823	3808
82	0	0	2157	1162	182	822	3809
83	0	0	1984	1163	183	822	3808
84	0	0	1814	1162	184	822	3808
85	0	0	1667	1162	183	822	3809
86	0	0	1565	1163	183	822	3809
87	0	0	1498	1162	183	822	3807
88	0	0	1357	1163	184	823	3808
89	0	0	1346	1168	184	822	3808
90	0	0	1491	1167	184	822	3807
91	0	0	1685	1167	183	822	3808
92	0	0	1934	1168	184	822	3808
93	0	0	2194	1167	183	822	3808
94	0	0	2389	1167	185	822	3808
95	0	0	2522	1168	184	823	3809
96	0	0	2599	1167	184	822	3808
97	0	0	2644	1167	184	823	3808
98	0	0	2702	1167	184	822	3807
99	0	0	2653	1161	183	822	3808
100	0	0	2502	1162	184	822	3807
101	0	0	2320	1161	182	822	3808
102	0	0	2143	1161	183	822	3808
103	0	0	1980	1161	183	822	3808
104	0	0	1816	1161	183	822	3808
105	0	0	1672	1162	183	822	3808
106	0	0	1575	1163	183	822	3808
107	0	0	1505	1161	183	822	3807
108	0	0	1366	1162	183	822	3808
109	0	0	1349	1167	183	822	3808
110	0	0	1492	1167	183	822	3807
111	0	0	1687	1167	183	822	3807
112	0	0	1939	1167	184	822	3808
113	0	0	2196	1167	184	822	3808
114	0	0	2392	1167	184	822	3808
115	0	0	2525	1167	183	822	3808
116	0	0	2601	1166	184	822	3808
117	0	0	2642	1166	184	822	3808
118	0	0	2693	1167	184	822	3808
119	0	0	2643	1161	183	822	3808
120	0	0	2497	1161	183	822	3808
121	0	0	2327	1161	183	822	3808
122	0	0	2154	1161	183	822	3808
123	0	0	1987	1161	183	822	3809
124	0	0	1822	1161	184	822	3808
125	0	0	1677	1162	184	822	3808
126	0	0	1577	1162	183	823	3808
127	0	0	1513	1161	184	822	3808
0	0	0	1374	1162	184	822	3808
1	0	0	1355	1167	183	822	3808
2	0	0	1499	1167	183	822	3808
3	0	0	1684	1166	184	822	3808
4	0	0	1929	1166	184	822	3808
5	0	0	2187	1167	184	822	3808
6	0	0	2386	1166	184	822	3808
7	0	0	2515	1166	184	822	3808
8	0	0	2586	1166	183	822	3809
9	0	0	2626	1166	183	823	3808
10	0	0	2679	1166	183	822	3807
11	0	0	2633	1161	182	822	3808
12	0	0	2488	1161	184	822	3808
13	0	0	2317	1160	184	822	3808
14	0	0	2146	1161	184	822	3808
15	0	0	1986	1161	183	822	3808
16	0	0	1822	1161	184	822	3808
17	0	0	1679	1161	184	822	3808
18	0	0	1588	1161	182	822	3808
19	0	0	1525	1161	184	822	3808
20	0	0	1388	1161	184	823	3808
21	0	0	1365	1166	183	822	3808
22	0	0	1502	1166	184	822	3808
23	0	0	1689	1166	184	822	3807
24	0	0	1935	1166	184	822	3808
25	0	0	2188	1166	184	822	3808
26	0	0	2383	1165	182	822	3808
27	0	0	2512	1166	183	822	3808
28	0	0	2585	1166	183	822	3809
29	0	0	2628	1166	183	822	3808
30	0	0	2676	1166	183	822	3807
31	0	0	2629	1160	184	823	3808
32	0	0	2485	1160	183	822	3807
33	0	0	2317	1160	183	822	3808
34	0	0	2146	1159	184	822	3808
35	0	0	1984	1160	184	822	3808
36	0	0	1828	1160	183	822	3808
37	0	0	1691	1160	183	822	3808
38	0	0	1592	1161	183	822	3807
39	0	0	1524	1161	184	822	3808
40	0	0	1385	1161	184	822	3808
41	0	0	1369	1166	182	822	3808
42	0	0	1511	1165	183	822	3807
43	0	0	1697	1166	183	822	3808
44	0	0	1931	1166	184	823	3808
45	0	0	2187	1166	184	822	3808
46	0	0	2381	1165	183	822	3808
47	0	0	2507	1165	184	822	3808
48	0	0	2579	1165	183	822	3807
49	0	0	2623	1165	184	823	3808
50	0	0	2675	1165	184	822	3807
51	0	0	2628	1160	183	822	3808
52	0	0	2485	1160	183	822	3807
53	0	0	2315	1160	183	822	3808
54	0	0	2145	1159	183	822	3807
55	0	0	1989	1160	183	823	3808
56	0	0	1829	1160	183	822	3808
57	0	0	1686	1161	184	823	3809
58	0	0	1593	1161	184	822	3808
59	0	0	1529	1161	184	822	3808
60	0	0	1391	1161	184	822	3808
61	0	0	1366	1165	183	822	3808
62	0	0	1501	1165	184	822	3808
63	0	0	1690	1164	185	822	3808
64	0	0	1931	1165	183	822	3808
65	0	0	2183	1165	184	822	3808
66	0	0	2373	1165	184	822	3808
67	0	0	2502	1165	183	822	3808
68	0	0	2575	1165	184	823	3808
69	0	0	2612	1165	184	822	3807
70	0	0	2658	1165	183	822	3807
71	0	0	2616	1160	183	822	3808
72	0	0	2478	1159	183	822	3807
73	0	0	2313	1159	184	822	3808
74	0	0	2144	1158	183	822	3808
75	0	0	1990	1159	183	823	3809
76	0	0	1834	1159	184	822	3808
77	0	0	1697	1160	184	822	3808
78	0	0	1601	1161	184	822	3808
79	0	0	1539	1160	183	822	3807
80	0	0	1410	1160	184	823	3807
81	0	0	1389	1165	183	822	3808
82	0	0	1521	1165	185	822	3807
83	0	0	1697	1165	185	822	3807
84	0	0	1934	1165	183	822	3808
85	0	0	2188	1165	183	822	3808
86	0	0	2378	1165	183	823	3808
87	0	0	2498	1165	184	822	3807
88	0	0	2570	1165	184	822	3808
89	0	0	2609	1164	184	823	3807
90	0	0	2656	1165	183	823	3807
91	0	0	2609	1159	183	822	3808
92	0	0	2466	1159	183	822	3807
93	0	0	2298	1159	184	822	3808
94	0	0	2134	1159	182	822	3808
95	0	0	1978	1159	183	822	3808
96	0	0	1820	1159	183	822	3808
97	0	0	1685	1159	184	822	3808
98	0	0	1592	1160	183	822	3807
99	0	0	1535	1159	184	822	3808
100	0	0	1410	1160	184	822	3808
101	0	0	1392	1165	183	822	3808
102	0	0	1529	1164	183	822	3807
103	0	0	1710	1165	183	822	3808
104	0	0	1943	1165	184	823	3808
105	0	0	2192	1165	183	821	3807
106	0	0	2382	1164	183	822	3808
107	0	0	2509	1164	183	822	3808
108	0	0	2579	1164	183	822	3807
109	0	0	2617	1164	183	822	3807
110	0	0	2661	1164	183	822	3807
111	0	0	2612	1159	184	822	3808
112	0	0	2467	1158	185	822	3807
113	0	0	2303	1158	184	822	3807
114	0	0	2136	1158	184	822	3807
115	0	0	1980	1158	184	822	3807
116	0	0	1820	1158	183	822	3808
117	0	0	1685	1159	183	823	3808
118	0	0	1598	1161	184	822	3808
119	0	0	1545	1159	183	822	3807
120	0	0	1429	1160	183	823	3808
121	0	0	1420	1165	183	822	3808
122	0	0	1565	1164	183	822	3808
123	0	0	1748	1165	184	822	3807
124	0	0	1979	1164	184	822	3808
125	0	0	2224	1164	183	823	3808
126	0	0	2399	1164	183	822	3808
127	0	0	2510	1164	183	822	3807
0	0	0	2567	1163	184	822	3807
1	0	0	2586	1163	183	822	3807
2	0	0	2613	1163	184	823	3808
3	0	0	2556	1159	183	822	3808
4	0	0	2412	1157	183	822	3807
5	0	0	2249	1158	183	823	3807
6	0	0	2087	1157	184	823	3808
7	0	0	1940	1159	184	822	3808
8	0	0	1796	1158	182	822	3808
9	0	0	1676	1158	183	822	3808
10	0	0	1596	1160	184	822	3807
11	0	0	1551	1159	183	822	3807
12	0	0	1438	1159	183	823	3807
13	0	0	1439	1164	183	821	3808
14	0	0	1587	1164	183	822	3807
15	0	0	1779	1164	184	822	3808
16	0	0	2004	1164	183	824	3808
17	0	0	2243	1164	183	823	3808
18	0	0	2415	1164	184	823	3808
19	0	0	2514	1164	183	822	3807
20	0	0	2553	1163	184	822	3808
21	0	0	2562	1163	184	822	3807
22	0	0	2587	1163	184	822	3807
23	0	0	2531	1158	183	822	3808
24	0	0	2391	1158	183	822	3807
25	0	0	2230	1158	183	822	3807
26	0	0	2074	1157	184	822	3808
27	0	0	1930	1158	183	822	3808
28	0	0	1791	1158	184	822	3808
29	0	0	1675	1158	183	822	3808
30	0	0	1600	1159	184	822	3807
31	0	0	1564	1158	184	822	3808
32	0	0	1459	1158	184	822	3808
33	0	0	1459	1163	183	822	3808
34	0	0	1604	1164	184	823	3808
35	0	0	1788	1164	184	822	3807
36	0	0	2013	1163	184	822	3808
37	0	0	2248	1163	184	822	3808
38	0	0	2409	1163	183	822	3808
39	0	0	2503	1162	184	822	3807
40	0	0	2543	1163	185	822	3807
41	0	0	2557	1163	184	822	3808
42	0	0	2584	1163	184	822	3807
43	0	0	2530	1158	184	822	3807
44	0	0	2389	1157	183	822	3807
45	0	0	2231	1157	184	822	3807
46	0	0	2075	1157	184	822	3807
47	0	0	1929	1157	183	823	3808
48	0	0	1789	1158	184	823	3808
49	0	0	1673	1158	183	822	3807
50	0	0	1606	1159	183	822	3807
51	0	0	1573	1158	184	822	3808
52	0	0	1469	1158	185	822	3808
53	0	0	1466	1163	184	822	3808
54	0	0	1611	1163	184	822	3807
55	0	0	1793	1163	184	822	3807
56	0	0	2012	1163	184	822	3807
57	0	0	2242	1163	183	822	3808
58	0	0	2398	1163	184	822	3808
59	0	0	2492	1163	183	822	3807
60	0	0	2537	1163	183	823	3808
61	0	0	2552	1163	184	822	3808
62	0	0	2580	1162	183	823	3807
63	0	0	2528	1158	184	823	3808
64	0	0	2383	1156	183	822	3807
65	0	0	2221	1157	183	822	3807
66	0	0	2065	1157	184	822	3808
67	0	0	1923	1158	183	822	3808
68	0	0	1788	1157	182	822	3808
69	0	0	1677	1158	184	822	3807
70	0	0	1609	1159	184	822	3807
71	0	0	1576	1158	184	822	3807
72	0	0	1476	1159	184	823	3807
73	0	0	1470	1163	183	822	3808
74	0	0	1612	1164	184	822	3808
75	0	0	1792	1164	183	822	3807
76	0	0	2011	1162	184	822	3807
77	0	0	2239	1163	183	822	3808
78	0	0	2402	1163	184	823	3808
79	0	0	2498	1162	183	822	3808
80	0	0	2540	1162	183	823	3807
81	0	0	2549	1161	184	822	3807
82	0	0	2574	1162	183	822	3807
83	0	0	2518	1157	184	822	3808
84	0	0	2376	1157	183	823	3808
85	0	0	2220	1158	184	823	3807
86	0	0	2069	1156	184	822	3807
87	0	0	1933	1157	183	823	3808
88	0	0	1800	1157	182	822	3808
89	0	0	1685	1157	184	822	3808
90	0	0	1614	1158	183	822	3807
91	0	0	1583	1158	184	823	3807
92	0	0	1482	1158	183	822	3807
93	0	0	1479	1163	183	822	3808
94	0	0	1620	1163	184	822	3807
95	0	0	1802	1163	183	822	3807
96	0	0	2016	1162	184	822	3807
97	0	0	2237	1162	184	823	3807
98	0	0	2394	1162	183	823	3808
99	0	0	2488	1162	184	822	3807
100	0	0	2526	1162	184	822	3807
101	0	0	2533	1162	184	823	3807
102	0	0	2555	1162	183	823	3807
103	0	0	2507	1157	184	822	3808
104	0	0	2369	1157	184	822	3808
105	0	0	2212	1156	184	822	3807
106	0	0	2062	1156	183	822	3808
107	0	0	1925	1157	183	823	3808
108	0	0	1795	1157	184	822	3808
109	0	0	1687	1157	183	822	3808
110	0	0	1625	1158	184	822	3807
111	0	0	1594	1157	184	822	3807
112	0	0	1491	1158	183	823	3807
113	0	0	1483	1162	184	823	3808
114	0	0	1623	1162	183	822	3807
115	0	0	1797	1162	183	822	3807
116	0	0	2008	1162	183	823	3807
117	0	0	2239	1162	184	822	3807
118	0	0	2400	1162	183	822	3808
119	0	0	2491	1162	183	822	3807
120	0	0	2530	1161	184	822	3807
121	0	0	2535	1161	184	822	3807
122	0	0	2556	1161	184	822	3807
123	0	0	2511	1157	184	822	3808
124	0	0	2372	1156	183	822	3807
125	0	0	2219	1156	183	822	3808
126	0	0	2069	1157	182	822	3808
127	0	0	1932	1156	183	823	3808
0	0	0	1801	1157	184	822	3808
1	0	0	1693	1157	183	822	3807
2	0	0	1623	1158	184	822	3808
3	0	0	1591	1156	184	822	3807
4	0	0	1492	1157	184	822	3807
5	0	0	1484	1162	184	823	3807
6	0	0	1619	1162	184	822	3807
7	0	0	1798	1162	183	822	3807
8	0	0	2005	1162	184	822	3807
9	0	0	2229	1162	184	823	3808
10	0	0	2387	1161	184	823	3808
11	0	0	2483	1162	183	822	3808
12	0	0	2525	1163	183	822	3807
13	0	0	2529	1162	184	822	3807
14	0	0	2547	1161	184	823	3807
15	0	0	2498	1157	183	822	3807
16	0	0	2364	1156	184	822	3807
17	0	0	2214	1156	184	822	3807
18	0	0	2069	1156	183	823	3807
19	0	0	1938	1157	184	822	3808
20	0	0	1807	1157	183	823	3808
21	0	0	1694	1157	183	822	3807
22	0	0	1623	1157	183	823	3807
23	0	0	1591	1158	184	822	3807
24	0	0	1491	1157	183	823	3807
25	0	0	1483	1162	184	822	3807
26	0	0	1623	1162	183	822	3808
27	0	0	1800	1162	185	822	3807
28	0	0	2006	1162	184	822	3807
29	0	0	2231	1162	184	822	3807
30	0	0	2385	1161	183	822	3808
31	0	0	2472	1162	183	822	3807
32	0	0	2510	1161	183	822	3807
33	0	0	2515	1161	183	823	3807
34	0	0	2542	1161	184	823	3807
35	0	0	2495	1156	184	822	3808
36	0	0	2358	1155	184	822	3806
37	0	0	2206	1155	184	822	3808
38	0	0	2060	1156	184	822	3808
39	0	0	1927	1155	184	823	3808
40	0	0	1793	1155	183	822	3808
41	0	0	1679	1156	183	822	3807
42	0	0	1612	1157	184	822	3807
43	0	0	1582	1157	184	822	3807
44	0	0	1483	1156	184	823	3807
45	0	0	1466	1162	183	822	3807
46	0	0	1600	1162	184	823	3808
47	0	0	1775	1161	183	822	3807
48	0	0	1975	1162	184	822	3807
49	0	0	2188	1161	184	823	3807
50	0	0	2336	1161	184	822	3807
51	0	0	2422	1161	184	822	3807
52	0	0	2455	1160	184	822	3807
53	0	0	2459	1161	183	822	3807
54	0	0	2482	1160	184	823	3807
55	0	0	2435	1155	183	822	3807
56	0	0	2304	1155	184	821	3806
57	0	0	2158	1155	183	822	3807
58	0	0	2022	1155	183	823	3807
59	0	0	1895	1155	184	823	3807
60	0	0	1775	1155	183	822	3808
61	0	0	1677	1156	183	823	3808
62	0	0	1617	1157	183	822	3807
63	0	0	1596	1157	183	822	3807
64	0	0	1507	1156	184	823	3808
65	0	0	1502	1161	184	823	3807
66	0	0	1644	1161	184	823	3808
67	0	0	1820	1162	183	823	3807
68	0	0	2029	1161	183	822	3807
69	0	0	2254	1161	183	822	3808
70	0	0	2410	1161	184	823	3808
71	0	0	2499	1160	184	822	3807
72	0	0	2536	1160	184	822	3807
73	0	0	2544	1161	183	822	3807
74	0	0	2563	1160	183	823	3807
75	0	0	2517	1155	184	822	3807
76	0	0	2387	1155	185	822	3807
77	0	0	2234	1155	184	822	3808
78	0	0	2093	1155	183	823	3808
79	0	0	1957	1155	184	822	3807
80	0	0	1824	1155	183	822	3808
81	0	0	1713	1155	184	822	3807
82	0	0	1645	1157	184	822	3807
83	0	0	1615	1156	183	822	3807
84	0	0	1520	1156	183	823	3807
85	0	0	1507	1161	183	822	3807
86	0	0	1642	1161	184	822	3808
87	0	0	1822	1161	184	822	3807
88	0	0	2025	1160	183	822	3807
89	0	0	2241	1161	184	822	3808
90	0	0	2393	1160	183	823	3808
91	0	0	2484	1160	184	822	3807
92	0	0	2524	1160	184	822	3808
93	0	0	2530	1160	184	822	3808
94	0	0	2552	1159	183	822	3807
95	0	0	2506	1154	183	822	3807
96	0	0	2370	1155	183	823	3808
97	0	0	2210	1155	183	822	3807
98	0	0	2061	1155	183	822	3807
99	0	0	1928	1154	182	822	3807
100	0	0	1801	1155	183	823	3808
101	0	0	1692	1155	183	822	3807
102	0	0	1626	1156	185	822	3808
103	0	0	1595	1155	183	822	3807
104	0	0	1498	1156	183	822	3808
105	0	0	1485	1160	184	822	3807
106	0	0	1621	1159	184	822	3806
107	0	0	1798	1160	184	822	3807
108	0	0	1999	1160	184	823	3808
109	0	0	2224	1160	183	822	3807
110	0	0	2384	1160	184	823	3807
111	0	0	2470	1159	183	822	3807
112	0	0	2511	1159	184	822	3807
113	0	0	2524	1159	184	823	3808
114	0	0	2545	1159	184	823	3807
115	0	0	2500	1155	184	822	3807
116	0	0	2365	1154	184	822	3806
117	0	0	2210	1154	184	823	3808
118	0	0	2066	1154	184	822	3807
119	0	0	1932	1154	183	822	3807
120	0	0	1803	1155	183	822	3808
121	0	0	1692	1155	183	822	3807
122	0	0	1625	1156	183	821	3808
123	0	0	1595	1156	183	823	3806
124	0	0	1497	1155	184	823	3807
125	0	0	1485	1161	183	822	3808
126	0	0	1621	1160	183	822	3807
127	0	0	1801	1160	184	822	3807
0	0	0	2007	1160	183	822	3807
1	0	0	2231	1160	183	823	3808
2	0	0	2390	1159	183	822	3808
3	0	0	2481	1160	183	823	3808
4	0	0	2518	1160	183	823	3807
5	0	0	2525	1160	184	823	3807
6	0	0	2547	1159	184	822	3808
7	0	0	2505	1154	184	823	3807
8	0	0	2375	1153	183	822	3806
9	0	0	2223	1154	184	822	3807
10	0	0	2076	1154	183	822	3808
11	0	0	1942	1154	183	822	3807
12	0	0	1812	1154	183	822	3808
13	0	0	1699	1155	184	822	3807
14	0	0	1632	1155	184	822	3807
15	0	0	1609	1155	184	823	3808
16	0	0	1518	1155	183	822	3807
17	0	0	1504	1160	184	823	3807
18	0	0	1640	1159	183	822	3807
19	0	0	1818	1160	183	821	3808
20	0	0	2024	1160	183	823	3807
21	0	0	2241	1159	184	822	3807
22	0	0	2395	1159	184	822	3808
23	0	0	2483	1159	184	822	3808
24	0	0	2522	1159	185	822	3807
25	0	0	2528	1160	183	822	3806
26	0	0	2552	1159	184	823	3807
27	0	0	2513	1154	183	823	3808
28	0	0	2383	1153	184	822	3807
29	0	0	2233	1154	183	822	3808
30	0	0	2087	1154	184	822	3807
31	0	0	1949	1154	183	823	3808
32	0	0	1822	1154	184	823	3808
33	0	0	1713	1154	183	822	3807
34	0	0	1639	1155	182	822	3807
35	0	0	1602	1156	183	822	3807
36	0	0	1510	1155	182	823	3808
37	0	0	1495	1159	184	823	3807
38	0	0	1627	1159	184	822	3807
39	0	0	1799	1159	184	822	3807
40	0	0	2006	1158	183	822	3808
41	0	0	2227	1159	184	822	3807
42	0	0	2384	1159	184	822	3808
43	0	0	2478	1158	184	822	3807
44	0	0	2521	1159	184	821	3808
45	0	0	2528	1159	184	822	3807
46	0	0	2548	1158	183	822	3807
47	0	0	2505	1154	184	822	3807
48	0	0	2367	1153	184	822	3806
49	0	0	2210	1153	182	822	3807
50	0	0	2067	1154	183	822	3807
51	0	0	1931	1153	183	823	3808
52	0	0	1803	1153	184	822	3808
53	0	0	1695	1154	184	823	3808
54	0	0	1624	1155	184	822	3807
55	0	0	1596	1156	183	822	3807
56	0	0	1507	1154	184	823	3807
57	0	0	1489	1159	184	823	3808
58	0	0	1618	1159	184	822	3807
59	0	0	1793	1159	183	822	3808
60	0	0	1995	1159	184	822	3807
61	0	0	2219	1159	184	822	3808
62	0	0	2379	1158	183	822	3808
63	0	0	2475	1158	184	822	3807
64	0	0	2514	1158	184	823	3807
65	0	0	2518	1157	183	822	3808
66	0	0	2543	1158	184	822	3807
67	0	0	2501	1153	184	822	3807
68	0	0	2370	1153	183	822	3807
69	0	0	2216	1153	183	822	3808
70	0	0	2066	1153	183	822	3807
71	0	0	1928	1153	183	822	3807
72	0	0	1800	1153	184	822	3808
73	0	0	1691	1153	183	822	3807
74	0	0	1623	1154	184	822	3807
75	0	0	1597	1155	184	822	3807
76	0	0	1504	1154	183	823	3808
77	0	0	1485	1159	183	822	3807
78	0	0	1622	1159	183	822	3806
79	0	0	1803	1159	184	822	3807
80	0	0	2010	1159	184	822	3807
81	0	0	2232	1158	184	823	3807
82	0	0	2398	1158	184	823	3808
83	0	0	2496	1158	183	822	3807
84	0	0	2540	1157	184	822	3807
85	0	0	2544	1159	184	822	3807
86	0	0	2562	1157	183	823	3806
87	0	0	2518	1152	183	822	3807
88	0	0	2387	1152	183	822	3806
89	0	0	2229	1153	184	822	3807
90	0	0	2077	1153	184	822	3807
91	0	0	1942	1153	182	823	3808
92	0	0	1815	1153	183	822	3807
93	0	0	1708	1153	183	822	3807
94	0	0	1638	1154	183	822	3807
95	0	0	1603	1153	184	823	3808
96	0	0	1507	1154	183	823	3807
97	0	0	1480	1158	183	822	3807
98	0	0	1605	1158	184	822	3806
99	0	0	1780	1159	184	822	3808
100	0	0	1983	1159	184	822	3808
101	0	0	2211	1158	184	822	3807
102	0	0	2376	1158	184	822	3808
103	0	0	2473	1158	183	822	3807
104	0	0	2521	1158	184	822	3807
105	0	0	2537	1158	184	822	3807
106	0	0	2562	1157	183	823	3806
107	0	0	2520	1152	183	822	3807
108	0	0	2385	1153	183	822	3808
109	0	0	2223	1153	183	822	3807
110	0	0	2071	1152	184	822	3807
111	0	0	1929	1153	184	823	3808
112	0	0	1795	1152	184	822	3808
113	0	0	1677	1153	183	822	3807
114	0	0	1603	1153	184	823	3807
115	0	0	1573	1154	184	822	3807
116	0	0	1477	1153	184	822	3807
117	0	0	1453	1159	183	822	3807
118	0	0	1581	1158	184	822	3806
119	0	0	1762	1158	183	822	3807
120	0	0	1971	1158	184	822	3807
121	0	0	2204	1158	184	823	3807
122	0	0	2375	1157	184	822	3808
123	0	0	2478	1157	184	822	3807
124	0	0	2527	1157	184	822	3807
125	0	0	2539	1157	184	822	3807
126	0	0	2563	1157	183	822	3806
127	0	0	2524	1152	183	822	3807
0	0	0	2393	1151	184	822	3807
1	0	0	2234	1151	184	822	3807
2	0	0	2083	1152	184	823	3807
3	0	0	1943	1151	184	822	3807
4	0	0	1814	1152	183	822	3808
5	0	0	1704	1153	183	822	3808
6	0	0	1635	1153	182	823	3807
7	0	0	1605	1154	183	822	3807
8	0	0	1512	1153	184	822	3808
9	0	0	1484	1158	183	822	3807
10	0	0	1614	1158	184	822	3808
11	0	0	1793	1159	184	822	3807
12	0	0	1998	1158	183	822	3807
13	0	0	2228	1158	183	822	3808
14	0	0	2396	1157	184	822	3808
15	0	0	2492	1158	183	822	3808
16	0	0	2537	1157	185	822	3807
17	0	0	2544	1157	183	822	3807
18	0	0	2567	1157	184	828	3807
19	0	0	2536	1151	183	821	3807
20	0	0	2412	1151	184	822	3807
21	0	0	2252	1151	183	822	3807
22	0	0	2102	1152	183	823	3807
23	0	0	1963	1152	183	822	3808
24	0	0	1831	1152	183	823	3808
25	0	0	1715	1152	183	822	3807
26	0	0	1637	1152	183	822	3808
27	0	0	1605	1154	184	822	3807
28	0	0	1508	1152	183	822	3807
29	0	0	1478	1157	184	822	3807
30	0	0	1610	1158	184	823	3808
31	0	0	1790	1158	183	823	3807
32	0	0	1995	1158	183	823	3807
33	0	0	2226	1157	183	822	3807
34	0	0	2397	1157	183	822	3808
35	0	0	2499	1157	184	822	3807
36	0	0	2547	1157	183	822	3807
37	0	0	2561	1157	183	822	3807
38	0	0	2587	1157	183	823	3807
39	0	0	2554	1152	184	822	3807
40	0	0	2424	1151	183	821	3806
41	0	0	2267	1151	184	822	3807
42	0	0	2119	1152	183	823	3807
43	0	0	1974	1151	183	822	3807
44	0	0	1835	1152	183	823	3808
45	0	0	1719	1152	184	822	3807
46	0	0	1644	1153	183	822	3808
47	0	0	1611	1153	183	822	3806
48	0	0	1512	1153	183	823	3807
49	0	0	1479	1157	183	822	3807
50	0	0	1606	1158	184	823	3808
51	0	0	1785	1158	183	822	3807
52	0	0	1994	1157	183	822	3807
53	0	0	2231	1157	184	822	3807
54	0	0	2409	1156	183	822	3808
55	0	0	2512	1157	183	822	3807
56	0	0	2566	1157	183	822	3807
57	0	0	2578	1157	184	822	3807
58	0	0	2596	1156	183	822	3807
59	0	0	2560	1151	183	822	3807
60	0	0	2429	1151	183	822	3807
61	0	0	2269	1151	183	822	3807
62	0	0	2117	1151	183	822	3807
63	0	0	1979	1152	183	822	3807
64	0	0	1847	1151	184	822	3808
65	0	0	1724	1151	184	822	3807
66	0	0	1646	1152	183	822	3808
67	0	0	1608	1153	183	822	3807
68	0	0	1508	1152	184	823	3807
69	0	0	1477	1158	183	823	3808
70	0	0	1606	1157	183	822	3807
71	0	0	1786	1157	184	822	3807
72	0	0	1987	1157	183	822	3807
73	0	0	2219	1157	183	823	3808
74	0	0	2396	1157	183	822	3808
75	0	0	2497	1156	184	822	3807
76	0	0	2549	1157	184	822	3807
77	0	0	2560	1156	183	822	3807
78	0	0	2580	1156	184	823	3806
79	0	0	2551	1151	183	821	3807
80	0	0	2424	1150	184	822	3808
81	0	0	2266	1151	183	821	3807
82	0	0	2115	1151	183	822	3807
83	0	0	1975	1151	183	822	3808
84	0	0	1834	1151	183	822	3808
85	0	0	1714	1152	184	823	3807
86	0	0	1637	1152	183	823	3807
87	0	0	1600	1153	184	822	3807
88	0	0	1503	1152	183	823	3807
89	0	0	1471	1157	184	821	3807
90	0	0	1593	1157	183	822	3806
91	0	0	1774	1157	184	822	3808
92	0	0	1984	1156	183	822	3808
93	0	0	2221	1156	184	822	3807
94	0	0	2402	1156	183	822	3808
95	0	0	2501	1156	183	822	3807
96	0	0	2546	1155	183	822	3808
97	0	0	2551	1156	183	823	3807
98	0	0	2566	1156	184	823	3806
99	0	0	2524	1151	184	821	3807
100	0	0	2391	1150	183	821	3807
101	0	0	2230	1150	183	822	3807
102	0	0	2076	1151	183	822	3807
103	0	0	1933	1151	184	821	3807
104	0	0	1800	1151	183	820	3808
105	0	0	1681	1151	184	821	3807
106	0	0	1603	1152	182	822	3808
107	0	0	1568	1152	184	823	3808
108	0	0	1468	1152	183	822	3807
109	0	0	1431	1157	184	823	3808
110	0	0	1561	1157	184	822	3806
111	0	0	1738	1157	184	822	3808
112	0	0	1942	1157	184	822	3807
113	0	0	2180	1156	184	823	3807
114	0	0	2357	1156	183	822	3808
115	0	0	2463	1156	183	822	3807
116	0	0	2522	1155	184	822	3807
117	0	0	2536	1156	183	823	3807
118	0	0	2560	1155	183	822	3806
119	0	0	2533	1151	183	821	3807
120	0	0	2407	1150	183	822	3807
121	0	0	2249	1151	183	821	3807
122	0	0	2097	1150	184	822	3807
123	0	0	1955	1150	184	822	3808
124	0	0	1819	1151	184	821	3808
125	0	0	1703	1151	183	822	3807
126	0	0	1625	1151	183	822	3808
127	0	0	1585	1152	183	823	3808
0	0	0	1482	1151	184	822	3807
1	0	0	1442	1156	184	823	3808
2	0	0	1559	1157	184	822	3806
3	0	0	1740	1156	184	822	3807
4	0	0	1945	1156	183	823	3807
5	0	0	2180	1157	184	822	3807
6	0	0	2359	1156	183	822	3808
7	0	0	2471	1155	184	822	3807
8	0	0	2526	1156	183	822	3807
9	0	0	2543	1156	183	822	3807
10	0	0	2574	1155	183	822	3808
11	0	0	2548	1151	184	821	3807
12	0	0	2426	1150	183	822	3808
13	0	0	2268	1150	183	822	3807
14	0	0	2114	1150	184	822	3807
15	0	0	1969	1150	184	822	3808
16	0	0	1827	1150	183	822	3807
17	0	0	1704	1150	184	822	3807
18	0	0	1624	1151	184	823	3807
19	0	0	1588	1152	183	823	3807
20	0	0	1496	1151	183	822	3806
21	0	0	1457	1156	184	823	3808
22	0	0	1583	1155	184	822	3807
23	0	0	1765	1156	184	822	3808
24	0	0	1970	1157	183	823	3808
25	0	0	2201	1155	183	822	3807
26	0	0	2374	1155	183	822	3808
27	0	0	2479	1155	183	822	3808
28	0	0	2531	1155	183	822	3807
29	0	0	2546	1156	183	822	3807
30	0	0	2571	1155	183	822	3806
31	0	0	2545	1150	183	822	3807
32	0	0	2421	1150	184	822	3807
33	0	0	2259	1150	184	821	3807
34	0	0	2109	1151	183	821	3807
35	0	0	1963	1150	184	822	3807
36	0	0	1822	1150	184	822	3808
37	0	0	1701	1150	183	822	3807
38	0	0	1625	1151	184	822	3808
39	0	0	1591	1151	184	822	3807
40	0	0	1499	1151	184	822	3806
41	0	0	1464	1156	183	823	3807
42	0	0	1590	1156	184	822	3807
43	0	0	1774	1156	183	822	3808
44	0	0	1985	1156	183	822	3808
45	0	0	2224	1155	184	822	3807
46	0	0	2406	1155	184	822	3807
47	0	0	2511	1155	184	822	3807
48	0	0	2563	1154	183	823	3808
49	0	0	2576	1155	184	823	3807
50	0	0	2597	1156	183	822	3807
51	0	0	2570	1150	183	822	3807
52	0	0	2436	1149	184	822	3806
53	0	0	2271	1150	184	822	3807
54	0	0	2111	1149	184	822	3807
55	0	0	1965	1150	184	822	3808
56	0	0	1828	1150	184	822	3808
57	0	0	1706	1151	183	822	3808
58	0	0	1626	1151	182	822	3807
59	0	0	1589	1151	183	822	3807
60	0	0	1495	1151	183	822	3807
61	0	0	1447	1156	183	822	3807
62	0	0	1566	1156	183	822	3806
63	0	0	1744	1156	184	822	3807
64	0	0	1947	1155	184	822	3807
65	0	0	2187	1155	184	823	3808
66	0	0	2369	1156	183	822	3808
67	0	0	2479	1155	184	822	3807
68	0	0	2538	1155	183	822	3807
69	0	0	2555	1155	183	822	3807
70	0	0	2577	1155	184	822	3807
71	0	0	2556	1150	184	822	3807
72	0	0	2435	1149	183	822	3806
73	0	0	2281	1150	184	821	3807
74	0	0	2136	1149	184	821	3807
75	0	0	1995	1150	183	821	3807
76	0	0	1856	1150	183	822	3808
77	0	0	1740	1151	184	822	3808
78	0	0	1659	1151	184	822	3807
79	0	0	1624	1152	182	822	3807
80	0	0	1533	1151	183	822	3808
81	0	0	1489	1155	184	822	3807
82	0	0	1607	1156	183	823	3808
83	0	0	1786	1155	183	823	3807
84	0	0	1982	1155	183	823	3807
85	0	0	2219	1155	183	823	3808
86	0	0	2392	1155	184	822	3807
87	0	0	2500	1155	183	822	3807
88	0	0	2550	1154	184	822	3807
89	0	0	2557	1155	183	823	3807
90	0	0	2575	1155	184	822	3807
91	0	0	2547	1150	183	821	3807
92	0	0	2419	1149	183	821	3806
93	0	0	2256	1149	184	821	3807
94	0	0	2102	1149	183	822	3808
95	0	0	1959	1150	184	822	3807
96	0	0	1824	1149	184	822	3808
97	0	0	1700	1150	184	822	3807
98	0	0	1618	1150	184	822	3807
99	0	0	1580	1151	182	822	3807
100	0	0	1492	1150	183	822	3806
101	0	0	1447	1156	183	822	3807
102	0	0	1565	1155	183	822	3807
103	0	0	1745	1155	184	822	3807
104	0	0	1951	1156	185	822	3808
105	0	0	2195	1155	184	822	3807
106	0	0	2375	1155	184	822	3807
107	0	0	2481	1154	184	822	3807
108	0	0	2538	1155	185	822	3807
109	0	0	2552	1155	182	822	3808
110	0	0	2577	1154	183	822	3806
111	0	0	2554	1150	184	821	3807
112	0	0	2425	1149	185	822	3806
113	0	0	2263	1149	183	822	3808
114	0	0	2109	1149	184	822	3808
115	0	0	1963	1150	183	823	3807
116	0	0	1823	1149	184	822	3808
117	0	0	1701	1149	184	822	3808
118	0	0	1619	1150	183	822	3807
119	0	0	1582	1151	183	821	3807
120	0	0	1492	1150	184	822	3808
121	0	0	1442	1155	183	822	3807
122	0	0	1554	1155	183	822	3808
123	0	0	1729	1155	185	822	3806
124	0	0	1926	1155	183	822	3807
125	0	0	2159	1155	184	822	3808
126	0	0	2334	1154	184	822	3808
127	0	0	2440	1154	183	823	3808
0	0	0	2490	1155	184	823	3808
1	0	0	2500	1154	183	822	3807
2	0	0	2511	1154	184	823	3807
3	0	0	2487	1150	183	822	3808
4	0	0	2360	1148	184	822	3806
5	0	0	2201	1148	183	822	3808
6	0	0	2054	1149	184	822	3808
7	0	0	1911	1148	183	821	3807
8	0	0	1772	1149	184	821	3807
9	0	0	1649	1150	184	821	3807
10	0	0	1564	1149	183	822	3808
11	0	0	1522	1151	184	822	3807
12	0	0	1432	1149	184	822	3807
13	0	0	1382	1155	184	822	3807
14	0	0	1494	1155	184	822	3806
15	0	0	1672	1155	184	822	3807
16	0	0	1869	1155	184	822	3807
17	0	0	2105	1154	184	823	3808
18	0	0	2283	1154	184	822	3807
19	0	0	2392	1153	184	822	3807
20	0	0	2447	1154	183	822	3807
21	0	0	2461	1154	183	822	3808
22	0	0	2488	1153	184	822	3806
23	0	0	2470	1150	184	822	3808
24	0	0	2355	1147	184	822	3807
25	0	0	2199	1148	183	821	3806
26	0	0	2052	1149	184	821	3807
27	0	0	1912	1148	183	822	3807
28	0	0	1777	1148	184	822	3808
29	0	0	1659	1149	184	822	3807
30	0	0	1581	1150	183	821	3807
31	0	0	1545	1150	184	822	3807
32	0	0	1458	1149	184	822	3808
33	0	0	1412	1155	184	822	3807
34	0	0	1529	1154	184	822	3806
35	0	0	1711	1154	184	822	3807
36	0	0	1907	1154	185	822	3808
37	0	0	2145	1153	184	822	3808
38	0	0	2334	1153	183	822	3807
39	0	0	2444	1153	184	822	3807
40	0	0	2503	1154	183	823	3808
41	0	0	2528	1153	184	822	3808
42	0	0	2546	1153	184	822	3807
43	0	0	2528	1149	183	821	3808
44	0	0	2411	1147	183	821	3806
45	0	0	2253	1148	184	821	3807
46	0	0	2104	1148	182	822	3807
47	0	0	1963	1148	183	822	3808
48	0	0	1825	1148	184	822	3807
49	0	0	1705	1148	184	822	3807
50	0	0	1626	1149	184	822	3807
51	0	0	1591	1150	184	822	3808
52	0	0	1506	1148	184	822	3807
53	0	0	1456	1154	184	822	3806
54	0	0	1567	1154	185	822	3806
55	0	0	1743	1153	183	822	3806
56	0	0	1940	1154	183	822	3808
57	0	0	2178	1153	184	822	3807
58	0	0	2355	1153	184	822	3807
59	0	0	2462	1154	183	822	3807
60	0	0	2518	1153	184	822	3808
61	0	0	2538	1153	184	822	3808
62	0	0	2560	1152	183	822	3807
63	0	0	2543	1148	184	822	3807
64	0	0	2421	1147	183	822	3808
65	0	0	2262	1148	183	822	3807
66	0	0	2109	1148	183	822	3806
67	0	0	1967	1148	184	822	3808
68	0	0	1830	1147	184	822	3807
69	0	0	1714	1148	183	822	3807
70	0	0	1640	1149	184	821	3808
71	0	0	1606	1150	184	822	3808
72	0	0	1519	1148	183	822	3807
73	0	0	1462	1154	184	822	3807
74	0	0	1569	1154	184	822	3806
75	0	0	1736	1154	184	822	3806
76	0	0	1918	1153	184	822	3807
77	0	0	2137	1153	182	822	3807
78	0	0	2307	1153	184	822	3808
79	0	0	2414	1153	184	822	3807
80	0	0	2466	1153	184	822	3807
81	0	0	2483	1153	183	822	3807
82	0	0	2512	1153	184	823	3808
83	0	0	2507	1148	184	822	3806
84	0	0	2402	1148	184	822	3808
85	0	0	2262	1148	184	822	3807
86	0	0	2119	1147	184	822	3807
87	0	0	1990	1148	183	822	3808
88	0	0	1869	1148	183	822	3807
89	0	0	1762	1148	183	822	3807
90	0	0	1693	1149	183	821	3808
91	0	0	1666	1150	183	821	3808
92	0	0	1589	1148	183	821	3807
93	0	0	1540	1154	184	822	3806
94	0	0	1651	1154	184	822	3806
95	0	0	1828	1154	183	822	3807
96	0	0	2024	1153	184	822	3807
97	0	0	2261	1154	184	822	3808
98	0	0	2440	1153	184	822	3808
99	0	0	2546	1153	184	822	3807
100	0	0	2602	1153	183	822	3807
101	0	0	2617	1153	184	822	3807
102	0	0	2637	1152	184	823	3807
103	0	0	2623	1149	183	822	3808
104	0	0	2508	1148	184	822	3807
105	0	0	2348	1147	183	822	3807
106	0	0	2200	1148	183	822	3807
107	0	0	2057	1148	183	822	3808
108	0	0	1921	1148	183	822	3808
109	0	0	1803	1148	184	822	3808
110	0	0	1722	1150	185	822	3807
111	0	0	1680	1150	184	822	3807
112	0	0	1597	1149	183	822	3808
113	0	0	1540	1155	183	822	3807
114	0	0	1642	1154	184	822	3807
115	0	0	1815	1154	183	822	3808
116	0	0	2006	1154	183	823	3808
117	0	0	2229	1153	183	822	3808
118	0	0	2405	1153	184	822	3808
119	0	0	2508	1154	183	822	3807
120	0	0	2558	1153	184	822	3807
121	0	0	2568	1153	183	822	3807
122	0	0	2588	1153	183	822	3806
123	0	0	2572	1149	184	822	3807
124	0	0	2452	1148	184	822	3807
125	0	0	2292	1148	183	822	3807
126	0	0	2144	1148	183	822	3807
127	0	0	2004	1147	183	822	3808
0	0	0	1876	1148	183	822	3808
1	0	0	1760	1148	183	822	3808
2	0	0	1681	1149	184	823	3808
3	0	0	1647	1150	185	822	3807
4	0	0	1574	1149	184	822	3808
5	0	0	1520	1155	183	823	3807
6	0	0	1624	1154	184	823	3808
7	0	0	1793	1154	184	822	3807
8	0	0	1982	1154	183	822	3807
9	0	0	2207	1154	184	822	3808
10	0	0	2385	1153	183	823	3808
11	0	0	2485	1153	184	822	3807
12	0	0	2534	1154	183	822	3807
13	0	0	2547	1153	183	822	3807
14	0	0	2559	1152	183	822	3807
15	0	0	2539	1149	184	822	3806
16	0	0	2421	1148	183	822	3807
17	0	0	2268	1148	184	822	3807
18	0	0	2126	1148	184	822	3808
19	0	0	1993	1147	184	822	3808
20	0	0	1871	1148	183	822	3808
21	0	0	1762	1149	183	822	3808
22	0	0	1686	1149	183	822	3808
23	0	0	1648	1150	184	822	3807
24	0	0	1563	1149	183	822	3808
25	0	0	1508	1155	183	822	3807
26	0	0	1617	1154	184	823	3808
27	0	0	1788	1154	183	822	3807
28	0	0	1971	1154	184	823	3807
29	0	0	2192	1154	183	822	3808
30	0	0	2365	1153	184	822	3808
31	0	0	2468	1153	184	822	3807
32	0	0	2518	1153	184	822	3808
33	0	0	2528	1153	184	823	3808
34	0	0	2537	1153	184	823	3807
35	0	0	2520	1148	184	822	3806
36	0	0	2411	1148	183	822	3806
37	0	0	2261	1148	183	822	3808
38	0	0	2120	1147	184	822	3807
39	0	0	1987	1148	183	822	3808
40	0	0	1856	1148	183	822	3808
41	0	0	1742	1147	183	822	3807
42	0	0	1668	1149	184	821	3807
43	0	0	1634	1150	183	822	3806
44	0	0	1562	1149	182	822	3807
45	0	0	1508	1154	183	823	3806
46	0	0	1608	1153	184	822	3806
47	0	0	1771	1154	183	823	3808
48	0	0	1953	1154	183	822	3808
49	0	0	2168	1153	184	822	3808
50	0	0	2341	1154	183	823	3808
51	0	0	2439	1153	183	822	3807
52	0	0	2486	1153	183	823	3807
53	0	0	2497	1153	184	823	3807
54	0	0	2513	1152	183	822	3807
55	0	0	2497	1148	184	822	3806
56	0	0	2384	1148	183	822	3806
57	0	0	2240	1147	183	822	3807
58	0	0	2105	1148	184	822	3807
59	0	0	1976	1148	184	822	3808
60	0	0	1853	1148	183	821	3807
61	0	0	1744	1148	183	822	3807
62	0	0	1669	1149	183	822	3808
63	0	0	1637	1151	184	822	3808
64	0	0	1570	1148	184	822	3807
65	0	0	1517	1154	184	823	3807
66	0	0	1620	1154	183	822	3806
67	0	0	1785	1154	184	822	3806
68	0	0	1965	1153	184	822	3807
69	0	0	2181	1153	184	822	3808
70	0	0	2346	1153	183	823	3807
71	0	0	2438	1153	184	822	3807
72	0	0	2485	1153	183	822	3807
73	0	0	2493	1153	185	822	3807
74	0	0	2501	1152	184	823	3807
75	0	0	2483	1148	183	822	3807
76	0	0	2376	1147	183	822	3808
77	0	0	2230	1147	185	821	3806
78	0	0	2093	1148	184	822	3807
79	0	0	1966	1148	185	822	3808
80	0	0	1850	1148	184	822	3807
81	0	0	1747	1148	184	822	3808
82	0	0	1675	1149	183	822	3807
83	0	0	1640	1150	185	822	3807
84	0	0	1573	1148	183	822	3807
85	0	0	1523	1154	183	822	3807
86	0	0	1619	1153	184	822	3806
87	0	0	1782	1154	183	822	3807
88	0	0	1960	1154	184	822	3807
89	0	0	2168	1153	183	822	3808
90	0	0	2324	1153	183	822	3807
91	0	0	2415	1152	184	822	3807
92	0	0	2459	1153	184	822	3807
93	0	0	2469	1153	185	823	3807
94	0	0	2482	1153	184	823	3807
95	0	0	2462	1148	184	822	3806
96	0	0	2354	1147	183	822	3808
97	0	0	2215	1147	183	822	3807
98	0	0	2083	1148	183	822	3807
99	0	0	1962	1148	184	822	3808
100	0	0	1845	1148	184	822	3807
101	0	0	1745	1148	183	822	3808
102	0	0	1683	1149	182	823	3807
103	0	0	1659	1151	185	822	3807
104	0	0	1598	1148	183	822	3807
105	0	0	1551	1154	184	823	3806
106	0	0	1648	1153	183	822	3806
107	0	0	1803	1154	183	822	3807
108	0	0	1976	1154	184	822	3807
109	0	0	2181	1152	183	823	3808
110	0	0	2338	1153	184	823	3808
111	0	0	2426	1153	183	822	3807
112	0	0	2462	1153	183	822	3807
113	0	0	2465	1153	184	823	3807
114	0	0	2472	1152	184	823	3807
115	0	0	2456	1148	183	822	3806
116	0	0	2354	1147	184	822	3806
117	0	0	2211	1147	184	822	3807
118	0	0	2082	1147	183	822	3807
119	0	0	1967	1147	183	822	3808
120	0	0	1862	1147	183	822	3807
121	0	0	1761	1148	183	822	3807
122	0	0	1691	1148	184	822	3807
123	0	0	1667	1151	183	822	3807
124	0	0	1604	1148	183	822	3807
125	0	0	1563	1154	183	822	3806
126	0	0	1657	1153	184	822	3806
127	0	0	1815	1154	184	822	3807
0	0	0	1983	1153	183	823	3808
1	0	0	2181	1152	184	823	3807
2	0	0	2329	1153	183	823	3808
3	0	0	2412	1154	184	822	3807
4	0	0	2449	1152	184	822	3808
5	0	0	2456	1153	183	823	3808
