# bioPlux Text File Format
# Version: 1
# StartDateTime: 2011-07-18 14:02:42
# SamplingFrequency: 1000
# SampledChannels: 1 2 3 4 5
# SamplingResolution: 12
# AcquiringDevice: 00:07:80:42:0F:95
# EndOfHeader
0	0	0	2046	5	90	4095	3935
1	0	0	2046	4	89	4095	3934
2	0	0	2047	5	89	4095	3934
3	0	0	2048	5	89	4095	3934
4	0	0	2049	5	89	4095	3935
5	0	0	2044	5	89	4095	3934
6	0	0	2043	5	91	4095	3934
7	0	0	2046	5	91	4095	3934
8	0	0	2051	5	92	4095	3935
9	0	0	2050	5	92	4095	3935
10	0	0	2050	5	93	4095	3935
11	0	0	2051	4	92	4095	3934
12	0	0	2049	5	93	4095	3934
13	0	0	2050	5	94	4095	3935
14	0	0	2048	5	94	4095	3935
15	0	0	2050	5	93	4095	3935
16	0	0	2050	5	93	4095	3934
17	0	0	2050	5	92	4095	3934
18	0	0	2050	5	92	4095	3934
19	0	0	2049	5	91	4095	3934
20	0	0	2049	5	90	4095	3934
21	0	0	2050	5	89	4095	3934
22	0	0	2053	5	90	4095	3935
23	0	0	2050	5	92	4095	3934
24	0	0	2046	5	88	4095	3935
25	0	0	2046	5	92	4095	3935
26	0	0	2049	5	92	4095	3936
27	0	0	2042	5	93	4095	3935
28	0	0	2035	5	93	4095	3934
29	0	0	2038	5	94	4095	3935
30	0	0	2043	5	95	4095	3934
31	0	0	2049	5	93	4095	3934
32	0	0	2051	5	94	4095	3933
33	0	0	2052	5	95	4095	3934
34	0	0	2053	5	93	4095	3935
35	0	0	2054	5	96	4095	3935
36	0	0	2043	5	94	4095	3934
37	0	0	2037	5	95	4095	3934
38	0	0	2039	5	94	4095	3934
39	0	0	2042	5	92	4095	3935
40	0	0	2045	5	91	4095	3935
41	0	0	2046	5	91	4095	3934
42	0	0	2050	4	92	4095	3934
43	0	0	2053	5	90	4095	3935
44	0	0	2053	5	92	4095	3936
45	0	0	2042	5	92	4095	3934
46	0	0	2039	5	92	4095	3934
47	0	0	2041	5	94	4095	3934
48	0	0	2043	5	94	4095	3934
49	0	0	2046	5	94	4095	3935
50	0	0	2050	6	94	4095	3934
51	0	0	2048	5	96	4095	3934
52	0	0	2049	5	95	4095	3934
53	0	0	2050	5	95	4095	3934
54	0	0	2050	5	93	4095	3935
55	0	0	2051	5	96	4095	3934
56	0	0	2054	5	94	4095	3936
57	0	0	2049	5	94	4095	3934
58	0	0	2042	5	93	4095	3934
59	0	0	2042	5	92	4095	3935
60	0	0	2044	5	91	4095	3934
61	0	0	2046	5	91	4095	3934
62	0	0	2050	5	90	4095	3934
63	0	0	2050	5	89	4095	3935
64	0	0	2050	5	89	4095	3935
65	0	0	2051	5	89	4095	3934
66	0	0	2051	5	89	4095	3934
67	0	0	2052	5	89	4095	3934
68	0	0	2053	5	89	4095	3934
69	0	0	2052	5	87	4095	3934
70	0	0	2053	5	87	4095	3936
71	0	0	2044	5	89	4095	3934
72	0	0	2037	5	88	4095	3935
73	0	0	2038	5	89	4095	3934
74	0	0	2040	5	90	4095	3935
75	0	0	2045	5	89	4095	3934
76	0	0	2049	5	89	4095	3934
77	0	0	2051	5	88	4095	3935
78	0	0	2053	5	88	4095	3935
79	0	0	2052	5	88	4095	3936
80	0	0	2043	5	87	4095	3934
81	0	0	2039	5	86	4095	3935
82	0	0	2037	5	89	4095	3934
83	0	0	2036	5	87	4095	3934
84	0	0	2041	5	88	4095	3935
85	0	0	2048	5	87	4095	3935
86	0	0	2042	7	89	4095	3934
87	0	0	2038	5	87	4095	3935
88	0	0	2040	5	89	4095	3934
89	0	0	2045	5	90	4095	3935
90	0	0	2050	5	90	4095	3935
91	0	0	2054	4	89	4095	3934
92	0	0	2056	5	92	4095	3935
93	0	0	2058	5	90	4095	3935
94	0	0	2058	5	90	4095	3936
95	0	0	2045	5	96	4095	3933
96	0	0	2043	5	91	4095	3934
97	0	0	2045	5	89	4095	3934
98	0	0	2050	5	91	4095	3934
99	0	0	2052	5	89	4095	3935
100	0	0	2054	5	87	4095	3934
101	0	0	2056	5	88	4095	3934
102	0	0	2057	5	89	4095	3934
103	0	0	2059	4	89	4095	3934
104	0	0	2058	5	89	4095	3935
105	0	0	2057	5	90	4095	3934
106	0	0	2057	5	91	4095	3934
107	0	0	2058	5	89	4095	3935
108	0	0	2054	5	90	4095	3936
109	0	0	2044	6	90	4095	3935
110	0	0	2045	5	91	4095	3936
111	0	0	2041	5	89	4095	3934
112	0	0	2039	6	91	4095	3935
113	0	0	2038	5	91	4095	3936
114	0	0	2033	5	91	4095	3935
115	0	0	2037	5	92	4095	3935
116	0	0	2033	5	90	4095	3934
117	0	0	2034	5	90	4095	3935
118	0	0	2037	5	91	4095	3934
119	0	0	2040	4	92	4095	3935
120	0	0	2042	5	90	4095	3934
121	0	0	2048	5	89	4095	3934
122	0	0	2048	5	90	4095	3935
123	0	0	2044	5	91	4095	3934
124	0	0	2044	5	91	4095	3935
125	0	0	2049	5	91	4095	3936
126	0	0	2043	5	90	4095	3934
127	0	0	2044	5	90	4095	3935
0	0	0	2049	5	90	4095	3934
1	0	0	2054	5	92	4095	3935
2	0	0	2059	5	92	4095	3934
3	0	0	2062	5	91	4095	3934
4	0	0	2065	5	94	4095	3934
5	0	0	2067	5	92	4095	3934
6	0	0	2064	6	92	4095	3935
7	0	0	2053	5	92	4095	3934
8	0	0	2051	5	91	4095	3935
9	0	0	2049	5	92	4095	3934
10	0	0	2045	5	91	4095	3934
11	0	0	2050	5	92	4095	3935
12	0	0	2054	5	91	4095	3934
13	0	0	2052	5	90	4095	3934
14	0	0	2055	5	93	4095	3934
15	0	0	2058	5	91	4095	3935
16	0	0	2057	5	92	4095	3935
17	0	0	2048	5	90	4095	3934
18	0	0	2045	5	92	4095	3934
19	0	0	2050	5	91	4095	3934
20	0	0	2049	5	91	4095	3935
21	0	0	2042	5	91	4095	3934
22	0	0	2046	5	92	4095	3934
23	0	0	2051	5	92	4095	3934
24	0	0	2055	5	91	4095	3934
25	0	0	2058	5	93	4095	3934
26	0	0	2060	5	91	4095	3935
27	0	0	2061	5	91	4095	3934
28	0	0	2061	5	91	4095	3935
29	0	0	2054	5	92	4095	3934
30	0	0	2046	5	92	4095	3934
31	0	0	2046	5	91	4095	3935
32	0	0	2052	5	90	4095	3936
33	0	0	2045	4	91	4095	3934
34	0	0	2043	5	91	4095	3934
35	0	0	2044	5	91	4095	3933
36	0	0	2050	5	89	4095	3934
37	0	0	2055	5	91	4095	3934
38	0	0	2058	5	89	4095	3934
39	0	0	2056	5	92	4095	3934
40	0	0	2056	5	92	4095	3934
41	0	0	2056	5	91	4095	3934
42	0	0	2058	5	91	4095	3935
43	0	0	2050	5	90	4095	3934
44	0	0	2046	5	93	4095	3934
45	0	0	2046	5	91	4095	3935
46	0	0	2046	5	93	4095	3937
47	0	0	2045	5	92	4095	3935
48	0	0	2042	4	91	4095	3936
49	0	0	2039	5	93	4095	3934
50	0	0	2040	5	91	4095	3934
51	0	0	2045	5	90	4095	3935
52	0	0	2052	5	90	4095	3934
53	0	0	2057	5	90	4095	3934
54	0	0	2061	5	90	4095	3934
55	0	0	2056	5	91	4095	3934
56	0	0	2048	5	90	4095	3934
57	0	0	2049	5	89	4095	3934
58	0	0	2052	4	90	4095	3935
59	0	0	2051	5	92	4095	3934
60	0	0	2045	5	91	4095	3935
61	0	0	2044	5	90	4095	3935
62	0	0	2044	5	93	4095	3934
63	0	0	2050	5	91	4095	3934
64	0	0	2056	5	91	4095	3935
65	0	0	2058	5	92	4095	3935
66	0	0	2059	5	92	4095	3935
67	0	0	2060	5	93	4095	3935
68	0	0	2052	5	92	4095	3934
69	0	0	2048	5	93	4095	3934
70	0	0	2045	5	92	4095	3935
71	0	0	2038	5	91	4095	3935
72	0	0	2043	5	91	4095	3934
73	0	0	2051	5	91	4095	3934
74	0	0	2056	5	91	4095	3934
75	0	0	2060	5	91	4095	3934
76	0	0	2062	5	90	4095	3935
77	0	0	2062	5	91	4095	3934
78	0	0	2063	4	90	4095	3936
79	0	0	2056	5	89	4095	3935
80	0	0	2048	5	92	4095	3935
81	0	0	2048	5	92	4095	3935
82	0	0	2052	5	92	4095	3936
83	0	0	2046	4	92	4095	3934
84	0	0	2044	5	93	4095	3935
85	0	0	2043	5	92	4095	3934
86	0	0	2044	5	92	4095	3934
87	0	0	2048	5	91	4095	3934
88	0	0	2052	5	92	4095	3934
89	0	0	2056	5	92	4095	3933
90	0	0	2061	5	92	4095	3934
91	0	0	2062	5	91	4095	3935
92	0	0	2063	5	90	4095	3934
93	0	0	2062	5	90	4095	3934
94	0	0	2063	5	91	4095	3934
95	0	0	2062	5	89	4095	3934
96	0	0	2059	5	91	4095	3936
97	0	0	2046	5	91	4095	3934
98	0	0	2045	5	91	4095	3936
99	0	0	2043	5	91	4095	3936
100	0	0	2040	5	91	4095	3934
101	0	0	2042	5	91	4095	3935
102	0	0	2038	5	92	4095	3934
103	0	0	2043	5	92	4095	3934
104	0	0	2051	5	91	4095	3934
105	0	0	2055	5	92	4095	3934
106	0	0	2058	5	92	4095	3934
107	0	0	2060	5	93	4095	3934
108	0	0	2057	4	93	4095	3934
109	0	0	2058	5	92	4095	3934
110	0	0	2060	5	93	4095	3934
111	0	0	2061	5	91	4095	3935
112	0	0	2061	5	91	4095	3934
113	0	0	2060	5	92	4095	3936
114	0	0	2054	5	91	4095	3936
115	0	0	2044	5	91	4095	3935
116	0	0	2044	5	91	4095	3936
117	0	0	2037	5	92	4095	3934
118	0	0	2041	5	91	4095	3934
119	0	0	2049	5	90	4095	3934
120	0	0	2056	5	92	4095	3934
121	0	0	2060	5	92	4095	3934
122	0	0	2063	5	92	4095	3934
123	0	0	2063	5	92	4095	3934
124	0	0	2066	5	93	4095	3934
125	0	0	2060	6	93	4095	3940
126	0	0	2051	5	91	4095	3935
127	0	0	2052	5	94	4095	3936
0	0	0	2046	6	93	4095	3934
1	0	0	2044	5	93	4095	3935
2	0	0	2045	5	92	4095	3936
3	0	0	2039	5	92	4095	3935
4	0	0	2043	5	93	4095	3934
5	0	0	2050	4	92	4095	3934
6	0	0	2055	5	92	4095	3935
7	0	0	2055	5	91	4095	3935
8	0	0	2056	5	92	4095	3935
9	0	0	2048	5	91	4095	3934
10	0	0	2049	5	92	4095	3935
11	0	0	2046	5	93	4095	3934
12	0	0	2042	5	93	4095	3934
13	0	0	2048	5	92	4095	3935
14	0	0	2053	5	92	4095	3936
15	0	0	2049	4	93	4095	3934
16	0	0	2049	4	93	4095	3934
17	0	0	2054	5	93	4095	3935
18	0	0	2060	5	93	4095	3935
19	0	0	2063	5	93	4095	3934
20	0	0	2065	5	94	4095	3934
21	0	0	2067	5	93	4095	3934
22	0	0	2067	5	92	4095	3934
23	0	0	2065	5	92	4095	3936
24	0	0	2054	5	92	4095	3934
25	0	0	2052	5	92	4095	3935
26	0	0	2051	5	91	4095	3934
27	0	0	2044	5	93	4095	3934
28	0	0	2048	5	92	4095	3935
29	0	0	2040	5	92	4095	3934
30	0	0	2043	5	91	4095	3934
31	0	0	2051	5	91	4095	3935
32	0	0	2053	5	91	4095	3935
33	0	0	2045	5	90	4095	3935
34	0	0	2046	5	91	4095	3934
35	0	0	2048	5	92	4095	3934
36	0	0	2052	5	91	4095	3934
37	0	0	2058	5	88	4095	3935
38	0	0	2062	5	87	4095	3935
39	0	0	2064	5	88	4095	3934
40	0	0	2067	5	87	4095	3934
41	0	0	2067	5	87	4095	3934
42	0	0	2068	5	87	4095	3934
43	0	0	2066	5	85	4095	3935
44	0	0	2065	5	86	4095	3934
45	0	0	2065	5	86	4095	3934
46	0	0	2067	5	85	4095	3934
47	0	0	2066	5	86	4095	3934
48	0	0	2065	5	86	4095	3935
49	0	0	2064	5	86	4095	3934
50	0	0	2064	5	87	4095	3934
51	0	0	2065	5	86	4095	3934
52	0	0	2061	5	88	4095	3936
53	0	0	2052	5	87	4095	3935
54	0	0	2051	5	87	4095	3936
55	0	0	2045	4	88	4095	3934
56	0	0	2043	5	87	4095	3935
57	0	0	2044	5	89	4095	3935
58	0	0	2040	5	87	4095	3935
59	0	0	2045	5	88	4095	3935
60	0	0	2040	6	89	4095	3934
61	0	0	2039	5	88	4095	3934
62	0	0	2042	5	89	4095	3936
63	0	0	2038	5	87	4095	3935
64	0	0	2045	5	87	4095	3935
65	0	0	2043	7	86	4095	3934
66	0	0	2043	5	88	4095	3935
67	0	0	2044	5	86	4095	3935
68	0	0	2039	5	86	4095	3935
69	0	0	2043	5	87	4095	3936
70	0	0	2041	4	89	4095	3935
71	0	0	2039	5	88	4095	3934
72	0	0	2045	5	87	4095	3935
73	0	0	2051	5	87	4095	3935
74	0	0	2055	5	89	4095	3934
75	0	0	2060	5	88	4095	3934
76	0	0	2061	5	89	4095	3933
77	0	0	2062	5	89	4095	3934
78	0	0	2062	5	88	4095	3934
79	0	0	2063	5	88	4095	3934
80	0	0	2065	5	89	4095	3934
81	0	0	2066	5	89	4095	3934
82	0	0	2067	5	88	4095	3934
83	0	0	2064	4	87	4095	3935
84	0	0	2053	4	87	4095	3934
85	0	0	2050	5	88	4095	3935
86	0	0	2046	5	87	4095	3935
87	0	0	2043	5	87	4095	3935
88	0	0	2044	5	87	4095	3936
89	0	0	2039	5	87	4095	3934
90	0	0	2042	5	87	4095	3936
91	0	0	2044	5	88	4095	3934
92	0	0	2041	5	88	4095	3934
93	0	0	2045	5	88	4095	3934
94	0	0	2052	5	88	4095	3934
95	0	0	2056	5	88	4095	3934
96	0	0	2059	4	88	4095	3934
97	0	0	2061	5	89	4095	3934
98	0	0	2060	5	89	4095	3935
99	0	0	2063	5	88	4095	3934
100	0	0	2065	5	88	4095	3934
101	0	0	2065	5	88	4095	3934
102	0	0	2065	5	89	4095	3934
103	0	0	2066	5	86	4095	3935
104	0	0	2066	5	87	4095	3936
105	0	0	2057	4	87	4095	3934
106	0	0	2052	5	87	4095	3934
107	0	0	2050	5	87	4095	3936
108	0	0	2044	5	86	4095	3935
109	0	0	2048	5	87	4095	3935
110	0	0	2044	4	88	4095	3934
111	0	0	2043	5	87	4095	3934
112	0	0	2046	5	88	4095	3934
113	0	0	2050	5	88	4095	3935
114	0	0	2055	5	88	4095	3934
115	0	0	2060	5	89	4095	3934
116	0	0	2063	5	88	4095	3934
117	0	0	2064	5	88	4095	3934
118	0	0	2062	5	90	4095	3936
119	0	0	2053	5	89	4095	3934
120	0	0	2051	5	90	4095	3935
121	0	0	2048	4	89	4095	3935
122	0	0	2045	5	89	4095	3934
123	0	0	2047	5	89	4095	3935
124	0	0	2052	5	89	4095	3934
125	0	0	2056	5	89	4095	3934
126	0	0	2061	3	89	4095	3934
127	0	0	2063	5	88	4095	3934
0	0	0	2065	5	88	4095	3935
1	0	0	2065	5	89	4095	3934
2	0	0	2066	5	88	4095	3934
3	0	0	2066	5	89	4095	3934
4	0	0	2065	5	89	4095	3934
5	0	0	2063	5	89	4095	3935
6	0	0	2063	5	88	4095	3936
7	0	0	2056	6	89	4095	3934
8	0	0	2051	3	89	4095	3935
9	0	0	2049	5	89	4095	3936
10	0	0	2043	5	89	4095	3934
11	0	0	2046	5	90	4095	3934
12	0	0	2049	5	90	4095	3935
13	0	0	2048	5	89	4095	3935
14	0	0	2045	5	88	4095	3934
15	0	0	2049	5	86	4095	3934
16	0	0	2052	5	85	4095	3934
17	0	0	2059	5	83	4095	3934
18	0	0	2063	4	82	4095	3934
19	0	0	2064	5	76	4095	3934
20	0	0	2065	5	73	4095	3935
21	0	0	2065	5	70	4095	3934
22	0	0	2066	5	70	4095	3934
23	0	0	2065	5	68	4095	3934
24	0	0	2065	5	65	4095	3934
25	0	0	2064	5	61	4095	3935
26	0	0	2064	5	59	4095	3936
27	0	0	2056	5	59	4095	3936
28	0	0	2052	6	59	4095	3935
29	0	0	2051	5	60	4095	3935
30	0	0	2043	5	59	4095	3934
31	0	0	2045	5	59	4095	3935
32	0	0	2043	6	61	4095	3934
33	0	0	2043	4	61	4095	3935
34	0	0	2046	5	61	4095	3935
35	0	0	2043	5	58	4095	3935
36	0	0	2049	5	59	4095	3934
37	0	0	2051	5	59	4095	3935
38	0	0	2050	5	60	4095	3934
39	0	0	2046	5	59	4095	3934
40	0	0	2050	5	58	4095	3934
41	0	0	2054	5	58	4095	3934
42	0	0	2059	5	60	4095	3934
43	0	0	2064	4	61	4095	3935
44	0	0	2066	5	60	4095	3934
45	0	0	2066	5	60	4095	3935
46	0	0	2067	5	61	4095	3934
47	0	0	2066	5	62	4095	3934
48	0	0	2066	5	61	4095	3934
49	0	0	2065	5	61	4095	3934
50	0	0	2065	5	61	4095	3935
51	0	0	2065	5	62	4095	3935
52	0	0	2059	5	63	4095	3934
53	0	0	2055	5	63	4095	3934
54	0	0	2054	5	63	4095	3935
55	0	0	2048	5	62	4095	3934
56	0	0	2052	5	61	4095	3935
57	0	0	2052	6	60	4095	3934
58	0	0	2053	4	62	4095	3934
59	0	0	2058	5	62	4095	3935
60	0	0	2062	5	62	4095	3935
61	0	0	2065	5	62	4095	3934
62	0	0	2064	5	61	4095	3934
63	0	0	2065	5	61	4095	3934
64	0	0	2066	5	63	4095	3934
65	0	0	2066	5	62	4095	3934
66	0	0	2066	5	64	4095	3934
67	0	0	2065	5	62	4095	3935
68	0	0	2060	5	65	4095	3934
69	0	0	2052	5	65	4095	3934
70	0	0	2052	5	65	4095	3935
71	0	0	2053	5	65	4095	3934
72	0	0	2057	5	65	4095	3934
73	0	0	2061	5	65	4095	3934
74	0	0	2065	5	65	4095	3935
75	0	0	2061	5	65	4095	3935
76	0	0	2060	5	65	4095	3934
77	0	0	2059	5	64	4095	3935
78	0	0	2056	4	64	4095	3934
79	0	0	2053	5	64	4095	3935
80	0	0	2050	5	64	4095	3935
81	0	0	2050	5	65	4095	3934
82	0	0	2054	5	65	4095	3934
83	0	0	2055	4	65	4095	3934
84	0	0	2056	5	66	4095	3934
85	0	0	2055	5	66	4095	3934
86	0	0	2056	5	65	4095	3934
87	0	0	2059	5	66	4095	3935
88	0	0	2059	4	67	4095	3933
89	0	0	2058	5	66	4095	3935
90	0	0	2055	5	65	4095	3935
91	0	0	2054	6	66	4095	3934
92	0	0	2053	5	66	4095	3934
93	0	0	2051	4	66	4095	3934
94	0	0	2052	5	67	4095	3935
95	0	0	2053	5	65	4095	3935
96	0	0	2055	5	66	4095	3935
97	0	0	2050	5	65	4095	3935
98	0	0	2041	5	65	4095	3935
99	0	0	2035	5	65	4095	3934
100	0	0	2036	5	66	4095	3935
101	0	0	2032	5	65	4095	3934
102	0	0	2035	5	67	4095	3935
103	0	0	2036	5	67	4095	3934
104	0	0	2035	5	67	4095	3934
105	0	0	2040	5	66	4095	3935
106	0	0	2036	5	66	4095	3934
107	0	0	2039	5	68	4095	3936
108	0	0	2039	5	67	4095	3935
109	0	0	2039	5	67	4095	3935
110	0	0	2044	5	69	4095	3936
111	0	0	2040	5	68	4095	3934
112	0	0	2042	5	67	4095	3934
113	0	0	2044	4	67	4095	3934
114	0	0	2049	4	67	4095	3934
115	0	0	2053	5	66	4095	3934
116	0	0	2056	5	67	4095	3934
117	0	0	2057	5	68	4095	3934
118	0	0	2057	4	67	4095	3934
119	0	0	2057	5	67	4095	3934
120	0	0	2058	5	68	4095	3934
121	0	0	2058	5	66	4095	3934
122	0	0	2057	5	68	4095	3934
123	0	0	2058	5	69	4095	3935
124	0	0	2056	5	68	4095	3936
125	0	0	2047	5	67	4095	3935
126	0	0	2048	5	68	4095	3936
127	0	0	2044	6	68	4095	3934
0	0	0	2045	5	68	4095	3935
1	0	0	2045	5	68	4095	3936
2	0	0	2040	5	67	4095	3934
3	0	0	2043	5	68	4095	3935
4	0	0	2041	5	69	4095	3934
5	0	0	2039	5	69	4095	3934
6	0	0	2046	5	67	4095	3934
7	0	0	2052	5	66	4095	3934
8	0	0	2057	5	67	4095	3934
9	0	0	2056	5	67	4095	3934
10	0	0	2057	4	66	4095	3934
11	0	0	2059	5	65	4095	3935
12	0	0	2059	5	65	4095	3935
13	0	0	2058	5	66	4095	3934
14	0	0	2060	5	65	4095	3934
15	0	0	2063	4	66	4095	3935
16	0	0	2061	4	65	4095	3934
17	0	0	2061	5	66	4095	3935
18	0	0	2062	5	66	4095	3934
19	0	0	2063	5	65	4095	3935
20	0	0	2058	5	66	4095	3935
21	0	0	2050	5	65	4095	3934
22	0	0	2050	5	66	4095	3934
23	0	0	2054	5	66	4095	3934
24	0	0	2058	5	66	4095	3934
25	0	0	2059	5	65	4095	3934
26	0	0	2056	5	64	4095	3935
27	0	0	2048	5	65	4095	3935
28	0	0	2046	5	64	4095	3936
29	0	0	2040	5	66	4095	3934
30	0	0	2038	6	65	4095	3934
31	0	0	2042	5	65	4095	3934
32	0	0	2049	5	64	4095	3935
33	0	0	2054	5	66	4095	3934
34	0	0	2058	5	65	4095	3935
35	0	0	2056	5	66	4095	3935
36	0	0	2049	4	65	4095	3934
37	0	0	2050	5	66	4095	3935
38	0	0	2042	5	65	4095	3934
39	0	0	2041	5	67	4095	3935
40	0	0	2040	5	67	4095	3935
41	0	0	2035	5	67	4095	3934
42	0	0	2039	5	66	4095	3935
43	0	0	2035	5	66	4095	3934
44	0	0	2040	5	67	4095	3935
45	0	0	2041	5	66	4095	3935
46	0	0	2039	5	66	4095	3934
47	0	0	2043	5	67	4095	3936
48	0	0	2038	5	66	4095	3934
49	0	0	2039	5	67	4095	3936
50	0	0	2039	5	65	4095	3935
51	0	0	2035	5	66	4095	3934
52	0	0	2041	5	66	4095	3935
53	0	0	2037	5	67	4095	3934
54	0	0	2040	5	67	4095	3935
55	0	0	2042	5	67	4095	3935
56	0	0	2038	5	67	4095	3934
57	0	0	2043	5	68	4095	3935
58	0	0	2038	5	68	4095	3934
59	0	0	2040	5	69	4095	3936
60	0	0	2041	5	68	4095	3935
61	0	0	2039	5	68	4095	3934
62	0	0	2043	5	69	4095	3935
63	0	0	2050	5	69	4095	3934
64	0	0	2056	5	69	4095	3934
65	0	0	2061	6	68	4095	3935
66	0	0	2062	5	69	4095	3935
67	0	0	2054	5	68	4095	3935
68	0	0	2054	4	69	4095	3934
69	0	0	2048	6	68	4095	3934
70	0	0	2048	6	66	4095	3934
71	0	0	2050	5	69	4095	3935
72	0	0	2045	5	68	4095	3934
73	0	0	2049	5	69	4095	3934
74	0	0	2049	5	69	4095	3934
75	0	0	2056	5	68	4095	3934
76	0	0	2059	5	69	4095	3935
77	0	0	2063	5	69	4095	3935
78	0	0	2065	5	69	4095	3934
79	0	0	2067	5	69	4095	3936
80	0	0	2062	5	69	4095	3935
81	0	0	2055	5	69	4095	3935
82	0	0	2055	5	70	4095	3936
83	0	0	2048	5	70	4095	3934
84	0	0	2046	5	70	4095	3934
85	0	0	2054	6	69	4095	3934
86	0	0	2057	5	70	4095	3934
87	0	0	2059	5	69	4095	3934
88	0	0	2061	5	69	4095	3934
89	0	0	2061	5	69	4095	3934
90	0	0	2063	5	68	4095	3934
91	0	0	2059	5	68	4095	3935
92	0	0	2050	5	68	4095	3935
93	0	0	2049	5	69	4095	3935
94	0	0	2043	4	69	4095	3934
95	0	0	2041	6	69	4095	3934
96	0	0	2043	5	69	4095	3936
97	0	0	2035	5	69	4095	3940
98	0	0	2038	5	70	4095	3934
99	0	0	2040	5	69	4095	3934
100	0	0	2048	5	69	4095	3934
101	0	0	2053	5	69	4095	3935
102	0	0	2059	5	70	4095	3934
103	0	0	2062	5	71	4095	3934
104	0	0	2063	5	69	4095	3935
105	0	0	2059	5	69	4095	3934
106	0	0	2051	5	69	4095	3935
107	0	0	2052	5	69	4095	3934
108	0	0	2056	5	69	4095	3934
109	0	0	2058	5	69	4095	3934
110	0	0	2060	6	69	4095	3934
111	0	0	2060	4	69	4095	3936
112	0	0	2052	5	68	4095	3935
113	0	0	2052	4	67	4095	3936
114	0	0	2046	5	69	4095	3934
115	0	0	2045	6	69	4095	3934
116	0	0	2051	5	68	4095	3935
117	0	0	2056	5	69	4095	3934
118	0	0	2060	5	69	4095	3934
119	0	0	2059	5	68	4095	3934
120	0	0	2061	4	69	4095	3934
121	0	0	2063	5	69	4095	3934
122	0	0	2065	5	69	4095	3934
123	0	0	2066	5	69	4095	3934
124	0	0	2066	5	68	4095	3935
125	0	0	2060	5	69	4095	3934
126	0	0	2051	5	68	4095	3935
127	0	0	2051	5	69	4095	3936
0	0	0	2044	5	67	4095	3934
1	0	0	2044	5	67	4095	3934
2	0	0	2052	6	66	4095	3934
3	0	0	2057	5	68	4095	3934
4	0	0	2060	5	67	4095	3935
5	0	0	2064	5	69	4095	3934
6	0	0	2067	5	68	4095	3934
7	0	0	2069	5	69	4095	3934
8	0	0	2066	5	68	4095	3935
9	0	0	2056	5	68	4095	3934
10	0	0	2054	5	69	4095	3934
11	0	0	2057	5	69	4095	3934
12	0	0	2062	4	69	4095	3934
13	0	0	2064	5	69	4095	3934
14	0	0	2065	5	68	4095	3935
15	0	0	2053	5	69	4095	3934
16	0	0	2048	5	69	4095	3934
17	0	0	2051	5	69	4095	3934
18	0	0	2054	5	69	4095	3934
19	0	0	2058	5	69	4095	3935
20	0	0	2061	5	68	4095	3936
21	0	0	2056	7	68	4095	3934
22	0	0	2051	5	68	4095	3934
23	0	0	2049	5	68	4095	3936
24	0	0	2042	5	67	4095	3934
25	0	0	2044	5	67	4095	3935
26	0	0	2042	7	67	4095	3934
27	0	0	2041	5	69	4095	3934
28	0	0	2046	5	68	4095	3934
29	0	0	2052	5	68	4095	3934
30	0	0	2056	5	69	4095	3934
31	0	0	2059	5	69	4095	3934
32	0	0	2061	6	69	4095	3934
33	0	0	2061	5	70	4095	3934
34	0	0	2061	5	71	4095	3936
35	0	0	2050	6	70	4095	3934
36	0	0	2048	5	70	4095	3936
37	0	0	2046	5	71	4095	3935
38	0	0	2043	5	70	4095	3934
39	0	0	2049	5	70	4095	3934
40	0	0	2054	5	70	4095	3934
41	0	0	2057	5	69	4095	3935
42	0	0	2057	5	69	4095	3934
43	0	0	2059	5	70	4095	3934
44	0	0	2060	5	70	4095	3934
45	0	0	2062	5	70	4095	3934
46	0	0	2063	4	72	4095	3934
47	0	0	2064	5	75	4095	3934
48	0	0	2060	5	76	4095	3936
49	0	0	2048	5	77	4095	3935
50	0	0	2048	6	79	4095	3935
51	0	0	2043	5	79	4095	3934
52	0	0	2043	5	79	4095	3934
53	0	0	2050	5	81	4095	3934
54	0	0	2056	5	82	4095	3935
55	0	0	2061	5	82	4095	3934
56	0	0	2064	4	84	4095	3934
57	0	0	2067	5	85	4095	3934
58	0	0	2067	5	85	4095	3934
59	0	0	2068	5	85	4095	3934
60	0	0	2068	5	86	4095	3934
61	0	0	2069	4	87	4095	3934
62	0	0	2068	5	88	4095	3934
63	0	0	2066	5	89	4095	3934
64	0	0	2066	5	88	4095	3934
65	0	0	2067	5	89	4095	3934
66	0	0	2066	5	88	4095	3934
67	0	0	2065	5	89	4095	3935
68	0	0	2061	5	89	4095	3936
69	0	0	2051	5	88	4095	3935
70	0	0	2051	4	86	4095	3936
71	0	0	2046	5	80	4095	3934
72	0	0	2044	5	89	4095	3934
73	0	0	2045	5	91	4095	3935
74	0	0	2041	5	94	4095	3934
75	0	0	2045	5	97	4095	3934
76	0	0	2048	5	99	4095	3935
77	0	0	2048	5	99	4095	3934
78	0	0	2042	5	99	4095	3934
79	0	0	2046	5	99	4095	3935
80	0	0	2040	5	99	4095	3934
81	0	0	2043	5	99	4095	3934
82	0	0	2051	5	100	4095	3934
83	0	0	2054	5	98	4095	3935
84	0	0	2046	5	95	4095	3935
85	0	0	2046	5	95	4095	3934
86	0	0	2051	5	97	4095	3934
87	0	0	2056	5	100	4095	3934
88	0	0	2059	5	100	4095	3934
89	0	0	2061	5	102	4095	3934
90	0	0	2061	5	100	4095	3934
91	0	0	2060	5	100	4095	3935
92	0	0	2055	5	101	4095	3935
93	0	0	2046	5	102	4095	3934
94	0	0	2048	5	101	4095	3935
95	0	0	2042	5	101	4095	3934
96	0	0	2043	5	92	4095	3935
97	0	0	2043	5	77	4095	3934
98	0	0	2040	5	89	4095	3934
99	0	0	2044	5	103	4095	3935
100	0	0	2050	5	113	4095	3934
101	0	0	2051	5	122	4095	3934
102	0	0	2056	5	127	4095	3934
103	0	0	2058	5	133	4095	3935
104	0	0	2059	5	133	4095	3936
105	0	0	2052	5	130	4095	3934
106	0	0	2050	5	111	4095	3935
107	0	0	2054	5	83	4095	3934
108	0	0	2057	5	8	4095	3934
109	0	0	2060	5	0	4095	3935
110	0	0	2063	5	0	4095	3935
111	0	0	2056	5	44	4095	3934
112	0	0	2051	5	83	4095	3934
113	0	0	2053	5	103	4095	3935
114	0	0	2056	5	83	4095	3935
115	0	0	2048	5	92	4095	3934
116	0	0	2048	5	96	4095	3934
117	0	0	2053	5	69	4095	3934
118	0	0	2057	5	26	4095	3934
119	0	0	2060	5	0	4095	3935
120	0	0	2062	4	26	4095	3935
121	0	0	2059	5	76	4095	3934
122	0	0	1759	4	144	4095	3934
123	0	0	1018	4	193	4095	3934
124	0	0	596	4	224	4095	3935
125	0	0	350	3	247	4095	3934
126	0	0	217	4	264	4095	3935
127	0	0	145	4	275	4095	3938
0	0	0	106	4	284	4095	3934
1	0	0	88	4	289	4095	3935
2	0	0	82	4	292	4095	3934
3	0	0	80	4	294	4095	3934
4	0	0	82	5	296	4095	3934
5	0	0	86	4	298	4095	3934
6	0	0	90	4	300	4095	3934
7	0	0	96	4	298	4095	3934
8	0	0	101	4	298	4095	3934
9	0	0	106	4	298	4095	3935
10	0	0	112	4	298	4095	3936
11	0	0	118	4	297	4095	3935
12	0	0	123	3	297	4095	3935
13	0	0	129	4	299	4095	3934
14	0	0	134	3	297	4095	3934
15	0	0	139	4	297	4095	3934
16	0	0	145	4	297	4095	3934
17	0	0	150	3	297	4095	3934
18	0	0	156	4	298	4095	3934
19	0	0	160	4	298	4095	3934
20	0	0	166	4	298	4095	3934
21	0	0	171	4	298	4095	3934
22	0	0	177	4	299	4095	3934
23	0	0	182	4	299	4095	3935
24	0	0	187	4	299	4095	3936
25	0	0	192	3	299	4095	3934
26	0	0	197	4	300	4095	3936
27	0	0	203	4	300	4095	3934
28	0	0	208	4	299	4095	3934
29	0	0	213	4	299	4095	3934
30	0	0	218	4	299	4095	3934
31	0	0	223	4	298	4095	3934
32	0	0	227	3	298	4095	3935
33	0	0	233	4	297	4095	3934
34	0	0	237	4	297	4095	3934
35	0	0	243	4	297	4095	3933
36	0	0	247	4	297	4095	3934
37	0	0	252	4	297	4095	3934
38	0	0	257	4	298	4095	3935
39	0	0	262	4	295	4095	3934
40	0	0	266	3	298	4095	3934
41	0	0	272	4	299	4095	3935
42	0	0	276	4	298	4095	3934
43	0	0	281	4	299	4095	3936
44	0	0	286	4	299	4095	3934
45	0	0	290	4	298	4095	3934
46	0	0	295	4	299	4095	3934
47	0	0	300	4	300	4095	3934
48	0	0	304	4	299	4095	3934
49	0	0	309	4	299	4095	3934
50	0	0	314	4	300	4095	3935
51	0	0	319	4	299	4095	3934
52	0	0	323	3	299	4095	3935
53	0	0	328	4	297	4095	3934
54	0	0	332	4	298	4095	3934
55	0	0	337	4	298	4095	3934
56	0	0	342	4	297	4095	3935
57	0	0	346	4	298	4095	3934
58	0	0	351	4	298	4095	3936
59	0	0	355	4	298	4095	3935
60	0	0	360	3	297	4095	3934
61	0	0	364	4	299	4095	3934
62	0	0	369	4	298	4095	3934
63	0	0	373	4	299	4095	3934
64	0	0	378	4	299	4095	3934
65	0	0	382	4	298	4095	3935
66	0	0	387	4	298	4095	3934
67	0	0	391	4	298	4095	3933
68	0	0	395	4	299	4095	3934
69	0	0	400	5	298	4095	3934
70	0	0	403	3	298	4095	3935
71	0	0	409	4	298	4095	3935
72	0	0	413	4	298	4095	3934
73	0	0	418	4	298	4095	3934
74	0	0	422	4	300	4095	3934
75	0	0	426	4	300	4095	3935
76	0	0	430	4	300	4095	3935
77	0	0	434	4	298	4095	3934
78	0	0	438	4	295	4095	3934
79	0	0	443	4	297	4095	3934
80	0	0	447	4	298	4095	3936
81	0	0	451	4	298	4095	3934
82	0	0	456	4	299	4095	3935
83	0	0	460	4	297	4095	3934
84	0	0	465	4	298	4095	3934
85	0	0	468	4	297	4095	3935
86	0	0	472	4	293	4095	3934
87	0	0	476	4	285	4095	3934
88	0	0	481	4	286	4095	3935
89	0	0	485	4	292	4095	3935
90	0	0	489	4	290	4095	3935
91	0	0	493	4	297	4095	3935
92	0	0	497	4	303	4095	3934
93	0	0	502	3	306	4095	3936
94	0	0	505	4	309	4095	3934
95	0	0	509	4	313	4095	3935
96	0	0	514	4	311	4095	3934
97	0	0	518	4	316	4095	3934
98	0	0	522	5	316	4095	3934
99	0	0	526	4	307	4095	3934
100	0	0	531	3	306	4095	3935
101	0	0	534	4	302	4095	3934
102	0	0	538	4	295	4095	3935
103	0	0	543	4	292	4095	3934
104	0	0	546	4	289	4095	3934
105	0	0	550	4	287	4095	3935
106	0	0	554	4	286	4095	3935
107	0	0	558	4	277	4095	3934
108	0	0	562	4	283	4095	3934
109	0	0	566	5	286	4095	3934
110	0	0	570	5	291	4095	3934
111	0	0	574	4	297	4095	3935
112	0	0	578	4	302	4095	3934
113	0	0	582	4	308	4095	3934
114	0	0	586	4	309	4095	3934
115	0	0	589	5	313	4095	3935
116	0	0	593	4	313	4095	3934
117	0	0	597	4	314	4095	3934
118	0	0	601	4	310	4095	3934
119	0	0	604	4	308	4095	3935
120	0	0	608	4	306	4095	3935
121	0	0	614	4	300	4095	3934
122	0	0	616	3	297	4095	3934
123	0	0	619	4	294	4095	3935
124	0	0	623	5	291	4095	3935
125	0	0	627	5	289	4095	3935
126	0	0	630	4	286	4095	3935
127	0	0	635	4	277	4095	3934
0	0	0	639	5	284	4095	3934
1	0	0	642	4	286	4095	3935
2	0	0	646	4	293	4095	3934
3	0	0	649	4	297	4095	3934
4	0	0	653	4	304	4095	3933
5	0	0	657	4	306	4095	3934
6	0	0	661	4	311	4095	3934
7	0	0	664	5	309	4095	3934
8	0	0	668	4	312	4095	3934
9	0	0	671	3	315	4095	3935
10	0	0	675	4	314	4095	3934
11	0	0	678	4	311	4095	3934
12	0	0	683	4	307	4095	3936
13	0	0	685	4	298	4095	3935
14	0	0	689	4	298	4095	3934
15	0	0	692	4	291	4095	3935
16	0	0	697	4	287	4095	3936
17	0	0	700	5	286	4095	3934
18	0	0	703	4	286	4095	3934
19	0	0	708	3	277	4095	3934
20	0	0	711	4	284	4095	3934
21	0	0	714	4	285	4095	3934
22	0	0	718	5	290	4095	3935
23	0	0	721	4	298	4095	3934
24	0	0	724	4	303	4095	3934
25	0	0	728	4	307	4095	3935
26	0	0	732	4	310	4095	3936
27	0	0	736	4	312	4095	3935
28	0	0	739	4	311	4095	3936
29	0	0	742	4	316	4095	3934
30	0	0	746	4	312	4095	3935
31	0	0	749	5	308	4095	3934
32	0	0	752	4	307	4095	3935
33	0	0	755	4	301	4095	3935
34	0	0	759	4	297	4095	3934
35	0	0	762	4	292	4095	3934
36	0	0	766	4	287	4095	3935
37	0	0	769	4	285	4095	3936
38	0	0	773	4	285	4095	3934
39	0	0	776	4	279	4095	3934
40	0	0	780	4	280	4095	3935
41	0	0	783	4	286	4095	3936
42	0	0	786	4	286	4095	3934
43	0	0	790	4	296	4095	3936
44	0	0	792	4	304	4095	3934
45	0	0	796	4	308	4095	3936
46	0	0	799	4	309	4095	3936
47	0	0	803	3	311	4095	3936
48	0	0	806	4	310	4095	3935
49	0	0	809	4	314	4095	3935
50	0	0	812	4	312	4095	3934
51	0	0	816	4	310	4095	3935
52	0	0	819	3	308	4095	3934
53	0	0	822	4	302	4095	3935
54	0	0	825	4	297	4095	3934
55	0	0	829	4	290	4095	3934
56	0	0	832	4	286	4095	3934
57	0	0	835	4	286	4095	3935
58	0	0	838	4	286	4095	3935
59	0	0	842	4	281	4095	3936
60	0	0	845	4	279	4095	3934
61	0	0	848	4	286	4095	3934
62	0	0	851	4	290	4095	3934
63	0	0	854	4	297	4095	3935
64	0	0	857	4	302	4095	3935
65	0	0	860	4	306	4095	3935
66	0	0	863	4	311	4095	3936
67	0	0	866	4	313	4095	3934
68	0	0	869	4	314	4095	3935
69	0	0	872	4	318	4095	3934
70	0	0	876	4	311	4095	3935
71	0	0	879	3	306	4095	3935
72	0	0	882	4	306	4095	3935
73	0	0	884	4	301	4095	3935
74	0	0	888	4	295	4095	3935
75	0	0	891	4	291	4095	3934
76	0	0	894	4	287	4095	3935
77	0	0	897	3	287	4095	3935
78	0	0	901	4	284	4095	3936
79	0	0	903	4	278	4095	3934
80	0	0	907	4	281	4095	3936
81	0	0	910	4	286	4095	3936
82	0	0	912	3	292	4095	3935
83	0	0	916	4	296	4095	3936
84	0	0	918	5	304	4095	3934
85	0	0	921	4	307	4095	3934
86	0	0	924	4	312	4095	3934
87	0	0	927	4	313	4095	3934
88	0	0	930	4	314	4095	3935
89	0	0	936	5	313	4095	3934
90	0	0	1813	5	133	4095	3934
91	0	0	3128	5	57	4095	3935
92	0	0	3873	5	0	4095	3936
93	0	0	4090	5	0	4095	3935
94	0	0	4090	5	0	4095	3934
95	0	0	4091	5	0	4095	3934
96	0	0	4092	5	0	4095	3935
97	0	0	4091	4	0	4095	3935
98	0	0	4092	5	0	4095	3935
99	0	0	4091	5	0	4095	3934
100	0	0	4092	5	0	4095	3935
101	0	0	4092	5	0	4095	3935
102	0	0	4092	5	0	4095	3934
103	0	0	4092	5	0	4095	3935
104	0	0	4092	5	0	4095	3934
105	0	0	4091	5	0	4095	3934
106	0	0	4092	5	0	4095	3934
107	0	0	4091	4	0	4095	3934
108	0	0	4091	5	0	4095	3935
109	0	0	4091	5	0	4095	3934
110	0	0	4092	5	0	4095	3934
111	0	0	4092	5	0	4095	3934
112	0	0	4091	4	0	4095	3934
113	0	0	4091	5	0	4095	3935
114	0	0	4091	5	0	4095	3935
115	0	0	4091	5	0	4095	3934
116	0	0	4092	5	0	4095	3935
117	0	0	4093	5	0	4095	3936
118	0	0	4091	5	0	4095	3934
119	0	0	4091	5	0	4095	3934
120	0	0	4092	5	0	4095	3934
121	0	0	4092	6	0	4095	3934
122	0	0	4091	6	0	4095	3935
123	0	0	4091	5	0	4095	3935
124	0	0	4091	5	0	4095	3934
125	0	0	4091	5	0	4095	3935
126	0	0	4093	5	0	4095	3935
127	0	0	4091	5	0	4095	3935
0	0	0	4091	5	0	4095	3934
1	0	0	4091	5	0	4095	3934
2	0	0	4091	5	0	4095	3935
3	0	0	4092	5	0	4095	3935
4	0	0	4091	4	0	4095	3935
5	0	0	4091	5	0	4095	3935
6	0	0	4091	5	0	4095	3934
7	0	0	4091	4	0	4095	3934
8	0	0	4092	5	0	4095	3934
9	0	0	4091	4	0	4095	3934
10	0	0	4091	5	0	4095	3934
11	0	0	4091	5	0	4095	3934
12	0	0	4091	5	0	4095	3934
13	0	0	4092	5	0	4095	3934
14	0	0	4091	5	0	4095	3934
15	0	0	4091	6	0	4095	3934
16	0	0	4092	5	0	4095	3936
17	0	0	4093	5	0	4095	3936
18	0	0	4092	5	0	4095	3936
19	0	0	4091	4	0	4095	3935
20	0	0	4092	5	0	4095	3936
21	0	0	4092	5	0	4095	3936
22	0	0	4092	5	0	4095	3934
23	0	0	4091	5	0	4095	3934
24	0	0	4092	5	0	4095	3935
25	0	0	4091	5	0	4095	3934
26	0	0	4091	5	0	4095	3935
27	0	0	4092	5	0	4095	3934
28	0	0	4092	5	0	4095	3934
29	0	0	4092	5	0	4095	3935
30	0	0	4091	5	0	4095	3935
31	0	0	4091	5	0	4095	3934
32	0	0	4091	5	0	4095	3935
33	0	0	4092	5	0	4095	3936
34	0	0	4091	5	0	4095	3935
35	0	0	4091	5	0	4095	3936
36	0	0	4091	6	0	4095	3934
37	0	0	4092	5	0	4095	3936
38	0	0	4092	5	0	4095	3934
39	0	0	4091	5	0	4095	3934
40	0	0	4091	5	0	4095	3934
41	0	0	4091	5	0	4095	3934
42	0	0	4091	5	0	4095	3934
43	0	0	4092	5	0	4095	3934
44	0	0	4092	5	0	4095	3935
45	0	0	4091	5	0	4095	3935
46	0	0	4092	5	0	4095	3936
47	0	0	4092	5	0	4095	3934
48	0	0	4092	5	0	4095	3934
49	0	0	4091	5	0	4095	3935
50	0	0	4092	5	0	4095	3936
51	0	0	4091	6	0	4095	3934
52	0	0	4091	5	0	4095	3935
53	0	0	4092	5	0	4095	3934
54	0	0	4091	4	0	4095	3934
55	0	0	4091	5	0	4095	3935
56	0	0	4091	5	0	4095	3934
57	0	0	4091	5	0	4095	3934
58	0	0	4092	5	0	4095	3934
59	0	0	4092	5	0	4095	3935
60	0	0	4091	5	0	4095	3934
61	0	0	4082	5	0	4095	3934
62	0	0	4077	5	0	4095	3934
63	0	0	4072	5	0	4095	3934
64	0	0	4064	4	0	4095	3935
65	0	0	4061	5	0	4095	3936
66	0	0	4055	5	0	4095	3934
67	0	0	4048	5	0	4095	3935
68	0	0	4044	5	0	4095	3936
69	0	0	4035	5	0	4095	3936
70	0	0	4032	5	0	4095	3936
71	0	0	4024	5	0	4095	3934
72	0	0	4018	6	0	4095	3934
73	0	0	4014	5	0	4095	3934
74	0	0	4007	5	0	4095	3934
75	0	0	4002	5	0	4095	3934
76	0	0	3995	5	0	4095	3933
77	0	0	3991	5	0	4095	3934
78	0	0	3986	5	0	4095	3934
79	0	0	3980	4	0	4095	3934
80	0	0	3974	5	0	4095	3934
81	0	0	3969	5	0	4095	3934
82	0	0	3963	5	0	4095	3935
83	0	0	3959	6	0	4095	3935
84	0	0	3952	5	0	4095	3935
85	0	0	3949	5	0	4095	3936
86	0	0	3942	4	0	4095	3934
87	0	0	3936	5	0	4095	3935
88	0	0	3932	5	0	4095	3934
89	0	0	3927	5	0	4095	3935
90	0	0	3920	5	0	4095	3934
91	0	0	3916	5	0	4095	3934
92	0	0	3909	6	0	4095	3934
93	0	0	3905	5	0	4095	3934
94	0	0	3899	4	0	4095	3934
95	0	0	3893	5	0	4095	3933
96	0	0	3888	5	0	4095	3934
97	0	0	3883	6	0	4095	3934
98	0	0	3879	5	0	4095	3934
99	0	0	3872	4	0	4095	3938
100	0	0	3868	5	0	4095	3935
101	0	0	3862	5	0	4095	3934
102	0	0	3858	5	0	4095	3936
103	0	0	3854	4	0	4095	3936
104	0	0	3847	4	0	4095	3935
105	0	0	3843	5	0	4095	3936
106	0	0	3838	5	0	4095	3934
107	0	0	3832	5	0	4095	3935
108	0	0	3829	6	0	4095	3935
109	0	0	3823	4	0	4095	3934
110	0	0	3818	5	0	4095	3934
111	0	0	3813	6	0	4095	3934
112	0	0	3808	5	0	4095	3935
113	0	0	3804	5	0	4095	3934
114	0	0	3798	4	0	4095	3935
115	0	0	3793	5	0	4095	3934
116	0	0	3788	5	0	4095	3934
117	0	0	3783	5	0	4095	3935
118	0	0	3779	5	0	4095	3935
119	0	0	3776	5	0	4095	3936
120	0	0	3770	5	0	4095	3934
121	0	0	3764	5	0	4095	3936
122	0	0	3761	5	0	4095	3934
123	0	0	3756	5	0	4095	3934
124	0	0	3751	4	0	4095	3934
125	0	0	3745	5	0	4095	3934
126	0	0	3741	5	0	4095	3934
127	0	0	3736	5	0	4095	3934
0	0	0	3732	5	0	4095	3934
1	0	0	3727	5	0	4095	3935
2	0	0	3724	5	0	4095	3935
3	0	0	3719	4	0	4095	3934
4	0	0	3713	5	0	4095	3935
5	0	0	3709	5	0	4095	3936
6	0	0	3704	4	0	4095	3935
7	0	0	3699	5	0	4095	3935
8	0	0	3695	6	0	4095	3935
9	0	0	3691	5	0	4095	3935
10	0	0	3687	5	0	4095	3934
11	0	0	3682	5	0	4095	3935
12	0	0	3677	5	0	4095	3934
13	0	0	3672	5	0	4095	3934
14	0	0	3668	5	0	4095	3934
15	0	0	3663	5	0	4095	3934
16	0	0	3661	5	0	4095	3935
17	0	0	3655	5	0	4095	3934
18	0	0	3650	4	0	4095	3934
19	0	0	3646	5	0	4095	3935
20	0	0	3643	5	0	4095	3936
21	0	0	3638	4	0	4095	3935
22	0	0	3633	5	0	4095	3935
23	0	0	3629	5	0	4095	3934
24	0	0	3624	5	0	4095	3934
25	0	0	3621	5	0	4095	3935
26	0	0	3617	5	0	4095	3936
27	0	0	3612	5	0	4095	3934
28	0	0	3608	5	0	4095	3934
29	0	0	3603	5	0	4095	3934
30	0	0	3599	5	0	4095	3935
31	0	0	3594	5	0	4095	3935
32	0	0	3590	5	0	4095	3934
33	0	0	3586	5	0	4095	3934
34	0	0	3582	5	0	4095	3935
35	0	0	3579	5	0	4095	3935
36	0	0	3574	5	0	4095	3935
37	0	0	3571	5	0	4095	3935
38	0	0	3564	5	0	4095	3935
39	0	0	3561	5	0	4095	3935
40	0	0	3558	5	0	4095	3935
41	0	0	3552	5	0	4095	3935
42	0	0	3549	5	0	4095	3935
43	0	0	3545	5	0	4095	3934
44	0	0	3540	5	0	4095	3934
45	0	0	3537	5	0	4095	3934
46	0	0	3533	5	0	4095	3935
47	0	0	3529	5	0	4095	3934
48	0	0	3525	5	0	4095	3934
49	0	0	3520	5	0	4095	3934
50	0	0	3517	5	0	4095	3936
51	0	0	3514	5	0	4095	3936
52	0	0	3508	5	0	4095	3935
53	0	0	3505	5	0	4095	3936
54	0	0	3502	4	0	4095	3935
55	0	0	3498	5	0	4095	3935
56	0	0	3495	5	0	4095	3936
57	0	0	3489	5	0	4095	3934
58	0	0	3485	5	0	4095	3936
59	0	0	3483	5	1	4095	3934
60	0	0	3478	5	0	4095	3935
61	0	0	3474	5	0	4095	3935
62	0	0	3471	5	0	4095	3934
63	0	0	3467	5	0	4095	3934
64	0	0	3463	5	0	4095	3935
65	0	0	3460	5	0	4095	3935
66	0	0	3455	5	0	4095	3934
67	0	0	3451	5	0	4095	3935
68	0	0	3447	5	0	4095	3934
69	0	0	3445	5	0	4095	3934
70	0	0	3441	5	0	4095	3935
71	0	0	3437	5	0	4095	3936
72	0	0	3431	5	0	4095	3935
73	0	0	3428	4	0	4095	3935
74	0	0	3425	6	0	4095	3935
75	0	0	3422	5	0	4095	3936
76	0	0	3417	5	0	4095	3936
77	0	0	3414	5	0	4095	3935
78	0	0	3411	5	0	4095	3934
79	0	0	3406	5	0	4095	3935
80	0	0	3404	5	0	4095	3935
81	0	0	3399	5	0	4095	3935
82	0	0	3397	5	0	4095	3935
83	0	0	3391	5	0	4095	3934
84	0	0	3389	6	0	4095	3934
85	0	0	3386	5	0	4095	3935
86	0	0	3380	5	0	4095	3935
87	0	0	3378	5	0	4095	3935
88	0	0	3374	5	0	4095	3935
89	0	0	3370	5	0	4095	3935
90	0	0	3368	5	0	4095	3935
91	0	0	3364	5	0	4095	3936
92	0	0	3360	5	0	4095	3936
93	0	0	3358	5	0	4095	3935
94	0	0	3353	5	0	4095	3935
95	0	0	3351	5	0	4095	3936
96	0	0	3346	5	0	4095	3935
97	0	0	3343	5	0	4095	3935
98	0	0	3340	6	0	4095	3934
99	0	0	3336	6	0	4095	3934
100	0	0	3333	5	0	4095	3934
101	0	0	3329	5	0	4095	3935
102	0	0	3326	5	0	4095	3934
103	0	0	3322	6	0	4095	3934
104	0	0	3320	5	0	4095	3934
105	0	0	3316	5	0	4095	3935
106	0	0	3313	5	0	4095	3936
107	0	0	3308	5	0	4095	3934
108	0	0	3305	5	0	4095	3935
109	0	0	3302	5	0	4095	3935
110	0	0	3300	5	0	4095	3936
111	0	0	3295	5	0	4095	3934
112	0	0	3291	5	0	4095	3934
113	0	0	3289	5	0	4095	3934
114	0	0	3285	5	0	4095	3935
115	0	0	3282	5	0	4095	3934
116	0	0	3280	5	0	4095	3935
117	0	0	3275	5	0	4095	3934
118	0	0	3271	5	0	4095	3934
119	0	0	3269	6	0	4095	3934
120	0	0	3266	5	0	4095	3935
121	0	0	3262	5	0	4095	3935
122	0	0	3258	5	0	4095	3934
123	0	0	3257	5	0	4095	3934
124	0	0	3252	5	0	4095	3935
125	0	0	3250	5	0	4095	3936
126	0	0	3246	6	0	4095	3935
127	0	0	3243	5	0	4095	3934
0	0	0	3240	6	0	4095	3936
1	0	0	3238	5	0	4095	3940
2	0	0	3234	5	0	4095	3934
3	0	0	3229	5	0	4095	3934
4	0	0	3227	5	0	4095	3934
5	0	0	3224	4	0	4095	3934
6	0	0	3221	5	0	4095	3935
7	0	0	3219	5	0	4095	3936
8	0	0	3214	5	0	4095	3935
9	0	0	3211	5	0	4095	3934
10	0	0	3208	5	0	4095	3934
11	0	0	3206	5	0	4095	3935
12	0	0	3203	5	0	4095	3934
13	0	0	3199	5	0	4095	3935
14	0	0	3196	5	0	4095	3935
15	0	0	3194	5	0	4095	3934
16	0	0	3192	5	0	4095	3934
17	0	0	3187	5	0	4095	3935
18	0	0	3183	5	0	4095	3934
19	0	0	3181	5	0	4095	3935
20	0	0	3179	5	0	4095	3934
21	0	0	3175	5	0	4095	3934
22	0	0	3173	5	0	4095	3935
23	0	0	3169	5	0	4095	3935
24	0	0	3167	5	0	4095	3934
25	0	0	3164	5	0	4095	3934
26	0	0	3159	5	0	4095	3935
27	0	0	3158	5	0	4095	3936
28	0	0	3153	5	0	4095	3935
29	0	0	3152	5	0	4095	3936
30	0	0	3149	5	0	4095	3934
31	0	0	3144	5	0	4095	3935
32	0	0	3143	5	0	4095	3935
33	0	0	3140	5	0	4095	3936
34	0	0	3136	5	0	4095	3935
35	0	0	3133	6	0	4095	3934
36	0	0	3131	5	0	4095	3935
37	0	0	3129	5	0	4095	3935
38	0	0	3124	5	0	4095	3935
39	0	0	3123	5	0	4095	3935
40	0	0	3119	6	0	4095	3934
41	0	0	3118	5	0	4095	3935
42	0	0	3114	5	0	4095	3934
43	0	0	3111	5	0	4095	3935
44	0	0	3108	5	0	4095	3935
45	0	0	3105	5	0	4095	3934
46	0	0	3104	5	0	4095	3935
47	0	0	3100	5	0	4095	3935
48	0	0	3098	5	0	4095	3936
49	0	0	3093	5	0	4095	3934
50	0	0	3091	5	0	4095	3934
51	0	0	3089	5	0	4095	3935
52	0	0	3087	5	0	4095	3935
53	0	0	3082	5	0	4095	3935
54	0	0	3081	5	0	4095	3935
55	0	0	3078	5	0	4095	3934
56	0	0	3074	5	0	4095	3934
57	0	0	3073	5	0	4095	3935
58	0	0	3067	5	0	4095	3935
59	0	0	3065	5	0	4095	3934
60	0	0	3062	5	0	4095	3934
61	0	0	3060	5	0	4095	3935
62	0	0	3057	5	0	4095	3935
63	0	0	3054	5	0	4095	3935
64	0	0	3052	5	0	4095	3935
65	0	0	3050	4	0	4095	3934
66	0	0	3047	5	0	4095	3934
67	0	0	3044	5	11	4095	3934
68	0	0	3042	5	16	4095	3935
69	0	0	3038	5	19	4095	3934
70	0	0	3036	5	22	4095	3934
71	0	0	3033	5	28	4095	3935
72	0	0	3032	5	33	4095	3935
73	0	0	3028	5	35	4095	3935
74	0	0	3026	5	41	4095	3934
75	0	0	3023	6	41	4095	3934
76	0	0	3020	4	53	4095	3934
77	0	0	3018	5	61	4095	3934
78	0	0	3015	5	66	4095	3935
79	0	0	3013	5	76	4095	3935
80	0	0	3011	5	86	4095	3936
81	0	0	3009	5	90	4095	3935
82	0	0	3005	5	96	4095	3935
83	0	0	3003	5	102	4095	3936
84	0	0	2999	5	105	4095	3934
85	0	0	2997	5	109	4095	3934
86	0	0	2995	5	109	4095	3934
87	0	0	2992	5	105	4095	3934
88	0	0	2990	5	104	4095	3934
89	0	0	2987	5	103	4095	3934
90	0	0	2984	5	102	4095	3934
91	0	0	2981	5	100	4095	3934
92	0	0	2980	5	99	4095	3934
93	0	0	2977	5	94	4095	3935
94	0	0	2976	5	98	4095	3936
95	0	0	2972	5	93	4095	3934
96	0	0	2970	5	94	4095	3935
97	0	0	2969	5	3	4095	3936
98	0	0	2964	5	0	4095	3935
99	0	0	2962	5	0	4095	3934
100	0	0	2959	5	0	4095	3934
101	0	0	2958	4	0	4095	3934
102	0	0	2956	5	0	4095	3934
103	0	0	2952	4	0	4095	3934
104	0	0	2950	5	0	4095	3934
105	0	0	2948	5	0	4095	3935
106	0	0	2947	5	0	4095	3934
107	0	0	2944	5	0	4095	3934
108	0	0	2942	5	0	4095	3935
109	0	0	2938	5	0	4095	3934
110	0	0	2935	5	0	4095	3934
111	0	0	2934	5	0	4095	3934
112	0	0	2932	5	0	4095	3935
113	0	0	2929	5	0	4095	3935
114	0	0	2926	5	0	4095	3935
115	0	0	2923	5	0	4095	3934
116	0	0	2921	5	0	4095	3934
117	0	0	2920	5	0	4095	3934
118	0	0	2918	5	0	4095	3935
119	0	0	2916	5	0	4095	3935
120	0	0	2913	5	0	4095	3934
121	0	0	2909	5	0	4095	3935
122	0	0	2909	5	0	4095	3935
123	0	0	2905	6	0	4095	3935
124	0	0	2903	5	0	4095	3934
125	0	0	2900	4	0	4095	3934
126	0	0	2898	5	0	4095	3934
127	0	0	2897	5	0	4095	3934
0	0	0	2894	5	0	4095	3935
1	0	0	2892	5	0	4095	3934
2	0	0	2890	5	0	4095	3936
3	0	0	2888	5	0	4095	3935
4	0	0	2885	5	0	4095	3935
5	0	0	2883	5	0	4095	3935
6	0	0	2880	5	0	4095	3934
7	0	0	2878	5	0	4095	3934
8	0	0	2877	5	0	4095	3934
9	0	0	2874	5	0	4095	3934
10	0	0	2872	5	0	4095	3934
11	0	0	2870	5	0	4095	3934
12	0	0	2867	5	0	4095	3934
13	0	0	2865	5	0	4095	3934
14	0	0	2863	5	0	4095	3934
15	0	0	2860	5	0	4095	3935
16	0	0	2859	5	0	4095	3934
17	0	0	2857	4	0	4095	3936
18	0	0	2855	5	0	4095	3935
19	0	0	2852	5	0	4095	3935
20	0	0	2851	4	0	4095	3936
21	0	0	2847	5	0	4095	3934
22	0	0	2845	5	0	4095	3934
23	0	0	2843	5	0	4095	3934
24	0	0	2841	5	0	4095	3934
25	0	0	2840	5	0	4095	3934
26	0	0	2838	5	0	4095	3935
27	0	0	2835	5	0	4095	3934
28	0	0	2833	5	0	4095	3934
29	0	0	2831	5	0	4095	3934
30	0	0	2828	5	0	4095	3935
31	0	0	2827	5	0	4095	3933
32	0	0	2825	5	0	4095	3936
33	0	0	2824	5	0	4095	3935
34	0	0	2821	5	0	4095	3935
35	0	0	2820	5	0	4095	3936
36	0	0	2816	5	0	4095	3934
37	0	0	2814	4	0	4095	3936
38	0	0	2813	5	0	4095	3934
39	0	0	2810	5	0	4095	3934
40	0	0	2809	5	0	4095	3935
41	0	0	2806	5	0	4095	3934
42	0	0	2804	5	0	4095	3934
43	0	0	2803	5	0	4095	3934
44	0	0	2801	5	0	4095	3934
45	0	0	2798	5	0	4095	3935
46	0	0	2796	5	0	4095	3934
47	0	0	2794	5	0	4095	3934
48	0	0	2792	5	0	4095	3934
49	0	0	2791	5	0	4095	3935
50	0	0	2789	5	0	4095	3935
51	0	0	2787	5	0	4095	3936
52	0	0	2785	5	0	4095	3935
53	0	0	2783	5	0	4095	3935
54	0	0	2782	5	0	4095	3936
55	0	0	2778	5	0	4095	3935
56	0	0	2777	5	0	4095	3936
57	0	0	2775	4	0	4095	3934
58	0	0	2773	5	0	4095	3934
59	0	0	2771	5	0	4095	3934
60	0	0	2768	5	0	4095	3935
61	0	0	2767	5	0	4095	3934
62	0	0	2766	4	0	4095	3934
63	0	0	2763	5	0	4095	3934
64	0	0	2761	5	0	4095	3935
65	0	0	2758	5	0	4095	3935
66	0	0	2757	5	0	4095	3934
67	0	0	2755	5	0	4095	3934
68	0	0	2754	5	0	4095	3935
69	0	0	2752	5	0	4095	3936
70	0	0	2749	5	0	4095	3935
71	0	0	2749	5	0	4095	3935
72	0	0	2746	5	0	4095	3934
73	0	0	2744	5	0	4095	3935
74	0	0	2743	5	0	4095	3935
75	0	0	2740	5	0	4095	3934
76	0	0	2739	5	0	4095	3935
77	0	0	2737	4	0	4095	3934
78	0	0	2735	5	0	4095	3934
79	0	0	2733	5	0	4095	3934
80	0	0	2731	5	0	4095	3935
81	0	0	2729	5	0	4095	3934
82	0	0	2727	4	0	4095	3934
83	0	0	2725	5	0	4095	3934
84	0	0	2724	5	0	4095	3935
85	0	0	2723	5	0	4095	3936
86	0	0	2720	5	0	4095	3935
87	0	0	2718	5	0	4095	3934
88	0	0	2716	5	0	4095	3934
89	0	0	2714	5	0	4095	3935
90	0	0	2712	5	0	4095	3935
91	0	0	2711	5	0	4095	3934
92	0	0	2709	5	0	4095	3934
93	0	0	2708	5	0	4095	3934
94	0	0	2706	5	0	4095	3934
95	0	0	2702	5	0	4095	3934
96	0	0	2702	5	0	4095	3934
97	0	0	2701	5	0	4095	3934
98	0	0	2699	5	0	4095	3934
99	0	0	2698	5	0	4095	3936
100	0	0	2695	5	0	4095	3935
101	0	0	2695	5	0	4095	3936
102	0	0	2692	5	0	4095	3934
103	0	0	2690	5	0	4095	3935
104	0	0	2689	5	0	4095	3936
105	0	0	2686	5	0	4095	3935
106	0	0	2686	5	0	4095	3936
107	0	0	2683	5	0	4095	3934
108	0	0	2682	5	0	4095	3934
109	0	0	2680	5	0	4095	3934
110	0	0	2679	5	0	4095	3935
111	0	0	2676	5	0	4095	3934
112	0	0	2674	5	0	4095	3934
113	0	0	2673	5	0	4095	3934
114	0	0	2671	5	0	4095	3935
115	0	0	2670	5	0	4095	3935
116	0	0	2667	5	0	4095	3934
117	0	0	2666	5	0	4095	3935
118	0	0	2664	5	0	4095	3934
119	0	0	2663	5	0	4095	3935
120	0	0	2662	5	0	4095	3935
121	0	0	2661	5	0	4095	3936
122	0	0	2658	6	0	4095	3934
123	0	0	2657	5	0	4095	3934
124	0	0	2655	5	0	4095	3935
125	0	0	2652	5	0	4095	3935
126	0	0	2651	5	0	4095	3934
127	0	0	2649	5	0	4095	3934
0	0	0	2648	5	0	4095	3934
1	0	0	2647	5	0	4095	3934
2	0	0	2645	5	0	4095	3935
3	0	0	2643	5	0	4095	3934
4	0	0	2642	4	0	4095	3936
5	0	0	2641	5	0	4095	3935
6	0	0	2639	5	0	4095	3935
7	0	0	2636	5	0	4095	3935
8	0	0	2635	5	0	4095	3934
9	0	0	2633	5	0	4095	3934
10	0	0	2633	5	0	4095	3934
11	0	0	2630	5	0	4095	3934
12	0	0	2629	5	0	4095	3935
13	0	0	2627	5	0	4095	3934
14	0	0	2625	5	0	4095	3934
15	0	0	2624	5	0	4095	3934
16	0	0	2623	5	0	4095	3934
17	0	0	2621	5	0	4095	3935
18	0	0	2621	5	0	4095	3935
19	0	0	2619	5	0	4095	3934
20	0	0	2617	5	0	4095	3934
21	0	0	2615	5	0	4095	3935
22	0	0	2613	5	0	4095	3935
23	0	0	2612	5	0	4095	3935
24	0	0	2611	5	0	4095	3936
25	0	0	2609	5	0	4095	3935
26	0	0	2607	5	0	4095	3935
27	0	0	2605	5	0	4095	3935
28	0	0	2604	5	0	4095	3934
29	0	0	2603	5	0	4095	3934
30	0	0	2602	5	0	4095	3934
31	0	0	2600	5	0	4095	3934
32	0	0	2598	5	0	4095	3935
33	0	0	2597	5	0	4095	3934
34	0	0	2595	5	0	4095	3934
35	0	0	2594	4	0	4095	3934
36	0	0	2593	5	0	4095	3934
37	0	0	2591	5	0	4095	3935
38	0	0	2589	5	0	4095	3934
39	0	0	2587	5	0	4095	3934
40	0	0	2586	5	0	4095	3935
41	0	0	2586	5	0	4095	3935
42	0	0	2583	5	0	4095	3935
43	0	0	2582	5	0	4095	3934
44	0	0	2580	5	0	4095	3934
45	0	0	2579	4	0	4095	3934
46	0	0	2579	5	0	4095	3936
47	0	0	2577	5	0	4095	3935
48	0	0	2576	6	0	4095	3934
49	0	0	2573	5	0	4095	3935
50	0	0	2573	5	0	4095	3934
51	0	0	2571	5	0	4095	3934
52	0	0	2570	5	0	4095	3935
53	0	0	2567	5	0	4095	3934
54	0	0	2567	5	0	4095	3936
55	0	0	2566	5	0	4095	3935
56	0	0	2564	5	0	4095	3935
57	0	0	2563	5	0	4095	3936
58	0	0	2561	5	0	4095	3934
59	0	0	2560	5	0	4095	3936
60	0	0	2558	5	0	4095	3934
61	0	0	2556	5	0	4095	3934
62	0	0	2555	5	0	4095	3935
63	0	0	2554	5	0	4095	3934
64	0	0	2552	5	0	4095	3934
65	0	0	2551	5	0	4095	3935
66	0	0	2550	5	0	4095	3935
67	0	0	2547	5	0	4095	3935
68	0	0	2547	5	0	4095	3934
69	0	0	2546	4	0	4095	3934
70	0	0	2544	5	0	4095	3934
71	0	0	2543	5	0	4095	3935
72	0	0	2542	5	0	4095	3936
73	0	0	2540	5	0	4095	3934
74	0	0	2538	5	0	4095	3934
75	0	0	2538	5	0	4095	3934
76	0	0	2536	5	0	4095	3935
77	0	0	2535	5	0	4095	3935
78	0	0	2535	5	0	4095	3935
79	0	0	2533	5	0	4095	3934
80	0	0	2531	5	0	4095	3934
81	0	0	2529	5	0	4095	3934
82	0	0	2528	5	0	4095	3935
83	0	0	2527	5	0	4095	3934
84	0	0	2525	5	0	4095	3934
85	0	0	2524	5	0	4095	3934
86	0	0	2523	5	0	4095	3935
87	0	0	2523	5	0	4095	3936
88	0	0	2519	5	0	4095	3934
89	0	0	2519	5	0	4095	3936
90	0	0	2518	5	0	4095	3935
91	0	0	2517	5	0	4095	3935
92	0	0	2515	5	0	4095	3935
93	0	0	2514	5	0	4095	3934
94	0	0	2513	5	0	4095	3934
95	0	0	2512	5	0	4095	3934
96	0	0	2511	5	0	4095	3934
97	0	0	2509	5	0	4095	3934
98	0	0	2510	5	0	4095	3935
99	0	0	2508	5	0	4095	3934
100	0	0	2506	5	0	4095	3934
101	0	0	2505	5	0	4095	3935
102	0	0	2503	5	0	4095	3935
103	0	0	2502	5	0	4095	3934
104	0	0	2500	5	0	4095	3936
105	0	0	2499	5	0	4095	3935
106	0	0	2499	5	0	4095	3934
107	0	0	2496	5	0	4095	3935
108	0	0	2496	5	0	4095	3935
109	0	0	2494	5	0	4095	3934
110	0	0	2493	5	0	4095	3934
111	0	0	2492	5	0	4095	3934
112	0	0	2491	5	0	4095	3935
113	0	0	2490	5	0	4095	3935
114	0	0	2489	6	0	4095	3934
115	0	0	2487	5	0	4095	3934
116	0	0	2487	5	0	4095	3935
117	0	0	2484	5	0	4095	3935
118	0	0	2483	5	0	4095	3934
119	0	0	2481	5	0	4095	3934
120	0	0	2481	5	0	4095	3934
121	0	0	2480	6	0	4095	3935
122	0	0	2480	5	0	4095	3936
123	0	0	2476	5	0	4095	3935
124	0	0	2476	5	0	4095	3934
125	0	0	2476	5	0	4095	3935
126	0	0	2475	5	0	4095	3935
127	0	0	2472	5	0	4095	3935
0	0	0	2471	5	0	4095	3934
1	0	0	2471	5	0	4095	3934
2	0	0	2470	5	0	4095	3934
3	0	0	2469	5	0	4095	3934
4	0	0	2467	5	0	4095	3934
5	0	0	2466	5	0	4095	3935
6	0	0	2465	5	0	4095	3934
7	0	0	2464	5	0	4095	3934
8	0	0	2463	5	0	4095	3935
9	0	0	2461	5	0	4095	3935
10	0	0	2461	5	0	4095	3934
11	0	0	2459	5	0	4095	3934
12	0	0	2459	5	0	4095	3935
13	0	0	2457	5	0	4095	3934
14	0	0	2457	5	0	4095	3936
15	0	0	2455	5	0	4095	3934
16	0	0	2453	5	0	4095	3934
17	0	0	2453	5	0	4095	3934
18	0	0	2451	5	0	4095	3934
19	0	0	2450	5	0	4095	3935
20	0	0	2450	5	0	4095	3935
21	0	0	2449	5	0	4095	3934
22	0	0	2447	4	0	4095	3934
23	0	0	2446	5	0	4095	3934
24	0	0	2445	5	0	4095	3934
25	0	0	2444	5	0	4095	3935
26	0	0	2442	5	0	4095	3936
27	0	0	2443	5	0	4095	3934
28	0	0	2441	5	0	4095	3935
29	0	0	2440	5	0	4095	3935
30	0	0	2438	5	0	4095	3934
31	0	0	2438	5	0	4095	3934
32	0	0	2436	5	0	4095	3934
33	0	0	2436	5	0	4095	3934
34	0	0	2434	5	0	4095	3934
35	0	0	2433	5	0	4095	3934
36	0	0	2432	5	0	4095	3934
37	0	0	2432	5	0	4095	3934
38	0	0	2430	5	0	4095	3934
39	0	0	2429	5	0	4095	3935
40	0	0	2428	5	0	4095	3934
41	0	0	2427	5	0	4095	3934
42	0	0	2427	5	0	4095	3934
43	0	0	2426	5	0	4095	3935
44	0	0	2425	5	0	4095	3936
45	0	0	2423	5	0	4095	3934
46	0	0	2422	5	0	4095	3936
47	0	0	2422	5	0	4095	3935
48	0	0	2420	5	0	4095	3934
49	0	0	2419	5	0	4095	3936
50	0	0	2418	5	0	4095	3934
51	0	0	2417	5	0	4095	3935
52	0	0	2416	5	0	4095	3924
53	0	0	2415	5	0	4095	3935
54	0	0	2414	5	0	4095	3934
55	0	0	2413	5	0	4095	3934
56	0	0	2413	5	0	4095	3934
57	0	0	2411	4	0	4095	3935
58	0	0	2410	5	0	4095	3934
59	0	0	2409	5	0	4095	3935
60	0	0	2408	5	0	4095	3936
61	0	0	2408	5	0	4095	3934
62	0	0	2406	4	0	4095	3934
63	0	0	2405	5	0	4095	3935
64	0	0	2405	5	0	4095	3935
65	0	0	2403	5	0	4095	3934
66	0	0	2401	5	0	4095	3934
67	0	0	2402	4	0	4095	3934
68	0	0	2401	5	0	4095	3934
69	0	0	2399	5	0	4095	3934
70	0	0	2398	5	0	4095	3934
71	0	0	2398	5	0	4095	3934
72	0	0	2397	4	0	4095	3935
73	0	0	2396	5	0	4095	3935
74	0	0	2394	6	0	4095	3935
75	0	0	2394	5	0	4095	3936
76	0	0	2393	5	0	4095	3934
77	0	0	2392	5	0	4095	3935
78	0	0	2391	5	0	4095	3935
79	0	0	2390	5	0	4095	3935
80	0	0	2389	5	0	4095	3934
81	0	0	2388	5	0	4095	3934
82	0	0	2388	5	0	4095	3934
83	0	0	2386	5	0	4095	3934
84	0	0	2385	5	0	4095	3934
85	0	0	2384	5	0	4095	3934
86	0	0	2384	5	0	4095	3934
87	0	0	2382	5	0	4095	3934
88	0	0	2382	5	0	4095	3934
89	0	0	2382	5	0	4095	3935
90	0	0	2380	5	0	4095	3934
91	0	0	2378	5	0	4095	3935
92	0	0	2379	5	0	4095	3934
93	0	0	2378	4	0	4095	3934
94	0	0	2376	5	0	4095	3936
95	0	0	2375	5	0	4095	3934
96	0	0	2374	5	0	4095	3936
97	0	0	2374	5	0	4095	3935
98	0	0	2372	5	0	4095	3935
99	0	0	2371	5	0	4095	3935
100	0	0	2370	5	0	4095	3934
101	0	0	2369	5	0	4095	3935
102	0	0	2370	5	0	4095	3934
103	0	0	2369	5	0	4095	3935
104	0	0	2367	5	0	4095	3934
105	0	0	2366	5	0	4095	3934
106	0	0	2365	5	0	4095	3934
107	0	0	2365	5	0	4095	3934
108	0	0	2364	5	0	4095	3934
109	0	0	2363	5	0	4095	3935
110	0	0	2362	5	0	4095	3934
111	0	0	2362	5	0	4095	3936
112	0	0	2361	5	0	4095	3935
113	0	0	2360	5	0	4095	3935
114	0	0	2359	5	0	4095	3936
115	0	0	2357	5	0	4095	3934
116	0	0	2357	5	0	4095	3934
117	0	0	2356	6	0	4095	3935
118	0	0	2356	5	0	4095	3934
119	0	0	2354	5	0	4095	3935
120	0	0	2353	5	0	4095	3934
121	0	0	2353	5	0	4095	3934
122	0	0	2352	5	0	4095	3934
123	0	0	2352	5	0	4095	3934
124	0	0	2350	5	0	4095	3935
125	0	0	2349	5	0	4095	3934
126	0	0	2349	5	0	4095	3934
127	0	0	2349	5	0	4095	3935
0	0	0	2348	5	0	4095	3936
1	0	0	2345	5	0	4095	3935
2	0	0	2345	5	0	4095	3936
3	0	0	2345	4	0	4095	3926
4	0	0	2344	5	0	4095	3934
5	0	0	2343	5	0	4095	3934
6	0	0	2343	5	0	4095	3935
7	0	0	2341	5	0	4095	3934
8	0	0	2340	5	0	4095	3934
9	0	0	2340	6	0	4095	3934
10	0	0	2340	5	0	4095	3934
11	0	0	2338	5	0	4095	3934
12	0	0	2337	5	0	4095	3934
13	0	0	2337	5	0	4095	3934
14	0	0	2336	5	0	4095	3935
15	0	0	2336	5	0	4095	3935
16	0	0	2333	5	0	4095	3935
17	0	0	2333	5	0	4095	3936
18	0	0	2333	6	0	4095	3935
19	0	0	2331	5	0	4095	3934
20	0	0	2332	5	0	4095	3935
21	0	0	2330	5	0	4095	3935
22	0	0	2329	5	0	4095	3934
23	0	0	2328	5	0	4095	3935
24	0	0	2328	6	0	4095	3934
25	0	0	2327	5	0	4095	3934
26	0	0	2326	5	0	4095	3934
27	0	0	2325	5	0	4095	3934
28	0	0	2326	5	0	4095	3934
29	0	0	2324	5	0	4095	3934
30	0	0	2325	5	0	4095	3935
31	0	0	2323	5	0	4095	3935
32	0	0	2322	5	0	4095	3936
33	0	0	2322	6	0	4095	3934
34	0	0	2321	6	0	4095	3934
35	0	0	2320	5	0	4095	3935
36	0	0	2319	5	0	4095	3935
37	0	0	1935	4	0	4095	3934
38	0	0	307	4	0	4095	3935
39	0	0	0	4	0	4095	3935
40	0	0	0	4	112	4095	3934
41	0	0	0	4	171	4095	3935
42	0	0	0	4	210	4095	3934
43	0	0	0	4	236	4095	3934
44	0	0	0	4	255	4095	3934
45	0	0	0	3	268	4095	3934
46	0	0	0	4	278	4095	3935
47	0	0	0	4	281	4095	3935
48	0	0	0	5	284	4095	3934
49	0	0	0	4	286	4095	3935
50	0	0	0	4	289	4095	3936
51	0	0	0	4	293	4095	3935
52	0	0	0	4	291	4095	3934
53	0	0	0	4	292	4095	3936
54	0	0	0	4	290	4095	3934
55	0	0	0	3	289	4095	3934
56	0	0	0	4	289	4095	3935
57	0	0	0	4	289	4095	3934
58	0	0	0	4	287	4095	3934
59	0	0	0	4	287	4095	3934
60	0	0	0	3	285	4095	3934
61	0	0	0	4	282	4095	3935
62	0	0	0	4	285	4095	3935
63	0	0	0	4	277	4095	3934
64	0	0	0	4	280	4095	3934
65	0	0	0	4	289	4095	3936
66	0	0	0	4	288	4095	3935
67	0	0	0	3	294	4095	3934
68	0	0	0	4	300	4095	3935
69	0	0	0	4	301	4095	3935
70	0	0	0	4	303	4095	3934
71	0	0	0	4	304	4095	3936
72	0	0	0	4	301	4095	3934
73	0	0	0	4	302	4095	3934
74	0	0	0	4	302	4095	3934
75	0	0	0	4	296	4095	3935
76	0	0	0	4	297	4095	3934
77	0	0	0	4	290	4095	3935
78	0	0	0	5	286	4095	3934
79	0	0	0	4	287	4095	3934
80	0	0	0	4	281	4095	3934
81	0	0	0	4	282	4095	3935
82	0	0	0	4	282	4095	3939
83	0	0	0	4	273	4095	3934
84	0	0	0	4	275	4095	3934
85	0	0	0	4	282	4095	3934
86	0	0	0	4	288	4095	3936
87	0	0	0	4	292	4095	3934
88	0	0	0	4	299	4095	3936
89	0	0	0	4	302	4095	3934
90	0	0	0	3	306	4095	3934
91	0	0	0	4	307	4095	3935
92	0	0	0	4	310	4095	3934
93	0	0	0	4	311	4095	3934
94	0	0	0	4	309	4095	3934
95	0	0	0	4	303	4095	3934
96	0	0	0	4	300	4095	3935
97	0	0	0	4	297	4095	3934
98	0	0	0	4	291	4095	3934
99	0	0	0	4	286	4095	3934
100	0	0	0	3	284	4095	3935
101	0	0	0	4	281	4095	3935
102	0	0	0	4	283	4095	3936
103	0	0	0	4	277	4095	3934
104	0	0	0	4	276	4095	3934
105	0	0	0	4	284	4095	3934
106	0	0	0	4	289	4095	3934
107	0	0	0	4	293	4095	3934
108	0	0	0	4	300	4095	3934
109	0	0	0	3	304	4095	3934
110	0	0	0	4	305	4095	3934
111	0	0	0	4	308	4095	3934
112	0	0	0	4	308	4095	3934
113	0	0	0	4	313	4095	3934
114	0	0	0	4	305	4095	3934
115	0	0	0	4	307	4095	3935
116	0	0	0	4	303	4095	3936
117	0	0	0	4	294	4095	3935
118	0	0	0	5	178	4095	3936
119	0	0	647	5	0	4095	3936
120	0	0	2023	4	0	4095	3934
121	0	0	2798	5	0	4095	3936
122	0	0	3261	5	0	4095	3934
123	0	0	3537	5	0	4095	3935
124	0	0	3700	5	0	4095	3934
125	0	0	3789	5	0	4095	3934
126	0	0	3838	5	0	4095	3935
127	0	0	3864	5	0	4095	3935
0	0	0	3877	6	0	4095	3934
1	0	0	3881	5	0	4095	3935
2	0	0	3879	5	0	4095	3935
3	0	0	3877	5	0	4095	3935
4	0	0	3872	5	0	4095	3934
5	0	0	3867	5	0	4095	3934
6	0	0	3864	4	0	4095	3935
7	0	0	3858	5	0	4095	3935
8	0	0	3852	5	0	4095	3935
9	0	0	3846	5	0	4095	3934
10	0	0	3842	5	0	4095	3934
11	0	0	3835	5	0	4095	3934
12	0	0	3831	5	0	4095	3935
13	0	0	3825	5	0	4095	3935
14	0	0	3818	5	0	4095	3934
15	0	0	3813	5	0	4095	3935
16	0	0	3808	5	0	4095	3934
17	0	0	3801	5	0	4095	3934
18	0	0	3798	5	0	4095	3936
19	0	0	3790	5	0	4095	3934
20	0	0	3784	6	0	4095	3934
21	0	0	3780	6	0	4095	3934
22	0	0	3774	5	0	4095	3935
23	0	0	3769	6	0	4095	3935
24	0	0	3763	5	0	4095	3934
25	0	0	3758	5	0	4095	3934
26	0	0	3753	5	0	4095	3934
27	0	0	3747	5	0	4095	3934
28	0	0	3742	5	0	4095	3934
29	0	0	3738	4	0	4095	3935
30	0	0	3733	5	0	4095	3934
31	0	0	3727	6	0	4095	3934
32	0	0	3723	5	0	4095	3935
33	0	0	3716	5	0	4095	3934
34	0	0	3711	6	0	4095	3934
35	0	0	3704	5	0	4095	3934
36	0	0	3700	5	0	4095	3934
37	0	0	3696	5	0	4095	3935
38	0	0	3690	5	0	4095	3935
39	0	0	3685	5	0	4095	3934
40	0	0	3680	5	0	4095	3936
41	0	0	3677	5	0	4095	3934
42	0	0	3670	5	0	4095	3935
43	0	0	3667	5	0	4095	3935
44	0	0	3660	5	0	4095	3934
45	0	0	3654	5	0	4095	3934
46	0	0	3652	5	0	4095	3933
47	0	0	3646	5	0	4095	3934
48	0	0	3641	6	0	4095	3934
49	0	0	3636	5	0	4095	3934
50	0	0	3632	5	0	4095	3934
51	0	0	3628	5	0	4095	3934
52	0	0	3621	5	0	4095	3934
53	0	0	3617	5	0	4095	3934
54	0	0	3613	5	0	4095	3936
55	0	0	3609	5	0	4095	3934
56	0	0	3604	6	0	4095	3934
57	0	0	3598	5	0	4095	3935
58	0	0	3595	5	0	4095	3936
59	0	0	3589	5	0	4095	3934
60	0	0	3585	5	0	4095	3934
61	0	0	3581	5	0	4095	3934
62	0	0	3575	5	0	4095	3934
63	0	0	3570	5	0	4095	3934
64	0	0	3566	5	0	4095	3935
65	0	0	3564	5	0	4095	3934
66	0	0	3557	6	0	4095	3934
67	0	0	3552	5	0	4095	3934
68	0	0	3548	5	0	4095	3935
69	0	0	3544	5	0	4095	3934
70	0	0	3539	5	0	4095	3934
71	0	0	3536	5	0	4095	3934
72	0	0	3530	5	0	4095	3934
73	0	0	3528	5	0	4095	3936
74	0	0	3521	5	0	4095	3934
75	0	0	3518	5	0	4095	3936
76	0	0	3514	5	0	4095	3935
77	0	0	3508	4	0	4095	3935
78	0	0	3504	7	0	4095	3934
79	0	0	3500	5	0	4095	3934
80	0	0	3497	5	0	4095	3934
81	0	0	3493	5	0	4095	3934
82	0	0	3488	5	0	4095	3934
83	0	0	3483	5	0	4095	3934
84	0	0	3479	5	0	4095	3934
85	0	0	3476	5	0	4095	3934
86	0	0	3472	6	0	4095	3934
87	0	0	3467	5	0	4095	3935
88	0	0	3463	5	0	4095	3935
89	0	0	3459	5	0	4095	3936
90	0	0	3456	4	0	4095	3934
91	0	0	3451	5	0	4095	3934
92	0	0	3446	5	0	4095	3934
93	0	0	3442	5	0	4095	3934
94	0	0	3438	5	0	4095	3934
95	0	0	3435	5	0	4095	3934
96	0	0	3431	6	0	4095	3934
97	0	0	3427	5	0	4095	3934
98	0	0	3424	5	0	4095	3935
99	0	0	3418	6	0	4095	3934
100	0	0	3414	5	0	4095	3934
101	0	0	3411	6	0	4095	3934
102	0	0	3407	5	0	4095	3934
103	0	0	3402	5	0	4095	3935
104	0	0	3399	5	0	4095	3936
105	0	0	3396	5	0	4095	3934
106	0	0	3392	5	0	4095	3935
107	0	0	3389	5	0	4095	3936
108	0	0	3382	5	0	4095	3935
109	0	0	3379	6	0	4095	3934
110	0	0	3376	5	0	4095	3935
111	0	0	3373	5	0	4095	3935
112	0	0	3368	5	0	4095	3935
113	0	0	3364	5	0	4095	3934
114	0	0	3360	5	0	4095	3934
115	0	0	3358	5	0	4095	3934
116	0	0	3353	6	0	4095	3934
117	0	0	3349	6	0	4095	3934
118	0	0	3345	5	0	4095	3935
119	0	0	3342	5	0	4095	3935
120	0	0	3339	5	0	4095	3934
121	0	0	3335	5	0	4095	3934
122	0	0	3331	5	0	4095	3935
123	0	0	3329	5	0	4095	3936
124	0	0	3323	5	0	4095	3934
125	0	0	3320	5	0	4095	3934
126	0	0	3318	6	0	4095	3934
127	0	0	3312	5	0	4095	3935
0	0	0	3309	5	0	4095	3934
1	0	0	3307	5	0	4095	3935
2	0	0	3303	5	0	4095	3934
3	0	0	3299	5	0	4095	3934
4	0	0	3295	5	0	4095	3934
5	0	0	3291	5	0	4095	3934
6	0	0	3287	5	0	4095	3934
7	0	0	3284	5	0	4095	3935
8	0	0	3281	5	0	4095	3935
9	0	0	3276	5	0	4095	3935
10	0	0	3273	5	0	4095	3935
11	0	0	3270	5	0	4095	3934
12	0	0	3267	5	0	4095	3935
13	0	0	3264	6	0	4095	3934
14	0	0	3260	5	0	4095	3935
15	0	0	3256	5	0	4095	3935
16	0	0	3253	5	0	4095	3935
17	0	0	3251	5	0	4095	3934
18	0	0	3247	6	0	4095	3934
19	0	0	3244	5	0	4095	3935
20	0	0	3239	5	0	4095	3934
21	0	0	3236	6	0	4095	3934
22	0	0	3233	5	0	4095	3934
23	0	0	3231	5	0	4095	3934
24	0	0	3225	5	0	4095	3935
25	0	0	3222	5	0	4095	3935
26	0	0	3220	5	0	4095	3934
27	0	0	3217	5	0	4095	3935
28	0	0	3213	5	0	4095	3935
29	0	0	3209	5	0	4095	3935
30	0	0	3206	5	0	4095	3935
31	0	0	3202	4	0	4095	3934
32	0	0	3200	5	0	4095	3934
33	0	0	3197	5	0	4095	3935
34	0	0	3194	5	0	4095	3934
35	0	0	3191	5	0	4095	3935
36	0	0	3187	5	0	4095	3934
37	0	0	3183	5	0	4095	3934
38	0	0	3181	6	0	4095	3934
39	0	0	3177	5	0	4095	3934
40	0	0	3174	5	0	4095	3935
41	0	0	3170	5	0	4095	3934
42	0	0	3168	5	0	4095	3935
43	0	0	3165	5	0	4095	3934
44	0	0	3161	6	0	4095	3935
45	0	0	3158	5	0	4095	3935
46	0	0	3155	5	0	4095	3934
47	0	0	3153	5	0	4095	3935
48	0	0	3150	6	0	4095	3935
49	0	0	3146	5	0	4095	3934
50	0	0	3142	5	0	4095	3935
51	0	0	3140	5	0	4095	3934
52	0	0	3137	6	0	4095	3934
53	0	0	3134	5	0	4095	3934
54	0	0	3130	5	0	4095	3934
55	0	0	3127	5	0	4095	3935
56	0	0	3124	5	0	4095	3934
57	0	0	3121	5	0	4095	3936
58	0	0	3119	5	0	4095	3936
59	0	0	3115	5	0	4095	3934
60	0	0	3113	5	0	4095	3936
61	0	0	3110	5	0	4095	3934
62	0	0	3106	5	0	4095	3934
63	0	0	3104	5	0	4095	3935
64	0	0	3102	5	0	4095	3936
65	0	0	3097	5	0	4095	3934
66	0	0	3095	5	0	4095	3934
67	0	0	3091	5	0	4095	3934
68	0	0	3089	5	0	4095	3934
69	0	0	3086	5	0	4095	3933
70	0	0	3083	5	0	4095	3934
71	0	0	3079	5	0	4095	3934
72	0	0	3077	5	0	4095	3934
73	0	0	3075	6	0	4095	3934
74	0	0	3069	5	0	4095	3935
75	0	0	3069	5	0	4095	3936
76	0	0	3065	5	0	4095	3934
77	0	0	3062	5	0	4095	3936
78	0	0	3059	5	0	4095	3936
79	0	0	3055	5	0	4095	3934
80	0	0	3052	5	0	4095	3935
81	0	0	3050	5	0	4095	3934
82	0	0	3047	5	0	4095	3934
83	0	0	3045	5	0	4095	3934
84	0	0	3041	5	0	4095	3934
85	0	0	3039	5	0	4095	3935
86	0	0	3036	5	0	4095	3934
87	0	0	3033	5	0	4095	3934
88	0	0	3032	5	0	4095	3934
89	0	0	3028	5	0	4095	3934
90	0	0	3025	5	0	4095	3934
91	0	0	3023	4	0	4095	3935
92	0	0	3021	5	0	4095	3934
93	0	0	3018	5	0	4095	3934
94	0	0	3015	5	0	4095	3934
95	0	0	3012	5	0	4095	3936
96	0	0	3009	5	0	4095	3934
97	0	0	3006	5	0	4095	3934
98	0	0	3004	5	0	4095	3934
99	0	0	3002	5	0	4095	3935
100	0	0	2998	5	0	4095	3935
101	0	0	2996	5	0	4095	3934
102	0	0	2992	5	0	4095	3934
103	0	0	2991	6	0	4095	3933
104	0	0	2987	5	0	4095	3934
105	0	0	2985	5	0	4095	3935
106	0	0	2982	5	0	4095	3934
107	0	0	2980	5	0	4095	3935
108	0	0	2978	5	0	4095	3935
109	0	0	2975	5	0	4095	3934
110	0	0	2973	5	0	4095	3936
111	0	0	2970	5	0	4095	3934
112	0	0	2966	5	0	4095	3934
113	0	0	2965	5	0	4095	3934
114	0	0	2961	5	0	4095	3935
115	0	0	2958	6	0	4095	3935
116	0	0	2957	5	0	4095	3934
117	0	0	2953	5	0	4095	3934
118	0	0	2952	5	0	4095	3934
119	0	0	2950	5	0	4095	3935
120	0	0	2945	5	0	4095	3934
121	0	0	2944	5	0	4095	3936
122	0	0	2942	5	0	4095	3934
123	0	0	2939	5	0	4095	3934
124	0	0	2937	5	0	4095	3935
125	0	0	2933	5	0	4095	3934
126	0	0	2931	5	0	4095	3934
127	0	0	2929	5	0	4095	3936
0	0	0	2927	5	0	4095	3934
1	0	0	2923	4	0	4095	3934
2	0	0	2921	5	0	4095	3935
3	0	0	2919	5	0	4095	3934
4	0	0	2917	5	0	4095	3934
5	0	0	2915	5	0	4095	3934
6	0	0	2911	5	0	4095	3934
7	0	0	2909	5	0	4095	3934
8	0	0	2908	4	0	4095	3935
9	0	0	2906	5	0	4095	3934
10	0	0	2902	5	0	4095	3934
11	0	0	2901	5	0	4095	3935
12	0	0	2897	5	0	4095	3934
13	0	0	2897	4	0	4095	3935
14	0	0	2893	5	0	4095	3934
15	0	0	2891	5	0	4095	3934
16	0	0	2889	5	0	4095	3936
17	0	0	2885	5	0	4095	3935
18	0	0	2883	5	0	4095	3934
19	0	0	2881	5	0	4095	3934
20	0	0	2879	7	0	4095	3934
21	0	0	2875	6	0	4095	3935
22	0	0	2874	5	0	4095	3934
23	0	0	2871	5	0	4095	3934
24	0	0	2869	5	0	4095	3935
25	0	0	2868	5	0	4095	3935
26	0	0	2864	5	0	4095	3934
27	0	0	2863	5	0	4095	3935
28	0	0	2860	4	0	4095	3934
29	0	0	2858	4	0	4095	3935
30	0	0	2856	5	0	4095	3934
31	0	0	2855	5	0	4095	3935
32	0	0	2850	5	0	4095	3935
33	0	0	2849	5	0	4095	3934
34	0	0	2847	5	0	4095	3934
35	0	0	2845	5	0	4095	3934
36	0	0	2842	5	0	4095	3935
37	0	0	2840	5	0	4095	3935
38	0	0	2837	5	0	4095	3934
39	0	0	2836	5	0	4095	3934
40	0	0	2834	7	0	4095	3934
41	0	0	2831	6	0	4095	3934
42	0	0	2829	5	0	4095	3934
43	0	0	2827	5	0	4095	3934
44	0	0	2825	5	0	4095	3936
45	0	0	2823	5	0	4095	3935
46	0	0	2820	5	0	4095	3934
47	0	0	2819	5	0	4095	3935
48	0	0	2816	5	0	4095	3934
49	0	0	2814	5	0	4095	3934
50	0	0	2813	5	0	4095	3935
51	0	0	2811	5	0	4095	3936
52	0	0	2807	5	0	4095	3935
53	0	0	2806	4	0	4095	3934
54	0	0	2803	5	0	4095	3934
55	0	0	2802	5	0	4095	3934
56	0	0	2799	5	0	4095	3934
57	0	0	2797	5	0	4095	3934
58	0	0	2795	5	0	4095	3934
59	0	0	2793	5	0	4095	3935
60	0	0	2791	5	0	4095	3935
61	0	0	2788	5	0	4095	3934
62	0	0	2786	5	0	4095	3935
63	0	0	2785	4	0	4095	3934
64	0	0	2783	6	0	4095	3937
65	0	0	2781	5	0	4095	3935
66	0	0	2780	5	0	4095	3936
67	0	0	2776	5	0	4095	3935
68	0	0	2774	4	0	4095	3936
69	0	0	2772	5	0	4095	3934
70	0	0	2770	5	0	4095	3934
71	0	0	2768	5	0	4095	3934
72	0	0	2765	5	0	4095	3934
73	0	0	2764	5	0	4095	3934
74	0	0	2762	4	0	4095	3934
75	0	0	2761	5	0	4095	3934
76	0	0	2758	5	0	4095	3934
77	0	0	2756	5	0	4095	3934
78	0	0	2754	5	0	4095	3934
79	0	0	2752	5	0	4095	3934
80	0	0	2751	5	0	4095	3934
81	0	0	2749	5	0	4095	3935
82	0	0	2746	5	0	4095	3935
83	0	0	2744	4	0	4095	3936
84	0	0	2743	5	0	4095	3934
85	0	0	2741	5	0	4095	3934
86	0	0	2738	5	0	4095	3934
87	0	0	2737	5	0	4095	3934
88	0	0	2734	5	0	4095	3934
89	0	0	2733	5	0	4095	3935
90	0	0	2731	5	0	4095	3935
91	0	0	2729	5	0	4095	3934
92	0	0	2727	5	0	4095	3934
93	0	0	2725	6	0	4095	3934
94	0	0	2723	5	0	4095	3934
95	0	0	2722	5	0	4095	3934
96	0	0	2720	4	0	4095	3934
97	0	0	2717	5	0	4095	3935
98	0	0	2716	4	0	4095	3936
99	0	0	2714	5	0	4095	3934
100	0	0	2712	5	0	4095	3935
101	0	0	2710	5	0	4095	3935
102	0	0	2708	5	0	4095	3935
103	0	0	2706	4	0	4095	3935
104	0	0	2706	5	0	4095	3934
105	0	0	2703	5	0	4095	3934
106	0	0	2700	5	0	4095	3934
107	0	0	2699	5	0	4095	3934
108	0	0	2697	5	0	4095	3934
109	0	0	2696	5	0	4095	3933
110	0	0	2694	5	0	4095	3934
111	0	0	2692	5	0	4095	3934
112	0	0	2691	5	0	4095	3935
113	0	0	2688	6	0	4095	3934
114	0	0	2687	5	0	4095	3935
115	0	0	2686	5	0	4095	3935
116	0	0	2682	5	0	4095	3935
117	0	0	2680	5	0	4095	3935
118	0	0	2679	5	0	4095	3934
119	0	0	2677	5	0	4095	3934
120	0	0	2677	5	0	4095	3934
121	0	0	2674	4	0	4095	3934
122	0	0	2672	5	0	4095	3934
123	0	0	2670	5	0	4095	3934
124	0	0	2669	5	0	4095	3934
125	0	0	2668	6	0	4095	3934
126	0	0	2665	5	0	4095	3934
127	0	0	2664	5	0	4095	3934
0	0	0	2662	5	0	4095	3934
1	0	0	2660	5	0	4095	3934
2	0	0	2658	5	0	4095	3934
3	0	0	2656	5	0	4095	3934
4	0	0	2656	5	0	4095	3936
5	0	0	2653	5	0	4095	3934
6	0	0	2652	5	0	4095	3935
7	0	0	2650	5	0	4095	3936
8	0	0	2648	5	0	4095	3935
9	0	0	2647	5	0	4095	3935
10	0	0	2644	5	0	4095	3934
11	0	0	2642	5	0	4095	3935
12	0	0	2642	5	0	4095	3935
13	0	0	2639	4	0	4095	3934
14	0	0	2639	5	0	4095	3935
15	0	0	2635	5	0	4095	3934
16	0	0	2635	5	0	4095	3934
17	0	0	2633	5	0	4095	3934
18	0	0	2631	5	0	4095	3934
19	0	0	2630	5	0	4095	3934
20	0	0	2628	5	0	4095	3936
21	0	0	2627	5	0	4095	3934
22	0	0	2625	5	0	4095	3934
23	0	0	2623	5	0	4095	3935
24	0	0	2621	5	0	4095	3934
25	0	0	2620	5	0	4095	3934
26	0	0	2619	6	0	4095	3935
27	0	0	2617	5	0	4095	3935
28	0	0	2616	5	0	4095	3934
29	0	0	2613	5	0	4095	3934
30	0	0	2612	5	0	4095	3933
31	0	0	2610	5	0	4095	3934
32	0	0	2610	5	0	4095	3934
33	0	0	2608	5	0	4095	3934
34	0	0	2606	5	0	4095	3934
35	0	0	2604	5	0	4095	3935
36	0	0	2604	5	0	4095	3934
37	0	0	2602	5	0	4095	3934
38	0	0	2599	4	0	4095	3935
39	0	0	2599	5	0	4095	3935
40	0	0	2597	5	0	4095	3934
41	0	0	2596	4	0	4095	3934
42	0	0	2594	5	0	4095	3934
43	0	0	2591	5	0	4095	3934
44	0	0	2591	5	0	4095	3934
45	0	0	2588	5	0	4095	3935
46	0	0	2588	5	1	4095	3934
47	0	0	2586	5	0	4095	3934
48	0	0	2584	4	0	4095	3935
49	0	0	2583	5	0	4095	3934
50	0	0	2582	5	0	4095	3934
51	0	0	2581	5	0	4095	3935
52	0	0	2579	5	0	4095	3936
53	0	0	2577	5	0	4095	3935
54	0	0	2575	5	0	4095	3934
55	0	0	2574	5	0	4095	3934
56	0	0	2573	5	0	4095	3935
57	0	0	2572	5	0	4095	3934
58	0	0	2570	5	0	4095	3934
59	0	0	2568	5	0	4095	3934
60	0	0	2567	5	0	4095	3935
61	0	0	2566	5	0	4095	3934
62	0	0	2564	5	0	4095	3934
63	0	0	2563	5	0	4095	3935
64	0	0	2560	5	0	4095	3934
65	0	0	2560	5	0	4095	3935
66	0	0	2558	5	0	4095	3934
67	0	0	2557	5	0	4095	3934
68	0	0	2554	4	0	4095	3935
69	0	0	2552	5	0	4095	3935
70	0	0	2553	5	0	4095	3934
71	0	0	2551	5	0	4095	3935
72	0	0	2550	5	0	4095	3936
73	0	0	2548	5	0	4095	3935
74	0	0	2546	5	0	4095	3935
75	0	0	2545	5	0	4095	3934
76	0	0	2544	5	0	4095	3935
77	0	0	2543	5	0	4095	3934
78	0	0	2542	5	0	4095	3935
79	0	0	2539	5	0	4095	3934
80	0	0	2538	5	0	4095	3934
81	0	0	2537	5	0	4095	3934
82	0	0	2536	5	0	4095	3935
83	0	0	2534	5	0	4095	3935
84	0	0	2533	5	0	4095	3935
85	0	0	2531	5	0	4095	3934
86	0	0	2530	4	0	4095	3934
87	0	0	2529	5	0	4095	3934
88	0	0	2527	5	0	4095	3935
89	0	0	2335	4	0	4095	3935
90	0	0	593	4	0	4095	3934
91	0	0	0	4	0	4095	3934
92	0	0	0	4	139	4095	3934
93	0	0	0	4	190	4095	3935
94	0	0	0	4	225	4095	3934
95	0	0	0	4	245	4095	3934
96	0	0	0	4	261	4095	3934
97	0	0	0	4	270	4095	3935
98	0	0	0	3	277	4095	3935
99	0	0	0	3	280	4095	3935
100	0	0	0	4	282	4095	3934
101	0	0	0	4	284	4095	3935
102	0	0	0	4	285	4095	3935
103	0	0	0	3	287	4095	3935
104	0	0	0	4	288	4095	3936
105	0	0	0	5	290	4095	3934
106	0	0	0	4	289	4095	3935
107	0	0	0	4	290	4095	3935
108	0	0	0	4	292	4095	3935
109	0	0	0	4	291	4095	3934
110	0	0	0	4	289	4095	3934
111	0	0	0	4	292	4095	3934
112	0	0	0	4	290	4095	3934
113	0	0	0	3	292	4095	3934
114	0	0	0	4	290	4095	3934
115	0	0	0	4	290	4095	3934
116	0	0	0	4	289	4095	3934
117	0	0	0	4	291	4095	3935
118	0	0	0	4	291	4095	3935
119	0	0	0	4	292	4095	3934
120	0	0	0	4	292	4095	3934
121	0	0	0	4	290	4095	3935
122	0	0	0	4	289	4095	3936
123	0	0	0	3	292	4095	3935
124	0	0	0	4	292	4095	3936
125	0	0	0	4	292	4095	3934
126	0	0	0	4	293	4095	3934
127	0	0	0	4	294	4095	3934
0	0	0	0	4	292	4095	3935
1	0	0	0	4	292	4095	3934
2	0	0	0	4	295	4095	3935
3	0	0	0	4	293	4095	3934
4	0	0	0	4	292	4095	3934
5	0	0	0	3	291	4095	3935
6	0	0	0	4	292	4095	3934
7	0	0	0	4	293	4095	3934
8	0	0	0	4	292	4095	3935
9	0	0	0	4	292	4095	3936
10	0	0	0	3	293	4095	3935
11	0	0	0	4	293	4095	3936
12	0	0	0	5	291	4095	3934
13	0	0	0	4	294	4095	3935
14	0	0	0	4	291	4095	3935
15	0	0	0	4	290	4095	3935
16	0	0	0	4	293	4095	3934
17	0	0	0	4	292	4095	3934
18	0	0	0	4	293	4095	3934
19	0	0	0	4	293	4095	3934
20	0	0	0	4	292	4095	3935
21	0	0	0	4	293	4095	3934
22	0	0	0	3	295	4095	3934
23	0	0	0	5	294	4095	3934
24	0	0	0	4	293	4095	3934
25	0	0	0	4	296	4095	3935
26	0	0	0	4	295	4095	3935
27	0	0	0	3	294	4095	3934
28	0	0	0	4	294	4095	3935
29	0	0	0	5	212	4095	3934
30	0	0	0	5	0	4095	3935
31	0	0	1353	5	0	4095	3934
32	0	0	2376	5	0	4095	3934
33	0	0	2983	5	0	4095	3934
34	0	0	3352	5	0	4095	3934
35	0	0	3566	5	0	4095	3935
36	0	0	3687	5	0	4095	3934
37	0	0	3755	5	0	4095	3934
38	0	0	3792	5	0	4095	3935
39	0	0	3812	5	0	4095	3935
40	0	0	3818	5	0	4095	3935
41	0	0	3821	5	0	4095	3935
42	0	0	3820	6	0	4095	3934
43	0	0	3816	5	0	4095	3935
44	0	0	3814	4	0	4095	3935
45	0	0	3807	4	0	4095	3935
46	0	0	3802	5	0	4095	3934
47	0	0	3796	5	0	4095	3934
48	0	0	3793	5	0	4095	3935
49	0	0	3787	5	0	4095	3934
50	0	0	3780	5	0	4095	3934
51	0	0	3775	5	0	4095	3934
52	0	0	3769	5	0	4095	3934
53	0	0	3765	5	0	4095	3934
54	0	0	3760	5	0	4095	3934
55	0	0	3755	5	0	4095	3935
56	0	0	3747	5	0	4095	3934
57	0	0	3742	5	0	4095	3934
58	0	0	3737	5	0	4095	3935
59	0	0	3733	5	0	4095	3936
60	0	0	3726	4	0	4095	3935
61	0	0	3721	5	0	4095	3935
62	0	0	3715	5	0	4095	3934
63	0	0	3711	5	0	4095	3934
64	0	0	3706	5	0	4095	3934
65	0	0	3700	5	0	4095	3934
66	0	0	3695	5	0	4095	3934
67	0	0	3689	5	0	4095	3934
68	0	0	3685	5	0	4095	3934
69	0	0	3680	5	0	4095	3935
70	0	0	3674	4	0	4095	3935
71	0	0	3669	5	0	4095	3934
72	0	0	3664	5	0	4095	3934
73	0	0	3659	5	0	4095	3934
74	0	0	3655	5	0	4095	3934
75	0	0	3649	5	0	4095	3938
76	0	0	3647	5	0	4095	3936
77	0	0	3641	5	0	4095	3934
78	0	0	3634	5	0	4095	3935
79	0	0	3631	5	0	4095	3935
80	0	0	3625	5	0	4095	3935
81	0	0	3622	5	0	4095	3935
82	0	0	3615	4	0	4095	3934
83	0	0	3611	5	0	4095	3934
84	0	0	3607	5	0	4095	3935
85	0	0	3600	5	0	4095	3934
86	0	0	3596	5	0	4095	3934
87	0	0	3591	5	0	4095	3934
88	0	0	3587	5	0	4095	3934
89	0	0	3582	5	0	4095	3934
90	0	0	3576	5	0	4095	3934
91	0	0	3573	5	0	4095	3934
92	0	0	3569	5	0	4095	3936
93	0	0	3564	5	0	4095	3934
94	0	0	3559	5	0	4095	3934
95	0	0	3553	5	0	4095	3935
96	0	0	3551	5	0	4095	3936
97	0	0	3545	5	0	4095	3934
98	0	0	3541	6	0	4095	3934
99	0	0	3537	5	0	4095	3934
100	0	0	3531	5	0	4095	3934
101	0	0	3529	6	0	4095	3934
102	0	0	3523	5	0	4095	3934
103	0	0	3518	5	0	4095	3934
104	0	0	3515	5	0	4095	3934
105	0	0	3510	5	0	4095	3934
106	0	0	3505	5	0	4095	3934
107	0	0	3502	5	0	4095	3935
108	0	0	3498	5	0	4095	3934
109	0	0	3493	5	0	4095	3935
110	0	0	3489	5	0	4095	3935
111	0	0	3483	5	0	4095	3935
112	0	0	3479	4	0	4095	3934
113	0	0	3476	6	0	4095	3934
114	0	0	3472	5	0	4095	3934
115	0	0	3467	5	0	4095	3934
116	0	0	3464	5	0	4095	3935
117	0	0	3458	6	0	4095	3934
118	0	0	3455	5	0	4095	3934
119	0	0	3452	5	0	4095	3934
120	0	0	3447	5	0	4095	3934
121	0	0	3442	5	0	4095	3934
122	0	0	3438	5	0	4095	3935
123	0	0	3435	5	0	4095	3934
124	0	0	3431	5	0	4095	3935
125	0	0	3426	5	0	4095	3935
126	0	0	3422	5	0	4095	3935
127	0	0	3417	5	0	4095	3934
0	0	0	3414	5	0	4095	3935
1	0	0	3411	5	0	4095	3936
2	0	0	3406	5	0	4095	3935
3	0	0	3402	5	0	4095	3935
4	0	0	3398	5	0	4095	3934
5	0	0	3394	5	0	4095	3934
6	0	0	3390	5	0	4095	3934
7	0	0	3386	5	0	4095	3934
8	0	0	3382	6	0	4095	3934
9	0	0	3379	5	0	4095	3935
10	0	0	3376	5	0	4095	3934
11	0	0	3372	5	0	4095	3934
12	0	0	3369	5	0	4095	3935
13	0	0	3363	5	0	4095	3934
14	0	0	3359	5	0	4095	3934
15	0	0	3355	5	0	4095	3934
16	0	0	3352	5	0	4095	3935
17	0	0	3348	5	0	4095	3935
18	0	0	3344	5	0	4095	3934
19	0	0	3340	5	0	4095	3934
20	0	0	3337	5	0	4095	3935
21	0	0	3335	5	0	4095	3935
22	0	0	3329	5	0	4095	3934
23	0	0	3326	5	0	4095	3934
24	0	0	3322	5	0	4095	3935
25	0	0	3319	5	0	4095	3934
26	0	0	3315	5	0	4095	3935
27	0	0	3311	5	0	4095	3934
28	0	0	3307	5	0	4095	3934
29	0	0	3304	5	0	4095	3934
30	0	0	3300	6	0	4095	3934
31	0	0	3297	5	0	4095	3934
32	0	0	3293	5	0	4095	3935
33	0	0	3289	5	0	4095	3936
34	0	0	3286	5	0	4095	3934
35	0	0	3283	5	0	4095	3934
36	0	0	3279	5	0	4095	3934
37	0	0	3276	5	0	4095	3935
38	0	0	3274	5	0	4095	3935
39	0	0	3269	5	0	4095	3934
40	0	0	3265	5	0	4095	3935
41	0	0	3263	5	0	4095	3935
42	0	0	3257	5	0	4095	3934
43	0	0	3255	5	0	4095	3935
44	0	0	3252	6	0	4095	3934
45	0	0	3247	5	0	4095	3934
46	0	0	3246	5	0	4095	3935
47	0	0	3241	5	0	4095	3935
48	0	0	3238	5	0	4095	3935
49	0	0	3235	5	0	4095	3934
50	0	0	3229	5	0	4095	3935
51	0	0	3228	6	0	4095	3936
52	0	0	3223	5	0	4095	3935
53	0	0	3221	6	0	4095	3934
54	0	0	3217	5	0	4095	3934
55	0	0	3214	5	0	4095	3934
56	0	0	3212	5	0	4095	3934
57	0	0	3207	5	0	4095	3934
58	0	0	3204	4	0	4095	3935
59	0	0	3201	5	0	4095	3934
60	0	0	3197	5	0	4095	3934
61	0	0	3195	5	0	4095	3934
62	0	0	3190	5	0	4095	3934
63	0	0	3187	5	0	4095	3934
64	0	0	3185	5	0	4095	3936
65	0	0	3182	5	0	4095	3935
66	0	0	3178	5	0	4095	3935
67	0	0	3176	5	0	4095	3936
68	0	0	3171	5	0	4095	3935
69	0	0	3168	5	0	4095	3936
70	0	0	3166	5	0	4095	3934
71	0	0	3162	5	0	4095	3934
72	0	0	3159	5	0	4095	3934
73	0	0	3155	5	0	4095	3934
74	0	0	3153	5	0	4095	3934
75	0	0	3150	5	0	4095	3934
76	0	0	3146	5	0	4095	3934
77	0	0	3143	5	0	4095	3935
78	0	0	3140	5	0	4095	3934
79	0	0	3137	5	0	4095	3934
80	0	0	3133	5	0	4095	3934
81	0	0	3131	5	0	4095	3934
82	0	0	3127	5	0	4095	3935
83	0	0	3124	5	0	4095	3935
84	0	0	3121	5	0	4095	3934
85	0	0	3118	5	0	4095	3934
86	0	0	3116	5	0	4095	3935
87	0	0	3113	5	0	4095	3935
88	0	0	3109	5	0	4095	3934
89	0	0	3106	5	0	4095	3934
90	0	0	3103	5	0	4095	3933
91	0	0	3101	5	0	4095	3934
92	0	0	3097	5	0	4095	3934
93	0	0	3094	5	0	4095	3935
94	0	0	3092	5	0	4095	3934
95	0	0	3087	5	0	4095	3934
96	0	0	3086	5	0	4095	3934
97	0	0	3083	5	0	4095	3935
98	0	0	3080	5	0	4095	3934
99	0	0	3076	5	0	4095	3934
100	0	0	3074	5	0	4095	3935
101	0	0	3070	5	0	4095	3936
102	0	0	3066	5	0	4095	3935
103	0	0	3065	5	0	4095	3935
104	0	0	3062	4	0	4095	3934
105	0	0	3058	5	0	4095	3934
106	0	0	3056	5	0	4095	3935
107	0	0	3052	5	0	4095	3934
108	0	0	3051	5	0	4095	3935
109	0	0	3046	5	0	4095	3934
110	0	0	3045	5	0	4095	3934
111	0	0	3043	5	0	4095	3935
112	0	0	3038	5	0	4095	3935
113	0	0	3036	5	0	4095	3935
114	0	0	3033	5	0	4095	3934
115	0	0	3030	5	0	4095	3934
116	0	0	3027	5	0	4095	3935
117	0	0	3026	5	0	4095	3936
118	0	0	3022	5	0	4095	3935
119	0	0	3019	5	0	4095	3934
120	0	0	3016	5	0	4095	3934
121	0	0	3014	5	0	4095	3934
122	0	0	3011	4	0	4095	3934
123	0	0	3010	5	0	4095	3935
124	0	0	3005	5	0	4095	3934
125	0	0	3003	4	0	4095	3934
126	0	0	3001	5	0	4095	3934
127	0	0	2998	5	0	4095	3935
0	0	0	2994	5	0	4095	3934
1	0	0	2992	5	0	4095	3935
2	0	0	2991	5	0	4095	3935
3	0	0	2987	5	0	4095	3934
4	0	0	2983	5	0	4095	3935
5	0	0	2981	5	0	4095	3934
6	0	0	2979	5	0	4095	3934
7	0	0	2977	5	0	4095	3934
8	0	0	2974	5	0	4095	3934
9	0	0	2971	5	0	4095	3934
10	0	0	2967	5	0	4095	3934
11	0	0	2966	5	0	4095	3934
12	0	0	2963	4	0	4095	3934
13	0	0	2961	5	0	4095	3934
14	0	0	2957	6	0	4095	3934
15	0	0	2956	5	0	4095	3934
16	0	0	2952	5	0	4095	3934
17	0	0	2950	5	0	4095	3934
18	0	0	2949	5	0	4095	3934
19	0	0	2944	5	0	4095	3935
20	0	0	2944	5	0	4095	3935
21	0	0	2941	5	0	4095	3934
22	0	0	2938	5	0	4095	3935
23	0	0	2936	5	0	4095	3936
24	0	0	2932	5	0	4095	3935
25	0	0	2931	5	0	4095	3936
26	0	0	2927	5	0	4095	3934
27	0	0	2925	5	0	4095	3934
28	0	0	2924	5	0	4095	3935
29	0	0	2920	5	0	4095	3934
30	0	0	2919	6	0	4095	3934
31	0	0	2915	5	0	4095	3935
32	0	0	2914	5	0	4095	3934
33	0	0	2910	5	0	4095	3934
34	0	0	2908	5	0	4095	3935
35	0	0	2905	5	0	4095	3934
36	0	0	2903	5	0	4095	3934
37	0	0	2901	5	0	4095	3935
38	0	0	2898	5	1	4095	3935
39	0	0	2896	5	0	4095	3935
40	0	0	2895	5	0	4095	3936
41	0	0	2892	5	0	4095	3934
42	0	0	2889	5	0	4095	3934
43	0	0	2887	5	0	4095	3934
44	0	0	2885	5	0	4095	3935
45	0	0	2882	5	0	4095	3934
46	0	0	2879	5	0	4095	3934
47	0	0	2877	5	0	4095	3934
48	0	0	2875	5	0	4095	3934
49	0	0	2872	5	0	4095	3934
50	0	0	2870	5	0	4095	3934
51	0	0	2536	4	0	4095	3934
52	0	0	890	4	0	4095	3934
53	0	0	27	4	0	4095	3934
54	0	0	0	4	120	4095	3935
55	0	0	0	5	172	4095	3936
56	0	0	0	3	203	4095	3934
57	0	0	0	5	211	4095	3935
58	0	0	0	4	231	4095	3935
59	0	0	0	4	251	4095	3935
60	0	0	0	4	263	4095	3934
61	0	0	0	4	272	4095	3934
62	0	1	0	4	278	4095	3934
63	0	1	0	4	282	4095	3934
64	0	1	0	4	284	4095	3935
65	0	1	0	4	286	4095	3934
66	0	1	0	4	286	4095	3936
67	0	1	0	4	287	4095	3934
68	0	1	0	4	289	4095	3935
69	0	1	0	4	290	4095	3936
70	0	1	0	4	289	4095	3934
71	0	1	0	4	287	4095	3934
72	0	1	0	4	289	4095	3935
73	0	1	0	4	288	4095	3935
74	0	1	0	4	288	4095	3935
75	0	1	0	4	288	4095	3934
76	0	1	0	4	288	4095	3934
77	0	1	0	3	289	4095	3934
78	0	1	0	4	290	4095	3935
79	0	1	0	4	290	4095	3935
80	0	1	0	4	290	4095	3936
81	0	1	0	5	290	4095	3934
82	0	1	0	4	291	4095	3934
83	0	1	0	4	291	4095	3934
84	0	1	0	4	290	4095	3935
85	0	1	0	4	292	4095	3934
86	0	1	0	4	291	4095	3934
87	0	1	0	3	293	4095	3935
88	0	1	0	4	292	4095	3936
89	0	1	0	4	292	4095	3936
90	0	1	0	4	291	4095	3934
91	0	1	0	4	290	4095	3934
92	0	1	0	4	292	4095	3935
93	0	1	0	4	291	4095	3935
94	0	1	0	4	292	4095	3935
95	0	1	0	4	289	4095	3934
96	0	1	0	5	293	4095	3934
97	0	1	0	4	291	4095	3935
98	0	1	0	4	292	4095	3935
99	0	1	0	4	292	4095	3935
100	0	1	0	4	292	4095	3934
101	0	1	0	3	291	4095	3934
102	0	1	0	4	294	4095	3934
103	0	1	0	4	294	4095	3935
104	0	1	0	4	294	4095	3935
105	0	1	0	4	294	4095	3934
106	0	1	0	3	292	4095	3936
107	0	1	0	4	294	4095	3935
108	1	1	0	4	293	4095	3934
109	1	1	0	4	293	4095	3935
110	1	1	0	4	295	4095	3934
111	1	1	0	4	295	4095	3934
112	1	1	0	4	295	4095	3935
113	1	1	0	4	296	4095	3935
114	1	1	0	4	294	4095	3935
115	1	1	0	4	294	4095	3934
116	1	1	0	4	294	4095	3934
117	1	1	0	3	292	4095	3934
118	1	1	0	4	294	4095	3934
119	1	1	0	4	292	4095	3935
120	1	1	0	4	293	4095	3935
121	1	1	0	3	292	4095	3935
122	1	1	0	4	295	4095	3935
123	1	1	0	4	295	4095	3936
124	1	1	0	4	294	4095	3936
125	1	1	0	4	294	4095	3934
126	1	1	0	3	292	4095	3936
127	1	1	0	4	295	4095	3934
0	1	1	0	4	294	4095	3935
1	1	1	0	4	293	4095	3936
2	1	1	0	4	293	4095	3934
3	1	1	0	4	293	4095	3934
4	1	1	0	4	292	4095	3935
5	1	1	0	4	292	4095	3935
6	1	1	0	4	291	4095	3935
7	1	1	0	3	293	4095	3934
8	1	1	0	3	291	4095	3936
9	1	1	0	4	292	4095	3935
10	1	1	0	4	294	4095	3935
11	1	1	0	4	293	4095	3935
12	1	1	0	4	293	4095	3935
13	1	1	0	4	293	4095	3934
14	1	1	0	4	294	4095	3935
15	1	1	0	4	294	4095	3936
16	1	1	0	4	295	4095	3935
17	1	1	0	4	294	4095	3934
18	1	1	0	3	295	4095	3934
19	1	1	6	4	296	4095	3934
20	1	1	12	4	295	4095	3934
21	1	1	18	4	294	4095	3935
22	1	1	23	4	293	4095	3934
23	1	1	29	3	294	4095	3934
24	1	1	33	4	294	4095	3934
25	1	1	40	4	293	4095	3936
26	1	1	46	4	293	4095	3936
27	1	1	51	4	292	4095	3935
28	1	1	57	4	292	4095	3936
29	1	1	63	4	292	4095	3935
30	1	1	67	4	293	4095	3935
31	1	1	73	4	292	4095	3936
32	1	1	78	4	293	4095	3934
33	1	1	84	4	295	4095	3934
34	1	1	90	4	296	4095	3935
35	1	1	95	4	294	4095	3934
36	1	1	101	4	293	4095	3935
37	1	1	106	3	294	4095	3934
38	1	1	111	4	294	4095	3936
39	1	1	117	4	295	4095	3935
40	1	1	122	4	295	4095	3935
41	1	1	127	4	295	4095	3935
42	1	1	133	4	295	4095	3935
43	1	1	138	5	293	4095	3934
44	1	1	143	4	294	4095	3935
45	1	1	148	4	293	4095	3935
46	1	1	153	4	293	4095	3935
47	1	1	158	4	293	4095	3934
48	1	1	164	4	293	4095	3934
49	1	1	169	4	291	4095	3934
50	1	1	173	4	293	4095	3934
51	1	1	179	4	292	4095	3934
52	1	1	183	3	294	4095	3934
53	1	1	189	3	294	4095	3934
54	1	1	194	4	295	4095	3935
55	1	1	198	4	295	4095	3935
56	1	1	204	4	294	4095	3936
57	1	1	209	4	295	4095	3934
58	1	1	214	4	295	4095	3934
59	1	1	219	3	296	4095	3935
60	1	1	224	4	296	4095	3935
61	1	1	229	4	295	4095	3936
62	1	1	234	4	294	4095	3936
63	1	1	238	3	293	4095	3934
64	1	1	243	4	293	4095	3934
65	1	1	248	4	293	4095	3934
66	1	1	252	4	293	4095	3935
67	1	1	257	4	294	4095	3934
68	1	1	262	4	293	4095	3935
69	1	1	267	4	293	4095	3934
70	1	1	272	4	294	4095	3934
71	1	1	276	4	294	4095	3935
72	1	1	281	4	294	4095	3934
73	1	1	286	4	294	4095	3934
74	1	1	291	4	293	4095	3935
75	1	1	295	4	295	4095	3935
76	1	1	300	4	296	4095	3935
77	1	1	304	4	296	4095	3936
78	1	1	309	4	296	4095	3935
79	1	1	314	4	295	4095	3934
80	1	1	318	4	295	4095	3934
81	1	1	323	4	294	4095	3935
82	1	1	328	4	295	4095	3934
83	1	1	332	4	293	4095	3934
84	1	1	337	4	295	4095	3934
85	1	1	341	4	293	4095	3935
86	1	1	346	4	292	4095	3935
87	1	1	350	4	293	4095	3934
88	1	1	354	4	293	4095	3934
89	1	1	360	4	292	4095	3934
90	1	1	364	4	294	4095	3935
91	1	1	369	4	294	4095	3935
92	1	1	373	4	294	4095	3935
93	1	1	378	4	294	4095	3936
94	1	1	381	4	295	4095	3936
95	1	1	386	4	296	4095	3935
96	1	1	390	4	295	4095	3936
97	1	1	395	4	296	4095	3934
98	1	1	399	4	296	4095	3936
99	1	1	404	4	296	4095	3934
100	1	1	408	4	296	4095	3934
101	1	1	412	4	295	4095	3935
102	1	1	417	4	295	4095	3934
103	1	1	421	4	293	4095	3936
104	1	1	425	4	293	4095	3934
105	1	1	430	4	293	4095	3935
106	1	1	434	4	294	4095	3936
107	1	1	437	4	293	4095	3935
108	1	1	442	4	294	4095	3936
109	1	1	446	4	294	4095	3935
110	1	1	451	4	294	4095	3935
111	1	1	455	4	294	4095	3936
112	1	1	460	4	293	4095	3935
113	1	1	464	4	295	4095	3936
114	1	1	467	4	294	4095	3934
115	1	1	472	4	296	4095	3934
116	1	1	476	4	296	4095	3935
117	1	1	480	4	295	4095	3934
118	1	1	484	4	296	4095	3935
119	1	1	488	4	296	4095	3934
120	1	1	493	4	295	4095	3935
121	1	1	496	4	295	4095	3935
122	1	1	501	4	295	4095	3936
123	1	1	505	3	294	4095	3934
124	1	1	509	4	294	4095	3934
125	1	1	513	4	294	4095	3935
126	1	1	517	4	293	4095	3934
127	1	1	521	4	293	4095	3934
0	1	1	525	4	294	4095	3935
1	1	1	529	4	293	4095	3934
2	1	1	533	4	293	4095	3935
3	1	1	537	4	294	4095	3936
4	1	1	541	4	294	4095	3934
5	1	1	545	4	295	4095	3935
6	1	1	550	4	295	4095	3935
7	1	1	552	4	296	4095	3934
8	1	1	557	4	295	4095	3935
9	1	1	561	4	296	4095	3934
10	1	1	564	4	295	4095	3934
11	1	1	568	4	296	4095	3934
12	1	1	572	4	295	4095	3934
13	1	1	576	4	295	4095	3935
14	1	1	580	4	293	4095	3935
15	1	1	584	4	294	4095	3935
16	1	1	587	4	294	4095	3935
17	1	1	591	4	293	4095	3935
18	1	1	596	4	293	4095	3935
19	1	1	600	4	294	4095	3936
20	1	1	603	3	293	4095	3934
21	1	1	607	4	293	4095	3935
22	1	1	611	4	294	4095	3935
23	1	1	615	4	292	4095	3935
24	1	1	619	4	294	4095	3935
25	1	1	622	5	295	4095	3934
26	1	1	626	4	296	4095	3934
27	1	1	629	4	295	4095	3935
28	1	1	633	4	295	4095	3935
29	1	1	637	4	295	4095	3934
30	1	1	641	4	296	4095	3935
31	1	1	644	4	297	4095	3935
32	1	1	648	4	295	4095	3935
33	1	1	651	4	295	4095	3936
34	1	1	655	4	295	4095	3935
35	1	1	659	4	295	4095	3936
36	1	1	663	4	294	4095	3936
37	1	1	666	4	295	4095	3935
38	1	1	670	4	294	4095	3936
39	1	1	674	4	293	4095	3934
40	1	1	677	4	293	4095	3934
41	1	1	681	4	294	4095	3934
42	1	1	684	4	293	4095	3934
43	1	1	688	4	294	4095	3935
44	1	1	692	4	294	4095	3934
45	1	1	696	4	295	4095	3935
46	1	1	699	4	296	4095	3935
47	1	1	703	4	296	4095	3936
48	1	1	706	4	295	4095	3936
49	1	1	709	4	295	4095	3936
50	1	1	713	6	296	4095	3935
51	1	1	716	3	296	4095	3935
52	1	1	720	5	297	4095	3936
53	1	1	724	4	296	4095	3935
54	1	1	727	4	294	4095	3935
55	1	1	731	4	294	4095	3934
56	1	1	734	4	294	4095	3935
57	1	1	737	4	294	4095	3935
58	1	1	740	4	293	4095	3935
59	1	1	744	4	292	4095	3934
60	1	1	747	4	294	4095	3934
61	1	1	751	4	292	4095	3934
62	1	1	754	4	293	4095	3935
63	1	1	757	4	293	4095	3935
64	1	1	761	4	294	4095	3935
65	1	1	764	4	296	4095	3934
66	1	1	767	4	296	4095	3935
67	1	1	772	4	295	4095	3935
68	1	1	774	4	296	4095	3935
69	1	1	778	4	296	4095	3934
70	1	1	781	4	296	4095	3936
71	1	1	785	4	296	4095	3934
72	1	1	788	4	296	4095	3934
73	1	1	791	4	296	4095	3936
74	1	1	795	4	295	4095	3934
75	1	1	797	4	293	4095	3934
76	1	1	801	2	293	4095	3935
77	1	1	804	4	294	4095	3935
78	1	1	807	4	294	4095	3935
79	1	1	811	4	293	4095	3935
80	1	1	814	4	294	4095	3934
81	1	1	817	4	294	4095	3935
82	1	1	821	4	294	4095	3935
83	1	1	824	4	294	4095	3936
84	1	1	827	4	294	4095	3935
85	1	1	831	4	295	4095	3935
86	1	1	834	4	295	4095	3934
87	1	1	837	4	296	4095	3934
88	1	1	840	4	295	4095	3936
89	1	1	843	4	296	4095	3934
90	1	1	846	4	296	4095	3936
91	1	1	850	4	296	4095	3935
92	1	1	853	4	296	4095	3934
93	1	1	855	4	295	4095	3935
94	1	1	859	4	296	4095	3934
95	1	1	862	4	295	4095	3934
96	1	1	865	3	293	4095	3935
97	1	1	868	4	293	4095	3936
98	1	1	871	4	293	4095	3935
99	1	1	875	4	294	4095	3935
100	1	1	877	4	293	4095	3934
101	1	1	881	4	293	4095	3935
102	1	1	884	5	294	4095	3935
103	1	1	887	4	294	4095	3936
104	1	1	890	5	293	4095	3934
105	1	1	893	4	294	4095	3934
106	1	1	896	3	295	4095	3935
107	1	1	899	4	296	4095	3935
108	1	1	902	3	295	4095	3935
109	1	1	904	4	296	4095	3936
110	1	1	908	4	296	4095	3934
111	1	1	911	4	297	4095	3934
112	1	1	913	4	295	4095	3935
113	1	1	916	4	296	4095	3935
114	1	1	920	4	294	4095	3935
115	1	1	922	4	293	4095	3935
116	1	1	927	4	293	4095	3935
117	1	1	929	4	295	4095	3935
118	1	1	932	4	293	4095	3936
119	1	1	934	4	293	4095	3934
120	1	1	938	4	294	4095	3936
121	1	1	940	4	294	4095	3934
122	1	1	942	4	295	4095	3934
123	1	1	946	4	295	4095	3935
124	1	1	949	4	295	4095	3934
125	1	1	952	4	294	4095	3934
126	1	1	955	4	296	4095	3934
127	1	1	958	4	296	4095	3935
0	1	1	960	4	295	4095	3935
1	1	1	963	4	297	4095	3934
2	1	1	966	4	296	4095	3935
3	1	1	970	4	295	4095	3935
4	1	1	971	4	295	4095	3935
5	1	1	974	4	296	4095	3936
6	1	1	977	4	295	4095	3936
7	1	1	980	6	295	4095	3934
8	1	1	984	4	294	4095	3935
9	1	1	987	4	294	4095	3936
10	1	1	988	4	293	4095	3935
11	1	1	991	4	294	4095	3934
12	1	1	994	4	292	4095	3936
13	1	1	997	4	293	4095	3935
14	1	1	1000	4	294	4095	3934
15	1	1	1002	4	293	4095	3935
16	1	1	1006	4	295	4095	3934
17	1	1	1008	4	294	4095	3934
18	1	1	1011	4	295	4095	3935
19	1	1	1014	4	296	4095	3935
20	1	1	1016	4	295	4095	3935
21	1	1	1019	4	296	4095	3934
22	1	1	1022	4	295	4095	3935
23	1	1	1026	5	296	4095	3934
24	1	1	1029	4	295	4095	3935
25	1	1	1031	4	296	4095	3935
26	1	1	1033	5	295	4095	3934
27	1	1	1036	4	293	4095	3934
28	1	1	1039	4	295	4095	3934
29	1	1	1043	4	293	4095	3935
30	1	1	1044	4	293	4095	3935
31	1	1	1047	5	293	4095	3934
32	1	1	1050	5	293	4095	3934
33	1	1	1053	3	293	4095	3934
34	1	1	1054	4	294	4095	3934
35	1	1	1058	4	293	4095	3936
36	1	1	1060	4	294	4095	3935
37	1	1	1063	4	295	4095	3936
38	1	1	1066	4	295	4095	3936
39	1	1	1068	4	296	4095	3935
40	1	1	1070	4	296	4095	3936
41	1	1	1073	4	295	4095	3934
42	1	1	1075	4	296	4095	3934
43	1	1	1078	4	297	4095	3934
44	1	1	1080	4	296	4095	3934
45	1	1	1083	4	296	4095	3935
46	1	1	1085	5	294	4095	3934
47	1	1	1089	4	296	4095	3935
48	1	1	1090	4	294	4095	3934
49	1	1	1094	4	293	4095	3934
50	1	1	1095	4	293	4095	3935
51	1	1	1097	4	293	4095	3934
52	1	1	1101	4	293	4095	3935
53	1	1	1103	5	293	4095	3935
54	1	1	1106	5	293	4095	3936
55	1	1	1108	4	294	4095	3935
56	1	1	1111	4	295	4095	3934
57	1	1	1113	4	295	4095	3934
58	1	1	1116	3	295	4095	3934
59	1	1	1118	4	296	4095	3934
60	1	1	1121	4	295	4095	3935
61	1	1	1122	5	296	4095	3934
62	1	1	1126	4	296	4095	3935
63	1	1	1129	4	295	4095	3935
64	1	1	1132	3	296	4095	3934
65	1	1	1133	4	294	4095	3935
66	1	1	1135	4	294	4095	3934
67	1	1	1138	4	296	4095	3936
68	1	1	1140	4	296	4095	3936
69	1	1	1142	4	292	4095	3935
70	1	1	1145	5	294	4095	3935
71	1	1	1147	4	293	4095	3936
72	1	1	1150	4	294	4095	3935
73	1	1	1152	4	293	4095	3934
74	1	1	1155	4	293	4095	3935
75	1	1	1156	4	293	4095	3935
76	1	1	1159	4	293	4095	3934
77	1	1	1161	4	295	4095	3934
78	1	1	1164	3	294	4095	3934
79	1	1	1166	4	295	4095	3934
80	1	1	1169	4	294	4095	3936
81	1	1	1171	4	296	4095	3934
82	1	1	1172	4	297	4095	3934
83	1	1	1175	4	295	4095	3934
84	1	1	1177	4	296	4095	3935
85	1	1	1180	4	296	4095	3935
86	1	1	1182	4	295	4095	3935
87	1	1	1185	4	295	4095	3934
88	1	1	1187	3	293	4095	3934
89	1	1	1189	4	294	4095	3935
90	1	1	1191	4	293	4095	3935
91	1	1	1194	4	293	4095	3934
92	1	1	1196	4	293	4095	3934
93	1	1	1198	3	293	4095	3934
94	1	1	1200	4	294	4095	3935
95	1	1	1202	4	294	4095	3934
96	1	1	1204	4	294	4095	3934
97	1	1	1207	4	295	4095	3934
98	1	1	1210	4	294	4095	3934
99	1	1	1212	4	295	4095	3934
100	1	1	1214	4	295	4095	3935
101	1	1	1216	4	295	4095	3934
102	1	1	1219	4	296	4095	3935
103	1	1	1221	4	296	4095	3934
104	1	1	1222	4	295	4095	3934
105	1	1	1225	4	295	4095	3935
106	1	1	1226	4	294	4095	3936
107	1	1	1230	4	293	4095	3934
108	1	1	1231	4	294	4095	3935
109	1	1	1234	4	294	4095	3935
110	1	1	1236	4	293	4095	3935
111	1	1	1238	4	293	4095	3934
112	1	1	1239	4	294	4095	3934
113	1	1	1242	4	293	4095	3934
114	1	1	1244	4	294	4095	3934
115	1	1	1246	4	294	4095	3935
116	1	1	1248	4	295	4095	3934
117	1	1	1251	4	295	4095	3936
118	1	1	1253	4	296	4095	3935
119	1	1	1254	4	296	4095	3935
120	1	1	1258	4	295	4095	3936
121	1	1	1259	4	296	4095	3935
122	1	1	1261	4	295	4095	3935
123	1	1	1264	5	296	4095	3934
124	1	1	1265	4	295	4095	3935
125	1	1	1267	5	296	4095	3935
126	1	1	1270	4	295	4095	3934
127	1	1	1272	4	295	4095	3934
0	1	1	1274	4	292	4095	3934
1	1	1	1275	3	294	4095	3934
2	1	1	1278	4	293	4095	3934
3	1	1	1280	4	293	4095	3934
4	1	1	1282	4	294	4095	3934
5	1	1	1284	4	293	4095	3934
6	1	1	1285	4	293	4095	3934
7	1	1	1288	4	294	4095	3935
8	1	1	1290	4	295	4095	3936
9	1	1	1292	4	295	4095	3936
10	1	1	1294	4	295	4095	3936
11	1	1	1296	4	296	4095	3935
12	1	1	1299	4	296	4095	3936
13	1	1	1300	4	294	4095	3934
14	1	1	1301	4	297	4095	3934
15	1	1	1304	5	296	4095	3934
16	1	1	1305	4	296	4095	3934
17	1	1	1308	4	294	4095	3934
18	1	1	1310	4	294	4095	3934
19	1	1	1312	4	297	4095	3934
20	1	1	1314	4	294	4095	3934
21	1	1	1316	4	293	4095	3936
22	1	1	1318	4	292	4095	3935
23	1	1	1319	4	293	4095	3936
24	1	1	1322	6	293	4095	3934
25	1	1	1323	5	292	4095	3935
26	1	1	1326	4	294	4095	3936
27	1	1	1327	4	295	4095	3935
28	1	1	1330	4	295	4095	3936
29	1	1	1332	5	294	4095	3934
30	1	1	1334	4	296	4095	3934
31	1	1	1335	4	296	4095	3935
32	1	1	1336	4	295	4095	3935
33	1	1	1339	5	295	4095	3934
34	1	1	1340	4	295	4095	3935
35	1	1	1343	4	295	4095	3935
36	1	1	1344	4	296	4095	3935
37	1	1	1346	4	294	4095	3935
38	1	1	1348	4	294	4095	3936
39	1	1	1350	5	294	4095	3934
40	1	1	1352	5	293	4095	3934
41	1	1	1353	4	293	4095	3935
42	1	1	1355	4	294	4095	3935
43	1	1	1358	4	294	4095	3935
44	1	1	1359	4	293	4095	3935
45	1	1	1361	4	292	4095	3934
46	1	1	1362	4	293	4095	3934
47	1	1	1365	4	294	4095	3935
48	1	1	1367	4	295	4095	3934
49	1	1	1368	4	293	4095	3935
50	1	1	1371	5	295	4095	3935
51	1	1	1372	4	296	4095	3934
52	1	1	1374	4	295	4095	3935
53	1	1	1376	4	295	4095	3934
54	1	1	1377	4	296	4095	3934
55	1	1	1379	5	295	4095	3934
56	1	1	1381	4	296	4095	3934
57	1	1	1383	4	295	4095	3935
58	1	1	1385	4	294	4095	3936
59	1	1	1387	5	294	4095	3935
60	1	1	1388	5	293	4095	3935
61	1	1	1390	4	294	4095	3935
62	1	1	1391	4	292	4095	3935
63	1	1	1393	4	293	4095	3934
64	1	1	1395	4	293	4095	3935
65	1	1	1397	4	293	4095	3935
66	1	1	1398	5	293	4095	3935
67	1	1	1401	4	296	4095	3934
68	1	1	1402	4	295	4095	3934
69	1	1	1404	4	295	4095	3934
70	1	1	1406	4	294	4095	3935
71	1	1	1408	4	295	4095	3936
72	1	1	1409	4	295	4095	3935
73	1	1	1411	5	296	4095	3934
74	1	1	1411	4	295	4095	3934
75	1	1	1414	3	295	4095	3934
76	1	1	1416	4	295	4095	3935
77	1	1	1418	4	294	4095	3935
78	1	1	1419	4	295	4095	3934
79	1	1	1421	4	294	4095	3936
80	1	1	1423	4	294	4095	3935
81	1	1	1423	4	293	4095	3935
82	1	1	1426	4	293	4095	3935
83	1	1	1428	4	293	4095	3934
84	1	1	1428	4	293	4095	3934
85	1	1	1431	5	292	4095	3934
86	1	1	1433	4	294	4095	3934
87	1	1	1435	4	294	4095	3934
88	1	1	1436	4	295	4095	3934
89	1	1	1438	4	295	4095	3934
90	1	1	1440	4	294	4095	3935
91	1	1	1442	4	296	4095	3936
92	1	1	1442	4	295	4095	3935
93	1	1	1444	5	295	4095	3935
94	1	1	1445	4	295	4095	3935
95	1	1	1448	3	295	4095	3934
96	1	1	1449	4	293	4095	3934
97	1	1	1450	4	295	4095	3934
98	1	1	1452	4	295	4095	3931
99	1	1	1454	4	295	4095	3934
100	1	1	1455	4	293	4095	3934
101	1	1	1457	4	293	4095	3934
102	1	1	1459	4	294	4095	3934
103	1	1	1460	4	291	4095	3934
104	1	1	1462	3	293	4095	3934
105	1	1	1463	3	293	4095	3934
106	1	1	1465	4	293	4095	3934
107	1	1	1466	4	293	4095	3935
108	1	1	1468	5	293	4095	3936
109	1	1	1471	4	295	4095	3934
110	1	1	1471	5	295	4095	3935
111	1	1	1473	4	296	4095	3936
112	1	1	1474	4	295	4095	3935
113	1	1	1476	4	295	4095	3935
114	1	1	1478	4	296	4095	3934
115	1	1	1480	4	296	4095	3934
116	1	1	1480	4	295	4095	3934
117	1	1	1483	4	295	4095	3935
118	1	1	1484	5	294	4095	3934
119	1	1	1485	4	293	4095	3934
120	1	1	1487	5	294	4095	3934
121	1	1	1488	4	295	4095	3935
122	1	1	1488	5	292	4095	3935
123	1	1	1491	5	293	4095	3934
124	1	1	1493	4	293	4095	3934
125	1	1	1494	4	293	4095	3935
126	1	1	1496	4	293	4095	3935
127	1	1	1497	4	293	4095	3935
0	1	1	1499	4	294	4095	3936
1	1	1	1500	6	295	4095	3935
2	1	1	1502	4	296	4095	3935
3	1	1	1504	4	296	4095	3935
4	1	1	1505	4	295	4095	3935
5	1	1	1506	5	295	4095	3935
6	1	1	1507	4	295	4095	3934
7	1	1	1509	4	296	4095	3934
8	1	1	1510	4	295	4095	3934
9	1	1	1512	4	295	4095	3935
10	1	1	1513	4	294	4095	3934
11	1	1	1515	4	293	4095	3934
12	1	1	1516	4	294	4095	3935
13	1	1	1518	4	294	4095	3935
14	1	1	1518	4	293	4095	3935
15	1	1	1520	4	293	4095	3935
16	1	1	1522	4	294	4095	3934
17	1	1	1523	5	293	4095	3934
18	1	1	1524	4	292	4095	3934
19	1	1	1526	4	294	4095	3935
20	1	1	1529	4	293	4095	3934
21	1	1	1529	4	295	4095	3935
22	1	1	1531	5	295	4095	3934
23	1	1	1532	4	295	4095	3934
24	1	1	1533	4	295	4095	3935
25	1	1	1534	4	297	4095	3934
26	1	1	1536	4	296	4095	3934
27	1	1	1538	5	296	4095	3934
28	1	1	1539	4	296	4095	3934
29	1	1	1540	4	296	4095	3935
30	1	1	1543	4	295	4095	3934
31	1	1	1543	5	294	4095	3935
32	1	1	1545	4	294	4095	3935
33	1	1	1545	4	293	4095	3935
34	1	1	1547	4	293	4095	3935
35	1	1	1548	4	293	4095	3934
36	1	1	1550	4	294	4095	3934
37	1	1	1552	4	294	4095	3934
38	1	1	1553	4	294	4095	3935
39	1	1	1554	4	294	4095	3935
40	1	1	1556	4	293	4095	3935
41	1	1	1558	5	295	4095	3934
42	1	1	1558	5	295	4095	3935
43	1	1	1560	4	294	4095	3936
44	1	1	1560	4	294	4095	3934
45	1	1	1561	4	295	4095	3936
46	1	1	1563	4	294	4095	3934
47	1	1	1565	4	296	4095	3935
48	1	1	1566	4	295	4095	3935
49	1	1	1567	4	295	4095	3945
50	1	1	1568	4	295	4095	3934
51	1	1	1570	4	292	4095	3934
52	1	1	1571	4	293	4095	3934
53	1	1	1572	4	293	4095	3934
54	1	1	1574	4	293	4095	3935
55	1	1	1575	4	292	4095	3934
56	1	1	1577	4	292	4095	3935
57	1	1	1578	3	293	4095	3934
58	1	1	1578	4	292	4095	3935
59	1	1	1580	4	294	4095	3935
60	1	1	1581	4	294	4095	3934
61	1	1	1583	5	294	4095	3934
62	1	1	1584	5	294	4095	3934
63	1	1	1585	4	295	4095	3934
64	1	1	1586	4	295	4095	3935
65	1	1	1588	4	296	4095	3936
66	1	1	1589	4	295	4095	3935
67	1	1	1590	5	296	4095	3934
68	1	1	1591	5	296	4095	3935
69	1	1	1593	4	295	4095	3935
70	1	1	1595	3	295	4095	3934
71	1	1	1595	4	295	4095	3935
72	1	1	1597	4	293	4095	3934
73	1	1	1597	4	292	4095	3934
74	1	1	1599	4	294	4095	3935
75	1	1	1600	4	293	4095	3934
76	1	1	1602	5	292	4095	3934
77	1	1	1603	5	293	4095	3935
78	1	1	1604	4	292	4095	3936
79	1	1	1605	4	294	4095	3935
80	1	1	1606	5	294	4095	3934
81	1	1	1608	4	294	4095	3935
82	1	1	1609	5	295	4095	3935
83	1	1	1609	4	295	4095	3935
84	1	1	1611	4	295	4095	3936
85	1	1	1612	4	296	4095	3934
86	1	1	1613	4	296	4095	3934
87	1	1	1615	5	296	4095	3934
88	1	1	1616	4	295	4095	3934
89	1	1	1617	4	295	4095	3935
90	1	1	1618	4	294	4095	3935
91	1	1	1620	4	293	4095	3934
92	1	1	1620	4	292	4095	3934
93	1	1	1620	4	293	4095	3935
94	1	1	1622	4	292	4095	3935
95	1	1	1624	4	292	4095	3935
96	1	1	1625	4	292	4095	3936
97	1	1	1626	4	293	4095	3936
98	1	1	1627	4	293	4095	3935
99	1	1	1628	4	293	4095	3935
100	1	1	1629	4	294	4095	3935
101	1	1	1631	5	294	4095	3934
102	1	1	1632	4	294	4095	3934
103	1	1	1632	4	295	4095	3934
104	1	1	1634	4	295	4095	3934
105	1	1	1636	3	295	4095	3936
106	1	1	1637	4	297	4095	3934
107	1	1	1637	4	296	4095	3934
108	1	1	1639	4	296	4095	3935
109	1	1	1639	4	295	4095	3935
110	1	1	1640	5	295	4095	3934
111	1	1	1642	4	293	4095	3934
112	1	1	1643	4	293	4095	3934
113	1	1	1644	5	293	4095	3935
114	1	1	1644	4	293	4095	3935
115	1	1	1646	4	293	4095	3935
116	1	1	1647	4	292	4095	3936
117	1	1	1649	4	293	4095	3935
118	1	1	1649	4	293	4095	3934
119	1	1	1650	4	294	4095	3935
120	1	1	1652	3	293	4095	3935
121	1	1	1653	4	296	4095	3934
122	1	1	1654	4	296	4095	3934
123	1	1	1655	5	294	4095	3934
124	1	1	1656	4	295	4095	3935
125	1	1	1657	4	297	4095	3934
126	1	1	1658	4	295	4095	3934
127	1	1	1659	5	296	4095	3934
0	1	1	1661	3	295	4095	3936
1	1	1	1661	4	294	4095	3935
2	1	1	1662	4	294	4095	3935
3	1	1	1663	4	293	4095	3935
4	1	1	1664	6	292	4095	3934
5	1	1	1665	4	294	4095	3935
6	1	1	1667	4	292	4095	3936
7	1	1	1668	2	293	4095	3934
8	1	1	1668	4	293	4095	3936
9	1	1	1670	4	293	4095	3934
10	1	1	1670	4	292	4095	3934
11	1	1	1672	4	294	4095	3934
12	1	1	1672	4	294	4095	3934
13	1	1	1673	4	294	4095	3934
14	1	1	1675	4	294	4095	3935
15	1	1	1677	4	295	4095	3936
16	1	1	1677	4	296	4095	3935
17	1	1	1677	4	297	4095	3936
18	1	1	1679	6	296	4095	3934
19	1	1	1680	4	296	4095	3935
20	1	1	1680	5	295	4095	3934
21	1	1	1681	4	294	4095	3935
22	1	1	1683	4	294	4095	3935
23	1	1	1684	4	292	4095	3934
24	1	1	1685	5	293	4095	3934
25	1	1	1685	4	294	4095	3934
26	1	1	1687	4	294	4095	3935
27	1	1	1687	4	292	4095	3934
28	1	1	1689	4	293	4095	3934
29	1	1	1689	5	292	4095	3934
30	1	1	1691	5	294	4095	3934
31	1	1	1692	4	293	4095	3936
32	1	1	1692	5	293	4095	3934
33	1	1	1694	4	294	4095	3936
34	1	1	1695	4	295	4095	3935
35	1	1	1695	3	294	4095	3934
36	1	1	1697	4	295	4095	3935
37	1	1	1698	4	296	4095	3936
38	1	1	1699	4	296	4095	3935
39	1	1	1700	6	295	4095	3934
40	1	1	1701	5	296	4095	3935
41	1	1	1701	4	294	4095	3935
42	1	1	1702	4	294	4095	3934
43	1	1	1702	5	294	4095	3934
44	1	1	1704	4	294	4095	3935
45	1	1	1704	3	293	4095	3935
46	1	1	1706	4	293	4095	3935
47	1	1	1707	4	293	4095	3934
48	1	1	1708	5	293	4095	3934
49	1	1	1709	6	293	4095	3934
50	1	1	1710	4	294	4095	3934
51	1	1	1712	4	293	4095	3935
52	1	1	1712	4	294	4095	3934
53	1	1	1713	4	295	4095	3936
54	1	1	1714	4	295	4095	3936
55	1	1	1714	5	296	4095	3935
56	1	1	1716	4	295	4095	3936
57	1	1	1716	4	294	4095	3934
58	1	1	1717	4	296	4095	3936
59	1	1	1718	4	296	4095	3935
60	1	1	1718	4	296	4095	3934
61	1	1	1720	4	295	4095	3935
62	1	1	1721	4	294	4095	3934
63	1	1	1721	5	294	4095	3934
64	1	1	1722	4	294	4095	3934
65	1	1	1723	5	292	4095	3934
66	1	1	1724	4	293	4095	3935
67	1	1	1726	4	294	4095	3936
68	1	1	1726	4	292	4095	3935
69	1	1	1727	4	292	4095	3935
70	1	1	1728	4	293	4095	3936
71	1	1	1729	4	293	4095	3935
72	1	1	1729	4	293	4095	3935
73	1	1	1731	3	294	4095	3935
74	1	1	1731	4	295	4095	3934
75	1	1	1733	5	295	4095	3934
76	1	1	1733	4	295	4095	3935
77	1	1	1734	4	295	4095	3934
78	1	1	1734	4	295	4095	3934
79	1	1	1736	5	295	4095	3935
80	1	1	1736	4	295	4095	3934
81	1	1	1737	4	295	4095	3934
82	1	1	1739	3	295	4095	3936
83	1	1	1739	4	293	4095	3934
84	1	1	1740	4	291	4095	3935
85	1	1	1742	4	292	4095	3936
86	1	1	1741	4	293	4095	3935
87	1	1	1742	5	294	4095	3935
88	1	1	1743	4	293	4095	3936
89	1	1	1745	4	293	4095	3935
90	1	1	1744	4	292	4095	3935
91	1	1	1746	4	292	4095	3935
92	1	1	1747	4	294	4095	3934
93	1	1	1747	5	294	4095	3934
94	1	1	1748	5	294	4095	3934
95	1	1	1749	4	295	4095	3934
96	1	1	1750	4	296	4095	3935
97	1	1	1750	4	296	4095	3934
98	1	1	1751	5	296	4095	3934
99	1	1	1753	4	296	4095	3934
100	1	1	1753	5	296	4095	3935
101	1	1	1754	4	295	4095	3936
102	1	1	1755	5	294	4095	3934
103	1	1	1755	4	293	4095	3936
104	1	1	1757	4	293	4095	3936
105	1	1	1757	4	293	4095	3935
106	1	1	1758	4	292	4095	3936
107	1	1	1758	4	293	4095	3934
108	1	1	1760	4	292	4095	3935
109	1	1	1761	5	293	4095	3935
110	1	1	1761	5	294	4095	3934
111	1	1	1761	4	293	4095	3934
112	1	1	1763	4	294	4095	3934
113	1	1	1764	4	295	4095	3934
114	1	1	1765	4	294	4095	3934
115	1	1	1765	4	294	4095	3934
116	1	1	1766	4	296	4095	3935
117	1	1	1767	4	295	4095	3936
118	1	1	1768	5	296	4095	3934
119	1	1	1768	4	298	4095	3934
120	1	1	1768	4	297	4095	3935
121	1	1	1770	4	295	4095	3936
122	1	1	1771	4	293	4095	3934
123	1	1	1771	4	293	4095	3935
124	1	1	1772	4	293	4095	3934
125	1	1	1772	4	293	4095	3934
126	1	1	1774	4	292	4095	3934
127	1	1	1774	5	292	4095	3934
0	1	1	1776	5	292	4095	3934
1	1	1	1776	4	291	4095	3934
2	1	1	1776	4	292	4095	3934
3	1	1	1776	5	293	4095	3935
4	1	1	1777	4	293	4095	3934
5	1	1	1779	4	294	4095	3934
6	1	1	1780	4	293	4095	3935
7	1	1	1780	4	296	4095	3936
8	1	1	1780	4	296	4095	3935
9	1	1	1781	4	296	4095	3935
10	1	1	1782	5	295	4095	3935
11	1	1	1784	5	296	4095	3936
12	1	1	1783	4	295	4095	3935
13	1	1	1784	4	294	4095	3935
14	1	1	1785	4	295	4095	3934
15	1	1	1786	4	293	4095	3935
16	1	1	1787	4	293	4095	3935
17	1	1	1787	4	293	4095	3934
18	1	1	1788	4	293	4095	3934
19	1	1	1789	4	293	4095	3935
20	1	1	1790	4	293	4095	3934
21	1	1	1791	4	292	4095	3935
22	1	1	1792	4	291	4095	3936
23	1	1	1792	4	294	4095	3935
24	1	1	1792	4	294	4095	3935
25	1	1	1793	4	294	4095	3936
26	1	1	1795	4	295	4095	3936
27	1	1	1794	3	295	4095	3935
28	1	1	1795	4	295	4095	3935
29	1	1	1796	4	295	4095	3934
30	1	1	1797	4	295	4095	3935
31	1	1	1797	4	296	4095	3934
32	1	1	1797	3	294	4095	3934
33	1	1	1798	4	295	4095	3934
34	1	1	1799	5	293	4095	3934
35	1	1	1800	4	294	4095	3934
36	1	1	1800	5	293	4095	3935
37	1	1	1801	4	293	4095	3935
38	1	1	1802	4	293	4095	3934
39	1	1	1802	4	293	4095	3936
40	1	1	1804	4	294	4095	3934
41	1	1	1804	4	292	4095	3934
42	1	1	1804	4	293	4095	3935
43	1	1	1805	4	293	4095	3936
44	1	1	1806	3	294	4095	3935
45	1	1	1807	4	294	4095	3935
46	1	1	1807	4	296	4095	3934
47	1	1	1807	4	296	4095	3935
48	1	1	1810	4	295	4095	3934
49	1	1	1809	4	295	4095	3934
50	1	1	1810	4	294	4095	3934
51	1	1	1811	4	293	4095	3934
52	1	1	1811	3	295	4095	3934
53	1	1	1811	4	295	4095	3934
54	1	1	1812	4	294	4095	3936
55	1	1	1814	4	294	4095	3934
56	1	1	1814	5	293	4095	3934
57	1	1	1814	4	293	4095	3935
58	1	1	1816	4	293	4095	3936
59	1	1	1816	4	293	4095	3934
60	1	1	1816	4	293	4095	3934
61	1	1	1817	4	291	4095	3934
62	1	1	1817	4	293	4095	3935
63	1	1	1818	4	293	4095	3934
64	1	1	1818	5	293	4095	3934
65	1	1	1819	4	294	4095	3934
66	1	1	1820	4	295	4095	3934
67	1	1	1821	4	296	4095	3936
68	1	1	1821	4	294	4095	3934
69	1	1	1822	5	295	4095	3934
70	1	1	1822	4	295	4095	3935
71	1	1	1824	4	294	4095	3936
72	1	1	1824	4	295	4095	3935
73	1	1	1825	4	294	4095	3934
74	1	1	1825	5	294	4095	3935
75	1	1	1826	4	293	4095	3935
76	1	1	1826	5	293	4095	3935
77	1	1	1826	4	292	4095	3935
78	1	1	1827	5	292	4095	3935
79	1	1	1827	5	292	4095	3934
80	1	1	1829	4	291	4095	3934
81	1	1	1829	4	292	4095	3935
82	1	1	1829	4	293	4095	3934
83	1	1	1830	4	293	4095	3934
84	1	1	1831	4	294	4095	3935
85	1	1	1832	4	296	4095	3934
86	1	1	1832	4	294	4095	3934
87	1	1	1832	3	295	4095	3935
88	1	1	1834	4	294	4095	3936
89	1	1	1835	6	295	4095	3934
90	1	1	1834	4	296	4095	3935
91	1	1	1836	4	296	4095	3935
92	1	1	1836	4	296	4095	3935
93	1	1	1836	5	294	4095	3936
94	1	1	1836	5	293	4095	3934
95	1	1	1838	4	293	4095	3935
96	1	1	1838	4	293	4095	3934
97	1	1	1838	4	293	4095	3935
98	1	1	1840	4	293	4095	3936
99	1	1	1841	4	292	4095	3934
100	1	1	1840	4	293	4095	3934
101	1	1	1841	4	293	4095	3934
102	1	1	1841	4	293	4095	3934
103	1	1	1842	4	292	4095	3935
104	1	1	1842	5	293	4095	3934
105	1	1	1844	4	294	4095	3935
106	1	1	1844	4	295	4095	3935
107	1	1	1845	4	296	4095	3936
108	1	1	1844	4	295	4095	3935
109	1	1	1845	4	296	4095	3935
110	1	1	1846	4	294	4095	3936
111	1	1	1846	4	295	4095	3936
112	1	1	1847	4	295	4095	3935
113	1	1	1848	4	295	4095	3935
114	1	1	1848	5	294	4095	3934
115	1	1	1849	5	294	4095	3934
116	1	1	1849	4	293	4095	3934
117	1	1	1849	3	293	4095	3934
118	1	1	1850	4	293	4095	3935
119	1	1	1850	4	292	4095	3934
120	1	1	1851	4	293	4095	3934
121	1	1	1852	4	293	4095	3934
122	1	1	1853	3	293	4095	3934
123	1	1	1852	4	292	4095	3935
124	1	1	1854	4	294	4095	3936
125	1	1	1854	4	295	4095	3935
126	1	1	1855	4	295	4095	3935
127	1	1	1856	4	294	4095	3936
0	1	1	1856	4	295	4095	3935
1	1	1	1856	4	295	4095	3934
2	1	1	1857	4	295	4095	3934
3	1	1	1857	4	294	4095	3934
4	1	1	1857	3	294	4095	3935
5	1	1	1858	4	294	4095	3934
6	1	1	1858	4	294	4095	3934
7	1	1	1860	4	295	4095	3934
8	1	1	1860	4	294	4095	3934
9	1	1	1860	4	293	4095	3934
10	1	1	1861	4	293	4095	3935
11	1	1	1861	4	293	4095	3934
12	1	1	1862	5	293	4095	3935
13	1	1	1863	4	292	4095	3935
14	1	1	1862	3	293	4095	3934
15	1	1	1863	5	293	4095	3935
16	1	1	1863	4	293	4095	3935
17	1	1	1865	4	294	4095	3934
18	1	1	1865	4	294	4095	3935
19	1	1	1865	4	295	4095	3934
20	1	1	1866	5	296	4095	3935
21	1	1	1866	4	295	4095	3932
22	1	1	1867	4	296	4095	3934
23	1	1	1868	4	296	4095	3934
24	1	1	1868	3	294	4095	3934
25	1	1	1869	4	295	4095	3934
26	1	1	1869	5	293	4095	3934
27	1	1	1869	4	294	4095	3936
28	1	1	1870	4	292	4095	3936
29	1	1	1871	4	293	4095	3936
30	1	1	1871	4	291	4095	3935
31	1	1	1871	4	292	4095	3936
32	1	1	1872	4	293	4095	3935
33	1	1	1872	4	293	4095	3935
34	1	1	1874	4	292	4095	3936
35	1	1	1873	4	293	4095	3934
36	1	1	1874	5	294	4095	3935
37	1	1	1875	4	294	4095	3934
38	1	1	1875	4	294	4095	3934
39	1	1	1876	4	295	4095	3935
40	1	1	1875	4	294	4095	3934
41	1	1	1876	4	297	4095	3934
42	1	1	1877	5	295	4095	3934
43	1	1	1878	5	296	4095	3934
44	1	1	1877	4	295	4095	3935
45	1	1	1878	5	295	4095	3935
46	1	1	1878	4	293	4095	3935
47	1	1	1879	4	293	4095	3936
48	1	1	1880	5	293	4095	3936
49	1	1	1880	3	293	4095	3936
50	1	1	1881	4	293	4095	3936
51	1	1	1880	5	292	4095	3934
52	1	1	1881	5	292	4095	3934
53	1	1	1882	4	293	4095	3934
54	1	1	1882	4	292	4095	3934
55	1	1	1883	5	293	4095	3934
56	1	1	1882	5	293	4095	3934
57	1	1	1884	4	294	4095	3934
58	1	1	1884	4	294	4095	3934
59	1	1	1884	4	295	4095	3935
60	1	1	1884	4	295	4095	3934
61	1	1	1885	4	295	4095	3936
62	1	1	1886	4	296	4095	3935
63	1	1	1886	4	295	4095	3935
64	1	1	1887	4	295	4095	3936
65	1	1	1886	4	294	4095	3935
66	1	1	1887	4	293	4095	3934
67	1	1	1888	5	292	4095	3934
68	1	1	1889	4	293	4095	3934
69	1	1	1888	4	293	4095	3935
70	1	1	1889	4	292	4095	3934
71	1	1	1889	4	293	4095	3934
72	1	1	1890	4	292	4095	3935
73	1	1	1891	4	292	4095	3935
74	1	1	1891	4	293	4095	3935
75	1	1	1892	4	294	4095	3936
76	1	1	1892	4	292	4095	3934
77	1	1	1892	5	293	4095	3935
78	1	1	1893	4	296	4095	3934
79	1	1	1892	4	295	4095	3935
80	1	1	1894	5	296	4095	3935
81	1	1	1893	5	294	4095	3935
82	1	1	1894	5	296	4095	3934
83	1	1	1895	4	293	4095	3934
84	1	1	1895	4	295	4095	3935
85	1	1	1895	5	294	4095	3934
86	1	1	1896	4	295	4095	3935
87	1	1	1897	4	293	4095	3934
88	1	1	1897	4	293	4095	3934
89	1	1	1898	4	293	4095	3935
90	1	1	1897	4	293	4095	3934
91	1	1	1898	4	293	4095	3934
92	1	1	1898	5	292	4095	3934
93	1	1	1900	5	292	4095	3934
94	1	1	1899	4	292	4095	3935
95	1	1	1899	4	293	4095	3934
96	1	1	1900	4	294	4095	3934
97	1	1	1900	4	294	4095	3935
98	1	1	1901	4	295	4095	3936
99	1	1	1901	4	295	4095	3935
100	1	1	1902	4	295	4095	3934
101	1	1	1902	5	294	4095	3936
102	1	1	1903	4	296	4095	3934
103	1	1	1902	4	298	4095	3934
104	1	1	1903	4	294	4095	3934
105	1	1	1903	4	295	4095	3934
106	1	1	1904	4	294	4095	3934
107	1	1	1904	5	293	4095	3934
108	1	1	1905	4	292	4095	3934
109	1	1	1904	4	292	4095	3934
110	1	1	1905	4	292	4095	3934
111	1	1	1906	4	292	4095	3934
112	1	1	1906	4	291	4095	3935
113	1	1	1907	4	293	4095	3936
114	1	1	1907	4	294	4095	3935
115	1	1	1907	5	293	4095	3935
116	1	1	1908	5	293	4095	3936
117	1	1	1909	4	294	4095	3934
118	1	1	1908	4	295	4095	3934
119	1	1	1909	4	293	4095	3935
120	1	1	1909	4	294	4095	3934
121	1	1	1909	4	294	4095	3934
122	1	1	1910	4	295	4095	3935
123	1	1	1911	4	295	4095	3935
124	1	1	1911	4	293	4095	3934
125	1	1	1911	4	294	4095	3934
126	1	1	1911	4	293	4095	3934
127	1	1	1912	4	292	4095	3934
0	1	1	1912	4	294	4095	3935
1	1	1	1913	4	292	4095	3935
2	1	1	1913	4	293	4095	3935
3	1	1	1913	4	293	4095	3934
4	1	1	1914	5	293	4095	3935
5	1	1	1914	4	292	4095	3934
6	1	1	1914	4	293	4095	3935
7	1	1	1916	4	293	4095	3935
8	1	1	1915	5	293	4095	3934
9	1	1	1915	4	295	4095	3934
10	1	1	1917	5	294	4095	3934
11	1	1	1916	4	294	4095	3934
12	1	1	1917	4	295	4095	3934
13	1	1	1916	4	294	4095	3934
14	1	1	1918	4	296	4095	3934
15	1	1	1918	4	295	4095	3935
16	1	1	1919	4	294	4095	3935
17	1	1	1918	4	294	4095	3935
18	1	1	1918	4	294	4095	3934
19	1	1	1919	4	293	4095	3935
20	1	1	1920	4	293	4095	3936
21	1	1	1920	4	292	4095	3935
22	1	1	1920	4	292	4095	3934
23	1	1	1920	4	292	4095	3934
24	1	1	1922	4	293	4095	3934
25	1	1	1921	5	293	4095	3934
26	1	1	1923	4	291	4095	3935
27	1	1	1922	4	292	4095	3934
28	1	1	1922	4	293	4095	3934
29	1	1	1923	5	294	4095	3934
30	1	1	1923	4	294	4095	3935
31	1	1	1923	4	295	4095	3935
32	1	1	1924	6	295	4095	3935
33	1	1	1924	4	294	4095	3936
34	1	1	1925	4	295	4095	3934
35	1	1	1925	4	296	4095	3935
36	1	1	1925	4	294	4095	3935
37	1	1	1925	4	293	4095	3935
38	1	1	1926	4	293	4095	3934
39	1	1	1926	5	293	4095	3934
40	1	1	1926	4	293	4095	3935
41	1	1	1926	4	293	4095	3935
42	1	1	1928	4	292	4095	3935
43	1	1	1928	4	290	4095	3934
44	1	1	1927	4	292	4095	3934
45	1	1	1928	4	291	4095	3934
46	1	1	1929	4	292	4095	3936
47	1	1	1928	4	294	4095	3934
48	1	1	1929	4	294	4095	3934
49	1	1	1929	5	294	4095	3935
50	1	1	1930	4	294	4095	3936
51	1	1	1930	4	295	4095	3935
52	1	1	1931	4	296	4095	3936
53	1	1	1930	5	295	4095	3935
54	1	1	1931	5	296	4095	3935
55	1	1	1932	5	295	4095	3934
56	1	1	1932	4	293	4095	3934
57	1	1	1931	4	295	4095	3935
58	1	1	1932	5	294	4095	3934
59	1	1	1933	5	293	4095	3934
60	1	1	1933	5	293	4095	3935
61	1	1	1933	4	293	4095	3935
62	1	1	1934	4	291	4095	3934
63	1	1	1934	4	292	4095	3934
64	1	1	1934	4	292	4095	3934
65	1	1	1935	5	292	4095	3935
66	1	1	1935	4	294	4095	3935
67	1	1	1935	5	293	4095	3934
68	1	1	1935	5	293	4095	3936
69	1	1	1936	5	294	4095	3935
70	1	1	1937	4	294	4095	3935
71	1	1	1937	4	295	4095	3936
72	1	1	1936	4	295	4095	3934
73	1	1	1937	4	295	4095	3936
74	1	1	1938	5	295	4095	3934
75	1	1	1937	4	295	4095	3934
76	1	1	1938	4	294	4095	3935
77	1	1	1938	4	293	4095	3935
78	1	1	1939	5	293	4095	3934
79	1	1	1939	5	293	4095	3934
80	1	1	1939	4	292	4095	3935
81	1	1	1939	4	292	4095	3935
82	1	1	1941	4	293	4095	3936
83	1	1	1939	5	292	4095	3934
84	1	1	1940	5	292	4095	3935
85	1	1	1940	4	292	4095	3935
86	1	1	1941	4	293	4095	3936
87	1	1	1940	4	294	4095	3935
88	1	1	1941	5	293	4095	3935
89	1	1	1940	4	294	4095	3935
90	1	1	1942	5	295	4095	3936
91	1	1	1941	4	294	4095	3937
92	1	1	1943	4	294	4095	3936
93	1	1	1944	4	295	4095	3934
94	1	1	1941	4	296	4095	3934
95	1	1	1944	4	295	4095	3935
96	1	1	1943	4	294	4095	3934
97	1	1	1943	4	293	4095	3934
98	1	1	1943	4	294	4095	3934
99	1	1	1945	4	292	4095	3934
100	1	1	1945	5	293	4095	3934
101	1	1	1945	5	293	4095	3935
102	1	1	1945	4	293	4095	3934
103	1	1	1945	4	292	4095	3934
104	1	1	1946	4	291	4095	3935
105	1	1	1946	4	292	4095	3935
106	1	1	1946	4	292	4095	3935
107	1	1	1946	5	292	4095	3934
108	1	1	1947	4	293	4095	3936
109	1	1	1948	4	294	4095	3935
110	1	1	1947	4	295	4095	3934
111	1	1	1948	4	294	4095	3935
112	1	1	1947	4	294	4095	3935
113	1	1	1948	5	296	4095	3934
114	1	1	1949	4	294	4095	3935
115	1	1	1950	4	296	4095	3934
116	1	1	1949	4	295	4095	3935
117	1	1	1949	4	295	4095	3934
118	1	1	1950	4	294	4095	3936
119	1	1	1951	4	293	4095	3935
120	1	1	1950	4	293	4095	3935
121	1	1	1950	4	293	4095	3935
122	1	1	1951	4	291	4095	3936
123	1	1	1950	5	292	4095	3934
124	1	1	1950	5	291	4095	3934
125	1	1	1951	4	292	4095	3934
126	1	1	1951	5	293	4095	3935
127	1	1	1952	4	294	4095	3934
0	1	1	1952	4	293	4095	3934
1	1	1	1953	4	294	4095	3934
2	1	1	1953	4	294	4095	3934
3	1	1	1954	4	295	4095	3936
4	1	1	1953	4	295	4095	3935
5	1	1	1954	4	293	4095	3936
6	1	1	1954	4	297	4095	3934
7	1	1	1954	4	294	4095	3935
8	1	1	1954	4	295	4095	3935
9	1	1	1954	4	293	4095	3935
10	1	1	1955	5	293	4095	3934
11	1	1	1954	4	293	4095	3935
12	1	1	1955	5	292	4095	3935
13	1	1	1955	4	290	4095	3935
14	1	1	1955	4	291	4095	3935
15	1	1	1956	4	292	4095	3934
16	1	1	1956	4	293	4095	3934
17	1	1	1956	4	293	4095	3934
18	1	1	1956	4	293	4095	3934
19	1	1	1958	4	293	4095	3935
20	1	1	1958	4	292	4095	3934
21	1	1	1956	4	294	4095	3935
22	1	1	1958	4	295	4095	3936
23	1	1	1958	4	294	4095	3935
24	1	1	1959	4	294	4095	3936
25	1	1	1959	4	293	4095	3935
26	1	1	1958	4	295	4095	3935
27	1	1	1959	4	295	4095	3935
28	1	1	1959	4	295	4095	3935
29	1	1	1959	5	294	4095	3934
30	1	1	1959	4	293	4095	3934
31	1	1	1959	4	293	4095	3934
32	1	1	1960	4	293	4095	3934
33	1	1	1960	4	290	4095	3934
34	1	1	1960	4	292	4095	3935
35	1	1	1961	4	292	4095	3935
36	1	1	1961	4	291	4095	3935
37	1	1	1961	4	292	4095	3934
38	1	1	1962	4	293	4095	3935
39	1	1	1961	4	292	4095	3935
40	1	1	1962	4	294	4095	3934
41	1	1	1962	4	294	4095	3934
42	1	1	1963	4	296	4095	3933
43	1	1	1962	4	293	4095	3935
44	1	1	1962	4	295	4095	3935
45	1	1	1963	4	295	4095	3934
46	1	1	1963	4	295	4095	3935
47	1	1	1964	4	295	4095	3935
48	1	1	1964	4	294	4095	3935
49	1	1	1964	4	294	4095	3935
50	1	1	1965	4	293	4095	3934
51	1	1	1965	4	293	4095	3934
52	1	1	1964	4	292	4095	3934
53	1	1	1965	4	292	4095	3934
54	1	1	1965	5	292	4095	3934
55	1	1	1965	4	292	4095	3934
56	1	1	1965	4	293	4095	3934
57	1	1	1966	4	292	4095	3934
58	1	1	1966	4	291	4095	3936
59	1	1	1965	4	293	4095	3935
60	1	1	1966	4	292	4095	3936
61	1	1	1967	4	293	4095	3935
62	1	1	1967	4	294	4095	3934
63	1	1	1966	5	294	4095	3935
64	1	1	1968	4	295	4095	3935
65	1	1	1968	4	293	4095	3934
66	1	1	1967	4	296	4095	3934
67	1	1	1968	4	294	4095	3934
68	1	1	1968	4	296	4095	3934
69	1	1	1968	4	293	4095	3934
70	1	1	1968	4	294	4095	3934
71	1	1	1969	4	293	4095	3934
72	1	1	1969	4	291	4095	3934
73	1	1	1970	4	292	4095	3935
74	1	1	1969	4	292	4095	3935
75	1	1	1969	4	292	4095	3936
76	1	1	1969	4	291	4095	3934
77	1	1	1970	4	292	4095	3934
78	1	1	1970	4	293	4095	3935
79	1	1	1970	4	293	4095	3934
80	1	1	1970	4	293	4095	3934
81	1	1	1971	4	294	4095	3935
82	1	1	1971	4	295	4095	3934
83	1	1	1971	4	295	4095	3934
84	1	1	1971	4	294	4095	3934
85	1	1	1971	4	294	4095	3934
86	1	1	1971	4	296	4095	3934
87	1	1	1972	4	294	4095	3934
88	1	1	1973	4	295	4095	3936
89	1	1	1972	4	293	4095	3934
90	1	1	1973	4	293	4095	3936
91	1	1	1973	4	292	4095	3935
92	1	1	1973	4	292	4095	3935
93	1	1	1972	5	293	4095	3935
94	1	1	1973	5	293	4095	3934
95	1	1	1973	5	292	4095	3934
96	1	1	1974	4	292	4095	3934
97	1	1	1974	4	292	4095	3936
98	1	1	1974	4	292	4095	3934
99	1	1	1975	4	293	4095	3934
100	1	1	1974	4	293	4095	3934
101	1	1	1974	4	294	4095	3934
102	1	1	1975	4	294	4095	3934
103	1	1	1975	4	294	4095	3935
104	1	1	1975	4	293	4095	3934
105	1	1	1975	4	295	4095	3934
106	1	1	1975	4	296	4095	3935
107	1	1	1976	5	294	4095	3935
108	1	1	1976	4	295	4095	3935
109	1	1	1976	4	293	4095	3935
110	1	1	1976	5	294	4095	3934
111	1	1	1977	4	293	4095	3934
112	1	1	1976	4	292	4095	3935
113	1	1	1977	4	293	4095	3935
114	1	1	1977	4	292	4095	3934
115	1	1	1977	4	292	4095	3934
116	1	1	1978	4	293	4095	3934
117	1	1	1977	5	293	4095	3934
118	1	1	1977	5	294	4095	3934
119	1	1	1979	4	293	4095	3935
120	1	1	1979	4	293	4095	3934
121	1	1	1978	4	292	4095	3934
122	1	1	1979	5	294	4095	3936
123	1	1	1978	4	295	4095	3935
124	1	1	1980	4	294	4095	3936
125	1	1	1980	3	294	4095	3934
126	1	1	1979	4	295	4095	3935
127	1	1	1979	4	296	4095	3935
0	1	1	1980	5	294	4095	3935
1	1	1	1979	4	294	4095	3934
2	1	1	1980	4	293	4095	3934
3	1	1	1981	4	293	4095	3934
4	1	1	1980	4	293	4095	3934
5	1	1	1981	4	292	4095	3935
6	1	1	1981	5	290	4095	3934
7	1	1	1981	5	292	4095	3934
8	1	1	1981	4	292	4095	3934
9	1	1	1981	4	292	4095	3934
10	1	1	1980	4	291	4095	3935
11	1	1	1982	4	293	4095	3936
12	1	1	1982	4	294	4095	3934
13	1	1	1982	4	293	4095	3936
14	1	1	1983	5	294	4095	3936
15	1	1	1982	4	294	4095	3935
16	1	1	1984	4	294	4095	3936
17	1	1	1983	4	295	4095	3934
18	1	1	1983	4	295	4095	3935
19	1	1	1984	4	296	4095	3936
20	1	1	1983	4	294	4095	3934
21	1	1	1983	4	294	4095	3934
22	1	1	1983	4	294	4095	3934
23	1	1	1983	4	293	4095	3934
24	1	1	1984	4	291	4095	3934
25	1	1	1984	4	291	4095	3935
26	1	1	1984	4	292	4095	3934
27	1	1	1984	4	291	4095	3936
28	1	1	1986	4	291	4095	3934
29	1	1	1985	4	292	4095	3934
30	1	1	1985	4	292	4095	3935
31	1	1	1986	4	292	4095	3936
32	1	1	1986	4	292	4095	3934
33	1	1	1986	4	294	4095	3934
34	1	1	1986	4	294	4095	3934
35	1	1	1986	4	294	4095	3935
36	1	1	1986	4	295	4095	3934
37	1	1	1986	4	294	4095	3934
38	1	1	1986	4	295	4095	3934
39	1	1	1986	4	295	4095	3933
40	1	1	1986	4	293	4095	3934
41	1	1	1986	4	295	4095	3934
42	1	1	1986	4	293	4095	3934
43	1	1	1987	4	293	4095	3934
44	1	1	1987	4	292	4095	3935
45	1	1	1988	4	292	4095	3936
46	1	1	1987	4	292	4095	3934
47	1	1	1988	4	291	4095	3936
48	1	1	1989	4	292	4095	3935
49	1	1	1988	5	292	4095	3935
50	1	1	1989	4	292	4095	3935
51	1	1	1988	5	293	4095	3934
52	1	1	1988	4	293	4095	3934
53	1	1	1989	4	293	4095	3934
54	1	1	1989	4	293	4095	3935
55	1	1	1989	4	293	4095	3934
56	1	1	1989	4	295	4095	3934
57	1	1	1989	4	294	4095	3934
58	1	1	1988	4	294	4095	3934
59	1	1	1990	5	295	4095	3934
60	1	1	1990	4	293	4095	3935
61	1	1	1990	4	295	4095	3936
62	1	1	1991	5	293	4095	3934
63	1	1	1991	5	293	4095	3935
64	1	1	1991	5	294	4095	3936
65	1	1	1990	4	292	4095	3935
66	1	1	1991	4	292	4095	3936
67	1	1	1991	5	292	4095	3934
68	1	1	1991	5	292	4095	3934
69	1	1	1992	4	292	4095	3935
70	1	1	1991	5	292	4095	3934
71	1	1	1992	4	294	4095	3935
72	1	1	1990	5	293	4095	3934
73	1	1	1992	4	293	4095	3934
74	1	1	1992	5	293	4095	3934
75	1	1	1992	4	293	4095	3935
76	1	1	1992	4	294	4095	3934
77	1	1	1993	4	294	4095	3936
78	1	1	1993	4	294	4095	3935
79	1	1	1993	4	294	4095	3935
80	1	1	1992	5	293	4095	3935
81	1	1	1992	5	293	4095	3935
82	1	1	1993	4	292	4095	3934
83	1	1	1993	4	292	4095	3935
84	1	1	1994	4	291	4095	3936
85	1	1	1993	4	291	4095	3935
86	1	1	1993	4	292	4095	3934
87	1	1	1993	4	292	4095	3934
88	1	1	1994	4	292	4095	3934
89	1	1	1993	4	293	4095	3934
90	1	1	1994	4	291	4095	3935
91	1	1	1994	4	293	4095	3934
92	1	1	1994	4	293	4095	3936
93	1	1	1995	4	293	4095	3934
94	1	1	1995	4	293	4095	3935
95	1	1	1995	4	293	4095	3935
96	1	1	1995	4	294	4095	3934
97	1	1	1995	4	294	4095	3936
98	1	1	1996	5	295	4095	3935
99	1	1	1996	5	294	4095	3934
100	1	1	1996	4	294	4095	3935
101	1	1	1996	4	293	4095	3936
102	1	1	1996	4	294	4095	3934
103	1	1	1996	4	293	4095	3934
104	1	1	1996	4	292	4095	3934
105	1	1	1999	5	291	4095	3935
106	1	1	2096	5	291	4095	3934
107	1	1	2139	5	291	4095	3934
108	1	1	2127	4	292	4095	3934
109	1	1	2131	4	293	4095	3935
110	1	1	2066	4	291	4095	3935
111	1	1	2028	4	292	4095	3934
112	1	1	2011	4	294	4095	3936
113	1	1	2004	4	293	4095	3936
114	1	1	1999	4	293	4095	3935
115	1	1	1998	4	294	4095	3936
116	1	1	1997	5	293	4095	3934
117	1	1	1996	4	294	4095	3934
118	1	1	1996	4	295	4095	3934
119	1	1	1997	4	295	4095	3934
120	1	1	1996	4	293	4095	3934
121	1	1	1996	5	294	4095	3934
122	1	1	1996	4	293	4095	3934
123	1	1	1996	4	292	4095	3935
124	1	1	1997	4	292	4095	3936
125	1	1	2077	5	290	4095	3935
126	1	1	2158	5	291	4095	3936
127	1	1	2192	6	293	4095	3934
0	1	1	2184	4	292	4095	3934
1	1	1	2217	4	292	4095	3935
2	1	1	2139	4	291	4095	3935
3	1	1	2064	4	291	4095	3934
4	1	1	2026	4	293	4095	3934
5	1	1	2009	4	294	4095	3934
6	1	1	2001	4	295	4095	3935
7	1	1	1998	4	294	4095	3935
8	1	1	1996	4	293	4095	3934
9	1	1	1995	4	295	4095	3934
10	1	1	1995	4	296	4095	3934
11	1	1	1995	4	295	4095	3934
12	1	1	1995	4	293	4095	3934
13	1	1	1994	4	293	4095	3934
14	1	1	1995	4	294	4095	3934
15	1	1	1995	4	292	4095	3934
16	1	1	2143	5	291	4095	3935
17	1	1	2264	5	292	4095	3935
18	1	1	2324	5	291	4095	3934
19	1	1	2345	5	291	4095	3935
20	1	1	2308	4	291	4095	3934
21	1	1	2312	4	292	4095	3935
22	1	1	2228	4	291	4095	3935
23	1	1	2107	4	294	4095	3934
24	1	1	2048	4	293	4095	3935
25	1	1	2018	4	293	4095	3934
26	1	1	2004	4	294	4095	3934
27	1	1	1997	4	294	4095	3935
28	1	1	1993	4	295	4095	3934
29	1	1	1991	5	294	4095	3934
30	1	1	1992	4	294	4095	3934
31	1	1	1991	4	295	4095	3935
32	1	1	1990	4	294	4095	3935
33	1	1	1990	4	294	4095	3934
34	1	1	1990	4	292	4095	3934
35	1	1	1991	4	292	4095	3935
36	1	1	2103	5	293	4095	3935
37	1	1	2236	5	292	4095	3935
38	1	1	2312	5	292	4095	3934
39	1	1	2348	5	291	4095	3934
40	1	1	2353	5	292	4095	3935
41	1	1	2390	5	291	4095	3935
42	1	1	2314	5	291	4095	3935
43	1	1	2178	4	293	4095	3934
44	1	1	2079	4	293	4095	3935
45	1	1	2032	4	293	4095	3934
46	1	1	2007	5	293	4095	3934
47	1	1	1996	4	293	4095	3935
48	1	1	1991	4	293	4095	3934
49	1	1	1987	4	294	4095	3936
50	1	1	1986	4	294	4095	3935
51	1	1	1987	4	295	4095	3936
52	1	1	1986	4	294	4095	3935
53	1	1	1985	5	293	4095	3934
54	1	1	1985	4	294	4095	3934
55	1	1	2217	5	292	4095	3934
56	1	1	2425	5	292	4095	3934
57	1	1	2537	5	291	4095	3935
58	1	1	2603	5	290	4095	3934
59	1	1	2632	5	291	4095	3935
60	1	1	2598	5	291	4095	3934
61	1	1	2616	5	291	4095	3934
62	1	1	2532	4	290	4095	3935
63	1	1	2398	4	293	4095	3936
