# bioPlux Text File Format
# Version: 1
# StartDateTime: 2011-07-18 13:53:13
# SamplingFrequency: 1000
# SampledChannels: 1 2 3 4
# SamplingResolution: 12
# AcquiringDevice: 00:07:80:42:0F:8B
# EndOfHeader
0	0	0	2635	5	3816	73
1	0	0	2524	6	3815	72
2	0	0	2424	6	3818	73
3	0	0	2348	7	3815	72
4	0	0	2289	7	3817	72
5	0	0	2209	6	3815	73
6	0	0	2096	3	3816	72
7	0	0	1984	7	3817	74
8	0	0	1904	7	3817	74
9	0	0	1842	7	3818	76
10	0	0	1807	8	3817	77
11	0	0	1802	11	3815	75
12	0	0	1819	10	3818	76
13	0	0	1849	10	3816	75
14	0	0	1916	9	3819	75
15	0	0	1994	7	3815	75
16	0	0	2052	10	3815	76
17	0	0	2105	8	3817	75
18	0	0	2152	9	3815	76
19	0	0	2167	9	3816	74
20	0	0	2155	9	3817	73
21	0	0	2139	9	3817	73
22	0	0	2118	7	3816	72
23	0	0	2079	5	3817	71
24	0	0	2020	7	3818	72
25	0	0	1966	7	3818	72
26	0	0	1902	8	3817	71
27	0	0	1842	7	3817	74
28	0	0	1813	8	3817	75
29	0	0	1795	9	3816	73
30	0	0	1807	10	3815	76
31	0	0	1816	12	3815	75
32	0	0	1821	8	3819	76
33	0	0	1835	11	3816	75
34	0	0	1846	9	3817	74
35	0	0	1870	10	3815	76
36	0	0	1903	9	3817	73
37	0	0	1913	9	3816	75
38	0	0	1941	10	3815	75
39	0	0	2000	9	3819	73
40	0	0	2041	9	3817	72
41	0	0	2043	9	3817	73
42	0	0	2017	7	3817	73
43	0	0	1979	7	3816	74
44	0	0	1941	7	3817	72
45	0	0	1890	7	3816	71
46	0	0	1811	6	3816	73
47	0	0	1749	7	3816	73
48	0	0	1705	7	3817	74
49	0	0	1679	8	3817	76
50	0	0	1677	11	3817	75
51	0	0	1690	13	3816	74
52	0	0	1736	10	3816	76
53	0	0	1814	10	3816	77
54	0	0	1888	10	3816	76
55	0	0	1923	9	3817	75
56	0	0	1932	10	3816	74
57	0	0	1948	8	3815	75
58	0	0	1985	9	3816	75
59	0	0	2011	10	3818	74
60	0	0	2018	9	3816	73
61	0	0	2029	11	3817	73
62	0	0	2017	8	3815	74
63	0	0	1992	8	3815	73
64	0	0	1959	7	3814	72
65	0	0	1909	8	3816	73
66	0	0	1823	6	3816	74
67	0	0	1728	8	3815	76
68	0	0	1682	8	3816	77
69	0	0	1658	8	3816	75
70	0	0	1687	10	3816	75
71	0	0	1749	11	3816	76
72	0	0	1814	10	3815	76
73	0	0	1855	9	3816	79
74	0	0	1879	10	3816	78
75	0	0	1907	10	3817	77
76	0	0	1954	10	3817	75
77	0	0	2018	10	3818	74
78	0	0	2097	9	3818	73
79	0	0	2130	9	3817	73
80	0	0	2105	7	3816	73
81	0	0	2051	7	3818	73
82	0	0	1987	6	3817	73
83	0	0	1937	7	3816	71
84	0	0	1913	6	3817	71
85	0	0	1871	7	3816	73
86	0	0	1828	9	3816	73
87	0	0	1792	7	3818	74
88	0	0	1746	7	3817	72
89	0	0	1719	9	3818	75
90	0	0	1738	11	3817	75
91	0	0	1757	10	3817	76
92	0	0	1773	11	3816	76
93	0	0	1819	10	3816	79
94	0	0	1879	10	3816	78
95	0	0	1945	10	3816	74
96	0	0	2002	10	3816	74
97	0	0	2034	10	3816	74
98	0	0	2056	9	3817	74
99	0	0	2066	9	3815	73
100	0	0	2075	7	3815	73
101	0	0	2057	8	3816	73
102	0	0	2007	7	3817	72
103	0	0	1950	7	3816	71
104	0	0	1925	8	3816	73
105	0	0	1905	8	3816	71
106	0	0	1878	8	3817	73
107	0	0	1844	8	3816	75
108	0	0	1832	11	3817	72
109	0	0	1835	11	3817	75
110	0	0	1853	11	3817	75
111	0	0	1868	11	3816	75
112	0	0	1885	10	3816	79
113	0	0	1896	10	3817	75
114	0	0	1903	10	3814	75
115	0	0	1925	10	3817	76
116	0	0	1961	5	3813	76
117	0	0	1999	9	3816	75
118	0	0	2064	9	3819	74
119	0	0	2132	8	3812	72
120	0	0	2184	9	3816	73
121	0	0	2185	8	3817	75
122	0	0	2130	6	3816	75
123	0	0	2054	7	3817	70
124	0	0	1966	9	3816	74
125	0	0	1939	9	3817	71
126	0	0	1928	7	3816	74
127	0	0	1913	8	3816	77
0	0	0	1887	8	3818	75
1	0	0	1865	10	3817	75
2	0	0	1833	8	3816	75
3	0	0	1827	11	3818	76
4	0	0	1859	11	3817	80
5	0	0	1906	8	3817	74
6	0	0	1957	10	3817	76
7	0	0	2012	10	3816	76
8	0	0	2066	8	3818	75
9	0	0	2125	9	3815	74
10	0	0	2168	9	3817	75
11	0	0	2175	9	3818	73
12	0	0	2166	8	3817	73
13	0	0	2145	8	3817	73
14	0	0	2102	7	3817	73
15	0	0	2061	7	3817	66
16	0	0	2030	8	3817	69
17	0	0	2008	7	3816	71
18	0	0	1959	4	3817	73
19	0	0	1901	7	3816	72
20	0	0	1873	10	3817	72
21	0	0	1872	11	3817	75
22	0	0	1884	11	3816	75
23	0	0	1893	10	3814	80
24	0	0	1912	11	3817	76
25	0	0	1964	9	3817	77
26	0	0	2027	11	3817	76
27	0	0	2079	9	3816	76
28	0	0	2118	7	3816	75
29	0	0	2154	9	3816	75
30	0	0	2201	8	3818	72
31	0	0	2213	8	3812	72
32	0	0	2207	10	3817	72
33	0	0	2199	9	3819	73
34	0	0	2181	8	3819	72
35	0	0	2144	7	3817	72
36	0	0	2100	7	3818	73
37	0	0	2045	7	3816	77
38	0	0	2011	7	3819	73
39	0	0	1981	8	3815	74
40	0	0	1956	8	3816	72
41	0	0	1936	8	3818	75
42	0	0	1936	10	3816	76
43	0	0	1962	10	3816	76
44	0	0	1990	11	3815	75
45	0	0	2033	9	3818	76
46	0	0	2104	11	3815	78
47	0	0	2148	10	3816	78
48	0	0	2168	10	3817	76
49	0	0	2181	10	3817	75
50	0	0	2196	9	3819	74
51	0	0	2205	8	3817	73
52	0	0	2218	10	3818	73
53	0	0	2208	13	3816	72
54	0	0	2197	10	3815	72
55	0	0	2179	9	3816	68
56	0	0	2154	8	3814	71
57	0	0	2122	7	3815	72
58	0	0	2075	7	3816	73
59	0	0	2018	7	3817	72
60	0	0	1972	8	3818	76
61	0	0	1953	10	3815	73
62	0	0	1960	11	3813	77
63	0	0	1978	11	3817	76
64	0	0	2002	11	3818	74
65	0	0	2027	11	3817	76
66	0	0	2060	9	3818	77
67	0	0	2113	10	3816	76
68	0	0	2184	10	3815	75
69	0	0	2222	12	3816	75
70	0	0	2243	8	3817	75
71	0	0	2236	8	3815	76
72	0	0	2193	7	3817	76
73	0	0	2154	7	3816	72
74	0	0	2141	10	3817	69
75	0	0	2160	10	3817	72
76	0	0	2175	10	3816	73
77	0	0	2144	8	3816	71
78	0	0	2098	5	3818	72
79	0	0	2047	8	3817	72
80	0	0	1999	8	3818	76
81	0	0	1974	9	3816	72
82	0	0	1956	10	3816	75
83	0	0	1964	10	3818	75
84	0	0	1988	9	3817	77
85	0	0	2022	10	3815	76
86	0	0	2083	11	3817	75
87	0	0	2158	10	3816	72
88	0	0	2230	10	3815	75
89	0	0	2254	10	3815	76
90	0	0	2257	10	3817	75
91	0	0	2272	10	3815	73
92	0	0	2255	6	3816	73
93	0	0	2209	8	3816	73
94	0	0	2169	9	3817	74
95	0	0	2142	8	3816	72
96	0	0	2112	10	3815	71
97	0	0	2080	8	3815	72
98	0	0	2038	7	3817	73
99	0	0	2004	9	3817	73
100	0	0	1955	8	3818	76
101	0	0	1907	8	3816	79
102	0	0	1891	10	3815	76
103	0	0	1905	11	3817	76
104	0	0	1957	9	3815	76
105	0	0	2013	10	3817	79
106	0	0	2067	10	3815	75
107	0	0	2120	10	3816	76
108	0	0	2154	8	3815	76
109	0	0	2167	10	3817	72
110	0	0	2189	10	3817	75
111	0	0	2208	10	3816	72
112	0	0	2216	10	3817	73
113	0	0	2208	7	3817	73
114	0	0	2191	8	3816	74
115	0	0	2156	7	3817	71
116	0	0	2112	7	3817	72
117	0	0	2070	8	3816	72
118	0	0	2013	6	3817	73
119	0	0	1944	7	3817	73
120	0	0	1878	5	3817	75
121	0	0	1829	8	3816	75
122	0	0	1807	9	3816	76
123	0	0	1829	9	3816	76
124	0	0	1876	10	3817	77
125	0	0	1928	10	3816	79
126	0	0	1995	9	3816	77
127	0	0	2057	11	3816	76
0	0	0	2095	9	3816	74
1	0	0	2115	10	3817	72
2	0	0	2134	9	3818	76
3	0	0	2149	10	3820	74
4	0	0	2134	7	3816	73
5	0	0	2079	5	3817	72
6	0	0	2018	8	3816	74
7	0	0	1976	6	3817	75
8	0	0	1952	10	3816	71
9	0	0	1933	8	3815	70
10	0	0	1912	9	3816	73
11	0	0	1899	10	3816	72
12	0	0	1888	8	3817	77
13	0	0	1858	7	3820	76
14	0	0	1831	8	3813	77
15	0	0	1827	9	3816	76
16	0	0	1872	10	3816	77
17	0	0	1927	11	3817	77
18	0	0	1963	10	3816	77
19	0	0	2001	9	3818	78
20	0	0	2035	7	3815	76
21	0	0	2062	9	3817	74
22	0	0	2089	9	3818	72
23	0	0	2114	9	3818	72
24	0	0	2121	9	3819	73
25	0	0	2104	10	3817	74
26	0	0	2096	8	3815	73
27	0	0	2077	9	3817	70
28	0	0	2034	7	3818	71
29	0	0	1992	6	3817	71
30	0	0	1935	4	3818	74
31	0	0	1875	5	3818	73
32	0	0	1826	8	3817	75
33	0	0	1786	8	3819	77
34	0	0	1760	8	3816	74
35	0	0	1761	10	3817	78
36	0	0	1796	11	3817	75
37	0	0	1859	10	3817	75
38	0	0	1942	9	3818	75
39	0	0	2008	10	3816	76
40	0	0	2054	11	3816	75
41	0	0	2095	8	3817	75
42	0	0	2110	10	3817	75
43	0	0	2121	10	3819	74
44	0	0	2108	7	3817	73
45	0	0	2078	7	3817	71
46	0	0	2052	9	3816	73
47	0	0	2035	9	3817	72
48	0	0	1994	7	3818	72
49	0	0	1941	7	3816	71
50	0	0	1900	7	3816	74
51	0	0	1853	8	3816	75
52	0	0	1830	8	3817	73
53	0	0	1816	9	3815	73
54	0	0	1805	9	3816	72
55	0	0	1809	11	3817	76
56	0	0	1837	12	3816	76
57	0	0	1888	11	3817	76
58	0	0	1935	9	3817	75
59	0	0	1965	10	3816	76
60	0	0	2002	10	3816	78
61	0	0	2050	6	3817	76
62	0	0	2090	5	3817	74
63	0	0	2109	9	3820	72
64	0	0	2086	7	3817	73
65	0	0	2053	7	3814	75
66	0	0	2036	11	3816	74
67	0	0	2051	10	3817	74
68	0	0	2081	10	3819	71
69	0	0	2061	7	3816	73
70	0	0	1973	8	3817	74
71	0	0	1874	6	3816	75
72	0	0	1816	8	3818	74
73	0	0	1806	9	3818	75
74	0	0	1794	9	3816	76
75	0	0	1778	8	3816	80
76	0	0	1791	8	3818	76
77	0	0	1848	11	3816	76
78	0	0	1932	10	3816	75
79	0	0	2006	10	3817	78
80	0	0	2063	10	3815	74
81	0	0	2132	6	3818	75
82	0	0	2179	9	3818	76
83	0	0	2210	9	3819	74
84	0	0	2194	10	3817	73
85	0	0	2152	7	3816	75
86	0	0	2123	4	3819	73
87	0	0	2087	6	3817	68
88	0	0	2046	7	3817	71
89	0	0	2009	8	3816	73
90	0	0	1971	7	3817	72
91	0	0	1932	10	3818	74
92	0	0	1875	8	3818	76
93	0	0	1834	7	3817	76
94	0	0	1818	7	3815	75
95	0	0	1832	11	3817	75
96	0	0	1874	10	3817	74
97	0	0	1931	8	3817	78
98	0	0	1961	10	3816	75
99	0	0	1962	10	3816	75
100	0	0	2000	9	3817	76
101	0	0	2054	10	3817	73
102	0	0	2112	10	3817	75
103	0	0	2178	9	3817	73
104	0	0	2216	8	3818	73
105	0	0	2194	7	3816	74
106	0	0	2147	8	3818	73
107	0	0	2097	7	3817	72
108	0	0	2043	7	3817	71
109	0	0	1994	7	3816	72
110	0	0	1951	7	3816	76
111	0	0	1903	7	3816	73
112	0	0	1861	7	3817	75
113	0	0	1826	8	3816	74
114	0	0	1814	11	3817	76
115	0	0	1832	11	3817	75
116	0	0	1885	14	3818	77
117	0	0	1928	10	3818	78
118	0	0	1959	10	3816	77
119	0	0	2010	14	3816	76
120	0	0	2089	9	3818	75
121	0	0	2163	9	3818	73
122	0	0	2203	10	3817	73
123	0	0	2205	9	3816	73
124	0	0	2175	6	3816	73
125	0	0	2113	6	3814	74
126	0	0	2070	7	3817	72
127	0	0	2062	11	3817	71
0	0	0	2074	10	3817	71
1	0	0	2076	10	3816	71
2	0	0	2031	7	3816	73
3	0	0	1992	7	3817	75
4	0	0	1959	8	3817	75
5	0	0	1907	9	3816	76
6	0	0	1890	15	3816	76
7	0	0	1932	11	3815	75
8	0	0	1994	15	3818	75
9	0	0	2034	11	3817	75
10	0	0	2048	10	3818	75
11	0	0	2078	9	3816	75
12	0	0	2114	9	3818	79
13	0	0	2121	7	3815	74
14	0	0	2154	10	3817	78
15	0	0	2178	9	3816	74
16	0	0	2192	10	3818	74
17	0	0	2186	8	3815	72
18	0	0	2141	7	3815	74
19	0	0	2088	7	3817	71
20	0	0	2041	8	3816	69
21	0	0	1998	7	3817	73
22	0	0	1961	8	3817	70
23	0	0	1916	11	3818	74
24	0	0	1874	8	3817	74
25	0	0	1857	9	3819	75
26	0	0	1852	10	3817	75
27	0	0	1861	11	3817	77
28	0	0	1881	9	3815	78
29	0	0	1921	10	3817	78
30	0	0	1974	10	3816	74
31	0	0	2044	8	3817	76
32	0	0	2093	5	3813	77
33	0	0	2119	7	3815	76
34	0	0	2132	9	3816	74
35	0	0	2129	9	3816	76
36	0	0	2136	11	3815	72
37	0	0	2133	9	3818	72
38	0	0	2100	4	3816	74
39	0	0	2052	7	3817	76
40	0	0	2013	7	3816	72
41	0	0	1974	7	3817	72
42	0	0	1929	7	3815	71
43	0	0	1889	6	3817	74
44	0	0	1872	9	3818	74
45	0	0	1891	11	3816	78
46	0	0	1928	12	3816	75
47	0	0	1941	11	3817	74
48	0	0	1945	12	3817	76
49	0	0	1965	10	3816	78
50	0	0	1995	10	3816	78
51	0	0	2039	9	3815	76
52	0	0	2082	9	3815	72
53	0	0	2112	8	3815	75
54	0	0	2129	10	3817	78
55	0	0	2132	9	3817	75
56	0	0	2147	7	3817	73
57	0	0	2183	10	3815	71
58	0	0	2141	8	3818	74
59	0	0	2067	6	3818	71
60	0	0	1996	7	3816	74
61	0	0	1953	6	3817	73
62	0	0	1919	8	3816	75
63	0	0	1884	4	3816	75
64	0	0	1862	9	3816	74
65	0	0	1870	11	3815	77
66	0	0	1895	11	3816	76
67	0	0	1923	11	3817	73
68	0	0	1956	12	3816	78
69	0	0	1977	10	3817	79
70	0	0	1982	11	3816	79
71	0	0	2006	10	3815	75
72	0	0	2045	8	3816	75
73	0	0	2090	11	3816	76
74	0	0	2131	11	3817	78
75	0	0	2137	9	3816	77
76	0	0	2130	9	3817	74
77	0	0	2118	7	3817	73
78	0	0	2112	11	3816	72
79	0	0	2091	4	3817	71
80	0	0	2051	10	3815	74
81	0	0	2003	7	3815	72
82	0	0	1944	9	3816	73
83	0	0	1901	10	3812	76
84	0	0	1870	8	3816	79
85	0	0	1831	9	3813	79
86	0	0	1827	11	3816	76
87	0	0	1863	11	3817	76
88	0	0	1885	12	3816	80
89	0	0	1924	9	3817	77
90	0	0	1966	9	3816	78
91	0	0	2003	10	3817	75
92	0	0	2021	9	3818	75
93	0	0	2033	10	3816	74
94	0	0	2052	9	3816	74
95	0	0	2077	10	3816	75
96	0	0	2092	10	3817	73
97	0	0	2075	7	3816	73
98	0	0	2054	8	3816	71
99	0	0	2037	8	3818	72
100	0	0	2013	7	3816	71
101	0	0	1985	9	3817	73
102	0	0	1944	7	3816	74
103	0	0	1876	8	3817	75
104	0	0	1823	8	3818	75
105	0	0	1823	11	3816	77
106	0	0	1834	7	3817	76
107	0	0	1834	10	3816	79
108	0	0	1821	9	3817	75
109	0	0	1843	10	3818	76
110	0	0	1896	10	3816	75
111	0	0	1971	10	3816	76
112	0	0	2065	11	3816	76
113	0	0	2126	10	3818	79
114	0	0	2141	9	3816	74
115	0	0	2116	7	3818	74
116	0	0	2078	8	3816	73
117	0	0	2062	10	3817	71
118	0	0	2072	11	3817	72
119	0	0	2078	8	3817	71
120	0	0	2031	7	3816	71
121	0	0	1969	8	3816	73
122	0	0	1909	9	3817	73
123	0	0	1855	10	3817	72
124	0	0	1819	6	3818	73
125	0	0	1809	10	3817	77
126	0	0	1818	12	3817	75
127	0	0	1831	12	3817	76
0	0	0	1857	12	3818	79
1	0	0	1898	9	3817	79
2	0	0	1950	10	3816	73
3	0	0	2004	11	3818	76
4	0	0	2065	5	3813	77
5	0	0	2117	12	3816	74
6	0	0	2148	10	3817	71
7	0	0	2164	10	3816	72
8	0	0	2160	7	3815	73
9	0	0	2129	7	3815	47
10	0	0	2107	8	3818	71
11	0	0	2092	7	3817	72
12	0	0	2063	7	3817	71
13	0	0	2026	7	3816	75
14	0	0	1988	8	3817	73
15	0	0	1925	6	3818	79
16	0	0	1866	8	3817	74
17	0	0	1836	7	3818	75
18	0	0	1847	11	3816	75
19	0	0	1888	10	3816	78
20	0	0	1915	13	3817	73
21	0	0	1945	9	3816	80
22	0	0	1981	11	3815	73
23	0	0	2013	11	3817	79
24	0	0	2036	6	3818	75
25	0	0	2048	12	3817	72
26	0	0	2066	9	3817	74
27	0	0	2092	9	3816	72
28	0	0	2123	9	3816	73
29	0	0	2140	9	3816	75
30	0	0	2105	6	3818	76
31	0	0	2037	5	3817	69
32	0	0	1981	2	3818	72
33	0	0	1949	12	3816	72
34	0	0	1902	7	3816	73
35	0	0	1861	11	3816	72
36	0	0	1855	10	3817	74
37	0	0	1877	11	3817	74
38	0	0	1896	9	3817	76
39	0	0	1912	7	3819	76
40	0	0	1927	14	3816	74
41	0	0	1941	9	3817	78
42	0	0	1965	10	3815	80
43	0	0	2011	10	3815	75
44	0	0	2068	10	3816	74
45	0	0	2120	11	3817	74
46	0	0	2133	8	3817	76
47	0	0	2138	9	3817	73
48	0	0	2134	9	3817	73
49	0	0	2114	8	3816	73
50	0	0	2106	14	3817	72
51	0	0	2100	10	3818	72
52	0	0	2078	8	3816	72
53	0	0	2055	6	3817	73
54	0	0	2045	8	3818	72
55	0	0	2021	7	3816	72
56	0	0	1955	5	3817	74
57	0	0	1893	8	3816	73
58	0	0	1866	9	3816	75
59	0	0	1879	11	3815	75
60	0	0	1914	10	3817	75
61	0	0	1965	9	3818	76
62	0	0	2008	10	3817	72
63	0	0	2037	10	3817	79
64	0	0	2071	10	3817	76
65	0	0	2114	7	3817	75
66	0	0	2146	9	3817	73
67	0	0	2168	10	3818	74
68	0	0	2188	8	3816	73
69	0	0	2163	7	3816	71
70	0	0	2121	4	3817	72
71	0	0	2071	7	3816	72
72	0	0	2043	8	3816	72
73	0	0	2009	8	3816	72
74	0	0	1967	8	3816	73
75	0	0	1930	8	3818	72
76	0	0	1892	6	3817	75
77	0	0	1878	10	3816	76
78	0	0	1889	11	3817	75
79	0	0	1926	10	3816	76
80	0	0	1983	7	3817	76
81	0	0	2038	9	3818	76
82	0	0	2077	11	3818	76
83	0	0	2086	9	3816	75
84	0	0	2117	11	3816	75
85	0	0	2156	8	3816	76
86	0	0	2176	9	3816	74
87	0	0	2207	9	3816	72
88	0	0	2238	7	3816	73
89	0	0	2263	11	3816	72
90	0	0	2280	7	3816	72
91	0	0	2251	6	3816	70
92	0	0	2200	7	3815	74
93	0	0	2145	7	3816	73
94	0	0	2075	8	3816	72
95	0	0	2000	5	3817	76
96	0	0	1957	8	3817	75
97	0	0	1930	7	3819	74
98	0	0	1903	8	3817	74
99	0	0	1904	11	3816	76
100	0	0	1930	9	3817	76
101	0	0	1959	9	3816	79
102	0	0	2026	10	3817	76
103	0	0	2117	10	3816	76
104	0	0	2192	10	3816	74
105	0	0	2239	11	3816	74
106	0	0	2259	10	3817	75
107	0	0	2279	10	3816	74
108	0	0	2282	8	3816	73
109	0	0	2264	7	3817	73
110	0	0	2223	5	3816	75
111	0	0	2177	7	3818	75
112	0	0	2141	8	3816	74
113	0	0	2115	11	3818	73
114	0	0	2058	8	3818	70
115	0	0	2005	9	3817	75
116	0	0	1979	9	3817	74
117	0	0	1954	6	3817	75
118	0	0	1941	11	3816	76
119	0	0	1955	12	3816	76
120	0	0	2001	12	3816	78
121	0	0	2054	11	3817	79
122	0	0	2087	10	3816	78
123	0	0	2105	7	3816	77
124	0	0	2146	7	3815	75
125	0	0	2190	9	3816	74
126	0	0	2225	11	3817	73
127	0	0	2250	7	3817	76
0	0	0	2237	7	3816	72
1	0	0	2207	7	3817	73
2	0	0	2159	8	3817	73
3	0	0	2097	6	3819	70
4	0	0	2036	7	3817	70
5	0	0	1997	9	3817	73
6	0	0	1957	3	3814	75
7	0	0	1930	8	3817	77
8	0	0	1909	9	3817	73
9	0	0	1877	8	3816	78
10	0	0	1863	10	3816	75
11	0	0	1876	12	3818	77
12	0	0	1895	12	3816	77
13	0	0	1917	11	3816	77
14	0	0	1969	10	3817	79
15	0	0	2034	10	3816	76
16	0	0	2097	7	3817	75
17	0	0	2131	8	3817	78
18	0	0	2152	8	3817	73
19	0	0	2167	10	3817	71
20	0	0	2168	9	3816	75
21	0	0	2155	8	3821	72
22	0	0	2126	4	3819	73
23	0	0	2085	7	3816	71
24	0	0	2051	7	3816	71
25	0	0	2029	8	3817	75
26	0	0	1978	7	3815	74
27	0	0	1925	4	3818	75
28	0	0	1895	8	3817	74
29	0	0	1875	9	3816	71
30	0	0	1855	8	3817	77
31	0	0	1847	10	3819	74
32	0	0	1859	8	3818	77
33	0	0	1886	10	3817	78
34	0	0	1944	10	3816	75
35	0	0	2003	11	3817	77
36	0	0	2048	9	3819	76
37	0	0	2087	10	3819	75
38	0	0	2123	10	3817	74
39	0	0	2147	9	3819	73
40	0	0	2142	9	3816	74
41	0	0	2124	7	3818	74
42	0	0	2091	7	3817	72
43	0	0	2039	7	3817	72
44	0	0	1987	7	3818	73
45	0	0	1944	4	3816	73
46	0	0	1904	7	3817	74
47	0	0	1865	6	3817	75
48	0	0	1830	8	3817	75
49	0	0	1803	9	3816	72
50	0	0	1821	9	3817	73
51	0	0	1856	11	3818	79
52	0	0	1889	12	3817	75
53	0	0	1915	8	3818	76
54	0	0	1956	10	3816	71
55	0	0	2001	10	3817	77
56	0	0	2039	9	3813	78
57	0	0	2067	8	3818	74
58	0	0	2092	8	3816	73
59	0	0	2124	9	3818	73
60	0	0	2155	8	3816	73
61	0	0	2160	8	3816	73
62	0	0	2122	7	3815	71
63	0	0	2068	6	3817	71
64	0	0	2027	7	3816	69
65	0	0	1972	7	3818	72
66	0	0	1922	7	3817	71
67	0	0	1874	7	3816	71
68	0	0	1836	8	3818	73
69	0	0	1809	8	3817	74
70	0	0	1804	11	3817	77
71	0	0	1807	10	3818	75
72	0	0	1823	9	3818	76
73	0	0	1856	7	3816	77
74	0	0	1907	10	3816	73
75	0	0	1968	11	3816	77
76	0	0	2023	10	3816	75
77	0	0	2066	9	3814	72
78	0	0	2091	8	3817	74
79	0	0	2111	9	3816	72
80	0	0	2114	9	3816	73
81	0	0	2102	9	3813	75
82	0	0	2090	9	3816	72
83	0	0	2059	8	3818	71
84	0	0	2013	7	3817	72
85	0	0	1965	11	3815	73
86	0	0	1899	7	3819	75
87	0	0	1844	6	3819	75
88	0	0	1831	8	3817	75
89	0	0	1842	11	3816	72
90	0	0	1860	12	3816	76
91	0	0	1868	10	3813	79
92	0	0	1876	11	3815	75
93	0	0	1899	10	3817	77
94	0	0	1942	11	3816	76
95	0	0	1972	10	3816	76
96	0	0	1988	9	3813	78
97	0	0	2015	12	3816	74
98	0	0	2045	8	3817	75
99	0	0	2063	9	3817	72
100	0	0	2066	10	3818	73
101	0	0	2060	14	3817	70
102	0	0	2042	7	3816	71
103	0	0	2029	9	3818	71
104	0	0	2008	7	3813	70
105	0	0	1963	9	3817	73
106	0	0	1920	7	3818	75
107	0	0	1885	7	3816	73
108	0	0	1843	7	3817	75
109	0	0	1814	8	3816	76
110	0	0	1820	11	3816	75
111	0	0	1851	10	3816	75
112	0	0	1894	12	3815	75
113	0	0	1939	11	3817	76
114	0	0	1996	10	3818	77
115	0	0	2060	7	3815	75
116	0	0	2162	9	3816	75
117	0	0	2272	10	3816	74
118	0	0	2353	9	3818	74
119	0	0	2395	9	3817	72
120	0	0	2399	8	3817	74
121	0	0	2412	7	3817	72
122	0	0	2440	12	3815	72
123	0	0	2461	8	3817	71
124	0	0	2481	11	3816	68
125	0	0	2517	11	3816	70
126	0	0	2569	11	3815	73
127	0	0	2611	15	3815	74
0	0	0	2645	8	3817	75
1	0	0	2684	13	3817	74
2	0	0	2741	12	3816	75
3	0	0	2814	11	3817	76
4	0	0	2894	9	3818	76
5	0	0	2981	10	3816	77
6	0	0	3056	10	3818	75
7	0	0	3112	11	3817	75
8	0	0	3148	10	3817	74
9	0	0	3159	10	3817	76
10	0	0	3149	10	3818	75
11	0	0	3090	6	3815	74
12	0	0	2986	8	3816	73
13	0	0	2891	10	3815	73
14	0	0	2815	7	3815	72
15	0	0	2732	6	3816	71
16	0	0	2642	7	3815	73
17	0	0	2536	7	3817	73
18	0	0	2407	7	3818	72
19	0	0	2285	5	3817	78
20	0	0	2183	11	3817	74
21	0	0	2107	7	3818	76
22	0	0	2037	7	3817	76
23	0	0	1998	8	3817	74
24	0	0	1975	8	3817	80
25	0	0	1976	11	3817	76
26	0	0	1999	9	3816	75
27	0	0	2039	8	3816	76
28	0	0	2070	12	3815	75
29	0	0	2092	10	3815	76
30	0	0	2115	15	3816	74
31	0	0	2160	16	3814	72
32	0	0	2191	9	3816	73
33	0	0	2163	11	3815	72
34	0	0	2103	6	3817	72
35	0	0	2043	7	3818	72
36	0	0	2033	10	3816	73
37	0	0	2042	7	3817	71
38	0	0	1993	7	3816	74
39	0	0	1920	7	3816	76
40	0	0	1866	9	3818	74
41	0	0	1817	7	3817	71
42	0	0	1801	10	3817	76
43	0	0	1827	7	3817	78
44	0	0	1860	10	3818	79
45	0	0	1878	13	3817	79
46	0	0	1915	11	3816	77
47	0	0	1974	9	3816	77
48	0	0	2024	14	3815	75
49	0	0	2041	10	3816	74
50	0	0	2057	9	3817	74
51	0	0	2074	9	3816	74
52	0	0	2057	7	3818	73
53	0	0	2037	10	3817	71
54	0	0	2038	9	3819	75
55	0	0	2020	11	3817	70
56	0	0	1976	7	3817	71
57	0	0	1919	7	3817	76
58	0	0	1870	8	3816	76
59	0	0	1821	7	3817	74
60	0	0	1785	8	3817	74
61	0	0	1771	8	3817	75
62	0	0	1758	8	3816	78
63	0	0	1763	14	3815	76
64	0	0	1799	12	3816	77
65	0	0	1844	11	3817	77
66	0	0	1906	10	3816	76
67	0	0	1951	11	3816	75
68	0	0	1987	10	3816	74
69	0	0	1993	8	3818	74
70	0	0	1991	9	3821	75
71	0	0	2009	9	3816	75
72	0	0	2044	11	3815	72
73	0	0	2064	10	3817	74
74	0	0	2055	7	3818	73
75	0	0	2017	6	3817	73
76	0	0	1971	7	3816	71
77	0	0	1923	7	3816	73
78	0	0	1869	9	3815	74
79	0	0	1826	8	3817	75
80	0	0	1805	11	3816	74
81	0	0	1802	11	3817	75
82	0	0	1801	7	3816	75
83	0	0	1819	12	3816	76
84	0	0	1866	12	3816	75
85	0	0	1902	9	3816	76
86	0	0	1940	11	3816	76
87	0	0	1985	10	3816	76
88	0	0	2034	11	3816	76
89	0	0	2064	10	3817	75
90	0	0	2071	9	3817	73
91	0	0	2078	9	3815	74
92	0	0	2078	10	3817	73
93	0	0	2080	15	3815	72
94	0	0	2077	9	3817	73
95	0	0	2059	9	3816	72
96	0	0	2013	7	3815	71
97	0	0	1966	8	3816	72
98	0	0	1918	9	3815	73
99	0	0	1851	8	3816	75
100	0	0	1813	9	3816	75
101	0	0	1813	10	3815	71
102	0	0	1820	11	3817	74
103	0	0	1848	15	3815	75
104	0	0	1883	11	3816	73
105	0	0	1931	10	3816	76
106	0	0	1985	9	3817	74
107	0	0	2034	9	3817	75
108	0	0	2083	10	3817	75
109	0	0	2092	9	3820	75
110	0	0	2085	11	3817	74
111	0	0	2091	9	3818	74
112	0	0	2082	10	3815	72
113	0	0	2065	8	3816	74
114	0	0	2058	9	3818	73
115	0	0	2066	8	3816	71
116	0	0	2068	9	3817	72
117	0	0	2021	9	3816	73
118	0	0	1946	4	3817	73
119	0	0	1877	8	3817	75
120	0	0	1819	8	3817	74
121	0	0	1784	7	3817	75
122	0	0	1773	9	3817	75
123	0	0	1810	11	3817	76
124	0	0	1896	10	3819	79
125	0	0	1970	12	3817	75
126	0	0	1989	10	3817	77
127	0	0	1994	9	3816	75
0	0	0	2019	8	3816	77
1	0	0	2052	11	3816	73
2	0	0	2078	8	3816	74
3	0	0	2118	9	3815	74
4	0	0	2168	9	3818	74
5	0	0	2205	8	3816	71
6	0	0	2201	10	3816	73
7	0	0	2169	6	3817	71
8	0	0	2130	8	3816	71
9	0	0	2098	9	3815	72
10	0	0	2046	8	3816	75
11	0	0	1981	7	3817	73
12	0	0	1925	8	3817	75
13	0	0	1888	8	3819	76
14	0	0	1872	9	3817	77
15	0	0	1878	10	3817	77
16	0	0	1917	11	3816	73
17	0	0	1957	12	3817	78
18	0	0	1990	10	3817	77
19	0	0	2021	8	3815	75
20	0	0	2052	10	3816	77
21	0	0	2077	10	3818	76
22	0	0	2117	9	3816	75
23	0	0	2141	9	3816	72
24	0	0	2170	10	3817	74
25	0	0	2182	8	3816	73
26	0	0	2167	10	3816	71
27	0	0	2150	10	3816	70
28	0	0	2122	7	3816	71
29	0	0	2078	8	3816	70
30	0	0	2004	6	3816	73
31	0	0	1938	7	3816	69
32	0	0	1908	10	3817	75
33	0	0	1919	10	3816	75
34	0	0	1936	12	3816	75
35	0	0	1945	11	3816	74
36	0	0	1964	11	3817	76
37	0	0	1983	12	3816	76
38	0	0	2023	10	3817	77
39	0	0	2075	10	3816	77
40	0	0	2139	8	3815	75
41	0	0	2188	10	3819	75
42	0	0	2228	13	3816	74
43	0	0	2249	9	3818	74
44	0	0	2273	8	3817	73
45	0	0	2278	11	3818	71
46	0	0	2270	11	3816	72
47	0	0	2233	8	3816	72
48	0	0	2179	6	3816	71
49	0	0	2109	8	3816	71
50	0	0	2052	7	3817	75
51	0	0	2003	7	3815	74
52	0	0	1959	7	3816	73
53	0	0	1923	8	3816	75
54	0	0	1935	10	3818	76
55	0	0	2007	12	3817	79
56	0	0	2064	11	3819	77
57	0	0	2078	11	3816	76
58	0	0	2088	10	3816	75
59	0	0	2125	12	3817	74
60	0	0	2171	7	3816	73
61	0	0	2215	9	3816	76
62	0	0	2250	7	3817	77
63	0	0	2264	10	3818	74
64	0	0	2264	7	3817	73
65	0	0	2263	7	3817	73
66	0	0	2263	10	3819	73
67	0	0	2244	7	3816	71
68	0	0	2195	6	3815	73
69	0	0	2165	12	3815	71
70	0	0	2173	11	3817	71
71	0	0	2169	10	3818	75
72	0	0	2124	3	3816	75
73	0	0	2070	7	3816	75
74	0	0	2056	10	3817	75
75	0	0	2042	10	3818	73
76	0	0	2048	9	3819	78
77	0	0	2081	7	3816	76
78	0	0	2125	10	3816	75
79	0	0	2158	10	3818	73
80	0	0	2185	10	3819	71
81	0	0	2227	10	3819	77
82	0	0	2263	8	3818	75
83	0	0	2279	9	3816	74
84	0	0	2285	10	3817	73
85	0	0	2253	7	3815	71
86	0	0	2223	9	3815	71
87	0	0	2213	7	3816	73
88	0	0	2178	8	3816	73
89	0	0	2141	6	3817	72
90	0	0	2109	9	3817	69
91	0	0	2107	11	3819	75
92	0	0	2082	8	3817	76
93	0	0	2043	8	3818	75
94	0	0	2016	8	3816	75
95	0	0	2012	11	3817	76
96	0	0	2033	11	3818	76
97	0	0	2080	10	3819	78
98	0	0	2134	11	3816	77
99	0	0	2188	10	3816	77
100	0	0	2238	10	3817	77
101	0	0	2275	10	3817	75
102	0	0	2313	7	3818	75
103	0	0	2330	7	3815	72
104	0	0	2348	14	3815	72
105	0	0	2358	11	3817	71
106	0	0	2311	7	3815	73
107	0	0	2240	4	3816	70
108	0	0	2161	6	3816	72
109	0	0	2113	8	3816	75
110	0	0	2096	9	3817	72
111	0	0	2079	8	3817	74
112	0	0	2036	3	3817	74
113	0	0	2000	8	3817	76
114	0	0	1969	11	3816	75
115	0	0	1964	11	3816	75
116	0	0	2004	10	3815	76
117	0	0	2081	8	3816	77
118	0	0	2153	11	3815	77
119	0	0	2220	11	3817	75
120	0	0	2266	9	3817	76
121	0	0	2272	8	3815	75
122	0	0	2278	9	3818	75
123	0	0	2285	10	3817	73
124	0	0	2284	10	3816	73
125	0	0	2270	9	3817	74
126	0	0	2235	7	3818	72
127	0	0	2185	4	3817	73
0	0	0	2156	8	3816	73
1	0	0	2105	10	3816	73
2	0	0	2064	9	3817	71
3	0	0	2042	8	3815	74
4	0	0	2013	5	3816	74
5	0	0	2000	10	3816	73
6	0	0	2014	11	3816	75
7	0	0	2020	13	3815	75
8	0	0	2026	11	3815	77
9	0	0	2042	10	3817	77
10	0	0	2073	10	3816	77
11	0	0	2119	10	3816	79
12	0	0	2164	7	3816	76
13	0	0	2201	9	3817	76
14	0	0	2211	8	3817	74
15	0	0	2245	9	3816	73
16	0	0	2282	7	3817	73
17	0	0	2258	4	3817	73
18	0	0	2189	7	3817	73
19	0	0	2128	8	3818	72
20	0	0	2113	10	3816	71
21	0	0	2115	15	3815	72
22	0	0	2110	11	3815	71
23	0	0	2079	7	3815	74
24	0	0	2026	6	3817	75
25	0	0	1993	9	3816	75
26	0	0	1987	9	3818	74
27	0	0	1995	8	3816	77
28	0	0	2026	11	3817	76
29	0	0	2064	8	3817	75
30	0	0	2078	11	3816	75
31	0	0	2084	10	3816	76
32	0	0	2089	11	3815	76
33	0	0	2092	10	3817	75
34	0	0	2101	8	3818	75
35	0	0	2122	10	3819	73
36	0	0	2143	10	3815	73
37	0	0	2148	10	3817	72
38	0	0	2132	7	3817	73
39	0	0	2101	2	3816	72
40	0	0	2082	7	3815	71
41	0	0	2050	8	3816	73
42	0	0	2001	9	3815	72
43	0	0	1960	7	3816	75
44	0	0	1920	8	3818	76
45	0	0	1906	10	3816	71
46	0	0	1900	10	3816	77
47	0	0	1900	12	3815	75
48	0	0	1917	10	3817	77
49	0	0	1957	8	3817	77
50	0	0	2010	10	3817	76
51	0	0	2061	10	3817	75
52	0	0	2095	9	3817	75
53	0	0	2116	9	3818	76
54	0	0	2143	8	3816	75
55	0	0	2175	10	3818	74
56	0	0	2174	5	3814	74
57	0	0	2177	12	3817	72
58	0	0	2170	8	3817	73
59	0	0	2117	6	3818	71
60	0	0	2045	7	3817	73
61	0	0	1995	7	3817	75
62	0	0	1970	8	3816	72
63	0	0	1948	8	3817	73
64	0	0	1934	9	3817	75
65	0	0	1907	7	3816	75
66	0	0	1874	9	3815	76
67	0	0	1878	12	3817	76
68	0	0	1923	10	3816	77
69	0	0	1971	9	3818	77
70	0	0	2022	10	3816	77
71	0	0	2060	10	3816	76
72	0	0	2066	10	3817	76
73	0	0	2072	10	3816	77
74	0	0	2105	9	3816	74
75	0	0	2163	9	3815	74
76	0	0	2218	7	3818	72
77	0	0	2227	10	3816	72
78	0	0	2184	7	3819	72
79	0	0	2102	8	3816	73
80	0	0	2026	6	3816	71
81	0	0	1961	6	3816	74
82	0	0	1926	8	3817	74
83	0	0	1912	9	3816	75
84	0	0	1900	10	3817	75
85	0	0	1887	10	3817	73
86	0	0	1909	10	3817	76
87	0	0	1971	12	3817	76
88	0	0	2011	10	3816	76
89	0	0	2024	12	3816	78
90	0	0	2023	9	3816	77
91	0	0	2026	10	3816	76
92	0	0	2053	11	3816	75
93	0	0	2109	9	3816	75
94	0	0	2138	10	3817	74
95	0	0	2144	10	3816	72
96	0	0	2156	8	3819	72
97	0	0	2166	10	3816	71
98	0	0	2149	7	3818	74
99	0	0	2122	8	3817	71
100	0	0	2104	9	3817	70
101	0	0	2074	8	3816	73
102	0	0	2010	7	3817	75
103	0	0	1941	7	3816	75
104	0	0	1890	7	3817	76
105	0	0	1883	10	3818	75
106	0	0	1901	12	3817	75
107	0	0	1924	14	3815	76
108	0	0	1936	11	3815	74
109	0	0	1959	9	3817	76
110	0	0	1990	10	3815	75
111	0	0	2006	8	3819	74
112	0	0	2009	14	3815	73
113	0	0	2054	10	3816	75
114	0	0	2119	9	3818	76
115	0	0	2178	10	3812	74
116	0	0	2192	10	3816	73
117	0	0	2172	10	3816	71
118	0	0	2139	7	3819	72
119	0	0	2094	8	3816	70
120	0	0	2048	7	3816	71
121	0	0	2006	8	3816	72
122	0	0	1968	8	3816	73
123	0	0	1944	6	3817	73
124	0	0	1911	8	3816	76
125	0	0	1886	8	3817	75
126	0	0	1882	10	3816	76
127	0	0	1905	15	3815	76
0	0	0	1917	11	3817	76
1	0	0	1946	11	3817	77
2	0	0	2015	12	3816	74
3	0	0	2088	8	3816	77
4	0	0	2149	7	3816	75
5	0	0	2179	9	3819	74
6	0	0	2164	9	3816	75
7	0	0	2160	9	3817	74
8	0	0	2155	9	3816	73
9	0	0	2138	7	3816	73
10	0	0	2125	11	3818	72
11	0	0	2124	10	3816	73
12	0	0	2110	8	3816	75
13	0	0	2067	6	3816	73
14	0	0	2015	7	3816	68
15	0	0	1962	7	3818	72
16	0	0	1897	7	3816	75
17	0	0	1860	8	3816	75
18	0	0	1876	10	3816	76
19	0	0	1932	11	3816	75
20	0	0	2002	11	3818	75
21	0	0	2053	10	3817	75
22	0	0	2100	10	3817	76
23	0	0	2122	11	3816	75
24	0	0	2117	8	3818	75
25	0	0	2124	11	3816	73
26	0	0	2159	10	3818	76
27	0	0	2195	9	3816	74
28	0	0	2230	11	3818	74
29	0	0	2237	9	3818	74
30	0	0	2228	9	3815	70
31	0	0	2184	7	3817	71
32	0	0	2123	7	3815	72
33	0	0	2066	8	3813	74
34	0	0	1998	11	3815	72
35	0	0	1935	8	3817	75
36	0	0	1876	7	3817	74
37	0	0	1828	7	3816	76
38	0	0	1814	11	3817	76
39	0	0	1854	7	3818	76
40	0	0	1946	10	3819	76
41	0	0	2038	10	3817	78
42	0	0	2096	10	3818	77
43	0	0	2158	6	3819	74
44	0	0	2224	9	3817	75
45	0	0	2272	10	3816	74
46	0	0	2281	7	3813	74
47	0	0	2260	8	3816	74
48	0	0	2236	9	3815	73
49	0	0	2219	7	3818	72
50	0	0	2170	6	3816	70
51	0	0	2099	6	3817	71
52	0	0	2041	7	3816	72
53	0	0	1998	7	3816	73
54	0	0	1973	7	3818	73
55	0	0	1985	11	3815	74
56	0	0	1966	10	3817	75
57	0	0	1936	8	3815	75
58	0	0	1926	9	3819	76
59	0	0	1935	11	3819	76
60	0	0	1967	10	3816	74
61	0	0	2013	10	3817	77
62	0	0	2052	10	3816	77
63	0	0	2098	10	3813	79
64	0	0	2149	11	3815	76
65	0	0	2227	9	3817	76
66	0	0	2283	10	3817	74
67	0	0	2290	8	3816	74
68	0	0	2240	6	3816	74
69	0	0	2193	5	3819	72
70	0	0	2150	7	3817	72
71	0	0	2095	7	3817	72
72	0	0	2039	7	3816	71
73	0	0	2005	8	3816	71
74	0	0	1994	7	3818	73
75	0	0	1983	9	3814	75
76	0	0	1978	11	3819	76
77	0	0	2010	11	3818	74
78	0	0	2045	15	3816	72
79	0	0	2056	10	3816	76
80	0	0	2044	10	3816	74
81	0	0	2051	11	3817	75
82	0	0	2057	10	3816	75
83	0	0	2056	10	3816	75
84	0	0	2089	9	3816	76
85	0	0	2159	9	3814	76
86	0	0	2234	8	3819	75
87	0	0	2270	9	3819	75
88	0	0	2275	9	3817	73
89	0	0	2278	9	3817	73
90	0	0	2244	7	3818	71
91	0	0	2190	6	3819	72
92	0	0	2117	7	3817	72
93	0	0	2054	9	3815	71
94	0	0	2009	5	3819	72
95	0	0	1975	8	3815	72
96	0	0	1968	9	3817	74
97	0	0	1931	8	3816	75
98	0	0	1892	8	3816	75
99	0	0	1899	11	3816	77
100	0	0	1943	9	3816	76
101	0	0	1997	11	3818	78
102	0	0	2056	10	3816	78
103	0	0	2099	10	3816	75
104	0	0	2132	8	3819	74
105	0	0	2176	8	3815	74
106	0	0	2204	10	3817	75
107	0	0	2231	11	3816	75
108	0	0	2236	9	3817	73
109	0	0	2220	8	3815	72
110	0	0	2188	7	3816	75
111	0	0	2154	7	3820	72
112	0	0	2134	10	3815	73
113	0	0	2107	7	3816	73
114	0	0	2068	8	3815	73
115	0	0	2035	8	3815	76
116	0	0	2004	8	3816	74
117	0	0	1974	8	3815	75
118	0	0	1975	11	3816	76
119	0	0	1990	9	3819	75
120	0	0	1999	11	3816	77
121	0	0	2003	10	3819	79
122	0	0	2000	10	3817	76
123	0	0	1995	11	3817	76
124	0	0	2040	10	3817	74
125	0	0	2118	9	3818	76
126	0	0	2171	10	3818	75
127	0	0	2223	9	3818	73
0	0	0	2244	11	3815	71
1	0	0	2233	9	3817	72
2	0	0	2215	8	3817	72
3	0	0	2186	7	3816	73
4	0	0	2150	8	3817	72
5	0	0	2112	9	3816	74
6	0	0	2056	7	3816	72
7	0	0	1999	7	3818	74
8	0	0	1965	8	3817	75
9	0	0	1954	11	3817	77
10	0	0	1945	10	3817	77
11	0	0	1954	8	3815	74
12	0	0	1979	11	3817	75
13	0	0	2008	10	3816	76
14	0	0	2050	11	3816	78
15	0	0	2094	10	3817	78
16	0	0	2136	10	3815	77
17	0	0	2164	9	3816	78
18	0	0	2172	10	3817	75
19	0	0	2172	10	3816	74
20	0	0	2169	10	3816	73
21	0	0	2193	8	3814	73
22	0	0	2217	10	3817	71
23	0	0	2197	8	3817	71
24	0	0	2134	7	3816	71
25	0	0	2064	7	3817	69
26	0	0	1997	7	3816	73
27	0	0	1966	9	3816	75
28	0	0	1951	9	3818	76
29	0	0	1949	10	3817	76
30	0	0	1922	8	3817	76
31	0	0	1907	11	3817	76
32	0	0	1938	10	3817	77
33	0	0	2004	12	3816	76
34	0	0	2072	9	3816	75
35	0	0	2130	10	3815	76
36	0	0	2147	10	3817	74
37	0	0	2141	9	3817	73
38	0	0	2155	10	3816	74
39	0	0	2199	9	3815	75
40	0	0	2243	10	3816	73
41	0	0	2248	10	3815	75
42	0	0	2241	10	3818	69
43	0	0	2206	7	3818	71
44	0	0	2151	7	3816	71
45	0	0	2104	8	3817	72
46	0	0	2080	7	3819	73
47	0	0	2033	7	3817	71
48	0	0	1985	8	3816	75
49	0	0	1942	8	3816	75
50	0	0	1925	10	3816	76
51	0	0	1934	11	3816	75
52	0	0	1978	11	3816	77
53	0	0	2017	10	3815	77
54	0	0	2068	9	3815	75
55	0	0	2130	11	3816	75
56	0	0	2174	9	3816	78
57	0	0	2205	11	3815	73
58	0	0	2223	10	3814	74
59	0	0	2242	9	3818	75
60	0	0	2253	10	3815	73
61	0	0	2258	10	3817	73
62	0	0	2266	10	3820	74
63	0	0	2226	7	3815	68
64	0	0	2168	7	3816	73
65	0	0	2136	8	3817	75
66	0	0	2097	7	3817	73
67	0	0	2049	8	3817	72
68	0	0	2009	8	3815	75
69	0	0	1989	7	3816	75
70	0	0	1975	9	3816	75
71	0	0	1985	10	3816	79
72	0	0	2023	11	3817	73
73	0	0	2045	10	3817	78
74	0	0	2056	10	3816	75
75	0	0	2053	10	3816	74
76	0	0	2070	10	3816	75
77	0	0	2141	9	3815	74
78	0	0	2236	10	3817	75
79	0	0	2293	9	3816	73
80	0	0	2306	9	3816	73
81	0	0	2307	9	3815	72
82	0	0	2298	8	3817	69
83	0	0	2256	7	3815	71
84	0	0	2190	7	3816	74
85	0	0	2125	7	3816	73
86	0	0	2092	9	3813	75
87	0	0	2068	8	3819	72
88	0	0	2035	8	3817	75
89	0	0	2017	9	3816	75
90	0	0	2027	11	3816	76
91	0	0	2041	10	3815	76
92	0	0	2023	10	3817	74
93	0	0	2025	10	3816	77
94	0	0	2059	9	3816	78
95	0	0	2125	10	3816	77
96	0	0	2180	10	3817	76
97	0	0	2222	8	3818	75
98	0	0	2265	10	3817	74
99	0	0	2278	9	3816	74
100	0	0	2268	7	3818	72
101	0	0	2231	7	3816	71
102	0	0	2168	6	3816	72
103	0	0	2110	7	3817	70
104	0	0	2109	9	3815	72
105	0	0	2133	10	3815	76
106	0	0	2105	8	3815	74
107	0	0	2041	7	3816	72
108	0	0	1986	7	3815	74
109	0	0	1966	9	3816	75
110	0	0	1974	11	3817	75
111	0	0	1987	12	3817	77
112	0	0	1996	9	3817	74
113	0	0	2021	13	3817	77
114	0	0	2054	10	3817	78
115	0	0	2075	10	3816	75
116	0	0	2110	10	3817	75
117	0	0	2151	9	3819	74
118	0	0	2192	5	3815	76
119	0	0	2237	10	3817	74
120	0	0	2253	13	3815	74
121	0	0	2264	11	3817	73
122	0	0	2241	7	3816	72
123	0	0	2175	7	3815	71
124	0	0	2118	7	3816	71
125	0	0	2082	7	3818	70
126	0	0	2035	7	3817	71
127	0	0	2004	10	3817	72
0	0	0	1994	10	3818	74
1	0	0	1977	7	3817	75
2	0	0	1952	8	3816	76
3	0	0	1934	10	3817	77
4	0	0	1944	10	3817	76
5	0	0	1951	9	3815	74
6	0	0	1954	10	3816	75
7	0	0	1987	9	3815	76
8	0	0	2031	9	3817	73
9	0	0	2068	8	3816	73
10	0	0	2128	10	3815	73
11	0	0	2184	10	3817	73
12	0	0	2213	11	3817	73
13	0	0	2234	12	3816	73
14	0	0	2217	7	3819	73
15	0	0	2179	7	3815	76
16	0	0	2109	8	3816	73
17	0	0	2032	5	3819	72
18	0	0	1978	7	3818	72
19	0	0	1943	7	3818	76
20	0	0	1919	7	3816	74
21	0	0	1920	11	3816	75
22	0	0	1930	10	3815	76
23	0	0	1958	11	3816	75
24	0	0	1984	12	3816	78
25	0	0	2005	11	3815	75
26	0	0	2060	9	3816	75
27	0	0	2117	9	3817	75
28	0	0	2160	8	3818	79
29	0	0	2179	12	3817	80
30	0	0	2190	9	3818	74
31	0	0	2211	9	3816	75
32	0	0	2217	10	3815	71
33	0	0	2214	12	3817	74
34	0	0	2177	7	3818	72
35	0	0	2142	7	3816	71
36	0	0	2123	8	3816	72
37	0	0	2077	6	3816	71
38	0	0	2001	8	3817	72
39	0	0	1939	6	3816	72
40	0	0	1903	7	3816	75
41	0	0	1884	9	3817	75
42	0	0	1898	11	3817	78
43	0	0	1963	12	3817	77
44	0	0	2036	11	3817	77
45	0	0	2080	10	3816	77
46	0	0	2115	11	3816	76
47	0	0	2159	9	3812	76
48	0	0	2187	11	3817	73
49	0	0	2192	8	3816	74
50	0	0	2183	9	3816	75
51	0	0	2167	9	3817	74
52	0	0	2162	9	3817	72
53	0	0	2174	11	3818	70
54	0	0	2178	10	3817	75
55	0	0	2145	7	3816	71
56	0	0	2103	7	3816	72
57	0	0	2051	7	3816	72
58	0	0	2023	10	3816	72
59	0	0	2025	11	3816	75
60	0	0	2009	8	3815	74
61	0	0	1986	8	3816	75
62	0	0	1964	9	3817	75
63	0	0	1958	11	3817	72
64	0	0	1969	11	3817	77
65	0	0	2009	10	3816	78
66	0	0	2068	10	3817	77
67	0	0	2112	9	3818	77
68	0	0	2119	9	3819	75
69	0	0	2117	10	3818	77
70	0	0	2135	9	3819	74
71	0	0	2157	12	3817	74
72	0	0	2175	9	3817	74
73	0	0	2192	10	3817	71
74	0	0	2177	7	3817	73
75	0	0	2148	7	3817	68
76	0	0	2119	7	3816	70
77	0	0	2104	9	3817	72
78	0	0	2077	4	3816	73
79	0	0	2032	8	3817	75
80	0	0	2001	9	3816	75
81	0	0	1980	9	3816	75
82	0	0	1947	7	3817	75
83	0	0	1906	9	3817	77
84	0	0	1897	10	3817	78
85	0	0	1935	11	3820	77
86	0	0	2013	11	3817	78
87	0	0	2118	11	3816	76
88	0	0	2193	10	3816	75
89	0	0	2226	10	3817	75
90	0	0	2227	9	3816	75
91	0	0	2220	9	3817	74
92	0	0	2209	5	3814	75
93	0	0	2203	11	3816	73
94	0	0	2198	10	3816	71
95	0	0	2197	13	3816	68
96	0	0	2184	9	3815	71
97	0	0	2165	8	3815	73
98	0	0	2147	11	3816	73
99	0	0	2142	11	3817	75
100	0	0	2141	11	3816	74
101	0	0	2152	11	3817	75
102	0	0	2193	12	3817	76
103	0	0	2246	12	3816	76
104	0	0	2308	12	3817	75
105	0	0	2368	11	3818	77
106	0	0	2463	11	3816	76
107	0	0	2578	10	3816	72
108	0	0	2663	11	3816	76
109	0	0	2741	10	3816	75
110	0	0	2833	16	3816	72
111	0	0	2917	9	3816	74
112	0	0	2975	10	3814	75
113	0	0	3031	9	3816	72
114	0	0	3080	13	3817	73
115	0	0	3103	11	3819	71
116	0	0	3116	11	3815	73
117	0	0	3108	10	3815	72
118	0	0	3074	10	3816	75
119	0	0	3026	10	3817	73
120	0	0	2924	10	3818	75
121	0	0	2817	8	3818	74
122	0	0	2732	8	3816	77
123	0	0	2663	7	3817	76
124	0	0	2594	7	3817	77
125	0	0	2520	7	3817	77
126	0	0	2445	7	3815	77
127	0	0	2383	7	3816	76
0	0	0	2349	8	3816	75
1	0	0	2330	8	3817	75
2	0	0	2310	8	3819	75
3	0	0	2267	7	3816	74
4	0	0	2205	8	3817	73
5	0	0	2154	6	3816	75
6	0	0	2121	6	3818	71
7	0	0	2069	6	3820	71
8	0	0	2002	6	3816	72
9	0	0	1939	8	3816	48
10	0	0	1882	6	3815	75
11	0	0	1831	5	3816	71
12	0	0	1813	9	3818	75
13	0	0	1797	9	3817	74
14	0	0	1802	10	3820	76
15	0	0	1817	9	3816	76
16	0	0	1817	9	3817	77
17	0	0	1818	10	3817	77
18	0	0	1862	7	3816	77
19	0	0	1924	10	3813	77
20	0	0	1980	9	3815	75
21	0	0	2028	10	3817	76
22	0	0	2064	10	3819	75
23	0	0	2097	9	3821	75
24	0	0	2124	9	3817	75
25	0	0	2136	9	3817	75
26	0	0	2127	9	3817	74
27	0	0	2096	7	3817	69
28	0	0	2045	7	3815	71
29	0	0	1992	8	3816	73
30	0	0	1924	3	3816	73
31	0	0	1857	7	3817	74
32	0	0	1830	10	3819	74
33	0	0	1841	12	3816	75
34	0	0	1865	11	3816	77
35	0	0	1899	11	3816	78
36	0	0	1932	11	3817	76
37	0	0	1942	10	3816	76
38	0	0	1944	10	3816	78
39	0	0	1957	12	3816	77
40	0	0	1990	7	3817	75
41	0	0	2020	10	3818	76
42	0	0	2051	9	3818	75
43	0	0	2072	10	3816	74
44	0	0	2081	10	3818	78
45	0	0	2067	3	3817	73
46	0	0	2028	6	3817	76
47	0	0	1985	7	3816	72
48	0	0	1957	9	3816	70
49	0	0	1913	7	3816	75
50	0	0	1887	7	3815	71
51	0	0	1857	8	3817	75
52	0	0	1818	8	3815	72
53	0	0	1795	9	3816	75
54	0	0	1803	11	3817	72
55	0	0	1833	10	3815	75
56	0	0	1871	8	3817	74
57	0	0	1915	10	3817	76
58	0	0	1944	10	3817	78
59	0	0	1977	10	3817	75
60	0	0	2015	10	3817	74
61	0	0	2040	11	3819	75
62	0	0	2059	9	3817	74
63	0	0	2085	9	3816	74
64	0	0	2093	9	3818	75
65	0	0	2092	7	3815	72
66	0	0	2070	7	3817	72
67	0	0	2029	7	3816	73
68	0	0	1996	7	3816	73
69	0	0	1968	8	3816	74
70	0	0	1946	7	3815	71
71	0	0	1910	7	3817	72
72	0	0	1854	7	3817	73
73	0	0	1818	9	3818	75
74	0	0	1821	12	3815	76
75	0	0	1857	10	3815	76
76	0	0	1913	10	3817	79
77	0	0	1990	9	3819	75
78	0	0	2041	10	3816	75
79	0	0	2072	10	3817	79
80	0	0	2107	7	3815	74
81	0	0	2158	10	3816	76
82	0	0	2183	10	3816	75
83	0	0	2158	7	3816	74
84	0	0	2126	6	3816	73
85	0	0	2100	7	3815	74
86	0	0	2076	7	3817	76
87	0	0	2049	3	3819	71
88	0	0	2049	10	3816	72
89	0	0	2036	8	3816	72
90	0	0	1998	6	3817	72
91	0	0	1945	8	3818	75
92	0	0	1896	8	3816	74
93	0	0	1871	8	3818	76
94	0	0	1868	11	3815	75
95	0	0	1861	9	3814	77
96	0	0	1885	10	3816	77
97	0	0	1944	10	3815	76
98	0	0	2014	8	3815	75
99	0	0	2062	10	3817	72
100	0	0	2090	9	3815	73
101	0	0	2134	10	3817	78
102	0	0	2180	9	3816	76
103	0	0	2205	9	3816	73
104	0	0	2199	9	3818	71
105	0	0	2188	10	3819	74
106	0	0	2176	7	3817	73
107	0	0	2118	7	3817	72
108	0	0	2079	9	3817	73
109	0	0	2068	7	3816	72
110	0	0	2034	7	3816	72
111	0	0	1979	7	3817	73
112	0	0	1923	8	3816	78
113	0	0	1899	10	3816	75
114	0	0	1899	11	3817	72
115	0	0	1914	12	3816	80
116	0	0	1958	10	3818	79
117	0	0	2016	10	3816	77
118	0	0	2082	14	3815	77
119	0	0	2137	9	3815	74
120	0	0	2179	9	3816	74
121	0	0	2195	10	3816	76
122	0	0	2191	10	3817	78
123	0	0	2180	11	3817	74
124	0	0	2176	10	3815	71
125	0	0	2184	9	3817	72
126	0	0	2205	10	3817	76
127	0	0	2187	8	3816	72
0	0	0	2149	6	3816	72
1	0	0	2112	7	3815	70
2	0	0	2054	7	3816	73
3	0	0	2002	6	3816	78
4	0	0	1964	8	3816	77
5	0	0	1940	9	3815	75
6	0	0	1947	10	3815	75
7	0	0	1967	12	3817	76
8	0	0	2000	11	3817	78
9	0	0	2052	10	3817	78
10	0	0	2120	11	3817	79
11	0	0	2174	10	3816	78
12	0	0	2200	9	3818	75
13	0	0	2230	9	3816	74
14	0	0	2250	8	3817	75
15	0	0	2245	8	3816	74
16	0	0	2215	8	3816	73
17	0	0	2191	8	3818	73
18	0	0	2187	10	3816	74
19	0	0	2171	7	3817	69
20	0	0	2125	8	3816	71
21	0	0	2069	6	3815	72
22	0	0	2018	4	3816	75
23	0	0	2003	11	3818	79
24	0	0	2000	11	3816	75
25	0	0	1993	10	3816	75
26	0	0	1997	10	3815	73
27	0	0	2000	8	3817	76
28	0	0	2007	10	3819	78
29	0	0	2033	10	3817	79
30	0	0	2097	9	3816	76
31	0	0	2154	10	3816	76
32	0	0	2215	12	3817	75
33	0	0	2269	10	3817	75
34	0	0	2286	11	3817	74
35	0	0	2278	9	3815	74
36	0	0	2286	10	3815	74
37	0	0	2290	8	3816	74
38	0	0	2266	7	3817	72
39	0	0	2223	7	3819	71
40	0	0	2179	8	3817	72
41	0	0	2145	7	3815	75
42	0	0	2107	8	3818	74
43	0	0	2074	9	3816	74
44	0	0	2050	9	3817	77
45	0	0	2028	7	3817	76
46	0	0	2003	8	3816	77
47	0	0	1988	10	3817	76
48	0	0	1997	10	3817	76
49	0	0	2034	11	3816	75
50	0	0	2077	10	3816	77
51	0	0	2096	10	3816	74
52	0	0	2113	12	3817	75
53	0	0	2150	10	3817	75
54	0	0	2198	9	3817	77
55	0	0	2231	10	3816	74
56	0	0	2242	9	3816	71
57	0	0	2252	10	3818	72
58	0	0	2269	9	3818	73
59	0	0	2272	10	3818	73
60	0	0	2243	8	3816	73
61	0	0	2188	7	3816	71
62	0	0	2114	10	3817	73
63	0	0	2064	8	3818	73
64	0	0	2050	11	3816	75
65	0	0	2069	11	3817	75
66	0	0	2096	10	3816	79
67	0	0	2110	10	3817	75
68	0	0	2121	11	3817	76
69	0	0	2143	11	3817	75
70	0	0	2172	10	3816	76
71	0	0	2193	11	3816	75
72	0	0	2222	9	3817	79
73	0	0	2257	11	3817	73
74	0	0	2254	9	3817	75
75	0	0	2220	7	3816	73
76	0	0	2218	9	3816	75
77	0	0	2255	12	3817	73
78	0	0	2285	10	3821	74
79	0	0	2260	7	3815	70
80	0	0	2215	7	3816	72
81	0	0	2161	6	3816	76
82	0	0	2100	6	3815	73
83	0	0	2050	7	3817	73
84	0	0	2013	8	3817	73
85	0	0	1984	8	3816	75
86	0	0	1963	10	3815	75
87	0	0	1981	10	3817	79
88	0	0	2012	8	3817	76
89	0	0	2059	10	3817	76
90	0	0	2123	10	3816	78
91	0	0	2174	10	3817	75
92	0	0	2193	10	3818	73
93	0	0	2205	9	3816	75
94	0	0	2216	10	3818	75
95	0	0	2216	10	3817	74
96	0	0	2216	12	3816	73
97	0	0	2201	11	3817	73
98	0	0	2175	8	3817	73
99	0	0	2146	9	3816	72
100	0	0	2118	7	3816	73
101	0	0	2090	7	3817	69
102	0	0	2031	7	3817	74
103	0	0	1977	7	3816	74
104	0	0	1945	12	3815	73
105	0	0	1928	10	3816	75
106	0	0	1914	10	3816	75
107	0	0	1929	15	3817	73
108	0	0	1987	10	3817	76
109	0	0	2036	10	3816	76
110	0	0	2066	10	3816	78
111	0	0	2097	14	3815	75
112	0	0	2139	10	3818	79
113	0	0	2171	9	3818	75
114	0	0	2192	9	3816	72
115	0	0	2198	11	3818	73
116	0	0	2190	11	3818	75
117	0	0	2188	13	3816	73
118	0	0	2162	7	3817	71
119	0	0	2131	7	3814	72
120	0	0	2098	5	3816	71
121	0	0	2054	7	3815	71
122	0	0	1997	6	3817	75
123	0	0	1932	7	3816	73
124	0	0	1877	7	3816	74
125	0	0	1838	7	3816	74
126	0	0	1819	12	3818	78
127	0	0	1850	7	3817	75
0	0	0	1886	11	3818	76
1	0	0	1923	10	3815	73
2	0	0	1973	10	3817	75
3	0	0	2015	9	3817	74
4	0	0	2072	10	3817	74
5	0	0	2109	8	3814	76
6	0	0	2133	10	3818	75
7	0	0	2162	9	3816	74
8	0	0	2179	10	3816	72
9	0	0	2186	10	3817	69
10	0	0	2163	5	3817	73
11	0	0	2097	7	3816	69
12	0	0	2033	7	3816	72
13	0	0	1986	7	3815	71
14	0	0	1936	6	3815	73
15	0	0	1873	6	3817	75
16	0	0	1831	8	3817	73
17	0	0	1821	10	3819	74
18	0	0	1828	10	3818	72
19	0	0	1856	12	3818	76
20	0	0	1893	8	3817	77
21	0	0	1925	10	3817	78
22	0	0	1946	10	3816	75
23	0	0	1979	10	3816	74
24	0	0	2031	8	3817	75
25	0	0	2089	7	3816	75
26	0	0	2137	10	3816	76
27	0	0	2163	9	3816	74
28	0	0	2170	10	3816	73
29	0	0	2147	8	3816	74
30	0	0	2093	6	3817	75
31	0	0	2041	10	3817	72
32	0	0	2022	10	3818	73
33	0	0	1996	7	3816	72
34	0	0	1961	9	3817	74
35	0	0	1922	6	3819	75
36	0	0	1869	7	3816	77
37	0	0	1812	6	3816	73
38	0	0	1805	11	3817	74
39	0	0	1828	10	3818	76
40	0	0	1884	11	3816	75
41	0	0	1944	10	3816	76
42	0	0	1982	10	3815	77
43	0	0	2023	7	3815	74
44	0	0	2073	9	3816	76
45	0	0	2116	9	3816	75
46	0	0	2146	9	3816	71
47	0	0	2170	10	3818	74
48	0	0	2171	11	3817	72
49	0	0	2165	12	3817	75
50	0	0	2133	7	3818	73
51	0	0	2071	6	3817	73
52	0	0	1997	7	3817	70
53	0	0	1939	8	3817	76
54	0	0	1909	7	3816	74
55	0	0	1872	9	3816	74
56	0	0	1857	9	3817	75
57	0	0	1858	10	3816	76
58	0	0	1890	10	3816	78
59	0	0	1941	10	3816	75
60	0	0	1960	11	3816	72
61	0	0	1981	12	3815	78
62	0	0	2022	10	3816	76
63	0	0	2068	7	3815	75
64	0	0	2093	7	3816	76
65	0	0	2115	10	3817	75
66	0	0	2151	9	3816	71
67	0	0	2170	10	3817	74
68	0	0	2142	6	3817	73
69	0	0	2094	7	3817	74
70	0	0	2059	8	3817	73
71	0	0	2023	9	3816	74
72	0	0	2005	10	3816	73
73	0	0	2007	11	3815	72
74	0	0	1977	5	3816	76
75	0	0	1935	8	3816	74
76	0	0	1904	8	3816	76
77	0	0	1869	7	3819	75
78	0	0	1862	7	3815	76
79	0	0	1881	9	3816	76
80	0	0	1908	11	3817	76
81	0	0	1936	12	3815	71
82	0	0	1961	10	3817	76
83	0	0	1986	10	3816	75
84	0	0	2023	9	3818	77
85	0	0	2049	12	3818	77
86	0	0	2085	9	3818	75
87	0	0	2136	11	3816	73
88	0	0	2181	9	3818	74
89	0	0	2182	9	3817	73
90	0	0	2152	8	3817	73
91	0	0	2105	7	3817	72
92	0	0	2060	8	3816	71
93	0	0	2013	7	3816	72
94	0	0	1966	7	3817	71
95	0	0	1917	9	3817	75
96	0	0	1877	12	3816	75
97	0	0	1844	10	3818	75
98	0	0	1827	8	3816	76
99	0	0	1835	12	3817	76
100	0	0	1884	11	3819	76
101	0	0	1959	10	3817	73
102	0	0	2035	10	3818	75
103	0	0	2099	7	3816	77
104	0	0	2156	9	3817	76
105	0	0	2180	10	3817	75
106	0	0	2177	9	3816	71
107	0	0	2157	7	3816	73
108	0	0	2147	10	3818	78
109	0	0	2159	8	3816	75
110	0	0	2166	11	3816	73
111	0	0	2135	7	3818	68
112	0	0	2057	6	3816	72
113	0	0	1975	7	3816	71
114	0	0	1911	4	3817	74
115	0	0	1889	9	3818	74
116	0	0	1907	10	3818	74
117	0	0	1927	12	3817	76
118	0	0	1941	10	3819	77
119	0	0	1946	13	3818	76
120	0	0	1964	13	3817	75
121	0	0	1997	10	3816	75
122	0	0	2023	11	3816	76
123	0	0	2032	9	3816	75
124	0	0	2050	11	3816	77
125	0	0	2070	8	3817	73
126	0	0	2098	10	3816	72
127	0	0	2115	11	3818	73
0	0	0	2113	9	3817	76
1	0	0	2115	11	3816	71
2	0	0	2106	8	3817	73
3	0	0	2073	7	3816	71
4	0	0	2057	8	3818	71
5	0	0	2035	7	3818	75
6	0	0	1977	4	3817	72
7	0	0	1926	6	3818	75
8	0	0	1897	7	3816	72
9	0	0	1878	9	3817	75
10	0	0	1879	11	3818	76
11	0	0	1902	11	3818	75
12	0	0	1931	9	3816	75
13	0	0	1953	11	3816	73
14	0	0	1975	8	3817	77
15	0	0	2033	10	3818	79
16	0	0	2088	10	3815	75
17	0	0	2105	8	3817	75
18	0	0	2099	10	3816	72
19	0	0	2097	11	3817	75
20	0	0	2103	10	3820	76
21	0	0	2090	12	3817	72
22	0	0	2068	6	3818	73
23	0	0	2040	7	3817	68
24	0	0	2001	7	3816	71
25	0	0	1938	7	3813	75
26	0	0	1894	8	3817	71
27	0	0	1875	8	3817	74
28	0	0	1874	11	3817	74
29	0	0	1878	11	3816	75
30	0	0	1888	10	3817	75
31	0	0	1925	11	3820	77
32	0	0	1971	9	3817	76
33	0	0	2007	10	3816	73
34	0	0	2014	11	3816	76
35	0	0	2019	9	3813	78
36	0	0	2050	10	3816	75
37	0	0	2090	8	3817	74
38	0	0	2118	10	3817	72
39	0	0	2118	9	3816	74
40	0	0	2093	8	3815	75
41	0	0	2077	12	3816	73
42	0	0	2058	6	3818	73
43	0	0	2033	7	3817	72
44	0	0	2002	8	3816	71
45	0	0	1966	8	3816	72
46	0	0	1929	8	3817	75
47	0	0	1910	8	3818	75
48	0	0	1906	11	3818	75
49	0	0	1900	10	3820	74
50	0	0	1893	10	3816	75
51	0	0	1901	11	3815	75
52	0	0	1920	10	3818	76
53	0	0	1950	11	3817	76
54	0	0	2003	11	3816	76
55	0	0	2056	9	3816	77
56	0	0	2078	10	3816	76
57	0	0	2083	9	3819	75
58	0	0	2086	10	3817	75
59	0	0	2069	8	3817	74
60	0	0	2062	9	3818	75
61	0	0	2070	12	3816	72
62	0	0	2081	10	3816	73
63	0	0	2059	8	3816	72
64	0	0	2029	7	3816	71
65	0	0	1975	7	3815	73
66	0	0	1934	11	3816	73
67	0	0	1909	7	3816	75
68	0	0	1893	10	3816	72
69	0	0	1896	9	3818	74
70	0	0	1911	11	3817	74
71	0	0	1934	10	3818	76
72	0	0	1949	11	3818	76
73	0	0	1971	11	3817	75
74	0	0	1992	10	3816	75
75	0	0	2031	9	3814	77
76	0	0	2089	10	3817	74
77	0	0	2118	9	3817	75
78	0	0	2117	10	3816	74
79	0	0	2100	5	3819	72
80	0	0	2083	8	3816	75
81	0	0	2052	10	3816	73
82	0	0	2011	10	3816	73
83	0	0	1985	8	3817	72
84	0	0	1964	6	3817	72
85	0	0	1938	6	3816	75
86	0	0	1904	7	3818	74
87	0	0	1877	11	3816	74
88	0	0	1891	11	3816	72
89	0	0	1941	8	3819	74
90	0	0	1981	11	3818	75
91	0	0	1984	11	3817	76
92	0	0	1946	7	3817	76
93	0	0	1908	8	3816	76
94	0	0	1926	10	3816	75
95	0	0	1971	8	3816	75
96	0	0	2028	9	3815	76
97	0	0	2078	11	3816	75
98	0	0	2103	9	3817	75
99	0	0	2110	10	3818	73
100	0	0	2111	10	3815	73
101	0	0	2104	9	3818	73
102	0	0	2062	7	3818	72
103	0	0	2004	7	3817	71
104	0	0	1972	10	3815	72
105	0	0	1954	9	3817	73
106	0	0	1938	8	3818	74
107	0	0	1902	8	3816	74
108	0	0	1858	8	3816	72
109	0	0	1839	7	3818	75
110	0	0	1835	11	3817	76
111	0	0	1860	12	3815	75
112	0	0	1889	10	3817	75
113	0	0	1904	10	3817	76
114	0	0	1918	10	3815	76
115	0	0	1940	10	3816	76
116	0	0	1987	9	3818	76
117	0	0	2051	13	3817	75
118	0	0	2096	10	3818	74
119	0	0	2112	9	3816	73
120	0	0	2108	15	3815	72
121	0	0	2099	10	3817	74
122	0	0	2088	10	3819	73
123	0	0	2078	10	3817	71
124	0	0	2059	8	3817	71
125	0	0	2042	9	3816	73
126	0	0	2027	9	3817	74
127	0	0	2005	9	3817	75
0	0	0	1966	8	3816	74
1	0	0	1933	7	3815	75
2	0	0	1913	11	3815	75
3	0	0	1886	8	3818	78
4	0	0	1899	14	3818	76
5	0	0	1952	11	3816	78
6	0	0	2013	10	3816	78
7	0	0	2044	14	3815	75
8	0	0	2060	9	3817	76
9	0	0	2069	9	3818	75
10	0	0	2061	10	3817	73
11	0	0	2065	9	3817	74
12	0	0	2073	11	3817	73
13	0	0	2071	10	3817	75
14	0	0	2077	15	3816	72
15	0	0	2085	3	3816	70
16	0	0	2053	7	3816	72
17	0	0	2003	11	3815	73
18	0	0	1948	8	3816	75
19	0	0	1914	8	3817	75
20	0	0	1886	8	3817	76
21	0	0	1879	11	3816	75
22	0	0	1910	14	3815	74
23	0	0	1942	10	3817	77
24	0	0	1977	15	3817	76
25	0	0	2018	10	3817	76
26	0	0	2048	11	3816	75
27	0	0	2088	11	3815	75
28	0	0	2127	10	3819	76
29	0	0	2140	9	3819	76
30	0	0	2134	10	3816	74
31	0	0	2141	8	3817	74
32	0	0	2144	9	3817	71
33	0	0	2135	8	3818	73
34	0	0	2133	10	3817	73
35	0	0	2120	7	3816	73
36	0	0	2058	6	3817	73
37	0	0	1973	7	3819	74
38	0	0	1902	8	3816	73
39	0	0	1889	11	3817	74
40	0	0	1879	8	3816	75
41	0	0	1844	9	3815	74
42	0	0	1828	12	3816	77
43	0	0	1838	13	3817	75
44	0	0	1874	9	3818	76
45	0	0	1924	11	3816	75
46	0	0	1965	10	3816	75
47	0	0	2011	10	3816	73
48	0	0	2087	12	3816	75
49	0	0	2149	9	3816	76
50	0	0	2170	10	3817	74
51	0	0	2161	9	3816	73
52	0	0	2142	9	3816	74
53	0	0	2135	10	3815	71
54	0	0	2112	8	3816	72
55	0	0	2088	12	3818	72
56	0	0	2081	14	3815	73
57	0	0	2057	7	3816	71
58	0	0	1980	7	3817	74
59	0	0	1887	9	3817	75
60	0	0	1860	9	3818	74
61	0	0	1870	10	3815	75
62	0	0	1890	11	3817	75
63	0	0	1935	12	3818	76
64	0	0	1975	16	3817	76
65	0	0	1989	13	3817	78
66	0	0	1973	7	3815	77
67	0	0	1989	9	3817	76
68	0	0	2059	10	3817	75
69	0	0	2128	9	3815	73
70	0	0	2166	11	3816	74
71	0	0	2182	9	3817	74
72	0	0	2193	11	3815	73
73	0	0	2180	9	3816	71
74	0	0	2153	8	3817	73
75	0	0	2116	8	3816	70
76	0	0	2071	4	3817	73
77	0	0	2020	6	3816	71
78	0	0	1963	7	3818	74
79	0	0	1907	7	3818	76
80	0	0	1883	9	3817	74
81	0	0	1876	11	3815	73
82	0	0	1875	10	3816	77
83	0	0	1893	11	3817	75
84	0	0	1916	12	3817	76
85	0	0	1938	10	3816	75
86	0	0	1994	11	3816	76
87	0	0	2041	8	3817	77
88	0	0	2093	11	3816	73
89	0	0	2149	8	3817	75
90	0	0	2186	9	3818	74
91	0	0	2191	8	3816	74
92	0	0	2182	8	3817	74
93	0	0	2166	10	3818	71
94	0	0	2152	12	3819	73
95	0	0	2141	14	3819	72
96	0	0	2122	8	3817	72
97	0	0	2080	7	3817	72
98	0	0	2026	6	3818	74
99	0	0	1973	8	3816	74
100	0	0	1940	8	3816	75
101	0	0	1927	9	3818	75
102	0	0	1931	11	3815	75
103	0	0	1950	11	3817	76
104	0	0	1983	9	3817	76
105	0	0	2004	10	3816	75
106	0	0	2032	11	3815	76
107	0	0	2075	10	3816	77
108	0	0	2128	10	3816	72
109	0	0	2176	10	3816	76
110	0	0	2201	10	3817	75
111	0	0	2210	10	3817	74
112	0	0	2190	8	3817	72
113	0	0	2173	9	3819	72
114	0	0	2154	7	3817	73
115	0	0	2120	7	3816	71
116	0	0	2093	8	3816	72
117	0	0	2067	8	3816	73
118	0	0	2039	5	3816	74
119	0	0	1993	8	3817	75
120	0	0	1964	10	3816	74
121	0	0	1969	12	3815	76
122	0	0	1990	10	3816	75
123	0	0	2009	11	3816	73
124	0	0	2023	12	3817	76
125	0	0	2038	11	3817	76
126	0	0	2049	10	3817	76
127	0	0	2067	10	3817	73
0	0	0	2112	9	3818	75
1	0	0	2142	7	3817	75
2	0	0	2164	9	3817	75
3	0	0	2177	10	3817	75
4	0	0	2182	10	3816	74
5	0	0	2183	9	3818	74
6	0	0	2159	8	3817	73
7	0	0	2116	9	3815	71
8	0	0	2078	7	3818	73
9	0	0	2058	8	3818	73
10	0	0	2028	8	3819	74
11	0	0	1997	7	3817	75
12	0	0	1971	8	3816	75
13	0	0	1959	11	3817	75
14	0	0	1956	11	3817	76
15	0	0	1951	10	3818	75
16	0	0	1955	15	3817	75
17	0	0	1981	11	3817	75
18	0	0	2002	12	3817	75
19	0	0	2027	10	3816	75
20	0	0	2042	9	3818	76
21	0	0	2070	7	3816	75
22	0	0	2090	10	3816	75
23	0	0	2088	10	3816	73
24	0	0	2096	11	3816	73
25	0	0	2135	10	3815	72
26	0	0	2167	7	3817	74
27	0	0	2159	8	3817	72
28	0	0	2125	7	3815	71
29	0	0	2073	7	3817	72
30	0	0	2033	8	3817	72
31	0	0	2002	3	3819	73
32	0	0	1966	8	3817	75
33	0	0	1930	8	3818	75
34	0	0	1926	11	3816	75
35	0	0	1945	11	3819	77
36	0	0	1987	7	3816	77
37	0	0	2048	10	3816	78
38	0	0	2099	14	3815	76
39	0	0	2125	11	3816	77
40	0	0	2124	8	3815	74
41	0	0	2110	7	3816	74
42	0	0	2122	10	3816	74
43	0	0	2144	9	3818	73
44	0	0	2139	9	3819	75
45	0	0	2103	8	3819	73
46	0	0	2079	7	3818	72
47	0	0	2048	7	3816	71
48	0	0	2001	7	3816	71
49	0	0	1956	8	3817	75
50	0	0	1917	6	3818	75
51	0	0	1865	4	3817	74
52	0	0	1856	11	3818	74
53	0	0	1880	10	3816	74
54	0	0	1910	9	3816	75
55	0	0	1932	11	3818	77
56	0	0	1954	7	3816	76
57	0	0	1994	10	3816	75
58	0	0	2026	10	3816	77
59	0	0	2040	7	3816	76
60	0	0	2058	10	3815	74
61	0	0	2085	8	3817	73
62	0	0	2127	10	3815	72
63	0	0	2155	9	3817	74
64	0	0	2130	4	3817	74
65	0	0	2097	7	3817	72
66	0	0	2073	5	3818	73
67	0	0	2043	7	3817	71
68	0	0	2013	7	3817	71
69	0	0	1961	7	3817	71
70	0	0	1906	7	3817	72
71	0	0	1854	0	3816	74
72	0	0	1811	8	3817	75
73	0	0	1818	11	3815	75
74	0	0	1846	9	3816	75
75	0	0	1883	10	3815	76
76	0	0	1918	8	3817	75
77	0	0	1956	10	3816	73
78	0	0	1980	10	3816	76
79	0	0	2007	11	3815	76
80	0	0	2039	9	3817	76
81	0	0	2069	8	3817	76
82	0	0	2086	9	3817	73
83	0	0	2086	10	3817	74
84	0	0	2072	11	3816	72
85	0	0	2075	10	3818	75
86	0	0	2081	5	3817	73
87	0	0	2075	3	3816	73
88	0	0	2063	9	3816	71
89	0	0	2032	9	3815	72
90	0	0	1980	7	3815	73
91	0	0	1910	3	3817	74
92	0	0	1849	7	3816	74
93	0	0	1810	7	3816	75
94	0	0	1794	11	3815	74
95	0	0	1809	11	3817	77
96	0	0	1871	12	3818	75
97	0	0	1957	10	3815	75
98	0	0	2031	10	3816	75
99	0	0	2082	11	3815	74
100	0	0	2105	9	3816	77
101	0	0	2113	10	3818	74
102	0	0	2079	7	3815	71
103	0	0	2057	9	3819	73
104	0	0	2049	8	3816	73
105	0	0	2053	10	3817	74
106	0	0	2030	7	3817	73
107	0	0	1977	7	3816	72
108	0	0	1950	11	3817	73
109	0	0	1942	9	3814	74
110	0	0	1915	8	3816	73
111	0	0	1902	10	3818	74
112	0	0	1907	11	3816	74
113	0	0	1921	9	3818	74
114	0	0	1934	9	3817	75
115	0	0	1954	11	3818	76
116	0	0	1979	10	3818	76
117	0	0	2008	11	3817	76
118	0	0	2035	10	3817	76
119	0	0	2075	10	3817	76
120	0	0	2108	9	3817	77
121	0	0	2137	8	3817	73
122	0	0	2135	9	3817	74
123	0	0	2120	13	3817	75
124	0	0	2138	10	3817	71
125	0	0	2145	10	3818	73
126	0	0	2111	8	3816	74
127	0	0	2035	6	3816	74
0	0	0	1979	11	3815	72
1	0	0	1933	8	3817	74
2	0	0	1877	6	3816	74
3	0	0	1819	8	3818	74
4	0	0	1805	11	3817	74
5	0	0	1859	11	3817	75
6	0	0	1938	12	3817	77
7	0	0	1973	11	3817	77
8	0	0	1976	14	3816	75
9	0	0	1987	10	3815	77
10	0	0	2028	10	3819	78
11	0	0	2090	9	3817	76
12	0	0	2166	9	3816	76
13	0	0	2238	9	3817	74
14	0	0	2297	10	3815	73
15	0	0	2352	8	3819	72
16	0	0	2414	10	3816	71
17	0	0	2447	10	3817	73
18	0	0	2474	10	3817	73
19	0	0	2511	11	3817	70
20	0	0	2557	11	3816	70
21	0	0	2591	12	3815	72
22	0	0	2605	11	3816	75
23	0	0	2600	12	3816	76
24	0	0	2613	12	3817	75
25	0	0	2639	11	3816	75
26	0	0	2691	12	3817	77
27	0	0	2762	10	3816	75
28	0	0	2835	10	3818	75
29	0	0	2913	11	3817	76
30	0	0	2990	7	3815	77
31	0	0	3069	10	3816	73
32	0	0	3137	10	3817	74
33	0	0	3151	12	3817	75
34	0	0	3112	10	3816	74
35	0	0	3080	7	3817	75
36	0	0	3017	7	3817	75
37	0	0	2928	6	3818	74
38	0	0	2829	6	3817	73
39	0	0	2726	8	3815	73
40	0	0	2613	5	3819	72
41	0	0	2483	5	3816	71
42	0	0	2349	7	3817	72
43	0	0	2244	7	3817	73
44	0	0	2167	8	3816	75
45	0	0	2101	7	3816	75
46	0	0	2042	8	3816	76
47	0	0	2031	10	3817	75
48	0	0	2023	7	3817	76
49	0	0	2023	11	3816	75
50	0	0	2044	8	3816	76
51	0	0	2078	10	3817	77
52	0	0	2106	9	3818	74
53	0	0	2150	10	3816	74
54	0	0	2189	10	3817	75
55	0	0	2205	12	3817	71
56	0	0	2200	11	3818	79
57	0	0	2166	7	3819	74
58	0	0	2095	6	3816	72
59	0	0	2026	7	3817	73
60	0	0	1992	8	3816	73
61	0	0	1980	9	3816	72
62	0	0	1963	8	3817	73
63	0	0	1925	8	3816	75
64	0	0	1890	8	3817	74
65	0	0	1857	3	3815	75
66	0	0	1839	11	3815	76
67	0	0	1849	10	3818	75
68	0	0	1848	11	3816	75
69	0	0	1868	10	3816	78
70	0	0	1932	10	3817	77
71	0	0	1973	11	3817	79
72	0	0	1993	8	3818	76
73	0	0	2026	10	3818	75
74	0	0	2044	10	3817	75
75	0	0	2034	8	3815	74
76	0	0	2006	11	3815	72
77	0	0	1970	7	3819	73
78	0	0	1919	7	3816	73
79	0	0	1902	9	3816	69
80	0	0	1893	12	3815	71
81	0	0	1868	8	3816	73
82	0	0	1831	7	3816	73
83	0	0	1793	9	3816	74
84	0	0	1767	9	3816	75
85	0	0	1751	7	3817	75
86	0	0	1750	11	3817	75
87	0	0	1762	11	3818	75
88	0	0	1790	11	3818	76
89	0	0	1820	10	3817	77
90	0	0	1850	10	3815	77
91	0	0	1879	11	3816	76
92	0	0	1916	11	3819	77
93	0	0	1964	9	3817	75
94	0	0	2016	10	3816	73
95	0	0	2048	12	3815	71
96	0	0	2051	9	3816	73
97	0	0	2030	7	3819	71
98	0	0	1984	7	3816	74
99	0	0	1924	8	3816	70
100	0	0	1883	8	3816	69
101	0	0	1863	9	3817	72
102	0	0	1852	6	3818	71
103	0	0	1818	8	3817	75
104	0	0	1780	7	3818	75
105	0	0	1757	8	3816	75
106	0	0	1766	14	3817	76
107	0	0	1799	10	3816	73
108	0	0	1825	12	3817	75
109	0	0	1856	10	3816	77
110	0	0	1883	11	3815	76
111	0	0	1917	9	3816	77
112	0	0	1962	8	3816	73
113	0	0	2014	8	3817	76
114	0	0	2051	10	3816	74
115	0	0	2067	13	3818	74
116	0	0	2069	10	3815	74
117	0	0	2051	4	3817	71
118	0	0	2026	8	3817	72
119	0	0	2012	9	3816	72
120	0	0	1996	8	3819	72
121	0	0	1956	7	3817	72
122	0	0	1904	7	3819	72
123	0	0	1842	7	3817	75
124	0	0	1781	7	3816	75
125	0	0	1740	6	3815	77
126	0	0	1746	13	3815	74
127	0	0	1791	11	3815	76
0	0	0	1834	10	3817	75
1	0	0	1870	9	3815	75
2	0	0	1888	12	3815	74
3	0	0	1910	10	3816	76
4	0	0	1965	9	3819	75
5	0	0	2023	10	3817	75
6	0	0	2053	7	3816	74
7	0	0	2063	8	3816	72
8	0	0	2076	10	3817	74
9	0	0	2081	9	3818	73
10	0	0	2055	7	3818	73
11	0	0	2008	6	3817	73
12	0	0	1966	8	3816	69
13	0	0	1929	6	3818	72
14	0	0	1878	7	3815	72
15	0	0	1832	8	3817	73
16	0	0	1795	8	3816	75
17	0	0	1795	10	3816	75
18	0	0	1806	11	3816	75
19	0	0	1837	10	3817	75
20	0	0	1891	11	3817	76
21	0	0	1955	10	3815	77
22	0	0	2017	10	3816	75
23	0	0	2063	8	3819	76
24	0	0	2088	9	3815	78
25	0	0	2103	12	3816	76
26	0	0	2104	9	3817	75
27	0	0	2095	9	3817	74
28	0	0	2097	7	3819	72
29	0	0	2084	8	3817	75
30	0	0	2048	7	3816	74
31	0	0	1986	8	3816	72
32	0	0	1924	6	3816	72
33	0	0	1899	8	3818	72
34	0	0	1895	11	3815	74
35	0	0	1895	11	3818	76
36	0	0	1900	11	3817	74
37	0	0	1890	9	3816	75
38	0	0	1889	9	3819	74
39	0	0	1914	11	3815	76
40	0	0	1936	14	3817	77
41	0	0	1992	11	3816	76
42	0	0	2068	10	3816	75
43	0	0	2139	10	3817	75
44	0	0	2203	9	3818	76
45	0	0	2230	10	3816	74
46	0	0	2228	10	3818	75
47	0	0	2187	4	3817	74
48	0	0	2121	6	3817	74
49	0	0	2092	8	3818	75
50	0	0	2091	10	3817	73
51	0	0	2079	8	3817	73
52	0	0	2046	5	3816	74
53	0	0	2016	8	3816	75
54	0	0	1987	8	3816	74
55	0	0	1952	12	3816	77
56	0	0	1937	10	3818	75
57	0	0	1943	7	3814	77
58	0	0	1954	11	3817	75
59	0	0	1981	11	3818	76
60	0	0	2021	11	3816	77
61	0	0	2070	11	3818	77
62	0	0	2101	13	3817	79
63	0	0	2115	10	3817	77
64	0	0	2137	9	3817	75
65	0	0	2160	11	3817	74
66	0	0	2174	10	3816	74
67	0	0	2187	10	3816	74
68	0	0	2198	10	3816	74
69	0	0	2202	9	3815	73
70	0	0	2180	8	3816	73
71	0	0	2145	8	3817	71
72	0	0	2117	9	3816	73
73	0	0	2087	7	3817	74
74	0	0	2039	7	3818	74
75	0	0	1983	7	3817	75
76	0	0	1931	8	3817	74
77	0	0	1916	10	3817	76
78	0	0	1945	12	3815	76
79	0	0	1991	8	3817	75
80	0	0	2055	11	3818	76
81	0	0	2121	10	3816	77
82	0	0	2169	10	3816	77
83	0	0	2199	9	3814	74
84	0	0	2203	11	3816	73
85	0	0	2217	10	3816	75
86	0	0	2253	10	3816	74
87	0	0	2281	10	3816	74
88	0	0	2256	7	3816	73
89	0	0	2226	8	3818	73
90	0	0	2212	9	3817	72
91	0	0	2170	7	3818	73
92	0	0	2100	7	3817	73
93	0	0	2063	9	3817	73
94	0	0	2062	11	3818	73
95	0	0	2038	8	3818	75
96	0	0	2008	9	3817	75
97	0	0	1983	9	3818	73
98	0	0	1978	10	3815	75
99	0	0	2006	9	3816	77
100	0	0	2029	10	3816	76
101	0	0	2071	11	3816	76
102	0	0	2140	10	3816	76
103	0	0	2197	10	3816	76
104	0	0	2244	13	3815	75
105	0	0	2255	11	3814	75
106	0	0	2278	9	3817	73
107	0	0	2306	11	3817	73
108	0	0	2303	8	3817	73
109	0	0	2264	8	3817	73
110	0	0	2237	16	3818	71
111	0	0	2224	8	3818	71
112	0	0	2198	12	3816	73
113	0	0	2165	7	3816	73
114	0	0	2128	8	3817	71
115	0	0	2087	7	3815	75
116	0	0	2060	11	3816	75
117	0	0	2021	8	3817	77
118	0	0	1990	8	3816	79
119	0	0	2011	12	3816	75
120	0	0	2056	10	3814	76
121	0	0	2092	10	3816	78
122	0	0	2119	11	3818	77
123	0	0	2144	9	3816	76
124	0	0	2167	9	3817	71
125	0	0	2192	10	3818	75
126	0	0	2213	9	3817	76
127	0	0	2236	10	3818	72
0	0	0	2251	9	3815	72
1	0	0	2258	9	3818	72
2	0	0	2239	8	3816	71
3	0	0	2206	8	3816	71
4	0	0	2197	11	3816	73
5	0	0	2168	8	3815	71
6	0	0	2122	8	3816	72
7	0	0	2078	7	3814	72
8	0	0	2043	5	3816	75
9	0	0	2003	9	3816	50
10	0	0	1980	9	3817	76
11	0	0	1989	10	3818	76
12	0	0	2008	11	3817	75
13	0	0	2041	10	3817	76
14	0	0	2064	14	3816	76
15	0	0	2071	10	3816	75
16	0	0	2105	9	3817	72
17	0	0	2164	9	3817	75
18	0	0	2208	11	3817	75
19	0	0	2235	11	3816	73
20	0	0	2245	10	3816	75
21	0	0	2240	9	3815	70
22	0	0	2217	10	3817	74
23	0	0	2193	8	3816	68
24	0	0	2151	7	3816	71
25	0	0	2087	7	3813	75
26	0	0	2024	8	3817	70
27	0	0	1973	8	3816	73
28	0	0	1935	9	3816	75
29	0	0	1918	7	3819	76
30	0	0	1910	10	3818	79
31	0	0	1911	9	3818	73
32	0	0	1926	11	3818	76
33	0	0	1945	7	3817	77
34	0	0	1967	9	3816	76
35	0	0	2021	10	3815	75
36	0	0	2083	10	3816	72
37	0	0	2131	9	3819	75
38	0	0	2139	9	3816	75
39	0	0	2131	10	3816	74
40	0	0	2139	10	3816	73
41	0	0	2162	9	3817	72
42	0	0	2148	8	3817	72
43	0	0	2105	8	3816	72
44	0	0	2053	7	3816	71
45	0	0	1996	7	3816	71
46	0	0	1936	8	3816	72
47	0	0	1904	8	3818	74
48	0	0	1884	7	3816	75
49	0	0	1855	7	3818	72
50	0	0	1849	11	3817	76
51	0	0	1854	11	3818	76
52	0	0	1882	10	3817	75
53	0	0	1930	10	3816	75
54	0	0	1996	9	3816	76
55	0	0	2045	9	3816	75
56	0	0	2078	10	3815	74
57	0	0	2106	9	3815	75
58	0	0	2141	10	3817	74
59	0	0	2148	8	3818	73
60	0	0	2122	8	3817	74
61	0	0	2092	8	3818	72
62	0	0	2067	7	3819	73
63	0	0	2045	9	3816	71
64	0	0	2032	9	3816	71
65	0	0	1997	8	3815	72
66	0	0	1949	7	3817	70
67	0	0	1917	7	3815	74
68	0	0	1895	8	3816	75
69	0	0	1880	8	3816	75
70	0	0	1882	12	3817	77
71	0	0	1913	11	3816	74
72	0	0	1968	14	3815	75
73	0	0	1998	11	3816	73
74	0	0	1996	9	3815	75
75	0	0	2005	13	3816	76
76	0	0	2019	10	3816	75
77	0	0	2052	10	3815	76
78	0	0	2103	10	3817	75
79	0	0	2102	7	3815	74
80	0	0	2068	9	3817	75
81	0	0	2058	9	3817	76
82	0	0	2054	10	3816	72
83	0	0	2050	10	3816	72
84	0	0	2029	7	3817	72
85	0	0	1989	7	3817	70
86	0	0	1936	7	3816	72
87	0	0	1883	7	3816	72
88	0	0	1839	8	3815	74
89	0	0	1820	8	3817	75
90	0	0	1812	12	3818	76
91	0	0	1830	10	3817	78
92	0	0	1867	10	3815	76
93	0	0	1944	10	3815	76
94	0	0	2002	9	3816	75
95	0	0	2034	11	3817	72
96	0	0	2052	10	3816	73
97	0	0	2071	11	3817	74
98	0	0	2109	10	3816	75
99	0	0	2131	9	3817	73
100	0	0	2119	9	3818	71
101	0	0	2099	7	3818	73
102	0	0	2068	7	3815	75
103	0	0	2060	13	3814	72
104	0	0	2074	9	3816	74
105	0	0	2045	8	3817	72
106	0	0	1971	7	3816	72
107	0	0	1902	6	3815	72
108	0	0	1858	8	3816	75
109	0	0	1848	10	3816	75
110	0	0	1833	8	3817	73
111	0	0	1829	11	3817	76
112	0	0	1839	14	3815	75
113	0	0	1851	10	3815	77
114	0	0	1903	10	3816	75
115	0	0	1973	12	3817	75
116	0	0	2040	8	3818	75
117	0	0	2093	8	3815	71
118	0	0	2149	9	3818	74
119	0	0	2166	7	3815	74
120	0	0	2139	9	3817	75
121	0	0	2120	9	3817	73
122	0	0	2112	10	3816	73
123	0	0	2093	7	3817	72
124	0	0	2052	7	3815	73
125	0	0	1998	9	3816	73
126	0	0	1941	6	3817	76
127	0	0	1895	8	3815	78
0	0	0	1892	10	3818	75
1	0	0	1903	8	3819	74
2	0	0	1894	9	3818	72
3	0	0	1879	8	3818	79
4	0	0	1888	10	3816	76
5	0	0	1934	10	3817	78
6	0	0	1974	9	3819	76
7	0	0	1989	11	3816	76
8	0	0	2024	11	3817	77
9	0	0	2088	10	3816	74
10	0	0	2143	9	3816	73
11	0	0	2134	7	3817	73
12	0	0	2078	7	3817	73
13	0	0	2023	8	3817	75
14	0	0	2012	10	3816	71
15	0	0	2019	13	3814	72
16	0	0	2037	11	3817	72
17	0	0	2048	11	3818	73
18	0	0	2038	9	3817	75
19	0	0	1987	6	3818	75
20	0	0	1939	8	3817	75
21	0	0	1925	10	3818	76
22	0	0	1928	11	3818	75
23	0	0	1936	13	3817	76
24	0	0	1926	12	3816	76
25	0	0	1927	11	3816	76
26	0	0	1943	10	3816	76
27	0	0	1987	10	3816	75
28	0	0	2041	12	3816	75
29	0	0	2090	9	3816	74
30	0	0	2131	10	3816	74
31	0	0	2162	11	3817	74
32	0	0	2186	10	3816	72
33	0	0	2184	10	3817	75
34	0	0	2155	8	3818	73
35	0	0	2107	6	3818	71
36	0	0	2040	8	3816	73
37	0	0	1997	6	3817	72
38	0	0	1953	7	3817	71
39	0	0	1915	11	3816	71
40	0	0	1904	9	3816	75
41	0	0	1894	10	3815	76
42	0	0	1892	12	3816	76
43	0	0	1920	11	3817	79
44	0	0	1950	8	3818	75
45	0	0	1989	11	3816	75
46	0	0	2026	10	3815	77
47	0	0	2052	10	3815	76
48	0	0	2080	10	3817	71
49	0	0	2099	10	3816	76
50	0	0	2120	10	3817	75
51	0	0	2151	10	3817	74
52	0	0	2167	12	3819	73
53	0	0	2143	7	3818	75
54	0	0	2096	6	3819	72
55	0	0	2053	7	3817	73
56	0	0	2014	8	3816	72
57	0	0	1980	8	3815	74
58	0	0	1952	8	3817	74
59	0	0	1950	11	3818	74
60	0	0	1943	9	3815	74
61	0	0	1935	11	3813	78
62	0	0	1950	12	3815	78
63	0	0	1973	11	3816	75
64	0	0	1974	11	3816	75
65	0	0	1959	8	3816	77
66	0	0	1959	11	3817	77
67	0	0	1988	10	3817	76
68	0	0	2030	11	3817	76
69	0	0	2085	10	3819	75
70	0	0	2145	9	3818	75
71	0	0	2182	9	3815	73
72	0	0	2191	8	3819	73
73	0	0	2168	7	3818	73
74	0	0	2124	7	3818	72
75	0	0	2096	8	3816	71
76	0	0	2089	10	3813	75
77	0	0	2060	5	3816	72
78	0	0	2010	7	3816	74
79	0	0	1950	8	3819	73
80	0	0	1907	8	3816	75
81	0	0	1891	9	3817	75
82	0	0	1876	8	3818	76
83	0	0	1891	10	3818	76
84	0	0	1923	11	3819	76
85	0	0	1933	9	3816	77
86	0	0	1938	11	3816	78
87	0	0	1961	8	3818	80
88	0	0	2006	8	3818	76
89	0	0	2082	10	3819	75
90	0	0	2150	10	3816	74
91	0	0	2179	9	3817	73
92	0	0	2192	6	3818	72
93	0	0	2208	10	3817	70
94	0	0	2208	8	3817	71
95	0	0	2160	8	3816	69
96	0	0	2098	7	3816	72
97	0	0	2040	6	3817	72
98	0	0	1994	7	3816	68
99	0	0	1955	7	3817	74
100	0	0	1922	8	3818	74
101	0	0	1904	9	3815	75
102	0	0	1910	7	3815	74
103	0	0	1931	11	3818	77
104	0	0	1957	11	3819	77
105	0	0	1979	8	3817	75
106	0	0	1989	11	3817	75
107	0	0	2026	8	3818	76
108	0	0	2068	10	3816	76
109	0	0	2094	10	3818	74
110	0	0	2107	8	3815	74
111	0	0	2127	10	3816	74
112	0	0	2152	10	3818	71
113	0	0	2161	10	3816	75
114	0	0	2144	8	3817	72
115	0	0	2120	8	3816	72
116	0	0	2083	8	3818	69
117	0	0	2018	4	3815	72
118	0	0	1944	7	3817	70
119	0	0	1904	8	3817	73
120	0	0	1900	15	3816	74
121	0	0	1896	10	3818	76
122	0	0	1892	7	3818	75
123	0	0	1922	9	3818	76
124	0	0	1971	11	3816	76
125	0	0	2012	11	3817	76
126	0	0	2040	10	3817	75
127	0	0	2074	13	3817	75
0	0	0	2097	11	3816	77
1	0	0	2102	9	3818	75
2	0	0	2102	7	3816	74
3	0	0	2103	10	3817	76
4	0	0	2096	6	3818	72
5	0	0	2078	8	3817	72
6	0	0	2035	7	3816	73
7	0	0	1995	7	3818	72
8	0	0	1976	8	3815	71
9	0	0	1973	15	3818	74
10	0	0	1964	10	3818	72
11	0	0	1950	10	3817	75
12	0	0	1938	14	3816	74
13	0	0	1923	10	3819	74
14	0	0	1918	10	3818	74
15	0	0	1907	11	3816	75
16	0	0	1907	11	3818	76
17	0	0	1949	7	3816	76
18	0	0	2010	10	3817	79
19	0	0	2052	7	3815	75
20	0	0	2075	11	3816	75
21	0	0	2114	8	3816	73
22	0	0	2144	10	3816	75
23	0	0	2149	10	3816	75
24	0	0	2133	7	3817	73
25	0	0	2130	11	3819	74
26	0	0	2112	8	3817	73
27	0	0	2059	9	3817	72
28	0	0	2008	7	3816	75
29	0	0	1967	9	3817	73
30	0	0	1929	9	3816	75
31	0	0	1907	9	3817	74
32	0	0	1887	9	3815	73
33	0	0	1871	8	3818	73
34	0	0	1864	11	3818	75
35	0	0	1887	10	3817	78
36	0	0	1938	11	3817	76
37	0	0	1978	15	3815	75
38	0	0	2005	10	3816	77
39	0	0	2022	11	3816	74
40	0	0	2078	11	3817	76
41	0	0	2127	10	3817	74
42	0	0	2161	10	3817	75
43	0	0	2171	8	3817	74
44	0	0	2154	7	3817	71
45	0	0	2140	12	3819	72
46	0	0	2138	11	3816	71
47	0	0	2118	8	3818	72
48	0	0	2094	8	3816	73
49	0	0	2083	9	3815	71
50	0	0	2052	7	3816	76
51	0	0	1997	5	3816	75
52	0	0	1978	9	3816	75
53	0	0	1958	7	3816	75
54	0	0	1921	7	3816	73
55	0	0	1896	11	3817	80
56	0	0	1907	12	3816	78
57	0	0	1941	10	3816	77
58	0	0	1979	10	3816	77
59	0	0	2021	10	3817	73
60	0	0	2069	11	3817	74
61	0	0	2098	10	3818	73
62	0	0	2116	10	3813	74
63	0	0	2149	10	3816	74
64	0	0	2179	8	3818	77
65	0	0	2175	8	3817	73
66	0	0	2116	6	3818	73
67	0	0	2048	8	3816	73
68	0	0	1997	7	3816	72
69	0	0	1986	9	3817	77
70	0	0	1970	9	3817	75
71	0	0	1942	8	3818	74
72	0	0	1929	11	3816	75
73	0	0	1938	11	3817	75
74	0	0	1957	8	3816	77
75	0	0	1979	10	3817	78
76	0	0	2004	11	3817	75
77	0	0	2043	11	3817	76
78	0	0	2075	10	3817	76
79	0	0	2080	9	3816	76
80	0	0	2092	9	3818	76
81	0	0	2126	10	3816	77
82	0	0	2177	8	3816	74
83	0	0	2207	10	3817	71
84	0	0	2212	12	3816	76
85	0	0	2197	8	3817	73
86	0	0	2163	7	3816	74
87	0	0	2119	8	3817	72
88	0	0	2044	5	3815	72
89	0	0	1964	4	3816	75
90	0	0	1918	8	3817	74
91	0	0	1899	9	3817	78
92	0	0	1890	9	3816	76
93	0	0	1877	9	3818	72
94	0	0	1874	12	3818	78
95	0	0	1881	13	3818	77
96	0	0	1901	8	3818	76
97	0	0	1959	12	3816	76
98	0	0	2011	10	3815	76
99	0	0	2043	8	3816	77
100	0	0	2076	11	3816	79
101	0	0	2134	9	3816	75
102	0	0	2186	10	3817	71
103	0	0	2202	11	3817	75
104	0	0	2184	8	3816	73
105	0	0	2153	8	3817	73
106	0	0	2147	10	3817	74
107	0	0	2170	10	3816	72
108	0	0	2174	9	3816	72
109	0	0	2143	9	3817	76
110	0	0	2096	6	3818	74
111	0	0	2016	7	3819	71
112	0	0	1940	7	3816	74
113	0	0	1924	11	3817	75
114	0	0	1951	12	3818	79
115	0	0	1997	10	3817	75
116	0	0	2036	12	3818	76
117	0	0	2069	8	3816	77
118	0	0	2092	11	3816	75
119	0	0	2118	9	3817	79
120	0	0	2148	8	3817	77
121	0	0	2178	11	3816	74
122	0	0	2196	10	3816	75
123	0	0	2190	10	3817	73
124	0	0	2192	8	3816	73
125	0	0	2194	10	3817	73
126	0	0	2197	10	3816	74
127	0	0	2175	9	3817	72
0	0	0	2146	9	3817	71
1	0	0	2095	8	3818	76
2	0	0	2036	8	3818	75
3	0	0	1988	7	3815	72
4	0	0	1959	11	3817	75
5	0	0	1959	15	3816	74
6	0	0	1969	8	3816	75
7	0	0	1980	10	3817	78
8	0	0	2000	10	3816	74
9	0	0	2041	10	3815	77
10	0	0	2098	10	3815	78
11	0	0	2149	10	3818	79
12	0	0	2164	11	3817	75
13	0	0	2168	10	3817	77
14	0	0	2159	10	3816	75
15	0	0	2169	10	3818	71
16	0	0	2192	9	3818	74
17	0	0	2174	7	3817	73
18	0	0	2108	7	3816	71
19	0	0	2065	9	3816	69
20	0	0	2062	11	3816	70
21	0	0	2064	10	3817	71
22	0	0	2038	8	3816	73
23	0	0	2015	9	3815	74
24	0	0	2009	11	3816	75
25	0	0	2008	12	3816	75
26	0	0	2012	12	3817	79
27	0	0	2020	11	3816	73
28	0	0	2033	11	3818	76
29	0	0	2039	10	3816	77
30	0	0	2055	11	3817	77
31	0	0	2080	12	3817	76
32	0	0	2111	8	3818	76
33	0	0	2129	10	3817	75
34	0	0	2154	12	3816	74
35	0	0	2184	10	3816	74
36	0	0	2218	14	3817	72
37	0	0	2219	10	3816	73
38	0	0	2187	8	3816	72
39	0	0	2146	9	3817	70
40	0	0	2117	9	3816	68
41	0	0	2059	10	3816	72
42	0	0	1972	6	3817	74
43	0	0	1922	8	3815	73
44	0	0	1909	9	3816	75
45	0	0	1897	9	3815	75
46	0	0	1893	10	3818	79
47	0	0	1921	10	3816	76
48	0	0	1986	8	3818	76
49	0	0	2024	14	3816	76
50	0	0	2031	10	3816	78
51	0	0	2050	11	3817	74
52	0	0	2079	9	3817	75
53	0	0	2121	12	3815	73
54	0	0	2167	11	3817	74
55	0	0	2200	6	3819	72
56	0	0	2184	11	3816	72
57	0	0	2146	6	3816	72
58	0	0	2106	7	3814	76
59	0	0	2065	7	3815	71
60	0	0	2026	7	3815	71
61	0	0	2002	8	3817	75
62	0	0	1981	5	3817	73
63	0	0	1949	8	3816	72
64	0	0	1923	8	3817	74
65	0	0	1907	8	3816	75
66	0	0	1903	10	3818	75
67	0	0	1908	10	3818	76
68	0	0	1918	10	3817	76
69	0	0	1936	11	3817	77
70	0	0	1987	10	3816	75
71	0	0	2051	14	3816	72
72	0	0	2095	8	3816	78
73	0	0	2124	9	3816	76
74	0	0	2140	9	3817	75
75	0	0	2146	7	3815	74
76	0	0	2139	9	3817	74
77	0	0	2127	8	3817	73
78	0	0	2109	7	3816	70
79	0	0	2065	7	3816	74
80	0	0	2001	7	3815	71
81	0	0	1938	6	3818	75
82	0	0	1874	6	3818	73
83	0	0	1836	8	3817	72
84	0	0	1812	8	3817	74
85	0	0	1809	10	3816	75
86	0	0	1827	7	3817	75
87	0	0	1844	9	3817	76
88	0	0	1850	10	3816	76
89	0	0	1881	11	3816	75
90	0	0	1922	10	3816	75
91	0	0	1970	9	3817	75
92	0	0	2011	9	3816	75
93	0	0	2026	10	3815	72
94	0	0	2035	10	3817	75
95	0	0	2062	8	3816	74
96	0	0	2069	7	3817	72
97	0	0	2077	9	3818	74
98	0	0	2063	8	3817	72
99	0	0	2038	8	3817	71
100	0	0	1993	8	3816	71
101	0	0	1935	6	3817	73
102	0	0	1901	8	3817	73
103	0	0	1891	8	3819	75
104	0	0	1848	6	3817	74
105	0	0	1815	8	3816	75
106	0	0	1808	10	3817	77
107	0	0	1825	10	3817	75
108	0	0	1861	11	3817	76
109	0	0	1894	12	3817	77
110	0	0	1939	11	3816	77
111	0	0	1987	7	3816	74
112	0	0	2019	11	3817	75
113	0	0	2037	10	3815	74
114	0	0	2053	10	3817	74
115	0	0	2072	8	3816	74
116	0	0	2094	9	3817	74
117	0	0	2105	10	3816	74
118	0	0	2088	7	3816	72
119	0	0	2035	7	3818	72
120	0	0	1982	6	3815	73
121	0	0	1937	7	3815	72
122	0	0	1907	6	3817	75
123	0	0	1880	7	3815	76
124	0	0	1856	9	3816	74
125	0	0	1857	10	3816	75
126	0	0	1864	9	3816	77
127	0	0	1875	8	3817	75
0	0	0	1893	13	3816	76
1	0	0	1922	10	3816	76
2	0	0	1963	7	3816	78
3	0	0	2004	11	3817	78
4	0	0	2026	8	3818	77
5	0	0	2046	10	3815	76
6	0	0	2072	11	3819	73
7	0	0	2093	7	3815	72
8	0	0	2103	12	3817	73
9	0	0	2084	7	3818	74
10	0	0	2053	7	3816	74
11	0	0	2031	8	3817	72
12	0	0	2005	7	3816	71
13	0	0	1949	8	3817	73
14	0	0	1898	7	3818	74
15	0	0	1871	11	3814	78
16	0	0	1858	12	3818	75
17	0	0	1859	11	3819	73
18	0	0	1874	14	3817	75
19	0	0	1906	11	3817	76
20	0	0	1935	11	3816	79
21	0	0	1950	10	3817	76
22	0	0	1969	11	3816	80
23	0	0	1981	9	3816	77
24	0	0	1999	11	3817	74
25	0	0	2034	10	3816	71
26	0	0	2082	10	3816	76
27	0	0	2118	7	3815	74
28	0	0	2105	7	3816	74
29	0	0	2089	10	3817	78
30	0	0	2068	10	3818	73
31	0	0	2045	7	3816	71
32	0	0	2038	10	3818	73
33	0	0	2037	12	3817	72
34	0	0	2025	11	3817	73
35	0	0	1986	7	3817	73
36	0	0	1932	7	3817	75
37	0	0	1927	11	3817	75
38	0	0	1973	10	3818	77
39	0	0	2045	11	3818	75
40	0	0	2130	11	3817	75
41	0	0	2253	14	3818	75
42	0	0	2360	11	3817	74
43	0	0	2445	10	3813	75
44	0	0	2527	11	3817	75
45	0	0	2584	10	3815	75
46	0	0	2628	10	3816	75
47	0	0	2685	10	3818	74
48	0	0	2753	9	3817	73
49	0	0	2807	9	3817	72
50	0	0	2851	10	3816	71
51	0	0	2880	9	3817	72
52	0	0	2884	11	3817	72
53	0	0	2910	11	3817	71
54	0	0	2953	12	3817	73
55	0	0	2975	11	3817	78
56	0	0	2980	11	3818	75
57	0	0	2972	12	3819	78
58	0	0	2970	13	3817	75
59	0	0	2965	11	3816	76
60	0	0	2955	11	3816	72
61	0	0	2933	11	3817	76
62	0	0	2888	8	3818	76
63	0	0	2858	9	3818	76
64	0	0	2813	8	3817	76
65	0	0	2762	7	3816	71
66	0	0	2707	5	3816	74
67	0	0	2632	7	3817	74
68	0	0	2562	10	3816	75
69	0	0	2497	6	3818	73
70	0	0	2431	6	3816	71
71	0	0	2367	7	3817	71
72	0	0	2303	7	3817	73
73	0	0	2216	8	3816	74
74	0	0	2117	6	3817	73
75	0	0	2038	4	3816	71
76	0	0	1977	6	3817	75
77	0	0	1932	7	3817	76
78	0	0	1926	11	3816	75
79	0	0	1955	11	3817	73
80	0	0	1986	11	3816	72
81	0	0	2006	15	3815	76
82	0	0	2035	10	3816	80
83	0	0	2057	12	3816	77
84	0	0	2066	10	3817	75
85	0	0	2070	10	3816	73
86	0	0	2075	10	3817	73
87	0	0	2069	9	3818	73
88	0	0	2067	8	3818	74
89	0	0	2057	7	3818	73
90	0	0	2038	9	3816	72
91	0	0	2045	11	3817	70
92	0	0	2041	7	3816	71
93	0	0	2008	9	3817	71
94	0	0	1942	4	3817	73
95	0	0	1870	7	3815	72
96	0	0	1811	7	3816	75
97	0	0	1771	4	3816	75
98	0	0	1773	10	3816	75
99	0	0	1788	11	3817	76
100	0	0	1818	11	3817	76
101	0	0	1852	11	3816	76
102	0	0	1888	10	3817	76
103	0	0	1925	9	3817	77
104	0	0	1949	8	3818	76
105	0	0	1964	10	3817	72
106	0	0	1971	11	3817	75
107	0	0	1978	8	3817	74
108	0	0	1985	11	3815	70
109	0	0	1979	8	3817	71
110	0	0	1962	8	3816	72
111	0	0	1931	8	3817	71
112	0	0	1885	7	3817	76
113	0	0	1846	9	3815	71
114	0	0	1812	6	3817	72
115	0	0	1778	8	3816	72
116	0	0	1764	9	3816	74
117	0	0	1754	7	3817	75
118	0	0	1776	12	3816	74
119	0	0	1826	9	3818	75
120	0	0	1847	10	3816	76
121	0	0	1840	11	3817	77
122	0	0	1859	8	3818	76
123	0	0	1884	12	3816	75
124	0	0	1914	9	3817	76
125	0	0	1954	10	3817	76
126	0	0	2006	10	3816	74
127	0	0	2044	10	3817	72
0	0	0	2048	8	3818	73
1	0	0	2000	5	3816	73
2	0	0	1938	7	3816	72
3	0	0	1884	8	3815	73
4	0	0	1836	6	3816	75
5	0	0	1814	9	3815	69
6	0	0	1813	9	3818	71
7	0	0	1802	9	3816	74
8	0	0	1781	8	3816	75
9	0	0	1761	8	3818	73
10	0	0	1763	15	3816	75
11	0	0	1786	11	3817	76
12	0	0	1814	11	3817	76
13	0	0	1840	11	3818	76
14	0	0	1864	10	3818	75
15	0	0	1909	10	3815	76
16	0	0	1950	11	3816	76
17	0	0	1976	9	3817	74
18	0	0	1994	9	3816	75
19	0	0	2022	7	3815	71
20	0	0	2053	9	3816	72
21	0	0	2071	10	3816	75
22	0	0	2054	6	3816	72
23	0	0	2008	7	3818	71
24	0	0	1958	9	3817	75
25	0	0	1901	9	3815	72
26	0	0	1839	6	3817	75
27	0	0	1789	8	3817	75
28	0	0	1769	10	3818	72
29	0	0	1777	9	3817	75
30	0	0	1780	11	3819	76
31	0	0	1778	13	3817	76
32	0	0	1789	10	3816	76
33	0	0	1834	8	3818	76
34	0	0	1884	10	3816	76
35	0	0	1924	10	3817	74
36	0	0	1975	9	3816	76
37	0	0	2028	10	3816	75
38	0	0	2065	8	3816	74
39	0	0	2085	8	3816	75
40	0	0	2089	11	3817	74
41	0	0	2080	8	3819	74
42	0	0	2048	7	3817	73
43	0	0	2005	7	3817	74
44	0	0	1964	7	3817	73
45	0	0	1926	7	3819	74
46	0	0	1891	7	3816	73
47	0	0	1853	7	3816	75
48	0	0	1804	4	3819	73
49	0	0	1758	7	3816	76
50	0	0	1760	12	3817	76
51	0	0	1788	15	3817	75
52	0	0	1853	10	3816	75
53	0	0	1903	8	3815	77
54	0	0	1939	11	3815	77
55	0	0	1962	11	3818	76
56	0	0	2005	11	3817	74
57	0	0	2064	10	3817	74
58	0	0	2108	6	3819	72
59	0	0	2112	9	3817	71
60	0	0	2101	10	3819	73
61	0	0	2094	13	3817	73
62	0	0	2080	9	3817	73
63	0	0	2062	5	3819	72
64	0	0	2034	8	3817	68
65	0	0	1980	8	3819	73
66	0	0	1932	11	3816	73
67	0	0	1911	10	3815	74
68	0	0	1914	8	3818	74
69	0	0	1939	11	3817	73
70	0	0	1943	10	3819	75
71	0	0	1939	13	3817	76
72	0	0	1948	11	3816	77
73	0	0	1984	10	3819	77
74	0	0	2015	15	3815	76
75	0	0	2035	11	3818	77
76	0	0	2056	10	3819	75
77	0	0	2075	10	3817	75
78	0	0	2094	8	3817	73
79	0	0	2108	13	3817	73
80	0	0	2107	9	3817	74
81	0	0	2091	8	3818	73
82	0	0	2057	7	3816	72
83	0	0	2037	7	3818	73
84	0	0	2018	11	3815	71
85	0	0	1981	8	3818	73
86	0	0	1943	8	3817	74
87	0	0	1937	11	3816	74
88	0	0	1940	11	3816	75
89	0	0	1947	12	3816	77
90	0	0	1952	11	3817	77
91	0	0	1950	10	3817	76
92	0	0	1961	12	3817	76
93	0	0	2000	7	3816	76
94	0	0	2045	11	3817	76
95	0	0	2106	12	3817	75
96	0	0	2169	11	3817	74
97	0	0	2195	10	3815	75
98	0	0	2204	8	3817	74
99	0	0	2213	8	3817	76
100	0	0	2203	8	3818	74
101	0	0	2181	8	3817	73
102	0	0	2174	10	3813	73
103	0	0	2172	11	3816	70
104	0	0	2145	9	3816	72
105	0	0	2106	8	3816	75
106	0	0	2047	7	3817	72
107	0	0	1996	7	3816	75
108	0	0	1967	9	3817	75
109	0	0	1949	12	3817	78
110	0	0	1961	12	3818	75
111	0	0	1995	12	3816	76
112	0	0	2025	16	3816	74
113	0	0	2037	11	3816	77
114	0	0	2050	10	3816	77
115	0	0	2099	9	3817	76
116	0	0	2141	8	3816	76
117	0	0	2172	10	3817	75
118	0	0	2218	10	3816	74
119	0	0	2259	10	3816	74
120	0	0	2277	9	3818	75
121	0	0	2272	10	3817	73
122	0	0	2240	10	3817	75
123	0	0	2199	7	3816	71
124	0	0	2155	11	3815	72
125	0	0	2133	9	3817	71
126	0	0	2121	10	3817	73
127	0	0	2088	7	3817	74
0	0	0	2033	4	3817	75
1	0	0	1998	9	3817	76
2	0	0	2011	12	3817	75
3	0	0	2021	10	3818	76
4	0	0	2035	11	3816	75
5	0	0	2072	10	3817	77
6	0	0	2108	10	3815	75
7	0	0	2144	10	3817	77
8	0	0	2176	10	3817	76
9	0	0	2205	10	3816	74
10	0	0	2242	11	3815	72
11	0	0	2275	10	3816	74
12	0	0	2284	13	3817	71
13	0	0	2270	8	3818	73
14	0	0	2251	9	3817	72
15	0	0	2234	9	3817	70
16	0	0	2199	8	3817	71
17	0	0	2169	8	3817	72
18	0	0	2128	8	3817	75
19	0	0	2079	7	3816	74
20	0	0	2050	7	3817	76
21	0	0	2055	10	3816	75
22	0	0	2075	15	3816	75
23	0	0	2093	11	3817	76
24	0	0	2111	11	3818	77
25	0	0	2130	10	3815	77
26	0	0	2139	12	3816	79
27	0	0	2149	12	3816	75
28	0	0	2180	12	3816	75
29	0	0	2213	11	3817	77
30	0	0	2224	9	3817	75
31	0	0	2221	8	3818	75
32	0	0	2208	11	3816	72
33	0	0	2197	8	3817	73
34	0	0	2173	8	3816	74
35	0	0	2133	6	3818	71
36	0	0	2088	7	3818	71
37	0	0	2072	8	3817	72
38	0	0	2055	9	3818	72
39	0	0	2041	11	3815	72
40	0	0	2034	12	3815	73
41	0	0	2028	10	3816	75
42	0	0	2022	11	3816	73
43	0	0	2031	12	3816	76
44	0	0	2053	11	3816	77
45	0	0	2080	11	3816	76
46	0	0	2100	10	3816	74
47	0	0	2112	13	3816	73
48	0	0	2132	12	3817	75
49	0	0	2170	10	3815	74
50	0	0	2195	10	3817	75
51	0	0	2198	10	3817	73
52	0	0	2195	11	3818	72
53	0	0	2185	11	3816	72
54	0	0	2157	7	3817	73
55	0	0	2127	6	3815	71
56	0	0	2094	7	3815	72
57	0	0	2066	8	3816	73
58	0	0	2043	7	3816	72
59	0	0	2007	5	3818	72
60	0	0	1953	7	3816	73
61	0	0	1928	10	3816	75
62	0	0	1948	12	3815	72
63	0	0	1982	12	3816	76
64	0	0	2010	11	3817	75
65	0	0	2015	12	3817	75
66	0	0	2034	10	3817	75
67	0	0	2062	11	3816	73
68	0	0	2090	11	3817	75
69	0	0	2108	10	3817	75
70	0	0	2104	8	3818	76
71	0	0	2092	8	3817	78
72	0	0	2076	8	3819	74
73	0	0	2066	10	3817	72
74	0	0	2060	10	3816	74
75	0	0	2044	8	3815	74
76	0	0	1998	7	3816	73
77	0	0	1973	7	3815	72
78	0	0	1938	8	3817	76
79	0	0	1932	13	3819	73
80	0	0	1943	12	3816	75
81	0	0	1949	10	3817	75
82	0	0	1945	11	3819	77
83	0	0	1943	11	3817	77
84	0	0	1968	11	3816	77
85	0	0	2011	12	3816	76
86	0	0	2042	11	3816	75
87	0	0	2070	10	3818	77
88	0	0	2094	9	3817	76
89	0	0	2113	9	3816	74
90	0	0	2134	10	3815	75
91	0	0	2149	7	3816	72
92	0	0	2147	8	3815	72
93	0	0	2129	7	3816	73
94	0	0	2094	5	3818	73
95	0	0	2060	7	3818	71
96	0	0	2025	8	3816	76
97	0	0	1985	8	3819	74
98	0	0	1947	7	3817	75
99	0	0	1913	8	3817	72
100	0	0	1882	8	3816	74
101	0	0	1860	7	3816	74
102	0	0	1866	11	3815	75
103	0	0	1888	10	3816	75
104	0	0	1905	10	3817	76
105	0	0	1917	12	3815	76
106	0	0	1972	9	3816	77
107	0	0	2019	11	3815	75
108	0	0	2056	7	3816	73
109	0	0	2077	9	3816	73
110	0	0	2084	11	3817	74
111	0	0	2089	10	3818	70
112	0	0	2126	9	3819	74
113	0	0	2144	7	3817	72
114	0	0	2126	8	3817	72
115	0	0	2108	8	3817	72
116	0	0	2075	7	3817	74
117	0	0	2023	7	3815	72
118	0	0	1960	7	3816	72
119	0	0	1896	7	3816	75
120	0	0	1840	7	3816	75
121	0	0	1815	9	3816	75
122	0	0	1807	9	3815	74
123	0	0	1824	8	3816	76
124	0	0	1870	11	3815	74
125	0	0	1917	10	3816	75
126	0	0	1959	11	3815	75
127	0	0	2007	10	3815	76
0	0	0	2059	11	3816	74
1	0	0	2111	10	3815	74
2	0	0	2145	9	3816	73
3	0	0	2149	10	3816	72
4	0	0	2118	7	3815	72
5	0	0	2085	4	3818	76
6	0	0	2059	1	3817	73
7	0	0	2046	10	3816	73
8	0	0	2036	10	3816	71
9	0	0	2002	7	3816	75
10	0	0	1943	3	3816	74
11	0	0	1895	8	3815	74
12	0	0	1896	11	3816	75
13	0	0	1902	11	3815	74
14	0	0	1889	9	3815	74
15	0	0	1883	4	3816	76
16	0	0	1905	11	3818	75
17	0	0	1971	12	3816	78
18	0	0	2030	10	3817	78
19	0	0	2058	9	3818	75
20	0	0	2070	8	3817	73
21	0	0	2090	10	3818	74
22	0	0	2123	11	3817	75
23	0	0	2149	9	3817	71
24	0	0	2152	10	3818	74
25	0	0	2119	4	3817	74
26	0	0	2050	6	3817	72
27	0	0	1967	4	3818	72
28	0	0	1936	8	3816	75
29	0	0	1930	11	3817	74
30	0	0	1934	5	3817	74
31	0	0	1960	11	3817	75
32	0	0	1963	15	3815	74
33	0	0	1961	11	3817	75
34	0	0	1939	9	3815	75
35	0	0	1941	10	3818	76
36	0	0	1967	12	3817	76
37	0	0	2000	15	3815	76
38	0	0	2019	11	3815	76
39	0	0	2052	9	3816	77
40	0	0	2110	8	3817	76
41	0	0	2136	10	3816	75
42	0	0	2136	10	3816	75
43	0	0	2140	11	3815	73
44	0	0	2136	9	3815	74
45	0	0	2102	7	3817	73
46	0	0	2057	7	3816	73
47	0	0	2012	8	3818	70
48	0	0	1984	8	3817	74
49	0	0	1979	10	3816	74
50	0	0	1992	10	3818	72
51	0	0	1975	8	3816	74
52	0	0	1935	7	3817	74
53	0	0	1886	8	3817	75
54	0	0	1846	8	3818	75
55	0	0	1863	8	3818	76
56	0	0	1913	10	3818	76
57	0	0	1963	14	3815	77
58	0	0	2031	8	3816	77
59	0	0	2071	11	3816	77
60	0	0	2100	9	3817	75
61	0	0	2126	7	3815	75
62	0	0	2146	11	3816	74
63	0	0	2165	10	3817	71
64	0	0	2201	15	3816	74
65	0	0	2225	8	3817	73
66	0	0	2183	7	3816	72
67	0	0	2113	7	3817	71
68	0	0	2068	5	3816	71
69	0	0	2031	7	3817	75
70	0	0	1973	8	3817	72
71	0	0	1927	8	3817	74
72	0	0	1910	9	3817	75
73	0	0	1900	8	3817	76
74	0	0	1890	10	3817	76
75	0	0	1897	10	3818	76
76	0	0	1944	11	3817	75
77	0	0	1999	11	3815	77
78	0	0	2030	10	3816	77
79	0	0	2051	10	3814	77
80	0	0	2076	10	3816	77
81	0	0	2101	10	3816	75
82	0	0	2134	11	3815	74
83	0	0	2143	10	3817	75
84	0	0	2124	7	3816	73
85	0	0	2116	10	3818	73
86	0	0	2108	10	3817	73
87	0	0	2099	11	3817	71
88	0	0	2081	8	3817	72
89	0	0	2055	8	3816	72
90	0	0	2026	8	3817	73
91	0	0	1988	7	3815	74
92	0	0	1954	8	3816	74
93	0	0	1914	8	3817	76
94	0	0	1874	9	3818	75
95	0	0	1873	10	3817	76
96	0	0	1903	9	3817	76
97	0	0	1954	10	3816	76
98	0	0	2018	10	3816	76
99	0	0	2082	10	3816	76
100	0	0	2119	10	3817	79
101	0	0	2139	10	3816	76
102	0	0	2167	8	3819	76
103	0	0	2197	9	3818	73
104	0	0	2174	8	3818	74
105	0	0	2151	10	3818	74
106	0	0	2150	10	3816	74
107	0	0	2132	6	3816	71
108	0	0	2070	10	3815	68
109	0	0	1997	7	3816	73
110	0	0	1936	7	3816	72
111	0	0	1895	8	3816	73
112	0	0	1890	11	3816	75
113	0	0	1915	11	3816	72
114	0	0	1931	9	3817	76
115	0	0	1960	11	3816	76
116	0	0	1987	10	3816	76
117	0	0	2011	11	3816	75
118	0	0	2027	10	3818	79
119	0	0	2045	11	3816	77
120	0	0	2091	10	3818	77
121	0	0	2136	10	3817	75
122	0	0	2180	10	3817	74
123	0	0	2197	12	3816	71
124	0	0	2169	6	3818	72
125	0	0	2129	6	3816	72
126	0	0	2108	9	3816	72
127	0	0	2107	11	3816	73
0	0	0	2109	11	3816	74
1	0	0	2087	7	3816	72
2	0	0	2022	8	3817	72
3	0	0	1946	7	3818	74
4	0	0	1875	7	3817	75
5	0	0	1824	8	3817	77
6	0	0	1799	8	3819	75
7	0	0	1816	11	3819	75
8	0	0	1892	10	3818	75
9	0	0	1977	11	3817	52
10	0	0	2042	11	3817	75
11	0	0	2088	10	3818	76
12	0	0	2119	10	3816	76
13	0	0	2128	10	3818	75
14	0	0	2152	8	3816	75
15	0	0	2184	11	3815	74
16	0	0	2206	9	3821	73
17	0	0	2189	5	3816	73
18	0	0	2132	7	3816	73
19	0	0	2061	7	3815	73
20	0	0	2001	7	3816	74
21	0	0	1972	7	3817	75
22	0	0	1948	9	3816	74
23	0	0	1928	16	3815	73
24	0	0	1928	10	3817	74
25	0	0	1935	11	3818	73
26	0	0	1926	8	3817	74
27	0	0	1933	10	3817	75
28	0	0	1963	10	3817	75
29	0	0	1991	10	3816	76
30	0	0	2011	10	3816	76
31	0	0	2063	10	3817	75
32	0	0	2118	10	3817	76
33	0	0	2135	11	3816	74
34	0	0	2117	7	3816	75
35	0	0	2110	7	3816	72
36	0	0	2121	8	3817	73
37	0	0	2126	10	3816	72
38	0	0	2126	10	3816	72
39	0	0	2110	8	3816	73
40	0	0	2075	7	3816	71
41	0	0	2021	7	3818	72
42	0	0	1966	9	3817	74
43	0	0	1926	8	3818	74
44	0	0	1888	8	3816	75
45	0	0	1880	11	3817	77
46	0	0	1903	11	3819	75
47	0	0	1913	13	3815	74
48	0	0	1930	11	3816	75
49	0	0	1966	11	3816	75
50	0	0	2015	11	3816	76
51	0	0	2078	10	3815	74
52	0	0	2138	7	3817	73
53	0	0	2165	9	3816	76
54	0	0	2163	10	3816	73
55	0	0	2178	11	3816	74
56	0	0	2197	10	3815	74
57	0	0	2191	10	3819	73
58	0	0	2166	7	3817	72
59	0	0	2120	7	3819	73
60	0	0	2067	5	3818	71
61	0	0	2030	8	3816	71
62	0	0	1990	9	3817	74
63	0	0	1954	8	3816	78
64	0	0	1932	9	3814	77
65	0	0	1919	11	3815	74
66	0	0	1907	9	3815	76
67	0	0	1909	10	3817	75
68	0	0	1945	14	3816	73
69	0	0	2003	12	3815	76
70	0	0	2040	7	3818	75
71	0	0	2056	10	3815	76
72	0	0	2055	10	3816	75
73	0	0	2063	9	3817	75
74	0	0	2071	9	3817	74
75	0	0	2067	7	3818	73
76	0	0	2073	10	3815	74
77	0	0	2110	10	3818	74
78	0	0	2131	12	3816	74
79	0	0	2098	6	3816	75
80	0	0	2040	5	3818	72
81	0	0	2017	10	3815	72
82	0	0	2012	12	3816	73
83	0	0	1995	8	3816	74
84	0	0	1963	8	3816	72
85	0	0	1947	9	3817	75
86	0	0	1956	9	3815	78
87	0	0	1975	11	3819	75
88	0	0	2007	10	3816	76
89	0	0	2049	12	3816	75
90	0	0	2083	8	3818	77
91	0	0	2092	11	3815	76
92	0	0	2083	10	3818	75
93	0	0	2086	10	3818	74
94	0	0	2103	13	3817	74
95	0	0	2135	10	3817	74
96	0	0	2166	10	3818	73
97	0	0	2172	12	3818	74
98	0	0	2162	8	3817	73
99	0	0	2130	10	3816	68
100	0	0	2083	7	3816	72
101	0	0	2043	8	3817	73
102	0	0	1997	12	3813	74
103	0	0	1941	8	3817	73
104	0	0	1891	5	3816	75
105	0	0	1862	9	3817	76
106	0	0	1868	11	3816	75
107	0	0	1871	11	3818	76
108	0	0	1893	10	3817	76
109	0	0	1950	8	3816	80
110	0	0	2003	10	3817	75
111	0	0	2053	11	3815	78
112	0	0	2100	10	3818	76
113	0	0	2149	9	3815	74
114	0	0	2183	7	3816	76
115	0	0	2180	10	3817	73
116	0	0	2169	11	3818	74
117	0	0	2161	10	3816	74
118	0	0	2136	7	3816	73
119	0	0	2115	11	3815	70
120	0	0	2102	8	3817	71
121	0	0	2053	7	3816	73
122	0	0	1992	7	3818	73
123	0	0	1943	7	3817	74
124	0	0	1911	8	3817	76
125	0	0	1890	9	3817	75
126	0	0	1889	10	3818	75
127	0	0	1910	11	3819	77
0	0	0	1943	11	3818	76
1	0	0	1968	12	3816	77
2	0	0	2006	10	3816	77
3	0	0	2066	11	3817	76
4	0	0	2127	10	3816	75
5	0	0	2156	12	3816	74
6	0	0	2131	6	3818	74
7	0	0	2108	8	3816	74
8	0	0	2098	10	3817	73
9	0	0	2095	11	3818	72
10	0	0	2108	10	3817	73
11	0	0	2096	7	3817	72
12	0	0	2046	7	3817	71
13	0	0	2004	9	3815	72
14	0	0	1981	9	3817	74
15	0	0	1958	7	3817	73
16	0	0	1922	6	3817	76
17	0	0	1910	11	3818	75
18	0	0	1913	11	3816	78
19	0	0	1925	11	3816	76
20	0	0	1941	11	3818	75
21	0	0	1948	10	3815	75
22	0	0	1960	11	3816	76
23	0	0	1995	11	3817	73
24	0	0	2051	10	3816	75
25	0	0	2109	10	3816	75
26	0	0	2158	11	3815	74
27	0	0	2192	11	3817	74
28	0	0	2201	10	3819	71
29	0	0	2170	6	3818	75
30	0	0	2123	7	3817	73
31	0	0	2088	8	3818	73
32	0	0	2072	10	3818	71
33	0	0	2054	9	3816	71
34	0	0	2032	8	3814	73
35	0	0	1989	9	3817	74
36	0	0	1939	8	3817	75
37	0	0	1899	8	3816	76
38	0	0	1891	11	3817	74
39	0	0	1914	11	3816	76
40	0	0	1939	11	3818	76
41	0	0	1971	13	3816	76
42	0	0	2033	10	3818	75
43	0	0	2116	10	3818	75
44	0	0	2176	10	3816	75
45	0	0	2196	12	3817	75
46	0	0	2187	8	3817	75
47	0	0	2166	10	3819	73
48	0	0	2186	10	3818	71
49	0	0	2216	10	3818	72
50	0	0	2205	9	3817	72
51	0	0	2169	7	3817	72
52	0	0	2121	7	3816	72
53	0	0	2072	6	3816	75
54	0	0	2013	7	3816	73
55	0	0	1969	8	3816	73
56	0	0	1939	5	3819	75
57	0	0	1934	11	3817	75
58	0	0	1958	12	3818	76
59	0	0	1984	10	3815	77
60	0	0	2030	11	3817	76
61	0	0	2089	11	3818	76
62	0	0	2131	9	3818	75
63	0	0	2141	10	3817	75
64	0	0	2119	8	3816	76
65	0	0	2124	11	3817	74
66	0	0	2144	11	3818	74
67	0	0	2155	10	3817	74
68	0	0	2155	9	3818	72
69	0	0	2159	7	3816	73
70	0	0	2184	10	3816	73
71	0	0	2200	11	3816	73
72	0	0	2180	8	3816	73
73	0	0	2138	8	3817	74
74	0	0	2101	8	3814	74
75	0	0	2052	7	3816	72
76	0	0	2003	8	3817	76
77	0	0	1963	8	3815	76
78	0	0	1923	7	3817	73
79	0	0	1932	11	3818	77
80	0	0	1960	11	3817	75
81	0	0	1994	11	3818	72
82	0	0	2033	10	3815	75
83	0	0	2092	11	3817	75
84	0	0	2183	9	3814	76
85	0	0	2266	10	3816	75
86	0	0	2301	10	3816	74
87	0	0	2294	9	3817	73
88	0	0	2249	5	3818	74
89	0	0	2194	7	3817	72
90	0	0	2145	6	3816	72
91	0	0	2098	7	3817	73
92	0	0	2056	7	3816	71
93	0	0	2036	9	3816	70
94	0	0	2012	7	3816	73
95	0	0	2005	8	3816	74
96	0	0	1987	7	3819	74
97	0	0	1956	7	3816	75
98	0	0	1958	10	3818	73
99	0	0	1990	11	3818	74
100	0	0	2040	11	3817	75
101	0	0	2059	11	3818	76
102	0	0	2072	10	3817	78
103	0	0	2100	10	3817	75
104	0	0	2121	10	3816	75
105	0	0	2124	9	3816	73
106	0	0	2139	10	3816	75
107	0	0	2169	9	3816	75
108	0	0	2207	11	3816	71
109	0	0	2201	10	3815	72
110	0	0	2179	7	3816	73
111	0	0	2129	7	3819	74
112	0	0	2077	8	3818	71
113	0	0	2044	7	3817	72
114	0	0	2018	8	3818	74
115	0	0	1980	8	3817	74
116	0	0	1926	7	3817	75
117	0	0	1877	8	3815	75
118	0	0	1868	10	3817	73
119	0	0	1895	16	3815	75
120	0	0	1930	10	3817	76
121	0	0	1963	13	3817	78
122	0	0	1990	10	3815	75
123	0	0	2044	9	3818	76
124	0	0	2114	9	3815	75
125	0	0	2151	10	3816	75
126	0	0	2174	8	3817	74
127	0	0	2192	11	3817	73
0	0	0	2199	8	3818	72
1	0	0	2164	7	3817	74
2	0	0	2105	6	3817	73
3	0	0	2056	5	3819	73
4	0	0	2025	8	3815	72
5	0	0	1988	7	3816	72
6	0	0	1937	5	3815	73
7	0	0	1888	7	3816	74
8	0	0	1850	7	3816	76
9	0	0	1831	9	3817	75
10	0	0	1842	11	3817	74
11	0	0	1861	10	3818	74
12	0	0	1891	12	3816	76
13	0	0	1938	10	3816	76
14	0	0	1968	10	3816	75
15	0	0	2003	11	3816	74
16	0	0	2041	12	3815	74
17	0	0	2083	10	3816	75
18	0	0	2118	10	3816	75
19	0	0	2149	9	3818	72
20	0	0	2172	10	3817	72
21	0	0	2178	10	3815	74
22	0	0	2137	6	3815	71
23	0	0	2046	6	3816	70
24	0	0	1953	6	3816	73
25	0	0	1907	8	3815	70
26	0	0	1883	9	3815	71
27	0	0	1881	11	3815	72
28	0	0	1908	10	3816	75
29	0	0	1935	11	3817	72
30	0	0	1951	11	3816	74
31	0	0	1961	11	3815	76
32	0	0	1954	10	3817	76
33	0	0	1957	10	3816	77
34	0	0	1995	10	3818	73
35	0	0	2050	10	3817	76
36	0	0	2067	9	3818	73
37	0	0	2076	10	3817	75
38	0	0	2110	8	3818	75
39	0	0	2139	9	3818	72
40	0	0	2153	10	3817	76
41	0	0	2128	7	3818	73
42	0	0	2090	5	3816	73
43	0	0	2056	8	3817	71
44	0	0	2023	7	3816	70
45	0	0	1969	7	3817	76
46	0	0	1929	8	3816	72
47	0	0	1912	10	3816	74
48	0	0	1895	8	3817	74
49	0	0	1874	11	3817	75
50	0	0	1874	10	3817	76
51	0	0	1886	11	3816	76
52	0	0	1926	10	3817	75
53	0	0	1983	9	3817	77
54	0	0	2049	13	3817	78
55	0	0	2099	9	3817	74
56	0	0	2126	12	3816	75
57	0	0	2149	10	3816	74
58	0	0	2151	9	3816	74
59	0	0	2141	10	3816	73
60	0	0	2128	9	3818	74
61	0	0	2113	9	3815	72
62	0	0	2101	11	3818	73
63	0	0	2107	7	3815	70
64	0	0	2110	13	3817	73
65	0	0	2086	7	3816	76
66	0	0	2042	7	3814	74
67	0	0	1977	7	3818	78
68	0	0	1919	5	3819	74
69	0	0	1882	8	3818	72
70	0	0	1888	11	3818	77
71	0	0	1937	10	3816	75
72	0	0	1977	10	3817	76
73	0	0	1991	10	3817	77
74	0	0	2008	11	3817	77
75	0	0	2066	10	3816	76
76	0	0	2091	10	3815	74
77	0	0	2108	9	3816	76
78	0	0	2129	10	3817	74
79	0	0	2129	9	3817	74
80	0	0	2120	9	3817	75
81	0	0	2097	8	3817	73
82	0	0	2074	9	3816	74
83	0	0	2043	8	3815	71
84	0	0	1992	9	3817	73
85	0	0	1958	9	3817	73
86	0	0	1952	9	3816	73
87	0	0	1953	9	3818	76
88	0	0	1936	7	3815	75
89	0	0	1943	13	3817	75
90	0	0	1962	11	3817	75
91	0	0	2001	11	3816	75
92	0	0	2078	10	3815	75
93	0	0	2186	8	3819	76
94	0	0	2283	10	3816	76
95	0	0	2369	9	3817	79
96	0	0	2436	10	3817	76
97	0	0	2519	12	3816	74
98	0	0	2601	10	3817	71
99	0	0	2679	13	3817	74
100	0	0	2748	10	3817	71
101	0	0	2760	10	3816	72
102	0	0	2735	9	3819	76
103	0	0	2734	10	3818	73
104	0	0	2778	11	3819	70
105	0	0	2833	11	3816	75
106	0	0	2875	11	3816	72
107	0	0	2892	12	3817	75
108	0	0	2906	11	3816	74
109	0	0	2929	13	3817	77
110	0	0	2967	9	3817	75
111	0	0	3004	11	3816	76
112	0	0	3038	11	3817	75
113	0	0	3059	7	3815	78
114	0	0	3037	8	3817	75
115	0	0	2970	6	3817	75
116	0	0	2890	7	3816	74
117	0	0	2828	7	3816	73
118	0	0	2788	7	3817	76
119	0	0	2738	6	3818	74
120	0	0	2666	8	3818	75
121	0	0	2569	6	3818	72
122	0	0	2452	7	3817	73
123	0	0	2321	6	3816	71
124	0	0	2211	4	3818	73
125	0	0	2128	7	3817	71
126	0	0	2055	8	3816	74
127	0	0	1985	7	3817	77
0	0	0	1930	5	3815	74
1	0	0	1898	8	3816	75
2	0	0	1875	8	3817	75
3	0	0	1862	10	3819	76
4	0	0	1875	9	3819	77
5	0	0	1904	10	3815	76
6	0	0	1950	10	3816	77
7	0	0	2003	9	3818	75
8	0	0	2040	10	3820	76
9	0	0	2049	9	3818	74
10	0	0	2066	10	3817	76
11	0	0	2108	8	3819	74
12	0	0	2156	8	3818	75
13	0	0	2159	9	3818	74
14	0	0	2133	7	3816	75
15	0	0	2107	7	3816	72
16	0	0	2075	9	3816	71
17	0	0	2013	6	3817	71
18	0	0	1943	7	3818	72
19	0	0	1893	7	3816	74
20	0	0	1845	9	3817	75
21	0	0	1833	8	3818	75
22	0	0	1844	11	3818	73
23	0	0	1866	7	3820	77
24	0	0	1920	11	3817	75
25	0	0	1966	11	3817	76
26	0	0	1988	10	3817	78
27	0	0	1999	9	3819	75
28	0	0	2013	10	3819	75
29	0	0	2031	10	3818	75
30	0	0	2046	9	3815	74
31	0	0	2061	6	3818	73
32	0	0	2038	7	3817	72
33	0	0	1999	7	3818	73
34	0	0	1979	8	3818	73
35	0	0	1949	7	3816	75
36	0	0	1920	8	3816	74
37	0	0	1896	8	3817	72
38	0	0	1875	8	3819	74
39	0	0	1864	10	3817	75
40	0	0	1858	10	3818	75
41	0	0	1833	7	3817	75
42	0	0	1809	8	3818	73
43	0	0	1821	11	3819	75
44	0	0	1855	11	3817	76
45	0	0	1900	10	3816	77
46	0	0	1932	10	3817	76
47	0	0	1949	10	3816	76
48	0	0	1980	9	3817	75
49	0	0	2015	8	3816	75
50	0	0	2067	9	3816	76
51	0	0	2107	6	3818	73
52	0	0	2136	9	3817	71
53	0	0	2131	10	3819	74
54	0	0	2095	6	3816	73
55	0	0	2050	8	3817	71
56	0	0	2009	4	3817	71
57	0	0	1977	9	3818	73
58	0	0	1942	8	3817	72
59	0	0	1899	7	3817	75
60	0	0	1850	7	3816	77
61	0	0	1815	7	3817	71
62	0	0	1791	8	3816	76
63	0	0	1793	11	3818	75
64	0	0	1827	7	3816	76
65	0	0	1877	10	3817	79
66	0	0	1932	6	3818	75
67	0	0	1958	10	3817	73
68	0	0	2006	10	3816	73
69	0	0	2059	10	3820	75
70	0	0	2104	9	3816	75
71	0	0	2140	7	3817	71
72	0	0	2143	8	3818	72
73	0	0	2109	7	3817	73
74	0	0	2076	8	3817	74
75	0	0	2066	10	3818	71
76	0	0	2067	9	3817	71
77	0	0	2052	8	3818	72
78	0	0	2001	6	3817	73
79	0	0	1940	7	3816	74
80	0	0	1903	7	3817	73
81	0	0	1884	9	3818	75
82	0	0	1880	11	3818	77
83	0	0	1885	11	3817	74
84	0	0	1901	10	3816	76
85	0	0	1956	10	3816	77
86	0	0	2022	9	3815	75
87	0	0	2056	11	3817	72
88	0	0	2095	7	3815	76
89	0	0	2151	9	3816	74
90	0	0	2190	10	3817	75
91	0	0	2204	9	3817	72
92	0	0	2172	7	3817	74
93	0	0	2101	7	3815	69
94	0	0	2060	7	3815	69
95	0	0	2061	8	3816	72
96	0	0	2057	7	3815	71
97	0	0	2026	8	3817	72
98	0	0	1975	8	3815	74
99	0	0	1922	8	3816	75
100	0	0	1894	8	3816	75
101	0	0	1895	11	3816	72
102	0	0	1906	10	3817	76
103	0	0	1905	12	3817	78
104	0	0	1917	10	3816	76
105	0	0	1948	10	3816	76
106	0	0	1984	9	3815	73
107	0	0	2008	8	3817	76
108	0	0	2039	9	3817	76
109	0	0	2094	8	3818	76
110	0	0	2159	9	3818	75
111	0	0	2196	10	3817	73
112	0	0	2202	9	3817	73
113	0	0	2173	7	3817	73
114	0	0	2169	10	3816	73
115	0	0	2170	10	3816	72
116	0	0	2143	6	3817	72
117	0	0	2093	8	3816	72
118	0	0	2022	7	3816	72
119	0	0	1969	7	3818	74
120	0	0	1938	8	3816	75
121	0	0	1919	7	3817	75
122	0	0	1920	9	3818	75
123	0	0	1911	10	3817	75
124	0	0	1932	9	3818	75
125	0	0	1992	13	3818	77
126	0	0	2058	9	3817	77
127	0	0	2128	10	3818	75
0	0	0	2180	10	3816	74
1	0	0	2217	8	3818	74
2	0	0	2233	11	3816	75
3	0	0	2208	7	3815	75
4	0	0	2194	10	3817	74
5	0	0	2184	10	3815	73
6	0	0	2180	10	3816	74
7	0	0	2132	7	3817	68
8	0	0	2066	8	3818	75
9	0	0	2014	7	3816	74
10	0	0	1969	8	3817	73
11	0	0	1946	8	3816	75
12	0	0	1933	10	3817	74
13	0	0	1945	10	3819	76
14	0	0	1994	8	3818	75
15	0	0	2043	10	3817	79
16	0	0	2075	9	3816	77
17	0	0	2077	10	3816	76
18	0	0	2078	11	3816	80
19	0	0	2102	11	3816	75
20	0	0	2141	10	3816	79
21	0	0	2199	10	3816	75
22	0	0	2220	7	3816	74
23	0	0	2212	11	3816	72
24	0	0	2217	11	3817	75
25	0	0	2199	10	3816	75
26	0	0	2198	10	3816	74
27	0	0	2203	7	3816	71
28	0	0	2180	8	3817	74
29	0	0	2136	9	3817	75
30	0	0	2090	4	3818	73
31	0	0	2045	8	3817	75
32	0	0	2001	8	3816	76
33	0	0	1980	9	3818	75
34	0	0	1986	11	3817	75
35	0	0	2009	11	3817	79
36	0	0	2052	10	3816	76
37	0	0	2095	9	3816	76
38	0	0	2130	8	3816	75
39	0	0	2159	10	3817	78
40	0	0	2172	10	3816	78
41	0	0	2168	8	3817	75
42	0	0	2167	10	3816	76
43	0	0	2229	8	3816	75
44	0	0	2280	10	3817	73
45	0	0	2281	10	3817	75
46	0	0	2255	8	3816	73
47	0	0	2224	8	3812	76
48	0	0	2177	8	3816	72
49	0	0	2112	8	3817	75
50	0	0	2054	7	3816	77
51	0	0	2034	10	3816	74
52	0	0	2029	11	3816	71
53	0	0	2018	10	3818	77
54	0	0	2027	12	3817	75
55	0	0	2066	11	3818	76
56	0	0	2115	10	3816	75
57	0	0	2135	10	3816	77
58	0	0	2154	8	3814	78
59	0	0	2174	11	3817	73
60	0	0	2191	10	3816	77
61	0	0	2208	11	3816	74
62	0	0	2233	11	3817	75
63	0	0	2251	8	3817	75
64	0	0	2265	8	3818	73
65	0	0	2278	10	3817	77
66	0	0	2262	8	3816	73
67	0	0	2210	7	3816	72
68	0	0	2166	9	3816	76
69	0	0	2149	11	3817	73
70	0	0	2129	9	3816	75
71	0	0	2116	10	3813	75
72	0	0	2094	8	3817	71
73	0	0	2082	11	3818	78
74	0	0	2072	10	3817	75
75	0	0	2063	11	3816	75
76	0	0	2058	12	3816	76
77	0	0	2065	11	3816	77
78	0	0	2075	11	3819	75
79	0	0	2083	10	3818	77
80	0	0	2118	10	3817	75
81	0	0	2159	7	3817	74
82	0	0	2175	9	3816	78
83	0	0	2192	10	3818	78
84	0	0	2205	10	3817	72
85	0	0	2229	10	3815	73
86	0	0	2252	11	3816	73
87	0	0	2240	7	3816	71
88	0	0	2185	8	3816	74
89	0	0	2123	5	3816	72
90	0	0	2077	8	3816	73
91	0	0	2057	9	3816	74
92	0	0	2029	8	3817	72
93	0	0	2010	12	3819	75
94	0	0	2016	8	3817	75
95	0	0	2037	11	3818	75
96	0	0	2070	10	3817	76
97	0	0	2099	10	3817	78
98	0	0	2140	10	3817	75
99	0	0	2176	9	3817	76
100	0	0	2191	11	3816	73
101	0	0	2183	11	3816	75
102	0	0	2177	10	3816	75
103	0	0	2189	14	3816	72
104	0	0	2205	9	3817	73
105	0	0	2199	10	3816	73
106	0	0	2182	9	3816	72
107	0	0	2157	9	3816	74
108	0	0	2129	12	3817	73
109	0	0	2096	8	3818	74
110	0	0	2047	8	3817	72
111	0	0	2011	9	3818	74
112	0	0	1984	8	3818	74
113	0	0	1951	7	3819	75
114	0	0	1929	9	3818	76
115	0	0	1941	11	3818	76
116	0	0	1970	11	3817	75
117	0	0	2003	10	3817	73
118	0	0	2038	10	3817	75
119	0	0	2092	11	3816	79
120	0	0	2137	10	3816	74
121	0	0	2147	12	3816	75
122	0	0	2131	10	3816	74
123	0	0	2121	11	3816	72
124	0	0	2098	6	3817	74
125	0	0	2064	6	3815	70
126	0	0	2024	8	3816	72
127	0	0	1994	8	3816	72
0	0	0	1987	10	3818	75
1	0	0	1976	7	3817	72
2	0	0	1957	9	3817	72
3	0	0	1949	11	3818	75
4	0	0	1940	7	3819	74
5	0	0	1931	11	3816	76
6	0	0	1920	10	3817	75
7	0	0	1924	11	3816	72
8	0	0	1948	7	3816	76
9	0	0	1973	11	3815	73
10	0	0	1995	7	3815	75
11	0	0	2015	10	3817	74
12	0	0	2052	14	3815	74
13	0	0	2093	10	3816	76
14	0	0	2123	10	3816	75
15	0	0	2132	9	3818	75
16	0	0	2130	8	3818	75
17	0	0	2103	7	3817	72
18	0	0	2062	7	3818	74
19	0	0	2017	7	3817	71
20	0	0	1963	7	3817	72
21	0	0	1934	8	3817	74
22	0	0	1921	5	3815	74
23	0	0	1923	11	3816	74
24	0	0	1924	11	3815	72
25	0	0	1920	12	3818	77
26	0	0	1917	10	3816	75
27	0	0	1901	9	3816	76
28	0	0	1884	8	3816	75
29	0	0	1877	10	3815	78
30	0	0	1894	7	3815	75
31	0	0	1935	11	3816	76
32	0	0	1998	11	3815	74
33	0	0	2036	10	3817	75
34	0	0	2071	8	3816	75
35	0	0	2096	7	3817	73
36	0	0	2096	8	3818	75
37	0	0	2066	8	3814	72
38	0	0	2037	7	3815	72
39	0	0	2015	8	3816	71
40	0	0	1995	7	3815	72
41	0	0	1980	8	3817	71
42	0	0	1965	9	3815	72
43	0	0	1935	7	3816	73
44	0	0	1884	8	3815	74
45	0	0	1845	7	3815	73
46	0	0	1835	10	3817	77
47	0	0	1829	7	3817	76
48	0	0	1834	11	3817	76
49	0	0	1863	10	3816	76
50	0	0	1910	11	3817	78
51	0	0	1961	10	3818	77
52	0	0	2010	10	3817	74
53	0	0	2060	10	3819	75
54	0	0	2096	9	3818	71
55	0	0	2129	11	3817	73
56	0	0	2132	9	3818	74
57	0	0	2096	7	3816	74
58	0	0	2044	6	3817	73
59	0	0	1987	6	3816	69
60	0	0	1951	8	3816	71
61	0	0	1932	8	3817	72
62	0	0	1921	8	3813	73
63	0	0	1925	13	3818	74
64	0	0	1925	11	3815	71
65	0	0	1914	11	3817	75
66	0	0	1908	12	3818	77
67	0	0	1926	11	3817	77
68	0	0	1959	11	3817	77
69	0	0	1983	11	3817	75
70	0	0	1990	9	3817	78
71	0	0	1991	11	3818	76
72	0	0	2011	10	3816	76
73	0	0	2044	10	3815	75
74	0	0	2068	7	3815	74
75	0	0	2092	7	3816	74
76	0	0	2103	9	3816	73
77	0	0	2112	10	3818	71
78	0	0	2111	11	3816	73
79	0	0	2073	7	3816	70
80	0	0	2006	4	3817	73
81	0	0	1952	7	3817	71
82	0	0	1899	8	3816	74
83	0	0	1864	11	3818	71
84	0	0	1837	9	3816	72
85	0	0	1814	7	3817	76
86	0	0	1803	12	3818	75
87	0	0	1830	11	3817	75
88	0	0	1879	11	3817	75
89	0	0	1910	10	3815	75
90	0	0	1941	8	3816	77
91	0	0	1986	11	3816	72
92	0	0	2036	10	3817	75
93	0	0	2079	10	3815	74
94	0	0	2098	10	3817	74
95	0	0	2119	11	3817	74
96	0	0	2129	8	3817	74
97	0	0	2131	10	3816	71
98	0	0	2112	7	3817	73
99	0	0	2091	7	3816	72
100	0	0	2076	8	3817	74
101	0	0	2038	8	3817	75
102	0	0	1979	8	3817	71
103	0	0	1929	9	3818	75
104	0	0	1884	8	3816	76
105	0	0	1851	10	3817	75
106	0	0	1868	11	3817	75
107	0	0	1912	11	3816	71
108	0	0	1939	11	3817	74
109	0	0	1954	12	3816	80
110	0	0	1974	9	3816	77
111	0	0	2000	8	3817	74
112	0	0	2054	10	3816	71
113	0	0	2111	10	3816	75
114	0	0	2153	10	3818	75
115	0	0	2176	9	3818	74
116	0	0	2168	9	3818	73
117	0	0	2143	7	3819	73
118	0	0	2092	6	3817	72
119	0	0	2019	8	3817	70
120	0	0	1956	8	3817	75
121	0	0	1908	6	3817	73
122	0	0	1870	8	3816	71
123	0	0	1869	10	3816	74
124	0	0	1884	11	3816	74
125	0	0	1903	12	3816	75
126	0	0	1915	11	3816	75
127	0	0	1918	3	3814	79
0	0	0	1941	11	3816	76
1	0	0	1988	11	3816	77
2	0	0	2026	12	3816	76
3	0	0	2063	10	3818	75
4	0	0	2097	10	3816	71
5	0	0	2119	11	3817	74
6	0	0	2140	5	3815	75
7	0	0	2139	9	3817	71
8	0	0	2118	8	3818	72
9	0	0	2099	8	3817	71
10	0	0	2081	8	3817	71
11	0	0	2070	10	3817	76
12	0	0	2047	4	3816	75
13	0	0	2001	8	3816	74
14	0	0	1943	7	3816	69
15	0	0	1898	8	3816	74
16	0	0	1896	11	3818	75
17	0	0	1906	11	3818	76
18	0	0	1898	9	3817	75
19	0	0	1892	10	3816	71
20	0	0	1920	12	3816	75
21	0	0	1978	9	3817	77
22	0	0	2022	10	3816	78
23	0	0	2049	10	3818	76
24	0	0	2062	10	3817	72
25	0	0	2101	11	3817	74
26	0	0	2134	10	3817	76
27	0	0	2131	12	3816	73
28	0	0	2116	8	3818	72
29	0	0	2082	7	3816	71
30	0	0	2052	8	3816	74
31	0	0	2028	8	3817	71
32	0	0	1999	6	3817	70
33	0	0	1963	8	3817	73
34	0	0	1934	8	3816	72
35	0	0	1910	9	3816	75
36	0	0	1887	7	3817	75
37	0	0	1858	7	3815	73
38	0	0	1850	9	3816	74
39	0	0	1874	7	3817	71
40	0	0	1928	8	3818	76
41	0	0	1996	13	3817	78
42	0	0	2044	11	3816	75
43	0	0	2068	10	3818	75
44	0	0	2089	10	3816	72
45	0	0	2122	8	3817	71
46	0	0	2142	9	3817	74
47	0	0	2135	7	3819	74
48	0	0	2105	4	3816	73
49	0	0	2082	7	3816	72
50	0	0	2058	7	3816	73
51	0	0	2037	8	3816	71
52	0	0	2037	11	3815	70
53	0	0	2024	8	3817	72
54	0	0	1976	7	3816	72
55	0	0	1894	8	3816	73
56	0	0	1833	5	3817	75
57	0	0	1817	14	3816	72
58	0	0	1832	8	3818	77
59	0	0	1868	12	3817	72
60	0	0	1904	9	3818	75
61	0	0	1933	9	3816	75
62	0	0	1940	10	3814	75
63	0	0	1952	11	3817	71
64	0	0	2000	10	3815	74
65	0	0	2057	9	3816	75
66	0	0	2096	9	3818	78
67	0	0	2119	10	3816	73
68	0	0	2153	7	3816	75
69	0	0	2172	10	3816	72
70	0	0	2122	7	3816	70
71	0	0	2049	7	3817	73
72	0	0	2010	8	3818	74
73	0	0	1995	6	3817	73
74	0	0	1975	8	3817	72
75	0	0	1948	8	3816	74
76	0	0	1916	9	3817	74
77	0	0	1894	9	3815	72
78	0	0	1889	11	3817	75
79	0	0	1894	12	3816	74
80	0	0	1896	11	3816	76
81	0	0	1907	12	3816	75
82	0	0	1954	10	3815	76
83	0	0	2012	9	3817	76
84	0	0	2070	10	3816	74
85	0	0	2119	10	3818	76
86	0	0	2123	9	3815	76
87	0	0	2115	10	3814	72
88	0	0	2129	11	3817	74
89	0	0	2130	9	3817	74
90	0	0	2091	7	3817	72
91	0	0	2050	6	3819	71
92	0	0	2016	7	3816	72
93	0	0	1980	7	3817	74
94	0	0	1943	7	3817	74
95	0	0	1905	8	3816	71
96	0	0	1887	8	3816	74
97	0	0	1878	13	3815	73
98	0	0	1881	14	3816	76
99	0	0	1887	10	3816	76
100	0	0	1896	12	3816	76
101	0	0	1927	12	3816	77
102	0	0	1967	11	3815	76
103	0	0	1993	5	3817	75
104	0	0	2032	11	3815	74
105	0	0	2071	9	3816	74
106	0	0	2109	12	3817	74
107	0	0	2120	13	3816	72
108	0	0	2125	10	3818	73
109	0	0	2123	12	3817	72
110	0	0	2112	8	3817	71
111	0	0	2083	8	3816	73
112	0	0	2044	8	3816	74
113	0	0	2000	7	3817	73
114	0	0	1953	9	3816	73
115	0	0	1911	7	3816	73
116	0	0	1887	12	3815	74
117	0	0	1862	7	3815	74
118	0	0	1834	3	3817	75
119	0	0	1840	10	3815	74
120	0	0	1871	10	3816	76
121	0	0	1902	12	3817	75
122	0	0	1939	9	3817	76
123	0	0	1997	15	3817	76
124	0	0	2053	11	3819	75
125	0	0	2093	12	3817	75
126	0	0	2122	10	3817	76
127	0	0	2135	9	3817	73
0	0	0	2137	11	3817	74
1	0	0	2141	10	3818	72
2	0	0	2114	9	3816	72
3	0	0	2101	7	3816	72
4	0	0	2099	10	3817	71
5	0	0	2060	11	3816	71
6	0	0	1996	7	3817	74
7	0	0	1921	8	3816	74
8	0	0	1866	7	3816	76
9	0	0	1841	8	3819	76
10	0	0	1848	13	3817	75
11	0	0	1890	11	3817	75
12	0	0	1957	7	3817	76
13	0	0	2016	7	3817	77
14	0	0	2045	10	3817	78
15	0	0	2057	11	3817	75
16	0	0	2092	10	3816	75
17	0	0	2120	10	3816	73
18	0	0	2120	15	3815	74
19	0	0	2107	9	3818	74
20	0	0	2100	10	3818	74
21	0	0	2099	10	3816	73
22	0	0	2077	5	3817	73
23	0	0	2045	11	3817	72
24	0	0	2025	8	3816	74
25	0	0	1998	8	3817	73
26	0	0	1964	8	3816	73
27	0	0	1932	7	3817	72
28	0	0	1888	9	3817	76
29	0	0	1847	8	3817	77
30	0	0	1840	15	3818	76
31	0	0	1856	11	3816	76
32	0	0	1896	11	3817	76
33	0	0	1944	14	3815	76
34	0	0	1989	11	3816	74
35	0	0	2034	10	3817	75
36	0	0	2077	10	3817	75
37	0	0	2103	7	3816	75
38	0	0	2120	10	3816	75
39	0	0	2132	11	3817	74
40	0	0	2146	13	3817	72
41	0	0	2140	9	3816	73
42	0	0	2108	7	3816	73
43	0	0	2041	5	3817	74
44	0	0	1986	7	3818	76
45	0	0	1948	8	3819	73
46	0	0	1928	8	3817	73
47	0	0	1896	8	3817	72
48	0	0	1864	9	3817	75
49	0	0	1849	8	3819	75
50	0	0	1867	9	3818	75
51	0	0	1898	11	3815	77
52	0	0	1925	11	3815	75
53	0	0	1942	11	3816	77
54	0	0	1970	10	3817	76
55	0	0	2000	9	3816	76
56	0	0	2026	10	3816	76
57	0	0	2066	7	3815	74
58	0	0	2082	14	3815	76
59	0	0	2096	9	3818	75
60	0	0	2100	10	3817	73
61	0	0	2100	10	3816	73
62	0	0	2080	5	3817	74
63	0	0	2051	9	3817	71
64	0	0	2017	8	3817	71
65	0	0	1987	9	3817	73
66	0	0	1980	11	3816	72
67	0	0	1954	5	3817	74
68	0	0	1914	8	3815	74
69	0	0	1887	8	3817	75
70	0	0	1876	9	3817	75
71	0	0	1889	11	3816	74
72	0	0	1915	11	3816	75
73	0	0	1952	12	3816	78
74	0	0	1998	12	3816	77
75	0	0	2052	9	3817	77
76	0	0	2093	10	3817	75
77	0	0	2110	10	3818	75
78	0	0	2120	12	3816	74
79	0	0	2121	10	3818	75
80	0	0	2117	8	3818	73
81	0	0	2109	10	3817	73
82	0	0	2088	5	3818	76
83	0	0	2055	8	3816	71
84	0	0	2019	8	3816	71
85	0	0	1973	6	3816	73
86	0	0	1930	7	3815	74
87	0	0	1901	9	3816	74
88	0	0	1888	12	3816	77
89	0	0	1887	11	3816	72
90	0	0	1888	12	3816	74
91	0	0	1896	12	3816	76
92	0	0	1935	11	3816	75
93	0	0	2000	10	3817	75
94	0	0	2050	9	3817	77
95	0	0	2068	10	3818	78
96	0	0	2088	12	3816	74
97	0	0	2117	9	3819	75
98	0	0	2135	9	3818	74
99	0	0	2136	9	3816	74
100	0	0	2127	8	3818	74
101	0	0	2116	9	3818	73
102	0	0	2101	10	3815	74
103	0	0	2083	8	3816	72
104	0	0	2052	7	3817	72
105	0	0	2033	12	3817	72
106	0	0	2019	8	3816	73
107	0	0	1989	5	3816	74
108	0	0	1963	8	3817	76
109	0	0	1934	10	3816	75
110	0	0	1937	12	3817	71
111	0	0	1975	14	3816	76
112	0	0	2023	10	3818	75
113	0	0	2055	9	3816	76
114	0	0	2067	10	3818	76
115	0	0	2075	12	3817	75
116	0	0	2080	10	3816	75
117	0	0	2097	9	3819	78
118	0	0	2114	9	3816	73
119	0	0	2143	11	3813	73
120	0	0	2166	11	3816	73
121	0	0	2176	10	3816	73
122	0	0	2152	9	3816	75
123	0	0	2100	7	3816	71
124	0	0	2047	7	3817	72
125	0	0	2017	10	3816	72
126	0	0	1990	8	3816	75
127	0	0	1975	10	3819	73
0	0	0	1980	10	3820	75
1	0	0	1983	10	3818	76
2	0	0	1961	10	3817	76
3	0	0	1963	11	3817	75
4	0	0	2002	12	3816	77
5	0	0	2052	10	3816	77
6	0	0	2079	11	3815	76
7	0	0	2106	11	3816	74
8	0	0	2126	10	3816	75
9	0	0	2150	12	3816	59
10	0	0	2181	9	3817	75
11	0	0	2201	11	3815	74
12	0	0	2217	11	3816	73
13	0	0	2229	9	3818	72
14	0	0	2192	5	3817	73
15	0	0	2140	7	3817	72
16	0	0	2100	8	3818	73
17	0	0	2058	8	3817	76
18	0	0	2024	9	3817	74
19	0	0	2007	12	3817	74
20	0	0	1990	4	3817	73
21	0	0	1959	8	3818	75
22	0	0	1951	11	3817	76
23	0	0	1964	11	3816	76
24	0	0	1985	12	3816	78
25	0	0	2006	11	3818	79
26	0	0	2045	10	3819	76
27	0	0	2070	8	3817	76
28	0	0	2093	10	3816	75
29	0	0	2134	10	3817	76
30	0	0	2187	7	3816	73
31	0	0	2198	9	3816	74
32	0	0	2171	7	3817	73
33	0	0	2156	8	3819	72
34	0	0	2135	6	3819	73
35	0	0	2125	11	3817	72
36	0	0	2113	10	3819	74
37	0	0	2083	7	3816	71
38	0	0	2038	6	3816	73
39	0	0	2000	7	3817	74
40	0	0	1979	8	3816	72
41	0	0	1957	8	3819	76
42	0	0	1946	7	3816	77
43	0	0	1959	11	3816	75
44	0	0	1977	12	3817	75
45	0	0	2003	10	3817	79
46	0	0	2023	9	3815	75
47	0	0	2044	7	3816	76
48	0	0	2074	10	3816	75
49	0	0	2100	9	3815	76
50	0	0	2130	10	3819	71
51	0	0	2157	10	3815	74
52	0	0	2160	8	3817	73
53	0	0	2152	8	3817	73
54	0	0	2123	8	3818	73
55	0	0	2101	10	3818	67
56	0	0	2084	9	3815	71
57	0	0	2035	7	3816	73
58	0	0	1970	7	3816	74
59	0	0	1921	6	3817	72
60	0	0	1889	9	3817	71
61	0	0	1881	9	3815	74
62	0	0	1874	11	3817	76
63	0	0	1878	11	3819	74
64	0	0	1899	11	3816	75
65	0	0	1930	10	3816	76
66	0	0	1955	11	3817	76
67	0	0	1997	7	3816	78
68	0	0	2048	10	3818	76
69	0	0	2095	6	3819	74
70	0	0	2125	10	3817	75
71	0	0	2142	11	3818	73
72	0	0	2144	7	3817	73
73	0	0	2134	9	3818	73
74	0	0	2107	8	3816	73
75	0	0	2073	10	3816	72
76	0	0	2020	7	3817	72
77	0	0	1966	3	3817	72
78	0	0	1933	7	3818	73
79	0	0	1890	7	3816	74
80	0	0	1840	5	3817	75
81	0	0	1825	8	3817	76
82	0	0	1825	9	3817	75
83	0	0	1837	10	3816	75
84	0	0	1882	11	3817	75
85	0	0	1934	9	3817	76
86	0	0	1976	10	3815	74
87	0	0	2022	8	3818	77
88	0	0	2053	10	3816	74
89	0	0	2078	10	3816	75
90	0	0	2111	10	3817	71
91	0	0	2118	8	3818	74
92	0	0	2082	3	3817	71
93	0	0	2043	8	3816	73
94	0	0	2021	9	3817	72
95	0	0	2015	10	3817	76
96	0	0	2010	9	3815	73
97	0	0	2014	10	3818	73
98	0	0	2007	9	3816	74
99	0	0	1970	7	3816	75
100	0	0	1927	5	3817	77
101	0	0	1902	8	3817	76
102	0	0	1881	5	3816	75
103	0	0	1858	8	3817	71
104	0	0	1862	10	3817	75
105	0	0	1914	11	3815	76
106	0	0	1966	11	3815	76
107	0	0	2009	8	3816	75
108	0	0	2062	10	3818	76
109	0	0	2107	11	3815	74
110	0	0	2125	9	3817	73
111	0	0	2124	8	3816	73
112	0	0	2141	8	3818	73
113	0	0	2136	8	3816	73
114	0	0	2086	7	3815	72
115	0	0	2033	7	3817	69
116	0	0	1990	7	3817	71
117	0	0	1948	6	3818	74
118	0	0	1893	7	3817	74
119	0	0	1846	7	3817	76
120	0	0	1833	11	3816	74
121	0	0	1859	11	3817	76
122	0	0	1906	8	3817	75
123	0	0	1941	11	3818	75
124	0	0	1964	15	3815	74
125	0	0	1986	10	3817	75
126	0	0	2023	8	3816	77
127	0	0	2087	1	3817	76
0	0	0	2145	9	3816	74
1	0	0	2180	11	3815	74
2	0	0	2179	11	3815	72
3	0	0	2173	10	3816	75
4	0	0	2135	8	3817	74
5	0	0	2070	7	3817	72
6	0	0	2043	8	3817	73
7	0	0	2034	10	3815	72
8	0	0	2013	8	3817	73
9	0	0	1959	4	3816	72
10	0	0	1913	8	3816	74
11	0	0	1906	10	3819	75
12	0	0	1906	12	3816	76
13	0	0	1918	11	3816	76
14	0	0	1929	11	3817	75
15	0	0	1949	11	3816	75
16	0	0	1973	11	3816	75
17	0	0	2006	10	3816	75
18	0	0	2022	10	3816	77
19	0	0	2039	10	3817	76
20	0	0	2072	6	3816	78
21	0	0	2094	8	3817	76
22	0	0	2103	10	3815	74
23	0	0	2091	8	3816	74
24	0	0	2068	8	3818	74
25	0	0	2071	10	3817	75
26	0	0	2115	10	3819	72
27	0	0	2149	10	3817	71
28	0	0	2144	13	3816	71
29	0	0	2140	10	3818	72
30	0	0	2112	8	3815	71
31	0	0	2087	6	3819	73
32	0	0	2076	8	3816	75
33	0	0	2079	11	3817	77
34	0	0	2105	11	3817	76
35	0	0	2180	11	3816	76
36	0	0	2275	11	3816	76
37	0	0	2370	12	3816	75
38	0	0	2459	11	3816	74
39	0	0	2529	8	3816	77
40	0	0	2614	7	3817	74
41	0	0	2706	10	3817	74
42	0	0	2791	10	3817	72
43	0	0	2856	9	3818	74
44	0	0	2915	10	3817	73
45	0	0	2989	10	3818	73
46	0	0	3044	12	3816	72
47	0	0	3068	14	3815	70
48	0	0	3081	11	3816	72
49	0	0	3077	11	3816	72
50	0	0	3042	10	3816	72
51	0	0	3001	8	3817	73
52	0	0	2948	8	3816	71
53	0	0	2891	8	3816	75
54	0	0	2832	6	3816	76
55	0	0	2779	8	3817	76
56	0	0	2721	8	3817	77
57	0	0	2655	7	3817	76
58	0	0	2600	7	3818	74
59	0	0	2563	6	3818	75
60	0	0	2525	6	3816	74
61	0	0	2472	7	3816	75
62	0	0	2430	7	3817	79
63	0	0	2419	11	3816	75
64	0	0	2389	7	3816	73
65	0	0	2324	6	3816	73
66	0	0	2243	7	3816	72
67	0	0	2176	8	3816	71
68	0	0	2111	7	3817	72
69	0	0	2033	7	3816	74
70	0	0	1977	7	3816	72
71	0	0	1934	8	3816	75
72	0	0	1905	8	3817	75
73	0	0	1888	8	3817	75
74	0	0	1871	8	3818	76
75	0	0	1857	9	3818	76
76	0	0	1871	11	3817	77
77	0	0	1913	10	3816	76
78	0	0	1949	9	3816	77
79	0	0	1986	12	3815	75
80	0	0	2028	10	3815	75
81	0	0	2062	9	3816	75
82	0	0	2088	10	3815	74
83	0	0	2095	9	3817	73
84	0	0	2103	9	3817	74
85	0	0	2108	9	3816	74
86	0	0	2101	10	3816	72
87	0	0	2081	7	3817	71
88	0	0	2034	8	3816	70
89	0	0	1971	6	3818	72
90	0	0	1879	7	3817	73
91	0	0	1808	4	3819	73
92	0	0	1775	11	3816	72
93	0	0	1751	8	3818	75
94	0	0	1727	7	3816	77
95	0	0	1731	10	3816	76
96	0	0	1764	12	3816	76
97	0	0	1807	10	3816	78
98	0	0	1864	10	3817	78
99	0	0	1933	12	3816	78
100	0	0	1985	10	3816	75
101	0	0	1995	8	3816	75
102	0	0	1995	9	3817	74
103	0	0	1995	9	3817	72
104	0	0	1991	9	3817	73
105	0	0	1994	10	3816	72
106	0	0	2002	9	3817	73
107	0	0	1982	11	3816	68
108	0	0	1958	7	3818	71
109	0	0	1914	8	3816	72
110	0	0	1860	7	3816	73
111	0	0	1818	8	3816	74
112	0	0	1791	7	3816	75
113	0	0	1759	7	3819	74
114	0	0	1717	8	3816	76
115	0	0	1714	11	3817	75
116	0	0	1748	7	3815	75
117	0	0	1803	10	3816	77
118	0	0	1872	10	3816	75
119	0	0	1917	10	3815	76
120	0	0	1963	12	3816	75
121	0	0	2002	10	3817	76
122	0	0	2020	7	3818	75
123	0	0	2033	9	3819	72
124	0	0	2048	9	3817	74
125	0	0	2075	10	3814	73
126	0	0	2081	9	3816	74
127	0	0	2046	7	3816	71
0	0	0	1986	6	3819	70
1	0	0	1913	9	3816	73
2	0	0	1828	6	3816	72
3	0	0	1767	8	3816	74
4	0	0	1743	7	3818	75
5	0	0	1760	8	3819	74
6	0	0	1778	11	3815	74
7	0	0	1791	16	3815	76
8	0	0	1822	10	3816	76
9	0	0	1855	11	3816	75
10	0	0	1888	8	3819	74
11	0	0	1912	10	3817	76
12	0	0	1958	9	3818	75
13	0	0	2020	7	3817	75
14	0	0	2068	9	3817	74
15	0	0	2093	9	3820	74
16	0	0	2093	9	3817	74
17	0	0	2081	8	3817	73
18	0	0	2073	7	3817	73
19	0	0	2052	7	3816	72
20	0	0	2029	8	3817	73
21	0	0	1985	7	3818	72
22	0	0	1912	7	3817	73
23	0	0	1845	4	3819	73
24	0	0	1791	7	3817	76
25	0	0	1760	8	3818	75
26	0	0	1752	10	3819	76
27	0	0	1778	14	3817	74
28	0	0	1827	12	3815	76
29	0	0	1879	7	3818	77
30	0	0	1939	10	3817	74
31	0	0	1999	11	3816	77
32	0	0	2059	10	3816	75
33	0	0	2105	11	3818	74
34	0	0	2142	11	3817	74
35	0	0	2149	9	3816	72
36	0	0	2119	7	3816	73
37	0	0	2070	6	3816	73
38	0	0	2008	7	3816	72
39	0	0	1946	6	3817	71
40	0	0	1909	8	3817	72
41	0	0	1898	6	3817	73
42	0	0	1858	8	3816	74
43	0	0	1812	9	3816	73
44	0	0	1783	7	3818	74
45	0	0	1807	9	3818	74
46	0	0	1850	10	3819	75
47	0	0	1895	12	3817	76
48	0	0	1917	11	3818	76
49	0	0	1923	10	3818	80
50	0	0	1935	11	3816	76
51	0	0	1964	10	3816	76
52	0	0	2000	9	3816	74
53	0	0	2053	8	3817	74
54	0	0	2114	9	3815	74
55	0	0	2156	10	3817	74
56	0	0	2170	9	3818	73
57	0	0	2159	10	3816	73
58	0	0	2162	11	3815	72
59	0	0	2153	8	3819	72
60	0	0	2090	7	3817	70
61	0	0	2003	7	3819	73
62	0	0	1931	7	3817	73
63	0	0	1867	9	3815	73
64	0	0	1811	6	3818	75
65	0	0	1803	10	3819	75
66	0	0	1825	11	3817	76
67	0	0	1863	11	3817	76
68	0	0	1920	10	3818	77
69	0	0	1967	10	3816	77
70	0	0	1983	11	3817	77
71	0	0	1996	10	3817	77
72	0	0	2057	10	3816	74
73	0	0	2118	10	3817	72
74	0	0	2141	9	3817	75
75	0	0	2145	9	3815	74
76	0	0	2146	10	3816	73
77	0	0	2151	9	3817	73
78	0	0	2133	5	3816	76
79	0	0	2085	6	3817	71
80	0	0	2033	7	3816	74
81	0	0	1994	8	3817	72
82	0	0	1975	7	3817	74
83	0	0	1951	7	3818	78
84	0	0	1929	8	3817	74
85	0	0	1923	11	3818	75
86	0	0	1930	11	3816	76
87	0	0	1948	11	3817	76
88	0	0	1984	14	3815	76
89	0	0	1997	11	3816	77
90	0	0	1992	10	3817	75
91	0	0	2009	10	3817	75
92	0	0	2061	11	3817	75
93	0	0	2112	10	3817	75
94	0	0	2168	10	3818	74
95	0	0	2215	9	3817	73
96	0	0	2241	10	3816	73
97	0	0	2234	10	3817	73
98	0	0	2196	3	3818	76
99	0	0	2154	7	3817	71
100	0	0	2119	8	3817	71
101	0	0	2093	7	3817	73
102	0	0	2058	8	3816	74
103	0	0	2011	7	3817	72
104	0	0	1948	7	3816	75
105	0	0	1901	7	3817	75
106	0	0	1887	10	3814	75
107	0	0	1912	10	3816	75
108	0	0	1953	10	3815	76
109	0	0	2010	10	3823	77
110	0	0	2081	11	3817	71
111	0	0	2153	9	3816	75
112	0	0	2205	11	3817	76
113	0	0	2234	10	3817	75
114	0	0	2257	9	3818	74
115	0	0	2270	11	3817	71
116	0	0	2255	9	3814	73
117	0	0	2233	8	3818	73
118	0	0	2208	8	3815	72
119	0	0	2189	9	3817	72
120	0	0	2162	7	3816	71
121	0	0	2102	7	3814	72
122	0	0	2038	8	3816	74
123	0	0	1995	8	3816	75
124	0	0	1954	7	3817	75
125	0	0	1929	9	3817	74
126	0	0	1936	10	3816	76
127	0	0	1962	12	3816	76
0	0	0	1999	7	3819	79
1	0	0	2016	12	3818	78
2	0	0	2030	9	3816	75
3	0	0	2086	10	3816	76
4	0	0	2150	12	3816	76
5	0	0	2194	8	3818	75
6	0	0	2224	10	3816	75
7	0	0	2244	11	3816	71
8	0	0	2239	9	3817	73
9	0	0	2210	7	3816	73
10	0	0	2197	10	3817	72
11	0	0	2187	8	3816	69
12	0	0	2149	8	3817	69
13	0	0	2110	8	3815	72
14	0	0	2071	8	3816	73
15	0	0	2022	3	3819	77
16	0	0	2003	9	3817	75
17	0	0	1997	10	3818	75
18	0	0	1971	8	3816	74
19	0	0	1964	12	3817	75
20	0	0	1981	11	3818	76
21	0	0	2016	10	3816	78
22	0	0	2063	10	3817	77
23	0	0	2123	10	3815	77
24	0	0	2191	10	3817	75
25	0	0	2252	11	3815	75
26	0	0	2276	9	3817	74
27	0	0	2272	9	3816	70
28	0	0	2262	12	3816	75
29	0	0	2264	10	3815	73
30	0	0	2244	7	3816	72
31	0	0	2205	7	3814	73
32	0	0	2164	7	3817	69
33	0	0	2107	6	3819	73
34	0	0	2032	7	3817	72
35	0	0	1982	7	3818	72
36	0	0	1955	9	3815	74
37	0	0	1937	11	3817	73
38	0	0	1954	11	3816	77
39	0	0	1968	10	3816	75
40	0	0	1960	13	3817	77
41	0	0	1979	9	3815	76
42	0	0	2020	10	3816	75
43	0	0	2048	9	3815	75
44	0	0	2082	9	3816	76
45	0	0	2129	10	3817	77
46	0	0	2171	9	3816	75
47	0	0	2202	11	3817	72
48	0	0	2241	8	3818	74
49	0	0	2248	9	3817	73
50	0	0	2218	7	3816	74
51	0	0	2168	6	3815	70
52	0	0	2118	6	3817	69
53	0	0	2068	7	3815	71
54	0	0	2000	7	3815	72
55	0	0	1923	7	3818	75
56	0	0	1873	8	3816	75
57	0	0	1861	11	3817	76
58	0	0	1882	11	3815	75
59	0	0	1918	11	3816	75
60	0	0	1944	10	3819	77
61	0	0	1979	10	3816	75
62	0	0	2032	10	3815	73
63	0	0	2071	3	3812	76
64	0	0	2106	10	3816	75
65	0	0	2141	9	3816	75
66	0	0	2172	10	3816	75
67	0	0	2204	9	3816	72
68	0	0	2217	9	3818	73
69	0	0	2198	7	3817	74
70	0	0	2147	6	3816	73
71	0	0	2069	6	3816	71
72	0	0	2002	7	3815	70
73	0	0	1955	8	3816	71
74	0	0	1916	7	3816	73
75	0	0	1866	8	3816	75
76	0	0	1818	7	3816	75
77	0	0	1811	11	3816	72
78	0	0	1828	11	3815	75
79	0	0	1845	11	3816	76
80	0	0	1882	10	3816	76
81	0	0	1935	10	3816	77
82	0	0	1985	10	3816	74
83	0	0	2016	10	3817	75
84	0	0	2041	10	3818	76
