# bioPlux Text File Format
# Version: 1
# StartDateTime: 2011-07-18 11:02:36
# SamplingFrequency: 1000
# SampledChannels: 1 2 3 4
# SamplingResolution: 12
# AcquiringDevice: 00:07:80:42:0F:8B
# EndOfHeader
0	0	0	2198	987	1365	28
1	0	0	2153	988	1368	29
2	0	0	2090	987	1375	30
3	0	0	2022	988	1380	28
4	0	0	1970	986	1383	29
5	0	0	1933	988	1383	30
6	0	0	1910	989	1379	29
7	0	0	1894	989	1370	29
8	0	0	1883	992	1363	28
9	0	0	1900	990	1361	28
10	0	0	1935	991	1365	29
11	0	0	1974	991	1368	29
12	0	0	2023	989	1374	29
13	0	0	2070	992	1380	27
14	0	0	2113	991	1383	28
15	0	0	2151	990	1385	29
16	0	0	2181	990	1380	29
17	0	0	2204	991	1371	29
18	0	0	2237	991	1364	28
19	0	0	2230	990	1362	28
20	0	0	2194	989	1365	29
21	0	0	2150	988	1368	28
22	0	0	2088	988	1374	29
23	0	0	2024	988	1379	29
24	0	0	1979	988	1382	28
25	0	0	1943	987	1383	29
26	0	0	1920	987	1380	29
27	0	0	1903	988	1369	28
28	0	0	1879	989	1362	28
29	0	0	1884	991	1360	27
30	0	0	1915	991	1360	28
31	0	0	1951	991	1368	29
32	0	0	1996	991	1374	29
33	0	0	2042	992	1379	29
34	0	0	2089	991	1383	30
35	0	0	2133	990	1381	28
36	0	0	2161	990	1378	29
37	0	0	2192	992	1370	30
38	0	0	2236	991	1363	28
39	0	0	2240	990	1361	27
40	0	0	2209	987	1363	29
41	0	0	2170	987	1368	29
42	0	0	2105	987	1373	29
43	0	0	2039	987	1378	29
44	0	0	1992	986	1382	26
45	0	0	1955	988	1381	29
46	0	0	1932	989	1378	28
47	0	0	1909	985	1369	28
48	0	0	1886	988	1361	28
49	0	0	1893	990	1360	28
50	0	0	1923	991	1362	27
51	0	0	1954	990	1366	29
52	0	0	1992	987	1372	29
53	0	0	2036	991	1378	28
54	0	0	2081	989	1381	29
55	0	0	2121	991	1381	29
56	0	0	2151	990	1378	29
57	0	0	2186	988	1369	29
58	0	0	2227	989	1362	28
59	0	0	2235	991	1360	27
60	0	0	2212	988	1363	32
61	0	0	2176	987	1368	29
62	0	0	2119	985	1373	30
63	0	0	2061	986	1377	28
64	0	0	2020	987	1381	28
65	0	0	1976	987	1381	24
66	0	0	1942	989	1378	29
67	0	0	1920	987	1368	28
68	0	0	1892	988	1360	29
69	0	0	1897	991	1359	30
70	0	0	1924	990	1361	27
71	0	0	1956	990	1366	30
72	0	0	1993	989	1371	28
73	0	0	2030	989	1377	29
74	0	0	2072	991	1379	28
75	0	0	2109	990	1381	32
76	0	0	2144	991	1378	30
77	0	0	2178	988	1368	29
78	0	0	2226	991	1361	28
79	0	0	2232	989	1361	25
80	0	0	2207	988	1362	32
81	0	0	2178	988	1367	27
82	0	0	2124	984	1372	30
83	0	0	2065	987	1377	28
84	0	0	2017	988	1380	29
85	0	0	1981	985	1380	29
86	0	0	1952	988	1378	29
87	0	0	1928	986	1367	29
88	0	0	1902	988	1360	28
89	0	0	1906	991	1357	28
90	0	0	1924	990	1360	27
91	0	0	1947	990	1367	29
92	0	0	1988	988	1370	29
93	0	0	2027	990	1376	30
94	0	0	2072	989	1380	28
95	0	0	2115	992	1381	29
96	0	0	2145	991	1375	27
97	0	0	2176	990	1369	29
98	0	0	2225	990	1361	28
99	0	0	2233	991	1358	29
100	0	0	2217	987	1361	28
101	0	0	2187	987	1367	29
102	0	0	2133	986	1371	30
103	0	0	2072	986	1376	31
104	0	0	2026	985	1378	28
105	0	0	1985	985	1379	29
106	0	0	1951	986	1375	29
107	0	0	1928	987	1367	28
108	0	0	1902	985	1359	30
109	0	0	1901	991	1356	28
110	0	0	1923	989	1360	32
111	0	0	1950	990	1366	29
112	0	0	1983	989	1370	28
113	0	0	2021	989	1376	28
114	0	0	2066	989	1379	29
115	0	0	2115	989	1379	32
116	0	0	2145	989	1375	29
117	0	0	2178	988	1367	29
118	0	0	2225	990	1360	28
119	0	0	2231	989	1359	28
120	0	0	2212	988	1360	32
121	0	0	2180	987	1365	28
122	0	0	2129	985	1370	29
123	0	0	2075	986	1376	29
124	0	0	2028	986	1378	29
125	0	0	1984	986	1378	29
126	0	0	1950	987	1375	30
127	0	0	1926	986	1366	28
0	0	0	1901	987	1358	28
1	0	0	1906	989	1357	28
2	0	0	1931	989	1359	32
3	0	0	1953	989	1361	29
4	0	0	1991	989	1369	29
5	0	0	2031	990	1375	29
6	0	0	2075	987	1379	28
7	0	0	2111	989	1379	31
8	0	0	2146	989	1375	30
9	0	0	2179	988	1367	29
10	0	0	2222	989	1359	30
11	0	0	2230	990	1358	29
12	0	0	2211	988	1358	28
13	0	0	2182	987	1365	29
14	0	0	2133	986	1370	30
15	0	0	2075	986	1375	29
16	0	0	2030	986	1377	28
17	0	0	1992	986	1378	29
18	0	0	1954	986	1375	29
19	0	0	1927	986	1365	28
20	0	0	1903	986	1357	30
21	0	0	1905	989	1356	30
22	0	0	1925	988	1356	28
23	0	0	1947	990	1363	30
24	0	0	1978	988	1369	29
25	0	0	2019	989	1374	29
26	0	0	2064	987	1379	29
27	0	0	2108	988	1377	30
28	0	0	2139	989	1374	29
29	0	0	2172	989	1366	29
30	0	0	2215	990	1358	31
31	0	0	2229	989	1358	28
32	0	0	2215	988	1359	31
33	0	0	2185	986	1364	29
34	0	0	2135	986	1369	29
35	0	0	2077	985	1374	29
36	0	0	2027	984	1376	27
37	0	0	1990	988	1376	27
38	0	0	1960	987	1372	28
39	0	0	1934	986	1364	27
40	0	0	1905	986	1357	28
41	0	0	1904	989	1356	28
42	0	0	1923	990	1357	28
43	0	0	1947	988	1362	29
44	0	0	1980	989	1367	29
45	0	0	2021	990	1374	29
46	0	0	2066	988	1378	29
47	0	0	2109	989	1378	27
48	0	0	2145	986	1374	29
49	0	0	2173	989	1365	29
50	0	0	2220	989	1358	28
51	0	0	2232	989	1357	29
52	0	0	2215	990	1358	26
53	0	0	2189	986	1361	26
54	0	0	2139	986	1367	28
55	0	0	2084	985	1373	31
56	0	0	2037	985	1376	29
57	0	0	1994	985	1375	31
58	0	0	1959	984	1371	28
59	0	0	1933	985	1364	28
60	0	0	1900	986	1357	27
61	0	0	1897	988	1355	29
62	0	0	1916	988	1357	29
63	0	0	1948	988	1361	29
64	0	0	1980	987	1366	28
65	0	0	2020	989	1373	29
66	0	0	2064	987	1378	29
67	0	0	2104	988	1378	30
68	0	0	2136	989	1374	27
69	0	0	2163	989	1365	28
70	0	0	2208	989	1358	29
71	0	0	2221	991	1355	28
72	0	0	2211	988	1359	27
73	0	0	2188	985	1362	27
74	0	0	2140	985	1368	28
75	0	0	2084	984	1373	29
76	0	0	2035	985	1376	28
77	0	0	1993	987	1376	28
78	0	0	1954	985	1373	27
79	0	0	1926	984	1363	28
80	0	0	1901	985	1356	27
81	0	0	1900	987	1354	29
82	0	0	1919	987	1357	29
83	0	0	1945	989	1362	27
84	0	0	1980	988	1368	28
85	0	0	2018	988	1373	29
86	0	0	2060	991	1376	28
87	0	0	2105	989	1376	27
88	0	0	2142	988	1374	27
89	0	0	2172	987	1363	29
90	0	0	2219	988	1357	28
91	0	0	2230	989	1355	28
92	0	0	2209	987	1357	28
93	0	0	2185	986	1361	27
94	0	0	2131	985	1367	29
95	0	0	2079	984	1372	25
96	0	0	2033	984	1375	30
97	0	0	1990	983	1375	29
98	0	0	1958	985	1372	28
99	0	0	1931	984	1362	27
100	0	0	1903	984	1355	28
101	0	0	1897	988	1354	28
102	0	0	1909	987	1356	29
103	0	0	1937	987	1359	28
104	0	0	1976	987	1365	28
105	0	0	2020	988	1372	29
106	0	0	2061	989	1375	28
107	0	0	2104	987	1375	29
108	0	0	2142	988	1373	29
109	0	0	2169	987	1363	29
110	0	0	2218	987	1357	29
111	0	0	2232	988	1355	28
112	0	0	2213	986	1358	28
113	0	0	2184	985	1361	28
114	0	0	2131	984	1365	29
115	0	0	2079	984	1372	28
116	0	0	2029	984	1375	30
117	0	0	1989	984	1374	29
118	0	0	1954	985	1371	28
119	0	0	1923	983	1363	28
120	0	0	1893	984	1355	29
121	0	0	1889	987	1353	27
122	0	0	1905	986	1354	28
123	0	0	1929	987	1361	26
124	0	0	1967	986	1365	29
125	0	0	2007	987	1371	28
126	0	0	2055	988	1373	28
127	0	0	2101	987	1373	28
0	0	0	2136	987	1372	30
1	0	0	2168	987	1364	27
2	0	0	2218	987	1356	29
3	0	0	2232	989	1354	28
4	0	0	2213	987	1357	26
5	0	0	2185	985	1363	27
6	0	0	2134	984	1366	28
7	0	0	2079	983	1371	31
8	0	0	2031	983	1373	29
9	0	0	1990	984	1374	30
10	0	0	1954	984	1371	29
11	0	0	1921	984	1363	28
12	0	0	1889	984	1354	28
13	0	0	1887	986	1352	28
14	0	0	1907	985	1353	27
15	0	0	1941	987	1360	29
16	0	0	1979	987	1365	27
17	0	0	2023	987	1371	29
18	0	0	2065	989	1374	30
19	0	0	2108	987	1375	30
20	0	0	2145	987	1371	28
21	0	0	2178	986	1363	28
22	0	0	2222	987	1356	28
23	0	0	2238	987	1355	31
24	0	0	2220	986	1355	29
25	0	0	2194	984	1362	29
26	0	0	2139	983	1366	30
27	0	0	2084	983	1370	29
28	0	0	2037	983	1373	29
29	0	0	1993	983	1374	30
30	0	0	1955	983	1370	29
31	0	0	1923	983	1360	29
32	0	0	1893	984	1353	28
33	0	0	1890	986	1351	28
34	0	0	1912	986	1354	28
35	0	0	1941	987	1359	28
36	0	0	1979	986	1366	28
37	0	0	2019	987	1370	28
38	0	0	2062	985	1374	29
39	0	0	2102	987	1375	30
40	0	0	2141	987	1371	28
41	0	0	2173	986	1362	29
42	0	0	2221	988	1355	30
43	0	0	2234	988	1352	28
44	0	0	2218	984	1354	28
45	0	0	2187	984	1359	30
46	0	0	2135	983	1366	28
47	0	0	2081	983	1369	28
48	0	0	2032	984	1370	28
49	0	0	1991	984	1372	28
50	0	0	1954	983	1370	30
51	0	0	1924	982	1362	26
52	0	0	1892	983	1353	28
53	0	0	1890	986	1352	28
54	0	0	1913	986	1353	32
55	0	0	1936	985	1358	27
56	0	0	1967	986	1364	28
57	0	0	2007	987	1369	28
58	0	0	2062	986	1373	31
59	0	0	2102	986	1373	30
60	0	0	2140	986	1371	31
61	0	0	2172	986	1363	28
62	0	0	2225	986	1354	28
63	0	0	2239	986	1352	28
64	0	0	2225	985	1354	28
65	0	0	2198	982	1359	29
66	0	0	2144	982	1366	28
67	0	0	2082	982	1369	29
68	0	0	2034	984	1370	28
69	0	0	1991	982	1374	30
70	0	0	1952	983	1370	31
71	0	0	1921	982	1361	30
72	0	0	1888	983	1352	28
73	0	0	1885	986	1350	28
74	0	0	1908	984	1352	28
75	0	0	1938	985	1359	30
76	0	0	1973	986	1365	28
77	0	0	2015	985	1367	28
78	0	0	2061	986	1372	29
79	0	0	2105	986	1374	30
80	0	0	2138	986	1369	31
81	0	0	2174	987	1362	29
82	0	0	2224	985	1353	28
83	0	0	2235	987	1351	28
84	0	0	2218	984	1354	28
85	0	0	2186	983	1359	31
86	0	0	2138	982	1365	28
87	0	0	2077	984	1369	29
88	0	0	2032	979	1370	31
89	0	0	1992	983	1371	29
90	0	0	1957	982	1367	30
91	0	0	1929	982	1359	28
92	0	0	1898	983	1351	28
93	0	0	1894	984	1349	31
94	0	0	1910	986	1352	28
95	0	0	1939	986	1357	29
96	0	0	1973	985	1361	29
97	0	0	2016	985	1368	29
98	0	0	2063	986	1371	29
99	0	0	2105	986	1370	29
100	0	0	2142	986	1368	29
101	0	0	2172	986	1359	29
102	0	0	2224	986	1353	28
103	0	0	2237	986	1351	27
104	0	0	2217	984	1353	28
105	0	0	2189	982	1357	29
106	0	0	2137	982	1363	28
107	0	0	2078	981	1367	28
108	0	0	2027	982	1370	30
109	0	0	1987	983	1371	29
110	0	0	1952	982	1368	29
111	0	0	1928	981	1357	29
112	0	0	1898	983	1351	28
113	0	0	1892	987	1349	26
114	0	0	1910	986	1350	27
115	0	0	1938	985	1355	26
116	0	0	1972	984	1361	29
117	0	0	2015	984	1367	29
118	0	0	2064	985	1371	31
119	0	0	2109	986	1371	29
120	0	0	2142	986	1368	26
121	0	0	2176	986	1359	30
122	0	0	2226	986	1352	29
123	0	0	2240	983	1349	31
124	0	0	2215	982	1352	27
125	0	0	2187	983	1357	26
126	0	0	2140	981	1361	28
127	0	0	2081	981	1367	29
0	0	0	2031	981	1369	29
1	0	0	1988	981	1370	32
2	0	0	1956	982	1366	26
3	0	0	1932	981	1357	27
4	0	0	1903	982	1350	28
5	0	0	1895	981	1348	29
6	0	0	1912	984	1348	27
7	0	0	1937	984	1356	25
8	0	0	1971	984	1360	28
9	0	0	2011	985	1366	28
10	0	0	2056	985	1369	26
11	0	0	2098	985	1369	28
12	0	0	2134	984	1367	27
13	0	0	2167	984	1358	29
14	0	0	2217	984	1351	28
15	0	0	2230	983	1349	28
16	0	0	2220	986	1352	26
17	0	0	2193	983	1355	32
18	0	0	2141	981	1360	28
19	0	0	2082	981	1366	29
20	0	0	2032	980	1369	29
21	0	0	1991	982	1368	28
22	0	0	1956	981	1365	27
23	0	0	1926	981	1356	29
24	0	0	1901	982	1349	28
25	0	0	1898	984	1348	27
26	0	0	1916	984	1350	27
27	0	0	1944	985	1356	24
28	0	0	1978	984	1360	28
29	0	0	2018	984	1366	28
30	0	0	2055	984	1370	31
31	0	0	2095	984	1369	29
32	0	0	2130	985	1367	29
33	0	0	2164	984	1357	29
34	0	0	2214	985	1350	28
35	0	0	2228	983	1350	29
36	0	0	2212	983	1351	27
37	0	0	2185	982	1355	28
38	0	0	2135	981	1360	27
39	0	0	2079	980	1366	29
40	0	0	2029	981	1368	29
41	0	0	1986	981	1368	27
42	0	0	1952	981	1365	26
43	0	0	1928	981	1355	26
44	0	0	1905	982	1349	27
45	0	0	1907	984	1348	28
46	0	0	1921	985	1349	28
47	0	0	1939	984	1354	28
48	0	0	1971	984	1360	28
49	0	0	2011	984	1365	28
50	0	0	2056	983	1369	29
51	0	0	2093	984	1369	28
52	0	0	2133	984	1366	32
53	0	0	2167	985	1357	29
54	0	0	2217	983	1350	28
55	0	0	2228	983	1347	27
56	0	0	2214	982	1350	28
57	0	0	2185	981	1356	25
58	0	0	2130	981	1360	25
59	0	0	2075	980	1365	28
60	0	0	2027	979	1368	29
61	0	0	1986	981	1368	28
62	0	0	1950	981	1365	32
63	0	0	1932	981	1356	28
64	0	0	1904	981	1348	27
65	0	0	1901	984	1346	30
66	0	0	1920	984	1348	27
67	0	0	1943	984	1354	26
68	0	0	1979	984	1359	28
69	0	0	2019	983	1365	29
70	0	0	2063	984	1368	29
71	0	0	2098	985	1368	29
72	0	0	2133	982	1367	28
73	0	0	2168	984	1357	29
74	0	0	2212	984	1349	28
75	0	0	2226	984	1348	28
76	0	0	2218	984	1350	28
77	0	0	2192	982	1355	28
78	0	0	2144	980	1359	27
79	0	0	2088	981	1365	29
80	0	0	2035	979	1367	28
81	0	0	1992	980	1367	29
82	0	0	1960	981	1365	28
83	0	0	1931	979	1356	28
84	0	0	1898	980	1348	28
85	0	0	1892	983	1346	27
86	0	0	1910	983	1348	25
87	0	0	1937	983	1354	26
88	0	0	1969	983	1359	29
89	0	0	2008	983	1364	28
90	0	0	2053	982	1368	29
91	0	0	2098	983	1368	29
92	0	0	2137	983	1365	28
93	0	0	2172	983	1358	28
94	0	0	2217	984	1350	27
95	0	0	2234	984	1348	28
96	0	0	2221	983	1350	27
97	0	0	2194	981	1354	28
98	0	0	2141	980	1360	29
99	0	0	2088	980	1365	29
100	0	0	2038	980	1366	28
101	0	0	1996	980	1367	29
102	0	0	1957	980	1364	30
103	0	0	1929	980	1356	31
104	0	0	1891	981	1348	28
105	0	0	1889	982	1346	26
106	0	0	1911	982	1348	28
107	0	0	1936	983	1353	30
108	0	0	1974	983	1359	29
109	0	0	2012	982	1364	28
110	0	0	2055	984	1368	29
111	0	0	2099	983	1368	26
112	0	0	2138	983	1365	31
113	0	0	2173	984	1358	29
114	0	0	2225	983	1349	28
115	0	0	2242	983	1347	31
116	0	0	2226	983	1351	29
117	0	0	2198	980	1354	28
118	0	0	2150	979	1359	27
119	0	0	2099	980	1365	26
120	0	0	2040	980	1365	28
121	0	0	1992	981	1367	29
122	0	0	1953	980	1364	31
123	0	0	1924	979	1355	28
124	0	0	1888	980	1348	30
125	0	0	1887	981	1345	26
126	0	0	1904	983	1349	24
127	0	0	1932	982	1353	31
0	0	0	1974	982	1359	28
1	0	0	2013	984	1364	28
2	0	0	2061	983	1368	27
3	0	0	2106	985	1369	30
4	0	0	2139	982	1365	28
5	0	0	2170	983	1359	29
6	0	0	2216	983	1349	27
7	0	0	2228	982	1348	27
8	0	0	2220	983	1349	28
9	0	0	2197	981	1354	28
10	0	0	2142	979	1359	28
11	0	0	2085	979	1364	29
12	0	0	2039	978	1368	30
13	0	0	1994	980	1368	29
14	0	0	1955	979	1364	31
15	0	0	1926	978	1356	28
16	0	0	1893	980	1348	28
17	0	0	1887	981	1346	27
18	0	0	1907	982	1349	28
19	0	0	1935	983	1354	29
20	0	0	1971	983	1359	28
21	0	0	2007	982	1364	27
22	0	0	2053	982	1368	29
23	0	0	2098	982	1370	28
24	0	0	2136	984	1365	27
25	0	0	2170	982	1357	28
26	0	0	2217	982	1350	29
27	0	0	2226	982	1348	28
28	0	0	2213	982	1351	25
29	0	0	2189	979	1353	27
30	0	0	2140	978	1359	25
31	0	0	2082	979	1363	28
32	0	0	2032	980	1367	28
33	0	0	1987	978	1367	29
34	0	0	1958	979	1365	30
35	0	0	1932	977	1354	29
36	0	0	1901	979	1348	28
37	0	0	1894	981	1346	27
38	0	0	1912	982	1350	25
39	0	0	1938	981	1353	29
40	0	0	1973	982	1359	29
41	0	0	2015	982	1364	29
42	0	0	2053	982	1367	30
43	0	0	2097	982	1368	27
44	0	0	2132	983	1365	29
45	0	0	2170	982	1357	29
46	0	0	2218	982	1349	28
47	0	0	2231	982	1348	29
48	0	0	2215	981	1350	30
49	0	0	2188	979	1354	28
50	0	0	2139	980	1358	29
51	0	0	2083	978	1365	28
52	0	0	2035	979	1367	28
53	0	0	1994	977	1367	28
54	0	0	1960	979	1364	27
55	0	0	1932	978	1355	30
56	0	0	1900	979	1348	28
57	0	0	1895	980	1347	29
58	0	0	1911	981	1347	27
59	0	0	1934	982	1353	28
60	0	0	1969	981	1357	30
61	0	0	2014	981	1364	29
62	0	0	2056	981	1369	31
63	0	0	2096	980	1368	31
64	0	0	2131	980	1365	28
65	0	0	2166	983	1358	28
66	0	0	2218	983	1350	27
67	0	0	2236	981	1348	32
68	0	0	2223	981	1349	27
69	0	0	2198	980	1354	27
70	0	0	2142	978	1358	27
71	0	0	2084	978	1365	30
72	0	0	2034	975	1368	28
73	0	0	1991	975	1368	28
74	0	0	1954	979	1364	28
75	0	0	1927	978	1354	28
76	0	0	1890	978	1347	28
77	0	0	1885	981	1347	30
78	0	0	1902	980	1348	30
79	0	0	1933	981	1353	25
80	0	0	1973	981	1358	28
81	0	0	2017	981	1364	28
82	0	0	2061	982	1368	30
83	0	0	2107	981	1369	30
84	0	0	2138	980	1365	30
85	0	0	2175	982	1358	28
86	0	0	2218	981	1349	28
87	0	0	2230	981	1347	30
88	0	0	2222	980	1349	27
89	0	0	2194	978	1354	27
90	0	0	2139	978	1359	29
91	0	0	2087	977	1364	29
92	0	0	2036	978	1367	29
93	0	0	1991	976	1367	29
94	0	0	1953	978	1365	25
95	0	0	1923	978	1353	32
96	0	0	1895	978	1348	28
97	0	0	1892	981	1346	27
98	0	0	1913	978	1348	27
99	0	0	1938	980	1353	28
100	0	0	1970	980	1359	28
101	0	0	2015	981	1365	28
102	0	0	2061	981	1366	28
103	0	0	2107	978	1368	28
104	0	0	2138	981	1366	31
105	0	0	2174	981	1356	27
106	0	0	2222	982	1349	29
107	0	0	2235	982	1347	27
108	0	0	2223	979	1349	27
109	0	0	2195	978	1355	25
110	0	0	2143	977	1358	29
111	0	0	2086	978	1364	27
112	0	0	2033	977	1367	29
113	0	0	1992	977	1367	31
114	0	0	1956	978	1364	28
115	0	0	1929	977	1355	27
116	0	0	1895	978	1348	27
117	0	0	1894	980	1346	26
118	0	0	1916	981	1348	27
119	0	0	1932	981	1353	28
120	0	0	1972	980	1359	28
121	0	0	2011	979	1364	28
122	0	0	2055	981	1367	31
123	0	0	2098	978	1368	28
124	0	0	2134	982	1366	32
125	0	0	2169	980	1356	27
126	0	0	2217	980	1350	29
127	0	0	2232	980	1348	28
0	0	0	2217	978	1350	28
1	0	0	2192	978	1354	28
2	0	0	2138	977	1358	29
3	0	0	2083	978	1364	29
4	0	0	2030	977	1367	27
5	0	0	1992	976	1367	29
6	0	0	1960	977	1364	31
7	0	0	1935	977	1356	28
8	0	0	1902	975	1347	27
9	0	0	1901	981	1345	27
10	0	0	1917	979	1348	28
11	0	0	1936	980	1353	28
12	0	0	1972	978	1358	28
13	0	0	2013	979	1364	29
14	0	0	2062	980	1369	30
15	0	0	2106	982	1368	29
16	0	0	2143	980	1365	30
17	0	0	2174	980	1357	28
18	0	0	2221	982	1350	28
19	0	0	2230	982	1348	27
20	0	0	2217	979	1350	28
21	0	0	2187	978	1354	29
22	0	0	2137	977	1359	28
23	0	0	2081	979	1363	28
24	0	0	2034	977	1368	26
25	0	0	1991	979	1368	29
26	0	0	1961	978	1364	28
27	0	0	1934	977	1356	28
28	0	0	1898	976	1348	28
29	0	0	1891	980	1345	31
30	0	0	1910	979	1348	28
31	0	0	1944	980	1352	30
32	0	0	1981	979	1359	28
33	0	0	2021	979	1364	28
34	0	0	2063	980	1368	29
35	0	0	2105	979	1368	29
36	0	0	2142	981	1366	31
37	0	0	2177	980	1357	30
38	0	0	2226	983	1349	27
39	0	0	2241	980	1348	27
40	0	0	2223	978	1350	29
41	0	0	2195	976	1354	29
42	0	0	2137	976	1359	28
43	0	0	2079	976	1364	29
44	0	0	2035	976	1364	27
45	0	0	1991	976	1368	27
46	0	0	1955	977	1364	29
47	0	0	1930	976	1355	31
48	0	0	1898	979	1346	27
49	0	0	1899	980	1345	27
50	0	0	1918	979	1348	27
51	0	0	1941	979	1352	28
52	0	0	1971	978	1358	29
53	0	0	2010	979	1364	29
54	0	0	2056	980	1367	29
55	0	0	2098	979	1368	29
56	0	0	2136	980	1365	28
57	0	0	2169	980	1357	31
58	0	0	2217	980	1350	28
59	0	0	2231	980	1348	25
60	0	0	2216	982	1350	27
61	0	0	2195	976	1353	28
62	0	0	2144	976	1358	31
63	0	0	2084	979	1363	28
64	0	0	2037	976	1367	30
65	0	0	1996	976	1367	31
66	0	0	1962	976	1364	27
67	0	0	1930	976	1355	31
68	0	0	1892	976	1347	27
69	0	0	1894	979	1344	27
70	0	0	1908	979	1348	28
71	0	0	1934	982	1353	28
72	0	0	1970	979	1358	31
73	0	0	2011	978	1364	29
74	0	0	2059	979	1368	28
75	0	0	2100	979	1367	27
76	0	0	2137	979	1365	28
77	0	0	2165	980	1356	30
78	0	0	2212	978	1349	28
79	0	0	2230	979	1344	25
80	0	0	2212	979	1349	27
81	0	0	2185	977	1353	28
82	0	0	2135	976	1359	28
83	0	0	2080	975	1364	29
84	0	0	2041	976	1366	29
85	0	0	1999	976	1367	30
86	0	0	1961	976	1364	31
87	0	0	1927	975	1355	30
88	0	0	1896	976	1347	28
89	0	0	1894	978	1342	26
90	0	0	1912	979	1347	28
91	0	0	1935	979	1352	31
92	0	0	1974	979	1358	30
93	0	0	2014	978	1362	28
94	0	0	2060	978	1364	27
95	0	0	2102	980	1367	29
96	0	0	2140	979	1365	31
97	0	0	2170	979	1356	31
98	0	0	2217	979	1349	27
99	0	0	2233	979	1346	28
100	0	0	2219	980	1349	32
101	0	0	2192	977	1353	31
102	0	0	2146	976	1359	31
103	0	0	2091	975	1364	27
104	0	0	2044	975	1366	28
105	0	0	2001	976	1367	30
106	0	0	1962	976	1364	31
107	0	0	1930	973	1355	31
108	0	0	1896	975	1347	27
109	0	0	1895	978	1345	28
110	0	0	1914	977	1347	28
111	0	0	1935	978	1352	28
112	0	0	1969	978	1358	29
113	0	0	2011	980	1364	28
114	0	0	2055	980	1367	29
115	0	0	2098	980	1367	29
116	0	0	2138	980	1365	28
117	0	0	2171	979	1356	31
118	0	0	2220	979	1349	28
119	0	0	2232	979	1348	28
120	0	0	2219	979	1349	27
121	0	0	2196	976	1353	28
122	0	0	2146	975	1358	27
123	0	0	2088	974	1363	28
124	0	0	2041	975	1367	28
125	0	0	1999	975	1365	31
126	0	0	1963	976	1363	28
127	0	0	1933	975	1355	31
0	0	0	1896	975	1347	27
1	0	0	1890	978	1344	30
2	0	0	1910	978	1347	30
3	0	0	1936	979	1351	31
4	0	0	1970	977	1357	27
5	0	0	2015	979	1363	27
6	0	0	2060	978	1366	27
7	0	0	2104	978	1367	29
8	0	0	2146	976	1365	29
9	0	0	2179	979	1357	27
10	0	0	2223	979	1349	28
11	0	0	2235	978	1347	30
12	0	0	2221	980	1349	27
13	0	0	2197	976	1353	29
14	0	0	2147	976	1358	27
15	0	0	2092	975	1364	28
16	0	0	2040	976	1367	28
17	0	0	1996	976	1367	27
18	0	0	1960	974	1364	28
19	0	0	1931	975	1355	27
20	0	0	1895	975	1347	28
21	0	0	1890	978	1344	27
22	0	0	1913	978	1345	31
23	0	0	1938	978	1352	27
24	0	0	1974	977	1358	29
25	0	0	2014	980	1363	28
26	0	0	2059	978	1366	30
27	0	0	2105	978	1367	29
28	0	0	2139	978	1365	30
29	0	0	2172	979	1357	28
30	0	0	2220	979	1349	27
31	0	0	2234	975	1346	27
32	0	0	2220	978	1349	26
33	0	0	2190	975	1353	27
34	0	0	2140	975	1358	27
35	0	0	2085	975	1363	28
36	0	0	2031	974	1365	31
37	0	0	1989	974	1365	31
38	0	0	1955	975	1363	28
39	0	0	1929	975	1354	28
40	0	0	1901	975	1347	28
41	0	0	1901	978	1345	28
42	0	0	1919	975	1345	27
43	0	0	1944	978	1352	28
44	0	0	1980	977	1358	28
45	0	0	2011	980	1362	28
46	0	0	2056	978	1366	26
47	0	0	2098	979	1367	31
48	0	0	2136	979	1365	29
49	0	0	2173	980	1356	28
50	0	0	2223	979	1349	28
51	0	0	2232	980	1347	28
52	0	0	2215	979	1349	26
53	0	0	2186	975	1353	28
54	0	0	2137	975	1358	27
55	0	0	2084	974	1363	28
56	0	0	2036	976	1366	29
57	0	0	1991	973	1365	31
58	0	0	1952	974	1364	30
59	0	0	1924	973	1355	28
60	0	0	1893	975	1347	27
61	0	0	1893	979	1345	28
62	0	0	1914	979	1347	28
63	0	0	1942	978	1352	27
64	0	0	1975	977	1358	27
65	0	0	2014	976	1363	29
66	0	0	2053	978	1366	27
67	0	0	2099	975	1366	29
68	0	0	2133	977	1364	30
69	0	0	2167	978	1356	28
70	0	0	2219	978	1349	28
71	0	0	2235	978	1346	24
72	0	0	2224	977	1349	28
73	0	0	2194	974	1353	29
74	0	0	2146	974	1358	28
75	0	0	2090	976	1363	29
76	0	0	2040	974	1365	28
77	0	0	1998	974	1366	25
78	0	0	1962	974	1363	28
79	0	0	1932	974	1355	28
80	0	0	1896	974	1347	28
81	0	0	1886	976	1345	28
82	0	0	1907	975	1346	28
83	0	0	1935	977	1351	29
84	0	0	1965	977	1358	29
85	0	0	2001	977	1363	28
86	0	0	2049	978	1367	28
87	0	0	2094	978	1367	29
88	0	0	2127	979	1364	28
89	0	0	2163	977	1356	30
90	0	0	2216	977	1348	28
91	0	0	2232	976	1346	28
92	0	0	2215	977	1349	26
93	0	0	2186	974	1353	31
94	0	0	2138	975	1358	19
95	0	0	2081	973	1363	28
96	0	0	2031	975	1366	27
97	0	0	1991	975	1367	28
98	0	0	1957	974	1363	28
99	0	0	1932	974	1355	28
100	0	0	1900	974	1346	28
101	0	0	1894	977	1345	25
102	0	0	1913	975	1346	28
103	0	0	1936	979	1352	28
104	0	0	1968	976	1357	29
105	0	0	2007	977	1362	28
106	0	0	2055	978	1366	28
107	0	0	2098	979	1367	28
108	0	0	2131	978	1364	29
109	0	0	2165	979	1356	28
110	0	0	2218	977	1349	28
111	0	0	2234	975	1348	29
112	0	0	2221	977	1348	29
113	0	0	2192	974	1352	28
114	0	0	2144	974	1358	30
115	0	0	2093	974	1363	28
116	0	0	2041	974	1366	25
117	0	0	1996	973	1366	28
118	0	0	1957	975	1363	28
119	0	0	1926	974	1355	31
120	0	0	1897	974	1346	27
121	0	0	1897	975	1344	27
122	0	0	1911	977	1347	29
123	0	0	1936	976	1351	28
124	0	0	1973	977	1357	30
125	0	0	2010	977	1363	28
126	0	0	2055	978	1367	28
127	0	0	2099	976	1367	28
0	0	0	2135	976	1364	29
1	0	0	2169	977	1356	31
2	0	0	2221	977	1348	28
3	0	0	2238	975	1346	28
4	0	0	2225	977	1349	29
5	0	0	2197	975	1352	28
6	0	0	2143	973	1358	30
7	0	0	2089	975	1363	29
8	0	0	2036	973	1366	27
9	0	0	1996	973	1366	30
10	0	0	1954	973	1363	28
11	0	0	1926	974	1355	30
12	0	0	1891	975	1347	24
13	0	0	1889	977	1345	25
14	0	0	1904	976	1347	30
15	0	0	1932	978	1352	28
16	0	0	1971	977	1357	30
17	0	0	2010	977	1363	28
18	0	0	2057	977	1365	29
19	0	0	2101	978	1367	27
20	0	0	2135	978	1364	29
21	0	0	2169	977	1356	29
22	0	0	2221	977	1348	28
23	0	0	2234	977	1346	26
24	0	0	2221	978	1348	27
25	0	0	2196	975	1352	28
26	0	0	2144	973	1357	31
27	0	0	2099	972	1362	28
28	0	0	2049	973	1365	29
29	0	0	1999	974	1366	30
30	0	0	1962	975	1363	28
31	0	0	1931	969	1355	23
32	0	0	1896	973	1346	28
33	0	0	1896	975	1344	28
34	0	0	1913	976	1347	29
35	0	0	1936	977	1351	28
36	0	0	1972	977	1357	31
37	0	0	2016	976	1362	31
38	0	0	2063	975	1365	29
39	0	0	2105	976	1367	31
40	0	0	2142	976	1364	29
41	0	0	2172	976	1358	27
42	0	0	2214	977	1348	29
43	0	0	2227	975	1345	28
44	0	0	2210	975	1348	30
45	0	0	2181	974	1351	28
46	0	0	2129	976	1357	27
47	0	0	2077	973	1362	27
48	0	0	2034	973	1365	29
49	0	0	1992	972	1366	31
50	0	0	1956	975	1362	29
51	0	0	1929	973	1355	24
52	0	0	1895	974	1346	28
53	0	0	1896	975	1344	27
54	0	0	1914	976	1347	27
55	0	0	1941	976	1351	28
56	0	0	1977	976	1356	27
57	0	0	2016	978	1363	28
58	0	0	2061	978	1366	29
59	0	0	2104	975	1366	29
60	0	0	2139	977	1364	28
61	0	0	2168	977	1355	27
62	0	0	2214	976	1348	27
63	0	0	2233	976	1346	25
64	0	0	2219	978	1348	28
65	0	0	2193	974	1352	28
66	0	0	2139	973	1357	25
67	0	0	2084	975	1361	28
68	0	0	2035	974	1365	32
69	0	0	1994	972	1365	29
70	0	0	1961	973	1362	28
71	0	0	1933	973	1354	23
72	0	0	1898	973	1346	28
73	0	0	1890	976	1344	30
74	0	0	1907	976	1347	29
75	0	0	1932	975	1351	28
76	0	0	1969	976	1356	25
77	0	0	2013	975	1362	29
78	0	0	2060	976	1365	32
79	0	0	2104	976	1366	29
80	0	0	2142	976	1364	29
81	0	0	2178	977	1355	23
82	0	0	2223	976	1348	27
83	0	0	2235	976	1345	28
84	0	0	2221	976	1348	27
85	0	0	2191	972	1352	25
86	0	0	2147	973	1358	29
87	0	0	2092	972	1362	29
88	0	0	2040	973	1365	29
89	0	0	1996	973	1365	31
90	0	0	1962	972	1362	28
91	0	0	1929	973	1353	25
92	0	0	1890	974	1346	27
93	0	0	1888	975	1344	31
94	0	0	1909	976	1346	27
95	0	0	1935	975	1351	28
96	0	0	1972	976	1356	28
97	0	0	2016	976	1361	25
98	0	0	2062	976	1364	29
99	0	0	2103	976	1366	29
100	0	0	2140	974	1363	28
101	0	0	2173	976	1356	29
102	0	0	2215	975	1347	28
103	0	0	2230	975	1345	27
104	0	0	2214	976	1347	27
105	0	0	2186	972	1351	28
106	0	0	2139	972	1357	28
107	0	0	2084	973	1362	29
108	0	0	2035	971	1365	29
109	0	0	1995	972	1364	26
110	0	0	1961	972	1362	28
111	0	0	1932	973	1353	23
112	0	0	1900	973	1345	27
113	0	0	1892	976	1344	27
114	0	0	1908	977	1345	27
115	0	0	1936	975	1351	28
116	0	0	1969	975	1356	28
117	0	0	2006	976	1361	28
118	0	0	2052	976	1366	31
119	0	0	2099	977	1365	29
120	0	0	2136	974	1363	28
121	0	0	2170	976	1355	28
122	0	0	2218	977	1347	29
123	0	0	2230	975	1344	27
124	0	0	2213	975	1346	26
125	0	0	2190	972	1351	28
126	0	0	2142	972	1356	28
127	0	0	2086	972	1361	29
0	0	0	2035	972	1365	29
1	0	0	1991	974	1364	27
2	0	0	1955	972	1362	29
3	0	0	1928	973	1354	29
4	0	0	1895	971	1345	27
5	0	0	1890	977	1343	28
6	0	0	1910	973	1345	27
7	0	0	1931	974	1349	28
8	0	0	1972	976	1356	29
9	0	0	2012	976	1361	29
10	0	0	2055	976	1365	29
11	0	0	2099	976	1365	27
12	0	0	2138	977	1363	28
13	0	0	2171	975	1354	28
14	0	0	2215	976	1347	28
15	0	0	2231	978	1344	27
16	0	0	2219	977	1346	28
17	0	0	2191	973	1352	28
18	0	0	2137	973	1356	28
19	0	0	2085	973	1361	28
20	0	0	2036	973	1362	32
21	0	0	1996	975	1363	28
22	0	0	1962	973	1362	29
23	0	0	1930	972	1353	30
24	0	0	1895	972	1346	28
25	0	0	1895	976	1343	30
26	0	0	1910	977	1344	28
27	0	0	1934	975	1350	27
28	0	0	1971	975	1355	28
29	0	0	2009	975	1361	28
30	0	0	2057	975	1364	28
31	0	0	2102	978	1365	29
32	0	0	2138	979	1363	29
33	0	0	2171	975	1355	29
34	0	0	2228	974	1346	27
35	0	0	2242	975	1344	27
36	0	0	2221	973	1346	28
37	0	0	2187	975	1350	28
38	0	0	2137	972	1356	29
39	0	0	2083	970	1360	28
40	0	0	2038	973	1364	28
41	0	0	1997	973	1365	28
42	0	0	1964	975	1361	27
43	0	0	1937	972	1353	29
44	0	0	1903	972	1345	27
45	0	0	1903	975	1342	27
46	0	0	1920	975	1343	31
47	0	0	1938	977	1349	28
48	0	0	1973	975	1355	28
49	0	0	2013	975	1361	28
50	0	0	2057	976	1364	27
51	0	0	2096	978	1363	30
52	0	0	2130	975	1361	28
53	0	0	2162	976	1354	29
54	0	0	2216	973	1346	26
55	0	0	2234	974	1345	28
56	0	0	2220	976	1346	28
57	0	0	2193	975	1351	28
58	0	0	2145	973	1356	29
59	0	0	2090	972	1360	28
60	0	0	2044	973	1364	24
61	0	0	2001	972	1363	30
62	0	0	1959	973	1361	28
63	0	0	1932	972	1353	28
64	0	0	1907	971	1344	27
65	0	0	1904	976	1342	27
66	0	0	1919	976	1346	28
67	0	0	1939	977	1348	28
68	0	0	1973	975	1355	29
69	0	0	2014	974	1361	28
70	0	0	2060	976	1362	32
71	0	0	2101	975	1364	29
72	0	0	2135	976	1363	28
73	0	0	2164	976	1354	29
74	0	0	2213	975	1347	27
75	0	0	2228	976	1344	28
76	0	0	2212	976	1348	29
77	0	0	2187	974	1350	28
78	0	0	2137	972	1356	28
79	0	0	2084	970	1360	27
80	0	0	2037	972	1364	30
81	0	0	1998	972	1364	28
82	0	0	1963	975	1361	28
83	0	0	1938	972	1353	29
84	0	0	1909	971	1344	27
85	0	0	1903	977	1343	25
86	0	0	1923	975	1344	29
87	0	0	1948	975	1350	28
88	0	0	1981	975	1355	29
89	0	0	2015	975	1362	29
90	0	0	2061	976	1365	30
91	0	0	2104	976	1368	29
92	0	0	2138	977	1363	29
93	0	0	2169	976	1355	28
94	0	0	2212	974	1348	28
95	0	0	2232	976	1345	29
96	0	0	2218	976	1346	29
97	0	0	2193	972	1350	28
98	0	0	2144	973	1355	28
99	0	0	2087	970	1360	28
100	0	0	2041	972	1364	29
101	0	0	1997	973	1364	29
102	0	0	1960	974	1361	28
103	0	0	1939	972	1353	28
104	0	0	1908	972	1345	27
105	0	0	1902	975	1343	24
106	0	0	1922	976	1346	28
107	0	0	1942	976	1349	28
108	0	0	1977	976	1355	28
109	0	0	2009	973	1360	28
110	0	0	2056	975	1364	28
111	0	0	2092	975	1367	29
112	0	0	2129	976	1362	28
113	0	0	2162	975	1354	29
114	0	0	2214	976	1346	29
115	0	0	2230	977	1343	29
116	0	0	2213	976	1346	29
117	0	0	2190	973	1351	27
118	0	0	2141	971	1355	25
119	0	0	2088	972	1360	25
120	0	0	2039	975	1362	28
121	0	0	1994	973	1365	27
122	0	0	1961	971	1361	27
123	0	0	1938	972	1352	30
124	0	0	1909	972	1344	27
125	0	0	1901	977	1341	28
126	0	0	1916	974	1343	29
127	0	0	1940	975	1349	28
0	0	0	1971	975	1354	28
1	0	0	2008	974	1360	28
2	0	0	2053	975	1364	30
3	0	0	2093	975	1365	27
4	0	0	2131	975	1362	28
5	0	0	2161	975	1354	28
6	0	0	2209	976	1346	28
7	0	0	2229	976	1343	32
8	0	0	2215	974	1345	29
9	0	0	2192	972	1350	27
10	0	0	2138	971	1356	31
11	0	0	2084	972	1360	29
12	0	0	2031	972	1363	30
13	0	0	1990	973	1364	25
14	0	0	1954	972	1361	28
15	0	0	1928	972	1352	28
16	0	0	1900	972	1345	27
17	0	0	1896	974	1343	29
18	0	0	1911	975	1345	27
19	0	0	1933	976	1348	28
20	0	0	1969	975	1355	27
21	0	0	2010	973	1360	28
22	0	0	2054	975	1364	27
23	0	0	2099	976	1364	29
24	0	0	2138	974	1363	29
25	0	0	2168	977	1355	30
26	0	0	2216	975	1347	28
27	0	0	2232	974	1346	29
28	0	0	2221	975	1345	28
29	0	0	2196	972	1351	27
30	0	0	2150	972	1355	28
31	0	0	2096	970	1361	29
32	0	0	2046	972	1364	29
33	0	0	2002	973	1365	27
34	0	0	1968	972	1361	27
35	0	0	1944	971	1353	28
36	0	0	1914	972	1345	27
37	0	0	1909	975	1344	27
38	0	0	1924	975	1344	27
39	0	0	1944	975	1349	28
40	0	0	1977	975	1354	28
41	0	0	2014	976	1360	28
42	0	0	2057	974	1363	29
43	0	0	2096	975	1365	27
44	0	0	2131	975	1361	28
45	0	0	2163	974	1355	29
46	0	0	2211	975	1346	27
47	0	0	2222	975	1344	28
48	0	0	2212	976	1346	28
49	0	0	2185	972	1350	28
50	0	0	2136	971	1355	28
51	0	0	2085	969	1361	29
52	0	0	2040	971	1364	29
53	0	0	2002	972	1364	27
54	0	0	1969	972	1361	28
55	0	0	1939	972	1352	28
56	0	0	1904	972	1344	27
57	0	0	1894	974	1343	29
58	0	0	1913	974	1344	24
59	0	0	1937	975	1349	26
60	0	0	1968	975	1354	29
61	0	0	2007	976	1360	28
62	0	0	2054	974	1364	27
63	0	0	2096	972	1364	29
64	0	0	2133	975	1361	28
65	0	0	2163	975	1354	29
66	0	0	2211	976	1347	28
67	0	0	2226	975	1345	27
68	0	0	2216	974	1344	28
69	0	0	2191	973	1349	28
70	0	0	2143	971	1355	29
71	0	0	2087	971	1361	28
72	0	0	2038	971	1364	28
73	0	0	1997	971	1362	28
74	0	0	1962	971	1361	28
75	0	0	1932	971	1352	28
76	0	0	1901	971	1344	28
77	0	0	1895	973	1341	28
78	0	0	1913	974	1344	26
79	0	0	1939	974	1349	27
80	0	0	1978	975	1354	28
81	0	0	2019	973	1360	28
82	0	0	2060	973	1362	28
83	0	0	2096	975	1362	29
84	0	0	2129	975	1361	28
85	0	0	2163	972	1353	28
86	0	0	2213	975	1347	27
87	0	0	2229	975	1343	27
88	0	0	2219	972	1344	28
89	0	0	2192	973	1349	28
90	0	0	2144	971	1355	31
91	0	0	2089	971	1360	28
92	0	0	2041	970	1362	28
93	0	0	1997	972	1362	26
94	0	0	1959	971	1360	28
95	0	0	1931	971	1352	30
96	0	0	1896	972	1344	27
97	0	0	1894	973	1341	28
98	0	0	1911	974	1342	28
99	0	0	1939	973	1349	28
100	0	0	1974	975	1355	28
101	0	0	2018	976	1360	28
102	0	0	2059	974	1363	30
103	0	0	2099	975	1364	28
104	0	0	2130	975	1362	28
105	0	0	2163	975	1354	29
106	0	0	2207	976	1346	28
107	0	0	2222	975	1344	27
108	0	0	2216	975	1346	28
109	0	0	2191	970	1349	29
110	0	0	2146	972	1355	29
111	0	0	2093	971	1361	28
112	0	0	2050	970	1365	29
113	0	0	2004	972	1364	28
114	0	0	1961	971	1360	28
115	0	0	1936	971	1352	27
116	0	0	1908	972	1345	27
117	0	0	1902	973	1341	28
118	0	0	1915	973	1343	29
119	0	0	1944	971	1348	28
120	0	0	1977	974	1354	29
121	0	0	2010	974	1359	30
122	0	0	2052	975	1363	30
123	0	0	2091	974	1364	29
124	0	0	2127	973	1361	28
125	0	0	2161	975	1354	28
126	0	0	2208	975	1346	28
127	0	0	2220	975	1345	26
0	0	0	2212	973	1344	28
1	0	0	2189	972	1349	28
2	0	0	2143	971	1355	29
3	0	0	2093	971	1359	29
4	0	0	2048	970	1363	30
5	0	0	2003	971	1362	28
6	0	0	1970	970	1359	28
7	0	0	1941	971	1352	24
8	0	0	1908	971	1344	28
9	0	0	1896	975	1340	28
10	0	0	1911	975	1342	28
11	0	0	1932	972	1348	27
12	0	0	1966	974	1354	28
13	0	0	1997	975	1359	29
14	0	0	2041	974	1363	27
15	0	0	2086	975	1364	28
16	0	0	2127	976	1360	28
17	0	0	2158	974	1353	28
18	0	0	2205	975	1344	27
19	0	0	2222	977	1341	28
20	0	0	2209	974	1345	27
21	0	0	2181	972	1349	28
22	0	0	2133	971	1354	28
23	0	0	2076	971	1359	29
24	0	0	2033	973	1361	27
25	0	0	1999	972	1363	29
26	0	0	1964	969	1360	27
27	0	0	1940	971	1352	28
28	0	0	1908	974	1344	27
29	0	0	1898	974	1341	27
30	0	0	1913	974	1343	29
31	0	0	1933	974	1348	27
32	0	0	1970	974	1354	29
33	0	0	2009	975	1358	28
34	0	0	2052	976	1361	28
35	0	0	2095	975	1365	29
36	0	0	2133	972	1361	28
37	0	0	2167	975	1352	27
38	0	0	2215	975	1345	27
39	0	0	2229	976	1341	28
40	0	0	2215	974	1345	28
41	0	0	2188	970	1349	28
42	0	0	2142	970	1354	29
43	0	0	2089	971	1360	28
44	0	0	2038	971	1365	28
45	0	0	1993	971	1365	29
46	0	0	1960	972	1361	28
47	0	0	1931	971	1353	27
48	0	0	1901	971	1344	28
49	0	0	1897	974	1340	28
50	0	0	1912	974	1343	29
51	0	0	1935	976	1348	28
52	0	0	1968	974	1353	28
53	0	0	2005	974	1360	29
54	0	0	2048	976	1361	28
55	0	0	2090	974	1363	29
56	0	0	2125	975	1362	28
57	0	0	2159	975	1352	28
58	0	0	2206	975	1346	28
59	0	0	2223	976	1342	29
60	0	0	2210	975	1346	29
61	0	0	2191	972	1349	28
62	0	0	2147	967	1355	28
63	0	0	2096	971	1360	28
64	0	0	2048	972	1361	28
65	0	0	2000	971	1364	29
66	0	0	1963	971	1361	28
67	0	0	1936	971	1352	29
68	0	0	1901	971	1344	28
69	0	0	1899	974	1342	29
70	0	0	1917	975	1344	24
71	0	0	1939	974	1349	28
72	0	0	1971	974	1354	29
73	0	0	2006	973	1361	28
74	0	0	2048	975	1365	27
75	0	0	2085	975	1365	29
76	0	0	2121	975	1361	28
77	0	0	2156	975	1354	28
78	0	0	2210	974	1347	27
79	0	0	2229	975	1345	29
80	0	0	2216	974	1345	28
81	0	0	2191	972	1350	28
82	0	0	2143	971	1355	28
83	0	0	2089	970	1362	28
84	0	0	2041	972	1363	27
85	0	0	1997	971	1364	29
86	0	0	1967	972	1362	28
87	0	0	1937	971	1352	29
88	0	0	1898	971	1344	27
89	0	0	1893	974	1342	27
90	0	0	1912	975	1344	27
91	0	0	1936	974	1348	29
92	0	0	1969	974	1354	28
93	0	0	2005	974	1361	28
94	0	0	2046	975	1363	31
95	0	0	2091	975	1365	30
96	0	0	2128	974	1362	28
97	0	0	2166	975	1354	29
98	0	0	2213	975	1346	28
99	0	0	2233	976	1345	27
100	0	0	2222	975	1345	27
101	0	0	2193	973	1350	29
102	0	0	2147	971	1355	29
103	0	0	2093	972	1360	28
104	0	0	2042	972	1364	29
105	0	0	2001	972	1364	29
106	0	0	1967	972	1361	28
107	0	0	1940	972	1353	28
108	0	0	1907	973	1344	28
109	0	0	1907	975	1342	28
110	0	0	1920	975	1345	27
111	0	0	1936	975	1348	29
112	0	0	1970	974	1354	29
113	0	0	2014	975	1360	28
114	0	0	2055	974	1365	29
115	0	0	2096	975	1364	29
116	0	0	2135	976	1363	28
117	0	0	2164	975	1355	29
118	0	0	2212	975	1347	28
119	0	0	2225	975	1343	30
120	0	0	2210	975	1344	26
121	0	0	2188	974	1350	29
122	0	0	2142	972	1356	28
123	0	0	2089	972	1361	29
124	0	0	2043	972	1364	28
125	0	0	2003	972	1365	30
126	0	0	1969	970	1360	29
127	0	0	1943	972	1353	28
0	0	0	1912	971	1347	29
1	0	0	1904	974	1343	30
2	0	0	1914	974	1345	29
3	0	0	1936	974	1349	28
4	0	0	1970	974	1356	28
5	0	0	2009	974	1361	28
6	0	0	2051	974	1365	29
7	0	0	2093	975	1365	29
8	0	0	2126	976	1363	29
9	0	0	2156	975	1356	29
10	0	0	2209	976	1348	27
11	0	0	2227	976	1345	28
12	0	0	2215	975	1347	28
13	0	0	2187	973	1351	28
14	0	0	2143	972	1357	27
15	0	0	2096	970	1360	28
16	0	0	2049	973	1363	28
17	0	0	2008	972	1365	28
18	0	0	1972	971	1362	28
19	0	0	1942	971	1354	29
20	0	0	1909	972	1346	28
21	0	0	1904	975	1343	29
22	0	0	1921	975	1344	27
23	0	0	1946	975	1351	28
24	0	0	1978	975	1355	28
25	0	0	2019	974	1361	28
26	0	0	2057	975	1366	30
27	0	0	2096	974	1365	28
28	0	0	2129	975	1363	28
29	0	0	2160	975	1356	29
30	0	0	2207	976	1347	27
31	0	0	2218	975	1345	28
32	0	0	2213	974	1347	28
33	0	0	2189	971	1349	28
34	0	0	2141	972	1356	28
35	0	0	2084	971	1362	29
36	0	0	2037	971	1365	29
37	0	0	2002	973	1366	27
38	0	0	1970	972	1361	27
39	0	0	1948	976	1353	28
40	0	0	1914	973	1345	28
41	0	0	1911	974	1345	25
42	0	0	1921	975	1346	26
43	0	0	1944	975	1350	27
44	0	0	1975	974	1355	29
45	0	0	2020	974	1361	28
46	0	0	2054	974	1364	29
47	0	0	2091	975	1365	29
48	0	0	2123	975	1362	28
49	0	0	2154	976	1356	29
50	0	0	2207	976	1347	27
51	0	0	2227	974	1344	26
52	0	0	2220	975	1347	27
53	0	0	2192	972	1350	28
54	0	0	2142	971	1356	29
55	0	0	2092	971	1361	28
56	0	0	2042	971	1365	28
57	0	0	1997	971	1365	28
58	0	0	1960	971	1361	29
59	0	0	1936	971	1355	29
60	0	0	1904	972	1346	27
61	0	0	1896	974	1343	29
62	0	0	1914	975	1345	27
63	0	0	1935	974	1349	28
64	0	0	1971	974	1355	29
65	0	0	2007	975	1360	27
66	0	0	2048	973	1363	28
67	0	0	2092	974	1366	27
68	0	0	2126	975	1363	29
69	0	0	2154	975	1356	29
70	0	0	2204	975	1349	28
71	0	0	2225	974	1344	27
72	0	0	2220	974	1348	30
73	0	0	2192	972	1350	28
74	0	0	2146	971	1356	29
75	0	0	2088	971	1360	28
76	0	0	2037	971	1365	26
77	0	0	1993	971	1366	26
78	0	0	1956	971	1362	28
79	0	0	1930	971	1354	28
80	0	0	1900	971	1345	27
81	0	0	1894	974	1343	30
82	0	0	1908	975	1346	28
83	0	0	1932	974	1349	27
84	0	0	1964	974	1355	29
85	0	0	2005	974	1360	28
86	0	0	2046	973	1363	28
87	0	0	2088	974	1365	28
88	0	0	2124	975	1364	29
89	0	0	2158	974	1355	29
90	0	0	2210	973	1347	28
91	0	0	2228	976	1344	27
92	0	0	2219	974	1348	28
93	0	0	2197	972	1350	29
94	0	0	2147	971	1355	28
95	0	0	2092	971	1361	28
96	0	0	2045	969	1363	27
97	0	0	2001	971	1365	28
98	0	0	1965	972	1364	28
99	0	0	1938	971	1353	28
100	0	0	1900	971	1345	27
101	0	0	1894	973	1341	28
102	0	0	1908	975	1347	29
103	0	0	1931	969	1348	29
104	0	0	1968	974	1355	28
105	0	0	2009	973	1361	26
106	0	0	2051	974	1364	29
107	0	0	2095	975	1366	28
108	0	0	2128	974	1364	30
109	0	0	2159	975	1356	29
110	0	0	2208	975	1347	28
111	0	0	2229	974	1343	29
112	0	0	2220	975	1346	27
113	0	0	2193	972	1351	28
114	0	0	2147	970	1355	29
115	0	0	2090	972	1360	28
116	0	0	2043	970	1364	28
117	0	0	2000	971	1364	27
118	0	0	1963	971	1361	29
119	0	0	1939	971	1354	28
120	0	0	1908	971	1345	27
121	0	0	1905	972	1344	26
122	0	0	1915	974	1346	29
123	0	0	1938	976	1351	30
124	0	0	1969	973	1354	28
125	0	0	2004	974	1360	29
126	0	0	2051	973	1364	28
127	0	0	2096	975	1366	30
0	0	0	2131	975	1363	28
1	0	0	2160	974	1356	30
2	0	0	2207	975	1347	27
3	0	0	2230	974	1345	28
4	0	0	2214	975	1347	29
5	0	0	2186	972	1351	32
6	0	0	2140	971	1355	28
7	0	0	2088	971	1360	28
8	0	0	2047	970	1364	28
9	0	0	2002	970	1366	30
10	0	0	1970	970	1362	28
11	0	0	1941	970	1353	30
12	0	0	1905	971	1345	27
13	0	0	1901	973	1344	26
14	0	0	1917	974	1345	27
15	0	0	1940	974	1349	28
16	0	0	1975	974	1354	29
17	0	0	2015	973	1360	29
18	0	0	2057	975	1364	28
19	0	0	2098	974	1365	28
20	0	0	2138	974	1362	28
21	0	0	2169	974	1355	29
22	0	0	2215	974	1347	27
23	0	0	2234	975	1345	27
24	0	0	2225	973	1346	25
25	0	0	2195	972	1350	28
26	0	0	2145	971	1355	28
27	0	0	2094	970	1360	27
28	0	0	2039	971	1363	28
29	0	0	2000	971	1364	28
30	0	0	1962	971	1363	28
31	0	0	1939	971	1353	27
32	0	0	1906	971	1345	28
33	0	0	1898	974	1343	29
34	0	0	1920	973	1344	27
35	0	0	1944	973	1349	28
36	0	0	1975	974	1354	28
37	0	0	2014	974	1358	28
38	0	0	2055	973	1365	30
39	0	0	2100	974	1364	27
40	0	0	2133	972	1362	28
41	0	0	2163	974	1355	29
42	0	0	2210	973	1347	24
43	0	0	2226	975	1345	28
44	0	0	2214	974	1347	30
45	0	0	2186	971	1349	28
46	0	0	2139	971	1354	27
47	0	0	2085	971	1358	31
48	0	0	2040	971	1363	28
49	0	0	2001	971	1363	28
50	0	0	1965	971	1362	29
51	0	0	1936	970	1353	28
52	0	0	1903	970	1343	30
53	0	0	1896	974	1342	29
54	0	0	1911	972	1344	27
55	0	0	1938	973	1348	28
56	0	0	1974	973	1353	28
57	0	0	2010	973	1360	25
58	0	0	2052	974	1364	29
59	0	0	2097	974	1364	28
60	0	0	2132	974	1362	29
61	0	0	2163	974	1354	30
62	0	0	2214	972	1346	27
63	0	0	2233	975	1344	27
64	0	0	2219	973	1345	27
65	0	0	2196	971	1348	28
66	0	0	2146	971	1354	29
67	0	0	2092	971	1359	30
68	0	0	2043	971	1363	28
69	0	0	2004	970	1363	25
70	0	0	1962	969	1360	28
71	0	0	1934	972	1353	28
72	0	0	1898	969	1344	27
73	0	0	1895	974	1342	29
74	0	0	1911	973	1344	25
75	0	0	1937	973	1348	28
76	0	0	1969	973	1353	27
77	0	0	2010	973	1360	24
78	0	0	2050	974	1363	28
79	0	0	2090	975	1364	25
80	0	0	2124	974	1361	28
81	0	0	2158	974	1354	29
82	0	0	2207	976	1347	28
83	0	0	2229	974	1342	28
84	0	0	2218	973	1345	27
85	0	0	2195	971	1347	27
86	0	0	2148	970	1354	29
87	0	0	2094	968	1360	29
88	0	0	2042	970	1361	27
89	0	0	1999	970	1364	25
90	0	0	1965	970	1360	27
91	0	0	1940	970	1353	29
92	0	0	1907	969	1344	31
93	0	0	1899	973	1341	29
94	0	0	1908	973	1343	28
95	0	0	1933	973	1347	27
96	0	0	1967	974	1354	28
97	0	0	2003	972	1359	29
98	0	0	2050	974	1361	28
99	0	0	2094	974	1364	27
100	0	0	2129	973	1360	28
101	0	0	2163	974	1355	27
102	0	0	2210	975	1345	28
103	0	0	2228	975	1343	28
104	0	0	2214	973	1345	25
105	0	0	2189	972	1349	28
106	0	0	2146	970	1354	29
107	0	0	2089	970	1359	30
108	0	0	2039	970	1361	27
109	0	0	2001	970	1364	27
110	0	0	1967	970	1360	27
111	0	0	1939	970	1352	28
112	0	0	1905	968	1345	28
113	0	0	1900	973	1341	29
114	0	0	1921	974	1343	30
115	0	0	1941	974	1347	27
116	0	0	1967	973	1353	28
117	0	0	2008	973	1359	26
118	0	0	2051	973	1362	28
119	0	0	2098	975	1363	25
120	0	0	2137	974	1361	28
121	0	0	2167	973	1354	29
122	0	0	2213	973	1346	28
123	0	0	2236	974	1341	29
124	0	0	2220	973	1344	27
125	0	0	2197	970	1347	27
126	0	0	2147	970	1353	29
127	0	0	2096	972	1357	30
0	0	0	2038	968	1362	28
1	0	0	1996	970	1364	25
2	0	0	1960	970	1360	27
3	0	0	1931	970	1353	28
4	0	0	1894	973	1342	29
5	0	0	1889	973	1340	30
6	0	0	1904	973	1342	32
7	0	0	1934	973	1347	28
8	0	0	1966	973	1352	28
9	0	0	2003	973	1358	31
10	0	0	2051	975	1360	28
11	0	0	2092	973	1364	24
12	0	0	2126	973	1360	27
13	0	0	2156	973	1353	29
14	0	0	2215	976	1345	28
15	0	0	2235	975	1343	30
16	0	0	2219	973	1345	28
17	0	0	2191	971	1348	27
18	0	0	2144	969	1352	28
19	0	0	2089	972	1357	31
20	0	0	2038	971	1361	28
21	0	0	1997	971	1362	29
22	0	0	1963	970	1359	28
23	0	0	1936	971	1352	28
24	0	0	1901	971	1342	29
25	0	0	1901	973	1338	28
26	0	0	1911	973	1342	30
27	0	0	1935	973	1346	27
28	0	0	1966	974	1351	26
29	0	0	2005	972	1360	28
30	0	0	2048	974	1362	25
31	0	0	2094	974	1363	28
32	0	0	2130	974	1359	29
33	0	0	2165	973	1353	28
34	0	0	2219	972	1344	27
35	0	0	2240	975	1343	28
36	0	0	2224	973	1344	31
37	0	0	2196	972	1348	27
38	0	0	2148	970	1353	23
39	0	0	2096	970	1357	27
40	0	0	2045	971	1361	29
41	0	0	2001	970	1361	28
42	0	0	1967	970	1360	26
43	0	0	1938	970	1351	28
44	0	0	1904	969	1342	29
45	0	0	1897	973	1339	29
46	0	0	1910	972	1341	30
47	0	0	1932	976	1343	27
48	0	0	1971	973	1352	28
49	0	0	2006	972	1357	29
50	0	0	2054	975	1361	28
51	0	0	2093	973	1362	28
52	0	0	2127	973	1360	29
53	0	0	2162	973	1353	29
54	0	0	2210	973	1345	28
55	0	0	2230	974	1341	30
56	0	0	2217	972	1343	31
57	0	0	2184	971	1347	28
58	0	0	2138	971	1350	28
59	0	0	2089	969	1356	28
60	0	0	2046	970	1362	28
61	0	0	2002	970	1360	28
62	0	0	1967	970	1359	28
63	0	0	1943	970	1351	28
64	0	0	1902	969	1342	29
65	0	0	1894	973	1340	26
66	0	0	1910	973	1342	28
67	0	0	1933	973	1345	29
68	0	0	1967	972	1351	27
69	0	0	2002	972	1357	29
70	0	0	2052	973	1362	28
71	0	0	2096	974	1361	30
72	0	0	2133	974	1359	29
73	0	0	2163	973	1352	28
74	0	0	2209	973	1343	29
75	0	0	2226	974	1342	26
76	0	0	2217	974	1343	30
77	0	0	2190	971	1343	28
78	0	0	2142	970	1349	28
79	0	0	2081	969	1356	29
80	0	0	2035	970	1361	28
81	0	0	1997	970	1361	30
82	0	0	1961	970	1359	29
83	0	0	1937	970	1350	29
84	0	0	1905	970	1342	29
85	0	0	1895	975	1340	28
86	0	0	1907	974	1340	31
87	0	0	1933	973	1345	28
88	0	0	1966	973	1351	28
89	0	0	2007	973	1357	28
90	0	0	2053	973	1361	32
91	0	0	2094	973	1361	31
92	0	0	2128	973	1359	29
93	0	0	2153	974	1352	28
94	0	0	2203	973	1343	30
95	0	0	2219	974	1341	29
96	0	0	2208	973	1342	29
97	0	0	2182	973	1345	27
98	0	0	2138	970	1351	28
99	0	0	2082	969	1356	28
100	0	0	2036	971	1359	30
101	0	0	1995	969	1360	27
102	0	0	1962	970	1357	29
103	0	0	1935	970	1350	28
104	0	0	1909	971	1341	29
105	0	0	1901	972	1339	28
106	0	0	1915	973	1340	30
107	0	0	1939	971	1344	27
108	0	0	1971	972	1351	28
109	0	0	2005	974	1354	28
110	0	0	2047	975	1360	28
111	0	0	2094	973	1363	28
112	0	0	2135	973	1359	29
113	0	0	2164	973	1351	28
114	0	0	2212	973	1343	31
115	0	0	2229	973	1341	30
116	0	0	2220	974	1342	31
117	0	0	2192	970	1344	27
118	0	0	2143	970	1351	28
119	0	0	2091	970	1357	29
120	0	0	2046	969	1360	31
121	0	0	2004	971	1360	28
122	0	0	1966	970	1357	29
123	0	0	1937	970	1350	28
124	0	0	1911	970	1341	30
125	0	0	1906	971	1337	28
126	0	0	1924	973	1340	27
127	0	0	1944	973	1344	27
0	0	0	1973	973	1350	28
1	0	0	2011	973	1356	29
2	0	0	2051	973	1360	28
3	0	0	2092	975	1361	30
4	0	0	2129	973	1357	29
5	0	0	2160	973	1352	28
6	0	0	2210	975	1343	26
7	0	0	2227	971	1339	27
8	0	0	2217	973	1342	29
9	0	0	2187	971	1345	28
10	0	0	2146	969	1351	29
11	0	0	2093	969	1358	31
12	0	0	2042	970	1358	31
13	0	0	1998	970	1360	30
14	0	0	1963	969	1356	29
15	0	0	1936	970	1350	28
16	0	0	1901	969	1341	29
17	0	0	1896	972	1337	31
18	0	0	1914	972	1339	28
19	0	0	1940	973	1345	26
20	0	0	1971	974	1350	28
21	0	0	2008	973	1355	29
22	0	0	2052	973	1360	28
23	0	0	2092	972	1360	29
24	0	0	2128	973	1356	28
25	0	0	2163	973	1351	29
26	0	0	2208	974	1342	29
27	0	0	2228	975	1341	30
28	0	0	2214	973	1341	30
29	0	0	2193	971	1344	27
30	0	0	2147	969	1350	28
31	0	0	2091	970	1355	28
32	0	0	2040	969	1358	31
33	0	0	1999	969	1359	29
34	0	0	1963	970	1357	29
35	0	0	1933	969	1349	28
36	0	0	1901	970	1341	32
37	0	0	1900	970	1337	28
38	0	0	1916	974	1339	28
39	0	0	1940	972	1344	24
40	0	0	1975	973	1349	28
41	0	0	2010	973	1355	29
42	0	0	2058	972	1358	31
43	0	0	2101	971	1360	28
44	0	0	2137	974	1357	26
45	0	0	2163	973	1350	28
46	0	0	2207	973	1343	31
47	0	0	2228	973	1338	27
48	0	0	2213	973	1341	32
49	0	0	2187	971	1342	27
50	0	0	2137	970	1350	28
51	0	0	2086	969	1355	27
52	0	0	2040	971	1359	28
53	0	0	1994	969	1359	29
54	0	0	1959	970	1357	29
55	0	0	1929	969	1349	28
56	0	0	1895	969	1339	30
57	0	0	1893	970	1337	28
58	0	0	1912	973	1339	28
59	0	0	1938	970	1342	28
60	0	0	1972	972	1349	28
61	0	0	2012	973	1354	29
62	0	0	2055	972	1358	27
63	0	0	2091	973	1360	32
64	0	0	2130	973	1358	28
65	0	0	2161	974	1351	28
66	0	0	2214	974	1344	29
67	0	0	2236	971	1338	28
68	0	0	2223	973	1340	31
69	0	0	2200	971	1345	28
70	0	0	2151	969	1350	31
71	0	0	2099	969	1354	31
72	0	0	2048	967	1360	28
73	0	0	1999	970	1359	28
74	0	0	1962	969	1356	28
75	0	0	1932	969	1349	28
76	0	0	1898	970	1340	29
77	0	0	1895	969	1336	28
78	0	0	1910	974	1339	30
79	0	0	1930	974	1342	30
80	0	0	1974	972	1349	28
81	0	0	2012	972	1355	29
82	0	0	2055	971	1359	29
83	0	0	2093	972	1360	29
84	0	0	2128	973	1357	28
85	0	0	2158	972	1351	28
86	0	0	2208	974	1340	28
87	0	0	2230	970	1340	28
88	0	0	2220	971	1340	29
89	0	0	2191	970	1344	28
90	0	0	2143	970	1349	29
91	0	0	2091	970	1355	27
92	0	0	2048	969	1359	26
93	0	0	2005	969	1358	32
94	0	0	1969	970	1356	19
95	0	0	1944	970	1349	27
96	0	0	1908	969	1339	27
97	0	0	1902	972	1338	25
98	0	0	1914	972	1338	32
99	0	0	1933	972	1343	28
100	0	0	1966	973	1349	29
101	0	0	2008	973	1356	26
102	0	0	2055	972	1359	29
103	0	0	2091	974	1360	28
104	0	0	2135	973	1358	29
105	0	0	2168	971	1350	28
106	0	0	2215	973	1341	31
107	0	0	2236	972	1340	30
108	0	0	2226	973	1341	30
109	0	0	2198	970	1344	26
110	0	0	2149	969	1350	28
111	0	0	2099	969	1355	28
112	0	0	2051	969	1359	29
113	0	0	2002	969	1360	28
114	0	0	1963	970	1357	30
115	0	0	1937	972	1348	27
116	0	0	1904	969	1340	27
117	0	0	1899	973	1338	28
118	0	0	1920	973	1339	29
119	0	0	1939	972	1344	28
120	0	0	1972	971	1349	28
121	0	0	2014	972	1354	29
122	0	0	2057	972	1360	29
123	0	0	2092	973	1361	28
124	0	0	2125	971	1358	31
125	0	0	2153	971	1352	28
126	0	0	2207	973	1341	29
127	0	0	2229	976	1339	28
0	0	0	2221	973	1341	31
1	0	0	2193	970	1345	28
2	0	0	2148	969	1351	28
3	0	0	2096	970	1356	28
4	0	0	2048	968	1361	30
5	0	0	2007	969	1360	29
6	0	0	1967	970	1357	30
7	0	0	1940	969	1350	28
8	0	0	1909	969	1339	27
9	0	0	1899	975	1339	28
10	0	0	1915	972	1340	31
11	0	0	1936	972	1344	29
12	0	0	1965	974	1350	28
13	0	0	2006	972	1354	27
14	0	0	2056	973	1360	28
15	0	0	2101	973	1361	31
16	0	0	2135	972	1359	31
17	0	0	2158	973	1352	28
18	0	0	2206	972	1340	27
19	0	0	2223	975	1341	28
20	0	0	2209	972	1342	31
21	0	0	2186	970	1346	30
22	0	0	2141	971	1350	28
23	0	0	2091	969	1357	28
24	0	0	2044	968	1361	28
25	0	0	2007	969	1361	31
26	0	0	1968	969	1358	30
27	0	0	1940	969	1351	28
28	0	0	1910	969	1340	27
29	0	0	1904	973	1339	28
30	0	0	1917	973	1340	29
31	0	0	1943	972	1345	27
32	0	0	1976	972	1351	28
33	0	0	2012	972	1359	28
34	0	0	2053	972	1361	28
35	0	0	2094	972	1362	29
36	0	0	2125	972	1361	28
37	0	0	2153	971	1353	28
38	0	0	2200	973	1345	28
39	0	0	2218	973	1341	29
40	0	0	2208	972	1343	29
41	0	0	2185	970	1347	27
42	0	0	2141	969	1352	29
43	0	0	2093	969	1357	29
44	0	0	2046	968	1362	29
45	0	0	2005	968	1362	31
46	0	0	1972	969	1360	31
47	0	0	1945	969	1352	28
48	0	0	1908	968	1342	27
49	0	0	1899	970	1340	29
50	0	0	1919	971	1342	29
51	0	0	1944	972	1346	29
52	0	0	1978	970	1352	28
53	0	0	2018	972	1359	28
54	0	0	2055	972	1362	29
55	0	0	2096	972	1364	29
56	0	0	2132	973	1362	28
57	0	0	2158	972	1355	29
58	0	0	2205	972	1346	29
59	0	0	2224	970	1343	30
60	0	0	2214	971	1344	27
61	0	0	2185	968	1349	29
62	0	0	2137	969	1354	29
63	0	0	2084	968	1357	27
64	0	0	2036	968	1361	31
65	0	0	1992	969	1364	29
66	0	0	1960	968	1361	31
67	0	0	1936	969	1354	29
68	0	0	1912	968	1345	27
69	0	0	1908	970	1341	29
70	0	0	1923	972	1343	28
71	0	0	1942	972	1347	27
72	0	0	1978	971	1353	28
73	0	0	2020	971	1361	30
74	0	0	2064	973	1363	32
75	0	0	2097	972	1365	30
76	0	0	2132	973	1363	29
77	0	0	2161	972	1356	29
78	0	0	2204	972	1347	30
79	0	0	2219	972	1344	31
80	0	0	2197	971	1345	27
81	0	0	2166	967	1349	26
82	0	0	2123	969	1355	29
83	0	0	2072	968	1361	28
84	0	0	2023	968	1363	31
85	0	0	1985	969	1365	28
86	0	0	1957	970	1362	27
87	0	0	1935	969	1355	29
88	0	0	1905	968	1345	29
89	0	0	1907	972	1342	31
90	0	0	1928	972	1345	27
91	0	0	1955	972	1349	27
92	0	0	1992	972	1355	27
93	0	0	2029	973	1361	29
94	0	0	2073	972	1364	31
95	0	0	2109	972	1366	28
96	0	0	2133	975	1363	27
97	0	0	2165	972	1357	29
98	0	0	2202	973	1348	25
99	0	0	2213	973	1346	27
100	0	0	2187	970	1346	29
101	0	0	2156	970	1351	28
102	0	0	2105	969	1356	28
103	0	0	2055	969	1361	27
104	0	0	2014	969	1366	28
105	0	0	1979	967	1367	28
106	0	0	1956	971	1364	28
107	0	0	1941	970	1356	28
108	0	0	1913	969	1347	29
109	0	0	1917	974	1345	26
110	0	0	1936	972	1346	28
111	0	0	1967	973	1349	27
112	0	0	1999	971	1357	29
113	0	0	2036	973	1363	27
114	0	0	2075	972	1366	27
115	0	0	2107	971	1367	30
116	0	0	2135	973	1366	27
117	0	0	2156	972	1359	30
118	0	0	2194	973	1350	26
119	0	0	2211	972	1347	28
120	0	0	2186	970	1348	28
121	0	0	2155	970	1352	27
122	0	0	2106	969	1357	29
123	0	0	2055	969	1363	29
124	0	0	2014	969	1367	27
125	0	0	1980	968	1368	29
126	0	0	1954	970	1365	28
127	0	0	1942	971	1358	28
0	0	0	1918	970	1349	29
1	0	0	1918	971	1344	27
2	0	0	1939	971	1347	28
3	0	0	1969	972	1351	28
4	0	0	2005	972	1357	29
5	0	0	2044	972	1364	28
6	0	0	2082	972	1368	29
7	0	0	2122	971	1369	29
8	0	0	2146	973	1367	28
9	0	0	2164	974	1359	29
10	0	0	2197	975	1350	27
11	0	0	2208	975	1348	26
12	0	0	2183	970	1349	30
13	0	0	2147	970	1353	25
14	0	0	2100	968	1358	29
15	0	0	2049	968	1364	28
16	0	0	2008	967	1366	27
17	0	0	1977	968	1368	30
18	0	0	1954	970	1366	28
19	0	0	1939	969	1359	29
20	0	0	1922	970	1349	29
21	0	0	1924	973	1346	28
22	0	0	1948	972	1348	32
23	0	0	1977	972	1352	32
24	0	0	2016	971	1358	29
25	0	0	2049	972	1364	27
26	0	0	2087	971	1368	29
27	0	0	2118	972	1369	29
28	0	0	2138	975	1366	28
29	0	0	2163	972	1360	28
30	0	0	2199	972	1351	28
31	0	0	2212	973	1348	28
32	0	0	2190	970	1350	29
33	0	0	2158	970	1353	28
34	0	0	2102	968	1359	29
35	0	0	2045	969	1365	27
36	0	0	1999	971	1368	28
37	0	0	1964	969	1369	30
38	0	0	1943	970	1367	29
39	0	0	1929	970	1359	29
40	0	0	1907	970	1349	27
41	0	0	1914	975	1347	26
42	0	0	1936	972	1347	29
43	0	0	1967	971	1352	28
44	0	0	2007	972	1358	29
45	0	0	2059	971	1363	29
46	0	0	2099	973	1369	30
47	0	0	2131	970	1369	31
48	0	0	2161	975	1367	30
49	0	0	2183	972	1361	29
50	0	0	2223	972	1351	28
51	0	0	2233	973	1349	28
52	0	0	2204	969	1349	28
53	0	0	2161	969	1353	30
54	0	0	2102	968	1359	29
55	0	0	2043	967	1366	29
56	0	0	1996	969	1369	30
57	0	0	1958	969	1369	29
58	0	0	1936	969	1367	31
59	0	0	1921	972	1359	26
60	0	0	1898	970	1350	25
61	0	0	1907	971	1346	27
62	0	0	1939	972	1346	27
63	0	0	1974	972	1351	30
64	0	0	2017	972	1358	28
65	0	0	2062	972	1364	27
66	0	0	2106	972	1369	28
67	0	0	2140	972	1369	29
68	0	0	2163	973	1367	31
69	0	0	2181	975	1361	27
70	0	0	2216	970	1352	29
71	0	0	2227	973	1348	28
72	0	0	2195	971	1349	27
73	0	0	2155	969	1353	30
74	0	0	2100	968	1358	28
75	0	0	2042	969	1364	32
76	0	0	1994	968	1368	31
77	0	0	1961	970	1369	28
78	0	0	1941	969	1367	31
79	0	0	1931	971	1359	32
80	0	0	1910	967	1348	28
81	0	0	1911	971	1346	28
82	0	0	1936	972	1347	28
83	0	0	1974	972	1351	31
84	0	0	2017	971	1357	29
85	0	0	2060	971	1363	29
86	0	0	2100	970	1368	31
87	0	0	2139	970	1369	29
88	0	0	2159	974	1366	30
89	0	0	2179	972	1360	29
90	0	0	2219	971	1350	28
91	0	0	2224	973	1348	29
92	0	0	2195	970	1348	29
93	0	0	2155	969	1352	15
94	0	0	2093	968	1359	32
95	0	0	2036	967	1363	28
96	0	0	1981	967	1367	31
97	0	0	1942	970	1367	29
98	0	0	1921	969	1366	30
99	0	0	1912	970	1358	29
100	0	0	1895	967	1348	28
101	0	0	1899	969	1346	30
102	0	0	1931	972	1347	28
103	0	0	1973	972	1351	28
104	0	0	2022	971	1356	29
105	0	0	2063	972	1363	28
106	0	0	2107	971	1367	29
107	0	0	2146	972	1369	27
108	0	0	2172	973	1366	29
109	0	0	2188	972	1359	29
110	0	0	2219	972	1349	28
111	0	0	2223	968	1347	28
112	0	0	2192	968	1348	28
113	0	0	2153	970	1352	28
114	0	0	2096	967	1357	29
115	0	0	2035	968	1363	28
116	0	0	1986	969	1367	27
117	0	0	1946	970	1368	28
118	0	0	1922	969	1365	27
119	0	0	1910	969	1357	29
120	0	0	1891	969	1348	28
121	0	0	1897	972	1345	27
122	0	0	1938	971	1347	27
123	0	0	1985	971	1350	24
124	0	0	2028	974	1355	28
125	0	0	2071	972	1361	29
126	0	0	2113	972	1366	29
127	0	0	2146	974	1368	29
0	0	0	2166	972	1366	27
1	0	0	2188	971	1358	29
2	0	0	2226	970	1350	28
3	0	0	2236	973	1347	27
4	0	0	2203	970	1347	28
5	0	0	2158	969	1350	24
6	0	0	2098	969	1356	29
7	0	0	2038	967	1361	28
8	0	0	1989	966	1366	31
9	0	0	1951	968	1365	28
10	0	0	1929	969	1364	27
11	0	0	1917	971	1357	28
12	0	0	1899	968	1347	29
13	0	0	1901	972	1345	27
14	0	0	1937	972	1345	27
15	0	0	1977	971	1347	29
16	0	0	2019	974	1354	28
17	0	0	2067	970	1359	31
18	0	0	2112	969	1365	31
19	0	0	2146	970	1366	28
20	0	0	2169	971	1364	26
21	0	0	2184	971	1358	30
22	0	0	2220	972	1348	28
23	0	0	2230	972	1345	27
24	0	0	2192	969	1346	28
25	0	0	2149	970	1349	23
26	0	0	2094	968	1355	29
27	0	0	2032	968	1360	28
28	0	0	1984	968	1365	27
29	0	0	1946	968	1364	29
30	0	0	1926	969	1363	28
31	0	0	1914	969	1355	28
32	0	0	1895	968	1346	28
33	0	0	1904	971	1342	31
34	0	0	1939	970	1344	27
35	0	0	1984	971	1348	25
36	0	0	2022	971	1353	26
37	0	0	2064	970	1359	31
38	0	0	2108	970	1364	29
39	0	0	2143	971	1365	28
40	0	0	2169	971	1363	28
41	0	0	2188	972	1356	31
42	0	0	2221	972	1346	28
43	0	0	2228	971	1344	27
44	0	0	2194	968	1345	27
45	0	0	2147	968	1348	28
46	0	0	2084	967	1353	28
47	0	0	2025	967	1359	29
48	0	0	1978	969	1363	27
49	0	0	1948	968	1363	28
50	0	0	1932	969	1361	28
51	0	0	1920	971	1355	29
52	0	0	1904	967	1345	28
53	0	0	1909	971	1342	27
54	0	0	1944	969	1343	29
55	0	0	1980	972	1346	24
56	0	0	2022	971	1352	29
57	0	0	2066	969	1359	30
58	0	0	2111	971	1362	28
59	0	0	2151	971	1364	29
60	0	0	2173	971	1361	28
61	0	0	2185	972	1355	29
62	0	0	2219	973	1346	26
63	0	0	2226	971	1343	27
64	0	0	2194	967	1344	28
65	0	0	2151	969	1347	28
66	0	0	2089	968	1353	29
67	0	0	2032	968	1358	29
68	0	0	1989	968	1360	26
69	0	0	1956	967	1363	28
70	0	0	1930	968	1360	24
71	0	0	1923	970	1353	31
72	0	0	1905	968	1344	28
73	0	0	1909	970	1340	29
74	0	0	1939	970	1341	28
75	0	0	1977	970	1345	28
76	0	0	2020	971	1350	28
77	0	0	2063	970	1357	29
78	0	0	2107	971	1362	28
79	0	0	2144	967	1362	29
80	0	0	2169	971	1360	28
81	0	0	2185	970	1354	29
82	0	0	2221	970	1347	31
83	0	0	2231	971	1341	27
84	0	0	2198	970	1341	29
85	0	0	2152	968	1346	28
86	0	0	2091	969	1351	28
87	0	0	2030	967	1359	31
88	0	0	1980	967	1360	28
89	0	0	1942	969	1362	28
90	0	0	1923	968	1359	28
91	0	0	1918	971	1352	28
92	0	0	1902	970	1343	27
93	0	0	1911	969	1338	32
94	0	0	1941	969	1340	29
95	0	0	1981	971	1345	28
96	0	0	2026	971	1349	27
97	0	0	2068	970	1356	28
98	0	0	2109	970	1359	30
99	0	0	2148	971	1362	28
100	0	0	2176	971	1360	29
101	0	0	2188	968	1353	29
102	0	0	2221	971	1345	27
103	0	0	2228	970	1339	32
104	0	0	2186	966	1342	28
105	0	0	2142	967	1345	28
106	0	0	2088	966	1350	27
107	0	0	2031	966	1357	31
108	0	0	1986	967	1358	29
109	0	0	1953	968	1361	27
110	0	0	1927	967	1359	29
111	0	0	1912	969	1351	28
112	0	0	1892	967	1342	28
113	0	0	1899	971	1337	29
114	0	0	1935	971	1340	28
115	0	0	1979	969	1344	27
116	0	0	2022	971	1349	28
117	0	0	2070	970	1355	27
118	0	0	2112	969	1358	32
119	0	0	2144	973	1361	28
120	0	0	2165	970	1359	29
121	0	0	2182	971	1353	28
122	0	0	2215	971	1344	28
123	0	0	2220	970	1338	30
124	0	0	2187	967	1341	28
125	0	0	2148	967	1345	28
126	0	0	2091	967	1350	28
127	0	0	2026	964	1356	29
0	0	0	1979	966	1357	30
1	0	0	1947	970	1361	28
2	0	0	1924	966	1358	29
3	0	0	1916	968	1351	29
4	0	0	1901	968	1341	25
5	0	0	1913	971	1336	30
6	0	0	1948	971	1339	29
7	0	0	1986	969	1343	29
8	0	0	2026	968	1349	30
9	0	0	2074	970	1355	27
10	0	0	2114	970	1357	30
11	0	0	2147	971	1361	28
12	0	0	2168	969	1359	29
13	0	0	2183	968	1352	28
14	0	0	2219	971	1344	24
15	0	0	2226	969	1339	29
16	0	0	2190	967	1341	28
17	0	0	2147	967	1345	28
18	0	0	2095	967	1351	28
19	0	0	2034	966	1355	30
20	0	0	1982	967	1359	28
21	0	0	1945	966	1360	29
22	0	0	1921	967	1358	29
23	0	0	1909	967	1351	28
24	0	0	1894	967	1341	27
25	0	0	1901	969	1340	29
26	0	0	1933	971	1339	28
27	0	0	1973	969	1343	29
28	0	0	2013	967	1350	28
29	0	0	2059	970	1355	24
30	0	0	2103	969	1360	29
31	0	0	2143	971	1361	27
32	0	0	2172	970	1359	29
33	0	0	2192	969	1353	29
34	0	0	2225	972	1344	27
35	0	0	2233	970	1341	29
36	0	0	2201	968	1341	29
37	0	0	2158	966	1344	28
38	0	0	2096	965	1350	28
39	0	0	2033	967	1354	28
40	0	0	1985	968	1359	30
41	0	0	1949	969	1362	28
42	0	0	1927	966	1358	28
43	0	0	1917	967	1352	28
44	0	0	1899	969	1341	30
45	0	0	1905	969	1339	27
46	0	0	1938	973	1341	28
47	0	0	1978	969	1344	27
48	0	0	2021	970	1348	28
49	0	0	2065	969	1355	30
50	0	0	2114	969	1360	28
51	0	0	2148	971	1362	28
52	0	0	2177	969	1359	29
53	0	0	2194	969	1353	29
54	0	0	2229	969	1343	31
55	0	0	2234	969	1340	28
56	0	0	2194	965	1341	28
57	0	0	2151	966	1345	27
58	0	0	2098	965	1349	28
59	0	0	2037	965	1355	29
60	0	0	1988	967	1359	29
61	0	0	1949	966	1361	28
62	0	0	1923	966	1358	29
63	0	0	1912	968	1351	28
64	0	0	1894	967	1341	29
65	0	0	1900	968	1339	30
66	0	0	1934	968	1340	29
67	0	0	1976	968	1344	28
68	0	0	2019	969	1350	28
69	0	0	2063	969	1356	27
70	0	0	2106	970	1359	30
71	0	0	2146	970	1363	28
72	0	0	2172	969	1359	29
73	0	0	2193	967	1353	29
74	0	0	2226	969	1343	29
75	0	0	2230	968	1340	31
76	0	0	2198	966	1342	29
77	0	0	2157	966	1346	28
78	0	0	2100	965	1350	28
79	0	0	2036	964	1357	29
80	0	0	1986	966	1361	25
81	0	0	1946	964	1362	28
82	0	0	1925	965	1359	29
83	0	0	1914	966	1352	28
84	0	0	1901	966	1341	30
85	0	0	1905	968	1338	28
86	0	0	1938	968	1340	29
87	0	0	1977	968	1344	28
88	0	0	2019	969	1348	27
89	0	0	2068	969	1357	31
90	0	0	2116	969	1361	27
91	0	0	2155	968	1362	28
92	0	0	2179	970	1361	30
93	0	0	2192	968	1355	29
94	0	0	2225	968	1345	29
95	0	0	2238	968	1342	27
96	0	0	2202	967	1342	29
97	0	0	2161	965	1346	28
98	0	0	2098	964	1351	28
99	0	0	2033	965	1358	29
100	0	0	1979	965	1359	29
101	0	0	1934	965	1362	27
102	0	0	1903	965	1358	29
103	0	0	1882	966	1352	28
104	0	0	1856	964	1342	29
105	0	0	1849	967	1340	27
106	0	0	1871	968	1341	29
107	0	0	1901	967	1345	28
108	0	0	1938	968	1350	28
109	0	0	1978	968	1357	31
110	0	0	2023	967	1360	28
111	0	0	2067	968	1361	29
112	0	0	2109	970	1361	27
113	0	0	2143	968	1355	29
114	0	0	2189	968	1345	27
115	0	0	2216	968	1341	29
116	0	0	2204	968	1343	30
117	0	0	2175	965	1347	27
118	0	0	2128	963	1352	28
119	0	0	2071	964	1357	29
120	0	0	2020	965	1360	29
121	0	0	1978	966	1363	30
122	0	0	1947	964	1359	29
123	0	0	1918	963	1353	29
124	0	0	1886	963	1345	29
125	0	0	1883	967	1340	25
126	0	0	1906	968	1341	29
127	0	0	1937	967	1346	31
0	0	0	1974	968	1351	29
1	0	0	2015	966	1358	30
2	0	0	2062	967	1363	27
3	0	0	2105	967	1363	30
4	0	0	2146	966	1362	29
5	0	0	2178	967	1355	28
6	0	0	2227	968	1347	29
7	0	0	2252	968	1341	30
8	0	0	2231	965	1343	29
9	0	0	2202	965	1347	27
10	0	0	2148	964	1352	28
11	0	0	2084	963	1357	27
12	0	0	2027	965	1362	25
13	0	0	1982	965	1362	28
14	0	0	1949	964	1361	31
15	0	0	1924	964	1354	31
16	0	0	1894	963	1344	28
17	0	0	1888	967	1341	28
18	0	0	1905	967	1342	29
19	0	0	1938	966	1346	27
20	0	0	1979	968	1352	28
21	0	0	2024	966	1359	30
22	0	0	2074	965	1361	29
23	0	0	2113	967	1364	29
24	0	0	2153	966	1362	28
25	0	0	2184	968	1354	28
26	0	0	2235	967	1346	26
27	0	0	2257	966	1342	28
28	0	0	2233	966	1343	28
29	0	0	2201	962	1347	27
30	0	0	2149	964	1353	29
31	0	0	2088	963	1359	30
32	0	0	2036	964	1363	26
33	0	0	1995	963	1363	28
34	0	0	1959	964	1361	28
35	0	0	1930	963	1356	28
36	0	0	1894	963	1346	27
37	0	0	1879	966	1340	29
38	0	0	1892	965	1343	30
39	0	0	1921	966	1347	30
40	0	0	1959	965	1353	29
41	0	0	2005	965	1358	28
42	0	0	2055	966	1363	26
43	0	0	2099	965	1365	29
44	0	0	2139	966	1363	30
45	0	0	2169	966	1356	28
46	0	0	2219	965	1348	29
47	0	0	2246	964	1342	28
48	0	0	2235	965	1344	27
49	0	0	2211	964	1348	28
50	0	0	2166	963	1354	29
51	0	0	2110	963	1359	28
52	0	0	2056	964	1364	28
53	0	0	2007	961	1364	28
54	0	0	1970	963	1363	28
55	0	0	1942	962	1356	29
56	0	0	1906	959	1345	27
57	0	0	1895	966	1342	29
58	0	0	1907	967	1342	28
59	0	0	1934	963	1347	27
60	0	0	1971	968	1353	28
61	0	0	2013	967	1359	29
62	0	0	2059	966	1362	28
63	0	0	2104	967	1365	29
64	0	0	2149	966	1364	28
65	0	0	2184	966	1358	29
66	0	0	2235	967	1348	31
67	0	0	2259	966	1344	28
68	0	0	2246	963	1345	27
69	0	0	2220	964	1349	27
70	0	0	2173	963	1354	29
71	0	0	2113	961	1360	28
72	0	0	2057	962	1366	28
73	0	0	2009	963	1365	29
74	0	0	1969	962	1363	28
75	0	0	1937	964	1357	29
76	0	0	1901	963	1347	28
77	0	0	1891	965	1343	29
78	0	0	1902	963	1343	29
79	0	0	1925	965	1348	28
80	0	0	1963	965	1354	29
81	0	0	2008	967	1360	27
82	0	0	2059	964	1365	29
83	0	0	2107	964	1366	28
84	0	0	2151	965	1365	29
85	0	0	2181	966	1358	29
86	0	0	2232	967	1349	27
87	0	0	2265	965	1346	28
88	0	0	2257	965	1346	27
89	0	0	2227	963	1350	28
90	0	0	2179	962	1355	29
91	0	0	2118	962	1362	30
92	0	0	2060	962	1366	29
93	0	0	2017	962	1367	28
94	0	0	1976	961	1365	26
95	0	0	1940	963	1357	29
96	0	0	1903	962	1347	27
97	0	0	1889	966	1342	28
98	0	0	1904	964	1345	28
99	0	0	1926	964	1350	29
100	0	0	1959	964	1355	29
101	0	0	2001	966	1360	28
102	0	0	2052	964	1365	29
103	0	0	2097	962	1367	29
104	0	0	2139	959	1365	27
105	0	0	2175	964	1360	29
106	0	0	2232	967	1349	27
107	0	0	2257	965	1345	28
108	0	0	2249	964	1347	28
109	0	0	2220	960	1352	29
110	0	0	2171	961	1357	31
111	0	0	2111	962	1360	28
112	0	0	2060	961	1367	30
113	0	0	2009	960	1367	29
114	0	0	1971	960	1366	29
115	0	0	1937	961	1359	29
116	0	0	1897	962	1348	27
117	0	0	1882	964	1344	28
118	0	0	1892	960	1347	28
119	0	0	1917	964	1351	28
120	0	0	1950	962	1358	29
121	0	0	1994	964	1363	30
122	0	0	2041	964	1368	28
123	0	0	2093	964	1369	29
124	0	0	2140	965	1368	29
125	0	0	2172	964	1361	29
126	0	0	2227	964	1352	27
127	0	0	2256	967	1348	28
0	0	0	2250	964	1349	28
1	0	0	2223	960	1354	29
2	0	0	2173	961	1357	28
3	0	0	2110	962	1362	27
4	0	0	2056	961	1370	30
5	0	0	2009	960	1370	29
6	0	0	1970	960	1368	29
7	0	0	1938	961	1361	28
8	0	0	1904	961	1351	30
9	0	0	1884	963	1347	29
10	0	0	1896	963	1348	28
11	0	0	1921	963	1351	29
12	0	0	1958	964	1358	29
13	0	0	2006	965	1363	31
14	0	0	2062	965	1371	31
15	0	0	2111	964	1371	29
16	0	0	2147	963	1369	29
17	0	0	2179	962	1362	28
18	0	0	2225	964	1354	27
19	0	0	2246	965	1350	29
20	0	0	2225	961	1350	28
21	0	0	2187	961	1355	30
22	0	0	2129	960	1360	28
23	0	0	2063	960	1367	27
24	0	0	2004	960	1371	29
25	0	0	1955	960	1373	29
26	0	0	1923	962	1370	29
27	0	0	1906	961	1363	29
28	0	0	1884	961	1353	26
29	0	0	1880	963	1349	28
30	0	0	1907	964	1351	29
31	0	0	1952	963	1355	29
32	0	0	2001	959	1360	28
33	0	0	2053	964	1367	29
34	0	0	2100	963	1372	29
35	0	0	2148	963	1374	30
36	0	0	2182	964	1372	30
37	0	0	2204	963	1366	29
38	0	0	2238	964	1356	27
39	0	0	2250	963	1353	29
40	0	0	2212	960	1353	28
41	0	0	2164	961	1357	29
42	0	0	2104	960	1363	28
43	0	0	2038	960	1369	26
44	0	0	1990	960	1373	29
45	0	0	1948	960	1375	27
46	0	0	1918	960	1373	29
47	0	0	1902	962	1366	29
48	0	0	1882	962	1355	29
49	0	0	1882	963	1352	29
50	0	0	1917	961	1353	29
51	0	0	1960	963	1357	29
52	0	0	2009	962	1364	29
53	0	0	2058	962	1370	30
54	0	0	2108	965	1377	30
55	0	0	2148	963	1377	28
56	0	0	2178	959	1375	28
57	0	0	2195	963	1369	29
58	0	0	2230	963	1359	30
59	0	0	2242	964	1356	29
60	0	0	2206	960	1356	28
61	0	0	2162	960	1360	28
62	0	0	2103	958	1367	28
63	0	0	2040	959	1371	29
64	0	0	1985	960	1377	27
65	0	0	1947	959	1379	28
66	0	0	1921	960	1377	29
67	0	0	1904	960	1370	30
68	0	0	1886	961	1360	31
69	0	0	1892	962	1356	28
70	0	0	1923	962	1357	30
71	0	0	1965	964	1361	28
72	0	0	2013	964	1368	27
73	0	0	2059	963	1375	31
74	0	0	2105	962	1379	29
75	0	0	2141	963	1382	29
76	0	0	2168	962	1380	29
77	0	0	2189	960	1372	28
78	0	0	2221	965	1362	26
79	0	0	2233	964	1358	30
80	0	0	2201	959	1360	28
81	0	0	2162	960	1364	28
82	0	0	2106	960	1370	27
83	0	0	2041	959	1377	28
84	0	0	1989	959	1382	28
85	0	0	1948	959	1382	30
86	0	0	1922	960	1382	29
87	0	0	1908	959	1374	28
88	0	0	1889	961	1363	28
89	0	0	1893	962	1360	27
90	0	0	1926	960	1360	29
91	0	0	1970	962	1365	29
92	0	0	2014	962	1373	30
93	0	0	2058	963	1379	31
94	0	0	2103	962	1382	31
95	0	0	2145	962	1386	29
96	0	0	2171	962	1384	29
97	0	0	2186	961	1379	29
98	0	0	2218	963	1368	31
99	0	0	2230	963	1362	27
100	0	0	2200	960	1364	30
101	0	0	2158	960	1369	29
102	0	0	2101	961	1375	30
103	0	0	2037	958	1381	29
104	0	0	1981	960	1387	29
105	0	0	1943	959	1388	29
106	0	0	1920	960	1387	29
107	0	0	1913	961	1380	29
108	0	0	1899	962	1368	28
109	0	0	1907	962	1366	27
110	0	0	1935	962	1364	29
111	0	0	1970	961	1370	29
112	0	0	2017	961	1377	29
113	0	0	2064	963	1384	30
114	0	0	2108	963	1390	29
115	0	0	2139	961	1390	30
116	0	0	2163	961	1389	30
117	0	0	2179	962	1383	27
118	0	0	2207	963	1372	30
119	0	0	2226	962	1369	29
120	0	0	2194	959	1369	28
121	0	0	2148	960	1374	30
122	0	0	2094	958	1381	29
123	0	0	2037	959	1387	31
124	0	0	1994	958	1392	27
125	0	0	1959	958	1393	29
126	0	0	1935	959	1391	30
127	0	0	1922	960	1385	27
0	0	0	1898	960	1374	31
1	0	0	1906	962	1370	28
2	0	0	1944	961	1369	31
3	0	0	1989	962	1375	30
4	0	0	2031	960	1382	29
5	0	0	2070	961	1389	30
6	0	0	2113	961	1395	27
7	0	0	2145	962	1396	29
8	0	0	2165	959	1395	29
9	0	0	2178	963	1388	30
10	0	0	2210	962	1378	29
11	0	0	2220	961	1374	28
12	0	0	2183	959	1374	29
13	0	0	2144	958	1379	28
14	0	0	2093	960	1385	27
15	0	0	2033	958	1392	29
16	0	0	1985	957	1397	29
17	0	0	1945	957	1397	30
18	0	0	1924	958	1397	29
19	0	0	1911	961	1389	29
20	0	0	1897	960	1379	29
21	0	0	1903	960	1375	28
22	0	0	1932	961	1375	29
23	0	0	1972	959	1380	29
24	0	0	2016	963	1387	29
25	0	0	2062	961	1394	30
26	0	0	2104	962	1401	29
27	0	0	2139	961	1402	30
28	0	0	2163	961	1401	30
29	0	0	2182	961	1393	30
30	0	0	2214	961	1383	29
31	0	0	2224	961	1379	29
32	0	0	2189	958	1381	29
33	0	0	2146	957	1384	29
34	0	0	2089	958	1390	29
35	0	0	2030	957	1397	29
36	0	0	1982	957	1403	28
37	0	0	1949	958	1404	28
38	0	0	1928	957	1402	30
39	0	0	1921	961	1393	29
40	0	0	1907	957	1384	29
41	0	0	1905	961	1380	28
42	0	0	1938	961	1382	29
43	0	0	1986	961	1385	30
44	0	0	2025	961	1392	30
45	0	0	2068	961	1399	29
46	0	0	2106	960	1406	31
47	0	0	2138	961	1408	29
48	0	0	2161	959	1405	29
49	0	0	2173	961	1399	30
50	0	0	2204	960	1388	28
51	0	0	2211	962	1384	30
52	0	0	2178	959	1386	31
53	0	0	2143	958	1389	30
54	0	0	2087	957	1395	29
55	0	0	2025	955	1401	28
56	0	0	1982	958	1409	30
57	0	0	1955	959	1411	30
58	0	0	1938	958	1408	28
59	0	0	1928	959	1401	29
60	0	0	1915	956	1388	28
61	0	0	1914	960	1388	31
62	0	0	1941	958	1386	30
63	0	0	1975	959	1391	30
64	0	0	2016	960	1397	30
65	0	0	2058	960	1406	29
66	0	0	2101	961	1411	29
67	0	0	2138	961	1413	30
68	0	0	2159	960	1411	29
69	0	0	2176	959	1405	29
70	0	0	2203	961	1395	30
71	0	0	2216	961	1389	29
72	0	0	2182	958	1390	29
73	0	0	2141	957	1394	29
74	0	0	2087	956	1401	30
75	0	0	2033	957	1408	28
76	0	0	1988	957	1413	27
77	0	0	1956	958	1416	28
78	0	0	1935	958	1413	28
79	0	0	1930	960	1406	31
80	0	0	1915	958	1395	29
81	0	0	1921	960	1391	31
82	0	0	1950	960	1392	31
83	0	0	1985	960	1395	30
84	0	0	2019	961	1402	30
85	0	0	2064	960	1411	31
86	0	0	2099	960	1416	31
87	0	0	2132	960	1421	29
88	0	0	2154	960	1416	30
89	0	0	2164	960	1409	29
90	0	0	2193	960	1398	30
91	0	0	2207	960	1394	29
92	0	0	2175	958	1396	29
93	0	0	2135	957	1399	29
94	0	0	2083	956	1406	30
95	0	0	2029	957	1414	29
96	0	0	1991	957	1418	29
97	0	0	1961	957	1421	30
98	0	0	1945	957	1418	31
99	0	0	1940	959	1410	28
100	0	0	1924	957	1399	30
101	0	0	1934	960	1395	31
102	0	0	1961	958	1396	30
103	0	0	1993	959	1399	30
104	0	0	2031	960	1406	31
105	0	0	2070	960	1414	29
106	0	0	2106	959	1419	30
107	0	0	2135	959	1422	31
108	0	0	2152	959	1420	30
109	0	0	2166	960	1414	30
110	0	0	2188	960	1402	30
111	0	0	2192	960	1397	29
112	0	0	2162	957	1399	30
113	0	0	2128	957	1403	30
114	0	0	2079	956	1409	29
115	0	0	2024	956	1417	29
116	0	0	1985	957	1423	31
117	0	0	1957	957	1423	29
118	0	0	1941	957	1421	29
119	0	0	1935	959	1414	29
120	0	0	1928	958	1404	31
121	0	0	1939	959	1397	29
122	0	0	1966	959	1399	30
123	0	0	2001	959	1403	29
124	0	0	2029	959	1411	30
125	0	0	2066	960	1417	30
126	0	0	2103	960	1425	30
127	0	0	2134	959	1424	25
0	0	0	2158	961	1424	27
1	0	0	2164	959	1417	31
2	0	0	2186	959	1407	31
3	0	0	2193	958	1401	27
4	0	0	2161	956	1401	28
5	0	0	2123	957	1405	30
6	0	0	2077	956	1412	27
7	0	0	2029	956	1421	31
8	0	0	1991	957	1425	29
9	0	0	1967	957	1425	31
10	0	0	1956	958	1424	29
11	0	0	1950	959	1417	29
12	0	0	1936	956	1405	34
13	0	0	1941	959	1399	27
14	0	0	1967	959	1401	29
15	0	0	1997	958	1405	32
16	0	0	2025	958	1414	28
17	0	0	2062	959	1420	29
18	0	0	2095	958	1427	30
19	0	0	2121	958	1429	31
20	0	0	2142	960	1427	31
21	0	0	2151	959	1419	30
22	0	0	2170	959	1408	28
23	0	0	2178	959	1404	28
24	0	0	2151	958	1402	29
25	0	0	2121	956	1408	28
26	0	0	2077	954	1415	30
27	0	0	2026	956	1421	30
28	0	0	1992	955	1427	30
29	0	0	1965	956	1428	27
30	0	0	1948	956	1428	29
31	0	0	1943	959	1419	29
32	0	0	1934	957	1408	28
33	0	0	1938	958	1403	30
34	0	0	1966	958	1403	30
35	0	0	2003	959	1408	28
36	0	0	2033	960	1415	30
37	0	0	2066	959	1421	29
38	0	0	2100	959	1428	28
39	0	0	2131	958	1430	30
40	0	0	2147	958	1429	29
41	0	0	2158	958	1422	30
42	0	0	2179	959	1410	29
43	0	0	2185	961	1405	30
44	0	0	2154	956	1405	29
45	0	0	2120	956	1411	29
46	0	0	2074	956	1416	29
47	0	0	2028	955	1422	30
48	0	0	1992	956	1429	32
49	0	0	1972	956	1430	29
50	0	0	1960	958	1429	30
51	0	0	1955	959	1423	31
52	0	0	1947	957	1411	31
53	0	0	1950	959	1404	27
54	0	0	1971	958	1405	28
55	0	0	2001	960	1410	29
56	0	0	2027	959	1417	29
57	0	0	2054	958	1423	31
58	0	0	2092	959	1429	32
59	0	0	2116	957	1432	31
60	0	0	2134	958	1430	30
61	0	0	2142	957	1422	30
62	0	0	2159	959	1412	29
63	0	0	2164	957	1406	27
64	0	0	2141	956	1406	30
65	0	0	2110	956	1412	27
66	0	0	2069	955	1419	30
67	0	0	2028	955	1425	27
68	0	0	1998	956	1429	32
69	0	0	1975	955	1432	29
70	0	0	1961	957	1430	29
71	0	0	1958	957	1423	30
72	0	0	1947	956	1411	29
73	0	0	1953	958	1406	32
74	0	0	1976	958	1406	30
75	0	0	2009	957	1411	29
76	0	0	2042	957	1418	30
77	0	0	2068	957	1425	31
78	0	0	2100	958	1431	32
79	0	0	2125	958	1433	30
80	0	0	2141	958	1431	30
81	0	0	2148	956	1424	29
82	0	0	2169	958	1413	29
83	0	0	2171	957	1407	32
84	0	0	2141	955	1407	29
85	0	0	2109	955	1413	28
86	0	0	2069	954	1419	29
87	0	0	2023	954	1425	29
88	0	0	1988	955	1431	30
89	0	0	1968	956	1433	28
90	0	0	1961	958	1431	32
91	0	0	1962	957	1424	28
92	0	0	1951	956	1412	27
93	0	0	1956	957	1407	28
94	0	0	1985	958	1406	21
95	0	0	2015	957	1411	29
96	0	0	2043	956	1418	28
97	0	0	2070	958	1426	27
98	0	0	2101	958	1433	28
99	0	0	2123	958	1434	29
100	0	0	2137	958	1433	30
101	0	0	2144	956	1425	30
102	0	0	2161	958	1414	32
103	0	0	2164	958	1409	30
104	0	0	2135	955	1410	29
105	0	0	2103	955	1414	30
106	0	0	2069	955	1420	31
107	0	0	2028	956	1426	30
108	0	0	1995	956	1433	28
109	0	0	1977	956	1434	29
110	0	0	1967	957	1432	29
111	0	0	1962	957	1424	29
112	0	0	1951	957	1412	27
113	0	0	1960	957	1408	30
114	0	0	1986	957	1407	30
115	0	0	2013	958	1413	28
116	0	0	2040	956	1420	30
117	0	0	2069	958	1429	28
118	0	0	2100	958	1433	28
119	0	0	2121	957	1434	31
120	0	0	2135	957	1433	30
121	0	0	2140	957	1426	29
122	0	0	2157	958	1414	27
123	0	0	2166	957	1409	30
124	0	0	2143	955	1410	27
125	0	0	2115	955	1414	27
126	0	0	2079	954	1420	30
127	0	0	2035	955	1429	28
0	0	0	2000	956	1433	30
1	0	0	1975	955	1434	30
2	0	0	1969	957	1433	30
3	0	0	1967	957	1425	29
4	0	0	1961	957	1414	26
5	0	0	1966	957	1409	28
6	0	0	1990	957	1407	31
7	0	0	2015	957	1414	31
8	0	0	2040	957	1420	30
9	0	0	2071	959	1428	30
10	0	0	2094	958	1433	30
11	0	0	2115	958	1436	31
12	0	0	2133	957	1434	30
13	0	0	2137	959	1427	30
14	0	0	2157	959	1415	30
15	0	0	2162	958	1410	29
16	0	0	2141	955	1409	29
17	0	0	2116	955	1415	29
18	0	0	2076	953	1421	29
19	0	0	2031	955	1428	30
20	0	0	2001	955	1433	30
21	0	0	1983	955	1435	30
22	0	0	1966	956	1434	30
23	0	0	1956	957	1427	30
24	0	0	1960	960	1415	31
25	0	0	1962	957	1409	31
26	0	0	1983	957	1408	29
27	0	0	2014	957	1413	31
28	0	0	2042	956	1420	29
29	0	0	2065	957	1427	31
30	0	0	2093	959	1433	31
31	0	0	2116	957	1437	29
32	0	0	2129	958	1434	30
33	0	0	2136	958	1428	30
34	0	0	2153	957	1416	29
35	0	0	2157	957	1410	31
36	0	0	2131	955	1411	29
37	0	0	2109	955	1416	29
38	0	0	2069	955	1423	30
39	0	0	2030	957	1430	31
40	0	0	2001	955	1434	32
41	0	0	1979	955	1435	31
42	0	0	1969	957	1434	30
43	0	0	1969	957	1428	30
44	0	0	1964	957	1416	28
45	0	0	1972	957	1410	31
46	0	0	1997	957	1411	29
47	0	0	2018	957	1413	29
48	0	0	2039	957	1421	30
49	0	0	2070	958	1430	28
50	0	0	2097	957	1435	32
51	0	0	2121	959	1437	30
52	0	0	2133	957	1435	31
53	0	0	2143	957	1429	31
54	0	0	2155	958	1417	30
55	0	0	2154	957	1411	31
56	0	0	2132	954	1411	29
57	0	0	2108	956	1416	29
58	0	0	2077	954	1423	30
59	0	0	2035	956	1430	30
60	0	0	2003	954	1434	27
61	0	0	1979	956	1435	30
62	0	0	1966	956	1434	30
63	0	0	1957	957	1427	29
64	0	0	1955	957	1415	30
65	0	0	1958	957	1410	29
66	0	0	1976	957	1409	29
67	0	0	2007	957	1414	29
68	0	0	2039	956	1423	31
69	0	0	2067	958	1430	30
70	0	0	2097	958	1434	31
71	0	0	2119	958	1436	30
72	0	0	2132	957	1436	31
73	0	0	2136	956	1429	30
74	0	0	2148	958	1417	31
75	0	0	2152	958	1412	27
76	0	0	2125	955	1411	28
77	0	0	2096	955	1416	29
78	0	0	2065	954	1423	31
79	0	0	2028	954	1430	30
80	0	0	2000	956	1435	27
81	0	0	1984	955	1435	30
82	0	0	1977	957	1435	30
83	0	0	1974	957	1428	30
84	0	0	1967	955	1416	29
85	0	0	1967	957	1410	28
86	0	0	1989	957	1410	29
87	0	0	2012	955	1415	29
88	0	0	2039	957	1422	31
89	0	0	2067	958	1430	30
90	0	0	2093	957	1435	32
91	0	0	2115	957	1436	30
92	0	0	2132	957	1436	30
93	0	0	2134	958	1429	30
94	0	0	2145	955	1416	28
95	0	0	2147	956	1412	27
96	0	0	2122	957	1409	29
97	0	0	2099	956	1416	30
98	0	0	2069	954	1421	31
99	0	0	2031	953	1429	28
100	0	0	2002	955	1435	32
101	0	0	1984	955	1437	31
102	0	0	1967	955	1435	31
103	0	0	1967	957	1428	30
104	0	0	1963	957	1416	28
105	0	0	1967	957	1410	30
106	0	0	1994	957	1409	28
107	0	0	2025	957	1415	30
108	0	0	2050	960	1422	31
109	0	0	2071	954	1429	29
110	0	0	2103	957	1435	27
111	0	0	2122	958	1436	30
112	0	0	2134	956	1436	31
113	0	0	2139	960	1429	30
114	0	0	2157	957	1416	29
115	0	0	2158	956	1411	26
116	0	0	2133	956	1412	29
117	0	0	2105	954	1417	29
118	0	0	2069	956	1423	29
119	0	0	2028	951	1430	30
120	0	0	1998	954	1436	30
121	0	0	1979	956	1437	29
122	0	0	1974	957	1436	30
123	0	0	1968	957	1429	31
124	0	0	1960	956	1416	31
125	0	0	1966	956	1410	31
126	0	0	1991	957	1410	27
127	0	0	2016	957	1415	29
0	0	0	2042	957	1422	29
1	0	0	2071	957	1429	32
2	0	0	2092	957	1436	31
3	0	0	2118	957	1436	32
4	0	0	2135	955	1436	31
5	0	0	2141	957	1429	31
6	0	0	2156	954	1417	30
7	0	0	2159	957	1413	29
8	0	0	2133	955	1412	28
9	0	0	2105	955	1417	30
10	0	0	2066	954	1423	28
11	0	0	2027	953	1429	27
12	0	0	1996	954	1435	31
13	0	0	1984	956	1436	31
14	0	0	1975	957	1435	30
15	0	0	1970	957	1428	29
16	0	0	1969	956	1416	31
17	0	0	1971	957	1411	32
18	0	0	1995	957	1411	28
19	0	0	2021	957	1416	27
20	0	0	2048	957	1422	31
21	0	0	2073	961	1430	31
22	0	0	2093	958	1435	30
23	0	0	2118	956	1438	31
24	0	0	2131	957	1436	31
25	0	0	2136	957	1429	31
26	0	0	2157	955	1418	28
27	0	0	2159	958	1413	32
28	0	0	2132	955	1413	28
29	0	0	2105	954	1417	29
30	0	0	2069	955	1423	30
31	0	0	2035	954	1430	30
32	0	0	2009	954	1436	30
33	0	0	1987	954	1438	30
34	0	0	1972	956	1436	31
35	0	0	1969	957	1428	27
36	0	0	1962	955	1416	27
37	0	0	1964	956	1411	29
38	0	0	1991	955	1411	28
39	0	0	2019	958	1416	29
40	0	0	2042	958	1423	31
41	0	0	2068	957	1431	31
42	0	0	2095	957	1436	31
43	0	0	2115	957	1438	32
44	0	0	2128	957	1437	31
45	0	0	2135	958	1431	28
46	0	0	2152	955	1420	30
47	0	0	2157	958	1413	32
48	0	0	2133	955	1413	30
49	0	0	2107	955	1418	30
50	0	0	2073	954	1424	29
51	0	0	2032	953	1431	31
52	0	0	2001	955	1436	31
53	0	0	1981	955	1438	31
54	0	0	1973	957	1436	31
55	0	0	1972	957	1428	31
56	0	0	1967	959	1418	29
57	0	0	1967	957	1411	32
58	0	0	1986	956	1411	31
59	0	0	2009	959	1415	29
60	0	0	2040	957	1422	31
61	0	0	2067	959	1431	30
62	0	0	2096	957	1437	31
63	0	0	2118	957	1438	31
64	0	0	2131	959	1436	30
65	0	0	2138	957	1428	29
66	0	0	2150	960	1419	30
67	0	0	2156	957	1413	30
68	0	0	2130	955	1413	29
69	0	0	2101	955	1416	29
70	0	0	2066	954	1422	30
71	0	0	2032	957	1431	30
72	0	0	2012	955	1436	31
73	0	0	1989	954	1438	31
74	0	0	1975	957	1435	30
75	0	0	1973	957	1426	27
76	0	0	1966	960	1418	29
77	0	0	1970	958	1412	30
78	0	0	1988	956	1412	29
79	0	0	2015	957	1416	30
80	0	0	2039	956	1424	28
81	0	0	2067	957	1431	30
82	0	0	2100	957	1437	30
83	0	0	2117	957	1439	31
84	0	0	2123	957	1437	30
85	0	0	2128	958	1432	32
86	0	0	2145	957	1419	34
87	0	0	2154	958	1413	30
88	0	0	2126	954	1413	30
89	0	0	2092	955	1417	29
90	0	0	2062	954	1420	27
91	0	0	2026	953	1431	30
92	0	0	1999	955	1436	30
93	0	0	1981	954	1438	31
94	0	0	1974	956	1437	31
95	0	0	1971	957	1430	26
96	0	0	1963	956	1417	30
97	0	0	1968	956	1412	29
98	0	0	1985	956	1412	30
99	0	0	2014	955	1416	30
100	0	0	2042	957	1423	30
101	0	0	2068	956	1430	34
102	0	0	2094	956	1436	31
103	0	0	2110	957	1439	31
104	0	0	2120	955	1438	31
105	0	0	2124	957	1432	30
106	0	0	2141	956	1419	31
107	0	0	2149	957	1413	31
108	0	0	2129	955	1413	31
109	0	0	2102	954	1417	30
110	0	0	2073	953	1421	27
111	0	0	2035	952	1431	31
112	0	0	2010	955	1436	31
113	0	0	1989	955	1438	31
114	0	0	1974	955	1436	30
115	0	0	1973	956	1427	27
116	0	0	1968	954	1418	30
117	0	0	1972	956	1412	29
118	0	0	1990	955	1412	31
119	0	0	2015	956	1417	30
120	0	0	2042	956	1424	28
121	0	0	2070	956	1430	32
122	0	0	2096	956	1436	30
123	0	0	2112	957	1438	31
124	0	0	2122	956	1437	31
125	0	0	2128	957	1431	30
126	0	0	2144	957	1420	34
127	0	0	2146	958	1414	31
0	0	0	2124	955	1414	29
1	0	0	2099	953	1418	30
2	0	0	2070	953	1424	31
3	0	0	2032	952	1431	31
4	0	0	2005	955	1436	31
5	0	0	1984	954	1438	31
6	0	0	1978	958	1439	30
7	0	0	1977	956	1430	31
8	0	0	1973	955	1418	33
9	0	0	1976	956	1412	30
10	0	0	1994	956	1412	29
11	0	0	2015	957	1416	29
12	0	0	2045	956	1424	30
13	0	0	2073	956	1431	31
14	0	0	2096	956	1436	31
15	0	0	2111	956	1440	31
16	0	0	2119	957	1438	31
17	0	0	2126	959	1432	31
18	0	0	2141	954	1420	31
19	0	0	2148	957	1414	28
20	0	0	2123	954	1414	29
21	0	0	2096	954	1418	29
22	0	0	2071	954	1425	30
23	0	0	2045	954	1431	30
24	0	0	2016	952	1437	31
25	0	0	1997	954	1439	31
26	0	0	1987	956	1437	31
27	0	0	1986	957	1430	30
28	0	0	1978	956	1419	30
29	0	0	1978	954	1412	28
30	0	0	2001	955	1412	27
31	0	0	2029	958	1417	31
32	0	0	2053	956	1424	30
33	0	0	2073	958	1431	30
34	0	0	2100	956	1437	30
35	0	0	2118	956	1440	31
36	0	0	2131	955	1438	31
37	0	0	2134	957	1431	27
38	0	0	2148	956	1420	30
39	0	0	2153	956	1414	29
40	0	0	2134	956	1414	28
41	0	0	2109	955	1418	30
42	0	0	2072	955	1424	29
43	0	0	2033	956	1432	28
44	0	0	2003	954	1438	32
45	0	0	1984	955	1439	31
46	0	0	1973	957	1438	31
47	0	0	1970	957	1431	30
48	0	0	1967	956	1418	31
49	0	0	1963	956	1413	29
50	0	0	1986	955	1412	27
51	0	0	2015	957	1417	29
52	0	0	2045	957	1424	31
53	0	0	2072	958	1431	30
54	0	0	2096	956	1437	31
55	0	0	2115	957	1438	34
56	0	0	2130	958	1439	31
57	0	0	2131	956	1432	27
58	0	0	2145	959	1420	28
59	0	0	2153	956	1414	31
60	0	0	2128	954	1414	28
61	0	0	2099	954	1418	30
62	0	0	2065	953	1424	31
63	0	0	2032	953	1431	31
64	0	0	2005	954	1437	30
65	0	0	1991	955	1439	30
66	0	0	1977	955	1438	30
67	0	0	1973	956	1431	29
68	0	0	1969	958	1419	29
69	0	0	1970	956	1413	29
70	0	0	1988	956	1411	32
71	0	0	2012	955	1418	29
72	0	0	2035	956	1424	27
73	0	0	2069	955	1430	31
74	0	0	2091	955	1437	30
75	0	0	2110	956	1439	32
76	0	0	2119	956	1438	31
77	0	0	2122	956	1432	31
78	0	0	2134	955	1420	29
79	0	0	2140	956	1414	30
80	0	0	2121	955	1414	28
81	0	0	2099	954	1418	29
82	0	0	2067	953	1424	28
83	0	0	2029	953	1432	30
84	0	0	1999	954	1438	30
85	0	0	1989	955	1440	30
86	0	0	1978	954	1438	31
87	0	0	1972	956	1431	29
88	0	0	1967	955	1419	28
89	0	0	1971	955	1413	30
90	0	0	1995	956	1412	27
91	0	0	2020	956	1417	29
92	0	0	2044	956	1423	30
93	0	0	2072	958	1431	28
94	0	0	2094	956	1437	31
95	0	0	2113	956	1439	32
96	0	0	2122	957	1438	31
97	0	0	2128	956	1432	30
98	0	0	2142	957	1421	30
99	0	0	2146	956	1414	29
100	0	0	2127	954	1414	28
101	0	0	2098	953	1419	30
102	0	0	2066	951	1424	29
103	0	0	2027	955	1432	28
104	0	0	2003	953	1438	30
105	0	0	1985	956	1439	30
106	0	0	1980	956	1438	31
107	0	0	1976	956	1431	30
108	0	0	1972	957	1419	29
109	0	0	1977	955	1413	31
110	0	0	1998	955	1413	28
111	0	0	2023	956	1417	31
112	0	0	2055	955	1423	30
113	0	0	2076	957	1431	30
114	0	0	2097	956	1437	30
115	0	0	2110	956	1439	31
116	0	0	2123	954	1439	31
117	0	0	2126	956	1432	28
118	0	0	2140	957	1421	30
119	0	0	2150	960	1414	30
120	0	0	2131	955	1414	29
121	0	0	2106	954	1418	30
122	0	0	2073	952	1424	29
123	0	0	2032	953	1432	28
124	0	0	2007	953	1437	31
125	0	0	1991	954	1440	31
126	0	0	1983	955	1437	30
127	0	0	1980	959	1430	29
0	0	0	1974	955	1419	30
1	0	0	1973	956	1413	29
2	0	0	2000	955	1412	28
3	0	0	2024	955	1417	29
4	0	0	2050	954	1423	30
5	0	0	2070	954	1431	31
6	0	0	2095	954	1437	31
7	0	0	2114	951	1440	31
8	0	0	2123	956	1439	31
9	0	0	2133	954	1432	30
10	0	0	2146	955	1420	29
11	0	0	2149	957	1415	29
12	0	0	2124	954	1413	28
13	0	0	2095	953	1419	32
14	0	0	2069	951	1424	29
15	0	0	2034	951	1431	30
16	0	0	2011	953	1437	31
17	0	0	1997	955	1438	30
18	0	0	1989	955	1438	31
19	0	0	1986	954	1430	29
20	0	0	1977	955	1418	29
21	0	0	1976	955	1414	28
22	0	0	1994	955	1413	30
23	0	0	2022	956	1417	30
24	0	0	2045	956	1424	28
25	0	0	2067	956	1431	30
26	0	0	2086	956	1437	30
27	0	0	2106	955	1439	31
28	0	0	2124	959	1439	31
29	0	0	2127	953	1433	31
30	0	0	2139	955	1421	30
31	0	0	2146	958	1414	29
32	0	0	2124	954	1414	31
33	0	0	2100	955	1418	30
34	0	0	2069	953	1425	27
35	0	0	2039	954	1432	30
36	0	0	2015	954	1437	31
37	0	0	1993	954	1439	30
38	0	0	1986	958	1438	30
39	0	0	1987	953	1432	31
40	0	0	1984	954	1419	30
41	0	0	1984	957	1413	29
42	0	0	2001	954	1412	30
43	0	0	2026	954	1416	29
44	0	0	2054	955	1423	30
45	0	0	2072	956	1431	31
46	0	0	2092	956	1436	31
47	0	0	2110	956	1439	31
48	0	0	2120	955	1438	30
49	0	0	2126	955	1432	30
50	0	0	2134	956	1421	30
51	0	0	2141	957	1414	29
52	0	0	2118	954	1414	27
53	0	0	2093	955	1419	30
54	0	0	2065	951	1426	30
55	0	0	2035	953	1432	31
56	0	0	2011	955	1437	31
57	0	0	1994	954	1439	31
58	0	0	1987	955	1438	31
59	0	0	1984	956	1431	32
60	0	0	1978	954	1419	31
61	0	0	1980	955	1413	29
62	0	0	1997	955	1413	27
63	0	0	2023	955	1416	29
64	0	0	2049	954	1423	30
65	0	0	2072	953	1431	31
66	0	0	2094	956	1437	31
67	0	0	2112	955	1439	30
68	0	0	2121	955	1438	31
69	0	0	2123	956	1432	31
70	0	0	2137	956	1421	30
71	0	0	2144	956	1415	29
72	0	0	2122	950	1415	29
73	0	0	2091	954	1419	30
74	0	0	2066	954	1424	30
75	0	0	2035	953	1432	29
76	0	0	2015	954	1437	31
77	0	0	2004	955	1439	31
78	0	0	2002	956	1438	30
79	0	0	1996	955	1431	29
80	0	0	1984	954	1420	29
81	0	0	1982	956	1413	29
82	0	0	1999	955	1412	25
83	0	0	2022	958	1416	29
84	0	0	2042	956	1423	32
85	0	0	2064	956	1431	30
86	0	0	2085	954	1437	31
87	0	0	2109	959	1440	30
88	0	0	2115	955	1439	31
89	0	0	2118	955	1433	31
90	0	0	2129	957	1421	31
91	0	0	2132	957	1414	29
92	0	0	2114	953	1414	25
93	0	0	2093	953	1418	30
94	0	0	2067	951	1424	29
95	0	0	2035	952	1432	30
96	0	0	2014	954	1437	30
97	0	0	2002	954	1439	27
98	0	0	1994	958	1437	30
99	0	0	1994	955	1431	31
100	0	0	1993	954	1419	28
101	0	0	1992	955	1413	28
102	0	0	2005	956	1414	28
103	0	0	2028	954	1417	30
104	0	0	2049	956	1424	29
105	0	0	2072	955	1432	29
106	0	0	2093	954	1437	31
107	0	0	2112	955	1439	27
108	0	0	2121	955	1438	30
109	0	0	2124	954	1432	31
110	0	0	2135	956	1421	30
111	0	0	2137	954	1414	30
112	0	0	2112	955	1415	29
113	0	0	2090	955	1418	30
114	0	0	2069	953	1424	30
115	0	0	2036	954	1432	29
116	0	0	2009	952	1437	31
117	0	0	1995	955	1439	28
118	0	0	1990	955	1438	30
119	0	0	1989	958	1432	28
120	0	0	1983	955	1419	32
121	0	0	1985	954	1413	29
122	0	0	2004	955	1413	27
123	0	0	2025	955	1416	28
124	0	0	2046	955	1422	31
125	0	0	2068	956	1431	30
126	0	0	2085	955	1436	31
127	0	0	2100	955	1439	32
0	0	0	2113	955	1438	31
1	0	0	2120	955	1432	30
2	0	0	2132	958	1420	29
3	0	0	2141	955	1414	29
4	0	0	2123	954	1414	28
5	0	0	2099	953	1416	29
6	0	0	2068	953	1423	29
7	0	0	2036	952	1431	30
8	0	0	2014	953	1436	30
9	0	0	2007	956	1438	30
10	0	0	2002	956	1438	29
11	0	0	2000	954	1430	31
12	0	0	1994	957	1418	28
13	0	0	1995	954	1414	28
14	0	0	2016	954	1412	28
15	0	0	2034	955	1416	29
16	0	0	2053	954	1423	31
17	0	0	2071	956	1429	29
18	0	0	2088	954	1436	31
19	0	0	2108	955	1439	31
20	0	0	2118	956	1438	31
21	0	0	2118	956	1432	29
22	0	0	2128	955	1420	30
23	0	0	2135	956	1415	29
24	0	0	2115	954	1413	28
25	0	0	2094	954	1417	30
26	0	0	2069	952	1424	29
27	0	0	2036	952	1429	32
28	0	0	2017	952	1436	31
29	0	0	2006	954	1438	31
30	0	0	1997	954	1437	31
31	0	0	1996	953	1431	30
32	0	0	1992	955	1417	28
33	0	0	1992	954	1412	29
34	0	0	2008	954	1411	28
35	0	0	2032	955	1416	29
36	0	0	2048	955	1420	32
37	0	0	2065	956	1428	30
38	0	0	2085	955	1435	30
39	0	0	2101	955	1438	31
40	0	0	2115	955	1437	32
41	0	0	2121	954	1430	31
42	0	0	2131	955	1419	30
43	0	0	2136	956	1413	28
44	0	0	2111	953	1412	28
45	0	0	2096	953	1417	30
46	0	0	2065	951	1422	29
47	0	0	2033	955	1428	30
48	0	0	2014	954	1435	30
49	0	0	2002	954	1437	30
50	0	0	1997	952	1435	29
51	0	0	1992	954	1428	29
52	0	0	1988	955	1417	30
53	0	0	1996	957	1410	29
54	0	0	2017	954	1410	29
55	0	0	2035	954	1413	28
56	0	0	2052	955	1421	30
57	0	0	2075	955	1428	30
58	0	0	2090	955	1435	30
59	0	0	2103	955	1437	31
60	0	0	2106	955	1436	31
61	0	0	2115	954	1430	29
62	0	0	2126	956	1418	32
63	0	0	2135	957	1413	29
64	0	0	2116	953	1412	29
65	0	0	2093	952	1415	29
66	0	0	2065	953	1422	26
67	0	0	2034	953	1427	30
68	0	0	2011	953	1434	31
69	0	0	2001	954	1436	31
70	0	0	1991	952	1434	28
71	0	0	1988	955	1429	27
72	0	0	1979	955	1416	30
73	0	0	1980	957	1410	28
74	0	0	1995	955	1410	29
75	0	0	2022	952	1413	28
76	0	0	2045	955	1420	26
77	0	0	2069	955	1428	31
78	0	0	2089	957	1434	29
79	0	0	2104	954	1436	31
80	0	0	2111	952	1436	30
81	0	0	2119	955	1430	27
82	0	0	2128	955	1417	31
83	0	0	2128	956	1412	30
84	0	0	2104	953	1411	29
85	0	0	2082	951	1414	28
86	0	0	2056	952	1421	29
87	0	0	2028	952	1429	30
88	0	0	2009	955	1433	30
89	0	0	1999	954	1434	30
90	0	0	1992	952	1434	30
91	0	0	1997	957	1426	29
92	0	0	1996	954	1414	29
93	0	0	1994	954	1409	29
94	0	0	2008	954	1408	29
95	0	0	2031	953	1412	29
96	0	0	2051	955	1418	29
97	0	0	2067	955	1425	29
98	0	0	2084	957	1431	30
99	0	0	2101	954	1433	31
100	0	0	2115	953	1433	32
101	0	0	2116	956	1427	31
102	0	0	2123	955	1414	30
103	0	0	2128	958	1409	29
104	0	0	2111	952	1407	31
105	0	0	2084	953	1411	29
106	0	0	2061	954	1416	29
107	0	0	2032	952	1424	31
108	0	0	2013	953	1429	28
109	0	0	2001	953	1432	29
110	0	0	1992	954	1430	30
111	0	0	1990	954	1423	31
112	0	0	1991	954	1411	28
113	0	0	1988	955	1403	30
114	0	0	2012	954	1403	30
115	0	0	2031	956	1406	30
116	0	0	2051	954	1414	28
117	0	0	2071	954	1420	30
118	0	0	2085	954	1427	29
119	0	0	2100	954	1430	27
120	0	0	2112	953	1428	31
121	0	0	2112	954	1422	31
122	0	0	2121	954	1411	31
123	0	0	2127	955	1403	30
124	0	0	2108	952	1402	30
125	0	0	2087	952	1406	30
126	0	0	2062	952	1412	31
127	0	0	2033	952	1419	31
0	0	0	2014	952	1424	29
1	0	0	2005	953	1427	30
2	0	0	2002	954	1425	29
3	0	0	2003	954	1419	30
4	0	0	2000	953	1406	29
5	0	0	1997	953	1400	29
6	0	0	2011	954	1399	29
7	0	0	2025	954	1402	30
8	0	0	2050	954	1409	28
9	0	0	2070	954	1415	31
10	0	0	2087	954	1422	30
11	0	0	2101	953	1424	30
12	0	0	2111	951	1423	30
13	0	0	2112	953	1418	31
14	0	0	2121	954	1405	31
15	0	0	2128	952	1399	30
16	0	0	2108	951	1397	29
17	0	0	2087	952	1402	31
18	0	0	2061	953	1407	30
19	0	0	2037	952	1414	30
20	0	0	2023	952	1420	31
21	0	0	2010	953	1422	31
22	0	0	2004	952	1421	30
23	0	0	2002	953	1416	27
24	0	0	2000	953	1402	31
25	0	0	1999	952	1395	30
26	0	0	2011	954	1395	30
27	0	0	2032	951	1398	30
28	0	0	2056	953	1404	30
29	0	0	2076	953	1413	31
30	0	0	2089	954	1418	30
31	0	0	2102	953	1421	31
32	0	0	2110	954	1420	30
33	0	0	2113	953	1415	31
34	0	0	2123	953	1402	30
35	0	0	2126	953	1396	30
36	0	0	2103	951	1395	29
37	0	0	2081	952	1398	30
38	0	0	2064	952	1404	27
39	0	0	2041	951	1412	31
40	0	0	2023	952	1417	30
41	0	0	2016	953	1419	30
42	0	0	2009	953	1418	28
43	0	0	2002	951	1411	29
44	0	0	1999	953	1399	27
45	0	0	1999	952	1392	29
46	0	0	2016	953	1391	29
47	0	0	2036	953	1395	31
48	0	0	2058	951	1401	29
49	0	0	2078	954	1410	27
50	0	0	2092	954	1415	29
51	0	0	2101	953	1418	30
52	0	0	2108	951	1416	29
53	0	0	2112	954	1411	29
54	0	0	2122	955	1400	30
55	0	0	2125	952	1391	30
56	0	0	2101	951	1391	30
57	0	0	2083	951	1395	31
58	0	0	2065	950	1400	29
59	0	0	2041	953	1409	27
60	0	0	2024	952	1413	30
61	0	0	2018	953	1415	27
62	0	0	2016	953	1414	29
63	0	0	2010	952	1407	31
64	0	0	2007	953	1395	26
65	0	0	2006	953	1390	29
66	0	0	2018	952	1388	30
67	0	0	2039	952	1391	30
68	0	0	2060	952	1398	28
69	0	0	2081	953	1406	28
70	0	0	2095	952	1411	30
71	0	0	2101	953	1414	29
72	0	0	2107	952	1415	30
73	0	0	2108	952	1407	31
74	0	0	2114	953	1395	30
75	0	0	2117	954	1389	30
76	0	0	2100	951	1388	30
77	0	0	2082	951	1392	29
78	0	0	2060	949	1399	30
79	0	0	2042	951	1404	27
80	0	0	2030	952	1411	29
81	0	0	2017	952	1412	29
82	0	0	2014	952	1412	29
83	0	0	2008	952	1406	30
84	0	0	2006	952	1392	29
85	0	0	2009	953	1386	29
86	0	0	2025	952	1383	29
87	0	0	2041	952	1389	33
88	0	0	2054	951	1395	28
89	0	0	2069	953	1401	28
90	0	0	2086	953	1409	29
91	0	0	2100	952	1412	29
92	0	0	2101	952	1411	30
93	0	0	2098	952	1404	29
94	0	0	2106	953	1393	27
95	0	0	2108	954	1386	30
96	0	0	2090	951	1385	29
97	0	0	2080	953	1389	26
98	0	0	2060	951	1395	30
99	0	0	2038	950	1402	30
100	0	0	2029	953	1407	30
101	0	0	2024	952	1410	29
102	0	0	2022	951	1408	29
103	0	0	2023	951	1401	29
104	0	0	2022	952	1388	30
105	0	0	2024	951	1382	29
106	0	0	2038	952	1382	29
107	0	0	2052	952	1386	30
108	0	0	2065	953	1391	29
109	0	0	2079	952	1398	30
110	0	0	2090	951	1405	29
111	0	0	2100	953	1408	29
112	0	0	2100	952	1407	31
113	0	0	2099	953	1403	31
114	0	0	2103	953	1388	31
115	0	0	2101	953	1383	28
116	0	0	2084	951	1382	29
117	0	0	2074	952	1386	29
118	0	0	2064	952	1391	27
119	0	0	2050	952	1397	29
120	0	0	2040	951	1403	30
121	0	0	2035	950	1405	29
122	0	0	2039	954	1404	29
123	0	0	2036	951	1399	29
124	0	0	2031	951	1385	29
125	0	0	2024	947	1378	29
126	0	0	2034	952	1378	28
127	0	0	2050	951	1382	29
0	0	0	2064	953	1386	28
1	0	0	2077	952	1396	30
2	0	0	2084	952	1402	30
3	0	0	2088	952	1405	30
4	0	0	2090	953	1404	30
5	0	0	2091	953	1399	31
6	0	0	2099	953	1385	30
7	0	0	2104	949	1379	29
8	0	0	2094	951	1378	28
9	0	0	2082	952	1382	28
10	0	0	2074	951	1387	28
11	0	0	2062	951	1393	28
12	0	0	2057	951	1399	29
13	0	0	2051	952	1402	29
14	0	0	2041	952	1401	31
15	0	0	2042	952	1395	29
16	0	0	2045	952	1380	28
17	0	0	2052	949	1373	29
18	0	0	2066	951	1375	30
19	0	0	2076	951	1378	29
20	0	0	2084	951	1385	29
21	0	0	2093	952	1391	30
22	0	0	2093	951	1399	29
23	0	0	2106	954	1400	30
24	0	0	2112	951	1400	30
25	0	0	2115	953	1393	28
26	0	0	2107	952	1381	28
27	0	0	2101	951	1375	29
28	0	0	2094	951	1374	28
29	0	0	2079	951	1378	29
30	0	0	2070	951	1384	29
31	0	0	2066	952	1390	31
32	0	0	2060	950	1396	29
33	0	0	2056	951	1398	30
34	0	0	2057	951	1398	30
35	0	0	2061	952	1391	29
36	0	0	2062	951	1378	29
37	0	0	2069	951	1372	26
38	0	0	2077	950	1371	29
39	0	0	2084	951	1375	29
40	0	0	2093	950	1381	31
41	0	0	2098	950	1390	30
42	0	0	2102	951	1395	29
43	0	0	2103	951	1397	29
44	0	0	2105	951	1397	29
45	0	0	2105	952	1392	31
46	0	0	2100	952	1380	29
47	0	0	2101	951	1372	29
48	0	0	2094	951	1371	29
49	0	0	2088	953	1375	29
50	0	0	2089	952	1382	28
51	0	0	2086	951	1388	30
52	0	0	2090	951	1394	29
53	0	0	2091	951	1396	30
54	0	0	2096	951	1395	29
55	0	0	2099	951	1389	32
56	0	0	2106	949	1378	29
57	0	0	2111	948	1368	29
58	0	0	2119	948	1368	30
59	0	0	2122	953	1370	29
60	0	0	2125	952	1376	28
61	0	0	2126	951	1388	30
62	0	0	2123	951	1391	30
63	0	0	2122	951	1395	30
64	0	0	2121	950	1393	29
65	0	0	2119	952	1386	30
66	0	0	2109	951	1377	29
67	0	0	2099	951	1369	29
68	0	0	2098	951	1368	29
69	0	0	2100	951	1372	29
70	0	0	2106	951	1378	32
71	0	0	2119	951	1386	30
72	0	0	2131	950	1390	30
73	0	0	2141	951	1392	29
74	0	0	2148	950	1391	30
75	0	0	2164	949	1386	27
76	0	0	2168	950	1374	30
77	0	0	2176	948	1364	28
78	0	0	2182	950	1364	28
79	0	0	2179	949	1368	28
80	0	0	2177	952	1372	29
81	0	0	2174	951	1382	30
82	0	0	2166	949	1388	29
83	0	0	2160	950	1391	31
84	0	0	2145	951	1390	29
85	0	0	2137	950	1385	27
86	0	0	2123	948	1373	30
87	0	0	2107	948	1367	30
88	0	0	2109	950	1365	28
89	0	0	2121	950	1370	29
90	0	0	2143	950	1375	27
91	0	0	2169	951	1382	30
92	0	0	2188	950	1387	28
93	0	0	2201	949	1389	30
94	0	0	2210	949	1388	29
95	0	0	2220	951	1380	28
96	0	0	2224	950	1370	29
97	0	0	2228	949	1361	29
98	0	0	2228	950	1362	28
99	0	0	2218	952	1365	29
100	0	0	2208	949	1372	28
101	0	0	2193	950	1379	30
102	0	0	2174	944	1385	30
103	0	0	2152	948	1388	30
104	0	0	2140	950	1388	30
105	0	0	2134	952	1381	29
106	0	0	2114	947	1371	29
107	0	0	2090	950	1364	29
108	0	0	2096	949	1362	28
109	0	0	2116	948	1366	29
110	0	0	2136	950	1373	30
111	0	0	2177	950	1379	29
112	0	0	2212	949	1385	27
113	0	0	2237	949	1387	29
114	0	0	2261	948	1387	29
115	0	0	2278	949	1380	29
116	0	0	2294	948	1368	29
117	0	0	2313	948	1360	28
118	0	0	2313	949	1359	30
119	0	0	2298	948	1364	28
120	0	0	2284	950	1368	26
121	0	0	2259	947	1378	29
122	0	0	2226	946	1384	29
123	0	0	2202	947	1386	29
124	0	0	2183	947	1385	29
125	0	0	2168	949	1380	28
126	0	0	2143	946	1369	29
127	0	0	2114	948	1362	27
0	0	0	2128	950	1360	28
1	0	0	2161	947	1364	28
2	0	0	2197	950	1368	29
3	0	0	2256	949	1377	30
4	0	0	2304	948	1382	30
5	0	0	2336	949	1385	30
6	0	0	2361	948	1385	30
7	0	0	2380	948	1377	29
8	0	0	2395	948	1366	27
9	0	0	2412	948	1359	29
10	0	0	2398	948	1357	29
11	0	0	2370	945	1360	26
12	0	0	2342	947	1366	26
13	0	0	2313	946	1373	29
14	0	0	2275	945	1381	27
15	0	0	2237	945	1386	29
16	0	0	2200	945	1383	30
17	0	0	2182	948	1377	29
18	0	0	2149	945	1365	29
19	0	0	2110	947	1359	29
20	0	0	2130	948	1358	25
21	0	0	2168	947	1363	28
22	0	0	2211	950	1366	28
23	0	0	2282	948	1373	29
24	0	0	2334	948	1380	28
25	0	0	2362	948	1383	29
26	0	0	2380	948	1382	29
27	0	0	2388	948	1376	28
28	0	0	2394	949	1364	28
29	0	0	2392	947	1356	28
30	0	0	2347	945	1356	28
31	0	0	2264	944	1384	34
32	0	0	1219	951	1388	30
33	0	0	674	950	1393	28
34	0	0	369	949	1396	29
35	0	0	435	955	1397	30
36	0	0	973	954	1395	30
37	0	0	1356	955	1389	30
38	0	0	1573	956	1374	29
39	0	0	1685	952	1364	28
40	0	0	1734	954	1363	29
41	0	0	1755	954	1366	28
42	0	0	1758	954	1372	30
43	0	0	1758	953	1379	26
44	0	0	1763	955	1384	29
45	0	0	1772	954	1386	29
46	0	0	1782	955	1385	28
47	0	0	1797	953	1379	30
48	0	0	1810	952	1368	28
49	0	0	1825	952	1357	29
50	0	0	1840	952	1358	29
51	0	0	1856	953	1361	28
52	0	0	1872	954	1366	25
53	0	0	1893	951	1372	28
54	0	0	1910	951	1379	28
55	0	0	1923	952	1382	29
56	0	0	1935	951	1382	29
57	0	0	1945	951	1376	29
58	0	0	1961	951	1364	28
59	0	0	1971	951	1356	29
60	0	0	1979	951	1355	29
61	0	0	1979	953	1358	28
62	0	0	1975	951	1365	31
63	0	0	1972	950	1372	26
64	0	0	1970	951	1376	29
65	0	0	1973	951	1380	28
66	0	0	1981	950	1380	29
67	0	0	1982	951	1374	28
68	0	0	1993	951	1361	27
69	0	0	2002	949	1354	27
70	0	0	2011	950	1353	28
71	0	0	2028	950	1357	29
72	0	0	2038	950	1363	29
73	0	0	2054	951	1370	28
74	0	0	2061	950	1376	29
75	0	0	2064	949	1379	30
76	0	0	2066	951	1377	28
77	0	0	2071	950	1373	30
78	0	0	2080	950	1362	28
79	0	0	2083	951	1352	27
80	0	0	2085	950	1352	28
81	0	0	2075	951	1355	27
82	0	0	2069	949	1362	29
83	0	0	2058	950	1370	27
84	0	0	2054	950	1375	29
85	0	0	2055	949	1378	30
86	0	0	2058	950	1377	29
87	0	0	2060	947	1371	28
88	0	0	2062	951	1361	29
89	0	0	2059	949	1351	27
90	0	0	2064	949	1350	28
91	0	0	2079	948	1355	29
92	0	0	2088	947	1360	27
93	0	0	2099	948	1368	29
94	0	0	2104	949	1373	21
95	0	0	2105	948	1376	29
96	0	0	2108	948	1377	28
97	0	0	2110	947	1371	29
98	0	0	2117	949	1360	28
99	0	0	2114	948	1352	27
100	0	0	2099	948	1351	27
101	0	0	2088	948	1354	29
102	0	0	2079	947	1360	26
103	0	0	2072	949	1368	28
104	0	0	2065	950	1373	29
105	0	0	2061	949	1376	28
106	0	0	2058	948	1376	29
107	0	0	2056	947	1369	28
108	0	0	2056	948	1359	27
109	0	0	2052	949	1352	32
110	0	0	2059	948	1350	23
111	0	0	2068	949	1353	28
112	0	0	2077	948	1361	25
113	0	0	2085	947	1367	27
114	0	0	2091	948	1373	29
115	0	0	2094	947	1376	29
116	0	0	2099	947	1375	30
117	0	0	2096	948	1371	27
118	0	0	2098	948	1358	26
119	0	0	2100	948	1351	28
120	0	0	2089	947	1349	28
121	0	0	2078	948	1352	29
122	0	0	2066	948	1359	30
123	0	0	2058	948	1367	30
124	0	0	2052	948	1373	29
125	0	0	2049	947	1375	29
126	0	0	2050	947	1375	30
127	0	0	2055	947	1371	30
0	0	0	2055	948	1359	30
1	0	0	2048	948	1352	28
2	0	0	2057	947	1349	28
3	0	0	2066	947	1352	28
4	0	0	2075	947	1358	29
5	0	0	2087	948	1366	27
6	0	0	2088	948	1375	31
7	0	0	2086	948	1375	29
8	0	0	2084	947	1374	30
9	0	0	2088	947	1370	30
10	0	0	2088	947	1357	28
11	0	0	2085	947	1350	28
12	0	0	2076	947	1348	30
13	0	0	2073	948	1350	28
14	0	0	2066	946	1357	28
15	0	0	2053	946	1365	29
16	0	0	2045	946	1371	29
17	0	0	2041	947	1374	29
18	0	0	2036	947	1374	27
19	0	0	2035	947	1370	29
20	0	0	2035	947	1357	30
21	0	0	2033	947	1350	27
22	0	0	2039	948	1348	30
23	0	0	2055	947	1352	28
24	0	0	2067	946	1358	29
25	0	0	2075	947	1364	26
26	0	0	2080	947	1372	29
27	0	0	2080	946	1373	29
28	0	0	2079	946	1373	29
29	0	0	2080	946	1369	29
30	0	0	2080	946	1357	30
31	0	0	2081	946	1349	28
32	0	0	2078	946	1347	28
33	0	0	2066	947	1350	29
34	0	0	2056	946	1357	29
35	0	0	2045	946	1364	27
36	0	0	2041	946	1371	29
37	0	0	2039	946	1373	31
38	0	0	2040	945	1372	29
39	0	0	2035	946	1366	31
40	0	0	2036	946	1354	27
41	0	0	2033	946	1348	29
42	0	0	2043	947	1345	27
43	0	0	2050	946	1348	28
44	0	0	2060	946	1355	29
45	0	0	2067	946	1363	30
46	0	0	2069	946	1367	29
47	0	0	2072	946	1372	29
48	0	0	2072	945	1369	29
49	0	0	2070	946	1364	28
50	0	0	2073	946	1352	27
51	0	0	2077	946	1347	28
52	0	0	2068	945	1343	29
53	0	0	2059	946	1347	28
54	0	0	2045	945	1352	27
55	0	0	2039	946	1361	30
56	0	0	2034	946	1365	29
57	0	0	2035	945	1368	28
58	0	0	2031	946	1368	29
59	0	0	2030	946	1363	28
60	0	0	2030	945	1351	28
61	0	0	2028	946	1344	28
62	0	0	2040	946	1342	29
63	0	0	2048	948	1345	27
64	0	0	2054	946	1351	28
65	0	0	2063	946	1359	27
66	0	0	2069	946	1362	29
67	0	0	2068	946	1368	29
68	0	0	2069	945	1366	29
69	0	0	2074	946	1362	31
70	0	0	2076	945	1351	25
71	0	0	2079	945	1343	29
72	0	0	2071	945	1341	29
73	0	0	2065	946	1344	28
74	0	0	2057	945	1352	30
75	0	0	2050	945	1357	27
76	0	0	2044	945	1364	28
77	0	0	2038	944	1366	29
78	0	0	2031	945	1367	25
79	0	0	2032	945	1361	29
80	0	0	2038	945	1349	27
81	0	0	2035	946	1339	29
82	0	0	2042	945	1339	29
83	0	0	2046	946	1343	29
84	0	0	2055	945	1348	27
85	0	0	2064	944	1357	29
86	0	0	2074	946	1363	29
87	0	0	2077	945	1365	29
88	0	0	2074	946	1365	29
89	0	0	2070	945	1360	28
90	0	0	2069	945	1347	27
91	0	0	2067	944	1339	29
92	0	0	2057	945	1338	28
93	0	0	2048	945	1342	29
94	0	0	2042	945	1347	30
95	0	0	2035	944	1354	29
96	0	0	2030	945	1361	28
97	0	0	2029	945	1364	28
98	0	0	2030	946	1364	29
99	0	0	2026	944	1357	28
100	0	0	2030	944	1346	26
101	0	0	2029	944	1337	28
102	0	0	2037	944	1337	29
103	0	0	2045	945	1340	29
104	0	0	2054	944	1347	30
105	0	0	2070	945	1353	26
106	0	0	2072	945	1359	28
107	0	0	2069	944	1362	28
108	0	0	2070	944	1362	29
109	0	0	2074	945	1356	29
110	0	0	2078	945	1346	28
111	0	0	2083	945	1335	25
112	0	0	2071	943	1335	28
113	0	0	2060	945	1339	30
114	0	0	2049	943	1345	27
115	0	0	2037	945	1352	25
116	0	0	2032	944	1357	29
117	0	0	2025	944	1361	28
118	0	0	2026	944	1360	28
119	0	0	2024	944	1355	31
120	0	0	2027	944	1343	27
121	0	0	2026	945	1335	27
122	0	0	2028	943	1333	28
123	0	0	2041	943	1337	28
124	0	0	2057	944	1341	28
125	0	0	2065	943	1350	26
126	0	0	2073	943	1355	27
127	0	0	2078	945	1359	27
0	0	0	2077	944	1359	29
1	0	0	2074	944	1352	28
2	0	0	2075	944	1342	25
3	0	0	2077	945	1332	28
4	0	0	2068	944	1332	28
5	0	0	2055	943	1335	29
6	0	0	2046	943	1343	31
7	0	0	2037	945	1349	28
8	0	0	2030	944	1355	28
9	0	0	2031	943	1358	29
10	0	0	2029	943	1357	30
11	0	0	2033	944	1350	28
12	0	0	2026	945	1340	27
13	0	0	2023	943	1329	27
14	0	0	2030	943	1330	28
15	0	0	2043	944	1333	28
16	0	0	2049	944	1338	29
17	0	0	2055	944	1346	28
18	0	0	2059	944	1352	28
19	0	0	2059	944	1355	29
20	0	0	2061	943	1355	30
21	0	0	2065	944	1348	28
22	0	0	2066	944	1337	32
23	0	0	2070	944	1330	28
24	0	0	2060	943	1327	29
25	0	0	2049	943	1331	28
26	0	0	2035	943	1337	30
27	0	0	2028	944	1343	26
28	0	0	2021	943	1350	28
29	0	0	2025	943	1352	28
30	0	0	2025	943	1352	28
31	0	0	2025	943	1347	27
32	0	0	2025	942	1335	26
33	0	0	2020	943	1325	28
34	0	0	2025	944	1325	28
35	0	0	2036	943	1328	27
36	0	0	2046	943	1333	27
37	0	0	2065	943	1341	27
38	0	0	2073	943	1346	30
39	0	0	2077	944	1351	29
40	0	0	2077	944	1350	28
41	0	0	2075	943	1345	26
42	0	0	2078	944	1334	26
43	0	0	2079	944	1324	30
44	0	0	2071	943	1323	28
45	0	0	2058	943	1326	28
46	0	0	2041	943	1331	27
47	0	0	2036	943	1339	25
48	0	0	2029	943	1343	29
49	0	0	2023	943	1347	27
50	0	0	2018	942	1347	28
51	0	0	2018	943	1342	26
52	0	0	2017	943	1331	26
53	0	0	2015	943	1320	27
54	0	0	2025	943	1321	28
55	0	0	2041	943	1323	27
56	0	0	2052	944	1330	25
57	0	0	2055	944	1336	30
58	0	0	2060	943	1342	28
59	0	0	2059	943	1345	28
60	0	0	2062	942	1344	27
61	0	0	2062	943	1340	27
62	0	0	2063	943	1328	30
63	0	0	2067	944	1320	28
64	0	0	2058	942	1318	28
65	0	0	2048	943	1321	27
66	0	0	2034	943	1327	29
67	0	0	2024	943	1335	28
68	0	0	2019	944	1340	28
69	0	0	2014	942	1342	29
70	0	0	2017	942	1342	29
71	0	0	2020	945	1338	30
72	0	0	2020	943	1325	31
73	0	0	2017	941	1318	26
74	0	0	2026	943	1315	27
75	0	0	2034	943	1318	27
76	0	0	2046	944	1324	28
77	0	0	2056	943	1331	27
78	0	0	2063	943	1338	30
79	0	0	2067	943	1340	28
80	0	0	2065	942	1338	28
81	0	0	2064	944	1334	29
82	0	0	2066	943	1322	31
83	0	0	2067	943	1315	27
84	0	0	2057	943	1312	27
85	0	0	2048	942	1316	27
86	0	0	2043	944	1323	29
87	0	0	2034	943	1328	23
88	0	0	2026	943	1335	28
89	0	0	2026	941	1338	29
90	0	0	2023	947	1336	29
91	0	0	2024	944	1332	28
92	0	0	2023	943	1320	28
93	0	0	2022	942	1311	28
94	0	0	2032	941	1309	27
95	0	0	2042	942	1313	27
96	0	0	2050	942	1319	25
97	0	0	2056	943	1326	31
98	0	0	2066	943	1332	29
99	0	0	2067	943	1335	28
100	0	0	2070	943	1333	28
101	0	0	2070	944	1331	29
102	0	0	2070	942	1319	28
103	0	0	2074	942	1310	28
104	0	0	2063	943	1308	27
105	0	0	2051	943	1309	29
106	0	0	2038	943	1317	27
107	0	0	2027	942	1324	23
108	0	0	2017	942	1331	27
109	0	0	2014	943	1333	27
110	0	0	2018	939	1332	26
111	0	0	2021	943	1328	27
112	0	0	2024	942	1316	31
113	0	0	2020	943	1308	26
114	0	0	2026	941	1305	27
115	0	0	2037	942	1309	27
116	0	0	2043	941	1314	27
117	0	0	2055	942	1322	27
118	0	0	2063	943	1328	27
119	0	0	2067	942	1331	29
120	0	0	2071	942	1331	28
121	0	0	2069	942	1326	30
122	0	0	2071	942	1314	31
123	0	0	2070	942	1305	27
124	0	0	2063	943	1304	27
125	0	0	2055	943	1306	27
126	0	0	2044	943	1314	28
127	0	0	2027	941	1321	24
0	0	0	2022	942	1327	28
1	0	0	2019	942	1329	27
2	0	0	2021	943	1329	27
3	0	0	2020	943	1324	28
4	0	0	2024	942	1312	23
5	0	0	2022	942	1302	26
6	0	0	2028	942	1302	27
7	0	0	2039	942	1304	31
8	0	0	2050	943	1311	28
9	0	0	2056	941	1319	28
10	0	0	2063	941	1323	28
11	0	0	2068	941	1328	27
12	0	0	2071	942	1330	30
13	0	0	2068	941	1323	28
14	0	0	2070	942	1311	31
15	0	0	2069	942	1301	27
16	0	0	2063	943	1301	27
17	0	0	2054	942	1305	28
18	0	0	2044	941	1311	28
19	0	0	2032	941	1316	28
20	0	0	2022	941	1321	27
21	0	0	2021	941	1327	29
22	0	0	2026	942	1326	29
23	0	0	2029	939	1322	28
24	0	0	2030	943	1310	28
25	0	0	2022	941	1301	27
26	0	0	2030	939	1300	27
27	0	0	2041	941	1305	29
28	0	0	2050	941	1309	28
29	0	0	2058	941	1317	28
30	0	0	2063	940	1321	26
31	0	0	2070	939	1327	29
32	0	0	2068	941	1327	30
33	0	0	2064	938	1321	28
34	0	0	2069	941	1309	24
35	0	0	2077	941	1299	26
36	0	0	2070	940	1300	27
37	0	0	2058	941	1303	28
38	0	0	2048	940	1309	27
39	0	0	2034	941	1316	27
40	0	0	2027	941	1322	27
41	0	0	2023	940	1325	28
42	0	0	2018	941	1325	25
43	0	0	2021	939	1320	26
44	0	0	2019	942	1309	24
45	0	0	2015	941	1299	27
46	0	0	2021	941	1299	27
47	0	0	2030	941	1303	27
48	0	0	2038	940	1308	28
49	0	0	2046	941	1315	27
50	0	0	2053	941	1320	27
51	0	0	2064	941	1325	29
52	0	0	2066	942	1326	29
53	0	0	2061	938	1320	27
54	0	0	2062	941	1307	28
55	0	0	2067	941	1298	24
56	0	0	2061	941	1298	27
57	0	0	2053	941	1301	27
58	0	0	2040	938	1307	27
59	0	0	2030	941	1314	24
60	0	0	2028	940	1320	27
61	0	0	2028	941	1324	28
62	0	0	2028	941	1324	27
63	0	0	2030	940	1319	28
64	0	0	2028	940	1308	25
65	0	0	2022	941	1297	27
66	0	0	2028	941	1297	26
67	0	0	2037	938	1302	28
68	0	0	2045	938	1305	26
69	0	0	2056	940	1313	28
70	0	0	2064	940	1319	25
71	0	0	2066	941	1322	27
72	0	0	2066	940	1323	31
73	0	0	2070	940	1317	27
74	0	0	2076	941	1306	30
75	0	0	2081	941	1298	27
76	0	0	2071	941	1296	26
77	0	0	2054	939	1298	26
78	0	0	2042	940	1305	27
79	0	0	2029	938	1312	26
80	0	0	2021	940	1318	27
81	0	0	2016	940	1321	28
82	0	0	2020	941	1320	27
83	0	0	2021	939	1316	26
84	0	0	2021	942	1304	25
85	0	0	2017	940	1294	26
86	0	0	2022	940	1293	27
87	0	0	2033	940	1296	27
88	0	0	2045	939	1302	27
89	0	0	2055	941	1309	28
90	0	0	2060	940	1314	26
91	0	0	2066	941	1319	28
92	0	0	2068	940	1316	27
93	0	0	2067	939	1313	27
94	0	0	2072	940	1301	27
95	0	0	2075	941	1290	28
96	0	0	2069	941	1291	27
97	0	0	2058	939	1293	28
98	0	0	2044	938	1300	26
99	0	0	2034	940	1306	29
100	0	0	2028	940	1311	26
101	0	0	2030	940	1315	27
102	0	0	2029	940	1314	27
103	0	0	2033	939	1308	29
104	0	0	2032	942	1298	28
105	0	0	2031	941	1288	25
106	0	0	2038	940	1286	27
107	0	0	2049	940	1289	27
108	0	0	2055	939	1294	25
109	0	0	2063	941	1299	25
110	0	0	2065	941	1306	28
111	0	0	2070	940	1311	28
112	0	0	2070	940	1310	28
113	0	0	2063	939	1304	27
114	0	0	2063	941	1294	28
115	0	0	2068	939	1284	26
116	0	0	2062	940	1282	27
117	0	0	2054	938	1284	27
118	0	0	2045	939	1290	25
119	0	0	2027	941	1297	26
120	0	0	2025	942	1302	27
121	0	0	2022	941	1305	27
122	0	0	2021	940	1305	27
123	0	0	2025	939	1300	27
124	0	0	2031	941	1289	28
125	0	0	2023	941	1277	29
126	0	0	2030	941	1277	27
127	0	0	2041	940	1279	27
0	0	0	2054	939	1285	26
1	0	0	2062	938	1292	29
2	0	0	2064	940	1298	28
3	0	0	2064	941	1300	27
4	0	0	2068	940	1300	26
5	0	0	2072	940	1295	28
6	0	0	2069	942	1283	24
7	0	0	2070	941	1273	31
8	0	0	2061	940	1271	27
9	0	0	2046	939	1272	30
10	0	0	2034	938	1279	28
11	0	0	2024	940	1286	26
12	0	0	2020	940	1291	26
13	0	0	2018	940	1295	27
14	0	0	2019	942	1294	24
15	0	0	2025	940	1289	27
16	0	0	2023	940	1277	27
17	0	0	2019	940	1267	29
18	0	0	2027	940	1265	27
19	0	0	2038	940	1267	25
20	0	0	2045	939	1273	25
21	0	0	2059	939	1279	28
22	0	0	2061	940	1285	28
23	0	0	2067	939	1288	27
24	0	0	2071	939	1289	28
25	0	0	2072	939	1282	28
26	0	0	2076	940	1270	28
27	0	0	2082	938	1261	30
28	0	0	2075	938	1258	27
29	0	0	2067	940	1260	27
30	0	0	2054	939	1266	26
31	0	0	2040	940	1273	25
32	0	0	2032	939	1279	29
33	0	0	2027	940	1282	26
34	0	0	2027	939	1282	24
35	0	0	2024	939	1276	32
36	0	0	2028	938	1263	27
37	0	0	2018	938	1254	29
38	0	0	2027	940	1251	25
39	0	0	2044	940	1255	24
40	0	0	2057	939	1259	27
41	0	0	2065	938	1265	27
42	0	0	2064	938	1272	28
43	0	0	2067	939	1275	28
44	0	0	2068	939	1274	28
45	0	0	2064	938	1270	29
46	0	0	2072	940	1257	28
47	0	0	2076	940	1246	31
48	0	0	2059	938	1245	27
49	0	0	2042	940	1247	26
50	0	0	2034	938	1254	27
51	0	0	2024	940	1259	25
52	0	0	2021	939	1265	29
53	0	0	2017	939	1268	27
54	0	0	2015	939	1267	27
55	0	0	2018	939	1262	27
56	0	0	2024	939	1250	31
57	0	0	2020	939	1240	25
58	0	0	2026	940	1237	26
59	0	0	2040	939	1238	24
60	0	0	2050	937	1245	27
61	0	0	2059	939	1252	26
62	0	0	2061	941	1257	29
63	0	0	2065	938	1261	27
64	0	0	2068	938	1261	28
65	0	0	2062	940	1255	28
66	0	0	2057	939	1242	27
67	0	0	2056	939	1232	28
68	0	0	2050	939	1230	26
69	0	0	2039	939	1233	24
70	0	0	2028	940	1237	28
71	0	0	2022	938	1244	27
72	0	0	2018	941	1249	27
73	0	0	2016	940	1253	26
74	0	0	2022	938	1251	23
75	0	0	2026	939	1247	26
76	0	0	2024	938	1233	26
77	0	0	2018	939	1224	25
78	0	0	2026	939	1221	25
79	0	0	2039	939	1223	26
80	0	0	2041	936	1229	27
81	0	0	2050	940	1235	25
82	0	0	2057	939	1241	26
83	0	0	2056	939	1246	28
84	0	0	2057	938	1245	24
85	0	0	2053	938	1237	30
86	0	0	2056	939	1225	27
87	0	0	2063	938	1215	29
88	0	0	2061	938	1212	27
89	0	0	2053	938	1214	27
90	0	0	2046	939	1220	25
91	0	0	2036	941	1226	25
92	0	0	2035	939	1232	25
93	0	0	2038	937	1235	26
94	0	0	2042	938	1234	26
95	0	0	2042	938	1229	25
96	0	0	2043	938	1216	25
97	0	0	2040	937	1204	27
98	0	0	2049	939	1203	25
99	0	0	2060	936	1203	25
100	0	0	2066	937	1210	25
101	0	0	2067	938	1216	24
102	0	0	2071	938	1223	25
103	0	0	2069	937	1225	26
104	0	0	2072	938	1224	26
105	0	0	2071	940	1219	24
106	0	0	2068	938	1206	25
107	0	0	2071	938	1195	27
108	0	0	2065	938	1192	25
109	0	0	2062	939	1194	25
110	0	0	2053	940	1199	24
111	0	0	2042	939	1206	27
112	0	0	2042	939	1210	24
113	0	0	2049	938	1215	27
114	0	0	2048	938	1214	27
115	0	0	2046	940	1208	25
116	0	0	2045	938	1196	25
117	0	0	2041	938	1184	24
118	0	0	2050	939	1182	25
119	0	0	2061	935	1184	24
120	0	0	2070	938	1189	23
121	0	0	2077	938	1195	25
122	0	0	2078	938	1200	24
123	0	0	2084	938	1203	25
124	0	0	2084	938	1203	27
125	0	0	2079	940	1197	28
126	0	0	2074	938	1185	24
127	0	0	2082	938	1175	23
0	0	0	2076	938	1170	24
1	0	0	2065	938	1172	24
2	0	0	2058	937	1176	27
3	0	0	2043	938	1185	23
4	0	0	2041	938	1190	25
5	0	0	2042	937	1193	25
6	0	0	2041	938	1192	24
7	0	0	2045	939	1187	25
8	0	0	2049	938	1174	24
9	0	0	2048	938	1163	23
10	0	0	2052	939	1160	25
11	0	0	2060	936	1161	24
12	0	0	2069	941	1167	24
13	0	0	2080	937	1174	24
14	0	0	2082	938	1180	23
15	0	0	2081	937	1183	24
16	0	0	2084	940	1183	26
17	0	0	2083	940	1177	24
18	0	0	2083	937	1164	25
19	0	0	2085	938	1154	24
20	0	0	2077	938	1150	25
21	0	0	2067	938	1152	21
22	0	0	2063	939	1158	24
23	0	0	2056	938	1166	27
24	0	0	2054	938	1171	23
25	0	0	2052	939	1175	27
26	0	0	2054	940	1174	24
27	0	0	2053	940	1168	24
28	0	0	2050	939	1155	24
29	0	0	2045	938	1144	24
30	0	0	2054	938	1142	24
31	0	0	2065	935	1144	24
32	0	0	2069	939	1149	24
33	0	0	2073	937	1156	24
34	0	0	2078	937	1163	26
35	0	0	2080	939	1166	25
36	0	0	2078	938	1164	23
37	0	0	2073	937	1160	23
38	0	0	2071	938	1147	25
39	0	0	2077	938	1137	28
40	0	0	2070	938	1133	25
41	0	0	2060	938	1136	24
42	0	0	2056	935	1140	24
43	0	0	2048	937	1148	25
44	0	0	2039	938	1156	24
45	0	0	2036	939	1158	24
46	0	0	2036	937	1158	22
47	0	0	2033	937	1153	23
48	0	0	2030	937	1139	25
49	0	0	2028	938	1128	24
50	0	0	2036	937	1126	24
51	0	0	2051	938	1129	24
52	0	0	2061	937	1134	24
53	0	0	2069	937	1142	24
54	0	0	2072	938	1148	24
55	0	0	2074	937	1153	24
56	0	0	2078	936	1152	24
57	0	0	2078	935	1144	25
58	0	0	2079	937	1133	26
59	0	0	2086	936	1122	24
60	0	0	2075	935	1120	23
61	0	0	2062	936	1122	23
62	0	0	2045	935	1128	24
63	0	0	2035	937	1135	25
64	0	0	2031	940	1141	24
65	0	0	2030	937	1146	25
66	0	0	2032	936	1145	24
67	0	0	2034	935	1140	24
68	0	0	2037	936	1128	26
69	0	0	2036	937	1117	26
70	0	0	2040	937	1115	23
71	0	0	2052	938	1117	22
72	0	0	2059	938	1123	23
73	0	0	2067	937	1129	24
74	0	0	2080	937	1137	23
75	0	0	2083	937	1140	25
76	0	0	2086	938	1141	23
77	0	0	2088	938	1135	24
78	0	0	2087	937	1123	24
79	0	0	2092	937	1112	26
80	0	0	2075	935	1109	23
81	0	0	2064	936	1111	23
82	0	0	2055	939	1118	24
83	0	0	2036	936	1125	23
84	0	0	2028	937	1132	26
85	0	0	2025	937	1135	24
86	0	0	2026	937	1135	25
87	0	0	2021	937	1130	24
88	0	0	2019	937	1117	25
89	0	0	2012	937	1107	23
90	0	0	2026	936	1104	23
91	0	0	2035	935	1106	22
92	0	0	2046	935	1112	24
93	0	0	2052	938	1120	23
94	0	0	2059	937	1127	26
95	0	0	2063	936	1130	24
96	0	0	2066	935	1130	24
97	0	0	2065	937	1126	26
98	0	0	2064	936	1113	24
99	0	0	2072	937	1101	24
100	0	0	2067	937	1100	23
101	0	0	2060	935	1101	23
102	0	0	2052	937	1108	24
103	0	0	2039	936	1116	24
104	0	0	2031	939	1122	23
105	0	0	2034	938	1127	23
106	0	0	2031	938	1128	23
107	0	0	2031	937	1121	24
108	0	0	2029	937	1109	21
109	0	0	2026	937	1099	23
110	0	0	2032	937	1096	22
111	0	0	2049	937	1099	24
112	0	0	2061	936	1104	23
113	0	0	2072	937	1112	23
114	0	0	2086	937	1119	23
115	0	0	2094	936	1123	23
116	0	0	2094	935	1122	23
117	0	0	2088	939	1119	23
118	0	0	2088	937	1106	23
119	0	0	2097	937	1095	23
120	0	0	2088	937	1093	23
121	0	0	2076	935	1094	23
122	0	0	2057	936	1102	26
123	0	0	2042	936	1109	23
124	0	0	2031	935	1115	23
125	0	0	2030	939	1120	23
126	0	0	2023	937	1117	24
127	0	0	2025	937	1116	24
0	0	0	2027	937	1103	23
1	0	0	2027	937	1092	23
2	0	0	2033	939	1088	21
3	0	0	2048	937	1091	24
4	0	0	2058	936	1097	24
5	0	0	2071	937	1105	23
6	0	0	2083	937	1112	23
7	0	0	2091	937	1117	24
8	0	0	2094	935	1116	24
9	0	0	2087	936	1113	26
10	0	0	2086	937	1100	24
11	0	0	2092	936	1090	22
12	0	0	2078	935	1086	23
13	0	0	2067	936	1088	23
14	0	0	2058	936	1095	23
15	0	0	2038	936	1104	23
16	0	0	2030	937	1110	19
17	0	0	2025	935	1114	23
18	0	0	2024	935	1114	23
19	0	0	2024	938	1111	23
20	0	0	2025	937	1098	22
21	0	0	2022	937	1086	23
22	0	0	2031	937	1084	23
23	0	0	2042	935	1086	24
24	0	0	2051	936	1093	25
25	0	0	2064	939	1101	24
26	0	0	2077	937	1108	19
27	0	0	2085	937	1112	24
28	0	0	2086	938	1112	24
29	0	0	2086	935	1107	23
30	0	0	2091	937	1095	23
31	0	0	2097	936	1084	23
32	0	0	2087	936	1081	23
33	0	0	2075	936	1083	26
34	0	0	2066	936	1090	26
35	0	0	2054	936	1098	23
36	0	0	2044	937	1105	20
37	0	0	2036	936	1109	23
38	0	0	2038	936	1112	24
39	0	0	2042	936	1106	21
40	0	0	2038	936	1092	21
41	0	0	2028	937	1082	19
42	0	0	2039	937	1079	23
43	0	0	2057	937	1084	26
44	0	0	2069	936	1089	22
45	0	0	2079	936	1095	23
46	0	0	2088	936	1103	23
47	0	0	2094	938	1107	23
48	0	0	2096	936	1107	23
49	0	0	2093	938	1104	23
50	0	0	2092	936	1091	23
51	0	0	2098	936	1079	19
52	0	0	2092	938	1076	22
53	0	0	2074	934	1077	23
54	0	0	2060	936	1086	23
55	0	0	2044	934	1093	22
56	0	0	2028	935	1100	23
57	0	0	2024	936	1105	23
58	0	0	2022	936	1104	23
59	0	0	2022	938	1101	23
60	0	0	2025	935	1088	21
61	0	0	2021	936	1077	20
62	0	0	2028	936	1074	22
63	0	0	2044	938	1077	20
64	0	0	2054	936	1082	21
65	0	0	2063	936	1090	23
66	0	0	2072	936	1099	21
67	0	0	2080	937	1103	23
68	0	0	2081	938	1102	23
69	0	0	2082	937	1098	23
70	0	0	2081	935	1086	22
71	0	0	2092	937	1074	20
72	0	0	2084	935	1071	23
73	0	0	2067	935	1077	23
74	0	0	2058	935	1079	22
75	0	0	2039	935	1088	22
76	0	0	2027	935	1095	20
77	0	0	2020	937	1098	23
78	0	0	2018	935	1098	27
79	0	0	2019	936	1096	21
80	0	0	2019	935	1083	23
81	0	0	2015	936	1071	22
82	0	0	2028	935	1069	23
83	0	0	2038	936	1070	22
84	0	0	2050	936	1077	23
85	0	0	2063	935	1085	24
86	0	0	2074	936	1092	20
87	0	0	2081	936	1096	23
88	0	0	2085	937	1097	20
89	0	0	2086	937	1092	20
90	0	0	2086	936	1080	23
91	0	0	2096	936	1068	22
92	0	0	2093	935	1066	22
93	0	0	2067	933	1067	26
94	0	0	2050	935	1073	22
95	0	0	2034	934	1082	23
96	0	0	2021	934	1089	20
97	0	0	2014	935	1095	23
98	0	0	2007	936	1095	23
99	0	0	2007	938	1089	22
100	0	0	2010	934	1077	22
101	0	0	2010	935	1066	22
102	0	0	2018	937	1063	23
103	0	0	2037	935	1065	22
104	0	0	2052	937	1071	23
105	0	0	2069	934	1079	23
106	0	0	2081	935	1086	22
107	0	0	2091	936	1090	21
108	0	0	2100	935	1090	23
109	0	0	2105	938	1085	24
110	0	0	2109	935	1075	23
111	0	0	2114	935	1063	23
112	0	0	2109	934	1059	21
113	0	0	2095	936	1063	23
114	0	0	2083	936	1069	22
115	0	0	2065	935	1076	22
116	0	0	2062	935	1084	23
117	0	0	2061	936	1088	22
118	0	0	2065	935	1088	20
119	0	0	2064	935	1082	23
120	0	0	2072	937	1072	22
121	0	0	2067	935	1060	22
122	0	0	2069	934	1056	20
123	0	0	2083	935	1063	23
124	0	0	2091	935	1065	23
125	0	0	2100	939	1072	22
126	0	0	2106	935	1080	22
127	0	0	2115	935	1085	23
0	0	0	2122	939	1084	23
1	0	0	2118	935	1080	22
2	0	0	2116	937	1069	24
3	0	0	2098	932	1056	22
4	0	0	2014	931	1055	23
5	0	0	1963	935	1056	21
6	0	0	1937	935	1062	20
7	0	0	1923	934	1072	22
8	0	0	1921	935	1077	22
9	0	0	1914	935	1082	23
10	0	0	1944	936	1080	23
11	0	0	1980	935	1078	24
12	0	0	2004	935	1067	22
13	0	0	2011	934	1056	21
14	0	0	2026	934	1052	23
15	0	0	2049	935	1054	22
16	0	0	2059	938	1061	22
17	0	0	2062	939	1068	23
18	0	0	2062	935	1076	22
19	0	0	2068	936	1078	22
20	0	0	2076	933	1080	24
21	0	0	2080	936	1076	22
22	0	0	2082	938	1064	23
23	0	0	2089	935	1053	23
24	0	0	2087	934	1049	22
25	0	0	2073	935	1052	20
26	0	0	2061	934	1056	24
27	0	0	2040	935	1066	22
28	0	0	2031	934	1074	23
