# bioPlux Text File Format
# Version: 1
# StartDateTime: 2011-07-18 09:23:24
# SamplingFrequency: 1000
# SampledChannels: 1 2 3 4
# SamplingResolution: 12
# AcquiringDevice: 00:07:80:42:0F:95
# EndOfHeader
0	0	0	2309	5	185	105
1	0	0	2338	5	185	105
2	0	0	2364	5	183	105
3	0	0	2378	5	184	105
4	0	0	2395	5	183	104
5	0	0	2409	5	183	104
6	0	0	2420	5	183	104
7	0	0	2430	4	183	105
8	0	0	2425	5	183	105
9	0	0	2406	4	183	105
10	0	0	2362	4	183	105
11	0	0	2304	4	184	104
12	0	0	2272	3	183	105
13	0	0	2274	5	184	105
14	0	0	2288	5	185	105
15	0	0	2316	5	184	104
16	0	0	2369	5	185	104
17	0	0	2422	4	183	105
18	0	0	2455	5	184	107
19	0	0	2475	5	184	104
20	0	0	2474	5	184	105
21	0	0	2458	5	183	104
22	0	0	2446	4	183	105
23	0	0	2428	4	183	105
24	0	0	2391	4	184	105
25	0	0	2347	4	184	104
26	0	0	2320	4	183	105
27	0	0	2283	4	184	105
28	0	0	2230	4	183	105
29	0	0	2169	4	183	105
30	0	0	2115	4	183	105
31	0	0	2071	4	184	105
32	0	0	2056	3	183	105
33	0	0	2056	5	185	105
34	0	0	2064	5	184	105
35	0	0	2074	5	185	105
36	0	0	2065	5	185	105
37	0	0	2053	5	184	105
38	0	0	2058	5	184	105
39	0	0	2065	5	184	105
40	0	0	2069	5	184	105
41	0	0	2057	4	184	105
42	0	0	2016	4	184	105
43	0	0	1965	4	184	105
44	0	0	1904	4	184	105
45	0	0	1839	4	184	105
46	0	0	1769	4	183	105
47	0	0	1714	3	183	105
48	0	0	1677	4	183	105
49	0	0	1660	4	184	105
50	0	0	1661	5	184	106
51	0	0	1674	5	184	105
52	0	0	1712	3	183	105
53	0	0	1772	5	184	105
54	0	0	1818	5	185	105
55	0	0	1814	5	185	105
56	0	0	1807	5	185	105
57	0	0	1822	3	185	105
58	0	0	1868	5	185	104
59	0	0	1924	5	183	105
60	0	0	1970	5	184	105
61	0	0	1993	5	184	105
62	0	0	1982	3	184	105
63	0	0	1942	4	184	105
64	0	0	1867	4	184	105
65	0	0	1787	4	184	105
66	0	0	1737	4	185	105
67	0	0	1727	4	183	105
68	0	0	1715	4	183	105
69	0	0	1693	4	184	105
70	0	0	1698	5	184	106
71	0	0	1720	5	184	105
72	0	0	1764	3	185	105
73	0	0	1822	5	184	105
74	0	0	1893	5	184	105
75	0	0	1968	5	184	104
76	0	0	2036	5	185	104
77	0	0	2072	4	184	104
78	0	0	2090	5	184	105
79	0	0	2105	5	184	105
80	0	0	2101	5	184	105
81	0	0	2090	4	184	105
82	0	0	2051	3	184	105
83	0	0	2013	4	184	105
84	0	0	1980	5	184	104
85	0	0	1954	4	184	105
86	0	0	1927	4	183	105
87	0	0	1889	4	183	105
88	0	0	1841	4	184	105
89	0	0	1814	4	184	105
90	0	0	1821	5	184	104
91	0	0	1851	5	183	105
92	0	0	1879	4	184	105
93	0	0	1863	4	184	104
94	0	0	1832	4	184	105
95	0	0	1830	5	184	104
96	0	0	1880	5	185	105
97	0	0	1958	4	185	105
98	0	0	2038	5	184	105
99	0	0	2076	5	184	105
100	0	0	2067	4	184	105
101	0	0	2036	4	184	105
102	0	0	2008	3	184	105
103	0	0	1970	4	184	105
104	0	0	1900	4	184	105
105	0	0	1826	5	184	105
106	0	0	1772	4	184	105
107	0	0	1717	4	183	105
108	0	0	1681	4	184	105
109	0	0	1673	5	184	105
110	0	0	1676	5	183	105
111	0	0	1676	5	182	105
112	0	0	1689	4	184	105
113	0	0	1723	5	184	105
114	0	0	1755	5	184	105
115	0	0	1775	4	184	105
116	0	0	1830	5	186	105
117	0	0	1902	5	185	104
118	0	0	1949	5	185	105
119	0	0	1977	4	186	105
120	0	0	1997	5	184	104
121	0	0	2018	5	184	105
122	0	0	1999	4	183	105
123	0	0	1946	4	183	105
124	0	0	1891	4	184	105
125	0	0	1855	4	184	105
126	0	0	1824	4	182	105
127	0	0	1776	3	184	104
0	0	0	1731	4	184	105
1	0	0	1707	4	184	104
2	0	0	1687	4	183	105
3	0	0	1675	4	182	104
4	0	0	1702	5	184	105
5	0	0	1766	5	185	105
6	0	0	1844	5	184	105
7	0	0	1919	5	184	105
8	0	0	1955	5	186	105
9	0	0	1965	5	185	105
10	0	0	1988	5	184	105
11	0	0	2015	5	183	105
12	0	0	2039	5	186	104
13	0	0	2044	5	185	104
14	0	0	2025	4	184	105
15	0	0	1989	4	182	105
16	0	0	1932	4	184	105
17	0	0	1859	4	184	104
18	0	0	1798	4	183	105
19	0	0	1749	4	183	105
20	0	0	1697	4	183	105
21	0	0	1656	4	184	104
22	0	0	1642	4	184	104
23	0	0	1658	5	184	105
24	0	0	1680	5	183	105
25	0	0	1701	5	185	105
26	0	0	1729	5	185	105
27	0	0	1754	5	185	104
28	0	0	1777	5	184	105
29	0	0	1799	5	184	105
30	0	0	1818	5	184	105
31	0	0	1830	5	185	104
32	0	0	1836	5	184	104
33	0	0	1823	4	184	105
34	0	0	1799	4	184	105
35	0	0	1770	4	184	105
36	0	0	1734	4	184	104
37	0	0	1692	4	184	105
38	0	0	1638	4	184	105
39	0	0	1598	4	183	105
40	0	0	1560	4	184	105
41	0	0	1527	4	183	105
42	0	0	1519	4	184	105
43	0	0	1536	5	185	105
44	0	0	1571	5	184	105
45	0	0	1602	5	184	105
46	0	0	1628	5	183	105
47	0	0	1666	5	184	104
48	0	0	1715	5	184	105
49	0	0	1754	5	185	105
50	0	0	1779	5	185	105
51	0	0	1799	5	185	105
52	0	0	1814	5	185	104
53	0	0	1810	4	184	105
54	0	0	1768	4	184	105
55	0	0	1712	4	183	105
56	0	0	1690	4	184	105
57	0	0	1695	4	183	107
58	0	0	1700	5	184	105
59	0	0	1698	4	183	105
60	0	0	1678	4	184	105
61	0	0	1619	4	183	105
62	0	0	1562	5	184	105
63	0	0	1554	5	184	105
64	0	0	1620	5	184	105
65	0	0	1697	5	185	105
66	0	0	1742	5	184	105
67	0	0	1770	5	184	106
68	0	0	1812	5	184	104
69	0	0	1847	5	184	104
70	0	0	1890	5	184	104
71	0	0	1911	5	184	105
72	0	0	1902	4	184	104
73	0	0	1879	4	185	104
74	0	0	1869	4	184	105
75	0	0	1872	5	184	105
76	0	0	1865	4	184	105
77	0	0	1847	5	184	104
78	0	0	1833	4	183	105
79	0	0	1806	4	183	105
80	0	0	1760	4	184	104
81	0	0	1715	4	183	105
82	0	0	1678	4	183	105
83	0	0	1674	5	183	105
84	0	0	1715	5	184	104
85	0	0	1771	5	184	105
86	0	0	1805	4	185	105
87	0	0	1828	4	185	105
88	0	0	1858	4	185	104
89	0	0	1889	5	185	105
90	0	0	1930	5	184	105
91	0	0	1971	5	185	105
92	0	0	1999	6	185	104
93	0	0	1992	4	185	105
94	0	0	1932	4	183	105
95	0	0	1848	4	184	104
96	0	0	1779	4	184	105
97	0	0	1709	3	183	105
98	0	0	1662	4	183	105
99	0	0	1627	4	184	105
100	0	0	1597	4	183	104
101	0	0	1582	4	182	105
102	0	0	1577	4	183	105
103	0	0	1579	4	184	105
104	0	0	1584	5	183	105
105	0	0	1610	5	184	105
106	0	0	1658	5	184	105
107	0	0	1723	4	184	105
108	0	0	1797	5	184	105
109	0	0	1849	5	184	105
110	0	0	1893	5	184	105
111	0	0	1918	5	183	105
112	0	0	1905	4	184	105
113	0	0	1884	4	183	105
114	0	0	1861	4	183	105
115	0	0	1837	4	183	105
116	0	0	1799	5	183	105
117	0	0	1736	4	183	105
118	0	0	1656	4	183	105
119	0	0	1585	4	183	105
120	0	0	1534	4	183	105
121	0	0	1518	4	183	105
122	0	0	1520	4	183	105
123	0	0	1542	5	185	105
124	0	0	1597	5	184	105
125	0	0	1664	5	184	104
126	0	0	1736	5	184	105
127	0	0	1823	4	184	105
0	0	0	1896	5	184	105
1	0	0	1944	5	184	105
2	0	0	1966	5	185	105
3	0	0	1943	5	184	105
4	0	0	1910	4	184	103
5	0	0	1860	4	184	104
6	0	0	1786	4	183	105
7	0	0	1714	4	183	105
8	0	0	1671	4	183	105
9	0	0	1643	5	183	105
10	0	0	1622	4	183	105
11	0	0	1612	4	184	105
12	0	0	1596	6	183	105
13	0	0	1577	4	184	105
14	0	0	1556	4	183	105
15	0	0	1565	5	184	105
16	0	0	1619	5	184	105
17	0	0	1696	5	183	105
18	0	0	1774	4	183	105
19	0	0	1843	4	184	105
20	0	0	1899	5	186	105
21	0	0	1959	5	184	105
22	0	0	2013	5	183	104
23	0	0	2042	5	183	105
24	0	0	2031	4	185	105
25	0	0	1995	4	184	104
26	0	0	1941	4	184	105
27	0	0	1867	4	184	105
28	0	0	1794	4	183	105
29	0	0	1737	4	184	105
30	0	0	1701	4	184	105
31	0	0	1682	4	182	105
32	0	0	1670	4	183	105
33	0	0	1659	4	183	104
34	0	0	1646	4	183	105
35	0	0	1659	5	184	104
36	0	0	1675	5	185	105
37	0	0	1708	5	183	105
38	0	0	1774	4	184	105
39	0	0	1826	4	185	104
40	0	0	1865	4	185	105
41	0	0	1919	5	184	104
42	0	0	2003	5	184	105
43	0	0	2084	5	185	105
44	0	0	2135	5	184	105
45	0	0	2155	5	184	105
46	0	0	2151	5	184	106
47	0	0	2129	4	183	105
48	0	0	2098	4	184	105
49	0	0	2066	4	183	105
50	0	0	2031	4	182	104
51	0	0	2003	4	183	105
52	0	0	1963	5	184	105
53	0	0	1925	4	183	104
54	0	0	1905	4	183	105
55	0	0	1893	4	183	104
56	0	0	1896	4	183	105
57	0	0	1940	5	184	105
58	0	0	2034	5	185	105
59	0	0	2141	4	185	105
60	0	0	2218	4	184	104
61	0	0	2246	4	185	105
62	0	0	2275	5	184	105
63	0	0	2308	5	184	105
64	0	0	2335	4	186	104
65	0	0	2356	5	184	104
66	0	0	2387	5	184	104
67	0	0	2438	5	183	105
68	0	0	2491	5	184	105
69	0	0	2523	4	183	105
70	0	0	2533	5	184	105
71	0	0	2528	4	183	105
72	0	0	2473	4	184	105
73	0	0	2410	4	183	105
74	0	0	2343	3	184	105
75	0	0	2260	4	184	105
76	0	0	2184	4	183	105
77	0	0	2131	4	184	105
78	0	0	2100	4	185	105
79	0	0	2078	4	185	105
80	0	0	2061	4	184	104
81	0	0	2036	4	185	105
82	0	0	2036	5	184	105
83	0	0	2088	4	184	105
84	0	0	2146	5	185	106
85	0	0	2195	5	184	105
86	0	0	2258	5	183	104
87	0	0	2323	5	183	105
88	0	0	2371	5	183	105
89	0	0	2390	5	184	105
90	0	0	2353	4	183	105
91	0	0	2310	4	183	105
92	0	0	2244	4	182	105
93	0	0	2193	4	183	104
94	0	0	2141	4	183	104
95	0	0	2060	4	184	105
96	0	0	1959	4	184	105
97	0	0	1868	4	185	105
98	0	0	1809	4	184	105
99	0	0	1771	4	184	104
100	0	0	1732	4	184	105
101	0	0	1685	4	183	105
102	0	0	1710	4	185	105
103	0	0	1808	5	184	105
104	0	0	1903	5	184	105
105	0	0	1933	5	184	104
106	0	0	1919	5	184	105
107	0	0	1921	6	184	104
108	0	0	1939	5	183	105
109	0	0	1968	4	184	105
110	0	0	1987	5	183	105
111	0	0	2018	5	183	105
112	0	0	2003	4	183	105
113	0	0	1940	4	183	105
114	0	0	1865	4	183	105
115	0	0	1771	4	183	104
116	0	0	1680	4	182	105
117	0	0	1621	4	184	105
118	0	0	1586	4	184	105
119	0	0	1583	5	185	105
120	0	0	1619	5	185	105
121	0	0	1671	5	186	105
122	0	0	1719	5	184	105
123	0	0	1787	5	185	105
124	0	0	1841	5	184	105
125	0	0	1880	5	185	105
126	0	0	1909	5	184	105
127	0	0	1939	4	184	105
0	0	0	1959	5	184	105
1	0	0	1961	4	184	105
2	0	0	1952	5	184	105
3	0	0	1941	4	184	105
4	0	0	1895	4	182	105
5	0	0	1822	3	182	105
6	0	0	1752	4	184	105
7	0	0	1710	4	184	105
8	0	0	1685	4	185	105
9	0	0	1677	4	183	105
10	0	0	1673	4	185	104
11	0	0	1678	5	183	105
12	0	0	1687	4	184	104
13	0	0	1672	4	184	104
14	0	0	1702	5	184	105
15	0	0	1771	5	184	105
16	0	0	1833	5	186	105
17	0	0	1896	5	184	105
18	0	0	1961	4	184	105
19	0	0	2012	5	184	105
20	0	0	2045	5	185	105
21	0	0	2055	5	184	105
22	0	0	2034	4	184	105
23	0	0	2020	4	184	104
24	0	0	1968	4	183	105
25	0	0	1901	4	183	105
26	0	0	1846	4	183	105
27	0	0	1804	4	184	105
28	0	0	1774	4	184	105
29	0	0	1753	4	184	105
30	0	0	1759	4	183	105
31	0	0	1777	5	186	104
32	0	0	1796	5	185	105
33	0	0	1808	5	185	105
34	0	0	1853	5	184	105
35	0	0	1923	4	183	105
36	0	0	1984	5	184	105
37	0	0	2033	5	184	105
38	0	0	2051	5	184	105
39	0	0	2053	5	184	104
40	0	0	2057	5	183	105
41	0	0	2053	5	183	105
42	0	0	2041	5	183	105
43	0	0	2052	4	183	104
44	0	0	2032	4	183	105
45	0	0	1992	3	183	105
46	0	0	1947	4	184	105
47	0	0	1867	4	183	105
48	0	0	1779	4	184	105
49	0	0	1729	4	184	105
50	0	0	1729	4	184	105
51	0	0	1787	5	185	105
52	0	0	1852	5	184	105
53	0	0	1876	5	185	104
54	0	0	1903	5	185	104
55	0	0	1960	5	184	105
56	0	0	2020	5	184	105
57	0	0	2072	5	184	105
58	0	0	2101	5	183	105
59	0	0	2121	5	183	105
60	0	0	2116	4	184	105
61	0	0	2085	4	184	105
62	0	0	2045	4	184	105
63	0	0	2030	4	183	105
64	0	0	1989	4	183	105
65	0	0	1923	4	183	105
66	0	0	1867	4	184	105
67	0	0	1826	4	184	105
68	0	0	1806	4	183	104
69	0	0	1824	5	184	105
70	0	0	1842	4	183	104
71	0	0	1840	5	185	105
72	0	0	1833	4	185	105
73	0	0	1816	4	184	105
74	0	0	1828	5	184	105
75	0	0	1865	4	185	105
76	0	0	1903	5	185	105
77	0	0	1954	5	184	105
78	0	0	2015	5	185	104
79	0	0	2049	5	183	105
80	0	0	2083	5	184	105
81	0	0	2095	4	184	104
82	0	0	2070	4	184	105
83	0	0	2052	4	184	105
84	0	0	2015	4	184	105
85	0	0	1959	4	183	105
86	0	0	1893	4	184	105
87	0	0	1818	4	184	105
88	0	0	1736	4	184	104
89	0	0	1673	4	184	105
90	0	0	1645	4	184	104
91	0	0	1685	5	185	105
92	0	0	1757	5	185	105
93	0	0	1811	5	184	105
94	0	0	1855	5	184	104
95	0	0	1899	5	184	105
96	0	0	1943	5	185	105
97	0	0	1985	5	184	105
98	0	0	2015	5	184	104
99	0	0	2019	4	184	105
100	0	0	1984	5	184	105
101	0	0	1941	4	183	105
102	0	0	1903	4	183	105
103	0	0	1873	4	183	104
104	0	0	1818	4	183	105
105	0	0	1755	3	184	105
106	0	0	1711	4	183	105
107	0	0	1686	4	184	105
108	0	0	1683	5	183	105
109	0	0	1708	5	183	105
110	0	0	1745	5	184	105
111	0	0	1779	5	184	104
112	0	0	1820	5	185	105
113	0	0	1851	5	184	105
114	0	0	1887	5	185	105
115	0	0	1945	4	185	105
116	0	0	1989	5	185	105
117	0	0	1997	5	184	105
118	0	0	1979	4	184	105
119	0	0	1959	4	184	105
120	0	0	1980	5	183	105
121	0	0	2000	4	183	105
122	0	0	1990	4	184	105
123	0	0	1975	4	183	105
124	0	0	1926	4	183	105
125	0	0	1842	4	184	105
126	0	0	1770	4	183	105
127	0	0	1717	4	183	105
0	0	0	1697	4	184	104
1	0	0	1715	5	184	105
2	0	0	1759	5	183	105
3	0	0	1813	5	184	105
4	0	0	1859	5	185	105
5	0	0	1883	5	185	104
6	0	0	1917	5	185	105
7	0	0	1954	5	184	105
8	0	0	1976	5	183	105
9	0	0	1988	5	184	106
10	0	0	1998	5	184	104
11	0	0	2008	5	184	105
12	0	0	2020	5	184	105
13	0	0	2018	4	184	105
14	0	0	1982	4	183	105
15	0	0	1942	4	183	104
16	0	0	1884	4	183	105
17	0	0	1813	4	183	105
18	0	0	1732	4	183	105
19	0	0	1666	4	184	104
20	0	0	1656	5	182	104
21	0	0	1701	5	185	105
22	0	0	1767	5	185	105
23	0	0	1814	5	185	105
24	0	0	1841	5	184	104
25	0	0	1857	5	184	104
26	0	0	1901	5	184	105
27	0	0	1968	5	183	105
28	0	0	2033	4	184	105
29	0	0	2076	5	184	105
30	0	0	2072	4	183	105
31	0	0	2062	4	185	105
32	0	0	2055	4	184	105
33	0	0	2051	4	183	105
34	0	0	2032	4	184	106
35	0	0	2013	4	182	105
36	0	0	1963	4	183	105
37	0	0	1895	4	184	105
38	0	0	1825	4	184	105
39	0	0	1762	4	184	104
40	0	0	1739	4	184	105
41	0	0	1740	4	184	104
42	0	0	1724	4	184	105
43	0	0	1744	4	184	105
44	0	0	1825	5	185	104
45	0	0	1891	5	184	105
46	0	0	1936	5	184	105
47	0	0	1984	5	185	105
48	0	0	2026	5	185	104
49	0	0	2053	5	184	106
50	0	0	2071	5	183	105
51	0	0	2078	5	184	104
52	0	0	2042	5	183	105
53	0	0	1985	4	184	105
54	0	0	1936	5	184	103
55	0	0	1929	4	182	105
56	0	0	1882	4	183	105
57	0	0	1828	5	184	105
58	0	0	1804	4	184	105
59	0	0	1775	4	183	103
60	0	0	1756	4	183	104
61	0	0	1778	5	184	105
62	0	0	1850	7	184	105
63	0	0	1915	5	184	105
64	0	0	1947	5	185	104
65	0	0	1943	5	184	105
66	0	0	1959	5	185	105
67	0	0	1990	5	186	105
68	0	0	2023	4	184	105
69	0	0	2057	5	183	105
70	0	0	2064	5	184	105
71	0	0	2059	4	184	105
72	0	0	2066	5	183	105
73	0	0	2068	4	184	105
74	0	0	2042	4	183	105
75	0	0	2034	4	183	104
76	0	0	1997	4	182	105
77	0	0	1930	4	183	105
78	0	0	1880	4	184	104
79	0	0	1828	4	184	104
80	0	0	1791	4	182	105
81	0	0	1803	5	184	104
82	0	0	1858	5	185	104
83	0	0	1916	5	184	105
84	0	0	1943	5	184	106
85	0	0	1957	5	184	104
86	0	0	1995	5	184	105
87	0	0	2034	5	184	105
88	0	0	2044	5	185	105
89	0	0	2037	5	185	104
90	0	0	2043	5	183	105
91	0	0	2077	5	184	104
92	0	0	2117	5	182	105
93	0	0	2134	4	184	105
94	0	0	2100	4	183	106
95	0	0	2085	4	184	105
96	0	0	2048	4	183	105
97	0	0	1991	4	183	105
98	0	0	1927	4	183	105
99	0	0	1854	4	183	104
100	0	0	1798	4	182	104
101	0	0	1770	5	184	105
102	0	0	1807	5	183	105
103	0	0	1852	5	184	105
104	0	0	1868	5	185	104
105	0	0	1866	5	184	105
106	0	0	1890	5	184	104
107	0	0	1956	5	185	105
108	0	0	2039	5	184	105
109	0	0	2124	5	184	105
110	0	0	2175	5	184	105
111	0	0	2189	5	184	105
112	0	0	2169	4	184	105
113	0	0	2154	4	184	105
114	0	0	2140	5	183	105
115	0	0	2134	5	182	105
116	0	0	2086	4	182	105
117	0	0	2028	4	183	105
118	0	0	1986	4	184	105
119	0	0	1953	4	183	105
120	0	0	1935	4	182	104
121	0	0	1945	5	184	105
122	0	0	1988	5	185	104
123	0	0	2057	4	183	105
124	0	0	2159	5	185	105
125	0	0	2261	5	185	105
126	0	0	2353	5	185	105
127	0	0	2428	5	185	105
0	0	0	2468	5	185	105
1	0	0	2502	5	184	105
2	0	0	2529	5	184	105
3	0	0	2544	5	183	105
4	0	0	2555	5	183	105
5	0	0	2559	3	184	105
6	0	0	2539	4	184	104
7	0	0	2517	5	183	105
8	0	0	2485	4	183	105
9	0	0	2442	4	183	105
10	0	0	2411	4	183	105
11	0	0	2381	4	183	105
12	0	0	2353	4	184	105
13	0	0	2316	4	185	105
14	0	0	2262	4	184	105
15	0	0	2221	4	184	105
16	0	0	2155	4	184	105
17	0	0	2091	4	184	104
18	0	0	2080	5	184	104
19	0	0	2087	5	185	104
20	0	0	2085	4	185	105
21	0	0	2076	5	184	105
22	0	0	2065	4	184	104
23	0	0	2056	4	183	105
24	0	0	2026	4	183	105
25	0	0	1989	4	183	105
26	0	0	1969	4	183	105
27	0	0	1971	4	182	105
28	0	0	1941	4	183	105
29	0	0	1896	4	183	105
30	0	0	1858	3	183	105
31	0	0	1833	4	183	105
32	0	0	1819	4	183	105
33	0	0	1815	4	184	104
34	0	0	1821	5	184	105
35	0	0	1826	4	184	105
36	0	0	1847	5	185	105
37	0	0	1882	5	185	105
38	0	0	1951	5	184	105
39	0	0	2015	5	185	104
40	0	0	2052	5	184	105
41	0	0	2075	4	185	105
42	0	0	2102	5	184	105
43	0	0	2119	4	184	105
44	0	0	2137	5	184	105
45	0	0	2149	4	184	105
46	0	0	2120	4	184	105
47	0	0	2076	4	182	105
48	0	0	2012	4	183	105
49	0	0	1985	4	183	105
50	0	0	1964	3	182	105
51	0	0	1923	4	184	105
52	0	0	1869	4	184	105
53	0	0	1850	5	184	105
54	0	0	1901	6	185	105
55	0	0	1963	4	185	105
56	0	0	2000	5	185	105
57	0	0	2020	5	184	105
58	0	0	2051	5	185	105
59	0	0	2097	5	184	105
60	0	0	2156	5	184	105
61	0	0	2206	4	184	106
62	0	0	2238	5	184	105
63	0	0	2241	5	184	105
64	0	0	2232	5	184	105
65	0	0	2235	5	183	105
66	0	0	2236	5	183	105
67	0	0	2226	4	183	105
68	0	0	2157	4	182	105
69	0	0	2071	4	183	104
70	0	0	2009	4	183	105
71	0	0	1932	4	183	105
72	0	0	1846	4	184	104
73	0	0	1826	5	184	105
74	0	0	1884	5	183	104
75	0	0	1960	4	185	105
76	0	0	2020	5	184	105
77	0	0	2078	5	184	105
78	0	0	2156	5	185	105
79	0	0	2237	5	185	105
80	0	0	2296	5	185	105
81	0	0	2320	5	184	105
82	0	0	2295	4	183	105
83	0	0	2274	5	183	105
84	0	0	2287	5	184	104
85	0	0	2270	4	183	105
86	0	0	2219	4	183	105
87	0	0	2201	5	183	105
88	0	0	2189	4	183	105
89	0	0	2168	4	183	105
90	0	0	2153	4	182	105
91	0	0	2110	4	184	105
92	0	0	2059	4	183	105
93	0	0	2027	4	183	106
94	0	0	2026	5	184	105
95	0	0	2072	5	184	105
96	0	0	2136	5	185	105
97	0	0	2193	5	184	104
98	0	0	2237	5	185	105
99	0	0	2275	5	185	105
100	0	0	2310	5	185	105
101	0	0	2347	5	184	105
102	0	0	2368	6	184	106
103	0	0	2380	4	184	105
104	0	0	2380	6	184	105
105	0	0	2375	5	184	105
106	0	0	2351	5	183	105
107	0	0	2340	5	183	104
108	0	0	2309	4	184	105
109	0	0	2252	4	184	105
110	0	0	2188	4	183	105
111	0	0	2113	3	183	106
112	0	0	2050	4	183	105
113	0	0	2018	4	185	105
114	0	0	2033	5	185	104
115	0	0	2072	5	184	105
116	0	0	2110	5	186	105
117	0	0	2140	4	185	105
118	0	0	2180	5	185	105
119	0	0	2234	5	184	105
120	0	0	2283	5	184	105
121	0	0	2304	5	184	106
122	0	0	2317	5	185	105
123	0	0	2346	5	184	105
124	0	0	2368	5	184	105
125	0	0	2351	5	185	105
126	0	0	2294	4	183	105
127	0	0	2258	4	182	104
0	0	0	2222	4	183	104
1	0	0	2194	4	184	105
2	0	0	2160	4	183	104
3	0	0	2105	4	182	105
4	0	0	2072	4	184	104
5	0	0	2054	4	184	104
6	0	0	2060	4	184	105
7	0	0	2090	5	185	105
8	0	0	2131	5	185	105
9	0	0	2168	5	186	105
10	0	0	2206	5	186	105
11	0	0	2243	5	185	105
12	0	0	2284	5	183	105
13	0	0	2311	5	184	106
14	0	0	2320	5	185	104
15	0	0	2294	4	185	105
16	0	0	2246	4	184	104
17	0	0	2200	4	184	105
18	0	0	2163	4	183	105
19	0	0	2162	5	184	105
20	0	0	2156	5	182	105
21	0	0	2127	4	184	105
22	0	0	2088	5	184	105
23	0	0	2043	4	183	105
24	0	0	2026	5	184	105
25	0	0	2063	5	184	105
26	0	0	2104	5	184	105
27	0	0	2112	5	184	105
28	0	0	2095	4	184	105
29	0	0	2122	5	185	104
30	0	0	2196	5	185	105
31	0	0	2265	5	186	104
32	0	0	2308	5	184	104
33	0	0	2311	3	184	105
34	0	0	2284	4	184	105
35	0	0	2267	4	184	105
36	0	0	2239	4	184	105
37	0	0	2193	4	184	105
38	0	0	2138	4	184	106
39	0	0	2099	4	183	104
40	0	0	2034	4	184	105
41	0	0	1955	4	184	105
42	0	0	1923	4	183	105
43	0	0	1949	4	184	105
44	0	0	1998	5	184	105
45	0	0	2059	4	186	105
46	0	0	2105	5	185	104
47	0	0	2174	4	185	105
48	0	0	2247	5	184	105
49	0	0	2287	5	184	104
50	0	0	2308	5	184	105
51	0	0	2337	5	185	105
52	0	0	2350	5	185	105
53	0	0	2352	5	184	106
54	0	0	2366	5	185	105
55	0	0	2343	4	184	106
56	0	0	2293	6	185	105
57	0	0	2246	5	183	105
58	0	0	2180	4	182	105
59	0	0	2119	4	183	105
60	0	0	2064	4	183	105
61	0	0	2028	4	184	104
62	0	0	2039	5	183	105
63	0	0	2056	4	184	105
64	0	0	2072	4	183	105
65	0	0	2079	5	183	105
66	0	0	2106	5	184	105
67	0	0	2157	5	184	105
68	0	0	2220	4	185	105
69	0	0	2277	5	185	105
70	0	0	2330	5	186	105
71	0	0	2385	4	185	105
72	0	0	2429	5	184	104
73	0	0	2446	4	185	105
74	0	0	2425	4	185	105
75	0	0	2381	4	185	105
76	0	0	2323	4	183	104
77	0	0	2261	4	184	105
78	0	0	2199	4	184	105
79	0	0	2168	4	183	105
80	0	0	2136	4	183	105
81	0	0	2099	4	184	104
82	0	0	2089	5	184	105
83	0	0	2084	5	184	105
84	0	0	2088	5	183	105
85	0	0	2110	5	184	105
86	0	0	2147	4	185	105
87	0	0	2176	5	185	105
88	0	0	2220	5	185	105
89	0	0	2284	5	185	105
90	0	0	2364	5	185	105
91	0	0	2434	5	183	104
92	0	0	2470	5	184	106
93	0	0	2453	4	185	105
94	0	0	2408	4	184	106
95	0	0	2364	4	185	105
96	0	0	2323	4	184	105
97	0	0	2309	5	183	106
98	0	0	2272	4	182	105
99	0	0	2214	4	183	105
100	0	0	2153	4	183	105
101	0	0	2105	4	183	104
102	0	0	2071	4	183	105
103	0	0	2052	3	184	105
104	0	0	2058	5	184	105
105	0	0	2090	5	184	105
106	0	0	2153	5	184	105
107	0	0	2221	5	185	104
108	0	0	2293	5	185	105
109	0	0	2348	5	185	104
110	0	0	2389	5	185	104
111	0	0	2414	5	185	105
112	0	0	2417	4	184	105
113	0	0	2410	5	184	105
114	0	0	2400	5	184	105
115	0	0	2372	4	185	105
116	0	0	2329	4	184	104
117	0	0	2287	5	184	105
118	0	0	2250	5	184	105
119	0	0	2210	4	184	104
120	0	0	2144	4	184	105
121	0	0	2063	4	184	105
122	0	0	2046	6	183	105
123	0	0	2100	5	183	105
124	0	0	2147	4	184	104
125	0	0	2166	5	185	105
126	0	0	2182	5	184	105
127	0	0	2200	5	184	106
0	0	0	2215	4	185	105
1	0	0	2227	5	185	104
2	0	0	2249	5	185	105
3	0	0	2277	7	186	105
4	0	0	2297	7	184	105
5	0	0	2297	5	184	105
6	0	0	2268	4	184	104
7	0	0	2210	4	184	105
8	0	0	2134	4	184	105
9	0	0	2035	6	183	105
10	0	0	1944	4	184	105
11	0	0	1855	4	183	104
12	0	0	1768	4	184	104
13	0	0	1706	4	183	105
14	0	0	1680	4	184	105
15	0	0	1684	5	183	105
16	0	0	1724	5	184	104
17	0	0	1791	5	185	105
18	0	0	1883	5	184	104
19	0	0	2005	4	185	105
20	0	0	2107	5	184	104
21	0	0	2188	5	184	104
22	0	0	2250	5	185	105
23	0	0	2276	5	185	105
24	0	0	2265	6	185	105
25	0	0	2241	4	185	105
26	0	0	2205	4	184	104
27	0	0	2124	4	184	105
28	0	0	2003	4	184	105
29	0	0	1867	3	184	105
30	0	0	1756	4	184	105
31	0	0	1682	4	184	104
32	0	0	1616	4	184	105
33	0	0	1569	5	183	105
34	0	0	1553	3	183	105
35	0	0	1585	5	184	105
36	0	0	1676	5	183	104
37	0	0	1809	5	184	105
38	0	0	1937	4	184	105
39	0	0	2074	4	184	105
40	0	0	2196	5	184	105
41	0	0	2274	5	184	105
42	0	0	2311	5	185	105
43	0	0	2298	4	185	104
44	0	0	2253	4	185	105
45	0	0	2214	4	185	105
46	0	0	2162	4	184	105
47	0	0	2101	4	184	105
48	0	0	2030	4	183	104
49	0	0	1931	4	184	104
50	0	0	1840	4	182	105
51	0	0	1760	4	183	104
52	0	0	1668	4	183	105
53	0	0	1605	4	184	105
54	0	0	1593	5	183	105
55	0	0	1618	5	184	105
56	0	0	1701	5	183	104
57	0	0	1846	5	184	105
58	0	0	2002	4	184	105
59	0	0	2129	5	184	105
60	0	0	2230	5	185	105
61	0	0	2313	5	184	104
62	0	0	2372	5	185	105
63	0	0	2391	5	184	105
64	0	0	2379	4	184	105
65	0	0	2334	4	185	104
66	0	0	2259	4	184	104
67	0	0	2162	4	184	105
68	0	0	2060	4	184	104
69	0	0	1976	4	183	105
70	0	0	1905	4	184	105
71	0	0	1806	4	184	104
72	0	0	1679	4	184	104
73	0	0	1585	3	183	105
74	0	0	1567	5	184	105
75	0	0	1646	5	184	105
76	0	0	1779	5	184	104
77	0	0	1905	5	184	105
78	0	0	2014	5	184	105
79	0	0	2118	5	184	105
80	0	0	2215	4	185	105
81	0	0	2303	5	185	104
82	0	0	2400	5	184	105
83	0	0	2466	4	185	104
84	0	0	2493	5	184	105
85	0	0	2479	4	183	105
86	0	0	2432	4	184	104
87	0	0	2355	4	184	105
88	0	0	2252	4	183	105
89	0	0	2142	4	184	105
90	0	0	2029	4	184	105
91	0	0	1954	4	183	104
92	0	0	1902	4	183	105
93	0	0	1881	4	183	104
94	0	0	1902	5	183	105
95	0	0	1937	4	184	105
96	0	0	1991	5	184	103
97	0	0	2073	5	184	105
98	0	0	2160	4	184	105
99	0	0	2239	5	185	105
100	0	0	2296	5	185	105
101	0	0	2325	5	184	104
102	0	0	2362	5	185	105
103	0	0	2418	5	185	105
104	0	0	2452	5	185	105
105	0	0	2447	5	184	105
106	0	0	2411	4	184	105
107	0	0	2352	4	184	105
108	0	0	2268	4	183	105
109	0	0	2172	4	184	105
110	0	0	2105	4	184	104
111	0	0	2062	4	185	104
112	0	0	2027	4	182	105
113	0	0	2021	5	182	104
114	0	0	2037	5	184	105
115	0	0	2045	5	183	105
116	0	0	2055	5	184	105
117	0	0	2076	5	183	105
118	0	0	2119	5	183	104
119	0	0	2168	5	185	105
120	0	0	2221	5	185	105
121	0	0	2263	5	184	105
122	0	0	2298	5	185	105
123	0	0	2323	5	185	105
124	0	0	2337	5	184	105
125	0	0	2337	5	184	105
126	0	0	2301	4	184	104
127	0	0	2256	4	184	105
0	0	0	2203	4	183	105
1	0	0	2153	4	184	105
2	0	0	2114	4	184	105
3	0	0	2088	4	183	105
4	0	0	2052	4	183	105
5	0	0	2009	4	184	105
6	0	0	1976	5	183	105
7	0	0	1958	4	183	105
8	0	0	1960	5	184	103
9	0	0	1982	4	184	105
10	0	0	2016	5	186	105
11	0	0	2046	6	185	105
12	0	0	2086	5	185	105
13	0	0	2137	5	184	105
14	0	0	2188	5	185	105
15	0	0	2204	5	184	104
16	0	0	2191	5	183	105
17	0	0	2159	4	184	105
18	0	0	2127	4	184	105
19	0	0	2126	4	184	104
20	0	0	2129	5	183	105
21	0	0	2110	4	182	105
22	0	0	2085	5	183	105
23	0	0	2080	4	182	104
24	0	0	2030	3	182	104
25	0	0	1966	4	183	105
26	0	0	1930	5	183	105
27	0	0	1928	4	183	105
28	0	0	1955	5	184	103
29	0	0	2000	4	184	105
30	0	0	2046	5	184	105
31	0	0	2091	5	184	105
32	0	0	2128	5	183	105
33	0	0	2154	5	184	105
34	0	0	2183	5	185	105
35	0	0	2218	5	185	104
36	0	0	2247	5	185	105
37	0	0	2255	5	184	105
38	0	0	2229	4	184	104
39	0	0	2183	4	183	105
40	0	0	2129	4	183	105
41	0	0	2090	5	182	105
42	0	0	2069	4	183	105
43	0	0	2039	4	183	104
44	0	0	1984	5	183	105
45	0	0	1910	4	182	105
46	0	0	1867	4	183	105
47	0	0	1852	5	184	105
48	0	0	1864	5	183	104
49	0	0	1900	5	184	105
50	0	0	1951	5	186	105
51	0	0	2018	5	184	106
52	0	0	2102	5	184	105
53	0	0	2167	5	185	104
54	0	0	2200	4	185	105
55	0	0	2202	4	184	105
56	0	0	2190	6	185	105
57	0	0	2188	5	184	105
58	0	0	2180	5	184	105
59	0	0	2153	4	183	105
60	0	0	2120	4	185	104
61	0	0	2084	4	183	105
62	0	0	2038	5	183	105
63	0	0	2005	4	183	104
64	0	0	1957	4	182	105
65	0	0	1896	4	186	105
66	0	0	1873	5	183	105
67	0	0	1879	5	184	105
68	0	0	1890	5	184	104
69	0	0	1921	4	183	105
70	0	0	1959	4	184	105
71	0	0	2016	5	184	105
72	0	0	2083	5	185	105
73	0	0	2137	5	185	105
74	0	0	2177	4	185	105
75	0	0	2205	5	184	106
76	0	0	2200	5	184	105
77	0	0	2170	4	184	105
78	0	0	2145	4	184	104
79	0	0	2135	4	184	105
80	0	0	2125	4	185	105
81	0	0	2083	5	184	105
82	0	0	2035	4	183	105
83	0	0	2018	4	183	105
84	0	0	1996	4	182	105
85	0	0	1947	4	183	104
86	0	0	1910	4	184	105
87	0	0	1866	4	184	105
88	0	0	1810	4	184	105
89	0	0	1807	4	184	105
90	0	0	1849	5	184	104
91	0	0	1903	6	185	105
92	0	0	1974	5	184	105
93	0	0	2025	5	184	104
94	0	0	2074	4	185	105
95	0	0	2148	5	184	105
96	0	0	2209	5	184	105
97	0	0	2245	5	184	105
98	0	0	2253	5	184	104
99	0	0	2227	4	184	105
100	0	0	2174	4	184	105
101	0	0	2103	4	183	105
102	0	0	2051	4	184	105
103	0	0	2045	5	183	104
104	0	0	2018	4	183	105
105	0	0	1973	4	183	105
106	0	0	1928	5	183	105
107	0	0	1901	5	184	105
108	0	0	1925	5	184	105
109	0	0	1986	5	183	103
110	0	0	2040	5	185	105
111	0	0	2076	5	184	104
112	0	0	2104	4	185	105
113	0	0	2123	5	185	105
114	0	0	2150	3	185	105
115	0	0	2173	5	183	103
116	0	0	2195	5	185	105
117	0	0	2213	5	184	105
118	0	0	2204	4	184	104
119	0	0	2166	3	184	105
120	0	0	2120	4	182	106
121	0	0	2080	4	183	105
122	0	0	2030	4	184	105
123	0	0	1982	4	184	105
124	0	0	1913	3	183	105
125	0	0	1853	4	183	105
126	0	0	1834	4	184	105
127	0	0	1830	4	184	105
0	0	0	1849	5	184	104
1	0	0	1895	5	184	105
2	0	0	1937	5	185	105
3	0	0	1980	5	183	104
4	0	0	2036	5	185	105
5	0	0	2090	5	185	104
6	0	0	2133	4	185	105
7	0	0	2174	5	186	105
8	0	0	2212	5	184	105
9	0	0	2214	4	185	105
10	0	0	2184	4	184	105
11	0	0	2154	4	184	105
12	0	0	2105	4	184	105
13	0	0	2044	4	184	104
14	0	0	1975	5	184	105
15	0	0	1921	5	183	105
16	0	0	1859	4	183	105
17	0	0	1807	4	183	104
18	0	0	1778	4	183	105
19	0	0	1758	4	184	105
20	0	0	1749	4	184	105
21	0	0	1761	3	184	105
22	0	0	1791	5	185	106
23	0	0	1861	5	185	105
24	0	0	1962	5	184	105
25	0	0	2056	5	185	105
26	0	0	2120	5	185	105
27	0	0	2158	5	184	105
28	0	0	2160	5	185	105
29	0	0	2140	5	184	105
30	0	0	2112	4	183	105
31	0	0	2085	4	183	105
32	0	0	2061	5	184	105
33	0	0	2033	4	183	104
34	0	0	1985	4	184	105
35	0	0	1936	4	184	105
36	0	0	1862	4	183	104
37	0	0	1801	4	183	105
38	0	0	1754	5	182	105
39	0	0	1737	5	183	105
40	0	0	1762	5	184	105
41	0	0	1822	4	184	104
42	0	0	1883	6	184	105
43	0	0	1939	5	184	105
44	0	0	1973	5	184	105
45	0	0	2009	5	184	105
46	0	0	2062	4	184	105
47	0	0	2112	6	185	105
48	0	0	2128	5	185	104
49	0	0	2121	6	184	105
50	0	0	2117	5	185	105
51	0	0	2115	4	184	105
52	0	0	2078	4	183	105
53	0	0	2016	4	183	105
54	0	0	1943	4	183	105
55	0	0	1865	4	183	105
56	0	0	1784	3	183	106
57	0	0	1712	4	182	105
58	0	0	1680	4	184	104
59	0	0	1704	5	183	104
60	0	0	1770	5	184	105
61	0	0	1847	5	185	104
62	0	0	1926	5	184	105
63	0	0	1996	5	184	104
64	0	0	2028	5	184	105
65	0	0	2060	4	184	105
66	0	0	2121	5	185	105
67	0	0	2177	5	185	104
68	0	0	2187	4	184	105
69	0	0	2173	5	184	105
70	0	0	2151	4	184	105
71	0	0	2115	4	183	105
72	0	0	2072	4	184	105
73	0	0	2017	4	183	106
74	0	0	1963	4	183	104
75	0	0	1925	4	184	105
76	0	0	1863	3	182	105
77	0	0	1797	5	183	105
78	0	0	1775	5	182	105
79	0	0	1789	6	184	105
80	0	0	1830	5	183	105
81	0	0	1892	5	183	105
82	0	0	1958	5	185	105
83	0	0	2014	5	183	105
84	0	0	2069	5	184	104
85	0	0	2112	5	184	105
86	0	0	2156	4	184	105
87	0	0	2193	5	185	104
88	0	0	2212	4	184	105
89	0	0	2208	4	185	105
90	0	0	2172	4	184	105
91	0	0	2120	3	184	105
92	0	0	2067	4	184	105
93	0	0	2009	5	182	105
94	0	0	1953	4	184	104
95	0	0	1909	4	183	104
96	0	0	1834	4	183	105
97	0	0	1753	4	184	105
98	0	0	1715	4	183	105
99	0	0	1737	5	184	105
100	0	0	1809	5	184	105
101	0	0	1905	4	184	105
102	0	0	2030	5	184	104
103	0	0	2168	5	184	105
104	0	0	2263	5	184	105
105	0	0	2324	5	185	105
106	0	0	2377	5	185	105
107	0	0	2431	5	184	105
108	0	0	2479	5	184	104
109	0	0	2537	4	184	105
110	0	0	2582	5	184	105
111	0	0	2565	4	184	105
112	0	0	2507	4	184	105
113	0	0	2451	5	185	104
114	0	0	2405	4	183	105
115	0	0	2368	4	182	105
116	0	0	2334	4	183	105
117	0	0	2323	5	183	105
118	0	0	2339	5	183	105
119	0	0	2368	4	184	105
120	0	0	2405	4	184	105
121	0	0	2442	5	184	105
122	0	0	2488	5	184	105
123	0	0	2547	5	185	105
124	0	0	2598	5	184	105
125	0	0	2634	5	184	105
126	0	0	2652	5	184	105
127	0	0	2637	4	185	105
0	0	0	2587	5	184	104
1	0	0	2501	3	185	104
2	0	0	2391	4	183	104
3	0	0	2270	4	184	105
4	0	0	2141	4	185	104
5	0	0	2016	4	184	105
6	0	0	1962	4	183	105
7	0	0	1966	5	183	105
8	0	0	1951	4	184	104
9	0	0	1941	5	183	105
10	0	0	1960	5	184	104
11	0	0	1973	4	184	105
12	0	0	1983	5	183	105
13	0	0	1996	5	185	105
14	0	0	2025	4	184	105
15	0	0	2077	5	183	104
16	0	0	2143	4	184	105
17	0	0	2210	5	185	105
18	0	0	2277	5	185	105
19	0	0	2336	5	184	105
20	0	0	2376	5	185	105
21	0	0	2381	4	184	105
22	0	0	2348	4	184	105
23	0	0	2297	4	184	105
24	0	0	2244	5	184	105
25	0	0	2195	4	184	105
26	0	0	2152	3	183	105
27	0	0	2127	4	184	105
28	0	0	2092	4	183	105
29	0	0	2052	4	183	105
30	0	0	2022	4	184	105
31	0	0	2007	4	183	105
32	0	0	2027	5	184	104
33	0	0	2070	5	184	104
34	0	0	2128	4	185	105
35	0	0	2180	5	184	105
36	0	0	2223	5	184	105
37	0	0	2248	5	185	105
38	0	0	2268	5	185	105
39	0	0	2293	4	184	105
40	0	0	2304	5	185	105
41	0	0	2313	5	184	105
42	0	0	2319	5	184	105
43	0	0	2304	5	184	105
44	0	0	2300	5	183	105
45	0	0	2296	5	184	104
46	0	0	2264	4	183	105
47	0	0	2222	4	184	105
48	0	0	2163	4	182	105
49	0	0	2094	4	184	105
50	0	0	2043	4	184	104
51	0	0	2031	4	184	105
52	0	0	2060	5	184	105
53	0	0	2126	5	183	105
54	0	0	2184	5	184	105
55	0	0	2233	5	184	104
56	0	0	2265	3	184	104
57	0	0	2273	5	184	105
58	0	0	2302	5	184	105
59	0	0	2337	5	185	104
60	0	0	2342	5	185	105
61	0	0	2341	5	184	104
62	0	0	2356	5	184	105
63	0	0	2372	5	183	105
64	0	0	2358	5	185	105
65	0	0	2314	4	183	105
66	0	0	2266	3	182	105
67	0	0	2245	4	184	105
68	0	0	2211	4	183	105
69	0	0	2168	5	182	104
70	0	0	2127	4	184	104
71	0	0	2101	4	183	105
72	0	0	2107	5	184	105
73	0	0	2120	5	184	105
74	0	0	2141	4	184	105
75	0	0	2155	5	184	105
76	0	0	2180	3	183	105
77	0	0	2208	5	184	105
78	0	0	2209	5	185	105
79	0	0	2225	5	185	103
80	0	0	2274	5	184	105
81	0	0	2315	4	184	105
82	0	0	2339	5	185	105
83	0	0	2358	5	184	105
84	0	0	2367	4	185	104
85	0	0	2351	5	183	104
86	0	0	2330	3	183	105
87	0	0	2307	4	183	105
88	0	0	2242	4	183	105
89	0	0	2148	4	183	104
90	0	0	2080	4	184	105
91	0	0	2043	3	183	105
92	0	0	2052	5	184	105
93	0	0	2079	5	184	105
94	0	0	2120	5	183	105
95	0	0	2177	5	184	105
96	0	0	2229	4	184	105
97	0	0	2278	5	185	105
98	0	0	2327	5	185	105
99	0	0	2376	5	184	105
100	0	0	2398	5	185	105
101	0	0	2406	5	185	105
102	0	0	2422	5	184	105
103	0	0	2433	5	185	104
104	0	0	2438	5	184	105
105	0	0	2417	4	184	105
106	0	0	2364	4	183	105
107	0	0	2327	4	184	105
108	0	0	2300	4	183	105
109	0	0	2265	3	182	105
110	0	0	2232	4	184	105
111	0	0	2183	3	183	105
112	0	0	2128	4	184	104
113	0	0	2089	4	184	105
114	0	0	2080	5	184	104
115	0	0	2104	5	185	105
116	0	0	2169	5	184	105
117	0	0	2220	5	184	105
118	0	0	2256	5	185	105
119	0	0	2306	5	183	105
120	0	0	2355	5	183	105
121	0	0	2392	4	184	105
122	0	0	2433	5	184	105
123	0	0	2494	5	184	105
124	0	0	2549	5	184	105
125	0	0	2563	5	184	105
126	0	0	2531	3	184	105
127	0	0	2514	5	183	105
0	0	0	2487	4	183	104
1	0	0	2424	4	183	106
2	0	0	2353	4	184	105
3	0	0	2295	4	183	104
4	0	0	2233	4	184	104
5	0	0	2182	4	183	105
6	0	0	2151	4	184	105
7	0	0	2137	5	184	105
8	0	0	2135	4	184	105
9	0	0	2136	5	185	105
10	0	0	2155	6	185	105
11	0	0	2215	5	185	106
12	0	0	2287	5	185	105
13	0	0	2357	4	184	105
14	0	0	2409	5	183	105
15	0	0	2444	6	183	105
16	0	0	2483	5	184	105
17	0	0	2519	5	183	104
18	0	0	2531	4	183	105
19	0	0	2555	5	184	105
20	0	0	2566	4	183	104
21	0	0	2513	4	183	105
22	0	0	2442	4	185	105
23	0	0	2360	4	184	105
24	0	0	2262	4	183	105
25	0	0	2178	4	185	105
26	0	0	2120	4	184	104
27	0	0	2075	4	183	105
28	0	0	2068	4	184	105
29	0	0	2090	5	184	104
30	0	0	2099	5	184	105
31	0	0	2132	5	184	104
32	0	0	2177	5	183	105
33	0	0	2228	5	184	105
34	0	0	2307	5	185	105
35	0	0	2381	5	184	105
36	0	0	2420	5	184	105
37	0	0	2449	5	184	104
38	0	0	2474	4	183	105
39	0	0	2511	5	184	105
40	0	0	2515	5	183	105
41	0	0	2443	4	183	104
42	0	0	2368	4	184	105
43	0	0	2297	4	184	105
44	0	0	2214	4	183	104
45	0	0	2153	4	184	105
46	0	0	2116	4	183	105
47	0	0	2093	4	184	105
48	0	0	2097	4	184	105
49	0	0	2114	5	184	105
50	0	0	2140	5	184	105
51	0	0	2190	5	185	104
52	0	0	2243	5	186	105
53	0	0	2311	4	184	105
54	0	0	2407	5	184	104
55	0	0	2468	5	184	104
56	0	0	2500	5	184	105
57	0	0	2522	5	185	104
58	0	0	2516	5	184	105
59	0	0	2503	5	184	104
60	0	0	2472	4	183	105
61	0	0	2397	4	184	104
62	0	0	2332	4	181	105
63	0	0	2269	4	183	105
64	0	0	2183	4	184	104
65	0	0	2102	4	184	105
66	0	0	2049	5	184	105
67	0	0	2024	4	184	105
68	0	0	2009	4	184	105
69	0	0	2003	5	185	105
70	0	0	2025	5	185	105
71	0	0	2117	5	184	105
72	0	0	2203	5	185	105
73	0	0	2257	5	183	105
74	0	0	2311	5	184	105
75	0	0	2359	5	184	104
76	0	0	2386	5	183	104
77	0	0	2395	5	184	105
78	0	0	2392	5	184	105
79	0	0	2400	4	184	105
80	0	0	2407	5	183	104
81	0	0	2353	4	185	107
82	0	0	2286	4	184	105
83	0	0	2220	4	182	105
84	0	0	2144	4	184	105
85	0	0	2077	4	184	105
86	0	0	2036	4	185	105
87	0	0	2030	5	183	105
88	0	0	2038	5	184	105
89	0	0	2052	5	185	105
90	0	0	2077	6	184	105
91	0	0	2135	6	183	105
92	0	0	2183	5	184	105
93	0	0	2190	5	184	105
94	0	0	2143	4	184	105
95	0	0	2092	4	185	105
96	0	0	2096	5	184	104
97	0	0	2126	5	183	105
98	0	0	2145	4	184	105
99	0	0	2183	5	184	105
100	0	0	2212	5	183	105
101	0	0	2169	4	183	104
102	0	0	2100	4	184	105
103	0	0	2049	4	183	105
104	0	0	2023	4	183	105
105	0	0	2004	4	185	105
106	0	0	1975	4	184	104
107	0	0	1953	4	185	105
108	0	0	1932	4	184	105
109	0	0	1929	5	184	105
110	0	0	1961	6	186	105
111	0	0	2007	5	184	105
112	0	0	2037	5	185	105
113	0	0	2090	5	185	105
114	0	0	2156	5	185	105
115	0	0	2188	5	184	105
116	0	0	2160	4	182	105
117	0	0	2127	4	184	105
118	0	0	2092	4	183	105
119	0	0	2057	4	183	105
120	0	0	2017	4	183	105
121	0	0	1966	3	183	105
122	0	0	1938	4	185	104
123	0	0	1905	4	184	105
124	0	0	1849	4	184	105
125	0	0	1834	5	184	105
126	0	0	1867	4	183	105
127	0	0	1893	5	184	105
0	0	0	1891	4	184	105
1	0	0	1910	5	185	105
2	0	0	1962	5	184	105
3	0	0	2026	5	185	105
4	0	0	2089	5	184	105
5	0	0	2131	5	184	105
6	0	0	2159	5	185	105
7	0	0	2164	4	184	105
8	0	0	2155	5	184	105
9	0	0	2126	4	184	105
10	0	0	2081	4	183	105
11	0	0	2042	4	184	105
12	0	0	2004	4	183	105
13	0	0	1964	4	184	105
14	0	0	1929	4	185	104
15	0	0	1915	4	184	105
16	0	0	1903	4	184	105
17	0	0	1907	5	184	105
18	0	0	1928	4	184	105
19	0	0	1947	5	185	105
20	0	0	1954	5	185	105
21	0	0	1960	5	183	104
22	0	0	1974	4	185	105
23	0	0	2008	5	185	105
24	0	0	2048	5	186	104
25	0	0	2084	5	184	105
26	0	0	2103	5	184	105
27	0	0	2108	5	185	105
28	0	0	2102	5	184	104
29	0	0	2092	5	185	105
30	0	0	2074	5	183	105
31	0	0	2070	4	183	105
32	0	0	2044	4	183	104
33	0	0	1988	5	184	105
34	0	0	1944	4	183	105
35	0	0	1916	4	184	105
36	0	0	1891	4	183	105
37	0	0	1881	4	184	105
38	0	0	1901	4	184	105
39	0	0	1941	4	185	104
40	0	0	1957	5	184	105
41	0	0	1972	5	185	105
42	0	0	2027	5	184	105
43	0	0	2120	4	185	105
44	0	0	2192	5	185	105
45	0	0	2227	5	184	105
46	0	0	2199	4	184	105
47	0	0	2133	4	183	105
48	0	0	2085	4	186	105
49	0	0	2057	4	185	105
50	0	0	2041	4	185	105
51	0	0	2036	5	184	105
52	0	0	2024	4	184	105
53	0	0	1982	5	183	105
54	0	0	1941	4	184	105
55	0	0	1899	4	184	105
56	0	0	1856	4	184	105
57	0	0	1841	4	183	105
58	0	0	1858	5	184	105
59	0	0	1885	5	185	104
60	0	0	1899	5	184	105
61	0	0	1925	5	185	105
62	0	0	1982	5	184	105
63	0	0	2067	5	184	107
64	0	0	2143	5	185	104
65	0	0	2184	5	185	104
66	0	0	2213	5	184	105
67	0	0	2230	5	185	104
68	0	0	2213	4	184	105
69	0	0	2176	4	184	105
70	0	0	2123	4	183	105
71	0	0	2075	4	183	105
72	0	0	2045	4	182	105
73	0	0	1994	4	184	105
74	0	0	1946	4	183	105
75	0	0	1912	4	184	105
76	0	0	1908	5	184	105
77	0	0	1932	5	184	104
78	0	0	1959	5	184	105
79	0	0	1998	5	184	105
80	0	0	2043	5	184	105
81	0	0	2066	5	184	104
82	0	0	2053	4	184	105
83	0	0	2035	4	185	105
84	0	0	2046	5	185	105
85	0	0	2082	5	184	104
86	0	0	2136	5	184	105
87	0	0	2181	5	183	105
88	0	0	2187	4	185	104
89	0	0	2168	4	183	104
90	0	0	2144	4	184	105
91	0	0	2124	4	184	105
92	0	0	2096	4	183	105
93	0	0	2026	4	184	105
94	0	0	1968	4	184	105
95	0	0	1938	4	183	105
96	0	0	1899	4	184	105
97	0	0	1891	4	184	105
98	0	0	1902	5	184	105
99	0	0	1942	5	184	105
100	0	0	1999	5	185	105
101	0	0	2046	4	185	105
102	0	0	2065	5	185	105
103	0	0	2091	5	185	105
104	0	0	2129	5	185	104
105	0	0	2161	5	184	105
106	0	0	2189	5	184	105
107	0	0	2183	4	184	105
108	0	0	2146	4	184	105
109	0	0	2118	4	184	104
110	0	0	2100	4	183	104
111	0	0	2079	4	183	105
112	0	0	2058	4	183	104
113	0	0	2036	4	183	105
114	0	0	2001	4	184	103
115	0	0	1940	3	184	105
116	0	0	1882	4	184	105
117	0	0	1869	4	184	105
118	0	0	1892	5	184	104
119	0	0	1933	5	184	104
120	0	0	1987	5	183	105
121	0	0	2034	5	185	105
122	0	0	2055	5	185	105
123	0	0	2064	5	185	105
124	0	0	2075	4	185	105
125	0	0	2091	4	185	105
126	0	0	2106	5	185	104
127	0	0	2122	5	185	105
0	0	0	2146	5	184	105
1	0	0	2136	4	183	105
2	0	0	2133	5	184	104
3	0	0	2170	5	182	105
4	0	0	2187	5	184	104
5	0	0	2136	4	184	105
6	0	0	2058	4	183	104
7	0	0	1984	4	184	105
8	0	0	1927	4	184	105
9	0	0	1894	4	184	105
10	0	0	1902	5	184	105
11	0	0	1951	5	185	105
12	0	0	2003	5	184	105
13	0	0	2046	5	184	105
14	0	0	2083	5	185	105
15	0	0	2125	5	184	105
16	0	0	2154	5	184	105
17	0	0	2141	4	183	105
18	0	0	2140	5	185	105
19	0	0	2149	4	185	105
20	0	0	2147	4	185	105
21	0	0	2143	5	184	104
22	0	0	2126	4	184	105
23	0	0	2123	5	183	104
24	0	0	2130	4	182	105
25	0	0	2096	4	184	104
26	0	0	2034	4	183	104
27	0	0	1965	4	183	105
28	0	0	1910	4	184	105
29	0	0	1883	4	183	105
30	0	0	1898	5	185	105
31	0	0	1930	5	184	105
32	0	0	1981	5	186	105
33	0	0	2039	5	185	105
34	0	0	2082	5	186	104
35	0	0	2123	5	184	104
36	0	0	2145	5	185	105
37	0	0	2147	5	185	105
38	0	0	2168	5	184	105
39	0	0	2200	4	183	105
40	0	0	2199	4	185	104
41	0	0	2175	4	184	104
42	0	0	2156	4	185	105
43	0	0	2131	4	184	105
44	0	0	2095	4	183	105
45	0	0	2040	4	184	105
46	0	0	2006	5	184	105
47	0	0	1992	5	184	104
48	0	0	1962	4	183	105
49	0	0	1944	4	184	105
50	0	0	1940	5	184	105
51	0	0	1958	5	183	104
52	0	0	1994	5	184	105
53	0	0	2023	5	185	105
54	0	0	2036	4	183	105
55	0	0	2070	5	184	104
56	0	0	2119	4	185	105
57	0	0	2170	5	186	105
58	0	0	2211	5	184	105
59	0	0	2247	5	184	105
60	0	0	2261	5	184	104
61	0	0	2241	4	185	105
62	0	0	2199	4	184	105
63	0	0	2159	4	183	104
64	0	0	2132	4	183	105
65	0	0	2068	4	184	105
66	0	0	1991	4	184	105
67	0	0	1938	4	184	105
68	0	0	1916	4	184	105
69	0	0	1916	4	184	105
70	0	0	1911	5	186	105
71	0	0	1913	5	185	105
72	0	0	1933	4	184	104
73	0	0	1983	4	185	105
74	0	0	2042	4	183	105
75	0	0	2119	4	185	106
76	0	0	2181	5	185	105
77	0	0	2203	5	183	105
78	0	0	2216	5	184	105
79	0	0	2226	5	182	105
80	0	0	2246	5	184	104
81	0	0	2263	5	183	105
82	0	0	2247	4	184	104
83	0	0	2198	4	184	105
84	0	0	2160	4	185	105
85	0	0	2112	4	183	105
86	0	0	2070	4	184	105
87	0	0	2017	4	183	105
88	0	0	1951	4	184	105
89	0	0	1921	4	184	105
90	0	0	1944	5	185	105
91	0	0	1987	5	184	105
92	0	0	2039	5	184	104
93	0	0	2091	5	184	105
94	0	0	2129	4	185	104
95	0	0	2181	5	185	104
96	0	0	2211	5	185	105
97	0	0	2225	5	184	105
98	0	0	2218	4	184	105
99	0	0	2177	4	183	105
100	0	0	2161	5	185	105
101	0	0	2144	4	184	105
102	0	0	2112	4	184	105
103	0	0	2077	4	183	105
104	0	0	2039	3	184	105
105	0	0	1980	4	183	104
106	0	0	1932	4	183	105
107	0	0	1907	4	182	104
108	0	0	1883	4	183	105
109	0	0	1892	5	184	105
110	0	0	1925	4	185	105
111	0	0	1950	5	185	105
112	0	0	1972	5	184	105
113	0	0	2005	5	185	105
114	0	0	2022	4	185	105
115	0	0	2056	5	185	104
116	0	0	2103	4	184	105
117	0	0	2156	5	183	105
118	0	0	2202	5	184	105
119	0	0	2207	5	184	105
120	0	0	2174	4	184	104
121	0	0	2117	3	184	105
122	0	0	2053	4	184	104
123	0	0	2019	5	183	105
124	0	0	2028	4	183	105
125	0	0	2006	4	184	105
126	0	0	1969	4	184	105
127	0	0	1937	4	183	104
0	0	0	1901	4	184	105
1	0	0	1899	5	184	105
2	0	0	1923	5	185	105
3	0	0	1954	4	183	105
4	0	0	1972	5	184	105
5	0	0	1991	5	185	105
6	0	0	2005	3	184	105
7	0	0	2038	5	185	105
8	0	0	2086	5	184	105
9	0	0	2119	5	184	105
10	0	0	2126	5	184	105
11	0	0	2115	4	184	105
12	0	0	2097	4	185	105
13	0	0	2077	4	184	105
14	0	0	2052	4	183	105
15	0	0	2024	4	184	105
16	0	0	2026	5	183	105
17	0	0	2003	4	184	105
18	0	0	1962	4	184	105
19	0	0	1905	5	183	105
20	0	0	1860	4	184	105
21	0	0	1837	4	184	105
22	0	0	1833	5	184	105
23	0	0	1846	5	185	105
24	0	0	1862	5	183	104
25	0	0	1889	5	185	105
26	0	0	1917	4	183	105
27	0	0	1967	4	184	105
28	0	0	2038	4	185	105
29	0	0	2087	4	184	105
30	0	0	2097	5	184	105
31	0	0	2084	4	184	105
32	0	0	2079	5	184	105
33	0	0	2065	4	184	105
34	0	0	2027	4	183	104
35	0	0	1996	4	183	105
36	0	0	1974	4	184	105
37	0	0	1922	4	183	105
38	0	0	1849	4	183	105
39	0	0	1782	4	183	105
40	0	0	1738	4	183	105
41	0	0	1747	5	184	105
42	0	0	1782	5	185	105
43	0	0	1826	5	184	105
44	0	0	1878	5	184	104
45	0	0	1921	5	185	105
46	0	0	1927	4	184	105
47	0	0	1942	4	185	105
48	0	0	1968	4	184	105
49	0	0	2002	5	184	104
50	0	0	2020	5	184	105
51	0	0	2030	5	183	105
52	0	0	2050	5	183	105
53	0	0	2060	5	184	105
54	0	0	2064	4	182	104
55	0	0	2078	5	183	105
56	0	0	2057	4	184	105
57	0	0	1994	4	184	104
58	0	0	1937	4	183	105
59	0	0	1945	5	183	104
60	0	0	1993	5	184	105
61	0	0	2059	5	184	105
62	0	0	2118	5	185	105
63	0	0	2178	5	184	105
64	0	0	2245	5	184	104
65	0	0	2306	5	185	105
66	0	0	2355	4	185	105
67	0	0	2409	5	184	105
68	0	0	2465	5	183	106
69	0	0	2502	5	184	105
70	0	0	2521	5	184	105
71	0	0	2521	4	184	105
72	0	0	2474	4	184	105
73	0	0	2429	4	183	105
74	0	0	2406	5	183	104
75	0	0	2414	5	183	105
76	0	0	2442	5	183	105
77	0	0	2406	4	183	105
78	0	0	2315	4	184	104
79	0	0	2204	4	184	104
80	0	0	2095	4	184	105
81	0	0	2012	3	184	105
82	0	0	1962	3	183	105
83	0	0	1926	4	184	105
84	0	0	1895	4	183	105
85	0	0	1880	5	184	105
86	0	0	1899	5	185	105
87	0	0	1948	5	185	105
88	0	0	1984	5	184	106
89	0	0	1994	5	184	105
90	0	0	1993	4	184	105
91	0	0	1987	5	183	105
92	0	0	1963	4	184	105
93	0	0	1914	4	184	104
94	0	0	1870	4	183	105
95	0	0	1844	4	184	105
96	0	0	1841	4	183	105
97	0	0	1815	4	183	105
98	0	0	1786	4	183	105
99	0	0	1760	4	183	105
100	0	0	1736	4	185	105
101	0	0	1748	5	184	105
102	0	0	1787	4	184	105
103	0	0	1816	5	183	106
104	0	0	1830	5	183	105
105	0	0	1844	5	185	105
106	0	0	1868	5	184	105
107	0	0	1922	4	184	105
108	0	0	1974	5	185	104
109	0	0	1992	5	184	105
110	0	0	1980	4	184	104
111	0	0	1980	4	184	105
112	0	0	1997	5	184	105
113	0	0	2007	5	184	104
114	0	0	2008	5	184	105
115	0	0	2023	5	183	105
116	0	0	2015	4	184	105
117	0	0	1912	4	183	105
118	0	0	1811	4	183	105
119	0	0	1775	4	183	105
120	0	0	1774	4	183	105
121	0	0	1754	4	185	105
122	0	0	1762	5	185	105
123	0	0	1798	5	184	106
124	0	0	1839	5	183	105
125	0	0	1886	5	184	105
126	0	0	1930	5	185	104
127	0	0	1988	5	185	105
0	0	0	2033	5	185	105
1	0	0	2038	5	184	105
2	0	0	2050	5	184	105
3	0	0	2057	4	183	105
4	0	0	2041	4	184	105
5	0	0	2014	4	183	105
6	0	0	1972	5	183	105
7	0	0	1948	5	184	105
8	0	0	1967	5	183	105
9	0	0	1951	4	183	104
10	0	0	1910	4	184	104
11	0	0	1869	5	182	105
12	0	0	1832	4	183	105
13	0	0	1816	5	184	105
14	0	0	1833	5	184	104
15	0	0	1873	5	184	105
16	0	0	1924	4	183	105
17	0	0	1957	5	184	105
18	0	0	1962	5	185	105
19	0	0	1968	4	184	105
20	0	0	1986	5	185	105
21	0	0	2017	5	185	105
22	0	0	2052	5	185	105
23	0	0	2086	5	183	105
24	0	0	2090	4	184	105
25	0	0	2060	4	184	105
26	0	0	2015	4	183	104
27	0	0	2004	5	182	106
28	0	0	2017	5	183	104
29	0	0	1989	4	183	104
30	0	0	1932	4	184	105
31	0	0	1872	4	182	104
32	0	0	1797	4	184	105
33	0	0	1750	4	184	105
34	0	0	1767	5	185	104
35	0	0	1832	5	184	105
36	0	0	1912	5	184	104
37	0	0	1956	5	184	104
38	0	0	1972	5	184	105
39	0	0	2017	4	185	105
40	0	0	2077	5	185	105
41	0	0	2114	5	184	105
42	0	0	2146	5	184	105
43	0	0	2156	5	184	104
44	0	0	2138	5	183	105
45	0	0	2112	5	184	105
46	0	0	2087	4	182	105
47	0	0	2062	4	184	105
48	0	0	2038	4	184	105
49	0	0	1985	4	183	104
50	0	0	1936	4	183	105
51	0	0	1914	4	183	105
52	0	0	1896	4	183	105
53	0	0	1888	4	184	105
54	0	0	1894	5	184	105
55	0	0	1903	5	184	105
56	0	0	1915	5	184	105
57	0	0	1921	5	184	105
58	0	0	1918	5	184	105
59	0	0	1958	4	185	105
60	0	0	2017	5	185	105
61	0	0	2054	5	184	105
62	0	0	2070	5	183	105
63	0	0	2094	5	184	105
64	0	0	2128	4	184	105
65	0	0	2151	4	182	105
66	0	0	2124	4	184	105
67	0	0	2056	4	184	105
68	0	0	1984	4	183	105
69	0	0	1910	4	183	105
70	0	0	1884	4	183	104
71	0	0	1894	5	184	105
72	0	0	1916	5	184	105
73	0	0	1939	5	183	105
74	0	0	1948	4	184	105
75	0	0	1950	5	184	105
76	0	0	1941	5	184	105
77	0	0	1954	5	185	105
78	0	0	2002	5	184	105
79	0	0	2084	3	184	105
80	0	0	2154	5	184	105
81	0	0	2178	5	184	105
82	0	0	2175	5	184	105
83	0	0	2161	4	184	105
84	0	0	2153	4	185	105
85	0	0	2152	5	183	105
86	0	0	2136	4	183	105
87	0	0	2124	5	184	105
88	0	0	2102	4	183	105
89	0	0	2050	4	184	105
90	0	0	1993	4	183	106
91	0	0	1965	4	182	105
92	0	0	1941	4	183	105
93	0	0	1916	4	183	105
94	0	0	1905	5	183	105
95	0	0	1923	5	184	105
96	0	0	1965	5	184	105
97	0	0	2000	5	184	105
98	0	0	2011	5	185	105
99	0	0	2049	4	184	106
100	0	0	2112	5	184	105
101	0	0	2176	5	185	105
102	0	0	2219	5	185	105
103	0	0	2218	5	184	104
104	0	0	2203	5	184	105
105	0	0	2204	5	183	105
106	0	0	2195	4	183	105
107	0	0	2164	5	184	105
108	0	0	2159	5	183	105
109	0	0	2132	4	184	105
110	0	0	2094	4	183	105
111	0	0	2062	4	183	105
112	0	0	2038	4	183	105
113	0	0	2020	7	184	105
114	0	0	2021	4	184	105
115	0	0	2045	5	185	105
116	0	0	2081	5	185	105
117	0	0	2107	5	184	105
118	0	0	2123	5	185	104
119	0	0	2173	5	184	105
120	0	0	2232	5	185	105
121	0	0	2250	5	183	105
122	0	0	2247	5	184	105
123	0	0	2243	5	183	104
124	0	0	2254	5	184	105
125	0	0	2271	5	184	105
126	0	0	2285	5	183	105
127	0	0	2277	5	183	105
0	0	0	2263	4	182	105
1	0	0	2223	3	184	105
2	0	0	2163	4	184	105
3	0	0	2091	4	184	105
4	0	0	2034	4	183	105
5	0	0	2004	4	184	104
6	0	0	1992	5	184	105
7	0	0	2005	5	184	105
8	0	0	2051	5	185	105
9	0	0	2131	5	184	105
10	0	0	2207	5	185	105
11	0	0	2292	4	185	105
12	0	0	2358	5	184	105
13	0	0	2393	5	184	105
14	0	0	2423	5	184	105
15	0	0	2438	4	184	105
16	0	0	2436	5	183	105
17	0	0	2434	5	183	105
18	0	0	2416	4	183	105
19	0	0	2404	5	183	105
20	0	0	2419	3	184	105
21	0	0	2392	4	183	105
22	0	0	2334	4	183	105
23	0	0	2254	4	184	105
24	0	0	2189	4	184	105
25	0	0	2166	4	185	105
26	0	0	2163	5	184	105
27	0	0	2140	4	183	105
28	0	0	2143	5	183	104
29	0	0	2171	5	184	105
30	0	0	2197	5	185	105
31	0	0	2235	5	184	105
32	0	0	2283	5	184	106
33	0	0	2310	5	184	105
34	0	0	2318	5	184	105
35	0	0	2300	6	184	105
36	0	0	2265	5	184	105
37	0	0	2217	4	183	105
38	0	0	2179	4	183	106
39	0	0	2184	5	183	105
40	0	0	2222	5	183	105
41	0	0	2215	4	183	105
42	0	0	2179	4	183	105
43	0	0	2140	4	183	105
44	0	0	2093	4	183	105
45	0	0	2064	4	184	105
46	0	0	2058	5	183	105
47	0	0	2072	5	184	105
48	0	0	2085	4	184	105
49	0	0	2079	4	185	105
50	0	0	2052	4	185	104
51	0	0	2057	5	185	105
52	0	0	2091	5	185	105
53	0	0	2133	5	184	105
54	0	0	2172	5	184	104
55	0	0	2201	5	183	105
56	0	0	2205	5	183	105
57	0	0	2198	4	184	106
58	0	0	2159	4	184	105
59	0	0	2124	4	185	105
60	0	0	2123	5	184	105
61	0	0	2097	4	182	105
62	0	0	2058	4	183	105
63	0	0	2009	4	183	104
64	0	0	1959	4	184	105
65	0	0	1928	4	184	104
66	0	0	1919	4	184	105
67	0	0	1918	4	184	105
68	0	0	1941	5	185	104
69	0	0	1986	5	185	105
70	0	0	1993	4	184	105
71	0	0	1984	5	185	105
72	0	0	1994	5	184	105
73	0	0	2020	5	185	105
74	0	0	2048	5	184	105
75	0	0	2086	5	184	105
76	0	0	2133	5	183	105
77	0	0	2127	4	183	106
78	0	0	2070	3	183	104
79	0	0	2033	5	184	105
80	0	0	2055	5	183	105
81	0	0	2052	4	183	105
82	0	0	1986	3	184	106
83	0	0	1920	4	183	106
84	0	0	1862	4	183	105
85	0	0	1835	4	184	105
86	0	0	1850	5	184	105
87	0	0	1895	4	184	105
88	0	0	1938	4	185	104
89	0	0	1987	5	184	105
90	0	0	2012	7	184	105
91	0	0	2029	5	184	105
92	0	0	2068	5	185	105
93	0	0	2111	5	184	105
94	0	0	2120	4	185	105
95	0	0	2078	2	185	104
96	0	0	2032	4	183	104
97	0	0	1999	4	183	105
98	0	0	1992	5	183	105
99	0	0	1994	5	183	105
100	0	0	1996	4	184	104
101	0	0	1963	4	183	105
102	0	0	1920	4	183	105
103	0	0	1884	4	182	104
104	0	0	1842	4	185	105
105	0	0	1809	4	184	105
106	0	0	1806	5	183	105
107	0	0	1825	4	184	105
108	0	0	1852	5	184	105
109	0	0	1872	5	184	105
110	0	0	1880	5	184	104
111	0	0	1940	5	184	105
112	0	0	2038	4	185	105
113	0	0	2100	5	184	105
114	0	0	2093	4	185	105
115	0	0	2053	4	184	105
116	0	0	2028	5	184	105
117	0	0	2019	4	183	105
118	0	0	2008	4	183	105
119	0	0	1990	4	184	105
120	0	0	1999	7	183	105
121	0	0	1990	5	183	105
122	0	0	1970	4	183	105
123	0	0	1933	4	183	105
124	0	0	1883	4	183	105
125	0	0	1852	4	183	104
126	0	0	1847	5	183	105
127	0	0	1848	5	183	105
0	0	0	1864	5	184	105
1	0	0	1907	5	185	105
2	0	0	1961	4	184	105
3	0	0	2014	6	184	105
4	0	0	2045	5	185	105
5	0	0	2057	5	184	105
6	0	0	2095	5	184	105
7	0	0	2131	4	184	105
8	0	0	2139	5	184	105
9	0	0	2116	4	184	105
10	0	0	2081	4	184	104
11	0	0	2055	4	183	105
12	0	0	2050	5	183	104
13	0	0	2011	3	182	105
14	0	0	1950	4	183	105
15	0	0	1886	4	184	106
16	0	0	1830	4	183	105
17	0	0	1817	4	184	105
18	0	0	1840	5	184	106
19	0	0	1910	4	183	105
20	0	0	1967	5	184	105
21	0	0	1979	5	184	104
22	0	0	1965	4	184	103
23	0	0	1971	5	185	105
24	0	1	2005	4	184	104
25	0	1	2060	5	185	105
26	0	1	2109	5	184	105
27	0	1	2125	4	185	105
28	0	1	2102	5	183	105
29	0	1	2063	4	183	104
30	0	1	2027	4	184	105
31	0	1	2039	5	185	104
32	0	1	2076	5	184	104
33	0	1	2068	3	183	105
34	0	1	1987	3	184	105
35	0	1	1896	4	183	105
36	0	1	1861	4	184	105
37	0	1	1862	5	184	105
38	0	1	1864	5	183	105
39	0	1	1869	4	184	105
40	0	1	1898	5	184	104
41	0	1	1947	5	184	105
42	0	1	1983	5	184	104
43	0	1	2030	5	185	104
44	0	1	2085	4	184	105
45	0	1	2120	5	185	105
46	0	1	2136	4	184	104
47	0	1	2126	4	184	105
48	0	1	2080	5	183	105
49	0	1	2026	4	184	105
50	0	1	1992	4	183	104
51	0	1	1952	4	183	105
52	0	1	1939	5	183	105
53	0	1	1944	6	183	105
54	0	1	1956	5	184	105
55	0	1	1948	4	183	104
56	0	1	1927	4	184	105
57	0	1	1923	5	184	105
58	0	1	1941	6	184	105
59	0	1	1972	5	183	105
60	0	1	1994	5	183	105
61	0	1	2015	4	184	105
62	0	1	2026	4	185	105
63	0	1	2055	6	184	105
64	0	1	2099	5	184	105
65	0	1	2131	5	183	104
66	0	1	2147	5	185	104
67	0	1	2145	5	183	105
68	0	1	2127	3	183	105
69	0	1	2108	4	184	105
70	0	1	2066	4	184	104
71	0	1	2022	4	183	105
72	0	1	2006	4	182	105
73	0	1	1972	3	183	105
74	0	1	1925	4	184	105
75	0	1	1896	4	183	104
76	0	1	1891	4	184	105
77	0	1	1878	4	183	104
78	0	1	1863	4	184	104
79	0	1	1840	4	185	104
80	0	1	1823	4	185	105
81	0	1	1806	5	185	105
82	0	1	1811	5	185	105
83	0	1	1835	6	184	105
84	0	1	1879	5	184	105
85	0	1	1921	5	185	104
86	0	1	1965	5	184	105
87	0	1	2010	5	186	105
88	0	1	2019	5	184	105
89	0	1	2014	5	184	105
90	0	1	2006	4	183	104
91	0	1	1978	5	183	105
92	0	1	1957	4	182	105
93	0	1	1906	4	183	105
94	0	1	1850	4	183	105
95	0	1	1808	4	184	105
96	0	1	1767	4	183	105
97	0	1	1741	4	184	105
98	0	1	1732	5	185	104
99	0	1	1761	5	184	105
100	0	1	1803	5	184	105
101	0	1	1821	5	184	105
102	0	1	1835	5	185	104
103	0	1	1867	5	185	104
104	0	1	1902	5	185	105
105	0	1	1915	5	184	104
106	0	1	1913	5	185	105
107	0	1	1921	5	184	105
108	0	1	1935	5	183	106
109	0	1	1951	5	184	105
110	0	1	1949	5	183	104
111	0	1	1938	5	184	105
112	0	1	1926	4	183	105
113	0	1	1889	4	183	105
114	0	1	1831	4	183	105
115	0	1	1765	4	184	104
116	1	1	1693	4	183	105
117	1	1	1666	5	185	105
118	1	1	1726	5	184	105
119	1	1	1809	4	183	104
120	1	1	1877	5	184	104
121	1	1	1902	5	185	105
122	1	1	1886	4	185	105
123	1	1	1879	5	184	104
124	1	1	1894	5	185	105
125	1	1	1912	5	184	104
126	1	1	1924	5	185	105
127	1	1	1923	5	184	105
0	1	1	1935	5	184	105
1	1	1	1940	5	184	105
2	1	1	1934	5	184	104
3	1	1	1919	5	183	105
4	1	1	1905	4	183	105
5	1	1	1873	5	182	104
6	1	1	1834	4	184	105
7	1	1	1802	4	184	104
8	1	1	1777	4	184	104
9	1	1	1778	5	184	105
10	1	1	1784	5	184	105
11	1	1	1781	4	184	105
12	1	1	1781	5	184	105
13	1	1	1782	5	184	105
14	1	1	1768	4	184	105
15	1	1	1797	5	184	105
16	1	1	1861	4	184	105
17	1	1	1916	5	184	104
18	1	1	1954	5	183	105
19	1	1	1974	5	184	105
20	1	1	1958	5	184	105
21	1	1	1956	5	184	104
22	1	1	1962	5	183	105
23	1	1	1963	4	183	105
24	1	1	1959	3	183	105
25	1	1	1903	4	182	105
26	1	1	1838	4	184	105
27	1	1	1797	4	184	104
28	1	1	1765	4	183	105
29	1	1	1739	5	184	105
30	1	1	1702	4	184	104
31	1	1	1675	4	184	105
32	1	1	1690	4	184	103
33	1	1	1742	5	185	105
34	1	1	1796	5	184	104
35	1	1	1853	5	185	105
36	1	1	1917	4	184	105
37	1	1	1973	5	186	103
38	1	1	2005	5	185	105
39	1	1	1985	5	185	105
40	1	1	1962	5	183	105
41	1	1	1963	5	184	105
42	1	1	1970	5	183	105
43	1	1	1953	4	183	105
44	1	1	1930	4	183	105
45	1	1	1880	4	184	105
46	1	1	1833	4	183	105
47	1	1	1807	4	182	103
48	1	1	1773	4	184	104
49	1	1	1754	5	184	105
50	1	1	1746	5	184	105
51	1	1	1728	4	184	105
52	1	1	1725	5	185	104
53	1	1	1739	4	185	105
54	1	1	1759	6	185	105
55	1	1	1812	5	185	105
56	1	1	1865	5	185	105
57	1	1	1892	5	185	103
58	1	1	1907	4	185	104
59	1	1	1910	4	183	106
60	1	1	1901	4	184	105
61	1	1	1881	4	184	105
62	1	1	1848	4	183	105
63	1	1	1820	5	183	105
64	1	1	1840	5	183	105
65	1	1	1826	4	183	105
66	1	1	1775	4	183	105
67	1	1	1736	4	184	105
68	1	1	1732	5	184	105
69	1	1	1731	4	184	105
70	1	1	1743	5	184	105
71	1	1	1770	5	185	105
72	1	1	1802	4	185	105
73	1	1	1827	5	184	105
74	1	1	1840	4	184	105
75	1	1	1872	5	184	105
76	1	1	1907	5	184	105
77	1	1	1939	5	185	104
78	1	1	1976	5	184	105
79	1	1	1984	5	184	105
80	1	1	1956	4	184	105
81	1	1	1921	4	184	105
82	1	1	1904	4	183	105
83	1	1	1895	5	184	105
84	1	1	1883	4	183	106
85	1	1	1842	4	182	105
86	1	1	1794	4	183	105
87	1	1	1746	4	183	105
88	1	1	1687	5	184	105
89	1	1	1692	5	184	104
90	1	1	1736	5	184	105
91	1	1	1761	5	184	105
92	1	1	1776	5	184	104
93	1	1	1791	5	184	104
94	1	1	1789	5	185	105
95	1	1	1826	5	185	105
96	1	1	1926	4	183	105
97	1	1	2028	5	184	104
98	1	1	2079	5	184	105
99	1	1	2067	4	184	105
100	1	1	2021	5	184	105
101	1	1	1976	5	184	104
102	1	1	1952	4	184	104
103	1	1	1933	4	184	104
104	1	1	1917	4	182	105
105	1	1	1859	4	184	105
106	1	1	1787	4	183	105
107	1	1	1739	4	184	105
108	1	1	1715	4	184	104
109	1	1	1720	4	184	104
110	1	1	1752	5	185	105
111	1	1	1786	5	184	105
112	1	1	1811	5	184	104
113	1	1	1820	5	184	105
114	1	1	1808	4	184	106
115	1	1	1809	6	184	104
116	1	1	1834	5	184	105
117	1	1	1873	5	184	104
118	1	1	1928	4	185	105
119	1	1	1967	5	184	105
120	1	1	1976	4	184	105
121	1	1	1959	4	184	105
122	1	1	1921	4	183	105
123	1	1	1891	4	183	105
124	1	1	1902	5	183	105
125	1	1	1905	5	183	105
126	1	1	1885	4	184	105
127	1	1	1867	4	183	104
0	1	1	1851	3	184	105
1	1	1	1837	4	183	105
2	1	1	1853	5	184	105
3	1	1	1920	5	184	105
4	1	1	1987	5	184	104
5	1	1	2051	5	184	105
6	1	1	2096	5	185	105
7	1	1	2152	5	185	105
8	1	1	2221	4	184	105
9	1	1	2261	5	185	104
10	1	1	2298	5	185	105
11	1	1	2323	5	184	105
12	1	1	2331	5	183	105
13	1	1	2342	5	184	104
14	1	1	2365	5	184	105
15	1	1	2371	5	184	105
16	1	1	2372	5	183	105
17	1	1	2347	4	183	105
18	1	1	2309	4	184	105
19	1	1	2286	4	183	105
20	1	1	2266	4	185	105
21	1	1	2245	4	182	105
22	1	1	2222	4	183	105
23	1	1	2197	3	184	105
24	1	1	2171	4	184	105
25	1	1	2144	4	184	105
26	1	1	2102	5	185	105
27	1	1	2061	4	184	105
28	1	1	2026	4	185	105
29	1	1	1999	4	185	104
30	1	1	1977	4	185	105
31	1	1	1954	5	184	105
32	1	1	1934	5	184	104
33	1	1	1931	4	183	105
34	1	1	1941	5	184	104
35	1	1	1926	3	184	105
36	1	1	1906	4	184	105
37	1	1	1864	3	183	105
38	1	1	1808	4	183	105
39	1	1	1765	4	184	104
40	1	1	1735	4	183	104
41	1	1	1714	4	184	105
42	1	1	1711	5	184	105
43	1	1	1730	4	184	105
44	1	1	1774	5	184	105
45	1	1	1825	5	184	105
46	1	1	1839	5	184	105
47	1	1	1845	6	185	105
48	1	1	1872	6	186	105
49	1	1	1908	5	185	105
50	1	1	1939	4	183	105
51	1	1	1967	5	185	105
52	1	1	1993	5	184	105
53	1	1	2009	4	184	105
54	1	1	1987	4	184	105
55	1	1	1930	4	183	104
56	1	1	1884	4	183	105
57	1	1	1839	4	184	105
58	1	1	1806	3	183	105
59	1	1	1795	4	183	105
60	1	1	1791	4	183	105
61	1	1	1783	5	183	105
62	1	1	1798	5	183	106
63	1	1	1819	6	184	104
64	1	1	1842	5	185	105
65	1	1	1878	5	185	105
66	1	1	1903	6	184	105
67	1	1	1910	5	184	105
68	1	1	1898	4	184	105
69	1	1	1905	5	185	105
70	1	1	1934	3	185	105
71	1	1	1978	5	185	105
72	1	1	2010	5	183	105
73	1	1	2014	6	184	105
74	1	1	2004	4	184	105
75	1	1	1993	4	183	105
76	1	1	1993	4	183	104
77	1	1	1955	4	183	105
78	1	1	1894	4	183	105
79	1	1	1851	4	183	105
80	1	1	1812	4	184	104
81	1	1	1789	5	184	105
82	1	1	1797	5	185	105
83	1	1	1828	5	183	105
84	1	1	1866	4	184	105
85	1	1	1877	5	184	105
86	1	1	1876	6	185	105
87	1	1	1885	5	184	106
88	1	1	1917	6	185	105
89	1	1	1964	5	185	105
90	1	1	2011	5	185	105
91	1	1	2036	6	184	105
92	1	1	2061	5	183	104
93	1	1	2079	5	184	105
94	1	1	2051	4	183	105
95	1	1	2030	4	183	106
96	1	1	2013	5	183	105
97	1	1	1957	4	183	104
98	1	1	1874	4	183	105
99	1	1	1820	4	183	105
100	1	1	1810	4	184	105
101	1	1	1822	5	183	105
102	1	1	1836	5	183	104
103	1	1	1836	6	184	105
104	1	1	1848	5	184	105
105	1	1	1877	4	183	105
106	1	1	1915	5	185	105
107	1	1	1962	5	184	105
108	1	1	2007	5	185	105
109	1	1	2030	5	184	105
110	1	1	2046	5	184	105
111	1	1	2061	5	185	104
112	1	1	2049	5	184	105
113	1	1	2021	4	185	105
114	1	1	1989	4	183	105
115	1	1	1948	4	183	105
116	1	1	1914	4	184	105
117	1	1	1870	4	182	105
118	1	1	1817	4	183	105
119	1	1	1781	4	184	105
120	1	1	1747	3	184	106
121	1	1	1717	5	184	105
122	1	1	1715	5	185	104
123	1	1	1723	4	184	105
124	1	1	1723	5	184	105
125	1	1	1741	5	184	105
126	1	1	1782	5	185	105
127	1	1	1854	5	184	104
0	1	1	1922	5	184	105
1	1	1	1959	5	185	105
2	1	1	1978	5	185	105
3	1	1	1969	5	185	105
4	1	1	1940	5	184	104
5	1	1	1895	4	184	105
6	1	1	1845	5	184	105
7	1	1	1826	5	184	105
8	1	1	1837	5	183	105
9	1	1	1818	4	182	105
10	1	1	1785	4	183	105
11	1	1	1767	4	184	105
12	1	1	1752	4	184	105
13	1	1	1730	5	184	105
14	1	1	1724	4	183	105
15	1	1	1744	5	185	105
16	1	1	1800	5	184	105
17	1	1	1854	4	185	105
18	1	1	1875	5	185	106
19	1	1	1893	5	184	105
20	1	1	1915	5	184	105
21	1	1	1943	5	183	105
22	1	1	1986	5	184	107
23	1	1	2020	5	183	104
24	1	1	2029	5	184	104
25	1	1	2008	3	184	105
26	1	1	1950	4	183	104
27	1	1	1888	4	183	105
28	1	1	1874	5	183	105
29	1	1	1863	5	183	104
30	1	1	1831	4	184	105
31	1	1	1810	4	184	105
32	1	1	1788	4	183	105
33	1	1	1766	4	184	105
34	1	1	1763	5	185	104
35	1	1	1781	4	184	105
36	1	1	1830	5	184	105
37	1	1	1875	5	184	105
38	1	1	1898	5	184	104
39	1	1	1913	5	184	105
40	1	1	1937	4	185	105
41	1	1	1965	5	185	105
42	1	1	1992	5	185	105
43	1	1	2023	5	184	105
44	1	1	2052	5	184	105
45	1	1	2055	4	182	104
46	1	1	2002	4	184	104
47	1	1	1925	4	184	105
48	1	1	1923	4	184	105
49	1	1	1916	4	184	105
50	1	1	1861	3	183	105
51	1	1	1805	4	184	105
52	1	1	1775	4	183	105
53	1	1	1777	5	184	105
54	1	1	1786	5	184	105
55	1	1	1792	4	184	105
56	1	1	1803	5	184	104
57	1	1	1837	5	185	105
58	1	1	1888	5	184	105
59	1	1	1956	5	185	105
60	1	1	2027	5	184	105
61	1	1	2068	5	184	104
62	1	1	2085	5	183	105
63	1	1	2104	4	185	105
64	1	1	2101	4	185	105
65	1	1	2061	4	183	105
66	1	1	2026	4	184	104
67	1	1	2012	5	184	105
68	1	1	2015	5	184	105
69	1	1	2017	4	183	104
70	1	1	1979	4	183	104
71	1	1	1929	4	184	105
72	1	1	1897	4	184	105
73	1	1	1896	4	184	105
74	1	1	1916	5	184	105
75	1	1	1941	4	184	105
76	1	1	1963	5	185	104
77	1	1	1988	5	184	105
78	1	1	2034	4	185	105
79	1	1	2091	5	185	105
80	1	1	2126	4	184	105
81	1	1	2146	5	184	105
82	1	1	2126	4	185	105
83	1	1	2083	4	184	105
84	1	1	2077	5	184	104
85	1	1	2073	4	184	105
86	1	1	2050	4	183	105
87	1	1	2028	4	184	105
88	1	1	2033	5	183	105
89	1	1	2004	4	184	105
90	1	1	1973	4	184	105
91	1	1	1996	5	183	105
92	1	1	2038	5	184	105
93	1	1	2055	5	184	104
94	1	1	2038	4	184	104
95	1	1	2011	3	184	104
96	1	1	1989	4	185	105
97	1	1	1985	4	185	105
98	1	1	2003	4	184	105
99	1	1	2048	4	184	105
100	1	1	2103	4	184	105
101	1	1	2144	5	184	105
102	1	1	2156	5	184	105
103	1	1	2174	5	184	105
104	1	1	2199	5	183	105
105	1	1	2207	4	184	105
106	1	1	2195	4	184	105
107	1	1	2153	4	183	105
108	1	1	2099	3	184	105
109	1	1	2039	4	183	104
110	1	1	1986	3	183	105
111	1	1	1952	4	184	105
112	1	1	1913	4	184	105
113	1	1	1883	4	185	105
114	1	1	1870	4	184	104
115	1	1	1889	4	184	105
116	1	1	1923	5	185	105
117	1	1	1959	5	185	105
118	1	1	1995	5	184	105
119	1	1	2035	5	184	105
120	1	1	2084	5	185	105
121	1	1	2129	5	185	104
122	1	1	2142	4	184	106
123	1	1	2127	4	184	104
124	1	1	2108	4	184	105
125	1	1	2080	4	183	105
126	1	1	2049	4	184	105
127	1	1	2014	4	185	105
0	1	1	1989	5	183	105
1	1	1	1954	4	183	105
2	1	1	1908	3	183	104
3	1	1	1876	4	183	105
4	1	1	1871	5	184	105
5	1	1	1885	5	184	105
6	1	1	1887	5	184	104
7	1	1	1885	3	184	105
8	1	1	1904	5	184	105
9	1	1	1938	5	184	105
10	1	1	1969	5	184	105
11	1	1	2010	5	184	104
12	1	1	2042	4	185	105
13	1	1	2045	5	185	105
14	1	1	2029	4	184	105
15	1	1	2012	5	183	105
16	1	1	2004	5	185	105
17	1	1	1988	3	183	104
18	1	1	1965	4	183	105
19	1	1	1952	4	183	105
20	1	1	1946	4	184	104
21	1	1	1925	5	183	105
22	1	1	1889	4	183	105
23	1	1	1853	4	184	105
24	1	1	1835	4	184	105
25	1	1	1853	5	184	105
26	1	1	1868	5	185	105
27	1	1	1858	4	184	104
28	1	1	1860	5	184	105
29	1	1	1867	5	185	105
30	1	1	1883	5	185	104
31	1	1	1918	5	184	105
32	1	1	1957	5	184	105
33	1	1	1994	5	184	105
34	1	1	2043	5	185	105
35	1	1	2074	5	184	104
36	1	1	2086	5	183	104
37	1	1	2070	4	184	105
38	1	1	2025	4	183	105
39	1	1	1952	4	183	105
40	1	1	1893	4	184	105
41	1	1	1856	4	183	105
42	1	1	1817	3	183	105
43	1	1	1789	4	183	105
44	1	1	1766	5	184	105
45	1	1	1745	4	184	105
46	1	1	1730	4	183	105
47	1	1	1756	4	184	105
48	1	1	1812	5	184	105
49	1	1	1900	5	185	105
50	1	1	1977	5	185	105
51	1	1	2055	5	186	105
52	1	1	2136	5	184	105
53	1	1	2141	4	184	105
54	1	1	2092	4	185	105
55	1	1	2039	4	183	106
56	1	1	2020	4	184	105
57	1	1	2016	4	184	105
58	1	1	2000	4	184	105
59	1	1	1984	4	184	105
60	1	1	1989	5	183	104
61	1	1	1972	4	182	104
62	1	1	1933	4	183	105
63	1	1	1895	4	183	105
64	1	1	1861	4	184	105
65	1	1	1848	4	184	105
66	1	1	1866	5	184	105
67	1	1	1888	5	184	104
68	1	1	1914	5	184	104
69	1	1	1954	6	183	105
70	1	1	1980	5	185	104
71	1	1	1996	5	186	105
72	1	1	2016	4	184	105
73	1	1	2023	5	184	105
74	1	1	2034	5	185	105
75	1	1	2061	4	185	105
76	1	1	2082	5	184	105
77	1	1	2095	5	183	105
78	1	1	2079	4	183	105
79	1	1	2043	3	184	105
80	1	1	2029	4	183	104
81	1	1	1989	4	183	105
82	1	1	1916	4	183	105
83	1	1	1860	4	183	105
84	1	1	1841	4	184	104
85	1	1	1854	5	184	105
86	1	1	1901	5	183	104
87	1	1	1946	5	183	105
88	1	1	1943	4	184	105
89	1	1	1912	4	185	105
90	1	1	1907	5	186	106
91	1	1	1938	5	184	105
92	1	1	1998	4	184	104
93	1	1	2047	5	185	105
94	1	1	2068	5	185	104
95	1	1	2083	5	184	105
96	1	1	2092	5	184	105
97	1	1	2062	4	183	105
98	1	1	2014	4	184	105
99	1	1	1988	4	183	105
100	1	1	1990	5	185	105
101	1	1	1955	4	183	105
102	1	1	1899	4	182	105
103	1	1	1848	4	184	105
104	1	1	1807	4	184	105
105	1	1	1800	5	184	105
106	1	1	1828	5	183	105
107	1	1	1872	5	184	105
108	1	1	1921	4	184	105
109	1	1	1975	5	184	105
110	1	1	2020	5	185	105
111	1	1	2063	4	185	104
112	1	1	2106	5	185	105
113	1	1	2128	4	184	105
114	1	1	2111	4	184	105
115	1	1	2085	4	184	105
116	1	1	2077	4	185	105
117	1	1	2079	4	184	105
118	1	1	2072	5	183	105
119	1	1	2044	5	184	105
120	1	1	2009	4	182	105
121	1	1	1961	4	184	105
122	1	1	1912	4	182	105
123	1	1	1896	4	184	105
124	1	1	1908	5	184	105
125	1	1	1931	5	184	104
126	1	1	1964	5	184	105
127	1	1	1992	5	184	104
0	1	1	1973	4	184	105
1	1	1	1925	4	184	105
2	1	1	1876	4	185	104
3	1	1	1881	5	185	105
4	1	1	1935	5	184	105
5	1	1	2012	5	184	105
6	1	1	2068	6	184	104
7	1	1	2117	5	185	105
8	1	1	2145	5	184	105
9	1	1	2158	5	185	104
10	1	1	2127	4	184	105
11	1	1	2038	4	185	105
12	1	1	2005	4	183	105
13	1	1	1994	4	185	105
14	1	1	1971	4	183	105
15	1	1	1969	4	184	105
16	1	1	1971	5	184	105
17	1	1	1969	5	183	104
18	1	1	1989	5	184	104
19	1	1	1999	5	185	105
20	1	1	1977	4	184	105
21	1	1	1972	5	184	105
22	1	1	1993	5	185	104
23	1	1	2018	5	185	105
24	1	1	2039	5	184	105
25	1	1	2052	5	184	104
26	1	1	2068	5	184	105
27	1	1	2091	4	184	105
28	1	1	2078	4	185	104
29	1	1	2039	4	184	105
30	1	1	1997	4	183	105
31	1	1	1985	5	184	105
32	1	1	1994	4	182	105
33	1	1	1966	4	183	105
34	1	1	1915	4	184	105
35	1	1	1879	4	183	105
36	1	1	1865	4	185	105
37	1	1	1866	5	186	105
38	1	1	1889	5	184	105
39	1	1	1915	5	183	105
40	1	1	1934	5	184	105
41	1	1	1949	5	184	105
42	1	1	1956	5	184	104
43	1	1	1982	5	185	105
44	1	1	2051	5	184	105
45	1	1	2100	5	184	105
46	1	1	2121	5	184	104
47	1	1	2101	4	185	105
48	1	1	2075	4	184	105
49	1	1	2057	4	184	105
50	1	1	2057	5	183	105
51	1	1	2049	5	184	105
52	1	1	2033	5	184	105
53	1	1	2004	4	184	104
54	1	1	1957	4	182	104
55	1	1	1927	4	184	105
56	1	1	1907	4	184	105
57	1	1	1888	4	183	105
58	1	1	1905	5	184	105
59	1	1	1929	5	184	105
60	1	1	1964	5	184	105
61	1	1	2031	5	184	105
62	1	1	2085	5	184	106
63	1	1	2118	5	184	104
64	1	1	2147	5	184	105
65	1	1	2163	5	184	105
66	1	1	2172	5	185	105
67	1	1	2171	5	183	104
68	1	1	2151	4	183	105
69	1	1	2128	4	183	105
70	1	1	2105	4	183	105
71	1	1	2066	4	184	105
72	1	1	2040	4	183	105
73	1	1	2033	4	184	105
74	1	1	2028	4	183	105
75	1	1	2028	5	183	105
76	1	1	2025	5	184	105
77	1	1	2016	4	183	105
78	1	1	2017	5	184	105
79	1	1	2034	5	184	105
80	1	1	2070	5	184	105
81	1	1	2118	4	185	105
82	1	1	2168	5	184	105
83	1	1	2216	5	184	105
84	1	1	2267	5	184	105
85	1	1	2308	5	184	105
86	1	1	2293	4	184	105
87	1	1	2252	3	185	105
88	1	1	2215	4	184	104
89	1	1	2197	5	183	105
90	1	1	2194	5	183	105
91	1	1	2216	5	184	104
92	1	1	2237	5	183	105
93	1	1	2215	4	183	105
94	1	1	2172	4	183	105
95	1	1	2160	5	183	105
96	1	1	2175	6	182	105
97	1	1	2174	5	185	105
98	1	1	2182	5	185	105
99	1	1	2199	5	185	105
100	1	1	2220	5	183	104
101	1	1	2244	5	184	105
102	1	1	2257	4	185	104
103	1	1	2284	5	183	104
104	1	1	2332	4	185	105
105	1	1	2378	5	185	105
106	1	1	2415	5	184	105
107	1	1	2410	5	184	105
108	1	1	2386	4	184	105
109	1	1	2360	4	184	105
110	1	1	2331	4	184	105
111	1	1	2298	4	184	105
112	1	1	2284	4	183	105
113	1	1	2286	4	184	105
114	1	1	2278	5	184	105
115	1	1	2265	5	184	105
116	1	1	2255	4	183	105
117	1	1	2225	4	184	105
118	1	1	2196	4	184	105
119	1	1	2194	5	186	105
120	1	1	2210	4	184	105
121	1	1	2217	5	184	105
122	1	1	2235	5	186	105
123	1	1	2284	4	184	104
124	1	1	2360	5	185	105
125	1	1	2443	5	184	105
126	1	1	2497	5	184	105
127	1	1	2523	5	185	105
0	1	1	2515	5	185	105
1	1	1	2460	4	182	105
2	1	1	2406	4	184	105
3	1	1	2381	4	184	105
4	1	1	2376	5	182	104
5	1	1	2374	5	184	105
6	1	1	2363	4	184	105
7	1	1	2356	5	183	104
8	1	1	2348	4	183	105
9	1	1	2318	4	185	105
10	1	1	2314	5	184	104
11	1	1	2347	5	182	105
12	1	1	2384	5	184	105
13	1	1	2407	5	185	105
14	1	1	2416	5	184	105
15	1	1	2448	5	185	104
16	1	1	2488	5	185	105
17	1	1	2506	5	185	105
18	1	1	2517	5	184	105
19	1	1	2540	5	185	105
20	1	1	2534	4	184	104
21	1	1	2503	4	184	105
22	1	1	2478	4	183	105
23	1	1	2459	4	184	105
24	1	1	2461	5	184	104
25	1	1	2458	4	184	104
26	1	1	2418	4	184	105
27	1	1	2363	4	183	105
28	1	1	2324	4	185	105
29	1	1	2305	4	184	105
30	1	1	2307	5	184	105
31	1	1	2322	5	185	105
32	1	1	2353	5	184	105
33	1	1	2388	5	183	104
34	1	1	2431	4	185	105
35	1	1	2479	5	184	104
36	1	1	2539	5	183	105
37	1	1	2574	5	184	104
38	1	1	2571	5	185	104
39	1	1	2565	4	185	105
40	1	1	2566	5	184	105
41	1	1	2560	5	185	104
42	1	1	2533	4	184	105
43	1	1	2483	4	183	105
44	1	1	2443	4	183	104
45	1	1	2425	4	185	104
46	1	1	2403	5	183	105
47	1	1	2376	4	184	105
48	1	1	2348	4	185	105
49	1	1	2346	5	184	105
50	1	1	2372	5	183	105
51	1	1	2389	5	184	105
52	1	1	2385	5	185	105
53	1	1	2387	5	184	105
54	1	1	2408	4	184	105
55	1	1	2426	4	185	105
56	1	1	2466	5	184	105
57	1	1	2513	5	184	105
58	1	1	2540	6	184	104
59	1	1	2548	5	184	104
60	1	1	2545	5	184	104
61	1	1	2531	5	184	105
62	1	1	2494	4	184	105
63	1	1	2440	4	184	105
64	1	1	2393	4	183	105
65	1	1	2351	4	184	105
66	1	1	2330	5	184	105
67	1	1	2331	5	183	105
68	1	1	2319	4	183	105
69	1	1	2288	4	184	105
70	1	1	2253	4	184	105
71	1	1	2241	5	183	105
72	1	1	2249	5	184	105
73	1	1	2276	5	184	104
74	1	1	2327	5	184	105
75	1	1	2407	5	185	105
76	1	1	2490	5	185	104
77	1	1	2544	5	185	105
78	1	1	2575	5	185	104
79	1	1	2591	5	185	105
80	1	1	2586	4	184	105
81	1	1	2541	4	183	105
82	1	1	2488	4	183	105
83	1	1	2449	4	183	105
84	1	1	2438	5	185	105
85	1	1	2425	4	183	104
86	1	1	2391	4	184	105
87	1	1	2366	4	183	105
88	1	1	2342	5	183	106
89	1	1	2322	5	184	105
90	1	1	2361	5	184	105
91	1	1	2437	5	184	104
92	1	1	2522	5	184	104
93	1	1	2578	5	184	105
94	1	1	2619	5	185	104
95	1	1	2664	5	184	104
96	1	1	2712	5	184	105
97	1	1	2754	5	184	105
98	1	1	2790	5	184	106
99	1	1	2829	5	184	104
100	1	1	2875	5	184	105
101	1	1	2903	5	185	105
102	1	1	2900	5	185	105
103	1	1	2881	5	182	105
104	1	1	2874	5	184	105
105	1	1	2886	5	183	106
106	1	1	2877	5	183	105
107	1	1	2865	5	183	105
108	1	1	2835	5	183	106
109	1	1	2788	4	184	105
110	1	1	2767	5	184	105
111	1	1	2765	5	184	105
112	1	1	2766	5	184	105
113	1	1	2755	5	184	105
114	1	1	2708	4	185	104
115	1	1	2658	4	184	105
116	1	1	2615	4	185	105
117	1	1	2551	4	185	105
118	1	1	2496	4	183	105
119	1	1	2475	5	183	104
120	1	1	2467	5	184	105
121	1	1	2457	5	184	105
122	1	1	2427	3	182	105
123	1	1	2380	4	183	105
124	1	1	2337	4	182	105
125	1	1	2290	4	184	104
126	1	1	2238	4	184	105
127	1	1	2209	4	183	105
0	1	1	2184	4	184	105
1	1	1	2169	5	183	105
2	1	1	2185	5	183	105
3	1	1	2206	5	183	105
4	1	1	2225	5	184	105
5	1	1	2243	5	182	105
6	1	1	2262	5	184	105
7	1	1	2286	5	185	105
8	1	1	2317	5	184	105
9	1	1	2347	5	184	105
10	1	1	2366	5	184	105
11	1	1	2376	5	184	105
12	1	1	2384	5	183	105
13	1	1	2385	5	184	105
14	1	1	2386	5	183	105
15	1	1	2364	4	182	105
16	1	1	2341	4	185	104
17	1	1	2312	4	184	105
18	1	1	2275	4	184	104
19	1	1	2259	5	183	105
20	1	1	2244	5	183	105
21	1	1	2202	4	184	105
22	1	1	2179	4	183	104
23	1	1	2190	5	184	104
24	1	1	2224	5	184	105
25	1	1	2277	5	183	105
26	1	1	2351	5	184	104
27	1	1	2406	5	184	103
28	1	1	2430	5	184	105
29	1	1	2445	5	183	105
30	1	1	2444	4	185	105
31	1	1	2419	5	184	105
32	1	1	2390	4	184	105
33	1	1	2370	5	183	104
34	1	1	2348	4	184	105
35	1	1	2322	4	182	105
36	1	1	2301	5	184	105
37	1	1	2285	4	184	104
38	1	1	2265	5	183	104
39	1	1	2256	5	183	104
40	1	1	2247	4	183	104
41	1	1	2238	5	184	105
42	1	1	2238	5	184	105
43	1	1	2246	5	184	105
44	1	1	2259	4	184	105
45	1	1	2281	4	185	105
46	1	1	2327	5	185	105
47	1	1	2377	5	184	105
48	1	1	2379	5	184	104
49	1	1	2344	4	184	105
50	1	1	2335	5	184	105
51	1	1	2378	5	184	105
52	1	1	2424	5	185	105
53	1	1	2430	5	184	104
54	1	1	2391	4	183	105
55	1	1	2339	4	184	105
56	1	1	2289	4	185	105
57	1	1	2246	4	183	105
58	1	1	2218	4	183	105
59	1	1	2214	5	184	105
60	1	1	2203	4	183	105
61	1	1	2181	4	184	105
62	1	1	2160	4	184	105
63	1	1	2140	4	183	104
64	1	1	2154	5	184	104
65	1	1	2206	5	185	105
66	1	1	2261	5	184	105
67	1	1	2314	5	184	105
68	1	1	2380	5	184	104
69	1	1	2438	4	184	105
70	1	1	2453	5	184	105
71	1	1	2438	5	185	105
72	1	1	2426	5	184	105
73	1	1	2412	5	183	104
74	1	1	2391	5	183	105
75	1	1	2364	3	184	105
76	1	1	2324	4	183	105
77	1	1	2271	5	184	105
78	1	1	2225	4	183	104
79	1	1	2182	4	183	105
80	1	1	2142	4	184	105
81	1	1	2117	4	184	105
82	1	1	2127	5	185	105
83	1	1	2165	5	183	104
84	1	1	2212	5	184	105
85	1	1	2258	4	184	105
86	1	1	2290	5	184	105
87	1	1	2302	5	185	105
88	1	1	2316	5	184	105
89	1	1	2339	5	184	105
90	1	1	2355	5	184	104
91	1	1	2350	4	183	105
92	1	1	2328	4	184	105
93	1	1	2293	4	185	104
94	1	1	2260	4	183	105
95	1	1	2254	5	183	105
96	1	1	2240	4	184	105
97	1	1	2192	4	183	105
98	1	1	2135	4	184	105
99	1	1	2102	4	183	105
100	1	1	2100	5	183	105
101	1	1	2127	4	183	104
102	1	1	2138	4	183	105
103	1	1	2128	5	183	104
104	1	1	2158	5	183	105
105	1	1	2194	4	185	105
106	1	1	2219	5	184	105
107	1	1	2264	5	184	105
108	1	1	2312	4	184	104
109	1	1	2333	5	184	105
110	1	1	2335	5	185	105
111	1	1	2351	5	184	105
112	1	1	2354	4	185	105
113	1	1	2336	5	183	104
114	1	1	2306	4	184	104
115	1	1	2289	4	184	105
116	1	1	2279	5	183	105
117	1	1	2255	4	183	105
118	1	1	2209	4	183	105
119	1	1	2169	4	183	105
120	1	1	2132	4	183	105
121	1	1	2092	4	184	105
122	1	1	2082	5	183	105
123	1	1	2080	5	184	105
124	1	1	2098	5	183	105
125	1	1	2139	5	184	105
126	1	1	2188	5	185	105
127	1	1	2219	5	185	104
0	1	1	2240	5	183	105
1	1	1	2264	5	184	105
2	1	1	2289	5	183	105
3	1	1	2310	4	183	104
4	1	1	2303	5	185	106
5	1	1	2277	4	184	105
6	1	1	2246	4	184	105
7	1	1	2201	4	184	105
8	1	1	2178	4	183	105
9	1	1	2180	5	184	104
10	1	1	2167	4	184	105
11	1	1	2147	5	183	105
12	1	1	2117	4	183	105
13	1	1	2103	4	183	105
14	1	1	2106	5	184	105
15	1	1	2137	5	182	104
16	1	1	2167	5	185	105
17	1	1	2192	5	185	104
18	1	1	2236	4	184	105
19	1	1	2271	5	185	105
20	1	1	2311	5	185	104
21	1	1	2342	4	184	105
22	1	1	2352	5	185	105
23	1	1	2350	4	183	105
24	1	1	2336	5	184	105
25	1	0	2322	5	183	105
26	1	0	2310	5	184	105
27	1	0	2278	4	183	104
28	1	0	2237	4	183	105
29	1	0	2193	4	183	104
30	1	0	2149	4	182	104
31	1	0	2112	4	183	105
32	1	0	2097	5	183	105
33	1	0	2112	4	184	105
34	1	0	2133	5	183	105
35	1	0	2142	5	183	104
36	1	0	2166	5	184	105
37	1	0	2205	5	184	105
38	1	0	2254	5	185	105
39	1	0	2288	5	184	105
40	1	0	2316	5	184	104
41	1	0	2344	5	184	104
42	1	0	2362	5	184	105
43	1	0	2361	4	184	105
44	1	0	2342	5	184	105
45	1	0	2300	4	183	104
46	1	0	2260	4	183	105
47	1	0	2238	4	183	104
48	1	0	2238	4	183	104
49	1	0	2224	5	183	104
50	1	0	2174	4	183	105
51	1	0	2131	4	182	105
52	1	0	2117	4	184	105
53	1	0	2118	5	183	105
54	1	0	2148	5	185	105
55	1	0	2183	5	183	105
56	1	0	2208	5	184	105
57	1	0	2225	4	185	105
58	1	0	2238	5	186	105
59	1	0	2265	5	185	105
60	1	0	2310	5	183	104
61	1	0	2336	5	184	105
62	1	0	2333	5	185	105
63	1	0	2317	5	184	104
64	1	0	2305	5	184	106
65	1	0	2280	4	184	105
66	1	0	2235	4	184	105
67	1	0	2185	4	183	105
68	1	0	2158	4	183	105
69	1	0	2164	5	183	105
70	1	0	2158	6	183	105
71	1	0	2138	4	184	105
72	1	0	2110	4	184	105
73	1	0	2098	5	184	104
74	1	0	2103	5	184	105
75	1	0	2123	5	184	104
76	1	0	2151	5	184	104
77	1	0	2177	5	184	104
78	1	0	2194	5	184	104
79	1	0	2213	5	185	105
80	1	0	2235	5	184	105
81	1	0	2254	5	184	105
82	1	0	2272	5	185	105
83	1	0	2275	5	184	105
84	1	0	2248	4	184	105
85	1	0	2230	4	183	105
86	1	0	2226	5	183	105
87	1	0	2223	5	183	105
88	1	0	2199	4	182	105
89	1	0	2149	4	184	105
90	1	0	2064	4	182	105
91	1	0	1969	4	182	105
92	1	0	1897	4	183	105
93	1	0	1846	4	184	105
94	1	0	1863	5	184	105
95	1	0	1921	5	184	104
96	1	0	1974	5	183	104
97	1	0	2025	5	183	105
98	1	0	2079	5	185	104
99	1	0	2131	5	185	105
100	1	0	2185	5	184	105
101	1	0	2214	5	184	105
102	1	0	2199	4	184	105
103	1	0	2175	4	184	105
104	1	0	2164	5	184	105
105	1	0	2146	4	183	105
106	0	0	2130	4	184	104
107	0	0	2098	4	184	104
108	0	0	2059	4	183	105
109	0	0	2012	4	182	105
110	0	0	1969	4	184	105
111	0	0	1943	4	183	105
112	0	0	1937	4	183	105
113	0	0	1942	5	183	105
114	0	0	1949	5	185	106
115	0	0	1943	5	184	105
116	0	0	1935	4	184	105
117	0	0	1960	5	185	105
118	0	0	2010	3	185	105
119	0	0	2058	5	184	105
120	0	0	2101	5	184	105
121	0	0	2138	5	184	105
122	0	0	2153	5	185	105
123	0	0	2148	5	185	105
124	0	0	2133	4	184	105
125	0	0	2106	4	184	105
126	0	0	2081	5	184	105
127	0	0	2066	4	184	105
0	0	0	2038	4	183	105
1	0	0	1988	4	184	105
2	0	0	1925	4	183	105
3	0	0	1884	4	183	105
4	0	0	1868	5	183	105
5	0	0	1884	5	184	105
6	0	0	1930	5	185	105
7	0	0	1975	5	184	104
8	0	0	2003	5	185	105
9	0	0	2026	5	185	105
10	0	0	2026	4	184	105
11	0	0	2047	5	185	105
12	0	0	2095	5	184	105
13	0	0	2132	5	184	104
14	0	0	2129	5	184	105
15	0	0	2115	3	184	105
16	0	0	2108	5	184	104
17	0	0	2103	5	183	105
18	0	0	2085	4	183	105
19	0	0	2042	4	183	105
20	0	0	1982	4	183	105
21	0	0	1938	4	184	105
22	0	0	1914	4	183	105
23	0	0	1913	5	184	105
24	0	0	1910	4	183	104
25	0	0	1906	5	184	105
26	0	0	1920	5	184	105
27	0	0	1932	5	184	105
28	0	0	1954	5	184	104
29	0	0	1989	5	184	105
30	0	0	2025	5	185	104
31	0	0	2070	5	185	105
32	0	0	2130	5	184	105
33	0	0	2158	5	184	105
34	0	0	2167	5	184	105
35	0	0	2171	5	184	105
36	0	0	2160	5	185	105
37	0	0	2141	4	183	105
38	0	0	2116	5	183	105
39	0	0	2072	4	183	105
40	0	0	2025	4	183	105
41	0	0	1995	4	183	105
42	0	0	1994	5	184	105
43	0	0	1995	5	183	104
44	0	0	1977	4	183	104
45	0	0	1956	5	184	105
46	0	0	1937	5	184	105
47	0	0	1930	4	184	105
48	0	0	1931	5	185	105
49	0	0	1951	5	183	106
50	0	0	1988	4	185	105
51	0	0	2023	5	184	105
52	0	0	2072	5	184	105
53	0	0	2115	5	185	105
54	0	0	2127	5	183	105
55	0	0	2113	5	184	105
56	0	0	2084	4	184	105
57	0	0	2067	5	184	105
58	0	0	2077	5	184	105
59	0	0	2102	5	183	105
60	0	0	2116	5	184	104
61	0	0	2078	4	183	105
62	0	0	1995	4	183	105
63	0	0	1929	4	183	105
64	0	0	1894	4	184	105
65	0	0	1873	4	183	105
66	0	0	1880	5	185	105
67	0	0	1918	5	184	105
68	0	0	1972	5	184	105
69	0	0	2019	5	184	104
70	0	0	2059	5	184	105
71	0	0	2100	5	185	105
72	0	0	2133	5	185	105
73	0	0	2139	5	185	105
74	0	0	2136	5	185	105
75	0	0	2147	5	186	105
76	0	0	2163	5	184	105
77	0	0	2160	5	183	105
78	0	0	2119	4	183	105
79	0	0	2065	4	183	105
80	0	0	2029	4	183	105
81	0	0	2022	4	183	105
82	0	0	1995	4	184	104
83	0	0	1963	4	183	105
84	0	0	1933	3	184	105
85	0	0	1915	5	183	105
86	0	0	1899	4	184	104
87	0	0	1894	5	185	106
88	0	0	1919	4	184	105
89	0	0	1981	5	185	105
90	0	0	2042	4	185	105
91	0	0	2091	5	184	105
92	0	0	2142	5	185	105
93	0	0	2169	5	184	105
94	0	0	2187	5	185	104
95	0	0	2209	5	184	105
96	0	0	2205	5	184	105
97	0	0	2167	4	183	105
98	0	0	2106	4	183	105
99	0	0	2037	4	184	105
100	0	0	1970	4	183	105
101	0	0	1936	4	183	105
102	0	0	1915	4	182	105
103	0	0	1885	4	184	105
104	0	0	1848	4	184	104
105	0	0	1844	5	184	106
106	0	0	1883	5	183	105
107	0	0	1945	5	184	105
108	0	0	1995	5	184	105
109	0	0	2039	5	185	104
110	0	0	2072	5	185	105
111	0	0	2092	5	185	106
112	0	0	2103	5	184	104
113	0	0	2095	4	184	105
114	0	0	2081	5	187	105
115	0	0	2087	5	185	105
116	0	0	2093	4	183	105
117	0	0	2087	5	184	105
118	0	0	2067	4	183	105
119	0	0	2039	4	184	105
120	0	0	2013	5	183	104
121	0	0	1983	4	184	105
122	0	0	1962	5	184	104
123	0	0	1972	5	183	105
124	0	0	1991	5	184	104
125	0	0	1974	4	184	104
126	0	0	1949	4	184	106
127	0	0	1944	5	184	105
0	0	0	1954	5	184	105
1	0	0	1965	4	184	104
2	0	0	1956	4	183	105
3	0	0	1956	5	184	107
4	0	0	1985	5	184	105
5	0	0	2019	5	185	104
6	0	0	2049	5	184	106
7	0	0	2075	5	184	105
8	0	0	2075	4	184	105
9	0	0	2041	4	183	105
10	0	0	2035	5	184	105
11	0	0	2050	5	184	104
12	0	0	2051	5	183	105
13	0	0	2023	4	184	105
14	0	0	1957	4	184	105
15	0	0	1883	4	183	105
16	0	0	1834	4	185	105
17	0	0	1839	5	183	105
18	0	0	1900	4	183	105
19	0	0	1976	5	184	105
20	0	0	2016	6	185	105
21	0	0	2025	5	184	105
22	0	0	2011	3	185	105
23	0	0	2009	5	184	105
24	0	0	2029	5	185	105
25	0	0	2041	5	184	104
26	0	0	2044	5	183	104
27	0	0	2029	4	184	105
28	0	0	2005	4	185	105
29	0	0	2001	5	184	106
30	0	0	2007	5	183	105
31	0	0	1999	5	184	103
32	0	0	1977	4	184	106
33	0	0	1955	4	183	105
34	0	0	1916	4	183	105
35	0	0	1886	4	186	105
36	0	0	1883	5	185	104
37	0	0	1884	4	185	105
38	0	0	1876	4	183	105
39	0	0	1863	4	184	105
40	0	0	1867	5	184	105
41	0	0	1898	4	183	104
42	0	0	1945	4	184	105
43	0	0	1971	4	184	105
44	0	0	1970	4	184	105
45	0	0	1961	5	185	104
46	0	0	2008	5	183	105
47	0	0	2056	6	184	105
48	0	0	2065	5	184	105
49	0	0	2054	5	184	105
50	0	0	2046	5	184	105
51	0	0	2033	4	184	104
52	0	0	2000	4	183	105
53	0	0	1962	4	184	105
54	0	0	1923	4	183	104
55	0	0	1893	4	184	105
56	0	0	1868	4	184	103
57	0	0	1831	4	184	106
58	0	0	1811	4	185	105
59	0	0	1827	5	183	106
60	0	0	1863	5	184	105
61	0	0	1911	5	183	104
62	0	0	1965	5	184	104
63	0	0	2008	5	184	105
64	0	0	2042	5	184	105
65	0	0	2073	5	184	105
66	0	0	2088	5	184	104
67	0	0	2081	3	184	105
68	0	0	2044	4	184	105
69	0	0	2011	4	183	105
70	0	0	2006	5	184	105
71	0	0	1994	4	183	105
72	0	0	1957	4	184	105
73	0	0	1895	4	183	105
74	0	0	1831	4	183	104
75	0	0	1788	4	183	105
76	0	0	1749	4	182	105
77	0	0	1720	3	183	105
78	0	0	1750	5	183	105
79	0	0	1809	5	185	104
80	0	0	1861	5	184	105
81	0	0	1923	5	184	105
82	0	0	1971	6	185	105
83	0	0	1988	5	184	105
84	0	0	2023	5	184	104
85	0	0	2082	5	184	105
86	0	0	2120	5	184	105
87	0	0	2119	5	184	105
88	0	0	2085	4	184	105
89	0	0	2048	4	184	104
90	0	0	2019	4	184	104
91	0	0	1984	4	183	105
92	0	0	1965	4	184	105
93	0	0	1940	4	183	104
94	0	0	1883	4	183	104
95	0	0	1836	4	183	105
96	0	0	1809	4	184	105
97	0	0	1819	5	183	106
98	0	0	1852	4	183	105
99	0	0	1884	5	184	105
100	0	0	1911	5	185	105
101	0	0	1940	5	184	104
102	0	0	1965	4	185	105
103	0	0	1979	5	184	105
104	0	0	2001	5	184	105
105	0	0	2024	5	184	105
106	0	0	2043	5	184	105
107	0	0	2049	5	184	105
108	0	0	2018	4	184	105
109	0	0	1988	4	183	104
110	0	0	1968	4	184	105
111	0	0	1954	4	184	104
112	0	0	1948	6	184	105
113	0	0	1939	4	182	105
114	0	0	1908	4	183	104
115	0	0	1877	4	183	105
116	0	0	1860	4	183	105
117	0	0	1838	5	184	105
118	0	0	1831	4	184	105
119	0	0	1851	5	184	105
120	0	0	1894	4	184	105
121	0	0	1928	5	185	105
122	0	0	1935	6	184	105
123	0	0	1955	5	184	105
124	0	0	1997	6	184	104
125	0	0	2020	5	183	105
126	0	0	2039	5	184	105
127	0	0	2044	5	184	105
0	0	0	2038	5	184	105
1	0	0	2030	5	184	104
2	0	0	2015	4	184	105
3	0	0	1974	4	183	105
4	0	0	1938	5	184	105
5	0	0	1910	4	183	105
6	0	0	1866	4	184	104
7	0	0	1825	5	183	105
8	0	0	1788	4	184	105
9	0	0	1773	5	184	105
10	0	0	1799	5	184	105
11	0	0	1840	5	184	104
12	0	0	1879	5	185	104
13	0	0	1921	5	183	105
14	0	0	1967	4	184	105
15	0	0	1987	5	184	105
16	0	0	2007	5	185	104
17	0	0	2028	5	184	105
18	0	0	2033	5	184	104
19	0	0	2035	5	184	105
20	0	0	2033	4	183	105
21	0	0	2006	4	184	105
22	0	0	1977	4	184	105
23	0	0	1964	4	183	105
24	0	0	1938	5	183	105
25	0	0	1890	4	184	105
26	0	0	1831	4	183	104
27	0	0	1798	4	183	105
28	0	0	1784	4	184	105
29	0	0	1782	5	184	105
30	0	0	1799	4	183	105
31	0	0	1828	5	184	104
32	0	0	1851	4	184	105
33	0	0	1874	5	185	104
34	0	0	1873	5	184	104
35	0	0	1883	4	184	105
36	0	0	1924	5	184	104
37	0	0	1982	5	185	105
38	0	0	2022	5	185	104
39	0	0	2008	4	184	104
40	0	0	1966	4	183	105
41	0	0	1942	5	184	104
42	0	0	1956	5	183	105
43	0	0	1973	5	184	105
44	0	0	1957	4	184	104
45	0	0	1923	4	183	105
46	0	0	1881	4	183	105
47	0	0	1840	4	183	105
48	0	0	1809	4	184	105
49	0	0	1771	4	184	105
50	0	0	1747	4	183	105
51	0	0	1767	5	184	104
52	0	0	1810	5	184	105
53	0	0	1868	5	184	105
54	0	0	1915	5	185	105
55	0	0	1942	5	184	105
56	0	0	1981	5	185	104
57	0	0	2036	5	184	105
58	0	0	2090	5	183	105
59	0	0	2124	5	184	105
60	0	0	2127	5	184	105
61	0	0	2103	4	183	104
62	0	0	2061	4	185	105
63	0	0	2020	4	183	105
64	0	0	2005	5	184	105
65	0	0	1999	4	182	105
66	0	0	1975	4	183	105
67	0	0	1943	4	183	105
68	0	0	1889	4	183	105
69	0	0	1855	4	183	105
70	0	0	1879	4	185	105
71	0	0	1932	5	184	105
72	0	0	1985	5	184	105
73	0	0	2031	4	185	105
74	0	0	2064	6	184	105
75	0	0	2070	5	184	105
76	0	0	2053	4	184	104
77	0	0	2012	4	184	105
78	0	0	1986	5	185	105
79	0	0	1989	5	184	105
80	0	0	2013	4	184	105
81	0	0	2039	5	184	103
82	0	0	2053	5	184	105
83	0	0	2023	4	183	105
84	0	0	1977	5	183	104
85	0	0	1939	4	183	105
86	0	0	1885	4	183	104
87	0	0	1834	5	183	105
88	0	0	1784	4	183	105
89	0	0	1746	4	184	105
90	0	0	1762	5	184	105
91	0	0	1829	5	184	103
92	0	0	1912	5	185	104
93	0	0	1960	4	184	105
94	0	0	1981	5	184	105
95	0	0	1982	5	184	105
96	0	0	1997	5	184	105
97	0	0	2027	5	184	105
98	0	0	2048	5	184	104
99	0	0	2059	5	185	105
100	0	0	2054	5	183	105
101	0	0	2046	5	184	103
102	0	0	2030	4	184	105
103	0	0	2029	5	185	105
104	0	0	2044	5	183	105
105	0	0	2065	5	184	104
106	0	0	2070	5	183	103
107	0	0	2073	5	184	105
108	0	0	2090	5	184	105
109	0	0	2110	5	183	105
110	0	0	2146	5	185	105
111	0	0	2186	5	184	104
112	0	0	2231	5	184	105
113	0	0	2282	5	184	105
114	0	0	2337	5	184	105
115	0	0	2390	5	185	105
116	0	0	2430	5	184	105
117	0	0	2446	5	184	104
118	0	0	2446	5	184	105
119	0	0	2445	5	183	105
120	0	0	2447	4	184	105
121	0	0	2461	5	184	104
122	0	0	2469	5	185	105
123	0	0	2454	5	183	105
124	0	0	2396	4	183	106
125	0	0	2337	4	183	105
126	0	0	2273	4	184	104
127	0	0	2196	4	183	105
0	0	0	2136	4	183	105
1	0	0	2095	4	184	105
2	0	0	2059	4	184	105
3	0	0	2007	4	184	104
4	0	0	1948	4	184	105
5	0	0	1900	4	184	105
6	0	0	1863	4	185	105
7	0	0	1863	6	185	105
8	0	0	1896	5	184	104
9	0	0	1919	5	184	105
10	0	0	1913	4	184	105
11	0	0	1900	5	184	105
12	0	0	1908	5	184	105
13	0	0	1923	5	183	104
14	0	0	1943	5	184	105
15	0	0	1925	4	184	105
16	0	0	1878	4	183	105
17	0	0	1835	4	184	104
18	0	0	1804	4	184	104
19	0	0	1775	4	184	105
20	0	0	1745	4	184	105
21	0	0	1724	4	184	105
22	0	0	1738	6	183	105
23	0	0	1780	5	184	104
24	0	0	1830	5	184	105
25	0	0	1889	5	183	104
26	0	0	1955	5	183	105
27	0	0	1985	4	184	105
28	0	0	1992	5	184	105
29	0	0	1964	5	185	104
30	0	0	1916	4	184	105
31	0	0	1890	4	183	105
32	0	0	1883	5	184	105
33	0	0	1885	5	183	104
34	0	0	1893	5	184	105
35	0	0	1898	5	184	104
36	0	0	1888	5	182	105
37	0	0	1866	3	183	105
38	0	0	1842	4	184	105
39	0	0	1817	4	184	105
40	0	0	1793	5	184	105
41	0	0	1782	5	184	104
42	0	0	1776	5	184	105
43	0	0	1772	5	184	104
44	0	0	1788	4	184	105
45	0	0	1827	5	183	106
46	0	0	1877	5	184	104
47	0	0	1920	5	185	105
48	0	0	1946	5	184	105
49	0	0	1955	5	185	105
50	0	0	1968	5	184	106
51	0	0	1977	6	184	104
52	0	0	1971	4	184	105
53	0	0	1950	4	185	104
54	0	0	1919	4	183	105
55	0	0	1876	4	184	105
56	0	0	1838	3	183	105
57	0	0	1815	4	184	105
58	0	0	1802	4	183	105
59	0	0	1810	5	183	105
60	0	0	1807	5	183	105
61	0	0	1803	5	184	104
62	0	0	1799	4	184	105
63	0	0	1816	5	184	105
64	0	0	1839	5	185	105
65	0	0	1845	5	184	104
66	0	0	1850	4	184	105
67	0	0	1871	5	185	105
68	0	0	1924	5	185	105
69	0	0	1988	5	184	105
70	0	0	2051	5	185	105
71	0	0	2088	5	184	105
72	0	0	2087	5	184	105
73	0	0	2055	4	184	105
74	0	0	1993	4	183	104
75	0	0	1917	4	184	104
76	0	0	1855	6	183	105
77	0	0	1806	4	183	105
78	0	0	1761	4	183	104
79	0	0	1735	4	184	104
80	0	0	1741	5	184	105
81	0	0	1758	5	184	105
82	0	0	1790	5	184	105
83	0	0	1848	5	185	104
84	0	0	1909	5	184	105
85	0	0	1948	5	184	105
86	0	0	1955	5	185	105
87	0	0	1954	5	184	105
88	0	0	1980	5	184	105
89	0	0	2024	5	184	105
90	0	0	2037	5	183	105
91	0	0	2043	5	184	105
92	0	0	2025	5	184	105
93	0	0	1976	4	184	105
94	0	0	1944	4	183	105
95	0	0	1940	5	184	105
96	0	0	1947	6	184	105
97	0	0	1956	4	184	105
98	0	0	1934	4	184	105
99	0	0	1901	4	183	105
100	0	0	1881	4	184	105
101	0	0	1858	4	184	105
102	0	0	1843	4	183	105
103	0	0	1848	5	185	104
104	0	0	1855	5	184	105
105	0	0	1875	5	184	105
106	0	0	1925	5	184	105
107	0	0	1980	5	185	105
108	0	0	2042	5	184	105
109	0	0	2073	4	185	105
110	0	0	2059	4	184	105
111	0	0	2061	5	185	105
112	0	0	2078	5	185	105
113	0	0	2078	4	184	105
114	0	0	2039	4	184	105
115	0	0	1996	4	184	105
116	0	0	1969	4	183	105
117	0	0	1953	5	183	105
118	0	0	1928	4	184	105
119	0	0	1902	3	184	105
120	0	0	1894	5	183	105
121	0	0	1897	5	184	105
122	0	0	1906	5	184	105
123	0	0	1923	5	184	104
124	0	0	1936	4	185	105
125	0	0	1936	3	184	105
126	0	0	1941	5	182	106
127	0	0	1967	5	185	105
0	0	0	2021	5	184	104
1	0	0	2055	5	184	105
2	0	0	2046	4	184	105
3	0	0	2027	4	184	105
4	0	0	2030	5	184	104
5	0	0	2035	5	184	105
6	0	0	2002	3	183	105
7	0	0	1939	4	184	106
8	0	0	1898	4	183	105
9	0	0	1885	5	183	105
10	0	0	1881	5	183	105
11	0	0	1878	4	184	105
12	0	0	1894	5	183	105
13	0	0	1935	5	183	105
14	0	0	1971	6	184	105
15	0	0	1983	5	184	105
16	0	0	2008	4	184	105
17	0	0	2052	5	185	105
18	0	0	2078	5	185	105
19	0	0	2057	4	184	105
20	0	0	2033	4	185	105
21	0	0	2038	5	184	105
22	0	0	2066	5	184	106
23	0	0	2066	5	184	105
24	0	0	2059	5	184	105
25	0	0	2064	5	184	105
26	0	0	2070	4	184	105
27	0	0	2083	5	183	105
28	0	0	2073	4	183	105
29	0	0	2040	4	183	105
30	0	0	1985	4	183	104
31	0	0	1923	4	184	105
32	0	0	1867	4	184	105
33	0	0	1818	4	184	105
34	0	0	1811	5	184	105
35	0	0	1865	5	184	105
36	0	0	1956	5	184	105
37	0	0	2031	5	185	104
38	0	0	2075	4	183	105
39	0	0	2086	5	185	105
40	0	0	2090	5	184	105
41	0	0	2081	5	184	105
42	0	0	2090	5	184	105
43	0	0	2108	5	185	105
44	0	0	2119	5	183	105
45	0	0	2126	5	183	105
46	0	0	2103	4	184	105
47	0	0	2076	4	183	105
48	0	0	2038	4	183	105
49	0	0	2008	4	184	105
50	0	0	1984	4	183	105
51	0	0	1972	4	184	105
52	0	0	1957	4	183	104
53	0	0	1949	4	184	105
54	0	0	1945	4	184	104
55	0	0	1955	5	184	105
56	0	0	1987	4	183	104
57	0	0	2008	5	185	105
58	0	0	2030	5	183	106
59	0	0	2040	4	185	104
60	0	0	2042	4	183	105
61	0	0	2055	5	184	105
62	0	0	2085	5	184	105
63	0	0	2108	5	186	105
64	0	0	2115	4	184	105
65	0	0	2112	5	183	105
66	0	0	2085	4	185	105
67	0	0	2058	4	185	105
68	0	0	2040	4	183	105
69	0	0	2027	3	184	105
70	0	0	2009	4	184	104
71	0	0	1987	4	183	105
72	0	0	1970	4	184	105
73	0	0	1947	4	184	105
74	0	0	1917	4	184	105
75	0	0	1920	5	183	105
76	0	0	1935	5	184	105
77	0	0	1961	5	185	105
78	0	0	1993	5	184	105
79	0	0	2023	3	184	105
80	0	0	2065	4	184	104
81	0	0	2101	5	184	105
82	0	0	2116	5	184	105
83	0	0	2105	4	184	105
84	0	0	2086	4	184	105
85	0	0	2080	5	185	105
86	0	0	2070	5	184	104
87	0	0	2061	4	184	104
88	0	0	2027	5	183	104
89	0	0	1989	4	184	105
90	0	0	1953	4	183	105
91	0	0	1921	4	184	105
92	0	0	1892	4	184	105
93	0	0	1872	4	183	105
94	0	0	1870	3	183	105
95	0	0	1867	4	184	105
96	0	0	1867	5	183	105
97	0	0	1882	5	184	104
98	0	0	1933	5	184	105
99	0	0	1978	5	184	105
100	0	0	1982	5	184	105
101	0	0	1969	4	184	105
102	0	0	1958	5	184	104
103	0	0	1965	5	184	105
104	0	0	1979	4	184	105
105	0	0	2002	4	184	105
106	0	0	1999	5	184	105
107	0	0	1962	4	183	105
108	0	0	1940	4	184	105
109	0	0	1923	3	184	105
110	0	0	1882	4	184	105
111	0	0	1827	4	183	105
112	0	0	1799	4	184	104
113	0	0	1801	5	184	105
114	0	0	1809	4	184	105
115	0	0	1819	5	184	105
116	0	0	1847	4	185	105
117	0	0	1875	5	184	107
118	0	0	1887	5	185	105
119	0	0	1895	4	185	105
120	0	0	1901	5	185	104
121	0	0	1892	4	184	105
122	0	0	1869	4	185	104
123	0	0	1863	5	185	105
124	0	0	1874	4	184	105
125	0	0	1875	5	183	105
126	0	0	1888	5	184	105
127	0	0	1903	5	184	105
0	0	0	1907	5	183	105
1	0	0	1893	4	183	105
2	0	0	1846	4	183	105
3	0	0	1793	4	183	105
4	0	0	1738	4	183	105
5	0	0	1700	4	184	105
6	0	0	1715	4	184	105
7	0	0	1738	5	184	105
8	0	0	1757	5	184	105
9	0	0	1791	5	184	105
10	0	0	1846	4	184	104
11	0	0	1902	4	184	105
12	0	0	1958	4	185	104
13	0	0	2011	5	185	105
14	0	0	2039	5	184	105
15	0	0	2011	4	184	104
16	0	0	1952	3	185	105
17	0	0	1902	4	183	105
18	0	0	1863	4	184	105
19	0	0	1840	4	184	105
20	0	0	1823	4	183	105
21	0	0	1821	4	183	105
22	0	0	1802	4	183	105
23	0	0	1794	4	183	104
24	0	0	1784	4	185	105
25	0	0	1757	4	184	105
26	0	0	1742	3	184	104
27	0	0	1775	5	184	105
28	0	0	1822	5	185	105
29	0	0	1860	5	185	105
30	0	0	1887	4	185	105
31	0	0	1907	4	184	105
32	0	0	1929	5	184	105
33	0	0	1950	4	185	105
34	0	0	1951	5	184	105
35	0	0	1953	5	184	104
36	0	0	1956	4	184	105
37	0	0	1947	5	184	105
38	0	0	1923	4	184	105
39	0	0	1879	4	184	105
40	0	0	1840	4	184	105
41	0	0	1815	4	184	105
42	0	0	1796	4	184	105
43	0	0	1780	4	184	105
44	0	0	1739	4	184	105
45	0	0	1684	4	183	105
46	0	0	1636	3	182	105
47	0	0	1628	5	184	105
48	0	0	1681	5	184	105
49	0	0	1751	5	186	105
50	0	0	1819	5	185	105
51	0	0	1895	3	184	105
52	0	0	1986	5	184	105
53	0	0	2038	5	184	105
54	0	0	2037	5	185	104
55	0	0	2026	4	184	105
56	0	0	2004	3	184	105
57	0	0	1972	4	184	105
58	0	0	1931	4	184	105
59	0	0	1897	4	183	105
60	0	0	1876	4	184	104
61	0	0	1858	3	184	105
62	0	0	1826	4	183	105
63	0	0	1803	4	183	105
64	0	0	1797	4	183	105
65	0	0	1790	4	184	105
66	0	0	1781	3	184	105
67	0	0	1789	5	183	105
68	0	0	1801	5	183	105
69	0	0	1826	5	184	104
70	0	0	1871	5	185	105
71	0	0	1911	3	184	105
72	0	0	1926	5	185	105
73	0	0	1930	5	184	105
74	0	0	1943	5	184	104
75	0	0	1961	5	185	105
76	0	0	1969	3	184	105
77	0	0	1956	4	184	105
78	0	0	1900	5	184	105
79	0	0	1853	4	183	105
80	0	0	1860	5	183	105
81	0	0	1880	4	184	105
82	0	0	1863	4	183	105
83	0	0	1837	4	184	105
84	0	0	1805	4	185	105
85	0	0	1780	4	184	105
86	0	0	1804	5	183	105
87	0	0	1858	5	185	105
88	0	0	1915	5	184	105
89	0	0	1961	5	184	104
90	0	0	1981	5	185	105
91	0	0	1967	4	185	105
92	0	0	1959	4	184	105
93	0	0	1945	4	184	105
94	0	0	1926	5	184	105
95	0	0	1928	4	185	105
96	0	0	1941	5	184	105
97	0	0	1948	5	184	104
98	0	0	1954	5	184	105
99	0	0	1956	5	183	104
100	0	0	1935	4	183	105
101	0	0	1900	4	183	105
102	0	0	1860	4	183	105
103	0	0	1820	4	184	105
104	0	0	1802	4	184	104
105	0	0	1792	4	185	105
106	0	0	1783	4	184	105
107	0	0	1781	5	184	105
108	0	0	1790	5	183	105
109	0	0	1822	5	185	104
110	0	0	1859	5	185	105
111	0	0	1890	5	184	105
112	0	0	1929	5	185	105
113	0	0	1978	5	184	105
114	0	0	1993	5	184	104
115	0	0	1996	5	183	105
116	0	0	2002	4	184	105
117	0	0	1986	4	184	105
118	0	0	1959	4	184	105
119	0	0	1925	4	184	105
120	0	0	1897	4	184	105
121	0	0	1896	5	182	105
122	0	0	1875	4	184	105
123	0	0	1855	5	184	105
124	0	0	1838	4	184	105
125	0	0	1811	4	184	105
126	0	0	1797	4	185	105
127	0	0	1824	4	184	105
0	0	0	1865	4	185	104
1	0	0	1899	5	184	105
2	0	0	1920	5	186	105
3	0	0	1923	4	184	105
4	0	0	1946	5	184	105
5	0	0	1993	5	184	105
6	0	0	2014	5	185	105
7	0	0	2014	5	185	104
8	0	0	2008	4	185	105
9	0	0	1983	4	184	105
10	0	0	1951	3	184	105
11	0	0	1926	5	183	104
12	0	0	1904	4	182	105
13	0	0	1886	4	183	104
14	0	0	1857	4	183	105
15	0	0	1821	4	183	105
16	0	0	1802	5	184	105
17	0	0	1810	5	183	104
18	0	0	1857	5	185	104
19	0	0	1924	5	184	105
20	0	0	1967	6	184	105
21	0	0	1974	4	184	105
22	0	0	1956	4	186	105
23	0	0	1943	3	185	105
24	0	0	1971	4	184	105
25	0	0	2030	5	185	105
26	0	0	2082	4	185	105
27	0	0	2102	5	184	104
28	0	0	2084	4	185	105
29	0	0	2051	4	184	105
30	0	0	1997	4	184	105
31	0	0	1950	4	184	105
32	0	0	1912	4	181	105
33	0	0	1893	4	184	104
34	0	0	1878	4	184	105
35	0	0	1854	4	183	104
36	0	0	1837	4	183	105
37	0	0	1823	4	184	104
38	0	0	1839	5	184	105
39	0	0	1867	5	184	105
40	0	0	1892	5	184	104
41	0	0	1900	5	184	104
42	0	0	1902	4	184	105
43	0	0	1896	5	184	105
44	0	0	1911	5	184	105
45	0	0	1949	6	185	105
46	0	0	1967	5	186	104
47	0	0	1982	4	184	105
48	0	0	1988	5	184	105
49	0	0	2002	4	183	105
50	0	0	2020	4	184	105
51	0	0	2028	5	184	105
52	0	0	2014	4	183	105
53	0	0	1976	4	183	105
54	0	0	1918	4	184	105
55	0	0	1839	4	183	105
56	0	0	1795	4	184	105
57	0	0	1780	5	183	105
58	0	0	1794	5	185	105
59	0	0	1832	5	185	105
60	0	0	1881	4	184	105
61	0	0	1912	5	185	106
62	0	0	1955	5	184	104
63	0	0	2024	5	183	105
64	0	0	2070	5	185	104
65	0	0	2063	4	184	105
66	0	0	2033	4	184	106
67	0	0	2007	4	184	105
68	0	0	2008	5	184	105
69	0	0	2028	5	184	105
70	0	0	2046	5	184	105
71	0	0	2041	4	184	105
72	0	0	1988	4	184	104
73	0	0	1927	4	183	105
74	0	0	1873	4	183	105
75	0	0	1848	4	184	105
76	0	0	1847	5	184	104
77	0	0	1848	5	184	104
78	0	0	1855	5	184	105
79	0	0	1876	5	184	105
80	0	0	1909	5	184	105
81	0	0	1964	5	183	105
82	0	0	2024	5	184	104
83	0	0	2058	5	184	105
84	0	0	2055	4	185	105
85	0	0	2042	5	183	104
86	0	0	2048	5	184	106
87	0	0	2057	5	184	104
88	0	0	2056	5	184	105
89	0	0	2058	5	184	105
90	0	0	2063	4	185	105
91	0	0	2050	4	184	105
92	0	0	2014	4	184	104
93	0	0	1968	4	184	105
94	0	0	1916	4	184	105
95	0	0	1903	4	183	105
96	0	0	1926	6	183	105
97	0	0	1939	5	184	104
98	0	0	1928	5	184	105
99	0	0	1934	5	184	105
100	0	0	1963	5	184	105
101	0	0	1992	5	184	106
102	0	0	2008	5	183	105
103	0	0	1998	4	184	105
104	0	0	1985	5	184	105
105	0	0	1994	5	184	105
106	0	0	2008	5	184	105
107	0	0	2019	5	184	104
108	0	0	2022	5	185	105
109	0	0	2029	5	184	105
110	0	0	2032	5	184	105
111	0	0	2010	4	184	104
112	0	0	1979	4	184	104
113	0	0	1969	4	183	105
114	0	0	1948	4	183	105
115	0	0	1928	4	183	105
116	0	0	1893	5	184	104
117	0	0	1861	4	184	105
118	0	0	1851	4	184	105
119	0	0	1858	5	184	105
120	0	0	1871	5	184	105
121	0	0	1886	5	183	107
122	0	0	1921	5	184	105
123	0	0	1983	5	184	105
124	0	0	2032	5	185	105
125	0	0	2053	4	184	105
126	0	0	2074	5	184	105
127	0	0	2089	5	185	105
0	0	0	2057	4	183	105
1	0	0	2036	6	184	105
2	0	0	2035	5	184	105
3	0	0	2026	3	184	105
4	0	0	1997	4	184	105
5	0	0	1973	5	184	105
6	0	0	1958	4	183	105
7	0	0	1929	4	183	105
8	0	0	1909	4	185	105
9	0	0	1913	5	183	105
10	0	0	1933	5	184	105
11	0	0	1970	5	184	105
12	0	0	2005	5	184	105
13	0	0	2039	5	185	105
14	0	0	2043	5	184	105
15	0	0	2015	4	184	105
16	0	0	1986	4	185	105
17	0	0	1969	4	185	105
18	0	0	1970	6	184	104
19	0	0	1995	5	185	105
20	0	0	2040	5	183	105
21	0	0	2069	4	183	105
22	0	0	2057	4	184	104
23	0	0	2013	4	184	105
24	0	0	1984	4	183	105
25	0	0	1971	4	183	105
26	0	0	1935	4	183	104
27	0	0	1890	4	184	105
28	0	0	1884	4	184	105
29	0	0	1890	4	183	105
30	0	0	1899	5	184	105
31	0	0	1925	5	183	105
32	0	0	1966	5	184	105
33	0	0	2024	5	184	105
34	0	0	2076	4	185	104
35	0	0	2097	5	183	105
36	0	0	2104	5	185	105
37	0	0	2098	4	184	105
38	0	0	2101	5	185	105
39	0	0	2125	5	183	103
40	0	0	2145	5	184	105
41	0	0	2124	4	184	104
42	0	0	2079	4	184	105
43	0	0	2040	4	184	105
44	0	0	2001	4	184	105
45	0	0	1977	4	184	105
46	0	0	1957	4	183	104
47	0	0	1931	5	182	104
48	0	0	1910	4	183	105
49	0	0	1892	4	183	104
50	0	0	1888	5	184	105
51	0	0	1906	5	184	105
52	0	0	1927	4	184	105
53	0	0	1954	4	184	105
54	0	0	1987	5	184	104
55	0	0	1999	5	185	105
56	0	0	1989	4	184	105
57	0	0	1997	5	184	105
58	0	0	2023	4	184	105
59	0	0	2038	5	183	105
60	0	0	2056	5	185	106
61	0	0	2069	5	183	105
62	0	0	2075	4	183	105
63	0	0	2068	4	185	105
64	0	0	2049	4	184	105
65	0	0	2036	4	184	104
66	0	0	2008	4	183	105
67	0	0	1978	4	184	105
68	0	0	1949	4	183	105
69	0	0	1917	4	184	105
70	0	0	1910	4	182	105
71	0	0	1941	5	184	104
72	0	0	1980	5	184	105
73	0	0	1991	5	184	105
74	0	0	1972	4	185	105
75	0	0	1952	4	184	104
76	0	0	1986	5	184	105
77	0	0	2054	5	184	105
78	0	0	2096	5	184	105
79	0	0	2087	4	185	105
80	0	0	2051	4	183	105
81	0	0	2035	5	184	105
82	0	0	2039	5	184	105
83	0	0	2040	5	183	104
84	0	0	2030	4	184	104
85	0	0	2005	4	183	105
86	0	0	1981	4	185	105
87	0	0	1961	4	183	105
88	0	0	1932	4	184	104
89	0	0	1891	4	182	104
90	0	0	1873	4	184	105
91	0	0	1880	5	184	105
92	0	0	1879	5	184	105
93	0	0	1891	5	184	105
94	0	0	1938	5	184	104
95	0	0	2010	5	183	105
96	0	0	2045	5	184	105
97	0	0	2056	5	184	104
98	0	0	2065	4	185	105
99	0	0	2077	4	184	104
100	0	0	2091	5	184	105
101	0	0	2097	5	184	105
102	0	0	2066	4	184	105
103	0	0	2016	4	184	105
104	0	0	1986	4	185	105
105	0	0	1993	5	184	105
106	0	0	1998	4	183	104
107	0	0	1974	4	183	105
108	0	0	1955	4	184	105
109	0	0	1938	4	185	105
110	0	0	1948	5	183	105
111	0	0	1986	5	184	105
112	0	0	2035	5	184	105
113	0	0	2067	5	185	105
114	0	0	2078	5	185	105
115	0	0	2082	5	185	105
116	0	0	2091	5	185	105
117	0	0	2089	4	185	105
118	0	0	2090	5	185	105
119	0	0	2087	5	184	105
120	0	0	2076	5	183	105
121	0	0	2054	4	183	105
122	0	0	2027	5	185	105
123	0	0	2010	4	183	105
124	0	0	1988	4	184	104
125	0	0	1964	4	184	105
126	0	0	1934	5	184	104
127	0	0	1924	4	184	105
0	0	0	1944	5	184	105
1	0	0	1946	4	185	105
2	0	0	1931	5	183	105
3	0	0	1924	4	184	105
4	0	0	1927	4	183	105
5	0	0	1949	5	185	103
6	0	0	1974	4	184	104
7	0	0	2009	5	185	105
8	0	0	2029	5	184	105
9	0	0	2038	5	184	105
10	0	0	2056	5	184	105
11	0	0	2077	5	183	105
12	0	0	2078	5	184	105
13	0	0	2066	4	184	105
14	0	0	2061	5	183	105
15	0	0	2061	5	183	105
16	0	0	2063	4	183	105
17	0	0	2082	5	183	104
18	0	0	2102	5	183	105
19	0	0	2089	4	184	105
20	0	0	2044	4	184	105
21	0	0	2004	4	184	105
22	0	0	1984	5	184	105
23	0	0	1982	5	184	105
24	0	0	1962	4	183	105
25	0	0	1963	4	185	104
26	0	0	2001	5	184	105
27	0	0	2048	5	183	104
28	0	0	2081	5	185	105
29	0	0	2098	5	184	105
30	0	0	2110	5	182	105
31	0	0	2133	5	185	105
32	0	0	2151	5	185	105
33	0	0	2133	4	184	105
34	0	0	2115	4	184	105
35	0	0	2089	4	185	105
36	0	0	2025	4	183	105
37	0	0	1972	4	185	105
38	0	0	1941	4	182	105
39	0	0	1928	4	182	105
40	0	0	1953	4	185	104
41	0	0	1997	5	184	105
42	0	0	2022	5	184	105
43	0	0	2040	5	184	105
44	0	0	2061	5	184	105
45	0	0	2075	5	183	105
46	0	0	2083	5	185	105
47	0	0	2087	5	184	105
48	0	0	2098	5	185	105
49	0	0	2110	4	184	105
50	0	0	2091	4	184	105
51	0	0	2067	4	184	105
52	0	0	2053	5	184	104
53	0	0	2078	5	184	105
54	0	0	2125	4	182	105
55	0	0	2135	4	185	105
56	0	0	2095	4	184	105
57	0	0	2051	4	184	105
58	0	0	1998	4	184	105
59	0	0	1958	4	184	105
60	0	0	1954	5	183	104
61	0	0	1947	4	184	105
62	0	0	1925	4	184	105
63	0	0	1921	5	184	105
64	0	0	1936	4	183	104
65	0	0	1935	5	185	107
66	0	0	1943	5	184	105
67	0	0	1967	5	184	105
68	0	0	2006	5	184	105
69	0	0	2040	5	184	105
70	0	0	2054	5	186	105
71	0	0	2050	5	185	105
72	0	0	2048	5	183	105
73	0	0	2041	5	184	105
74	0	0	2030	4	183	105
75	0	0	2029	5	183	105
76	0	0	2030	5	185	105
77	0	0	2013	4	186	105
78	0	0	1974	4	183	105
79	0	0	1938	4	184	105
80	0	0	1951	5	185	105
81	0	0	1965	4	184	105
82	0	0	1980	5	184	105
83	0	0	2012	5	184	105
84	0	0	2037	4	183	105
85	0	0	2023	4	184	105
86	0	0	1995	4	185	104
87	0	0	1985	5	184	105
88	0	0	2006	5	184	105
89	0	0	2059	4	184	105
90	0	0	2103	5	184	105
91	0	0	2094	4	185	105
92	0	0	2065	4	184	105
93	0	0	2024	4	184	105
94	0	0	2016	5	183	104
95	0	0	2024	5	183	105
96	0	0	2030	5	184	105
97	0	0	2029	5	183	104
98	0	0	2002	4	183	105
99	0	0	1974	4	183	104
100	0	0	1961	4	185	105
101	0	0	1957	5	184	105
102	0	0	1964	5	184	104
103	0	0	1966	5	184	105
104	0	0	1962	4	184	105
105	0	0	1971	5	185	105
106	0	0	1980	5	185	105
107	0	0	1978	5	183	104
108	0	0	1984	5	184	104
109	0	0	2020	5	184	105
110	0	0	2071	5	184	105
111	0	0	2114	5	185	105
112	0	0	2117	4	184	104
113	0	0	2082	4	184	105
114	0	0	2033	4	184	105
115	0	0	2015	4	184	105
116	0	0	2013	5	184	105
117	0	0	2019	5	183	104
118	0	0	2005	4	184	105
119	0	0	1967	4	184	104
120	0	0	1916	4	183	105
121	0	0	1864	4	183	105
122	0	0	1834	4	183	105
123	0	0	1828	4	184	105
124	0	0	1850	5	184	105
125	0	0	1890	5	185	105
126	0	0	1927	5	183	104
127	0	0	1954	5	183	104
0	0	0	1970	5	185	105
1	0	0	1983	4	184	105
2	0	0	1997	4	185	104
3	0	0	2008	5	184	105
4	0	0	1994	4	183	104
5	0	0	1975	4	184	105
6	0	0	1978	5	184	105
7	0	0	2006	5	184	105
8	0	0	2021	5	183	105
9	0	0	2026	5	184	105
10	0	0	2024	5	183	105
11	0	0	2019	4	184	104
12	0	0	2029	5	184	105
13	0	0	2049	4	184	106
14	0	0	2096	5	182	105
15	0	0	2172	4	185	104
16	0	0	2228	5	184	105
17	0	0	2273	5	183	105
18	0	0	2326	5	185	105
19	0	0	2374	5	184	105
20	0	0	2411	5	184	105
21	0	0	2450	4	184	105
22	0	0	2484	5	184	105
23	0	0	2500	5	184	105
24	0	0	2511	5	185	104
25	0	0	2508	5	184	105
26	0	0	2498	5	184	105
27	0	0	2504	5	183	105
28	0	0	2504	5	184	105
29	0	0	2504	5	182	105
30	0	0	2485	4	183	105
31	0	0	2443	4	183	105
32	0	0	2370	4	184	105
33	0	0	2263	4	184	106
34	0	0	2165	4	183	104
35	0	0	2111	4	184	105
36	0	0	2102	5	184	105
37	0	0	2094	4	184	105
38	0	0	2053	4	184	105
39	0	0	1992	4	183	104
40	0	0	1952	4	184	105
41	0	0	1953	5	184	105
42	0	0	1976	5	183	105
43	0	0	1986	5	184	104
44	0	0	1950	4	184	105
45	0	0	1925	4	184	105
46	0	0	1913	4	183	105
47	0	0	1899	4	185	105
48	0	0	1899	4	184	104
49	0	0	1909	4	182	105
50	0	0	1902	4	183	105
51	0	0	1873	4	183	105
52	0	0	1870	5	184	105
53	0	0	1890	5	184	104
54	0	0	1893	5	183	105
55	0	0	1896	5	184	105
56	0	0	1927	5	184	105
57	0	0	1971	5	184	105
58	0	0	1994	5	184	106
59	0	0	1984	5	184	104
60	0	0	2010	5	184	105
61	0	0	2081	5	184	104
62	0	0	2132	5	185	106
63	0	0	2127	4	184	105
64	0	0	2079	4	184	105
65	0	0	2014	4	183	105
66	0	0	1969	4	183	105
67	0	0	1941	4	184	105
68	0	0	1921	5	184	106
69	0	0	1907	4	183	104
70	0	0	1874	4	183	105
71	0	0	1832	4	184	104
72	0	0	1821	4	184	106
73	0	0	1837	5	184	106
74	0	0	1852	5	183	104
75	0	0	1873	5	184	105
76	0	0	1904	4	185	105
77	0	0	1924	5	184	105
78	0	0	1935	5	184	104
79	0	0	1961	5	183	105
80	0	0	1978	5	184	105
81	0	0	1995	5	184	105
82	0	0	2018	5	184	105
83	0	0	2039	5	184	104
84	0	0	2028	4	183	105
85	0	0	1997	4	184	104
86	0	0	1967	4	184	105
87	0	0	1957	5	184	105
88	0	0	1989	5	183	105
89	0	0	2013	5	183	104
90	0	0	1987	4	184	105
91	0	0	1944	4	184	104
92	0	0	1905	4	184	104
93	0	0	1864	4	183	106
94	0	0	1837	4	184	105
95	0	0	1840	5	184	105
96	0	0	1869	5	183	105
97	0	0	1912	5	185	105
98	0	0	1964	5	185	104
99	0	0	2003	5	184	104
100	0	0	2022	5	184	105
101	0	0	2038	5	184	105
102	0	0	2050	4	185	104
103	0	0	2056	5	184	105
104	0	0	2055	5	183	104
105	0	0	2025	4	184	104
106	0	0	1994	4	183	105
107	0	0	1956	4	183	104
108	0	0	1911	4	183	104
109	0	0	1894	5	182	105
110	0	0	1913	5	183	105
111	0	0	1932	5	184	105
112	0	0	1942	5	183	105
113	0	0	1938	4	184	105
114	0	0	1924	4	184	104
115	0	0	1924	4	184	105
116	0	0	1922	5	184	105
117	0	0	1942	5	185	104
118	0	0	1975	5	185	105
119	0	0	2007	5	182	104
120	0	0	2082	5	185	105
121	0	0	2162	5	184	105
122	0	0	2212	4	185	104
123	0	0	2254	5	184	105
124	0	0	2283	5	184	105
125	0	0	2263	4	185	104
126	0	0	2217	4	184	105
127	0	0	2172	4	184	105
0	0	0	2124	4	183	105
1	0	0	2120	4	182	105
2	0	0	2135	5	183	105
3	0	0	2134	4	182	105
4	0	0	2108	4	184	105
5	0	0	2071	4	184	105
6	0	0	2067	5	184	105
7	0	0	2086	5	184	105
8	0	0	2143	3	185	105
9	0	0	2204	4	184	104
10	0	0	2229	5	185	105
11	0	0	2238	5	184	105
12	0	0	2255	5	184	105
13	0	0	2276	5	186	105
14	0	0	2297	5	185	104
15	0	0	2312	5	184	105
16	0	0	2309	4	185	105
17	0	0	2289	4	183	105
18	0	0	2260	4	184	105
19	0	0	2215	4	184	105
20	0	0	2168	4	183	105
21	0	0	2150	4	183	104
22	0	0	2151	5	183	105
23	0	0	2154	5	183	105
24	0	0	2160	5	184	105
25	0	0	2135	4	183	105
26	0	0	2088	4	182	105
27	0	0	2074	4	183	105
28	0	0	2127	5	184	105
29	0	0	2211	4	184	105
30	0	0	2269	5	185	105
31	0	0	2293	5	184	105
32	0	0	2309	5	185	105
33	0	0	2330	5	185	105
34	0	0	2349	4	184	105
35	0	0	2363	4	184	105
36	0	0	2366	5	183	105
37	0	0	2351	5	184	105
38	0	0	2324	4	183	105
39	0	0	2289	4	184	104
40	0	0	2261	4	183	106
41	0	0	2259	5	182	105
42	0	0	2249	4	183	105
43	0	0	2224	4	184	105
44	0	0	2202	4	184	105
45	0	0	2175	4	183	105
46	0	0	2159	4	183	105
47	0	0	2164	5	183	104
48	0	0	2176	5	184	105
49	0	0	2203	5	184	105
50	0	0	2241	5	184	105
51	0	0	2284	5	184	105
52	0	0	2326	5	184	105
53	0	0	2364	5	184	104
54	0	0	2400	5	185	105
55	0	0	2445	5	185	105
56	0	0	2467	5	183	105
57	0	0	2449	4	184	105
58	0	0	2403	4	184	105
59	0	0	2361	3	184	105
60	0	0	2310	4	183	105
61	0	0	2273	4	183	105
62	0	0	2260	4	182	105
63	0	0	2252	5	183	105
64	0	0	2242	5	183	105
65	0	0	2216	4	185	105
66	0	0	2193	4	184	105
67	0	0	2204	5	184	105
68	0	0	2247	4	184	105
69	0	0	2297	3	184	105
70	0	0	2342	5	185	105
71	0	0	2355	5	184	105
72	0	0	2351	5	184	104
73	0	0	2352	5	184	105
74	0	0	2371	5	184	105
75	0	0	2387	5	184	105
76	0	0	2401	5	184	105
77	0	0	2415	5	185	105
78	0	0	2412	5	183	105
79	0	0	2403	5	183	105
80	0	0	2373	4	184	105
81	0	0	2342	4	183	105
82	0	0	2308	4	183	105
83	0	0	2272	4	183	104
84	0	0	2238	4	183	105
85	0	0	2222	4	184	105
86	0	0	2198	4	185	105
87	0	0	2196	5	184	105
88	0	0	2231	5	184	106
89	0	0	2290	4	185	105
90	0	0	2356	5	184	105
91	0	0	2411	5	185	105
92	0	0	2442	5	184	105
93	0	0	2456	5	184	104
94	0	0	2453	5	186	105
95	0	0	2445	5	185	105
96	0	0	2431	5	183	105
97	0	0	2422	5	184	105
98	0	0	2400	4	184	105
99	0	0	2380	4	183	105
100	0	0	2360	4	183	104
101	0	0	2334	4	183	106
102	0	0	2301	4	183	104
103	0	0	2269	4	185	105
104	0	0	2251	5	183	105
105	0	0	2247	5	184	105
106	0	0	2244	5	184	105
107	0	0	2247	5	184	105
108	0	0	2253	5	184	104
109	0	0	2276	5	184	105
110	0	0	2313	5	184	105
111	0	0	2342	5	184	105
112	0	0	2343	5	184	105
113	0	0	2353	5	185	105
114	0	0	2380	5	185	105
115	0	0	2417	5	184	105
116	0	0	2444	5	185	105
117	0	0	2462	5	183	105
118	0	0	2442	4	184	105
119	0	0	2404	4	183	105
120	0	0	2359	4	184	105
121	0	0	2305	4	183	105
122	0	0	2233	4	183	105
123	0	0	2171	4	183	105
124	0	0	2158	5	183	105
125	0	0	2156	4	184	106
126	0	0	2148	5	183	106
127	0	0	2174	5	184	105
0	0	0	2220	5	184	105
1	0	0	2265	5	185	105
2	0	0	2297	5	184	105
3	0	0	2309	5	184	104
4	0	0	2321	5	185	105
5	0	0	2331	4	185	105
6	0	0	2334	5	185	105
7	0	0	2324	4	184	105
8	0	0	2282	4	184	104
9	0	0	2239	4	184	105
10	0	0	2193	4	184	105
11	0	0	2157	4	184	105
12	0	0	2146	4	184	105
13	0	0	2140	5	183	105
14	0	0	2137	5	183	105
15	0	0	2133	5	183	104
16	0	0	2105	4	183	105
17	0	0	2058	4	185	105
18	0	0	2024	4	185	105
19	0	0	2018	5	184	105
20	0	0	2018	4	184	104
21	0	0	2028	5	185	105
22	0	0	2056	4	184	105
23	0	0	2085	5	184	105
24	0	0	2117	5	185	105
25	0	0	2160	5	185	105
26	0	0	2191	5	185	105
27	0	0	2212	5	185	106
28	0	0	2213	5	184	104
29	0	0	2196	5	184	105
30	0	0	2180	4	183	104
31	0	0	2144	3	184	105
32	0	0	2095	4	183	106
33	0	0	2063	4	183	105
34	0	0	2028	4	184	105
35	0	0	1990	4	182	106
36	0	0	1956	5	184	105
37	0	0	1949	5	183	105
38	0	0	1972	5	184	105
39	0	0	2010	5	184	105
40	0	0	2050	5	184	104
41	0	0	2075	5	184	105
42	0	0	2082	4	184	106
43	0	0	2096	5	184	104
44	0	0	2130	5	185	105
45	0	0	2167	5	184	104
46	0	0	2182	5	185	105
47	0	0	2199	5	185	105
48	0	0	2201	5	185	105
49	0	0	2171	4	184	105
50	0	0	2143	4	184	104
51	0	0	2133	5	184	105
52	0	0	2136	5	184	105
53	0	0	2127	4	184	104
54	0	0	2086	3	183	105
55	0	0	2038	4	184	104
56	0	0	2004	3	184	105
57	0	0	1966	4	183	105
58	0	0	1918	4	184	105
59	0	0	1870	4	184	105
60	0	0	1860	5	184	104
61	0	0	1896	5	184	105
62	0	0	1974	4	185	105
63	0	0	2045	5	184	104
64	0	0	2096	5	185	105
65	0	0	2146	5	185	104
66	0	0	2164	4	185	105
67	0	0	2150	4	184	105
68	0	0	2129	5	185	105
69	0	0	2103	4	183	105
70	0	0	2082	4	185	104
71	0	0	2076	4	183	105
72	0	0	2053	4	184	105
73	0	0	2022	4	183	105
74	0	0	1991	4	183	105
75	0	0	1953	5	183	105
76	0	0	1934	4	184	104
77	0	0	1937	5	183	105
78	0	0	1956	5	184	105
79	0	0	1967	5	183	105
80	0	0	1977	5	184	105
81	0	0	2008	5	184	105
82	0	0	2046	5	185	105
83	0	0	2093	4	184	105
84	0	0	2129	5	185	105
85	0	0	2141	5	182	104
86	0	0	2131	4	185	105
87	0	0	2114	4	184	105
88	0	0	2110	5	185	105
89	0	0	2111	5	184	105
90	0	0	2100	4	183	104
91	0	0	2076	5	183	105
92	0	0	2058	4	183	105
93	0	0	2059	4	183	106
94	0	0	2040	4	183	105
95	0	0	1990	4	183	104
96	0	0	1939	4	184	105
97	0	0	1905	4	184	105
98	0	0	1882	4	184	105
99	0	0	1881	5	185	105
100	0	0	1908	5	184	104
101	0	0	1969	3	184	105
102	0	0	2016	5	185	105
103	0	0	2038	5	184	105
104	0	0	2059	5	184	105
105	0	0	2093	5	184	104
106	0	0	2124	6	184	105
107	0	0	2134	4	185	105
108	0	0	2144	5	183	104
109	0	0	2141	4	184	104
110	0	0	2118	4	184	105
111	0	0	2101	4	184	105
112	0	0	2080	4	183	105
113	0	0	2079	5	183	105
114	0	0	2072	4	183	105
115	0	0	2023	4	184	105
116	0	0	1969	3	183	105
117	0	0	1901	4	183	105
118	0	0	1847	4	184	106
119	0	0	1834	5	183	105
120	0	0	1870	5	184	105
121	0	0	1933	4	185	105
122	0	0	2010	5	185	105
123	0	0	2097	5	185	104
124	0	0	2161	5	185	105
125	0	0	2203	5	184	104
126	0	0	2208	5	184	105
127	0	0	2171	4	185	105
0	0	0	2127	4	184	105
1	0	0	2097	4	184	105
2	0	0	2081	5	184	105
3	0	0	2085	5	184	105
4	0	0	2078	4	184	105
5	0	0	2054	4	183	104
6	0	0	2008	4	184	105
7	0	0	1969	4	183	104
8	0	0	1942	4	183	105
9	0	0	1923	4	183	105
10	0	0	1925	5	184	105
11	0	0	1954	5	183	105
12	0	0	1998	5	185	105
13	0	0	2026	6	184	105
14	0	0	2039	5	185	104
15	0	0	2044	5	184	104
16	0	0	2053	5	184	105
17	0	0	2075	5	184	105
18	0	0	2079	4	184	104
19	0	0	2065	5	185	105
20	0	0	2066	5	184	104
21	0	0	2071	5	184	104
22	0	0	2076	5	184	105
23	0	0	2072	3	184	105
24	0	0	2036	3	183	105
25	0	0	2005	4	183	104
26	0	0	1976	4	184	105
27	0	0	1953	4	183	104
28	0	0	1933	4	184	105
29	0	0	1903	5	184	105
30	0	0	1895	5	183	105
31	0	0	1924	5	183	105
32	0	0	1971	5	185	105
33	0	0	2010	6	184	105
34	0	0	2039	4	184	105
35	0	0	2065	6	184	105
36	0	0	2086	5	184	105
37	0	0	2098	5	184	105
38	0	0	2106	5	184	105
39	0	0	2105	4	185	105
40	0	0	2091	4	184	104
41	0	0	2080	4	184	105
42	0	0	2079	5	184	104
43	0	0	2094	5	184	105
44	0	0	2079	4	182	105
45	0	0	2046	4	183	104
46	0	0	2008	4	184	105
47	0	0	1968	4	184	105
48	0	0	1928	5	183	105
49	0	0	1895	4	184	105
50	0	0	1876	4	184	104
51	0	0	1887	5	184	105
52	0	0	1915	4	184	105
53	0	0	1940	5	185	104
54	0	0	1965	5	185	105
55	0	0	1998	5	184	104
56	0	0	2027	5	185	105
57	0	0	2053	5	185	105
58	0	0	2065	5	185	105
59	0	0	2056	4	184	105
60	0	0	2031	4	184	104
61	0	0	2027	4	185	105
62	0	0	2035	5	184	105
63	0	0	2038	5	184	105
64	0	0	2005	4	184	105
65	0	0	1999	5	183	104
66	0	0	2010	5	183	105
67	0	0	1971	4	182	105
68	0	0	1920	3	182	104
69	0	0	1889	4	184	105
70	0	0	1865	4	183	104
71	0	0	1851	5	185	105
72	0	0	1881	4	184	105
73	0	0	1926	5	184	105
74	0	0	1971	5	184	105
75	0	0	2006	5	184	104
76	0	0	2029	5	185	104
77	0	0	2062	5	184	105
78	0	0	2107	5	185	105
79	0	0	2126	5	185	105
80	0	0	2125	5	184	105
81	0	0	2097	4	184	105
82	0	0	2048	4	183	105
83	0	0	1985	5	184	105
84	0	0	1940	4	183	105
85	0	0	1907	4	183	105
86	0	0	1881	4	183	105
87	0	0	1858	4	183	105
88	0	0	1858	5	184	104
89	0	0	1857	4	183	104
90	0	0	1849	4	185	104
91	0	0	1852	4	184	105
92	0	0	1862	5	184	105
93	0	0	1883	5	184	104
94	0	0	1904	4	185	105
95	0	0	1954	6	185	104
96	0	0	2013	5	185	105
97	0	0	2062	4	184	105
98	0	0	2090	5	184	105
99	0	0	2104	5	184	105
100	0	0	2111	5	185	104
101	0	0	2104	5	184	104
102	0	0	2077	4	183	104
103	0	0	2044	4	184	105
104	0	0	2004	4	183	104
105	0	0	1982	4	184	104
106	0	0	1958	4	184	105
107	0	0	1911	4	182	105
108	0	0	1864	4	184	104
109	0	0	1842	4	183	105
110	0	0	1846	5	183	105
111	0	0	1862	5	184	105
112	0	0	1895	4	183	105
113	0	0	1935	5	184	105
114	0	0	1966	5	185	105
115	0	0	1982	5	185	104
116	0	0	1997	5	185	105
117	0	0	2027	5	184	105
118	0	0	2068	5	184	105
119	0	0	2080	5	184	105
120	0	0	2051	5	184	105
121	0	0	2000	4	184	105
122	0	0	1967	4	184	105
123	0	0	1962	5	183	105
124	0	0	1963	5	183	104
125	0	0	1964	5	184	103
126	0	0	1956	5	184	105
127	0	0	1911	5	183	105
0	0	0	1859	4	184	105
1	0	0	1846	5	184	105
2	0	0	1864	5	184	105
3	0	0	1889	5	184	103
4	0	0	1913	5	184	105
5	0	0	1930	5	184	105
6	0	0	1955	5	185	105
7	0	0	1983	5	185	103
8	0	0	2010	5	184	105
9	0	0	2035	5	184	105
10	0	0	2032	5	185	105
11	0	0	2021	5	185	105
12	0	0	2014	4	185	105
13	0	0	2016	5	184	104
14	0	0	2021	4	184	105
15	0	0	1993	4	184	105
16	0	0	1968	4	183	105
17	0	0	1969	5	184	103
18	0	0	1963	4	184	105
19	0	0	1923	4	183	105
20	0	0	1876	5	183	105
21	0	0	1867	5	183	105
22	0	0	1885	5	184	104
23	0	0	1910	5	184	105
24	0	0	1935	6	183	105
25	0	0	1977	6	185	105
26	0	0	2019	5	185	105
27	0	0	2034	5	185	104
28	0	0	2037	4	185	105
29	0	0	2042	5	185	103
30	0	0	2046	5	184	105
31	0	0	2044	5	184	105
32	0	0	2031	4	185	103
33	0	0	2022	4	184	104
34	0	0	2017	5	183	105
35	0	0	2038	5	184	105
36	0	0	2065	5	183	105
37	0	0	2040	4	183	104
38	0	0	1971	4	182	104
39	0	0	1899	4	181	105
40	0	0	1865	4	184	105
41	0	0	1866	5	184	104
42	0	0	1892	5	183	103
43	0	0	1946	5	184	105
44	0	0	2023	5	184	105
45	0	0	2076	5	184	105
46	0	0	2092	4	184	104
47	0	0	2109	5	184	104
48	0	0	2112	4	185	104
49	0	0	2091	4	183	105
50	0	0	2067	4	184	105
51	0	0	2045	4	184	105
52	0	0	2054	5	184	105
53	0	0	2081	5	184	105
54	0	0	2115	5	183	105
55	0	0	2123	4	184	105
56	0	0	2073	4	184	105
57	0	0	2018	4	183	104
58	0	0	1985	4	183	105
59	0	0	1948	5	183	105
60	0	0	1917	4	182	105
61	0	0	1899	4	184	105
62	0	0	1883	5	184	104
63	0	0	1892	4	185	105
64	0	0	1939	5	184	105
65	0	0	1999	5	184	105
66	0	0	2030	4	184	105
67	0	0	2020	4	185	104
68	0	0	2015	4	184	105
69	0	0	2038	5	183	106
70	0	0	2061	6	183	105
71	0	0	2051	5	184	105
72	0	0	2063	4	183	104
73	0	0	2093	5	185	105
74	0	0	2096	5	184	105
75	0	0	2066	4	183	105
76	0	0	2031	4	183	105
77	0	0	2016	4	183	105
78	0	0	2006	4	183	105
79	0	0	1982	4	184	104
80	0	0	1946	4	184	105
81	0	0	1922	4	184	104
82	0	0	1911	4	184	104
83	0	0	1925	5	184	105
84	0	0	1966	5	184	105
85	0	0	2010	5	184	105
86	0	0	2051	5	184	105
87	0	0	2061	6	184	104
88	0	0	2040	4	185	105
89	0	0	2057	5	185	105
90	0	0	2098	5	185	105
91	0	0	2132	5	185	105
92	0	0	2165	5	184	105
93	0	0	2183	4	184	105
94	0	0	2167	4	183	105
95	0	0	2118	4	183	105
96	0	0	2046	4	184	105
97	0	0	1987	4	183	105
98	0	0	1940	4	183	105
99	0	0	1922	4	182	105
100	0	0	1924	5	183	105
101	0	0	1934	4	184	105
102	0	0	1953	5	184	104
103	0	0	1984	5	184	105
104	0	0	2004	5	184	105
105	0	0	2024	6	184	104
106	0	0	2036	5	185	105
107	0	0	2051	5	185	105
108	0	0	2086	4	184	105
109	0	0	2123	5	185	104
110	0	0	2141	5	184	105
111	0	0	2142	5	184	105
112	0	0	2124	4	184	105
113	0	0	2109	5	184	105
114	0	0	2101	5	184	105
115	0	0	2085	5	183	104
116	0	0	2054	4	183	105
117	0	0	2037	5	184	104
118	0	0	2048	5	183	105
119	0	0	2054	5	183	105
120	0	0	2063	6	183	104
121	0	0	2070	5	183	105
122	0	0	2067	4	184	105
123	0	0	2072	4	184	105
124	0	0	2065	4	184	105
125	0	0	2063	5	185	105
126	0	0	2082	4	184	105
127	0	0	2111	5	185	104
0	0	0	2127	5	184	105
1	0	0	2138	5	185	105
2	0	0	2131	5	185	105
3	0	0	2126	6	184	104
4	0	0	2106	4	184	105
5	0	0	2092	4	185	105
6	0	0	2083	4	184	105
7	0	0	2058	5	184	104
8	0	0	2030	4	183	105
9	0	0	2022	4	183	104
10	0	0	2029	5	183	105
11	0	0	2035	5	182	105
12	0	0	2030	6	183	104
13	0	0	2044	4	183	105
14	0	0	2061	5	183	104
15	0	0	2067	5	184	104
16	0	0	2077	5	185	105
17	0	0	2095	5	185	104
18	0	0	2115	6	184	105
19	0	0	2145	5	185	105
20	0	0	2167	3	184	105
21	0	0	2181	5	183	106
22	0	0	2170	5	185	105
23	0	0	2160	5	184	105
24	0	0	2167	5	184	105
25	0	0	2166	3	184	105
26	0	0	2148	4	184	105
27	0	0	2148	5	183	105
28	0	0	2150	5	184	105
29	0	0	2159	5	183	105
30	0	0	2153	4	184	105
31	0	0	2121	4	183	104
32	0	0	2079	4	183	105
33	0	0	2029	5	184	105
34	0	0	2008	5	183	105
35	0	0	2054	4	184	105
36	0	0	2100	6	184	105
37	0	0	2110	5	184	105
38	0	0	2107	5	183	105
39	0	0	2118	5	185	105
40	0	0	2133	5	184	105
41	0	0	2168	6	185	105
42	0	0	2193	5	182	105
43	0	0	2175	5	184	105
44	0	0	2154	4	184	105
45	0	0	2157	4	184	105
46	0	0	2157	5	184	104
47	0	0	2142	4	184	105
48	0	0	2130	4	184	105
49	0	0	2137	5	183	105
50	0	0	2153	5	183	105
51	0	0	2131	4	184	105
52	0	0	2092	4	183	104
53	0	0	2076	5	183	105
54	0	0	2055	4	184	105
55	0	0	2040	5	183	104
56	0	0	2060	6	184	105
