# bioPlux Text File Format
# Version: 1
# StartDateTime: 2011-07-19 13:08:11
# SamplingFrequency: 1000
# SampledChannels: 1 2 3 4 5
# SamplingResolution: 12
# AcquiringDevice: 00:07:80:42:0F:95
# EndOfHeader
0	0	0	1956	4	1366	381	3925
1	0	0	1822	5	1367	380	3924
2	0	0	1777	4	1368	380	3925
3	0	0	1768	5	1368	380	3925
4	0	0	1766	4	1368	380	3925
5	0	0	1798	5	1368	380	3925
6	0	0	1851	6	1369	379	3925
7	0	0	1904	4	1368	380	3926
8	0	0	1970	5	1367	380	3926
9	0	0	2077	5	1366	379	3925
10	0	0	2190	5	1365	380	3927
11	0	0	2269	5	1364	380	3925
12	0	0	2317	5	1364	380	3926
13	0	0	2336	5	1364	380	3926
14	0	0	2307	4	1361	380	3925
15	0	0	2259	4	1363	379	3925
16	0	0	2212	4	1362	380	3924
17	0	0	2151	4	1364	380	3925
18	0	0	2089	4	1363	380	3925
19	0	0	2028	5	1364	379	3925
20	0	0	1962	5	1364	380	3925
21	0	0	1894	4	1366	380	3925
22	0	0	1831	4	1366	380	3926
23	0	0	1793	4	1368	380	3926
24	0	0	1774	4	1368	380	3926
25	0	0	1762	5	1369	380	3925
26	0	0	1785	5	1368	380	3925
27	0	0	1858	5	1369	380	3926
28	0	0	1944	5	1367	380	3926
29	0	0	2059	5	1366	380	3925
30	0	0	2177	3	1366	379	3926
31	0	0	2262	5	1364	380	3925
32	0	0	2315	4	1363	380	3925
33	0	0	2331	5	1364	379	3925
34	0	0	2306	4	1363	380	3924
35	0	0	2261	4	1362	379	3925
36	0	0	2215	4	1362	379	3925
37	0	0	2160	4	1363	380	3926
38	0	0	2099	4	1363	380	3925
39	0	0	2033	3	1363	380	3926
40	0	0	1919	4	1364	380	3925
41	0	0	1818	4	1366	378	3925
42	0	0	1787	5	1366	380	3926
43	0	0	1774	4	1366	380	3926
44	0	0	1747	4	1367	380	3925
45	0	0	1812	5	1368	380	3927
46	0	0	1839	5	1368	380	3926
47	0	0	1888	5	1367	379	3925
48	0	0	1957	5	1365	380	3926
49	0	0	2066	5	1365	380	3926
50	0	0	2182	5	1365	380	3925
51	0	0	2260	5	1363	380	3924
52	0	0	2309	5	1363	380	3925
53	0	0	2327	5	1363	379	3925
54	0	0	2305	4	1362	380	3925
55	0	0	2265	4	1360	380	3926
56	0	0	2221	4	1362	380	3925
57	0	0	2159	5	1362	379	3925
58	0	0	2096	4	1364	380	3926
59	0	0	2030	4	1362	379	3925
60	0	0	1954	5	1363	380	3926
61	0	0	1886	4	1364	380	3926
62	0	0	1830	4	1366	380	3926
63	0	0	1792	4	1365	380	3926
64	0	0	1770	3	1368	380	3926
65	0	0	1754	4	1368	380	3924
66	0	0	1776	5	1368	380	3924
67	0	0	1842	6	1367	380	3925
68	0	0	1924	5	1366	380	3925
69	0	0	2037	5	1365	379	3925
70	0	0	2159	5	1363	379	3925
71	0	0	2244	5	1363	380	3926
72	0	0	2297	4	1363	380	3926
73	0	0	2321	5	1362	380	3926
74	0	0	2296	4	1361	380	3925
75	0	0	2255	4	1360	380	3925
76	0	0	2217	4	1360	380	3926
77	0	0	2163	4	1362	380	3927
78	0	0	2102	4	1362	380	3926
79	0	0	2039	4	1363	380	3925
80	0	0	1902	4	1363	380	3925
81	0	0	1829	5	1365	380	3925
82	0	0	1797	4	1364	380	3925
83	0	0	1781	4	1366	380	3927
84	0	0	1786	4	1366	380	3924
85	0	0	1819	5	1368	380	3925
86	0	0	1832	5	1367	380	3926
87	0	0	1886	5	1366	380	3925
88	0	0	1958	5	1365	380	3926
89	0	0	2068	5	1364	380	3925
90	0	0	2185	5	1362	380	3925
91	0	0	2274	5	1362	380	3926
92	0	0	2324	5	1362	380	3927
93	0	0	2344	5	1361	380	3926
94	0	0	2314	4	1359	380	3925
95	0	0	2264	4	1361	380	3925
96	0	0	2220	4	1360	380	3926
97	0	0	2162	4	1361	380	3925
98	0	0	2099	4	1362	380	3925
99	0	0	2036	4	1362	380	3925
100	0	0	1969	4	1362	380	3926
101	0	0	1898	4	1364	380	3926
102	0	0	1836	4	1365	380	3925
103	0	0	1798	4	1366	380	3925
104	0	0	1776	4	1368	380	3926
105	0	0	1761	5	1367	380	3925
106	0	0	1788	5	1365	381	3925
107	0	0	1858	5	1366	380	3925
108	0	0	1941	5	1364	379	3926
109	0	0	2055	4	1363	380	3925
110	0	0	2175	5	1362	380	3926
111	0	0	2261	5	1362	379	3926
112	0	0	2312	4	1361	380	3926
113	0	0	2333	5	1361	380	3925
114	0	0	2310	4	1360	380	3925
115	0	0	2264	4	1360	380	3925
116	0	0	2215	5	1362	380	3925
117	0	0	2162	4	1360	380	3925
118	0	0	2104	4	1360	380	3925
119	0	0	2029	4	1363	380	3925
120	0	0	1900	4	1364	380	3925
121	0	0	1848	4	1363	380	3926
122	0	0	1820	4	1363	380	3926
123	0	0	1794	4	1365	380	3926
124	0	0	1829	5	1366	380	3925
125	0	0	1832	4	1366	380	3926
126	0	0	1846	6	1368	380	3926
127	0	0	1903	5	1366	380	3925
0	0	0	1979	5	1366	380	3927
1	0	0	2087	6	1364	380	3925
2	0	0	2196	5	1363	380	3926
3	0	0	2284	5	1363	380	3926
4	0	0	2334	5	1362	379	3925
5	0	0	2354	5	1359	380	3925
6	0	0	2332	5	1359	379	3925
7	0	0	2284	4	1358	380	3925
8	0	0	2237	4	1360	379	3925
9	0	0	2181	4	1360	379	3926
10	0	0	2119	4	1361	380	3926
11	0	0	2051	4	1363	380	3926
12	0	0	1981	4	1360	380	3925
13	0	0	1916	4	1362	380	3925
14	0	0	1861	4	1364	380	3926
15	0	0	1822	4	1364	380	3926
16	0	0	1796	4	1367	380	3925
17	0	0	1773	5	1366	380	3925
18	0	0	1794	5	1367	380	3926
19	0	0	1867	5	1365	380	3926
20	0	0	1958	5	1365	380	3926
21	0	0	2087	5	1363	379	3925
22	0	0	2208	5	1362	380	3924
23	0	0	2296	5	1362	380	3925
24	0	0	2346	4	1361	380	3925
25	0	0	2361	5	1360	380	3925
26	0	0	2334	5	1359	380	3925
27	0	0	2283	4	1360	379	3925
28	0	0	2236	4	1359	380	3925
29	0	0	2176	3	1359	380	3926
30	0	0	2118	4	1360	380	3926
31	0	0	2002	4	1360	379	3926
32	0	0	1911	5	1362	379	3926
33	0	0	1864	4	1363	380	3926
34	0	0	1830	4	1363	380	3926
35	0	0	1787	5	1364	379	3926
36	0	0	1847	5	1366	380	3926
37	0	0	1826	4	1367	380	3924
38	0	0	1836	5	1366	379	3925
39	0	0	1891	5	1366	380	3926
40	0	0	1971	5	1364	380	3926
41	0	0	2088	5	1361	380	3925
42	0	0	2201	5	1363	380	3926
43	0	0	2285	5	1361	380	3925
44	0	0	2335	4	1360	379	3926
45	0	0	2354	4	1359	380	3925
46	0	0	2325	5	1358	380	3925
47	0	0	2278	5	1358	380	3925
48	0	0	2226	4	1358	379	3925
49	0	0	2168	3	1360	380	3926
50	0	0	2111	4	1359	380	3925
51	0	0	2041	4	1360	380	3925
52	0	0	1969	4	1360	380	3925
53	0	0	1898	5	1362	379	3925
54	0	0	1839	3	1363	379	3925
55	0	0	1804	4	1363	380	3925
56	0	0	1782	4	1365	380	3926
57	0	0	1767	4	1366	381	3925
58	0	0	1791	5	1366	380	3925
59	0	0	1870	5	1365	379	3926
60	0	0	1961	5	1363	380	3926
61	0	0	2080	5	1362	379	3925
62	0	0	2197	4	1361	380	3925
63	0	0	2279	5	1361	380	3926
64	0	0	2328	4	1359	380	3926
65	0	0	2345	5	1359	380	3927
66	0	0	2323	5	1358	380	3925
67	0	0	2283	4	1358	380	3925
68	0	0	2236	4	1359	380	3925
69	0	0	2181	4	1359	380	3925
70	0	0	2118	4	1358	380	3925
71	0	0	1980	4	1361	379	3924
72	0	0	1915	4	1361	380	3925
73	0	0	1874	4	1361	380	3925
74	0	0	1841	4	1363	379	3924
75	0	0	1833	5	1363	379	3925
76	0	0	1851	5	1364	380	3926
77	0	0	1824	4	1364	380	3925
78	0	0	1834	5	1364	380	3925
79	0	0	1892	4	1364	380	3926
80	0	0	1974	5	1363	379	3926
81	0	0	2094	5	1361	380	3926
82	0	0	2213	4	1360	380	3925
83	0	0	2298	5	1359	379	3926
84	0	0	2351	5	1359	380	3926
85	0	0	2369	5	1360	380	3926
86	0	0	2339	5	1358	379	3925
87	0	0	2293	4	1358	379	3926
88	0	0	2246	4	1359	380	3926
89	0	0	2185	3	1358	380	3925
90	0	0	2120	4	1359	380	3925
91	0	0	2053	4	1360	379	3925
92	0	0	1981	4	1361	380	3925
93	0	0	1910	4	1361	380	3925
94	0	0	1848	4	1362	380	3925
95	0	0	1812	4	1363	380	3926
96	0	0	1791	5	1363	379	3925
97	0	0	1775	5	1363	380	3925
98	0	0	1799	5	1364	380	3925
99	0	0	1869	5	1363	380	3925
100	0	0	1954	5	1362	380	3926
101	0	0	2072	5	1362	380	3926
102	0	0	2191	5	1360	380	3925
103	0	0	2278	4	1360	380	3925
104	0	0	2331	5	1359	380	3926
105	0	0	2354	5	1358	380	3926
106	0	0	2329	4	1355	380	3925
107	0	0	2282	4	1358	379	3926
108	0	0	2234	4	1357	380	3926
109	0	0	2176	3	1356	380	3926
110	0	0	2090	4	1359	380	3925
111	0	0	1973	5	1358	379	3925
112	0	0	1924	4	1360	379	3926
113	0	0	1883	4	1360	380	3925
114	0	0	1830	4	1361	380	3925
115	0	0	1859	5	1361	380	3926
116	0	0	1838	4	1364	380	3925
117	0	0	1803	4	1363	380	3925
118	0	0	1811	5	1362	380	3925
119	0	0	1876	5	1364	380	3926
120	0	0	1962	5	1362	380	3925
121	0	0	2078	5	1361	380	3926
122	0	0	2195	5	1361	379	3925
123	0	0	2283	5	1358	380	3925
124	0	0	2336	4	1358	380	3926
125	0	0	2353	5	1358	380	3926
126	0	0	2331	4	1357	380	3925
127	0	0	2291	5	1357	379	3925
0	0	0	2244	4	1356	380	3925
1	0	0	2187	4	1357	380	3926
2	0	0	2128	4	1359	380	3926
3	0	0	2059	4	1358	380	3926
4	0	0	1992	4	1360	379	3927
5	0	0	1921	4	1361	381	3926
6	0	0	1861	3	1359	380	3926
7	0	0	1818	4	1360	380	3925
8	0	0	1789	4	1363	380	3925
9	0	0	1771	5	1363	379	3926
10	0	0	1794	5	1363	380	3925
11	0	0	1865	4	1362	379	3925
12	0	0	1954	5	1360	380	3925
13	0	0	2075	5	1360	380	3925
14	0	0	2191	5	1358	379	3925
15	0	0	2280	5	1357	380	3925
16	0	0	2336	5	1359	379	3926
17	0	0	2353	5	1357	380	3925
18	0	0	2324	4	1356	380	3925
19	0	0	2274	5	1356	379	3926
20	0	0	2224	5	1357	380	3926
21	0	0	2162	4	1356	380	3926
22	0	0	2043	4	1358	380	3925
23	0	0	1958	4	1357	380	3925
24	0	0	1918	4	1358	380	3925
25	0	0	1874	4	1360	380	3925
26	0	0	1818	5	1361	380	3926
27	0	0	1853	5	1361	380	3924
28	0	0	1823	3	1362	379	3925
29	0	0	1787	5	1362	379	3925
30	0	0	1796	5	1363	380	3925
31	0	0	1859	4	1361	379	3925
32	0	0	1946	5	1360	380	3926
33	0	0	2062	4	1360	380	3925
34	0	0	2177	5	1358	380	3926
35	0	0	2261	5	1358	380	3925
36	0	0	2315	4	1357	380	3926
37	0	0	2340	4	1357	380	3925
38	0	0	2316	4	1356	380	3926
39	0	0	2273	4	1357	379	3925
40	0	0	2222	4	1356	380	3925
41	0	0	2159	3	1355	380	3925
42	0	0	2096	4	1358	380	3925
43	0	0	2031	4	1356	380	3924
44	0	0	1956	4	1357	379	3925
45	0	0	1887	4	1359	380	3924
46	0	0	1830	4	1360	380	3926
47	0	0	1793	4	1361	380	3926
48	0	0	1771	4	1361	380	3924
49	0	0	1755	4	1361	379	3926
50	0	0	1778	5	1362	379	3926
51	0	0	1849	4	1362	379	3926
52	0	0	1940	5	1359	380	3925
53	0	0	2061	6	1359	380	3925
54	0	0	2182	5	1359	380	3925
55	0	0	2272	5	1357	380	3925
56	0	0	2321	4	1356	380	3926
57	0	0	2336	6	1356	379	3925
58	0	0	2315	4	1355	380	3926
59	0	0	2273	4	1355	380	3925
60	0	0	2226	4	1356	380	3924
61	0	0	2170	4	1354	380	3925
62	0	0	2040	4	1356	380	3924
63	0	0	1982	4	1356	380	3925
64	0	0	1941	4	1358	379	3925
65	0	0	1887	4	1357	379	3925
66	0	0	1860	4	1359	380	3926
67	0	0	1852	4	1359	379	3925
68	0	0	1820	4	1360	379	3925
69	0	0	1789	4	1361	379	3925
70	0	0	1799	5	1361	379	3924
71	0	0	1863	4	1360	380	3926
72	0	0	1948	5	1360	380	3925
73	0	0	2071	5	1359	380	3926
74	0	0	2193	5	1359	379	3925
75	0	0	2282	5	1357	380	3925
76	0	0	2337	5	1357	380	3926
77	0	0	2356	5	1356	380	3925
78	0	0	2328	5	1355	380	3926
79	0	0	2287	4	1355	379	3924
80	0	0	2235	4	1355	380	3925
81	0	0	2169	4	1355	380	3926
82	0	0	2108	4	1358	380	3926
83	0	0	2039	4	1356	380	3925
84	0	0	1965	5	1357	380	3925
85	0	0	1888	4	1360	380	3925
86	0	0	1827	4	1359	380	3926
87	0	0	1789	5	1360	379	3926
88	0	0	1760	5	1361	380	3925
89	0	0	1740	4	1361	380	3925
90	0	0	1766	4	1361	380	3925
91	0	0	1843	4	1360	380	3925
92	0	0	1938	4	1359	380	3925
93	0	0	2065	5	1359	380	3926
94	0	0	2190	5	1358	381	3925
95	0	0	2284	5	1358	380	3925
96	0	0	2337	5	1357	380	3926
97	0	0	2354	5	1354	379	3925
98	0	0	2335	4	1355	380	3924
99	0	0	2292	5	1354	379	3925
100	0	0	2236	4	1354	380	3925
101	0	0	2136	4	1356	380	3926
102	0	0	2026	4	1355	379	3925
103	0	0	1977	4	1356	380	3925
104	0	0	1931	4	1357	380	3926
105	0	0	1860	4	1359	380	3926
106	0	0	1875	5	1358	380	3926
107	0	0	1837	4	1360	379	3926
108	0	0	1798	4	1361	380	3925
109	0	0	1764	5	1360	380	3925
110	0	0	1783	5	1361	380	3924
111	0	0	1856	5	1360	379	3925
112	0	0	1949	6	1360	379	3925
113	0	0	2076	5	1359	379	3925
114	0	0	2198	5	1357	379	3925
115	0	0	2294	5	1357	380	3925
116	0	0	2345	5	1356	380	3925
117	0	0	2359	5	1355	380	3925
118	0	0	2337	4	1355	380	3926
119	0	0	2300	4	1354	380	3924
120	0	0	2246	4	1355	380	3925
121	0	0	2180	4	1355	380	3926
122	0	0	2112	4	1355	380	3926
123	0	0	2041	4	1356	380	3925
124	0	0	1967	4	1356	379	3925
125	0	0	1895	4	1357	380	3925
126	0	0	1838	4	1358	380	3925
127	0	0	1798	5	1358	380	3925
0	0	0	1771	4	1360	380	3925
1	0	0	1748	4	1360	380	3926
2	0	0	1776	5	1359	380	3926
3	0	0	1852	5	1360	379	3925
4	0	0	1949	5	1357	379	3925
5	0	0	2077	5	1358	380	3926
6	0	0	2204	5	1357	380	3926
7	0	0	2295	5	1357	379	3925
8	0	0	2347	5	1355	380	3926
9	0	0	2365	5	1354	380	3926
10	0	0	2342	4	1354	379	3925
11	0	0	2303	5	1352	380	3926
12	0	0	2253	4	1354	379	3925
13	0	0	2123	4	1355	380	3926
14	0	0	2046	4	1354	379	3925
15	0	0	2007	4	1356	380	3924
16	0	0	1954	4	1356	380	3924
17	0	0	1891	5	1358	379	3925
18	0	0	1885	4	1357	380	3926
19	0	0	1835	4	1357	380	3925
20	0	0	1793	4	1360	379	3926
21	0	0	1759	4	1360	379	3925
22	0	0	1778	5	1360	379	3925
23	0	0	1848	5	1359	380	3926
24	0	0	1939	5	1357	380	3925
25	0	0	2066	5	1356	380	3925
26	0	0	2188	5	1355	380	3926
27	0	0	2276	5	1356	380	3927
28	0	0	2329	5	1355	380	3926
29	0	0	2351	5	1354	380	3926
30	0	0	2329	4	1355	380	3926
31	0	0	2290	4	1353	379	3925
32	0	0	2237	4	1353	379	3925
33	0	0	2172	4	1354	379	3926
34	0	0	2099	4	1353	380	3925
35	0	0	2025	4	1355	380	3925
36	0	0	1948	5	1356	380	3926
37	0	0	1877	4	1357	379	3926
38	0	0	1818	4	1358	380	3926
39	0	0	1780	4	1357	380	3925
40	0	0	1754	4	1359	380	3925
41	0	0	1735	4	1359	380	3925
42	0	0	1767	5	1359	379	3926
43	0	0	1846	4	1359	380	3927
44	0	0	1939	5	1357	380	3925
45	0	0	2065	5	1356	380	3926
46	0	0	2189	5	1357	380	3925
47	0	0	2281	5	1355	379	3926
48	0	0	2336	5	1354	380	3925
49	0	0	2359	5	1354	380	3925
50	0	0	2338	5	1352	380	3924
51	0	0	2302	5	1352	380	3925
52	0	0	2242	4	1352	380	3925
53	0	0	2107	4	1352	380	3926
54	0	0	2051	4	1355	380	3926
55	0	0	2007	4	1355	379	3925
56	0	0	1950	4	1356	380	3926
57	0	0	1924	5	1357	380	3926
58	0	0	1882	4	1357	380	3926
59	0	0	1826	4	1358	380	3926
60	0	0	1781	5	1358	380	3926
61	0	0	1750	4	1359	380	3925
62	0	0	1773	5	1359	379	3925
63	0	0	1854	5	1358	380	3926
64	0	0	1948	5	1357	379	3925
65	0	0	2072	5	1355	380	3925
66	0	0	2192	5	1356	380	3926
67	0	0	2280	5	1354	379	3925
68	0	0	2336	5	1353	379	3926
69	0	0	2358	5	1354	379	3924
70	0	0	2334	5	1352	380	3925
71	0	0	2288	4	1352	380	3925
72	0	0	2232	4	1352	379	3926
73	0	0	2170	4	1352	380	3926
74	0	0	2104	4	1353	380	3926
75	0	0	2029	4	1354	380	3925
76	0	0	1952	4	1355	381	3926
77	0	0	1882	4	1356	379	3926
78	0	0	1823	4	1355	380	3926
79	0	0	1783	4	1356	380	3925
80	0	0	1758	5	1357	380	3925
81	0	0	1732	5	1358	380	3925
82	0	0	1763	5	1357	380	3926
83	0	0	1842	5	1358	380	3925
84	0	0	1936	5	1356	380	3925
85	0	0	2065	5	1356	380	3925
86	0	0	2192	5	1355	380	3925
87	0	0	2281	5	1356	379	3925
88	0	0	2331	5	1352	380	3926
89	0	0	2354	5	1353	379	3925
90	0	0	2332	4	1351	380	3925
91	0	0	2288	4	1351	380	3925
92	0	0	2190	4	1352	380	3926
93	0	0	2092	4	1354	380	3926
94	0	0	2048	4	1353	380	3925
95	0	0	2001	5	1353	380	3925
96	0	0	1928	4	1355	380	3925
97	0	0	1936	4	1356	379	3925
98	0	0	1882	4	1355	380	3925
99	0	0	1827	4	1355	380	3926
100	0	0	1786	3	1358	380	3924
101	0	0	1759	5	1357	380	3924
102	0	0	1780	5	1358	380	3925
103	0	0	1856	5	1357	380	3925
104	0	0	1955	5	1355	379	3925
105	0	0	2079	5	1355	380	3925
106	0	0	2199	4	1355	380	3925
107	0	0	2289	5	1353	380	3926
108	0	0	2344	5	1354	380	3926
109	0	0	2364	5	1353	379	3926
110	0	0	2338	4	1351	380	3925
111	0	0	2295	3	1351	379	3925
112	0	0	2242	4	1349	379	3925
113	0	0	2178	5	1352	379	3925
114	0	0	2108	4	1351	379	3926
115	0	0	2034	4	1353	380	3924
116	0	0	1959	4	1354	380	3925
117	0	0	1887	4	1355	379	3925
118	0	0	1831	4	1356	380	3926
119	0	0	1799	4	1355	380	3926
120	0	0	1776	4	1357	380	3925
121	0	0	1753	4	1358	380	3925
122	0	0	1781	5	1357	380	3926
123	0	0	1863	5	1357	380	3926
124	0	0	1959	5	1355	380	3926
125	0	0	2085	5	1354	380	3926
126	0	0	2205	5	1353	380	3926
127	0	0	2296	5	1354	380	3926
0	0	0	2351	5	1352	379	3926
1	0	0	2375	5	1352	379	3926
2	0	0	2348	4	1351	380	3925
3	0	0	2297	4	1351	379	3925
4	0	0	2172	4	1351	380	3926
5	0	0	2114	4	1350	380	3925
6	0	0	2076	5	1352	379	3926
7	0	0	2021	4	1352	380	3924
8	0	0	1979	5	1354	379	3925
9	0	0	1951	4	1355	379	3925
10	0	0	1881	4	1354	380	3926
11	0	0	1829	4	1355	379	3926
12	0	0	1790	4	1358	380	3925
13	0	0	1766	4	1358	380	3925
14	0	0	1794	5	1357	380	3925
15	0	0	1872	5	1355	379	3926
16	0	0	1965	5	1355	380	3926
17	0	0	2091	4	1355	379	3925
18	0	0	2211	5	1352	380	3926
19	0	0	2297	5	1353	380	3926
20	0	0	2346	5	1350	380	3925
21	0	0	2361	5	1352	380	3926
22	0	0	2338	5	1349	380	3924
23	0	0	2295	4	1350	380	3925
24	0	0	2241	4	1350	379	3926
25	0	0	2175	4	1350	380	3925
26	0	0	2108	4	1351	380	3926
27	0	0	2034	4	1350	380	3925
28	0	0	1962	4	1354	380	3926
29	0	0	1892	4	1354	379	3925
30	0	0	1836	4	1355	380	3926
31	0	0	1800	5	1354	380	3926
32	0	0	1775	4	1356	379	3925
33	0	0	1760	4	1355	380	3925
34	0	0	1789	5	1355	379	3925
35	0	0	1867	5	1355	380	3926
36	0	0	1959	5	1355	380	3925
37	0	0	2082	5	1354	380	3926
38	0	0	2203	5	1353	380	3925
39	0	0	2291	5	1352	379	3925
40	0	0	2339	5	1352	380	3926
41	0	0	2354	5	1351	380	3924
42	0	0	2326	4	1351	379	3925
43	0	0	2258	4	1349	379	3924
44	0	0	2158	4	1350	380	3925
45	0	0	2113	4	1350	380	3926
46	0	0	2080	4	1351	380	3926
47	0	0	2022	4	1352	379	3925
48	0	0	2013	4	1352	380	3926
49	0	0	1948	4	1353	379	3926
50	0	0	1872	4	1355	380	3926
51	0	0	1815	4	1353	379	3925
52	0	0	1782	4	1355	379	3925
53	0	0	1762	4	1356	380	3924
54	0	0	1786	5	1354	379	3925
55	0	0	1863	4	1356	380	3925
56	0	0	1953	5	1353	379	3924
57	0	0	2073	5	1353	380	3924
58	0	0	2190	5	1352	380	3925
59	0	0	2278	4	1352	380	3925
60	0	0	2335	5	1348	379	3925
61	0	0	2357	5	1351	380	3926
62	0	0	2332	4	1348	379	3925
63	0	0	2287	4	1350	380	3925
64	0	0	2237	4	1349	378	3926
65	0	0	2172	4	1350	380	3926
66	0	0	2104	4	1350	379	3925
67	0	0	2030	4	1350	380	3926
68	0	0	1965	4	1352	380	3924
69	0	0	1896	4	1351	380	3925
70	0	0	1838	4	1353	380	3926
71	0	0	1800	4	1354	380	3925
72	0	0	1779	4	1354	380	3925
73	0	0	1756	5	1354	379	3925
74	0	0	1782	5	1356	379	3925
75	0	0	1854	5	1354	379	3926
76	0	0	1951	5	1353	380	3925
77	0	0	2080	5	1353	379	3925
78	0	0	2201	5	1352	380	3926
79	0	0	2287	5	1352	380	3926
80	0	0	2338	5	1351	379	3926
81	0	0	2355	5	1350	379	3926
82	0	0	2332	4	1349	380	3925
83	0	0	2233	4	1348	380	3926
84	0	0	2166	4	1349	380	3925
85	0	0	2126	4	1349	379	3925
86	0	0	2082	4	1350	380	3926
87	0	0	2014	5	1350	380	3925
88	0	0	2010	4	1351	379	3925
89	0	0	1939	4	1352	380	3925
90	0	0	1867	4	1354	380	3925
91	0	0	1809	4	1354	380	3925
92	0	0	1771	4	1354	379	3925
93	0	0	1747	4	1355	380	3925
94	0	0	1779	5	1355	380	3925
95	0	0	1861	5	1355	380	3926
96	0	0	1956	5	1353	380	3925
97	0	0	2083	4	1352	380	3927
98	0	0	2206	5	1353	380	3925
99	0	0	2289	5	1351	380	3925
100	0	0	2335	5	1349	380	3926
101	0	0	2353	5	1350	379	3924
102	0	0	2334	4	1348	379	3924
103	0	0	2291	4	1348	379	3925
104	0	0	2241	4	1349	380	3926
105	0	0	2178	4	1349	379	3925
106	0	0	2111	4	1349	380	3926
107	0	0	2038	5	1349	379	3925
108	0	0	1959	4	1349	380	3926
109	0	0	1884	4	1352	380	3925
110	0	0	1824	4	1351	379	3926
111	0	0	1787	4	1352	379	3925
112	0	0	1765	4	1352	380	3925
113	0	0	1753	4	1354	380	3925
114	0	0	1783	5	1353	380	3925
115	0	0	1864	5	1355	379	3926
116	0	0	1958	5	1353	379	3925
117	0	0	2083	5	1350	379	3925
118	0	0	2207	5	1351	380	3925
119	0	0	2297	5	1351	380	3925
120	0	0	2347	5	1349	379	3926
121	0	0	2357	5	1349	379	3924
122	0	0	2323	4	1347	380	3926
123	0	0	2212	4	1348	381	3925
124	0	0	2175	4	1349	380	3924
125	0	0	2144	4	1349	379	3925
126	0	0	2097	4	1348	379	3925
127	0	0	2075	5	1349	379	3925
0	0	0	2029	4	1350	379	3926
1	0	0	1940	4	1351	380	3927
2	0	0	1864	4	1353	380	3926
3	0	0	1813	4	1352	380	3925
4	0	0	1777	4	1354	380	3925
5	0	0	1751	4	1353	380	3926
6	0	0	1780	5	1353	380	3925
7	0	0	1859	5	1353	379	3926
8	0	0	1953	5	1352	379	3925
9	0	0	2083	5	1351	380	3924
10	0	1	2207	5	1351	379	3925
11	0	1	2295	5	1350	379	3925
12	0	1	2347	5	1350	380	3926
13	0	1	2356	5	1348	379	3925
14	0	1	2327	4	1348	380	3925
15	0	1	2281	5	1348	379	3925
16	0	1	2231	4	1349	380	3926
17	0	1	2171	4	1347	379	3925
18	0	1	2107	4	1348	379	3926
19	0	1	2036	4	1348	379	3925
20	0	1	1964	4	1350	379	3925
21	0	1	1889	4	1351	379	3925
22	0	1	1831	4	1351	379	3926
23	0	1	1792	4	1352	380	3925
24	0	1	1768	4	1353	379	3925
25	0	1	1753	5	1355	379	3924
26	0	1	1784	5	1354	380	3925
27	0	1	1862	5	1353	380	3926
28	0	1	1952	5	1352	379	3924
29	0	1	2076	5	1351	379	3925
30	0	1	2198	5	1350	380	3926
31	0	1	2283	5	1349	380	3926
32	0	1	2332	5	1348	379	3926
33	0	1	2351	5	1347	380	3925
34	0	1	2291	3	1346	380	3925
35	0	1	2221	4	1346	379	3925
36	0	1	2196	4	1347	379	3926
37	0	1	2157	4	1348	379	3926
38	0	1	2089	4	1348	380	3925
39	0	1	2088	4	1349	380	3925
40	0	1	2012	4	1348	380	3925
41	0	1	1916	4	1349	380	3925
42	0	1	1841	4	1351	379	3925
43	0	1	1793	4	1351	379	3925
44	0	1	1767	4	1352	380	3926
45	0	1	1746	4	1353	381	3925
46	0	1	1777	5	1353	379	3925
47	0	1	1859	5	1352	379	3926
48	0	1	1950	5	1351	379	3925
49	0	1	2073	4	1350	380	3926
50	0	1	2195	5	1350	380	3925
51	0	1	2282	5	1349	380	3926
52	0	1	2333	5	1348	379	3926
53	0	1	2349	5	1347	379	3925
54	0	1	2324	4	1346	379	3925
55	0	1	2286	4	1346	379	3925
56	0	1	2237	4	1346	380	3925
57	0	1	2175	4	1347	379	3925
58	0	1	2109	4	1348	380	3925
59	0	1	2037	4	1349	380	3925
60	0	1	1961	4	1350	380	3924
61	0	1	1891	4	1350	380	3925
62	0	1	1835	4	1350	380	3926
63	0	1	1798	4	1351	379	3925
64	0	1	1770	4	1352	380	3926
65	0	1	1744	4	1354	381	3924
66	0	1	1772	5	1352	379	3925
67	0	1	1854	5	1351	380	3925
68	0	1	1951	5	1350	380	3925
69	0	1	2077	5	1349	379	3925
70	0	1	2199	5	1349	379	3926
71	0	1	2285	5	1349	380	3925
72	0	1	2340	5	1347	379	3926
73	0	1	2359	5	1347	379	3926
74	0	1	2271	6	1345	380	3924
75	0	1	2222	4	1346	380	3925
76	0	1	2200	4	1348	380	3926
77	0	1	2162	4	1346	379	3926
78	0	1	2114	5	1346	379	3924
79	0	1	2095	4	1347	379	3925
80	0	1	2010	4	1349	379	3925
81	0	1	1912	4	1350	380	3925
82	0	1	1837	4	1349	379	3925
83	0	1	1789	4	1350	380	3925
84	0	1	1758	4	1351	380	3925
85	0	1	1742	5	1352	379	3925
86	0	1	1775	5	1351	379	3925
87	0	1	1853	4	1350	379	3926
88	0	1	1954	5	1351	380	3926
89	0	1	2083	5	1348	380	3925
90	0	1	2207	4	1348	380	3926
91	0	1	2291	5	1349	380	3926
92	0	1	2342	5	1347	379	3925
93	0	1	2362	5	1346	379	3925
94	0	1	2337	4	1345	380	3925
95	0	1	2301	4	1346	379	3924
96	0	1	2247	4	1344	380	3925
97	0	1	2179	4	1345	379	3925
98	0	1	2110	4	1346	380	3925
99	0	1	2036	4	1348	380	3925
100	0	1	1960	4	1347	379	3925
101	1	1	1892	4	1347	379	3925
102	1	1	1860	4	1351	379	3926
103	1	1	1843	4	1351	380	3925
104	1	1	1825	4	1354	380	3926
105	1	1	1804	4	1354	380	3925
106	1	1	1828	5	1355	380	3925
107	1	1	1894	4	1354	379	3926
108	1	1	1981	5	1354	380	3926
109	1	1	2100	5	1351	380	3925
110	1	1	2210	4	1349	379	3925
111	1	1	2288	5	1350	380	3925
112	1	1	2336	5	1349	379	3926
113	1	1	2334	4	1350	380	3925
114	1	1	2251	4	1347	380	3925
115	1	1	2226	4	1347	380	3925
116	1	1	2205	4	1348	379	3925
117	1	1	2156	4	1348	380	3926
118	1	1	2144	5	1348	379	3925
119	1	1	2092	4	1348	379	3927
120	1	1	1999	4	1350	380	3926
121	1	1	1904	4	1350	381	3926
122	1	1	1830	4	1352	380	3926
123	1	1	1780	4	1351	379	3925
124	1	1	1746	4	1352	380	3926
125	1	1	1726	4	1354	380	3925
126	1	1	1761	5	1351	381	3925
127	1	1	1843	5	1350	379	3926
0	1	1	1940	5	1350	379	3925
1	1	1	2067	5	1349	380	3925
2	1	1	2190	5	1349	380	3926
3	1	1	2278	5	1347	380	3926
4	1	1	2332	5	1347	379	3926
5	1	1	2353	5	1346	379	3925
6	1	1	2331	4	1346	380	3926
7	1	1	2292	4	1346	380	3925
8	1	1	2235	4	1345	380	3926
9	1	1	2166	4	1346	379	3926
10	1	1	2094	4	1346	380	3925
11	1	1	2021	4	1346	379	3925
12	1	1	1947	3	1347	379	3926
13	1	1	1879	4	1349	379	3925
14	1	1	1821	4	1348	379	3926
15	1	1	1782	4	1351	380	3926
16	1	1	1751	3	1351	379	3924
17	1	1	1732	4	1352	380	3924
18	1	1	1766	5	1351	381	3925
19	1	1	1850	5	1351	380	3926
20	1	1	1947	5	1348	379	3925
21	1	1	2076	5	1349	380	3925
22	1	1	2200	4	1348	380	3925
23	1	1	2286	5	1346	379	3925
24	1	1	2336	5	1345	380	3926
25	1	1	2303	4	1345	379	3925
26	1	1	2254	4	1345	380	3925
27	1	1	2239	4	1344	379	3926
28	1	1	2212	4	1345	380	3927
29	1	1	2143	5	1344	379	3926
30	1	1	2156	4	1346	380	3926
31	1	1	2089	4	1346	380	3925
32	1	1	1999	4	1348	379	3926
33	1	1	1908	4	1348	380	3925
34	1	1	1839	4	1349	379	3926
35	1	1	1793	4	1349	380	3925
36	1	1	1765	4	1352	380	3925
37	1	1	1749	5	1350	379	3925
38	1	1	1781	5	1350	380	3925
39	1	1	1866	5	1349	379	3926
40	1	1	1960	5	1349	380	3925
41	1	1	2082	5	1348	380	3925
42	1	1	2203	5	1347	379	3925
43	1	1	2294	5	1346	381	3926
44	1	1	2351	5	1345	380	3927
45	1	1	2369	5	1344	379	3925
46	1	1	2346	4	1344	380	3926
47	1	1	2301	4	1344	380	3925
48	1	1	2244	4	1343	380	3925
49	1	1	2177	4	1344	380	3925
50	1	1	2110	4	1345	380	3926
51	1	1	2034	4	1346	379	3925
52	1	1	1959	4	1347	380	3925
53	1	1	1888	4	1347	380	3925
54	1	1	1828	4	1347	379	3926
55	1	1	1790	4	1348	380	3925
56	1	1	1765	4	1350	379	3925
57	1	1	1748	5	1350	380	3925
58	1	1	1781	5	1349	380	3925
59	1	1	1859	5	1349	379	3926
60	1	1	1953	5	1348	379	3925
61	1	1	2083	5	1348	379	3926
62	1	1	2200	5	1347	379	3925
63	1	1	2285	5	1345	380	3925
64	1	1	2339	5	1345	379	3926
65	1	1	2285	5	1343	380	3924
66	1	1	2262	4	1343	380	3924
67	1	1	2251	4	1342	380	3925
68	1	1	2222	5	1343	380	3927
69	1	1	2188	5	1344	379	3926
70	1	1	2166	4	1344	380	3925
71	1	1	2084	4	1345	379	3925
72	1	1	1991	4	1346	380	3926
73	1	1	1906	4	1348	380	3926
74	1	1	1838	4	1347	380	3926
75	1	1	1792	4	1347	380	3927
76	1	1	1763	5	1350	379	3925
77	1	1	1742	4	1350	380	3925
78	1	1	1772	5	1348	380	3925
79	1	1	1849	5	1349	380	3926
80	1	1	1945	5	1348	379	3925
81	1	1	2070	5	1347	379	3925
82	1	1	2192	5	1345	379	3924
83	1	1	2283	5	1345	380	3925
84	1	1	2333	5	1344	379	3925
85	1	1	2347	5	1345	379	3925
86	1	1	2324	4	1345	379	3926
87	1	1	2284	4	1343	380	3926
88	1	1	2231	4	1343	380	3925
89	1	1	2172	4	1344	380	3926
90	1	1	2106	4	1344	379	3925
91	1	1	2034	4	1345	380	3926
92	1	1	1965	3	1345	379	3926
93	1	1	1895	4	1346	379	3926
94	1	1	1837	4	1345	380	3926
95	1	1	1797	4	1347	379	3925
96	1	1	1769	4	1349	379	3925
97	1	1	1749	4	1349	380	3925
98	1	1	1778	5	1350	380	3926
99	1	1	1859	5	1348	380	3925
100	1	1	1951	5	1348	379	3925
101	1	1	2080	5	1347	380	3926
102	1	1	2204	5	1346	379	3926
103	1	1	2290	5	1345	380	3925
104	1	1	2315	4	1345	379	3926
105	1	1	2284	5	1343	380	3925
106	1	1	2279	5	1342	379	3925
107	1	1	2267	5	1343	379	3926
108	1	1	2223	4	1344	380	3926
109	1	1	2221	5	1343	379	3926
110	1	1	2162	4	1343	380	3925
111	1	1	2077	4	1345	380	3925
112	1	1	1984	4	1346	380	3925
113	1	1	1894	5	1347	380	3925
114	1	1	1828	4	1348	380	3926
115	1	1	1787	4	1346	379	3925
116	1	1	1760	4	1349	380	3926
117	1	1	1738	4	1349	380	3925
118	1	1	1767	5	1348	380	3925
119	1	1	1846	5	1348	380	3925
120	1	1	1941	5	1346	379	3925
121	1	1	2071	5	1345	379	3925
122	1	1	2195	4	1345	379	3926
123	1	1	2288	5	1344	379	3927
124	1	1	2338	5	1343	380	3926
125	1	1	2355	5	1343	380	3925
126	1	1	2330	4	1343	380	3927
127	1	1	2287	4	1342	380	3925
0	1	1	2227	4	1343	380	3925
1	1	1	2160	4	1343	380	3926
2	1	1	2095	4	1344	380	3924
3	1	1	2023	4	1344	379	3925
4	1	1	1949	4	1345	379	3925
5	1	1	1875	4	1346	380	3925
6	1	1	1813	4	1345	379	3926
7	1	1	1775	4	1346	379	3925
8	1	1	1746	4	1348	380	3925
9	1	1	1727	4	1349	380	3925
10	1	1	1761	5	1348	380	3925
11	1	1	1843	5	1349	379	3926
12	1	1	1936	5	1347	379	3925
13	1	1	2068	5	1346	379	3927
14	1	1	2193	5	1345	380	3926
15	1	1	2282	5	1345	380	3926
16	1	1	2276	4	1342	380	3926
17	1	1	2280	5	1342	380	3925
18	1	1	2286	5	1341	379	3925
19	1	1	2263	4	1342	380	3926
20	1	1	2214	5	1343	380	3926
21	1	1	2211	4	1343	380	3925
22	1	1	2141	5	1343	380	3925
23	1	1	2053	4	1344	379	3925
24	1	1	1962	5	1345	380	3925
25	1	1	1882	4	1346	380	3926
26	1	1	1823	4	1345	380	3926
27	1	1	1788	4	1347	379	3925
28	1	1	1765	4	1348	379	3925
29	1	1	1746	5	1349	380	3925
30	1	1	1775	5	1348	380	3926
31	1	1	1857	5	1347	380	3926
32	1	1	1950	6	1346	379	3925
33	1	1	2076	5	1344	379	3926
34	1	1	2202	5	1346	380	3926
35	1	1	2288	5	1344	379	3925
36	1	1	2339	5	1345	380	3926
37	1	1	2356	5	1343	379	3925
38	1	1	2329	4	1341	381	3924
39	1	1	2285	4	1341	379	3925
40	1	1	2234	4	1342	380	3925
41	1	1	2166	4	1342	380	3925
42	1	1	2098	5	1342	379	3925
43	1	1	2024	4	1343	379	3926
44	1	1	1946	4	1345	379	3926
45	1	1	1871	4	1344	380	3925
46	1	1	1817	4	1347	380	3926
47	1	1	1784	4	1347	380	3925
48	1	1	1762	5	1348	379	3925
49	1	1	1743	4	1347	380	3925
50	1	1	1773	5	1348	380	3926
51	1	1	1854	5	1347	380	3926
52	1	1	1955	5	1346	379	3925
53	1	1	2082	5	1345	380	3924
54	1	1	2201	5	1345	379	3926
55	1	1	2282	5	1344	380	3925
56	1	1	2260	5	1344	380	3926
57	1	1	2285	5	1342	380	3925
58	1	1	2294	5	1342	380	3925
59	1	1	2270	5	1343	380	3925
60	1	1	2257	5	1342	380	3926
61	1	1	2219	5	1341	379	3926
62	1	1	2134	4	1344	380	3926
63	1	1	2046	5	1343	380	3926
64	1	1	1961	5	1345	379	3926
65	1	1	1878	5	1345	379	3926
66	1	1	1815	4	1344	380	3926
67	1	1	1770	5	1346	379	3925
68	1	1	1747	4	1348	379	3926
69	1	1	1734	4	1348	380	3925
70	1	1	1767	5	1346	379	3925
71	1	1	1846	5	1346	379	3925
72	1	1	1941	5	1346	379	3925
73	1	1	2071	5	1344	379	3925
74	1	1	2191	5	1343	379	3925
75	1	1	2280	5	1344	380	3926
76	1	1	2331	5	1342	380	3926
77	1	1	2348	5	1342	380	3926
78	1	1	2320	4	1342	379	3925
79	1	1	2278	4	1341	380	3925
80	1	1	2227	4	1341	380	3926
81	1	1	2162	4	1341	379	3926
82	1	1	2097	4	1342	380	3925
83	1	1	2028	4	1342	379	3926
84	1	1	1956	4	1344	380	3925
85	1	1	1883	4	1345	379	3925
86	1	1	1825	4	1344	379	3925
87	1	1	1787	4	1345	379	3924
88	1	1	1761	4	1347	379	3925
89	1	1	1742	5	1347	379	3925
90	1	1	1777	5	1348	380	3926
91	1	1	1860	5	1345	380	3926
92	1	1	1952	5	1345	379	3925
93	1	1	2081	5	1345	379	3925
94	1	1	2204	4	1343	380	3926
95	1	1	2262	5	1343	380	3926
96	1	1	2276	5	1342	379	3926
97	1	1	2313	5	1342	380	3926
98	1	1	2317	5	1340	379	3925
99	1	1	2270	3	1340	380	3926
100	1	1	2291	5	1340	381	3926
101	1	1	2230	4	1339	380	3925
102	1	1	2144	4	1342	379	3925
103	1	1	2056	4	1343	379	3926
104	1	1	1975	4	1343	380	3926
105	1	1	1898	4	1344	379	3925
106	1	1	1836	4	1343	380	3926
107	1	1	1797	4	1346	380	3925
108	1	1	1774	4	1345	379	3925
109	1	1	1757	5	1346	379	3925
110	1	1	1788	5	1345	381	3926
111	1	1	1868	5	1346	380	3926
112	1	1	1961	5	1344	380	3925
113	1	1	2085	5	1345	379	3926
114	1	1	2205	4	1344	379	3926
115	1	1	2291	5	1342	381	3925
116	1	1	2343	5	1341	379	3926
117	1	1	2363	5	1341	379	3925
118	1	1	2335	4	1340	379	3925
119	1	1	2293	4	1340	380	3925
120	1	1	2241	4	1340	381	3925
121	1	1	2178	4	1340	380	3925
122	1	1	2114	4	1341	380	3926
123	1	1	2041	6	1341	380	3925
124	1	1	1966	4	1342	380	3925
125	1	1	1895	4	1343	380	3926
126	1	1	1838	5	1344	380	3926
127	1	1	1793	4	1343	380	3925
0	1	1	1767	4	1346	379	3926
1	1	1	1747	4	1347	379	3925
2	1	1	1781	5	1346	380	3926
3	1	1	1861	5	1346	379	3927
4	1	1	1957	5	1344	380	3925
5	1	1	2084	5	1342	380	3925
6	1	1	2206	5	1341	380	3925
7	1	1	2226	5	1340	381	3925
8	1	1	2272	5	1341	380	3926
9	1	1	2320	5	1341	380	3926
10	1	1	2321	4	1339	380	3924
11	1	1	2300	5	1339	379	3925
12	1	1	2299	4	1340	380	3925
13	1	1	2220	4	1340	380	3926
14	1	1	2139	4	1341	380	3925
15	1	1	2054	4	1342	379	3926
16	1	1	1970	4	1342	380	3926
17	1	1	1891	4	1342	380	3926
18	1	1	1830	4	1344	379	3927
19	1	1	1789	4	1345	379	3925
20	1	1	1764	4	1344	380	3925
21	1	1	1747	4	1345	379	3926
22	1	1	1783	5	1346	380	3926
23	1	1	1869	5	1344	379	3926
24	1	1	1967	5	1344	380	3926
25	1	1	2097	7	1343	380	3925
26	1	1	2217	5	1341	380	3925
27	1	1	2297	5	1342	380	3925
28	1	1	2344	5	1341	380	3926
29	1	1	2357	5	1339	380	3925
30	1	1	2333	4	1340	380	3925
31	1	1	2293	4	1339	380	3925
32	1	1	2242	4	1339	380	3925
33	1	1	2174	4	1338	380	3926
34	1	1	2107	4	1340	380	3926
35	1	1	2030	4	1341	380	3925
36	1	1	1958	4	1340	380	3926
37	1	1	1884	4	1342	380	3927
38	1	1	1821	4	1342	379	3926
39	1	1	1784	4	1345	380	3926
40	1	1	1759	5	1346	380	3925
41	1	1	1740	4	1345	377	3925
42	1	1	1774	5	1345	380	3925
43	1	1	1852	5	1344	379	3926
44	1	1	1945	5	1343	380	3925
45	1	1	2077	5	1343	379	3926
46	1	1	2184	4	1341	380	3925
47	1	1	2214	5	1341	380	3925
48	1	1	2282	5	1340	380	3926
49	1	1	2332	5	1340	380	3925
50	1	1	2325	4	1339	380	3925
51	1	1	2344	5	1339	380	3925
52	1	1	2305	4	1339	380	3926
53	1	1	2220	4	1340	379	3926
54	1	1	2129	4	1341	380	3927
55	1	1	2034	4	1341	380	3926
56	1	1	1946	4	1342	380	3926
57	1	1	1872	4	1343	380	3926
58	1	1	1814	4	1344	380	3926
59	1	1	1778	4	1343	380	3925
60	1	1	1756	4	1345	379	3925
61	1	1	1743	4	1345	380	3925
62	1	1	1780	5	1344	380	3925
63	1	1	1863	5	1343	379	3926
64	1	1	1957	5	1342	380	3925
65	1	1	2086	5	1341	379	3925
66	1	1	2209	5	1341	381	3925
67	1	1	2291	5	1340	380	3927
68	1	1	2348	5	1340	380	3927
69	1	1	2364	5	1339	380	3926
70	1	1	2335	4	1340	380	3927
71	1	1	2293	4	1338	380	3926
72	1	1	2237	4	1338	380	3926
73	1	1	2171	4	1338	379	3926
74	1	1	2109	4	1339	380	3925
75	1	1	2036	4	1340	380	3925
76	1	1	1959	5	1341	380	3925
77	1	1	1885	4	1341	380	3925
78	1	1	1826	4	1343	379	3926
79	1	1	1788	4	1343	380	3926
80	1	1	1762	4	1344	380	3925
81	1	1	1741	6	1345	380	3926
82	1	1	1774	5	1345	380	3926
83	1	1	1858	5	1342	380	3926
84	1	1	1956	5	1342	380	3926
85	1	1	2086	5	1342	380	3926
86	1	1	2159	5	1341	380	3926
87	1	1	2226	4	1340	380	3926
88	1	1	2299	5	1340	379	3926
89	1	1	2342	5	1338	380	3925
90	1	1	2313	6	1338	379	3925
91	1	1	2350	4	1337	380	3925
92	1	1	2292	4	1338	380	3925
93	1	1	2206	4	1337	379	3925
94	1	1	2121	4	1341	380	3925
95	1	1	2038	4	1340	380	3925
96	1	1	1955	4	1341	380	3925
97	1	1	1878	4	1342	380	3925
98	1	1	1820	4	1341	380	3926
99	1	1	1780	4	1342	380	3926
100	1	1	1754	4	1344	380	3925
101	1	1	1735	4	1345	379	3925
102	1	1	1769	5	1344	380	3927
103	1	1	1854	5	1344	379	3927
104	1	1	1949	5	1343	380	3926
105	1	1	2081	5	1341	380	3927
106	1	1	2204	5	1342	379	3926
107	1	1	2288	5	1340	380	3925
108	1	1	2339	5	1339	380	3926
109	1	1	2356	5	1338	379	3925
110	1	1	2329	4	1338	380	3926
111	1	1	2286	4	1338	380	3925
112	1	1	2231	4	1337	380	3925
113	1	1	2166	4	1339	379	3926
114	1	1	2101	4	1339	380	3927
115	1	1	2023	5	1339	380	3925
116	1	1	1940	4	1340	381	3926
117	1	1	1863	4	1341	380	3926
118	1	1	1804	4	1341	379	3926
119	1	1	1766	4	1341	380	3926
120	1	1	1738	4	1342	380	3926
121	1	1	1719	4	1343	380	3926
122	1	1	1753	4	1343	380	3925
123	1	1	1840	5	1342	379	3926
124	1	1	1935	5	1342	380	3925
125	1	1	2065	5	1340	380	3925
126	1	1	2118	5	1341	380	3925
127	1	1	2214	5	1340	380	3925
0	1	1	2296	5	1339	380	3926
1	1	1	2331	6	1337	380	3925
2	1	1	2348	5	1338	379	3926
3	1	1	2346	4	1337	380	3926
4	1	1	2278	4	1338	380	3925
5	1	1	2194	4	1339	380	3927
6	1	1	2112	4	1338	380	3926
7	1	1	2030	4	1340	380	3926
8	1	1	1951	4	1340	380	3926
9	1	1	1876	4	1341	380	3926
10	1	1	1816	5	1341	379	3926
11	1	1	1780	4	1342	380	3925
12	1	1	1756	3	1343	380	3925
13	1	1	1739	4	1343	380	3925
14	1	1	1776	5	1343	380	3925
15	1	1	1860	4	1343	380	3926
16	1	1	1954	5	1343	380	3926
17	1	1	2083	5	1340	380	3925
18	1	1	2203	5	1339	380	3926
19	1	1	2296	5	1340	380	3926
20	1	1	2352	5	1337	379	3926
21	1	1	2369	5	1338	380	3926
22	1	1	2344	4	1337	381	3925
23	1	1	2301	4	1338	380	3926
24	1	1	2246	4	1338	380	3927
25	1	1	2174	4	1339	379	3926
26	1	1	2103	4	1338	380	3925
27	1	1	2032	4	1338	380	3925
28	1	1	1956	4	1341	380	3925
29	1	1	1882	4	1341	380	3925
30	1	1	1824	4	1340	379	3926
31	1	1	1782	4	1342	380	3925
32	1	1	1757	4	1343	380	3925
33	1	1	1734	5	1342	380	3925
34	1	1	1768	5	1343	380	3925
35	1	1	1854	5	1342	379	3926
36	1	1	1954	5	1342	380	3925
37	1	1	2055	5	1341	380	3927
38	1	1	2136	5	1340	380	3926
39	1	1	2244	5	1339	380	3925
40	1	1	2326	5	1339	379	3927
41	1	1	2340	4	1338	380	3926
42	1	1	2385	5	1336	379	3925
43	1	1	2347	4	1337	380	3926
44	1	1	2276	4	1338	380	3926
45	1	1	2191	4	1338	379	3926
46	1	1	2112	4	1338	380	3925
47	1	1	2030	4	1339	380	3925
48	1	1	1950	4	1340	380	3925
49	1	1	1874	4	1340	380	3925
50	1	1	1815	4	1342	380	3925
51	1	1	1775	4	1341	380	3925
52	1	1	1745	4	1342	380	3925
53	1	1	1724	5	1343	380	3925
54	1	1	1759	5	1343	380	3925
55	1	1	1843	5	1341	379	3926
56	1	1	1944	5	1342	380	3925
57	1	1	2077	5	1340	380	3927
58	1	1	2200	5	1341	379	3925
59	1	1	2284	5	1340	380	3926
60	1	1	2337	5	1340	380	3927
61	1	1	2352	5	1337	379	3925
62	1	1	2325	4	1337	380	3926
63	1	1	2278	4	1337	380	3926
64	1	1	2224	4	1338	380	3926
65	1	1	2159	4	1338	379	3925
66	1	1	2090	4	1337	380	3925
67	1	1	2015	3	1339	380	3925
68	1	1	1939	4	1340	379	3925
69	1	1	1867	4	1341	380	3925
70	1	1	1811	4	1340	379	3926
71	1	1	1769	4	1342	380	3925
72	1	1	1741	5	1342	380	3925
73	1	1	1723	5	1344	380	3926
74	1	1	1757	5	1343	380	3926
75	1	1	1845	5	1343	379	3926
76	1	1	1949	4	1342	380	3927
77	1	1	2030	5	1339	380	3925
78	1	1	2137	5	1340	380	3926
79	1	1	2245	5	1340	380	3926
80	1	1	2319	5	1339	379	3926
81	1	1	2353	4	1338	380	3926
82	1	1	2336	4	1336	380	3925
83	1	1	2300	5	1337	380	3925
84	1	1	2246	4	1337	380	3926
85	1	1	2171	4	1338	380	3926
86	1	1	2100	4	1337	380	3925
87	1	1	2025	4	1339	380	3925
88	1	1	1949	4	1339	381	3926
89	1	1	1875	4	1340	380	3926
90	1	1	1814	4	1341	379	3925
91	1	1	1758	4	1340	379	3925
92	1	1	1729	5	1342	380	3925
93	1	1	1789	5	1342	380	3925
94	1	1	1819	5	1342	380	3926
95	1	1	1883	5	1343	380	3926
96	1	1	1963	5	1341	380	3925
97	1	1	2081	5	1340	380	3926
98	1	1	2205	4	1339	380	3925
99	1	1	2291	5	1337	380	3925
100	1	1	2342	5	1337	379	3926
101	1	1	2358	5	1338	380	3925
102	1	1	2327	5	1336	380	3925
103	1	1	2285	4	1337	379	3925
104	1	1	2229	4	1336	380	3926
105	1	1	2154	4	1336	379	3926
106	1	1	2081	3	1338	380	3927
107	1	1	2005	5	1338	379	3926
108	1	1	1927	4	1338	380	3926
109	1	1	1852	4	1339	380	3926
110	1	1	1792	4	1341	378	3926
111	1	1	1754	4	1342	379	3925
112	1	1	1729	4	1342	380	3925
113	1	1	1709	5	1343	380	3925
114	1	1	1745	5	1344	379	3925
115	1	1	1831	5	1342	380	3925
116	1	1	1936	5	1342	380	3925
117	1	1	2004	5	1340	380	3926
118	1	1	2141	5	1339	380	3925
119	1	1	2262	5	1339	380	3925
120	1	1	2335	5	1337	380	3926
121	1	1	2382	5	1338	380	3926
122	1	1	2401	4	1336	380	3925
123	1	1	2348	5	1337	380	3925
124	1	1	2277	4	1336	380	3925
125	1	1	2190	4	1336	379	3926
126	1	1	2115	4	1338	380	3925
127	1	1	2035	4	1338	381	3925
0	1	1	1953	5	1338	380	3925
1	1	1	1870	4	1341	380	3925
2	1	1	1806	4	1341	380	3926
3	1	1	1765	4	1341	380	3925
4	1	1	1736	4	1342	379	3925
5	1	1	1715	4	1341	380	3925
6	1	1	1750	5	1344	380	3926
7	1	1	1838	5	1341	380	3925
8	1	1	1943	5	1341	380	3925
9	1	1	2084	5	1340	381	3925
10	1	1	2217	5	1339	381	3926
11	1	1	2306	4	1338	379	3925
12	1	1	2360	5	1338	380	3926
13	1	1	2377	5	1336	379	3926
14	1	1	2352	5	1337	380	3926
15	1	1	2312	6	1336	379	3925
16	1	1	2251	4	1336	380	3925
17	1	1	2175	4	1338	380	3927
18	1	1	2104	4	1336	380	3925
19	1	1	2024	4	1337	380	3926
20	1	1	1948	4	1339	380	3926
21	1	1	1869	4	1339	380	3925
22	1	1	1809	4	1340	380	3926
23	1	1	1765	4	1341	380	3925
24	1	1	1733	5	1342	380	3925
25	1	1	1711	4	1343	380	3925
26	1	1	1753	5	1343	380	3925
27	1	1	1844	5	1342	380	3926
28	1	1	1922	4	1342	380	3927
29	1	1	2014	5	1341	379	3926
30	1	1	2169	5	1340	380	3926
31	1	1	2292	5	1337	379	3927
32	1	1	2350	5	1338	379	3926
33	1	1	2422	5	1337	380	3925
34	1	1	2408	4	1336	381	3925
35	1	1	2357	4	1337	380	3925
36	1	1	2287	4	1336	380	3924
37	1	1	2197	4	1337	379	3926
38	1	1	2112	4	1337	380	3925
39	1	1	2024	5	1338	379	3925
40	1	1	1942	5	1339	379	3925
41	1	1	1857	4	1339	380	3925
42	1	1	1795	4	1341	380	3926
43	1	1	1752	4	1339	379	3925
44	1	1	1720	4	1342	379	3926
45	1	1	1697	5	1342	380	3926
46	1	1	1739	4	1341	380	3926
47	1	1	1834	5	1341	380	3926
48	1	1	1946	4	1340	379	3926
49	1	1	2090	5	1339	380	3927
50	1	1	2224	4	1340	380	3926
51	1	1	2319	5	1338	380	3925
52	1	1	2373	5	1337	380	3926
53	1	1	2391	5	1338	380	3925
54	1	1	2378	5	1336	380	3926
55	1	1	2346	4	1336	380	3926
56	1	1	2283	3	1337	380	3925
57	1	1	2200	4	1338	380	3926
58	1	1	2113	4	1338	380	3925
59	1	1	2020	4	1338	380	3927
60	1	1	1933	4	1339	380	3927
61	1	1	1851	4	1340	380	3926
62	1	1	1786	4	1339	380	3927
63	1	1	1741	4	1341	380	3926
64	1	1	1709	4	1342	379	3926
65	1	1	1685	5	1342	380	3926
66	1	1	1728	4	1341	380	3925
67	1	1	1825	5	1341	380	3926
68	1	1	1880	5	1340	380	3925
69	1	1	2017	5	1340	380	3925
70	1	1	2185	6	1339	380	3926
71	1	1	2310	5	1337	380	3926
72	1	1	2375	5	1337	380	3926
73	1	1	2458	4	1337	380	3925
74	1	1	2429	4	1336	380	3925
75	1	1	2374	5	1337	380	3926
76	1	1	2293	5	1336	380	3926
77	1	1	2202	4	1336	380	3926
78	1	1	2119	4	1337	380	3926
79	1	1	2029	4	1338	380	3927
80	1	1	1936	4	1339	380	3927
81	1	1	1846	4	1340	380	3926
82	1	1	1776	4	1340	380	3926
83	1	1	1738	3	1341	380	3927
84	1	1	1705	4	1341	380	3926
85	1	1	1675	4	1341	380	3925
86	1	1	1718	5	1342	380	3926
87	1	1	1819	5	1340	380	3926
88	1	1	1937	5	1340	380	3926
89	1	1	2086	5	1339	380	3925
90	1	1	2227	5	1338	380	3925
91	1	1	2321	5	1338	380	3927
92	1	1	2378	5	1337	379	3926
93	1	1	2397	5	1337	379	3926
94	1	1	2373	5	1335	380	3925
95	1	1	2332	4	1335	380	3926
96	1	1	2272	4	1337	380	3927
97	1	1	2185	4	1335	379	3926
98	1	1	2104	4	1338	380	3926
99	1	1	2017	4	1337	380	3927
100	1	1	1927	4	1339	380	3927
101	1	1	1842	4	1339	380	3926
102	1	1	1779	4	1340	380	3926
103	1	1	1735	3	1340	380	3926
104	1	1	1700	4	1343	380	3925
105	1	1	1672	4	1339	381	3925
106	1	1	1716	5	1342	380	3925
107	1	1	1811	5	1341	379	3926
108	1	1	1861	4	1340	380	3925
109	1	1	2027	5	1339	380	3925
110	1	1	2204	5	1339	380	3926
111	1	1	2321	5	1338	380	3926
112	1	1	2419	5	1337	380	3927
113	1	1	2464	5	1336	379	3926
114	1	1	2431	4	1334	380	3926
115	1	1	2377	4	1335	380	3926
116	1	1	2305	4	1337	380	3927
117	1	1	2213	4	1336	380	3926
118	1	1	2127	4	1337	380	3925
119	1	1	2035	4	1337	380	3925
120	1	1	1942	4	1339	380	3925
121	1	1	1857	5	1340	380	3926
122	1	1	1791	4	1340	380	3926
123	1	1	1748	4	1340	380	3927
124	1	1	1713	4	1342	380	3925
125	1	1	1686	4	1341	380	3925
126	1	1	1730	4	1342	380	3926
127	1	1	1837	5	1341	380	3926
0	1	1	1957	4	1340	379	3925
1	1	1	2108	5	1338	380	3926
2	1	1	2248	5	1338	380	3927
3	1	1	2343	4	1338	380	3926
4	1	1	2400	5	1337	380	3926
5	1	1	2416	5	1335	380	3925
6	1	1	2399	5	1335	380	3925
7	1	1	2359	4	1336	380	3925
8	1	1	2296	4	1336	380	3926
9	1	1	2212	4	1336	379	3925
10	1	1	2132	4	1337	380	3925
11	1	1	2040	4	1337	380	3925
12	1	1	1948	4	1337	380	3926
13	1	1	1861	4	1340	380	3925
14	1	1	1792	4	1339	379	3926
15	1	1	1748	4	1340	380	3925
16	1	1	1717	4	1341	380	3926
17	1	1	1691	4	1341	380	3926
18	1	1	1738	5	1341	380	3926
19	1	1	1797	5	1341	380	3926
20	1	1	1882	4	1341	380	3927
21	1	1	2062	5	1339	380	3925
22	1	1	2232	4	1339	381	3925
23	1	1	2333	5	1337	380	3925
24	1	1	2468	5	1338	380	3926
25	1	1	2487	5	1337	380	3925
26	1	1	2443	4	1335	379	3925
27	1	1	2388	4	1335	380	3925
28	1	1	2314	4	1336	380	3925
29	1	1	2221	4	1336	380	3926
30	1	1	2134	4	1337	380	3925
31	1	1	2045	4	1339	380	3925
32	1	1	1956	4	1338	380	3925
33	1	1	1867	4	1339	380	3925
34	1	1	1800	4	1341	380	3926
35	1	1	1754	4	1341	380	3926
36	1	1	1718	4	1343	380	3926
37	1	1	1687	4	1341	380	3926
38	1	1	1733	4	1342	380	3926
39	1	1	1837	5	1341	380	3926
40	1	1	1958	5	1340	380	3925
41	1	1	2108	5	1340	380	3926
42	1	1	2249	5	1339	380	3926
43	1	1	2348	5	1338	380	3926
44	1	1	2409	5	1338	379	3925
45	1	1	2428	5	1336	379	3925
46	1	1	2404	4	1336	379	3925
47	1	1	2364	4	1337	380	3925
48	1	1	2296	4	1336	380	3926
49	1	1	2211	4	1337	380	3926
50	1	1	2131	4	1336	380	3925
51	1	1	2035	4	1338	380	3926
52	1	1	1941	5	1339	380	3926
53	1	1	1856	4	1340	380	3926
54	1	1	1791	4	1340	380	3926
55	1	1	1746	4	1340	379	3925
56	1	1	1713	4	1342	380	3926
57	1	1	1690	5	1342	380	3926
58	1	1	1740	5	1342	380	3925
59	1	1	1775	5	1341	379	3926
60	1	1	1893	5	1339	380	3925
61	1	1	2073	5	1340	380	3925
62	1	1	2240	5	1338	379	3923
63	1	1	2358	5	1339	379	3926
64	1	1	2461	5	1338	379	3926
65	1	1	2467	5	1337	379	3925
66	1	1	2428	5	1337	380	3925
67	1	1	2386	5	1336	379	3926
68	1	1	2316	4	1337	379	3926
69	1	1	2225	4	1336	380	3926
70	1	1	2138	4	1337	379	3925
71	1	1	2039	4	1339	380	3925
72	1	1	1944	4	1339	379	3925
73	1	1	1854	3	1339	380	3926
74	1	1	1785	4	1340	380	3925
75	1	1	1742	4	1340	379	3925
76	1	1	1710	4	1342	380	3926
77	1	1	1688	4	1342	380	3925
78	1	1	1732	4	1342	380	3925
79	1	1	1832	5	1340	380	3926
80	1	1	1953	6	1342	379	3925
81	1	1	2109	5	1339	379	3926
82	1	1	2254	4	1340	380	3926
83	1	1	2352	5	1340	380	3926
84	1	1	2414	5	1339	380	3927
85	1	1	2435	6	1337	379	3926
86	1	1	2408	3	1336	380	3926
87	1	1	2366	4	1336	380	3925
88	1	1	2301	3	1337	380	3925
89	1	1	2214	4	1338	380	3925
90	1	1	2129	4	1337	379	3925
91	1	1	2036	4	1339	379	3925
92	1	1	1940	4	1340	380	3925
93	1	1	1853	4	1341	380	3926
94	1	1	1788	4	1341	380	3925
95	1	1	1746	4	1341	379	3925
96	1	1	1709	4	1343	380	3926
97	1	1	1678	5	1343	380	3926
98	1	1	1709	4	1343	380	3926
99	1	1	1755	4	1342	380	3925
100	1	1	1891	6	1341	380	3925
101	1	1	2074	5	1340	380	3926
102	1	1	2232	5	1340	380	3926
103	1	1	2377	5	1338	379	3926
104	1	1	2456	5	1338	380	3926
105	1	1	2464	5	1339	380	3925
106	1	1	2430	4	1338	380	3925
107	1	1	2383	4	1337	380	3925
108	1	1	2307	4	1337	379	3924
109	1	1	2214	4	1337	380	3925
110	1	1	2127	4	1339	380	3925
111	1	1	2033	4	1339	380	3925
112	1	1	1942	4	1340	379	3925
113	1	1	1853	3	1340	380	3925
114	1	1	1787	4	1341	380	3925
115	1	1	1744	4	1342	380	3925
116	1	1	1706	4	1343	380	3925
117	1	1	1676	4	1343	380	3926
118	1	1	1718	4	1343	380	3926
119	1	1	1815	5	1344	380	3927
120	1	1	1940	4	1343	380	3925
121	1	1	2095	5	1341	380	3926
122	1	1	2240	5	1340	379	3926
123	1	1	2339	5	1341	380	3925
124	1	1	2402	5	1338	380	3925
125	1	1	2418	5	1339	380	3926
126	1	1	2388	4	1337	379	3925
127	1	1	2347	4	1338	380	3925
0	1	1	2279	4	1339	380	3926
1	1	1	2190	4	1338	380	3926
2	1	1	2106	4	1339	381	3925
3	1	1	2015	3	1339	380	3925
4	1	1	1923	4	1340	380	3926
5	1	1	1837	3	1342	380	3926
6	1	1	1767	4	1341	380	3926
7	1	1	1724	4	1342	380	3926
8	1	1	1689	4	1344	379	3926
9	1	1	1660	4	1345	379	3927
10	1	1	1657	4	1345	380	3926
11	1	1	1744	5	1343	380	3926
12	1	1	1891	5	1343	380	3926
13	1	1	2075	5	1342	379	3925
14	1	1	2218	5	1341	380	3925
15	1	1	2389	5	1340	380	3926
16	1	1	2443	5	1340	380	3926
17	1	1	2439	5	1339	379	3925
18	1	1	2406	4	1337	379	3925
19	1	1	2357	4	1338	380	3926
20	1	1	2287	3	1338	380	3926
21	1	1	2199	4	1339	379	3926
22	1	1	2107	4	1340	380	3925
23	1	1	2013	4	1340	380	3927
24	1	1	1921	3	1341	380	3926
25	1	1	1832	3	1342	380	3926
26	1	1	1764	4	1343	380	3926
27	1	1	1718	4	1345	380	3925
28	1	1	1680	4	1345	379	3925
29	1	1	1653	5	1345	379	3925
30	1	1	1701	3	1345	379	3925
31	1	1	1806	5	1345	379	3924
32	1	1	1928	5	1344	380	3925
33	1	1	2090	5	1341	380	3925
34	1	1	2233	5	1343	380	3925
35	1	1	2331	4	1340	380	3926
36	1	1	2388	5	1340	379	3926
37	1	1	2408	5	1338	380	3925
38	1	1	2386	4	1338	380	3925
39	1	1	2348	4	1338	380	3926
40	1	1	2279	3	1338	380	3926
41	1	1	2192	4	1339	380	3927
42	1	1	2102	4	1340	380	3925
43	1	1	2011	4	1341	379	3926
44	1	1	1921	5	1343	380	3926
45	1	1	1831	3	1342	380	3925
46	1	1	1763	4	1343	379	3926
47	1	1	1719	4	1344	380	3925
48	1	1	1687	4	1345	380	3925
49	1	1	1663	4	1346	380	3926
50	1	1	1650	3	1345	380	3925
51	1	1	1762	5	1345	380	3925
52	1	1	1902	5	1344	379	3925
53	1	1	2077	5	1339	380	3923
54	1	1	2254	5	1343	380	3925
55	1	1	2394	4	1341	380	3926
56	1	1	2447	5	1341	380	3927
57	1	1	2446	5	1341	380	3926
58	1	1	2409	4	1339	380	3926
59	1	1	2361	4	1340	380	3927
60	1	1	2285	4	1340	379	3926
61	1	1	2196	4	1341	380	3925
62	1	1	2110	4	1342	380	3926
63	1	1	2021	4	1341	379	3925
64	1	1	1929	4	1342	380	3925
65	1	1	1837	4	1343	380	3926
66	1	1	1765	4	1343	380	3925
67	1	1	1720	4	1344	380	3925
68	1	1	1684	4	1346	379	3925
69	1	1	1657	4	1346	380	3925
70	1	1	1704	4	1346	379	3926
71	1	1	1811	5	1344	379	3925
72	1	1	1930	5	1344	379	3925
73	1	1	2090	5	1342	379	3925
74	1	1	2240	5	1342	380	3925
75	1	1	2344	3	1342	380	3926
76	1	1	2409	5	1342	380	3926
77	1	1	2430	5	1341	380	3925
78	1	1	2411	4	1341	379	3926
79	1	1	2371	4	1340	380	3926
80	1	1	2296	4	1341	380	3926
81	1	1	2203	4	1342	380	3926
82	1	1	2118	4	1342	380	3925
83	1	1	2022	4	1343	380	3925
84	1	1	1927	4	1344	380	3925
85	1	1	1837	4	1345	379	3926
86	1	1	1767	4	1345	379	3925
87	1	1	1724	5	1345	380	3925
88	1	1	1688	4	1346	380	3925
89	1	1	1633	4	1347	379	3925
90	1	1	1644	4	1344	380	3926
91	1	1	1764	5	1344	379	3926
92	1	1	1911	5	1345	380	3925
93	1	1	2074	5	1343	380	3925
94	1	1	2278	5	1343	379	3926
95	1	1	2391	5	1342	379	3926
96	1	1	2435	5	1341	380	3925
97	1	1	2442	5	1343	380	3926
98	1	1	2410	4	1341	380	3925
99	1	1	2366	4	1342	380	3925
100	1	1	2296	4	1342	380	3926
101	1	1	2206	4	1341	379	3925
102	1	1	2121	4	1341	380	3926
103	1	1	2031	4	1343	380	3926
104	1	1	1934	4	1343	380	3926
105	1	1	1844	4	1345	380	3926
106	1	1	1775	4	1345	379	3926
107	1	1	1730	4	1344	380	3926
108	1	1	1688	5	1346	379	3926
109	1	1	1653	5	1347	380	3925
110	1	1	1703	5	1347	380	3926
111	1	1	1809	5	1347	380	3926
112	1	1	1929	5	1345	379	3925
113	1	1	2092	5	1345	379	3926
114	1	1	2244	5	1345	380	3926
115	1	1	2347	4	1343	380	3926
116	1	1	2406	5	1343	380	3925
117	1	1	2424	5	1343	380	3925
118	1	1	2400	4	1341	380	3925
119	1	1	2363	4	1342	380	3925
120	1	1	2296	4	1342	380	3925
121	1	1	2206	4	1342	380	3925
122	1	1	2118	5	1342	380	3926
123	1	1	2019	4	1343	380	3926
124	1	1	1923	4	1343	380	3926
125	1	1	1835	4	1345	380	3926
126	1	1	1765	4	1346	379	3926
127	1	1	1721	4	1346	380	3926
0	1	1	1684	3	1348	380	3925
1	1	1	1600	4	1349	379	3925
2	1	1	1638	5	1349	380	3926
3	1	1	1772	4	1346	380	3925
4	1	1	1917	5	1346	380	3925
5	1	1	2082	5	1344	379	3926
6	1	1	2293	5	1345	379	3926
7	1	1	2392	5	1344	379	3926
8	1	1	2438	5	1344	379	3926
9	1	1	2444	5	1342	380	3925
10	1	1	2413	4	1341	380	3925
11	1	1	2373	4	1341	379	3925
12	1	1	2301	4	1343	380	3926
13	1	1	2206	4	1341	380	3926
14	1	1	2114	4	1344	379	3925
15	1	1	2014	4	1344	380	3925
16	1	1	1921	4	1343	380	3926
17	1	1	1836	4	1345	380	3925
18	1	1	1767	4	1346	379	3925
19	1	1	1726	4	1349	380	3926
20	1	1	1694	4	1349	379	3925
21	1	1	1666	5	1349	379	3925
22	1	1	1715	4	1349	380	3926
23	1	1	1818	5	1348	380	3925
24	1	1	1936	5	1347	380	3926
25	1	1	2097	5	1346	380	3925
26	1	1	2241	5	1346	380	3926
27	1	1	2349	5	1344	380	3926
28	1	1	2417	5	1344	380	3926
29	1	1	2436	5	1343	380	3926
30	1	1	2413	5	1343	379	3926
31	1	1	2371	4	1342	380	3926
32	1	1	2298	4	1343	380	3926
33	1	1	2205	4	1344	380	3926
34	1	1	2116	4	1344	380	3925
35	1	1	2024	4	1344	380	3925
36	1	1	1928	4	1346	380	3925
37	1	1	1837	4	1347	379	3926
38	1	1	1770	4	1347	380	3926
39	1	1	1726	4	1348	379	3925
40	1	1	1684	4	1349	379	3926
41	1	1	1597	4	1349	380	3926
42	1	1	1660	5	1349	380	3926
43	1	1	1794	5	1349	380	3926
44	1	1	1929	5	1347	380	3925
45	1	1	2133	5	1347	379	3926
46	1	1	2304	5	1346	379	3925
47	1	1	2394	5	1346	380	3926
48	1	1	2440	5	1344	380	3925
49	1	1	2445	5	1345	379	3925
50	1	1	2418	4	1343	380	3925
51	1	1	2378	4	1344	380	3925
52	1	1	2298	4	1344	379	3925
53	1	1	2205	4	1343	379	3925
54	1	1	2120	4	1346	379	3925
55	1	1	2028	3	1344	380	3925
56	1	1	1932	4	1347	380	3925
57	1	1	1843	4	1348	380	3926
58	1	1	1776	4	1347	379	3925
59	1	1	1728	4	1349	380	3925
60	1	1	1694	4	1348	380	3925
61	1	1	1666	4	1350	380	3926
62	1	1	1718	5	1350	379	3926
63	1	1	1824	4	1348	380	3926
64	1	1	1943	5	1350	379	3927
65	1	1	2102	5	1348	381	3925
66	1	1	2246	5	1347	379	3925
67	1	1	2350	5	1347	380	3926
68	1	1	2411	5	1347	380	3926
69	1	1	2432	4	1347	380	3926
70	1	1	2409	4	1345	380	3925
71	1	1	2373	4	1345	379	3925
72	1	1	2306	4	1345	380	3926
73	1	1	2217	4	1345	379	3925
74	1	1	2129	4	1346	380	3925
75	1	1	2037	4	1345	379	3925
76	1	1	1943	4	1347	379	3926
77	1	1	1856	4	1347	380	3926
78	1	1	1784	4	1348	380	3927
79	1	1	1738	4	1348	379	3925
80	1	1	1663	5	1350	380	3926
81	1	1	1605	4	1350	379	3925
82	1	1	1674	5	1350	380	3926
83	1	1	1807	5	1351	380	3925
84	1	1	1926	5	1348	379	3925
85	1	1	2160	4	1347	380	3925
86	1	0	2308	5	1347	379	3925
87	1	0	2392	5	1347	380	3925
88	1	0	2437	5	1346	379	3925
89	1	0	2446	5	1346	379	3925
90	1	0	2417	3	1345	379	3925
91	1	0	2375	4	1346	379	3925
92	1	0	2303	4	1345	380	3926
93	1	0	2214	4	1346	379	3926
94	1	0	2130	4	1346	380	3927
95	1	0	2031	4	1346	380	3925
96	1	0	1929	4	1348	379	3926
97	1	0	1838	4	1350	380	3927
98	1	0	1767	4	1349	380	3925
99	1	0	1724	4	1350	379	3925
100	1	0	1683	5	1352	379	3925
101	1	0	1655	5	1352	380	3925
102	1	0	1705	5	1351	380	3925
103	1	0	1813	6	1352	380	3925
104	1	0	1940	5	1349	380	3925
105	1	0	2102	4	1349	380	3925
106	1	0	2246	5	1349	380	3925
107	1	0	2347	5	1348	380	3926
108	1	0	2408	5	1348	379	3925
109	1	0	2427	5	1347	379	3925
110	1	0	2406	4	1346	380	3925
111	1	0	2374	4	1347	379	3926
112	1	0	2306	4	1347	380	3926
113	1	0	2215	4	1347	380	3926
114	1	0	2123	4	1347	380	3925
115	1	0	2022	3	1349	380	3925
116	1	0	1923	4	1348	380	3926
117	1	0	1828	4	1349	380	3926
118	0	0	1751	4	1350	380	3924
119	0	0	1691	4	1352	380	3926
120	0	0	1591	4	1352	380	3924
121	0	0	1570	5	1353	379	3925
122	0	0	1658	5	1353	380	3926
123	0	0	1795	5	1354	380	3929
124	0	0	1934	5	1351	380	3924
125	0	0	2144	5	1351	379	3926
126	0	0	2287	5	1350	379	3925
127	0	0	2381	5	1350	380	3926
0	0	0	2435	5	1348	379	3925
1	0	0	2453	5	1347	380	3926
2	0	0	2429	5	1348	379	3925
3	0	0	2389	4	1348	379	3925
4	0	0	2315	4	1347	380	3925
5	0	0	2222	4	1348	379	3926
6	0	0	2127	4	1349	379	3925
7	0	0	2030	4	1349	380	3926
8	0	0	1932	4	1350	380	3926
9	0	0	1841	4	1351	380	3925
10	0	0	1771	4	1351	379	3925
11	0	0	1728	4	1352	379	3924
12	0	0	1690	4	1354	380	3924
13	0	0	1658	5	1354	379	3925
14	0	0	1705	5	1353	380	3925
15	0	0	1811	5	1353	380	3926
16	0	0	1937	4	1352	379	3926
17	0	0	2106	5	1351	381	3926
18	0	0	2259	5	1351	379	3926
19	0	0	2364	5	1351	380	3926
20	0	0	2421	5	1349	379	3926
21	0	0	2437	5	1349	380	3925
22	0	0	2414	5	1348	379	3925
23	0	0	2376	4	1349	379	3925
24	0	0	2304	4	1347	380	3925
25	0	0	2209	4	1348	379	3926
26	0	0	2118	4	1349	380	3925
27	0	0	2023	4	1351	380	3925
28	0	0	1928	4	1351	380	3926
29	0	0	1837	4	1351	380	3925
30	0	0	1763	4	1353	380	3926
31	0	0	1699	4	1353	380	3925
32	0	0	1610	4	1354	380	3925
33	0	0	1600	5	1353	380	3924
34	0	0	1680	5	1354	380	3926
35	0	0	1805	5	1354	379	3926
36	0	0	1978	5	1352	379	3925
37	0	0	2155	5	1351	380	3924
38	0	0	2292	5	1352	380	3925
39	0	0	2379	5	1350	380	3926
40	0	0	2432	5	1350	380	3925
41	0	0	2445	5	1349	379	3924
42	0	0	2417	5	1349	380	3925
43	0	0	2383	4	1349	380	3926
44	0	0	2311	4	1350	380	3925
45	0	0	2217	4	1350	379	3926
46	0	0	2123	5	1350	379	3925
47	0	0	2022	4	1351	379	3925
48	0	0	1925	4	1351	379	3925
49	0	0	1832	4	1351	379	3926
50	0	0	1758	4	1353	380	3926
51	0	0	1716	4	1354	380	3925
52	0	0	1677	4	1355	380	3925
53	0	0	1649	5	1355	379	3925
54	0	0	1702	5	1355	380	3926
55	0	0	1811	4	1354	380	3925
56	0	0	1938	5	1354	380	3926
57	0	0	2106	5	1353	381	3924
58	0	0	2259	5	1352	380	3924
59	0	0	2364	5	1351	379	3925
60	0	0	2426	5	1351	379	3924
61	0	0	2446	5	1350	379	3924
62	0	0	2419	4	1349	380	3924
63	0	0	2374	4	1350	379	3925
64	0	0	2298	4	1350	380	3925
65	0	0	2206	4	1349	379	3925
66	0	0	2115	4	1351	380	3925
67	0	0	2017	4	1351	380	3925
68	0	0	1920	4	1352	379	3926
69	0	0	1829	4	1353	380	3926
70	0	0	1760	4	1356	380	3927
71	0	0	1664	4	1355	379	3925
72	0	0	1607	4	1357	379	3925
73	0	0	1602	5	1356	380	3926
74	0	0	1676	5	1355	380	3925
75	0	0	1784	5	1357	380	3926
76	0	0	1980	4	1355	380	3924
77	0	0	2137	5	1354	380	3925
78	0	0	2272	5	1354	379	3925
79	0	0	2365	5	1354	379	3926
80	0	0	2425	5	1351	379	3925
81	0	0	2441	5	1352	380	3925
82	0	0	2423	5	1351	380	3925
83	0	0	2383	4	1353	380	3925
84	0	0	2306	4	1351	380	3926
85	0	0	2209	4	1352	380	3925
86	0	0	2114	4	1352	380	3927
87	0	0	2010	4	1352	381	3925
88	0	0	1910	4	1353	379	3925
89	0	0	1820	4	1354	380	3926
90	0	0	1752	4	1355	380	3925
91	0	0	1712	4	1356	380	3925
92	0	0	1677	4	1357	380	3925
93	0	0	1644	5	1357	379	3924
94	0	0	1697	5	1357	380	3925
95	0	0	1806	5	1357	380	3925
96	0	0	1930	5	1355	379	3925
97	0	0	2096	5	1356	380	3926
98	0	0	2254	5	1355	380	3926
99	0	0	2357	5	1355	380	3926
100	0	0	2416	5	1353	379	3925
101	0	0	2439	5	1352	380	3927
102	0	0	2417	5	1353	380	3925
103	0	0	2374	4	1352	380	3925
104	0	0	2298	4	1352	379	3926
105	0	0	2204	4	1353	380	3924
106	0	0	2114	4	1353	380	3925
107	0	0	2023	4	1352	380	3926
108	0	0	1922	4	1355	379	3925
109	0	0	1829	4	1356	379	3925
110	0	0	1757	4	1357	379	3924
111	0	0	1645	4	1357	379	3924
112	0	0	1617	4	1357	380	3925
113	0	0	1617	5	1359	380	3925
114	0	0	1692	5	1362	380	3926
115	0	0	1839	5	1357	380	3925
116	0	0	1999	5	1357	380	3927
117	0	0	2152	5	1357	379	3925
118	0	0	2283	5	1356	380	3925
119	0	0	2375	5	1356	379	3926
120	0	0	2429	5	1353	379	3925
121	0	0	2440	5	1352	380	3925
122	0	0	2413	4	1354	380	3925
123	0	0	2374	4	1353	379	3926
124	0	0	2302	4	1355	380	3925
125	0	0	2205	4	1353	380	3924
126	0	0	2118	4	1354	380	3924
127	0	0	2018	4	1356	379	3925
0	0	0	1916	4	1357	380	3925
1	0	0	1824	4	1356	379	3925
2	0	0	1753	4	1357	380	3925
3	0	0	1708	5	1359	380	3925
4	0	0	1674	4	1359	380	3925
5	0	0	1645	4	1360	379	3925
6	0	0	1700	5	1359	380	3926
7	0	0	1820	5	1358	380	3926
8	0	0	1942	5	1357	379	3925
9	0	0	2104	5	1357	380	3926
10	0	0	2253	5	1357	380	3926
11	0	0	2357	5	1357	380	3925
12	0	0	2424	5	1356	380	3926
13	0	0	2441	4	1353	380	3924
14	0	0	2419	5	1354	379	3925
15	0	0	2383	4	1354	380	3926
16	0	0	2308	4	1356	380	3925
17	0	0	2214	4	1356	380	3926
18	0	0	2122	3	1356	380	3925
19	0	0	2024	4	1356	380	3925
20	0	0	1927	4	1357	380	3925
21	0	0	1833	4	1359	380	3926
22	0	0	1732	4	1359	379	3925
23	0	0	1643	4	1360	379	3925
24	0	0	1622	4	1362	379	3925
25	0	0	1619	5	1362	380	3924
26	0	0	1677	5	1360	379	3925
27	0	0	1854	5	1360	379	3925
28	0	0	1988	5	1359	380	3924
29	0	0	2135	5	1358	380	3925
30	0	0	2268	5	1357	379	3925
31	0	0	2365	4	1358	380	3925
32	0	0	2423	5	1356	379	3924
33	0	0	2440	5	1356	380	3926
34	0	0	2415	4	1356	380	3925
35	0	0	2373	4	1355	380	3925
36	0	0	2301	4	1355	379	3926
37	0	0	2213	4	1357	380	3926
38	0	0	2124	4	1356	380	3925
39	0	0	2024	4	1358	380	3925
40	0	0	1927	4	1358	380	3925
41	0	0	1835	4	1360	380	3926
42	0	0	1765	4	1359	379	3925
43	0	0	1719	4	1359	379	3925
44	0	0	1679	4	1361	379	3924
45	0	0	1655	5	1361	380	3924
46	0	0	1709	5	1361	379	3925
47	0	0	1812	5	1360	379	3924
48	0	0	1932	5	1359	380	3925
49	0	0	2098	5	1360	379	3924
50	0	0	2253	5	1359	380	3925
51	0	0	2362	5	1359	380	3926
52	0	0	2428	5	1357	380	3925
53	0	0	2448	5	1357	380	3926
54	0	0	2427	4	1357	380	3925
55	0	0	2387	4	1357	379	3926
56	0	0	2314	4	1358	380	3927
57	0	0	2218	4	1358	380	3926
58	0	0	2127	3	1357	380	3926
59	0	0	2028	4	1358	380	3926
60	0	0	1922	4	1358	380	3925
61	0	0	1831	4	1360	379	3926
62	0	0	1708	4	1361	380	3925
63	0	0	1655	4	1361	380	3925
64	0	0	1639	4	1362	379	3925
65	0	0	1633	5	1364	380	3927
66	0	0	1698	5	1362	379	3925
67	0	0	1868	5	1362	380	3925
68	0	0	1988	4	1361	380	3925
69	0	0	2137	5	1361	380	3926
70	0	0	2275	5	1360	379	3926
71	0	0	2367	5	1359	380	3926
72	0	0	2423	5	1360	379	3927
73	0	0	2441	5	1357	380	3926
74	0	0	2420	4	1359	380	3925
75	0	0	2383	4	1357	380	3926
76	0	0	2319	4	1359	380	3926
77	0	0	2220	4	1359	380	3925
78	0	0	2127	4	1359	379	3925
79	0	0	2024	4	1359	380	3925
80	0	0	1923	4	1360	379	3925
81	0	0	1827	4	1362	380	3926
82	0	0	1754	4	1363	380	3925
83	0	0	1711	4	1363	379	3925
84	0	0	1672	4	1364	379	3925
85	0	0	1643	5	1364	380	3925
86	0	0	1696	4	1363	380	3926
87	0	0	1810	5	1364	380	3926
88	0	0	1935	5	1363	380	3925
89	0	0	2095	4	1361	380	3926
90	0	0	2247	5	1361	380	3927
91	0	0	2347	5	1360	379	3926
92	0	0	2407	5	1359	380	3926
93	0	0	2433	4	1360	379	3925
94	0	0	2416	4	1359	380	3925
95	0	0	2379	4	1359	380	3925
96	0	0	2308	4	1360	379	3926
97	0	0	2213	4	1359	380	3925
98	0	0	2123	4	1360	380	3926
99	0	0	2024	4	1362	380	3925
100	0	0	1919	4	1362	380	3925
101	0	0	1814	4	1362	379	3926
102	0	0	1685	4	1362	380	3925
103	0	0	1653	5	1363	380	3925
104	0	0	1641	4	1365	380	3926
105	0	0	1628	4	1365	380	3925
106	0	0	1727	5	1363	380	3926
107	0	0	1860	5	1365	380	3927
108	0	0	1973	5	1363	380	3926
109	0	0	2124	5	1362	380	3925
110	0	0	2265	5	1362	380	3926
111	0	0	2364	5	1360	380	3926
112	0	0	2427	5	1361	380	3925
113	0	0	2443	4	1360	379	3925
114	0	0	2423	4	1360	380	3925
115	0	0	2384	4	1360	379	3925
116	0	0	2308	4	1360	379	3926
117	0	0	2212	4	1361	379	3925
118	0	0	2117	4	1362	380	3925
119	0	0	2013	4	1362	380	3925
120	0	0	1920	4	1362	380	3926
121	0	0	1829	4	1363	379	3926
122	0	0	1758	4	1364	380	3926
123	0	0	1716	4	1364	380	3926
124	0	0	1678	4	1365	380	3925
125	0	0	1645	4	1366	379	3926
126	0	0	1699	5	1365	380	3926
127	0	0	1813	5	1366	380	3925
0	0	0	1939	5	1365	380	3925
1	0	0	2100	5	1363	380	3925
2	0	0	2248	5	1364	380	3925
3	0	0	2351	5	1363	379	3926
4	0	0	2412	5	1361	380	3925
5	0	0	2426	4	1361	380	3926
6	0	0	2410	5	1361	380	3926
7	0	0	2375	4	1361	380	3926
8	0	0	2306	4	1362	380	3926
9	0	0	2208	4	1361	380	3926
10	0	0	2116	4	1363	380	3926
11	0	0	2019	4	1364	380	3927
12	0	0	1916	4	1363	380	3926
13	0	0	1783	4	1365	380	3926
14	0	0	1686	4	1364	380	3925
15	0	0	1663	4	1364	380	3926
16	0	0	1651	4	1367	380	3925
17	0	0	1617	5	1366	380	3925
18	0	0	1748	5	1366	380	3926
19	0	0	1854	5	1366	380	3925
20	0	0	1961	5	1365	380	3926
21	0	0	2115	5	1365	380	3925
22	0	0	2259	5	1364	380	3925
23	0	0	2361	5	1364	379	3926
24	0	0	2422	5	1363	379	3926
25	0	0	2442	4	1362	379	3925
26	0	0	2419	4	1362	380	3926
27	0	0	2378	4	1363	380	3926
28	0	0	2303	4	1362	380	3926
29	0	0	2211	4	1364	380	3925
30	0	0	2118	3	1363	380	3925
31	0	0	2022	4	1364	380	3925
32	0	0	1927	4	1364	381	3926
33	0	0	1832	4	1364	379	3926
34	0	0	1759	4	1365	380	3925
35	0	0	1713	4	1367	380	3925
36	0	0	1674	4	1367	380	3925
37	0	0	1641	4	1368	381	3925
38	0	0	1695	5	1369	380	3926
39	0	0	1808	5	1366	380	3925
40	0	0	1938	5	1367	379	3926
41	0	0	2104	5	1367	380	3926
42	0	0	2249	5	1365	381	3926
43	0	0	2355	5	1364	380	3926
44	0	0	2420	5	1364	380	3927
45	0	0	2441	5	1364	380	3926
46	0	0	2418	4	1362	380	3925
47	0	0	2378	4	1363	381	3925
48	0	0	2308	4	1364	380	3926
49	0	0	2217	4	1363	381	3925
50	0	0	2120	4	1365	380	3925
51	0	0	2018	4	1364	380	3925
52	0	0	1917	4	1366	379	3926
53	0	0	1763	4	1365	380	3925
54	0	0	1690	5	1366	379	3925
55	0	0	1666	4	1368	380	3926
56	0	0	1646	4	1368	380	3921
57	0	0	1642	5	1369	381	3925
58	0	0	1755	5	1368	380	3926
59	0	0	1858	5	1369	380	3926
60	0	0	1964	4	1367	380	3925
61	0	0	2113	4	1367	380	3925
62	0	0	2251	5	1367	381	3926
63	0	0	2348	5	1365	379	3926
64	0	0	2408	5	1364	380	3925
65	0	0	2431	5	1365	380	3925
66	0	0	2412	5	1364	380	3925
67	0	0	2372	4	1364	380	3925
68	0	0	2300	4	1365	380	3926
69	0	0	2211	4	1365	380	3924
70	0	0	2118	4	1364	380	3925
71	0	0	2017	4	1365	380	3925
72	0	0	1919	4	1367	379	3926
73	0	0	1828	4	1367	379	3926
74	0	0	1759	4	1367	380	3925
75	0	0	1709	5	1367	379	3925
76	0	0	1667	4	1370	380	3925
77	0	0	1636	4	1369	378	3926
78	0	0	1689	5	1368	380	3926
79	0	0	1802	5	1368	380	3925
80	0	0	1929	5	1368	380	3925
81	0	0	2092	5	1368	380	3926
82	0	0	2241	5	1366	380	3926
83	0	0	2341	4	1365	379	3926
84	0	0	2404	5	1366	380	3926
85	0	0	2426	5	1365	379	3924
86	0	0	2409	4	1364	380	3925
87	0	0	2370	4	1365	380	3926
88	0	0	2297	4	1364	379	3925
89	0	0	2203	4	1366	380	3925
90	0	0	2107	4	1366	380	3926
91	0	0	2010	4	1367	380	3925
92	0	0	1897	4	1367	380	3925
93	0	0	1751	4	1367	379	3926
94	0	0	1696	4	1368	380	3925
95	0	0	1676	4	1369	380	3925
96	0	0	1647	4	1369	380	3926
97	0	0	1670	5	1371	378	3926
98	0	0	1742	5	1370	380	3926
99	0	0	1838	5	1370	380	3925
100	0	0	1949	5	1369	379	3925
101	0	0	2108	5	1368	380	3925
102	0	0	2252	5	1368	380	3926
103	0	0	2354	5	1366	380	3925
104	0	0	2417	5	1368	380	3926
105	0	0	2436	5	1366	379	3924
106	0	0	2413	4	1365	380	3925
107	0	0	2377	4	1365	380	3925
108	0	0	2303	4	1367	379	3926
109	0	0	2210	4	1366	381	3925
110	0	0	2123	4	1365	380	3926
111	0	0	2023	4	1369	381	3926
112	0	0	1915	4	1368	380	3926
113	0	0	1820	4	1368	380	3926
114	0	0	1746	4	1369	380	3925
115	0	0	1699	4	1370	380	3925
116	0	0	1660	4	1372	380	3925
117	0	0	1633	4	1371	380	3926
118	0	0	1687	5	1370	380	3925
119	0	0	1800	5	1371	380	3925
120	0	0	1923	5	1370	380	3925
121	0	0	2087	4	1369	380	3925
122	0	0	2241	5	1368	381	3925
123	0	0	2347	5	1368	380	3925
124	0	0	2408	5	1367	380	3925
125	0	0	2431	5	1367	379	3926
126	0	0	2410	4	1365	379	3925
127	0	0	2372	4	1365	380	3926
0	0	0	2300	4	1366	380	3926
1	0	0	2205	4	1367	380	3926
2	0	0	2115	4	1366	380	3925
3	0	0	2015	3	1368	380	3925
4	0	0	1868	4	1368	380	3925
5	0	0	1749	4	1369	380	3926
6	0	0	1704	4	1370	380	3925
7	0	0	1683	4	1371	380	3926
8	0	0	1645	5	1373	381	3925
9	0	0	1683	5	1373	380	3925
10	0	0	1734	5	1371	379	3925
11	0	0	1826	5	1371	380	3925
12	0	0	1938	5	1370	380	3925
13	0	0	2097	4	1370	380	3925
14	0	0	2247	5	1370	380	3926
15	0	0	2350	5	1367	380	3926
16	0	0	2409	5	1368	380	3925
17	0	0	2427	5	1367	380	3925
18	0	0	2405	4	1365	379	3926
19	0	0	2365	4	1366	380	3925
20	0	0	2288	4	1368	380	3926
21	0	0	2190	4	1368	380	3925
22	0	0	2098	4	1369	380	3926
23	0	0	1998	4	1369	380	3925
24	0	0	1901	4	1369	380	3925
25	0	0	1811	4	1369	380	3925
26	0	0	1741	4	1372	380	3926
27	0	0	1697	3	1372	380	3925
28	0	0	1655	3	1373	380	3925
29	0	0	1623	4	1372	380	3925
30	0	0	1677	5	1373	380	3926
31	0	0	1792	4	1373	380	3925
32	0	0	1925	5	1371	380	3927
33	0	0	2094	5	1370	380	3926
34	0	0	2247	5	1371	380	3926
35	0	0	2352	5	1369	380	3926
36	0	0	2416	5	1368	380	3925
37	0	0	2438	5	1367	379	3925
38	0	0	2417	3	1369	380	3926
39	0	0	2378	4	1368	380	3926
40	0	0	2304	4	1367	380	3925
41	0	0	2210	4	1368	380	3925
42	0	0	2113	4	1371	380	3925
43	0	0	2014	4	1369	380	3925
44	0	0	1846	4	1370	380	3925
45	0	0	1759	4	1372	380	3926
46	0	0	1713	4	1371	380	3925
47	0	0	1687	4	1372	379	3926
48	0	0	1686	4	1375	380	3926
49	0	0	1686	5	1373	380	3925
50	0	0	1729	5	1374	380	3927
51	0	0	1821	5	1372	380	3925
52	0	0	1939	5	1371	381	3925
53	0	0	2107	3	1371	380	3926
54	0	0	2258	5	1372	380	3926
55	0	0	2365	4	1370	380	3926
56	0	0	2430	5	1371	380	3926
57	0	0	2453	5	1368	380	3925
58	0	0	2429	4	1369	380	3925
59	0	0	2391	4	1369	380	3925
60	0	0	2306	4	1369	380	3925
61	0	0	2210	4	1369	380	3925
62	0	0	2116	4	1370	380	3925
63	0	0	2015	4	1370	380	3925
64	0	0	1914	4	1371	380	3925
65	0	0	1821	4	1373	379	3926
66	0	0	1748	4	1372	380	3925
67	0	0	1699	4	1373	380	3927
68	0	0	1659	4	1375	380	3926
69	0	0	1623	5	1374	380	3926
70	0	0	1681	5	1373	380	3926
71	0	0	1800	5	1375	380	3926
72	0	0	1933	5	1373	380	3925
73	0	0	2101	5	1372	380	3925
74	0	0	2255	5	1372	380	3925
75	0	0	2363	5	1371	380	3926
76	0	0	2429	5	1370	380	3925
77	0	0	2449	5	1370	379	3926
78	0	0	2429	4	1369	380	3925
79	0	0	2391	4	1369	380	3926
80	0	0	2316	4	1369	380	3926
81	0	0	2218	4	1369	380	3925
82	0	0	2123	4	1370	380	3925
83	0	0	1995	4	1371	380	3925
84	0	0	1850	4	1373	380	3926
85	0	0	1776	4	1373	380	3927
86	0	0	1724	4	1373	380	3925
87	0	0	1681	4	1373	381	3925
88	0	0	1707	5	1374	379	3925
89	0	0	1682	5	1375	380	3925
90	0	0	1721	5	1375	380	3926
91	0	0	1817	5	1374	380	3926
92	0	0	1940	5	1373	380	3925
93	0	0	2107	4	1372	380	3925
94	0	0	2259	5	1373	380	3926
95	0	0	2365	4	1371	379	3925
96	0	0	2428	5	1370	380	3925
97	0	0	2449	5	1371	380	3925
98	0	0	2426	4	1370	380	3925
99	0	0	2391	4	1370	380	3926
100	0	0	2320	4	1370	380	3926
101	0	0	2220	4	1370	380	3925
102	0	0	2127	4	1371	380	3925
103	0	0	2021	4	1371	380	3926
104	0	0	1915	4	1373	380	3925
105	0	0	1817	4	1373	380	3926
106	0	0	1745	4	1373	380	3926
107	0	0	1703	4	1372	380	3925
108	0	0	1662	5	1376	380	3925
109	0	0	1630	4	1376	380	3926
110	0	0	1683	5	1375	380	3926
111	0	0	1788	5	1375	380	3925
112	0	0	1916	5	1376	380	3925
113	0	0	2088	5	1372	380	3925
114	0	0	2247	5	1373	380	3926
115	0	0	2357	6	1372	379	3927
116	0	0	2425	5	1371	380	3926
117	0	0	2447	5	1371	380	3925
118	0	0	2424	5	1370	380	3926
119	0	0	2391	4	1372	381	3925
120	0	0	2323	4	1371	379	3926
121	0	0	2227	4	1371	380	3925
122	0	0	2127	4	1372	380	3925
123	0	0	1961	4	1372	380	3925
124	0	0	1853	4	1373	380	3926
125	0	0	1783	4	1373	380	3926
126	0	0	1735	4	1375	380	3925
127	0	0	1702	5	1375	380	3925
0	0	0	1706	5	1375	380	3925
1	0	0	1664	4	1376	380	3926
2	0	0	1702	5	1376	379	3926
3	0	0	1805	5	1376	380	3925
4	0	0	1927	5	1374	380	3925
5	0	0	2094	5	1374	380	3926
6	0	0	2255	5	1373	381	3926
7	0	0	2371	5	1373	380	3926
8	0	0	2437	5	1372	380	3925
9	0	0	2456	5	1372	380	3925
10	0	0	2437	5	1372	380	3925
11	0	0	2402	4	1371	380	3926
12	0	0	2325	4	1372	380	3926
13	0	0	2224	4	1373	380	3926
14	0	0	2121	4	1373	380	3925
15	0	0	2013	4	1373	380	3925
16	0	0	1907	4	1374	381	3925
17	0	0	1809	4	1373	379	3926
18	0	0	1732	4	1375	380	3925
19	0	0	1682	4	1375	380	3925
20	0	0	1639	4	1377	380	3925
21	0	0	1608	4	1376	381	3925
22	0	0	1663	4	1376	380	3926
23	0	0	1780	5	1375	380	3925
24	0	0	1911	5	1375	380	3925
25	0	0	2080	5	1374	380	3926
26	0	0	2240	5	1374	380	3926
27	0	0	2350	5	1373	380	3926
28	0	0	2422	5	1374	380	3926
29	0	0	2454	6	1372	380	3925
30	0	0	2441	5	1371	380	3925
31	0	0	2411	4	1371	380	3926
32	0	0	2338	4	1372	380	3925
33	0	0	2233	4	1372	380	3925
34	0	0	2125	4	1373	380	3925
35	0	0	1951	4	1373	380	3925
36	0	0	1853	4	1375	380	3925
37	0	0	1775	4	1375	379	3926
38	0	0	1719	4	1374	380	3926
39	0	0	1717	5	1376	379	3925
40	0	0	1693	4	1377	380	3925
41	0	0	1647	4	1377	381	3925
42	0	0	1692	5	1377	380	3926
43	0	0	1798	5	1376	380	3925
44	0	0	1927	5	1377	379	3926
45	0	0	2098	5	1375	380	3926
46	0	0	2259	5	1374	380	3925
47	0	0	2373	5	1374	379	3926
48	0	0	2442	5	1373	380	3925
49	0	0	2464	5	1373	379	3926
50	0	0	2447	5	1373	380	3925
51	0	0	2412	4	1372	380	3925
52	0	0	2341	4	1373	380	3926
53	0	0	2243	4	1372	380	3925
54	0	0	2148	4	1374	380	3925
55	0	0	2041	4	1373	380	3926
56	0	0	1930	4	1376	381	3926
57	0	0	1828	4	1375	381	3926
58	0	0	1748	4	1376	380	3925
59	0	0	1695	4	1376	380	3925
60	0	0	1649	4	1377	380	3925
61	0	0	1608	4	1378	380	3926
62	0	0	1660	5	1377	379	3926
63	0	0	1779	5	1378	379	3926
64	0	0	1914	5	1376	380	3925
65	0	0	2091	5	1375	380	3925
66	0	0	2252	5	1376	380	3925
67	0	0	2364	5	1374	381	3925
68	0	0	2435	5	1374	380	3925
69	0	0	2461	5	1374	379	3925
70	0	0	2448	5	1373	380	3925
71	0	0	2415	4	1373	380	3925
72	0	0	2344	4	1374	380	3926
73	0	0	2238	5	1373	380	3925
74	0	0	2097	4	1374	379	3926
75	0	0	1958	4	1374	380	3925
76	0	0	1871	4	1375	380	3926
77	0	0	1794	4	1376	380	3926
78	0	0	1714	4	1376	379	3925
79	0	0	1729	4	1377	380	3925
80	0	0	1682	4	1377	380	3925
81	0	0	1632	4	1378	380	3924
82	0	0	1673	5	1376	380	3925
83	0	0	1784	5	1377	379	3925
84	0	0	1917	5	1376	379	3925
85	0	0	2093	5	1377	379	3925
86	0	0	2254	5	1376	380	3926
87	0	0	2369	5	1376	380	3926
88	0	0	2441	5	1374	380	3925
89	0	0	2464	5	1373	379	3926
90	0	0	2447	5	1374	380	3926
91	0	0	2411	3	1374	380	3925
92	0	0	2336	4	1372	380	3926
93	0	0	2236	4	1374	380	3925
94	0	0	2137	4	1374	380	3925
95	0	0	2024	5	1376	380	3925
96	0	0	1914	4	1376	380	3926
97	0	0	1811	4	1376	380	3926
98	0	0	1737	3	1377	380	3924
99	0	0	1685	4	1378	380	3925
100	0	0	1634	4	1377	381	3925
101	0	0	1592	4	1377	380	3926
102	0	0	1650	5	1377	380	3926
103	0	0	1765	5	1378	380	3926
104	0	0	1899	6	1378	379	3925
105	0	0	2080	6	1377	380	3925
106	0	0	2247	5	1375	380	3926
107	0	0	2363	5	1374	379	3926
108	0	0	2439	5	1374	380	3925
109	0	0	2469	5	1375	379	3925
110	0	0	2449	5	1373	381	3924
111	0	0	2413	4	1374	380	3926
112	0	0	2343	4	1375	380	3926
113	0	0	2243	5	1375	380	3925
114	0	0	2082	4	1376	379	3926
115	0	0	1967	4	1376	380	3925
116	0	0	1883	4	1376	380	3925
117	0	0	1801	4	1376	380	3925
118	0	0	1750	5	1377	379	3925
119	0	0	1737	4	1378	380	3925
120	0	0	1680	5	1379	380	3925
121	0	0	1624	4	1379	380	3925
122	0	0	1668	5	1379	379	3926
123	0	0	1780	4	1378	380	3926
124	0	0	1912	4	1376	380	3925
125	0	0	2086	6	1377	380	3925
126	0	0	2252	5	1376	380	3926
127	0	0	2372	5	1376	380	3926
0	0	0	2441	5	1375	380	3925
1	0	0	2468	5	1374	380	3926
2	0	0	2457	6	1375	380	3924
3	0	0	2424	4	1375	381	3924
4	0	0	2353	4	1375	379	3925
5	0	0	2259	4	1375	380	3924
6	0	0	2160	4	1375	380	3925
7	0	0	2044	5	1375	380	3925
8	0	0	1927	4	1378	380	3925
9	0	0	1823	4	1377	379	3926
10	0	0	1740	4	1377	380	3925
11	0	0	1684	4	1377	380	3925
12	0	0	1632	5	1380	380	3926
13	0	0	1588	4	1380	380	3927
14	0	0	1638	5	1378	379	3926
15	0	0	1748	5	1378	380	3926
16	0	0	1883	6	1376	380	3925
17	0	0	2066	5	1377	380	3925
18	0	0	2236	5	1376	380	3926
19	0	0	2356	5	1377	379	3925
20	0	0	2435	5	1375	380	3925
21	0	0	2476	5	1374	380	3924
22	0	0	2473	4	1374	380	3925
23	0	0	2446	4	1374	380	3925
24	0	0	2376	5	1375	379	3926
25	0	0	2257	4	1376	379	3925
26	0	0	2100	4	1375	380	3926
27	0	0	1998	4	1377	380	3926
28	0	0	1902	4	1376	380	3926
29	0	0	1798	4	1377	379	3926
30	0	0	1767	4	1377	379	3925
31	0	0	1721	4	1379	380	3925
32	0	0	1654	6	1379	380	3925
33	0	0	1595	4	1380	380	3924
34	0	0	1633	5	1378	379	3925
35	0	0	1740	5	1379	380	3926
36	0	0	1875	5	1377	380	3924
37	0	0	2057	5	1377	380	3925
38	0	0	2231	5	1377	380	3925
39	0	0	2358	5	1376	379	3925
40	0	0	2444	5	1374	380	3925
41	0	0	2479	5	1375	380	3926
42	0	0	2472	5	1375	380	3926
43	0	0	2446	4	1375	380	3926
44	0	0	2382	4	1375	380	3926
45	0	0	2281	4	1376	380	3925
46	0	0	2175	4	1376	380	3927
47	0	0	2056	4	1378	380	3926
48	0	0	1937	4	1377	380	3925
49	0	0	1824	4	1377	379	3925
50	0	0	1738	3	1379	380	3926
51	0	0	1678	4	1380	380	3925
52	0	0	1620	4	1379	380	3925
53	0	0	1571	4	1381	380	3924
54	0	0	1622	5	1378	379	3925
55	0	0	1737	5	1379	379	3925
56	0	0	1878	5	1377	380	3925
57	0	0	2066	5	1378	379	3926
58	0	0	2244	5	1377	380	3925
59	0	0	2372	5	1375	379	3926
60	0	0	2451	5	1377	380	3925
61	0	0	2482	5	1376	380	3926
62	0	0	2473	4	1375	380	3926
63	0	0	2446	4	1375	380	3925
64	0	0	2382	4	1376	380	3926
65	0	0	2232	4	1376	380	3925
66	0	0	2107	4	1376	380	3924
67	0	0	2014	4	1377	379	3925
68	0	0	1916	4	1378	380	3925
69	0	0	1799	5	1378	379	3925
70	0	0	1780	4	1379	380	3926
71	0	0	1718	4	1379	380	3926
72	0	0	1646	4	1380	380	3925
73	0	0	1585	4	1379	379	3924
74	0	0	1629	5	1379	380	3926
75	0	0	1742	5	1379	380	3926
76	0	0	1881	5	1379	380	3925
77	0	0	2063	5	1378	379	3925
78	0	0	2234	5	1376	380	3926
79	0	0	2366	5	1376	379	3926
80	0	0	2450	5	1376	380	3925
81	0	0	2487	5	1374	380	3925
82	0	0	2481	5	1376	380	3926
83	0	0	2456	4	1375	380	3925
84	0	0	2383	4	1376	380	3925
85	0	0	2279	4	1378	379	3924
86	0	0	2169	4	1378	380	3925
87	0	0	2052	4	1377	380	3926
88	0	0	1933	4	1378	380	3926
89	0	0	1823	4	1378	379	3926
90	0	0	1736	4	1378	379	3925
91	0	0	1672	4	1379	380	3926
92	0	0	1615	4	1379	380	3926
93	0	0	1570	4	1380	380	3926
94	0	0	1621	5	1379	380	3926
95	0	0	1739	5	1379	380	3925
96	0	0	1872	5	1378	380	3926
97	0	0	2061	5	1377	380	3925
98	0	0	2244	5	1377	380	3925
99	0	0	2375	5	1376	380	3926
100	0	0	2452	5	1376	380	3925
101	0	0	2492	5	1377	379	3924
102	0	0	2492	5	1376	380	3925
103	0	0	2467	4	1376	380	3926
104	0	0	2396	4	1376	380	3926
105	0	0	2222	4	1376	379	3925
106	0	0	2121	4	1376	380	3926
107	0	0	2026	4	1378	380	3926
108	0	0	1918	4	1376	380	3925
109	0	0	1840	4	1378	380	3926
110	0	0	1783	4	1378	380	3925
111	0	0	1711	4	1379	380	3927
112	0	0	1644	4	1381	379	3925
113	0	0	1590	4	1380	380	3926
114	0	0	1634	5	1379	379	3926
115	0	0	1751	4	1377	380	3924
116	0	0	1891	5	1379	379	3925
117	0	0	2074	5	1378	379	3925
118	0	0	2247	5	1378	380	3925
119	0	0	2371	5	1377	379	3925
120	0	0	2453	5	1376	380	3924
121	0	0	2487	5	1376	379	3925
122	0	0	2479	5	1376	380	3924
123	0	0	2451	4	1376	380	3926
124	0	0	2377	4	1375	379	3926
125	0	0	2275	4	1376	379	3925
126	0	0	2172	4	1378	380	3925
127	0	0	2054	4	1377	380	3925
0	0	0	1935	4	1378	380	3926
1	0	0	1821	4	1378	379	3926
2	0	0	1729	4	1378	380	3925
3	0	0	1670	4	1379	379	3925
4	0	0	1614	5	1381	380	3925
5	0	0	1561	4	1380	380	3926
6	0	0	1608	5	1379	379	3925
7	0	0	1723	4	1380	380	3926
8	0	0	1867	4	1379	380	3926
9	0	0	2058	4	1377	380	3925
10	0	0	2237	5	1377	380	3925
11	0	0	2365	5	1376	379	3926
12	0	0	2447	4	1378	380	3926
13	0	0	2481	5	1378	379	3926
14	0	0	2466	5	1376	380	3925
15	0	0	2438	4	1376	380	3925
16	0	0	2336	4	1375	380	3926
17	0	0	2197	4	1378	380	3927
18	0	0	2116	4	1376	379	3925
19	0	0	2023	4	1379	380	3925
20	0	0	1908	5	1377	380	3925
21	0	0	1861	4	1379	379	3926
22	0	0	1778	3	1379	379	3925
23	0	0	1700	4	1379	380	3924
24	0	0	1633	4	1380	379	3924
25	0	0	1579	4	1380	380	3925
26	0	0	1625	5	1380	379	3926
27	0	0	1739	5	1379	380	3925
28	0	0	1885	5	1378	380	3926
29	0	0	2076	5	1378	380	3926
30	0	0	2248	5	1378	380	3925
31	0	0	2378	5	1377	379	3926
32	0	0	2456	5	1377	380	3926
33	0	0	2488	6	1377	379	3925
34	0	0	2481	5	1375	380	3925
35	0	0	2455	4	1376	380	3926
36	0	0	2385	4	1376	379	3925
37	0	0	2281	4	1376	380	3925
38	0	0	2175	4	1377	380	3924
39	0	0	2052	4	1377	380	3925
40	0	0	1932	4	1378	380	3925
41	0	0	1818	4	1380	380	3926
42	0	0	1729	4	1379	380	3925
43	0	0	1669	4	1380	380	3926
44	0	0	1614	4	1380	380	3926
45	0	0	1566	4	1380	380	3925
46	0	0	1618	5	1381	380	3926
47	0	0	1739	4	1379	380	3925
48	0	0	1882	5	1379	380	3925
49	0	0	2076	5	1377	380	3926
50	0	0	2251	5	1379	380	3927
51	0	0	2375	5	1379	378	3926
52	0	0	2457	4	1377	380	3925
53	0	0	2494	5	1377	380	3925
54	0	0	2489	5	1375	380	3925
55	0	0	2465	5	1376	380	3925
56	0	0	2337	4	1376	379	3925
57	0	0	2223	4	1377	380	3924
58	0	0	2142	4	1376	381	3924
59	0	0	2042	4	1378	379	3924
60	0	0	1926	4	1378	380	3925
61	0	0	1867	4	1378	380	3925
62	0	0	1767	4	1380	380	3925
63	0	0	1688	4	1379	380	3926
64	0	0	1617	4	1381	380	3926
65	0	0	1564	4	1381	380	3925
66	0	0	1615	5	1381	380	3926
67	0	0	1732	5	1380	379	3925
68	0	0	1878	5	1379	379	3925
69	0	0	2064	5	1378	380	3926
70	0	0	2237	5	1378	380	3926
71	0	0	2361	5	1378	378	3925
72	0	0	2443	5	1376	379	3925
73	0	0	2480	5	1376	379	3925
74	0	0	2475	6	1377	380	3924
75	0	0	2453	5	1377	380	3925
76	0	0	2383	4	1376	380	3925
77	0	0	2277	4	1378	380	3925
78	0	0	2167	4	1377	380	3924
79	0	0	2050	4	1378	380	3925
80	0	0	1927	3	1379	380	3926
81	0	0	1809	4	1378	380	3926
82	0	0	1718	3	1380	380	3926
83	0	0	1658	4	1379	380	3925
84	0	0	1604	4	1381	380	3926
85	0	0	1559	4	1381	380	3926
86	0	0	1616	5	1379	379	3925
87	0	0	1737	4	1380	380	3926
88	0	0	1880	5	1380	381	3924
89	0	0	2070	5	1378	380	3925
90	0	0	2243	5	1379	380	3926
91	0	0	2373	5	1377	380	3925
92	0	0	2457	5	1377	380	3925
93	0	0	2494	5	1377	381	3925
94	0	0	2489	6	1376	380	3924
95	0	0	2456	3	1377	380	3925
96	0	0	2318	4	1376	380	3925
97	0	0	2229	4	1376	380	3925
98	0	0	2154	4	1378	380	3927
99	0	0	2053	4	1379	380	3925
100	0	0	1965	5	1379	380	3926
101	0	0	1868	4	1379	380	3926
102	0	0	1763	4	1380	380	3925
103	0	0	1682	4	1379	380	3926
104	0	0	1618	4	1381	380	3925
105	0	0	1568	4	1381	380	3925
106	0	0	1619	5	1379	380	3925
107	0	0	1738	5	1379	380	3926
108	0	0	1878	5	1377	380	3925
109	0	0	2064	5	1377	380	3925
110	0	0	2243	6	1377	380	3925
111	0	0	2376	5	1378	379	3925
112	0	0	2458	5	1377	380	3925
113	0	0	2500	5	1378	380	3925
114	0	0	2496	5	1377	379	3925
115	0	0	2465	3	1377	379	3925
116	0	0	2391	4	1376	380	3926
117	0	0	2285	4	1376	380	3926
118	0	0	2175	4	1377	380	3925
119	0	0	2052	5	1377	379	3925
120	0	0	1928	4	1378	380	3926
121	0	0	1810	4	1380	380	3926
122	0	0	1718	4	1379	380	3925
123	0	0	1655	4	1380	380	3926
124	0	0	1601	4	1381	380	3926
125	0	0	1550	5	1381	380	3925
126	0	0	1605	5	1381	380	3926
127	0	0	1724	5	1380	379	3925
0	0	0	1874	3	1378	379	3926
1	0	0	2070	5	1378	380	3925
2	0	0	2247	5	1377	380	3926
3	0	0	2375	5	1377	380	3926
4	0	0	2456	4	1376	380	3925
5	0	0	2487	5	1376	380	3926
6	0	0	2481	5	1376	380	3925
7	0	0	2411	5	1377	379	3925
8	0	0	2310	4	1377	379	3926
9	0	0	2228	4	1377	380	3925
10	0	0	2146	4	1377	380	3925
11	0	0	2026	4	1378	380	3925
12	0	0	1979	4	1379	380	3926
13	0	0	1866	4	1379	380	3925
14	0	0	1759	3	1380	380	3926
15	0	0	1682	4	1380	380	3925
16	0	0	1617	4	1380	380	3925
17	0	0	1567	5	1380	380	3925
18	0	0	1617	5	1380	379	3925
19	0	0	1738	5	1380	380	3925
20	0	0	1881	5	1379	380	3927
21	0	0	2064	5	1378	380	3925
22	0	0	2247	5	1377	380	3926
23	0	0	2381	5	1377	380	3926
24	0	0	2466	5	1377	380	3926
25	0	0	2505	5	1377	380	3925
26	0	0	2502	5	1376	380	3925
27	0	0	2474	5	1377	380	3925
28	0	0	2396	4	1376	380	3925
29	0	0	2287	4	1377	380	3925
30	0	0	2181	5	1377	379	3924
31	0	0	2059	5	1378	379	3925
32	0	0	1929	4	1379	380	3925
33	0	0	1813	4	1379	380	3925
34	0	0	1721	4	1378	380	3925
35	0	0	1659	5	1378	380	3925
36	0	0	1602	4	1380	379	3925
37	0	0	1559	4	1380	380	3925
38	0	0	1620	5	1380	380	3926
39	0	0	1741	5	1380	380	3925
40	0	0	1888	5	1378	380	3926
41	0	0	2085	5	1379	380	3926
42	0	0	2260	5	1377	380	3926
43	0	0	2387	5	1377	380	3926
44	0	0	2468	4	1377	380	3925
45	0	0	2503	5	1376	379	3926
46	0	0	2494	5	1376	380	3926
47	0	0	2401	4	1377	380	3925
48	0	0	2331	4	1377	379	3925
49	0	0	2254	3	1376	380	3925
50	0	0	2166	4	1377	380	3927
51	0	0	2073	4	1377	380	3925
52	0	0	1984	4	1379	380	3926
53	0	0	1858	4	1378	379	3926
54	0	0	1754	4	1378	380	3925
55	0	0	1680	4	1379	380	3925
56	0	0	1617	4	1380	379	3926
57	0	0	1567	4	1381	380	3925
58	0	0	1616	4	1379	380	3925
59	0	0	1737	5	1379	379	3925
60	0	0	1880	5	1379	380	3926
61	0	0	2066	5	1379	380	3926
62	0	0	2244	4	1376	380	3925
63	0	0	2378	5	1377	380	3926
64	0	0	2462	4	1376	380	3925
65	0	0	2496	5	1376	380	3925
66	0	0	2491	5	1376	380	3925
67	0	0	2466	4	1377	380	3925
68	0	0	2394	4	1378	379	3925
69	0	0	2291	5	1376	380	3925
70	0	0	2179	5	1376	380	3925
71	0	0	2059	4	1377	380	3926
72	0	0	1937	4	1378	380	3927
73	0	0	1819	4	1378	380	3926
74	0	0	1728	4	1378	380	3925
75	0	0	1662	4	1379	380	3926
76	0	0	1605	4	1381	380	3926
77	0	0	1555	4	1381	380	3925
78	0	0	1613	4	1379	380	3925
79	0	0	1735	5	1378	380	3925
80	0	0	1878	5	1378	380	3925
81	0	0	2077	5	1377	381	3925
82	0	0	2249	4	1379	380	3925
83	0	0	2375	5	1378	380	3925
84	0	0	2457	5	1378	380	3925
85	0	0	2497	6	1376	380	3925
86	0	0	2459	4	1375	379	3925
87	0	0	2394	3	1376	380	3926
88	0	0	2343	4	1377	380	3925
89	0	0	2268	4	1377	380	3926
90	0	0	2169	4	1378	380	3925
91	0	0	2106	4	1379	380	3926
92	0	0	1991	4	1379	380	3926
93	0	0	1856	4	1378	380	3926
94	0	0	1747	4	1379	380	3926
95	0	0	1673	4	1381	380	3925
96	0	0	1611	4	1379	381	3925
97	0	0	1562	4	1380	380	3925
98	0	0	1618	5	1379	380	3925
99	0	0	1736	5	1380	381	3925
100	0	0	1879	5	1378	380	3925
101	0	0	2072	6	1378	379	3925
102	0	0	2244	5	1378	380	3925
103	0	0	2375	5	1378	380	3926
104	0	0	2459	5	1377	380	3925
105	0	0	2500	5	1376	379	3926
106	0	0	2499	5	1377	380	3926
107	0	0	2471	4	1377	380	3925
108	0	0	2399	4	1376	380	3925
109	0	0	2290	4	1377	380	3926
110	0	0	2178	4	1376	380	3925
111	0	0	2057	3	1377	379	3925
112	0	0	1932	3	1377	380	3925
113	0	0	1816	4	1377	380	3925
114	0	0	1723	4	1379	380	3925
115	0	0	1660	4	1380	380	3925
116	0	0	1606	4	1381	379	3925
117	0	0	1552	4	1380	380	3926
118	0	0	1609	5	1380	380	3926
119	0	0	1734	5	1379	380	3925
120	0	0	1878	5	1378	379	3926
121	0	0	2075	5	1378	379	3926
122	0	0	2253	5	1378	380	3926
123	0	0	2381	5	1376	380	3926
124	0	0	2466	5	1376	379	3925
125	0	0	2503	5	1375	380	3925
126	0	0	2443	4	1376	380	3925
127	0	0	2413	4	1376	380	3925
0	0	0	2364	4	1377	379	3925
1	0	0	2280	4	1377	380	3924
2	0	0	2175	4	1378	380	3925
3	0	0	2114	4	1377	379	3925
4	0	0	1982	3	1379	380	3925
5	0	0	1848	4	1381	380	3926
6	0	0	1749	4	1379	380	3925
7	0	0	1679	4	1379	379	3926
8	0	0	1624	4	1380	380	3926
9	0	0	1570	3	1380	379	3926
10	0	0	1623	5	1379	380	3925
11	0	0	1739	5	1379	380	3927
12	0	0	1881	5	1379	380	3925
13	0	0	2074	5	1378	380	3925
14	0	0	2255	4	1377	379	3926
15	0	0	2388	5	1377	380	3925
16	0	0	2474	5	1376	380	3925
17	0	0	2509	5	1376	380	3924
18	0	0	2502	5	1375	380	3924
19	0	0	2472	4	1377	380	3925
20	0	0	2395	4	1377	380	3926
21	0	0	2284	4	1376	380	3925
22	0	0	2171	4	1376	380	3924
23	0	0	2049	4	1377	380	3925
24	0	0	1924	4	1378	379	3926
25	0	0	1804	3	1379	379	3926
26	0	0	1708	4	1380	380	3926
27	0	0	1646	4	1380	379	3925
28	0	0	1585	4	1380	380	3925
29	0	0	1536	3	1379	380	3926
30	0	0	1595	5	1380	380	3925
31	0	0	1720	5	1380	380	3925
32	0	0	1869	5	1379	380	3925
33	0	0	2068	5	1376	379	3926
34	0	0	2249	4	1378	380	3925
35	0	0	2379	5	1376	380	3925
36	0	0	2466	5	1377	379	3925
37	0	0	2496	4	1376	379	3925
38	0	0	2423	4	1375	380	3926
39	0	0	2410	5	1376	380	3925
40	0	0	2362	4	1377	380	3926
41	0	0	2272	4	1377	379	3925
42	0	0	2204	4	1377	380	3926
43	0	0	2105	4	1376	380	3926
44	0	0	1965	4	1380	380	3927
45	0	0	1826	4	1377	380	3926
46	0	0	1723	4	1377	380	3925
47	0	0	1650	4	1379	380	3925
48	0	0	1589	4	1379	380	3926
49	0	0	1540	4	1379	379	3925
50	0	0	1599	5	1380	380	3926
51	0	0	1726	5	1379	379	3925
52	0	0	1874	4	1378	380	3925
53	0	0	2071	5	1378	380	3925
54	0	0	2254	5	1378	380	3926
55	0	0	2384	5	1376	379	3926
56	0	0	2468	5	1377	381	3925
57	0	0	2507	5	1376	380	3926
58	0	0	2498	5	1376	380	3926
59	0	0	2468	4	1376	380	3926
60	0	0	2392	4	1375	380	3926
61	0	0	2286	4	1376	379	3925
62	0	0	2173	4	1377	379	3926
63	0	0	2050	4	1376	380	3925
64	0	0	1927	3	1378	380	3924
65	0	0	1808	4	1378	380	3926
66	0	0	1716	4	1379	380	3925
67	0	0	1654	3	1379	380	3925
68	0	0	1596	4	1380	380	3925
69	0	0	1544	4	1380	380	3924
70	0	0	1598	5	1380	380	3925
71	0	0	1719	5	1380	380	3926
72	0	0	1869	5	1380	379	3925
73	0	0	2069	5	1377	379	3925
74	0	0	2250	5	1377	380	3926
75	0	0	2375	5	1377	380	3925
76	0	0	2459	4	1377	380	3927
77	0	0	2462	4	1377	380	3926
78	0	0	2432	5	1376	380	3926
79	0	0	2423	5	1375	380	3926
80	0	0	2369	4	1375	380	3925
81	0	0	2276	4	1377	381	3925
82	0	0	2170	4	1376	379	3925
83	0	0	2044	4	1376	379	3926
84	0	0	1916	3	1377	380	3925
85	0	0	1803	4	1377	380	3924
86	0	0	1713	4	1378	379	3925
87	0	0	1647	4	1379	379	3926
88	0	0	1591	4	1381	380	3926
89	0	0	1549	3	1380	379	3925
90	0	0	1608	5	1380	380	3926
91	0	0	1730	6	1377	380	3926
92	0	0	1844	5	1378	380	3926
93	0	0	2124	5	1378	379	3925
94	0	0	2313	5	1377	380	3925
95	0	0	2425	5	1376	379	3925
96	0	0	2497	5	1377	380	3926
97	0	0	2525	5	1376	379	3925
98	0	0	2513	5	1375	380	3924
99	0	0	2487	3	1375	380	3925
100	0	0	2411	4	1376	379	3925
101	0	0	2294	4	1376	380	3924
102	0	0	2178	4	1377	380	3925
103	0	0	2052	4	1377	379	3925
104	0	0	1924	4	1378	380	3925
105	0	0	1804	4	1378	380	3924
106	0	0	1710	4	1378	380	3925
107	0	0	1644	4	1379	380	3925
108	0	0	1587	4	1380	380	3926
109	0	0	1539	3	1379	380	3926
110	0	0	1596	5	1379	380	3925
111	0	0	1721	5	1379	380	3926
112	0	0	1868	5	1379	380	3926
113	0	0	2064	5	1378	380	3926
114	0	0	2244	4	1377	380	3926
115	0	0	2382	5	1377	379	3926
116	0	0	2472	4	1375	380	3925
117	0	0	2455	4	1376	379	3926
118	0	0	2442	5	1376	380	3926
119	0	0	2443	3	1375	379	3925
120	0	0	2388	4	1376	380	3927
121	0	0	2278	4	1376	380	3925
122	0	0	2228	4	1377	379	3926
123	0	0	2097	4	1377	380	3926
124	0	0	1954	3	1377	380	3926
125	0	0	1821	4	1378	380	3926
126	0	0	1722	4	1378	380	3927
127	0	0	1654	4	1379	379	3925
0	0	0	1592	4	1379	380	3925
1	0	0	1541	4	1379	380	3926
2	0	0	1595	5	1378	379	3925
3	0	0	1720	5	1379	380	3925
4	0	0	1866	5	1377	379	3925
5	0	0	2067	4	1375	380	3926
6	0	0	2252	4	1377	379	3925
7	0	0	2384	5	1376	379	3925
8	0	0	2476	5	1375	380	3924
9	0	0	2517	5	1375	380	3926
10	0	0	2507	5	1376	380	3926
11	0	0	2475	4	1375	380	3926
12	0	0	2394	4	1374	380	3925
13	0	0	2285	5	1376	379	3925
14	0	0	2176	4	1376	380	3925
15	0	0	2056	4	1378	380	3925
16	0	0	1926	3	1377	380	3926
17	0	0	1806	4	1378	379	3926
18	0	0	1712	4	1379	380	3926
19	0	0	1647	4	1378	379	3925
20	0	0	1587	4	1380	380	3925
21	0	0	1534	4	1379	379	3926
22	0	0	1586	5	1378	379	3925
23	0	0	1710	5	1379	380	3926
24	0	0	1860	5	1378	378	3925
25	0	0	2057	5	1378	380	3924
26	0	0	2242	5	1376	380	3926
27	0	0	2384	5	1377	379	3926
28	0	0	2472	3	1376	380	3925
29	0	0	2449	5	1375	379	3926
30	0	0	2452	5	1375	380	3925
31	0	0	2455	4	1374	380	3926
32	0	0	2394	4	1375	380	3925
33	0	0	2322	5	1376	380	3926
34	0	0	2232	4	1376	380	3925
35	0	0	2093	4	1378	380	3926
36	0	0	1946	4	1377	380	3926
37	0	0	1812	4	1377	380	3925
38	0	0	1715	4	1378	380	3925
39	0	0	1648	4	1378	379	3926
40	0	0	1590	4	1380	379	3926
41	0	0	1539	4	1379	380	3925
42	0	0	1600	5	1377	380	3925
43	0	0	1728	5	1377	380	3925
44	0	0	1881	5	1378	379	3925
45	0	0	2078	5	1377	380	3925
46	0	0	2261	5	1375	380	3926
47	0	0	2393	5	1376	379	3926
48	0	0	2482	5	1375	380	3927
49	0	0	2522	5	1375	381	3926
50	0	0	2515	5	1375	380	3926
51	0	0	2490	4	1375	380	3927
52	0	0	2410	4	1375	380	3925
53	0	0	2297	4	1375	380	3925
54	0	0	2182	4	1375	379	3925
55	0	0	2058	4	1376	380	3925
56	0	0	1926	4	1377	379	3925
57	0	0	1805	4	1377	380	3925
58	0	0	1709	4	1377	380	3924
59	0	0	1648	4	1378	380	3925
60	0	0	1590	4	1379	380	3926
61	0	0	1539	4	1378	380	3925
62	0	0	1599	5	1378	380	3925
63	0	0	1724	5	1378	380	3925
64	0	0	1873	5	1376	380	3925
65	0	0	2075	5	1375	380	3925
66	0	0	2262	5	1377	380	3926
67	0	0	2395	5	1375	380	3926
68	0	0	2444	4	1376	380	3925
69	0	0	2449	5	1375	379	3926
70	0	0	2471	5	1374	380	3926
71	0	0	2469	5	1375	380	3925
72	0	0	2382	4	1374	380	3925
73	0	0	2341	4	1376	379	3924
74	0	0	2228	4	1373	380	3925
75	0	0	2085	4	1376	380	3925
76	0	0	1939	4	1375	380	3926
77	0	0	1808	4	1376	380	3925
78	0	0	1706	4	1376	379	3925
79	0	0	1640	4	1378	379	3925
80	0	0	1582	4	1377	380	3925
81	0	0	1536	4	1377	379	3926
82	0	0	1600	5	1378	380	3926
83	0	0	1728	5	1377	379	3925
84	0	0	1873	5	1376	379	3926
85	0	0	2075	5	1376	380	3926
86	0	0	2261	5	1375	380	3926
87	0	0	2399	5	1375	380	3924
88	0	0	2482	5	1376	380	3926
89	0	0	2521	4	1375	379	3924
90	0	0	2516	5	1375	380	3924
91	0	0	2489	4	1373	380	3925
92	0	0	2410	4	1373	380	3925
93	0	0	2296	4	1375	379	3925
94	0	0	2176	4	1374	379	3925
95	0	0	2046	4	1376	379	3926
96	0	0	1921	4	1376	380	3926
97	0	0	1803	4	1376	379	3926
98	0	0	1707	5	1376	380	3925
99	0	0	1642	4	1375	380	3925
100	0	0	1580	4	1378	379	3926
101	0	0	1530	4	1379	380	3926
102	0	0	1592	4	1377	380	3925
103	0	0	1721	5	1379	380	3925
104	0	0	1870	6	1376	379	3925
105	0	0	2079	5	1376	380	3925
106	0	0	2268	5	1375	380	3925
107	0	0	2405	5	1374	380	3925
108	0	0	2435	5	1375	380	3925
109	0	0	2470	6	1373	380	3925
110	0	0	2484	5	1375	380	3925
111	0	0	2478	4	1375	380	3920
112	0	0	2416	5	1375	380	3925
113	0	0	2347	4	1374	380	3925
114	0	0	2224	4	1375	380	3926
115	0	0	2082	4	1375	380	3926
116	0	0	1939	4	1376	380	3926
117	0	0	1810	4	1377	380	3926
118	0	0	1709	4	1375	380	3925
119	0	0	1639	4	1377	380	3926
120	0	0	1583	4	1378	380	3926
121	0	0	1536	4	1376	380	3925
122	0	0	1590	5	1377	380	3926
123	0	0	1716	5	1376	380	3924
124	0	0	1869	6	1375	380	3925
125	0	0	2072	5	1376	379	3925
126	0	0	2263	5	1374	380	3925
127	0	0	2400	6	1373	380	3925
0	0	0	2484	5	1374	380	3925
1	0	0	2522	4	1374	380	3925
2	0	0	2519	5	1375	380	3925
3	0	0	2493	4	1374	380	3926
4	0	0	2414	4	1375	380	3925
5	0	0	2297	5	1374	380	3926
6	0	0	2179	4	1375	380	3926
7	0	0	2051	4	1374	379	3925
8	0	0	1922	4	1376	380	3925
9	0	0	1799	4	1375	379	3925
10	0	0	1700	4	1376	379	3925
11	0	0	1634	5	1376	379	3925
12	0	0	1574	4	1376	380	3925
13	0	0	1519	4	1377	379	3925
14	0	0	1580	5	1376	380	3925
15	0	0	1710	5	1376	380	3924
16	0	0	1869	4	1374	380	3925
17	0	0	2075	5	1376	380	3925
18	0	0	2265	5	1375	380	3926
19	0	0	2389	5	1374	380	3925
20	0	0	2427	5	1373	380	3925
21	0	0	2484	4	1374	380	3925
22	0	0	2503	5	1373	380	3925
23	0	0	2484	4	1373	380	3925
24	0	0	2453	4	1373	380	3925
25	0	0	2354	4	1374	379	3924
26	0	0	2226	4	1375	380	3925
27	0	0	2083	4	1375	380	3925
28	0	0	1943	4	1374	380	3925
29	0	0	1813	4	1374	380	3925
30	0	0	1712	4	1376	380	3925
31	0	0	1640	4	1377	380	3925
32	0	0	1580	4	1375	380	3925
33	0	0	1530	4	1377	380	3925
34	0	0	1591	5	1376	380	3926
35	0	0	1720	5	1377	380	3926
36	0	0	1876	5	1375	380	3926
37	0	0	2081	5	1376	379	3926
38	0	0	2270	5	1374	380	3926
39	0	0	2405	5	1373	380	3925
40	0	0	2491	5	1373	380	3926
41	0	0	2528	5	1373	377	3925
42	0	0	2521	5	1372	380	3925
43	0	0	2500	4	1374	380	3926
44	0	0	2423	4	1373	380	3925
45	0	0	2307	4	1373	380	3925
46	0	0	2189	4	1374	380	3925
47	0	0	2058	4	1374	380	3925
48	0	0	1922	4	1374	380	3926
49	0	0	1796	4	1375	380	3925
50	0	0	1700	4	1375	380	3925
51	0	0	1634	4	1375	380	3925
52	0	0	1573	4	1376	379	3925
53	0	0	1524	5	1376	379	3926
54	0	0	1584	5	1376	379	3926
55	0	0	1717	5	1375	380	3925
56	0	0	1865	5	1374	380	3926
57	0	0	2069	5	1374	380	3926
58	0	0	2259	5	1374	380	3926
59	0	0	2352	5	1375	380	3926
60	0	0	2428	6	1373	380	3925
61	0	0	2495	5	1372	380	3926
62	0	0	2514	5	1373	380	3926
63	0	0	2488	5	1373	380	3925
64	0	0	2475	4	1375	380	3926
65	0	0	2353	4	1374	380	3925
66	0	0	2212	4	1373	380	3925
67	0	0	2070	4	1376	380	3926
68	0	0	1928	4	1375	380	3926
69	0	0	1790	4	1375	380	3925
70	0	0	1690	4	1376	380	3926
71	0	0	1625	4	1376	381	3925
72	0	0	1569	4	1376	379	3925
73	0	0	1519	4	1376	380	3926
74	0	0	1580	5	1375	380	3926
75	0	0	1711	5	1374	380	3925
76	0	0	1861	5	1374	380	3925
77	0	0	2069	5	1374	380	3925
78	0	0	2260	5	1373	379	3925
79	0	0	2398	5	1374	380	3926
80	0	0	2488	5	1372	380	3925
81	0	0	2531	5	1372	380	3925
82	0	0	2529	5	1373	380	3926
83	0	0	2502	4	1371	380	3926
84	0	0	2424	4	1373	380	3925
85	0	0	2314	4	1372	379	3925
86	0	0	2200	4	1373	380	3925
87	0	0	2071	4	1373	379	3925
88	0	0	1934	4	1375	380	3926
89	0	0	1805	4	1374	380	3925
90	0	0	1707	4	1375	380	3926
91	0	0	1641	4	1375	381	3925
92	0	0	1578	4	1377	379	3925
93	0	0	1525	4	1375	380	3926
94	0	0	1586	5	1374	380	3925
95	0	0	1719	4	1376	380	3925
96	0	0	1875	5	1374	380	3925
97	0	0	2078	5	1375	380	3926
98	0	0	2271	5	1374	380	3925
99	0	0	2341	5	1372	380	3925
100	0	0	2427	5	1372	380	3925
101	0	0	2489	5	1372	380	3925
102	0	0	2497	5	1371	379	3925
103	0	0	2508	5	1372	380	3926
104	0	0	2467	4	1371	380	3925
105	0	0	2350	4	1372	380	3927
106	0	0	2224	4	1374	380	3926
107	0	0	2093	4	1374	379	3926
108	0	0	1962	4	1374	380	3926
109	0	0	1834	4	1374	380	3925
110	0	0	1750	4	1376	380	3925
111	0	0	1721	4	1376	379	3925
112	0	0	1707	4	1376	379	3925
113	0	0	1706	5	1375	380	3925
114	0	0	1756	5	1376	380	3924
115	0	0	1837	5	1375	380	3925
116	0	0	1928	5	1373	380	3925
117	0	0	2051	5	1374	380	3926
118	0	0	2161	5	1371	380	3926
119	0	0	2249	5	1373	380	3925
120	0	0	2305	5	1372	379	3925
121	0	0	2328	5	1371	380	3926
122	0	0	2312	4	1371	380	3925
123	0	0	2281	4	1371	380	3926
124	0	0	2236	4	1371	380	3925
125	0	0	2180	4	1370	380	3925
126	0	0	2127	4	1372	380	3925
127	0	0	2064	4	1371	379	3926
0	0	0	1990	4	1372	380	3925
1	0	0	1922	4	1374	380	3925
2	0	0	1866	3	1373	380	3925
3	0	0	1820	4	1374	380	3925
4	0	0	1778	6	1374	380	3924
5	0	0	1753	5	1375	380	3926
6	0	0	1776	5	1376	379	3925
7	0	0	1839	4	1374	380	3925
8	0	0	1923	5	1374	380	3925
9	0	0	2041	5	1374	380	3926
10	0	0	2123	5	1371	380	3926
11	0	0	2166	5	1372	379	3925
12	0	0	2243	5	1371	379	3925
13	0	0	2293	5	1370	380	3925
14	0	0	2279	4	1372	378	3925
15	0	0	2321	5	1371	380	3926
16	0	0	2287	4	1370	380	3924
17	0	0	2223	4	1370	380	3926
18	0	0	2157	4	1373	380	3926
19	0	0	2086	4	1372	380	3925
20	0	0	2009	4	1373	380	3925
21	0	0	1940	4	1373	380	3926
22	0	0	1881	5	1373	380	3925
23	0	0	1828	4	1374	380	3925
24	0	0	1790	4	1376	380	3926
25	0	0	1769	5	1374	380	3925
26	0	0	1793	5	1376	379	3925
27	0	0	1855	5	1372	380	3925
28	0	0	1932	5	1374	380	3925
29	0	0	2042	5	1373	379	3926
30	0	0	2153	5	1373	380	3926
31	0	0	2237	5	1371	380	3924
32	0	0	2294	5	1371	380	3924
33	0	0	2316	5	1370	380	3925
34	0	0	2309	5	1371	379	3925
35	0	0	2283	4	1371	380	3925
36	0	0	2243	5	1370	380	3924
37	0	0	2193	4	1371	380	3926
38	0	0	2139	4	1371	379	3924
39	0	0	2077	4	1372	379	3925
40	0	0	2013	4	1372	380	3925
41	0	0	1945	4	1372	380	3925
42	0	0	1887	5	1373	381	3925
43	0	0	1841	4	1373	380	3926
44	0	0	1798	4	1375	380	3926
45	0	0	1771	4	1377	380	3925
46	0	0	1793	4	1374	380	3925
47	0	0	1851	5	1373	380	3925
48	0	0	1921	4	1373	380	3924
49	0	0	2023	4	1373	379	3925
50	0	0	2067	5	1372	380	3925
51	0	0	2146	5	1371	380	3926
52	0	0	2230	5	1370	380	3924
53	0	0	2278	5	1370	379	3927
54	0	0	2287	5	1369	380	3926
55	0	0	2315	4	1372	380	3925
56	0	0	2268	4	1369	380	3924
57	0	0	2209	4	1370	379	3925
58	0	0	2150	4	1370	380	3926
59	0	0	2083	4	1371	380	3926
60	0	0	2016	4	1372	380	3927
61	0	0	1949	4	1373	380	3925
62	0	0	1892	4	1374	380	3925
63	0	0	1844	4	1373	380	3926
64	0	0	1806	4	1375	380	3926
65	0	0	1780	4	1376	379	3925
66	0	0	1794	5	1374	380	3924
67	0	0	1848	4	1372	380	3924
68	0	0	1921	5	1374	380	3924
69	0	0	2027	5	1371	380	3925
70	0	0	2137	5	1370	379	3925
71	0	0	2219	5	1370	380	3925
72	0	0	2275	4	1368	380	3924
73	0	0	2300	5	1371	380	3925
74	0	0	2284	4	1368	379	3926
75	0	0	2260	5	1370	380	3926
76	0	0	2229	5	1369	380	3925
77	0	0	2188	4	1369	380	3926
78	0	0	2145	4	1371	380	3925
79	0	0	2088	4	1371	380	3925
80	0	0	2022	4	1373	380	3926
81	0	0	1954	4	1372	380	3925
82	0	0	1897	4	1371	380	3924
83	0	0	1848	4	1372	380	3925
84	0	0	1814	4	1375	380	3925
85	0	0	1792	4	1374	380	3925
86	0	0	1808	5	1373	380	3924
87	0	0	1859	5	1373	380	3926
88	0	0	1930	5	1373	379	3925
89	0	0	2015	5	1371	379	3925
90	0	0	2059	5	1371	379	3926
91	0	0	2160	5	1370	379	3925
92	0	0	2250	6	1369	380	3925
93	0	0	2290	5	1368	380	3926
94	0	0	2340	5	1368	379	3926
95	0	0	2333	4	1367	379	3926
96	0	0	2287	4	1369	380	3925
97	0	0	2231	5	1368	380	3925
98	0	0	2175	4	1370	379	3924
99	0	0	2110	4	1370	379	3925
100	0	0	2034	4	1372	379	3925
101	0	0	1962	4	1373	380	3926
102	0	0	1898	5	1372	379	3924
103	0	0	1846	4	1373	380	3925
104	0	0	1808	4	1374	380	3926
105	0	0	1775	4	1374	379	3925
106	0	0	1788	5	1374	380	3926
107	0	0	1844	5	1373	380	3926
108	0	0	1918	5	1371	379	3925
109	0	0	2018	5	1372	380	3925
110	0	0	2124	5	1370	380	3926
111	0	0	2209	5	1369	380	3925
112	0	0	2272	5	1369	379	3925
113	0	0	2304	5	1369	380	3925
114	0	0	2296	5	1369	380	3925
115	0	0	2267	4	1367	379	3925
116	0	0	2234	4	1369	380	3924
117	0	0	2194	4	1368	380	3924
118	0	0	2143	4	1369	379	3924
119	0	0	2086	4	1370	379	3925
120	0	0	2017	4	1370	379	3925
121	0	0	1949	4	1371	380	3924
122	0	0	1894	4	1372	380	3925
123	0	0	1844	4	1372	380	3925
124	0	0	1805	4	1373	380	3925
125	0	0	1774	4	1372	379	3926
126	0	0	1784	5	1373	379	3925
127	0	0	1837	5	1372	380	3925
0	0	0	1907	5	1371	379	3925
1	0	0	1963	4	1369	380	3925
2	0	0	2042	5	1370	380	3926
3	0	0	2153	5	1367	380	3924
4	0	0	2240	4	1369	380	3926
5	0	0	2268	5	1369	380	3925
6	0	0	2338	5	1368	379	3925
7	0	0	2311	4	1368	380	3926
8	0	0	2266	4	1368	380	3924
9	0	0	2209	3	1368	380	3926
10	0	0	2155	4	1369	380	3925
11	0	0	2088	4	1370	380	3925
12	0	0	2018	4	1371	380	3926
13	0	0	1945	4	1372	379	3925
14	0	0	1883	4	1372	380	3925
15	0	0	1833	4	1371	380	3925
16	0	0	1798	4	1374	380	3926
17	0	0	1769	4	1372	380	3926
18	0	0	1783	5	1373	380	3925
19	0	0	1837	5	1371	380	3925
20	0	0	1906	5	1370	380	3925
21	0	0	2008	5	1371	380	3926
22	0	0	2114	5	1369	379	3926
23	0	0	2201	5	1369	380	3924
24	0	0	2262	4	1368	380	3924
25	0	0	2295	5	1366	380	3924
26	0	0	2290	4	1367	380	3925
27	0	0	2267	4	1367	380	3926
28	0	0	2234	4	1367	380	3925
29	0	0	2188	4	1368	380	3926
30	0	0	2142	4	1369	380	3925
31	0	0	2085	4	1368	380	3925
32	0	0	2018	4	1370	380	3926
33	0	0	1946	4	1370	380	3925
34	0	0	1886	3	1370	380	3925
35	0	0	1833	4	1371	380	3925
36	0	0	1790	4	1373	380	3925
37	0	0	1754	4	1371	380	3925
38	0	0	1762	5	1372	380	3924
39	0	0	1816	5	1371	380	3924
40	0	0	1887	5	1370	380	3925
41	0	0	1925	5	1370	380	3926
42	0	0	2048	5	1367	379	3925
43	0	0	2174	5	1368	380	3925
44	0	0	2264	5	1368	380	3924
45	0	0	2333	5	1367	381	3925
46	0	0	2367	5	1367	380	3925
47	0	0	2326	4	1366	379	3926
48	0	0	2280	4	1367	380	3925
49	0	0	2220	4	1368	380	3925
50	0	0	2161	3	1367	380	3925
51	0	0	2095	4	1367	380	3925
52	0	0	2017	4	1368	380	3926
53	0	0	1939	4	1371	380	3926
54	0	0	1875	5	1370	379	3925
55	0	0	1822	4	1371	379	3925
56	0	0	1776	4	1371	380	3926
57	0	0	1743	4	1371	379	3925
58	0	0	1755	5	1370	380	3924
59	0	0	1802	4	1370	380	3925
60	0	0	1875	5	1369	380	3925
61	0	0	1990	5	1369	380	3925
62	0	0	2106	5	1367	380	3926
63	0	0	2193	5	1367	379	3925
64	0	0	2257	5	1367	380	3925
65	0	0	2295	5	1366	380	3925
66	0	0	2290	5	1366	379	3925
67	0	0	2261	5	1365	380	3926
68	0	0	2233	4	1366	379	3925
69	0	0	2188	4	1368	380	3926
70	0	0	2133	4	1367	378	3925
71	0	0	2064	4	1368	380	3925
72	0	0	1987	4	1369	380	3926
73	0	0	1906	4	1369	380	3924
74	0	0	1838	4	1369	380	3925
75	0	0	1778	4	1370	380	3925
76	0	0	1738	4	1372	380	3926
77	0	0	1703	4	1371	380	3925
78	0	0	1715	5	1370	379	3925
79	0	0	1771	5	1370	380	3925
80	0	0	1827	5	1369	380	3926
81	0	0	1905	5	1368	380	3926
82	0	0	2055	5	1367	380	3926
83	0	0	2188	5	1365	380	3925
84	0	0	2268	5	1366	380	3925
85	0	0	2369	5	1365	380	3925
86	0	0	2371	4	1365	380	3925
87	0	0	2329	4	1367	380	3926
88	0	0	2279	4	1366	380	3924
89	0	0	2217	4	1365	380	3926
90	0	0	2151	4	1367	381	3925
91	0	0	2072	4	1367	381	3925
92	0	0	1983	4	1368	380	3926
93	0	0	1891	4	1368	380	3925
94	0	0	1810	4	1369	380	3925
95	0	0	1741	4	1371	380	3925
96	0	0	1682	4	1370	379	3925
97	0	0	1642	4	1370	379	3926
98	0	0	1652	5	1370	380	3926
99	0	0	1711	6	1369	380	3925
100	0	0	1804	5	1368	380	3926
101	0	0	1941	5	1368	379	3926
102	0	0	2081	4	1367	380	3925
103	0	0	2196	5	1366	380	3925
104	0	0	2279	4	1366	380	3925
105	0	0	2327	5	1366	379	3925
106	0	0	2335	5	1365	381	3925
107	0	0	2322	5	1364	379	3925
108	0	0	2296	4	1365	379	3924
109	0	0	2250	4	1366	380	3924
110	0	0	2190	4	1366	380	3925
111	0	0	2118	4	1367	381	3925
112	0	0	2035	4	1368	380	3926
113	0	0	1950	4	1368	380	3925
114	0	0	1879	4	1369	380	3926
115	0	0	1823	4	1369	380	3925
116	0	0	1775	4	1370	381	3925
117	0	0	1736	4	1371	380	3926
118	0	0	1749	5	1370	379	3925
119	0	0	1812	5	1369	379	3925
120	0	0	1832	5	1368	380	3925
121	0	0	1963	5	1368	379	3925
122	0	0	2129	5	1367	380	3925
123	0	0	2261	5	1367	380	3928
124	0	0	2347	6	1366	380	3925
125	0	0	2443	5	1365	380	3925
126	0	0	2433	4	1366	380	3926
127	0	0	2392	4	1364	380	3925
0	0	0	2342	4	1364	380	3925
1	0	0	2277	4	1365	380	3925
2	0	0	2207	4	1366	380	3925
3	0	0	2126	4	1366	380	3926
4	0	0	2042	5	1366	380	3926
5	0	0	1955	4	1368	379	3925
6	0	0	1878	4	1369	380	3925
7	0	0	1811	4	1370	379	3925
8	0	0	1756	4	1371	379	3924
9	0	0	1716	4	1369	380	3925
10	0	0	1732	5	1370	380	3926
11	0	0	1798	6	1369	379	3925
12	0	0	1892	4	1367	380	3925
13	0	0	2023	5	1369	380	3926
14	0	0	2158	5	1366	380	3925
15	0	0	2269	5	1366	380	3925
16	0	0	2347	5	1366	379	3925
17	0	0	2387	5	1365	379	3925
18	0	0	2387	5	1365	380	3925
19	0	0	2359	4	1364	379	3926
20	0	0	2319	4	1363	380	3925
21	0	0	2262	4	1366	380	3927
22	0	0	2195	4	1366	380	3926
23	0	0	2109	4	1368	380	3925
24	0	0	2021	4	1367	380	3926
25	0	0	1928	4	1368	379	3924
26	0	0	1849	4	1368	380	3926
27	0	0	1785	4	1369	380	3925
28	0	0	1732	4	1370	380	3924
29	0	0	1690	4	1369	380	3925
30	0	0	1709	5	1370	380	3925
31	0	0	1766	5	1369	380	3926
32	0	0	1798	3	1367	380	3925
33	0	0	1955	5	1368	380	3926
34	0	0	2124	5	1366	380	3925
35	0	0	2251	5	1365	380	3925
36	0	0	2376	5	1365	379	3925
37	0	0	2442	5	1364	379	3925
38	0	0	2419	4	1364	380	3926
39	0	0	2379	4	1364	379	3926
40	0	0	2328	4	1364	379	3925
41	0	0	2266	4	1366	380	3926
42	0	0	2198	4	1366	380	3926
43	0	0	2115	4	1366	380	3925
44	0	0	2021	4	1368	380	3926
45	0	0	1926	4	1367	380	3925
46	0	0	1847	4	1368	380	3924
47	0	0	1784	3	1368	380	3925
48	0	0	1728	4	1371	380	3924
49	0	0	1688	4	1368	380	3925
50	0	0	1704	5	1368	380	3924
51	0	0	1776	5	1369	380	3925
52	0	0	1879	4	1368	380	3925
53	0	0	2018	5	1367	380	3926
54	0	0	2156	5	1365	379	3926
55	0	0	2268	5	1365	379	3925
56	0	0	2348	5	1364	380	3926
57	0	0	2390	5	1365	379	3925
58	0	0	2387	5	1362	380	3925
59	0	0	2368	5	1362	380	3925
60	0	0	2333	4	1364	380	3924
61	0	0	2272	4	1363	379	3925
62	0	0	2197	4	1364	379	3924
63	0	0	2112	4	1366	380	3925
64	0	0	2017	4	1366	379	3925
65	0	0	1921	4	1367	380	3925
66	0	0	1840	4	1367	380	3925
67	0	0	1776	4	1367	380	3924
68	0	0	1720	4	1367	380	3925
69	0	0	1674	5	1368	380	3925
70	0	0	1694	5	1368	380	3925
71	0	0	1718	5	1367	380	3925
72	0	0	1793	4	1366	379	3926
73	0	0	1962	5	1366	380	3926
74	0	0	2133	5	1363	380	3925
75	0	0	2243	5	1363	380	3926
76	0	0	2398	5	1363	379	3924
77	0	0	2437	4	1363	380	3925
78	0	0	2419	4	1363	380	3926
79	0	0	2384	4	1363	380	3925
80	0	0	2333	4	1363	380	3924
81	0	0	2265	4	1363	380	3926
82	0	0	2193	4	1364	380	3925
83	0	0	2104	4	1365	380	3925
84	0	0	2003	4	1366	379	3925
85	0	0	1907	4	1365	380	3925
86	0	0	1824	4	1366	380	3925
87	0	0	1761	4	1367	380	3925
88	0	0	1710	4	1369	380	3925
89	0	0	1662	4	1366	379	3926
90	0	0	1679	5	1367	380	3925
91	0	0	1754	5	1366	380	3925
92	0	0	1854	5	1365	380	3925
93	0	0	1995	5	1366	379	3925
94	0	0	2140	5	1364	380	3925
95	0	0	2258	5	1363	379	3926
96	0	0	2339	6	1363	380	3925
97	0	0	2388	5	1363	379	3925
98	0	0	2398	5	1363	380	3926
99	0	0	2372	5	1362	380	3925
100	0	0	2336	5	1363	380	3925
101	0	0	2269	4	1364	380	3925
102	0	0	2189	4	1364	380	3925
103	0	0	2099	4	1364	380	3925
104	0	0	2004	5	1365	379	3926
105	0	0	1906	4	1366	380	3925
106	0	0	1819	4	1366	380	3925
107	0	0	1753	4	1366	380	3925
108	0	0	1701	4	1369	380	3926
109	0	0	1652	5	1366	380	3925
110	0	0	1673	5	1367	379	3924
111	0	0	1676	5	1365	379	3924
112	0	0	1783	5	1364	379	3925
113	0	0	1962	5	1364	380	3924
114	0	0	2131	5	1364	380	3927
115	0	0	2274	6	1363	379	3925
116	0	0	2407	5	1362	379	3925
117	0	0	2441	5	1363	380	3925
118	0	0	2422	4	1361	379	3925
119	0	0	2387	4	1362	380	3926
120	0	0	2332	5	1363	380	3925
121	0	0	2258	4	1362	379	3926
122	0	0	2186	4	1363	380	3925
123	0	0	2098	4	1364	380	3925
124	0	0	1997	4	1364	380	3925
125	0	0	1895	4	1364	380	3925
126	0	0	1811	4	1364	379	3925
127	0	0	1741	5	1366	380	3925
0	0	0	1681	4	1367	380	3926
1	0	0	1638	4	1366	380	3925
2	0	0	1661	5	1366	380	3924
3	0	0	1737	5	1365	379	3924
4	0	0	1841	5	1365	379	3925
5	0	0	1990	5	1363	379	3926
6	0	0	2145	5	1362	380	3926
7	0	0	2271	5	1363	379	3925
8	0	0	2356	5	1361	379	3925
9	0	0	2399	5	1362	379	3925
10	0	0	2400	5	1361	379	3925
11	0	0	2375	4	1361	380	3926
12	0	0	2332	5	1361	379	3925
13	0	0	2270	4	1362	379	3925
14	0	0	2193	5	1364	379	3925
15	0	0	2106	4	1362	380	3925
16	0	0	2005	4	1364	380	3925
17	0	0	1901	5	1364	380	3925
18	0	0	1817	4	1364	379	3925
19	0	0	1747	4	1365	379	3924
20	0	0	1688	4	1365	380	3925
21	0	0	1645	4	1365	379	3925
22	0	0	1637	4	1365	379	3925
23	0	0	1665	4	1365	379	3925
24	0	0	1793	4	1364	380	3924
25	0	0	1984	5	1362	380	3926
26	0	0	2154	5	1363	380	3926
27	0	0	2327	5	1362	379	3925
28	0	0	2428	5	1362	379	3925
29	0	0	2454	5	1361	379	3924
30	0	0	2439	4	1359	380	3925
31	0	0	2407	4	1361	380	3926
32	0	0	2353	4	1361	379	3924
33	0	0	2278	4	1362	380	3924
34	0	0	2197	5	1362	379	3925
35	0	0	2102	4	1362	380	3925
36	0	0	2003	4	1363	380	3925
37	0	0	1901	4	1363	379	3925
38	0	0	1814	4	1365	379	3925
39	0	0	1744	4	1365	379	3925
40	0	0	1683	4	1366	380	3925
41	0	0	1628	4	1365	379	3925
42	0	0	1649	5	1364	379	3925
43	0	0	1736	5	1364	379	3926
44	0	0	1846	5	1365	380	3926
45	0	0	2006	5	1363	380	3926
46	0	0	2160	5	1361	380	3925
47	0	0	2280	5	1362	380	3925
48	0	0	2363	5	1360	379	3925
49	0	0	2405	5	1360	379	3925
50	0	0	2409	5	1361	380	3924
51	0	0	2393	4	1360	380	3925
52	0	0	2349	4	1359	380	3924
53	0	0	2279	4	1361	380	3924
54	0	0	2198	4	1361	380	3924
55	0	0	2102	4	1362	380	3925
56	0	0	1995	4	1363	379	3926
57	0	0	1892	4	1363	380	3925
58	0	0	1804	4	1363	380	3925
59	0	0	1736	4	1363	380	3926
60	0	0	1678	4	1365	380	3926
61	0	0	1633	5	1364	380	3926
62	0	0	1605	4	1365	380	3926
63	0	0	1670	5	1365	380	3926
64	0	0	1802	4	1363	379	3925
65	0	0	1985	5	1362	380	3925
66	0	0	2140	5	1362	380	3926
67	0	0	2341	5	1360	379	3926
68	0	0	2422	5	1359	380	3924
69	0	0	2449	5	1359	380	3925
70	0	0	2437	5	1359	380	3926
71	0	0	2408	4	1360	380	3925
72	0	0	2355	4	1361	379	3926
73	0	0	2283	5	1359	379	3925
74	0	0	2200	4	1360	379	3925
75	0	0	2101	4	1361	380	3926
76	0	0	1993	4	1362	379	3926
77	0	0	1887	4	1363	379	3926
78	0	0	1796	4	1364	379	3926
79	0	0	1726	5	1363	380	3925
80	0	0	1668	4	1365	380	3926
81	0	0	1622	4	1364	380	3925
82	0	0	1642	5	1365	380	3926
83	0	0	1726	5	1364	380	3925
84	0	0	1838	5	1362	379	3924
85	0	0	1993	4	1360	379	3925
86	0	0	2148	5	1361	380	3925
87	0	0	2272	5	1360	380	3924
88	0	0	2357	5	1359	380	3924
89	0	0	2404	5	1358	381	3925
90	0	0	2408	5	1358	380	3925
91	0	0	2387	4	1358	380	3926
92	0	0	2343	4	1360	379	3925
93	0	0	2276	4	1360	379	3926
94	0	0	2198	4	1361	380	3926
95	0	0	2101	3	1360	379	3925
96	0	0	1998	4	1362	380	3926
97	0	0	1894	4	1363	380	3925
98	0	0	1811	4	1362	380	3924
99	0	0	1741	4	1363	380	3924
100	0	0	1681	4	1363	380	3924
101	0	0	1634	4	1363	380	3925
102	0	0	1587	4	1363	380	3924
103	0	0	1676	5	1362	379	3925
104	0	0	1821	5	1361	379	3925
105	0	0	2002	4	1359	380	3926
106	0	0	2190	5	1359	380	3925
107	0	0	2338	5	1361	380	3926
108	0	0	2407	5	1359	380	3925
109	0	0	2437	5	1357	380	3925
110	0	0	2427	4	1357	380	3925
111	0	0	2397	4	1358	380	3926
112	0	0	2346	4	1360	379	3924
113	0	0	2274	4	1360	379	3925
114	0	0	2200	4	1359	381	3924
115	0	0	2109	4	1359	380	3924
116	0	0	2004	4	1361	380	3925
117	0	0	1899	4	1361	380	3924
118	0	0	1810	4	1361	379	3926
119	0	0	1743	4	1364	380	3924
120	0	0	1686	4	1364	379	3924
121	0	0	1646	4	1364	380	3926
122	0	0	1668	5	1363	379	3925
123	0	0	1752	5	1362	379	3925
124	0	0	1863	5	1362	379	3925
125	0	0	2017	5	1361	380	3925
126	0	0	2173	5	1360	379	3926
127	0	0	2291	5	1359	380	3925
0	0	0	2375	5	1358	379	3925
1	0	0	2419	6	1357	380	3925
2	0	0	2420	5	1358	380	3926
3	0	0	2397	4	1358	380	3925
4	0	0	2348	4	1359	380	3924
5	0	0	2272	4	1358	379	3926
6	0	0	2190	4	1360	380	3926
7	0	0	2100	4	1360	380	3924
8	0	0	1997	4	1361	379	3925
9	0	0	1895	4	1362	380	3925
10	0	0	1807	4	1360	380	3925
11	0	0	1741	5	1361	380	3925
12	0	0	1683	4	1364	380	3925
13	0	0	1597	4	1362	380	3925
14	0	0	1584	5	1362	379	3925
15	0	0	1683	5	1362	379	3925
16	0	0	1817	4	1360	379	3925
17	0	0	1969	5	1360	380	3925
18	0	0	2197	5	1360	379	3926
19	0	0	2323	5	1358	379	3925
20	0	0	2393	5	1357	379	3926
21	0	0	2427	4	1358	380	3924
22	0	0	2412	4	1358	380	3925
23	0	0	2387	4	1357	379	3925
24	0	0	2336	4	1357	380	3924
25	0	0	2264	4	1359	380	3924
26	0	0	2187	5	1359	380	3925
27	0	0	2095	4	1360	380	3925
28	0	0	1992	4	1360	380	3925
29	0	0	1884	4	1361	380	3926
30	0	0	1792	4	1361	380	3925
31	0	0	1716	4	1361	380	3926
32	0	0	1653	4	1363	379	3926
33	0	0	1603	4	1362	379	3926
34	0	0	1629	5	1362	380	3925
35	0	0	1716	5	1363	379	3925
36	0	0	1830	5	1361	380	3925
37	0	0	1984	5	1359	380	3926
38	0	0	2140	5	1358	379	3925
39	0	0	2262	5	1358	380	3924
40	0	0	2346	5	1357	380	3924
41	0	0	2391	4	1357	380	3924
42	0	0	2394	5	1356	380	3925
43	0	0	2378	4	1358	380	3926
44	0	0	2338	4	1356	380	3925
45	0	0	2268	4	1358	380	3926
46	0	0	2185	4	1359	380	3926
47	0	0	2095	4	1359	380	3926
48	0	0	1996	4	1359	380	3926
49	0	0	1890	4	1360	379	3925
50	0	0	1799	4	1360	379	3926
51	0	0	1734	4	1360	380	3926
52	0	0	1679	3	1362	380	3925
53	0	0	1572	4	1362	379	3925
54	0	0	1589	5	1361	379	3924
55	0	0	1694	5	1361	379	3924
56	0	0	1828	5	1360	379	3921
57	0	0	2002	5	1358	380	3924
58	0	0	2216	5	1357	380	3925
59	0	0	2330	4	1358	380	3926
60	0	0	2403	5	1358	380	3925
61	0	0	2437	6	1358	380	3925
62	0	0	2431	4	1356	380	3925
63	0	0	2407	4	1356	380	3926
64	0	0	2356	4	1357	379	3925
65	0	0	2285	4	1357	379	3927
66	0	0	2204	4	1357	380	3925
67	0	0	2110	4	1358	380	3925
68	0	0	2009	4	1359	379	3925
69	0	0	1912	4	1361	379	3925
70	0	0	1829	4	1360	380	3924
71	0	0	1758	3	1361	380	3924
72	0	0	1698	3	1363	380	3924
73	0	0	1653	4	1362	379	3925
74	0	0	1675	5	1361	380	3924
75	0	0	1755	5	1361	380	3926
76	0	0	1861	5	1360	380	3926
77	0	0	2012	5	1358	380	3925
78	0	0	2162	5	1358	380	3926
79	0	0	2279	5	1356	380	3925
80	0	0	2368	5	1357	380	3925
81	0	0	2415	5	1357	380	3925
82	0	0	2422	5	1356	380	3925
83	0	0	2404	4	1355	379	3925
84	0	0	2365	4	1357	380	3926
85	0	0	2297	5	1357	380	3925
86	0	0	2218	3	1358	380	3925
87	0	0	2122	3	1357	380	3925
88	0	0	2022	4	1360	380	3926
89	0	0	1918	4	1359	380	3925
90	0	0	1829	4	1359	380	3926
91	0	0	1760	4	1361	379	3925
92	0	0	1692	4	1361	380	3925
93	0	0	1587	4	1361	379	3925
94	0	0	1624	4	1360	380	3925
95	0	0	1734	4	1360	380	3925
96	0	0	1858	5	1359	380	3925
97	0	0	2054	5	1360	380	3925
98	0	0	2221	5	1358	379	3926
99	0	0	2327	5	1356	380	3925
100	0	0	2397	5	1357	380	3925
101	0	0	2435	5	1355	380	3926
102	0	0	2434	5	1355	380	3926
103	0	0	2410	5	1356	379	3925
104	0	0	2366	4	1356	380	3926
105	0	0	2300	4	1356	380	3925
106	0	0	2219	4	1358	380	3925
107	0	0	2127	4	1359	380	3925
108	0	0	2028	4	1358	380	3926
109	0	0	1922	4	1359	380	3925
110	0	0	1833	4	1360	379	3925
111	0	0	1762	4	1360	379	3925
112	0	0	1703	4	1362	380	3925
113	0	0	1655	4	1361	380	3926
114	0	0	1678	4	1361	379	3926
115	0	0	1753	5	1358	380	3925
116	0	0	1857	5	1359	380	3925
117	0	0	2011	5	1358	379	3925
118	0	0	2166	5	1357	379	3926
119	0	0	2284	5	1357	380	3924
120	0	0	2368	5	1357	380	3925
121	0	0	2409	5	1355	380	3924
122	0	0	2414	5	1355	380	3924
123	0	0	2395	5	1354	380	3925
124	0	0	2353	4	1355	380	3924
125	0	0	2287	4	1356	380	3926
126	0	0	2211	4	1357	380	3926
127	0	0	2120	3	1358	380	3925
0	0	0	2021	4	1358	380	3926
1	0	0	1915	5	1359	380	3925
2	0	0	1824	4	1360	380	3926
3	0	0	1759	4	1360	380	3926
4	0	0	1651	4	1360	380	3925
5	0	0	1585	4	1361	380	3926
6	0	0	1627	5	1360	380	3925
7	0	0	1729	5	1359	380	3926
8	0	0	1831	5	1359	380	3925
9	0	0	2058	5	1359	380	3925
10	0	0	2201	5	1356	379	3925
11	0	0	2302	5	1356	380	3926
12	0	0	2376	5	1355	380	3925
13	0	0	2415	5	1355	380	3925
14	0	0	2419	5	1354	380	3925
15	0	0	2399	5	1355	379	3925
16	0	0	2353	4	1355	379	3925
17	0	0	2282	4	1355	380	3925
18	0	0	2204	4	1356	380	3925
19	0	0	2113	4	1357	380	3925
20	0	0	2011	4	1358	380	3926
21	0	0	1909	4	1358	380	3926
22	0	0	1817	3	1357	380	3925
23	0	0	1751	4	1358	380	3925
24	0	0	1694	4	1359	380	3926
25	0	0	1647	4	1359	380	3926
26	0	0	1666	5	1359	380	3925
27	0	0	1744	5	1357	380	3926
28	0	0	1855	4	1359	380	3925
29	0	0	2005	5	1357	380	3925
30	0	0	2157	5	1357	380	3926
31	0	0	2275	5	1355	380	3925
32	0	0	2357	5	1355	379	3925
33	0	0	2402	5	1355	379	3925
34	0	0	2404	5	1355	380	3925
35	0	0	2381	4	1353	379	3926
36	0	0	2340	3	1355	379	3925
37	0	0	2279	4	1356	380	3925
38	0	0	2200	4	1356	380	3925
39	0	0	2109	4	1356	380	3925
40	0	0	2009	3	1356	380	3926
41	0	0	1906	4	1358	380	3925
42	0	0	1819	4	1357	379	3926
43	0	0	1754	4	1359	380	3926
44	0	0	1636	4	1360	380	3925
45	0	0	1592	5	1360	379	3926
46	0	0	1641	5	1359	380	3925
47	0	0	1736	5	1359	380	3925
48	0	0	1875	5	1358	380	3925
49	0	0	2069	5	1357	380	3926
50	0	0	2209	5	1356	380	3926
51	0	0	2313	5	1356	380	3925
52	0	0	2380	5	1354	379	3925
53	0	0	2414	5	1354	380	3925
54	0	0	2420	5	1354	380	3925
55	0	0	2407	5	1353	379	3926
56	0	0	2370	4	1353	380	3925
57	0	0	2303	5	1355	380	3925
58	0	0	2224	4	1355	380	3925
59	0	0	2125	4	1358	380	3926
60	0	0	2017	4	1357	379	3925
61	0	0	1912	5	1356	380	3925
62	0	0	1817	4	1357	380	3926
63	0	0	1742	4	1359	380	3924
64	0	0	1681	4	1360	380	3925
65	0	0	1630	4	1358	380	3925
66	0	0	1643	5	1358	380	3925
67	0	0	1719	5	1358	380	3925
68	0	0	1824	5	1356	380	3925
69	0	0	1976	5	1357	380	3925
70	0	0	2130	5	1355	379	3926
71	0	0	2252	5	1354	380	3925
72	0	0	2335	5	1354	379	3925
73	0	0	2385	5	1353	380	3925
74	0	0	2385	5	1353	380	3924
75	0	0	2373	5	1353	378	3925
76	0	0	2338	4	1353	380	3925
77	0	0	2274	5	1354	380	3924
78	0	0	2197	5	1354	380	3924
79	0	0	2100	4	1355	380	3924
80	0	0	1992	4	1355	379	3925
81	0	0	1893	4	1357	380	3925
82	0	0	1810	4	1357	380	3925
83	0	0	1719	4	1357	380	3925
84	0	0	1617	4	1357	380	3924
85	0	0	1588	4	1357	380	3926
86	0	0	1631	5	1357	380	3925
87	0	0	1714	5	1356	380	3926
88	0	0	1882	5	1356	380	3926
89	0	0	2040	6	1356	380	3925
90	0	0	2176	5	1355	380	3926
91	0	0	2276	5	1354	379	3925
92	0	0	2349	5	1353	380	3926
93	0	0	2391	5	1353	380	3926
94	0	0	2390	5	1354	380	3924
95	0	0	2370	5	1352	380	3925
96	0	0	2332	3	1353	380	3924
97	0	0	2272	4	1353	380	3926
98	0	0	2200	4	1355	380	3926
99	0	0	2111	4	1354	380	3925
100	0	0	2015	4	1357	380	3926
101	0	0	1916	4	1356	380	3925
102	0	0	1829	4	1356	380	3926
103	0	0	1764	4	1357	380	3926
104	0	0	1703	4	1358	380	3925
105	0	0	1653	4	1357	379	3926
106	0	0	1672	5	1357	380	3925
107	0	0	1747	5	1357	380	3925
108	0	0	1852	5	1355	380	3925
109	0	0	2000	5	1355	380	3924
110	0	0	2150	5	1354	378	3925
111	0	0	2271	5	1353	380	3924
112	0	0	2354	5	1353	379	3924
113	0	0	2403	5	1353	380	3924
114	0	0	2410	5	1352	380	3925
115	0	0	2396	4	1352	380	3925
116	0	0	2350	3	1353	380	3926
117	0	0	2280	4	1352	380	3925
118	0	0	2199	4	1353	380	3925
119	0	0	2109	4	1355	380	3926
120	0	0	2006	4	1354	379	3926
121	0	0	1904	3	1356	380	3926
122	0	0	1821	4	1356	380	3925
123	0	0	1697	4	1357	380	3925
124	0	0	1628	5	1357	380	3925
125	0	0	1607	5	1357	379	3925
126	0	0	1646	5	1357	379	3924
127	0	0	1733	5	1355	381	3924
0	0	0	1913	6	1354	380	3924
1	0	0	2058	4	1354	379	3924
2	0	0	2191	5	1354	380	3925
3	0	0	2297	5	1353	380	3924
4	0	0	2373	5	1351	380	3925
5	0	0	2416	6	1351	379	3924
6	0	0	2419	5	1351	379	3925
7	0	0	2404	5	1352	380	3926
8	0	0	2360	5	1352	380	3925
9	0	0	2293	4	1353	380	3927
10	0	0	2208	4	1353	380	3926
11	0	0	2113	4	1353	380	3925
12	0	0	2011	4	1355	380	3926
13	0	0	1913	4	1355	380	3925
14	0	0	1823	4	1354	380	3926
15	0	0	1754	4	1354	380	3924
16	0	0	1697	4	1357	380	3925
17	0	0	1647	4	1356	379	3925
18	0	0	1662	5	1356	380	3924
19	0	0	1739	5	1356	379	3925
20	0	0	1847	5	1354	380	3925
21	0	0	2001	5	1354	380	3926
22	0	0	2158	5	1353	380	3925
23	0	0	2273	5	1352	380	3925
24	0	0	2355	5	1352	380	3925
25	0	0	2402	6	1351	379	3925
26	0	0	2407	4	1352	380	3925
27	0	0	2393	4	1352	380	3926
28	0	0	2347	4	1351	380	3925
29	0	0	2278	4	1352	380	3926
30	0	0	2202	4	1353	380	3926
31	0	0	2111	4	1353	380	3925
32	0	0	2013	4	1354	379	3925
33	0	0	1911	4	1354	380	3925
34	0	0	1818	3	1355	380	3926
35	0	0	1693	4	1356	380	3925
36	0	0	1648	3	1357	380	3924
37	0	0	1632	5	1356	379	3926
38	0	0	1673	4	1357	380	3924
39	0	0	1799	5	1354	380	3925
40	0	0	1931	6	1353	379	3925
41	0	0	2061	6	1354	380	3926
42	0	0	2195	5	1352	380	3926
43	0	0	2303	4	1351	380	3925
44	0	0	2381	5	1351	379	3925
45	0	0	2429	5	1351	380	3925
46	0	0	2435	5	1352	380	3926
47	0	0	2416	5	1351	380	3925
48	0	0	2371	4	1352	380	3924
49	0	0	2298	4	1351	380	3924
50	0	0	2212	5	1352	379	3924
51	0	0	2116	5	1353	380	3925
52	0	0	2008	4	1353	380	3926
53	0	0	1900	4	1354	380	3925
54	0	0	1819	4	1354	379	3925
55	0	0	1757	4	1354	380	3925
56	0	0	1703	5	1357	380	3925
57	0	0	1657	4	1355	380	3926
58	0	0	1673	3	1356	380	3927
59	0	0	1749	5	1354	379	3925
60	0	0	1855	5	1354	380	3925
61	0	0	2005	5	1353	380	3926
62	0	0	2155	5	1351	379	3925
63	0	0	2274	4	1352	381	3924
64	0	0	2359	5	1351	379	3926
65	0	0	2405	5	1351	380	3926
66	0	0	2403	6	1350	380	3925
67	0	0	2386	4	1350	380	3925
68	0	0	2346	3	1350	380	3924
69	0	0	2281	5	1351	380	3925
70	0	0	2203	4	1352	380	3925
71	0	0	2112	5	1352	380	3925
72	0	0	2011	4	1352	380	3925
73	0	0	1910	3	1354	380	3926
74	0	0	1784	4	1355	381	3926
75	0	0	1685	4	1354	380	3926
76	0	0	1645	4	1355	380	3926
77	0	0	1623	5	1355	380	3926
78	0	0	1640	5	1354	380	3925
79	0	0	1804	5	1353	380	3925
80	0	0	1917	5	1354	379	3925
81	0	0	2054	5	1353	380	3925
82	0	0	2189	5	1352	380	3925
83	0	0	2294	5	1350	380	3925
84	0	0	2374	5	1351	380	3926
85	0	0	2419	5	1351	380	3924
86	0	0	2421	5	1349	380	3925
87	0	0	2402	4	1350	380	3925
88	0	0	2363	3	1350	380	3926
89	0	0	2297	4	1352	380	3925
90	0	0	2217	4	1351	380	3925
91	0	0	2120	4	1353	380	3925
92	0	0	2016	4	1353	380	3926
93	0	0	1910	4	1354	380	3926
94	0	0	1823	4	1354	380	3925
95	0	0	1758	4	1355	380	3926
96	0	0	1699	4	1356	379	3925
97	0	0	1648	4	1355	380	3925
98	0	0	1667	5	1354	380	3925
99	0	0	1749	5	1354	380	3925
100	0	0	1857	5	1353	380	3926
101	0	0	2010	5	1352	380	3925
102	0	0	2168	5	1352	380	3926
103	0	0	2288	6	1350	380	3925
104	0	0	2372	5	1350	380	3925
105	0	0	2413	5	1348	380	3925
106	0	0	2419	5	1349	380	3925
107	0	0	2408	5	1350	380	3926
108	0	0	2360	4	1350	380	3925
109	0	0	2287	4	1350	380	3926
110	0	0	2208	4	1351	380	3926
111	0	0	2117	4	1352	380	3926
112	0	0	2017	4	1353	380	3926
113	0	0	1915	4	1353	380	3925
114	0	0	1767	4	1353	380	3926
115	0	0	1706	4	1355	380	3926
116	0	0	1676	4	1355	380	3925
117	0	0	1646	4	1354	379	3925
118	0	0	1694	4	1355	380	3926
119	0	0	1825	5	1355	379	3925
120	0	0	1917	5	1353	379	3925
121	0	0	2050	4	1352	380	3925
122	0	0	2185	5	1351	379	3925
123	0	0	2296	5	1352	379	3925
124	0	0	2378	5	1348	380	3925
125	0	0	2420	5	1351	380	3926
126	0	0	2415	4	1349	380	3926
127	0	0	2395	4	1349	380	3926
0	0	0	2351	5	1350	379	3925
1	0	0	2281	4	1349	380	3925
2	0	0	2202	4	1350	380	3925
3	0	0	2108	4	1352	380	3925
4	0	0	2008	4	1352	380	3925
5	0	0	1906	4	1353	380	3925
6	0	0	1816	4	1353	380	3925
7	0	0	1743	4	1353	381	3925
8	0	0	1683	4	1355	380	3925
9	0	0	1634	4	1353	380	3925
10	0	0	1652	4	1353	380	3925
11	0	0	1729	5	1353	380	3925
12	0	0	1833	5	1352	380	3926
13	0	0	1981	5	1351	380	3926
