# bioPlux Text File Format
# Version: 1
# StartDateTime: 2011-07-18 12:35:13
# SamplingFrequency: 1000
# SampledChannels: 1 2 3 4 5
# SamplingResolution: 12
# AcquiringDevice: 00:07:80:42:0F:95
# EndOfHeader
0	0	0	2305	4	185	0	3923
1	0	0	2289	4	183	0	3923
2	0	0	2287	4	184	0	3923
3	0	0	2271	4	185	0	3923
4	0	0	2259	5	183	0	3924
5	0	0	2265	5	185	0	3923
6	0	0	2290	5	184	0	3923
7	0	0	2330	5	184	0	3923
8	0	0	2382	5	185	0	3923
9	0	0	2413	5	183	0	3923
10	0	0	2440	5	183	0	3923
11	0	0	2461	5	184	0	3923
12	0	0	2480	4	184	0	3923
13	0	0	2515	5	184	0	3923
14	0	0	2544	5	184	0	3923
15	0	0	2534	5	184	0	3923
16	0	0	2493	4	184	0	3923
17	0	0	2454	4	185	0	3923
18	0	0	2415	4	184	0	3923
19	0	0	2380	4	184	0	3925
20	0	0	2353	5	183	0	3923
21	0	0	2333	5	184	0	3923
22	0	0	2322	5	183	0	3923
23	0	0	2290	4	185	0	3923
24	0	0	2276	5	183	0	3923
25	0	0	2281	5	184	0	3923
26	0	0	2305	6	184	0	3923
27	0	0	2349	5	184	0	3923
28	0	0	2409	5	185	0	3923
29	0	0	2454	5	183	0	3923
30	0	0	2480	5	184	0	3923
31	0	0	2499	5	184	0	3923
32	0	0	2510	5	184	0	3924
33	0	0	2523	5	184	0	3924
34	0	0	2523	5	184	0	3924
35	0	0	2509	5	184	0	3924
36	0	0	2489	4	184	0	3923
37	0	0	2449	4	184	0	3923
38	0	0	2413	5	185	0	3923
39	0	0	2384	4	182	0	3923
40	0	0	2349	4	184	0	3923
41	0	0	2312	4	184	0	3923
42	0	0	2282	4	184	0	3923
43	0	0	2237	4	184	0	3923
44	0	0	2218	5	184	0	3923
45	0	0	2236	5	184	0	3923
46	0	0	2264	5	184	0	3923
47	0	0	2293	5	184	0	3923
48	0	0	2331	5	183	0	3923
49	0	0	2377	5	185	0	3924
50	0	0	2418	3	184	0	3923
51	0	0	2449	5	184	0	3923
52	0	0	2474	5	184	0	3923
53	0	0	2499	5	185	0	3923
54	0	0	2503	5	183	0	3924
55	0	0	2484	5	184	0	3923
56	0	0	2451	4	183	0	3924
57	0	0	2418	4	184	0	3923
58	0	0	2383	4	183	0	3923
59	0	0	2345	5	186	0	3923
60	0	0	2316	4	183	0	3923
61	0	0	2301	5	184	0	3923
62	0	0	2293	5	184	0	3923
63	0	0	2266	4	183	0	3923
64	0	0	2258	5	184	0	3923
65	0	0	2270	5	184	0	3924
66	0	0	2288	5	184	0	3923
67	0	0	2315	5	184	0	3923
68	0	0	2342	5	184	0	3923
69	0	0	2373	5	184	0	3924
70	0	0	2416	5	183	0	3923
71	0	0	2461	5	184	0	3923
72	0	0	2479	5	184	0	3923
73	0	0	2470	5	183	0	3924
74	0	0	2439	4	183	0	3923
75	0	0	2411	5	184	0	3923
76	0	0	2387	4	183	0	3923
77	0	0	2372	5	182	0	3923
78	0	0	2359	5	184	0	3923
79	0	0	2342	5	183	0	3924
80	0	0	2309	4	184	0	3923
81	0	0	2271	4	184	0	3923
82	0	0	2253	5	184	0	3923
83	0	0	2235	5	185	0	3923
84	0	0	2235	5	183	0	3923
85	0	0	2259	5	184	0	3923
86	0	0	2294	5	184	0	3923
87	0	0	2333	5	184	0	3924
88	0	0	2374	5	184	0	3924
89	0	0	2397	5	184	0	3924
90	0	0	2417	5	184	0	3923
91	0	0	2432	4	183	0	3924
92	0	0	2435	5	183	0	3923
93	0	0	2459	5	184	0	3922
94	0	0	2488	5	184	0	3923
95	0	0	2481	5	184	0	3923
96	0	0	2454	5	184	0	3923
97	0	0	2418	4	185	0	3923
98	0	0	2355	4	184	0	3924
99	0	0	2292	4	185	0	3923
100	0	0	2229	4	183	0	3923
101	0	0	2186	3	184	0	3924
102	0	0	2167	5	184	0	3923
103	0	0	2144	4	184	0	3924
104	0	0	2148	5	184	0	3924
105	0	0	2155	5	183	0	3923
106	0	0	2160	5	184	0	3923
107	0	0	2189	5	184	0	3923
108	0	0	2250	5	184	0	3923
109	0	0	2318	5	185	0	3923
110	0	0	2365	5	185	0	3923
111	0	0	2392	5	183	0	3923
112	0	0	2412	5	183	0	3923
113	0	0	2431	5	184	0	3923
114	0	0	2438	5	184	0	3923
115	0	0	2419	5	184	0	3923
116	0	0	2381	4	184	0	3923
117	0	0	2336	4	185	0	3923
118	0	0	2287	4	184	0	3924
119	0	0	2247	5	183	0	3924
120	0	0	2223	5	183	0	3923
121	0	0	2210	5	184	0	3923
122	0	0	2202	5	185	0	3923
123	0	0	2158	4	184	0	3923
124	0	0	2121	5	184	0	3923
125	0	0	2126	5	184	0	3924
126	0	0	2156	5	184	0	3923
127	0	0	2200	5	184	0	3923
0	0	0	2250	5	184	0	3924
1	0	0	2295	5	184	0	3923
2	0	0	2331	5	184	0	3924
3	0	0	2358	5	185	0	3923
4	0	0	2384	5	184	0	3923
5	0	0	2415	5	183	0	3924
6	0	0	2435	5	184	0	3924
7	0	0	2427	5	184	0	3924
8	0	0	2401	4	185	0	3923
9	0	0	2369	5	184	0	3923
10	0	0	2324	4	184	0	3923
11	0	0	2274	4	183	0	3923
12	0	0	2245	5	184	0	3923
13	0	0	2220	5	183	0	3923
14	0	0	2204	5	183	0	3923
15	0	0	2169	5	185	0	3923
16	0	0	2154	5	183	0	3923
17	0	0	2163	5	184	0	3923
18	0	0	2182	4	184	0	3922
19	0	0	2201	5	185	0	3923
20	0	0	2237	5	184	0	3923
21	0	0	2276	4	184	0	3923
22	0	0	2303	5	184	0	3923
23	0	0	2324	4	184	0	3924
24	0	0	2338	5	184	0	3924
25	0	0	2358	5	184	0	3923
26	0	0	2366	5	184	0	3924
27	0	0	2348	5	185	0	3923
28	0	0	2326	5	184	0	3923
29	0	0	2306	5	184	0	3923
30	0	0	2274	4	184	0	3923
31	0	0	2236	4	183	0	3923
32	0	0	2195	4	184	0	3923
33	0	0	2162	4	185	0	3923
34	0	0	2145	5	184	0	3923
35	0	0	2113	4	184	0	3924
36	0	0	2091	5	183	0	3923
37	0	0	2096	5	184	0	3923
38	0	0	2109	4	184	0	3924
39	0	0	2153	5	185	0	3923
40	0	0	2208	5	184	0	3924
41	0	0	2255	5	183	0	3924
42	0	0	2304	5	185	0	3923
43	0	0	2340	5	184	0	3923
44	0	0	2351	5	185	0	3923
45	0	0	2359	5	185	0	3923
46	0	0	2350	5	184	0	3923
47	0	0	2320	4	184	0	3924
48	0	0	2293	4	185	0	3922
49	0	0	2272	5	184	0	3923
50	0	0	2252	5	185	0	3923
51	0	0	2222	4	183	0	3923
52	0	0	2210	5	184	0	3923
53	0	0	2211	5	184	0	3923
54	0	0	2214	5	184	0	3923
55	0	0	2188	4	185	0	3923
56	0	0	2176	5	184	0	3924
57	0	0	2191	5	184	0	3923
58	0	0	2214	5	185	0	3923
59	0	0	2237	5	184	0	3923
60	0	0	2278	4	184	0	3923
61	0	0	2314	5	184	0	3923
62	0	0	2338	5	184	0	3924
63	0	0	2353	4	184	0	3923
64	0	0	2366	5	183	0	3923
65	0	0	2382	5	184	0	3924
66	0	0	2393	5	184	0	3923
67	0	0	2389	5	184	0	3923
68	0	0	2375	4	184	0	3923
69	0	0	2344	4	184	0	3923
70	0	0	2312	5	184	0	3923
71	0	0	2286	5	184	0	3924
72	0	0	2260	5	184	0	3923
73	0	0	2226	4	184	0	3924
74	0	0	2195	5	185	0	3924
75	0	0	2164	4	185	0	3924
76	0	0	2160	5	184	0	3924
77	0	0	2174	5	184	0	3923
78	0	0	2202	5	185	0	3923
79	0	0	2241	5	184	0	3923
80	0	0	2286	5	184	0	3923
81	0	0	2308	5	184	0	3923
82	0	0	2318	5	183	0	3923
83	0	0	2323	5	184	0	3923
84	0	0	2332	5	183	0	3923
85	0	0	2345	5	184	0	3924
86	0	0	2355	5	183	0	3923
87	0	0	2363	5	184	0	3923
88	0	0	2361	5	184	0	3923
89	0	0	2330	4	185	0	3923
90	0	0	2279	4	185	0	3924
91	0	0	2240	4	184	0	3924
92	0	0	2204	4	184	0	3923
93	0	0	2165	4	184	0	3923
94	0	0	2147	4	184	0	3923
95	0	0	2128	5	184	0	3924
96	0	0	2129	5	183	0	3923
97	0	0	2148	5	184	0	3922
98	0	0	2175	4	185	0	3923
99	0	0	2213	5	184	0	3923
100	0	0	2258	5	185	0	3923
101	0	0	2294	5	184	0	3923
102	0	0	2315	5	184	0	3923
103	0	0	2332	5	184	0	3920
104	0	0	2344	5	184	0	3923
105	0	0	2355	5	184	0	3923
106	0	0	2359	5	184	0	3924
107	0	0	2348	5	184	0	3923
108	0	0	2334	5	185	0	3924
109	0	0	2305	4	184	0	3923
110	0	0	2260	4	183	0	3923
111	0	0	2208	4	183	0	3924
112	0	0	2164	4	183	0	3923
113	0	0	2151	5	184	0	3922
114	0	0	2151	5	184	0	3923
115	0	0	2125	4	184	0	3923
116	0	0	2100	5	184	0	3923
117	0	0	2109	5	184	0	3924
118	0	0	2143	6	184	0	3923
119	0	0	2202	5	184	0	3923
120	0	0	2266	5	184	0	3924
121	0	0	2308	5	183	0	3923
122	0	0	2334	5	184	0	3923
123	0	0	2353	4	184	0	3923
124	0	0	2361	5	184	0	3924
125	0	0	2372	5	184	0	3923
126	0	0	2386	5	184	0	3924
127	0	0	2371	5	184	0	3923
0	0	0	2330	4	183	0	3923
1	0	0	2288	4	184	0	3922
2	0	0	2251	4	184	0	3923
3	0	0	2224	4	184	0	3924
4	0	0	2196	4	184	0	3923
5	0	0	2168	4	184	0	3923
6	0	0	2142	4	185	0	3923
7	0	0	2106	4	185	0	3924
8	0	0	2091	5	183	0	3923
9	0	0	2090	5	183	0	3923
10	0	0	2112	4	184	0	3923
11	0	0	2169	5	184	0	3923
12	0	0	2236	5	184	0	3923
13	0	0	2280	5	183	0	3924
14	0	0	2315	5	184	0	3923
15	0	0	2342	5	184	0	3924
16	0	0	2366	5	183	0	3923
17	0	0	2390	5	183	0	3923
18	0	0	2396	5	184	0	3924
19	0	0	2361	5	184	0	3923
20	0	0	2328	5	184	0	3923
21	0	0	2312	5	184	0	3923
22	0	0	2294	5	183	0	3923
23	0	0	2251	4	184	0	3923
24	0	0	2199	4	184	0	3923
25	0	0	2169	5	184	0	3923
26	0	0	2159	5	184	0	3923
27	0	0	2125	4	184	0	3923
28	0	0	2102	5	183	0	3924
29	0	0	2109	5	185	0	3924
30	0	0	2136	6	183	0	3923
31	0	0	2185	5	185	0	3923
32	0	0	2246	5	184	0	3924
33	0	0	2280	5	184	0	3924
34	0	0	2312	5	184	0	3923
35	0	0	2340	5	184	0	3923
36	0	0	2357	5	184	0	3922
37	0	0	2379	5	184	0	3923
38	0	0	2389	5	183	0	3923
39	0	0	2373	5	184	0	3923
40	0	0	2339	5	183	0	3924
41	0	0	2306	4	185	0	3923
42	0	0	2293	5	185	0	3923
43	0	0	2279	5	184	0	3924
44	0	0	2247	4	183	0	3923
45	0	0	2217	4	184	0	3923
46	0	0	2205	5	184	0	3923
47	0	0	2175	4	184	0	3924
48	0	0	2160	5	184	0	3924
49	0	0	2165	5	183	0	3923
50	0	0	2177	5	185	0	3923
51	0	0	2198	5	185	0	3923
52	0	0	2242	5	184	0	3923
53	0	0	2295	5	184	0	3923
54	0	0	2335	5	184	0	3922
55	0	0	2358	7	184	0	3923
56	0	0	2371	5	184	0	3923
57	0	0	2393	5	184	0	3924
58	0	0	2401	5	184	0	3923
59	0	0	2398	5	185	0	3923
60	0	0	2395	5	183	0	3923
61	0	0	2371	4	185	0	3923
62	0	0	2330	4	184	0	3923
63	0	0	2285	4	184	0	3923
64	0	0	2252	4	184	0	3923
65	0	0	2227	5	185	0	3923
66	0	0	2229	5	185	0	3923
67	0	0	2211	4	184	0	3923
68	0	0	2191	5	184	0	3923
69	0	0	2179	5	184	0	3922
70	0	0	2180	5	185	0	3923
71	0	0	2205	5	184	0	3923
72	0	0	2260	5	184	0	3924
73	0	0	2321	5	184	0	3923
74	0	0	2379	5	184	0	3924
75	0	0	2409	6	184	0	3923
76	0	0	2413	5	184	0	3924
77	0	0	2416	5	185	0	3924
78	0	0	2411	5	182	0	3923
79	0	0	2398	5	184	0	3923
80	0	0	2382	5	184	0	3925
81	0	0	2372	3	184	0	3923
82	0	0	2360	5	184	0	3923
83	0	0	2322	4	184	0	3923
84	0	0	2294	4	184	0	3924
85	0	0	2283	6	185	0	3923
86	0	0	2270	5	184	0	3923
87	0	0	2234	4	185	0	3923
88	0	0	2218	5	185	0	3923
89	0	0	2228	5	184	0	3923
90	0	0	2252	5	184	0	3923
91	0	0	2287	5	184	0	3923
92	0	0	2341	5	184	0	3923
93	0	0	2389	5	184	0	3924
94	0	0	2432	5	184	0	3923
95	0	0	2471	5	185	0	3924
96	0	0	2488	5	184	0	3923
97	0	0	2500	5	184	0	3923
98	0	0	2501	5	184	0	3924
99	0	0	2483	5	183	0	3923
100	0	0	2458	5	184	0	3924
101	0	0	2447	4	183	0	3923
102	0	0	2446	5	184	0	3923
103	0	0	2436	5	184	0	3923
104	0	0	2412	5	184	0	3923
105	0	0	2388	5	184	0	3923
106	0	0	2387	4	183	0	3923
107	0	0	2380	5	185	0	3924
108	0	0	2372	5	184	0	3923
109	0	0	2387	5	184	0	3923
110	0	0	2407	5	184	0	3923
111	0	0	2428	5	183	0	3924
112	0	0	2476	5	185	0	3923
113	0	0	2531	5	183	0	3924
114	0	0	2568	5	184	0	3923
115	0	0	2586	5	183	0	3923
116	0	0	2610	4	185	0	3923
117	0	0	2653	5	184	0	3923
118	0	0	2689	5	184	0	3923
119	0	0	2713	5	184	0	3923
120	0	0	2735	5	184	0	3923
121	0	0	2734	5	184	0	3923
122	0	0	2700	4	184	0	3924
123	0	0	2664	5	184	0	3923
124	0	0	2636	5	184	0	3923
125	0	0	2611	5	184	0	3924
126	0	0	2599	5	185	0	3923
127	0	0	2582	5	183	0	3923
0	0	0	2585	5	184	0	3923
1	0	0	2614	5	184	0	3924
2	0	0	2653	4	184	0	3923
3	0	0	2705	5	184	0	3924
4	0	0	2760	5	183	0	3923
5	0	0	2799	5	184	0	3928
6	0	0	2826	6	184	0	3923
7	0	0	2849	5	184	0	3923
8	0	0	2873	5	184	0	3923
9	0	0	2905	5	184	0	3923
10	0	0	2917	5	184	0	3923
11	0	0	2897	6	184	0	3923
12	0	0	2869	5	184	0	3923
13	0	0	2845	6	184	0	3923
14	0	0	2817	5	184	0	3923
15	0	0	2773	4	184	0	3924
16	0	0	2725	5	184	0	3923
17	0	0	2705	5	184	0	3923
18	0	0	2708	5	184	0	3924
19	0	0	2689	5	184	0	3924
20	0	0	2671	5	184	0	3924
21	0	0	2678	5	184	0	3923
22	0	0	2700	5	184	0	3923
23	0	0	2737	6	185	0	3923
24	0	0	2786	5	183	0	3923
25	0	0	2822	5	184	0	3924
26	0	0	2852	6	184	0	3923
27	0	0	2884	5	184	0	3924
28	0	0	2914	5	184	0	3923
29	0	0	2948	5	184	0	3923
30	0	0	2972	5	184	0	3923
31	0	0	2965	5	184	0	3923
32	0	0	2938	5	184	0	3924
33	0	0	2917	4	184	0	3923
34	0	0	2897	5	184	0	3924
35	0	0	2859	5	184	0	3924
36	0	0	2820	5	184	0	3923
37	0	0	2780	4	183	0	3923
38	0	0	2749	5	184	0	3923
39	0	0	2712	4	184	0	3923
40	0	0	2699	5	184	0	3923
41	0	0	2717	6	185	0	3923
42	0	0	2758	5	183	0	3923
43	0	0	2798	4	184	0	3922
44	0	0	2843	5	185	0	3923
45	0	0	2881	5	184	0	3923
46	0	0	2902	6	183	0	3923
47	0	0	2913	5	184	0	3924
48	0	0	2938	5	184	0	3924
49	0	0	2980	5	184	0	3923
50	0	0	3009	5	185	0	3924
51	0	0	2993	5	184	0	3923
52	0	0	2973	5	184	0	3923
53	0	0	2946	6	183	0	3923
54	0	0	2904	4	184	0	3924
55	0	0	2862	5	184	0	3923
56	0	0	2822	5	185	0	3923
57	0	0	2796	5	184	0	3923
58	0	0	2791	5	185	0	3923
59	0	0	2772	5	184	0	3923
60	0	0	2760	5	184	0	3923
61	0	0	2770	5	184	0	3923
62	0	0	2789	5	185	0	3923
63	0	0	2817	5	184	0	3922
64	0	0	2844	5	184	0	3923
65	0	0	2866	5	184	0	3923
66	0	0	2893	6	184	0	3923
67	0	0	2930	5	184	0	3923
68	0	0	2962	5	184	0	3922
69	0	0	2977	5	184	0	3923
70	0	0	2972	5	185	0	3924
71	0	0	2949	6	184	0	3923
72	0	0	2958	5	185	0	3923
73	0	0	2940	4	185	0	3923
74	0	0	2876	4	184	0	3923
75	0	0	2818	4	184	0	3923
76	0	0	2767	4	184	0	3923
77	0	0	2734	5	185	0	3923
78	0	0	2718	5	184	0	3923
79	0	0	2689	4	184	0	3923
80	0	0	2670	5	184	0	3924
81	0	0	2677	5	184	0	3923
82	0	0	2707	5	184	0	3923
83	0	0	2755	5	183	0	3923
84	0	0	2799	5	184	0	3915
85	0	0	2831	5	184	0	3924
86	0	0	2851	5	184	0	3923
87	0	0	2854	5	184	0	3923
88	0	0	2840	6	184	0	3923
89	0	0	2849	5	184	0	3924
90	0	0	2863	5	184	0	3924
91	0	0	2854	5	184	0	3923
92	0	0	2829	5	185	0	3924
93	0	0	2803	5	183	0	3924
94	0	0	2764	4	184	0	3924
95	0	0	2727	6	184	0	3923
96	0	0	2695	5	184	0	3924
97	0	0	2677	5	185	0	3923
98	0	0	2682	5	184	0	3923
99	0	0	2683	5	184	0	3923
100	0	0	2700	5	183	0	3924
101	0	0	2745	5	184	0	3924
102	0	0	2815	5	184	0	3923
103	0	0	2896	5	185	0	3923
104	0	0	2963	5	184	0	3923
105	0	0	3011	5	184	0	3923
106	0	0	3047	5	184	0	3923
107	0	0	3063	5	185	0	3923
108	0	0	3085	5	184	0	3922
109	0	0	3116	5	183	0	3923
110	0	0	3135	5	184	0	3923
111	0	0	3143	5	184	0	3923
112	0	0	3143	5	184	0	3923
113	0	0	3121	5	184	0	3923
114	0	0	3098	5	183	0	3923
115	0	0	3065	5	184	0	3924
116	0	0	3020	5	184	0	3923
117	0	0	2986	5	185	0	3924
118	0	0	2969	5	184	0	3923
119	0	0	2946	4	184	0	3923
120	0	0	2915	5	184	0	3924
121	0	0	2894	5	184	0	3923
122	0	0	2880	5	185	0	3923
123	0	0	2892	5	184	0	3923
124	0	0	2918	5	184	0	3923
125	0	0	2932	5	184	0	3923
126	0	0	2937	5	185	0	3923
127	0	0	2922	5	184	0	3923
0	0	0	2888	5	184	0	3923
1	0	0	2850	5	184	0	3923
2	0	0	2808	4	184	0	3923
3	0	0	2755	4	184	0	3923
4	0	0	2699	4	184	0	3923
5	0	0	2638	4	184	0	3923
6	0	0	2581	4	185	0	3923
7	0	0	2523	4	184	0	3924
8	0	0	2473	4	184	0	3923
9	0	0	2447	5	184	0	3923
10	0	0	2427	5	184	0	3923
11	0	0	2399	4	185	0	3923
12	0	0	2377	5	183	0	3923
13	0	0	2372	5	183	0	3924
14	0	0	2382	6	185	0	3922
15	0	0	2413	5	184	0	3923
16	0	0	2453	5	185	0	3924
17	0	0	2485	5	184	0	3924
18	0	0	2520	5	183	0	3924
19	0	0	2558	5	186	0	3923
20	0	0	2572	6	183	0	3923
21	0	0	2560	5	184	0	3924
22	0	0	2532	5	184	0	3924
23	0	0	2515	5	184	0	3923
24	0	0	2514	5	184	0	3924
25	0	0	2524	5	184	0	3923
26	0	0	2511	5	184	0	3923
27	0	0	2476	4	184	0	3923
28	0	0	2420	4	185	0	3923
29	0	0	2382	5	184	0	3923
30	0	0	2374	5	184	0	3922
31	0	0	2356	4	184	0	3922
32	0	0	2335	5	184	0	3923
33	0	0	2327	5	184	0	3922
34	0	0	2318	5	184	0	3923
35	0	0	2318	5	182	0	3921
36	0	0	2340	5	184	0	3923
37	0	0	2375	5	184	0	3924
38	0	0	2414	5	184	0	3924
39	0	0	2450	6	184	0	3923
40	0	0	2482	6	184	0	3923
41	0	0	2508	5	184	0	3924
42	0	0	2483	5	184	0	3923
43	0	0	2447	5	183	0	3924
44	0	0	2428	5	183	0	3923
45	0	0	2418	6	184	0	3922
46	0	0	2402	5	185	0	3923
47	0	0	2380	5	185	0	3923
48	0	0	2347	5	184	0	3922
49	0	0	2331	5	183	0	3924
50	0	0	2308	6	184	0	3922
51	0	0	2242	4	184	0	3923
52	0	0	2187	4	184	0	3923
53	0	0	2185	5	184	0	3923
54	0	0	2211	5	183	0	3923
55	0	0	2267	6	183	0	3923
56	0	0	2338	5	184	0	3924
57	0	0	2374	5	185	0	3924
58	0	0	2380	5	185	0	3924
59	0	0	2388	5	185	0	3923
60	0	0	2398	6	184	0	3923
61	0	0	2407	5	184	0	3923
62	0	0	2414	5	184	0	3923
63	0	0	2407	5	184	0	3922
64	0	0	2380	5	184	0	3923
65	0	0	2348	4	184	0	3923
66	0	0	2313	4	184	0	3923
67	0	0	2276	5	185	0	3923
68	0	0	2239	5	184	0	3923
69	0	0	2201	5	184	0	3923
70	0	0	2164	6	184	0	3923
71	0	0	2121	4	184	0	3924
72	0	0	2105	5	184	0	3923
73	0	0	2118	5	183	0	3923
74	0	0	2137	5	183	0	3923
75	0	0	2156	5	185	0	3923
76	0	0	2195	5	184	0	3923
77	0	0	2232	5	184	0	3924
78	0	0	2259	5	184	0	3923
79	0	0	2286	5	184	0	3923
80	0	0	2303	6	184	0	3923
81	0	0	2314	5	184	0	3923
82	0	0	2309	5	184	0	3923
83	0	0	2288	5	185	0	3923
84	0	0	2263	5	184	0	3922
85	0	0	2245	7	184	0	3923
86	0	0	2213	4	184	0	3924
87	0	0	2148	4	184	0	3923
88	0	0	2089	4	184	0	3924
89	0	0	2072	5	184	0	3923
90	0	0	2073	5	184	0	3923
91	0	0	2054	4	184	0	3924
92	0	0	2025	4	184	0	3923
93	0	0	2022	5	184	0	3923
94	0	0	2052	5	184	0	3923
95	0	0	2092	4	184	0	3923
96	0	0	2137	5	184	0	3923
97	0	0	2180	5	183	0	3924
98	0	0	2206	5	184	0	3923
99	0	0	2214	5	183	0	3922
100	0	0	2209	5	184	0	3923
101	0	0	2223	5	184	0	3923
102	0	0	2239	5	184	0	3923
103	0	0	2216	4	185	0	3924
104	0	0	2179	5	184	0	3923
105	0	0	2142	3	184	0	3923
106	0	0	2116	4	184	0	3923
107	0	0	2088	5	185	0	3923
108	0	0	2046	4	184	0	3924
109	0	0	2003	5	183	0	3923
110	0	0	1981	5	185	0	3923
111	0	0	1955	4	184	0	3924
112	0	0	1951	5	184	0	3923
113	0	0	1963	4	184	0	3924
114	0	0	1969	4	184	0	3925
115	0	0	1993	5	184	0	3922
116	0	0	2035	5	184	0	3923
117	0	0	2066	5	184	0	3923
118	0	0	2095	5	184	0	3923
119	0	0	2122	5	183	0	3923
120	0	0	2130	5	184	0	3923
121	0	0	2135	5	185	0	3923
122	0	0	2138	5	184	0	3923
123	0	0	2134	5	184	0	3923
124	0	0	2115	4	184	0	3923
125	0	0	2074	5	184	0	3923
126	0	0	2029	4	185	0	3923
127	0	0	1995	4	184	0	3924
0	0	0	1958	4	184	0	3923
1	0	0	1931	4	184	0	3924
2	0	0	1911	5	184	0	3923
3	0	0	1873	4	184	0	3923
4	0	0	1852	5	184	0	3923
5	0	0	1860	6	184	0	3923
6	0	0	1878	5	184	0	3922
7	0	0	1917	5	184	0	3923
8	0	0	1977	5	185	0	3923
9	0	0	2032	5	184	0	3924
10	0	0	2072	5	185	0	3923
11	0	0	2106	5	184	0	3923
12	0	0	2134	5	183	0	3923
13	0	0	2147	5	184	0	3924
14	0	0	2156	5	183	0	3923
15	0	0	2152	5	184	0	3923
16	0	0	2116	4	183	0	3923
17	0	0	2063	5	184	0	3923
18	0	0	2016	4	184	0	3923
19	0	0	1969	4	184	0	3923
20	0	0	1927	4	184	0	3923
21	0	0	1930	5	183	0	3924
22	0	0	1953	5	184	0	3923
23	0	0	1945	5	184	0	3923
24	0	0	1926	5	184	0	3924
25	0	0	1925	5	184	0	3923
26	0	0	1942	5	184	0	3924
27	0	0	1974	5	184	0	3923
28	0	0	2014	5	184	0	3923
29	0	0	2049	5	184	0	3924
30	0	0	2086	5	185	0	3923
31	0	0	2120	4	184	0	3923
32	0	0	2153	5	184	0	3923
33	0	0	2179	5	184	0	3923
34	0	0	2177	5	184	0	3923
35	0	0	2173	5	184	0	3922
36	0	0	2168	5	185	0	3923
37	0	0	2138	5	185	0	3923
38	0	0	2110	4	185	0	3924
39	0	0	2087	5	184	0	3923
40	0	0	2071	5	184	0	3924
41	0	0	2056	5	184	0	3923
42	0	0	2018	4	184	0	3923
43	0	0	1977	4	184	0	3924
44	0	0	1971	5	185	0	3923
45	0	0	2002	5	185	0	3923
46	0	0	2051	5	184	0	3923
47	0	0	2101	5	184	0	3923
48	0	0	2152	5	184	0	3923
49	0	0	2200	5	185	0	3923
50	0	0	2243	5	184	0	3923
51	0	0	2275	5	184	0	3923
52	0	0	2298	5	185	0	3923
53	0	0	2324	5	184	0	3923
54	0	0	2344	5	184	0	3923
55	0	0	2342	5	183	0	3922
56	0	0	2336	5	183	0	3923
57	0	0	2328	5	183	0	3923
58	0	0	2313	5	184	0	3923
59	0	0	2302	5	184	0	3924
60	0	0	2289	5	184	0	3923
61	0	0	2266	5	184	0	3924
62	0	0	2242	5	184	0	3924
63	0	0	2206	5	184	0	3923
64	0	0	2188	5	183	0	3924
65	0	0	2194	4	185	0	3924
66	0	0	2223	6	185	0	3923
67	0	0	2274	5	185	0	3923
68	0	0	2342	5	185	0	3924
69	0	0	2405	5	184	0	3923
70	0	0	2460	5	185	0	3924
71	0	0	2490	5	184	0	3922
72	0	0	2508	6	184	0	3923
73	0	0	2530	5	184	0	3923
74	0	0	2544	5	185	0	3923
75	0	0	2535	5	184	0	3923
76	0	0	2510	5	185	0	3923
77	0	0	2486	5	183	0	3924
78	0	0	2459	5	184	0	3924
79	0	0	2430	5	184	0	3924
80	0	0	2406	5	185	0	3923
81	0	0	2385	5	185	0	3923
82	0	0	2360	5	183	0	3923
83	0	0	2327	4	184	0	3923
84	0	0	2298	5	183	0	3923
85	0	0	2288	4	184	0	3922
86	0	0	2300	5	184	0	3923
87	0	0	2345	5	184	0	3923
88	0	0	2425	5	183	0	3924
89	0	0	2498	5	184	0	3923
90	0	0	2553	4	184	0	3924
91	0	0	2573	5	184	0	3923
92	0	0	2578	5	185	0	3923
93	0	0	2589	5	184	0	3923
94	0	0	2600	5	183	0	3924
95	0	0	2586	4	184	0	3923
96	0	0	2557	5	184	0	3923
97	0	0	2508	4	184	0	3924
98	0	0	2458	5	185	0	3923
99	0	0	2420	5	184	0	3924
100	0	0	2401	5	184	0	3923
101	0	0	2392	5	184	0	3924
102	0	0	2392	5	184	0	3923
103	0	0	2357	4	184	0	3923
104	0	0	2335	5	184	0	3923
105	0	0	2364	5	184	0	3924
106	0	0	2418	5	183	0	3923
107	0	0	2429	5	184	0	3923
108	0	0	2413	5	184	0	3924
109	0	0	2415	5	184	0	3923
110	0	0	2450	4	185	0	3924
111	0	0	2474	4	185	0	3923
112	0	0	2459	5	185	0	3924
113	0	0	2455	6	183	0	3923
114	0	0	2461	5	184	0	3923
115	0	0	2441	5	184	0	3923
116	0	0	2408	5	184	0	3923
117	0	0	2359	5	184	0	3924
118	0	0	2293	4	183	0	3923
119	0	0	2259	5	184	0	3924
120	0	0	2253	5	184	0	3922
121	0	0	2229	4	184	0	3923
122	0	0	2171	4	184	0	3923
123	0	0	2083	5	185	0	3923
124	0	0	2021	5	185	0	3923
125	0	0	2015	5	184	0	3923
126	0	0	2055	5	186	0	3923
127	0	0	2118	5	183	0	3923
0	0	0	2181	5	184	0	3924
1	0	0	2202	5	184	0	3924
2	0	0	2201	5	184	0	3923
3	0	0	2197	5	183	0	3924
4	0	0	2194	5	184	0	3923
5	0	0	2189	5	185	0	3923
6	0	0	2176	5	184	0	3923
7	0	0	2150	5	184	0	3922
8	0	0	2128	5	186	0	3923
9	0	0	2090	4	184	0	3922
10	0	0	2030	4	184	0	3923
11	0	0	1964	4	185	0	3923
12	0	0	1919	3	185	0	3924
13	0	0	1896	4	184	0	3923
14	0	0	1879	5	185	0	3923
15	0	0	1860	5	184	0	3923
16	0	0	1854	5	185	0	3923
17	0	0	1874	4	185	0	3923
18	0	0	1921	5	183	0	3923
19	0	0	1953	5	184	0	3923
20	0	0	1972	5	184	0	3923
21	0	0	1988	5	184	0	3923
22	0	0	1997	4	184	0	3923
23	0	0	1998	5	186	0	3923
24	0	0	1995	6	184	0	3923
25	0	0	2005	4	185	0	3922
26	0	0	2034	5	185	0	3923
27	0	0	2048	5	184	0	3922
28	0	0	2043	5	184	0	3924
29	0	0	2026	4	185	0	3923
30	0	0	1988	4	184	0	3923
31	0	0	1939	4	184	0	3923
32	0	0	1896	4	184	0	3924
33	0	0	1853	4	184	0	3924
34	0	0	1818	4	185	0	3923
35	0	0	1782	3	183	0	3923
36	0	0	1770	5	185	0	3923
37	0	0	1776	4	184	0	3923
38	0	0	1778	5	184	0	3923
39	0	0	1781	6	185	0	3923
40	0	0	1810	5	184	0	3922
41	0	0	1852	5	184	0	3924
42	0	0	1900	5	184	0	3923
43	0	0	1944	5	183	0	3923
44	0	0	1964	5	183	0	3923
45	0	0	1974	4	184	0	3924
46	0	0	1982	5	184	0	3923
47	0	0	1956	3	184	0	3924
48	0	0	1912	4	184	0	3923
49	0	0	1868	4	184	0	3923
50	0	0	1835	5	185	0	3923
51	0	0	1813	4	184	0	3924
52	0	0	1793	4	184	0	3923
53	0	0	1766	4	184	0	3924
54	0	0	1731	4	185	0	3923
55	0	0	1685	4	185	0	3922
56	0	0	1658	4	183	0	3922
57	0	0	1656	5	184	0	3923
58	0	0	1667	5	184	0	3922
59	0	0	1699	5	185	0	3923
60	0	0	1756	5	185	0	3922
61	0	0	1816	5	184	0	3923
62	0	0	1848	5	184	0	3923
63	0	0	1867	5	184	0	3923
64	0	0	1875	5	185	0	3923
65	0	0	1874	5	184	0	3922
66	0	0	1868	5	184	0	3924
67	0	0	1858	5	184	0	3923
68	0	0	1834	4	184	0	3923
69	0	0	1787	4	184	0	3923
70	0	0	1751	5	185	0	3923
71	0	0	1729	4	184	0	3923
72	0	0	1681	3	185	0	3923
73	0	0	1620	4	184	0	3923
74	0	0	1588	4	184	0	3923
75	0	0	1560	4	184	0	3923
76	0	0	1546	5	184	0	3923
77	0	0	1560	5	184	0	3922
78	0	0	1581	5	185	0	3923
79	0	0	1597	5	184	0	3923
80	0	0	1628	5	185	0	3922
81	0	0	1653	5	184	0	3923
82	0	0	1671	5	184	0	3923
83	0	0	1705	6	185	0	3923
84	0	0	1736	6	184	0	3923
85	0	0	1749	6	184	0	3923
86	0	0	1750	5	185	0	3924
87	0	0	1724	4	184	0	3923
88	0	0	1692	4	184	0	3923
89	0	0	1665	5	182	0	3923
90	0	0	1640	4	184	0	3923
91	0	0	1613	4	184	0	3923
92	0	0	1575	4	184	0	3922
93	0	0	1552	4	184	0	3922
94	0	0	1562	6	184	0	3922
95	0	0	1556	5	185	0	3923
96	0	0	1544	5	185	0	3924
97	0	0	1550	5	184	0	3923
98	0	0	1554	5	185	0	3923
99	0	0	1559	5	184	0	3923
100	0	0	1576	5	184	0	3923
101	0	0	1605	5	184	0	3923
102	0	0	1650	5	185	0	3924
103	0	0	1680	5	183	0	3923
104	0	0	1685	5	183	0	3923
105	0	0	1691	6	185	0	3923
106	0	0	1719	5	184	0	3923
107	0	0	1743	5	185	0	3922
108	0	0	1738	4	185	0	3923
109	0	0	1708	4	185	0	3923
110	0	0	1663	5	184	0	3923
111	0	0	1609	4	183	0	3923
112	0	0	1558	4	185	0	3922
113	0	0	1529	5	184	0	3923
114	0	0	1519	4	183	0	3923
115	0	0	1499	4	184	0	3923
116	0	0	1486	5	184	0	3923
117	0	0	1502	3	184	0	3924
118	0	0	1541	5	186	0	3923
119	0	0	1585	5	183	0	3923
120	0	0	1632	5	184	0	3924
121	0	0	1672	5	184	0	3923
122	0	0	1712	5	185	0	3923
123	0	0	1744	5	184	0	3923
124	0	0	1772	5	184	0	3923
125	0	0	1789	4	185	0	3923
126	0	0	1794	5	185	0	3923
127	0	0	1764	4	184	0	3923
0	0	0	1724	4	184	0	3923
1	0	0	1696	5	184	0	3923
2	0	0	1685	4	185	0	3923
3	0	0	1640	4	184	0	3923
4	0	0	1574	4	184	0	3923
5	0	0	1538	4	183	0	3924
6	0	0	1520	4	184	0	3924
7	0	0	1483	4	185	0	3923
8	0	0	1468	5	184	0	3924
9	0	0	1481	4	185	0	3923
10	0	0	1491	4	184	0	3923
11	0	0	1509	5	182	0	3923
12	0	0	1554	5	184	0	3923
13	0	0	1604	5	184	0	3923
14	0	0	1655	5	185	0	3923
15	0	0	1682	5	184	0	3923
16	0	0	1698	6	184	0	3923
17	0	0	1703	4	185	0	3923
18	0	0	1713	5	184	0	3923
19	0	0	1712	5	184	0	3923
20	0	0	1690	4	184	0	3923
21	0	0	1681	5	184	0	3923
22	0	0	1670	4	184	0	3923
23	0	0	1641	4	184	0	3923
24	0	0	1596	4	185	0	3923
25	0	0	1566	5	184	0	3923
26	0	0	1563	5	185	0	3923
27	0	0	1548	4	184	0	3923
28	0	0	1544	5	185	0	3923
29	0	0	1559	5	184	0	3923
30	0	0	1579	5	184	0	3923
31	0	0	1608	5	184	0	3923
32	0	0	1660	5	184	0	3924
33	0	0	1698	5	183	0	3923
34	0	0	1720	5	184	0	3924
35	0	0	1743	5	185	0	3923
36	0	0	1741	5	183	0	3923
37	0	0	1737	5	184	0	3924
38	0	0	1739	5	184	0	3923
39	0	0	1733	4	184	0	3924
40	0	0	1704	4	185	0	3923
41	0	0	1659	4	185	0	3923
42	0	0	1611	3	183	0	3923
43	0	0	1583	4	184	0	3923
44	0	0	1570	5	183	0	3923
45	0	0	1552	4	184	0	3923
46	0	0	1534	5	184	0	3923
47	0	0	1500	4	184	0	3922
48	0	0	1476	4	184	0	3923
49	0	0	1493	5	185	0	3922
50	0	0	1536	5	184	0	3923
51	0	0	1583	5	184	0	3923
52	0	0	1627	5	184	0	3923
53	0	0	1662	5	185	0	3924
54	0	0	1674	5	184	0	3923
55	0	0	1676	5	184	0	3924
56	0	0	1683	5	185	0	3924
57	0	0	1706	5	185	0	3923
58	0	0	1723	5	185	0	3923
59	0	0	1702	5	184	0	3923
60	0	0	1686	5	184	0	3924
61	0	0	1671	5	184	0	3923
62	0	0	1654	4	185	0	3923
63	0	0	1624	4	183	0	3923
64	0	0	1586	4	184	0	3922
65	0	0	1549	4	184	0	3922
66	0	0	1515	4	185	0	3923
67	0	0	1479	4	185	0	3924
68	0	0	1472	5	184	0	3923
69	0	0	1483	5	184	0	3923
70	0	0	1502	5	184	0	3923
71	0	0	1547	5	184	0	3923
72	0	0	1613	5	183	0	3924
73	0	0	1665	5	184	0	3923
74	0	0	1709	5	184	0	3923
75	0	0	1744	5	183	0	3923
76	0	0	1751	6	184	0	3923
77	0	0	1753	4	183	0	3923
78	0	0	1732	5	184	0	3923
79	0	0	1702	4	183	0	3923
80	0	0	1667	4	184	0	3923
81	0	0	1642	4	185	0	3923
82	0	0	1633	5	184	0	3923
83	0	0	1621	4	185	0	3923
84	0	0	1595	4	185	0	3923
85	0	0	1563	4	184	0	3924
86	0	0	1546	5	184	0	3926
87	0	0	1534	4	183	0	3923
88	0	0	1528	5	185	0	3924
89	0	0	1528	5	184	0	3923
90	0	0	1538	5	184	0	3924
91	0	0	1578	5	184	0	3924
92	0	0	1643	5	183	0	3923
93	0	0	1690	5	184	0	3923
94	0	0	1720	5	184	0	3924
95	0	0	1742	5	185	0	3923
96	0	0	1763	5	184	0	3923
97	0	0	1785	4	185	0	3923
98	0	0	1795	5	184	0	3923
99	0	0	1765	4	184	0	3922
100	0	0	1729	4	184	0	3922
101	0	0	1700	4	184	0	3923
102	0	0	1670	4	184	0	3923
103	0	0	1647	4	184	0	3923
104	0	0	1630	4	184	0	3922
105	0	0	1610	4	184	0	3923
106	0	0	1588	5	184	0	3923
107	0	0	1560	4	184	0	3923
108	0	0	1545	5	184	0	3924
109	0	0	1543	5	184	0	3923
110	0	0	1554	5	184	0	3923
111	0	0	1589	5	185	0	3924
112	0	0	1652	4	185	0	3923
113	0	0	1711	5	184	0	3923
114	0	0	1765	5	184	0	3923
115	0	0	1816	5	183	0	3923
116	0	0	1847	5	183	0	3922
117	0	0	1859	5	184	0	3923
118	0	0	1851	5	184	0	3923
119	0	0	1818	4	184	0	3922
120	0	0	1786	5	184	0	3924
121	0	0	1755	4	184	0	3923
122	0	0	1726	4	183	0	3923
123	0	0	1696	4	184	0	3923
124	0	0	1665	4	183	0	3923
125	0	0	1633	4	183	0	3923
126	0	0	1605	4	184	0	3923
127	0	0	1571	4	184	0	3923
0	0	0	1571	5	184	0	3923
1	0	0	1600	5	184	0	3923
2	0	0	1629	5	184	0	3922
3	0	0	1665	5	185	0	3922
4	0	0	1726	5	183	0	3923
5	0	0	1782	5	184	0	3923
6	0	0	1809	5	184	0	3922
7	0	0	1811	5	185	0	3923
8	0	0	1793	5	184	0	3924
9	0	0	1798	5	183	0	3923
10	0	0	1818	5	185	0	3923
11	0	0	1811	5	184	0	3924
12	0	0	1798	5	184	0	3923
13	0	0	1790	5	184	0	3923
14	0	0	1779	4	183	0	3923
15	0	0	1751	4	183	0	3923
16	0	0	1702	4	184	0	3923
17	0	0	1655	6	185	0	3924
18	0	0	1622	4	183	0	3922
19	0	0	1599	4	183	0	3922
20	0	0	1583	4	183	0	3922
21	0	0	1573	5	184	0	3922
22	0	0	1580	5	183	0	3922
23	0	0	1613	5	184	0	3923
24	0	0	1655	5	185	0	3924
25	0	0	1688	5	184	0	3923
26	0	0	1719	5	184	0	3924
27	0	0	1737	5	185	0	3923
28	0	0	1747	5	184	0	3923
29	0	0	1772	5	184	0	3924
30	0	0	1803	5	184	0	3923
31	0	0	1814	5	184	0	3923
32	0	0	1811	5	184	0	3923
33	0	0	1789	4	184	0	3924
34	0	0	1757	3	184	0	3923
35	0	0	1723	4	183	0	3922
36	0	0	1698	5	184	0	3922
37	0	0	1697	5	183	0	3928
38	0	0	1695	5	184	0	3923
39	0	0	1654	4	184	0	3923
40	0	0	1609	4	184	0	3923
41	0	0	1602	4	183	0	3923
42	0	0	1637	5	184	0	3923
43	0	0	1710	5	184	0	3923
44	0	0	1788	5	184	0	3924
45	0	0	1828	5	184	0	3924
46	0	0	1846	4	184	0	3923
47	0	0	1875	5	184	0	3923
48	0	0	1901	5	184	0	3923
49	0	0	1921	4	184	0	3923
50	0	0	1931	5	184	0	3923
51	0	0	1928	5	184	0	3922
52	0	0	1933	5	184	0	3922
53	0	0	1922	5	184	0	3922
54	0	0	1886	4	184	0	3923
55	0	0	1863	4	184	0	3922
56	0	0	1840	4	184	0	3924
57	0	0	1806	4	184	0	3922
58	0	0	1771	4	184	0	3923
59	0	0	1719	3	183	0	3923
60	0	0	1690	5	184	0	3923
61	0	0	1704	5	184	0	3923
62	0	0	1733	5	184	0	3923
63	0	0	1774	5	184	0	3923
64	0	0	1826	4	184	0	3923
65	0	0	1868	5	185	0	3924
66	0	0	1898	5	184	0	3923
67	0	0	1908	5	184	0	3923
68	0	0	1917	5	185	0	3923
69	0	0	1938	5	184	0	3923
70	0	0	1956	5	184	0	3923
71	0	0	1955	5	183	0	3923
72	0	0	1933	5	184	0	3923
73	0	0	1895	4	184	0	3922
74	0	0	1863	4	184	0	3923
75	0	0	1835	4	184	0	3923
76	0	0	1801	4	184	0	3923
77	0	0	1780	5	185	0	3923
78	0	0	1773	5	183	0	3923
79	0	0	1766	3	184	0	3924
80	0	0	1756	5	183	0	3923
81	0	0	1750	5	184	0	3923
82	0	0	1755	5	184	0	3923
83	0	0	1781	5	184	0	3923
84	0	0	1829	4	183	0	3923
85	0	0	1882	5	184	0	3923
86	0	0	1917	5	184	0	3922
87	0	0	1941	5	184	0	3923
88	0	0	1962	5	183	0	3923
89	0	0	1989	5	184	0	3923
90	0	0	2006	5	183	0	3923
91	0	0	1996	5	184	0	3922
92	0	0	1963	4	183	0	3923
93	0	0	1936	5	184	0	3922
94	0	0	1920	4	185	0	3923
95	0	0	1882	3	183	0	3923
96	0	0	1844	4	184	0	3923
97	0	0	1825	5	184	0	3923
98	0	0	1812	5	183	0	3923
99	0	0	1775	4	184	0	3923
100	0	0	1727	4	184	0	3922
101	0	0	1724	5	184	0	3923
102	0	0	1760	5	184	0	3923
103	0	0	1812	5	184	0	3924
104	0	0	1873	4	184	0	3923
105	0	0	1914	5	183	0	3923
106	0	0	1940	5	184	0	3922
107	0	0	1961	5	184	0	3923
108	0	0	1972	5	186	0	3923
109	0	0	1981	5	183	0	3924
110	0	0	1987	5	183	0	3923
111	0	0	1980	5	184	0	3924
112	0	0	1976	5	184	0	3923
113	0	0	1969	4	185	0	3922
114	0	0	1947	4	184	0	3923
115	0	0	1928	5	184	0	3924
116	0	0	1902	5	184	0	3922
117	0	0	1878	5	184	0	3922
118	0	0	1873	5	186	0	3922
119	0	0	1854	4	184	0	3923
120	0	0	1820	4	184	0	3922
121	0	0	1811	5	184	0	3922
122	0	0	1830	5	184	0	3923
123	0	0	1871	5	183	0	3923
124	0	0	1932	5	184	0	3923
125	0	0	1987	5	184	0	3923
126	0	0	2045	5	184	0	3924
127	0	0	2096	5	184	0	3923
0	0	0	2120	5	186	0	3923
1	0	0	2119	5	183	0	3924
2	0	0	2116	5	183	0	3923
3	0	0	2096	4	184	0	3923
4	0	0	2056	5	184	0	3923
5	0	0	2018	4	181	0	3923
6	0	0	1988	4	184	0	3923
7	0	0	1967	5	184	0	3923
8	0	0	1953	5	184	0	3922
9	0	0	1926	4	184	0	3923
10	0	0	1877	4	183	0	3923
11	0	0	1824	4	183	0	3923
12	0	0	1814	5	184	0	3922
13	0	0	1825	5	185	0	3924
14	0	0	1819	5	184	0	3923
15	0	0	1816	5	185	0	3923
16	0	0	1842	5	184	0	3924
17	0	0	1889	5	183	0	3923
18	0	0	1939	5	185	0	3923
19	0	0	1963	5	185	0	3923
20	0	0	1969	5	185	0	3924
21	0	0	1980	5	184	0	3923
22	0	0	1994	5	184	0	3923
23	0	0	1990	5	184	0	3922
24	0	0	1959	5	184	0	3922
25	0	0	1918	4	184	0	3923
26	0	0	1885	4	184	0	3922
27	0	0	1853	4	184	0	3923
28	0	0	1823	4	184	0	3923
29	0	0	1804	4	184	0	3922
30	0	0	1783	4	182	0	3923
31	0	0	1751	4	183	0	3923
32	0	0	1711	4	184	0	3923
33	0	0	1703	5	184	0	3924
34	0	0	1725	5	185	0	3923
35	0	0	1756	5	184	0	3923
36	0	0	1800	5	184	0	3923
37	0	0	1839	5	185	0	3923
38	0	0	1862	5	184	0	3923
39	0	0	1878	5	183	0	3923
40	0	0	1888	5	185	0	3923
41	0	0	1910	5	184	0	3923
42	0	0	1933	5	184	0	3923
43	0	0	1931	5	184	0	3923
44	0	0	1908	5	184	0	3923
45	0	0	1871	4	184	0	3923
46	0	0	1838	4	184	0	3923
47	0	0	1816	5	184	0	3923
48	0	0	1792	4	184	0	3923
49	0	0	1769	5	185	0	3923
50	0	0	1754	4	184	0	3923
51	0	0	1728	4	183	0	3923
52	0	0	1709	5	184	0	3923
53	0	0	1725	5	184	0	3923
54	0	0	1768	4	184	0	3923
55	0	0	1814	5	184	0	3923
56	0	0	1847	5	184	0	3923
57	0	0	1858	5	184	0	3923
58	0	0	1875	5	185	0	3923
59	0	0	1898	5	186	0	3922
60	0	0	1905	5	185	0	3923
61	0	0	1922	5	184	0	3923
62	0	0	1943	5	184	0	3923
63	0	0	1942	5	184	0	3923
64	0	0	1924	6	184	0	3923
65	0	0	1900	4	184	0	3923
66	0	0	1864	4	184	0	3923
67	0	0	1819	4	184	0	3924
68	0	0	1771	4	183	0	3923
69	0	0	1731	5	184	0	3923
70	0	0	1697	4	184	0	3923
71	0	0	1655	4	185	0	3923
72	0	0	1629	4	183	0	3922
73	0	0	1629	4	184	0	3922
74	0	0	1647	6	184	0	3922
75	0	0	1685	5	185	0	3923
76	0	0	1736	5	183	0	3923
77	0	0	1786	5	185	0	3923
78	0	0	1829	5	184	0	3923
79	0	0	1862	5	184	0	3923
80	0	0	1881	5	184	0	3923
81	0	0	1880	5	183	0	3923
82	0	0	1880	5	184	0	3924
83	0	0	1880	6	184	0	3923
84	0	0	1881	5	185	0	3923
85	0	0	1879	5	184	0	3924
86	0	0	1859	4	183	0	3923
87	0	0	1827	4	184	0	3922
88	0	0	1790	4	184	0	3922
89	0	0	1758	4	184	0	3922
90	0	0	1732	4	185	0	3923
91	0	0	1697	4	184	0	3923
92	0	0	1676	5	184	0	3922
93	0	0	1686	6	183	0	3923
94	0	0	1715	5	183	0	3922
95	0	0	1740	5	185	0	3923
96	0	0	1757	5	184	0	3923
97	0	0	1777	5	184	0	3924
98	0	0	1809	4	184	0	3923
99	0	0	1847	6	184	0	3923
100	0	0	1883	5	184	0	3923
101	0	0	1910	5	184	0	3923
102	0	0	1942	6	184	0	3923
103	0	0	1961	5	184	0	3924
104	0	0	1969	5	185	0	3923
105	0	0	1971	5	185	0	3923
106	0	0	1961	5	184	0	3923
107	0	0	1943	4	184	0	3922
108	0	0	1917	5	184	0	3922
109	0	0	1893	5	184	0	3923
110	0	0	1898	5	184	0	3923
111	0	0	1904	5	183	0	3923
112	0	0	1918	5	184	0	3923
113	0	0	1965	5	184	0	3923
114	0	0	2013	5	184	0	3923
115	0	0	2061	5	185	0	3923
116	0	0	2126	5	184	0	3923
117	0	0	2197	5	184	0	3923
118	0	0	2261	5	184	0	3924
119	0	0	2316	5	184	0	3923
120	0	0	2353	5	184	0	3923
121	0	0	2382	5	184	0	3923
122	0	0	2400	5	184	0	3923
123	0	0	2407	5	185	0	3922
124	0	0	2403	6	184	0	3923
125	0	0	2393	5	184	0	3922
126	0	0	2363	5	184	0	3923
127	0	0	2327	4	184	0	3922
0	0	0	2264	4	184	0	3922
1	0	0	2186	4	185	0	3922
2	0	0	2126	4	185	0	3923
3	0	0	2077	4	184	0	3923
4	0	0	2040	4	184	0	3924
5	0	0	2023	6	183	0	3923
6	0	0	2021	5	184	0	3923
7	0	0	2024	5	184	0	3924
8	0	0	2019	5	184	0	3923
9	0	0	2004	5	184	0	3924
10	0	0	2000	4	184	0	3923
11	0	0	1992	5	184	0	3923
12	0	0	1987	5	183	0	3922
13	0	0	1992	5	184	0	3923
14	0	0	2006	5	184	0	3922
15	0	0	1998	5	183	0	3923
16	0	0	1965	4	184	0	3923
17	0	0	1926	4	184	0	3923
18	0	0	1895	4	184	0	3924
19	0	0	1870	4	184	0	3923
20	0	0	1844	4	184	0	3924
21	0	0	1832	5	184	0	3923
22	0	0	1836	5	185	0	3923
23	0	0	1825	4	185	0	3923
24	0	0	1826	5	184	0	3924
25	0	0	1852	5	183	0	3922
26	0	0	1886	5	184	0	3923
27	0	0	1908	5	184	0	3923
28	0	0	1924	5	184	0	3923
29	0	0	1957	5	184	0	3923
30	0	0	2020	5	184	0	3922
31	0	0	2095	4	184	0	3922
32	0	0	2133	5	183	0	3923
33	0	0	2149	5	184	0	3923
34	0	0	2169	5	184	0	3923
35	0	0	2168	5	184	0	3923
36	0	0	2144	4	184	0	3922
37	0	0	2114	4	184	0	3923
38	0	0	2092	5	183	0	3923
39	0	0	2075	5	183	0	3923
40	0	0	2042	4	183	0	3923
41	0	0	2004	4	184	0	3923
42	0	0	1973	5	185	0	3923
43	0	0	1948	5	185	0	3923
44	0	0	1958	5	185	0	3923
45	0	0	2003	5	184	0	3922
46	0	0	2049	5	184	0	3923
47	0	0	2089	5	184	0	3923
48	0	0	2133	5	183	0	3923
49	0	0	2192	5	184	0	3924
50	0	0	2234	5	184	0	3923
51	0	0	2251	5	184	0	3923
52	0	0	2250	5	184	0	3924
53	0	0	2255	5	184	0	3923
54	0	0	2265	5	184	0	3924
55	0	0	2264	5	184	0	3923
56	0	0	2252	5	184	0	3923
57	0	0	2226	4	184	0	3924
58	0	0	2197	5	183	0	3923
59	0	0	2175	4	184	0	3923
60	0	0	2163	5	184	0	3922
61	0	0	2151	5	185	0	3922
62	0	0	2126	5	183	0	3922
63	0	0	2091	4	184	0	3923
64	0	0	2074	5	184	0	3922
65	0	0	2090	5	183	0	3923
66	0	0	2127	5	186	0	3922
67	0	0	2182	5	184	0	3923
68	0	0	2256	5	184	0	3923
69	0	0	2308	5	183	0	3923
70	0	0	2334	4	184	0	3923
71	0	0	2356	5	183	0	3923
72	0	0	2372	5	183	0	3923
73	0	0	2368	5	184	0	3924
74	0	0	2335	4	184	0	3923
75	0	0	2304	4	184	0	3923
76	0	0	2287	4	185	0	3922
77	0	0	2266	5	184	0	3923
78	0	0	2229	4	185	0	3923
79	0	0	2185	5	184	0	3923
80	0	0	2156	4	183	0	3923
81	0	0	2145	4	184	0	3922
82	0	0	2132	5	184	0	3923
83	0	0	2106	4	185	0	3923
84	0	0	2103	5	183	0	3922
85	0	0	2118	5	183	0	3924
86	0	0	2139	5	184	0	3923
87	0	0	2168	5	184	0	3923
88	0	0	2205	5	184	0	3924
89	0	0	2231	5	183	0	3923
90	0	0	2259	5	184	0	3923
91	0	0	2289	5	183	0	3923
92	0	0	2313	5	184	0	3923
93	0	0	2327	5	185	0	3923
94	0	0	2316	5	185	0	3922
95	0	0	2275	4	184	0	3922
96	0	0	2244	5	184	0	3922
97	0	0	2232	5	184	0	3922
98	0	0	2224	5	184	0	3923
99	0	0	2219	5	184	0	3923
100	0	0	2198	4	184	0	3922
101	0	0	2165	4	184	0	3923
102	0	0	2133	4	185	0	3923
103	0	0	2092	4	185	0	3923
104	0	0	2060	4	184	0	3923
105	0	0	2058	5	185	0	3923
106	0	0	2079	5	184	0	3923
107	0	0	2115	5	184	0	3923
108	0	0	2171	5	183	0	3923
109	0	0	2217	5	185	0	3923
110	0	0	2248	4	183	0	3924
111	0	0	2263	5	185	0	3922
112	0	0	2277	5	184	0	3923
113	0	0	2293	5	185	0	3923
114	0	0	2303	5	184	0	3924
115	0	0	2292	5	184	0	3922
116	0	0	2257	4	184	0	3923
117	0	0	2216	4	184	0	3923
118	0	0	2184	4	184	0	3923
119	0	0	2167	6	184	0	3923
120	0	0	2139	4	183	0	3923
121	0	0	2091	4	185	0	3923
122	0	0	2044	4	185	0	3923
123	0	0	2004	4	185	0	3924
124	0	0	1994	5	184	0	3923
125	0	0	2017	4	183	0	3923
126	0	0	2035	5	185	0	3923
127	0	0	2052	5	184	0	3923
0	0	0	2081	5	184	0	3923
1	0	0	2115	5	184	0	3924
2	0	0	2151	5	184	0	3922
3	0	0	2177	5	183	0	3923
4	0	0	2185	5	184	0	3923
5	0	0	2186	5	184	0	3923
6	0	0	2186	5	184	0	3922
7	0	0	2170	4	183	0	3924
8	0	0	2159	5	184	0	3923
9	0	0	2151	5	184	0	3923
10	0	0	2129	4	185	0	3923
11	0	0	2094	4	183	0	3924
12	0	0	2052	4	183	0	3923
13	0	0	2024	5	184	0	3923
14	0	0	2011	4	183	0	3923
15	0	0	1981	4	184	0	3923
16	0	0	1960	5	184	0	3922
17	0	0	1967	5	183	0	3922
18	0	0	1979	5	183	0	3922
19	0	0	1988	5	184	0	3922
20	0	0	2017	5	185	0	3923
21	0	0	2055	5	183	0	3922
22	0	0	2098	5	184	0	3924
23	0	0	2136	5	184	0	3923
24	0	0	2153	5	185	0	3923
25	0	0	2163	5	183	0	3924
26	0	0	2161	5	184	0	3923
27	0	0	2140	5	184	0	3923
28	0	0	2121	5	184	0	3923
29	0	0	2106	5	184	0	3923
30	0	0	2080	4	184	0	3924
31	0	0	2036	4	184	0	3923
32	0	0	1984	4	184	0	3923
33	0	0	1948	5	183	0	3923
34	0	0	1939	5	184	0	3923
35	0	0	1928	4	184	0	3923
36	0	0	1919	5	184	0	3922
37	0	0	1931	5	184	0	3923
38	0	0	1964	5	184	0	3922
39	0	0	2003	5	184	0	3922
40	0	0	2046	5	183	0	3923
41	0	0	2074	5	184	0	3923
42	0	0	2099	5	184	0	3923
43	0	0	2117	5	184	0	3923
44	0	0	2125	5	183	0	3923
45	0	0	2153	5	183	0	3923
46	0	0	2177	5	184	0	3923
47	0	0	2163	4	184	0	3923
48	0	0	2135	5	184	0	3923
49	0	0	2114	5	185	0	3923
50	0	0	2094	5	183	0	3923
51	0	0	2081	5	185	0	3922
52	0	0	2060	4	184	0	3923
53	0	0	2024	4	184	0	3921
54	0	0	1997	5	184	0	3922
55	0	0	1960	4	183	0	3923
56	0	0	1919	4	184	0	3922
57	0	0	1911	5	184	0	3922
58	0	0	1931	5	184	0	3923
59	0	0	1973	5	185	0	3923
60	0	0	2032	5	184	0	3924
61	0	0	2088	5	185	0	3923
62	0	0	2137	5	184	0	3923
63	0	0	2167	5	184	0	3923
64	0	0	2184	5	184	0	3923
65	0	0	2204	5	183	0	3923
66	0	0	2222	5	184	0	3923
67	0	0	2219	3	185	0	3922
68	0	0	2206	5	185	0	3922
69	0	0	2173	4	184	0	3923
70	0	0	2132	4	184	0	3923
71	0	0	2091	4	184	0	3922
72	0	0	2062	4	184	0	3922
73	0	0	2034	4	184	0	3923
74	0	0	2013	5	184	0	3923
75	0	0	1978	4	184	0	3923
76	0	0	1950	5	184	0	3923
77	0	0	1961	5	184	0	3923
78	0	0	1992	5	185	0	3923
79	0	0	2027	5	185	0	3923
80	0	0	2070	5	183	0	3923
81	0	0	2115	5	184	0	3924
82	0	0	2154	4	184	0	3922
83	0	0	2169	5	184	0	3922
84	0	0	2162	5	183	0	3923
85	0	0	2158	5	183	0	3923
86	0	0	2160	5	185	0	3922
87	0	0	2154	4	185	0	3923
88	0	0	2151	5	184	0	3923
89	0	0	2149	5	184	0	3922
90	0	0	2135	5	185	0	3923
91	0	0	2103	4	184	0	3923
92	0	0	2054	4	184	0	3923
93	0	0	2005	4	184	0	3923
94	0	0	1975	5	184	0	3923
95	0	0	1938	4	183	0	3924
96	0	0	1904	4	183	0	3923
97	0	0	1898	4	184	0	3924
98	0	0	1917	5	184	0	3923
99	0	0	1956	5	184	0	3923
100	0	0	2015	5	184	0	3923
101	0	0	2044	5	184	0	3922
102	0	0	2054	5	184	0	3922
103	0	0	2071	4	183	0	3922
104	0	0	2093	5	184	0	3923
105	0	0	2121	5	184	0	3923
106	0	0	2149	5	183	0	3922
107	0	0	2145	5	184	0	3922
108	0	0	2099	5	183	0	3923
109	0	0	2040	4	184	0	3923
110	0	0	1987	4	184	0	3923
111	0	0	1941	4	184	0	3923
112	0	0	1904	4	185	0	3923
113	0	0	1881	5	184	0	3923
114	0	0	1861	5	185	0	3923
115	0	0	1834	4	183	0	3923
116	0	0	1817	5	184	0	3922
117	0	0	1832	5	184	0	3922
118	0	0	1870	5	184	0	3922
119	0	0	1917	5	185	0	3923
120	0	0	1968	5	184	0	3924
121	0	0	2009	5	183	0	3922
122	0	0	2043	4	183	0	3923
123	0	0	2073	5	184	0	3923
124	0	0	2092	5	183	0	3923
125	0	0	2110	5	184	0	3924
126	0	0	2116	5	184	0	3923
127	0	0	2093	4	184	0	3924
0	0	0	2062	4	185	0	3923
1	0	0	2038	5	183	0	3924
2	0	0	2014	4	184	0	3924
3	0	0	1974	4	183	0	3922
4	0	0	1924	4	184	0	3924
5	0	0	1898	5	184	0	3922
6	0	0	1875	4	184	0	3923
7	0	0	1835	4	184	0	3923
8	0	0	1819	5	184	0	3923
9	0	0	1833	5	184	0	3923
10	0	0	1846	5	184	0	3922
11	0	0	1876	5	185	0	3923
12	0	0	1934	5	184	0	3924
13	0	0	1987	5	184	0	3923
14	0	0	2021	5	183	0	3923
15	0	0	2049	5	184	0	3923
16	0	0	2051	5	184	0	3923
17	0	0	2050	5	184	0	3924
18	0	0	2052	5	184	0	3923
19	0	0	2037	5	184	0	3923
20	0	0	2009	4	184	0	3923
21	0	0	1967	4	183	0	3923
22	0	0	1919	4	183	0	3923
23	0	0	1871	4	183	0	3922
24	0	0	1821	4	184	0	3922
25	0	0	1789	4	184	0	3923
26	0	0	1775	4	184	0	3923
27	0	0	1755	5	184	0	3923
28	0	0	1756	5	184	0	3924
29	0	0	1778	6	184	0	3923
30	0	0	1797	5	184	0	3923
31	0	0	1833	5	184	0	3924
32	0	0	1886	5	183	0	3924
33	0	0	1925	5	183	0	3923
34	0	0	1943	4	184	0	3923
35	0	0	1956	5	184	0	3923
36	0	0	1972	5	184	0	3923
37	0	0	1999	5	184	0	3923
38	0	0	2028	5	184	0	3922
39	0	0	2027	5	184	0	3922
40	0	0	2001	4	184	0	3922
41	0	0	1968	4	184	0	3923
42	0	0	1940	4	183	0	3923
43	0	0	1910	4	184	0	3923
44	0	0	1884	4	185	0	3924
45	0	0	1871	4	184	0	3923
46	0	0	1859	5	184	0	3923
47	0	0	1833	4	184	0	3924
48	0	0	1805	4	184	0	3923
49	0	0	1804	5	184	0	3925
50	0	0	1822	5	185	0	3923
51	0	0	1855	5	184	0	3924
52	0	0	1904	5	184	0	3923
53	0	0	1948	5	183	0	3923
54	0	0	1967	5	184	0	3923
55	0	0	1974	5	184	0	3923
56	0	0	2003	5	183	0	3923
57	0	0	2052	5	183	0	3923
58	0	0	2082	5	184	0	3922
59	0	0	2057	4	184	0	3922
60	0	0	2017	4	184	0	3922
61	0	0	1986	4	185	0	3922
62	0	0	1952	4	183	0	3923
63	0	0	1917	4	185	0	3924
64	0	0	1877	5	186	0	3923
65	0	0	1837	4	184	0	3923
66	0	0	1812	5	184	0	3924
67	0	0	1795	4	183	0	3924
68	0	0	1799	5	184	0	3923
69	0	0	1820	5	184	0	3923
70	0	0	1832	5	183	0	3923
71	0	0	1857	5	184	0	3923
72	0	0	1909	5	184	0	3924
73	0	0	1959	5	184	0	3922
74	0	0	1995	5	183	0	3923
75	0	0	2010	5	184	0	3923
76	0	0	2016	5	183	0	3923
77	0	0	2042	5	183	0	3923
78	0	0	2054	5	184	0	3922
79	0	0	2041	5	184	0	3922
80	0	0	2008	4	184	0	3923
81	0	0	1979	4	184	0	3923
82	0	0	1957	4	183	0	3923
83	0	0	1936	4	183	0	3923
84	0	0	1907	4	185	0	3923
85	0	0	1878	4	184	0	3923
86	0	0	1853	4	185	0	3923
87	0	0	1828	4	183	0	3923
88	0	0	1826	5	184	0	3923
89	0	0	1837	5	183	0	3922
90	0	0	1861	4	184	0	3923
91	0	0	1915	5	184	0	3924
92	0	0	1979	5	183	0	3923
93	0	0	2012	5	184	0	3923
94	0	0	2018	5	185	0	3923
95	0	0	2020	5	183	0	3923
96	0	0	2014	5	184	0	3923
97	0	0	2027	5	183	0	3924
98	0	0	2048	5	184	0	3923
99	0	0	2043	5	183	0	3923
100	0	0	2029	4	184	0	3923
101	0	0	2013	5	183	0	3924
102	0	0	2011	5	183	0	3923
103	0	0	2010	5	184	0	3924
104	0	0	1981	4	184	0	3922
105	0	0	1929	3	184	0	3923
106	0	0	1869	4	184	0	3923
107	0	0	1813	4	184	0	3923
108	0	0	1780	4	183	0	3922
109	0	0	1773	5	184	0	3922
110	0	0	1782	5	184	0	3922
111	0	0	1816	5	184	0	3923
112	0	0	1872	5	183	0	3924
113	0	0	1939	5	183	0	3923
114	0	0	1990	5	183	0	3924
115	0	0	2022	5	183	0	3923
116	0	0	2031	5	184	0	3923
117	0	0	2027	5	184	0	3924
118	0	0	2029	5	184	0	3923
119	0	0	2030	5	184	0	3923
120	0	0	2024	5	184	0	3923
121	0	0	2005	4	185	0	3922
122	0	0	1969	4	184	0	3923
123	0	0	1931	4	184	0	3924
124	0	0	1907	5	185	0	3923
125	0	0	1895	4	184	0	3923
126	0	0	1867	4	185	0	3924
127	0	0	1818	4	182	0	3923
0	0	0	1772	4	184	0	3922
1	0	0	1771	5	185	0	3923
2	0	0	1814	5	184	0	3923
3	0	0	1864	5	183	0	3923
4	0	0	1894	5	182	0	3923
5	0	0	1910	5	184	0	3923
6	0	0	1929	5	186	0	3923
7	0	0	1967	5	185	0	3923
8	0	0	2006	5	184	0	3923
9	0	0	2035	5	185	0	3923
10	0	0	2051	5	183	0	3922
11	0	0	2046	5	183	0	3924
12	0	0	2035	4	183	0	3924
13	0	0	2007	4	184	0	3922
14	0	0	1975	4	183	0	3923
15	0	0	1929	4	183	0	3922
16	0	0	1864	4	184	0	3922
17	0	0	1838	4	184	0	3923
18	0	0	1835	5	183	0	3922
19	0	0	1800	4	184	0	3923
20	0	0	1770	4	184	0	3924
21	0	0	1774	5	184	0	3923
22	0	0	1796	4	184	0	3923
23	0	0	1826	5	183	0	3923
24	0	0	1867	5	185	0	3924
25	0	0	1923	5	184	0	3922
26	0	0	1984	5	185	0	3924
27	0	0	2028	5	184	0	3923
28	0	0	2040	5	184	0	3922
29	0	0	2044	5	184	0	3923
30	0	0	2052	5	184	0	3922
31	0	0	2040	5	184	0	3922
32	0	0	2015	3	184	0	3923
33	0	0	1995	4	184	0	3923
34	0	0	1972	4	185	0	3923
35	0	0	1934	4	184	0	3923
36	0	0	1900	4	184	0	3923
37	0	0	1860	3	184	0	3923
38	0	0	1829	4	184	0	3924
39	0	0	1791	4	184	0	3923
40	0	0	1759	4	185	0	3924
41	0	0	1761	5	186	0	3922
42	0	0	1796	3	185	0	3923
43	0	0	1844	5	184	0	3922
44	0	0	1899	5	184	0	3923
45	0	0	1942	5	184	0	3922
46	0	0	1978	5	183	0	3922
47	0	0	2009	4	184	0	3923
48	0	0	2036	5	184	0	3923
49	0	0	2063	5	184	0	3923
50	0	0	2069	5	183	0	3922
51	0	0	2039	4	184	0	3923
52	0	0	2004	4	184	0	3923
53	0	0	1978	4	184	0	3923
54	0	0	1953	4	185	0	3923
55	0	0	1924	4	184	0	3923
56	0	0	1889	4	184	0	3923
57	0	0	1861	4	184	0	3923
58	0	0	1844	5	184	0	3923
59	0	0	1820	4	185	0	3923
60	0	0	1795	4	184	0	3922
61	0	0	1806	5	184	0	3922
62	0	0	1848	5	184	0	3922
63	0	0	1892	5	184	0	3922
64	0	0	1927	5	184	0	3924
65	0	0	1951	5	183	0	3922
66	0	0	1996	5	183	0	3924
67	0	0	2051	5	184	0	3923
68	0	0	2066	5	184	0	3923
69	0	0	2032	4	184	0	3924
70	0	0	2002	4	184	0	3923
71	0	0	1992	5	183	0	3923
72	0	0	1978	4	184	0	3923
73	0	0	1957	4	184	0	3923
74	0	0	1920	5	184	0	3923
75	0	0	1888	4	183	0	3922
76	0	0	1860	4	184	0	3923
77	0	0	1839	4	184	0	3922
78	0	0	1823	4	184	0	3922
79	0	0	1801	4	184	0	3923
80	0	0	1782	4	184	0	3922
81	0	0	1784	5	184	0	3922
82	0	0	1807	5	184	0	3922
83	0	0	1838	5	184	0	3922
84	0	0	1888	5	184	0	3923
85	0	0	1939	5	184	0	3924
86	0	0	1986	6	184	0	3923
87	0	0	2026	5	184	0	3923
88	0	0	2048	5	185	0	3924
89	0	0	2053	5	182	0	3923
90	0	0	2071	5	184	0	3924
91	0	0	2061	5	185	0	3922
92	0	0	2023	5	185	0	3922
93	0	0	1991	4	183	0	3922
94	0	0	1976	5	184	0	3923
95	0	0	1947	4	184	0	3922
96	0	0	1908	4	184	0	3924
97	0	0	1876	4	183	0	3923
98	0	0	1862	4	183	0	3923
99	0	0	1844	4	184	0	3923
100	0	0	1832	5	184	0	3922
101	0	0	1833	5	185	0	3922
102	0	0	1839	5	184	0	3923
103	0	0	1865	5	185	0	3924
104	0	0	1930	5	184	0	3924
105	0	0	1991	5	184	0	3923
106	0	0	2016	5	184	0	3923
107	0	0	2019	5	183	0	3923
108	0	0	2030	5	185	0	3923
109	0	0	2052	5	185	0	3922
110	0	0	2092	5	184	0	3922
111	0	0	2102	5	185	0	3922
112	0	0	2059	4	183	0	3922
113	0	0	2011	4	184	0	3922
114	0	0	1956	4	184	0	3923
115	0	0	1906	4	183	0	3922
116	0	0	1877	4	185	0	3923
117	0	0	1872	5	184	0	3923
118	0	0	1869	4	184	0	3923
119	0	0	1848	4	184	0	3924
120	0	0	1829	4	184	0	3923
121	0	0	1837	5	184	0	3924
122	0	0	1860	5	184	0	3923
123	0	0	1886	5	184	0	3923
124	0	0	1924	4	184	0	3923
125	0	0	1965	5	184	0	3923
126	0	0	1994	5	184	0	3922
127	0	0	2015	5	184	0	3923
0	0	0	2030	5	184	0	3923
1	0	0	2048	5	184	0	3923
2	0	0	2070	5	184	0	3922
3	0	0	2069	5	184	0	3922
4	0	0	2056	5	185	0	3923
5	0	0	2043	5	184	0	3923
6	0	0	2017	4	183	0	3923
7	0	0	1972	4	183	0	3923
8	0	0	1931	4	184	0	3923
9	0	0	1900	5	185	0	3923
10	0	0	1873	4	184	0	3924
11	0	0	1841	4	184	0	3923
12	0	0	1819	5	184	0	3923
13	0	0	1830	5	184	0	3923
14	0	0	1861	5	184	0	3923
15	0	0	1904	5	184	0	3924
16	0	0	1958	5	184	0	3923
17	0	0	1997	5	184	0	3922
18	0	0	2021	5	184	0	3923
19	0	0	2034	5	185	0	3923
20	0	0	2052	4	183	0	3922
21	0	0	2076	5	183	0	3923
22	0	0	2079	5	185	0	3922
23	0	0	2064	5	184	0	3922
24	0	0	2030	4	184	0	3923
25	0	0	1995	4	184	0	3924
26	0	0	1952	4	184	0	3924
27	0	0	1912	4	184	0	3923
28	0	0	1877	4	184	0	3924
29	0	0	1857	4	184	0	3924
30	0	0	1853	4	184	0	3923
31	0	0	1834	5	184	0	3923
32	0	0	1825	5	184	0	3923
33	0	0	1852	6	184	0	3922
34	0	0	1902	5	185	0	3922
35	0	0	1941	4	184	0	3923
36	0	0	1973	5	185	0	3923
37	0	0	2011	5	183	0	3922
38	0	0	2040	5	184	0	3922
39	0	0	2048	4	184	0	3923
40	0	0	2034	5	184	0	3923
41	0	0	2034	5	184	0	3923
42	0	0	2050	5	184	0	3923
43	0	0	2056	5	183	0	3923
44	0	0	2043	4	184	0	3924
45	0	0	2020	4	183	0	3923
46	0	0	1992	4	184	0	3924
47	0	0	1958	4	183	0	3923
48	0	0	1927	4	184	0	3923
49	0	0	1896	4	184	0	3923
50	0	0	1865	4	185	0	3923
51	0	0	1836	4	183	0	3923
52	0	0	1825	5	183	0	3923
53	0	0	1832	5	185	0	3922
54	0	0	1857	5	184	0	3922
55	0	0	1904	5	184	0	3923
56	0	0	1961	5	185	0	3923
57	0	0	2012	5	184	0	3923
58	0	0	2048	5	184	0	3924
59	0	0	2078	4	183	0	3923
60	0	0	2094	5	184	0	3923
61	0	0	2100	5	183	0	3924
62	0	0	2094	5	184	0	3923
63	0	0	2055	4	183	0	3923
64	0	0	2031	5	183	0	3923
65	0	0	2021	5	184	0	3923
66	0	0	2006	5	184	0	3923
67	0	0	1990	5	184	0	3923
68	0	0	1981	5	184	0	3922
69	0	0	1974	6	183	0	3922
70	0	0	1944	4	183	0	3923
71	0	0	1886	4	184	0	3923
72	0	0	1849	4	185	0	3922
73	0	0	1854	5	183	0	3923
74	0	0	1869	5	184	0	3924
75	0	0	1899	4	184	0	3923
76	0	0	1956	5	185	0	3923
77	0	0	2009	5	183	0	3924
78	0	0	2035	6	183	0	3923
79	0	0	2052	6	184	0	3923
80	0	0	2081	5	184	0	3923
81	0	0	2113	5	184	0	3923
82	0	0	2132	5	186	0	3922
83	0	0	2119	4	184	0	3922
84	0	0	2086	3	184	0	3923
85	0	0	2046	4	184	0	3923
86	0	0	2005	4	184	0	3923
87	0	0	1973	5	184	0	3922
88	0	0	1928	4	183	0	3924
89	0	0	1894	4	184	0	3923
90	0	0	1885	5	184	0	3923
91	0	0	1869	4	185	0	3924
92	0	0	1841	4	184	0	3923
93	0	0	1829	5	183	0	3923
94	0	0	1834	6	184	0	3923
95	0	0	1857	5	183	0	3923
96	0	0	1906	5	184	0	3923
97	0	0	1961	5	185	0	3923
98	0	0	2011	5	185	0	3923
99	0	0	2044	5	184	0	3923
100	0	0	2062	4	184	0	3923
101	0	0	2082	5	184	0	3923
102	0	0	2107	5	184	0	3924
103	0	0	2107	6	185	0	3922
104	0	0	2083	6	183	0	3923
105	0	0	2053	4	184	0	3924
106	0	0	2019	4	184	0	3923
107	0	0	1986	4	184	0	3924
108	0	0	1955	5	184	0	3922
109	0	0	1943	5	185	0	3923
110	0	0	1933	4	184	0	3924
111	0	0	1904	4	184	0	3923
112	0	0	1876	5	184	0	3923
113	0	0	1874	5	184	0	3923
114	0	0	1898	4	184	0	3923
115	0	0	1937	5	184	0	3923
116	0	0	1983	5	183	0	3923
117	0	0	2028	5	184	0	3922
118	0	0	2060	5	184	0	3923
119	0	0	2061	3	184	0	3923
120	0	0	2058	5	185	0	3923
121	0	0	2078	5	184	0	3924
122	0	0	2095	5	184	0	3923
123	0	0	2073	4	184	0	3922
124	0	0	2038	3	184	0	3923
125	0	0	2024	5	184	0	3923
126	0	0	2014	5	185	0	3923
127	0	0	1991	5	184	0	3923
0	0	0	1964	4	184	0	3923
1	0	0	1940	4	184	0	3923
2	0	0	1928	5	185	0	3923
3	0	0	1891	4	184	0	3923
4	0	0	1849	4	184	0	3922
5	0	0	1835	6	184	0	3922
6	0	0	1843	4	184	0	3922
7	0	0	1883	4	184	0	3922
8	0	0	1954	5	185	0	3923
9	0	0	2022	5	184	0	3922
10	0	0	2072	5	184	0	3924
11	0	0	2102	5	184	0	3921
12	0	0	2109	5	184	0	3923
13	0	0	2115	5	184	0	3924
14	0	0	2131	5	184	0	3923
15	0	0	2128	5	184	0	3924
16	0	0	2087	4	184	0	3923
17	0	0	2041	4	184	0	3923
18	0	0	2012	4	184	0	3924
19	0	0	1994	5	183	0	3923
20	0	0	1969	5	185	0	3922
21	0	0	1939	5	184	0	3922
22	0	0	1908	5	184	0	3922
23	0	0	1878	4	184	0	3923
24	0	0	1861	5	184	0	3922
25	0	0	1869	4	185	0	3922
26	0	0	1908	6	184	0	3922
27	0	0	1949	4	184	0	3922
28	0	0	2003	5	185	0	3923
29	0	0	2057	5	183	0	3922
30	0	0	2100	5	185	0	3923
31	0	0	2132	5	184	0	3923
32	0	0	2146	5	184	0	3924
33	0	0	2148	5	184	0	3923
34	0	0	2150	5	184	0	3924
35	0	0	2132	5	184	0	3923
36	0	0	2099	4	184	0	3923
37	0	0	2069	4	184	0	3923
38	0	0	2026	4	184	0	3923
39	0	0	1966	4	185	0	3922
40	0	0	1919	4	184	0	3922
41	0	0	1898	4	184	0	3922
42	0	0	1896	4	184	0	3922
43	0	0	1884	4	184	0	3923
44	0	0	1880	5	184	0	3922
45	0	0	1891	5	184	0	3922
46	0	0	1909	5	184	0	3923
47	0	0	1934	5	184	0	3923
48	0	0	1984	5	185	0	3923
49	0	0	2035	5	184	0	3923
50	0	0	2076	5	183	0	3924
51	0	0	2099	5	184	0	3923
52	0	0	2100	4	184	0	3923
53	0	0	2101	5	184	0	3924
54	0	0	2105	5	184	0	3922
55	0	0	2116	5	183	0	3922
56	0	0	2127	5	184	0	3922
57	0	0	2127	5	184	0	3923
58	0	0	2107	5	184	0	3923
59	0	0	2070	4	184	0	3923
60	0	0	2035	4	183	0	3923
61	0	0	2018	5	184	0	3923
62	0	0	1989	4	185	0	3923
63	0	0	1944	4	183	0	3923
64	0	0	1908	4	184	0	3923
65	0	0	1910	5	184	0	3922
66	0	0	1944	5	184	0	3923
67	0	0	1986	4	184	0	3923
68	0	0	2030	5	185	0	3923
69	0	0	2072	5	184	0	3923
70	0	0	2108	5	183	0	3923
71	0	0	2148	4	184	0	3923
72	0	0	2179	5	184	0	3923
73	0	0	2203	5	184	0	3923
74	0	0	2224	4	185	0	3922
75	0	0	2226	5	184	0	3922
76	0	0	2196	4	184	0	3922
77	0	0	2156	4	186	0	3923
78	0	0	2122	4	184	0	3923
79	0	0	2081	4	184	0	3923
80	0	0	2042	3	184	0	3923
81	0	0	2012	4	184	0	3923
82	0	0	1982	4	184	0	3923
83	0	0	1953	4	184	0	3923
84	0	0	1932	4	184	0	3923
85	0	0	1929	4	184	0	3922
86	0	0	1938	5	183	0	3923
87	0	0	1973	5	184	0	3923
88	0	0	2020	5	184	0	3923
89	0	0	2055	5	184	0	3923
90	0	0	2069	5	184	0	3925
91	0	0	2080	5	183	0	3923
92	0	0	2112	5	184	0	3922
93	0	0	2151	5	184	0	3923
94	0	0	2173	5	184	0	3923
95	0	0	2165	5	184	0	3922
96	0	0	2140	5	184	0	3923
97	0	0	2105	4	184	0	3923
98	0	0	2064	5	183	0	3924
99	0	0	2016	4	184	0	3923
100	0	0	1974	4	183	0	3923
101	0	0	1951	4	184	0	3923
102	0	0	1941	5	185	0	3923
103	0	0	1931	4	184	0	3923
104	0	0	1927	5	183	0	3923
105	0	0	1941	5	184	0	3922
106	0	0	1962	5	183	0	3923
107	0	0	1990	5	184	0	3923
108	0	0	2030	5	184	0	3923
109	0	0	2062	6	183	0	3922
110	0	0	2078	5	183	0	3922
111	0	0	2089	5	184	0	3923
112	0	0	2095	5	185	0	3923
113	0	0	2104	5	184	0	3923
114	0	0	2122	5	184	0	3923
115	0	0	2113	5	184	0	3923
116	0	0	2090	4	185	0	3923
117	0	0	2064	4	184	0	3923
118	0	0	2035	4	184	0	3924
119	0	0	2002	5	184	0	3923
120	0	0	1961	4	183	0	3923
121	0	0	1927	5	183	0	3922
122	0	0	1911	5	184	0	3923
123	0	0	1885	4	184	0	3923
124	0	0	1872	6	184	0	3922
125	0	0	1881	5	183	0	3922
126	0	0	1906	5	184	0	3923
127	0	0	1938	5	184	0	3923
0	0	0	1979	5	184	0	3924
1	0	0	2019	5	184	0	3922
2	0	0	2050	5	183	0	3923
3	0	0	2073	5	184	0	3923
4	0	0	2097	5	184	0	3922
5	0	0	2116	5	185	0	3923
6	0	0	2121	5	184	0	3924
7	0	0	2091	4	183	0	3923
8	0	0	2049	5	184	0	3922
9	0	0	2019	4	184	0	3923
10	0	0	1988	4	185	0	3923
11	0	0	1962	3	183	0	3923
12	0	0	1947	5	183	0	3924
13	0	0	1940	5	184	0	3923
14	0	0	1927	5	183	0	3923
15	0	0	1895	4	184	0	3923
16	0	0	1863	4	185	0	3922
17	0	0	1864	5	184	0	3922
18	0	0	1899	5	183	0	3923
19	0	0	1931	5	185	0	3923
20	0	0	1961	5	185	0	3923
21	0	0	2000	4	184	0	3924
22	0	0	2051	4	185	0	3923
23	0	0	2081	5	184	0	3922
24	0	0	2091	5	184	0	3923
25	0	0	2106	5	184	0	3923
26	0	0	2112	5	185	0	3922
27	0	0	2110	5	184	0	3923
28	0	0	2094	5	184	0	3922
29	0	0	2062	5	184	0	3922
30	0	0	2025	4	184	0	3923
31	0	0	2003	4	184	0	3922
32	0	0	1982	5	184	0	3922
33	0	0	1972	5	184	0	3923
34	0	0	1961	5	184	0	3924
35	0	0	1936	4	184	0	3923
36	0	0	1923	4	184	0	3924
37	0	0	1925	5	184	0	3923
38	0	0	1920	4	183	0	3923
39	0	0	1902	5	184	0	3923
40	0	0	1913	5	184	0	3923
41	0	0	1948	5	184	0	3926
42	0	0	1994	5	184	0	3922
43	0	0	2029	5	184	0	3922
44	0	0	2053	5	184	0	3922
45	0	0	2087	5	184	0	3923
46	0	0	2114	5	184	0	3922
47	0	0	2099	5	184	0	3922
48	0	0	2066	5	184	0	3922
49	0	0	2027	5	184	0	3922
50	0	0	1992	4	184	0	3923
51	0	0	1960	5	183	0	3921
52	0	0	1938	4	184	0	3923
53	0	0	1921	5	183	0	3922
54	0	0	1900	4	184	0	3921
55	0	0	1894	5	184	0	3922
56	0	0	1911	5	184	0	3921
57	0	0	1961	5	186	0	3921
58	0	0	2016	5	183	0	3921
59	0	0	2084	5	184	0	3922
60	0	0	2158	5	183	0	3921
61	0	0	2237	5	184	0	3921
62	0	0	2325	5	184	0	3920
63	0	0	2401	5	184	0	3920
64	0	0	2457	5	184	0	3920
65	0	0	2501	5	184	0	3921
66	0	0	2532	5	184	0	3919
67	0	0	2543	5	186	0	3918
68	0	0	2535	6	184	0	3918
69	0	0	2504	4	185	0	3918
70	0	0	2469	4	184	0	3917
71	0	0	2433	4	184	0	3917
72	0	0	2387	4	184	0	3916
73	0	0	2347	5	184	0	3916
74	0	0	2313	4	184	0	3916
75	0	0	2271	4	184	0	3916
76	0	0	2225	3	184	0	3915
77	0	0	2192	4	186	0	3915
78	0	0	2167	5	184	0	3915
79	0	0	2153	4	184	0	3916
80	0	0	2164	5	184	0	3915
81	0	0	2209	4	184	0	3916
82	0	0	2261	5	183	0	3914
83	0	0	2296	5	183	0	3912
84	0	0	2302	5	184	0	3911
85	0	0	2284	5	183	0	3912
86	0	0	2235	4	184	0	3910
87	0	0	2180	4	184	0	3910
88	0	0	2140	4	183	0	3910
89	0	0	2101	4	183	0	3911
90	0	0	2045	4	184	0	3909
91	0	0	1994	4	184	0	3908
92	0	0	1952	4	184	0	3908
93	0	0	1919	4	183	0	3908
94	0	0	1894	4	184	0	3908
95	0	0	1876	4	184	0	3908
96	0	0	1870	5	185	0	3907
97	0	0	1876	5	184	0	3907
98	0	0	1896	5	183	0	3907
99	0	0	1942	4	184	0	3907
100	0	0	2006	5	183	0	3905
101	0	0	2061	5	184	0	3904
102	0	0	2098	5	185	0	3903
103	0	0	2109	5	184	0	3903
104	0	0	2113	5	184	0	3903
105	0	0	2127	5	185	0	3903
106	0	0	2156	5	183	0	3901
107	0	0	2152	5	185	0	3901
108	0	0	2102	6	184	0	3901
109	0	0	2033	4	184	0	3900
110	0	0	1979	4	184	0	3901
111	0	0	1948	4	184	0	3900
112	0	0	1923	4	183	0	3900
113	0	0	1905	4	184	0	3900
114	0	0	1884	5	184	0	3899
115	0	0	1848	4	184	0	3900
116	0	0	1824	4	184	0	3898
117	0	0	1838	5	183	0	3896
118	0	0	1880	5	183	0	3896
119	0	0	1932	4	184	0	3896
120	0	0	1987	5	184	0	3897
121	0	0	2033	5	184	0	3895
122	0	0	2080	5	184	0	3896
123	0	0	2116	5	184	0	3894
124	0	0	2140	5	185	0	3894
125	0	0	2151	5	183	0	3893
126	0	0	2156	5	184	0	3892
127	0	0	2147	5	184	0	3892
0	0	0	2140	5	183	0	3892
1	0	0	2127	4	183	0	3892
2	0	0	2087	4	185	0	3892
3	0	0	2042	3	183	0	3891
4	0	0	2013	4	184	0	3891
5	0	0	1985	5	184	0	3889
6	0	0	1952	5	184	0	3889
7	0	0	1923	4	184	0	3888
8	0	0	1925	4	184	0	3886
9	0	0	1965	5	184	0	3888
10	0	0	2019	5	183	0	3887
11	0	0	2067	6	184	0	3886
12	0	0	2101	5	184	0	3886
13	0	0	2119	5	185	0	3884
14	0	0	2140	5	184	0	3884
15	0	0	2167	5	183	0	3884
16	0	0	2185	5	183	0	3884
17	0	0	2197	5	184	0	3883
18	0	0	2208	5	183	0	3883
19	0	0	2203	5	183	0	3884
20	0	0	2184	5	185	0	3884
21	0	0	2170	5	184	0	3881
22	0	0	2142	4	184	0	3880
23	0	0	2104	3	184	0	3878
24	0	0	2065	4	183	0	3878
25	0	0	2033	4	184	0	3878
26	0	0	2001	4	184	0	3877
27	0	0	1966	4	184	0	3878
28	0	0	1954	5	184	0	3876
29	0	0	1983	5	185	0	3876
30	0	0	2033	5	182	0	3875
31	0	0	2068	6	184	0	3875
32	0	0	2087	5	184	0	3875
33	0	0	2111	5	185	0	3874
34	0	0	2149	5	184	0	3874
35	0	0	2171	5	183	0	3874
36	0	0	2168	5	183	0	3873
37	0	0	2185	5	184	0	3874
38	0	0	2218	4	183	0	3871
39	0	0	2231	5	184	0	3870
40	0	0	2214	5	183	0	3870
41	0	0	2179	4	184	0	3870
42	0	0	2130	4	184	0	3869
43	0	0	2068	4	184	0	3868
44	0	0	2027	4	184	0	3868
45	0	0	2017	5	184	0	3867
46	0	0	2013	5	184	0	3867
47	0	0	1991	4	184	0	3867
48	0	0	1952	3	184	0	3865
49	0	0	1943	5	184	0	3866
50	0	0	1970	5	184	0	3866
51	0	0	2030	5	184	0	3865
52	0	0	2103	5	184	0	3865
53	0	0	2152	4	184	0	3866
54	0	0	2179	5	184	0	3863
55	0	0	2198	5	182	0	3862
56	0	0	2214	5	184	0	3861
57	0	0	2235	5	184	0	3860
58	0	0	2256	5	184	0	3859
59	0	0	2251	5	184	0	3859
60	0	0	2218	5	185	0	3859
61	0	0	2185	4	184	0	3858
62	0	0	2150	4	184	0	3857
63	0	0	2105	3	184	0	3857
64	0	0	2074	5	185	0	3856
65	0	0	2066	5	184	0	3856
66	0	0	2063	5	185	0	3855
67	0	0	2044	4	184	0	3855
68	0	0	2033	4	185	0	3856
69	0	0	2037	5	184	0	3855
70	0	0	2063	5	183	0	3855
71	0	0	2097	5	184	0	3854
72	0	0	2132	5	184	0	3852
73	0	0	2163	4	185	0	3851
74	0	0	2191	5	184	0	3850
75	0	0	2215	5	184	0	3849
76	0	0	2238	5	184	0	3849
77	0	0	2267	5	183	0	3848
78	0	0	2301	5	184	0	3847
79	0	0	2322	5	184	0	3848
80	0	0	2293	4	184	0	3848
81	0	0	2244	3	184	0	3846
82	0	0	2203	4	184	0	3847
83	0	0	2148	3	185	0	3845
84	0	0	2091	4	184	0	3845
85	0	0	2053	4	182	0	3845
86	0	0	2030	4	184	0	3845
87	0	0	2006	4	183	0	3845
88	0	0	1993	5	184	0	3842
89	0	0	2001	5	184	0	3840
90	0	0	2029	5	184	0	3840
91	0	0	2090	5	184	0	3840
92	0	0	2165	5	184	0	3839
93	0	0	2216	5	184	0	3838
94	0	0	2245	5	183	0	3839
95	0	0	2253	5	185	0	3838
96	0	0	2251	5	184	0	3837
97	0	0	2266	5	183	0	3836
98	0	0	2271	5	184	0	3835
99	0	0	2263	5	184	0	3835
100	0	0	2241	4	184	0	3835
101	0	0	2201	4	184	0	3835
102	0	0	2172	5	184	0	3834
103	0	0	2151	5	184	0	3834
104	0	0	2118	4	183	0	3832
105	0	0	2089	5	183	0	3831
106	0	0	2069	4	183	0	3830
107	0	0	2035	4	185	0	3829
108	0	0	2006	4	184	0	3829
109	0	0	2016	5	185	0	3827
110	0	0	2054	5	185	0	3827
111	0	0	2108	5	183	0	3830
112	0	0	2170	5	184	0	3826
113	0	0	2245	5	184	0	3826
114	0	0	2300	5	186	0	3824
115	0	0	2300	5	184	0	3824
116	0	0	2270	4	185	0	3824
117	0	0	2252	5	184	0	3823
118	0	0	2246	4	184	0	3823
119	0	0	2218	4	184	0	3822
120	0	0	2183	4	184	0	3822
121	0	0	2147	4	184	0	3821
122	0	0	2112	4	184	0	3819
123	0	0	2084	4	184	0	3818
124	0	0	2073	5	184	0	3818
125	0	0	2074	5	184	0	3817
126	0	0	2071	5	184	0	3817
127	0	0	2037	4	184	0	3815
0	0	0	2002	4	184	0	3816
1	0	0	2012	5	183	0	3814
2	0	0	2043	5	184	0	3813
3	0	0	2078	4	183	0	3813
4	0	0	2132	5	183	0	3813
5	0	0	2184	5	184	0	3812
6	0	0	2216	4	183	0	3812
7	0	0	2229	5	184	0	3812
8	0	0	2231	5	184	0	3812
9	0	0	2246	5	183	0	3812
10	0	0	2266	6	184	0	3808
11	0	0	2269	5	184	0	3808
12	0	0	2255	5	184	0	3807
13	0	0	2224	4	184	0	3805
14	0	0	2191	4	184	0	3805
15	0	0	2164	4	183	0	3804
16	0	0	2135	4	183	0	3803
17	0	0	2109	5	184	0	3803
18	0	0	2088	4	184	0	3801
19	0	0	2061	4	184	0	3801
20	0	0	2039	5	185	0	3800
21	0	0	2039	5	183	0	3800
22	0	0	2064	5	184	0	3800
23	0	0	2101	4	184	0	3800
24	0	0	2147	5	185	0	3800
25	0	0	2184	5	183	0	3799
26	0	0	2208	5	184	0	3798
27	0	0	2224	5	185	0	3796
28	0	0	2236	5	184	0	3795
29	0	0	2253	5	184	0	3794
30	0	0	2276	5	183	0	3792
31	0	0	2278	5	184	0	3791
32	0	0	2248	4	184	0	3791
33	0	0	2207	3	184	0	3791
34	0	0	2156	4	184	0	3790
35	0	0	2098	4	184	0	3791
36	0	0	2052	4	186	0	3788
37	0	0	2015	5	184	0	3788
38	0	0	2001	5	185	0	3789
39	0	0	1980	4	184	0	3788
40	0	0	1957	4	184	0	3787
41	0	0	1952	4	184	0	3786
42	0	0	1968	5	183	0	3786
43	0	0	1990	5	184	0	3784
44	0	0	2019	5	184	0	3782
45	0	0	2055	5	183	0	3781
46	0	0	2084	5	184	0	3780
47	0	0	2105	5	184	0	3779
48	0	0	2117	4	184	0	3779
49	0	0	2129	5	183	0	3779
50	0	0	2137	6	184	0	3777
51	0	0	2125	5	184	0	3777
52	0	0	2092	4	184	0	3777
53	0	0	2048	4	183	0	3776
54	0	0	2006	4	183	0	3775
55	0	0	1970	5	184	0	3774
56	0	0	1940	4	184	0	3774
57	0	0	1934	5	184	0	3773
58	0	0	1932	3	184	0	3774
59	0	0	1900	4	184	0	3773
60	0	0	1857	4	183	0	3771
61	0	0	1851	5	185	0	3768
62	0	0	1859	5	184	0	3763
63	0	0	1884	5	184	0	3767
64	0	0	1927	5	184	0	3766
65	0	0	1959	5	183	0	3765
66	0	0	1980	4	184	0	3764
67	0	0	1994	5	185	0	3763
68	0	0	2002	3	183	0	3763
69	0	0	2014	5	184	0	3761
70	0	0	2026	5	184	0	3760
71	0	0	2018	5	184	0	3760
72	0	0	1987	4	184	0	3760
73	0	0	1957	4	183	0	3760
74	0	0	1929	4	184	0	3760
75	0	0	1891	5	184	0	3759
76	0	0	1854	4	184	0	3759
77	0	0	1826	4	184	0	3757
78	0	0	1805	3	183	0	3754
79	0	0	1764	4	184	0	3753
80	0	0	1724	4	184	0	3752
81	0	0	1722	5	184	0	3751
82	0	0	1738	5	184	0	3751
83	0	0	1750	3	183	0	3750
84	0	0	1777	5	184	0	3750
85	0	0	1803	5	184	0	3750
86	0	0	1825	5	184	0	3748
87	0	0	1858	5	184	0	3748
88	0	0	1885	5	185	0	3747
89	0	0	1903	5	185	0	3746
90	0	0	1909	4	185	0	3745
91	0	0	1903	5	184	0	3745
92	0	0	1892	4	185	0	3745
93	0	0	1865	3	184	0	3743
94	0	0	1840	4	185	0	3741
95	0	0	1804	4	184	0	3740
96	0	0	1758	4	184	0	3738
97	0	0	1723	4	184	0	3737
98	0	0	1697	4	184	0	3737
99	0	0	1666	4	184	0	3736
100	0	0	1624	4	184	0	3736
101	0	0	1607	4	186	0	3734
102	0	0	1621	5	184	0	3734
103	0	0	1654	5	185	0	3734
104	0	0	1702	5	184	0	3732
105	0	0	1755	5	185	0	3733
106	0	0	1801	5	184	0	3731
107	0	0	1827	5	184	0	3731
108	0	0	1845	5	184	0	3731
109	0	0	1860	5	183	0	3730
110	0	0	1877	4	183	0	3726
111	0	0	1871	5	184	0	3725
112	0	0	1850	4	183	0	3724
113	0	0	1827	3	184	0	3723
114	0	0	1784	4	184	0	3722
115	0	0	1731	4	184	0	3721
116	0	0	1682	4	184	0	3721
117	0	0	1637	4	184	0	3720
118	0	0	1609	4	184	0	3719
119	0	0	1570	4	184	0	3717
120	0	0	1553	5	184	0	3718
121	0	0	1585	5	184	0	3716
122	0	0	1630	5	184	0	3716
123	0	0	1656	4	184	0	3715
124	0	0	1694	5	184	0	3715
125	0	0	1732	5	184	0	3714
126	0	0	1763	5	185	0	3713
127	0	0	1791	5	184	0	3711
0	0	0	1822	4	184	0	3710
1	0	0	1851	5	184	0	3708
2	0	0	1861	5	184	0	3706
3	0	0	1834	4	183	0	3706
4	0	0	1817	4	184	0	3705
5	0	0	1796	4	183	0	3705
6	0	0	1760	4	184	0	3705
7	0	0	1712	4	184	0	3703
8	0	0	1691	4	184	0	3703
9	0	0	1678	4	183	0	3703
10	0	0	1669	4	184	0	3701
11	0	0	1655	4	184	0	3701
12	0	0	1626	5	184	0	3699
13	0	0	1626	5	184	0	3707
14	0	0	1646	5	184	0	3699
15	0	0	1665	4	184	0	3697
16	0	0	1695	5	184	0	3694
17	0	0	1731	5	184	0	3693
18	0	0	1775	5	184	0	3692
19	0	0	1813	5	183	0	3691
20	0	0	1843	5	184	0	3690
21	0	0	1855	5	183	0	3689
22	0	0	1849	5	184	0	3689
23	0	0	1823	4	184	0	3687
24	0	0	1801	5	185	0	3686
25	0	0	1788	4	184	0	3686
26	0	0	1766	4	184	0	3685
27	0	0	1738	4	185	0	3684
28	0	0	1701	4	184	0	3684
29	0	0	1669	5	184	0	3684
30	0	0	1640	4	184	0	3683
31	0	0	1620	4	184	0	3682
32	0	0	1612	5	184	0	3679
33	0	0	1614	5	184	0	3678
34	0	0	1624	4	184	0	3676
35	0	0	1644	5	184	0	3676
36	0	0	1693	5	183	0	3674
37	0	0	1747	5	184	0	3675
38	0	0	1791	5	184	0	3673
39	0	0	1820	5	184	0	3672
40	0	0	1841	5	184	0	3671
41	0	0	1857	5	184	0	3669
42	0	0	1862	5	184	0	3668
43	0	0	1831	5	184	0	3668
44	0	0	1783	4	183	0	3667
45	0	0	1737	4	184	0	3667
46	0	0	1706	4	183	0	3667
47	0	0	1689	4	184	0	3667
48	0	0	1678	4	184	0	3666
49	0	0	1653	4	184	0	3663
50	0	0	1615	4	184	0	3660
51	0	0	1587	4	184	0	3660
52	0	0	1586	5	184	0	3657
53	0	0	1603	5	184	0	3656
54	0	0	1619	5	186	0	3655
55	0	0	1651	4	184	0	3655
56	0	0	1701	5	184	0	3654
57	0	0	1746	5	184	0	3653
58	0	0	1784	5	184	0	3652
59	0	0	1816	5	185	0	3652
60	0	0	1830	5	183	0	3652
61	0	0	1834	5	183	0	3649
62	0	0	1836	5	183	0	3650
63	0	0	1828	5	184	0	3648
64	0	0	1810	5	185	0	3648
65	0	0	1800	5	183	0	3647
66	0	0	1783	4	184	0	3644
67	0	0	1745	4	184	0	3642
68	0	0	1694	4	183	0	3641
69	0	0	1660	4	183	0	3640
70	0	0	1656	5	184	0	3639
71	0	0	1649	4	183	0	3637
72	0	0	1629	4	183	0	3636
73	0	0	1621	5	184	0	3635
74	0	0	1620	4	184	0	3634
75	0	0	1617	5	184	0	3633
76	0	0	1625	5	184	0	3633
77	0	0	1631	5	184	0	3632
78	0	0	1651	6	184	0	3632
79	0	0	1678	5	184	0	3631
80	0	0	1684	4	184	0	3631
81	0	0	1672	5	184	0	3630
82	0	0	1675	5	183	0	3626
83	0	0	1665	4	184	0	3624
84	0	0	1640	4	185	0	3623
85	0	0	1612	5	185	0	3623
86	0	0	1588	4	184	0	3622
87	0	0	1583	4	184	0	3621
88	0	0	1558	4	183	0	3620
89	0	0	1524	4	185	0	3619
90	0	0	1500	4	184	0	3618
91	0	0	1476	4	184	0	3616
92	0	0	1451	4	185	0	3616
93	0	0	1454	5	184	0	3615
94	0	0	1469	5	183	0	3615
95	0	0	1490	5	184	0	3614
96	0	0	1528	4	184	0	3613
97	0	0	1558	5	184	0	3614
98	0	0	1592	5	184	0	3612
99	0	0	1625	5	184	0	3609
100	0	0	1650	5	184	0	3607
101	0	0	1662	5	184	0	3604
102	0	0	1668	4	185	0	3604
103	0	0	1660	4	184	0	3602
104	0	0	1645	5	185	0	3601
105	0	0	1629	4	183	0	3601
106	0	0	1606	4	184	0	3600
107	0	0	1581	4	185	0	3599
108	0	0	1544	4	185	0	3598
109	0	0	1493	4	184	0	3597
110	0	0	1454	4	184	0	3597
111	0	0	1422	4	184	0	3595
112	0	0	1404	4	185	0	3595
113	0	0	1429	5	185	0	3593
114	0	0	1470	5	185	0	3593
115	0	0	1509	5	184	0	3591
116	0	0	1559	5	184	0	3590
117	0	0	1586	5	184	0	3587
118	0	0	1592	5	184	0	3585
119	0	0	1604	5	184	0	3584
120	0	0	1627	5	184	0	3584
121	0	0	1650	5	184	0	3581
122	0	0	1672	5	185	0	3579
123	0	0	1673	5	184	0	3578
124	0	0	1655	4	184	0	3578
125	0	0	1632	4	184	0	3578
126	0	0	1596	4	185	0	3577
127	0	0	1544	4	184	0	3576
0	0	0	1510	4	184	0	3576
1	0	0	1503	4	184	0	3575
2	0	0	1494	4	184	0	3574
3	0	0	1467	4	184	0	3572
4	0	0	1458	5	184	0	3569
5	0	0	1472	5	184	0	3567
6	0	0	1483	5	184	0	3566
7	0	0	1506	5	184	0	3566
8	0	0	1561	5	184	0	3564
9	0	0	1612	5	184	0	3563
10	0	0	1646	6	184	0	3563
11	0	0	1669	5	183	0	3562
12	0	0	1676	5	184	0	3560
13	0	0	1673	5	185	0	3558
14	0	0	1675	5	183	0	3557
15	0	0	1678	5	185	0	3556
16	0	0	1686	5	184	0	3556
17	0	0	1689	5	185	0	3556
18	0	0	1669	4	184	0	3556
19	0	0	1633	4	184	0	3555
20	0	0	1590	4	184	0	3554
21	0	0	1562	4	184	0	3551
22	0	0	1551	5	184	0	3548
23	0	0	1534	5	184	0	3546
24	0	0	1499	4	185	0	3544
25	0	0	1473	4	184	0	3543
26	0	0	1472	5	184	0	3542
27	0	0	1497	5	185	0	3542
28	0	0	1549	5	184	0	3540
29	0	0	1596	5	184	0	3540
30	0	0	1628	5	184	0	3539
31	0	0	1647	5	184	0	3539
32	0	0	1650	5	184	0	3537
33	0	0	1651	5	184	0	3535
34	0	0	1664	5	185	0	3535
35	0	0	1657	4	184	0	3534
36	0	0	1636	4	184	0	3533
37	0	0	1620	4	184	0	3532
38	0	0	1610	5	184	0	3529
39	0	0	1597	4	184	0	3528
40	0	0	1581	4	185	0	3526
41	0	0	1552	4	183	0	3525
42	0	0	1519	4	184	0	3523
43	0	0	1499	4	184	0	3519
44	0	0	1489	4	183	0	3520
45	0	0	1495	5	184	0	3518
46	0	0	1508	5	184	0	3518
47	0	0	1514	5	184	0	3518
48	0	0	1538	4	184	0	3518
49	0	0	1565	5	184	0	3516
50	0	0	1593	5	184	0	3516
51	0	0	1633	5	185	0	3515
52	0	0	1668	5	184	0	3514
53	0	0	1687	5	184	0	3512
54	0	0	1703	5	184	0	3508
55	0	0	1699	5	184	0	3506
56	0	0	1676	4	183	0	3505
57	0	0	1648	4	183	0	3504
58	0	0	1624	4	184	0	3503
59	0	0	1605	5	184	0	3502
60	0	0	1571	4	183	0	3501
61	0	0	1534	4	184	0	3500
62	0	0	1515	4	183	0	3499
63	0	0	1490	4	184	0	3497
64	0	0	1462	4	184	0	3495
65	0	0	1460	5	184	0	3494
66	0	0	1475	4	184	0	3494
67	0	0	1494	5	184	0	3494
68	0	0	1541	5	185	0	3494
69	0	0	1604	5	184	0	3492
70	0	0	1651	5	183	0	3492
71	0	0	1674	5	184	0	3489
72	0	0	1694	5	184	0	3486
73	0	0	1724	7	184	0	3484
74	0	0	1743	5	184	0	3481
75	0	0	1745	5	185	0	3480
76	0	0	1727	4	184	0	3480
77	0	0	1698	4	184	0	3479
78	0	0	1648	4	183	0	3479
79	0	0	1589	4	183	0	3478
80	0	0	1529	4	184	0	3476
81	0	0	1492	4	185	0	3476
82	0	0	1482	5	183	0	3474
83	0	0	1475	4	184	0	3473
84	0	0	1478	5	184	0	3472
85	0	0	1503	5	184	0	3471
86	0	0	1534	5	184	0	3471
87	0	0	1572	5	183	0	3471
88	0	0	1620	5	183	0	3471
89	0	0	1658	4	184	0	3470
90	0	0	1685	5	184	0	3470
91	0	0	1705	5	184	0	3470
92	0	0	1726	5	185	0	3468
93	0	0	1743	5	184	0	3467
94	0	0	1751	5	184	0	3465
95	0	0	1750	4	184	0	3465
96	0	0	1729	4	184	0	3464
97	0	0	1699	4	183	0	3465
98	0	0	1655	4	184	0	3464
99	0	0	1618	4	185	0	3464
100	0	0	1604	4	184	0	3464
101	0	0	1596	4	185	0	3464
102	0	0	1624	5	184	0	3463
103	0	0	1658	5	184	0	3462
104	0	0	1676	5	184	0	3461
105	0	0	1708	5	183	0	3461
106	0	0	1755	5	184	0	3461
107	0	0	1801	5	185	0	3462
108	0	0	1845	5	184	0	3462
109	0	0	1871	4	184	0	3462
110	0	0	1893	4	185	0	3462
111	0	0	1906	5	184	0	3461
112	0	0	1908	5	183	0	3461
113	0	0	1909	5	185	0	3459
114	0	0	1906	4	183	0	3458
115	0	0	1879	4	185	0	3458
116	0	0	1854	4	184	0	3458
117	0	0	1837	4	184	0	3459
118	0	0	1830	5	184	0	3458
119	0	0	1819	4	183	0	3460
120	0	0	1800	4	183	0	3459
121	0	0	1776	4	183	0	3459
122	0	0	1750	4	184	0	3459
123	0	0	1712	4	184	0	3456
124	0	0	1683	4	183	0	3457
125	0	0	1684	5	184	0	3457
126	0	0	1695	5	185	0	3457
127	0	0	1714	5	184	0	3458
0	0	0	1752	5	184	0	3457
1	0	0	1802	5	183	0	3457
2	0	0	1843	5	184	0	3457
3	0	0	1866	5	184	0	3457
4	0	0	1877	5	183	0	3456
5	0	0	1885	5	183	0	3455
6	0	0	1899	5	185	0	3454
7	0	0	1886	4	183	0	3455
8	0	0	1842	4	185	0	3455
9	0	0	1791	4	185	0	3456
10	0	0	1742	4	184	0	3456
11	0	0	1703	4	184	0	3456
12	0	0	1677	4	184	0	3457
13	0	0	1665	5	185	0	3457
14	0	0	1663	5	184	0	3456
15	0	0	1654	4	184	0	3456
16	0	0	1642	4	184	0	3454
17	0	0	1646	5	184	0	3455
18	0	0	1665	5	184	0	3455
19	0	0	1704	5	183	0	3455
20	0	0	1764	5	184	0	3455
21	0	0	1810	5	183	0	3455
22	0	0	1840	4	184	0	3455
23	0	0	1857	5	183	0	3455
24	0	0	1877	5	185	0	3454
25	0	0	1905	5	185	0	3453
26	0	0	1904	4	185	0	3452
27	0	0	1879	4	184	0	3453
28	0	0	1866	5	185	0	3454
29	0	0	1856	5	184	0	3454
30	0	0	1836	4	183	0	3455
31	0	0	1809	4	185	0	3455
32	0	0	1776	4	185	0	3455
33	0	0	1735	4	183	0	3454
34	0	0	1719	5	184	0	3455
35	0	0	1712	4	184	0	3453
36	0	0	1708	5	184	0	3452
37	0	0	1709	5	184	0	3452
38	0	0	1717	5	185	0	3453
39	0	0	1744	5	184	0	3453
40	0	0	1785	5	183	0	3454
41	0	0	1816	5	183	0	3453
42	0	0	1834	5	184	0	3454
43	0	0	1854	5	184	0	3454
44	0	0	1868	5	184	0	3453
45	0	0	1881	5	184	0	3453
46	0	0	1900	5	184	0	3452
47	0	0	1895	5	184	0	3453
48	0	0	1878	5	184	0	3454
49	0	0	1858	4	185	0	3454
50	0	0	1840	4	184	0	3454
51	0	0	1818	4	184	0	3453
52	0	0	1783	4	184	0	3453
53	0	0	1752	4	184	0	3453
54	0	0	1723	4	184	0	3453
55	0	0	1694	4	183	0	3451
56	0	0	1684	4	183	0	3451
57	0	0	1693	5	183	0	3451
58	0	0	1695	5	185	0	3451
59	0	0	1706	5	185	0	3452
60	0	0	1740	5	183	0	3452
61	0	0	1789	5	184	0	3453
62	0	0	1839	5	184	0	3453
63	0	0	1882	5	183	0	3453
64	0	0	1917	5	184	0	3453
65	0	0	1944	5	183	0	3452
66	0	0	1958	5	183	0	3452
67	0	0	1941	4	184	0	3451
68	0	0	1905	4	184	0	3452
69	0	0	1858	4	184	0	3452
70	0	0	1791	4	184	0	3452
71	0	0	1722	4	184	0	3452
72	0	0	1676	4	185	0	3452
73	0	0	1646	4	185	0	3452
74	0	0	1636	5	184	0	3452
75	0	0	1643	5	184	0	3450
76	0	0	1647	5	184	0	3450
77	0	0	1674	4	185	0	3451
78	0	0	1707	5	184	0	3451
79	0	0	1731	5	183	0	3452
80	0	0	1764	5	185	0	3452
81	0	0	1792	5	184	0	3453
82	0	0	1811	5	184	0	3453
83	0	0	1836	5	184	0	3454
84	0	0	1864	5	184	0	3452
85	0	0	1893	5	184	0	3452
86	0	0	1925	5	184	0	3450
87	0	0	1938	5	184	0	3450
88	0	0	1917	4	185	0	3451
89	0	0	1862	4	184	0	3452
90	0	0	1801	4	185	0	3451
91	0	0	1765	4	184	0	3452
92	0	0	1729	4	185	0	3452
93	0	0	1692	4	184	0	3452
94	0	0	1686	5	184	0	3452
95	0	0	1681	4	185	0	3451
96	0	0	1671	5	184	0	3450
97	0	0	1680	5	185	0	3451
98	0	0	1701	5	183	0	3452
99	0	0	1724	5	184	0	3452
100	0	0	1765	5	184	0	3452
101	0	0	1802	5	184	0	3452
102	0	0	1834	5	185	0	3452
103	0	0	1865	5	184	0	3452
104	0	0	1893	5	183	0	3452
105	0	0	1910	5	184	0	3450
106	0	0	1923	5	184	0	3449
107	0	0	1918	5	185	0	3449
108	0	0	1887	4	184	0	3451
109	0	0	1847	4	184	0	3451
110	0	0	1806	4	184	0	3451
111	0	0	1763	4	184	0	3451
112	0	0	1729	4	183	0	3452
113	0	0	1700	4	185	0	3450
114	0	0	1680	4	183	0	3452
115	0	0	1664	4	184	0	3451
116	0	0	1647	4	184	0	3450
117	0	0	1652	5	185	0	3450
118	0	0	1675	5	185	0	3450
119	0	0	1709	5	184	0	3451
120	0	0	1759	5	184	0	3452
121	0	0	1796	5	184	0	3451
122	0	0	1835	5	184	0	3451
123	0	0	1869	5	184	0	3452
124	0	0	1887	5	184	0	3451
125	0	0	1912	5	184	0	3449
126	0	0	1942	5	184	0	3449
127	0	0	1944	5	185	0	3449
0	0	0	1928	5	183	0	3450
1	0	0	1914	5	184	0	3451
2	0	0	1905	5	184	0	3451
3	0	0	1869	4	184	0	3451
4	0	0	1820	5	184	0	3452
5	0	0	1777	4	185	0	3452
6	0	0	1740	4	184	0	3451
7	0	0	1692	4	184	0	3450
8	0	0	1634	4	184	0	3449
9	0	0	1619	4	183	0	3449
10	0	0	1654	5	184	0	3449
11	0	0	1720	5	184	0	3450
12	0	0	1800	5	184	0	3450
13	0	0	1875	5	184	0	3452
14	0	0	1927	5	184	0	3451
15	0	0	1955	5	184	0	3451
16	0	0	1978	5	183	0	3450
17	0	0	1998	5	184	0	3449
18	0	0	2025	5	185	0	3449
19	0	0	2019	4	184	0	3450
20	0	0	1985	4	184	0	3450
21	0	0	1943	5	183	0	3451
22	0	0	1893	4	184	0	3452
23	0	0	1836	4	184	0	3451
24	0	0	1791	4	184	0	3451
25	0	0	1771	5	183	0	3451
26	0	0	1764	5	184	0	3450
27	0	0	1743	4	184	0	3448
28	0	0	1715	4	185	0	3448
29	0	0	1714	5	184	0	3448
30	0	0	1744	5	184	0	3449
31	0	0	1764	5	184	0	3450
32	0	0	1797	5	183	0	3450
33	0	0	1838	5	184	0	3451
34	0	0	1871	5	184	0	3451
35	0	0	1894	5	183	0	3451
36	0	0	1909	5	183	0	3451
37	0	0	1944	5	184	0	3451
38	0	0	1984	6	185	0	3449
39	0	0	1986	4	185	0	3450
40	0	0	1945	4	184	0	3449
41	0	0	1907	4	184	0	3450
42	0	0	1883	4	183	0	3450
43	0	0	1858	4	184	0	3450
44	0	0	1835	4	185	0	3450
45	0	0	1804	4	185	0	3450
46	0	0	1772	4	183	0	3450
47	0	0	1740	4	184	0	3448
48	0	0	1709	4	184	0	3448
49	0	0	1701	5	185	0	3448
50	0	0	1728	5	184	0	3449
51	0	0	1776	5	184	0	3451
52	0	0	1828	5	184	0	3450
53	0	0	1871	4	184	0	3452
54	0	0	1902	5	185	0	3451
55	0	0	1927	5	184	0	3451
56	0	0	1936	5	184	0	3451
57	0	0	1942	5	184	0	3448
58	0	0	1962	5	184	0	3448
59	0	0	1974	4	183	0	3448
60	0	0	1967	5	183	0	3449
61	0	0	1945	4	183	0	3449
62	0	0	1920	4	184	0	3449
63	0	0	1897	4	183	0	3450
64	0	0	1871	4	184	0	3457
65	0	0	1837	4	184	0	3450
66	0	0	1797	4	184	0	3450
67	0	0	1748	4	184	0	3450
68	0	0	1706	4	184	0	3448
69	0	0	1718	4	184	0	3449
70	0	0	1750	5	185	0	3450
71	0	0	1795	5	183	0	3450
72	0	0	1861	5	184	0	3450
73	0	0	1909	4	185	0	3450
74	0	0	1937	5	184	0	3450
75	0	0	1964	5	184	0	3450
76	0	0	1985	5	184	0	3450
77	0	0	2005	5	184	0	3448
78	0	0	2026	5	184	0	3449
79	0	0	2011	4	185	0	3448
80	0	0	1972	4	184	0	3449
81	0	0	1911	4	183	0	3449
82	0	0	1854	4	184	0	3451
83	0	0	1816	5	183	0	3450
84	0	0	1780	4	185	0	3450
85	0	0	1771	5	184	0	3451
86	0	0	1773	5	183	0	3451
87	0	0	1747	4	183	0	3449
88	0	0	1708	4	184	0	3449
89	0	0	1714	5	185	0	3449
90	0	0	1751	5	184	0	3449
91	0	0	1796	5	183	0	3450
92	0	0	1852	5	184	0	3449
93	0	0	1894	5	184	0	3451
94	0	0	1931	5	185	0	3450
95	0	0	1957	5	184	0	3450
96	0	0	1970	5	184	0	3450
97	0	0	1966	5	184	0	3448
98	0	0	1972	5	183	0	3448
99	0	0	1961	4	184	0	3448
100	0	0	1926	4	184	0	3449
101	0	0	1885	4	183	0	3450
102	0	0	1838	4	184	0	3450
103	0	0	1799	4	183	0	3451
104	0	0	1772	4	184	0	3451
105	0	0	1753	4	184	0	3450
106	0	0	1734	4	183	0	3450
107	0	0	1719	4	185	0	3448
108	0	0	1720	5	184	0	3447
109	0	0	1748	5	184	0	3448
110	0	0	1803	5	184	0	3448
111	0	0	1852	5	184	0	3449
112	0	0	1896	5	184	0	3450
113	0	0	1939	4	185	0	3450
114	0	0	1981	5	184	0	3450
115	0	0	2032	5	184	0	3451
116	0	0	2080	5	183	0	3450
117	0	0	2124	5	184	0	3450
118	0	0	2172	6	184	0	3448
119	0	0	2198	4	184	0	3448
120	0	0	2204	5	184	0	3450
121	0	0	2204	5	183	0	3451
122	0	0	2180	4	183	0	3450
123	0	0	2143	5	184	0	3450
124	0	0	2102	4	184	0	3450
125	0	0	2079	4	184	0	3449
126	0	0	2084	5	183	0	3449
127	0	0	2097	5	183	0	3448
0	0	0	2095	5	185	0	3448
1	0	0	2116	5	184	0	3448
2	0	0	2138	5	184	0	3448
3	0	0	2135	5	183	0	3449
4	0	0	2155	5	185	0	3449
5	0	0	2185	5	184	0	3450
6	0	0	2201	5	185	0	3451
7	0	0	2207	5	184	0	3451
8	0	0	2209	5	184	0	3451
9	0	0	2215	5	184	0	3450
10	0	0	2207	5	183	0	3448
11	0	0	2169	4	183	0	3449
12	0	0	2112	4	183	0	3449
13	0	0	2041	4	183	0	3449
14	0	0	1960	4	183	0	3449
15	0	0	1875	4	185	0	3452
16	0	0	1805	4	184	0	3449
17	0	0	1762	4	184	0	3449
18	0	0	1734	4	184	0	3449
19	0	0	1697	4	183	0	3448
20	0	0	1660	4	185	0	3448
21	0	0	1663	5	185	0	3448
22	0	0	1692	5	183	0	3449
23	0	0	1734	5	183	0	3450
24	0	0	1786	5	184	0	3450
25	0	0	1842	5	184	0	3452
26	0	0	1896	5	184	0	3451
27	0	0	1929	5	185	0	3450
28	0	0	1935	5	185	0	3451
29	0	0	1934	5	184	0	3448
30	0	0	1949	5	184	0	3449
31	0	0	1939	4	184	0	3448
32	0	0	1900	4	184	0	3448
33	0	0	1855	4	184	0	3449
34	0	0	1813	4	183	0	3449
35	0	0	1762	4	184	0	3451
36	0	0	1711	3	185	0	3450
37	0	0	1685	4	184	0	3449
38	0	0	1679	5	184	0	3450
39	0	0	1670	4	184	0	3448
40	0	0	1661	4	184	0	3448
41	0	0	1679	5	184	0	3449
42	0	0	1712	4	184	0	3450
43	0	0	1753	5	184	0	3450
44	0	0	1810	5	185	0	3450
45	0	0	1855	5	183	0	3451
46	0	0	1882	5	184	0	3450
47	0	0	1905	5	185	0	3450
48	0	0	1939	5	184	0	3450
49	0	0	1979	5	185	0	3448
50	0	0	2006	5	185	0	3449
51	0	0	2003	5	185	0	3448
52	0	0	1985	4	184	0	3448
53	0	0	1961	4	184	0	3449
54	0	0	1932	4	184	0	3449
55	0	0	1900	4	184	0	3450
56	0	0	1854	4	185	0	3450
57	0	0	1812	4	184	0	3450
58	0	0	1796	5	183	0	3450
59	0	0	1776	4	184	0	3450
60	0	0	1751	5	185	0	3448
61	0	0	1758	3	184	0	3448
62	0	0	1788	5	184	0	3448
63	0	0	1832	5	184	0	3450
64	0	0	1886	5	184	0	3449
65	0	0	1936	5	184	0	3450
66	0	0	1974	4	185	0	3449
67	0	0	1997	5	184	0	3449
68	0	0	2018	5	184	0	3449
69	0	0	2034	5	184	0	3448
70	0	0	2048	5	184	0	3448
71	0	0	2040	3	184	0	3448
72	0	0	2015	5	185	0	3448
73	0	0	1984	4	184	0	3450
74	0	0	1939	4	185	0	3450
75	0	0	1882	4	183	0	3450
76	0	0	1840	3	185	0	3451
77	0	0	1817	4	184	0	3451
78	0	0	1797	4	184	0	3450
79	0	0	1770	5	184	0	3448
80	0	0	1738	4	183	0	3448
81	0	0	1745	4	184	0	3448
82	0	0	1788	5	184	0	3449
83	0	0	1841	5	184	0	3449
84	0	0	1887	6	184	0	3449
85	0	0	1928	5	184	0	3449
86	0	0	1961	5	184	0	3450
87	0	0	1988	5	184	0	3450
88	0	0	2014	5	184	0	3449
89	0	0	2026	6	184	0	3448
90	0	0	2029	5	184	0	3448
91	0	0	2028	5	184	0	3449
92	0	0	2019	5	185	0	3450
93	0	0	2005	5	184	0	3451
94	0	0	1987	4	184	0	3450
95	0	0	1949	4	184	0	3451
96	0	0	1887	4	184	0	3451
97	0	0	1847	4	183	0	3450
98	0	0	1830	4	184	0	3449
99	0	0	1816	4	183	0	3448
100	0	0	1801	5	184	0	3449
101	0	0	1813	5	184	0	3448
102	0	0	1844	5	184	0	3448
103	0	0	1888	5	184	0	3449
104	0	0	1942	5	183	0	3450
105	0	0	1984	5	184	0	3451
106	0	0	2007	4	185	0	3451
107	0	0	2022	5	184	0	3451
108	0	0	2021	5	184	0	3450
109	0	0	2011	6	184	0	3449
110	0	0	2016	5	183	0	3449
111	0	0	2013	5	185	0	3449
112	0	0	1989	5	183	0	3449
113	0	0	1954	4	184	0	3450
114	0	0	1918	5	185	0	3449
115	0	0	1885	4	186	0	3450
116	0	0	1870	4	184	0	3450
117	0	0	1874	5	184	0	3451
118	0	0	1870	5	183	0	3450
119	0	0	1837	4	183	0	3448
120	0	0	1805	4	184	0	3448
121	0	0	1815	5	185	0	3448
122	0	0	1853	4	184	0	3449
123	0	0	1898	5	184	0	3450
124	0	0	1950	5	184	0	3450
125	0	0	2008	5	184	0	3452
126	0	0	2053	5	184	0	3451
127	0	0	2075	5	185	0	3450
0	0	0	2083	5	184	0	3450
1	0	0	2088	5	184	0	3450
2	0	0	2095	5	184	0	3448
3	0	0	2072	4	184	0	3448
4	0	0	2041	4	184	0	3448
5	0	0	2020	4	184	0	3450
6	0	0	2000	5	184	0	3449
7	0	0	1971	4	183	0	3451
8	0	0	1936	4	184	0	3450
9	0	0	1898	4	184	0	3450
10	0	0	1885	5	184	0	3450
11	0	0	1874	4	184	0	3448
12	0	0	1867	5	185	0	3449
13	0	0	1882	5	183	0	3449
14	0	0	1908	5	184	0	3450
15	0	0	1934	5	184	0	3450
16	0	0	1970	4	185	0	3450
17	0	0	2012	5	184	0	3450
18	0	0	2039	4	184	0	3450
19	0	0	2046	4	184	0	3450
20	0	0	2053	5	184	0	3450
21	0	0	2073	5	184	0	3448
22	0	0	2102	5	183	0	3448
23	0	0	2119	5	185	0	3448
24	0	0	2120	5	185	0	3449
25	0	0	2114	5	183	0	3450
26	0	0	2092	4	184	0	3450
27	0	0	2042	4	183	0	3451
28	0	0	1995	5	184	0	3451
29	0	0	1950	4	184	0	3452
30	0	0	1911	4	183	0	3451
31	0	0	1884	4	185	0	3449
32	0	0	1868	5	184	0	3450
33	0	0	1876	5	184	0	3449
34	0	0	1896	4	184	0	3449
35	0	0	1932	5	184	0	3449
36	0	0	1991	5	184	0	3449
37	0	0	2049	5	185	0	3451
38	0	0	2105	5	183	0	3450
39	0	0	2147	5	184	0	3451
40	0	0	2165	5	184	0	3450
41	0	0	2169	5	184	0	3448
42	0	0	2178	5	184	0	3448
43	0	0	2175	4	184	0	3448
44	0	0	2139	4	184	0	3449
45	0	0	2105	4	184	0	3451
46	0	0	2072	5	184	0	3450
47	0	0	2032	5	184	0	3451
48	0	0	1993	4	184	0	3451
49	0	0	1973	4	184	0	3451
50	0	0	1964	4	184	0	3451
51	0	0	1927	4	184	0	3449
52	0	0	1891	4	185	0	3448
53	0	0	1903	5	183	0	3448
54	0	0	1942	4	184	0	3449
55	0	0	1986	5	184	0	3450
56	0	0	2058	5	184	0	3451
57	0	0	2132	5	186	0	3450
58	0	0	2176	5	184	0	3450
59	0	0	2201	5	184	0	3451
60	0	0	2202	5	184	0	3450
61	0	0	2196	5	184	0	3450
62	0	0	2208	5	183	0	3449
63	0	0	2224	5	183	0	3449
64	0	0	2214	4	184	0	3451
65	0	0	2180	4	184	0	3451
66	0	0	2156	4	183	0	3452
67	0	0	2137	4	184	0	3451
68	0	0	2116	5	185	0	3450
69	0	0	2089	4	184	0	3450
70	0	0	2059	4	184	0	3450
71	0	0	2029	4	184	0	3448
72	0	0	2003	4	185	0	3449
73	0	0	2007	5	184	0	3448
74	0	0	2032	4	184	0	3449
75	0	0	2067	5	184	0	3449
76	0	0	2127	5	184	0	3450
77	0	0	2177	5	183	0	3450
78	0	0	2215	5	184	0	3451
79	0	0	2238	5	183	0	3452
80	0	0	2263	5	183	0	3451
81	0	0	2283	5	183	0	3449
82	0	0	2300	5	184	0	3450
83	0	0	2310	5	183	0	3449
84	0	0	2299	4	184	0	3450
85	0	0	2264	5	184	0	3451
86	0	0	2235	4	184	0	3450
87	0	0	2208	4	184	0	3450
88	0	0	2171	4	184	0	3450
89	0	0	2128	4	184	0	3450
90	0	0	2102	5	184	0	3450
91	0	0	2082	4	184	0	3448
92	0	0	2061	4	185	0	3448
93	0	0	2060	5	183	0	3449
94	0	0	2070	5	184	0	3449
95	0	0	2100	5	184	0	3450
96	0	0	2139	5	184	0	3452
97	0	0	2181	6	184	0	3451
98	0	0	2210	5	184	0	3451
99	0	0	2246	5	184	0	3452
100	0	0	2276	5	184	0	3451
101	0	0	2287	5	184	0	3450
102	0	0	2291	5	183	0	3448
103	0	0	2276	5	184	0	3448
104	0	0	2253	4	184	0	3449
105	0	0	2226	4	183	0	3450
106	0	0	2189	4	185	0	3449
107	0	0	2155	4	185	0	3450
108	0	0	2128	4	183	0	3450
109	0	0	2116	5	184	0	3450
110	0	0	2116	5	184	0	3450
111	0	0	2110	4	183	0	3449
112	0	0	2087	4	184	0	3450
113	0	0	2064	5	184	0	3449
114	0	0	2038	4	184	0	3450
115	0	0	2035	5	184	0	3452
116	0	0	2064	5	183	0	3451
117	0	0	2103	5	184	0	3451
118	0	0	2136	5	183	0	3451
119	0	0	2163	5	184	0	3450
120	0	0	2185	5	184	0	3450
121	0	0	2195	5	183	0	3448
122	0	0	2204	5	185	0	3448
123	0	0	2210	5	184	0	3448
124	0	0	2215	5	185	0	3450
125	0	0	2207	5	184	0	3450
126	0	0	2177	4	184	0	3451
127	0	0	2121	4	184	0	3450
0	0	0	2058	5	183	0	3451
1	0	0	2009	4	185	0	3451
2	0	0	1969	4	184	0	3451
3	0	0	1933	4	185	0	3450
4	0	0	1909	5	184	0	3449
5	0	0	1917	5	184	0	3449
6	0	0	1932	4	185	0	3449
7	0	0	1960	5	184	0	3450
8	0	0	2007	5	184	0	3450
9	0	0	2053	5	183	0	3451
10	0	0	2087	5	184	0	3451
11	0	0	2109	4	184	0	3451
12	0	0	2127	5	185	0	3450
13	0	0	2138	5	184	0	3450
14	0	0	2155	6	183	0	3448
15	0	0	2144	6	184	0	3449
16	0	0	2108	4	184	0	3449
17	0	0	2069	4	184	0	3450
18	0	0	2034	4	184	0	3451
19	0	0	1997	4	184	0	3451
20	0	0	1962	4	183	0	3451
21	0	0	1938	4	184	0	3451
22	0	0	1921	5	183	0	3451
23	0	0	1912	4	184	0	3449
24	0	0	1890	4	184	0	3448
25	0	0	1895	6	185	0	3449
26	0	0	1928	5	184	0	3450
27	0	0	1947	5	184	0	3450
28	0	0	1959	6	184	0	3450
29	0	0	1990	5	183	0	3450
30	0	0	2037	5	184	0	3450
31	0	0	2061	4	184	0	3451
32	0	0	2075	5	185	0	3451
33	0	0	2094	5	183	0	3449
34	0	0	2109	5	183	0	3449
35	0	0	2089	6	184	0	3449
36	0	0	2048	4	183	0	3450
37	0	0	2014	5	183	0	3451
38	0	0	2004	5	184	0	3451
39	0	0	1982	4	184	0	3451
40	0	0	1938	5	184	0	3451
41	0	0	1890	4	184	0	3450
42	0	0	1870	4	184	0	3450
43	0	0	1852	4	184	0	3449
44	0	0	1834	5	183	0	3448
45	0	0	1832	6	184	0	3449
46	0	0	1818	4	184	0	3449
47	0	0	1823	5	183	0	3450
48	0	0	1861	5	184	0	3451
49	0	0	1914	7	183	0	3451
50	0	0	1959	6	184	0	3451
51	0	0	1997	5	185	0	3452
52	0	0	2029	5	185	0	3451
53	0	0	2048	5	184	0	3450
54	0	0	2060	5	183	0	3449
55	0	0	2069	4	184	0	3449
56	0	0	2074	5	184	0	3450
57	0	0	2057	5	184	0	3450
58	0	0	2021	4	184	0	3450
59	0	0	1992	5	184	0	3450
60	0	0	1963	4	184	0	3450
61	0	0	1943	4	185	0	3450
62	0	0	1916	4	184	0	3450
63	0	0	1878	4	184	0	3450
64	0	0	1835	4	183	0	3449
65	0	0	1822	5	184	0	3449
66	0	0	1832	5	184	0	3451
67	0	0	1866	5	184	0	3451
68	0	0	1927	5	184	0	3451
69	0	0	1981	5	184	0	3451
70	0	0	2018	4	184	0	3452
71	0	0	2050	5	184	0	3452
72	0	0	2067	5	184	0	3451
73	0	0	2078	5	184	0	3449
74	0	0	2090	5	183	0	3450
75	0	0	2079	4	184	0	3449
76	0	0	2049	5	184	0	3449
77	0	0	2042	5	184	0	3450
78	0	0	2043	5	185	0	3450
79	0	0	2032	5	184	0	3451
80	0	0	1994	5	185	0	3450
81	0	0	1946	4	184	0	3451
82	0	0	1901	4	184	0	3450
83	0	0	1867	4	184	0	3449
84	0	0	1843	3	185	0	3449
85	0	0	1834	5	184	0	3450
86	0	0	1848	5	185	0	3451
87	0	0	1901	5	185	0	3451
88	0	0	1970	5	184	0	3451
89	0	0	2013	5	184	0	3452
90	0	0	2037	4	184	0	3451
91	0	0	2052	5	184	0	3450
92	0	0	2078	5	184	0	3450
93	0	0	2117	5	183	0	3449
94	0	0	2153	4	183	0	3448
95	0	0	2158	5	185	0	3449
96	0	0	2152	5	184	0	3449
97	0	0	2130	4	184	0	3450
98	0	0	2086	4	184	0	3450
99	0	0	2043	4	184	0	3451
100	0	0	2024	5	184	0	3451
101	0	0	2006	4	185	0	3451
102	0	0	1992	5	184	0	3451
103	0	0	1959	4	183	0	3451
104	0	0	1905	4	183	0	3450
105	0	0	1885	5	184	0	3450
106	0	0	1898	5	184	0	3451
107	0	0	1919	5	185	0	3450
108	0	0	1963	5	185	0	3451
109	0	0	2016	5	183	0	3450
110	0	0	2053	5	184	0	3450
111	0	0	2087	5	184	0	3451
112	0	0	2123	5	184	0	3450
113	0	0	2147	5	184	0	3449
114	0	0	2158	4	185	0	3449
115	0	0	2137	4	184	0	3449
116	0	0	2099	4	185	0	3450
117	0	0	2065	4	185	0	3451
118	0	0	2049	5	183	0	3451
119	0	0	2038	4	184	0	3451
120	0	0	2015	4	185	0	3452
121	0	0	1981	4	184	0	3451
122	0	0	1947	4	184	0	3451
123	0	0	1919	4	184	0	3449
124	0	0	1897	5	185	0	3449
125	0	0	1903	5	183	0	3449
126	0	0	1940	5	184	0	3449
127	0	0	1984	5	184	0	3451
0	0	0	2017	5	183	0	3450
1	0	0	2039	5	183	0	3452
2	0	0	2046	5	184	0	3452
3	0	0	2050	5	184	0	3451
4	0	0	2066	5	185	0	3452
5	0	0	2084	5	184	0	3449
6	0	0	2102	5	183	0	3450
7	0	0	2098	5	184	0	3451
8	0	0	2077	5	185	0	3451
9	0	0	2049	4	184	0	3451
10	0	0	2006	4	184	0	3451
11	0	0	1963	3	183	0	3451
12	0	0	1938	4	185	0	3451
13	0	0	1911	4	184	0	3451
14	0	0	1893	5	184	0	3451
15	0	0	1874	5	184	0	3450
16	0	0	1851	4	184	0	3448
17	0	0	1848	5	184	0	3449
18	0	0	1862	4	184	0	3449
19	0	0	1889	5	184	0	3451
20	0	0	1939	5	184	0	3450
21	0	0	1990	5	184	0	3451
22	0	0	2021	5	184	0	3451
23	0	0	2029	5	184	0	3451
24	0	0	2025	5	185	0	3451
25	0	0	2028	5	185	0	3450
26	0	0	2043	5	184	0	3450
27	0	0	2061	6	184	0	3450
28	0	0	2060	5	184	0	3451
29	0	0	2041	4	184	0	3451
30	0	0	2026	4	185	0	3452
31	0	0	2001	4	184	0	3450
32	0	0	1966	5	183	0	3451
33	0	0	1927	4	184	0	3451
34	0	0	1897	4	184	0	3451
35	0	0	1870	4	183	0	3449
36	0	0	1854	4	184	0	3449
37	0	0	1864	6	184	0	3449
38	0	0	1880	5	184	0	3450
39	0	0	1896	5	183	0	3451
40	0	0	1933	5	184	0	3451
41	0	0	1971	5	184	0	3452
42	0	0	2003	5	184	0	3452
43	0	0	2045	5	184	0	3452
44	0	0	2082	5	183	0	3451
45	0	0	2114	5	185	0	3451
46	0	0	2134	6	185	0	3449
47	0	0	2109	4	183	0	3449
48	0	0	2075	4	183	0	3450
49	0	0	2057	4	184	0	3450
50	0	0	2026	4	184	0	3450
51	0	0	1983	4	184	0	3451
52	0	0	1948	5	184	0	3452
53	0	0	1918	4	185	0	3451
54	0	0	1897	4	184	0	3451
55	0	0	1865	4	184	0	3450
56	0	0	1841	4	184	0	3450
57	0	0	1857	5	184	0	3451
58	0	0	1890	5	185	0	3451
59	0	0	1933	5	184	0	3451
60	0	0	1985	5	184	0	3451
61	0	0	2025	5	184	0	3452
62	0	0	2046	5	184	0	3451
63	0	0	2058	5	184	0	3451
64	0	0	2074	5	184	0	3451
65	0	0	2087	5	184	0	3449
66	0	0	2091	5	184	0	3449
67	0	0	2095	5	183	0	3450
68	0	0	2080	5	184	0	3449
69	0	0	2052	4	185	0	3451
70	0	0	2022	3	183	0	3452
71	0	0	1987	5	183	0	3452
72	0	0	1953	5	184	0	3452
73	0	0	1932	5	183	0	3452
74	0	0	1924	5	184	0	3452
75	0	0	1909	4	184	0	3451
76	0	0	1887	4	184	0	3451
77	0	0	1891	5	183	0	3451
78	0	0	1903	5	183	0	3450
79	0	0	1924	5	184	0	3451
80	0	0	1959	5	183	0	3451
81	0	0	1997	5	184	0	3452
82	0	0	2025	5	184	0	3452
83	0	0	2041	5	184	0	3451
84	0	0	2056	5	184	0	3451
85	0	0	2077	5	183	0	3449
86	0	0	2097	5	185	0	3450
87	0	0	2093	5	183	0	3449
88	0	0	2072	5	184	0	3450
89	0	0	2046	4	185	0	3451
90	0	0	2019	4	183	0	3451
91	0	0	1991	4	184	0	3452
92	0	0	1958	4	183	0	3452
93	0	0	1932	4	184	0	3452
94	0	0	1923	5	184	0	3451
95	0	0	1907	4	184	0	3450
96	0	0	1899	5	185	0	3449
97	0	0	1903	5	184	0	3449
98	0	0	1903	5	185	0	3451
99	0	0	1908	5	184	0	3451
100	0	0	1946	5	183	0	3451
101	0	0	1999	5	183	0	3451
102	0	0	2038	5	184	0	3452
103	0	0	2063	5	184	0	3451
104	0	0	2072	5	185	0	3452
105	0	0	2071	5	183	0	3451
106	0	0	2075	5	183	0	3451
107	0	0	2086	5	183	0	3450
108	0	0	2090	5	183	0	3452
109	0	0	2072	4	184	0	3452
110	0	0	2033	4	184	0	3452
111	0	0	1995	4	184	0	3452
112	0	0	1961	4	184	0	3452
113	0	0	1930	3	184	0	3451
114	0	0	1911	4	184	0	3451
115	0	0	1890	3	184	0	3449
116	0	0	1866	4	184	0	3450
117	0	0	1868	4	184	0	3450
118	0	0	1904	4	185	0	3450
119	0	0	1963	5	183	0	3451
120	0	0	2020	5	185	0	3451
121	0	0	2070	5	185	0	3452
122	0	0	2109	5	182	0	3452
123	0	0	2133	5	184	0	3453
124	0	0	2147	5	184	0	3452
125	0	0	2163	5	184	0	3450
126	0	0	2174	5	184	0	3450
127	0	0	2166	6	184	0	3451
0	0	0	2143	4	183	0	3450
1	0	0	2112	4	184	0	3451
2	0	0	2066	4	184	0	3451
3	0	0	2021	4	184	0	3451
4	0	0	1980	5	184	0	3452
5	0	0	1945	4	184	0	3451
6	0	0	1935	5	184	0	3451
7	0	0	1921	4	184	0	3449
8	0	0	1911	5	185	0	3451
9	0	0	1919	5	184	0	3450
10	0	0	1946	4	185	0	3450
11	0	0	1987	5	184	0	3451
12	0	0	2038	4	184	0	3452
13	0	0	2089	5	184	0	3452
14	0	0	2128	5	184	0	3452
15	0	0	2163	5	184	0	3452
16	0	0	2191	5	184	0	3452
17	0	0	2214	4	183	0	3450
18	0	0	2228	5	184	0	3451
19	0	0	2213	4	184	0	3451
20	0	0	2177	4	184	0	3449
21	0	0	2147	4	184	0	3451
22	0	0	2117	4	185	0	3452
23	0	0	2081	4	186	0	3451
24	0	0	2057	4	185	0	3452
25	0	0	2046	4	185	0	3452
26	0	0	2035	5	185	0	3452
27	0	0	2013	4	184	0	3450
28	0	0	1981	4	184	0	3450
29	0	0	1975	5	185	0	3450
30	0	0	1980	6	184	0	3451
31	0	0	1990	5	184	0	3452
32	0	0	2032	5	183	0	3451
33	0	0	2086	5	184	0	3452
34	0	0	2121	5	184	0	3451
35	0	0	2138	4	184	0	3452
36	0	0	2163	5	184	0	3451
37	0	0	2184	4	183	0	3449
38	0	0	2196	5	185	0	3449
39	0	0	2179	4	184	0	3450
40	0	0	2163	5	184	0	3451
41	0	0	2159	5	183	0	3451
42	0	0	2142	4	183	0	3451
43	0	0	2106	4	184	0	3451
44	0	0	2071	5	184	0	3452
45	0	0	2048	4	184	0	3452
46	0	0	2030	4	184	0	3452
47	0	0	2011	4	183	0	3450
48	0	0	1996	4	184	0	3450
49	0	0	1995	5	184	0	3450
50	0	0	2010	5	183	0	3451
51	0	0	2033	5	185	0	3451
52	0	0	2074	4	183	0	3452
53	0	0	2118	5	183	0	3451
54	0	0	2159	5	184	0	3451
55	0	0	2200	6	185	0	3451
56	0	0	2227	5	185	0	3451
57	0	0	2235	5	184	0	3445
58	0	0	2244	5	184	0	3449
59	0	0	2242	5	184	0	3450
60	0	0	2220	5	184	0	3450
61	0	0	2188	4	185	0	3451
62	0	0	2143	4	183	0	3451
63	0	0	2096	4	184	0	3452
64	0	0	2060	5	184	0	3452
65	0	0	2035	5	184	0	3452
66	0	0	2020	4	184	0	3451
67	0	0	1997	4	184	0	3450
68	0	0	1970	4	184	0	3449
69	0	1	1972	5	184	0	3450
70	0	1	2002	4	184	0	3450
71	0	1	2062	5	184	0	3451
72	0	1	2117	4	184	0	3452
73	0	1	2161	5	185	0	3451
74	0	1	2203	5	184	0	3452
75	0	1	2221	5	184	0	3452
76	0	1	2219	5	184	0	3452
77	0	1	2200	5	184	0	3450
78	0	1	2200	5	184	0	3451
79	0	1	2203	5	184	0	3451
80	0	1	2200	5	184	0	3451
81	0	1	2197	5	185	0	3452
82	0	1	2171	3	184	0	3453
83	0	1	2129	4	183	0	3452
84	0	1	2079	4	184	0	3452
85	0	1	2038	5	184	0	3452
86	0	1	2014	4	183	0	3451
87	0	1	1992	4	184	0	3449
88	0	1	1972	5	184	0	3449
89	0	1	1966	5	184	0	3450
90	0	1	1978	5	185	0	3450
91	0	1	2006	5	184	0	3451
92	0	1	2049	5	184	0	3451
93	0	1	2095	6	183	0	3451
94	0	1	2137	5	184	0	3452
95	0	1	2164	5	184	0	3452
96	0	1	2190	5	184	0	3452
97	0	1	2215	5	184	0	3451
98	0	1	2237	5	184	0	3451
99	0	1	2246	5	184	0	3451
100	0	1	2242	5	184	0	3451
101	0	1	2224	4	184	0	3452
102	0	1	2190	3	185	0	3451
103	0	1	2163	3	184	0	3452
104	0	1	2132	4	181	0	3451
105	0	1	2104	4	184	0	3451
106	0	1	2082	4	184	0	3451
107	0	1	2058	4	184	0	3449
108	0	1	2036	5	184	0	3449
109	0	1	2031	5	182	0	3450
110	0	1	2040	5	184	0	3450
111	0	1	2064	5	185	0	3451
112	0	1	2107	5	183	0	3452
113	0	1	2142	5	184	0	3452
114	0	1	2173	5	183	0	3452
115	0	1	2221	5	184	0	3453
116	0	1	2268	4	184	0	3452
117	0	1	2291	5	185	0	3451
118	0	1	2301	5	184	0	3449
119	0	1	2290	5	184	0	3450
120	0	1	2270	4	184	0	3451
121	0	1	2243	4	185	0	3451
122	0	1	2218	4	184	0	3451
123	0	1	2183	4	184	0	3451
124	0	1	2144	5	184	0	3452
125	0	1	2108	4	184	0	3452
126	0	1	2087	4	183	0	3451
127	0	1	2072	5	184	0	3450
0	0	1	2059	6	184	0	3450
1	0	1	2056	5	184	0	3450
2	0	1	2064	4	183	0	3451
3	0	1	2094	5	184	0	3452
4	0	1	2146	4	183	0	3453
5	0	1	2203	5	184	0	3452
6	0	1	2242	5	183	0	3452
7	0	1	2275	5	184	0	3452
8	0	1	2295	5	184	0	3452
9	0	1	2318	5	184	0	3450
10	0	1	2340	5	184	0	3449
11	0	1	2342	5	184	0	3450
12	0	1	2323	4	184	0	3450
13	0	1	2296	4	184	0	3451
14	0	1	2252	4	184	0	3451
15	0	1	2198	4	184	0	3452
16	0	1	2173	5	184	0	3453
17	0	1	2169	5	184	0	3452
18	0	1	2158	5	184	0	3453
19	0	1	2124	4	184	0	3451
20	0	1	2082	5	184	0	3450
21	0	1	2080	5	184	0	3450
22	0	1	2109	4	183	0	3451
23	0	1	2145	5	184	0	3451
24	1	1	2172	5	184	0	3451
25	1	1	2185	5	184	0	3451
26	1	1	2187	5	184	0	3451
27	1	1	2185	5	184	0	3452
28	1	1	2187	5	185	0	3451
29	1	1	2189	5	184	0	3450
30	1	1	2202	5	184	0	3450
31	1	1	2213	5	184	0	3450
32	1	1	2221	5	184	0	3451
33	1	1	2228	5	185	0	3452
34	1	1	2219	4	184	0	3453
35	1	1	2189	4	186	0	3452
36	1	1	2144	4	185	0	3453
37	1	1	2102	4	184	0	3453
38	1	1	2077	5	184	0	3452
39	1	1	2063	4	184	0	3452
40	1	1	2041	5	184	0	3450
41	1	1	2040	5	184	0	3450
42	1	1	2070	4	184	0	3451
43	1	1	2112	4	184	0	3451
44	1	1	2162	5	184	0	3451
45	1	1	2207	5	184	0	3451
46	1	1	2232	5	185	0	3452
47	1	1	2245	4	183	0	3452
48	1	1	2263	5	184	0	3452
49	1	1	2276	5	185	0	3450
50	1	1	2294	5	183	0	3450
51	1	1	2289	5	184	0	3451
52	1	1	2259	4	184	0	3452
53	1	1	2221	4	184	0	3452
54	1	1	2187	5	183	0	3453
55	1	1	2159	4	184	0	3453
56	1	1	2125	4	184	0	3452
57	1	1	2090	5	184	0	3452
58	1	1	2057	4	185	0	3451
59	1	1	2025	5	185	0	3450
60	1	1	2001	4	184	0	3449
61	1	1	2009	5	184	0	3450
62	1	1	2033	4	183	0	3451
63	1	1	2078	4	184	0	3451
64	1	1	2137	5	185	0	3452
65	1	1	2186	5	184	0	3452
66	1	1	2222	5	184	0	3452
67	1	1	2240	5	184	0	3453
68	1	1	2243	5	185	0	3452
69	1	1	2247	5	184	0	3452
70	1	1	2254	5	184	0	3451
71	1	1	2245	5	183	0	3451
72	1	1	2221	4	184	0	3452
73	1	1	2195	4	183	0	3452
74	1	1	2167	4	184	0	3451
75	1	1	2139	4	184	0	3453
76	1	1	2111	4	184	0	3453
77	1	1	2083	4	184	0	3452
78	1	1	2069	5	184	0	3451
79	1	1	2044	4	183	0	3450
80	1	1	2008	4	184	0	3450
81	1	1	2007	5	185	0	3450
82	1	1	2028	4	184	0	3451
83	1	1	2058	5	185	0	3452
84	1	1	2109	5	184	0	3453
85	1	1	2169	5	184	0	3453
86	1	1	2211	5	183	0	3453
87	1	1	2232	4	184	0	3454
88	1	1	2256	5	184	0	3453
89	1	1	2282	5	184	0	3451
90	1	1	2309	6	185	0	3451
91	1	1	2328	5	183	0	3450
92	1	1	2340	4	184	0	3450
93	1	1	2342	5	184	0	3451
94	1	1	2333	5	184	0	3451
95	1	1	2325	5	184	0	3452
96	1	1	2324	5	184	0	3452
97	1	1	2323	5	184	0	3452
98	1	1	2323	5	184	0	3452
99	1	1	2322	5	184	0	3451
100	1	1	2311	5	184	0	3451
101	1	1	2326	5	185	0	3451
102	1	1	2361	5	184	0	3452
103	1	1	2406	5	184	0	3452
104	1	1	2460	5	184	0	3453
105	1	1	2506	5	186	0	3452
106	1	1	2547	5	184	0	3452
107	1	1	2582	4	185	0	3452
108	1	1	2607	5	184	0	3452
109	1	1	2621	6	185	0	3450
110	1	1	2626	5	184	0	3450
111	1	1	2580	4	184	0	3450
112	1	1	2527	3	184	0	3451
113	1	1	2483	4	184	0	3451
114	1	1	2434	4	184	0	3452
115	1	1	2387	4	184	0	3452
116	1	1	2341	4	185	0	3452
117	1	1	2279	4	184	0	3452
118	1	1	2208	4	184	0	3452
119	1	1	2137	4	184	0	3452
120	1	1	2072	4	185	0	3451
121	1	1	2056	5	185	0	3451
122	1	1	2066	5	183	0	3452
123	1	1	2087	5	184	0	3451
124	1	1	2117	4	184	0	3451
125	1	1	2144	5	183	0	3452
126	1	1	2158	5	184	0	3452
127	1	1	2170	4	184	0	3452
0	1	1	2186	5	184	0	3451
1	1	1	2204	4	184	0	3450
2	1	1	2225	5	184	0	3451
3	1	1	2222	5	185	0	3451
4	1	1	2195	3	183	0	3451
5	1	1	2164	4	185	0	3452
6	1	1	2130	4	184	0	3452
7	1	1	2104	4	184	0	3452
8	1	1	2072	4	184	0	3453
9	1	1	2043	4	184	0	3453
10	1	1	2035	5	184	0	3452
11	1	1	2019	4	184	0	3451
12	1	1	1991	4	185	0	3450
13	1	1	1989	5	184	0	3450
14	1	1	1997	4	183	0	3451
15	1	1	2010	5	184	0	3451
16	1	1	2050	5	184	0	3452
17	1	1	2101	5	185	0	3452
18	1	1	2156	5	184	0	3452
19	1	1	2205	5	184	0	3453
20	1	1	2233	5	184	0	3451
21	1	1	2248	5	183	0	3452
22	1	1	2251	5	185	0	3451
23	1	1	2235	5	184	0	3451
24	1	1	2211	4	183	0	3452
25	1	1	2189	4	185	0	3452
26	1	1	2167	4	184	0	3452
27	1	1	2148	4	184	0	3453
28	1	1	2138	5	183	0	3453
29	1	1	2130	3	184	0	3452
30	1	1	2118	5	184	0	3451
31	1	1	2096	4	184	0	3451
32	1	1	2076	4	184	0	3450
33	1	1	2079	5	184	0	3450
34	1	1	2099	4	184	0	3451
35	1	1	2131	5	184	0	3451
36	1	1	2176	5	184	0	3451
37	1	1	2218	5	184	0	3452
38	1	1	2260	5	184	0	3452
39	1	1	2294	4	184	0	3453
40	1	1	2317	5	184	0	3452
41	1	1	2333	5	184	0	3451
42	1	1	2347	5	185	0	3452
43	1	1	2334	4	184	0	3452
44	1	1	2304	4	184	0	3452
45	1	1	2279	4	184	0	3452
46	1	1	2259	4	185	0	3451
47	1	1	2231	4	184	0	3452
48	1	1	2200	4	184	0	3452
49	1	1	2174	4	184	0	3452
50	1	1	2152	4	183	0	3451
51	1	1	2134	5	183	0	3450
52	1	1	2124	5	184	0	3450
53	1	1	2133	5	184	0	3451
54	1	1	2152	5	184	0	3452
55	1	1	2171	5	184	0	3451
56	1	1	2207	5	184	0	3453
57	1	1	2237	5	183	0	3453
58	1	1	2265	5	184	0	3453
59	1	1	2301	4	184	0	3453
60	1	1	2330	5	184	0	3452
61	1	1	2341	5	183	0	3451
62	1	1	2355	5	184	0	3450
63	1	1	2352	5	183	0	3450
64	1	1	2332	5	184	0	3451
65	1	1	2314	5	184	0	3451
66	1	1	2294	5	184	0	3452
67	1	1	2267	4	184	0	3453
68	1	1	2225	4	183	0	3453
69	1	1	2185	4	183	0	3452
70	1	1	2158	4	184	0	3453
71	1	1	2128	5	183	0	3451
72	1	1	2100	5	184	0	3451
73	1	1	2114	5	185	0	3451
74	1	1	2150	5	184	0	3452
75	1	1	2191	5	184	0	3452
76	1	1	2248	6	183	0	3452
77	1	1	2302	5	185	0	3452
78	1	1	2336	5	185	0	3453
79	1	1	2360	5	185	0	3453
80	1	1	2383	5	184	0	3452
81	1	1	2391	5	184	0	3451
82	1	1	2392	5	184	0	3450
83	1	1	2381	5	185	0	3450
84	1	1	2358	4	184	0	3451
85	1	1	2328	4	184	0	3451
86	1	1	2290	4	183	0	3452
87	1	1	2252	5	184	0	3452
88	1	1	2221	4	183	0	3453
89	1	1	2194	5	183	0	3453
90	1	1	2195	5	184	0	3452
91	1	1	2197	5	184	0	3451
92	1	1	2174	4	184	0	3452
93	1	1	2157	5	185	0	3452
94	1	1	2153	4	184	0	3452
95	1	1	2159	5	184	0	3451
96	1	1	2192	5	183	0	3453
97	1	1	2244	5	184	0	3452
98	1	1	2302	5	185	0	3452
99	1	1	2339	5	183	0	3452
100	1	1	2360	5	183	0	3452
101	1	1	2376	5	184	0	3450
102	1	1	2377	5	184	0	3451
103	1	1	2357	4	184	0	3451
104	1	1	2327	4	184	0	3451
105	1	1	2306	5	184	0	3452
106	1	1	2282	4	183	0	3452
107	1	1	2252	4	184	0	3452
108	1	1	2225	5	183	0	3453
109	1	1	2212	5	184	0	3454
110	1	1	2208	5	184	0	3452
111	1	1	2188	4	184	0	3451
112	1	1	2145	5	184	0	3450
113	1	1	2124	5	184	0	3451
114	1	1	2132	5	184	0	3451
115	1	1	2159	5	185	0	3452
116	1	1	2197	6	185	0	3451
117	1	1	2246	5	184	0	3452
118	1	1	2296	5	183	0	3452
119	1	1	2342	5	184	0	3453
120	1	1	2383	5	184	0	3452
121	1	1	2420	5	183	0	3451
122	1	1	2450	5	185	0	3451
123	1	1	2434	4	185	0	3451
124	1	1	2369	4	184	0	3452
125	1	1	2305	4	184	0	3452
126	1	1	2264	4	183	0	3452
127	1	1	2236	4	184	0	3452
0	1	1	2200	4	185	0	3452
1	1	1	2160	4	185	0	3453
2	1	1	2117	4	184	0	3451
3	1	1	2087	4	184	0	3450
4	1	1	2068	5	184	0	3450
5	1	1	2074	5	184	0	3451
6	1	1	2114	5	184	0	3451
7	1	1	2167	5	184	0	3451
8	1	1	2220	5	184	0	3452
9	1	1	2259	5	185	0	3453
10	1	1	2291	5	184	0	3454
11	1	1	2316	5	184	0	3453
12	1	1	2344	5	185	0	3453
13	1	1	2364	5	184	0	3451
14	1	1	2380	5	184	0	3451
15	1	1	2368	5	184	0	3451
16	1	1	2338	4	184	0	3451
17	1	1	2306	5	185	0	3451
18	1	1	2272	4	184	0	3452
19	1	1	2249	5	184	0	3452
20	1	1	2235	5	185	0	3453
21	1	1	2218	5	184	0	3452
22	1	1	2195	5	184	0	3452
23	1	1	2172	4	185	0	3452
24	1	1	2152	5	184	0	3450
25	1	1	2154	5	185	0	3451
26	1	1	2173	5	184	0	3452
27	1	1	2205	5	184	0	3452
28	1	1	2254	4	184	0	3452
29	1	1	2301	6	184	0	3448
30	1	1	2342	5	184	0	3454
31	1	1	2367	5	183	0	3453
32	1	1	2387	5	184	0	3452
33	1	1	2397	5	184	0	3451
34	1	1	2400	5	184	0	3451
35	1	1	2388	5	184	0	3451
36	1	1	2364	5	183	0	3451
37	1	1	2339	5	185	0	3452
38	1	1	2302	4	184	0	3452
39	1	1	2262	5	184	0	3452
40	1	1	2244	5	184	0	3452
41	1	1	2242	5	184	0	3453
42	1	1	2236	6	184	0	3452
43	1	1	2213	4	185	0	3452
44	1	1	2181	4	183	0	3451
45	1	1	2169	5	184	0	3451
46	1	1	2180	5	184	0	3452
47	1	1	2217	5	184	0	3452
48	1	1	2272	5	184	0	3452
49	1	1	2326	5	184	0	3452
50	1	1	2374	5	184	0	3453
51	1	1	2398	5	184	0	3453
52	1	1	2401	5	184	0	3452
53	1	1	2403	5	183	0	3450
54	1	1	2416	6	184	0	3450
55	1	1	2424	5	184	0	3451
56	1	1	2399	4	184	0	3451
57	1	1	2360	4	185	0	3451
58	1	1	2319	4	184	0	3452
59	1	1	2282	4	183	0	3452
60	1	1	2266	5	184	0	3453
61	1	1	2261	4	184	0	3454
62	1	1	2252	5	184	0	3452
63	1	1	2222	5	184	0	3453
64	1	1	2180	4	184	0	3451
65	1	1	2169	5	184	0	3451
66	1	1	2179	5	185	0	3452
67	1	1	2203	5	184	0	3452
68	1	1	2250	5	184	0	3452
69	1	1	2302	5	183	0	3452
70	1	1	2348	5	184	0	3452
71	1	1	2378	5	183	0	3452
72	1	1	2388	5	184	0	3451
73	1	1	2382	5	184	0	3450
74	1	1	2381	5	184	0	3451
75	1	1	2365	4	184	0	3452
76	1	1	2329	4	183	0	3452
77	1	1	2313	5	184	0	3452
78	1	1	2301	5	183	0	3452
79	1	1	2276	5	184	0	3453
80	1	1	2244	4	183	0	3454
81	1	1	2222	5	184	0	3453
82	1	1	2209	5	184	0	3452
83	1	1	2189	5	184	0	3451
84	1	1	2156	4	184	0	3450
85	1	1	2147	5	183	0	3451
86	1	1	2155	5	184	0	3451
87	1	1	2165	5	184	0	3452
88	1	1	2178	5	184	0	3453
89	1	1	2204	5	184	0	3452
90	1	1	2253	5	185	0	3452
91	1	1	2302	5	183	0	3453
92	1	1	2324	5	184	0	3452
93	1	1	2339	6	184	0	3452
94	1	1	2348	5	184	0	3451
95	1	1	2331	4	184	0	3451
96	1	1	2291	4	184	0	3452
97	1	1	2244	4	184	0	3453
98	1	1	2192	4	183	0	3452
99	1	1	2151	4	184	0	3453
100	1	1	2119	4	184	0	3453
101	1	1	2098	4	184	0	3453
102	1	1	2081	5	184	0	3452
103	1	1	2062	4	185	0	3450
104	1	1	2033	4	184	0	3450
105	1	1	2023	5	184	0	3450
106	1	1	2030	5	185	0	3451
107	1	1	2060	5	184	0	3451
108	1	1	2102	5	185	0	3444
109	1	1	2142	5	183	0	3452
110	1	1	2173	5	184	0	3452
111	1	1	2195	5	184	0	3453
112	1	1	2210	5	184	0	3452
113	1	1	2208	5	183	0	3451
114	1	1	2222	5	183	0	3451
115	1	1	2228	5	183	0	3452
116	1	1	2206	5	184	0	3452
117	1	1	2186	4	184	0	3452
118	1	1	2158	4	184	0	3452
119	1	1	2116	4	184	0	3452
120	1	1	2070	4	184	0	3453
121	1	1	2028	4	184	0	3452
122	1	1	2013	5	184	0	3452
123	1	1	1999	5	185	0	3450
124	1	1	1973	4	184	0	3450
125	1	1	1965	5	183	0	3451
126	1	1	1974	5	184	0	3452
127	1	1	1998	5	183	0	3452
0	1	1	2029	5	183	0	3452
1	1	1	2045	4	185	0	3453
2	1	1	2065	5	184	0	3453
3	1	1	2091	5	185	0	3453
4	1	1	2111	5	184	0	3452
5	1	1	2113	5	184	0	3451
6	1	1	2114	4	185	0	3450
7	1	1	2099	4	184	0	3451
8	1	1	2074	4	184	0	3451
9	1	1	2054	4	184	0	3451
10	1	1	2039	4	183	0	3452
11	1	1	2018	4	184	0	3452
12	1	1	1988	4	184	0	3452
13	1	1	1959	4	184	0	3453
14	1	1	1933	4	184	0	3452
15	1	1	1909	4	183	0	3452
16	1	1	1878	4	184	0	3451
17	1	1	1874	4	184	0	3451
18	1	1	1888	5	184	0	3452
19	1	1	1914	5	184	0	3452
20	1	1	1972	5	185	0	3452
21	1	1	2034	5	184	0	3452
22	1	1	2076	5	186	0	3452
23	1	1	2086	5	184	0	3453
24	1	1	2094	5	184	0	3451
25	1	1	2117	5	184	0	3450
26	1	1	2149	5	184	0	3450
27	1	1	2148	5	184	0	3451
28	1	1	2119	4	183	0	3451
29	1	1	2093	4	184	0	3451
30	1	1	2060	4	183	0	3453
31	1	1	2025	4	184	0	3452
32	1	1	1984	4	183	0	3453
33	1	1	1934	4	184	0	3453
34	1	1	1893	4	184	0	3452
35	1	1	1852	4	184	0	3452
36	1	1	1812	4	183	0	3451
37	1	1	1816	5	186	0	3451
38	1	1	1854	5	184	0	3452
39	1	1	1908	5	184	0	3451
40	1	1	1953	5	184	0	3451
41	1	1	1990	5	184	0	3452
42	1	1	2034	5	184	0	3453
43	1	1	2070	5	183	0	3452
44	1	1	2089	5	184	0	3451
45	1	1	2104	5	183	0	3451
46	1	1	2121	5	184	0	3451
47	1	1	2117	5	184	0	3450
48	1	1	2088	4	185	0	3451
49	1	1	2055	4	184	0	3451
50	1	1	2011	4	184	0	3452
51	1	1	1972	4	183	0	3453
52	1	1	1937	4	184	0	3454
53	1	1	1906	4	183	0	3453
54	1	1	1883	4	184	0	3452
55	1	1	1861	4	184	0	3451
56	1	1	1841	4	185	0	3450
57	1	1	1855	5	184	0	3451
58	1	1	1890	5	184	0	3452
59	1	1	1935	5	184	0	3452
60	1	1	1984	5	184	0	3451
61	1	1	2009	5	184	0	3452
62	1	1	2023	5	185	0	3452
63	1	1	2039	5	183	0	3452
64	1	1	2058	6	185	0	3451
65	1	1	2082	4	183	0	3451
66	1	1	2112	5	183	0	3451
67	1	1	2115	4	185	0	3451
68	1	1	2093	5	185	0	3452
69	1	1	2056	4	185	0	3452
70	1	1	2018	4	183	0	3452
71	1	1	1987	4	185	0	3453
72	1	1	1951	4	184	0	3453
73	1	1	1927	4	183	0	3452
74	1	1	1915	4	185	0	3451
75	1	1	1900	4	184	0	3450
76	1	1	1878	4	184	0	3450
77	1	1	1874	5	184	0	3450
78	1	1	1892	5	185	0	3451
79	1	1	1922	5	184	0	3451
80	1	1	1962	5	184	0	3451
81	1	1	1999	4	184	0	3452
82	1	1	2026	4	185	0	3452
83	1	1	2044	5	184	0	3453
84	1	1	2059	5	183	0	3452
85	1	1	2063	5	184	0	3451
86	1	1	2071	5	184	0	3451
87	1	1	2077	5	185	0	3451
88	1	1	2065	5	184	0	3451
89	1	1	2039	4	184	0	3451
90	1	1	2007	4	182	0	3451
91	1	1	1977	5	184	0	3452
92	1	1	1945	4	185	0	3452
93	1	1	1907	5	185	0	3452
94	1	1	1881	4	185	0	3451
95	1	1	1866	4	183	0	3450
96	1	1	1851	5	184	0	3450
97	1	1	1858	5	185	0	3450
98	1	1	1875	5	183	0	3451
99	1	1	1897	5	184	0	3451
100	1	1	1933	4	183	0	3453
101	1	1	1972	5	184	0	3453
102	1	1	2019	5	184	0	3454
103	1	1	2054	5	184	0	3453
104	1	1	2074	5	184	0	3452
105	1	1	2081	5	183	0	3452
106	1	1	2091	5	184	0	3451
107	1	1	2071	4	184	0	3451
108	1	1	2040	4	184	0	3451
109	1	1	2023	5	183	0	3451
110	1	1	2016	5	183	0	3452
111	1	1	1999	4	184	0	3453
112	1	1	1965	4	184	0	3452
113	1	1	1933	5	184	0	3452
114	1	1	1906	4	184	0	3452
115	1	1	1878	4	184	0	3450
116	1	1	1846	5	185	0	3451
117	1	1	1845	5	185	0	3452
118	1	1	1869	5	184	0	3452
119	1	1	1902	5	184	0	3452
120	1	1	1941	5	184	0	3452
121	1	1	1980	5	185	0	3453
122	1	1	2019	4	184	0	3453
123	1	1	2052	5	185	0	3452
124	1	1	2075	5	183	0	3452
125	1	1	2092	6	183	0	3450
126	1	1	2107	5	185	0	3450
127	1	1	2113	5	184	0	3451
0	1	1	2111	5	184	0	3451
1	1	1	2086	4	185	0	3452
2	1	1	2033	5	184	0	3452
3	1	1	1979	4	184	0	3452
4	1	1	1930	4	184	0	3452
5	1	1	1894	4	184	0	3453
6	1	1	1878	5	184	0	3452
7	1	1	1865	3	182	0	3452
8	1	1	1850	4	185	0	3451
9	1	1	1855	5	184	0	3451
10	1	1	1879	5	184	0	3450
11	1	1	1910	5	184	0	3451
12	1	1	1947	5	184	0	3451
13	1	1	1983	5	184	0	3452
14	1	1	2015	5	185	0	3452
15	1	1	2041	5	183	0	3452
16	1	1	2060	5	184	0	3452
17	1	1	2072	6	184	0	3450
18	1	1	2079	5	184	0	3450
19	1	1	2066	5	184	0	3451
20	1	1	2044	4	185	0	3451
21	1	1	2020	4	184	0	3451
22	1	1	1992	4	183	0	3452
23	1	1	1971	4	185	0	3452
24	1	1	1953	4	184	0	3453
25	1	1	1930	4	184	0	3453
26	1	1	1915	5	184	0	3452
27	1	1	1905	4	184	0	3451
28	1	1	1889	5	185	0	3450
29	1	1	1883	5	184	0	3450
30	1	1	1881	5	183	0	3451
31	1	1	1900	5	184	0	3450
32	1	1	1949	5	184	0	3452
33	1	1	1996	4	185	0	3452
34	1	1	2027	5	184	0	3452
35	1	1	2045	5	184	0	3453
36	1	1	2051	5	184	0	3452
37	1	1	2052	4	184	0	3452
38	1	1	2055	5	184	0	3451
39	1	1	2052	5	184	0	3451
40	1	1	2041	5	183	0	3452
41	1	1	2028	5	184	0	3452
42	1	1	1999	4	185	0	3452
43	1	1	1964	4	184	0	3452
44	1	1	1922	4	183	0	3452
45	1	1	1877	4	183	0	3452
46	1	1	1848	5	184	0	3451
47	1	1	1837	4	184	0	3450
48	1	1	1826	5	184	0	3449
49	1	1	1833	5	184	0	3450
50	1	1	1853	5	184	0	3450
51	1	1	1872	5	184	0	3452
52	1	1	1910	5	183	0	3451
53	1	1	1955	5	184	0	3452
54	1	1	1998	5	184	0	3453
55	1	1	2035	5	184	0	3452
56	1	1	2060	4	183	0	3453
57	1	1	2073	4	185	0	3451
58	1	1	2098	5	184	0	3451
59	1	1	2109	5	184	0	3451
60	1	1	2083	4	184	0	3451
61	1	1	2044	4	184	0	3451
62	1	1	2011	4	185	0	3451
63	1	1	1979	4	184	0	3452
64	1	1	1944	4	184	0	3452
65	1	1	1920	4	183	0	3452
66	1	1	1903	4	184	0	3451
67	1	1	1876	4	185	0	3450
68	1	1	1834	4	184	0	3450
69	1	1	1830	5	184	0	3450
70	1	1	1854	5	184	0	3452
71	1	1	1884	5	184	0	3451
72	1	1	1948	4	184	0	3453
73	1	1	2002	5	184	0	3453
74	1	1	2011	5	184	0	3453
75	1	1	2008	5	185	0	3453
76	1	1	2010	5	184	0	3451
77	1	1	2023	5	184	0	3450
78	1	1	2037	5	185	0	3450
79	1	1	2029	5	185	0	3450
80	1	1	2018	5	184	0	3451
81	1	1	1988	4	183	0	3451
82	1	1	1946	4	185	0	3451
83	1	1	1900	4	184	0	3451
84	1	1	1858	4	183	0	3452
85	1	1	1828	4	183	0	3452
86	1	1	1824	5	184	0	3451
87	1	1	1835	5	184	0	3452
88	1	1	1834	5	184	0	3450
89	1	1	1833	5	184	0	3449
90	1	1	1831	5	184	0	3452
91	1	1	1851	5	184	0	3452
92	1	1	1893	5	185	0	3452
93	1	1	1933	4	184	0	3452
94	1	1	1962	5	184	0	3452
95	1	1	1987	5	185	0	3452
96	1	1	2002	5	184	0	3451
97	1	1	2000	5	184	0	3450
98	1	1	2016	4	184	0	3450
99	1	1	2014	5	183	0	3451
100	1	1	1987	4	184	0	3451
101	1	1	1960	4	184	0	3451
102	1	1	1935	4	184	0	3451
103	1	1	1911	4	183	0	3452
104	1	1	1890	4	184	0	3452
105	1	1	1872	4	183	0	3452
106	1	1	1860	5	184	0	3452
107	1	1	1845	4	184	0	3452
108	1	1	1822	4	185	0	3451
109	1	1	1819	5	185	0	3451
110	1	1	1830	4	184	0	3452
111	1	1	1852	5	184	0	3451
112	1	1	1896	5	184	0	3452
113	1	1	1932	5	184	0	3452
114	1	1	1955	5	184	0	3452
115	1	1	1974	5	183	0	3452
116	1	1	1994	5	184	0	3451
117	1	1	2008	4	184	0	3450
118	1	1	2021	5	185	0	3449
119	1	1	2026	5	183	0	3450
120	1	1	2003	4	184	0	3451
121	1	1	1964	4	184	0	3451
122	1	1	1921	4	184	0	3452
123	1	1	1883	4	183	0	3452
124	1	1	1855	4	185	0	3453
125	1	1	1830	4	184	0	3453
126	1	1	1818	5	184	0	3452
127	1	1	1796	4	184	0	3451
0	1	1	1765	4	184	0	3450
1	1	1	1766	5	184	0	3450
2	1	1	1789	5	184	0	3451
3	1	1	1825	5	183	0	3450
4	1	1	1872	5	184	0	3451
5	1	1	1899	5	185	0	3452
6	1	1	1917	5	185	0	3452
7	1	1	1940	5	183	0	3452
8	1	1	1971	5	183	0	3451
9	1	1	1997	5	184	0	3450
10	1	1	2018	5	185	0	3450
11	1	1	2025	5	183	0	3451
12	1	1	2015	4	183	0	3451
13	1	1	1987	4	184	0	3451
14	1	1	1948	4	184	0	3452
15	1	1	1924	4	184	0	3452
16	1	1	1902	4	183	0	3452
17	1	1	1870	4	184	0	3452
18	1	1	1846	4	184	0	3451
19	1	1	1824	4	184	0	3451
20	1	1	1786	4	183	0	3450
21	1	1	1768	5	184	0	3450
22	1	1	1778	5	184	0	3451
23	1	1	1796	5	184	0	3451
24	1	1	1838	5	183	0	3452
25	1	1	1895	5	184	0	3452
26	1	1	1949	5	184	0	3452
27	1	1	1989	5	183	0	3452
28	1	1	2003	5	184	0	3452
29	1	1	2003	5	184	0	3452
30	1	1	2008	5	184	0	3451
31	1	1	2002	5	183	0	3450
32	1	1	1994	5	183	0	3451
33	1	1	1977	4	184	0	3451
34	1	1	1947	4	183	0	3451
35	1	1	1913	4	183	0	3452
36	1	1	1892	5	184	0	3452
37	1	1	1884	5	183	0	3452
38	1	1	1867	4	183	0	3452
39	1	1	1833	4	185	0	3450
40	1	1	1789	4	184	0	3450
41	1	1	1785	5	184	0	3450
42	1	1	1800	5	184	0	3451
43	1	1	1825	5	184	0	3451
44	1	1	1871	5	185	0	3452
45	1	1	1926	5	184	0	3452
46	1	1	1962	5	185	0	3453
47	1	1	1985	5	183	0	3453
48	1	1	2014	5	184	0	3452
49	1	1	2044	5	184	0	3451
50	1	1	2079	5	183	0	3450
51	1	1	2080	5	185	0	3449
52	1	1	2051	4	184	0	3451
53	1	1	2023	4	184	0	3452
54	1	1	1987	5	185	0	3451
55	1	1	1948	4	184	0	3451
56	1	1	1912	4	184	0	3452
57	1	1	1877	4	183	0	3452
58	1	1	1846	4	184	0	3451
59	1	1	1809	4	184	0	3451
60	1	1	1771	4	184	0	3450
61	1	1	1755	4	184	0	3451
62	1	1	1767	5	184	0	3451
63	1	1	1804	5	184	0	3452
64	1	1	1860	5	184	0	3452
65	1	1	1909	5	184	0	3452
66	1	1	1949	5	184	0	3453
67	1	1	1973	5	182	0	3452
68	1	1	2000	5	185	0	3451
69	1	1	2026	5	184	0	3450
70	1	1	2057	5	184	0	3449
71	1	1	2019	4	184	0	3450
72	1	1	1960	4	184	0	3451
73	1	1	1923	4	184	0	3451
74	1	1	1904	4	184	0	3452
75	1	1	1884	4	184	0	3452
76	1	1	1866	4	185	0	3452
77	1	1	1848	4	184	0	3453
78	1	1	1821	4	184	0	3452
79	1	1	1792	4	184	0	3452
80	1	1	1763	3	183	0	3451
81	1	1	1763	5	184	0	3451
82	1	1	1779	5	183	0	3452
83	1	1	1802	5	184	0	3451
84	1	1	1842	5	185	0	3451
85	1	1	1883	4	184	0	3452
86	1	1	1914	5	185	0	3453
87	1	1	1944	5	182	0	3452
88	1	1	1972	5	184	0	3451
89	1	1	1991	5	184	0	3451
90	1	1	2012	5	185	0	3450
91	1	1	2007	5	185	0	3450
92	1	1	1978	5	184	0	3451
93	1	1	1952	4	184	0	3451
94	1	1	1924	4	183	0	3452
95	1	1	1896	4	184	0	3452
96	1	1	1857	4	184	0	3453
97	1	1	1823	5	182	0	3453
98	1	1	1796	4	184	0	3452
99	1	1	1776	4	184	0	3451
100	1	1	1752	5	185	0	3450
101	1	1	1753	5	185	0	3450
102	1	1	1775	5	183	0	3451
103	1	1	1796	5	184	0	3452
104	1	1	1823	5	185	0	3451
105	1	1	1858	4	185	0	3452
106	1	1	1896	4	183	0	3453
107	1	1	1931	5	184	0	3452
108	1	1	1949	5	184	0	3453
109	1	1	1969	6	183	0	3451
110	1	1	1998	5	185	0	3451
111	1	1	2016	5	184	0	3451
112	1	1	2017	5	184	0	3452
113	1	1	1996	4	183	0	3452
114	1	1	1953	4	186	0	3452
115	1	1	1917	4	184	0	3452
116	1	1	1877	4	184	0	3452
117	1	1	1827	4	183	0	3453
118	1	1	1784	4	184	0	3451
119	1	1	1754	4	183	0	3450
120	1	1	1722	3	184	0	3450
121	1	1	1711	5	184	0	3450
122	1	1	1727	5	184	0	3451
123	1	1	1777	5	185	0	3452
124	1	1	1856	5	184	0	3452
125	1	1	1923	4	184	0	3452
126	1	1	1967	5	183	0	3453
127	1	1	1976	5	184	0	3452
0	1	1	1967	5	184	0	3452
1	1	1	1962	5	185	0	3451
2	1	1	1976	5	185	0	3451
3	1	1	1977	5	185	0	3451
4	1	1	1972	5	184	0	3451
5	1	1	1968	5	184	0	3451
6	1	1	1951	4	184	0	3451
7	1	1	1930	4	183	0	3452
8	1	1	1904	4	184	0	3452
9	1	1	1879	4	184	0	3453
10	1	1	1863	4	183	0	3451
11	1	1	1828	4	184	0	3451
12	1	1	1767	3	184	0	3451
13	1	1	1727	4	185	0	3452
14	1	1	1726	5	184	0	3451
15	1	1	1747	4	184	0	3451
16	1	1	1795	5	184	0	3452
17	1	1	1844	5	185	0	3453
18	1	1	1884	5	184	0	3453
19	1	1	1922	5	182	0	3453
20	1	1	1959	5	184	0	3452
21	1	1	1977	5	184	0	3452
22	1	1	1983	5	183	0	3451
23	1	1	1970	4	183	0	3450
24	1	1	1931	4	184	0	3452
25	1	1	1901	4	184	0	3451
26	1	1	1895	5	184	0	3451
27	1	1	1879	4	184	0	3452
28	1	1	1847	4	184	0	3452
29	1	1	1835	5	183	0	3452
30	1	1	1843	5	185	0	3452
31	1	1	1854	5	184	0	3449
32	1	1	1859	5	183	0	3450
33	1	1	1894	5	185	0	3451
34	1	1	1948	5	184	0	3452
35	1	1	2006	5	184	0	3452
36	1	1	2088	5	184	0	3453
37	1	1	2163	5	184	0	3452
38	1	1	2209	5	184	0	3452
39	1	1	2255	5	183	0	3453
40	1	1	2296	5	185	0	3451
41	1	1	2323	5	184	0	3450
42	1	1	2353	5	184	0	3450
43	1	1	2365	5	184	0	3450
44	1	1	2352	5	185	0	3451
45	1	1	2326	4	184	0	3451
46	1	1	2291	4	183	0	3452
47	1	1	2259	5	185	0	3452
48	1	1	2220	4	184	0	3454
49	1	1	2173	4	184	0	3453
50	1	1	2136	4	184	0	3453
51	1	1	2117	6	183	0	3451
52	1	1	2093	4	184	0	3451
53	1	1	2083	5	183	0	3451
54	1	1	2073	4	184	0	3451
55	1	1	2070	5	185	0	3451
56	1	1	2090	5	183	0	3451
57	1	1	2110	5	184	0	3452
58	1	1	2112	5	184	0	3452
59	1	1	2101	5	184	0	3452
60	1	1	2085	4	185	0	3451
61	1	1	2073	5	184	0	3451
62	1	1	2054	4	184	0	3451
63	1	1	2008	4	184	0	3450
64	1	1	1952	4	183	0	3452
65	1	1	1904	4	183	0	3451
66	1	1	1858	4	184	0	3452
67	1	1	1819	5	184	0	3452
68	1	1	1786	4	184	0	3453
69	1	1	1773	5	183	0	3453
70	1	1	1758	4	184	0	3452
71	1	1	1734	4	184	0	3451
72	1	1	1698	5	184	0	3450
73	1	1	1695	4	184	0	3451
74	1	1	1722	5	184	0	3451
75	1	1	1762	5	185	0	3452
76	1	1	1814	6	184	0	3451
77	1	1	1872	5	185	0	3452
78	1	1	1922	5	184	0	3452
79	1	1	1949	5	183	0	3452
80	1	1	1948	5	185	0	3452
81	1	1	1937	5	184	0	3451
82	1	1	1940	5	183	0	3451
83	1	1	1927	4	184	0	3451
84	1	1	1904	5	184	0	3452
85	1	1	1886	4	184	0	3452
86	1	1	1870	5	185	0	3453
87	1	1	1850	4	184	0	3453
88	1	1	1815	4	184	0	3452
89	1	1	1775	4	184	0	3453
90	1	1	1743	4	184	0	3451
91	1	1	1728	4	183	0	3450
92	1	1	1725	5	184	0	3450
93	1	1	1741	5	183	0	3450
94	1	1	1765	5	184	0	3451
95	1	1	1797	5	184	0	3451
96	1	1	1856	5	183	0	3452
97	1	1	1901	5	183	0	3452
98	1	1	1944	5	184	0	3453
99	1	1	1976	5	184	0	3453
100	1	1	1994	5	184	0	3452
101	1	1	1998	5	184	0	3452
102	1	1	1997	5	184	0	3452
103	1	1	1991	5	184	0	3451
104	1	1	1984	5	184	0	3451
105	1	1	1968	4	184	0	3451
106	1	1	1945	4	184	0	3452
107	1	1	1919	4	184	0	3452
108	1	1	1888	4	184	0	3452
109	1	1	1853	4	184	0	3452
110	1	1	1819	4	183	0	3452
111	1	1	1798	4	184	0	3450
112	1	1	1788	5	184	0	3450
113	1	1	1807	5	183	0	3451
114	1	1	1834	5	184	0	3451
115	1	1	1843	5	185	0	3452
116	1	1	1871	5	183	0	3452
117	1	1	1910	5	185	0	3452
118	1	1	1949	5	184	0	3453
119	1	1	1988	5	184	0	3453
120	1	1	2010	5	183	0	3452
121	1	1	2021	5	183	0	3451
122	1	1	2034	5	183	0	3450
123	1	1	2028	4	184	0	3450
124	1	1	2018	5	184	0	3452
125	1	1	1997	4	184	0	3451
126	1	1	1968	4	184	0	3451
127	1	1	1942	3	185	0	3452
0	1	1	1909	3	184	0	3452
1	1	1	1878	4	184	0	3453
2	1	1	1854	4	183	0	3451
3	1	1	1822	4	184	0	3451
4	1	1	1799	4	185	0	3450
5	1	1	1809	5	184	0	3451
6	1	1	1835	5	184	0	3452
7	1	1	1860	5	183	0	3453
8	1	1	1894	6	184	0	3452
9	1	1	1930	5	185	0	3452
10	1	1	1955	5	183	0	3452
11	1	1	1979	5	185	0	3452
12	1	1	2000	5	185	0	3451
13	1	1	2007	5	185	0	3450
14	1	1	2019	4	185	0	3450
15	1	1	2007	4	184	0	3450
16	1	1	1983	4	184	0	3452
17	1	1	1962	4	184	0	3451
18	1	1	1946	4	184	0	3452
19	1	1	1929	4	183	0	3453
20	1	1	1911	4	185	0	3452
21	1	1	1887	4	184	0	3454
22	1	1	1868	4	184	0	3452
23	1	1	1846	4	185	0	3453
24	1	1	1822	5	184	0	3452
25	1	1	1839	4	184	0	3451
26	1	1	1874	5	184	0	3452
27	1	1	1899	5	185	0	3451
28	1	1	1931	5	183	0	3452
29	1	1	1966	5	184	0	3452
30	1	1	1999	4	184	0	3453
31	1	1	2017	5	183	0	3452
32	1	1	2029	5	185	0	3451
33	1	1	2041	5	183	0	3452
34	1	1	2059	5	184	0	3450
35	1	1	2051	4	184	0	3451
36	1	1	2021	4	184	0	3451
37	1	1	1991	5	183	0	3452
38	1	1	1970	5	183	0	3452
39	1	1	1951	4	184	0	3453
40	1	1	1925	4	185	0	3454
41	1	1	1897	4	184	0	3453
42	1	1	1876	4	184	0	3452
43	1	1	1857	4	184	0	3452
44	1	1	1831	4	183	0	3451
45	1	1	1827	5	184	0	3451
46	1	1	1837	5	183	0	3451
47	1	1	1874	5	184	0	3451
48	1	1	1928	5	184	0	3453
49	1	1	1965	5	184	0	3453
50	1	1	1997	5	184	0	3452
51	1	1	2027	5	184	0	3453
52	1	1	2056	5	184	0	3453
53	1	1	2079	5	183	0	3451
54	1	1	2096	5	184	0	3451
55	1	1	2093	5	184	0	3452
56	1	1	2067	4	184	0	3452
57	1	1	2039	5	184	0	3452
58	1	1	2011	4	184	0	3452
59	1	1	1991	4	182	0	3453
60	1	1	1966	4	184	0	3453
61	1	1	1941	4	185	0	3460
62	1	1	1920	4	184	0	3452
63	1	1	1887	5	182	0	3451
64	1	1	1846	3	184	0	3451
65	1	1	1841	5	184	0	3451
66	1	1	1868	5	184	0	3452
67	1	1	1890	5	184	0	3451
68	1	1	1927	5	185	0	3452
69	1	1	1963	6	183	0	3452
70	1	1	1997	5	183	0	3453
71	1	1	2041	5	184	0	3453
72	1	1	2089	5	184	0	3452
73	1	1	2128	5	183	0	3452
74	1	1	2149	6	184	0	3452
75	1	1	2136	5	184	0	3452
76	1	1	2103	4	184	0	3452
77	1	1	2067	5	184	0	3452
78	1	1	2031	4	184	0	3452
79	1	1	2003	4	184	0	3453
80	1	1	1968	4	184	0	3453
81	1	1	1934	4	184	0	3453
82	1	1	1917	4	185	0	3452
83	1	1	1908	4	184	0	3452
84	1	1	1900	5	184	0	3452
85	1	1	1898	5	184	0	3451
86	1	1	1902	5	184	0	3452
87	1	1	1927	5	184	0	3452
88	1	1	1973	5	185	0	3453
89	1	1	2013	6	185	0	3453
90	1	1	2046	5	184	0	3454
91	1	1	2081	5	184	0	3454
92	1	1	2117	5	184	0	3452
93	1	1	2142	5	184	0	3451
94	1	1	2170	3	183	0	3452
95	1	1	2169	5	185	0	3451
96	1	1	2154	5	184	0	3451
97	1	1	2129	4	184	0	3451
98	1	1	2082	4	184	0	3452
99	1	1	2026	3	184	0	3452
100	1	1	1981	4	185	0	3452
101	1	1	1973	5	184	0	3453
102	1	1	1991	5	183	0	3453
