# bioPlux Text File Format
# Version: 1
# StartDateTime: 2011-07-18 15:20:20
# SamplingFrequency: 1000
# SampledChannels: 1 2 3 4
# SamplingResolution: 12
# AcquiringDevice: 00:07:80:42:0F:8B
# EndOfHeader
0	0	0	2096	1437	3831	79
1	0	0	1960	1437	3831	78
2	0	0	1859	1435	3829	77
3	0	0	1785	1436	3829	77
4	0	0	1736	1438	3830	75
5	0	0	1676	1435	3829	76
6	0	0	1642	1442	3827	77
7	0	0	1698	1440	3829	77
8	0	0	1791	1440	3829	78
9	0	0	1889	1438	3831	79
10	0	0	1995	1441	3831	75
11	0	0	2112	1440	3831	79
12	0	0	2215	1440	3831	78
13	0	0	2293	1441	3830	78
14	0	0	2292	1439	3829	78
15	0	0	2380	1441	3831	75
16	0	0	2461	1441	3829	76
17	0	0	2419	1435	3827	78
18	0	0	2360	1441	3830	80
19	0	0	2282	1435	3829	77
20	0	0	2130	1435	3829	77
21	0	0	1981	1437	3831	77
22	0	0	1869	1435	3830	77
23	0	0	1781	1436	3829	77
24	0	0	1733	1438	3829	77
25	0	0	1671	1437	3830	73
26	0	0	1635	1441	3827	78
27	0	0	1690	1440	3831	78
28	0	0	1780	1439	3830	77
29	0	0	1883	1438	3830	76
30	0	0	1992	1441	3830	73
31	0	0	2107	1441	3831	78
32	0	0	2212	1441	3831	78
33	0	0	2295	1440	3829	77
34	0	0	2350	1441	3829	79
35	0	0	2436	1441	3829	78
36	0	0	2508	1441	3830	78
37	0	0	2457	1436	3830	78
38	0	0	2359	1437	3829	77
39	0	0	2230	1436	3829	77
40	0	0	2080	1436	3830	80
41	0	0	1944	1436	3829	78
42	0	0	1838	1435	3831	77
43	0	0	1764	1437	3830	77
44	0	0	1718	1439	3829	76
45	0	0	1662	1437	3831	73
46	0	0	1622	1440	3829	77
47	0	0	1676	1439	3830	77
48	0	0	1769	1440	3829	78
49	0	0	1872	1440	3829	77
50	0	0	1982	1440	3830	75
51	0	0	2101	1440	3827	78
52	0	0	2210	1440	3830	78
53	0	0	2254	1441	3829	78
54	0	0	2290	1439	3829	76
55	0	0	2383	1440	3830	80
56	0	0	2466	1441	3827	77
57	0	0	2404	1440	3830	77
58	0	0	2387	1437	3829	77
59	0	0	2281	1434	3831	77
60	0	0	2123	1435	3830	80
61	0	0	1974	1436	3831	78
62	0	0	1862	1434	3831	77
63	0	0	1779	1436	3830	77
64	0	0	1727	1436	3830	77
65	0	0	1672	1437	3828	76
66	0	0	1631	1440	3829	78
67	0	0	1683	1440	3830	77
68	0	0	1780	1440	3829	77
69	0	0	1881	1440	3829	78
70	0	0	1994	1441	3829	77
71	0	0	2107	1440	3830	79
72	0	0	2212	1440	3831	78
73	0	0	2292	1440	3829	78
74	0	0	2348	1441	3829	78
75	0	0	2443	1441	3830	75
76	0	0	2519	1441	3830	78
77	0	0	2468	1436	3831	77
78	0	0	2369	1436	3831	78
79	0	0	2242	1436	3831	77
80	0	0	2085	1435	3830	76
81	0	0	1944	1436	3831	77
82	0	0	1837	1436	3830	77
83	0	0	1762	1435	3829	77
84	0	0	1713	1437	3829	78
85	0	0	1662	1437	3829	77
86	0	0	1627	1440	3827	78
87	0	0	1678	1440	3830	77
88	0	0	1772	1440	3829	78
89	0	0	1870	1441	3831	78
90	0	0	1984	1440	3830	76
91	0	0	2102	1440	3828	78
92	0	0	2206	1440	3830	78
93	0	0	2239	1440	3830	78
94	0	0	2297	1440	3830	78
95	0	0	2391	1441	3830	75
96	0	0	2469	1440	3833	78
97	0	0	2454	1441	3831	77
98	0	0	2405	1436	3829	77
99	0	0	2284	1435	3831	76
100	0	0	2124	1435	3829	78
101	0	0	1974	1436	3829	78
102	0	0	1859	1437	3831	79
103	0	0	1779	1436	3829	77
104	0	0	1726	1437	3829	77
105	0	0	1675	1436	3829	76
106	0	0	1636	1441	3830	76
107	0	0	1691	1439	3830	77
108	0	0	1784	1440	3831	78
109	0	0	1875	1439	3830	77
110	0	0	1986	1440	3830	78
111	0	0	2097	1440	3830	78
112	0	0	2208	1440	3831	78
113	0	0	2288	1440	3832	79
114	0	0	2347	1439	3830	78
115	0	0	2435	1440	3829	79
116	0	0	2506	1441	3828	78
117	0	0	2456	1436	3830	76
118	0	0	2361	1436	3828	80
119	0	0	2245	1436	3829	77
120	0	0	2096	1436	3829	77
121	0	0	1959	1436	3830	77
122	0	0	1852	1436	3829	76
123	0	0	1777	1436	3829	77
124	0	0	1727	1436	3831	77
125	0	0	1680	1436	3830	76
126	0	0	1646	1440	3828	78
127	0	0	1699	1440	3831	78
0	0	0	1786	1440	3830	78
1	0	0	1878	1438	3831	76
2	0	0	1985	1440	3830	76
3	0	0	2097	1440	3831	77
4	0	0	2167	1440	3830	78
5	0	0	2226	1440	3829	78
6	0	0	2291	1439	3829	78
7	0	0	2385	1439	3829	79
8	0	0	2442	1440	3828	77
9	0	0	2483	1439	3830	77
10	0	0	2409	1435	3829	78
11	0	0	2290	1435	3829	77
12	0	0	2130	1435	3830	75
13	0	0	1983	1436	3829	78
14	0	0	1873	1436	3831	77
15	0	0	1792	1436	3830	80
16	0	0	1741	1435	3831	76
17	0	0	1697	1437	3829	74
18	0	0	1663	1439	3830	76
19	0	0	1709	1439	3830	78
20	0	0	1794	1439	3830	77
21	0	0	1888	1440	3829	78
22	0	0	1993	1440	3829	77
23	0	0	2107	1439	3830	77
24	0	0	2213	1439	3829	77
25	0	0	2292	1440	3829	78
26	0	0	2350	1438	3830	78
27	0	0	2426	1439	3828	78
28	0	0	2496	1441	3830	77
29	0	0	2453	1436	3829	78
30	0	0	2363	1436	3829	76
31	0	0	2249	1435	3829	78
32	0	0	2097	1435	3832	79
33	0	0	1961	1435	3830	77
34	0	0	1861	1435	3830	78
35	0	0	1791	1436	3831	77
36	0	0	1740	1436	3829	77
37	0	0	1694	1435	3829	76
38	0	0	1660	1440	3828	77
39	0	0	1706	1437	3831	77
40	0	0	1794	1439	3829	77
41	0	0	1884	1439	3829	78
42	0	0	1986	1439	3829	77
43	0	0	2095	1440	3829	77
44	0	0	2148	1437	3829	77
45	0	0	2223	1439	3829	78
46	0	0	2288	1439	3830	78
47	0	0	2375	1439	3832	77
48	0	0	2477	1438	3831	77
49	0	0	2479	1436	3830	78
50	0	0	2395	1436	3830	78
51	0	0	2274	1437	3830	77
52	0	0	2117	1434	3830	77
53	0	0	1975	1436	3830	77
54	0	0	1869	1435	3830	77
55	0	0	1790	1435	3829	76
56	0	0	1740	1436	3827	78
57	0	0	1693	1436	3828	74
58	0	0	1659	1438	3830	78
59	0	0	1706	1438	3829	78
60	0	0	1795	1439	3829	77
61	0	0	1883	1439	3829	77
62	0	0	1985	1438	3832	77
63	0	0	2098	1439	3831	76
64	0	0	2202	1438	3831	78
65	0	0	2281	1438	3829	77
66	0	0	2338	1439	3830	78
67	0	0	2411	1439	3832	79
68	0	0	2482	1439	3831	76
69	0	0	2439	1436	3829	78
70	0	0	2351	1435	3831	78
71	0	0	2238	1435	3827	76
72	0	0	2087	1434	3830	77
73	0	0	1959	1435	3830	77
74	0	0	1852	1434	3829	77
75	0	0	1784	1435	3829	77
76	0	0	1734	1438	3830	77
77	0	0	1695	1435	3830	75
78	0	0	1666	1439	3829	74
79	0	0	1708	1439	3831	78
80	0	0	1792	1438	3829	77
81	0	0	1882	1438	3830	77
82	0	0	1986	1439	3830	78
83	0	0	2058	1438	3831	76
84	0	0	2144	1439	3831	78
85	0	0	2229	1439	3830	78
86	0	0	2294	1438	3830	78
87	0	0	2361	1439	3830	77
88	0	0	2507	1439	3829	78
89	0	0	2474	1436	3830	78
90	0	0	2384	1436	3830	76
91	0	0	2264	1431	3831	76
92	0	0	2115	1434	3829	78
93	0	0	1983	1435	3831	78
94	0	0	1875	1436	3827	76
95	0	0	1802	1437	3829	76
96	0	0	1750	1437	3828	76
97	0	0	1703	1435	3830	76
98	0	0	1669	1438	3829	75
99	0	0	1716	1439	3831	77
100	0	0	1802	1438	3829	77
101	0	0	1888	1439	3830	77
102	0	0	1986	1437	3831	76
103	0	0	2090	1439	3831	78
104	0	0	2193	1441	3831	78
105	0	0	2272	1439	3829	78
106	0	0	2324	1438	3831	78
107	0	0	2401	1438	3830	80
108	0	0	2466	1438	3829	75
109	0	0	2425	1435	3830	77
110	0	0	2342	1435	3829	79
111	0	0	2235	1434	3826	79
112	0	0	2094	1434	3830	78
113	0	0	1969	1434	3829	77
114	0	0	1873	1434	3831	77
115	0	0	1799	1435	3830	73
116	0	0	1751	1435	3830	77
117	0	0	1711	1434	3830	78
118	0	0	1682	1438	3831	77
119	0	0	1730	1438	3832	79
120	0	0	1810	1438	3829	76
121	0	0	1897	1437	3829	78
122	0	0	1997	1438	3830	77
123	0	0	2051	1439	3830	77
124	0	0	2145	1438	3830	78
125	0	0	2233	1438	3828	78
126	0	0	2289	1438	3833	78
127	0	0	2393	1438	3831	76
0	0	0	2505	1439	3829	77
1	0	0	2466	1435	3829	78
2	0	0	2378	1435	3829	75
3	0	0	2256	1433	3829	77
4	0	0	2107	1433	3831	76
5	0	0	1982	1435	3829	79
6	0	0	1886	1433	3832	79
7	0	0	1810	1434	3832	78
8	0	0	1761	1435	3829	77
9	0	0	1720	1433	3831	76
10	0	0	1688	1438	3829	78
11	0	0	1735	1438	3831	77
12	0	0	1819	1438	3828	77
13	0	0	1904	1437	3829	77
14	0	0	2002	1438	3831	76
15	0	0	2109	1439	3827	79
16	0	0	2207	1438	3831	77
17	0	0	2286	1438	3829	77
18	0	0	2335	1439	3829	77
19	0	0	2407	1438	3829	78
20	0	0	2478	1438	3832	78
21	0	0	2430	1437	3828	79
22	0	0	2348	1435	3831	77
23	0	0	2237	1435	3832	79
24	0	0	2094	1434	3830	78
25	0	0	1969	1434	3830	76
26	0	0	1868	1433	3830	77
27	0	0	1798	1435	3831	77
28	0	0	1757	1435	3829	76
29	0	0	1718	1434	3829	77
30	0	0	1688	1438	3829	78
31	0	0	1730	1438	3829	79
32	0	0	1814	1438	3830	78
33	0	0	1902	1439	3829	77
34	0	0	1966	1437	3830	78
35	0	0	2044	1439	3830	77
36	0	0	2150	1439	3830	77
37	0	0	2238	1437	3830	77
38	0	0	2273	1440	3830	78
39	0	0	2425	1439	3830	78
40	0	0	2512	1439	3831	78
41	0	0	2465	1434	3831	77
42	0	0	2372	1433	3829	77
43	0	0	2259	1434	3829	78
44	0	0	2112	1432	3831	77
45	0	0	1978	1434	3829	75
46	0	0	1878	1434	3828	77
47	0	0	1809	1434	3830	77
48	0	0	1764	1434	3829	77
49	0	0	1728	1434	3830	75
50	0	0	1694	1436	3830	76
51	0	0	1737	1437	3829	77
52	0	0	1817	1438	3831	77
53	0	0	1905	1441	3831	78
54	0	0	2007	1438	3830	78
55	0	0	2113	1437	3831	75
56	0	0	2207	1438	3828	78
57	0	0	2288	1439	3831	79
58	0	0	2337	1437	3830	76
59	0	0	2407	1438	3827	78
60	0	0	2471	1438	3828	79
61	0	0	2430	1433	3830	78
62	0	0	2348	1434	3829	77
63	0	0	2238	1433	3829	79
64	0	0	2094	1433	3829	77
65	0	0	1967	1433	3828	79
66	0	0	1870	1434	3828	77
67	0	0	1798	1433	3829	78
68	0	0	1749	1434	3829	77
69	0	0	1708	1434	3830	81
70	0	0	1677	1438	3830	75
71	0	0	1731	1438	3831	77
72	0	0	1813	1438	3830	77
73	0	0	1896	1438	3832	77
74	0	0	1944	1437	3832	79
75	0	0	2044	1437	3831	76
76	0	0	2157	1437	3831	77
77	0	0	2245	1438	3831	77
78	0	0	2319	1438	3830	77
79	0	0	2434	1440	3830	81
80	0	0	2506	1439	3830	75
81	0	0	2459	1435	3825	78
82	0	0	2368	1434	3829	76
83	0	0	2260	1433	3829	77
84	0	0	2106	1433	3829	77
85	0	0	1980	1433	3829	79
86	0	0	1879	1433	3826	78
87	0	0	1806	1434	3832	76
88	0	0	1758	1435	3830	78
89	0	0	1714	1434	3830	77
90	0	0	1685	1437	3831	74
91	0	0	1728	1438	3827	76
92	0	0	1812	1439	3829	79
93	0	0	1895	1437	3828	77
94	0	0	1996	1437	3826	79
95	0	0	2102	1438	3828	77
96	0	0	2199	1437	3830	79
97	0	0	2274	1436	3829	78
98	0	0	2324	1438	3832	77
99	0	0	2397	1438	3830	79
100	0	0	2465	1439	3829	74
101	0	0	2428	1434	3831	77
102	0	0	2347	1434	3829	77
103	0	0	2241	1433	3830	76
104	0	0	2098	1433	3829	76
105	0	0	1969	1434	3830	77
106	0	0	1868	1433	3828	78
107	0	0	1801	1434	3830	79
108	0	0	1757	1434	3829	77
109	0	0	1710	1434	3828	77
110	0	0	1677	1440	3829	75
111	0	0	1724	1437	3829	77
112	0	0	1807	1437	3828	77
113	0	0	1857	1438	3828	78
114	0	0	1928	1437	3829	78
115	0	0	2048	1438	3831	78
116	0	0	2161	1437	3828	77
117	0	0	2227	1438	3830	77
118	0	0	2360	1434	3831	77
119	0	0	2444	1438	3828	76
120	0	0	2502	1438	3830	80
121	0	0	2459	1433	3831	76
122	0	0	2370	1434	3829	75
123	0	0	2250	1433	3831	79
124	0	0	2099	1432	3830	77
125	0	0	1972	1433	3829	73
126	0	0	1872	1433	3830	79
127	0	0	1806	1432	3829	77
0	0	0	1761	1434	3828	77
1	0	0	1725	1433	3829	77
2	0	0	1690	1437	3829	73
3	0	0	1730	1437	3829	76
4	0	0	1809	1436	3828	78
5	0	0	1895	1437	3831	78
6	0	0	1995	1439	3831	81
7	0	0	2102	1436	3830	76
8	0	0	2200	1438	3830	77
9	0	0	2272	1438	3831	77
10	0	0	2326	1435	3832	77
11	0	0	2396	1438	3829	77
12	0	0	2464	1437	3831	74
13	0	0	2424	1433	3829	77
14	0	0	2340	1432	3828	78
15	0	0	2230	1433	3831	78
16	0	0	2094	1433	3830	77
17	0	0	1967	1433	3830	80
18	0	0	1873	1433	3828	75
19	0	0	1804	1433	3829	77
20	0	0	1759	1436	3828	78
21	0	0	1716	1434	3829	77
22	0	0	1680	1437	3830	77
23	0	0	1726	1435	3830	78
24	0	0	1807	1438	3830	78
25	0	0	1839	1437	3830	78
26	0	0	1936	1437	3831	78
27	0	0	2062	1437	3831	78
28	0	0	2168	1435	3834	78
29	0	0	2273	1436	3830	78
30	0	0	2369	1438	3828	79
31	0	0	2436	1436	3830	78
32	0	0	2499	1438	3829	74
33	0	0	2446	1433	3829	77
34	0	0	2352	1433	3830	77
35	0	0	2245	1434	3830	78
36	0	0	2105	1433	3830	78
37	0	0	1974	1433	3830	80
38	0	0	1873	1433	3829	77
39	0	0	1802	1432	3829	77
40	0	0	1753	1433	3831	76
41	0	0	1709	1432	3830	78
42	0	0	1677	1437	3830	80
43	0	0	1729	1436	3831	77
44	0	0	1819	1436	3830	78
45	0	0	1902	1436	3829	79
46	0	0	2004	1439	3830	77
47	0	0	2112	1437	3831	77
48	0	0	2208	1437	3829	77
49	0	0	2282	1438	3829	78
50	0	0	2333	1437	3831	76
51	0	0	2400	1438	3830	78
52	0	0	2471	1437	3829	80
53	0	0	2429	1433	3827	77
54	0	0	2342	1431	3829	77
55	0	0	2232	1431	3831	76
56	0	0	2090	1431	3830	77
57	0	0	1967	1432	3830	78
58	0	0	1871	1432	3829	77
59	0	0	1804	1431	3829	77
60	0	0	1758	1433	3831	77
61	0	0	1718	1433	3831	79
62	0	0	1684	1436	3830	80
63	0	0	1728	1437	3831	78
64	0	0	1775	1437	3829	78
65	0	0	1845	1437	3828	79
66	0	0	1956	1437	3831	78
67	0	0	2073	1436	3830	79
68	0	0	2151	1437	3827	76
69	0	0	2312	1435	3829	77
70	0	0	2382	1439	3829	78
71	0	0	2445	1439	3830	78
72	0	0	2503	1437	3828	78
73	0	0	2453	1432	3829	76
74	0	0	2363	1431	3829	77
75	0	0	2256	1435	3828	79
76	0	0	2111	1432	3831	78
77	0	0	1985	1432	3830	78
78	0	0	1886	1432	3829	75
79	0	0	1810	1433	3830	76
80	0	0	1764	1433	3829	77
81	0	0	1722	1433	3830	74
82	0	0	1682	1435	3829	78
83	0	0	1729	1436	3827	77
84	0	0	1813	1436	3828	77
85	0	0	1897	1435	3829	77
86	0	0	2003	1437	3830	75
87	0	0	2111	1436	3830	79
88	0	0	2208	1436	3828	77
89	0	0	2285	1436	3828	78
90	0	0	2331	1435	3829	77
91	0	0	2399	1438	3830	76
92	0	0	2470	1436	3828	79
93	0	0	2430	1432	3831	77
94	0	0	2344	1433	3830	77
95	0	0	2234	1432	3831	77
96	0	0	2090	1433	3831	77
97	0	0	1960	1432	3830	79
98	0	0	1864	1433	3831	77
99	0	0	1799	1434	3830	78
100	0	0	1759	1433	3831	77
101	0	0	1723	1432	3830	77
102	0	0	1685	1437	3829	77
103	0	0	1729	1436	3830	77
104	0	0	1755	1437	3829	78
105	0	0	1838	1436	3829	75
106	0	0	1952	1439	3830	79
107	0	0	2067	1437	3830	78
108	0	0	2184	1436	3832	78
109	0	0	2312	1437	3830	77
110	0	0	2366	1437	3830	77
111	0	0	2429	1437	3832	77
112	0	0	2492	1437	3830	79
113	0	0	2444	1432	3828	78
114	0	0	2354	1432	3829	78
115	0	0	2241	1432	3829	77
116	0	0	2101	1433	3830	78
117	0	0	1975	1432	3830	78
118	0	0	1877	1433	3828	73
119	0	0	1809	1433	3830	77
120	0	0	1761	1431	3827	77
121	0	0	1719	1433	3830	79
122	0	0	1685	1437	3830	79
123	0	0	1727	1436	3832	78
124	0	0	1809	1436	3829	77
125	0	0	1887	1436	3828	79
126	0	0	1993	1437	3830	76
127	0	0	2103	1437	3830	79
0	0	0	2199	1436	3831	77
1	0	0	2278	1436	3830	77
2	0	0	2328	1435	3829	75
3	0	0	2398	1439	3830	78
4	0	0	2470	1437	3829	79
5	0	0	2427	1434	3830	77
6	0	0	2337	1433	3829	77
7	0	0	2222	1431	3829	77
8	0	0	2086	1432	3829	78
9	0	0	1966	1433	3830	79
10	0	0	1867	1432	3832	77
11	0	0	1797	1433	3831	78
12	0	0	1751	1430	3827	79
13	0	0	1708	1432	3830	78
14	0	0	1676	1436	3829	77
15	0	0	1690	1437	3830	74
16	0	0	1746	1434	3830	77
17	0	0	1840	1436	3831	76
18	0	0	1949	1435	3829	79
19	0	0	2044	1436	3830	81
20	0	0	2221	1436	3830	79
21	0	0	2320	1436	3830	80
22	0	0	2365	1436	3828	79
23	0	0	2430	1436	3828	76
24	0	0	2489	1435	3830	79
25	0	0	2441	1432	3831	80
26	0	0	2354	1432	3829	77
27	0	0	2248	1431	3830	78
28	0	0	2108	1432	3830	78
29	0	0	1980	1430	3830	77
30	0	0	1880	1432	3831	78
31	0	0	1805	1432	3830	77
32	0	0	1759	1432	3830	80
33	0	0	1719	1430	3832	77
34	0	0	1685	1436	3831	77
35	0	0	1732	1438	3832	77
36	0	0	1815	1436	3830	80
37	0	0	1898	1436	3830	80
38	0	0	1998	1436	3829	80
39	0	0	2102	1436	3829	75
40	0	0	2200	1435	3831	79
41	0	0	2274	1436	3831	77
42	0	0	2324	1436	3830	81
43	0	0	2394	1433	3831	80
44	0	0	2467	1436	3830	80
45	0	0	2427	1432	3830	80
46	0	0	2346	1432	3829	77
47	0	0	2236	1431	3829	80
48	0	0	2091	1430	3832	77
49	0	0	1964	1432	3831	75
50	0	0	1872	1432	3831	77
51	0	0	1806	1432	3830	78
52	0	0	1761	1433	3830	78
53	0	0	1720	1429	3831	76
54	0	0	1682	1432	3831	75
55	0	0	1676	1435	3832	76
56	0	0	1752	1436	3829	78
57	0	0	1852	1437	3829	77
58	0	0	1967	1434	3830	77
59	0	0	2091	1435	3831	80
60	0	0	2242	1436	3831	79
61	0	0	2323	1436	3831	80
62	0	0	2364	1437	3830	80
63	0	0	2423	1432	3831	76
64	0	0	2485	1436	3831	78
65	0	0	2443	1432	3831	76
66	0	0	2355	1433	3833	79
67	0	0	2243	1430	3828	79
68	0	0	2100	1430	3829	79
69	0	0	1970	1432	3830	75
70	0	0	1872	1431	3829	77
71	0	0	1797	1431	3830	78
72	0	0	1751	1432	3829	79
73	0	0	1715	1432	3830	77
74	0	0	1675	1434	3829	78
75	0	0	1721	1435	3831	76
76	0	0	1807	1436	3830	80
77	0	0	1894	1436	3830	79
78	0	0	1994	1432	3831	80
79	0	0	2098	1436	3830	79
80	0	0	2195	1435	3830	77
81	0	0	2274	1435	3829	77
82	0	0	2325	1435	3828	79
83	0	0	2395	1434	3830	79
84	0	0	2467	1436	3831	82
85	0	0	2429	1432	3831	81
86	0	0	2346	1431	3832	76
87	0	0	2242	1432	3830	78
88	0	0	2097	1430	3829	79
89	0	0	1966	1431	3830	78
90	0	0	1869	1431	3830	77
91	0	0	1794	1431	3829	77
92	0	0	1750	1432	3830	77
93	0	0	1710	1431	3830	77
94	0	0	1645	1433	3830	78
95	0	0	1666	1435	3830	77
96	0	0	1758	1435	3830	81
97	0	0	1856	1434	3830	77
98	0	0	1950	1434	3831	78
99	0	0	2120	1435	3831	78
100	0	0	2241	1435	3831	80
101	0	0	2313	1435	3830	80
102	0	0	2355	1435	3830	80
103	0	0	2417	1433	3829	79
104	0	0	2488	1436	3830	75
105	0	0	2449	1432	3830	77
106	0	0	2359	1431	3829	77
107	0	0	2248	1431	3831	79
108	0	0	2104	1430	3830	77
109	0	0	1973	1430	3831	78
110	0	0	1871	1430	3831	80
111	0	0	1800	1432	3829	78
112	0	0	1756	1431	3830	79
113	0	0	1722	1430	3829	77
114	0	0	1684	1433	3830	78
115	0	0	1727	1435	3829	77
116	0	0	1813	1434	3829	78
117	0	0	1904	1435	3831	31
118	0	0	2005	1433	3829	75
119	0	0	2108	1437	3830	84
120	0	0	2203	1435	3829	80
121	0	0	2278	1434	3829	79
122	0	0	2323	1434	3830	79
123	0	0	2388	1435	3829	77
124	0	0	2464	1435	3829	79
125	0	0	2431	1431	3830	77
126	0	0	2345	1430	3829	77
127	0	0	2245	1431	3831	79
0	0	0	2105	1429	3829	77
1	0	0	1972	1431	3831	76
2	0	0	1872	1429	3830	78
3	0	0	1794	1430	3830	78
4	0	0	1752	1432	3830	77
5	0	0	1711	1432	3830	80
6	0	0	1623	1432	3831	80
7	0	0	1660	1434	3830	76
8	0	0	1753	1434	3831	80
9	0	0	1856	1435	3829	80
10	0	0	1965	1435	3830	80
11	0	0	2135	1434	3831	80
12	0	0	2233	1434	3829	78
13	0	0	2305	1435	3829	77
14	0	0	2348	1435	3829	77
15	0	0	2410	1437	3829	80
16	0	0	2482	1434	3830	84
17	0	0	2438	1432	3829	81
18	0	0	2347	1431	3829	75
19	0	0	2241	1429	3829	77
20	0	0	2100	1431	3830	75
21	0	0	1969	1432	3830	80
22	0	0	1872	1430	3830	79
23	0	0	1799	1431	3827	77
24	0	0	1755	1430	3829	77
25	0	0	1713	1431	3831	79
26	0	0	1681	1435	3830	79
27	0	0	1725	1433	3829	78
28	0	0	1806	1435	3828	79
29	0	0	1891	1432	3829	77
30	0	0	1992	1436	3829	76
31	0	0	2103	1437	3830	80
32	0	0	2199	1434	3829	83
33	0	0	2277	1435	3829	79
34	0	0	2330	1433	3829	80
35	0	0	2397	1435	3829	80
36	0	0	2472	1434	3830	78
37	0	0	2433	1431	3831	77
38	0	0	2346	1431	3830	77
39	0	0	2243	1430	3829	78
40	0	0	2100	1430	3831	78
41	0	0	1974	1431	3830	77
42	0	0	1873	1431	3831	78
43	0	0	1799	1431	3829	78
44	0	0	1756	1431	3829	77
45	0	0	1699	1430	3830	78
46	0	0	1628	1432	3830	77
47	0	0	1675	1435	3831	78
48	0	0	1767	1434	3829	78
49	0	0	1854	1435	3828	79
50	0	0	2012	1435	3831	79
51	0	0	2150	1433	3830	81
52	0	0	2241	1433	3829	81
53	0	0	2308	1435	3831	77
54	0	0	2349	1436	3830	77
55	0	0	2411	1433	3830	78
56	0	0	2488	1435	3831	80
57	0	0	2450	1430	3829	83
58	0	0	2362	1430	3828	77
59	0	0	2252	1430	3830	76
60	0	0	2107	1430	3830	80
61	0	0	1973	1430	3828	78
62	0	0	1873	1429	3830	77
63	0	0	1801	1431	3829	77
64	0	0	1755	1430	3829	77
65	0	0	1716	1429	3828	79
66	0	0	1679	1433	3830	78
67	0	0	1722	1432	3829	79
68	0	0	1806	1434	3829	80
69	0	0	1897	1431	3829	80
70	0	0	1997	1436	3832	80
71	0	0	2101	1435	3830	79
72	0	0	2199	1434	3830	79
73	0	0	2277	1436	3831	80
74	0	0	2329	1435	3831	79
75	0	0	2395	1432	3829	81
76	0	0	2469	1434	3830	80
77	0	0	2436	1432	3831	77
78	0	0	2348	1431	3829	77
79	0	0	2243	1429	3829	77
80	0	0	2102	1429	3830	77
81	0	0	1972	1430	3830	79
82	0	0	1876	1430	3829	79
83	0	0	1800	1430	3829	77
84	0	0	1758	1432	3829	78
85	0	0	1668	1428	3830	77
86	0	0	1617	1434	3830	79
87	0	0	1668	1431	3830	78
88	0	0	1767	1434	3830	77
89	0	0	1867	1435	3830	77
90	0	0	2033	1434	3830	81
91	0	0	2154	1435	3831	80
92	0	0	2245	1434	3829	81
93	0	0	2310	1435	3831	80
94	0	0	2350	1435	3829	79
95	0	0	2411	1434	3829	77
96	0	0	2483	1435	3830	77
97	0	0	2446	1430	3829	80
98	0	0	2359	1432	3829	77
99	0	0	2251	1429	3828	78
100	0	0	2102	1430	3830	80
101	0	0	1974	1429	3830	77
102	0	0	1870	1429	3830	78
103	0	0	1794	1430	3830	76
104	0	0	1746	1430	3830	79
105	0	0	1712	1430	3832	79
106	0	0	1674	1434	3831	79
107	0	0	1719	1434	3830	76
108	0	0	1804	1434	3830	77
109	0	0	1895	1434	3829	79
110	0	0	1994	1434	3830	80
111	0	0	2101	1431	3830	80
112	0	0	2203	1434	3831	81
113	0	0	2280	1435	3829	80
114	0	0	2331	1432	3829	79
115	0	0	2402	1434	3830	77
116	0	0	2475	1434	3830	77
117	0	0	2440	1429	3830	80
118	0	0	2349	1430	3830	77
119	0	0	2239	1430	3830	77
120	0	0	2103	1428	3830	78
121	0	0	1974	1430	3831	77
122	0	0	1876	1430	3830	79
123	0	0	1806	1428	3830	78
124	0	0	1745	1430	3831	76
125	0	0	1657	1430	3829	77
126	0	0	1616	1432	3830	77
127	0	0	1674	1434	3830	77
0	0	0	1759	1433	3827	80
1	0	0	1888	1433	3829	82
2	0	0	2026	1434	3830	81
3	0	0	2130	1434	3830	78
4	0	0	2222	1434	3829	77
5	0	0	2296	1435	3829	77
6	0	0	2344	1434	3829	81
7	0	0	2413	1431	3831	83
8	0	0	2482	1434	3830	80
9	0	0	2448	1430	3830	79
10	0	0	2363	1430	3831	77
11	0	0	2250	1429	3830	79
12	0	0	2101	1430	3830	76
13	0	0	1973	1429	3830	77
14	0	0	1876	1431	3831	78
15	0	0	1802	1430	3830	77
16	0	0	1757	1430	3829	78
17	0	0	1720	1431	3830	76
18	0	0	1679	1432	3830	78
19	0	0	1720	1434	3829	76
20	0	0	1802	1434	3829	78
21	0	0	1894	1435	3832	78
22	0	0	1993	1435	3830	76
23	0	0	2097	1432	3831	82
24	0	0	2199	1434	3830	80
25	0	0	2283	1435	3830	81
26	0	0	2335	1434	3832	80
27	0	0	2397	1435	3830	76
28	0	0	2469	1434	3831	78
29	0	0	2435	1430	3830	76
30	0	0	2352	1431	3828	77
31	0	0	2247	1430	3832	78
32	0	0	2106	1431	3830	76
33	0	0	1978	1429	3830	80
34	0	0	1875	1429	3829	76
35	0	0	1799	1431	3828	77
36	0	0	1708	1431	3832	78
37	0	0	1651	1427	3829	77
38	0	0	1626	1432	3830	79
39	0	0	1680	1434	3829	76
40	0	0	1748	1435	3829	80
41	0	0	1918	1434	3832	81
42	0	0	2037	1435	3830	80
43	0	0	2142	1434	3832	80
44	0	0	2226	1433	3830	76
45	0	0	2295	1432	3831	78
46	0	0	2344	1433	3831	77
47	0	0	2405	1434	3830	81
48	0	0	2479	1435	3831	79
49	0	0	2442	1430	3829	80
50	0	0	2356	1429	3828	78
51	0	0	2252	1429	3829	75
52	0	0	2109	1427	3829	77
53	0	0	1973	1428	3830	77
54	0	0	1874	1430	3830	78
55	0	0	1803	1431	3828	76
56	0	0	1754	1430	3831	76
57	0	0	1713	1430	3831	76
58	0	0	1671	1432	3831	77
59	0	0	1714	1434	3830	78
60	0	0	1795	1432	3831	80
61	0	0	1884	1434	3828	76
62	0	0	1986	1434	3830	76
63	0	0	2092	1432	3830	79
64	0	0	2191	1433	3829	82
65	0	0	2268	1434	3829	80
66	0	0	2324	1434	3829	79
67	0	0	2390	1434	3831	80
68	0	0	2463	1434	3830	77
69	0	0	2430	1430	3828	80
70	0	0	2349	1429	3829	78
71	0	0	2245	1429	3832	76
72	0	0	2105	1429	3830	75
73	0	0	1974	1429	3831	77
74	0	0	1874	1429	3830	76
75	0	0	1793	1428	3830	78
76	0	0	1698	1430	3830	75
77	0	0	1660	1427	3830	77
78	0	0	1635	1435	3831	77
79	0	0	1687	1432	3833	78
80	0	0	1808	1433	3831	77
81	0	0	1934	1434	3829	80
82	0	0	2033	1434	3831	81
83	0	0	2130	1433	3829	80
84	0	0	2221	1433	3829	80
85	0	0	2293	1433	3829	77
86	0	0	2344	1433	3832	77
87	0	0	2405	1432	3829	77
88	0	0	2478	1434	3830	80
89	0	0	2443	1429	3829	79
90	0	0	2359	1430	3829	76
91	0	0	2255	1427	3829	77
92	0	0	2105	1429	3830	78
93	0	0	1973	1429	3831	79
94	0	0	1870	1429	3831	78
95	0	0	1798	1429	3830	76
96	0	0	1756	1428	3829	77
97	0	0	1714	1429	3829	78
98	0	0	1673	1433	3829	76
99	0	0	1713	1433	3828	75
100	0	0	1796	1433	3829	76
101	0	0	1890	1431	3829	80
102	0	0	1992	1433	3829	82
103	0	0	2095	1432	3830	81
104	0	0	2196	1433	3829	80
105	0	0	2277	1433	3829	76
106	0	0	2333	1430	3829	77
107	0	0	2400	1434	3830	78
108	0	0	2480	1435	3830	80
109	0	0	2444	1430	3828	79
110	0	0	2359	1430	3831	77
111	0	0	2248	1429	3832	79
112	0	0	2105	1430	3830	78
113	0	0	1972	1429	3831	77
114	0	0	1871	1429	3829	78
115	0	0	1759	1430	3831	77
116	0	0	1691	1430	3830	80
117	0	0	1663	1429	3829	78
118	0	0	1634	1433	3830	78
119	0	0	1665	1432	3829	79
120	0	0	1829	1432	3829	80
121	0	0	1927	1434	3829	80
122	0	0	2019	1432	3830	79
123	0	0	2119	1435	3830	78
124	0	0	2214	1433	3829	78
125	0	0	2287	1432	3830	81
126	0	0	2339	1433	3830	81
127	0	0	2404	1434	3831	80
0	0	0	2482	1433	3831	81
1	0	0	2444	1429	3830	71
2	0	0	2357	1429	3829	77
3	0	0	2249	1427	3829	77
4	0	0	2104	1428	3830	79
5	0	0	1974	1429	3830	77
6	0	0	1873	1428	3829	79
7	0	0	1801	1429	3830	76
8	0	0	1753	1429	3829	77
9	0	0	1709	1427	3829	79
10	0	0	1668	1432	3830	78
11	0	0	1708	1432	3831	78
12	0	0	1793	1435	3830	77
13	0	0	1884	1433	3832	78
14	0	0	1986	1437	3831	80
15	0	0	2089	1434	3830	80
16	0	0	2193	1432	3830	79
17	0	0	2273	1431	3830	80
18	0	0	2324	1433	3830	78
19	0	0	2390	1433	3829	79
20	0	0	2470	1433	3830	77
21	0	0	2435	1430	3829	80
22	0	0	2355	1429	3829	77
23	0	0	2252	1427	3829	77
24	0	0	2106	1427	3829	79
25	0	0	1973	1429	3830	78
26	0	0	1865	1428	3830	75
27	0	0	1739	1431	3831	77
28	0	0	1691	1430	3828	78
29	0	0	1664	1429	3829	77
30	0	0	1632	1431	3832	79
31	0	0	1713	1432	3827	79
32	0	0	1836	1435	3829	80
33	0	0	1922	1433	3830	82
34	0	0	2016	1430	3830	82
35	0	0	2114	1431	3831	78
36	0	0	2205	1433	3830	75
37	0	0	2286	1434	3830	77
38	0	0	2335	1432	3829	81
39	0	0	2402	1432	3829	81
40	0	0	2480	1432	3830	80
41	0	0	2444	1431	3829	79
42	0	0	2356	1429	3830	78
43	0	0	2246	1428	3832	79
44	0	0	2101	1429	3829	77
45	0	0	1975	1428	3831	78
46	0	0	1874	1428	3831	73
47	0	0	1800	1431	3829	77
48	0	0	1754	1429	3832	80
49	0	0	1720	1428	3830	77
50	0	0	1678	1430	3831	77
51	0	0	1719	1433	3829	75
52	0	0	1798	1432	3829	77
53	0	0	1882	1431	3831	79
54	0	0	1982	1432	3829	79
55	0	0	2087	1431	3829	81
56	0	0	2191	1432	3829	80
57	0	0	2280	1433	3829	81
58	0	0	2334	1433	3831	81
59	0	0	2399	1432	3830	77
60	0	0	2477	1432	3830	77
61	0	0	2442	1430	3831	77
62	0	0	2356	1428	3829	78
63	0	0	2248	1428	3829	78
64	0	0	2104	1427	3829	75
65	0	0	1974	1427	3831	77
66	0	0	1842	1429	3830	76
67	0	0	1741	1430	3830	78
68	0	0	1700	1429	3830	78
69	0	0	1671	1429	3829	76
70	0	0	1614	1433	3831	78
71	0	0	1743	1432	3829	75
72	0	0	1843	1432	3830	80
73	0	0	1925	1433	3831	81
74	0	0	2016	1433	3827	80
75	0	0	2115	1431	3830	80
76	0	0	2211	1433	3829	80
77	0	0	2286	1432	3829	80
78	0	0	2340	1431	3831	83
79	0	0	2401	1434	3829	76
80	0	0	2478	1432	3831	78
81	0	0	2447	1430	3831	77
82	0	0	2360	1428	3830	77
83	0	0	2246	1427	3830	77
84	0	0	2099	1428	3828	75
85	0	0	1969	1427	3831	78
86	0	0	1869	1428	3830	76
87	0	0	1794	1429	3829	78
88	0	0	1748	1428	3830	78
89	0	0	1710	1428	3828	80
90	0	0	1667	1428	3830	78
91	0	0	1705	1433	3829	76
92	0	0	1791	1432	3829	80
93	0	0	1882	1432	3830	81
94	0	0	1986	1430	3828	80
95	0	0	2096	1432	3831	81
96	0	0	2193	1432	3830	77
97	0	0	2274	1434	3831	77
98	0	0	2332	1433	3832	79
99	0	0	2396	1435	3829	80
100	0	0	2479	1432	3831	81
101	0	0	2444	1428	3830	80
102	0	0	2354	1428	3831	75
103	0	0	2252	1428	3830	77
104	0	0	2106	1428	3831	78
105	0	0	1972	1426	3830	77
106	0	0	1819	1428	3829	77
107	0	0	1738	1428	3828	78
108	0	0	1703	1428	3830	78
109	0	0	1672	1427	3827	76
110	0	0	1653	1434	3830	77
111	0	0	1745	1431	3828	72
112	0	0	1829	1432	3831	81
113	0	0	1911	1432	3833	78
114	0	0	2007	1432	3829	80
115	0	0	2105	1429	3831	77
116	0	0	2201	1431	3830	80
117	0	0	2275	1431	3830	81
118	0	0	2329	1432	3830	80
119	0	0	2396	1432	3831	81
120	0	0	2473	1435	3830	78
121	0	0	2442	1428	3829	79
122	0	0	2359	1428	3830	78
123	0	0	2255	1428	3829	77
124	0	0	2113	1428	3828	80
125	0	0	1980	1427	3830	78
126	0	0	1881	1427	3829	76
127	0	0	1810	1428	3831	77
0	0	0	1758	1429	3832	78
1	0	0	1716	1428	3828	80
2	0	0	1666	1431	3830	77
3	0	0	1708	1431	3830	78
4	0	0	1796	1431	3831	75
5	0	0	1883	1432	3830	82
6	0	0	1984	1431	3830	80
7	0	0	2086	1434	3830	80
8	0	0	2188	1432	3829	80
9	0	0	2267	1431	3829	78
10	0	0	2325	1432	3829	77
11	0	0	2393	1432	3830	77
12	0	0	2475	1435	3829	80
13	0	0	2443	1429	3831	81
14	0	0	2355	1426	3829	77
15	0	0	2251	1426	3829	75
16	0	0	2106	1427	3831	80
17	0	0	1940	1431	3830	77
18	0	0	1815	1428	3830	78
19	0	0	1753	1426	3830	77
20	0	0	1711	1430	3829	77
21	0	0	1663	1430	3831	79
22	0	0	1701	1431	3830	75
23	0	0	1761	1428	3830	77
24	0	0	1833	1431	3830	80
25	0	0	1908	1432	3830	80
26	0	0	2006	1431	3831	78
27	0	0	2106	1431	3830	77
28	0	0	2205	1431	3829	77
29	0	0	2281	1431	3829	80
30	0	0	2333	1434	3829	80
31	0	0	2395	1431	3829	80
32	0	0	2471	1433	3830	80
33	0	0	2441	1428	3830	77
34	0	0	2355	1428	3829	77
35	0	0	2248	1428	3830	77
36	0	0	2103	1428	3832	79
37	0	0	1972	1430	3831	77
38	0	0	1873	1426	3830	76
39	0	0	1797	1428	3830	76
40	0	0	1748	1431	3829	77
41	0	0	1712	1428	3829	78
42	0	0	1671	1433	3830	77
43	0	0	1713	1431	3828	78
44	0	0	1792	1432	3829	77
45	0	0	1882	1432	3829	78
46	0	0	1981	1432	3830	79
47	0	0	2092	1436	3831	80
48	0	0	2188	1431	3830	80
49	0	0	2264	1431	3829	81
50	0	0	2318	1434	3829	77
51	0	0	2388	1432	3832	77
52	0	0	2473	1432	3830	78
53	0	0	2441	1428	3829	80
54	0	0	2356	1427	3831	77
55	0	0	2252	1428	3831	78
56	0	0	2107	1427	3831	78
57	0	0	1922	1428	3831	77
58	0	0	1808	1427	3830	77
59	0	0	1743	1427	3831	77
60	0	0	1707	1429	3827	77
61	0	0	1693	1431	3831	78
62	0	0	1707	1432	3830	77
63	0	0	1750	1431	3829	77
64	0	0	1825	1432	3830	77
65	0	0	1907	1433	3831	78
66	0	0	2002	1432	3831	81
67	0	0	2108	1432	3830	81
68	0	0	2207	1432	3830	81
69	0	0	2289	1431	3831	80
70	0	0	2342	1432	3831	79
71	0	0	2413	1433	3832	77
72	0	0	2491	1434	3831	77
73	0	0	2451	1428	3829	81
74	0	0	2367	1427	3829	77
75	0	0	2254	1429	3829	77
76	0	0	2107	1427	3831	79
77	0	0	1976	1428	3830	76
78	0	0	1874	1427	3829	77
79	0	0	1801	1427	3831	77
80	0	0	1751	1429	3828	78
81	0	0	1710	1428	3832	79
82	0	0	1667	1430	3830	78
83	0	0	1709	1431	3829	78
84	0	0	1793	1432	3829	80
85	0	0	1886	1433	3830	82
86	0	0	1988	1432	3830	79
87	0	0	2093	1433	3828	77
88	0	0	2196	1432	3832	78
89	0	0	2278	1431	3831	78
90	0	0	2335	1432	3829	80
91	0	0	2400	1432	3832	83
92	0	0	2483	1432	3830	80
93	0	0	2451	1429	3828	81
94	0	0	2369	1428	3830	77
95	0	0	2260	1428	3828	75
96	0	0	2091	1427	3832	79
97	0	0	1925	1428	3830	77
98	0	0	1821	1428	3830	77
99	0	0	1756	1428	3830	80
100	0	0	1702	1429	3830	79
101	0	0	1736	1433	3827	77
102	0	0	1716	1432	3829	77
103	0	0	1755	1433	3830	78
104	0	0	1827	1434	3828	79
105	0	0	1908	1433	3831	77
106	0	0	2004	1433	3831	77
107	0	0	2108	1432	3830	80
108	0	0	2209	1431	3829	80
109	0	0	2291	1433	3829	80
110	0	0	2337	1433	3830	80
111	0	0	2400	1434	3830	78
112	0	0	2480	1432	3829	77
113	0	0	2446	1429	3829	77
114	0	0	2363	1428	3831	78
115	0	0	2255	1429	3828	78
116	0	0	2111	1428	3832	78
117	0	0	1976	1428	3830	77
118	0	0	1875	1429	3831	77
119	0	0	1801	1428	3830	78
120	0	0	1752	1430	3830	78
121	0	0	1715	1429	3831	77
122	0	0	1670	1430	3830	78
123	0	0	1717	1433	3830	77
124	0	0	1798	1432	3830	81
125	0	0	1888	1432	3830	79
126	0	0	1987	1434	3830	81
127	0	0	2092	1432	3829	81
0	0	0	2194	1432	3829	78
1	0	0	2272	1435	3827	79
2	0	0	2332	1432	3830	76
3	0	0	2401	1433	3831	81
4	0	0	2485	1433	3831	80
5	0	0	2452	1429	3829	80
6	0	0	2364	1429	3831	77
7	0	0	2263	1428	3831	82
8	0	0	2068	1428	3830	78
9	0	0	1923	1428	3830	77
10	0	0	1828	1428	3832	78
11	0	0	1763	1428	3830	78
12	0	0	1731	1432	3830	78
13	0	0	1752	1429	3830	77
14	0	0	1708	1431	3830	77
15	0	0	1742	1432	3829	77
16	0	0	1815	1434	3826	82
17	0	0	1899	1433	3831	75
18	0	0	2000	1432	3830	78
19	0	0	2105	1433	3831	78
20	0	0	2202	1432	3829	81
21	0	0	2279	1434	3829	80
22	0	0	2328	1431	3829	80
23	0	0	2391	1433	3828	80
24	0	0	2475	1433	3830	78
25	0	0	2446	1429	3830	77
26	0	0	2359	1430	3828	79
27	0	0	2256	1427	3830	76
28	0	0	2110	1429	3831	77
29	0	0	1975	1428	3831	78
30	0	0	1872	1429	3830	77
31	0	0	1796	1428	3831	78
32	0	0	1747	1429	3831	75
33	0	0	1710	1429	3830	78
34	0	0	1666	1431	3829	77
35	0	0	1707	1432	3829	77
36	0	0	1796	1431	3831	81
37	0	0	1884	1431	3830	80
38	0	0	1985	1433	3830	82
39	0	0	2092	1433	3831	81
40	0	0	2201	1433	3830	80
41	0	0	2283	1432	3830	77
42	0	0	2335	1432	3830	76
43	0	0	2396	1433	3832	77
44	0	0	2477	1431	3830	81
45	0	0	2445	1429	3830	80
46	0	0	2356	1428	3830	77
47	0	0	2234	1427	3831	75
48	0	0	2053	1428	3831	78
49	0	0	1926	1428	3831	77
50	0	0	1832	1428	3829	78
51	0	0	1754	1426	3829	79
52	0	0	1767	1431	3829	76
53	0	0	1754	1428	3828	78
54	0	0	1705	1429	3830	78
55	0	0	1739	1433	3831	77
56	0	0	1815	1433	3829	77
57	0	0	1897	1431	3830	80
58	0	0	1996	1433	3831	81
59	0	0	2100	1431	3828	80
60	0	0	2204	1432	3830	80
61	0	0	2281	1434	3830	77
62	0	0	2335	1433	3831	75
63	0	0	2400	1432	3831	78
64	0	0	2480	1433	3831	79
65	0	0	2447	1429	3829	80
66	0	0	2360	1428	3829	78
67	0	0	2253	1426	3829	76
68	0	0	2109	1427	3829	77
69	0	0	1978	1427	3830	77
70	0	0	1879	1428	3831	78
71	0	0	1795	1429	3829	77
72	0	0	1746	1427	3829	77
73	0	0	1710	1428	3831	78
74	0	0	1663	1430	3830	78
75	0	0	1704	1431	3830	77
76	0	0	1793	1432	3830	81
77	0	0	1880	1433	3831	79
78	0	0	1985	1433	3829	77
79	0	0	2095	1431	3831	78
80	0	0	2197	1431	3829	77
81	0	0	2277	1431	3829	83
82	0	0	2334	1434	3828	80
83	0	0	2397	1432	3831	81
84	0	0	2480	1432	3830	81
85	0	0	2447	1428	3829	78
86	0	0	2360	1428	3829	77
87	0	0	2200	1428	3830	79
88	0	0	2051	1428	3830	78
89	0	0	1929	1426	3830	77
90	0	0	1837	1428	3831	76
91	0	0	1779	1432	3832	79
92	0	0	1785	1430	3830	79
93	0	0	1751	1428	3831	78
94	0	0	1694	1431	3831	77
95	0	0	1732	1432	3830	78
96	0	0	1810	1434	3829	77
97	0	0	1892	1433	3828	77
98	0	0	1993	1430	3830	79
99	0	0	2097	1429	3830	80
100	0	0	2198	1431	3829	79
101	0	0	2282	1432	3829	80
102	0	0	2338	1433	3828	76
103	0	0	2401	1432	3829	78
104	0	0	2482	1431	3828	77
105	0	0	2454	1428	3830	80
106	0	0	2369	1427	3829	78
107	0	0	2262	1428	3829	77
108	0	0	2115	1427	3827	76
109	0	0	1977	1425	3832	77
110	0	0	1874	1425	3830	78
111	0	0	1800	1427	3830	75
112	0	0	1753	1429	3829	76
113	0	0	1710	1428	3829	78
114	0	0	1663	1428	3830	79
115	0	0	1704	1432	3829	77
116	0	0	1783	1431	3829	80
117	0	0	1868	1433	3828	80
118	0	0	1972	1432	3829	80
119	0	0	2088	1429	3832	78
120	0	0	2193	1431	3829	77
121	0	0	2276	1431	3830	78
122	0	0	2334	1433	3829	80
123	0	0	2396	1432	3830	81
124	0	0	2478	1429	3830	80
125	0	0	2451	1429	3831	80
126	0	0	2342	1427	3830	78
127	0	0	2200	1427	3831	79
0	0	0	2061	1427	3831	77
1	0	0	1939	1426	3831	78
2	0	0	1840	1427	3831	78
3	0	0	1822	1431	3829	78
4	0	0	1802	1428	3830	79
5	0	0	1760	1427	3830	77
6	0	0	1699	1427	3829	78
7	0	0	1737	1431	3830	77
8	0	0	1816	1431	3830	77
9	0	0	1902	1431	3830	75
10	0	0	1998	1431	3831	78
11	0	0	2097	1432	3831	80
12	0	0	2197	1431	3831	80
13	0	0	2272	1431	3829	80
14	0	0	2329	1431	3830	81
15	0	0	2393	1432	3828	78
16	0	0	2475	1430	3831	77
17	0	0	2444	1428	3829	77
18	0	0	2358	1429	3829	77
19	0	0	2256	1428	3829	76
20	0	0	2111	1426	3827	78
21	0	0	1977	1425	3829	77
22	0	0	1877	1430	3828	77
23	0	0	1802	1427	3829	73
24	0	0	1753	1429	3829	76
25	0	0	1711	1427	3828	78
26	0	0	1663	1430	3831	78
27	0	0	1703	1431	3830	79
28	0	0	1790	1429	3831	80
29	0	0	1880	1431	3831	78
30	0	0	1984	1431	3828	81
31	0	0	2089	1430	3832	81
32	0	0	2191	1431	3830	80
33	0	0	2275	1432	3833	81
34	0	0	2328	1430	3830	79
35	0	0	2389	1431	3830	78
36	0	0	2473	1431	3831	78
37	0	0	2445	1428	3829	76
38	0	0	2318	1427	3829	78
39	0	0	2194	1426	3829	75
40	0	0	2053	1427	3830	79
41	0	0	1934	1426	3830	77
42	0	0	1841	1426	3830	78
43	0	0	1771	1427	3830	78
44	0	0	1728	1428	3830	75
45	0	0	1696	1427	3830	77
46	0	0	1653	1428	3832	79
47	0	0	1701	1431	3831	77
48	0	0	1784	1432	3830	80
49	0	0	1874	1432	3830	81
50	0	0	1982	1431	3828	81
51	0	0	2092	1430	3832	81
52	0	0	2167	1430	3835	78
53	0	0	2251	1430	3830	78
54	0	0	2399	1432	3829	77
55	0	0	2470	1431	3828	81
56	0	0	2544	1431	3830	80
57	0	0	2500	1427	3829	81
58	0	0	2397	1426	3830	77
59	0	0	2290	1426	3829	75
60	0	0	2136	1427	3830	78
61	0	0	1999	1425	3831	77
62	0	0	1891	1427	3833	77
63	0	0	1807	1427	3831	78
64	0	0	1757	1428	3830	77
65	0	0	1714	1427	3829	78
66	0	0	1668	1428	3831	78
67	0	0	1708	1428	3828	79
68	0	0	1792	1431	3829	80
69	0	0	1881	1430	3830	78
70	0	0	1987	1431	3829	77
71	0	0	2096	1432	3831	78
72	0	0	2198	1430	3829	80
73	0	0	2279	1430	3831	81
74	0	0	2332	1430	3830	78
75	0	0	2396	1431	3828	81
76	0	0	2482	1431	3829	78
77	0	0	2452	1426	3831	78
78	0	0	2307	1426	3830	78
79	0	0	2198	1427	3829	77
80	0	0	2064	1426	3831	78
81	0	0	1939	1425	3833	78
82	0	0	1874	1430	3830	78
83	0	0	1840	1426	3831	79
84	0	0	1791	1427	3831	78
85	0	0	1749	1426	3830	78
86	0	0	1695	1428	3828	76
87	0	0	1727	1427	3829	77
88	0	0	1806	1431	3829	77
89	0	0	1890	1430	3829	79
90	0	0	1994	1431	3831	80
91	0	0	2096	1430	3830	80
92	0	0	2195	1431	3829	80
93	0	0	2275	1430	3829	77
94	0	0	2330	1430	3831	77
95	0	0	2392	1431	3830	79
96	0	0	2477	1430	3830	80
97	0	0	2451	1427	3830	80
98	0	0	2361	1425	3831	77
99	0	0	2256	1428	3830	75
100	0	0	2117	1426	3831	77
101	0	0	1983	1426	3829	78
102	0	0	1877	1426	3830	79
103	0	0	1800	1426	3829	78
104	0	0	1746	1427	3829	77
105	0	0	1710	1426	3830	78
106	0	0	1661	1428	3829	76
107	0	0	1700	1430	3829	78
108	0	0	1786	1430	3829	80
109	0	0	1871	1430	3831	77
110	0	0	1973	1431	3830	75
111	0	0	2087	1430	3829	77
112	0	0	2196	1430	3830	78
113	0	0	2279	1430	3830	80
114	0	0	2329	1431	3830	80
115	0	0	2393	1431	3832	80
116	0	0	2479	1430	3830	80
117	0	0	2414	1425	3830	77
118	0	0	2305	1426	3830	78
119	0	0	2206	1426	3830	79
120	0	0	2074	1426	3831	76
121	0	0	1923	1426	3829	78
122	0	0	1899	1427	3830	76
123	0	0	1846	1426	3832	78
124	0	0	1786	1427	3830	77
125	0	0	1743	1426	3830	78
126	0	0	1687	1427	3831	77
127	0	0	1720	1430	3831	77
0	0	0	1804	1432	3829	77
1	0	0	1884	1431	3830	77
2	0	0	1984	1430	3830	78
3	0	0	2089	1430	3829	80
4	0	0	2194	1430	3831	80
5	0	0	2277	1429	3830	81
6	0	0	2332	1429	3832	77
7	0	0	2394	1430	3831	76
8	0	0	2481	1429	3830	78
9	0	0	2454	1426	3829	81
10	0	0	2373	1427	3830	77
11	0	0	2269	1425	3831	75
12	0	0	2122	1425	3829	77
13	0	0	1987	1426	3831	78
14	0	0	1882	1425	3829	79
15	0	0	1807	1426	3829	78
16	0	0	1755	1427	3829	78
17	0	0	1720	1425	3831	76
18	0	0	1668	1427	3830	78
19	0	0	1713	1429	3830	77
20	0	0	1796	1429	3830	77
21	0	0	1878	1431	3830	76
22	0	0	1986	1430	3831	76
23	0	0	2086	1429	3830	78
24	0	0	2187	1430	3830	79
25	0	0	2275	1429	3829	78
26	0	0	2327	1429	3829	77
27	0	0	2395	1430	3830	78
28	0	0	2481	1430	3831	78
29	0	0	2398	1426	3830	77
30	0	0	2306	1427	3830	78
31	0	0	2205	1425	3829	77
32	0	0	2076	1425	3829	76
33	0	0	1967	1426	3831	77
34	0	0	1916	1427	3830	76
35	0	0	1843	1426	3829	77
36	0	0	1786	1425	3832	79
37	0	0	1744	1425	3831	77
38	0	0	1687	1427	3831	78
39	0	0	1716	1429	3829	78
40	0	0	1797	1431	3829	76
41	0	0	1881	1429	3830	77
42	0	0	1984	1429	3831	76
43	0	0	2087	1430	3831	75
44	0	0	2190	1430	3829	76
45	0	0	2272	1428	3829	78
46	0	0	2325	1429	3830	78
47	0	0	2392	1429	3829	76
48	0	0	2479	1428	3831	79
49	0	0	2454	1425	3831	77
50	0	0	2367	1425	3829	78
51	0	0	2260	1424	3831	77
52	0	0	2114	1425	3831	77
53	0	0	1981	1424	3827	76
54	0	0	1877	1426	3828	78
55	0	0	1805	1425	3830	78
56	0	0	1752	1425	3832	77
57	0	0	1715	1425	3829	78
58	0	0	1667	1427	3831	79
59	0	0	1704	1428	3829	78
60	0	0	1792	1429	3829	77
61	0	0	1878	1428	3831	77
62	0	0	1980	1429	3829	77
63	0	0	2083	1428	3827	77
64	0	0	2186	1428	3830	77
65	0	0	2271	1429	3831	77
66	0	0	2329	1430	3831	75
67	0	0	2391	1430	3830	75
68	0	0	2452	1428	3831	78
69	0	0	2388	1425	3830	79
70	0	0	2309	1426	3831	78
71	0	0	2221	1425	3831	80
72	0	0	2069	1424	3830	76
73	0	0	1997	1425	3831	78
74	0	0	1914	1425	3830	77
75	0	0	1836	1424	3830	78
76	0	0	1774	1426	3831	81
77	0	0	1729	1425	3830	77
78	0	0	1676	1427	3830	77
79	0	0	1711	1429	3829	77
80	0	0	1797	1429	3828	79
81	0	0	1883	1428	3830	78
82	0	0	1988	1429	3829	78
83	0	0	2092	1429	3831	78
84	0	0	2191	1428	3830	77
85	0	0	2272	1429	3830	77
86	0	0	2333	1429	3831	78
87	0	0	2400	1430	3829	77
88	0	0	2486	1429	3831	75
89	0	0	2458	1425	3830	77
90	0	0	2374	1424	3829	78
91	0	0	2271	1424	3830	79
92	0	0	2125	1424	3828	79
93	0	0	1988	1424	3831	78
94	0	0	1881	1424	3829	76
95	0	0	1805	1424	3830	77
96	0	0	1752	1425	3830	78
97	0	0	1713	1424	3827	78
98	0	0	1662	1426	3829	78
99	0	0	1698	1428	3829	77
100	0	0	1782	1428	3830	77
101	0	0	1874	1427	3831	76
102	0	0	1978	1429	3828	79
103	0	0	2091	1429	3831	76
104	0	0	2199	1428	3830	78
105	0	0	2283	1429	3830	77
106	0	0	2341	1428	3830	77
107	0	0	2402	1428	3831	78
108	0	0	2436	1429	3831	77
109	0	0	2399	1426	3831	78
110	0	0	2328	1425	3830	77
111	0	0	2237	1424	3830	78
112	0	0	2108	1426	3831	78
113	0	0	2027	1425	3830	77
114	0	0	1921	1424	3831	78
115	0	0	1834	1422	3832	77
116	0	0	1772	1425	3830	77
117	0	0	1723	1425	3830	77
118	0	0	1664	1426	3832	79
119	0	0	1700	1427	3830	77
120	0	0	1789	1429	3831	77
121	0	0	1883	1428	3831	77
122	0	0	1984	1428	3830	75
123	0	0	2090	1429	3829	76
124	0	0	2192	1429	3830	78
125	0	0	2277	1429	3829	76
126	0	0	2338	1429	3827	77
127	0	0	2399	1429	3828	79
0	0	0	2486	1428	3830	77
1	0	0	2462	1425	3829	78
2	0	0	2369	1424	3829	77
3	0	0	2254	1425	3831	80
4	0	0	2107	1424	3831	77
5	0	0	1971	1424	3831	78
6	0	0	1870	1424	3830	78
7	0	0	1795	1424	3830	77
8	0	0	1744	1424	3829	77
9	0	0	1711	1424	3830	79
10	0	0	1663	1424	3829	78
11	0	0	1701	1429	3830	77
12	0	0	1788	1429	3830	77
13	0	0	1872	1429	3829	77
14	0	0	1980	1428	3828	79
15	0	0	2087	1429	3830	77
16	0	0	2190	1428	3829	78
17	0	0	2276	1430	3829	77
18	0	0	2328	1427	3830	77
19	0	0	2366	1429	3831	78
20	0	0	2420	1428	3828	78
21	0	0	2399	1425	3831	78
22	0	0	2327	1426	3829	77
23	0	0	2215	1424	3829	77
24	0	0	2135	1424	3830	75
25	0	0	2026	1423	3831	77
26	0	0	1915	1423	3829	78
27	0	0	1827	1424	3831	79
28	0	0	1770	1424	3829	78
29	0	0	1724	1425	3830	75
30	0	0	1664	1425	3824	77
31	0	0	1700	1428	3828	78
32	0	0	1792	1428	3829	77
33	0	0	1878	1427	3826	79
34	0	0	1984	1428	3829	75
35	0	0	2089	1429	3831	77
36	0	0	2192	1428	3829	77
37	0	0	2277	1427	3832	78
38	0	0	2338	1429	3829	79
39	0	0	2400	1429	3830	74
40	0	0	2491	1428	3829	77
41	0	0	2467	1425	3830	79
42	0	0	2377	1423	3832	79
43	0	0	2266	1423	3828	79
44	0	0	2119	1423	3830	75
45	0	0	1984	1423	3828	78
46	0	0	1882	1423	3829	78
47	0	0	1806	1424	3830	78
48	0	0	1750	1423	3827	79
49	0	0	1707	1424	3830	76
50	0	0	1656	1425	3828	78
51	0	0	1691	1428	3829	76
52	0	0	1779	1429	3829	77
53	0	0	1870	1426	3828	79
54	0	0	1981	1428	3831	75
55	0	0	2092	1427	3830	78
56	0	0	2193	1427	3830	78
57	0	0	2277	1427	3831	78
58	0	0	2333	1428	3831	77
59	0	0	2347	1428	3830	75
60	0	0	2421	1427	3830	78
61	0	0	2405	1424	3830	80
62	0	0	2333	1423	3832	78
63	0	0	2235	1426	3831	75
64	0	0	2152	1423	3831	74
65	0	0	2023	1424	3831	78
66	0	0	1912	1423	3829	78
67	0	0	1824	1423	3829	78
68	0	0	1768	1424	3830	78
69	0	0	1723	1424	3830	79
70	0	0	1666	1423	3828	76
71	0	0	1702	1427	3828	75
72	0	0	1785	1427	3832	79
73	0	0	1874	1427	3830	77
74	0	0	1982	1428	3830	76
75	0	0	2091	1427	3831	78
76	0	0	2197	1427	3830	77
77	0	0	2280	1427	3832	78
78	0	0	2334	1427	3828	79
79	0	0	2399	1427	3831	76
80	0	0	2483	1426	3830	77
81	0	0	2457	1424	3828	77
82	0	0	2371	1423	3831	78
83	0	0	2265	1423	3831	79
84	0	0	2113	1422	3830	80
85	0	0	1973	1423	3830	78
86	0	0	1868	1423	3829	77
87	0	0	1792	1423	3830	78
88	0	0	1744	1424	3831	79
89	0	0	1706	1424	3831	76
90	0	0	1655	1424	3829	76
91	0	0	1690	1426	3830	78
92	0	0	1782	1426	3830	77
93	0	0	1870	1427	3829	77
94	0	0	1970	1429	3829	76
95	0	0	2082	1428	3829	76
96	0	0	2191	1427	3831	78
97	0	0	2274	1424	3831	77
98	0	0	2315	1427	3829	77
99	0	0	2340	1427	3829	76
100	0	0	2433	1427	3829	77
101	0	0	2421	1425	3828	80
102	0	0	2331	1422	3831	78
103	0	0	2287	1425	3830	77
104	0	0	2165	1422	3830	80
105	0	0	2022	1423	3830	77
106	0	0	1906	1422	3830	77
107	0	0	1817	1423	3830	78
108	0	0	1759	1425	3831	78
109	0	0	1713	1423	3829	76
110	0	0	1661	1425	3831	77
111	0	0	1694	1427	3831	78
112	0	0	1785	1428	3830	79
113	0	0	1868	1427	3829	77
114	0	0	1972	1428	3831	80
115	0	0	2084	1428	3829	76
116	0	0	2190	1427	3829	77
117	0	0	2277	1427	3829	52
118	0	0	2333	1427	3828	79
119	0	0	2399	1429	3829	76
120	0	0	2489	1427	3829	77
121	0	0	2468	1424	3829	78
122	0	0	2381	1422	3830	77
123	0	0	2270	1423	3831	77
124	0	0	2121	1423	3830	76
125	0	0	1983	1423	3831	79
126	0	0	1880	1423	3830	77
127	0	0	1798	1423	3830	77
0	0	0	1740	1423	3830	77
1	0	0	1707	1423	3830	78
2	0	0	1655	1425	3827	78
3	0	0	1689	1427	3829	78
4	0	0	1777	1427	3829	77
5	0	0	1865	1428	3830	75
6	0	0	1977	1428	3830	76
7	0	0	2081	1427	3830	78
8	0	0	2186	1427	3830	77
9	0	0	2264	1426	3830	77
10	0	0	2277	1427	3831	77
11	0	0	2332	1428	3830	80
12	0	0	2437	1428	3831	78
13	0	0	2422	1423	3830	78
14	0	0	2351	1426	3831	78
15	0	0	2317	1423	3831	76
16	0	0	2174	1422	3831	80
17	0	0	2027	1424	3831	78
18	0	0	1905	1423	3830	78
19	0	0	1824	1423	3831	77
20	0	0	1769	1424	3831	79
21	0	0	1723	1423	3831	80
22	0	0	1664	1425	3831	78
23	0	0	1695	1426	3829	78
24	0	0	1783	1428	3829	79
25	0	0	1871	1429	3830	78
26	0	0	1976	1427	3830	78
27	0	0	2084	1427	3829	76
28	0	0	2186	1427	3830	77
29	0	0	2266	1426	3830	77
30	0	0	2327	1429	3830	78
31	0	0	2391	1427	3831	78
32	0	0	2484	1427	3829	76
33	0	0	2459	1424	3830	78
34	0	0	2371	1422	3831	76
35	0	0	2264	1423	3830	76
36	0	0	2118	1423	3830	78
37	0	0	1981	1423	3828	77
38	0	0	1877	1422	3829	78
39	0	0	1795	1422	3829	77
40	0	0	1746	1424	3830	74
41	0	0	1708	1424	3830	78
42	0	0	1658	1424	3832	77
43	0	0	1699	1427	3831	78
44	0	0	1786	1425	3831	76
45	0	0	1877	1429	3830	77
46	0	0	1971	1427	3829	76
47	0	0	2079	1426	3827	79
48	0	0	2182	1427	3830	78
49	0	0	2250	1426	3831	76
50	0	0	2269	1427	3831	76
51	0	0	2328	1426	3831	79
52	0	0	2427	1426	3828	76
53	0	0	2404	1424	3829	77
54	0	0	2388	1426	3827	79
55	0	0	2316	1423	3830	74
56	0	0	2168	1422	3831	79
57	0	0	2019	1422	3828	77
58	0	0	1906	1423	3829	77
59	0	0	1824	1423	3830	78
60	0	0	1767	1423	3828	77
61	0	0	1722	1424	3830	79
62	0	0	1672	1425	3831	77
63	0	0	1708	1427	3830	77
64	0	0	1788	1427	3830	75
65	0	0	1872	1428	3832	79
66	0	0	1975	1427	3831	79
67	0	0	2081	1427	3832	76
68	0	0	2193	1427	3831	79
69	0	0	2277	1427	3831	76
70	0	0	2330	1427	3829	76
71	0	0	2396	1427	3830	79
72	0	0	2483	1427	3828	76
73	0	0	2460	1423	3829	77
74	0	0	2375	1422	3830	78
75	0	0	2267	1423	3831	77
76	0	0	2125	1422	3830	80
77	0	0	1989	1421	3831	77
78	0	0	1886	1422	3830	78
79	0	0	1808	1422	3831	78
80	0	0	1758	1423	3832	77
81	0	0	1724	1423	3831	79
82	0	0	1672	1424	3832	79
83	0	0	1701	1427	3830	78
84	0	0	1780	1427	3830	77
85	0	0	1869	1427	3830	78
86	0	0	1974	1426	3831	79
87	0	0	2077	1426	3832	75
88	0	0	2181	1426	3831	78
89	0	0	2225	1424	3827	269
90	0	0	2276	1424	3831	887
91	0	0	2358	1427	3830	1648
92	0	0	2476	1426	3830	2294
93	0	0	2478	1425	3829	2761
94	0	0	2467	1423	3830	3077
95	0	0	2371	1421	3831	3294
96	0	0	2213	1421	3831	3442
97	0	0	2062	1421	3831	3545
98	0	0	1935	1421	3830	3624
99	0	0	1846	1422	3830	3683
100	0	0	1785	1419	3831	3727
101	0	0	1741	1422	3831	3762
102	0	0	1679	1422	3831	3791
103	0	0	1708	1425	3828	3813
104	0	0	1786	1427	3829	3828
105	0	0	1871	1425	3829	3844
106	0	0	1971	1426	3830	3858
107	0	0	2073	1425	3831	3871
108	0	0	2178	1425	3829	3880
109	0	0	2265	1426	3830	3890
110	0	0	2322	1426	3830	3895
111	0	0	2385	1423	3830	3900
112	0	0	2474	1425	3831	3907
113	0	0	2457	1422	3830	3911
114	0	0	2373	1422	3830	3918
115	0	0	2264	1420	3832	3922
116	0	0	2116	1421	3831	3928
117	0	0	1981	1421	3831	3929
118	0	0	1875	1421	3830	3932
119	0	0	1794	1422	3830	3935
120	0	0	1741	1421	3828	3938
121	0	0	1702	1421	3830	3942
122	0	0	1652	1423	3830	3943
123	0	0	1687	1425	3831	3947
124	0	0	1773	1426	3830	3948
125	0	0	1864	1423	3830	3949
126	0	0	1969	1426	3832	3953
127	0	0	2075	1427	3831	3949
0	0	0	2166	1425	3830	3951
1	0	0	2202	1425	3827	3953
2	0	0	2261	1425	3829	3955
3	0	0	2330	1426	3830	3958
4	0	0	2431	1426	3829	3958
5	0	0	2462	1426	3830	3959
6	0	0	2418	1422	3830	3960
7	0	0	2314	1421	3829	3961
8	0	0	2157	1421	3831	3964
9	0	0	2009	1424	3829	3964
10	0	0	1895	1422	3830	3966
11	0	0	1813	1422	3828	3964
12	0	0	1761	1420	3830	3966
13	0	0	1727	1422	3830	3968
14	0	0	1672	1423	3832	3969
15	0	0	1703	1426	3829	3968
16	0	0	1776	1426	3830	3966
17	0	0	1864	1423	3829	3968
18	0	0	1964	1425	3831	3969
19	0	0	2074	1424	3831	3968
20	0	0	2180	1425	3830	3971
21	0	0	2265	1425	3828	3972
22	0	0	2325	1425	3829	3972
23	0	0	2378	1429	3830	3971
24	0	0	2474	1426	3829	3970
25	0	0	2452	1422	3829	3972
26	0	0	2372	1422	3831	3976
27	0	0	2270	1422	3830	3977
28	0	0	2120	1421	3830	3978
29	0	0	1981	1421	3831	3977
30	0	0	1874	1421	3829	3975
31	0	0	1795	1421	3830	3973
32	0	0	1746	1420	3831	3975
33	0	0	1713	1423	3830	3979
34	0	0	1666	1422	3829	3978
35	0	0	1697	1426	3832	3979
36	0	0	1774	1425	3830	3975
37	0	0	1865	1425	3830	3980
38	0	0	1967	1426	3830	3981
39	0	0	2075	1426	3831	3978
40	0	0	2138	1426	3830	3976
41	0	0	2207	1426	3831	3978
42	0	0	2276	1426	3830	3978
43	0	0	2347	1426	3830	3977
44	0	0	2432	1427	3831	3981
45	0	0	2487	1425	3829	3981
46	0	0	2411	1422	3830	3979
47	0	0	2300	1419	3829	3981
48	0	0	2146	1422	3830	3983
49	0	0	2005	1421	3829	3983
50	0	0	1896	1420	3830	3982
51	0	0	1810	1421	3830	3982
52	0	0	1754	1420	3831	3982
53	0	0	1716	1422	3830	3983
54	0	0	1672	1421	3831	3980
55	0	0	1697	1425	3830	3982
56	0	0	1780	1426	3830	3983
57	0	0	1872	1426	3829	3981
58	0	0	1976	1425	3831	3982
59	0	0	2084	1426	3830	3982
60	0	0	2189	1427	3830	3983
61	0	0	2272	1427	3829	3983
62	0	0	2330	1426	3829	3984
63	0	0	2383	1428	3829	3983
64	0	0	2479	1425	3829	3983
65	0	0	2455	1422	3830	3982
66	0	0	2366	1421	3829	3984
67	0	0	2261	1422	3829	3987
68	0	0	2118	1421	3831	3983
69	0	0	1984	1421	3831	3984
70	0	0	1880	1421	3834	3984
71	0	0	1805	1421	3830	3985
72	0	0	1753	1422	3830	3987
73	0	0	1711	1422	3830	3987
74	0	0	1663	1424	3829	3987
75	0	0	1692	1425	3829	3986
76	0	0	1776	1424	3829	3984
77	0	0	1871	1423	3829	3984
78	0	0	1978	1426	3830	3984
79	0	0	2063	1425	3829	3988
80	0	0	2129	1427	3829	3986
81	0	0	2217	1425	3827	3984
82	0	0	2291	1429	3830	3986
83	0	0	2352	1425	3828	3983
84	0	0	2479	1425	3829	3985
85	0	0	2496	1422	3831	3989
86	0	0	2412	1423	3830	3987
87	0	0	2299	1420	3830	3988
88	0	0	2148	1422	3832	3989
89	0	0	2007	1421	3830	3989
90	0	0	1899	1421	3831	3989
91	0	0	1815	1424	3830	3987
92	0	0	1756	1421	3830	3988
93	0	0	1715	1422	3830	3989
94	0	0	1662	1422	3829	3988
95	0	0	1692	1426	3830	3990
96	0	0	1776	1425	3828	3986
97	0	0	1868	1425	3827	3986
98	0	0	1975	1426	3830	3990
99	0	0	2078	1425	3829	3989
100	0	0	2181	1425	3831	3989
101	0	0	2270	1425	3830	3987
102	0	0	2323	1427	3830	3989
103	0	0	2389	1426	3831	3985
104	0	0	2478	1425	3830	3988
105	0	0	2459	1422	3830	3989
106	0	0	2379	1421	3831	3991
107	0	0	2274	1422	3831	3991
108	0	0	2133	1421	3830	3988
109	0	0	1993	1421	3829	3991
110	0	0	1884	1420	3829	3989
111	0	0	1807	1421	3829	3992
112	0	0	1751	1420	3830	3990
113	0	0	1719	1422	3829	3992
114	0	0	1667	1423	3830	3991
115	0	0	1701	1423	3829	3989
116	0	0	1785	1426	3830	3989
117	0	0	1869	1427	3830	3991
118	0	0	1970	1424	3831	3988
119	0	0	2033	1425	3832	3989
120	0	0	2109	1425	3830	3988
121	0	0	2212	1426	3831	3988
122	0	0	2286	1424	3828	3992
123	0	0	2335	1425	3828	3989
124	0	0	2502	1425	3829	3992
125	0	0	2500	1422	3829	3988
126	0	0	2423	1422	3830	3991
127	0	0	2313	1420	3831	3992
0	0	0	2159	1421	3830	3992
1	0	0	2013	1420	3829	3990
2	0	0	1901	1420	3829	3991
3	0	0	1821	1422	3827	3992
4	0	0	1767	1420	3830	3991
5	0	0	1728	1422	3831	3992
6	0	0	1676	1422	3830	3992
7	0	0	1702	1427	3831	3992
8	0	0	1778	1426	3831	3990
9	0	0	1865	1424	3828	3990
10	0	0	1972	1426	3830	3990
11	0	0	2077	1424	3830	3990
12	0	0	2174	1426	3830	3991
13	0	0	2264	1425	3827	3992
14	0	0	2323	1424	3830	3990
15	0	0	2384	1427	3831	3991
16	0	0	2470	1425	3829	3990
17	0	0	2449	1422	3828	3989
18	0	0	2372	1421	3829	3991
19	0	0	2271	1424	3830	3993
20	0	0	2131	1421	3830	3992
21	0	0	1997	1421	3832	3990
22	0	0	1890	1421	3831	3992
23	0	0	1810	1421	3830	3991
24	0	0	1760	1422	3831	3992
25	0	0	1723	1421	3831	3992
26	0	0	1674	1422	3830	3992
27	0	0	1701	1425	3830	3993
28	0	0	1786	1425	3830	3992
29	0	0	1874	1426	3831	3994
30	0	0	1970	1426	3831	3994
31	0	0	2025	1426	3831	3992
32	0	0	2122	1426	3829	3990
33	0	0	2223	1425	3829	3991
34	0	0	2292	1424	3832	3992
35	0	0	2373	1427	3830	3994
36	0	0	2513	1425	3828	3992
37	0	0	2499	1423	3828	3993
38	0	0	2410	1421	3830	3996
39	0	0	2298	1421	3831	3993
40	0	0	2141	1421	3830	3992
41	0	0	2001	1421	3830	3992
42	0	0	1892	1422	3830	3993
43	0	0	1809	1422	3831	3995
44	0	0	1757	1420	3828	3994
45	0	0	1720	1421	3831	3994
46	0	0	1669	1422	3829	3992
47	0	0	1699	1426	3829	3993
48	0	0	1783	1425	3830	3993
49	0	0	1872	1425	3831	3991
50	0	0	1976	1426	3830	3992
51	0	0	2082	1425	3829	3988
52	0	0	2183	1427	3831	3995
53	0	0	2268	1426	3830	3994
54	0	0	2324	1424	3830	3994
55	0	0	2386	1424	3830	3991
56	0	0	2475	1426	3829	3990
57	0	0	2459	1420	3829	3991
58	0	0	2375	1421	3830	3995
59	0	0	2272	1421	3831	3994
60	0	0	2125	1422	3831	3993
61	0	0	1987	1421	3829	3992
62	0	0	1885	1421	3830	3992
63	0	0	1807	1421	3829	3994
64	0	0	1756	1422	3830	3991
65	0	0	1720	1420	3830	3993
66	0	0	1669	1422	3829	3994
67	0	0	1698	1425	3829	3994
68	0	0	1782	1425	3829	3992
69	0	0	1867	1425	3830	3995
70	0	0	1942	1423	3830	3995
71	0	0	2025	1426	3832	3995
72	0	0	2130	1424	3830	3992
73	0	0	2226	1425	3831	3994
74	0	0	2273	1426	3830	3991
75	0	0	2407	1425	3831	3991
76	0	0	2514	1425	3830	3992
77	0	0	2497	1422	3830	3992
78	0	0	2410	1421	3829	3994
79	0	0	2301	1422	3830	3995
80	0	0	2146	1421	3831	3996
81	0	0	2005	1421	3829	3992
82	0	0	1899	1421	3829	3994
83	0	0	1812	1421	3828	3994
84	0	0	1758	1421	3830	3992
85	0	0	1719	1421	3830	3994
86	0	0	1665	1423	3829	3995
87	0	0	1693	1425	3829	3995
88	0	0	1775	1427	3830	3992
89	0	0	1864	1423	3831	3992
90	0	0	1970	1425	3831	3995
91	0	0	2076	1425	3830	3994
92	0	0	2178	1425	3830	3992
93	0	0	2263	1425	3830	3992
94	0	0	2328	1423	3831	3992
95	0	0	2390	1425	3830	3994
96	0	0	2476	1426	3829	3995
97	0	0	2460	1422	3829	3995
98	0	0	2380	1421	3830	3998
99	0	0	2280	1421	3830	3996
100	0	0	2135	1420	3830	3995
101	0	0	2000	1421	3831	3996
102	0	0	1894	1420	3829	3995
103	0	0	1808	1422	3829	3994
104	0	0	1756	1423	3830	3994
105	0	0	1717	1420	3831	3995
106	0	0	1664	1422	3829	3995
107	0	0	1695	1424	3829	3992
108	0	0	1779	1425	3831	3998
109	0	0	1857	1425	3831	3994
110	0	0	1908	1425	3831	3993
111	0	0	2013	1425	3830	3994
112	0	0	2132	1425	3830	3992
113	0	0	2230	1424	3832	3995
114	0	0	2322	1427	3830	3995
115	0	0	2424	1426	3830	3995
116	0	0	2517	1425	3828	3993
117	0	0	2493	1420	3829	3993
118	0	0	2405	1421	3830	3997
119	0	0	2298	1421	3828	3997
120	0	0	2147	1419	3830	3996
121	0	0	2010	1421	3829	3997
122	0	0	1900	1422	3830	3995
123	0	0	1815	1420	3830	3995
124	0	0	1762	1423	3830	3995
125	0	0	1726	1420	3832	3995
126	0	0	1673	1422	3830	3991
127	0	0	1696	1424	3831	3996
0	0	0	1781	1426	3828	3996
1	0	0	1865	1426	3830	3993
2	0	0	1963	1425	3830	3996
3	0	0	2073	1425	3829	3995
4	0	0	2177	1424	3829	3993
5	0	0	2259	1426	3829	3995
6	0	0	2320	1423	3829	3994
7	0	0	2379	1423	3830	3992
8	0	0	2466	1426	3829	3994
9	0	0	2451	1422	3829	3994
10	0	0	2374	1420	3829	3996
11	0	0	2273	1419	3831	3996
12	0	0	2131	1420	3831	3996
13	0	0	1997	1420	3831	3991
14	0	0	1887	1421	3829	4002
15	0	0	1807	1419	3830	3996
16	0	0	1756	1421	3829	3997
17	0	0	1719	1421	3830	3994
18	0	0	1674	1422	3829	3995
19	0	0	1701	1425	3829	3996
20	0	0	1785	1423	3828	3996
21	0	0	1834	1423	3829	3996
22	0	0	1911	1424	3830	3994
23	0	0	2020	1426	3829	3991
24	0	0	2140	1424	3830	3993
25	0	0	2210	1425	3829	3993
26	0	0	2348	1425	3829	3997
27	0	0	2422	1424	3830	3996
28	0	0	2505	1424	3829	3995
29	0	0	2479	1423	3831	3995
30	0	0	2395	1421	3828	3997
31	0	0	2285	1420	3831	3996
32	0	0	2138	1420	3831	3998
33	0	0	2000	1420	3830	3995
34	0	0	1896	1421	3831	3997
35	0	0	1814	1421	3828	3999
36	0	0	1758	1422	3830	3996
37	0	0	1724	1422	3831	3997
38	0	0	1669	1421	3827	3995
39	0	0	1698	1427	3830	3998
40	0	0	1780	1425	3829	3995
41	0	0	1871	1425	3830	3994
42	0	0	1976	1425	3830	3996
43	0	0	2079	1424	3830	3996
44	0	0	2182	1427	3831	3997
45	0	0	2269	1424	3829	3997
46	0	0	2327	1425	3830	3994
47	0	0	2384	1426	3830	3995
48	0	0	2475	1424	3830	3993
49	0	0	2460	1421	3828	3994
50	0	0	2384	1421	3829	3999
51	0	0	2282	1421	3829	3997
52	0	0	2136	1420	3830	3998
53	0	0	2005	1420	3828	3996
54	0	0	1897	1420	3829	4000
55	0	0	1813	1419	3829	3996
56	0	0	1759	1420	3829	3996
57	0	0	1720	1421	3830	3998
58	0	0	1674	1422	3831	3998
59	0	0	1698	1422	3829	3996
60	0	0	1772	1424	3830	3998
61	0	0	1805	1424	3831	3995
62	0	0	1907	1424	3831	3994
63	0	0	2019	1424	3830	3996
64	0	0	2137	1423	3830	3997
65	0	0	2253	1425	3832	3998
66	0	0	2359	1426	3830	3994
67	0	0	2422	1426	3830	3995
68	0	0	2506	1425	3829	3992
69	0	0	2484	1421	3829	3995
70	0	0	2399	1419	3829	3997
71	0	0	2291	1421	3829	4000
72	0	0	2144	1421	3828	3998
73	0	0	2004	1419	3830	3996
74	0	0	1894	1420	3829	3996
75	0	0	1811	1419	3829	3996
76	0	0	1756	1422	3829	3997
77	0	0	1722	1421	3830	3998
78	0	0	1673	1421	3828	3993
79	0	0	1700	1427	3831	3998
80	0	0	1778	1424	3832	3994
81	0	0	1864	1425	3830	4000
82	0	0	1968	1426	3830	3998
83	0	0	2075	1423	3829	3996
84	0	0	2178	1425	3830	3995
85	0	0	2267	1424	3829	3995
86	0	0	2326	1423	3829	3995
87	0	0	2381	1426	3829	3998
88	0	0	2468	1424	3830	3998
89	0	0	2453	1421	3829	3997
90	0	0	2377	1420	3829	3996
91	0	0	2282	1420	3829	3996
92	0	0	2135	1420	3831	3998
93	0	0	2000	1420	3829	3998
94	0	0	1896	1421	3830	3997
95	0	0	1808	1420	3831	3997
96	0	0	1753	1422	3830	3997
97	0	0	1712	1421	3831	3997
98	0	0	1658	1421	3830	3996
99	0	0	1689	1424	3829	3996
100	0	0	1743	1424	3831	3995
101	0	0	1803	1425	3830	3996
102	0	0	1922	1426	3830	3997
103	0	0	2039	1424	3829	3994
104	0	0	2133	1426	3829	3997
105	0	0	2290	1425	3827	3997
106	0	0	2373	1425	3829	4000
107	0	0	2421	1422	3830	3995
108	0	0	2505	1424	3829	3998
109	0	0	2484	1421	3830	3995
110	0	0	2401	1420	3827	4000
111	0	0	2296	1418	3831	3998
112	0	0	2147	1419	3831	3997
113	0	0	2003	1420	3830	3996
114	0	0	1899	1421	3831	3996
115	0	0	1820	1420	3827	4000
116	0	0	1763	1418	3831	3997
117	0	0	1724	1419	3830	3997
118	0	0	1673	1421	3829	3999
119	0	0	1698	1424	3830	3998
120	0	0	1781	1424	3831	3993
121	0	0	1869	1423	3828	3999
122	0	0	1972	1422	3830	3998
123	0	0	2076	1423	3830	3999
124	0	0	2179	1421	3829	3995
125	0	0	2265	1423	3829	3994
126	0	0	2326	1424	3829	3996
127	0	0	2386	1424	3831	3996
0	0	0	2471	1423	3830	3999
1	0	0	2455	1420	3831	3999
2	0	0	2376	1420	3829	3999
3	0	0	2275	1420	3829	3999
4	0	0	2133	1419	3831	3997
5	0	0	1998	1419	3830	3998
6	0	0	1890	1420	3831	4000
7	0	0	1808	1419	3830	3997
8	0	0	1751	1420	3830	3999
9	0	0	1713	1420	3829	3999
10	0	0	1665	1421	3829	3999
11	0	0	1689	1424	3829	3997
12	0	0	1711	1423	3827	4000
13	0	0	1798	1423	3827	3997
14	0	0	1919	1422	3831	3995
15	0	0	2040	1423	3829	3995
16	0	0	2160	1424	3831	3996
17	0	0	2300	1425	3830	3997
18	0	0	2364	1422	3828	3999
19	0	0	2414	1422	3831	3998
20	0	0	2494	1423	3830	3995
21	0	0	2477	1420	3832	3996
22	0	0	2391	1420	3831	3996
23	0	0	2286	1419	3831	3999
24	0	0	2140	1418	3829	3999
25	0	0	2004	1419	3829	3999
26	0	0	1898	1420	3830	3997
27	0	0	1818	1419	3828	4000
28	0	0	1760	1421	3827	3999
29	0	0	1722	1419	3830	3998
30	0	0	1672	1420	3829	3997
31	0	0	1696	1422	3828	3998
32	0	0	1779	1423	3830	3995
33	0	0	1866	1422	3831	3996
34	0	0	1968	1423	3830	3997
35	0	0	2077	1423	3830	3999
36	0	0	2177	1422	3832	3999
37	0	0	2266	1423	3833	3996
38	0	0	2326	1424	3829	3995
39	0	0	2385	1423	3831	3997
40	0	0	2470	1423	3829	3999
41	0	0	2459	1420	3831	4001
42	0	0	2379	1419	3831	3996
43	0	0	2278	1420	3829	3999
44	0	0	2131	1419	3830	3998
45	0	0	1995	1419	3828	3997
46	0	0	1894	1419	3829	3998
47	0	0	1811	1419	3829	3999
48	0	0	1756	1421	3828	3999
49	0	0	1720	1418	3830	3998
50	0	0	1670	1420	3829	3998
51	0	0	1668	1420	3832	3997
52	0	0	1713	1423	3830	3996
53	0	0	1808	1423	3831	3997
54	0	0	1922	1425	3830	3999
55	0	0	2020	1423	3830	3998
56	0	0	2190	1424	3831	3999
57	0	0	2303	1423	3833	3996
58	0	0	2362	1423	3828	3995
59	0	0	2416	1421	3829	3996
60	0	0	2497	1423	3829	3995
61	0	0	2477	1418	3831	3997
62	0	0	2386	1418	3829	3998
63	0	0	2283	1421	3828	3999
64	0	0	2139	1420	3830	3998
65	0	0	2000	1419	3832	3999
66	0	0	1896	1418	3830	3997
67	0	0	1813	1419	3830	3999
68	0	0	1757	1419	3830	3998
69	0	0	1722	1419	3831	3999
70	0	0	1672	1420	3830	3999
71	0	0	1702	1423	3831	3999
72	0	0	1779	1423	3829	3999
73	0	0	1863	1423	3828	3999
74	0	0	1966	1425	3830	3995
75	0	0	2073	1423	3829	3996
76	0	0	2178	1423	3829	3995
77	0	0	2267	1422	3830	3996
78	0	0	2327	1424	3829	3997
79	0	0	2391	1425	3829	3999
80	0	0	2477	1423	3829	3998
81	0	0	2464	1419	3829	3996
82	0	0	2386	1420	3830	3997
83	0	0	2283	1419	3829	3997
84	0	0	2137	1419	3831	3998
85	0	0	1996	1417	3830	3998
86	0	0	1890	1418	3830	3999
87	0	0	1809	1418	3830	3998
88	0	0	1755	1419	3830	3997
89	0	0	1717	1421	3830	3998
90	0	0	1663	1420	3828	3998
91	0	0	1635	1422	3829	3998
92	0	0	1706	1423	3829	3995
93	0	0	1809	1423	3829	3995
94	0	0	1931	1420	3831	3996
95	0	0	2043	1424	3828	3998
96	0	0	2207	1422	3829	3998
97	0	0	2300	1422	3830	3998
98	0	0	2358	1422	3830	3995
99	0	0	2407	1426	3830	3996
100	0	0	2486	1423	3831	3997
101	0	0	2467	1420	3830	3996
102	0	0	2389	1418	3830	4000
103	0	0	2289	1420	3832	3999
104	0	0	2140	1421	3831	3999
105	0	0	2002	1418	3831	3999
106	0	0	1898	1415	3830	3998
107	0	0	1814	1418	3830	3999
108	0	0	1758	1419	3831	3999
109	0	0	1716	1420	3829	3999
110	0	0	1666	1420	3830	3999
111	0	0	1693	1420	3829	3998
112	0	0	1774	1424	3829	3999
113	0	0	1865	1422	3831	3997
114	0	0	1968	1426	3831	3998
115	0	0	2072	1423	3829	3996
116	0	0	2174	1419	3830	3995
117	0	0	2263	1423	3829	3996
118	0	0	2325	1423	3830	3995
119	0	0	2381	1429	3829	3999
120	0	0	2474	1423	3830	3998
121	0	0	2462	1419	3830	3998
122	0	0	2388	1421	3829	3998
123	0	0	2287	1418	3832	3998
124	0	0	2142	1418	3830	3999
125	0	0	2002	1417	3828	3999
126	0	0	1894	1417	3830	3999
127	0	0	1813	1419	3831	3998
0	0	0	1756	1419	3830	3997
1	0	0	1716	1417	3830	3999
2	0	0	1646	1418	3829	3997
3	0	0	1635	1421	3831	3999
4	0	0	1715	1424	3829	3996
5	0	0	1815	1422	3830	3996
6	0	0	1920	1425	3831	3996
7	0	0	2082	1422	3830	3996
8	0	0	2214	1422	3830	4000
9	0	0	2303	1422	3830	3998
10	0	0	2356	1422	3832	3999
11	0	0	2402	1422	3831	3996
12	0	0	2484	1422	3829	3996
13	0	0	2468	1418	3830	3997
14	0	0	2390	1418	3827	3999
15	0	0	2293	1417	3832	3996
16	0	0	2145	1417	3830	3999
17	0	0	2005	1417	3829	3999
18	0	0	1899	1418	3830	3997
19	0	0	1814	1419	3830	4000
20	0	0	1753	1418	3830	4000
21	0	0	1714	1416	3830	3999
22	0	0	1660	1419	3830	3997
23	0	0	1689	1421	3830	3999
24	0	0	1773	1423	3829	3996
25	0	0	1861	1423	3830	4000
26	0	0	1970	1422	3831	3998
27	0	0	2079	1423	3831	3999
28	0	0	2184	1421	3830	3996
29	0	0	2269	1422	3830	3994
30	0	0	2333	1422	3830	3997
31	0	0	2392	1423	3830	3997
32	0	0	2472	1422	3829	3997
33	0	0	2458	1417	3830	3998
34	0	0	2384	1417	3830	3998
35	0	0	2289	1418	3830	3998
36	0	0	2140	1417	3831	4000
37	0	0	1999	1418	3830	3997
38	0	0	1897	1417	3830	3998
39	0	0	1816	1418	3831	3999
40	0	0	1762	1419	3832	3999
41	0	0	1725	1417	3832	3999
42	0	0	1624	1417	3830	3998
43	0	0	1640	1424	3829	3998
44	0	0	1730	1422	3830	3996
45	0	0	1830	1423	3831	3999
46	0	0	1934	1424	3828	3999
47	0	0	2112	1421	3829	3998
48	0	0	2223	1421	3829	3998
49	0	0	2300	1421	3830	3998
50	0	0	2349	1422	3830	3998
51	0	0	2402	1421	3830	3998
52	0	0	2492	1422	3830	3997
53	0	0	2474	1418	3830	3998
54	0	0	2388	1419	3829	3999
55	0	0	2289	1418	3830	4000
56	0	0	2145	1417	3831	4000
57	0	0	2006	1417	3831	3998
58	0	0	1897	1416	3831	4000
59	0	0	1813	1419	3830	3999
60	0	0	1757	1418	3832	3999
61	0	0	1715	1418	3831	4000
62	0	0	1663	1418	3829	3998
63	0	0	1694	1424	3829	3998
64	0	0	1772	1421	3829	3998
65	0	0	1855	1422	3830	4000
66	0	0	1957	1422	3829	3999
67	0	0	2062	1423	3830	3998
68	0	0	2166	1421	3830	3997
69	0	0	2259	1422	3829	3998
70	0	0	2320	1421	3830	3999
71	0	0	2377	1420	3830	4000
72	0	0	2472	1421	3829	3999
73	0	0	2460	1418	3832	3999
74	0	0	2390	1418	3830	3998
75	0	0	2292	1417	3832	3999
76	0	0	2143	1417	3830	4000
77	0	0	2006	1417	3831	4000
78	0	0	1898	1416	3830	3999
79	0	0	1812	1417	3830	3998
80	0	0	1757	1418	3830	3999
81	0	0	1702	1418	3829	3999
82	0	0	1604	1417	3829	3999
83	0	0	1632	1420	3830	3999
84	0	0	1728	1420	3830	3998
85	0	0	1817	1421	3830	3998
86	0	0	1970	1424	3830	3999
87	0	0	2106	1424	3829	3998
88	0	0	2209	1421	3830	3999
89	0	0	2291	1421	3830	3999
90	0	0	2345	1421	3832	3999
91	0	0	2394	1421	3832	3999
92	0	0	2479	1421	3830	3998
93	0	0	2464	1418	3832	3999
94	0	0	2387	1418	3828	4000
95	0	0	2287	1417	3832	4000
96	0	0	2137	1416	3830	4000
97	0	0	2001	1417	3829	3997
98	0	0	1897	1416	3831	3998
99	0	0	1816	1416	3829	3998
100	0	0	1761	1418	3828	3999
101	0	0	1719	1418	3830	3999
102	0	0	1667	1418	3830	3998
103	0	0	1695	1421	3830	3999
104	0	0	1776	1421	3830	3999
105	0	0	1863	1421	3832	4000
106	0	0	1967	1421	3831	4000
107	0	0	2068	1420	3830	3998
108	0	0	2169	1420	3832	3999
109	0	0	2265	1420	3829	3998
110	0	0	2322	1421	3832	3999
111	0	0	2378	1421	3830	3999
112	0	0	2471	1422	3830	3998
113	0	0	2460	1418	3829	3999
114	0	0	2386	1415	3829	3998
115	0	0	2287	1416	3828	3999
116	0	0	2137	1415	3830	3999
117	0	0	1999	1416	3830	3999
118	0	0	1891	1417	3829	3997
119	0	0	1809	1417	3830	3999
120	0	0	1756	1417	3829	3999
121	0	0	1679	1415	3830	3999
122	0	0	1608	1418	3831	4000
123	0	0	1644	1421	3830	3999
124	0	0	1737	1420	3830	3997
125	0	0	1814	1420	3831	3999
126	0	0	2000	1420	3831	3999
127	0	0	2108	1420	3830	3998
0	0	0	2203	1422	3830	3998
1	0	0	2289	1420	3830	3999
2	0	0	2344	1421	3831	3999
3	0	0	2395	1421	3830	3999
4	0	0	2486	1421	3829	3997
5	0	0	2471	1417	3829	3997
6	0	0	2395	1417	3829	3999
7	0	0	2298	1416	3831	3999
8	0	0	2148	1415	3831	4000
9	0	0	2008	1416	3830	3998
10	0	0	1901	1416	3830	3999
11	0	0	1810	1417	3830	3998
12	0	0	1751	1418	3833	4000
13	0	0	1714	1418	3831	4000
14	0	0	1662	1417	3830	3999
15	0	0	1695	1420	3831	4000
16	0	0	1776	1420	3830	3997
17	0	0	1858	1421	3831	3999
18	0	0	1961	1419	3830	3999
19	0	0	2068	1420	3829	3998
20	0	0	2171	1420	3829	3998
21	0	0	2263	1422	3828	3997
22	0	0	2326	1421	3828	3999
23	0	0	2379	1421	3829	3999
24	0	0	2473	1420	3829	4000
25	0	0	2460	1417	3829	3999
26	0	0	2383	1416	3829	3998
27	0	0	2290	1416	3829	3999
28	0	0	2142	1415	3830	3999
29	0	0	2001	1418	3829	3998
30	0	0	1894	1415	3830	3999
31	0	0	1809	1417	3829	3998
32	0	0	1752	1416	3829	3999
33	0	0	1658	1415	3830	4000
34	0	0	1604	1417	3829	3999
35	0	0	1640	1419	3829	3998
36	0	0	1735	1420	3832	3998
37	0	0	1854	1419	3829	3998
38	0	0	2004	1419	3831	3999
39	0	0	2112	1422	3828	3997
40	0	0	2200	1420	3829	3998
41	0	0	2278	1422	3828	3998
42	0	0	2336	1421	3829	3999
43	0	0	2387	1419	3830	3999
44	0	0	2480	1420	3831	3999
45	0	0	2468	1418	3829	3997
46	0	0	2390	1416	3830	4000
47	0	0	2293	1416	3830	4000
48	0	0	2144	1416	3831	3999
49	0	0	2006	1416	3831	4000
50	0	0	1899	1417	3829	3999
51	0	0	1819	1417	3830	4000
52	0	0	1763	1417	3831	4000
53	0	0	1723	1415	3829	4000
54	0	0	1670	1417	3830	4000
55	0	0	1690	1421	3829	3998
56	0	0	1772	1419	3829	3998
57	0	0	1857	1420	3831	3998
58	0	0	1959	1418	3830	3999
59	0	0	2068	1419	3831	3998
60	0	0	2172	1421	3829	3999
61	0	0	2264	1422	3829	3998
62	0	0	2330	1420	3829	3999
63	0	0	2388	1420	3831	3999
64	0	0	2475	1420	3830	3998
65	0	0	2460	1417	3832	3999
66	0	0	2383	1415	3830	4000
67	0	0	2285	1415	3829	3999
68	0	0	2145	1416	3830	3999
69	0	0	2003	1413	3829	3999
70	0	0	1895	1417	3829	3999
71	0	0	1815	1417	3829	3999
72	0	0	1722	1415	3830	4000
73	0	0	1658	1416	3830	3999
74	0	0	1610	1418	3829	3999
75	0	0	1650	1420	3831	4000
76	0	0	1720	1419	3830	3999
77	0	0	1886	1420	3829	3999
78	0	0	2003	1418	3831	3998
79	0	0	2101	1419	3830	3998
80	0	0	2195	1419	3830	3998
81	0	0	2279	1420	3831	4000
82	0	0	2333	1420	3831	4001
83	0	0	2387	1418	3830	3999
84	0	0	2477	1420	3829	3999
85	0	0	2464	1418	3829	3998
86	0	0	2385	1417	3829	3999
87	0	0	2288	1415	3827	3999
88	0	0	2142	1415	3830	3999
89	0	0	2004	1415	3829	3999
90	0	0	1897	1417	3829	3999
91	0	0	1817	1417	3828	3998
92	0	0	1761	1417	3830	4000
93	0	0	1718	1414	3830	3999
94	0	0	1659	1415	3829	3999
95	0	0	1690	1419	3833	4000
96	0	0	1776	1420	3831	3999
97	0	0	1860	1419	3829	3998
98	0	0	1965	1420	3832	3999
99	0	0	2073	1419	3830	3999
100	0	0	2176	1419	3832	3999
101	0	0	2267	1419	3830	4000
102	0	0	2325	1419	3832	4000
103	0	0	2378	1419	3831	3999
104	0	0	2474	1419	3831	3999
105	0	0	2457	1417	3829	3997
106	0	0	2383	1416	3829	3999
107	0	0	2282	1415	3828	3999
108	0	0	2136	1413	3831	3999
109	0	0	1997	1416	3830	3999
110	0	0	1890	1415	3830	3999
111	0	0	1809	1414	3830	3999
112	0	0	1702	1415	3830	3998
113	0	0	1661	1415	3832	3999
114	0	0	1615	1416	3830	3999
115	0	0	1652	1417	3834	3999
116	0	0	1759	1419	3831	3999
117	0	0	1890	1419	3828	3999
118	0	0	1996	1419	3830	4000
119	0	0	2091	1419	3829	3998
120	0	0	2191	1418	3831	3999
121	0	0	2272	1420	3831	4000
122	0	0	2331	1420	3828	3999
123	0	0	2386	1419	3830	4000
124	0	0	2481	1420	3829	3999
125	0	0	2470	1416	3831	4000
126	0	0	2395	1416	3830	4001
127	0	0	2300	1415	3828	3999
0	0	0	2154	1414	3831	3999
1	0	0	2013	1415	3830	3999
2	0	0	1905	1414	3833	4000
3	0	0	1822	1416	3830	4000
4	0	0	1760	1416	3832	4001
5	0	0	1714	1415	3830	3999
6	0	0	1659	1417	3829	3999
7	0	0	1691	1419	3829	4000
8	0	0	1774	1420	3829	3999
9	0	0	1859	1420	3831	4000
10	0	0	1965	1419	3831	3999
11	0	0	2073	1419	3829	3998
12	0	0	2172	1422	3829	4000
13	0	0	2259	1419	3830	3999
14	0	0	2316	1419	3831	4000
15	0	0	2374	1418	3830	3999
16	0	0	2467	1419	3830	3998
17	0	0	2461	1416	3833	4000
18	0	0	2385	1415	3832	4001
19	0	0	2288	1414	3831	3999
20	0	0	2144	1414	3831	4001
21	0	0	2007	1414	3830	3999
22	0	0	1903	1417	3830	4000
23	0	0	1786	1415	3829	3999
24	0	0	1699	1415	3832	4001
25	0	0	1670	1415	3828	4000
26	0	0	1624	1416	3831	4002
27	0	0	1634	1416	3831	3999
28	0	0	1798	1419	3830	3999
29	0	0	1900	1419	3830	4001
30	0	0	1997	1417	3831	3998
31	0	0	2095	1419	3831	4001
32	0	0	2188	1419	3830	3998
33	0	0	2270	1420	3830	3998
34	0	0	2332	1419	3830	3997
35	0	0	2387	1418	3831	4000
36	0	0	2474	1418	3831	3999
37	0	0	2463	1414	3830	4000
38	0	0	2390	1415	3830	3999
39	0	0	2294	1414	3831	4001
40	0	0	2146	1413	3830	4000
41	0	0	2001	1414	3830	3999
42	0	0	1896	1414	3830	3999
43	0	0	1811	1415	3830	4000
44	0	0	1751	1415	3830	3998
45	0	0	1712	1414	3829	4001
46	0	0	1660	1416	3829	3999
47	0	0	1686	1417	3830	4000
48	0	0	1769	1419	3831	4000
49	0	0	1857	1419	3831	3997
50	0	0	1963	1418	3830	3999
51	0	0	2072	1420	3830	3998
52	0	0	2176	1417	3832	4000
53	0	0	2262	1419	3831	4001
54	0	0	2322	1418	3831	3997
55	0	0	2380	1419	3831	4001
56	0	0	2471	1418	3829	3998
57	0	0	2463	1414	3831	3999
58	0	0	2388	1416	3829	3999
59	0	0	2295	1414	3831	3999
60	0	0	2146	1414	3829	4000
61	0	0	2006	1414	3830	3999
62	0	0	1896	1416	3830	4000
63	0	0	1761	1414	3830	4000
64	0	0	1698	1414	3831	4000
65	0	0	1673	1414	3830	4000
66	0	0	1635	1416	3830	3999
67	0	0	1679	1418	3830	3999
68	0	0	1816	1419	3830	3998
69	0	0	1902	1418	3831	3997
70	0	0	1998	1418	3832	4002
71	0	0	2093	1418	3830	3999
72	0	0	2188	1417	3831	3999
73	0	0	2266	1419	3829	3999
74	0	0	2332	1419	3831	3998
75	0	0	2385	1418	3829	3999
76	0	0	2480	1418	3829	3997
77	0	0	2465	1416	3829	3999
78	0	0	2386	1415	3829	3999
79	0	0	2289	1414	3831	3998
80	0	0	2145	1414	3830	4000
81	0	0	2006	1414	3830	3999
82	0	0	1904	1414	3830	3999
83	0	0	1819	1415	3831	4000
84	0	0	1763	1414	3832	4000
85	0	0	1725	1413	3830	4000
86	0	0	1671	1415	3832	4001
87	0	0	1696	1419	3832	3999
88	0	0	1773	1419	3830	3999
89	0	0	1859	1418	3829	3998
90	0	0	1965	1417	3830	3999
91	0	0	2070	1418	3830	3998
92	0	0	2173	1418	3830	3999
93	0	0	2263	1417	3829	4000
94	0	0	2328	1418	3831	3999
95	0	0	2379	1418	3827	3999
96	0	0	2470	1417	3829	4000
97	0	0	2460	1414	3829	3999
98	0	0	2383	1413	3832	3999
99	0	0	2294	1413	3833	3999
100	0	0	2146	1413	3831	3999
101	0	0	2005	1414	3830	3999
102	0	0	1870	1413	3830	3999
103	0	0	1757	1413	3832	4000
104	0	0	1709	1415	3831	3999
105	0	0	1674	1414	3830	4000
106	0	0	1605	1416	3830	3998
107	0	0	1713	1417	3829	3999
108	0	0	1811	1417	3830	3998
109	0	0	1897	1418	3831	3998
110	0	0	1992	1417	3829	3999
111	0	0	2088	1416	3829	3999
112	0	0	2189	1418	3830	4000
113	0	0	2265	1418	3832	4000
114	0	0	2329	1418	3831	3999
115	0	0	2383	1418	3831	3999
116	0	0	2476	1418	3830	3999
117	0	0	2467	1417	3830	3999
118	0	0	2389	1414	3831	4002
119	0	0	2292	1413	3830	4001
120	0	0	2145	1414	3831	4000
121	0	0	2007	1413	3830	3999
122	0	0	1902	1413	3831	4000
123	0	0	1817	1414	3830	3999
124	0	0	1758	1415	3828	4000
125	0	0	1718	1412	3830	4000
126	0	0	1668	1414	3829	3997
127	0	0	1692	1418	3831	4001
0	0	0	1771	1418	3830	4003
1	0	0	1851	1417	3829	4001
2	0	0	1955	1418	3831	4000
3	0	0	2058	1417	3829	3999
4	0	0	2162	1419	3831	4000
5	0	0	2250	1418	3831	3999
6	0	0	2316	1418	3831	4001
7	0	0	2376	1417	3831	4000
8	0	0	2469	1417	3830	3998
9	0	0	2460	1414	3831	4000
10	0	0	2383	1413	3830	4000
11	0	0	2291	1413	3828	4000
12	0	0	2143	1413	3831	4000
13	0	0	1997	1412	3829	3999
14	0	0	1835	1412	3829	4000
15	0	0	1748	1414	3830	3999
16	0	0	1700	1414	3830	4000
17	0	0	1672	1413	3830	3999
18	0	0	1649	1416	3829	3999
19	0	0	1729	1419	3827	3999
20	0	0	1813	1417	3831	3997
21	0	0	1892	1417	3829	4000
22	0	0	1985	1418	3831	4000
23	0	0	2087	1417	3830	3998
24	0	0	2185	1417	3828	4000
25	0	0	2264	1417	3831	3998
26	0	0	2321	1417	3829	4000
27	0	0	2373	1417	3831	3998
28	0	0	2469	1417	3829	3999
29	0	0	2464	1414	3829	3999
30	0	0	2388	1413	3830	3999
31	0	0	2292	1414	3830	4000
32	0	0	2147	1412	3831	4000
33	0	0	2013	1412	3829	3999
34	0	0	1906	1415	3829	3999
35	0	0	1825	1413	3830	4000
36	0	0	1765	1414	3830	4002
37	0	0	1725	1413	3831	4000
38	0	0	1668	1414	3829	3999
39	0	0	1687	1418	3830	3999
40	0	0	1769	1416	3831	3999
41	0	0	1856	1417	3831	4001
42	0	0	1962	1418	3831	3999
43	0	0	2065	1417	3830	3998
44	0	0	2167	1417	3830	3998
45	0	0	2253	1417	3830	3999
46	0	0	2314	1418	3831	4000
47	0	0	2371	1417	3832	4000
48	0	0	2467	1418	3830	4001
49	0	0	2461	1415	3830	3999
50	0	0	2389	1413	3829	4000
51	0	0	2293	1413	3831	4001
52	0	0	2150	1412	3828	4000
53	0	0	1978	1413	3831	4001
54	0	0	1844	1410	3831	3999
55	0	0	1767	1414	3830	4000
56	0	0	1721	1413	3830	4000
57	0	0	1668	1415	3830	4000
58	0	0	1692	1416	3830	3999
59	0	0	1732	1416	3831	4000
60	0	0	1808	1416	3829	3999
61	0	0	1881	1418	3831	4001
62	0	0	1975	1418	3830	3999
63	0	0	2075	1417	3827	3999
64	0	0	2172	1418	3829	3999
65	0	0	2266	1417	3831	3999
66	0	0	2324	1417	3829	3999
67	0	0	2379	1417	3831	4000
68	0	0	2467	1417	3829	3998
69	0	0	2464	1414	3829	4000
70	0	0	2391	1413	3831	3997
71	0	0	2297	1413	3830	4002
72	0	0	2155	1412	3831	3999
73	0	0	2018	1414	3830	4000
74	0	0	1908	1412	3831	4000
75	0	0	1821	1412	3831	3999
76	0	0	1761	1413	3831	4000
77	0	0	1724	1412	3829	4000
78	0	0	1667	1414	3829	3999
79	0	0	1686	1418	3829	3999
80	0	0	1768	1417	3827	4000
81	0	0	1854	1418	3830	4000
82	0	0	1955	1417	3831	4000
83	0	0	2061	1416	3829	3998
84	0	0	2168	1417	3832	4000
85	0	0	2265	1416	3830	3999
86	0	0	2328	1417	3830	4001
87	0	0	2381	1417	3828	4000
88	0	0	2478	1417	3830	3999
89	0	0	2468	1414	3830	3999
90	0	0	2393	1413	3830	3999
91	0	0	2298	1413	3830	4000
92	0	0	2148	1411	3828	4000
93	0	0	1957	1411	3830	3999
94	0	0	1840	1413	3830	3999
95	0	0	1768	1413	3827	4000
96	0	0	1721	1413	3828	4000
97	0	0	1706	1417	3828	3999
98	0	0	1707	1415	3831	4001
99	0	0	1734	1416	3828	4000
100	0	0	1804	1417	3830	3999
101	0	0	1880	1417	3828	3999
102	0	0	1980	1411	3831	3996
103	0	0	2079	1418	3830	3998
104	0	0	2176	1416	3832	4000
105	0	0	2268	1416	3829	4000
106	0	0	2327	1416	3831	3999
107	0	0	2378	1417	3830	4000
108	0	0	2472	1416	3830	3999
109	0	0	2463	1413	3830	4000
110	0	0	2385	1412	3827	4000
111	0	0	2296	1413	3830	3998
112	0	0	2149	1411	3828	4000
113	0	0	2010	1412	3830	3999
114	0	0	1903	1413	3831	4001
115	0	0	1820	1412	3830	3998
116	0	0	1760	1413	3830	4000
117	0	0	1719	1413	3830	4001
118	0	0	1667	1414	3829	3999
119	0	0	1688	1416	3830	3999
120	0	0	1770	1416	3828	3999
121	0	0	1850	1416	3831	3998
122	0	0	1956	1417	3828	3998
123	0	0	2063	1417	3830	3997
124	0	0	2166	1417	3830	3999
125	0	0	2259	1416	3829	3999
126	0	0	2328	1416	3830	3999
127	0	0	2381	1416	3828	3999
0	0	0	2480	1416	3829	3998
1	0	0	2475	1414	3829	3999
2	0	0	2398	1413	3829	4000
3	0	0	2298	1413	3830	4000
4	0	0	2127	1411	3828	4000
5	0	0	1954	1412	3831	4000
6	0	0	1844	1410	3830	3998
7	0	0	1772	1413	3830	4000
8	0	0	1700	1412	3830	3999
9	0	0	1737	1416	3831	4000
10	0	0	1699	1414	3828	4002
11	0	0	1717	1415	3832	4000
12	0	0	1791	1417	3830	3999
13	0	0	1866	1418	3830	3999
14	0	0	1968	1415	3831	4000
15	0	0	2072	1417	3830	3999
16	0	0	2174	1417	3830	3999
17	0	0	2258	1416	3830	3999
18	0	0	2321	1417	3830	3998
19	0	0	2380	1416	3828	4000
20	0	0	2480	1415	3828	3999
21	0	0	2475	1413	3831	4001
22	0	0	2401	1413	3831	3999
23	0	0	2307	1412	3830	3999
24	0	0	2160	1412	3830	3999
25	0	0	2017	1412	3831	4000
26	0	0	1907	1410	3832	3999
27	0	0	1821	1413	3829	3999
28	0	0	1757	1413	3830	3999
29	0	0	1714	1412	3831	3999
30	0	0	1651	1412	3830	3999
31	0	0	1669	1416	3831	4001
32	0	0	1756	1416	3831	4002
33	0	0	1837	1416	3831	3999
34	0	0	1948	1417	3831	3999
35	0	0	2060	1417	3829	3999
36	0	0	2163	1415	3831	4000
37	0	0	2257	1416	3830	3997
38	0	0	2323	1415	3830	3999
39	0	0	2387	1416	3830	4001
40	0	0	2487	1414	3829	3998
41	0	0	2479	1414	3828	4000
42	0	0	2396	1412	3830	4001
43	0	0	2300	1412	3828	4000
44	0	0	2106	1411	3829	4000
45	0	0	1955	1410	3830	3999
46	0	0	1856	1412	3831	4000
47	0	0	1779	1412	3831	4000
48	0	0	1733	1416	3829	3999
49	0	0	1746	1412	3830	3998
50	0	0	1691	1411	3829	3999
51	0	0	1706	1416	3828	4000
52	0	0	1781	1415	3830	4000
53	0	0	1866	1416	3830	3998
54	0	0	1968	1416	3829	4000
55	0	0	2072	1414	3828	3999
56	0	0	2179	1416	3830	4001
57	0	0	2264	1416	3831	3999
58	0	0	2329	1416	3829	3999
59	0	0	2387	1416	3831	3999
60	0	0	2489	1417	3831	4000
61	0	0	2484	1413	3832	4000
62	0	0	2405	1412	3830	4000
63	0	0	2305	1412	3832	4001
64	0	0	2155	1411	3829	4000
65	0	0	2010	1412	3832	4001
66	0	0	1900	1412	3829	3999
67	0	0	1814	1413	3830	4000
68	0	0	1750	1412	3830	3999
69	0	0	1705	1412	3830	4001
70	0	0	1642	1413	3829	3999
71	0	0	1668	1416	3829	3999
72	0	0	1755	1417	3829	4000
73	0	0	1846	1415	3831	4001
74	0	0	1952	1417	3828	4000
75	0	0	2059	1416	3829	3999
76	0	0	2166	1415	3832	3998
77	0	0	2255	1416	3831	4000
78	0	0	2322	1416	3830	4000
79	0	0	2382	1416	3829	4000
80	0	0	2488	1414	3830	3999
81	0	0	2482	1413	3831	4000
82	0	0	2407	1412	3831	4000
83	0	0	2279	1411	3831	3999
84	0	0	2102	1411	3828	4001
85	0	0	1956	1411	3829	3999
86	0	0	1854	1414	3828	4000
87	0	0	1755	1413	3829	4000
88	0	0	1767	1417	3830	4001
89	0	0	1742	1412	3829	4000
90	0	0	1681	1413	3829	3999
91	0	0	1700	1414	3831	3999
92	0	0	1776	1417	3831	4000
93	0	0	1860	1415	3830	3999
94	0	0	1963	1415	3829	3999
95	0	0	2070	1415	3831	4000
96	0	0	2176	1415	3831	3999
97	0	0	2265	1416	3829	3996
98	0	0	2332	1415	3830	4000
99	0	0	2389	1415	3829	4000
100	0	0	2489	1416	3831	4001
101	0	0	2487	1411	3827	4000
102	0	0	2409	1412	3831	3999
103	0	0	2308	1411	3830	4000
104	0	0	2162	1411	3828	4001
105	0	0	2015	1411	3829	4000
106	0	0	1900	1410	3831	3999
107	0	0	1807	1411	3831	3999
108	0	0	1749	1412	3830	4000
109	0	0	1705	1411	3828	4000
110	0	0	1641	1412	3829	3999
111	0	0	1658	1415	3830	4000
112	0	0	1747	1416	3830	3999
113	0	0	1834	1416	3831	4000
114	0	0	1945	1416	3831	3999
115	0	0	2057	1415	3830	4000
116	0	0	2159	1416	3831	4002
117	0	0	2254	1416	3831	4000
118	0	0	2321	1416	3830	3996
119	0	0	2380	1415	3828	4001
120	0	0	2484	1415	3829	3999
121	0	0	2483	1411	3829	3999
122	0	0	2410	1412	3830	4000
123	0	0	2257	1411	3828	4000
124	0	0	2095	1411	3828	4000
125	0	0	1963	1411	3830	3999
126	0	0	1861	1411	3830	4000
127	0	0	1794	1416	3831	3999
0	0	0	1786	1412	3831	4000
1	0	0	1751	1411	3832	4001
2	0	0	1686	1412	3831	4000
3	0	0	1698	1413	3829	3999
4	0	0	1775	1417	3830	4000
5	0	0	1850	1416	3827	4000
6	0	0	1955	1415	3827	4000
7	0	0	2064	1415	3832	3996
8	0	0	2168	1415	3827	4000
9	0	0	2262	1416	3830	3999
10	0	0	2333	1415	3830	4000
11	0	0	2392	1415	3832	4001
12	0	0	2492	1415	3829	3999
13	0	0	2486	1411	3831	3999
14	0	0	2401	1411	3828	4000
15	0	0	2306	1411	3831	4000
16	0	0	2159	1411	3828	4000
17	0	0	2013	1411	3830	4000
18	0	0	1901	1411	3831	4003
19	0	0	1814	1412	3831	4001
20	0	0	1754	1412	3830	4000
21	0	0	1711	1411	3831	4001
22	0	0	1650	1412	3829	4000
23	0	0	1670	1415	3829	3999
24	0	0	1751	1414	3830	3998
25	0	0	1836	1415	3830	4000
26	0	0	1945	1415	3832	4000
27	0	0	2055	1415	3829	3999
28	0	0	2166	1416	3829	4000
29	0	0	2263	1415	3830	3999
30	0	0	2330	1414	3830	4000
31	0	0	2390	1414	3832	3999
32	0	0	2485	1415	3829	3999
33	0	0	2486	1412	3830	3999
34	0	0	2390	1408	3830	4000
35	0	0	2254	1410	3832	4001
36	0	0	2103	1410	3832	4000
37	0	0	1969	1410	3831	4001
38	0	0	1866	1412	3830	3999
39	0	0	1788	1411	3827	4000
40	0	0	1736	1411	3830	3998
41	0	0	1696	1411	3831	4000
42	0	0	1640	1411	3829	3999
43	0	0	1661	1414	3827	4000
44	0	0	1744	1416	3829	3999
45	0	0	1835	1415	3830	3999
46	0	0	1942	1415	3830	4000
47	0	0	2055	1415	3828	4000
48	0	0	2158	1416	3830	3998
49	0	0	2199	1414	3831	4000
50	0	0	2351	1416	3831	3998
51	0	0	2452	1415	3830	4001
52	0	0	2546	1415	3830	4000
53	0	0	2524	1411	3829	4000
54	0	0	2438	1411	3831	4000
55	0	0	2333	1409	3830	4000
56	0	0	2181	1410	3831	3999
57	0	0	2032	1411	3829	3999
58	0	0	1918	1411	3829	4000
59	0	0	1832	1409	3831	3999
60	0	0	1769	1411	3829	4000
61	0	0	1722	1410	3830	4000
62	0	0	1661	1410	3829	3999
63	0	0	1675	1416	3829	3999
64	0	0	1753	1414	3828	4001
65	0	0	1840	1414	3831	3999
66	0	0	1946	1415	3831	3998
67	0	0	2056	1414	3831	4000
68	0	0	2160	1417	3830	3999
69	0	0	2255	1411	3831	4000
70	0	0	2325	1415	3831	4000
71	0	0	2383	1415	3830	4000
72	0	0	2481	1415	3832	4000
73	0	0	2473	1411	3828	4000
74	0	0	2356	1409	3828	4000
75	0	0	2243	1410	3830	4000
76	0	0	2103	1410	3831	3999
77	0	0	1973	1410	3829	3999
78	0	0	1855	1412	3828	4000
79	0	0	1847	1409	3829	4000
80	0	0	1797	1410	3830	3999
81	0	0	1755	1410	3831	4000
82	0	0	1687	1411	3829	3999
83	0	0	1699	1414	3828	4000
84	0	0	1770	1413	3829	4000
85	0	0	1854	1414	3831	3999
86	0	0	1965	1414	3831	3998
87	0	0	2074	1414	3830	3999
88	0	0	2179	1414	3827	4000
89	0	0	2267	1413	3829	4000
90	0	0	2327	1414	3830	4002
91	0	0	2381	1413	3831	4000
92	0	0	2474	1414	3828	3999
93	0	0	2471	1411	3829	3999
94	0	0	2395	1409	3828	4000
95	0	0	2300	1411	3830	3999
96	0	0	2156	1409	3829	3999
97	0	0	2013	1410	3830	3999
98	0	0	1899	1410	3830	4000
99	0	0	1812	1410	3831	4001
100	0	0	1751	1411	3830	4000
101	0	0	1708	1412	3831	3998
102	0	0	1652	1411	3831	4001
103	0	0	1673	1416	3830	3998
104	0	0	1755	1410	3830	3999
105	0	0	1843	1415	3831	4000
106	0	0	1947	1413	3828	4002
107	0	0	2060	1415	3831	4001
108	0	0	2171	1416	3830	3999
109	0	0	2264	1411	3829	3999
110	0	0	2333	1414	3831	4000
111	0	0	2385	1413	3834	3999
112	0	0	2484	1414	3829	3999
113	0	0	2469	1410	3829	3999
114	0	0	2337	1409	3829	4000
115	0	0	2237	1409	3831	3999
116	0	0	2104	1409	3829	4000
117	0	0	1970	1409	3831	4001
118	0	0	1896	1412	3830	3999
119	0	0	1847	1409	3830	4002
120	0	0	1783	1411	3830	3999
121	0	0	1740	1410	3830	3999
122	0	0	1677	1410	3829	3999
123	0	0	1690	1413	3829	4000
124	0	0	1769	1413	3829	4000
125	0	0	1849	1414	3829	3999
126	0	0	1952	1414	3829	4000
127	0	0	2064	1414	3832	3998
0	0	0	2168	1413	3829	3999
1	0	0	2258	1412	3829	4000
2	0	0	2325	1414	3830	3999
3	0	0	2376	1414	3829	3999
4	0	0	2469	1414	3829	4000
5	0	0	2464	1411	3831	3999
6	0	0	2396	1410	3832	4000
7	0	0	2293	1410	3832	4000
8	0	0	2151	1410	3831	4001
9	0	0	2013	1409	3830	4000
10	0	0	1902	1409	3831	3999
11	0	0	1819	1409	3831	4001
12	0	0	1762	1410	3830	4000
13	0	0	1724	1410	3830	4001
14	0	0	1665	1411	3829	3999
15	0	0	1679	1414	3830	4001
16	0	0	1766	1413	3827	4000
17	0	0	1849	1413	3829	3999
18	0	0	1957	1414	3829	3999
19	0	0	2057	1413	3829	4000
20	0	0	2164	1412	3829	3999
21	0	0	2254	1413	3831	4000
22	0	0	2324	1413	3830	4000
23	0	0	2376	1413	3830	4000
24	0	0	2472	1413	3829	3999
25	0	0	2428	1409	3830	3999
26	0	0	2334	1409	3830	4000
27	0	0	2249	1409	3831	4001
28	0	0	2119	1409	3829	4000
29	0	0	1970	1410	3830	4001
30	0	0	1939	1411	3830	4000
31	0	0	1867	1408	3827	4000
32	0	0	1808	1410	3830	4000
33	0	0	1762	1409	3832	4000
34	0	0	1695	1409	3830	3999
35	0	0	1705	1413	3830	3998
36	0	0	1774	1415	3829	3981
37	0	0	1857	1414	3829	3956
38	0	0	1954	1413	3832	3935
39	0	0	2054	1414	3834	3907
40	0	0	2157	1411	3830	3887
41	0	0	2245	1414	3829	3867
42	0	0	2313	1414	3831	3842
43	0	0	2369	1414	3830	3824
44	0	0	2465	1412	3829	3801
45	0	0	2462	1409	3831	3779
46	0	0	2388	1409	3830	3757
47	0	0	2294	1410	3830	3734
48	0	0	2152	1408	3829	3714
49	0	0	2012	1409	3829	3693
50	0	0	1903	1410	3830	3671
51	0	0	1818	1410	3829	3647
52	0	0	1764	1410	3831	3628
53	0	0	1725	1409	3828	3607
54	0	0	1668	1410	3829	3584
55	0	0	1690	1413	3829	3561
56	0	0	1766	1414	3830	3539
57	0	0	1856	1414	3831	3520
58	0	0	1955	1413	3831	3499
59	0	0	2061	1412	3829	3478
60	0	0	2162	1413	3828	3459
61	0	0	2253	1414	3832	3439
62	0	0	2317	1415	3829	3418
63	0	0	2364	1413	3829	3399
64	0	0	2459	1412	3829	3379
65	0	0	2407	1407	3829	3359
66	0	0	2333	1408	3828	3340
67	0	0	2256	1409	3830	3320
68	0	0	2118	1408	3829	3303
69	0	0	2010	1410	3830	3285
70	0	0	1950	1408	3830	3267
71	0	0	1862	1410	3830	3247
72	0	0	1797	1410	3831	3229
73	0	0	1752	1408	3830	3209
74	0	0	1693	1410	3831	3192
75	0	0	1705	1414	3830	3173
76	0	0	1777	1409	3830	3155
77	0	0	1861	1413	3831	3138
78	0	0	1968	1412	3832	3120
79	0	0	2073	1412	3830	3103
80	0	0	2170	1415	3830	3087
81	0	0	2255	1413	3828	3069
82	0	0	2322	1414	3830	3052
83	0	0	2369	1413	3828	3034
84	0	0	2461	1413	3829	3018
85	0	0	2462	1410	3830	3002
86	0	0	2390	1410	3830	2988
87	0	0	2301	1409	3830	2973
88	0	0	2159	1408	3831	2958
89	0	0	2016	1409	3830	2940
90	0	0	1914	1408	3830	2923
91	0	0	1829	1408	3828	2907
92	0	0	1771	1409	3830	2892
93	0	0	1736	1409	3829	2878
94	0	0	1690	1411	3831	2865
95	0	0	1704	1415	3830	2849
96	0	0	1773	1410	3828	2832
97	0	0	1848	1412	3829	2817
98	0	0	1948	1412	3829	2803
99	0	0	2046	1413	3830	2788
100	0	0	2151	1412	3829	2774
101	0	0	2242	1414	3830	2759
102	0	0	2301	1413	3830	2746
103	0	0	2348	1414	3831	2732
104	0	0	2402	1413	3830	2718
105	0	0	2382	1410	3829	2705
106	0	0	2322	1408	3828	2694
107	0	0	2252	1410	3830	2678
108	0	0	2105	1409	3830	2664
109	0	0	2053	1410	3829	2651
110	0	0	1967	1407	3829	2641
111	0	0	1884	1408	3830	2627
112	0	0	1809	1409	3830	2615
113	0	0	1768	1409	3829	2602
114	0	0	1718	1409	3829	2587
115	0	0	1733	1412	3829	2574
116	0	0	1798	1413	3831	2563
117	0	0	1868	1413	3830	2549
118	0	0	1958	1413	3831	2537
119	0	0	2057	1413	3830	2524
120	0	0	2159	1412	3829	2512
121	0	0	2245	1413	3830	2500
122	0	0	2312	1413	3831	2489
123	0	0	2363	1413	3830	2477
124	0	0	2445	1414	3830	2465
125	0	0	2445	1411	3830	2454
126	0	0	2379	1408	3830	2443
127	0	0	2299	1409	3830	2435
0	0	0	2164	1408	3829	2422
1	0	0	2032	1406	3829	2412
2	0	0	1922	1408	3828	2401
3	0	0	1834	1407	3831	2387
4	0	0	1775	1409	3830	2377
5	0	0	1741	1408	3829	2365
6	0	0	1696	1409	3829	2358
7	0	0	1717	1412	3830	2348
8	0	0	1785	1413	3831	2335
9	0	0	1860	1412	3830	2324
10	0	0	1953	1412	3830	2313
11	0	0	2049	1414	3830	2303
12	0	0	2148	1412	3830	2294
13	0	0	2233	1414	3831	2283
14	0	0	2298	1412	3830	2274
15	0	0	2349	1412	3829	2263
16	0	0	2387	1410	3829	2254
17	0	0	2385	1411	3828	2245
18	0	0	2336	1407	3830	2237
19	0	0	2261	1408	3828	2227
20	0	0	2157	1409	3828	2215
21	0	0	2071	1408	3829	2206
22	0	0	1969	1407	3828	2196
23	0	0	1886	1407	3831	2189
24	0	0	1820	1408	3830	2181
25	0	0	1775	1408	3829	2171
26	0	0	1714	1409	3829	2163
27	0	0	1724	1412	3831	2151
28	0	0	1790	1414	3831	2142
29	0	0	1867	1407	3830	2133
30	0	0	1958	1412	3831	2124
31	0	0	2052	1412	3830	2115
32	0	0	2147	1410	3830	2107
33	0	0	2240	1412	3830	2098
34	0	0	2308	1411	3831	2090
35	0	0	2360	1412	3829	2081
36	0	0	2445	1413	3829	2073
37	0	0	2447	1410	3828	2064
38	0	0	2385	1410	3829	2056
39	0	0	2300	1408	3830	2049
40	0	0	2167	1408	3829	2042
41	0	0	2035	1408	3830	2034
42	0	0	1929	1407	3829	2026
43	0	0	1846	1408	3831	2018
44	0	0	1783	1407	3831	2007
45	0	0	1745	1408	3830	1999
46	0	0	1696	1408	3830	1991
47	0	0	1707	1413	3830	1984
48	0	0	1776	1410	3831	1976
49	0	0	1848	1411	3831	1969
50	0	0	1943	1411	3830	1961
51	0	0	2040	1411	3829	1953
52	0	0	2140	1412	3829	1946
53	0	0	2234	1412	3830	1938
54	0	0	2304	1413	3830	1931
55	0	0	2321	1412	3829	1923
56	0	0	2382	1412	3829	1916
57	0	0	2396	1413	3829	1909
58	0	0	2347	1407	3829	1902
59	0	0	2248	1407	3830	1895
60	0	0	2191	1408	3831	1888
61	0	0	2079	1406	3828	1880
62	0	0	1964	1407	3830	1873
63	0	0	1867	1406	3831	1866
64	0	0	1797	1408	3830	1860
65	0	0	1758	1407	3830	1852
66	0	0	1705	1408	3829	1846
67	0	0	1713	1412	3829	1839
68	0	0	1772	1411	3829	1833
69	0	0	1849	1411	3830	1827
70	0	0	1945	1411	3828	1820
71	0	0	2042	1412	3828	1813
72	0	0	2142	1410	3829	1807
73	0	0	2235	1411	3831	1800
74	0	0	2305	1411	3831	1794
75	0	0	2353	1411	3830	1788
76	0	0	2443	1411	3831	1781
77	0	0	2452	1409	3828	1774
78	0	0	2385	1408	3830	1769
79	0	0	2304	1407	3831	1763
80	0	0	2168	1407	3830	1756
81	0	0	2033	1407	3831	1750
82	0	0	1924	1408	3828	1744
83	0	0	1832	1408	3831	1737
84	0	0	1767	1407	3830	1732
85	0	0	1732	1408	3830	1726
86	0	0	1683	1407	3829	1719
87	0	0	1691	1411	3829	1713
88	0	0	1759	1412	3829	1708
89	0	0	1839	1412	3831	1703
90	0	0	1934	1411	3829	1697
91	0	0	2032	1412	3830	1691
92	0	0	2140	1412	3832	1685
93	0	0	2234	1413	3830	1679
94	0	0	2309	1411	3831	1675
95	0	0	2311	1411	3830	1669
96	0	0	2394	1412	3830	1662
97	0	0	2413	1411	3832	1657
98	0	0	2359	1409	3830	1651
99	0	0	2295	1412	3831	1646
100	0	0	2207	1407	3829	1640
101	0	0	2074	1406	3830	1635
102	0	0	1957	1407	3829	1629
103	0	0	1864	1408	3829	1625
104	0	0	1793	1407	3831	1619
105	0	0	1747	1408	3828	1615
106	0	0	1692	1408	3829	1608
107	0	0	1707	1412	3829	1603
108	0	0	1771	1413	3830	1598
109	0	0	1843	1412	3830	1593
110	0	0	1942	1411	3830	1588
111	0	0	2044	1412	3831	1582
112	0	0	2151	1411	3831	1577
113	0	0	2244	1412	3831	1573
114	0	0	2315	1413	3831	1568
115	0	0	2367	1411	3830	1563
116	0	0	2455	1412	3829	1558
117	0	0	2459	1409	3829	1552
118	0	0	2392	1406	3829	1548
119	0	0	2308	1409	3830	1543
120	0	0	2168	1406	3829	1538
121	0	0	2028	1407	3829	1531
122	0	0	1918	1407	3829	1526
123	0	0	1830	1408	3831	1523
124	0	0	1763	1408	3830	1519
125	0	0	1724	1407	3829	1513
126	0	0	1672	1410	3831	1509
127	0	0	1686	1412	3832	1505
0	0	0	1755	1412	3830	1500
1	0	0	1828	1412	3831	1495
2	0	0	1927	1411	3830	1491
3	0	0	2027	1411	3831	1486
4	0	0	2143	1411	3829	1481
5	0	0	2240	1410	3831	1477
6	0	0	2286	1412	3830	1473
7	0	0	2310	1411	3830	1468
8	0	0	2407	1410	3829	1464
9	0	0	2430	1411	3831	1458
10	0	0	2354	1408	3830	1455
11	0	0	2335	1408	3829	1451
12	0	0	2221	1407	3831	1446
13	0	0	2077	1406	3830	1442
14	0	0	1952	1407	3832	1437
15	0	0	1857	1407	3831	1433
16	0	0	1787	1409	3831	1429
17	0	0	1747	1407	3829	1423
18	0	0	1693	1409	3830	1419
19	0	0	1702	1411	3830	1417
20	0	0	1764	1410	3831	1414
21	0	0	1836	1412	3830	1409
22	0	0	1933	1411	3828	1403
23	0	0	2036	1410	3829	1400
24	0	0	2152	1411	3831	1396
25	0	0	2253	1409	3831	1393
26	0	0	2326	1412	3830	1389
27	0	0	2375	1412	3831	1385
28	0	0	2464	1411	3829	1381
29	0	0	2472	1408	3831	1377
30	0	0	2411	1408	3831	1373
31	0	0	2327	1408	3830	1370
32	0	0	2189	1406	3831	1364
33	0	0	2042	1408	3830	1361
34	0	0	1925	1406	3830	1356
35	0	0	1833	1406	3830	1354
36	0	0	1763	1406	3830	1349
37	0	0	1725	1407	3829	1345
38	0	0	1677	1407	3829	1341
39	0	0	1685	1411	3827	1338
40	0	0	1752	1411	3828	1334
41	0	0	1827	1411	3831	1331
42	0	0	1926	1411	3829	1325
43	0	0	2029	1413	3829	1324
44	0	0	2138	1411	3831	1320
45	0	0	2238	1411	3828	1316
46	0	0	2263	1411	3829	1313
47	0	0	2306	1411	3830	1307
48	0	0	2413	1412	3830	1305
49	0	0	2434	1410	3827	1303
50	0	0	2388	1411	3829	1298
51	0	0	2357	1408	3830	1295
52	0	0	2219	1406	3830	1291
53	0	0	2070	1408	3830	1288
54	0	0	1945	1406	3827	1284
55	0	0	1842	1404	3831	1281
56	0	0	1768	1406	3830	1277
57	0	0	1725	1408	3828	1272
58	0	0	1678	1408	3828	1271
59	0	0	1689	1409	3829	1267
60	0	0	1747	1408	3828	1265
61	0	0	1822	1410	3829	1261
62	0	0	1922	1411	3829	1255
63	0	0	2024	1410	3830	1254
64	0	0	2139	1410	3832	1253
65	0	0	2241	1412	3829	1247
66	0	0	2313	1411	3831	1245
67	0	0	2369	1410	3830	1240
68	0	0	2463	1411	3831	1239
69	0	0	2474	1408	3828	1234
70	0	0	2406	1407	3828	1230
71	0	0	2318	1405	3830	1229
72	0	0	2178	1406	3829	1223
73	0	0	2036	1406	3829	1221
74	0	0	1921	1408	3831	1219
75	0	0	1826	1407	3828	1215
76	0	0	1757	1407	3829	1211
77	0	0	1717	1407	3829	1208
78	0	0	1668	1407	3829	1206
79	0	0	1682	1410	3829	1203
80	0	0	1750	1411	3828	1200
81	0	0	1827	1411	3831	1197
82	0	0	1925	1410	3830	1192
83	0	0	2028	1411	3830	1191
84	0	0	2140	1410	3831	1189
85	0	0	2213	1411	3831	1186
86	0	0	2255	1412	3830	1183
87	0	0	2318	1411	3830	1178
88	0	0	2428	1412	3829	1177
89	0	0	2423	1408	3829	1173
90	0	0	2436	1410	3827	1170
91	0	0	2369	1405	3830	1168
92	0	0	2228	1406	3829	1162
93	0	0	2073	1408	3829	1162
94	0	0	1945	1404	3830	1159
95	0	0	1846	1406	3829	1155
96	0	0	1774	1406	3831	1153
97	0	0	1732	1406	3829	1150
98	0	0	1680	1406	3830	1147
99	0	0	1694	1411	3832	1145
100	0	0	1761	1409	3828	1142
101	0	0	1834	1411	3831	1138
102	0	0	1932	1410	3829	1133
103	0	0	2035	1413	3829	1134
104	0	0	2143	1409	3831	1131
105	0	0	2243	1410	3829	1129
106	0	0	2314	1408	3830	1126
107	0	0	2368	1410	3829	1123
108	0	0	2461	1410	3828	1121
109	0	0	2464	1408	3829	1118
110	0	0	2399	1406	3828	1114
111	0	0	2315	1405	3829	1112
112	0	0	2180	1406	3831	1110
113	0	0	2039	1406	3830	1107
114	0	0	1923	1405	3829	1104
115	0	0	1828	1405	3828	1100
116	0	0	1759	1405	3830	1099
117	0	0	1718	1406	3829	1096
118	0	0	1670	1406	3832	1094
119	0	0	1686	1410	3831	1092
120	0	0	1752	1410	3828	1088
121	0	0	1826	1407	3830	1086
122	0	0	1925	1410	3829	1084
123	0	0	2030	1410	3829	1081
124	0	0	2137	1411	3829	1079
125	0	0	2190	1411	3829	1076
126	0	0	2258	1411	3831	1074
127	0	0	2328	1409	3829	1069
0	0	0	2426	1410	3829	1069
1	0	0	2449	1408	3830	1067
2	0	0	2445	1407	3829	1063
3	0	0	2368	1407	3830	1061
4	0	0	2220	1405	3829	1059
5	0	0	2068	1405	3828	1056
6	0	0	1944	1404	3830	1054
7	0	0	1849	1407	3829	1052
8	0	0	1781	1406	3830	1049
9	0	0	1739	1406	3828	1046
10	0	0	1691	1406	3829	1045
11	0	0	1703	1410	3829	1043
12	0	0	1764	1412	3829	1040
13	0	0	1837	1413	3829	1039
14	0	0	1932	1405	3829	1034
15	0	0	2032	1410	3829	1035
16	0	0	2141	1408	3830	1032
17	0	0	2240	1411	3829	1028
18	0	0	2312	1410	3831	1028
19	0	0	2365	1411	3830	1024
20	0	0	2449	1410	3830	1023
21	0	0	2457	1408	3830	1020
22	0	0	2392	1406	3831	1017
23	0	0	2303	1408	3831	1015
24	0	0	2175	1405	3832	1013
25	0	0	2035	1403	3830	1010
26	0	0	1921	1405	3830	1008
27	0	0	1833	1407	3831	1006
28	0	0	1770	1407	3830	1005
29	0	0	1736	1406	3831	1002
30	0	0	1692	1405	3829	999
31	0	0	1699	1406	3830	998
32	0	0	1762	1410	3830	996
33	0	0	1836	1413	3830	994
34	0	0	1934	1410	3831	992
35	0	0	2037	1409	3829	990
36	0	0	2121	1409	3830	987
37	0	0	2183	1410	3831	988
38	0	0	2260	1413	3830	983
39	0	0	2326	1409	3830	981
40	0	0	2412	1409	3830	979
41	0	0	2477	1411	3829	977
42	0	0	2438	1406	3829	974
43	0	0	2346	1405	3831	973
44	0	0	2199	1405	3829	971
45	0	0	2053	1403	3831	969
46	0	0	1935	1405	3832	967
47	0	0	1840	1405	3830	964
48	0	0	1776	1408	3830	963
49	0	0	1737	1406	3829	960
50	0	0	1697	1406	3829	958
51	0	0	1708	1411	3829	958
52	0	0	1770	1409	3829	955
53	0	0	1843	1412	3830	954
54	0	0	1938	1409	3830	951
55	0	0	2042	1410	3830	949
56	0	0	2148	1410	3830	947
57	0	0	2245	1410	3831	946
58	0	0	2314	1411	3830	943
59	0	0	2362	1410	3831	941
60	0	0	2444	1410	3830	940
61	0	0	2453	1408	3829	939
62	0	0	2389	1409	3830	936
63	0	0	2302	1406	3831	933
64	0	0	2171	1404	3829	931
65	0	0	2036	1403	3829	929
66	0	0	1921	1407	3829	927
67	0	0	1831	1405	3830	926
68	0	0	1765	1405	3831	924
69	0	0	1727	1406	3830	922
70	0	0	1686	1405	3829	920
71	0	0	1702	1410	3830	916
72	0	0	1767	1409	3833	918
73	0	0	1844	1413	3831	915
74	0	0	1937	1410	3830	913
75	0	0	2042	1408	3831	912
76	0	0	2098	1409	3831	908
77	0	0	2190	1411	3831	910
78	0	0	2275	1409	3830	906
79	0	0	2331	1409	3829	904
80	0	0	2435	1409	3830	904
81	0	0	2496	1410	3829	902
82	0	0	2433	1406	3831	898
83	0	0	2336	1408	3831	898
84	0	0	2184	1405	3829	895
85	0	0	2036	1404	3829	892
86	0	0	1927	1406	3830	892
87	0	0	1828	1405	3831	890
88	0	0	1756	1405	3831	887
89	0	0	1715	1406	3830	886
90	0	0	1671	1404	3831	884
91	0	0	1691	1410	3829	884
92	0	0	1762	1410	3831	882
93	0	0	1843	1408	3831	880
94	0	0	1945	1409	3829	878
95	0	0	2051	1407	3827	876
96	0	0	2181	1410	3830	872
97	0	0	2309	1410	3831	874
98	0	0	2400	1409	3829	872
99	0	0	2462	1409	3829	870
100	0	0	2577	1408	3829	868
101	0	0	2589	1408	3829	868
102	0	0	2499	1406	3829	865
103	0	0	2365	1404	3830	863
104	0	0	2153	1404	3830	861
105	0	0	1945	1404	3827	860
106	0	0	1780	1404	3831	856
107	0	0	1633	1404	3831	857
108	0	0	1523	1405	3830	854
109	0	0	1461	1405	3829	853
110	0	0	1397	1404	3827	852
111	0	0	1423	1410	3829	851
112	0	0	1528	1410	3827	849
113	0	0	1662	1408	3830	847
114	0	0	1822	1409	3829	846
115	0	0	1975	1410	3827	845
116	0	0	2141	1409	3830	842
117	0	0	2339	1409	3830	842
118	0	0	2498	1408	3830	840
119	0	0	2601	1409	3828	839
120	0	0	2821	1409	3830	836
121	0	0	2879	1409	3829	835
122	0	0	2775	1405	3830	832
123	0	0	2612	1404	3831	831
124	0	0	2364	1403	3830	829
125	0	0	2095	1403	3830	828
126	0	0	1869	1404	3830	827
127	0	0	1677	1404	3830	823
0	0	0	1590	1405	3828	824
1	0	0	1607	1409	3828	822
2	0	0	1622	1408	3830	821
3	0	0	1670	1408	3830	820
4	0	0	1751	1409	3830	818
5	0	0	1835	1409	3829	817
6	0	0	1933	1409	3831	815
7	0	0	2037	1409	3830	814
8	0	0	2141	1408	3830	812
9	0	0	2235	1409	3830	811
10	0	0	2305	1409	3830	810
11	0	0	2353	1408	3829	808
12	0	0	2439	1409	3831	807
13	0	0	2451	1408	3828	805
14	0	0	2389	1405	3832	803
15	0	0	2305	1404	3830	802
16	0	0	2163	1403	3829	800
17	0	0	2021	1404	3830	799
18	0	0	1910	1404	3828	798
19	0	0	1806	1404	3830	796
20	0	0	1664	1403	3829	793
21	0	0	1534	1404	3829	793
22	0	0	1427	1404	3829	792
23	0	0	1403	1408	3830	790
24	0	0	1484	1410	3831	790
25	0	0	1598	1407	3830	787
26	0	0	1755	1408	3830	787
27	0	0	1892	1409	3830	786
28	0	0	2090	1407	3832	785
29	0	0	2314	1408	3832	783
30	0	0	2493	1409	3831	782
31	0	0	2631	1408	3830	780
32	0	0	2866	1408	3831	779
33	0	0	2930	1409	3828	778
34	0	0	2832	1403	3830	775
35	0	0	2673	1405	3830	775
36	0	0	2419	1402	3829	772
37	0	0	2139	1403	3829	771
38	0	0	1890	1402	3830	769
39	0	0	1681	1404	3831	769
40	0	0	1519	1404	3830	767
41	0	0	1415	1403	3829	766
42	0	0	1332	1402	3830	765
43	0	0	1336	1407	3830	764
44	0	0	1438	1407	3831	763
45	0	0	1570	1407	3831	762
46	0	0	1740	1407	3830	760
47	0	0	1935	1408	3830	759
48	0	0	2156	1407	3830	758
49	0	0	2364	1409	3828	756
50	0	0	2533	1407	3828	756
51	0	0	2660	1408	3829	754
52	0	0	2836	1409	3831	753
53	0	0	2891	1408	3828	753
54	0	0	2795	1404	3830	750
55	0	0	2642	1404	3830	749
56	0	0	2395	1402	3829	748
57	0	0	2115	1403	3829	746
58	0	0	1871	1401	3829	745
59	0	0	1667	1403	3829	742
60	0	0	1506	1403	3830	742
61	0	0	1411	1403	3830	742
62	0	0	1331	1403	3830	739
63	0	0	1331	1407	3830	738
64	0	0	1433	1407	3831	738
65	0	0	1571	1407	3830	737
66	0	0	1722	1409	3829	735
67	0	0	1870	1408	3829	734
68	0	0	2093	1408	3830	733
69	0	0	2318	1408	3831	733
70	0	0	2489	1409	3829	731
71	0	0	2666	1407	3829	729
72	0	0	2870	1408	3829	729
73	0	0	2925	1407	3828	726
74	0	0	2823	1404	3828	724
75	0	0	2663	1403	3830	724
76	0	0	2409	1402	3829	723
77	0	0	2125	1403	3830	725
78	0	0	1878	1402	3832	721
79	0	0	1668	1403	3830	717
80	0	0	1509	1403	3829	719
81	0	0	1414	1403	3829	717
82	0	0	1329	1403	3829	716
83	0	0	1331	1409	3828	715
84	0	0	1434	1407	3827	713
85	0	0	1571	1407	3831	713
86	0	0	1741	1408	3828	712
87	0	0	1933	1407	3829	711
88	0	0	2147	1407	3829	710
89	0	0	2357	1407	3828	706
90	0	0	2524	1408	3830	709
91	0	0	2653	1408	3830	707
92	0	0	2833	1408	3829	706
93	0	0	2889	1408	3830	703
94	0	0	2803	1404	3831	703
95	0	0	2643	1405	3831	701
96	0	0	2393	1403	3831	700
97	0	0	2113	1404	3829	699
98	0	0	1869	1402	3830	698
99	0	0	1657	1403	3831	696
100	0	0	1498	1401	3829	696
101	0	0	1400	1403	3830	695
102	0	0	1322	1405	3828	693
103	0	0	1330	1407	3829	692
104	0	0	1432	1408	3830	692
105	0	0	1569	1407	3830	691
106	0	0	1695	1408	3830	690
107	0	0	1879	1408	3829	689
108	0	0	2102	1407	3830	687
109	0	0	2324	1408	3831	687
110	0	0	2491	1405	3830	685
111	0	0	2683	1408	3830	685
112	0	0	2868	1408	3830	684
113	0	0	2917	1407	3829	682
114	0	0	2820	1404	3829	682
115	0	0	2660	1401	3831	679
116	0	0	2407	1402	3829	678
117	0	0	2126	1403	3828	652
118	0	0	1874	1403	3828	677
119	0	0	1665	1402	3829	676
120	0	0	1505	1401	3828	675
121	0	0	1404	1402	3829	674
122	0	0	1324	1404	3830	673
123	0	0	1331	1407	3830	670
124	0	0	1434	1407	3829	671
125	0	0	1566	1408	3831	671
126	0	0	1736	1408	3830	671
127	0	0	1937	1407	3832	669
0	0	0	2159	1407	3831	668
1	0	0	2369	1408	3831	667
2	0	0	2537	1406	3831	665
3	0	0	2661	1407	3829	664
4	0	0	2832	1407	3829	663
5	0	0	2896	1409	3827	662
6	0	0	2807	1404	3829	661
7	0	0	2651	1403	3828	661
8	0	0	2402	1403	3830	659
9	0	0	2116	1403	3829	658
10	0	0	1872	1402	3830	658
11	0	0	1668	1402	3828	656
12	0	0	1513	1402	3830	655
13	0	0	1409	1402	3830	653
14	0	0	1318	1403	3830	653
15	0	0	1321	1408	3831	652
16	0	0	1425	1406	3829	652
17	0	0	1548	1405	3831	651
18	0	0	1675	1407	3830	649
19	0	0	1871	1407	3830	648
20	0	0	2105	1408	3830	649
21	0	0	2318	1406	3830	647
22	0	0	2531	1408	3831	646
23	0	0	2692	1408	3831	646
24	0	0	2872	1408	3828	645
25	0	0	2925	1406	3829	643
26	0	0	2825	1403	3827	643
27	0	0	2661	1400	3830	642
28	0	0	2404	1401	3829	640
29	0	0	2121	1403	3829	639
30	0	0	1874	1403	3829	637
31	0	0	1667	1402	3829	637
32	0	0	1509	1402	3831	636
33	0	0	1403	1403	3830	636
34	0	0	1320	1403	3832	635
35	0	0	1323	1407	3829	631
36	0	0	1431	1407	3831	633
37	0	0	1569	1405	3831	631
38	0	0	1743	1407	3831	631
39	0	0	1938	1406	3829	630
40	0	0	2160	1408	3829	630
41	0	0	2365	1407	3829	629
42	0	0	2527	1407	3831	627
43	0	0	2655	1407	3828	627
44	0	0	2833	1409	3829	626
45	0	0	2891	1406	3829	625
46	0	0	2798	1403	3828	624
47	0	0	2648	1402	3830	623
48	0	0	2393	1402	3830	622
49	0	0	2117	1401	3832	620
50	0	0	1872	1400	3830	621
51	0	0	1663	1402	3831	620
52	0	0	1502	1402	3831	618
53	0	0	1398	1402	3829	617
54	0	0	1309	1402	3829	616
55	0	0	1316	1407	3829	615
56	0	0	1422	1406	3830	615
57	0	0	1516	1406	3830	614
58	0	0	1674	1406	3829	614
59	0	0	1874	1406	3829	613
60	0	0	2110	1408	3829	612
61	0	0	2318	1407	3828	611
62	0	0	2553	1407	3830	610
63	0	0	2693	1403	3828	609
64	0	0	2871	1407	3832	608
65	0	0	2918	1406	3831	606
66	0	0	2820	1403	3830	607
67	0	0	2660	1402	3832	606
68	0	0	2404	1402	3831	605
69	0	0	2122	1402	3830	604
70	0	0	1872	1402	3830	601
71	0	0	1665	1402	3828	603
72	0	0	1507	1402	3830	601
73	0	0	1404	1402	3829	601
74	0	0	1321	1402	3829	601
75	0	0	1325	1408	3829	600
76	0	0	1433	1407	3830	599
77	0	0	1565	1408	3831	600
78	0	0	1735	1407	3830	597
79	0	0	1930	1406	3829	596
80	0	0	2151	1406	3831	596
81	0	0	2363	1407	3829	595
82	0	0	2535	1406	3831	595
83	0	0	2658	1407	3830	593
84	0	0	2833	1405	3831	592
85	0	0	2894	1406	3831	590
86	0	0	2799	1403	3830	591
87	0	0	2647	1402	3830	589
88	0	0	2395	1402	3829	589
89	0	0	2111	1401	3829	589
90	0	0	1871	1402	3828	585
91	0	0	1663	1401	3829	587
92	0	0	1499	1401	3830	585
93	0	0	1396	1402	3829	586
94	0	0	1318	1402	3829	584
95	0	0	1322	1406	3830	583
96	0	0	1415	1406	3830	583
97	0	0	1499	1406	3830	582
98	0	0	1674	1406	3831	581
99	0	0	1882	1409	3832	582
100	0	0	2107	1407	3829	579
101	0	0	2358	1407	3833	579
102	0	0	2566	1408	3831	579
103	0	0	2693	1405	3829	578
104	0	0	2863	1405	3829	576
105	0	0	2914	1406	3828	576
106	0	0	2813	1402	3830	574
107	0	0	2659	1402	3829	574
108	0	0	2407	1401	3829	573
109	0	0	2127	1401	3829	573
110	0	0	1883	1401	3829	573
111	0	0	1675	1402	3831	570
112	0	0	1513	1401	3830	572
113	0	0	1408	1402	3830	570
114	0	0	1323	1402	3830	569
115	0	0	1325	1407	3829	568
116	0	0	1428	1407	3829	566
117	0	0	1567	1406	3832	566
118	0	0	1734	1405	3830	568
119	0	0	1927	1404	3831	565
120	0	0	2143	1407	3829	562
121	0	0	2360	1407	3830	563
122	0	0	2533	1406	3829	564
123	0	0	2661	1406	3829	563
124	0	0	2839	1406	3829	562
125	0	0	2896	1407	3828	561
126	0	0	2804	1403	3829	560
127	0	0	2647	1401	3829	559
0	0	0	2395	1401	3829	559
1	0	0	2114	1401	3829	559
2	0	0	1866	1401	3830	558
3	0	0	1662	1402	3831	557
4	0	0	1506	1401	3829	556
5	0	0	1404	1402	3831	555
6	0	0	1322	1402	3830	555
7	0	0	1321	1406	3830	554
8	0	0	1389	1406	3831	554
9	0	0	1502	1406	3829	553
10	0	0	1683	1408	3830	553
11	0	0	1892	1405	3830	551
12	0	0	2098	1405	3829	551
13	0	0	2387	1406	3831	549
14	0	0	2573	1405	3829	549
15	0	0	2692	1406	3829	548
16	0	0	2865	1406	3829	548
17	0	0	2915	1404	3829	547
18	0	0	2821	1402	3830	546
19	0	0	2669	1402	3830	546
20	0	0	2416	1401	3829	546
21	0	0	2135	1400	3830	547
22	0	0	1882	1400	3831	543
23	0	0	1674	1400	3831	544
24	0	0	1509	1401	3830	543
25	0	0	1403	1402	3830	542
26	0	0	1315	1401	3829	541
27	0	0	1315	1405	3830	540
28	0	0	1426	1407	3831	539
29	0	0	1562	1406	3829	540
30	0	0	1727	1404	3826	539
31	0	0	1924	1406	3829	538
32	0	0	2147	1405	3830	539
33	0	0	2362	1406	3831	536
34	0	0	2535	1407	3830	536
35	0	0	2661	1406	3830	535
36	0	0	2835	1408	3831	536
37	0	0	2898	1406	3831	537
38	0	0	2806	1401	3830	531
39	0	0	2657	1401	3831	533
40	0	0	2403	1400	3830	532
41	0	0	2124	1403	3831	532
42	0	0	1875	1401	3831	531
43	0	0	1670	1400	3828	529
44	0	0	1513	1401	3831	530
45	0	0	1405	1401	3829	528
46	0	0	1320	1402	3828	528
47	0	0	1315	1405	3830	528
48	0	0	1372	1405	3828	525
49	0	0	1508	1405	3828	526
50	0	0	1689	1405	3829	526
51	0	0	1895	1404	3835	526
52	0	0	2142	1407	3829	524
53	0	0	2391	1406	3829	524
54	0	0	2564	1406	3831	523
55	0	0	2688	1406	3830	523
56	0	0	2861	1405	3830	522
57	0	0	2910	1404	3831	520
58	0	0	2816	1402	3831	520
59	0	0	2665	1401	3830	520
60	0	0	2415	1400	3830	519
61	0	0	2126	1400	3827	518
62	0	0	1871	1400	3830	518
63	0	0	1668	1401	3829	517
64	0	0	1505	1400	3831	518
65	0	0	1404	1401	3831	517
66	0	0	1324	1401	3827	515
67	0	0	1321	1405	3829	515
68	0	0	1423	1405	3829	511
69	0	0	1555	1406	3831	514
70	0	0	1721	1405	3830	515
71	0	0	1916	1405	3831	514
72	0	0	2135	1405	3831	513
73	0	0	2353	1406	3831	510
74	0	0	2522	1405	3831	511
75	0	0	2651	1405	3830	509
76	0	0	2830	1405	3829	509
77	0	0	2896	1405	3830	509
78	0	0	2808	1401	3829	508
79	0	0	2656	1401	3831	508
80	0	0	2402	1400	3829	506
81	0	0	2121	1400	3829	506
82	0	0	1873	1400	3830	505
83	0	0	1672	1400	3830	505
84	0	0	1512	1401	3831	504
85	0	0	1403	1401	3831	503
86	0	0	1319	1403	3830	503
87	0	0	1279	1403	3830	502
88	0	0	1363	1405	3830	501
89	0	0	1508	1405	3831	501
90	0	0	1687	1404	3830	501
91	0	0	1868	1408	3829	500
92	0	0	2166	1405	3831	498
93	0	0	2400	1405	3828	497
94	0	0	2568	1408	3831	499
95	0	0	2688	1405	3826	498
96	0	0	2860	1405	3829	498
97	0	0	2920	1405	3828	495
98	0	0	2816	1402	3831	494
99	0	0	2662	1400	3830	495
100	0	0	2409	1400	3829	495
101	0	0	2126	1400	3829	495
102	0	0	1871	1400	3831	496
103	0	0	1667	1400	3830	493
104	0	0	1506	1401	3831	493
105	0	0	1402	1401	3830	492
106	0	0	1319	1400	3830	491
107	0	0	1318	1405	3830	491
108	0	0	1423	1404	3828	491
109	0	0	1563	1404	3831	490
110	0	0	1732	1405	3829	490
111	0	0	1923	1405	3829	489
112	0	0	2151	1404	3831	488
113	0	0	2359	1405	3827	488
114	0	0	2528	1405	3828	487
115	0	0	2657	1406	3831	487
116	0	0	2838	1407	3829	484
117	0	0	2894	1405	3830	486
118	0	0	2804	1401	3833	486
119	0	0	2649	1402	3832	487
120	0	0	2400	1400	3830	485
121	0	0	2119	1400	3830	484
122	0	0	1876	1400	3831	482
123	0	0	1672	1400	3830	482
124	0	0	1512	1399	3831	481
125	0	0	1410	1401	3830	482
126	0	0	1318	1400	3830	482
127	0	0	1270	1404	3831	480
0	0	0	1368	1407	3828	479
1	0	0	1511	1405	3828	479
2	0	0	1692	1404	3828	479
3	0	0	1903	1405	3828	478
4	0	0	2176	1406	3829	475
5	0	0	2396	1406	3830	477
6	0	0	2556	1405	3832	477
7	0	0	2672	1405	3829	479
8	0	0	2846	1405	3830	475
9	0	0	2907	1405	3830	475
10	0	0	2814	1401	3828	475
11	0	0	2661	1399	3828	474
12	0	0	2407	1400	3830	473
13	0	0	2130	1400	3830	473
14	0	0	1883	1400	3830	472
15	0	0	1672	1401	3828	473
16	0	0	1511	1400	3831	472
17	0	0	1408	1400	3829	471
18	0	0	1325	1401	3829	470
19	0	0	1319	1404	3829	470
20	0	0	1428	1405	3830	469
21	0	0	1568	1405	3828	469
22	0	0	1740	1406	3831	468
23	0	0	1934	1407	3830	468
24	0	0	2144	1405	3829	467
25	0	0	2355	1405	3830	466
26	0	0	2528	1404	3830	466
27	0	0	2658	1404	3830	467
28	0	0	2836	1404	3831	466
29	0	0	2902	1404	3829	466
30	0	0	2809	1401	3831	463
31	0	0	2657	1401	3831	464
32	0	0	2405	1400	3829	464
33	0	0	2121	1399	3831	461
34	0	0	1870	1400	3828	462
35	0	0	1666	1400	3831	462
36	0	0	1505	1401	3828	461
37	0	0	1403	1400	3829	461
38	0	0	1299	1400	3829	460
39	0	0	1274	1405	3827	460
40	0	0	1385	1405	3828	461
41	0	0	1522	1402	3828	459
42	0	0	1681	1405	3831	459
43	0	0	1942	1407	3831	459
44	0	0	2180	1405	3831	458
45	0	0	2394	1405	3833	457
46	0	0	2560	1403	3831	455
47	0	0	2679	1403	3829	456
48	0	0	2857	1405	3830	455
49	0	0	2923	1404	3827	457
50	0	0	2827	1400	3830	453
51	0	0	2674	1399	3830	455
52	0	0	2421	1400	3829	453
53	0	0	2137	1399	3830	454
54	0	0	1885	1400	3827	453
55	0	0	1677	1400	3830	451
56	0	0	1517	1400	3828	452
57	0	0	1408	1400	3830	452
58	0	0	1322	1399	3831	452
59	0	0	1318	1406	3831	453
60	0	0	1419	1404	3832	449
61	0	0	1551	1404	3832	450
62	0	0	1722	1404	3830	449
63	0	0	1916	1405	3832	449
64	0	0	2137	1405	3832	452
65	0	0	2347	1404	3830	448
66	0	0	2521	1404	3828	447
67	0	0	2655	1404	3829	447
68	0	0	2826	1405	3831	447
69	0	0	2894	1404	3829	446
70	0	0	2805	1401	3830	445
71	0	0	2651	1399	3828	445
72	0	0	2401	1400	3830	445
73	0	0	2121	1399	3832	445
74	0	0	1876	1399	3827	445
75	0	0	1668	1400	3831	441
76	0	0	1504	1400	3830	443
77	0	0	1400	1400	3830	442
78	0	0	1277	1399	3832	441
79	0	0	1273	1403	3828	443
80	0	0	1385	1404	3830	441
81	0	0	1523	1404	3831	440
82	0	0	1720	1405	3829	440
83	0	0	1962	1403	3829	439
84	0	0	2189	1404	3827	441
85	0	0	2390	1404	3829	436
86	0	0	2554	1405	3830	437
87	0	0	2667	1404	3829	437
88	0	0	2839	1404	3829	438
89	0	0	2900	1403	3828	439
90	0	0	2812	1401	3830	435
91	0	0	2661	1399	3829	435
92	0	0	2412	1399	3828	437
93	0	0	2136	1400	3830	435
94	0	0	1882	1399	3828	437
95	0	0	1675	1399	3829	432
96	0	0	1518	1399	3831	433
97	0	0	1408	1400	3829	433
98	0	0	1320	1400	3829	433
99	0	0	1314	1404	3828	433
100	0	0	1420	1404	3829	432
101	0	0	1550	1403	3828	432
102	0	0	1721	1404	3833	431
103	0	0	1917	1404	3829	431
104	0	0	2137	1404	3826	431
105	0	0	2355	1404	3829	428
106	0	0	2529	1404	3831	429
107	0	0	2655	1404	3829	429
108	0	0	2832	1403	3831	429
109	0	0	2895	1404	3831	428
110	0	0	2809	1399	3830	426
111	0	0	2664	1401	3832	427
112	0	0	2416	1399	3830	427
113	0	0	2131	1398	3831	427
114	0	0	1881	1398	3831	424
115	0	0	1668	1399	3831	424
116	0	0	1509	1400	3831	427
117	0	0	1374	1399	3829	425
118	0	0	1260	1399	3831	426
119	0	0	1263	1404	3830	425
120	0	0	1375	1404	3830	424
121	0	0	1498	1404	3830	424
122	0	0	1731	1404	3829	424
123	0	0	1951	1404	3830	423
124	0	0	2171	1404	3831	423
125	0	0	2376	1404	3831	420
126	0	0	2544	1404	3831	421
127	0	0	2666	1404	3830	421
0	0	0	2850	1404	3830	421
1	0	0	2914	1405	3830	420
2	0	0	2824	1400	3831	419
3	0	0	2673	1400	3830	418
4	0	0	2422	1399	3830	419
5	0	0	2140	1396	3831	418
6	0	0	1888	1400	3829	419
7	0	0	1675	1400	3828	418
8	0	0	1512	1399	3827	416
9	0	0	1408	1401	3829	417
10	0	0	1322	1400	3831	417
11	0	0	1321	1404	3829	416
12	0	0	1417	1402	3828	415
13	0	0	1552	1406	3829	415
14	0	0	1722	1403	3830	415
15	0	0	1903	1403	3830	415
16	0	0	2122	1404	3831	413
17	0	0	2340	1404	3830	412
18	0	0	2515	1403	3828	414
19	0	0	2650	1405	3831	414
20	0	0	2836	1402	3831	412
21	0	0	2905	1404	3830	413
22	0	0	2821	1400	3829	411
23	0	0	2671	1397	3827	414
24	0	0	2420	1400	3829	411
25	0	0	2144	1397	3831	410
26	0	0	1887	1399	3831	408
27	0	0	1676	1399	3830	412
28	0	0	1513	1399	3829	410
29	0	0	1359	1399	3829	409
30	0	0	1266	1399	3831	408
31	0	0	1275	1404	3831	407
32	0	0	1392	1406	3830	408
33	0	0	1530	1402	3829	408
34	0	0	1755	1404	3830	409
35	0	0	1958	1403	3831	407
36	0	0	2177	1405	3831	407
37	0	0	2392	1405	3830	408
38	0	0	2560	1404	3831	406
39	0	0	2681	1403	3829	408
40	0	0	2862	1404	3830	405
41	0	0	2936	1404	3830	405
42	0	0	2846	1399	3830	405
43	0	0	2689	1399	3828	403
44	0	0	2433	1398	3829	403
45	0	0	2151	1398	3830	403
46	0	0	1908	1400	3830	404
47	0	0	1693	1398	3830	404
48	0	0	1524	1398	3829	402
49	0	0	1412	1399	3830	401
50	0	0	1329	1398	3830	401
51	0	0	1323	1404	3830	401
52	0	0	1423	1404	3831	400
53	0	0	1559	1404	3825	399
54	0	0	1727	1403	3831	400
55	0	0	1923	1399	3831	400
56	0	0	2145	1405	3830	399
57	0	0	2363	1403	3830	399
58	0	0	2535	1404	3829	399
59	0	0	2665	1403	3828	398
60	0	0	2847	1404	3831	398
61	0	0	2921	1405	3830	394
62	0	0	2834	1400	3831	400
63	0	0	2688	1399	3831	397
64	0	0	2430	1398	3830	397
65	0	0	2145	1399	3831	395
66	0	0	1888	1400	3832	397
67	0	0	1676	1398	3831	396
68	0	0	1490	1399	3829	394
69	0	0	1339	1399	3830	394
70	0	0	1262	1399	3829	394
71	0	0	1271	1404	3830	392
72	0	0	1371	1404	3829	394
73	0	0	1557	1402	3832	396
74	0	0	1756	1403	3831	396
75	0	0	1951	1401	3827	395
76	0	0	2171	1405	3830	395
77	0	0	2381	1404	3831	392
78	0	0	2558	1403	3828	391
79	0	0	2688	1403	3831	391
80	0	0	2866	1401	3828	394
81	0	0	2940	1404	3832	395
82	0	0	2848	1399	3831	391
83	0	0	2687	1398	3829	389
84	0	0	2433	1398	3830	391
85	0	0	2143	1398	3829	388
86	0	0	1885	1399	3831	386
87	0	0	1676	1398	3830	389
88	0	0	1509	1399	3831	387
89	0	0	1395	1399	3829	387
90	0	0	1314	1400	3829	387
91	0	0	1307	1403	3829	387
92	0	0	1405	1403	3829	391
93	0	0	1541	1402	3828	388
94	0	0	1712	1402	3831	388
95	0	0	1904	1401	3827	386
96	0	0	2130	1405	3832	387
97	0	0	2353	1404	3831	388
98	0	0	2538	1403	3832	388
99	0	0	2673	1403	3830	387
100	0	0	2857	1403	3831	386
101	0	0	2927	1403	3832	384
102	0	0	2842	1400	3830	383
103	0	0	2689	1399	3832	382
104	0	0	2438	1398	3830	382
105	0	0	2148	1398	3829	382
106	0	0	1889	1399	3830	382
107	0	0	1671	1398	3831	382
108	0	0	1463	1398	3830	381
109	0	0	1344	1399	3831	381
110	0	0	1262	1401	3830	378
111	0	0	1269	1401	3831	380
112	0	0	1373	1403	3831	379
113	0	0	1575	1402	3830	379
114	0	0	1750	1403	3830	382
115	0	0	1933	1403	3829	383
116	0	0	2148	1403	3830	382
117	0	0	2370	1403	3831	383
118	0	0	2544	1404	3831	378
119	0	0	2686	1404	3831	377
120	0	0	2876	1403	3829	377
121	0	0	2951	1402	3828	382
122	0	0	2860	1399	3828	376
123	0	0	2705	1399	3831	377
124	0	0	2447	1397	3829	376
125	0	0	2161	1398	3829	377
126	0	0	1904	1397	3831	375
127	0	0	1682	1398	3830	375
0	0	0	1511	1398	3831	375
1	0	0	1395	1398	3830	374
2	0	0	1308	1398	3830	376
3	0	0	1300	1402	3832	374
4	0	0	1404	1404	3831	375
5	0	0	1543	1403	3834	376
6	0	0	1716	1402	3830	376
7	0	0	1912	1404	3830	372
8	0	0	2141	1401	3830	372
9	0	0	2363	1402	3831	372
10	0	0	2541	1402	3831	375
11	0	0	2677	1402	3829	374
12	0	0	2866	1403	3829	375
13	0	0	2939	1403	3830	373
14	0	0	2853	1398	3830	370
15	0	0	2704	1398	3831	371
16	0	0	2451	1398	3830	370
17	0	0	2161	1398	3830	369
18	0	0	1901	1395	3831	368
19	0	0	1668	1398	3829	367
20	0	0	1450	1397	3832	368
21	0	0	1337	1399	3830	368
22	0	0	1251	1399	3830	368
23	0	0	1250	1402	3833	367
24	0	0	1394	1403	3830	365
25	0	0	1566	1401	3831	367
26	0	0	1740	1402	3831	367
27	0	0	1930	1402	3831	369
28	0	0	2155	1398	3830	369
29	0	0	2375	1402	3830	369
30	0	0	2555	1403	3830	368
31	0	0	2688	1403	3832	365
32	0	0	2878	1404	3829	365
33	0	0	2953	1402	3829	367
34	0	0	2865	1399	3829	362
35	0	0	2711	1398	3831	363
36	0	0	2453	1397	3830	363
37	0	0	2160	1398	3830	363
38	0	0	1898	1396	3830	363
39	0	0	1671	1397	3831	361
40	0	0	1494	1397	3831	362
41	0	0	1374	1398	3829	362
42	0	0	1287	1398	3830	362
43	0	0	1282	1401	3831	362
44	0	0	1383	1403	3831	368
45	0	0	1521	1402	3829	362
46	0	0	1698	1402	3830	363
47	0	0	1902	1402	3830	364
48	0	0	2133	1404	3831	360
49	0	0	2357	1403	3830	358
50	0	0	2546	1402	3831	359
51	0	0	2685	1405	3829	362
52	0	0	2877	1402	3831	361
53	0	0	2958	1403	3832	361
54	0	0	2866	1398	3831	360
55	0	0	2715	1399	3831	359
56	0	0	2453	1396	3830	358
57	0	0	2161	1397	3830	358
58	0	0	1899	1398	3831	357
59	0	0	1634	1397	3830	359
60	0	0	1437	1398	3830	356
61	0	0	1324	1398	3829	356
62	0	0	1238	1398	3831	356
63	0	0	1220	1402	3831	356
64	0	0	1395	1402	3830	360
65	0	0	1547	1402	3829	355
66	0	0	1723	1402	3829	355
67	0	0	1923	1402	3831	355
68	0	0	2151	1402	3829	358
69	0	0	2373	1403	3830	356
70	0	0	2561	1402	3830	356
71	0	0	2700	1402	3830	357
72	0	0	2892	1403	3828	351
73	0	0	2976	1401	3830	353
74	0	0	2887	1399	3831	353
75	0	0	2730	1397	3829	353
76	0	0	2465	1398	3829	352
77	0	0	2163	1397	3830	352
78	0	0	1896	1397	3831	351
79	0	0	1669	1397	3829	351
80	0	0	1486	1397	3829	352
81	0	0	1359	1398	3829	350
82	0	0	1263	1397	3831	352
83	0	0	1258	1403	3831	350
84	0	0	1368	1403	3830	352
85	0	0	1507	1401	3830	354
86	0	0	1683	1403	3829	352
87	0	0	1890	1402	3831	352
88	0	0	2131	1402	3831	351
89	0	0	2366	1403	3831	349
90	0	0	2556	1401	3831	349
91	0	0	2707	1403	3830	348
92	0	0	2904	1402	3830	350
93	0	0	2988	1402	3830	350
94	0	0	2896	1401	3829	347
95	0	0	2737	1397	3829	345
96	0	0	2467	1396	3829	347
97	0	0	2160	1397	3831	345
98	0	0	1884	1395	3829	346
99	0	0	1616	1397	3830	348
100	0	0	1427	1397	3829	346
101	0	0	1315	1399	3829	345
102	0	0	1230	1397	3826	346
103	0	0	1251	1400	3828	346
104	0	0	1395	1402	3831	348
105	0	0	1537	1401	3830	346
106	0	0	1708	1402	3830	344
107	0	0	1913	1402	3828	343
108	0	0	2152	1402	3830	344
109	0	0	2383	1401	3830	346
110	0	0	2572	1402	3830	347
111	0	0	2719	1404	3829	346
112	0	0	2924	1402	3831	344
113	0	0	3009	1402	3831	342
114	0	0	2922	1398	3830	343
115	0	0	2758	1397	3829	341
116	0	0	2483	1395	3829	341
117	0	0	2174	1396	3827	339
118	0	0	1890	1396	3828	342
119	0	0	1654	1397	3830	340
120	0	0	1468	1396	3830	342
121	0	0	1342	1396	3831	340
122	0	0	1243	1399	3830	338
123	0	0	1237	1400	3830	339
124	0	0	1347	1403	3831	339
125	0	0	1487	1401	3830	338
126	0	0	1665	1404	3829	342
127	0	0	1878	1402	3829	341
0	0	0	2124	1401	3827	342
1	0	0	2374	1403	3830	344
2	0	0	2566	1402	3829	340
3	0	0	2716	1401	3829	338
4	0	0	2920	1403	3830	336
5	0	0	3008	1402	3830	340
6	0	0	2923	1397	3830	340
7	0	0	2758	1397	3830	338
8	0	0	2483	1397	3829	336
9	0	0	2176	1396	3829	335
10	0	0	1856	1396	3831	337
11	0	0	1597	1397	3831	336
12	0	0	1412	1396	3830	335
13	0	0	1287	1395	3829	335
14	0	0	1190	1397	3829	335
15	0	0	1245	1400	3827	335
16	0	0	1363	1402	3830	341
17	0	0	1502	1401	3829	339
18	0	0	1677	1400	3831	337
19	0	0	1882	1403	3830	334
20	0	0	2125	1400	3830	334
21	0	0	2370	1401	3832	333
22	0	0	2569	1401	3827	336
23	0	0	2722	1400	3829	335
24	0	0	2928	1401	3830	336
25	0	0	3014	1402	3830	336
26	0	0	2923	1398	3831	332
27	0	0	2763	1396	3831	334
28	0	0	2488	1396	3830	331
29	0	0	2173	1395	3830	332
30	0	0	1887	1396	3830	332
31	0	0	1648	1396	3830	334
32	0	0	1452	1396	3830	331
33	0	0	1319	1396	3829	330
34	0	0	1216	1396	3828	330
35	0	0	1200	1402	3831	331
36	0	0	1305	1401	3830	335
37	0	0	1449	1401	3830	332
38	0	0	1635	1401	3830	332
39	0	0	1856	1400	3829	327
40	0	0	2115	1400	3830	329
41	0	0	2368	1401	3831	331
42	0	0	2570	1400	3831	331
43	0	0	2722	1401	3830	331
44	0	0	2932	1401	3831	330
45	0	0	3026	1400	3828	331
46	0	0	2931	1397	3830	327
47	0	0	2765	1396	3830	329
48	0	0	2486	1396	3829	327
49	0	0	2164	1397	3830	326
50	0	0	1824	1394	3830	326
51	0	0	1574	1396	3830	325
52	0	0	1387	1396	3829	328
53	0	0	1261	1397	3833	326
54	0	0	1188	1398	3830	326
55	0	0	1213	1400	3828	326
56	0	0	1326	1401	3830	324
57	0	0	1470	1400	3829	324
58	0	0	1647	1400	3830	325
59	0	0	1854	1400	3830	328
60	0	0	2108	1400	3831	331
61	0	0	2361	1401	3831	327
62	0	0	2572	1400	3831	327
