# bioPlux Text File Format
# Version: 1
# StartDateTime: 2011-07-18 12:11:21
# SamplingFrequency: 1000
# SampledChannels: 1 2 3 4
# SamplingResolution: 12
# AcquiringDevice: 00:07:80:42:0F:8B
# EndOfHeader
0	0	0	236	1648	3747	82
1	0	0	105	1651	3748	81
2	0	0	36	1652	3747	76
3	0	0	2	1657	3747	77
4	0	0	589	1658	3747	76
5	0	0	1258	1657	3747	76
6	0	0	1862	1658	3746	75
7	0	0	2359	1658	3748	78
8	0	0	2849	1656	3747	78
9	0	0	3320	1656	3748	77
10	0	0	3602	1653	3748	77
11	0	0	3766	1655	3747	75
12	0	0	3855	1653	3748	76
13	0	0	3905	1650	3747	76
14	0	0	3931	1649	3747	77
15	0	0	3585	1641	3747	78
16	0	0	2651	1642	3746	76
17	0	0	1651	1643	3746	80
18	0	0	906	1644	3747	81
19	0	0	484	1645	3747	77
20	0	0	241	1646	3748	79
21	0	0	109	1650	3746	75
22	0	0	38	1649	3747	76
23	0	0	26	1655	3747	80
24	0	0	656	1655	3747	79
25	0	0	1316	1654	3748	81
26	0	0	1920	1655	3750	77
27	0	0	2410	1655	3748	77
28	0	0	2897	1653	3748	76
29	0	0	3346	1652	3749	77
30	0	0	3619	1651	3748	76
31	0	0	3776	1649	3750	77
32	0	0	3862	1647	3748	75
33	0	0	3907	1645	3747	76
34	0	0	3929	1643	3748	79
35	0	0	3579	1637	3748	82
36	0	0	2635	1637	3749	82
37	0	0	1634	1636	3748	78
38	0	0	896	1637	3747	80
39	0	0	474	1638	3749	78
40	0	0	238	1640	3747	81
41	0	0	106	1641	3748	82
42	0	0	36	1643	3748	80
43	0	0	2	1647	3747	75
44	0	0	617	1647	3747	75
45	0	0	1286	1644	3747	75
46	0	0	1895	1646	3747	73
47	0	0	2381	1646	3749	79
48	0	0	2879	1644	3747	78
49	0	0	3343	1643	3747	76
50	0	0	3612	1642	3747	77
51	0	0	3773	1639	3746	76
52	0	0	3859	1639	3747	76
53	0	0	3907	1637	3747	76
54	0	0	3929	1637	3746	77
55	0	0	3577	1628	3747	80
56	0	0	2624	1626	3748	78
57	0	0	1638	1631	3747	80
58	0	0	898	1630	3747	80
59	0	0	474	1631	3747	80
60	0	0	238	1633	3748	77
61	0	0	106	1634	3750	79
62	0	0	36	1635	3748	78
63	0	0	1	1633	3747	77
64	0	0	573	1639	3747	79
65	0	0	1252	1641	3746	81
66	0	0	1866	1641	3743	80
67	0	0	2360	1637	3747	79
68	0	0	2859	1637	3747	79
69	0	0	3330	1636	3748	79
70	0	0	3608	1635	3747	78
71	0	0	3767	1633	3749	76
72	0	0	3857	1631	3747	75
73	0	0	3907	1630	3747	77
74	0	0	3929	1630	3747	78
75	0	0	3597	1622	3746	77
76	0	0	2620	1620	3750	79
77	0	0	1626	1620	3749	78
78	0	0	892	1623	3748	79
79	0	0	471	1624	3749	78
80	0	0	234	1626	3748	79
81	0	0	106	1627	3745	82
82	0	0	37	1627	3747	82
83	0	0	2	1629	3747	81
84	0	0	538	1633	3746	78
85	0	0	1217	1633	3747	76
86	0	0	1837	1634	3746	74
87	0	0	2333	1625	3748	79
88	0	0	2843	1632	3748	78
89	0	0	3323	1630	3747	77
90	0	0	3604	1627	3747	77
91	0	0	3768	1627	3747	77
92	0	0	3854	1625	3748	75
93	0	0	3905	1624	3747	76
94	0	0	3931	1623	3748	77
95	0	0	3625	1615	3749	76
96	0	0	2644	1614	3747	79
97	0	0	1629	1615	3747	77
98	0	0	900	1617	3747	81
99	0	0	475	1619	3748	81
100	0	0	239	1620	3747	82
101	0	0	108	1622	3747	79
102	0	0	38	1624	3749	77
103	0	0	2	1624	3746	79
104	0	0	472	1628	3747	77
105	0	0	1156	1628	3747	79
106	0	0	1790	1628	3749	79
107	0	0	2308	1627	3747	77
108	0	0	2831	1627	3748	78
109	0	0	3317	1626	3748	76
110	0	0	3601	1624	3749	80
111	0	0	3768	1622	3747	77
112	0	0	3857	1620	3749	77
113	0	0	3905	1619	3748	77
114	0	0	3930	1618	3748	77
115	0	0	3673	1609	3747	79
116	0	0	2686	1611	3747	79
117	0	0	1656	1610	3747	81
118	0	0	917	1612	3747	78
119	0	0	486	1613	3747	80
120	0	0	243	1617	3746	77
121	0	0	110	1617	3747	78
122	0	0	41	1618	3748	81
123	0	0	4	1619	3749	79
124	0	0	385	1624	3747	79
125	0	0	1088	1624	3748	75
126	0	0	1754	1623	3748	76
127	0	0	2293	1620	3749	78
0	0	0	2835	1621	3748	77
1	0	0	3320	1623	3747	77
2	0	0	3606	1619	3748	79
3	0	0	3769	1618	3747	77
4	0	0	3858	1616	3749	78
5	0	0	3907	1615	3747	73
6	0	0	3931	1613	3747	77
7	0	0	3711	1606	3747	78
8	0	0	2694	1604	3745	81
9	0	0	1643	1607	3748	79
10	0	0	903	1607	3747	78
11	0	0	484	1609	3748	81
12	0	0	245	1610	3748	83
13	0	0	111	1613	3748	82
14	0	0	41	1613	3749	79
15	0	0	6	1615	3749	77
16	0	0	294	1617	3748	75
17	0	0	1014	1617	3748	77
18	0	0	1697	1619	3746	80
19	0	0	2264	1618	3750	80
20	0	0	2860	1617	3747	79
21	0	0	3331	1616	3747	78
22	0	0	3614	1616	3747	76
23	0	0	3776	1613	3747	77
24	0	0	3863	1612	3748	75
25	0	0	3915	1610	3747	78
26	0	0	3936	1607	3748	80
27	0	0	3756	1601	3747	79
28	0	0	2723	1601	3748	78
29	0	0	1645	1601	3749	80
30	0	0	904	1603	3748	81
31	0	0	485	1605	3748	78
32	0	0	247	1606	3749	76
33	0	0	114	1608	3750	79
34	0	0	42	1609	3749	78
35	0	0	8	1610	3748	82
36	0	0	165	1615	3747	79
37	0	0	908	1614	3748	79
38	0	0	1631	1615	3748	77
39	0	0	2238	1614	3748	79
40	0	0	2879	1614	3747	77
41	0	0	3342	1612	3750	77
42	0	0	3623	1612	3747	75
43	0	0	3781	1609	3748	78
44	0	0	3869	1608	3750	75
45	0	0	3916	1606	3747	78
46	0	0	3940	1605	3747	79
47	0	0	3866	1597	3748	77
48	0	0	2833	1598	3749	80
49	0	0	1704	1595	3749	78
50	0	0	937	1599	3748	78
51	0	0	500	1603	3748	78
52	0	0	256	1603	3749	83
53	0	0	122	1605	3748	82
54	0	0	47	1606	3748	80
55	0	0	13	1608	3746	79
56	0	0	41	1610	3749	78
57	0	0	788	1612	3751	76
58	0	0	1556	1611	3746	77
59	0	0	2193	1611	3748	76
60	0	0	2877	1610	3747	77
61	0	0	3346	1609	3748	79
62	0	0	3626	1609	3748	76
63	0	0	3784	1607	3749	77
64	0	0	3871	1605	3749	76
65	0	0	3916	1604	3748	75
66	0	0	3943	1601	3748	79
67	0	0	3918	1596	3749	76
68	0	0	2861	1594	3748	80
69	0	0	1718	1595	3749	79
70	0	0	949	1597	3748	81
71	0	0	512	1598	3748	81
72	0	0	262	1599	3748	79
73	0	0	125	1602	3749	78
74	0	0	51	1605	3749	77
75	0	0	14	1605	3747	78
76	0	0	0	1605	3747	82
77	0	0	645	1608	3747	81
78	0	0	1461	1609	3748	81
79	0	0	2155	1608	3750	79
80	0	0	2889	1607	3748	51
81	0	0	3357	1606	3748	77
82	0	0	3631	1604	3749	78
83	0	0	3788	1604	3748	77
84	0	0	3876	1604	3749	78
85	0	0	3922	1600	3745	78
86	0	0	3948	1599	3748	75
87	0	0	3955	1598	3748	75
88	0	0	3010	1592	3748	79
89	0	0	1794	1592	3748	77
90	0	0	992	1594	3747	79
91	0	0	541	1596	3747	83
92	0	0	277	1599	3748	86
93	0	0	135	1599	3749	82
94	0	0	58	1601	3748	77
95	0	0	16	1602	3747	76
96	0	0	1	1606	3747	78
97	0	0	409	1607	3748	82
98	0	0	1277	1606	3749	79
99	0	0	2075	1606	3750	79
100	0	0	2868	1606	3749	78
101	0	0	3341	1606	3749	77
102	0	0	3626	1604	3752	78
103	0	0	3785	1600	3749	78
104	0	0	3878	1600	3749	77
105	0	0	3924	1598	3747	76
106	0	0	3949	1598	3747	76
107	0	0	3962	1598	3748	77
108	0	0	3300	1592	3747	76
109	0	0	1965	1592	3748	81
110	0	0	1090	1594	3747	79
111	0	0	598	1599	3748	78
112	0	0	309	1599	3747	76
113	0	0	154	1601	3750	79
114	0	0	69	1603	3748	79
115	0	0	27	1604	3748	79
116	0	0	5	1608	3748	79
117	0	0	10	1611	3748	77
118	0	0	846	1611	3751	76
119	0	0	1698	1610	3748	79
120	0	0	2635	1611	3748	79
121	0	0	3206	1609	3747	75
122	0	0	3543	1609	3747	76
123	0	0	3745	1608	3750	77
124	0	0	3856	1607	3747	75
125	0	0	3915	1604	3747	77
126	0	0	3949	1604	3747	77
127	0	0	3959	1603	3747	78
0	0	0	3969	1603	3749	79
1	0	0	3683	1596	3748	77
2	0	0	2006	1597	3749	77
3	0	0	1111	1598	3749	78
4	0	0	607	1600	3748	81
5	0	0	318	1601	3748	79
6	0	0	334	1608	3748	83
7	0	0	1681	1606	3747	78
8	0	0	2644	1610	3748	77
9	0	0	3202	1608	3748	76
10	0	0	3535	1608	3748	76
11	0	0	3723	1606	3748	80
12	0	0	3832	1607	3747	78
13	0	0	3887	1604	3748	77
14	0	0	3920	1603	3748	77
15	0	0	3933	1602	3747	75
16	0	0	3939	1599	3748	77
17	0	0	3936	1592	3747	77
18	0	0	3933	1596	3747	75
19	0	0	3929	1596	3749	79
20	0	0	3925	1597	3751	79
21	0	0	3920	1588	3750	82
22	0	0	2183	1588	3748	81
23	0	0	1191	1592	3748	81
24	0	0	633	1592	3750	79
25	0	0	308	1593	3748	75
26	0	0	128	1595	3749	78
27	0	0	210	1600	3747	79
28	0	0	1557	1600	3745	83
29	0	0	2545	1600	3747	79
30	0	0	3128	1601	3749	79
31	0	0	3464	1595	3746	77
32	0	0	3670	1600	3748	78
33	0	0	3776	1598	3748	77
34	0	0	3837	1596	3747	77
35	0	0	3870	1594	3748	75
36	0	0	3886	1593	3749	76
37	0	0	3891	1590	3748	75
38	0	0	3892	1586	3748	80
39	0	0	3892	1588	3750	79
40	0	0	3889	1587	3748	78
41	0	0	3312	1582	3750	77
42	0	0	1770	1582	3748	78
43	0	0	942	1582	3747	76
44	0	0	470	1587	3748	79
45	0	0	204	1589	3748	79
46	0	0	56	1590	3749	80
47	0	0	0	1590	3747	80
48	0	0	0	1593	3746	77
49	0	0	773	1596	3748	75
50	0	0	2006	1597	3749	76
51	0	0	2791	1597	3750	79
52	0	0	3262	1596	3748	78
53	0	0	3537	1598	3747	77
54	0	0	3697	1595	3749	79
55	0	0	3786	1595	3748	76
56	0	0	3832	1593	3750	77
57	0	0	3856	1591	3748	77
58	0	0	3868	1592	3749	77
59	0	0	3873	1593	3749	79
60	0	0	3174	1587	3748	77
61	0	0	1771	1586	3748	77
62	0	0	947	1590	3748	80
63	0	0	471	1591	3748	81
64	0	0	195	1593	3747	81
65	0	0	50	1596	3748	77
66	0	0	0	1598	3748	80
67	0	0	0	1598	3748	78
68	0	0	0	1601	3749	80
69	0	0	0	1601	3748	81
70	0	0	203	1605	3747	80
71	0	0	1034	1605	3751	79
72	0	0	2038	1604	3748	78
73	0	0	2820	1604	3749	77
74	0	0	3286	1602	3749	78
75	0	0	3558	1603	3749	77
76	0	0	3711	1602	3749	78
77	0	0	3799	1601	3749	77
78	0	0	3845	1600	3747	78
79	0	0	3871	1600	3748	78
80	0	0	2951	1593	3748	78
81	0	0	1638	1594	3749	81
82	0	0	874	1596	3747	81
83	0	0	440	1600	3747	80
84	0	0	193	1600	3750	81
85	0	0	54	1602	3749	80
86	0	0	0	1604	3748	82
87	0	0	0	1605	3746	81
88	0	0	0	1606	3748	80
89	0	0	0	1605	3751	80
90	0	0	285	1611	3749	79
91	0	0	1116	1611	3749	79
92	0	0	2117	1610	3748	78
93	0	0	2871	1609	3748	77
94	0	0	3323	1609	3749	77
95	0	0	3593	1608	3748	76
96	0	0	3739	1606	3747	75
97	0	0	3821	1605	3747	77
98	0	0	3869	1604	3747	78
99	0	0	3892	1604	3748	79
100	0	0	3044	1597	3746	79
101	0	0	1715	1598	3748	80
102	0	0	927	1601	3748	81
103	0	0	479	1602	3748	81
104	0	0	224	1604	3749	82
105	0	0	82	1606	3750	81
106	0	0	7	1609	3751	82
107	0	0	0	1609	3748	82
108	0	0	0	1610	3747	80
109	0	0	0	1611	3749	80
110	0	0	613	1614	3748	79
111	0	0	1516	1614	3749	79
112	0	0	2513	1614	3748	79
113	0	0	3113	1613	3749	75
114	0	0	3471	1611	3748	78
115	0	0	3683	1611	3746	78
116	0	0	3802	1610	3749	77
117	0	0	3864	1608	3747	77
118	0	0	3896	1608	3748	78
119	0	0	3916	1607	3748	78
120	0	0	3558	1601	3750	79
121	0	0	2146	1601	3748	82
122	0	0	1176	1603	3749	81
123	0	0	625	1606	3749	80
124	0	0	313	1607	3747	82
125	0	0	135	1608	3749	79
126	0	0	41	1610	3749	80
127	0	0	0	1613	3748	81
0	0	0	0	1615	3748	80
1	0	0	639	1618	3747	78
2	0	0	1964	1616	3748	79
3	0	0	2790	1616	3746	77
4	0	0	3282	1616	3748	78
5	0	0	3572	1616	3748	77
6	0	0	3735	1615	3748	77
7	0	0	3834	1614	3750	77
8	0	0	3882	1613	3748	77
9	0	0	3904	1611	3748	75
10	0	0	3919	1610	3749	79
11	0	0	3923	1611	3747	78
12	0	0	3922	1610	3749	78
13	0	0	3303	1604	3746	81
14	0	0	1782	1606	3748	81
15	0	0	965	1608	3748	81
16	0	0	502	1609	3749	81
17	0	0	237	1610	3749	79
18	0	0	88	1612	3746	80
19	0	0	807	1618	3747	78
20	0	0	2125	1620	3747	79
21	0	0	2882	1620	3747	80
22	0	0	3323	1620	3748	79
23	0	0	3581	1619	3746	80
24	0	0	3731	1619	3748	77
25	0	0	3813	1619	3748	77
26	0	0	3855	1617	3746	79
27	0	0	3881	1617	3750	77
28	0	0	3890	1615	3747	75
29	0	0	3892	1614	3748	77
30	0	0	3890	1611	3748	77
31	0	0	3887	1612	3746	79
32	0	0	3883	1614	3748	79
33	0	0	3878	1613	3749	80
34	0	0	2442	1609	3747	82
35	0	0	1317	1612	3747	81
36	0	0	683	1613	3747	80
37	0	0	320	1615	3748	80
38	0	0	114	1617	3745	79
39	0	0	1440	1623	3747	79
40	0	0	2459	1624	3747	79
41	0	0	3055	1624	3746	79
42	0	0	3408	1625	3749	77
43	0	0	3610	1624	3750	79
44	0	0	3724	1624	3749	78
45	0	0	3788	1623	3750	78
46	0	0	3821	1624	3750	79
47	0	0	3833	1621	3749	75
48	0	0	3844	1621	3749	77
49	0	0	3844	1619	3747	78
50	0	0	3844	1613	3749	78
51	0	0	3842	1617	3749	78
52	0	0	3836	1619	3748	75
53	0	0	3832	1618	3748	80
54	0	0	2341	1615	3747	81
55	0	0	1239	1616	3748	82
56	0	0	618	1619	3747	80
57	0	0	264	1622	3747	80
58	0	0	64	1623	3750	83
59	0	0	1312	1628	3748	81
60	0	0	2376	1629	3748	80
61	0	0	2981	1630	3747	78
62	0	0	3346	1629	3749	78
63	0	0	3556	1629	3747	79
64	0	0	3676	1630	3748	79
65	0	0	3743	1628	3748	78
66	0	0	3776	1628	3748	77
67	0	0	3794	1627	3749	77
68	0	0	3801	1626	3747	75
69	0	0	3802	1625	3747	76
70	0	0	3798	1622	3748	79
71	0	0	3799	1620	3748	79
72	0	0	3798	1622	3748	80
73	0	0	3792	1619	3748	79
74	0	0	2316	1619	3748	81
75	0	0	1210	1620	3748	81
76	0	0	584	1621	3748	83
77	0	0	226	1624	3749	80
78	0	0	26	1625	3749	79
79	0	0	1067	1631	3748	81
80	0	0	2222	1632	3748	80
81	0	0	2871	1631	3748	79
82	0	0	3267	1632	3748	80
83	0	0	3496	1633	3749	78
84	0	0	3624	1631	3747	78
85	0	0	3696	1632	3749	78
86	0	0	3736	1632	3748	77
87	0	0	3753	1631	3748	74
88	0	0	3764	1631	3749	77
89	0	0	3765	1627	3747	76
90	0	0	3757	1624	3748	78
91	0	0	3760	1626	3747	78
92	0	0	3758	1628	3748	80
93	0	0	3752	1625	3749	82
94	0	0	2403	1622	3749	81
95	0	0	1250	1624	3749	81
96	0	0	591	1628	3749	81
97	0	0	214	1629	3750	81
98	0	0	3	1630	3747	79
99	0	0	679	1638	3747	80
100	0	0	1991	1637	3748	80
101	0	0	2735	1638	3748	80
102	0	0	3165	1639	3748	80
103	0	0	3423	1639	3749	79
104	0	0	3567	1636	3747	78
105	0	0	3651	1638	3747	79
106	0	0	3692	1639	3747	77
107	0	0	3714	1637	3747	75
108	0	0	3726	1636	3747	77
109	0	0	3727	1634	3748	76
110	0	0	3727	1631	3748	77
111	0	0	3724	1631	3749	79
112	0	0	3727	1632	3750	79
113	0	0	3719	1632	3747	80
114	0	0	2363	1632	3748	81
115	0	0	1214	1630	3750	80
116	0	0	555	1633	3749	80
117	0	0	177	1634	3749	80
118	0	0	0	1636	3747	80
119	0	0	581	1644	3745	79
120	0	0	1925	1643	3748	79
121	0	0	2683	1644	3748	77
122	0	0	3121	1644	3748	82
123	0	0	3382	1644	3747	78
124	0	0	3531	1643	3748	78
125	0	0	3609	1642	3748	77
126	0	0	3662	1645	3749	78
127	0	0	3687	1644	3748	76
0	0	0	3693	1642	3747	77
1	0	0	3699	1641	3749	78
2	0	0	3695	1636	3748	80
3	0	0	3693	1636	3747	79
4	0	0	3695	1638	3748	79
5	0	0	3691	1637	3749	81
6	0	0	2698	1634	3747	79
7	0	0	1366	1636	3749	81
8	0	0	636	1640	3748	82
9	0	0	211	1639	3748	80
10	0	0	0	1641	3747	79
11	0	0	942	1647	3747	79
12	0	0	2104	1647	3747	78
13	0	0	2774	1649	3747	80
14	0	0	3165	1647	3748	76
15	0	0	3392	1648	3747	77
16	0	0	3522	1648	3748	77
17	0	0	3591	1646	3748	78
18	0	0	3635	1649	3748	77
19	0	0	3654	1647	3750	77
20	0	0	3661	1646	3747	77
21	0	0	3668	1644	3748	77
22	0	0	3664	1639	3748	77
23	0	0	3662	1642	3748	79
24	0	0	3659	1642	3748	82
25	0	0	3654	1641	3746	80
26	0	0	3047	1639	3747	81
27	0	0	1521	1640	3750	80
28	0	0	708	1645	3748	81
29	0	0	239	1644	3748	84
30	0	0	0	1645	3747	81
31	0	0	1091	1647	3748	80
32	0	0	2164	1654	3747	79
33	0	0	2795	1654	3749	80
34	0	0	3164	1653	3748	82
35	0	0	3375	1654	3750	79
36	0	0	3496	1653	3748	78
37	0	0	3566	1653	3747	75
38	0	0	3601	1653	3748	77
39	0	0	3621	1651	3748	79
40	0	0	3628	1650	3747	75
41	0	0	3633	1649	3749	79
42	0	0	3628	1648	3747	78
43	0	0	3629	1647	3748	79
44	0	0	3627	1647	3748	82
45	0	0	3620	1644	3748	80
46	0	0	2999	1643	3747	80
47	0	0	1479	1644	3747	80
48	0	0	669	1647	3749	81
49	0	0	203	1648	3749	79
50	0	0	0	1649	3747	79
51	0	0	1204	1655	3748	80
52	0	0	2214	1656	3749	81
53	0	0	2810	1656	3748	77
54	0	0	3158	1657	3748	79
55	0	0	3357	1656	3748	77
56	0	0	3470	1656	3747	78
57	0	0	3536	1658	3747	74
58	0	0	3569	1655	3748	77
59	0	0	3588	1655	3750	78
60	0	0	3594	1654	3748	76
61	0	0	3597	1653	3748	77
62	0	0	3592	1648	3748	80
63	0	0	3593	1649	3747	82
64	0	0	3591	1650	3748	79
65	0	0	3586	1648	3750	80
66	0	0	3078	1647	3749	80
67	0	0	1504	1648	3740	81
68	0	0	664	1651	3749	82
69	0	0	187	1651	3749	77
70	0	0	0	1653	3748	80
71	0	0	1035	1658	3747	79
72	0	0	2105	1659	3747	80
73	0	0	2730	1660	3747	79
74	0	0	3098	1660	3749	80
75	0	0	3310	1659	3750	78
76	0	0	3431	1657	3747	77
77	0	0	3500	1658	3747	76
78	0	0	3535	1659	3748	77
79	0	0	3551	1659	3748	77
80	0	0	3560	1656	3750	77
81	0	0	3563	1654	3748	77
82	0	0	3562	1652	3748	78
83	0	0	3562	1652	3750	78
84	0	0	3559	1653	3748	79
85	0	0	3552	1651	3748	81
86	0	0	2964	1649	3749	80
87	0	0	1430	1651	3748	80
88	0	0	608	1654	3748	81
89	0	0	142	1654	3748	80
90	0	0	0	1655	3748	79
91	0	0	872	1660	3747	79
92	0	0	2009	1663	3747	78
93	0	0	2655	1660	3748	79
94	0	0	3044	1663	3747	76
95	0	0	3267	1662	3748	79
96	0	0	3393	1661	3748	78
97	0	0	3464	1661	3749	76
98	0	0	3502	1661	3749	77
99	0	0	3521	1660	3749	74
100	0	0	3531	1659	3751	76
101	0	0	3533	1656	3748	77
102	0	0	3532	1655	3749	79
103	0	0	3527	1652	3749	77
104	0	0	3529	1655	3748	75
105	0	0	3524	1654	3748	80
106	0	0	2806	1652	3747	80
107	0	0	1339	1654	3747	80
108	0	0	544	1653	3747	80
109	0	0	90	1657	3748	79
110	0	0	0	1657	3749	79
111	0	0	579	1664	3747	79
112	0	0	1835	1664	3747	79
113	0	0	2543	1663	3747	79
114	0	0	2966	1665	3748	80
115	0	0	3213	1664	3750	79
116	0	0	3353	1662	3748	77
117	0	0	3430	1664	3748	79
118	0	0	3469	1664	3750	77
119	0	0	3493	1661	3749	77
120	0	0	3505	1662	3749	76
121	0	0	3507	1660	3747	77
122	0	0	3510	1656	3747	79
123	0	0	3509	1655	3748	78
124	0	0	3505	1658	3748	80
125	0	0	3501	1657	3749	80
126	0	0	2863	1654	3748	81
127	0	0	1365	1655	3748	80
0	0	0	551	1655	3750	80
1	0	0	82	1659	3749	80
2	0	0	0	1658	3749	80
3	0	0	641	1667	3748	80
4	0	0	1856	1669	3748	79
5	0	0	2549	1668	3748	82
6	0	0	2955	1669	3749	76
7	0	0	3196	1669	3749	78
8	0	0	3337	1668	3748	79
9	0	0	3407	1668	3748	78
10	0	0	3449	1665	3747	79
11	0	0	3470	1665	3748	75
12	0	0	3481	1665	3747	75
13	0	0	3486	1665	3748	75
14	0	0	3481	1662	3750	78
15	0	0	3481	1660	3748	77
16	0	0	3480	1663	3749	78
17	0	0	3476	1659	3749	79
18	0	0	2857	1658	3743	81
19	0	0	1349	1658	3748	79
20	0	0	532	1659	3748	79
21	0	0	60	1662	3749	82
22	0	0	0	1663	3751	79
23	0	0	826	1670	3752	80
24	0	0	1951	1670	3748	79
25	0	0	2598	1670	3749	83
26	0	0	2970	1671	3749	79
27	0	0	3195	1671	3747	77
28	0	0	3326	1671	3747	78
29	0	0	3391	1669	3747	78
30	0	0	3427	1665	3748	78
31	0	0	3448	1668	3748	78
32	0	0	3456	1667	3747	76
33	0	0	3460	1668	3748	77
34	0	0	3452	1662	3746	79
35	0	0	3455	1663	3748	78
36	0	0	3456	1662	3749	79
37	0	0	3451	1661	3749	80
38	0	0	3102	1660	3749	80
39	0	0	1472	1658	3749	80
40	0	0	591	1662	3749	79
41	0	0	84	1665	3748	82
42	0	0	0	1671	3748	79
43	0	0	1126	1671	3747	80
44	0	0	2109	1672	3748	79
45	0	0	2680	1669	3747	79
46	0	0	3011	1673	3747	79
47	0	0	3206	1673	3747	82
48	0	0	3316	1675	3747	78
49	0	0	3375	1672	3749	75
50	0	0	3408	1671	3747	75
51	0	0	3423	1672	3748	79
52	0	0	3431	1670	3747	76
53	0	0	3433	1669	3747	77
54	0	0	3430	1664	3749	77
55	0	0	3429	1663	3747	75
56	0	0	3430	1670	3748	80
57	0	0	3424	1665	3749	80
58	0	0	3280	1662	3748	80
59	0	0	1628	1663	3748	79
60	0	0	672	1666	3748	80
61	0	0	122	1667	3746	81
62	0	0	0	1673	3748	80
63	0	0	1048	1674	3747	79
64	0	0	2055	1675	3748	79
65	0	0	2636	1673	3747	80
66	0	0	2976	1674	3748	79
67	0	0	3174	1673	3748	80
68	0	0	3285	1673	3748	78
69	0	0	3347	1673	3748	78
70	0	0	3378	1674	3748	76
71	0	0	3398	1673	3749	80
72	0	0	3403	1670	3748	76
73	0	0	3408	1671	3749	78
74	0	0	3406	1666	3747	77
75	0	0	3403	1666	3747	79
76	0	0	3398	1667	3748	79
77	0	0	3397	1666	3747	82
78	0	0	1763	1664	3747	80
79	0	0	808	1672	3749	80
80	0	0	1862	1673	3748	83
81	0	0	2525	1672	3748	79
82	0	0	2900	1673	3747	80
83	0	0	3115	1672	3747	80
84	0	0	3236	1671	3747	79
85	0	0	3304	1673	3747	79
86	0	0	3339	1674	3748	80
87	0	0	3357	1674	3746	82
88	0	0	3368	1674	3750	79
89	0	0	3370	1675	3749	76
90	0	0	3369	1672	3746	79
91	0	0	3372	1673	3749	79
92	0	0	3366	1674	3747	80
93	0	0	3364	1674	3747	79
94	0	0	3360	1675	3747	80
95	0	0	3357	1677	3748	79
96	0	0	3358	1678	3747	79
97	0	0	3350	1675	3747	81
98	0	0	3342	1675	3747	78
99	0	0	3341	1675	3749	80
100	0	0	3341	1675	3747	79
101	0	0	3342	1676	3748	79
102	0	0	3332	1675	3748	80
103	0	0	3329	1677	3747	80
104	0	0	3328	1673	3748	79
105	0	0	3325	1674	3748	79
106	0	0	3323	1675	3750	79
107	0	0	3317	1675	3749	79
108	0	0	3315	1674	3744	79
109	0	0	3312	1675	3748	80
110	0	0	3308	1675	3748	79
111	0	0	3305	1673	3748	79
112	0	0	3300	1675	3747	79
113	0	0	3294	1674	3747	77
114	0	0	3292	1673	3747	78
115	0	0	3291	1672	3745	79
116	0	0	3290	1677	3747	79
117	0	0	3283	1671	3748	82
118	0	0	2845	1667	3747	80
119	0	0	1250	1668	3748	80
120	0	0	391	1673	3748	80
121	0	0	0	1673	3749	83
122	0	0	0	1673	3748	83
123	0	0	619	1680	3749	79
124	0	0	1751	1678	3749	80
125	0	0	2396	1680	3748	79
126	0	0	2782	1681	3748	80
127	0	0	3005	1680	3745	79
0	0	0	3134	1678	3747	77
1	0	0	3207	1680	3748	76
2	0	0	3243	1680	3748	76
3	0	0	3263	1679	3748	77
4	0	0	3271	1678	3747	79
5	0	0	3276	1676	3747	78
6	0	0	3273	1673	3747	78
7	0	0	3271	1674	3748	82
8	0	0	3275	1672	3749	79
9	0	0	3269	1672	3750	82
10	0	0	2668	1669	3748	81
11	0	0	1145	1672	3748	80
12	0	0	323	1672	3746	82
13	0	0	0	1674	3748	81
14	0	0	0	1676	3748	79
15	0	0	192	1682	3748	80
16	0	0	1510	1684	3748	79
17	0	0	2249	1680	3746	79
18	0	0	2695	1683	3748	78
19	0	0	2950	1682	3747	79
20	0	0	3098	1682	3747	78
21	0	0	3183	1681	3748	76
22	0	0	3227	1683	3748	80
23	0	0	3247	1680	3748	77
24	0	0	3263	1681	3749	76
25	0	0	3268	1678	3748	77
26	0	0	3267	1674	3747	77
27	0	0	3264	1674	3748	78
28	0	0	3265	1679	3749	81
29	0	0	3260	1675	3748	82
30	0	0	2424	1674	3749	79
31	0	0	1017	1674	3748	81
32	0	0	248	1674	3748	81
33	0	0	0	1677	3748	81
34	0	0	0	1678	3749	79
35	0	0	0	1683	3746	80
36	0	0	1277	1683	3747	79
37	0	0	2112	1684	3748	83
38	0	0	2609	1685	3748	83
39	0	0	2905	1683	3747	80
40	0	0	3069	1684	3748	78
41	0	0	3164	1686	3748	77
42	0	0	3216	1684	3748	80
43	0	0	3247	1683	3750	79
44	0	0	3257	1682	3748	75
45	0	0	3264	1677	3748	77
46	0	0	3264	1677	3748	79
47	0	0	3264	1676	3748	79
48	0	0	3263	1676	3756	80
49	0	0	3259	1677	3747	79
50	0	0	2215	1674	3747	80
51	0	0	921	1679	3748	81
52	0	0	198	1677	3748	84
53	0	0	0	1679	3749	79
54	0	0	0	1679	3747	82
55	0	0	0	1686	3745	82
56	0	0	1111	1686	3748	80
57	0	0	2025	1688	3748	82
58	0	0	2554	1687	3749	78
59	0	0	2871	1688	3749	79
60	0	0	3056	1688	3748	78
61	0	0	3156	1687	3749	76
62	0	0	3215	1686	3750	79
63	0	0	3243	1686	3749	78
64	0	0	3259	1685	3749	76
65	0	0	3264	1684	3747	77
66	0	0	3263	1681	3748	75
67	0	0	3266	1679	3749	78
68	0	0	3267	1681	3747	77
69	0	0	3261	1679	3749	80
70	0	0	2061	1677	3747	80
71	0	0	840	1678	3749	80
72	0	0	148	1681	3748	80
73	0	0	0	1681	3749	80
74	0	0	0	1682	3748	79
75	0	0	0	1689	3748	81
76	0	0	938	1689	3749	80
77	0	0	1927	1689	3748	77
78	0	0	2496	1687	3749	80
79	0	0	2841	1688	3748	76
80	0	0	3042	1689	3748	79
81	0	0	3151	1690	3752	79
82	0	0	3213	1687	3748	76
83	0	0	3247	1686	3748	80
84	0	0	3265	1686	3747	75
85	0	0	3272	1684	3746	77
86	0	0	3272	1682	3748	78
87	0	0	3273	1683	3747	78
88	0	0	3272	1686	3748	79
89	0	0	3267	1681	3747	80
90	0	0	1950	1679	3749	81
91	0	0	774	1680	3748	79
92	0	0	119	1681	3748	80
93	0	0	0	1683	3750	81
94	0	0	0	1683	3748	80
95	0	0	0	1690	3747	80
96	0	0	791	1691	3747	76
97	0	0	1847	1691	3747	82
98	0	0	2460	1690	3748	79
99	0	0	2819	1689	3747	76
100	0	0	3031	1691	3747	78
101	0	0	3151	1690	3749	75
102	0	0	3218	1690	3748	78
103	0	0	3255	1689	3750	78
104	0	0	3271	1689	3747	76
105	0	0	3280	1685	3748	77
106	0	0	3277	1682	3747	75
107	0	0	3281	1681	3748	79
108	0	0	3281	1682	3748	79
109	0	0	3276	1681	3748	81
110	0	0	1840	1681	3748	81
111	0	0	715	1681	3748	79
112	0	0	93	1681	3748	81
113	0	0	0	1683	3748	83
114	0	0	0	1685	3747	80
115	0	0	0	1686	3748	79
116	0	0	715	1691	3747	77
117	0	0	1808	1693	3748	79
118	0	0	2441	1691	3748	80
119	0	0	2814	1692	3749	80
120	0	0	3033	1688	3747	78
121	0	0	3153	1691	3747	78
122	0	0	3227	1690	3748	77
123	0	0	3264	1689	3749	79
124	0	0	3281	1689	3748	76
125	0	0	3287	1686	3747	76
126	0	0	3292	1685	3750	77
127	0	0	3293	1685	3753	78
0	0	0	3296	1684	3749	79
1	0	0	3288	1683	3748	80
2	0	0	1792	1683	3747	80
3	0	0	697	1683	3748	81
4	0	0	85	1684	3748	81
5	0	0	0	1686	3749	81
6	0	0	0	1687	3747	80
7	0	0	0	1685	3748	81
8	0	0	483	1689	3747	79
9	0	0	1684	1693	3747	76
10	0	0	2375	1692	3748	78
11	0	0	2779	1692	3747	79
12	0	0	3018	1693	3747	76
13	0	0	3152	1692	3747	75
14	0	0	3231	1692	3750	78
15	0	0	3274	1691	3749	77
16	0	0	3295	1689	3748	76
17	0	0	3307	1689	3748	76
18	0	0	3309	1685	3751	77
19	0	0	3310	1684	3748	80
20	0	0	3304	1687	3748	78
21	0	0	3304	1685	3748	80
22	0	0	1730	1681	3747	81
23	0	0	671	1683	3747	80
24	0	0	71	1685	3748	80
25	0	0	0	1687	3748	81
26	0	0	0	1687	3747	79
27	0	0	0	1693	3748	79
28	0	0	182	1691	3745	81
29	0	0	1522	1692	3748	79
30	0	0	2287	1692	3749	79
31	0	0	2736	1694	3750	80
32	0	0	2999	1695	3747	78
33	0	0	3154	1693	3748	76
34	0	0	3239	1691	3749	76
35	0	0	3286	1692	3748	77
36	0	0	3307	1690	3747	78
37	0	0	3321	1689	3748	73
38	0	0	3324	1690	3748	80
39	0	0	3326	1686	3748	78
40	0	0	3326	1686	3748	81
41	0	0	3320	1684	3747	80
42	0	0	1684	1682	3747	79
43	0	0	652	1684	3748	80
44	0	0	66	1686	3750	80
45	0	0	0	1687	3749	81
46	0	0	0	1687	3748	79
47	0	0	0	1695	3749	80
48	0	0	0	1691	3747	81
49	0	0	1426	1693	3749	79
50	0	0	2238	1694	3749	79
51	0	0	2717	1693	3748	79
52	0	0	2994	1693	3748	78
53	0	0	3158	1694	3747	80
54	0	0	3249	1693	3748	78
55	0	0	3296	1693	3748	77
56	0	0	3325	1691	3748	77
57	0	0	3335	1689	3747	76
58	0	0	3344	1687	3747	76
59	0	0	3342	1690	3747	79
60	0	0	3342	1689	3748	79
61	0	0	3336	1686	3747	79
62	0	0	1671	1683	3748	80
63	0	0	653	1683	3748	80
64	0	0	72	1686	3749	82
65	0	0	0	1687	3748	80
66	0	0	0	1688	3748	79
67	0	0	0	1692	3748	79
68	0	0	0	1691	3747	79
69	0	0	1224	1695	3747	79
70	0	0	2128	1694	3749	79
71	0	0	2659	1694	3747	79
72	0	0	2968	1694	3747	77
73	0	0	3151	1693	3748	80
74	0	0	3253	1692	3748	80
75	0	0	3310	1692	3748	77
76	0	0	3338	1690	3747	75
77	0	0	3352	1689	3748	79
78	0	0	3366	1681	3746	78
79	0	0	3359	1684	3748	79
80	0	0	3359	1688	3748	79
81	0	0	3356	1679	3748	79
82	0	0	1622	1682	3748	81
83	0	0	644	1685	3749	81
84	0	0	76	1684	3749	83
85	0	0	0	1687	3749	81
86	0	0	0	1688	3747	77
87	0	0	0	1689	3747	79
88	0	0	0	1693	3747	78
89	0	0	1113	1693	3747	81
90	0	0	2062	1696	3748	79
91	0	0	2627	1693	3747	79
92	0	0	2960	1694	3747	78
93	0	0	3153	1694	3748	77
94	0	0	3262	1691	3748	79
95	0	0	3323	1693	3749	77
96	0	0	3355	1691	3749	77
97	0	0	3370	1687	3750	78
98	0	0	3378	1683	3750	79
99	0	0	3383	1685	3749	79
100	0	0	3381	1687	3750	77
101	0	0	3373	1681	3748	71
102	0	0	2496	1683	3749	81
103	0	0	1121	1684	3748	81
104	0	0	356	1685	3746	80
105	0	0	0	1688	3749	83
106	0	0	0	1689	3746	79
107	0	0	0	1688	3746	81
108	0	0	0	1693	3747	80
109	0	0	0	1697	3747	82
110	0	0	548	1696	3748	80
111	0	0	1756	1697	3747	79
112	0	0	2460	1696	3748	78
113	0	0	2870	1696	3748	77
114	0	0	3114	1692	3748	78
115	0	0	3251	1693	3750	76
116	0	0	3328	1692	3748	72
117	0	0	3371	1688	3748	74
118	0	0	3391	1684	3748	77
119	0	0	3402	1682	3748	79
120	0	0	3407	1680	3748	78
121	0	0	3405	1681	3747	75
122	0	0	1790	1680	3747	81
123	0	0	758	1682	3748	82
124	0	0	166	1684	3747	83
125	0	0	0	1687	3747	81
126	0	0	0	1689	3747	79
127	0	0	0	1691	3745	81
0	0	0	0	1689	3748	82
1	0	0	0	1696	3748	79
2	0	0	203	1695	3748	78
3	0	0	1596	1697	3748	77
4	0	0	2378	1697	3748	78
5	0	0	2836	1695	3749	75
6	0	0	3109	1690	3750	77
7	0	0	3267	1694	3748	76
8	0	0	3354	1691	3749	76
9	0	0	3400	1688	3747	76
10	0	0	3421	1683	3747	77
11	0	0	3435	1682	3748	77
12	0	0	3446	1678	3748	79
13	0	0	3443	1681	3748	81
14	0	0	1877	1679	3747	81
15	0	0	816	1680	3747	83
16	0	0	218	1684	3746	80
17	0	0	0	1686	3748	82
18	0	0	0	1689	3748	80
19	0	0	0	1691	3748	84
20	0	0	0	1692	3748	82
21	0	0	0	1698	3748	79
22	0	0	229	1696	3749	80
23	0	0	1613	1697	3749	78
24	0	0	2400	1698	3748	78
25	0	0	2867	1696	3748	78
26	0	0	3138	1695	3747	75
27	0	0	3295	1690	3746	75
28	0	0	3383	1691	3747	72
29	0	0	3432	1688	3750	75
30	0	0	3456	1683	3748	75
31	0	0	3467	1681	3745	77
32	0	0	3471	1683	3748	78
33	0	0	3471	1680	3747	82
34	0	0	1902	1681	3747	82
35	0	0	842	1680	3749	85
36	0	0	244	1685	3747	80
37	0	0	0	1686	3749	81
38	0	0	0	1688	3748	80
39	0	0	0	1690	3746	79
40	0	0	0	1691	3748	80
41	0	0	0	1695	3749	79
42	0	0	0	1695	3747	79
43	0	0	1546	1696	3747	79
44	0	0	2373	1697	3747	77
45	0	0	2860	1694	3748	77
46	0	0	3146	1694	3746	77
47	0	0	3313	1692	3748	76
48	0	0	3404	1689	3747	74
49	0	0	3457	1688	3747	74
50	0	0	3476	1683	3747	79
51	0	0	3493	1681	3749	80
52	0	0	3495	1679	3748	78
53	0	0	3498	1679	3749	80
54	0	0	1850	1679	3748	81
55	0	0	824	1680	3749	82
56	0	0	243	1684	3748	80
57	0	0	0	1686	3749	82
58	0	0	0	1688	3749	82
59	0	0	2	1690	3747	82
60	0	0	0	1693	3747	77
61	0	0	0	1695	3746	80
62	0	0	0	1697	3748	79
63	0	0	1319	1695	3747	79
64	0	0	2254	1695	3748	78
65	0	0	2802	1693	3747	77
66	0	0	3125	1693	3747	75
67	0	0	3310	1693	3749	77
68	0	0	3416	1689	3750	74
69	0	0	3474	1685	3748	74
70	0	0	3506	1679	3748	77
71	0	0	3520	1679	3748	76
72	0	0	3524	1679	3749	78
73	0	0	3196	1676	3747	80
74	0	0	1536	1678	3747	81
75	0	0	661	1680	3748	81
76	0	0	160	1683	3749	81
77	0	0	0	1687	3748	83
78	0	0	0	1688	3748	82
79	0	0	0	1696	3747	81
80	0	0	2	1697	3747	79
81	0	0	0	1693	3748	84
82	0	0	0	1693	3748	80
83	0	0	0	1692	3746	79
84	0	0	851	1692	3747	78
85	0	0	2000	1694	3747	76
86	0	0	2672	1693	3747	76
87	0	0	3060	1692	3749	76
88	0	0	3292	1687	3748	74
89	0	0	3428	1685	3750	72
90	0	0	3497	1683	3749	73
91	0	0	3266	1674	3749	79
92	0	0	1579	1677	3748	79
93	0	0	706	1675	3748	81
94	0	0	215	1677	3747	81
95	0	0	0	1680	3747	80
96	0	0	0	1680	3747	84
97	0	0	0	1683	3748	82
98	0	0	0	1686	3747	81
99	0	0	0	1688	3747	82
100	0	0	0	1688	3747	82
101	0	0	0	1691	3749	84
102	0	0	0	1691	3749	79
103	0	0	0	1688	3747	80
104	0	0	0	1688	3748	78
105	0	0	0	1688	3749	77
106	0	0	0	1684	3749	76
107	0	0	0	1682	3749	75
108	0	0	0	1680	3747	78
109	0	0	0	1678	3748	73
110	0	0	0	1675	3746	78
111	0	0	0	1673	3749	79
112	0	0	0	1674	3747	76
113	0	0	0	1673	3747	79
114	0	0	0	1675	3747	82
115	0	0	0	1675	3748	83
116	0	0	0	1678	3749	86
117	0	0	0	1683	3749	83
118	0	0	0	1682	3748	81
119	0	0	0	1687	3748	80
120	0	0	0	1690	3747	80
121	0	0	0	1686	3748	81
122	0	0	0	1686	3750	81
123	0	0	0	1685	3748	76
124	0	0	0	1685	3748	77
125	0	0	0	1685	3748	78
126	0	0	0	1682	3748	76
127	0	0	0	1685	3749	75
0	0	0	0	1676	3747	76
1	0	0	0	1673	3747	74
2	0	0	0	1673	3746	77
3	0	0	0	1670	3748	78
4	0	0	0	1670	3749	77
5	0	0	0	1670	3747	83
6	0	0	0	1670	3747	81
7	0	0	0	1675	3747	82
8	0	0	0	1676	3749	83
9	0	0	0	1679	3749	83
10	0	0	0	1680	3748	81
11	0	0	0	1682	3748	80
12	0	0	0	1683	3747	80
13	0	0	0	1683	3749	79
14	0	0	0	1684	3749	79
15	0	0	0	1684	3747	75
16	0	0	0	1683	3746	77
17	0	0	0	1682	3747	77
18	0	0	0	1679	3749	77
19	0	0	0	1678	3748	76
20	0	0	0	1674	3757	75
21	0	0	0	1672	3747	75
22	0	0	0	1670	3747	76
23	0	0	0	1668	3748	77
24	0	0	0	1668	3748	76
25	0	0	0	1668	3750	82
26	0	0	0	1669	3749	83
27	0	0	0	1674	3749	80
28	0	0	0	1673	3750	82
29	0	0	0	1676	3749	82
30	0	0	0	1678	3743	83
31	0	0	6	1682	3747	80
32	0	0	11	1684	3747	82
33	0	0	15	1682	3747	79
34	0	0	21	1683	3747	79
35	0	0	28	1681	3747	80
36	0	0	34	1681	3747	78
37	0	0	39	1682	3747	79
38	0	0	45	1679	3747	73
39	0	0	51	1677	3748	76
40	0	0	56	1670	3747	75
41	0	0	65	1670	3747	76
42	0	0	67	1669	3748	75
43	0	0	75	1666	3749	77
44	0	0	80	1666	3749	78
45	0	0	85	1666	3749	79
46	0	0	88	1668	3748	81
47	0	0	96	1671	3748	82
48	0	0	102	1673	3748	83
49	0	0	107	1674	3748	84
50	0	0	116	1678	3748	83
51	0	0	120	1678	3747	83
52	0	0	124	1678	3747	83
53	0	0	128	1681	3748	79
54	0	0	134	1680	3748	79
55	0	0	140	1681	3747	79
56	0	0	147	1680	3747	78
57	0	0	152	1679	3748	77
58	0	0	157	1677	3748	73
59	0	0	161	1675	3748	76
60	0	0	168	1671	3749	74
61	0	0	173	1669	3748	74
62	0	0	176	1665	3748	79
63	0	0	184	1664	3748	77
64	0	0	189	1664	3748	81
65	0	0	194	1664	3746	80
66	0	0	201	1666	3747	81
67	0	0	204	1669	3747	82
68	0	0	210	1671	3748	79
69	0	0	215	1673	3748	82
70	0	0	221	1674	3749	83
71	0	0	227	1676	3747	86
72	0	0	233	1678	3747	80
73	0	0	236	1679	3749	79
74	0	0	241	1678	3748	80
75	0	0	246	1679	3749	79
76	0	0	249	1678	3749	79
77	0	0	256	1677	3749	75
78	0	0	262	1675	3748	75
79	0	0	272	1672	3748	77
80	0	0	271	1671	3749	61
81	0	0	279	1669	3748	73
82	0	0	281	1663	3747	69
83	0	0	287	1664	3748	75
84	0	0	291	1665	3747	75
85	0	0	296	1664	3748	81
86	0	0	302	1666	3749	85
87	0	0	306	1669	3748	81
88	0	0	310	1671	3749	81
89	0	0	315	1673	3749	82
90	0	0	319	1674	3748	81
91	0	0	325	1676	3748	83
92	0	0	330	1678	3748	79
93	0	0	337	1679	3749	80
94	0	0	340	1679	3749	80
95	0	0	345	1679	3748	80
96	0	0	350	1679	3750	77
97	0	0	354	1677	3747	77
98	0	0	358	1676	3750	74
99	0	0	362	1673	3746	74
100	0	0	367	1670	3747	73
101	0	0	373	1668	3747	72
102	0	0	376	1665	3747	74
103	0	0	381	1664	3748	77
104	0	0	387	1662	3748	77
105	0	0	390	1663	3748	79
106	0	0	396	1665	3748	82
107	0	0	401	1667	3748	83
108	0	0	405	1669	3751	82
109	0	0	410	1671	3748	81
110	0	0	414	1673	3748	82
111	0	0	415	1676	3750	80
112	0	0	423	1676	3747	81
113	0	0	427	1678	3751	82
114	0	0	431	1679	3748	77
115	0	0	437	1678	3747	76
116	0	0	440	1678	3747	74
117	0	0	446	1676	3748	72
118	0	0	450	1675	3748	74
119	0	0	454	1671	3748	76
120	0	0	458	1670	3747	75
121	0	0	464	1668	3747	78
122	0	0	467	1664	3747	74
123	0	0	471	1664	3750	77
124	0	0	477	1663	3749	75
125	0	0	480	1662	3748	80
126	0	0	483	1665	3749	82
127	0	0	489	1668	3748	83
0	0	0	493	1670	3750	82
1	0	0	497	1671	3748	83
2	0	0	502	1674	3748	83
3	0	0	505	1676	3747	83
4	0	0	510	1675	3747	80
5	0	0	516	1678	3747	80
6	0	0	519	1678	3747	79
7	0	0	524	1677	3747	78
8	0	0	528	1677	3747	78
9	0	0	531	1675	3748	78
10	0	0	536	1674	3747	74
11	0	0	540	1670	3748	74
12	0	0	544	1669	3749	71
13	0	0	548	1670	3747	69
14	0	0	552	1664	3748	72
15	0	0	556	1664	3749	75
16	0	0	561	1665	3748	80
17	0	0	564	1662	3748	79
18	0	0	567	1665	3748	81
19	0	0	574	1668	3748	84
20	0	0	577	1668	3751	83
21	0	0	582	1669	3748	82
22	0	0	585	1673	3747	82
23	0	0	588	1676	3747	81
24	0	0	592	1675	3748	83
25	0	0	597	1677	3747	80
26	0	0	601	1676	3749	80
27	0	0	605	1676	3748	80
28	0	0	609	1676	3748	77
29	0	0	612	1675	3748	74
30	0	0	618	1675	3750	73
31	0	0	620	1671	3750	72
32	0	0	624	1668	3748	76
33	0	0	627	1668	3748	74
34	0	0	630	1663	3748	75
35	0	0	635	1662	3747	75
36	0	0	640	1660	3747	74
37	0	0	643	1661	3747	80
38	0	0	648	1663	3748	82
39	0	0	651	1667	3746	81
40	0	0	656	1668	3747	82
41	0	0	658	1671	3747	83
42	0	0	662	1673	3748	83
43	0	0	664	1675	3748	81
44	0	0	669	1677	3747	81
45	0	0	673	1676	3745	81
46	0	0	677	1676	3749	81
47	0	0	681	1676	3748	77
48	0	0	684	1675	3748	75
49	0	0	689	1674	3749	78
50	0	0	692	1673	3750	78
51	0	0	694	1669	3748	75
52	0	0	699	1668	3747	72
53	0	0	703	1666	3747	71
54	0	0	706	1663	3746	73
55	0	0	710	1661	3747	70
56	0	0	714	1660	3748	77
57	0	0	717	1661	3747	82
58	0	0	721	1663	3747	81
59	0	0	725	1667	3747	81
60	0	0	728	1668	3748	83
61	0	0	731	1669	3748	83
62	0	0	737	1672	3749	81
63	0	0	735	1675	3749	78
64	0	0	743	1675	3748	79
65	0	0	746	1676	3750	80
66	0	0	748	1676	3749	80
67	0	0	754	1675	3748	79
68	0	0	755	1676	3747	78
69	0	0	760	1676	3747	74
70	0	0	763	1672	3746	74
71	0	0	767	1668	3748	72
72	0	0	770	1663	3747	71
73	0	0	774	1666	3749	76
74	0	0	776	1663	3747	75
75	0	0	780	1661	3747	77
76	0	0	784	1660	3748	71
77	0	0	787	1660	3750	79
78	0	0	791	1662	3748	81
79	0	0	797	1664	3748	79
80	0	0	799	1666	3749	82
81	0	0	799	1668	3749	83
82	0	0	804	1671	3748	82
83	0	0	807	1673	3748	81
84	0	0	811	1676	3747	78
85	0	0	814	1675	3748	79
86	0	0	817	1675	3749	79
87	0	0	821	1675	3747	78
88	0	0	823	1674	3747	75
89	0	0	827	1675	3747	73
90	0	0	831	1670	3748	77
91	0	0	831	1668	3749	75
92	0	0	838	1667	3748	75
93	0	0	841	1665	3748	74
94	0	0	846	1661	3748	69
95	0	0	847	1660	3748	74
96	0	0	850	1658	3749	73
97	0	0	854	1659	3748	80
98	0	0	856	1663	3747	80
99	0	0	861	1666	3747	80
100	0	0	864	1667	3748	83
101	0	0	866	1668	3749	82
102	0	0	870	1670	3748	83
103	0	0	874	1672	3750	83
104	0	0	876	1674	3748	78
105	0	0	880	1674	3745	82
106	0	0	883	1674	3748	78
107	0	0	886	1675	3747	78
108	0	0	887	1674	3747	78
109	0	0	894	1673	3748	78
110	0	0	896	1672	3748	74
111	0	0	898	1664	3750	73
112	0	0	901	1666	3749	72
113	0	0	904	1667	3747	70
114	0	0	908	1661	3748	77
115	0	0	911	1659	3748	82
116	0	0	914	1658	3750	81
117	0	0	916	1658	3748	79
118	0	0	920	1661	3750	81
119	0	0	922	1664	3749	79
120	0	0	927	1666	3748	82
121	0	0	928	1668	3748	83
122	0	0	933	1670	3747	79
123	0	0	935	1672	3747	84
124	0	0	940	1673	3747	82
125	0	0	941	1674	3748	81
126	0	0	944	1675	3749	78
127	0	0	947	1675	3746	76
0	0	0	950	1673	3747	75
1	0	0	953	1673	3747	75
2	0	0	955	1671	3748	75
3	0	0	960	1668	3749	76
4	0	0	961	1666	3748	79
5	0	0	966	1663	3748	77
6	0	0	968	1660	3748	71
7	0	0	969	1659	3748	73
8	0	0	973	1659	3748	72
9	0	0	976	1658	3747	80
10	0	0	980	1660	3747	81
11	0	0	982	1662	3748	82
12	0	0	987	1665	3748	83
13	0	0	988	1667	3748	83
14	0	0	991	1670	3747	82
15	0	0	993	1671	3747	80
16	0	0	996	1673	3748	79
17	0	0	1001	1673	3748	80
18	0	0	1002	1673	3749	80
19	0	0	1006	1674	3750	76
20	0	0	1005	1673	3749	79
21	0	0	1012	1672	3749	76
22	0	0	1014	1670	3748	76
23	0	0	1016	1667	3747	73
24	0	0	1018	1665	3749	73
25	0	0	1020	1665	3747	73
26	0	0	1025	1659	3747	72
27	0	0	1027	1659	3749	75
28	0	0	1030	1657	3747	79
29	0	0	1032	1658	3748	81
30	0	0	1036	1659	3748	81
31	0	0	1039	1662	3748	82
32	0	0	1042	1664	3748	83
33	0	0	1043	1666	3748	83
34	0	0	1047	1669	3748	82
35	0	0	1050	1669	3748	83
36	0	0	1053	1671	3749	82
37	0	0	1055	1673	3748	79
38	0	0	1057	1673	3748	82
39	0	0	1061	1673	3748	81
40	0	0	1064	1672	3747	75
41	0	0	1066	1671	3752	75
42	0	0	1068	1670	3749	74
43	0	0	1070	1666	3748	73
44	0	0	1073	1664	3747	75
45	0	0	1076	1662	3747	73
46	0	0	1077	1658	3747	77
47	0	0	1079	1657	3747	71
48	0	0	1084	1657	3747	75
49	0	0	1088	1657	3747	80
50	0	0	1090	1658	3748	82
51	0	0	1095	1662	3747	81
52	0	0	1094	1664	3749	82
53	0	0	1097	1665	3748	83
54	0	0	1100	1668	3749	84
55	0	0	1104	1670	3748	82
56	0	0	1106	1672	3749	82
57	0	0	1108	1672	3747	78
58	0	0	1110	1671	3749	80
59	0	0	1113	1672	3747	80
60	0	0	1115	1672	3745	75
61	0	0	1116	1671	3748	74
62	0	0	1119	1669	3748	74
63	0	0	1121	1667	3749	73
64	0	0	1123	1664	3747	75
65	0	0	1129	1661	3748	77
66	0	0	1129	1657	3748	75
67	0	0	1131	1657	3747	71
68	0	0	1132	1657	3748	74
69	0	0	1136	1656	3748	80
70	0	0	1139	1659	3748	81
71	0	0	1142	1660	3748	81
72	0	0	1145	1663	3751	80
73	0	0	1145	1664	3748	83
74	0	0	1150	1667	3748	83
75	0	0	1152	1671	3748	82
76	0	0	1155	1671	3748	81
77	0	0	1158	1672	3747	78
78	0	0	1159	1670	3747	82
79	0	0	1162	1671	3747	74
80	0	0	1164	1670	3747	74
81	0	0	1165	1671	3748	77
82	0	0	1170	1669	3749	76
83	0	0	1170	1665	3748	76
84	0	0	1174	1662	3748	72
85	0	0	1266	1662	3748	70
86	0	0	2013	1655	3747	73
87	0	0	1625	1654	3749	75
88	0	0	1406	1653	3749	78
89	0	0	1295	1654	3748	82
90	0	0	1244	1656	3748	81
91	0	0	1215	1658	3749	81
92	0	0	1204	1660	3747	79
93	0	0	1199	1664	3747	83
94	0	0	1197	1666	3747	83
95	0	0	1199	1668	3747	84
96	0	0	1199	1669	3748	83
97	0	0	1200	1671	3747	79
98	0	0	1202	1670	3749	83
99	0	0	1204	1670	3748	79
100	0	0	1208	1670	3748	78
101	0	0	1207	1669	3750	73
102	0	0	1212	1668	3751	73
103	0	0	1699	1665	3749	73
104	0	0	2226	1664	3748	73
105	0	0	2472	1661	3748	75
106	0	0	3456	1659	3748	75
107	0	0	3183	1655	3747	76
108	0	0	2784	1658	3749	74
109	0	0	2236	1652	3748	80
110	0	0	1770	1654	3748	81
111	0	0	1513	1656	3748	81
112	0	0	1373	1659	3749	81
113	0	0	1295	1661	3748	83
114	0	0	1259	1664	3748	82
115	0	0	1238	1672	3747	80
116	0	0	1229	1669	3749	78
117	0	0	2138	1672	3748	79
118	0	0	3432	1671	3749	82
119	0	0	4090	1672	3743	77
120	0	0	4091	1674	3746	74
121	0	0	4092	1670	3750	72
122	0	0	4092	1670	3748	75
123	0	0	4092	1666	3748	76
124	0	0	4092	1664	3748	76
125	0	0	4092	1662	3747	71
126	0	0	4092	1659	3748	73
127	0	0	3924	1651	3748	73
0	0	0	2517	1651	3747	75
1	0	0	1778	1652	3747	81
2	0	0	1343	1655	3746	81
3	0	0	1099	1657	3746	82
4	0	0	963	1659	3750	81
5	0	0	890	1662	3749	81
6	0	0	852	1664	3748	82
7	0	0	830	1666	3748	80
8	0	0	823	1667	3751	80
9	0	0	821	1669	3750	78
10	0	0	820	1669	3750	80
11	0	0	822	1669	3748	79
12	0	0	825	1669	3748	79
13	0	0	828	1669	3748	77
14	0	0	835	1666	3748	74
15	0	0	1613	1666	3748	74
16	0	0	2216	1664	3747	74
17	0	0	2546	1661	3746	71
18	0	0	3322	1657	3749	75
19	0	0	2458	1650	3748	76
20	0	0	1731	1650	3748	77
21	0	0	1332	1652	3748	80
22	0	0	1108	1655	3747	80
23	0	0	987	1656	3751	80
24	0	0	920	1659	3746	83
25	0	0	888	1661	3749	81
26	0	0	873	1663	3748	84
27	0	0	868	1665	3750	83
28	0	0	865	1669	3750	79
29	0	0	865	1669	3748	79
30	0	0	867	1668	3749	81
31	0	0	870	1668	3747	75
32	0	0	873	1668	3748	75
33	0	0	877	1668	3748	74
34	0	0	1139	1666	3748	73
35	0	0	2063	1665	3748	76
36	0	0	2661	1662	3747	75
37	0	0	2913	1659	3747	75
38	0	0	3662	1657	3747	72
39	0	0	2753	1649	3746	78
40	0	0	1914	1650	3749	79
41	0	0	1456	1651	3750	79
42	0	0	1196	1654	3749	79
43	0	0	1051	1655	3749	82
44	0	0	975	1658	3749	79
45	0	0	935	1661	3750	81
46	0	0	915	1663	3747	80
47	0	0	906	1666	3748	83
48	0	0	900	1666	3748	81
49	0	0	903	1667	3745	83
50	0	0	903	1667	3749	79
51	0	0	906	1669	3747	75
52	0	0	907	1667	3747	75
53	0	0	912	1668	3748	75
54	0	0	1422	1667	3745	75
55	0	0	2419	1665	3748	75
56	0	0	3059	1662	3747	76
57	0	0	3300	1659	3747	73
58	0	0	3971	1658	3748	73
59	0	0	3095	1650	3749	76
60	0	0	2120	1649	3749	76
61	0	0	1590	1651	3749	80
62	0	0	1285	1652	3748	81
63	0	0	1112	1655	3748	81
64	0	0	1020	1657	3748	79
65	0	0	973	1659	3745	82
66	0	0	948	1663	3747	83
67	0	0	937	1664	3747	84
68	0	0	933	1666	3744	85
69	0	0	931	1667	3748	81
70	0	0	931	1666	3748	80
71	0	0	933	1667	3747	76
72	0	0	937	1667	3748	78
73	0	0	941	1668	3747	77
74	0	0	1584	1666	3747	78
75	0	0	2571	1664	3747	74
76	0	0	3192	1661	3748	72
77	0	0	3428	1660	3748	72
78	0	0	4068	1656	3747	72
79	0	0	3161	1649	3748	77
80	0	0	2169	1650	3744	78
81	0	0	1623	1649	3746	81
82	0	0	1317	1652	3747	81
83	0	0	1142	1654	3747	82
84	0	0	1047	1656	3748	83
85	0	0	997	1658	3746	82
86	0	0	972	1661	3748	82
87	0	0	959	1665	3747	80
88	0	0	956	1666	3747	79
89	0	0	953	1667	3748	79
90	0	0	953	1666	3746	80
91	0	0	956	1666	3749	79
92	0	0	961	1667	3748	75
93	0	0	962	1666	3749	74
94	0	0	1581	1665	3751	74
95	0	0	2540	1663	3748	71
96	0	0	3124	1661	3749	76
97	0	0	3380	1658	3748	75
98	0	0	4035	1655	3747	76
99	0	0	3130	1649	3747	73
100	0	0	2159	1647	3746	75
101	0	0	1628	1649	3748	80
102	0	0	1325	1651	3748	81
103	0	0	1158	1653	3750	82
104	0	0	1066	1656	3748	79
105	0	0	1018	1658	3747	82
106	0	0	994	1659	3749	82
107	0	0	981	1662	3748	83
108	0	0	978	1663	3746	79
109	0	0	975	1666	3749	80
110	0	0	977	1665	3748	79
111	0	0	978	1666	3743	77
112	0	0	981	1666	3748	76
113	0	0	984	1664	3745	79
114	0	0	1608	1665	3747	75
115	0	0	2518	1664	3748	76
116	0	0	3070	1661	3747	72
117	0	0	3340	1657	3748	70
118	0	0	3955	1654	3748	74
119	0	0	3072	1648	3747	75
120	0	0	2145	1647	3747	78
121	0	0	1630	1648	3747	79
122	0	0	1335	1651	3748	81
123	0	0	1175	1653	3747	81
124	0	0	1085	1657	3749	80
125	0	0	1039	1657	3747	82
126	0	0	1016	1660	3748	83
127	0	0	1008	1661	3748	82
0	0	0	1000	1663	3745	79
1	0	0	999	1665	3748	79
2	0	0	999	1665	3747	79
3	0	0	1003	1665	3748	80
4	0	0	1004	1664	3746	78
5	0	0	1007	1664	3747	75
6	0	0	1733	1664	3746	73
7	0	0	2598	1661	3743	70
8	0	0	3098	1659	3747	73
9	0	0	3250	1657	3749	76
10	0	0	3799	1654	3747	75
11	0	0	3006	1647	3749	75
12	0	0	2115	1646	3747	76
13	0	0	1619	1648	3748	80
14	0	0	1340	1649	3748	81
15	0	0	1182	1651	3748	81
16	0	0	1100	1654	3748	80
17	0	0	1057	1656	3748	83
18	0	0	1037	1660	3750	82
19	0	0	1027	1662	3747	80
20	0	0	1022	1664	3747	83
21	0	0	1020	1665	3748	79
22	0	0	1021	1666	3743	80
23	0	0	1024	1665	3747	76
24	0	0	1023	1663	3748	79
25	0	0	1027	1663	3748	73
26	0	0	1835	1662	3748	72
27	0	0	2701	1660	3749	71
28	0	0	3222	1659	3747	74
29	0	0	3386	1656	3748	73
30	0	0	3944	1654	3749	73
31	0	0	3176	1647	3749	76
32	0	0	2218	1647	3747	74
33	0	0	1685	1647	3747	81
34	0	0	1384	1649	3751	82
35	0	0	1219	1652	3749	81
36	0	0	1126	1653	3749	80
37	0	0	1080	1657	3749	81
38	0	0	1055	1659	3747	86
39	0	0	1044	1660	3747	79
40	0	0	1040	1663	3748	81
41	0	0	1037	1663	3748	80
42	0	0	1038	1663	3747	79
43	0	0	1040	1663	3747	77
44	0	0	1042	1662	3748	74
45	0	0	1068	1663	3748	75
46	0	0	2012	1663	3748	74
47	0	0	2895	1662	3749	75
48	0	0	3424	1658	3749	77
49	0	0	3577	1656	3751	70
50	0	0	4092	1653	3749	70
51	0	0	3366	1645	3747	69
52	0	0	2322	1645	3748	77
53	0	0	1756	1646	3747	80
54	0	0	1431	1648	3749	82
55	0	0	1249	1651	3748	83
56	0	0	1152	1653	3748	84
57	0	0	1099	1656	3749	82
58	0	0	1071	1658	3747	82
59	0	0	1059	1661	3747	79
60	0	0	1053	1663	3747	79
61	0	0	1051	1662	3747	77
62	0	0	1052	1662	3745	80
63	0	0	1052	1662	3748	79
64	0	0	1056	1662	3748	78
65	0	0	1189	1664	3749	78
66	0	0	2174	1662	3750	72
67	0	0	3051	1660	3747	72
68	0	0	3577	1659	3748	73
69	0	0	3731	1657	3747	70
70	0	0	4089	1653	3749	77
71	0	0	3509	1645	3748	80
72	0	0	2410	1645	3747	74
73	0	0	1812	1645	3747	81
74	0	0	1467	1647	3750	80
75	0	0	1271	1650	3749	80
76	0	0	1169	1653	3749	84
77	0	0	1112	1655	3747	82
78	0	0	1082	1657	3749	82
79	0	0	1068	1658	3747	81
80	0	0	1063	1661	3749	80
81	0	0	1060	1662	3749	82
82	0	0	1060	1661	3750	79
83	0	0	1061	1663	3748	76
84	0	0	1064	1663	3747	75
85	0	0	1215	1664	3748	74
86	0	0	2233	1663	3748	73
87	0	0	3114	1660	3746	75
88	0	0	3655	1658	3747	76
89	0	0	3864	1656	3749	74
90	0	0	4092	1654	3747	72
91	0	0	3694	1645	3748	78
92	0	0	2528	1644	3746	73
93	0	0	1883	1647	3747	79
94	0	0	1509	1648	3747	82
95	0	0	1299	1651	3749	80
96	0	0	1182	1654	3748	80
97	0	0	1124	1656	3748	81
98	0	0	1091	1659	3748	83
99	0	0	1076	1660	3749	83
100	0	0	1069	1663	3750	83
101	0	0	1067	1663	3748	82
102	0	0	1066	1664	3748	79
103	0	0	1066	1664	3747	79
104	0	0	1070	1664	3747	77
105	0	0	1346	1665	3749	78
106	0	0	2375	1663	3748	78
107	0	0	3252	1662	3746	72
108	0	0	3797	1659	3747	72
109	0	0	3992	1658	3749	72
110	0	0	4094	1656	3748	73
111	0	0	3845	1648	3748	75
112	0	0	2628	1648	3747	77
113	0	0	1935	1647	3748	79
114	0	0	1545	1651	3749	81
115	0	0	1320	1654	3750	80
116	0	0	1197	1655	3749	83
117	0	0	1130	1658	3748	82
118	0	0	1095	1661	3748	81
119	0	0	1079	1666	3747	81
120	0	0	1072	1667	3748	82
121	0	0	1069	1666	3748	79
122	0	0	1067	1665	3748	79
123	0	0	1070	1667	3748	79
124	0	0	1071	1666	3748	75
125	0	0	1508	1669	3748	75
126	0	0	2552	1666	3748	77
127	0	0	3446	1664	3749	73
0	0	0	3988	1663	3748	76
1	0	0	4090	1660	3747	71
2	0	0	4091	1659	3748	74
3	0	0	4090	1650	3749	75
4	0	0	2746	1652	3748	76
5	0	0	1999	1651	3748	80
6	0	0	1582	1652	3748	81
7	0	0	1337	1655	3748	81
8	0	0	1207	1657	3748	79
9	0	0	1133	1659	3746	82
10	0	0	1099	1662	3748	81
11	0	0	1077	1661	3749	80
12	0	0	1068	1667	3748	80
13	0	0	1064	1667	3748	77
14	0	0	1064	1667	3748	79
15	0	0	1066	1667	3748	79
16	0	0	1068	1667	3749	76
17	0	0	1653	1669	3748	74
18	0	0	2723	1665	3749	71
19	0	0	3632	1664	3748	72
20	0	0	4089	1661	3749	75
21	0	0	4092	1661	3748	74
22	0	0	4093	1660	3748	76
23	0	0	4093	1651	3748	68
24	0	0	2849	1649	3748	75
25	0	0	2050	1650	3747	80
26	0	0	1600	1653	3748	81
27	0	0	1337	1654	3748	81
28	0	0	1195	1658	3748	77
29	0	0	1116	1659	3746	81
30	0	0	1077	1661	3748	82
31	0	0	1055	1664	3748	81
32	0	0	1043	1667	3748	80
33	0	0	1040	1667	3748	76
34	0	0	1040	1667	3750	79
35	0	0	1043	1667	3749	77
36	0	0	1070	1669	3747	75
37	0	0	1835	1666	3749	78
38	0	0	2931	1667	3749	76
39	0	0	3813	1664	3751	75
40	0	0	4092	1663	3749	72
41	0	0	4089	1661	3747	72
42	0	0	4090	1658	3747	75
43	0	0	4093	1651	3749	74
44	0	0	2949	1650	3749	79
45	0	0	2071	1649	3747	79
46	0	0	1573	1653	3748	82
47	0	0	1289	1652	3749	81
48	0	0	1128	1657	3748	79
49	0	0	1042	1660	3750	81
50	0	0	997	1663	3749	82
51	0	0	975	1661	3750	82
52	0	0	966	1665	3750	81
53	0	0	960	1666	3750	81
54	0	0	958	1667	3751	79
55	0	0	958	1667	3747	78
56	0	0	1093	1670	3748	80
57	0	0	1880	1669	3748	77
58	0	0	2971	1667	3748	74
59	0	0	3804	1665	3750	74
60	0	0	4092	1664	3747	74
61	0	0	4094	1664	3747	75
62	0	0	4090	1658	3747	77
63	0	0	4092	1653	3748	78
64	0	0	2991	1652	3747	73
65	0	0	2071	1653	3747	80
66	0	0	1548	1655	3745	82
67	0	0	1251	1658	3748	82
68	0	0	1084	1661	3749	82
69	0	0	992	1661	3749	79
70	0	0	944	1666	3748	82
71	0	0	920	1668	3748	83
72	0	0	908	1668	3747	79
73	0	0	904	1672	3747	80
74	0	0	903	1672	3748	80
75	0	0	904	1673	3747	75
76	0	0	1146	1674	3747	76
77	0	0	1919	1673	3747	74
78	0	0	3001	1673	3748	75
79	0	0	3798	1671	3751	76
80	0	0	4088	1667	3747	76
81	0	0	4092	1667	3746	71
82	0	0	4091	1663	3747	75
83	0	0	4093	1657	3749	74
84	0	0	3075	1656	3750	75
85	0	0	2108	1658	3748	80
86	0	0	1551	1659	3746	83
87	0	0	1234	1661	3748	79
88	0	0	1057	1666	3749	80
89	0	0	962	1669	3749	81
90	0	0	910	1671	3748	81
91	0	0	882	1673	3748	81
92	0	0	871	1676	3748	80
93	0	0	864	1676	3747	80
94	0	0	865	1677	3749	80
95	0	0	866	1677	3747	77
96	0	0	1204	1679	3748	80
97	0	0	2043	1676	3749	77
98	0	0	3113	1678	3748	72
99	0	0	3850	1673	3748	72
100	0	0	4090	1674	3748	75
101	0	0	4094	1673	3748	72
102	0	0	4089	1667	3747	75
103	0	0	4093	1662	3748	74
104	0	0	3122	1662	3749	79
105	0	0	2123	1662	3749	80
106	0	0	1549	1665	3751	83
107	0	0	1219	1663	3749	80
108	0	0	1036	1669	3748	83
109	0	0	935	1671	3749	83
110	0	0	880	1674	3747	85
111	0	0	852	1675	3748	80
112	0	0	841	1675	3747	80
113	0	0	834	1679	3748	80
114	0	0	833	1678	3747	79
115	0	0	836	1678	3747	77
116	0	0	1292	1681	3748	75
117	0	0	2128	1678	3749	74
118	0	0	3185	1680	3749	72
119	0	0	3868	1677	3749	73
120	0	0	4091	1674	3748	76
121	0	0	4094	1673	3748	75
122	0	0	4093	1671	3748	73
123	0	0	4093	1662	3749	75
124	0	0	3173	1661	3747	77
125	0	0	2141	1661	3748	79
126	0	0	1551	1664	3747	80
127	0	0	1209	1663	3747	80
0	0	0	1022	1668	3748	83
1	0	0	914	1670	3747	82
2	0	0	858	1673	3747	81
3	0	0	830	1674	3749	79
4	0	0	816	1678	3749	78
5	0	0	811	1677	3749	80
6	0	0	807	1678	3749	80
7	0	0	810	1677	3748	76
8	0	0	1380	1677	3748	74
9	0	0	2205	1676	3749	74
10	0	0	3231	1676	3749	74
11	0	0	3888	1674	3747	76
12	0	0	4092	1674	3748	76
13	0	0	4092	1668	3749	75
14	0	0	4092	1666	3748	73
15	0	0	4092	1662	3747	73
16	0	0	3183	1656	3747	73
17	0	0	2134	1655	3747	80
18	0	0	1540	1657	3747	81
19	0	0	1196	1659	3747	82
20	0	0	1003	1663	3748	80
21	0	0	898	1665	3748	84
22	0	0	838	1666	3747	83
23	0	0	812	1668	3748	83
24	0	0	799	1672	3748	80
25	0	0	795	1671	3749	82
26	0	0	790	1673	3748	80
27	0	0	860	1677	3749	76
28	0	0	1482	1674	3746	79
29	0	0	2277	1679	3748	77
30	0	0	3270	1676	3747	75
31	0	0	3903	1675	3746	75
32	0	0	4092	1673	3746	73
33	0	0	4092	1673	3748	68
34	0	0	4092	1670	3747	72
35	0	0	4089	1665	3748	79
36	0	0	3155	1664	3747	79
37	0	0	2107	1666	3748	81
38	0	0	1522	1667	3747	82
39	0	0	1179	1672	3748	80
40	0	0	989	1675	3750	83
41	0	0	881	1678	3750	82
42	0	0	824	1680	3748	82
43	0	0	797	1684	3749	83
44	0	0	783	1686	3748	82
45	0	0	777	1687	3748	80
46	0	0	776	1687	3748	79
47	0	0	970	1693	3747	78
48	0	0	1569	1692	3748	72
49	0	0	2261	1693	3747	72
50	0	0	3221	1692	3747	74
51	0	0	3872	1690	3747	72
52	0	0	4091	1688	3747	76
53	0	0	4090	1687	3748	72
54	0	0	4092	1688	3748	80
55	0	0	4088	1678	3749	78
56	0	0	3176	1679	3747	77
57	0	0	2122	1679	3748	81
58	0	0	1523	1681	3748	79
59	0	0	1177	1685	3750	81
60	0	0	983	1688	3749	83
61	0	0	872	1691	3749	82
62	0	0	816	1694	3748	82
63	0	0	787	1696	3747	80
64	0	0	771	1698	3745	81
65	0	0	765	1700	3748	81
66	0	0	765	1699	3747	79
67	0	0	1075	1703	3747	76
68	0	0	1633	1702	3747	74
69	0	0	2298	1706	3748	80
70	0	0	3195	1703	3748	79
71	0	0	3855	1701	3748	78
72	0	0	4092	1701	3748	73
73	0	0	4088	1699	3748	72
74	0	0	4091	1700	3748	72
75	0	0	4088	1689	3749	78
76	0	0	3055	1690	3747	79
77	0	0	2049	1692	3749	81
78	0	0	1472	1695	3747	82
79	0	0	1146	1698	3748	82
80	0	0	959	1702	3749	81
81	0	0	857	1704	3747	84
82	0	0	805	1706	3747	82
83	0	0	778	1711	3757	80
84	0	0	764	1715	3748	80
85	0	0	760	1717	3747	83
86	0	0	757	1716	3747	79
87	0	0	1153	1721	3747	78
88	0	0	1679	1721	3748	78
89	0	0	2293	1723	3749	76
90	0	0	3113	1723	3749	75
91	0	0	3798	1721	3748	75
92	0	0	4091	1720	3748	72
93	0	0	4090	1721	3749	75
94	0	0	4091	1720	3748	80
95	0	0	4091	1713	3748	79
96	0	0	3016	1715	3747	74
97	0	0	2035	1715	3748	81
98	0	0	1463	1719	3747	81
99	0	0	1139	1721	3748	84
100	0	0	952	1724	3747	81
101	0	0	852	1730	3748	85
102	0	0	799	1731	3747	82
103	0	0	773	1736	3748	81
104	0	0	760	1737	3748	84
105	0	0	753	1738	3749	79
106	0	0	782	1743	3748	79
107	0	0	1235	1746	3749	76
108	0	0	1723	1743	3747	75
109	0	0	2277	1745	3749	73
110	0	0	3010	1744	3750	74
111	0	0	3642	1742	3748	75
112	0	0	3995	1743	3749	72
113	0	0	4054	1739	3747	74
114	0	0	4092	1739	3748	75
115	0	0	3863	1732	3748	77
116	0	0	2891	1732	3747	73
117	0	0	1972	1734	3749	80
118	0	0	1425	1736	3748	81
119	0	0	1116	1738	3748	80
120	0	0	940	1741	3749	82
121	0	0	845	1743	3747	83
122	0	0	795	1745	3748	81
123	0	0	767	1747	3747	85
124	0	0	759	1750	3749	86
125	0	0	752	1752	3748	80
126	0	0	876	1755	3748	80
127	0	0	1322	1755	3747	76
0	0	0	1772	1757	3748	75
1	0	0	2278	1756	3748	76
2	0	0	2918	1753	3748	77
3	0	0	3477	1753	3748	76
4	0	0	3783	1750	3747	76
5	0	0	3815	1748	3747	68
6	0	0	4043	1747	3748	71
7	0	0	3642	1736	3747	73
8	0	0	2773	1737	3747	75
9	0	0	1932	1739	3747	81
10	0	0	1401	1743	3748	81
11	0	0	1102	1743	3748	81
12	0	0	935	1745	3749	82
13	0	0	843	1747	3748	81
14	0	0	795	1752	3748	81
15	0	0	772	1753	3748	79
16	0	0	761	1752	3749	83
17	0	0	758	1755	3748	80
18	0	0	1007	1758	3747	79
19	0	0	1427	1759	3748	78
20	0	0	1830	1760	3749	79
21	0	0	2269	1758	3747	76
22	0	0	2827	1755	3749	72
23	0	0	3311	1755	3747	75
24	0	0	3572	1753	3747	73
25	0	0	3587	1750	3747	71
26	0	0	3770	1747	3747	75
27	0	0	3421	1742	3748	77
28	0	0	2658	1741	3748	77
29	0	0	1900	1740	3748	80
30	0	0	1382	1743	3748	79
31	0	0	1095	1744	3750	83
32	0	0	934	1749	3749	82
33	0	0	846	1751	3747	80
34	0	0	800	1752	3748	81
35	0	0	777	1754	3749	77
36	0	0	766	1756	3749	80
37	0	0	764	1756	3748	79
38	0	0	1144	1760	3748	78
39	0	0	1528	1760	3747	76
40	0	0	1885	1759	3747	75
41	0	0	2276	1759	3748	71
42	0	0	2767	1756	3748	73
43	0	0	3185	1755	3748	76
44	0	0	3415	1753	3748	75
45	0	0	3419	1751	3747	75
46	0	0	3587	1747	3749	70
47	0	0	3298	1742	3748	76
48	0	0	2624	1742	3748	72
49	0	0	1929	1742	3747	81
50	0	0	1403	1743	3747	80
51	0	0	1107	1746	3749	81
52	0	0	943	1747	3748	81
53	0	0	856	1751	3749	82
54	0	0	807	1751	3747	82
55	0	0	785	1753	3747	79
56	0	0	776	1755	3747	76
57	0	0	815	1758	3748	79
58	0	0	1240	1758	3747	80
59	0	0	1605	1760	3748	77
60	0	0	1932	1758	3752	78
61	0	0	2279	1757	3748	74
62	0	0	2722	1754	3750	78
63	0	0	3095	1752	3749	74
64	0	0	3307	1751	3748	72
65	0	0	3317	1748	3752	73
66	0	0	3452	1746	3748	72
67	0	0	3197	1738	3749	76
68	0	0	2583	1736	3747	76
69	0	0	1954	1736	3748	79
70	0	0	1425	1737	3747	80
71	0	0	1123	1740	3749	81
72	0	0	957	1740	3748	81
73	0	0	863	1743	3747	82
74	0	0	820	1743	3747	82
75	0	0	796	1747	3748	82
76	0	0	786	1748	3748	80
77	0	0	915	1750	3748	81
78	0	0	1336	1751	3747	80
79	0	0	1689	1750	3748	79
80	0	0	1997	1750	3751	73
81	0	0	2318	1747	3748	74
82	0	0	2713	1745	3749	75
83	0	0	3055	1743	3748	72
84	0	0	3237	1739	3747	75
85	0	0	3243	1739	3750	72
86	0	0	3355	1733	3747	78
87	0	0	3133	1730	3748	73
88	0	0	2574	1727	3747	76
89	0	0	1994	1725	3748	79
90	0	0	1458	1726	3745	79
91	0	0	1144	1730	3748	82
92	0	0	971	1731	3748	82
93	0	0	878	1733	3747	80
94	0	0	828	1735	3747	82
95	0	0	806	1736	3748	82
96	0	0	795	1737	3749	80
97	0	0	1038	1741	3748	79
98	0	0	1435	1739	3748	80
99	0	0	1765	1740	3748	78
100	0	0	2044	1739	3748	78
101	0	0	2331	1738	3749	77
102	0	0	2685	1736	3748	76
103	0	0	2991	1733	3747	78
104	0	0	3153	1727	3747	75
105	0	0	3153	1728	3750	74
106	0	0	3239	1725	3749	73
107	0	0	3038	1718	3748	77
108	0	0	2538	1716	3747	78
109	0	0	2013	1717	3747	80
110	0	0	1485	1717	3751	80
111	0	0	1163	1718	3748	81
112	0	0	983	1720	3749	81
113	0	0	890	1722	3748	79
114	0	0	840	1724	3749	81
115	0	0	815	1725	3751	80
116	0	0	817	1728	3748	80
117	0	0	1173	1731	3749	79
118	0	0	1536	1730	3749	80
119	0	0	1837	1728	3747	78
120	0	0	2090	1728	3748	78
121	0	0	2338	1728	3748	77
122	0	0	2642	1725	3749	76
123	0	0	2904	1722	3748	76
124	0	0	3044	1720	3748	77
125	0	0	3042	1718	3747	72
126	0	0	3109	1714	3748	76
127	0	0	2935	1708	3748	76
0	0	0	2497	1706	3750	77
1	0	0	2035	1705	3748	80
2	0	0	1526	1707	3749	80
3	0	0	1188	1709	3749	83
4	0	0	1000	1710	3749	81
5	0	0	903	1711	3748	82
6	0	0	855	1714	3748	81
7	0	0	825	1715	3751	80
8	0	0	941	1720	3747	80
9	0	0	1295	1720	3749	80
10	0	0	1625	1719	3747	79
11	0	0	1896	1720	3748	79
12	0	0	2125	1719	3747	76
13	0	0	2335	1716	3748	80
14	0	0	2597	1716	3748	77
15	0	0	2829	1713	3748	75
16	0	0	2950	1711	3749	76
17	0	0	2951	1708	3748	74
18	0	0	3002	1706	3748	77
19	0	0	2847	1699	3749	77
20	0	0	2471	1697	3748	73
21	0	0	2063	1695	3748	80
22	0	0	1588	1698	3751	80
23	0	0	1227	1698	3748	79
24	0	0	1028	1701	3748	81
25	0	0	919	1702	3742	79
26	0	0	865	1704	3747	82
27	0	0	838	1709	3747	80
28	0	0	1152	1709	3748	79
29	0	0	1460	1711	3748	80
30	0	0	1744	1710	3743	79
31	0	0	1982	1710	3748	75
32	0	0	2177	1707	3747	78
33	0	0	2355	1707	3748	79
34	0	0	2573	1707	3749	77
35	0	0	2766	1704	3750	75
36	0	0	2866	1702	3749	75
37	0	0	2846	1698	3748	76
38	0	0	2872	1696	3748	79
39	0	0	2751	1692	3749	77
40	0	0	2433	1690	3747	73
41	0	0	2085	1690	3747	81
42	0	0	1682	1689	3747	81
43	0	0	1288	1692	3748	82
44	0	0	1064	1695	3748	80
45	0	0	943	1696	3743	79
46	0	0	916	1703	3747	79
47	0	0	1049	1705	3747	82
48	0	0	1285	1705	3747	81
49	0	0	1550	1706	3749	81
50	0	0	1806	1705	3747	76
51	0	0	2026	1706	3749	80
52	0	0	2204	1705	3748	79
53	0	0	2363	1705	3749	77
54	0	0	2554	1702	3750	76
55	0	0	2724	1700	3748	71
56	0	0	2816	1699	3749	76
57	0	0	2800	1694	3748	73
58	0	0	2821	1694	3748	79
59	0	0	2724	1687	3748	78
60	0	0	2438	1685	3747	79
61	0	0	2124	1685	3748	80
62	0	0	1764	1686	3747	80
63	0	0	1379	1688	3748	79
64	0	0	1137	1688	3749	83
65	0	0	1048	1692	3747	81
66	0	0	1074	1698	3748	83
67	0	0	1172	1697	3750	86
68	0	0	1375	1700	3748	83
69	0	0	1625	1700	3748	79
70	0	0	1869	1699	3749	79
71	0	0	2076	1700	3747	78
72	0	0	2242	1699	3748	78
73	0	0	2387	1696	3748	78
74	0	0	2554	1695	3748	77
75	0	0	2715	1695	3748	76
76	0	0	2799	1691	3747	76
77	0	0	2795	1687	3749	76
78	0	0	2810	1689	3748	77
79	0	0	2731	1681	3747	79
80	0	0	2476	1680	3748	55
81	0	0	2178	1681	3747	80
82	0	0	1846	1681	3748	81
83	0	0	1484	1683	3746	80
84	0	0	1250	1684	3749	82
85	0	0	1163	1687	3748	80
86	0	0	1182	1692	3748	82
87	0	0	1261	1692	3748	80
88	0	0	1445	1695	3747	81
89	0	0	1679	1692	3748	79
90	0	0	1912	1696	3747	80
91	0	0	2110	1694	3748	77
92	0	0	2272	1694	3750	79
93	0	0	2411	1694	3746	77
94	0	0	2573	1691	3749	77
95	0	0	2725	1688	3747	71
96	0	0	2812	1689	3747	76
97	0	0	2807	1681	3749	75
98	0	0	2823	1684	3747	75
99	0	0	2752	1675	3748	76
100	0	0	2516	1674	3748	80
101	0	0	2227	1673	3748	81
102	0	0	1907	1673	3750	83
103	0	0	1557	1677	3748	80
104	0	0	1316	1676	3758	82
105	0	0	1228	1681	3749	80
106	0	0	1241	1685	3747	82
107	0	0	1317	1687	3747	78
108	0	0	1500	1689	3748	80
109	0	0	1724	1685	3748	79
110	0	0	1946	1688	3749	79
111	0	0	2143	1687	3747	78
112	0	0	2302	1685	3747	79
113	0	0	2442	1686	3749	79
114	0	0	2597	1683	3748	76
115	0	0	2747	1682	3748	76
116	0	0	2835	1679	3748	75
117	0	0	2823	1674	3749	75
118	0	0	2825	1677	3747	76
119	0	0	2764	1668	3749	78
120	0	0	2531	1668	3748	76
121	0	0	2253	1667	3748	80
122	0	0	1952	1668	3748	80
123	0	0	1618	1670	3749	82
124	0	0	1388	1673	3747	82
125	0	0	1301	1674	3748	82
126	0	0	1313	1678	3747	83
127	0	0	1399	1681	3747	80
0	0	0	1578	1681	3746	80
1	0	0	1794	1680	3748	80
2	0	0	2004	1679	3747	78
3	0	0	2187	1680	3747	79
4	0	0	2337	1680	3748	79
5	0	0	2462	1679	3746	76
6	0	0	2604	1679	3748	76
7	0	0	2745	1674	3750	74
8	0	0	2826	1672	3748	75
9	0	0	2826	1668	3748	75
10	0	0	2841	1667	3748	77
11	0	0	2787	1661	3748	78
12	0	0	2564	1658	3747	78
13	0	0	2298	1658	3749	79
14	0	0	2003	1658	3745	79
15	0	0	1673	1660	3748	81
16	0	0	1443	1664	3748	82
17	0	0	1350	1664	3747	82
18	0	0	1355	1669	3747	83
19	0	0	1426	1669	3747	83
20	0	0	1586	1671	3747	80
21	0	0	1795	1673	3748	81
22	0	0	2009	1671	3748	82
23	0	0	2196	1670	3748	79
24	0	0	2351	1670	3747	79
25	0	0	2486	1669	3748	76
26	0	0	2651	1665	3749	77
27	0	0	2801	1665	3749	75
28	0	0	2893	1662	3747	76
29	0	0	2896	1658	3747	73
30	0	0	2915	1656	3748	76
31	0	0	2866	1653	3749	77
32	0	0	2647	1649	3747	79
33	0	0	2372	1646	3747	79
34	0	0	2052	1651	3747	80
35	0	0	1681	1651	3747	80
36	0	0	1417	1654	3748	81
37	0	0	1306	1655	3747	79
38	0	0	1297	1658	3747	81
39	0	0	1367	1662	3748	80
40	0	0	1551	1661	3748	79
41	0	0	1772	1665	3749	81
42	0	0	1998	1663	3748	79
43	0	0	2205	1662	3750	78
44	0	0	2367	1661	3746	80
45	0	0	2520	1656	3748	77
46	0	0	2710	1658	3749	78
47	0	0	2893	1656	3747	71
48	0	0	3017	1652	3748	77
49	0	0	3044	1648	3747	76
50	0	0	3090	1648	3746	76
51	0	0	3031	1643	3748	78
52	0	0	2768	1639	3747	78
53	0	0	2445	1638	3747	80
54	0	0	2064	1641	3747	82
55	0	0	1620	1640	3750	82
56	0	0	1307	1645	3749	81
57	0	0	1161	1644	3748	82
58	0	0	1126	1648	3749	82
59	0	0	1188	1652	3751	81
60	0	0	1395	1652	3748	80
61	0	0	1648	1653	3749	80
62	0	0	1910	1652	3747	79
63	0	0	2151	1651	3748	79
64	0	0	2356	1654	3747	79
65	0	0	2563	1651	3747	78
66	0	0	2825	1651	3749	76
67	0	0	3085	1646	3747	75
68	0	0	3262	1644	3747	76
69	0	0	3326	1643	3747	75
70	0	0	3440	1640	3747	76
71	0	0	3376	1635	3748	76
72	0	0	3031	1631	3748	76
73	0	0	2614	1630	3748	80
74	0	0	2088	1631	3749	83
75	0	0	1519	1632	3750	81
76	0	0	1178	1636	3749	82
77	0	0	991	1636	3749	82
78	0	0	887	1637	3748	81
79	0	0	835	1640	3747	80
80	0	0	1063	1643	3748	79
81	0	0	1413	1644	3747	79
82	0	0	1763	1643	3747	80
83	0	0	2074	1642	3747	79
84	0	0	2352	1644	3747	79
85	0	0	2638	1641	3748	78
86	0	0	3015	1640	3748	76
87	0	0	3396	1639	3748	77
88	0	0	3657	1634	3748	76
89	0	0	3770	1633	3748	77
90	0	0	3978	1628	3748	77
91	0	0	3887	1621	3748	78
92	0	0	3405	1619	3748	79
93	0	0	2847	1619	3748	80
94	0	0	2106	1620	3748	81
95	0	0	1506	1621	3749	82
96	0	0	1168	1625	3748	82
97	0	0	976	1625	3749	82
98	0	0	872	1627	3748	82
99	0	0	819	1629	3747	82
100	0	0	792	1630	3747	79
101	0	0	1137	1633	3747	80
102	0	0	1576	1633	3746	80
103	0	0	1967	1633	3748	75
104	0	0	2335	1634	3747	78
105	0	0	2709	1631	3750	77
106	0	0	3233	1629	3749	77
107	0	0	3770	1627	3748	77
108	0	0	4090	1625	3748	76
109	0	0	4091	1622	3749	74
110	0	0	4091	1620	3748	77
111	0	0	4091	1617	3749	78
112	0	0	3862	1610	3747	77
113	0	0	3125	1610	3747	80
114	0	0	2197	1613	3747	80
115	0	0	1557	1614	3746	80
116	0	0	1184	1614	3748	82
117	0	0	975	1617	3745	83
118	0	0	862	1619	3747	80
119	0	0	800	1621	3747	83
120	0	0	768	1622	3746	80
121	0	0	864	1625	3746	79
122	0	0	1377	1625	3747	79
123	0	0	1862	1626	3749	78
124	0	0	2319	1626	3751	79
125	0	0	2799	1624	3749	78
126	0	0	3479	1623	3750	76
127	0	0	4007	1620	3748	79
0	0	0	4092	1618	3748	77
1	0	0	4092	1617	3747	71
2	0	0	4092	1614	3748	76
3	0	0	4093	1613	3748	78
4	0	0	4091	1604	3747	79
5	0	0	3318	1605	3749	80
6	0	0	2273	1606	3751	83
7	0	0	1587	1607	3748	81
8	0	0	1187	1608	3748	82
9	0	0	960	1611	3748	82
10	0	0	831	1613	3747	83
11	0	0	769	1614	3748	80
12	0	0	735	1617	3748	82
13	0	0	719	1616	3748	81
14	0	0	1148	1621	3748	79
15	0	0	1697	1622	3746	79
16	0	0	2240	1621	3749	76
17	0	0	2831	1620	3749	77
18	0	0	3572	1618	3748	76
19	0	0	4056	1617	3747	76
20	0	0	4092	1615	3745	78
21	0	0	4092	1612	3748	77
22	0	0	4092	1610	3748	76
23	0	0	4093	1608	3748	77
24	0	0	4091	1601	3747	79
25	0	0	3497	1601	3747	80
26	0	0	2346	1602	3748	81
27	0	0	1609	1604	3750	82
28	0	0	1189	1606	3749	83
29	0	0	947	1607	3748	84
30	0	0	816	1611	3749	82
31	0	0	745	1612	3750	79
32	0	0	705	1614	3748	80
33	0	0	688	1615	3749	79
34	0	0	937	1618	3747	80
35	0	0	1510	1618	3747	78
36	0	0	2103	1616	3747	79
37	0	0	2770	1617	3746	76
38	0	0	3546	1615	3747	76
39	0	0	4025	1614	3749	76
40	0	0	4091	1611	3747	77
41	0	0	4091	1608	3747	75
42	0	0	4092	1608	3750	77
43	0	0	4092	1606	3748	78
44	0	0	4092	1597	3748	78
45	0	0	3768	1598	3748	80
46	0	0	2482	1599	3744	79
47	0	0	1673	1603	3748	81
48	0	0	1214	1603	3749	82
49	0	0	950	1606	3748	82
50	0	0	802	1608	3750	82
51	0	0	725	1611	3749	83
52	0	0	682	1613	3749	79
53	0	0	662	1613	3747	79
54	0	0	992	1616	3747	81
55	0	0	1648	1617	3748	79
56	0	0	2311	1617	3747	80
57	0	0	3013	1616	3749	77
58	0	0	3690	1615	3748	77
59	0	0	4090	1612	3748	77
60	0	0	4091	1610	3748	77
61	0	0	4090	1609	3749	78
62	0	0	4093	1606	3751	78
63	0	0	4092	1607	3747	77
64	0	0	4091	1598	3748	78
65	0	0	3644	1598	3749	79
66	0	0	2437	1599	3749	85
67	0	0	1635	1602	3750	82
68	0	0	1180	1603	3747	82
69	0	0	918	1606	3749	83
70	0	0	774	1607	3747	82
71	0	0	694	1607	3747	83
72	0	0	654	1611	3747	80
73	0	0	632	1613	3747	80
74	0	0	1131	1615	3748	81
75	0	0	1717	1617	3747	80
76	0	0	2298	1616	3749	79
77	0	0	2920	1616	3748	78
78	0	0	3622	1615	3748	76
79	0	0	4035	1611	3748	76
80	0	0	4090	1610	3748	76
81	0	0	4092	1608	3749	75
82	0	0	4092	1607	3747	75
83	0	0	4091	1605	3748	77
84	0	0	4091	1597	3747	78
85	0	0	3535	1598	3747	79
86	0	0	2362	1599	3749	83
87	0	0	1582	1602	3749	82
88	0	0	1134	1603	3747	82
89	0	0	882	1606	3747	84
90	0	0	740	1608	3748	80
91	0	0	665	1608	3747	80
92	0	0	625	1612	3747	81
93	0	0	610	1615	3747	81
94	0	0	1194	1616	3747	81
95	0	0	1773	1617	3749	79
96	0	0	2329	1617	3749	75
97	0	0	2960	1617	3747	78
98	0	0	3639	1614	3748	76
99	0	0	4038	1613	3748	77
100	0	0	4091	1610	3748	74
101	0	0	4092	1610	3746	74
102	0	0	4092	1607	3746	76
103	0	0	4091	1605	3747	78
104	0	0	4093	1599	3748	77
105	0	0	3439	1599	3747	81
106	0	0	2292	1600	3747	82
107	0	0	1529	1602	3749	82
108	0	0	1094	1603	3748	82
109	0	0	848	1606	3747	82
110	0	0	711	1610	3747	81
111	0	0	636	1612	3747	81
112	0	0	599	1613	3751	82
113	0	0	580	1617	3748	80
114	0	0	1172	1618	3748	81
115	0	0	1758	1618	3748	79
116	0	0	2317	1619	3747	78
117	0	0	2955	1618	3747	78
118	0	0	3624	1615	3747	75
119	0	0	4024	1614	3747	77
120	0	0	4092	1612	3747	76
121	0	0	4092	1612	3746	74
122	0	0	4093	1610	3747	75
123	0	0	4092	1607	3748	75
124	0	0	4091	1599	3747	76
125	0	0	3359	1601	3748	80
126	0	0	2247	1601	3747	82
127	0	0	1490	1602	3747	81
0	0	0	1064	1605	3750	81
1	0	0	819	1607	3748	82
2	0	0	685	1610	3748	81
3	0	0	614	1613	3748	79
4	0	0	575	1613	3747	79
5	0	0	664	1616	3748	80
6	0	0	1258	1617	3747	80
7	0	0	1816	1619	3747	80
8	0	0	2342	1618	3747	79
9	0	0	2913	1616	3746	78
10	0	0	3579	1616	3748	77
11	0	0	3987	1614	3747	76
12	0	0	4092	1613	3747	76
13	0	0	4090	1610	3747	78
14	0	0	4093	1609	3747	75
15	0	0	4091	1607	3749	75
16	0	0	4092	1601	3749	77
17	0	0	3254	1601	3747	81
18	0	0	2195	1601	3749	81
19	0	0	1461	1603	3747	82
20	0	0	1035	1604	3749	82
21	0	0	793	1608	3748	82
22	0	0	661	1611	3750	82
23	0	0	590	1612	3748	79
24	0	0	553	1613	3745	80
25	0	0	887	1616	3747	78
26	0	0	1441	1618	3747	79
27	0	0	1947	1619	3747	80
28	0	0	2406	1619	3747	79
29	0	0	2886	1617	3746	78
30	0	0	3505	1616	3749	76
31	0	0	3935	1615	3747	78
32	0	0	4091	1612	3748	77
33	0	0	4090	1612	3747	75
34	0	0	4092	1609	3746	78
35	0	0	4091	1608	3749	75
36	0	0	3840	1600	3748	79
37	0	0	3094	1600	3750	80
38	0	0	2139	1602	3748	82
39	0	0	1421	1604	3745	82
40	0	0	1002	1604	3749	82
41	0	0	766	1607	3747	82
42	0	0	637	1610	3747	81
43	0	0	568	1612	3747	83
44	0	0	678	1616	3748	83
45	0	0	1166	1618	3749	81
46	0	0	1656	1615	3749	80
47	0	0	2080	1618	3747	79
48	0	0	2467	1620	3747	78
49	0	0	2637	1610	3748	79
50	0	0	1635	1609	3750	77
51	0	0	1120	1608	3748	76
52	0	0	835	1607	3748	77
53	0	0	684	1606	3749	76
54	0	0	604	1604	3748	79
55	0	0	561	1601	3748	80
56	0	0	541	1605	3747	79
57	0	0	533	1607	3747	79
58	0	0	531	1609	3747	80
59	0	0	530	1607	3748	81
60	0	0	531	1608	3748	86
61	0	0	538	1607	3746	82
62	0	0	539	1611	3747	82
63	0	0	546	1610	3747	83
64	0	0	551	1612	3748	83
65	0	0	554	1611	3748	82
66	0	0	558	1615	3749	80
67	0	0	560	1615	3747	79
68	0	0	570	1614	3748	77
69	0	0	572	1615	3750	75
70	0	0	577	1612	3750	79
71	0	0	582	1612	3750	75
72	0	0	587	1612	3748	77
73	0	0	591	1608	3747	74
74	0	0	598	1608	3748	74
75	0	0	602	1612	3749	77
76	0	0	606	1607	3745	79
77	0	0	611	1608	3749	81
78	0	0	614	1612	3748	81
79	0	0	620	1612	3746	82
80	0	0	623	1613	3748	82
81	0	0	629	1615	3748	82
82	0	0	629	1614	3748	82
83	0	0	633	1615	3747	77
84	0	0	642	1615	3748	81
85	0	0	646	1615	3749	80
86	0	0	649	1617	3748	80
87	0	0	653	1618	3748	82
88	0	0	658	1618	3749	79
89	0	0	662	1616	3748	79
90	0	0	667	1615	3747	77
91	0	0	671	1615	3748	77
92	0	0	676	1611	3747	76
93	0	0	682	1610	3747	73
94	0	0	688	1615	3749	76
95	0	0	690	1613	3748	77
96	0	0	693	1609	3745	79
97	0	0	697	1610	3748	79
98	0	0	702	1612	3748	82
99	0	0	707	1615	3748	82
100	0	0	709	1616	3748	82
101	0	0	714	1618	3747	82
102	0	0	716	1616	3749	82
103	0	0	721	1616	3749	82
104	0	0	728	1618	3748	80
105	0	0	730	1621	3748	80
106	0	0	736	1617	3747	79
107	0	0	738	1618	3746	80
108	0	0	741	1619	3749	77
109	0	0	745	1618	3748	79
110	0	0	751	1617	3748	77
111	0	0	754	1616	3745	75
112	0	0	758	1614	3747	76
113	0	0	761	1612	3747	73
114	0	0	766	1615	3749	76
115	0	0	771	1615	3747	78
116	0	0	775	1613	3750	80
117	0	0	778	1614	3748	79
118	0	0	779	1615	3747	80
119	0	0	784	1617	3748	81
120	0	0	789	1618	3748	81
121	0	0	793	1617	3748	82
122	0	0	796	1618	3747	82
123	0	0	797	1621	3747	82
124	0	0	802	1622	3748	80
125	0	0	806	1620	3747	79
126	0	0	811	1621	3748	79
127	0	0	818	1619	3747	80
0	0	0	819	1623	3745	79
1	0	0	823	1620	3747	76
2	0	0	826	1618	3747	77
3	0	0	830	1619	3747	77
4	0	0	834	1615	3748	77
5	0	0	837	1614	3748	77
6	0	0	844	1615	3749	77
7	0	0	847	1615	3748	78
8	0	0	849	1614	3748	78
9	0	0	854	1616	3748	79
10	0	0	854	1615	3748	81
11	0	0	858	1618	3747	79
12	0	0	864	1619	3750	82
13	0	0	865	1620	3747	82
14	0	0	868	1621	3748	81
15	0	0	871	1617	3747	84
16	0	0	873	1619	3747	81
17	0	0	878	1623	3748	81
18	0	0	883	1621	3747	80
19	0	0	888	1622	3747	79
20	0	0	889	1622	3747	78
21	0	0	894	1620	3751	77
22	0	0	898	1620	3748	77
23	0	0	901	1620	3748	76
24	0	0	906	1617	3747	77
25	0	0	903	1617	3748	75
26	0	0	913	1615	3748	76
27	0	0	916	1616	3748	79
28	0	0	918	1619	3747	76
29	0	0	922	1615	3748	79
30	0	0	923	1617	3748	80
31	0	0	929	1620	3750	80
32	0	0	930	1619	3747	82
33	0	0	934	1622	3748	82
34	0	0	936	1623	3748	81
35	0	0	940	1621	3748	81
36	0	0	944	1621	3747	81
37	0	0	947	1623	3748	79
38	0	0	950	1623	3746	77
39	0	0	952	1624	3747	79
40	0	0	959	1624	3748	79
41	0	0	960	1623	3751	77
42	0	0	964	1621	3748	77
43	0	0	968	1620	3748	77
44	0	0	970	1619	3747	77
45	0	0	969	1617	3747	76
46	0	0	980	1621	3749	74
47	0	0	983	1618	3745	78
48	0	0	984	1616	3746	77
49	0	0	987	1618	3747	80
50	0	0	989	1619	3747	81
51	0	0	993	1622	3749	81
52	0	0	995	1622	3748	79
53	0	0	999	1623	3749	81
54	0	0	1000	1622	3748	82
55	0	0	1001	1622	3748	81
56	0	0	1010	1624	3747	77
57	0	0	1012	1623	3749	80
58	0	0	1015	1627	3748	80
59	0	0	1017	1626	3747	78
60	0	0	1019	1626	3748	78
61	0	0	1024	1624	3747	78
62	0	0	1026	1623	3749	77
63	0	0	1029	1622	3748	75
64	0	0	1033	1621	3749	77
65	0	0	1034	1620	3749	76
66	0	0	1038	1620	3748	72
67	0	0	1043	1620	3745	77
68	0	0	1044	1620	3747	77
69	0	0	1048	1619	3747	80
70	0	0	1046	1620	3748	81
71	0	0	1053	1623	3749	81
72	0	0	1056	1624	3749	82
73	0	0	1060	1626	3748	82
74	0	0	1061	1629	3747	80
75	0	0	1061	1626	3751	80
76	0	0	1066	1627	3748	77
77	0	0	1069	1627	3749	79
78	0	0	1073	1627	3746	80
79	0	0	1075	1628	3748	80
80	0	0	1079	1628	3746	79
81	0	0	1081	1627	3748	76
82	0	0	1084	1626	3749	77
83	0	0	1087	1625	3747	77
84	0	0	1090	1624	3747	77
85	0	0	1093	1623	3748	75
86	0	0	1096	1622	3747	78
87	0	0	1102	1623	3745	77
88	0	0	1102	1623	3749	78
89	0	0	1104	1624	3747	79
90	0	0	1105	1624	3748	81
91	0	0	1110	1625	3749	79
92	0	0	1761	1627	3749	81
93	0	0	2949	1629	3748	80
94	0	0	3848	1631	3750	82
95	0	0	4091	1631	3749	83
96	0	0	4091	1632	3747	79
97	0	0	4091	1627	3749	80
98	0	0	3756	1627	3747	79
99	0	0	2719	1628	3747	78
100	0	0	1989	1628	3748	79
101	0	0	1569	1628	3747	78
102	0	0	1332	1628	3748	76
103	0	0	1199	1627	3751	77
104	0	0	1128	1627	3747	77
105	0	0	1089	1625	3748	75
106	0	0	1073	1624	3749	75
107	0	0	1063	1623	3749	77
108	0	0	1063	1623	3748	78
109	0	0	1061	1625	3747	80
110	0	0	1063	1627	3749	81
111	0	0	1219	1629	3749	79
112	0	0	2401	1629	3748	82
113	0	0	3496	1631	3747	81
114	0	0	4092	1627	3747	84
115	0	0	4091	1634	3748	83
116	0	0	4091	1634	3746	84
117	0	0	4091	1635	3748	80
118	0	0	4088	1635	3747	79
119	0	0	4092	1629	3749	82
120	0	0	4092	1630	3749	79
121	0	0	3673	1628	3747	80
122	0	0	2825	1627	3748	77
123	0	0	1969	1627	3749	77
124	0	0	1477	1623	3748	80
125	0	0	1202	1624	3750	75
126	0	0	1042	1624	3746	79
127	0	0	957	1623	3748	76
0	0	0	915	1623	3747	78
1	0	0	888	1621	3749	82
2	0	0	1424	1628	3749	81
3	0	0	2724	1628	3746	84
4	0	0	3611	1629	3746	81
5	0	0	4090	1633	3748	82
6	0	0	4092	1629	3748	84
7	0	0	4090	1634	3749	80
8	0	0	4092	1635	3748	77
9	0	0	4093	1636	3749	80
10	0	0	4092	1637	3748	79
11	0	0	4091	1631	3748	78
12	0	0	4091	1630	3747	78
13	0	0	3246	1628	3749	76
14	0	0	2249	1628	3750	76
15	0	0	1581	1627	3748	77
16	0	0	1199	1626	3748	77
17	0	0	983	1625	3748	73
18	0	0	865	1624	3748	74
19	0	0	801	1624	3748	77
20	0	0	769	1623	3747	76
21	0	0	753	1624	3748	80
22	0	0	928	1628	3749	81
23	0	0	2193	1629	3748	79
24	0	0	3247	1630	3746	81
25	0	0	3875	1633	3748	82
26	0	0	4092	1633	3749	85
27	0	0	4092	1635	3749	80
28	0	0	4091	1635	3748	77
29	0	0	4091	1636	3748	78
30	0	0	4092	1632	3748	80
31	0	0	3240	1629	3750	79
32	0	0	2235	1631	3748	79
33	0	0	1562	1630	3748	77
34	0	0	1175	1630	3749	77
35	0	0	959	1629	3747	76
36	0	0	839	1628	3748	73
37	0	0	772	1628	3748	75
38	0	0	741	1626	3747	75
39	0	0	726	1625	3745	79
40	0	0	719	1626	3748	78
41	0	0	718	1627	3747	79
42	0	0	720	1629	3747	80
43	0	0	720	1630	3750	79
44	0	0	722	1630	3748	81
45	0	0	849	1633	3748	82
46	0	0	1297	1635	3748	81
47	0	0	1407	1631	3747	82
48	0	0	1071	1632	3748	80
49	0	0	907	1633	3746	80
50	0	0	827	1634	3747	80
51	0	0	789	1636	3747	80
52	0	0	774	1634	3746	79
53	0	0	766	1635	3748	77
54	0	0	764	1634	3744	76
55	0	0	768	1633	3748	76
56	0	0	771	1632	3747	77
57	0	0	772	1630	3747	75
58	0	0	776	1630	3747	75
59	0	0	781	1632	3747	77
60	0	0	787	1632	3747	79
61	0	0	787	1630	3749	80
62	0	0	790	1631	3746	79
63	0	0	795	1633	3750	80
64	0	0	798	1632	3748	82
65	0	0	803	1633	3747	81
66	0	0	807	1634	3750	82
67	0	0	811	1634	3748	83
68	0	0	815	1636	3748	80
69	0	0	817	1637	3748	81
70	0	0	822	1637	3747	83
71	0	0	828	1636	3748	76
72	0	0	831	1636	3747	78
73	0	0	835	1635	3747	76
74	0	0	839	1635	3747	78
75	0	0	843	1634	3747	77
76	0	0	848	1633	3748	77
77	0	0	850	1630	3747	74
78	0	0	858	1628	3748	75
79	0	0	858	1631	3746	72
80	0	0	862	1631	3748	79
81	0	0	868	1632	3748	80
82	0	0	870	1632	3748	80
83	0	0	874	1633	3749	82
84	0	0	876	1635	3748	85
85	0	0	881	1635	3749	81
86	0	0	879	1635	3747	82
87	0	0	888	1634	3746	80
88	0	0	891	1635	3747	80
89	0	0	894	1637	3747	81
90	0	0	899	1637	3746	80
91	0	0	900	1636	3748	79
92	0	0	905	1636	3745	79
93	0	0	908	1636	3749	74
94	0	0	913	1635	3750	77
95	0	0	917	1633	3748	77
96	0	0	921	1633	3750	77
97	0	0	923	1631	3750	77
98	0	0	931	1633	3748	73
99	0	0	932	1631	3747	79
100	0	0	936	1631	3747	79
101	0	0	938	1630	3747	79
102	0	0	940	1632	3747	81
103	0	0	945	1634	3748	81
104	0	0	948	1634	3748	81
105	0	0	950	1636	3747	81
106	0	0	953	1635	3748	81
107	0	0	957	1634	3748	81
108	0	0	962	1636	3748	80
109	0	0	965	1636	3747	80
110	0	0	968	1637	3747	79
111	0	0	971	1636	3749	80
112	0	0	976	1638	3749	77
113	0	0	975	1636	3749	80
114	0	0	981	1635	3749	77
115	0	0	986	1633	3748	77
116	0	0	992	1633	3747	77
117	0	0	991	1631	3747	74
118	0	0	995	1632	3746	72
119	0	0	992	1633	3743	79
120	0	0	1000	1632	3748	78
121	0	0	1006	1632	3748	79
122	0	0	1008	1632	3747	81
123	0	0	1011	1633	3748	84
124	0	0	1014	1634	3747	81
125	0	0	1016	1636	3746	80
126	0	0	1018	1634	3749	81
127	0	0	1020	1638	3749	79
0	0	0	1023	1638	3748	80
1	0	0	1029	1637	3749	79
2	0	0	1031	1636	3748	79
3	0	0	1036	1636	3748	79
4	0	0	1039	1639	3747	78
5	0	0	1041	1636	3748	78
6	0	0	1045	1635	3747	75
7	0	0	1048	1634	3751	78
8	0	0	1053	1635	3748	77
9	0	0	1055	1632	3753	78
10	0	0	1057	1632	3747	80
11	0	0	1062	1632	3747	76
12	0	0	1064	1630	3747	76
13	0	0	1067	1630	3748	78
14	0	0	1067	1632	3748	80
15	0	0	1072	1632	3749	84
16	0	0	1076	1635	3749	82
17	0	0	1080	1635	3748	82
18	0	0	1079	1634	3748	84
19	0	0	1081	1636	3749	82
20	0	0	1084	1637	3748	80
21	0	0	1090	1637	3747	81
22	0	0	1094	1637	3748	77
23	0	0	1095	1635	3747	79
24	0	0	1101	1636	3747	79
25	0	0	1100	1635	3748	80
26	0	0	1104	1635	3746	75
27	0	0	1106	1634	3747	80
28	0	0	1111	1632	3748	76
29	0	0	1111	1630	3748	72
30	0	0	1119	1630	3748	77
31	0	0	1119	1631	3746	79
32	0	0	1122	1631	3747	78
33	0	0	1125	1629	3749	80
34	0	0	1127	1631	3750	79
35	0	0	1130	1633	3750	84
36	0	0	1133	1634	3750	82
37	0	0	1135	1635	3748	79
38	0	0	1137	1634	3747	79
39	0	0	1138	1635	3748	84
40	0	0	1142	1640	3748	84
41	0	0	1146	1635	3746	79
42	0	0	1148	1635	3747	79
43	0	0	1150	1636	3747	78
44	0	0	1154	1636	3748	79
45	0	0	1156	1635	3748	76
46	0	0	1160	1636	3745	75
47	0	0	1162	1633	3743	77
48	0	0	1162	1631	3747	76
49	0	0	1167	1631	3748	75
50	0	0	1171	1633	3749	76
51	0	0	1174	1631	3747	75
52	0	0	1175	1631	3750	77
53	0	0	1177	1631	3749	79
54	0	0	1179	1633	3748	82
55	0	0	1183	1632	3749	84
56	0	0	1184	1631	3748	81
57	0	0	1189	1635	3748	84
58	0	0	2156	1637	3749	80
59	0	0	2893	1632	3748	80
60	0	0	2115	1634	3747	83
61	0	0	1683	1634	3746	80
62	0	0	1452	1636	3748	81
63	0	0	1327	1637	3747	78
64	0	0	1266	1637	3748	76
65	0	0	1234	1637	3748	78
66	0	0	1218	1634	3747	76
67	0	0	1211	1633	3747	78
68	0	0	1206	1632	3748	77
69	0	0	1205	1633	3748	72
70	0	0	1210	1631	3748	77
71	0	0	1212	1632	3745	79
72	0	0	1212	1631	3747	78
73	0	0	1213	1631	3747	82
74	0	0	1216	1632	3748	80
75	0	0	1219	1633	3748	82
76	0	0	1218	1635	3746	81
77	0	0	2114	1636	3745	80
78	0	0	3416	1637	3747	81
79	0	0	4092	1641	3748	80
80	0	0	3163	1633	3748	79
81	0	0	2296	1634	3748	79
82	0	0	1815	1636	3747	80
83	0	0	1544	1637	3749	79
84	0	0	1392	1638	3749	80
85	0	0	1312	1637	3749	79
86	0	0	1268	1636	3749	76
87	0	0	1246	1635	3748	77
88	0	0	1235	1633	3749	78
89	0	0	1229	1631	3748	73
90	0	0	1233	1633	3748	79
91	0	0	1230	1633	3748	77
92	0	0	1229	1631	3747	77
93	0	0	1233	1632	3748	80
94	0	0	1235	1633	3748	80
95	0	0	1236	1633	3748	83
96	0	0	1238	1638	3748	82
97	0	0	2740	1638	3748	81
98	0	0	3784	1640	3748	81
99	0	0	4089	1641	3748	81
100	0	0	3579	1635	3748	79
101	0	0	2541	1637	3750	79
102	0	0	1961	1637	3748	80
103	0	0	1629	1637	3748	78
104	0	0	1442	1637	3747	79
105	0	0	1344	1638	3748	77
106	0	0	1290	1636	3748	77
107	0	0	1265	1636	3749	77
108	0	0	1248	1633	3745	77
109	0	0	1242	1632	3748	76
110	0	0	1240	1635	3747	79
111	0	0	1240	1633	3747	75
112	0	0	1240	1633	3747	78
113	0	0	1241	1633	3748	77
114	0	0	1243	1634	3748	78
115	0	0	1245	1636	3749	80
116	0	0	1444	1636	3750	81
117	0	0	3034	1639	3748	81
118	0	0	3950	1642	3749	79
119	0	0	4089	1640	3749	79
120	0	0	3664	1636	3750	79
121	0	0	2585	1636	3748	77
122	0	0	1997	1638	3747	79
123	0	0	1651	1640	3747	79
124	0	0	1457	1639	3748	80
125	0	0	1354	1638	3748	75
126	0	0	1298	1637	3750	77
127	0	0	1271	1637	3749	76
0	0	0	1256	1636	3746	75
1	0	0	1247	1631	3750	74
2	0	0	1248	1632	3748	76
3	0	0	1247	1634	3748	78
4	0	0	1248	1635	3750	79
5	0	0	1247	1634	3746	79
6	0	0	1248	1634	3749	80
7	0	0	1250	1636	3750	75
8	0	0	1624	1638	3751	78
9	0	0	3172	1638	3749	79
10	0	0	4042	1641	3746	79
11	0	0	4091	1641	3749	81
12	0	0	4093	1637	3749	79
13	0	0	2847	1638	3748	80
14	0	0	2140	1640	3747	77
15	0	0	1727	1640	3747	79
16	0	0	1494	1640	3749	78
17	0	0	1365	1640	3748	79
18	0	0	1296	1639	3749	75
19	0	0	1261	1638	3748	76
20	0	0	1242	1637	3749	75
21	0	0	1233	1633	3750	74
22	0	0	1230	1636	3749	73
23	0	0	1231	1637	3751	76
24	0	0	1232	1636	3748	77
25	0	0	1232	1636	3749	76
26	0	0	1232	1634	3749	78
27	0	0	1235	1639	3748	74
28	0	0	2110	1639	3749	81
29	0	0	3439	1642	3749	81
30	0	0	4089	1645	3748	83
31	0	0	4092	1642	3748	78
32	0	0	4092	1639	3748	78
33	0	0	3013	1640	3747	78
34	0	0	2200	1639	3747	76
35	0	0	1740	1641	3748	79
36	0	0	1478	1641	3749	79
37	0	0	1329	1641	3749	78
38	0	0	1252	1641	3750	78
39	0	0	1210	1639	3748	76
40	0	0	1188	1640	3748	77
41	0	0	1178	1638	3750	78
42	0	0	1174	1639	3749	74
43	0	0	1175	1638	3747	74
44	0	0	1175	1639	3747	77
45	0	0	1174	1639	3748	78
46	0	0	1178	1637	3749	80
47	0	0	1177	1641	3748	80
48	0	0	2420	1643	3747	77
49	0	0	3579	1646	3748	77
50	0	0	4092	1646	3750	79
51	0	0	4091	1645	3749	75
52	0	0	4093	1642	3748	79
53	0	0	3171	1643	3748	80
54	0	0	2259	1644	3747	80
55	0	0	1747	1645	3749	79
56	0	0	1452	1647	3750	79
57	0	0	1284	1646	3750	79
58	0	0	1196	1645	3749	77
59	0	0	1148	1643	3748	76
60	0	0	1123	1642	3748	78
61	0	0	1112	1639	3749	75
62	0	0	1108	1643	3748	80
63	0	0	1108	1642	3747	74
64	0	0	1106	1644	3748	78
65	0	0	1109	1644	3748	80
66	0	0	1110	1643	3747	78
67	0	0	1112	1645	3748	79
68	0	0	2539	1647	3749	78
69	0	0	3609	1649	3751	83
70	0	0	4091	1649	3749	80
71	0	0	4089	1652	3750	81
72	0	0	4090	1652	3749	78
73	0	0	3267	1646	3748	76
74	0	0	2289	1649	3747	76
75	0	0	1743	1648	3750	80
76	0	0	1426	1649	3750	79
77	0	0	1247	1649	3748	79
78	0	0	1150	1648	3749	75
79	0	0	1100	1647	3750	76
80	0	0	1073	1647	3746	77
81	0	0	1059	1643	3748	74
82	0	0	1058	1645	3748	76
83	0	0	1056	1648	3747	74
84	0	0	1053	1648	3747	78
85	0	0	1054	1647	3748	77
86	0	0	1059	1651	3748	80
87	0	0	1063	1650	3748	81
88	0	0	2461	1652	3750	82
89	0	0	3541	1653	3748	79
90	0	0	4090	1654	3750	79
91	0	0	4091	1655	3749	77
92	0	0	4092	1645	3749	80
93	0	0	3223	1650	3748	80
94	0	0	2253	1651	3749	80
95	0	0	1707	1652	3747	78
96	0	0	1394	1652	3745	79
97	0	0	1220	1653	3748	79
98	0	0	1122	1651	3748	78
99	0	0	1071	1651	3747	77
100	0	0	1045	1651	3748	72
101	0	0	1033	1652	3748	75
102	0	0	1029	1650	3748	80
103	0	0	1028	1651	3747	79
104	0	0	1024	1651	3747	78
105	0	0	1029	1651	3749	76
106	0	0	1032	1652	3748	77
107	0	0	1035	1653	3749	80
108	0	0	2573	1653	3747	80
109	0	0	3604	1655	3748	78
110	0	0	4091	1657	3748	80
111	0	0	4092	1659	3750	80
112	0	0	4090	1655	3747	83
113	0	0	3265	1653	3748	77
114	0	0	2262	1654	3747	77
115	0	0	1702	1654	3749	79
116	0	0	1382	1652	3746	79
117	0	0	1203	1655	3748	79
118	0	0	1100	1653	3748	78
119	0	0	1047	1652	3749	79
120	0	0	1023	1653	3748	77
121	0	0	1008	1649	3746	75
122	0	0	1006	1650	3749	75
123	0	0	1003	1651	3748	79
124	0	0	1002	1650	3748	77
125	0	0	1005	1650	3749	76
126	0	0	1007	1652	3747	76
127	0	0	1013	1653	3748	82
0	0	0	2600	1653	3749	81
1	0	0	3609	1654	3747	81
2	0	0	4089	1656	3747	78
3	0	0	4090	1655	3745	77
4	0	0	4089	1658	3747	79
5	0	0	3433	1651	3748	78
6	0	0	2355	1652	3748	80
7	0	0	1745	1651	3747	79
8	0	0	1391	1653	3747	80
9	0	0	1195	1651	3748	79
10	0	0	1085	1651	3748	79
11	0	0	1027	1650	3748	76
12	0	0	999	1649	3749	77
13	0	0	982	1648	3748	76
14	0	0	981	1648	3748	78
15	0	0	976	1647	3747	79
16	0	0	977	1647	3747	78
17	0	0	982	1647	3747	79
18	0	0	979	1650	3747	80
19	0	0	1003	1650	3748	79
20	0	0	2716	1649	3747	79
21	0	0	3666	1650	3747	80
22	0	0	4088	1650	3747	78
23	0	0	4091	1656	3748	80
24	0	0	4088	1653	3748	79
25	0	0	4092	1654	3747	81
26	0	0	4091	1655	3748	77
27	0	0	4092	1654	3747	79
28	0	0	4092	1649	3750	83
29	0	0	2880	1648	3749	76
30	0	0	1968	1647	3740	77
31	0	0	1451	1645	3748	76
32	0	0	1152	1646	3747	76
33	0	0	987	1645	3749	77
34	0	0	896	1644	3748	77
35	0	0	853	1648	3748	78
36	0	0	823	1645	3747	78
37	0	0	2255	1646	3746	75
38	0	0	3324	1648	3750	78
39	0	0	3947	1648	3748	77
40	0	0	4088	1649	3748	83
41	0	0	4092	1652	3747	81
42	0	0	4088	1654	3748	81
43	0	0	4092	1655	3748	77
44	0	0	4093	1656	3748	79
45	0	0	4091	1657	3749	79
46	0	0	4092	1657	3748	76
47	0	0	4092	1658	3748	79
48	0	0	4091	1658	3748	80
49	0	0	4092	1657	3749	79
50	0	0	4091	1656	3747	77
51	0	0	4093	1657	3749	76
52	0	0	4092	1655	3747	77
53	0	0	4092	1654	3747	75
54	0	0	4092	1652	3749	79
55	0	0	4091	1651	3748	80
56	0	0	4091	1647	3747	77
57	0	0	4091	1650	3746	79
58	0	0	4091	1652	3748	84
59	0	0	4091	1653	3749	81
60	0	0	4091	1654	3749	78
61	0	0	4091	1655	3748	78
62	0	0	4091	1655	3748	79
63	0	0	4091	1659	3748	80
64	0	0	4091	1656	3749	82
65	0	0	4092	1659	3746	79
66	0	0	4091	1660	3747	80
67	0	0	4091	1660	3748	75
68	0	0	4092	1661	3749	79
69	0	0	4093	1661	3749	77
70	0	0	4093	1660	3749	77
71	0	0	4091	1659	3747	76
72	0	0	4091	1657	3747	77
73	0	0	4092	1657	3748	73
74	0	0	4091	1655	3748	74
75	0	0	4091	1654	3747	77
76	0	0	4091	1656	3747	79
77	0	0	4091	1655	3747	75
78	0	0	4090	1657	3750	79
79	0	0	4091	1661	3749	77
80	0	0	4092	1664	3749	57
81	0	0	4091	1666	3750	81
82	0	0	4092	1668	3749	76
83	0	0	4092	1672	3749	78
84	0	0	4091	1673	3748	79
85	0	0	4092	1677	3748	77
86	0	0	4091	1676	3747	79
87	0	0	4093	1678	3747	81
88	0	0	4092	1680	3748	77
89	0	0	4090	1681	3748	78
90	0	0	4092	1682	3748	75
91	0	0	4093	1684	3748	77
92	0	0	4093	1683	3748	77
93	0	0	4092	1686	3749	73
94	0	0	4090	1683	3750	76
95	0	0	4092	1684	3747	79
96	0	0	4091	1685	3748	78
97	0	0	4093	1688	3748	79
98	0	0	4092	1688	3748	80
99	0	0	4092	1691	3749	78
100	0	0	4091	1692	3748	77
101	0	0	4093	1696	3749	78
102	0	0	4093	1695	3747	77
103	0	0	4092	1702	3748	80
104	0	0	4091	1703	3748	77
105	0	0	4090	1704	3747	79
106	0	0	4093	1706	3747	77
107	0	0	4093	1708	3747	80
108	0	0	4092	1709	3748	78
109	0	0	4088	1709	3748	78
110	0	0	4091	1710	3749	75
111	0	0	4091	1710	3749	74
112	0	0	4092	1708	3748	77
113	0	0	4092	1711	3749	74
114	0	0	4093	1711	3750	76
115	0	0	4091	1710	3747	74
116	0	0	4091	1710	3748	77
117	0	0	4092	1712	3747	72
118	0	0	4092	1715	3748	77
119	0	0	4091	1714	3748	77
120	0	0	4091	1718	3747	80
121	0	0	4094	1722	3747	81
122	0	0	4093	1724	3747	81
123	0	0	4092	1725	3747	76
124	0	0	4091	1727	3748	78
125	0	0	4091	1729	3748	75
126	0	0	4094	1731	3748	76
127	0	0	4092	1731	3748	79
0	0	0	4092	1727	3749	79
1	0	0	4091	1733	3749	78
2	0	0	4091	1732	3748	76
3	0	0	4092	1731	3749	76
4	0	0	4092	1732	3748	77
5	0	0	4092	1733	3748	76
6	0	0	4092	1731	3749	78
7	0	0	4092	1729	3747	79
8	0	0	4093	1729	3747	77
9	0	0	4084	1730	3748	80
10	0	0	4079	1729	3747	79
11	0	0	4072	1731	3748	81
12	0	0	4067	1734	3747	79
13	0	0	4061	1735	3748	78
14	0	0	4051	1737	3748	79
15	0	0	4050	1737	3749	79
16	0	0	4044	1739	3749	83
17	0	0	4039	1740	3748	80
18	0	0	4034	1742	3748	79
19	0	0	4028	1742	3748	78
20	0	0	4023	1743	3749	79
21	0	0	4016	1740	3748	78
22	0	0	4012	1743	3749	76
23	0	0	4004	1741	3747	76
24	0	0	3996	1741	3747	75
25	0	0	3996	1739	3748	72
26	0	0	3992	1738	3748	77
27	0	0	3983	1736	3747	80
28	0	0	3979	1736	3747	78
29	0	0	3975	1733	3747	75
30	0	0	3968	1737	3748	76
31	0	0	3960	1735	3749	79
32	0	0	3963	1739	3748	77
33	0	0	3951	1740	3748	82
34	0	0	3947	1738	3748	81
35	0	0	3941	1743	3749	82
36	0	0	3937	1743	3749	77
37	0	0	3930	1743	3747	78
38	0	0	3925	1743	3749	76
39	0	0	3921	1741	3745	79
40	0	0	3914	1743	3748	80
41	0	0	3908	1742	3748	77
42	0	0	3904	1741	3748	76
43	0	0	3898	1739	3748	76
44	0	0	3892	1739	3747	73
45	0	0	3890	1736	3747	76
46	0	0	3886	1737	3749	76
47	0	0	3878	1735	3748	79
48	0	0	3873	1733	3748	77
49	0	0	3869	1731	3748	77
50	0	0	3863	1734	3749	81
51	0	0	3858	1734	3749	82
52	0	0	3855	1736	3750	81
53	0	0	3848	1737	3748	78
54	0	0	3845	1738	3748	77
55	0	0	3837	1738	3749	76
56	0	0	3828	1741	3748	76
57	0	0	3829	1741	3747	79
58	0	0	3823	1741	3747	79
59	0	0	3820	1739	3747	79
60	0	0	3815	1743	3748	78
61	0	0	3812	1743	3748	75
62	0	0	3803	1741	3748	78
63	0	0	3802	1743	3749	77
64	0	0	3797	1741	3747	75
65	0	0	3791	1740	3748	75
66	0	0	3787	1741	3749	75
67	0	0	3781	1739	3748	77
68	0	0	3777	1741	3748	75
69	0	0	3770	1739	3747	73
70	0	0	3767	1739	3748	82
71	0	0	3764	1743	3749	81
72	0	0	3757	1743	3747	84
73	0	0	3753	1745	3747	79
74	0	0	3749	1748	3748	79
75	0	0	3746	1749	3748	74
76	0	0	3740	1750	3747	75
77	0	0	3735	1751	3747	79
78	0	0	3730	1751	3746	77
79	0	0	3727	1749	3747	79
80	0	0	3721	1752	3748	79
81	0	0	3718	1753	3748	77
82	0	0	3711	1751	3748	78
83	0	0	3707	1751	3748	76
84	0	0	3706	1749	3749	76
85	0	0	3699	1749	3748	77
86	0	0	3696	1749	3749	76
87	0	0	3685	1752	3747	79
88	0	0	3684	1749	3747	77
89	0	0	3684	1747	3747	78
90	0	0	3677	1748	3748	79
91	0	0	3675	1753	3748	78
92	0	0	3668	1753	3747	79
93	0	0	3662	1756	3747	78
94	0	0	3662	1757	3747	81
95	0	0	3654	1760	3748	83
96	0	0	3652	1761	3748	79
97	0	0	3647	1763	3748	75
98	0	0	3641	1764	3747	77
99	0	0	3637	1765	3748	80
100	0	0	3635	1767	3745	77
101	0	0	3629	1768	3750	80
102	0	0	3625	1767	3749	76
103	0	0	3618	1767	3749	76
104	0	0	3616	1766	3750	78
105	0	0	3613	1767	3748	76
106	0	0	3611	1766	3748	76
107	0	0	3604	1766	3748	77
108	0	0	3600	1765	3747	77
109	0	0	3595	1767	3748	76
110	0	0	3593	1769	3750	78
111	0	0	3587	1770	3748	81
112	0	0	3580	1772	3748	79
113	0	0	3576	1775	3748	81
114	0	0	3573	1777	3748	79
115	0	0	3571	1779	3747	79
116	0	0	3567	1781	3748	79
117	0	0	3562	1781	3749	79
118	0	0	3558	1784	3749	79
119	0	0	2679	1775	3748	78
120	0	0	1295	1776	3748	79
121	0	0	544	1777	3748	77
122	0	0	104	1777	3747	75
123	0	0	0	1778	3749	76
124	0	0	0	1778	3749	79
125	0	0	0	1777	3745	73
126	0	0	0	1776	3748	75
127	0	0	0	1778	3748	78
0	0	0	0	1779	3747	77
1	0	0	0	1778	3748	82
2	0	0	0	1778	3748	81
3	0	0	0	1780	3749	77
4	0	0	0	1783	3748	73
5	0	0	0	1785	3749	77
6	0	0	0	1783	3748	78
7	0	0	0	1783	3748	80
8	0	0	0	1784	3748	82
9	0	0	0	1786	3747	77
10	0	0	0	1788	3748	75
11	0	0	0	1789	3750	79
12	0	0	0	1789	3747	77
13	0	0	0	1788	3749	77
14	0	0	0	1788	3749	72
15	0	0	0	1789	3747	75
16	0	0	0	1788	3748	78
17	0	0	0	1787	3747	75
18	0	0	0	1786	3748	75
19	0	0	0	1790	3747	72
20	0	0	0	1789	3748	77
21	0	0	0	1788	3749	79
22	0	0	0	1789	3749	77
23	0	0	0	1792	3750	82
24	0	0	0	1793	3748	80
25	0	0	0	1797	3748	83
26	0	0	0	1796	3749	82
27	0	0	259	1795	3748	80
28	0	0	25	1796	3747	80
29	0	0	0	1798	3747	80
30	0	0	0	1800	3748	80
31	0	0	0	1801	3745	80
32	0	0	0	1802	3746	76
33	0	0	0	1800	3749	77
34	0	0	0	1801	3747	76
35	0	0	0	1801	3749	75
36	0	0	0	1799	3749	79
37	0	0	0	1801	3748	76
38	0	0	0	1800	3748	74
39	0	0	0	1802	3748	78
40	0	0	0	1804	3748	79
41	0	0	0	1802	3749	81
42	0	0	0	1804	3747	80
43	0	0	0	1804	3748	80
44	0	0	0	1807	3747	80
45	0	0	0	1810	3748	82
46	0	0	785	1812	3748	82
47	0	0	1807	1810	3749	81
48	0	0	1026	1809	3748	79
49	0	0	527	1811	3747	78
50	0	0	255	1813	3748	79
51	0	0	115	1816	3750	81
52	0	0	41	1815	3746	80
53	0	0	4	1814	3749	79
54	0	0	0	1815	3749	76
55	0	0	0	1814	3748	76
56	0	0	0	1815	3749	75
57	0	0	0	1813	3748	74
58	0	0	0	1812	3748	77
59	0	0	0	1816	3747	76
60	0	0	0	1818	3747	77
61	0	0	6	1817	3744	79
62	0	0	9	1819	3746	79
63	0	0	17	1820	3747	81
64	0	0	23	1821	3747	81
65	0	0	206	1822	3748	82
66	0	0	1618	1823	3749	83
67	0	0	2626	1828	3747	80
68	0	0	1729	1821	3748	80
69	0	0	978	1824	3746	80
70	0	0	561	1824	3747	79
71	0	0	332	1826	3748	77
72	0	0	207	1826	3749	80
73	0	0	138	1827	3748	78
74	0	0	106	1825	3748	77
75	0	0	93	1826	3750	77
76	0	0	85	1825	3747	80
77	0	0	86	1824	3746	74
78	0	0	88	1827	3748	78
79	0	0	94	1825	3747	77
80	0	0	100	1825	3748	77
81	0	0	102	1826	3747	80
82	0	0	107	1828	3748	80
83	0	0	335	1827	3748	81
84	0	0	2006	1830	3748	80
85	0	0	2884	1831	3748	81
86	0	0	3408	1834	3748	81
87	0	0	3717	1834	3747	80
88	0	0	3892	1840	3748	82
89	0	0	3994	1837	3748	81
90	0	0	4048	1838	3750	80
91	0	0	4076	1838	3750	80
92	0	0	4088	1839	3748	80
93	0	0	4091	1839	3748	78
94	0	0	4092	1837	3749	76
95	0	0	4092	1836	3748	76
96	0	0	4084	1835	3747	74
97	0	0	4079	1834	3746	72
98	0	0	4073	1834	3748	75
99	0	0	4068	1832	3747	77
100	0	0	4061	1828	3746	78
101	0	0	4056	1830	3744	79
102	0	0	4049	1832	3750	80
103	0	0	4042	1835	3748	80
104	0	0	4034	1834	3748	80
105	0	0	4031	1833	3748	81
106	0	0	4024	1837	3749	80
107	0	0	4017	1839	3750	79
108	0	0	4009	1840	3748	80
109	0	0	4000	1840	3747	80
110	0	0	4000	1841	3749	78
111	0	0	3991	1842	3748	80
112	0	0	3985	1841	3749	77
113	0	0	3980	1841	3748	78
114	0	0	3971	1839	3748	77
115	0	0	3965	1839	3748	75
116	0	0	3960	1838	3747	76
117	0	0	3955	1837	3750	76
118	0	0	3947	1835	3748	75
119	0	0	3941	1833	3748	75
120	0	0	3931	1830	3749	77
121	0	0	3929	1833	3748	78
122	0	0	3925	1834	3749	81
123	0	0	3918	1838	3750	80
124	0	0	3913	1837	3749	81
125	0	0	3907	1837	3748	81
126	0	0	3901	1841	3748	80
127	0	0	3894	1842	3749	82
0	0	0	3889	1844	3748	78
1	0	0	3883	1842	3747	80
2	0	0	3880	1839	3747	80
3	0	0	3872	1844	3747	79
4	0	0	3866	1843	3749	79
5	0	0	3860	1844	3748	78
6	0	0	3855	1841	3747	76
7	0	0	3849	1839	3748	76
8	0	0	3847	1839	3747	76
9	0	0	3840	1837	3750	79
10	0	0	3833	1837	3748	74
11	0	0	3828	1834	3747	75
12	0	0	3825	1833	3748	77
13	0	0	3818	1834	3747	79
14	0	0	3813	1833	3748	82
15	0	0	3808	1835	3749	80
16	0	0	3801	1837	3748	81
17	0	0	3800	1837	3748	81
18	0	0	3793	1839	3748	80
19	0	0	3786	1838	3748	79
20	0	0	3781	1842	3748	79
21	0	0	3776	1839	3746	79
22	0	0	3770	1841	3747	79
23	0	0	3768	1842	3747	79
24	0	0	3761	1840	3748	79
25	0	0	3755	1840	3748	78
26	0	0	3750	1837	3748	76
27	0	0	3745	1836	3748	76
28	0	0	3743	1835	3748	76
29	0	0	3737	1834	3749	75
30	0	0	3731	1835	3749	76
31	0	0	3723	1830	3747	77
32	0	0	3721	1829	3747	77
33	0	0	3718	1829	3747	78
34	0	0	3712	1828	3748	79
35	0	0	3708	1830	3747	80
36	0	0	3700	1830	3747	80
37	0	0	3696	1832	3747	80
38	0	0	3694	1833	3747	81
39	0	0	3688	1834	3748	79
40	0	0	3681	1837	3748	80
41	0	0	3678	1834	3748	81
42	0	0	3673	1834	3738	80
43	0	0	3670	1835	3747	78
44	0	0	3663	1835	3750	79
45	0	0	3660	1832	3750	80
46	0	0	3655	1831	3748	76
47	0	0	3650	1829	3749	77
48	0	0	3646	1827	3746	77
49	0	0	3641	1826	3749	76
50	0	0	3637	1822	3748	76
51	0	0	3632	1821	3747	77
52	0	0	3627	1820	3748	77
53	0	0	3624	1819	3747	79
54	0	0	3617	1818	3750	80
55	0	0	3615	1819	3749	81
56	0	0	3608	1819	3747	81
57	0	0	3606	1820	3748	81
58	0	0	3601	1821	3751	82
59	0	0	3596	1821	3748	81
60	0	0	3592	1821	3750	82
61	0	0	3586	1821	3748	81
62	0	0	3581	1821	3750	80
63	0	0	3579	1820	3747	79
64	0	0	3576	1819	3750	79
65	0	0	3569	1817	3748	78
66	0	0	3565	1816	3748	77
67	0	0	3561	1813	3747	75
68	0	0	3556	1812	3747	78
69	0	0	3553	1809	3748	73
70	0	0	3548	1806	3746	74
71	0	0	3544	1803	3747	75
72	0	0	3541	1801	3747	78
73	0	0	3535	1800	3747	79
74	0	0	3532	1801	3748	79
75	0	0	3529	1800	3748	81
76	0	0	3525	1801	3751	82
77	0	0	3520	1799	3748	81
78	0	0	3516	1801	3749	81
79	0	0	3513	1800	3749	80
80	0	0	3506	1801	3748	82
81	0	0	3504	1803	3748	82
82	0	0	3502	1800	3747	79
83	0	0	3495	1798	3748	79
84	0	0	3494	1798	3748	79
85	0	0	3487	1796	3748	79
86	0	0	3485	1793	3747	77
87	0	0	3481	1792	3748	78
88	0	0	3478	1789	3747	75
89	0	0	3475	1787	3747	72
90	0	0	3468	1784	3747	76
91	0	0	3466	1782	3747	74
92	0	0	3463	1780	3749	76
93	0	0	3459	1779	3749	77
94	0	0	3455	1778	3749	80
95	0	0	3452	1779	3750	80
96	0	0	3447	1779	3748	77
97	0	0	3443	1779	3751	78
98	0	0	3442	1780	3749	80
99	0	0	3435	1781	3748	77
100	0	0	3432	1780	3748	78
101	0	0	3430	1780	3748	79
102	0	0	3424	1778	3747	79
103	0	0	3423	1778	3747	80
104	0	0	3418	1777	3748	78
105	0	0	3413	1775	3748	77
106	0	0	3410	1774	3747	76
107	0	0	3406	1771	3748	77
108	0	0	3403	1769	3748	77
109	0	0	3401	1768	3749	77
110	0	0	3393	1765	3748	75
111	0	0	3392	1762	3748	78
112	0	0	3386	1760	3748	78
113	0	0	3382	1756	3750	73
114	0	0	3380	1757	3747	73
115	0	0	3379	1759	3748	77
116	0	0	3378	1762	3748	78
117	0	0	3373	1761	3748	82
118	0	0	3370	1762	3748	80
119	0	0	3366	1762	3748	81
120	0	0	3360	1765	3747	77
121	0	0	3358	1764	3749	77
122	0	0	3353	1762	3748	76
123	0	0	3349	1762	3748	80
124	0	0	3347	1762	3751	79
125	0	0	3343	1759	3748	78
126	0	0	3339	1759	3748	76
127	0	0	3332	1754	3750	76
0	0	0	3334	1754	3747	77
1	0	0	3331	1754	3750	75
2	0	0	3328	1753	3748	77
3	0	0	3325	1751	3748	77
4	0	0	3320	1748	3747	78
5	0	0	3319	1749	3747	75
6	0	0	3313	1748	3747	76
7	0	0	3311	1743	3747	79
8	0	0	3309	1752	3749	80
9	0	0	3306	1752	3747	77
10	0	0	3302	1752	3748	78
11	0	0	3298	1753	3748	77
12	0	0	3294	1754	3748	79
13	0	0	3292	1755	3749	79
14	0	0	3283	1754	3747	79
15	0	0	3286	1752	3748	79
16	0	0	3282	1755	3749	78
17	0	0	3278	1753	3749	78
18	0	0	3275	1753	3748	77
19	0	0	3270	1752	3748	78
20	0	0	3269	1750	3748	76
21	0	0	3266	1750	3747	76
22	0	0	3261	1750	3748	76
23	0	0	3258	1749	3747	76
24	0	0	3255	1748	3747	77
25	0	0	3253	1748	3747	73
26	0	0	3250	1748	3748	79
27	0	0	3246	1749	3748	78
28	0	0	3243	1749	3748	80
29	0	0	3240	1749	3748	77
30	0	0	3236	1751	3749	75
31	0	0	3232	1751	3750	77
32	0	0	3231	1752	3749	77
33	0	0	3226	1752	3748	80
34	0	0	3224	1753	3749	79
35	0	0	3222	1753	3751	77
36	0	0	3220	1754	3749	79
37	0	0	3216	1753	3750	78
38	0	0	3212	1752	3746	77
39	0	0	3210	1751	3748	77
40	0	0	3207	1751	3747	76
41	0	0	3202	1751	3747	74
42	0	0	3200	1749	3748	76
43	0	0	3198	1746	3749	77
44	0	0	3193	1748	3747	77
45	0	0	3190	1747	3748	78
46	0	0	3187	1748	3747	76
47	0	0	3184	1747	3748	75
48	0	0	3182	1748	3748	77
49	0	0	3180	1748	3750	77
50	0	0	3176	1749	3749	80
51	0	0	3174	1749	3749	80
52	0	0	3170	1750	3748	80
53	0	0	3169	1751	3749	77
54	0	0	3164	1751	3747	77
55	0	0	3161	1751	3747	79
56	0	0	3159	1751	3747	79
57	0	0	3155	1749	3748	78
58	0	0	3153	1750	3747	78
59	0	0	3149	1750	3747	77
60	0	0	3148	1750	3747	76
61	0	0	3143	1749	3747	77
62	0	0	3141	1746	3748	76
63	0	0	3137	1742	3747	76
64	0	0	3133	1745	3748	77
65	0	0	3132	1745	3748	74
66	0	0	3130	1745	3751	77
67	0	0	3129	1746	3749	80
68	0	0	3124	1744	3748	80
69	0	0	3119	1745	3748	75
70	0	0	3120	1748	3747	76
71	0	0	3117	1746	3747	77
72	0	0	3114	1747	3748	76
73	0	0	3110	1747	3747	77
74	0	0	3108	1748	3748	80
75	0	0	3107	1748	3749	80
76	0	0	3103	1747	3747	79
77	0	0	3100	1747	3749	78
78	0	0	3096	1746	3747	76
79	0	0	3095	1747	3748	79
80	0	0	3093	1744	3748	79
81	0	0	3089	1743	3748	78
82	0	0	3086	1742	3748	78
83	0	0	3081	1740	3748	78
84	0	0	3079	1740	3748	76
85	0	0	3079	1739	3748	79
86	0	0	3075	1740	3747	79
87	0	0	3072	1739	3749	75
88	0	0	3069	1738	3748	77
89	0	0	3064	1739	3747	77
90	0	0	3065	1740	3748	78
91	0	0	3063	1741	3748	80
92	0	0	3059	1740	3748	79
93	0	0	3056	1741	3752	80
94	0	0	3052	1742	3747	79
95	0	0	3052	1744	3747	78
96	0	0	3048	1741	3747	79
97	0	0	3046	1741	3750	78
98	0	0	3043	1740	3748	78
99	0	0	3038	1739	3748	77
100	0	0	3038	1740	3748	77
101	0	0	3036	1738	3749	77
102	0	0	3033	1736	3749	77
103	0	0	3031	1734	3747	78
104	0	0	3028	1734	3747	78
105	0	0	3027	1735	3747	75
106	0	0	3023	1734	3747	77
107	0	0	3020	1734	3748	77
108	0	0	3017	1733	3747	79
109	0	0	3014	1734	3747	79
110	0	0	3012	1736	3747	80
111	0	0	3012	1735	3748	79
112	0	0	3008	1736	3743	78
113	0	0	3005	1736	3747	77
114	0	0	3000	1737	3748	78
115	0	0	3002	1737	3748	77
116	0	0	2998	1737	3749	79
117	0	0	2995	1736	3750	80
118	0	0	2992	1736	3750	79
119	0	0	2987	1735	3749	78
120	0	0	2990	1734	3749	75
121	0	0	2986	1734	3749	76
122	0	0	2983	1732	3749	76
123	0	0	2981	1731	3748	76
124	0	0	2980	1729	3747	78
125	0	0	2977	1729	3747	76
126	0	0	2974	1729	3748	79
127	0	0	2970	1728	3748	79
0	0	0	2969	1730	3748	77
1	0	0	2966	1730	3747	77
2	0	0	2965	1731	3747	78
3	0	0	2962	1731	3747	79
4	0	0	2958	1730	3749	81
5	0	0	2956	1732	3748	80
6	0	0	2955	1733	3747	79
7	0	0	2951	1732	3749	79
8	0	0	2948	1733	3748	79
9	0	0	2948	1732	3750	79
10	0	0	2945	1731	3747	78
11	0	0	2943	1730	3750	77
12	0	0	2940	1730	3747	78
13	0	0	2937	1729	3748	78
14	0	0	2936	1728	3748	77
15	0	0	2932	1726	3747	76
16	0	0	2930	1725	3750	79
17	0	0	2929	1725	3747	75
18	0	0	2927	1725	3748	79
19	0	0	2923	1724	3750	79
20	0	0	2923	1724	3748	76
21	0	0	2920	1725	3748	77
22	0	0	2919	1726	3748	75
23	0	0	2915	1726	3749	79
24	0	0	2912	1727	3748	79
25	0	0	2909	1727	3748	81
26	0	0	2907	1728	3747	80
27	0	0	2905	1727	3748	78
28	0	0	2905	1728	3748	79
29	0	0	2900	1727	3749	78
30	0	0	2899	1727	3749	78
31	0	0	2897	1723	3747	77
32	0	0	2897	1724	3747	77
33	0	0	2893	1723	3748	77
34	0	0	2889	1719	3747	77
35	0	0	2888	1717	3748	77
36	0	0	2885	1717	3748	77
37	0	0	2882	1715	3748	76
38	0	0	2881	1714	3749	76
39	0	0	2879	1711	3749	77
40	0	0	2878	1716	3748	76
41	0	0	2877	1717	3748	79
42	0	0	2871	1716	3749	79
43	0	0	2870	1714	3748	80
44	0	0	2868	1717	3748	76
45	0	0	2869	1720	3747	77
46	0	0	2865	1718	3748	77
47	0	0	2862	1720	3750	79
48	0	0	2860	1719	3748	78
49	0	0	2859	1717	3748	78
50	0	0	2856	1717	3747	79
51	0	0	2855	1715	3748	78
52	0	0	2850	1715	3747	74
53	0	0	2848	1714	3748	77
54	0	0	2847	1711	3748	77
55	0	0	2845	1710	3748	77
56	0	0	2844	1708	3748	77
57	0	0	2841	1708	3749	77
58	0	0	2839	1708	3750	78
59	0	0	2836	1707	3747	80
60	0	0	2604	1702	3749	80
61	0	0	2053	1702	3747	77
62	0	0	1608	1702	3748	79
63	0	0	1358	1704	3748	79
64	0	0	1153	1704	3747	78
65	0	0	1124	1711	3748	78
66	0	0	1802	1711	3748	79
67	0	0	2264	1710	3748	78
68	0	0	2519	1709	3750	79
69	0	0	2662	1709	3748	79
70	0	0	2740	1710	3747	78
71	0	0	2784	1710	3748	77
72	0	0	2806	1706	3750	79
73	0	0	2817	1704	3749	75
74	0	0	2823	1703	3750	77
75	0	0	2822	1701	3747	78
76	0	0	2823	1702	3748	78
77	0	0	2823	1700	3747	76
78	0	0	2821	1699	3747	73
79	0	0	2820	1700	3749	77
80	0	0	2390	1694	3747	77
81	0	0	1795	1694	3747	77
82	0	0	1349	1695	3747	80
83	0	0	1102	1697	3749	80
84	0	0	893	1696	3747	80
85	0	0	838	1703	3747	76
86	0	0	1553	1703	3747	76
87	0	0	2110	1705	3747	80
88	0	0	2424	1703	3751	78
89	0	0	2610	1703	3749	78
90	0	0	2705	1702	3748	77
91	0	0	2762	1701	3748	77
92	0	0	2785	1700	3748	78
93	0	0	2803	1700	3748	75
94	0	0	2809	1695	3743	75
95	0	0	2814	1696	3748	77
96	0	0	2809	1695	3747	77
97	0	0	2811	1695	3747	74
98	0	0	2812	1694	3747	75
99	0	0	2810	1694	3748	79
100	0	0	2238	1688	3748	80
101	0	0	1636	1689	3748	81
102	0	0	1196	1690	3748	77
103	0	0	949	1692	3749	75
104	0	0	779	1692	3749	78
105	0	0	744	1697	3748	77
106	0	0	1468	1698	3748	80
107	0	0	926	1691	3748	79
108	0	0	2	1693	3748	77
109	0	0	0	1692	3749	78
110	0	0	0	1692	3747	78
111	0	0	0	1694	3748	77
112	0	0	0	1692	3747	78
113	0	0	0	1691	3749	76
114	0	0	0	1690	3747	76
115	0	0	0	1690	3748	76
116	0	0	0	1687	3747	78
117	0	0	0	1689	3748	79
118	0	0	0	1693	3749	80
119	0	0	0	1692	3749	77
120	0	0	0	1691	3748	77
121	0	0	0	1691	3748	77
122	0	0	0	1691	3748	77
123	0	0	0	1692	3749	78
124	0	0	0	1692	3749	80
125	0	0	0	1693	3748	82
126	0	0	0	1698	3748	81
127	0	0	0	1698	3749	80
0	0	0	0	1698	3750	78
1	0	0	0	1698	3748	78
2	0	0	0	1698	3748	78
3	0	0	0	1699	3748	78
4	0	0	464	1699	3749	79
5	0	0	1692	1696	3747	76
6	0	0	2465	1696	3745	76
7	0	0	2925	1696	3747	77
8	0	0	3194	1697	3749	78
9	0	0	3350	1695	3750	78
10	0	0	3438	1695	3748	77
11	0	0	3485	1696	3750	80
12	0	0	3508	1696	3748	80
13	0	0	3521	1697	3750	81
14	0	0	3526	1698	3749	81
15	0	0	3525	1699	3748	80
16	0	0	3520	1701	3749	80
17	0	0	3520	1700	3747	80
18	0	0	3517	1701	3747	79
19	0	0	3514	1702	3747	80
20	0	0	3511	1702	3747	78
21	0	0	3505	1703	3749	79
22	0	0	3497	1701	3748	79
23	0	0	3495	1701	3748	77
24	0	0	3490	1701	3750	76
25	0	0	3487	1701	3750	76
26	0	0	3481	1699	3749	77
27	0	0	3479	1699	3750	77
28	0	0	3472	1700	3749	79
29	0	0	3469	1697	3748	78
30	0	0	3464	1698	3746	78
31	0	0	3459	1695	3745	80
32	0	0	3456	1699	3749	80
33	0	0	3449	1697	3748	80
34	0	0	3446	1700	3747	80
35	0	0	3442	1702	3748	79
36	0	0	3435	1701	3748	81
37	0	0	3431	1703	3748	80
38	0	0	3425	1703	3747	79
39	0	0	3426	1704	3749	78
40	0	0	3422	1704	3747	79
41	0	0	3414	1704	3749	79
42	0	0	3411	1704	3749	77
43	0	0	3404	1703	3748	78
44	0	0	3404	1702	3751	76
45	0	0	3399	1702	3749	76
46	0	0	3392	1700	3752	79
47	0	0	3389	1699	3748	78
48	0	0	3383	1699	3747	77
49	0	0	3380	1699	3750	78
50	0	0	3377	1699	3747	79
51	0	0	3372	1700	3749	80
52	0	0	3368	1699	3748	80
53	0	0	3362	1701	3748	80
54	0	0	3361	1700	3751	80
55	0	0	3359	1702	3747	80
56	0	0	3351	1702	3748	81
57	0	0	3348	1703	3747	81
58	0	0	3343	1703	3748	79
59	0	0	3340	1704	3750	78
60	0	0	3337	1705	3750	78
61	0	0	3333	1706	3750	75
62	0	0	3328	1704	3748	76
63	0	0	3324	1703	3749	77
64	0	0	3321	1703	3749	76
65	0	0	3317	1702	3748	76
66	0	0	3314	1701	3748	76
67	0	0	3311	1700	3747	77
68	0	0	3305	1699	3747	77
69	0	0	3301	1699	3748	75
70	0	0	3298	1699	3749	78
71	0	0	3295	1698	3749	79
72	0	0	3290	1699	3748	81
73	0	0	3287	1699	3748	79
74	0	0	3281	1700	3748	81
75	0	0	3278	1701	3747	81
76	0	0	3275	1700	3749	80
77	0	0	3272	1703	3749	79
78	0	0	3268	1702	3749	80
79	0	0	3266	1702	3749	80
80	0	0	3260	1702	3748	79
81	0	0	3255	1702	3748	80
82	0	0	3252	1701	3748	78
83	0	0	3249	1701	3747	78
84	0	0	3246	1701	3748	76
85	0	0	3242	1700	3748	77
86	0	0	3239	1699	3748	77
87	0	0	3234	1697	3747	73
88	0	0	3231	1697	3748	75
89	0	0	3228	1696	3748	79
90	0	0	3225	1696	3747	79
91	0	0	3221	1696	3747	79
92	0	0	3216	1696	3748	82
93	0	0	3212	1697	3748	79
94	0	0	3207	1698	3748	81
95	0	0	3208	1698	3748	82
96	0	0	3203	1699	3747	80
97	0	0	3199	1699	3747	80
98	0	0	3196	1700	3747	79
99	0	0	3192	1700	3748	80
100	0	0	3190	1701	3749	79
101	0	0	3185	1699	3747	75
102	0	0	3184	1699	3749	78
103	0	0	3181	1698	3748	78
104	0	0	3176	1697	3749	78
105	0	0	3174	1696	3748	75
106	0	0	3168	1695	3746	77
107	0	0	3167	1695	3748	77
108	0	0	3162	1694	3748	77
109	0	0	3157	1692	3748	77
110	0	0	3156	1692	3748	79
111	0	0	3152	1691	3748	79
112	0	0	3149	1693	3748	79
113	0	0	3146	1694	3748	80
114	0	0	3143	1695	3748	81
115	0	0	3142	1694	3749	80
116	0	0	3136	1695	3746	79
117	0	0	3132	1695	3747	80
118	0	0	3132	1696	3747	80
119	0	0	3127	1695	3745	81
120	0	0	3124	1696	3748	79
121	0	0	3120	1695	3747	78
122	0	0	3117	1695	3747	78
123	0	0	3116	1695	3748	77
124	0	0	3111	1694	3748	77
125	0	0	3109	1692	3749	77
126	0	0	3104	1691	3746	76
127	0	0	3104	1690	3749	77
0	0	0	3097	1691	3747	77
1	0	0	3095	1689	3745	79
2	0	0	3094	1689	3748	77
3	0	0	3090	1689	3749	78
4	0	0	3086	1689	3747	80
5	0	0	3082	1688	3748	80
6	0	0	3079	1690	3748	81
7	0	0	3079	1691	3749	81
8	0	0	3073	1690	3746	81
9	0	0	3066	1690	3747	80
10	0	0	3068	1690	3747	81
11	0	0	3064	1689	3745	79
12	0	0	3063	1691	3748	75
13	0	0	3059	1690	3746	79
14	0	0	3056	1688	3749	78
15	0	0	3054	1687	3750	78
16	0	0	3052	1687	3750	78
17	0	0	3047	1686	3750	74
18	0	0	3045	1685	3749	76
19	0	0	3042	1682	3747	77
20	0	0	3038	1681	3748	74
21	0	0	3036	1681	3748	78
22	0	0	3033	1680	3748	76
23	0	0	3029	1679	3746	80
24	0	0	3027	1679	3748	80
25	0	0	3023	1679	3750	80
26	0	0	3023	1680	3748	83
27	0	0	3019	1680	3748	79
28	0	0	3016	1679	3748	81
29	0	0	3016	1680	3749	81
30	0	0	3010	1680	3748	79
31	0	0	3008	1679	3748	79
32	0	0	3005	1679	3750	79
33	0	0	3001	1677	3748	79
34	0	0	3000	1677	3748	78
35	0	0	2995	1675	3748	78
36	0	0	2991	1672	3746	79
37	0	0	2992	1673	3748	73
38	0	0	2988	1669	3747	76
39	0	0	2985	1668	3743	78
40	0	0	2983	1667	3749	78
41	0	0	2981	1666	3748	79
42	0	0	2977	1665	3748	80
43	0	0	2974	1663	3748	77
44	0	0	2974	1664	3747	80
45	0	0	2970	1664	3751	81
46	0	0	2967	1665	3748	81
47	0	0	2966	1665	3750	80
48	0	0	2961	1665	3747	81
49	0	0	2960	1666	3748	81
50	0	0	2955	1665	3748	81
51	0	0	2951	1665	3749	77
52	0	0	2951	1666	3749	80
53	0	0	2948	1662	3749	77
54	0	0	2946	1662	3748	76
55	0	0	2943	1661	3749	77
56	0	0	2942	1660	3748	74
57	0	0	2937	1658	3748	76
58	0	0	2935	1657	3747	77
59	0	0	2934	1655	3747	77
60	0	0	2931	1654	3747	77
61	0	0	2928	1655	3747	77
62	0	0	2925	1654	3746	77
63	0	0	2923	1648	3747	79
64	0	0	2921	1653	3749	79
65	0	0	2918	1653	3748	80
66	0	0	2915	1654	3749	80
67	0	0	2914	1655	3750	80
68	0	0	2910	1654	3749	80
69	0	0	2907	1656	3749	80
70	0	0	2906	1656	3748	77
71	0	0	2902	1655	3747	79
72	0	0	2900	1654	3748	80
73	0	0	2898	1654	3747	77
74	0	0	2895	1653	3746	75
75	0	0	2894	1651	3750	76
76	0	0	2888	1651	3749	75
77	0	0	2887	1650	3746	76
78	0	0	2887	1647	3747	77
79	0	0	2884	1647	3747	76
80	0	0	2881	1645	3750	77
81	0	0	2875	1645	3748	77
82	0	0	2877	1645	3748	79
83	0	0	2873	1645	3746	79
84	0	0	2871	1645	3748	81
85	0	0	2869	1644	3749	81
86	0	0	2868	1646	3749	84
87	0	0	2866	1646	3748	80
88	0	0	2863	1646	3748	81
89	0	0	2860	1647	3747	80
90	0	0	2859	1646	3746	79
91	0	0	2854	1647	3747	80
92	0	0	2854	1646	3748	79
93	0	0	2850	1645	3747	78
94	0	0	2848	1645	3747	78
95	0	0	2843	1643	3748	78
96	0	0	2844	1644	3748	77
97	0	0	2843	1642	3750	77
98	0	0	2840	1640	3747	76
99	0	0	2838	1640	3748	78
100	0	0	2835	1638	3750	77
101	0	0	2830	1637	3749	77
102	0	0	2831	1637	3747	79
103	0	0	2826	1638	3749	80
104	0	0	2826	1637	3747	80
105	0	0	2824	1637	3747	79
106	0	0	2823	1639	3748	81
107	0	0	2820	1639	3747	80
108	0	0	2818	1638	3747	82
109	0	0	2816	1638	3747	80
110	0	0	2809	1638	3747	79
111	0	0	2809	1639	3749	77
112	0	0	2810	1640	3748	79
113	0	0	2808	1639	3747	78
114	0	0	2805	1638	3749	78
115	0	0	2802	1636	3748	78
116	0	0	2801	1637	3749	74
117	0	0	2799	1635	3748	76
118	0	0	2797	1634	3747	78
119	0	0	2795	1633	3746	79
120	0	0	2788	1631	3747	78
121	0	0	2790	1632	3748	76
122	0	0	2789	1631	3748	78
123	0	0	2787	1633	3746	79
124	0	0	2784	1631	3747	79
125	0	0	2779	1631	3747	80
126	0	0	2781	1633	3748	80
127	0	0	2779	1634	3748	81
0	0	0	2776	1634	3746	79
1	0	0	2775	1633	3747	80
2	0	0	2768	1632	3747	80
3	0	0	2771	1635	3747	80
4	0	0	2770	1634	3750	80
5	0	0	2768	1633	3748	77
6	0	0	2768	1633	3750	78
7	0	0	2762	1631	3749	77
8	0	0	2762	1632	3748	78
9	0	0	2761	1631	3749	76
10	0	0	2758	1629	3747	76
11	0	0	2756	1627	3748	77
12	0	0	2755	1628	3746	77
13	0	0	2753	1628	3748	78
14	0	0	2749	1627	3748	79
15	0	0	2748	1628	3745	77
16	0	0	2749	1627	3749	80
17	0	0	2745	1628	3750	84
18	0	0	2743	1629	3749	81
19	0	0	2742	1629	3748	80
20	0	0	2738	1630	3748	80
21	0	0	2736	1630	3748	80
22	0	0	2736	1631	3748	80
23	0	0	2733	1632	3748	80
24	0	0	2733	1631	3749	78
25	0	0	2729	1630	3748	80
26	0	0	2727	1629	3747	78
27	0	0	2727	1629	3747	76
28	0	0	2726	1629	3748	76
29	0	0	2725	1628	3748	77
30	0	0	2721	1626	3748	76
31	0	0	2719	1625	3747	77
32	0	0	2718	1625	3748	78
33	0	0	2716	1625	3750	82
34	0	0	2714	1625	3748	79
35	0	0	2713	1624	3750	79
36	0	0	2710	1624	3748	80
37	0	0	2709	1626	3749	80
38	0	0	2707	1626	3750	80
39	0	0	2704	1625	3749	81
40	0	0	2703	1627	3748	80
41	0	0	2700	1628	3748	80
42	0	0	2696	1628	3747	80
43	0	0	2699	1628	3746	80
44	0	0	2697	1628	3748	79
45	0	0	2694	1628	3746	77
46	0	0	2692	1627	3747	78
47	0	0	2692	1628	3747	77
48	0	0	2689	1627	3748	77
49	0	0	2687	1625	3749	76
50	0	0	2686	1625	3748	77
51	0	0	2684	1623	3748	77
52	0	0	2684	1623	3747	75
53	0	0	2681	1622	3748	78
54	0	0	2680	1623	3749	75
55	0	0	2677	1623	3748	80
56	0	0	2678	1624	3750	80
57	0	0	2675	1625	3750	84
58	0	0	2673	1624	3748	81
59	0	0	2673	1626	3748	83
60	0	0	2669	1626	3750	80
61	0	0	2668	1626	3747	80
62	0	0	2666	1627	3747	79
63	0	0	2662	1628	3749	79
64	0	0	2663	1626	3748	80
65	0	0	2662	1628	3748	79
66	0	0	2659	1626	3748	78
67	0	0	2658	1626	3748	80
68	0	0	2656	1625	3748	77
69	0	0	2655	1626	3749	73
70	0	0	2653	1624	3751	77
71	0	0	2652	1624	3749	75
72	0	0	2651	1619	3749	77
73	0	0	2649	1619	3750	77
74	0	0	2646	1622	3749	80
75	0	0	2645	1622	3750	79
76	0	0	2645	1622	3750	83
77	0	0	2641	1623	3745	79
78	0	0	2639	1624	3748	81
79	0	0	2639	1625	3748	76
80	0	0	2637	1625	3747	53
81	0	0	2634	1625	3747	81
82	0	0	2634	1627	3747	79
83	0	0	2633	1628	3748	79
84	0	0	2632	1627	3748	80
85	0	0	2630	1626	3749	78
86	0	0	2631	1626	3748	79
87	0	0	2626	1626	3749	77
88	0	0	2624	1623	3749	77
89	0	0	2622	1625	3749	74
90	0	0	2622	1623	3749	75
91	0	0	2622	1623	3749	77
92	0	0	2619	1622	3748	79
93	0	0	2617	1619	3749	77
94	0	0	2615	1622	3748	80
95	0	0	2616	1622	3748	79
96	0	0	2613	1622	3747	80
97	0	0	2610	1623	3748	80
98	0	0	2610	1623	3748	80
99	0	0	2607	1625	3748	80
100	0	0	2606	1625	3747	78
101	0	0	2607	1626	3747	81
102	0	0	2604	1627	3746	79
103	0	0	2602	1624	3749	80
104	0	0	2601	1628	3749	74
105	0	0	2599	1627	3748	77
106	0	0	2598	1628	3748	77
107	0	0	2597	1627	3748	78
108	0	0	2596	1623	3748	77
109	0	0	2594	1626	3748	77
110	0	0	2592	1624	3747	76
111	0	0	2591	1623	3747	77
112	0	0	2588	1622	3746	75
113	0	0	2588	1622	3749	79
114	0	0	2585	1622	3748	79
115	0	0	2585	1622	3739	79
116	0	0	2582	1622	3747	80
117	0	0	2583	1623	3749	80
118	0	0	2581	1624	3749	81
119	0	0	2579	1625	3749	80
120	0	0	2577	1626	3748	79
121	0	0	2577	1628	3750	80
122	0	0	2575	1628	3749	80
123	0	0	2573	1625	3747	80
124	0	0	2570	1628	3749	79
125	0	0	2571	1628	3747	78
126	0	0	2569	1628	3747	78
127	0	0	2566	1627	3746	79
0	0	0	2567	1626	3749	78
1	0	0	2567	1627	3747	79
2	0	0	2565	1625	3748	77
3	0	0	2563	1622	3747	77
4	0	0	2560	1624	3748	79
5	0	0	2561	1624	3749	82
6	0	0	2555	1624	3748	79
7	0	0	2556	1624	3749	79
8	0	0	2553	1623	3748	80
9	0	0	2552	1626	3748	79
10	0	0	2552	1623	3749	80
11	0	0	2552	1626	3750	80
12	0	0	2549	1626	3748	80
13	0	0	2547	1628	3748	79
14	0	0	2545	1627	3746	79
15	0	0	2545	1631	3748	79
16	0	0	2543	1628	3748	79
17	0	0	2544	1627	3749	79
18	0	0	2543	1627	3747	78
19	0	0	2540	1626	3749	79
20	0	0	2540	1624	3747	78
21	0	0	2535	1626	3749	74
22	0	0	2535	1624	3747	78
23	0	0	2532	1622	3747	78
24	0	0	2533	1624	3748	79
25	0	0	2532	1623	3747	79
26	0	0	2531	1625	3749	80
27	0	0	2529	1624	3748	80
28	0	0	2528	1624	3748	80
29	0	0	2526	1623	3748	80
30	0	0	2527	1624	3748	80
31	0	0	2524	1626	3748	80
32	0	0	2523	1625	3747	80
33	0	0	2521	1626	3748	80
34	0	0	2521	1627	3749	80
35	0	0	2520	1625	3745	79
36	0	0	2522	1628	3747	79
37	0	0	2518	1627	3748	78
38	0	0	2515	1626	3747	79
39	0	0	2515	1626	3749	79
40	0	0	2513	1625	3747	78
41	0	0	2512	1626	3748	80
42	0	0	2512	1625	3747	79
43	0	0	2509	1624	3749	79
44	0	0	2508	1624	3749	77
45	0	0	2507	1623	3747	77
46	0	0	2509	1624	3748	82
47	0	0	2504	1624	3748	80
48	0	0	2470	1622	3747	79
49	0	0	2405	1622	3748	80
50	0	0	2341	1622	3748	79
51	0	0	2280	1622	3748	80
52	0	0	2248	1626	3747	80
53	0	0	2230	1626	3747	79
54	0	0	2209	1625	3747	79
55	0	0	2204	1626	3747	76
56	0	0	2205	1626	3748	79
57	0	0	2178	1627	3747	80
58	0	0	2144	1625	3748	79
59	0	0	2106	1622	3748	78
60	0	0	2053	1623	3748	80
61	0	0	2018	1624	3749	80
62	0	0	1990	1624	3749	79
63	0	0	1972	1624	3743	79
64	0	0	1968	1622	3747	78
65	0	0	1971	1623	3747	76
66	0	0	1932	1620	3747	79
67	0	0	1863	1622	3748	84
68	0	0	1802	1621	3747	80
69	0	0	1799	1625	3747	79
70	0	0	1837	1627	3747	80
71	0	0	1866	1627	3748	80
72	0	0	1849	1625	3747	80
73	0	0	1783	1622	3747	79
74	0	0	1695	1623	3747	80
75	0	0	1622	1624	3749	78
76	0	0	1591	1625	3749	79
77	0	0	1571	1625	3749	78
78	0	0	1540	1624	3748	79
79	0	0	1509	1624	3747	79
80	0	0	1480	1625	3749	78
81	0	0	1482	1624	3748	78
82	0	0	1486	1625	3749	78
83	0	0	1494	1625	3747	78
84	0	0	1489	1623	3746	78
85	0	0	1459	1621	3746	78
86	0	0	1452	1622	3748	79
87	0	0	1456	1625	3748	79
88	0	0	1422	1621	3747	80
89	0	0	1351	1620	3749	80
90	0	0	1284	1622	3748	79
91	0	0	1225	1622	3748	79
92	0	0	1173	1623	3749	79
93	0	0	1135	1624	3748	80
94	0	0	1097	1624	3747	79
95	0	0	1058	1624	3750	80
96	0	0	1013	1624	3748	78
97	0	0	956	1623	3747	79
98	0	0	935	1626	3747	78
99	0	0	1047	1625	3747	78
100	0	0	1144	1625	3746	79
101	0	0	1181	1626	3747	79
102	0	0	1163	1622	3746	80
103	0	0	1136	1623	3748	79
104	0	0	1111	1622	3748	79
105	0	0	1058	1620	3746	79
106	0	0	1029	1622	3748	79
107	0	0	1011	1622	3747	82
108	0	0	1000	1624	3747	80
109	0	0	992	1623	3748	80
110	0	0	993	1625	3748	84
111	0	0	988	1625	3748	83
112	0	0	966	1623	3747	83
113	0	0	942	1624	3747	80
114	0	0	913	1624	3747	79
115	0	0	867	1625	3748	80
116	0	0	832	1624	3747	79
117	0	0	780	1624	3748	78
118	0	0	733	1623	3747	78
119	0	0	692	1623	3747	78
120	0	0	683	1626	3747	77
121	0	0	674	1623	3748	77
122	0	0	640	1621	3747	78
123	0	0	591	1621	3747	78
124	0	0	569	1623	3748	79
125	0	0	576	1622	3748	79
126	0	0	584	1622	3749	79
127	0	0	584	1622	3747	81
0	0	0	578	1622	3748	79
1	0	0	591	1625	3748	81
2	0	0	573	1620	3748	81
3	0	0	544	1623	3749	79
4	0	0	508	1622	3747	79
5	0	0	477	1625	3748	79
6	0	0	448	1622	3748	79
7	0	0	417	1624	3747	78
8	0	0	396	1625	3747	79
9	0	0	382	1624	3747	76
10	0	0	354	1625	3746	79
11	0	0	320	1623	3747	79
12	0	0	304	1623	3748	80
13	0	0	270	1621	3749	80
14	0	0	239	1622	3747	77
15	0	0	228	1621	3747	78
16	0	0	212	1621	3749	76
17	0	0	185	1620	3748	78
18	0	0	160	1620	3749	79
19	0	0	132	1620	3748	83
20	0	0	109	1622	3747	79
21	0	0	106	1624	3747	80
22	0	0	108	1624	3747	79
23	0	0	137	1626	3748	80
24	0	0	155	1623	3747	79
25	0	0	128	1621	3747	80
26	0	0	112	1623	3746	80
27	0	0	107	1621	3747	79
28	0	0	96	1626	3748	79
29	0	0	76	1624	3747	79
30	0	0	60	1623	3748	79
31	0	0	50	1623	3749	75
32	0	0	27	1622	3749	78
33	0	0	0	1621	3748	77
34	0	0	0	1621	3747	77
35	0	0	0	1622	3747	78
36	0	0	0	1622	3747	78
37	0	0	0	1620	3747	77
38	0	0	0	1620	3747	80
39	0	0	0	1621	3747	79
40	0	0	0	1622	3748	80
41	0	0	0	1622	3746	81
42	0	0	0	1622	3747	80
43	0	0	0	1622	3747	80
44	0	0	0	1622	3747	80
45	0	0	0	1624	3746	80
46	0	0	0	1627	3748	77
47	0	0	0	1625	3748	79
48	0	0	0	1622	3748	78
49	0	0	0	1623	3747	77
50	0	0	0	1624	3748	78
51	0	0	0	1624	3747	78
52	0	0	0	1624	3748	77
53	0	0	0	1621	3748	79
54	0	0	0	1619	3747	76
55	0	0	0	1621	3748	75
56	0	0	0	1620	3744	79
57	0	0	0	1621	3755	77
58	0	0	0	1620	3748	79
59	0	0	0	1621	3747	77
60	0	0	0	1621	3748	81
61	0	0	0	1621	3747	79
62	0	0	0	1620	3749	79
63	0	0	0	1622	3748	80
64	0	0	0	1622	3749	80
65	0	0	0	1623	3747	80
66	0	0	0	1622	3748	81
67	0	0	0	1625	3748	78
68	0	0	0	1624	3748	78
69	0	0	0	1624	3748	78
70	0	0	0	1622	3747	78
71	0	0	0	1622	3746	78
72	0	0	0	1623	3747	77
73	0	0	0	1626	3748	76
74	0	0	0	1624	3746	78
75	0	0	0	1621	3747	79
76	0	0	0	1621	3747	79
77	0	0	0	1620	3747	80
78	0	0	0	1620	3748	80
79	0	0	0	1621	3749	80
80	0	0	0	1622	3747	80
81	0	0	0	1625	3748	80
82	0	0	0	1627	3749	80
83	0	0	0	1622	3750	84
84	0	0	0	1622	3747	80
85	0	0	0	1622	3747	79
86	0	0	0	1624	3747	80
87	0	0	0	1622	3747	79
88	0	0	1	1625	3747	79
89	0	0	0	1624	3747	80
90	0	0	0	1625	3747	78
91	0	0	0	1623	3746	78
92	0	0	0	1623	3747	78
93	0	0	0	1626	3751	78
94	0	0	0	1624	3745	80
95	0	0	0	1624	3748	78
96	0	0	46	1622	3747	78
97	0	0	49	1623	3748	76
98	0	0	39	1621	3749	79
99	0	0	31	1621	3748	80
100	0	0	0	1620	3748	80
101	0	0	0	1622	3747	80
102	0	0	0	1625	3747	80
103	0	0	2	1624	3748	80
104	0	0	73	1626	3748	80
105	0	0	102	1623	3747	79
106	0	0	71	1624	3747	80
107	0	0	62	1625	3747	78
108	0	0	49	1624	3747	79
109	0	0	15	1625	3747	80
110	0	0	8	1624	3748	78
111	0	0	3	1621	3745	79
112	0	0	1	1622	3748	79
113	0	0	0	1623	3748	77
114	0	0	0	1624	3748	76
115	0	0	37	1625	3748	78
116	0	0	75	1625	3748	80
117	0	0	80	1619	3747	78
118	0	0	65	1622	3749	80
119	0	0	49	1621	3747	79
120	0	0	28	1621	3747	80
121	0	0	0	1621	3746	80
122	0	0	0	1623	3747	81
123	0	0	0	1624	3748	81
124	0	0	16	1627	3747	80
125	0	0	72	1627	3747	80
126	0	0	129	1625	3747	79
127	0	0	171	1627	3747	80
0	0	0	200	1629	3748	79
1	0	0	234	1628	3747	79
2	0	0	245	1624	3748	77
3	0	0	223	1622	3747	77
4	0	0	184	1622	3748	79
5	0	0	151	1623	3749	79
6	0	0	143	1622	3747	79
7	0	0	147	1625	3747	78
8	0	0	193	1622	3747	78
9	0	0	218	1623	3747	80
10	0	0	215	1621	3748	81
11	0	0	215	1621	3748	79
12	0	0	225	1623	3747	79
13	0	0	249	1623	3747	80
14	0	0	283	1625	3747	82
15	0	0	315	1626	3748	79
16	0	0	309	1622	3748	79
17	0	0	235	1623	3747	79
18	0	0	184	1624	3748	80
19	0	0	220	1628	3749	79
20	0	0	283	1627	3749	79
21	0	0	312	1625	3749	78
22	0	0	296	1623	3748	78
23	0	0	256	1623	3748	77
24	0	0	239	1621	3748	78
25	0	0	240	1624	3748	79
26	0	0	261	1623	3748	77
27	0	0	259	1622	3746	78
28	0	0	225	1620	3747	78
29	0	0	191	1620	3747	79
30	0	0	160	1622	3747	79
31	0	0	175	1624	3747	79
32	0	0	224	1627	3749	80
33	0	0	258	1625	3748	80
34	0	0	258	1622	3748	79
35	0	0	232	1624	3748	79
36	0	0	248	1627	3747	79
37	0	0	287	1625	3748	80
38	0	0	283	1624	3750	80
39	0	0	270	1624	3749	79
40	0	0	224	1624	3748	79
41	0	0	209	1625	3747	75
42	0	0	247	1626	3747	78
43	0	0	279	1623	3747	78
44	0	0	250	1622	3748	79
45	0	0	208	1623	3747	76
46	0	0	158	1621	3747	77
47	0	0	143	1621	3746	79
48	0	0	168	1624	3747	79
49	0	0	202	1622	3747	79
50	0	0	192	1621	3749	79
51	0	0	144	1621	3749	80
52	0	0	107	1621	3748	80
53	0	0	83	1621	3750	80
54	0	0	68	1623	3748	80
55	0	0	72	1626	3748	80
56	0	0	141	1626	3747	79
57	0	0	227	1627	3747	80
