# bioPlux Text File Format
# Version: 1
# StartDateTime: 2011-07-19 10:42:29
# SamplingFrequency: 1000
# SampledChannels: 1 2 3 4 5
# SamplingResolution: 12
# AcquiringDevice: 00:07:80:42:0F:95
# EndOfHeader
0	0	0	4036	609	192	901	2829
1	0	0	4090	609	193	902	2831
2	0	0	4091	608	192	902	2835
3	0	0	4091	601	189	902	2838
4	0	0	2736	602	188	902	2841
5	0	0	1624	603	185	902	2843
6	0	0	980	605	183	902	2844
7	0	0	612	607	180	902	2842
8	0	0	400	609	179	903	2838
9	0	0	283	611	177	903	2831
10	0	0	220	613	175	902	2830
11	0	0	188	613	177	902	2832
12	0	0	174	613	177	902	2835
13	0	0	169	617	177	903	2838
14	0	0	934	617	179	903	2841
15	0	0	2110	616	181	902	2843
16	0	0	2955	615	182	902	2843
17	0	0	3464	613	185	902	2841
18	0	0	3764	613	188	902	2837
19	0	0	3937	611	191	902	2831
20	0	0	4038	609	192	902	2830
21	0	0	4091	608	193	902	2831
22	0	0	4092	608	192	902	2835
23	0	0	4091	602	191	902	2838
24	0	0	2758	602	188	903	2841
25	0	0	1637	603	186	903	2843
26	0	0	993	606	183	902	2844
27	0	0	619	607	180	903	2842
28	0	0	402	608	178	902	2837
29	0	0	284	611	177	902	2832
30	0	0	222	612	177	902	2831
31	0	0	189	613	176	903	2832
32	0	0	174	614	177	902	2835
33	0	0	169	615	177	902	2838
34	0	0	909	618	179	902	2841
35	0	0	2138	617	181	901	2843
36	0	0	2971	615	183	901	2843
37	0	0	3468	614	186	902	2841
38	0	0	3768	612	187	902	2837
39	0	0	3941	610	191	903	2832
40	0	0	4041	610	193	902	2830
41	0	0	4091	609	193	902	2831
42	0	0	4092	608	193	903	2835
43	0	0	4091	602	190	903	2838
44	0	0	2788	602	188	903	2842
45	0	0	1653	603	187	903	2843
46	0	0	996	605	182	902	2843
47	0	0	621	607	180	902	2842
48	0	0	405	608	179	902	2837
49	0	0	285	611	176	902	2831
50	0	0	222	613	177	902	2830
51	0	0	189	613	176	902	2832
52	0	0	174	613	177	902	2835
53	0	0	169	614	177	902	2839
54	0	0	926	618	179	902	2841
55	0	0	2133	617	180	902	2844
56	0	0	2969	616	182	902	2844
57	0	0	3472	614	185	903	2842
58	0	0	3768	613	188	903	2837
59	0	0	3941	610	190	903	2831
60	0	0	4039	611	192	902	2830
61	0	0	4091	608	193	902	2831
62	0	0	4091	608	192	902	2834
63	0	0	4091	602	190	902	2838
64	0	0	2756	602	187	903	2841
65	0	0	1635	603	184	903	2843
66	0	0	992	605	184	903	2844
67	0	0	618	607	180	902	2843
68	0	0	402	608	179	902	2837
69	0	0	284	611	177	902	2832
70	0	0	221	612	176	903	2830
71	0	0	189	613	175	902	2832
72	0	0	174	614	176	902	2835
73	0	0	169	614	177	902	2838
74	0	0	884	618	179	902	2842
75	0	0	2112	617	179	903	2843
76	0	0	2955	616	184	903	2844
77	0	0	3461	614	186	903	2842
78	0	0	3761	612	188	902	2837
79	0	0	3938	610	190	902	2831
80	0	0	4037	610	191	902	2830
81	0	0	4091	609	193	902	2832
82	0	0	4091	608	192	902	2835
83	0	0	4091	601	190	902	2838
84	0	0	2782	601	188	902	2841
85	0	0	1650	604	185	902	2843
86	0	0	995	605	183	902	2843
87	0	0	620	606	180	902	2842
88	0	0	405	609	179	903	2838
89	0	0	286	610	178	903	2831
90	0	0	222	612	176	902	2831
91	0	0	190	614	176	902	2833
92	0	0	174	614	176	902	2835
93	0	0	169	614	178	902	2838
94	0	0	902	617	178	903	2842
95	0	0	2118	617	180	902	2843
96	0	0	2959	615	183	902	2843
97	0	0	3466	613	185	902	2842
98	0	0	3765	613	189	902	2837
99	0	0	3939	610	190	902	2831
100	0	0	4039	609	191	902	2829
101	0	0	4091	608	193	902	2831
102	0	0	4091	608	192	902	2834
103	0	0	4091	601	190	902	2838
104	0	0	2756	601	188	903	2841
105	0	0	1635	603	186	903	2843
106	0	0	992	605	182	903	2844
107	0	0	619	607	181	903	2842
108	0	0	403	609	179	902	2838
109	0	0	285	610	177	902	2832
110	0	0	222	612	175	902	2830
111	0	0	189	612	177	903	2832
112	0	0	174	614	177	902	2835
113	0	0	169	614	177	902	2838
114	0	0	874	617	178	903	2842
115	0	0	2079	616	181	902	2843
116	0	0	2935	615	184	902	2843
117	0	0	3449	614	185	902	2842
118	0	0	3757	612	187	902	2837
119	0	0	3934	610	190	902	2831
120	0	0	4035	610	192	902	2830
121	0	0	4091	608	191	902	2831
122	0	0	4091	607	192	903	2834
123	0	0	4091	602	191	903	2838
124	0	0	2802	601	188	903	2841
125	0	0	1661	603	185	902	2844
126	0	0	1001	605	183	902	2844
127	0	0	624	606	181	902	2842
0	0	0	407	609	178	902	2838
1	0	0	286	609	176	902	2831
2	0	0	223	613	176	902	2831
3	0	0	190	613	177	902	2832
4	0	0	175	614	176	902	2835
5	0	0	169	614	177	902	2838
6	0	0	904	618	178	901	2841
7	0	0	2096	617	180	901	2843
8	0	0	2947	615	182	903	2844
9	0	0	3459	614	185	902	2842
10	0	0	3762	613	188	902	2838
11	0	0	3936	611	190	902	2831
12	0	0	4037	609	192	903	2830
13	0	0	4092	608	192	903	2832
14	0	0	4091	608	193	903	2835
15	0	0	4092	602	189	903	2838
16	0	0	2786	602	187	902	2841
17	0	0	1652	604	185	902	2844
18	0	0	1002	605	184	902	2844
19	0	0	622	606	180	902	2842
20	0	0	406	608	178	902	2837
21	0	0	286	610	177	902	2831
22	0	0	223	612	176	902	2830
23	0	0	190	613	176	902	2831
24	0	0	175	613	176	903	2835
25	0	0	170	613	179	903	2838
26	0	0	899	617	179	903	2842
27	0	0	2125	616	181	902	2843
28	0	0	2963	615	183	902	2843
29	0	0	3464	614	185	902	2842
30	0	0	3767	612	187	903	2837
31	0	0	3941	610	191	903	2831
32	0	0	4039	609	192	902	2830
33	0	0	4092	608	192	902	2832
34	0	0	4091	608	193	902	2834
35	0	0	4091	601	190	902	2838
36	0	0	2824	601	188	902	2841
37	0	0	1664	602	185	903	2843
38	0	0	1009	605	185	902	2844
39	0	0	629	607	180	902	2842
40	0	0	410	609	178	902	2837
41	0	0	288	610	176	903	2831
42	0	0	222	612	176	902	2830
43	0	0	191	613	176	903	2831
44	0	0	175	613	176	903	2835
45	0	0	170	614	176	902	2838
46	0	0	909	618	179	902	2841
47	0	0	2113	616	180	901	2843
48	0	0	2965	616	182	902	2843
49	0	0	3465	614	186	902	2842
50	0	0	3766	613	187	902	2838
51	0	0	3941	611	191	903	2831
52	0	0	4038	609	192	901	2830
53	0	0	4091	609	193	901	2831
54	0	0	4091	608	193	902	2834
55	0	0	4091	601	190	903	2838
56	0	0	2803	602	187	902	2841
57	0	0	1662	603	185	902	2844
58	0	0	1007	606	183	902	2843
59	0	0	624	607	181	903	2842
60	0	0	407	609	179	903	2838
61	0	0	289	609	176	903	2831
62	0	0	223	611	176	903	2830
63	0	0	190	613	177	902	2832
64	0	0	174	613	176	902	2835
65	0	0	170	614	177	901	2838
66	0	0	863	617	179	902	2842
67	0	0	2051	616	180	902	2843
68	0	0	2920	615	183	902	2844
69	0	0	3439	614	185	903	2842
70	0	0	3750	613	188	902	2837
71	0	0	3930	610	190	902	2831
72	0	0	4033	609	192	902	2830
73	0	0	4090	609	193	903	2831
74	0	0	4091	607	192	902	2834
75	0	0	4091	601	190	902	2838
76	0	0	2849	601	187	902	2841
77	0	0	1678	603	185	903	2843
78	0	0	1017	605	183	903	2843
79	0	0	634	606	180	903	2842
80	0	0	413	609	179	902	2837
81	0	0	289	611	176	902	2832
82	0	0	223	612	176	902	2831
83	0	0	191	612	176	902	2832
84	0	0	175	613	177	902	2835
85	0	0	169	614	177	902	2839
86	0	0	866	617	179	902	2841
87	0	0	2045	616	180	902	2843
88	0	0	2926	615	182	902	2843
89	0	0	3443	614	186	903	2842
90	0	0	3750	613	187	903	2837
91	0	0	3931	611	191	903	2831
92	0	0	4035	609	193	901	2830
93	0	0	4090	608	194	902	2831
94	0	0	4091	608	191	902	2834
95	0	0	4091	602	191	903	2838
96	0	0	2826	601	187	902	2841
97	0	0	1674	603	186	902	2844
98	0	0	1015	605	182	903	2844
99	0	0	629	606	180	902	2842
100	0	0	411	608	178	902	2838
101	0	0	289	610	177	902	2831
102	0	0	224	611	175	902	2830
103	0	0	191	613	176	902	2831
104	0	0	175	614	176	902	2835
105	0	0	170	614	178	902	2837
106	0	0	884	616	180	903	2841
107	0	0	2096	615	181	903	2843
108	0	0	2946	615	184	902	2843
109	0	0	3454	614	184	903	2842
110	0	0	3760	613	187	902	2837
111	0	0	3937	610	191	902	2831
112	0	0	4037	609	192	902	2830
113	0	0	4091	607	192	902	2831
114	0	0	4091	608	193	902	2835
115	0	0	4091	601	190	902	2837
116	0	0	2851	601	187	903	2841
117	0	0	1679	603	184	902	2843
118	0	0	1018	605	184	902	2844
119	0	0	634	606	181	902	2843
120	0	0	413	608	179	903	2838
121	0	0	289	610	177	902	2832
122	0	0	224	612	176	901	2830
123	0	0	191	613	177	902	2831
124	0	0	175	613	176	903	2835
125	0	0	170	613	177	903	2837
126	0	0	852	617	177	903	2841
127	0	0	2063	615	181	902	2843
0	0	0	2937	615	184	902	2844
1	0	0	3448	613	186	902	2842
2	0	0	3756	612	187	902	2838
3	0	0	3935	610	191	903	2831
4	0	0	4035	609	192	902	2830
5	0	0	4090	608	194	902	2831
6	0	0	4092	608	191	903	2834
7	0	0	4091	596	190	902	2837
8	0	0	2861	602	186	903	2840
9	0	0	1693	602	185	903	2843
10	0	0	1028	605	183	903	2844
11	0	0	635	606	180	902	2842
12	0	0	414	608	178	902	2838
13	0	0	292	610	176	902	2831
14	0	0	224	613	176	902	2830
15	0	0	192	612	175	903	2831
16	0	0	175	614	176	902	2835
17	0	0	170	614	177	902	2838
18	0	0	873	617	179	902	2841
19	0	0	2090	615	181	902	2843
20	0	0	2942	615	183	902	2843
21	0	0	3456	614	185	902	2842
22	0	0	3759	612	187	902	2837
23	0	0	3937	610	190	902	2831
24	0	0	4039	609	193	902	2830
25	0	0	4091	608	191	902	2831
26	0	0	4092	608	191	903	2835
27	0	0	4091	601	191	902	2837
28	0	0	2845	601	188	902	2841
29	0	0	1684	603	186	902	2843
30	0	0	1015	604	183	902	2844
31	0	0	632	606	181	902	2842
32	0	0	412	608	179	898	2838
33	0	0	289	610	176	902	2832
34	0	0	223	611	177	902	2830
35	0	0	191	613	176	902	2832
36	0	0	175	614	177	902	2835
37	0	0	169	614	177	898	2839
38	0	0	850	618	178	898	2841
39	0	0	2060	616	181	898	2843
40	0	0	2925	615	183	902	2843
41	0	0	3446	614	185	902	2842
42	0	0	3756	614	187	902	2837
43	0	0	3933	609	190	902	2831
44	0	0	4035	610	192	902	2829
45	0	0	4091	609	192	902	2831
46	0	0	4091	608	193	903	2834
47	0	0	4091	599	190	902	2837
48	0	0	2869	602	187	898	2841
49	0	0	1700	603	186	898	2843
50	0	0	1031	605	184	898	2844
51	0	0	637	607	182	902	2842
52	0	0	414	609	179	902	2838
53	0	0	290	609	176	903	2832
54	0	0	226	611	175	902	2830
55	0	0	191	612	176	898	2832
56	0	0	175	613	176	902	2835
57	0	0	169	614	178	902	2838
58	0	0	839	617	179	902	2841
59	0	0	2066	616	181	902	2843
60	0	0	2929	615	183	901	2844
61	0	0	3445	615	186	902	2842
62	0	0	3755	613	188	902	2838
63	0	0	3933	611	190	902	2831
64	0	0	4035	609	193	902	2830
65	0	0	4091	609	194	902	2832
66	0	0	4091	607	193	898	2834
67	0	0	4091	605	190	898	2838
68	0	0	2896	601	187	898	2841
69	0	0	1703	602	184	902	2843
70	0	0	1032	604	183	902	2844
71	0	0	641	607	181	902	2842
72	0	0	418	608	178	902	2838
73	0	0	291	610	176	903	2832
74	0	0	226	612	176	902	2830
75	0	0	191	612	176	901	2832
76	0	0	175	614	176	903	2835
77	0	0	170	614	177	901	2838
78	0	0	839	616	178	902	2842
79	0	0	2034	617	180	901	2843
80	0	0	2919	615	183	902	2843
81	0	0	3436	614	185	902	2842
82	0	0	3747	612	188	902	2838
83	0	0	3930	610	190	903	2831
84	0	0	4033	609	192	898	2830
85	0	0	4089	608	192	898	2831
86	0	0	4091	608	192	898	2835
87	0	0	4092	597	190	903	2839
88	0	0	2859	602	188	902	2841
89	0	0	1693	602	185	902	2843
90	0	0	1027	605	183	901	2844
91	0	0	635	607	181	903	2843
92	0	0	413	609	179	902	2838
93	0	0	291	610	176	902	2832
94	0	0	225	612	176	902	2830
95	0	0	191	613	175	902	2832
96	0	0	176	614	175	898	2835
97	0	0	170	614	176	898	2838
98	0	0	849	617	179	902	2841
99	0	0	2055	616	181	902	2843
100	0	0	2921	616	184	901	2844
101	0	0	3439	614	186	902	2842
102	0	0	3752	612	187	898	2838
103	0	0	3932	610	191	898	2831
104	0	0	4034	609	193	902	2830
105	0	0	4089	609	193	902	2831
106	0	0	4092	607	193	902	2835
107	0	0	4091	608	192	902	2837
108	0	0	2916	601	188	902	2841
109	0	0	1714	603	185	902	2843
110	0	0	1039	605	184	903	2844
111	0	0	645	607	181	903	2842
112	0	0	419	608	179	902	2839
113	0	0	291	610	176	898	2832
114	0	0	226	611	176	898	2830
115	0	0	192	613	175	898	2832
116	0	0	175	614	175	902	2835
117	0	0	169	614	177	902	2838
118	0	0	831	617	178	902	2841
119	0	0	2048	616	180	902	2843
120	0	0	2926	615	182	902	2844
121	0	0	3442	613	185	902	2842
122	0	0	3751	613	187	902	2838
123	0	0	3931	611	190	902	2831
124	0	0	4034	608	193	902	2829
125	0	0	4090	608	193	902	2831
126	0	0	4091	607	193	902	2834
127	0	0	4093	607	191	903	2838
0	0	0	2922	602	189	902	2841
1	0	0	1728	603	186	902	2843
2	0	0	1047	605	184	902	2844
3	0	0	646	606	181	898	2843
4	0	0	420	608	179	898	2838
5	0	0	294	610	176	898	2832
6	0	0	225	610	177	902	2830
7	0	0	191	613	177	902	2832
8	0	0	175	613	176	902	2835
9	0	0	169	614	176	901	2838
10	0	0	830	618	179	902	2841
11	0	0	2038	617	181	902	2843
12	0	0	2912	615	184	902	2844
13	0	0	3432	614	185	902	2842
14	0	0	3748	612	187	902	2837
15	0	0	3928	610	190	902	2831
16	0	0	4033	609	190	898	2830
17	0	0	4089	608	193	901	2831
18	0	0	4091	608	194	902	2834
19	0	0	4091	606	190	902	2837
20	0	0	2912	601	188	902	2841
21	0	0	1713	602	186	898	2843
22	0	0	1038	605	184	898	2844
23	0	0	645	606	181	899	2843
24	0	0	419	609	178	902	2838
25	0	0	292	610	177	902	2833
26	0	0	225	612	177	903	2830
27	0	0	190	614	176	902	2831
28	0	0	175	612	176	902	2835
29	0	0	169	614	176	902	2837
30	0	0	848	616	179	902	2840
31	0	0	2053	616	181	902	2843
32	0	0	2928	614	183	898	2843
33	0	0	3443	614	185	898	2842
34	0	0	3752	613	187	898	2838
35	0	0	3934	610	190	902	2831
36	0	0	4033	610	192	902	2830
37	0	0	4090	609	193	903	2831
38	0	0	4091	608	193	902	2834
39	0	0	4091	608	192	898	2837
40	0	0	2923	601	187	903	2841
41	0	0	1728	603	185	902	2844
42	0	0	1047	604	182	903	2844
43	0	0	645	606	182	902	2842
44	0	0	420	608	179	902	2838
45	0	0	293	610	177	902	2832
46	0	0	225	612	177	902	2830
47	0	0	190	612	175	903	2831
48	0	0	174	613	176	902	2835
49	0	0	168	614	178	902	2837
50	0	0	818	617	179	898	2841
51	0	0	1990	616	180	898	2843
52	0	0	2884	615	183	898	2844
53	0	0	3420	613	186	902	2842
54	0	0	3736	613	188	902	2837
55	0	0	3923	610	190	902	2831
56	0	0	4029	609	193	902	2829
57	0	0	4088	608	192	902	2831
58	0	0	4093	608	192	902	2835
59	0	0	4091	608	190	902	2837
60	0	0	2932	601	188	903	2840
61	0	0	1724	603	185	902	2843
62	0	0	1044	605	184	902	2843
63	0	0	648	606	180	902	2842
64	0	0	418	609	178	902	2838
65	0	0	293	610	177	902	2832
66	0	0	226	612	176	902	2830
67	0	0	191	613	177	902	2831
68	0	0	174	613	176	898	2834
69	0	0	169	613	177	898	2837
70	0	0	807	617	178	898	2841
71	0	0	1998	616	180	902	2843
72	0	0	2889	615	183	902	2844
73	0	0	3419	614	185	902	2842
74	0	0	3737	612	187	902	2838
75	0	0	3924	610	190	902	2831
76	0	0	4030	609	192	902	2830
77	0	0	4087	607	192	902	2831
78	0	0	4091	608	192	902	2834
79	0	0	4091	608	191	902	2837
80	0	0	2950	601	188	898	2841
81	0	0	1743	603	185	898	2843
82	0	0	1049	604	182	902	2844
83	0	0	651	606	181	902	2843
84	0	0	423	608	179	902	2839
85	0	0	295	610	177	902	2832
86	0	0	227	611	175	898	2831
87	0	0	192	613	176	898	2832
88	0	0	175	614	175	902	2834
89	0	0	169	614	177	902	2838
90	0	0	800	617	179	902	2841
91	0	0	1978	616	181	902	2843
92	0	0	2875	615	183	902	2843
93	0	0	3416	614	185	902	2842
94	0	0	3735	612	188	902	2838
95	0	0	3922	610	191	902	2831
96	0	0	4027	609	193	902	2829
97	0	0	4087	608	193	898	2831
98	0	0	4092	608	193	898	2835
99	0	0	4091	608	191	898	2837
100	0	0	2959	602	188	902	2840
101	0	0	1752	603	185	902	2843
102	0	0	1061	604	184	902	2844
103	0	0	657	606	181	902	2842
104	0	0	424	609	179	902	2838
105	0	0	296	609	178	902	2832
106	0	0	227	612	177	902	2830
107	0	0	192	613	175	903	2831
108	0	0	175	613	176	902	2834
109	0	0	169	614	177	903	2837
110	0	0	790	617	177	902	2841
111	0	0	2013	616	181	902	2843
112	0	0	2896	615	183	902	2844
113	0	0	3424	614	186	902	2842
114	0	0	3739	612	187	902	2838
115	0	0	3926	610	190	898	2832
116	0	0	4029	609	192	898	2829
117	0	0	4088	608	193	898	2831
118	0	0	4091	608	193	902	2834
119	0	0	4091	608	191	902	2837
120	0	0	2972	601	187	902	2840
121	0	0	1758	602	185	902	2843
122	0	0	1058	605	183	902	2844
123	0	0	656	606	181	902	2843
124	0	0	425	609	180	902	2838
125	0	0	296	610	177	902	2832
126	0	0	228	612	177	902	2830
127	0	0	192	613	177	902	2832
0	0	0	174	613	175	902	2835
1	0	0	169	614	177	904	2838
2	0	0	794	616	178	898	2841
3	0	0	1998	616	180	898	2843
4	0	0	2888	615	183	898	2844
5	0	0	3423	614	185	902	2842
6	0	0	3741	612	188	902	2839
7	0	0	3925	610	190	902	2831
8	0	0	4030	609	192	902	2830
9	0	0	4088	609	192	902	2831
10	0	0	4091	609	192	902	2834
11	0	0	4091	609	190	902	2837
12	0	0	2959	601	189	902	2841
13	0	0	1741	603	186	902	2843
14	0	0	1054	605	183	902	2844
15	0	0	653	606	181	902	2843
16	0	0	422	608	179	902	2838
17	0	0	294	610	177	902	2832
18	0	0	226	612	176	902	2830
19	0	0	192	613	176	903	2832
20	0	0	175	613	177	898	2835
21	0	0	169	614	177	899	2837
22	0	0	776	617	179	898	2841
23	0	0	1972	616	181	902	2843
24	0	0	2873	615	183	902	2843
25	0	0	3410	614	185	902	2842
26	0	0	3733	613	188	902	2839
27	0	0	3923	610	190	903	2832
28	0	0	4028	608	193	902	2830
29	0	0	4087	608	193	903	2831
30	0	0	4091	608	191	902	2834
31	0	0	4091	608	190	902	2837
32	0	0	2989	601	189	898	2841
33	0	0	1767	602	185	898	2843
34	0	0	1063	605	183	902	2844
35	0	0	659	606	181	902	2843
36	0	0	427	608	178	902	2838
37	0	0	298	610	177	903	2833
38	0	0	228	612	176	898	2831
39	0	0	191	614	176	898	2831
40	0	0	175	613	176	902	2834
41	0	0	169	614	177	904	2837
42	0	0	799	617	178	902	2841
43	0	0	1996	616	181	902	2843
44	0	0	2886	615	182	901	2843
45	0	0	3423	614	184	902	2842
46	0	0	3741	613	188	903	2839
47	0	0	3924	611	189	902	2832
48	0	0	4029	608	192	902	2830
49	0	0	4087	609	194	898	2831
50	0	0	4092	608	193	899	2835
51	0	0	4091	608	190	898	2838
52	0	0	2958	601	188	903	2841
53	0	0	1749	602	185	902	2843
54	0	0	1059	604	183	902	2844
55	0	0	656	606	181	902	2843
56	0	0	423	609	180	902	2838
57	0	0	295	610	177	902	2832
58	0	0	227	611	175	902	2830
59	0	0	192	613	175	902	2831
60	0	0	174	613	176	901	2834
61	0	0	169	614	177	902	2838
62	0	0	766	617	178	901	2841
63	0	0	1980	616	180	902	2843
64	0	0	2878	616	182	902	2844
65	0	0	3413	614	186	902	2843
66	0	0	3735	612	187	902	2839
67	0	0	3924	610	191	898	2832
68	0	0	4028	609	192	898	2830
69	0	0	4088	609	193	899	2832
70	0	0	4091	608	191	902	2834
71	0	0	4091	609	189	902	2837
72	0	0	3000	601	188	902	2841
73	0	0	1776	603	186	902	2843
74	0	0	1069	605	183	903	2844
75	0	0	662	606	181	902	2843
76	0	0	428	608	179	902	2838
77	0	0	299	610	177	902	2832
78	0	0	228	612	177	902	2830
79	0	0	192	613	175	903	2832
80	0	0	175	614	177	898	2835
81	0	0	169	614	177	902	2838
82	0	0	758	617	178	902	2841
83	0	0	1931	616	180	902	2844
84	0	0	2848	616	184	902	2844
85	0	0	3399	614	185	898	2843
86	0	0	3726	613	187	898	2838
87	0	0	3915	610	191	898	2832
88	0	0	4024	609	192	902	2830
89	0	0	4085	609	193	903	2831
90	0	0	4091	608	193	901	2834
91	0	0	4091	607	190	902	2837
92	0	0	3012	601	187	903	2841
93	0	0	1781	602	184	903	2844
94	0	0	1077	605	182	903	2844
95	0	0	667	606	180	902	2843
96	0	0	429	608	180	898	2839
97	0	0	299	610	177	898	2833
98	0	0	229	612	176	898	2830
99	0	0	192	613	176	902	2832
100	0	0	175	613	177	902	2835
101	0	0	169	614	178	903	2838
102	0	0	775	617	178	902	2841
103	0	0	1970	616	181	898	2843
104	0	0	2871	615	183	902	2843
105	0	0	3409	614	184	902	2842
106	0	0	3732	613	187	903	2839
107	0	0	3922	611	190	902	2832
108	0	0	4028	608	191	902	2830
109	0	0	4087	608	193	902	2832
110	0	0	4091	608	190	902	2834
111	0	0	4091	608	190	902	2837
112	0	0	3012	601	188	898	2841
113	0	0	1783	602	185	898	2843
114	0	0	1072	605	183	903	2844
115	0	0	664	606	181	902	2843
116	0	0	430	608	178	902	2839
117	0	0	299	610	177	903	2833
118	0	0	228	612	175	898	2830
119	0	0	192	613	175	899	2832
120	0	0	175	613	177	902	2835
121	0	0	169	614	176	902	2837
122	0	0	760	617	177	902	2840
123	0	0	1957	616	180	902	2843
124	0	0	2863	615	182	902	2844
125	0	0	3409	614	185	902	2842
126	0	0	3731	613	187	902	2838
127	0	0	3919	610	190	902	2832
0	0	0	4027	609	193	902	2830
1	0	0	4086	608	193	898	2831
2	0	0	4091	608	192	898	2834
3	0	0	4092	608	191	899	2838
4	0	0	3015	601	189	902	2841
5	0	0	1786	602	185	902	2843
6	0	0	1080	605	183	903	2844
7	0	0	669	606	181	902	2843
8	0	0	430	608	179	902	2839
9	0	0	299	609	177	902	2832
10	0	0	229	612	176	902	2830
11	0	0	193	613	176	902	2831
12	0	0	175	613	176	902	2834
13	0	0	169	614	178	902	2837
14	0	0	740	617	178	902	2841
15	0	0	1928	616	181	902	2843
16	0	0	2845	616	182	902	2844
17	0	0	3393	614	186	902	2843
18	0	0	3723	612	187	902	2839
19	0	0	3915	611	190	898	2832
20	0	0	4024	609	192	898	2830
21	0	0	4084	609	192	898	2831
22	0	0	4091	607	192	902	2834
23	0	0	4091	608	190	902	2837
24	0	0	3019	601	188	903	2841
25	0	0	1785	601	186	902	2843
26	0	0	1073	605	182	903	2844
27	0	0	665	606	180	902	2843
28	0	0	430	608	180	902	2839
29	0	0	299	610	177	902	2832
30	0	0	229	611	176	902	2830
31	0	0	192	613	176	902	2832
32	0	0	175	613	176	898	2835
33	0	0	169	614	177	904	2838
34	0	0	787	617	178	902	2841
35	0	0	1954	616	181	902	2844
36	0	0	2862	615	181	902	2845
37	0	0	3407	614	184	898	2843
38	0	0	3731	613	187	898	2839
39	0	0	3920	611	191	898	2832
40	0	0	4027	608	192	902	2830
41	0	0	4085	609	192	902	2831
42	0	0	4091	607	192	902	2834
43	0	0	4091	608	190	902	2837
44	0	0	3019	601	188	902	2840
45	0	0	1791	602	186	903	2843
46	0	0	1083	605	184	903	2843
47	0	0	670	606	182	902	2843
48	0	0	431	608	180	898	2839
49	0	0	299	610	178	898	2833
50	0	0	229	611	177	898	2831
51	0	0	194	613	176	902	2832
52	0	0	175	613	176	902	2835
53	0	0	169	614	177	902	2838
54	0	0	751	617	178	902	2841
55	0	0	1937	616	181	898	2843
56	0	0	2852	615	182	902	2844
57	0	0	3398	614	185	902	2843
58	0	0	3724	613	186	902	2838
59	0	0	3917	611	190	902	2832
60	0	0	4025	609	191	902	2830
61	0	0	4085	609	192	902	2831
62	0	0	4091	608	191	903	2834
63	0	0	4091	608	191	903	2837
64	0	0	3065	601	188	902	2840
65	0	0	1823	603	185	903	2843
66	0	0	1095	604	183	898	2844
67	0	0	678	606	182	898	2843
68	0	0	437	608	180	898	2839
69	0	0	302	610	178	902	2833
70	0	0	230	612	176	902	2830
71	0	0	192	613	177	902	2831
72	0	0	175	613	176	902	2835
73	0	0	169	614	178	902	2837
74	0	0	760	617	179	902	2841
75	0	0	1944	616	180	902	2843
76	0	0	2855	615	182	902	2844
77	0	0	3405	614	185	902	2843
78	0	0	3728	612	187	902	2838
79	0	0	3917	611	189	902	2832
80	0	0	4026	610	192	902	2830
81	0	0	4084	609	192	903	2831
82	0	0	4091	608	193	902	2834
83	0	0	4091	609	190	902	2837
84	0	0	3070	601	188	898	2841
85	0	0	1826	602	186	899	2843
86	0	0	1103	604	184	899	2844
87	0	0	678	606	181	902	2843
88	0	0	438	608	180	902	2838
89	0	0	304	610	177	902	2833
90	0	0	230	612	177	902	2830
91	0	0	193	613	176	902	2832
92	0	0	175	613	177	902	2834
93	0	0	169	614	177	902	2837
94	0	0	739	617	178	902	2840
95	0	0	1940	617	180	902	2843
96	0	0	2853	616	182	902	2843
97	0	0	3399	614	184	902	2843
98	0	0	3724	612	187	902	2838
99	0	0	3916	611	189	899	2832
100	0	0	4024	609	192	898	2830
101	0	0	4085	608	192	898	2831
102	0	0	4091	608	192	902	2834
103	0	0	4092	609	190	902	2838
104	0	0	3104	603	188	902	2841
105	0	0	1848	603	187	902	2843
106	0	0	1108	605	183	903	2844
107	0	0	685	606	180	902	2843
108	0	0	440	607	180	902	2839
109	0	0	305	609	179	902	2832
110	0	0	231	612	177	902	2830
111	0	0	193	612	177	902	2831
112	0	0	175	613	177	898	2834
113	0	0	167	615	178	902	2837
114	0	0	739	617	178	902	2841
115	0	0	1898	616	181	902	2843
116	0	0	2828	615	182	902	2843
117	0	0	3388	614	185	899	2843
118	0	0	3717	613	187	898	2838
119	0	0	3911	611	189	898	2833
120	0	0	4023	610	191	902	2830
121	0	0	4084	609	191	902	2831
122	0	0	4091	608	193	902	2834
123	0	0	4092	609	190	902	2838
124	0	0	3085	601	187	902	2840
125	0	0	1830	604	186	902	2843
126	0	0	1106	605	184	902	2843
127	0	0	682	606	180	902	2843
0	0	0	437	609	178	898	2839
1	0	0	301	611	177	898	2833
2	0	0	230	612	176	898	2830
3	0	0	192	613	177	902	2832
4	0	0	174	613	177	902	2834
5	0	0	168	614	176	902	2837
6	0	0	728	616	178	902	2841
7	0	0	1904	616	180	898	2843
8	0	0	2833	615	183	902	2844
9	0	0	3386	615	184	902	2843
10	0	0	3715	613	187	902	2838
11	0	0	3911	611	189	902	2832
12	0	0	4021	610	192	901	2830
13	0	0	4082	609	191	903	2831
14	0	0	4091	608	193	902	2834
15	0	0	4091	608	190	903	2837
16	0	0	3149	601	188	902	2841
17	0	0	1876	603	185	902	2843
18	0	0	1125	605	183	898	2844
19	0	0	694	606	181	898	2843
20	0	0	447	607	179	898	2839
21	0	0	306	610	177	902	2833
22	0	0	232	612	177	902	2830
23	0	0	193	613	176	902	2831
24	0	0	175	614	175	901	2834
25	0	0	167	614	177	902	2837
26	0	0	736	617	179	902	2841
27	0	0	1903	617	180	902	2843
28	0	0	2830	615	183	902	2843
29	0	0	3390	614	184	902	2843
30	0	0	3718	613	186	902	2838
31	0	0	3911	611	190	902	2832
32	0	0	4022	609	193	902	2830
33	0	0	4081	609	192	903	2831
34	0	0	4091	609	192	901	2834
35	0	0	4093	609	190	903	2838
36	0	0	3127	602	187	898	2840
37	0	0	1864	603	185	898	2843
38	0	0	1125	604	183	899	2844
39	0	0	689	606	182	902	2843
40	0	0	443	607	180	902	2839
41	0	0	306	610	177	902	2833
42	0	0	231	611	177	902	2831
43	0	0	193	613	176	902	2831
44	0	0	174	614	176	902	2835
45	0	0	166	615	177	902	2837
46	0	0	699	617	178	902	2841
47	0	0	1886	617	180	902	2844
48	0	0	2820	615	183	898	2844
49	0	0	3379	614	184	898	2843
50	0	0	3713	612	187	902	2839
51	0	0	3908	611	191	902	2833
52	0	0	4021	610	192	902	2830
53	0	0	4080	609	192	902	2831
54	0	0	4092	609	192	898	2834
55	0	0	4091	608	190	899	2837
56	0	0	3152	602	188	902	2841
57	0	0	1883	603	185	902	2844
58	0	0	1128	604	183	902	2844
59	0	0	695	607	181	902	2843
60	0	0	447	608	179	902	2839
61	0	0	306	609	178	902	2833
62	0	0	232	611	177	902	2830
63	0	0	192	613	176	903	2832
64	0	0	174	614	176	902	2834
65	0	0	166	614	177	898	2837
66	0	0	710	618	179	897	2841
67	0	0	1883	616	180	898	2843
68	0	0	2826	615	182	903	2844
69	0	0	3380	614	185	903	2843
70	0	0	3713	613	187	902	2839
71	0	0	3909	612	189	902	2832
72	0	0	4020	610	193	902	2830
73	0	0	4080	609	192	902	2831
74	0	0	4091	608	193	903	2834
75	0	0	4091	609	190	903	2837
76	0	0	3152	601	188	902	2840
77	0	0	1882	602	185	902	2843
78	0	0	1134	604	183	902	2844
79	0	0	695	607	182	902	2843
80	0	0	446	609	179	902	2840
81	0	0	306	610	177	900	2833
82	0	0	231	612	176	902	2831
83	0	0	192	613	177	902	2832
84	0	0	174	613	176	902	2834
85	0	0	166	615	179	898	2837
86	0	0	722	618	179	898	2840
87	0	0	1858	616	181	898	2843
88	0	0	2804	616	181	902	2843
89	0	0	3372	614	184	903	2843
90	0	0	3707	613	186	902	2839
91	0	0	3904	611	190	901	2832
92	0	0	4017	610	192	902	2830
93	0	0	4079	608	192	903	2831
94	0	0	4091	608	192	902	2834
95	0	0	4091	609	190	902	2837
96	0	0	3143	602	188	898	2841
97	0	0	1871	603	186	898	2844
98	0	0	1127	604	184	898	2844
99	0	0	691	606	181	902	2843
100	0	0	444	608	179	902	2839
101	0	0	305	610	176	902	2833
102	0	0	230	612	176	902	2830
103	0	0	191	612	176	899	2831
104	0	0	173	614	176	902	2834
105	0	0	165	615	177	902	2838
106	0	0	714	618	180	902	2841
107	0	0	1871	617	180	902	2843
108	0	0	2812	615	182	902	2844
109	0	0	3370	614	185	902	2843
110	0	0	3710	613	187	902	2840
111	0	0	3906	612	190	902	2832
112	0	0	4018	610	192	902	2830
113	0	0	4079	609	192	902	2831
114	0	0	4091	608	192	899	2834
115	0	0	4091	609	189	897	2837
116	0	0	3186	601	188	899	2840
117	0	0	1891	603	186	903	2843
118	0	0	1139	604	183	902	2844
119	0	0	702	606	181	902	2843
120	0	0	450	608	179	902	2839
121	0	0	307	610	177	902	2833
122	0	0	231	612	176	902	2831
123	0	0	192	613	177	902	2832
124	0	0	172	614	176	902	2834
125	0	0	166	614	176	902	2837
126	0	0	692	617	178	901	2840
127	0	0	1852	615	181	902	2843
0	0	0	2808	616	183	902	2844
1	0	0	3369	614	185	902	2843
2	0	0	3705	613	186	902	2839
3	0	0	3904	611	189	902	2832
4	0	0	4017	609	191	899	2830
5	0	0	4078	609	192	898	2831
6	0	0	4091	609	191	899	2834
7	0	0	4091	609	190	902	2837
8	0	0	3165	601	188	902	2840
9	0	0	1894	602	185	903	2843
10	0	0	1141	605	183	902	2844
11	0	0	698	606	181	902	2843
12	0	0	447	608	179	902	2839
13	0	0	307	610	177	902	2833
14	0	0	231	613	177	902	2831
15	0	0	192	613	176	902	2832
16	0	0	172	613	176	898	2835
17	0	0	165	614	178	898	2838
18	0	0	707	618	179	902	2841
19	0	0	1874	616	180	902	2843
20	0	0	2813	615	183	902	2844
21	0	0	3371	614	184	902	2843
22	0	0	3710	613	187	898	2840
23	0	0	3907	611	189	898	2832
24	0	0	4017	611	191	903	2830
25	0	0	4077	609	193	902	2831
26	0	0	4091	608	191	901	2834
27	0	0	4091	609	189	900	2837
28	0	0	3196	602	187	902	2840
29	0	0	1900	602	184	903	2843
30	0	0	1144	605	183	903	2844
31	0	0	704	606	180	902	2843
32	0	0	450	608	180	902	2839
33	0	0	307	610	178	898	2834
34	0	0	231	612	177	898	2831
35	0	0	191	612	176	898	2831
36	0	0	172	614	176	902	2835
37	0	0	164	614	177	902	2837
38	0	0	664	617	177	902	2841
39	0	0	1820	616	179	902	2843
40	0	0	2789	615	182	902	2844
41	0	0	3359	615	185	902	2843
42	0	0	3699	612	187	902	2839
43	0	0	3898	611	190	902	2833
44	0	0	4016	610	191	903	2830
45	0	0	4076	609	193	902	2831
46	0	0	4091	608	192	901	2834
47	0	0	4091	609	190	900	2837
48	0	0	3197	602	189	902	2840
49	0	0	1916	603	185	902	2843
50	0	0	1153	605	183	902	2844
51	0	0	705	606	182	898	2843
52	0	0	451	608	179	898	2840
53	0	0	309	610	177	899	2833
54	0	0	231	613	176	902	2830
55	0	0	191	613	175	902	2831
56	0	0	172	613	176	902	2835
57	0	0	165	614	177	902	2837
58	0	0	678	617	178	902	2841
59	0	0	1836	617	180	902	2843
60	0	0	2788	616	183	902	2843
61	0	0	3357	614	185	902	2843
62	0	0	3701	613	186	902	2839
63	0	0	3900	611	190	902	2832
64	0	0	4014	609	193	898	2830
65	0	0	4075	608	192	903	2831
66	0	0	4091	608	192	902	2834
67	0	0	4091	609	189	901	2837
68	0	0	3212	601	187	898	2840
69	0	0	1913	602	186	902	2843
70	0	0	1151	605	184	903	2844
71	0	0	708	606	181	901	2843
72	0	0	453	609	179	902	2840
73	0	0	308	610	177	902	2833
74	0	0	232	612	176	902	2830
75	0	0	191	613	175	903	2831
76	0	0	172	613	176	902	2834
77	0	0	164	614	177	902	2837
78	0	0	673	618	179	902	2840
79	0	0	1807	617	180	902	2843
80	0	0	2781	615	182	902	2844
81	0	0	3354	615	184	902	2843
82	0	0	3696	613	187	902	2840
83	0	0	3896	611	190	902	2833
84	0	0	4013	611	191	898	2830
85	0	0	4076	608	192	899	2832
86	0	0	4091	608	192	898	2834
87	0	0	4092	609	190	901	2838
88	0	0	3208	601	188	902	2840
89	0	0	1920	603	185	902	2843
90	0	0	1155	604	183	902	2844
91	0	0	707	607	181	902	2843
92	0	0	451	608	179	902	2839
93	0	0	309	610	177	902	2833
94	0	0	232	612	177	902	2830
95	0	0	189	613	177	902	2831
96	0	0	171	614	176	897	2834
97	0	0	164	614	177	898	2837
98	0	0	683	617	179	902	2840
99	0	0	1817	617	180	902	2843
100	0	0	2777	616	183	902	2844
101	0	0	3352	614	185	902	2843
102	0	0	3696	613	185	898	2839
103	0	0	3897	612	190	898	2833
104	0	0	4013	610	191	902	2830
105	0	0	4074	609	191	903	2831
106	0	0	4091	608	192	901	2833
107	0	0	4091	609	190	902	2837
108	0	0	3279	602	189	902	2840
109	0	0	1961	603	186	903	2843
110	0	0	1180	605	183	902	2844
111	0	0	725	606	181	902	2843
112	0	0	461	609	179	902	2839
113	0	0	312	610	177	898	2834
114	0	0	234	611	176	898	2831
115	0	0	190	613	176	898	2832
116	0	0	170	614	176	902	2834
117	0	0	164	615	177	902	2837
118	0	0	640	617	178	902	2841
119	0	0	1759	617	180	902	2843
120	0	0	2752	615	181	902	2844
121	0	0	3335	615	184	902	2843
122	0	0	3684	613	186	902	2839
123	0	0	3889	611	190	902	2832
124	0	0	4009	610	190	902	2830
125	0	0	4073	610	191	902	2831
126	0	0	4091	608	193	901	2834
127	0	0	4092	609	191	902	2838
0	0	0	3231	602	189	902	2840
1	0	0	1938	604	187	902	2843
2	0	0	1166	604	183	902	2844
3	0	0	712	606	182	898	2843
4	0	0	454	608	179	898	2840
5	0	0	310	610	177	898	2834
6	0	0	231	611	177	902	2831
7	0	0	190	614	177	902	2831
8	0	0	171	614	175	902	2834
9	0	0	165	614	176	902	2837
10	0	0	661	617	178	902	2840
11	0	0	1811	617	180	902	2843
12	0	0	2773	615	183	902	2844
13	0	0	3348	615	184	901	2843
14	0	0	3695	613	185	902	2839
15	0	0	3896	612	189	902	2833
16	0	0	4012	610	192	898	2830
17	0	0	4075	610	193	902	2831
18	0	0	4092	609	193	902	2834
19	0	0	4091	609	191	902	2837
20	0	0	3279	602	188	902	2841
21	0	0	1961	603	187	899	2844
22	0	0	1178	605	184	898	2844
23	0	0	724	606	182	898	2844
24	0	0	461	609	179	902	2840
25	0	0	312	609	177	902	2834
26	0	0	233	613	176	902	2831
27	0	0	191	613	176	902	2831
28	0	0	171	614	176	902	2834
29	0	0	164	615	177	902	2837
30	0	0	622	618	178	902	2840
31	0	0	1768	617	180	902	2843
32	0	0	2758	615	183	898	2844
33	0	0	3337	615	185	897	2843
34	0	0	3686	613	187	898	2840
35	0	0	3894	612	190	902	2833
36	0	0	4010	611	192	902	2830
37	0	0	4074	609	191	903	2832
38	0	0	4091	610	192	901	2834
39	0	0	4091	609	191	898	2837
40	0	0	3254	602	188	902	2841
41	0	0	1956	603	186	903	2843
42	0	0	1176	605	183	902	2844
43	0	0	718	606	182	901	2843
44	0	0	457	609	179	902	2839
45	0	0	310	611	177	902	2833
46	0	0	232	612	177	902	2830
47	0	0	191	614	176	902	2831
48	0	0	171	614	176	901	2834
49	0	0	164	615	177	902	2838
50	0	0	626	618	177	898	2840
51	0	0	1743	616	179	898	2843
52	0	0	2734	616	182	898	2844
53	0	0	3324	615	184	902	2843
54	0	0	3681	614	187	898	2839
55	0	0	3888	612	190	899	2833
56	0	0	4007	610	192	902	2831
57	0	0	4071	609	193	902	2831
58	0	0	4091	609	191	901	2834
59	0	0	4091	609	190	902	2837
60	0	0	3270	602	189	902	2841
61	0	0	1950	604	186	903	2844
62	0	0	1172	605	183	903	2844
63	0	0	720	607	180	902	2843
64	0	0	458	608	180	902	2840
65	0	0	310	610	178	898	2833
66	0	0	232	613	175	899	2831
67	0	0	191	614	176	898	2832
68	0	0	171	614	175	901	2834
69	0	0	164	614	175	902	2837
70	0	0	626	618	177	902	2840
71	0	0	1747	618	181	902	2844
72	0	0	2745	616	182	902	2844
73	0	0	3332	615	184	902	2844
74	0	0	3681	614	187	902	2839
75	0	0	3889	612	191	902	2833
76	0	0	4007	611	192	902	2830
77	0	0	4072	610	192	902	2831
78	0	0	4091	609	192	902	2833
79	0	0	4091	609	190	902	2837
80	0	0	3281	603	190	902	2840
81	0	0	1972	604	187	902	2843
82	0	0	1185	605	184	902	2844
83	0	0	723	607	181	897	2843
84	0	0	460	609	180	898	2840
85	0	0	313	610	179	898	2833
86	0	0	233	612	175	902	2831
87	0	0	191	614	176	902	2832
88	0	0	172	614	175	902	2834
89	0	0	164	615	177	901	2837
90	0	0	647	618	178	902	2841
91	0	0	1763	617	180	902	2844
92	0	0	2745	617	182	903	2844
93	0	0	3330	615	185	902	2843
94	0	0	3684	613	187	902	2840
95	0	0	3890	611	190	902	2833
96	0	0	4007	610	191	899	2830
97	0	0	4072	610	193	902	2831
98	0	0	4091	610	192	902	2834
99	0	0	4091	609	191	902	2837
100	0	0	3285	603	188	902	2840
101	0	0	1963	604	187	898	2844
102	0	0	1180	605	183	898	2844
103	0	0	724	607	182	898	2843
104	0	0	461	609	180	902	2840
105	0	0	312	611	179	902	2834
106	0	0	233	613	177	902	2831
107	0	0	191	613	175	902	2831
108	0	0	172	614	176	902	2835
109	0	0	164	615	176	902	2837
110	0	0	631	618	178	902	2840
111	0	0	1763	618	181	902	2843
112	0	0	2754	617	182	898	2844
113	0	0	3336	615	185	898	2843
114	0	0	3685	614	186	898	2839
115	0	0	3892	612	191	902	2833
116	0	0	4008	611	193	902	2830
117	0	0	4072	609	191	902	2831
118	0	0	4091	610	193	902	2834
119	0	0	4091	609	191	898	2837
120	0	0	3334	602	189	902	2841
121	0	0	2015	604	187	902	2843
122	0	0	1210	605	184	902	2845
123	0	0	737	607	182	902	2843
124	0	0	468	608	180	902	2840
125	0	0	316	610	178	902	2833
126	0	0	234	613	176	903	2830
127	0	0	191	613	176	902	2831
0	0	0	171	614	176	902	2834
1	0	0	163	614	177	902	2837
2	0	0	635	618	178	898	2841
3	0	0	1759	617	179	898	2844
4	0	0	2742	617	183	898	2844
5	0	0	3334	615	185	902	2843
6	0	0	3684	613	187	902	2840
7	0	0	3889	613	190	903	2833
8	0	0	4007	611	192	902	2830
9	0	0	4071	609	191	903	2831
10	0	0	4091	608	191	903	2834
11	0	0	4091	609	190	903	2837
12	0	0	3292	602	189	902	2840
13	0	0	1971	605	186	902	2843
14	0	0	1184	605	184	902	2844
15	0	0	727	607	181	902	2844
16	0	0	460	609	180	902	2840
17	0	0	312	611	178	902	2833
18	0	0	232	613	175	902	2831
19	0	0	191	614	176	902	2832
20	0	0	170	614	176	898	2834
21	0	0	162	614	177	898	2837
22	0	0	629	619	179	898	2840
23	0	0	1757	618	181	902	2843
24	0	0	2741	616	183	902	2844
25	0	0	3328	615	184	902	2843
26	0	0	3679	614	187	902	2839
27	0	0	3888	613	189	902	2833
28	0	0	4007	611	192	902	2830
29	0	0	4071	610	193	902	2831
30	0	0	4093	609	193	903	2834
31	0	0	4091	609	191	902	2836
32	0	0	3324	602	189	898	2841
33	0	0	2004	604	186	898	2844
34	0	0	1196	605	185	902	2844
35	0	0	732	607	181	902	2843
36	0	0	465	609	179	902	2840
37	0	0	315	611	178	902	2833
38	0	0	233	613	177	898	2830
39	0	0	191	614	176	903	2831
40	0	0	170	614	176	902	2834
41	0	0	162	614	176	902	2838
42	0	0	618	618	179	903	2841
43	0	0	1733	618	179	902	2843
44	0	0	2737	616	182	902	2845
45	0	0	3324	615	185	902	2843
46	0	0	3677	615	186	902	2840
47	0	0	3885	613	189	902	2833
48	0	0	4006	611	193	903	2830
49	0	0	4069	610	191	903	2831
50	0	0	4091	609	192	903	2834
51	0	0	4091	609	191	903	2837
52	0	0	3327	604	188	902	2840
53	0	0	2003	604	186	902	2843
54	0	0	1203	605	183	902	2844
55	0	0	733	607	182	903	2844
56	0	0	466	609	179	902	2840
57	0	0	315	611	178	902	2834
58	0	0	233	613	177	903	2831
59	0	0	190	615	176	902	2832
60	0	0	169	615	177	901	2834
61	0	0	161	615	177	902	2837
62	0	0	597	618	178	902	2840
63	0	0	1701	618	178	903	2843
64	0	0	2708	618	182	902	2844
65	0	0	3308	615	185	902	2843
66	0	0	3671	614	186	903	2840
67	0	0	3882	611	190	902	2833
68	0	0	4002	611	189	903	2830
69	0	0	4070	610	193	903	2831
70	0	0	4091	609	193	902	2833
71	0	0	4091	609	191	902	2836
72	0	0	3326	602	188	902	2840
73	0	0	2000	603	186	903	2843
74	0	0	1200	606	184	903	2844
75	0	0	736	607	181	902	2843
76	0	0	467	609	180	902	2840
77	0	0	314	611	177	902	2833
78	0	0	234	613	176	901	2831
79	0	0	190	613	176	902	2832
80	0	0	170	614	176	903	2835
81	0	0	162	615	176	902	2837
82	0	0	582	619	177	902	2841
83	0	0	1696	617	181	902	2844
84	0	0	2714	617	182	903	2844
85	0	0	3311	615	185	903	2843
86	0	0	3670	615	185	903	2840
87	0	0	3880	612	191	903	2833
88	0	0	4003	611	191	903	2830
89	0	0	4068	609	191	902	2831
90	0	0	4091	610	192	902	2833
91	0	0	4092	609	191	903	2838
92	0	0	3341	603	190	902	2840
93	0	0	2020	604	185	903	2843
94	0	0	1212	605	184	902	2844
95	0	0	738	607	182	902	2844
96	0	0	467	610	179	903	2840
97	0	0	317	610	178	903	2833
98	0	0	234	613	177	903	2830
99	0	0	190	613	176	902	2832
100	0	0	171	615	175	902	2834
101	0	0	162	616	176	902	2837
102	0	0	646	619	178	902	2840
103	0	0	1759	618	179	902	2843
104	0	0	2743	616	183	902	2844
105	0	0	3329	615	184	902	2843
106	0	0	3684	614	186	902	2840
107	0	0	3888	612	189	901	2833
108	0	0	4006	610	192	902	2830
109	0	0	4072	610	193	903	2831
110	0	0	4091	609	193	902	2834
111	0	0	4091	609	191	902	2836
112	0	0	3337	602	188	902	2840
113	0	0	2006	604	186	903	2843
114	0	0	1204	605	184	903	2844
115	0	0	737	607	182	903	2843
116	0	0	467	609	179	903	2840
117	0	0	314	611	177	902	2834
118	0	0	232	613	176	902	2831
119	0	0	190	614	176	902	2831
120	0	0	170	615	176	902	2834
121	0	0	161	616	177	902	2837
122	0	0	574	619	177	902	2840
123	0	0	1671	618	180	902	2843
124	0	0	2698	616	182	902	2844
125	0	0	3304	615	185	902	2843
126	0	0	3663	615	186	902	2840
127	0	0	3879	613	189	902	2833
0	0	0	4001	612	191	902	2830
1	0	0	4067	610	191	902	2831
2	0	0	4091	610	191	902	2833
3	0	0	4092	610	191	903	2838
4	0	0	3398	603	189	903	2840
5	0	0	2062	603	186	903	2843
6	0	0	1236	605	184	903	2845
7	0	0	751	607	181	902	2843
8	0	0	475	609	179	902	2841
9	0	0	321	611	177	902	2833
10	0	0	236	612	176	902	2830
11	0	0	191	613	175	902	2831
12	0	0	170	614	177	902	2835
13	0	0	161	615	176	902	2837
14	0	0	596	619	177	902	2840
15	0	0	1687	618	179	902	2843
16	0	0	2699	616	182	903	2844
17	0	0	3302	616	184	903	2843
18	0	0	3667	614	187	902	2840
19	0	0	3879	613	189	902	2833
20	0	0	4000	611	191	902	2830
21	0	0	4067	610	193	903	2831
22	0	0	4091	610	193	903	2833
23	0	0	4091	609	190	903	2836
24	0	0	3361	603	189	902	2840
25	0	0	2032	604	186	902	2843
26	0	0	1211	605	184	903	2844
27	0	0	741	607	182	902	2843
28	0	0	469	609	179	902	2840
29	0	0	317	610	178	902	2834
30	0	0	234	613	177	902	2831
31	0	0	191	613	176	902	2831
32	0	0	170	615	176	903	2834
33	0	0	163	614	177	902	2837
34	0	0	576	618	178	902	2841
35	0	0	1650	618	180	902	2844
36	0	0	2675	616	182	902	2844
37	0	0	3295	617	185	903	2843
38	0	0	3658	615	187	903	2840
39	0	0	3873	611	190	902	2833
40	0	0	3997	611	192	902	2830
41	0	0	4065	610	191	902	2831
42	0	0	4091	610	191	902	2833
43	0	0	4091	610	191	902	2836
44	0	0	3398	603	189	902	2840
45	0	0	2063	604	186	902	2843
46	0	0	1236	605	184	902	2844
47	0	0	756	607	182	902	2844
48	0	0	476	609	179	903	2840
49	0	0	320	611	179	903	2834
50	0	0	236	613	177	903	2831
51	0	0	191	613	176	903	2832
52	0	0	169	615	175	902	2834
53	0	0	162	615	176	902	2838
54	0	0	548	619	180	902	2840
55	0	0	1662	618	180	903	2843
56	0	0	2685	617	183	902	2844
57	0	0	3292	616	185	902	2843
58	0	0	3657	614	186	902	2840
59	0	0	3876	612	188	902	2833
60	0	0	3998	611	191	901	2830
61	0	0	4065	610	190	902	2831
62	0	0	4091	609	191	902	2833
63	0	0	4091	610	191	902	2837
64	0	0	3396	603	188	902	2840
65	0	0	2065	604	187	902	2843
66	0	0	1230	605	184	903	2844
67	0	0	752	607	181	903	2844
68	0	0	475	609	180	903	2840
69	0	0	320	611	178	902	2835
70	0	0	234	614	177	902	2831
71	0	0	190	614	176	902	2832
72	0	0	169	615	177	902	2834
73	0	0	161	615	177	902	2837
74	0	0	570	618	179	902	2841
75	0	0	1674	618	179	902	2844
76	0	0	2690	616	181	902	2844
77	0	0	3304	616	184	902	2844
78	0	0	3663	614	186	902	2840
79	0	0	3876	613	189	902	2834
80	0	0	3999	612	192	902	2830
81	0	0	4066	610	192	902	2831
82	0	0	4091	609	193	902	2834
83	0	0	4091	610	190	902	2837
84	0	0	3376	603	188	903	2841
85	0	0	2053	604	185	903	2844
86	0	0	1230	605	184	903	2844
87	0	0	752	607	181	903	2843
88	0	0	472	609	179	902	2840
89	0	0	318	611	178	902	2834
90	0	0	234	614	177	902	2831
91	0	0	190	614	175	902	2832
92	0	0	169	615	176	902	2834
93	0	0	160	615	175	902	2837
94	0	0	553	619	177	902	2841
95	0	0	1667	618	179	902	2844
96	0	0	2686	617	181	903	2844
97	0	0	3295	616	184	903	2843
98	0	0	3659	615	187	902	2840
99	0	0	3875	613	190	902	2834
100	0	0	3999	611	192	902	2830
101	0	0	4065	609	191	902	2831
102	0	0	4091	609	192	902	2834
103	0	0	4091	610	190	903	2837
104	0	0	3403	603	189	903	2840
105	0	0	2071	604	187	902	2843
106	0	0	1233	606	183	902	2844
107	0	0	754	608	182	902	2844
108	0	0	475	610	180	902	2840
109	0	0	319	611	178	902	2834
110	0	0	235	612	177	902	2831
111	0	0	191	613	176	902	2832
112	0	0	169	615	176	902	2834
113	0	0	160	616	178	903	2837
114	0	0	530	619	177	903	2840
115	0	0	1598	619	180	902	2843
116	0	0	2645	617	183	903	2845
117	0	0	3275	616	185	902	2843
118	0	0	3646	615	186	902	2840
119	0	0	3866	613	188	902	2834
120	0	0	3994	611	192	902	2831
121	0	0	4063	609	192	902	2831
122	0	0	4093	610	192	903	2834
123	0	0	4092	609	192	902	2837
124	0	0	3380	603	188	902	2840
125	0	0	2043	604	186	902	2843
126	0	0	1225	605	184	902	2844
127	0	0	745	606	182	902	2844
0	0	0	472	609	179	902	2841
1	0	0	318	611	177	902	2834
2	0	0	235	613	178	902	2831
3	0	0	191	613	176	903	2832
4	0	0	169	615	177	903	2834
5	0	0	160	616	176	903	2837
6	0	0	519	619	177	902	2841
7	0	0	1586	618	180	902	2843
8	0	0	2636	616	182	902	2844
9	0	0	3266	616	184	902	2844
10	0	0	3645	615	187	901	2840
11	0	0	3866	613	189	902	2834
12	0	0	3995	611	191	902	2831
13	0	0	4062	610	192	902	2831
14	0	0	4093	609	192	902	2834
15	0	0	4092	610	191	902	2837
16	0	0	3446	603	188	902	2840
17	0	0	2099	605	187	902	2843
18	0	0	1250	606	183	903	2845
19	0	0	764	607	183	903	2843
20	0	0	483	609	180	903	2841
21	0	0	324	611	178	902	2835
22	0	0	237	613	177	902	2831
23	0	0	193	614	175	902	2832
24	0	0	170	615	177	902	2834
25	0	0	161	615	176	902	2837
26	0	0	528	618	178	902	2840
27	0	0	1592	618	179	902	2843
28	0	0	2640	617	181	902	2844
29	0	0	3274	617	185	902	2844
30	0	0	3645	615	187	901	2840
31	0	0	3866	613	189	901	2834
32	0	0	3994	611	191	903	2831
33	0	0	4064	610	192	902	2831
34	0	0	4091	610	193	902	2833
35	0	0	4092	611	191	902	2837
36	0	0	3413	603	189	903	2840
37	0	0	2076	605	186	903	2843
38	0	0	1243	606	184	903	2845
39	0	0	760	607	182	903	2843
40	0	0	478	609	179	902	2841
41	0	0	322	611	177	902	2835
42	0	0	237	613	178	902	2831
43	0	0	193	615	176	902	2832
44	0	0	171	615	176	903	2834
45	0	0	162	616	176	902	2837
46	0	0	546	619	179	902	2840
47	0	0	1646	617	180	902	2843
48	0	0	2675	617	182	903	2844
49	0	0	3287	616	184	902	2843
50	0	0	3655	615	186	903	2840
51	0	0	3873	613	190	902	2833
52	0	0	3998	611	190	902	2831
53	0	0	4065	610	193	902	2831
54	0	0	4093	610	191	903	2834
55	0	0	4092	609	192	903	2837
56	0	0	3464	603	189	902	2841
57	0	0	2108	604	187	902	2843
58	0	0	1254	606	184	902	2845
59	0	0	766	608	182	902	2843
60	0	0	484	610	180	902	2840
61	0	0	323	611	178	902	2835
62	0	0	238	613	175	902	2831
63	0	0	192	614	177	902	2832
64	0	0	171	615	176	902	2833
65	0	0	162	616	176	903	2837
66	0	0	514	619	177	902	2841
67	0	0	1580	618	180	903	2844
68	0	0	2633	617	182	903	2845
69	0	0	3268	616	184	902	2843
70	0	0	3643	615	186	902	2840
71	0	0	3864	613	188	902	2834
72	0	0	3993	612	192	902	2830
73	0	0	4063	610	192	902	2831
74	0	0	4091	609	192	902	2833
75	0	0	4091	610	191	902	2837
76	0	0	3464	603	190	902	2840
77	0	0	2117	605	187	902	2843
78	0	0	1267	606	184	902	2844
79	0	0	769	607	182	902	2844
80	0	0	486	609	178	902	2841
81	0	0	326	611	179	901	2834
82	0	0	239	614	176	902	2831
83	0	0	193	614	177	903	2832
84	0	0	171	615	176	903	2834
85	0	0	162	616	177	903	2837
86	0	0	519	620	178	903	2841
87	0	0	1612	618	181	902	2843
88	0	0	2653	617	182	902	2844
89	0	0	3274	616	185	902	2844
90	0	0	3651	614	185	902	2840
91	0	0	3868	613	189	902	2834
92	0	0	3995	612	193	902	2831
93	0	0	4064	611	192	902	2831
94	0	0	4091	610	191	902	2833
95	0	0	4091	610	191	902	2836
96	0	0	3458	603	187	903	2840
97	0	0	2104	605	186	903	2843
98	0	0	1252	605	184	902	2844
99	0	0	765	607	183	902	2844
100	0	0	483	610	180	902	2840
101	0	0	322	612	178	902	2835
102	0	0	238	613	176	903	2832
103	0	0	192	614	177	903	2831
104	0	0	170	616	177	902	2835
105	0	0	161	616	177	902	2837
106	0	0	511	619	179	902	2841
107	0	0	1562	619	179	902	2844
108	0	0	2629	617	182	902	2844
109	0	0	3262	616	184	902	2844
110	0	0	3640	617	187	902	2840
111	0	0	3863	614	189	902	2834
112	0	0	3993	612	191	903	2831
113	0	0	4061	611	192	902	2831
114	0	0	4093	610	191	903	2834
115	0	0	4093	610	191	903	2837
116	0	0	3476	604	188	902	2840
117	0	0	2122	605	186	902	2843
118	0	0	1270	606	184	902	2845
119	0	0	771	608	181	902	2844
120	0	0	486	609	180	902	2841
121	0	0	326	611	178	902	2835
122	0	0	238	613	176	902	2831
123	0	0	193	614	176	902	2832
124	0	0	170	615	176	902	2834
125	0	0	161	616	177	902	2837
126	0	0	489	618	177	902	2840
127	0	0	1547	619	180	901	2843
0	0	0	2612	618	182	903	2844
1	0	0	3250	616	184	902	2843
2	0	0	3632	615	187	903	2840
3	0	0	3859	613	188	902	2834
4	0	0	3990	611	191	902	2830
5	0	0	4062	611	193	903	2831
6	0	0	4092	610	193	903	2834
7	0	0	4091	611	191	902	2837
8	0	0	3460	603	188	902	2841
9	0	0	2112	604	187	903	2844
10	0	0	1256	606	183	902	2845
11	0	0	768	608	181	902	2844
12	0	0	485	610	178	902	2840
13	0	0	324	612	178	902	2834
14	0	0	238	614	176	902	2831
15	0	0	193	615	176	902	2832
16	0	0	171	615	176	902	2833
17	0	0	161	616	176	902	2837
18	0	0	489	619	178	903	2840
19	0	0	1561	619	180	902	2843
20	0	0	2621	618	182	903	2844
21	0	0	3261	616	184	902	2843
22	0	0	3638	615	187	902	2840
23	0	0	3862	613	190	902	2834
24	0	0	3992	611	193	902	2831
25	0	0	4064	611	192	902	2831
26	0	0	4091	610	193	902	2833
27	0	0	4091	611	190	903	2837
28	0	0	3488	604	190	902	2840
29	0	0	2135	604	188	902	2843
30	0	0	1278	606	185	902	2845
31	0	0	776	607	182	902	2843
32	0	0	490	610	180	902	2841
33	0	0	328	612	179	902	2834
34	0	0	240	613	176	902	2831
35	0	0	194	615	176	903	2831
36	0	0	171	615	176	903	2833
37	0	0	162	616	177	902	2837
38	0	0	472	620	178	902	2840
39	0	0	1547	619	179	902	2843
40	0	0	2613	618	182	902	2844
41	0	0	3253	617	184	902	2844
42	0	0	3638	616	187	902	2840
43	0	0	3860	613	189	902	2835
44	0	0	3992	611	192	902	2831
45	0	0	4061	611	191	902	2831
46	0	0	4091	610	191	902	2833
47	0	0	4091	611	192	902	2836
48	0	0	3503	604	189	903	2840
49	0	0	2152	605	187	903	2843
50	0	0	1280	606	184	902	2844
51	0	0	782	608	182	902	2844
52	0	0	493	610	179	902	2841
53	0	0	329	612	179	902	2834
54	0	0	241	614	177	903	2831
55	0	0	194	615	175	903	2831
56	0	0	171	615	176	902	2834
57	0	0	161	617	176	902	2837
58	0	0	509	619	177	902	2840
59	0	0	1570	619	181	902	2844
60	0	0	2636	618	182	902	2844
61	0	0	3264	617	184	902	2843
62	0	0	3641	616	187	902	2840
63	0	0	3863	613	189	902	2834
64	0	0	3994	612	191	903	2831
65	0	0	4062	611	193	903	2831
66	0	0	4091	611	192	903	2833
67	0	0	4091	610	190	903	2837
68	0	0	3517	603	189	903	2840
69	0	0	2156	605	187	902	2843
70	0	0	1290	606	184	902	2845
71	0	0	782	608	181	903	2844
72	0	0	493	610	180	902	2840
73	0	0	329	612	177	902	2835
74	0	0	242	614	176	902	2831
75	0	0	194	615	175	902	2832
76	0	0	171	615	177	902	2834
77	0	0	162	617	177	902	2837
78	0	0	472	619	178	902	2841
79	0	0	1500	619	180	903	2844
80	0	0	2580	618	182	902	2844
81	0	0	3234	617	184	902	2844
82	0	0	3624	615	185	903	2840
83	0	0	3853	615	189	903	2834
84	0	0	3985	612	193	903	2830
85	0	0	4058	611	193	903	2831
86	0	0	4091	611	192	902	2833
87	0	0	4091	611	191	902	2836
88	0	0	3543	603	189	902	2840
89	0	0	2162	604	187	902	2843
90	0	0	1293	607	183	903	2845
91	0	0	789	608	182	902	2843
92	0	0	497	610	180	902	2841
93	0	0	329	612	179	902	2835
94	0	0	242	613	176	902	2832
95	0	0	195	615	176	901	2832
96	0	0	172	616	175	903	2834
97	0	0	162	618	177	902	2837
98	0	0	473	619	178	902	2840
99	0	0	1504	619	180	901	2843
100	0	0	2594	618	181	903	2844
101	0	0	3239	617	184	903	2843
102	0	0	3626	615	185	903	2841
103	0	0	3856	614	190	904	2834
104	0	0	3988	612	193	902	2830
105	0	0	4060	611	193	902	2831
106	0	0	4091	611	192	902	2833
107	0	0	4091	610	190	902	2836
108	0	0	3529	604	188	903	2840
109	0	0	2166	605	186	903	2844
110	0	0	1294	606	184	902	2845
111	0	0	785	608	181	902	2844
112	0	0	495	610	180	902	2841
113	0	0	331	611	179	902	2835
114	0	0	242	614	177	901	2831
115	0	0	194	615	177	903	2832
116	0	0	171	616	176	903	2834
117	0	0	162	617	176	903	2837
118	0	0	471	620	179	902	2840
119	0	0	1518	619	181	902	2843
120	0	0	2593	618	182	902	2844
121	0	0	3239	617	184	902	2843
122	0	0	3630	616	185	902	2841
123	0	0	3858	614	188	902	2834
124	0	0	3988	613	191	901	2831
125	0	0	4061	611	193	902	2832
126	0	0	4091	611	193	902	2833
127	0	0	4091	611	192	902	2837
0	0	0	3552	604	189	903	2840
1	0	0	2188	605	186	902	2843
2	0	0	1300	606	184	902	2844
3	0	0	793	609	182	902	2843
4	0	0	500	610	180	902	2841
5	0	0	332	612	178	903	2835
6	0	0	242	614	176	902	2831
7	0	0	195	615	175	903	2831
8	0	0	172	616	177	902	2833
9	0	0	162	617	176	902	2837
10	0	0	450	620	177	902	2840
11	0	0	1505	620	182	902	2843
12	0	0	2597	618	181	902	2844
13	0	0	3241	617	184	902	2843
14	0	0	3627	616	186	902	2840
15	0	0	3855	614	190	902	2834
16	0	0	3989	613	191	902	2831
17	0	0	4062	612	191	903	2832
18	0	0	4091	612	192	903	2833
19	0	0	4091	611	191	903	2837
20	0	0	3511	605	189	902	2840
21	0	0	2156	605	186	901	2843
22	0	0	1290	607	183	902	2845
23	0	0	783	609	182	903	2843
24	0	0	494	611	179	903	2842
25	0	0	330	613	177	902	2835
26	0	0	241	615	177	902	2831
27	0	0	194	616	174	902	2831
28	0	0	171	616	176	902	2833
29	0	0	162	617	176	902	2836
30	0	0	455	621	178	902	2841
31	0	0	1508	620	180	901	2843
32	0	0	2589	619	182	902	2844
33	0	0	3236	618	183	902	2843
34	0	0	3628	617	186	903	2840
35	0	0	3855	614	189	903	2834
36	0	0	3987	612	193	903	2830
37	0	0	4060	611	193	903	2831
38	0	0	4091	612	192	902	2833
39	0	0	4091	611	191	902	2836
40	0	0	3544	605	190	902	2840
41	0	0	2158	605	186	902	2843
42	0	0	1291	607	184	903	2844
43	0	0	788	609	182	902	2843
44	0	0	497	611	180	902	2841
45	0	0	331	613	178	902	2835
46	0	0	241	615	177	902	2832
47	0	0	195	616	176	902	2832
48	0	0	172	617	176	903	2834
49	0	0	163	618	177	902	2837
50	0	0	451	620	178	902	2840
51	0	0	1481	621	179	902	2844
52	0	0	2578	619	181	902	2844
53	0	0	3232	618	185	903	2844
54	0	0	3622	615	187	902	2841
55	0	0	3851	615	189	902	2835
56	0	0	3987	613	191	901	2830
57	0	0	4061	613	192	902	2831
58	0	0	4091	612	193	902	2833
59	0	0	4091	611	190	903	2837
60	0	0	3543	605	188	902	2840
61	0	0	2171	606	187	902	2843
62	0	0	1298	607	184	902	2844
63	0	0	788	610	181	902	2844
64	0	0	497	611	179	903	2841
65	0	0	332	613	179	903	2835
66	0	0	242	615	176	903	2832
67	0	0	195	616	178	902	2832
68	0	0	171	617	176	902	2833
69	0	0	162	617	176	902	2837
70	0	0	460	621	180	903	2840
71	0	0	1481	620	178	903	2843
72	0	0	2569	619	182	902	2845
73	0	0	3224	619	185	902	2843
74	0	0	3621	617	186	902	2841
75	0	0	3853	616	188	903	2835
76	0	0	3985	613	191	902	2830
77	0	0	4059	612	193	902	2831
78	0	0	4091	611	191	902	2833
79	0	0	4091	611	190	902	2836
80	0	0	3604	605	188	902	2840
81	0	0	2215	606	187	903	2843
82	0	0	1324	608	185	903	2845
83	0	0	807	609	181	903	2844
84	0	0	508	611	179	903	2841
85	0	0	337	613	178	902	2835
86	0	0	245	615	175	903	2831
87	0	0	197	617	176	902	2832
88	0	0	172	617	176	902	2833
89	0	0	163	618	176	902	2837
90	0	0	425	622	177	904	2840
91	0	0	1432	621	179	902	2842
92	0	0	2545	619	182	902	2844
93	0	0	3209	618	184	901	2843
94	0	0	3608	617	185	902	2840
95	0	0	3847	615	189	902	2835
96	0	0	3983	613	193	903	2830
97	0	0	4057	612	191	903	2831
98	0	0	4093	612	192	903	2834
99	0	0	4092	611	191	903	2836
100	0	0	3589	605	189	902	2840
101	0	0	2230	607	187	902	2843
102	0	0	1332	608	185	902	2844
103	0	0	807	610	181	903	2844
104	0	0	508	610	178	902	2841
105	0	0	339	613	179	902	2835
106	0	0	246	615	176	902	2831
107	0	0	197	616	177	902	2831
108	0	0	173	617	175	902	2833
109	0	0	162	618	177	902	2836
110	0	0	450	621	179	902	2840
111	0	0	1495	621	179	902	2843
112	0	0	2578	619	183	902	2844
113	0	0	3232	619	184	902	2844
114	0	0	3625	616	187	903	2841
115	0	0	3854	616	189	903	2835
116	0	0	3987	614	191	903	2831
117	0	0	4059	612	192	903	2831
118	0	0	4091	612	192	902	2833
119	0	0	4091	612	191	902	2836
120	0	0	3610	605	189	902	2840
121	0	0	2220	606	186	903	2843
122	0	0	1327	608	185	902	2844
123	0	0	808	609	182	902	2844
124	0	0	508	612	179	902	2842
125	0	0	337	614	178	902	2835
126	0	0	245	615	175	902	2831
127	0	0	197	617	174	902	2832
0	0	0	172	617	176	902	2833
1	0	0	162	618	176	902	2836
2	0	0	408	622	178	902	2840
3	0	0	1437	621	180	902	2843
4	0	0	2551	620	181	902	2844
5	0	0	3214	618	185	902	2843
6	0	0	3611	617	186	902	2841
7	0	0	3845	615	189	903	2835
8	0	0	3983	614	192	902	2831
9	0	0	4057	613	192	901	2831
10	0	0	4092	613	193	902	2834
11	0	0	4092	612	192	902	2836
12	0	0	3599	606	189	902	2840
13	0	0	2233	606	187	903	2844
14	0	0	1334	609	183	902	2844
15	0	0	808	610	182	902	2844
16	0	0	508	611	180	903	2841
17	0	0	338	613	178	902	2835
18	0	0	245	615	176	903	2831
19	0	0	196	617	176	902	2832
20	0	0	172	618	176	902	2834
21	0	0	163	618	176	902	2837
22	0	0	425	622	177	903	2840
23	0	0	1468	620	180	902	2843
24	0	0	2565	620	181	902	2845
25	0	0	3221	619	185	902	2843
26	0	0	3619	617	187	901	2840
27	0	0	3850	616	189	902	2835
28	0	0	3985	614	191	902	2831
29	0	0	4058	614	191	902	2831
30	0	0	4092	612	192	902	2834
31	0	0	4092	613	190	902	2836
32	0	0	3602	605	188	902	2840
33	0	0	2212	607	186	903	2843
34	0	0	1322	608	185	903	2844
35	0	0	806	610	181	903	2844
36	0	0	507	611	180	902	2841
37	0	0	335	614	179	902	2835
38	0	0	244	616	177	902	2831
39	0	0	196	617	176	902	2831
40	0	0	171	618	177	902	2833
41	0	0	162	618	177	902	2837
42	0	0	397	622	177	902	2840
43	0	0	1439	621	180	903	2843
44	0	0	2554	620	181	901	2844
45	0	0	3215	619	184	902	2843
46	0	0	3612	618	186	902	2841
47	0	0	3850	616	188	904	2834
48	0	0	3982	614	192	902	2830
49	0	0	4057	613	192	902	2831
50	0	0	4093	613	192	902	2834
51	0	0	4092	614	191	903	2836
52	0	0	3593	606	188	903	2840
53	0	0	2236	607	187	904	2843
54	0	0	1336	609	184	903	2844
55	0	0	810	611	181	903	2844
56	0	0	509	612	180	902	2841
57	0	0	338	614	177	902	2835
58	0	0	245	617	177	902	2831
59	0	0	196	617	175	902	2831
60	0	0	173	618	177	902	2833
61	0	0	163	619	177	902	2837
62	0	0	405	622	178	902	2840
63	0	0	1438	622	180	902	2843
64	0	0	2543	621	182	903	2844
65	0	0	3208	620	183	902	2843
66	0	0	3611	618	187	901	2840
67	0	0	3846	617	188	902	2835
68	0	0	3981	615	191	902	2830
69	0	0	4057	613	191	903	2831
70	0	0	4091	613	192	903	2833
71	0	0	4091	614	190	903	2836
72	0	0	3617	606	189	902	2840
73	0	0	2221	608	188	902	2844
74	0	0	1327	609	184	902	2844
75	0	0	810	611	182	902	2844
76	0	0	506	612	179	902	2841
77	0	0	337	614	177	902	2835
78	0	0	245	616	175	903	2831
79	0	0	197	618	175	902	2831
80	0	0	172	619	177	903	2833
81	0	0	163	618	177	899	2836
82	0	0	426	622	178	902	2840
83	0	0	1438	622	179	903	2842
84	0	0	2536	621	181	902	2844
85	0	0	3205	620	184	903	2843
86	0	0	3610	619	186	902	2841
87	0	0	3847	617	189	902	2835
88	0	0	3981	615	192	902	2831
89	0	0	4059	614	192	902	2831
90	0	0	4091	614	191	902	2833
91	0	0	4091	614	191	903	2836
92	0	0	3675	606	189	903	2840
93	0	0	2269	608	186	902	2843
94	0	0	1355	609	184	902	2844
95	0	0	825	611	181	902	2844
96	0	0	518	612	179	903	2841
97	0	0	343	614	179	902	2835
98	0	0	248	617	178	902	2831
99	0	0	198	618	175	902	2831
100	0	0	173	619	176	902	2833
101	0	0	162	619	176	903	2837
102	0	0	379	623	178	902	2840
103	0	0	1362	623	180	903	2843
104	0	0	2496	621	180	901	2844
105	0	0	3181	620	183	902	2843
106	0	0	3591	619	186	902	2841
107	0	0	3836	617	189	903	2835
108	0	0	3977	615	192	902	2831
109	0	0	4054	614	192	902	2831
110	0	0	4091	614	192	902	2833
111	0	0	4091	614	191	902	2836
112	0	0	3636	607	189	903	2839
113	0	0	2253	608	187	903	2843
114	0	0	1346	609	183	903	2844
115	0	0	815	611	182	902	2843
116	0	0	512	613	180	902	2841
117	0	0	341	615	180	902	2835
118	0	0	246	617	177	903	2832
119	0	0	198	618	175	903	2831
120	0	0	173	619	176	902	2834
121	0	0	164	619	176	902	2836
122	0	0	418	622	177	901	2840
123	0	0	1402	622	179	902	2843
124	0	0	2515	621	182	901	2844
125	0	0	3201	620	184	902	2844
126	0	0	3604	619	186	902	2841
127	0	0	3841	618	190	902	2835
0	0	0	3980	616	191	903	2831
1	0	0	4056	615	193	902	2831
2	0	0	4091	614	191	903	2833
3	0	0	4091	614	191	903	2836
4	0	0	3675	607	190	902	2840
5	0	0	2273	609	188	902	2843
6	0	0	1358	609	183	902	2844
7	0	0	827	611	182	902	2844
8	0	0	516	613	180	902	2841
9	0	0	344	615	179	902	2835
10	0	0	249	617	176	902	2831
11	0	0	198	618	175	902	2831
12	0	0	174	619	176	902	2834
13	0	0	163	618	177	902	2836
14	0	0	376	623	177	902	2840
15	0	0	1380	623	180	902	2844
16	0	0	2503	621	181	902	2844
17	0	0	3186	621	184	902	2843
18	0	0	3594	619	186	902	2841
19	0	0	3839	618	188	902	2834
20	0	0	3977	615	190	903	2831
21	0	0	4054	615	192	902	2831
22	0	0	4091	614	191	903	2833
23	0	0	4091	614	190	902	2836
24	0	0	3656	607	190	902	2840
25	0	0	2282	608	187	902	2843
26	0	0	1354	610	183	902	2844
27	0	0	826	611	182	903	2844
28	0	0	519	613	179	903	2841
29	0	0	345	613	179	902	2835
30	0	0	248	617	176	903	2831
31	0	0	199	619	176	902	2832
32	0	0	173	619	176	903	2833
33	0	0	162	620	177	903	2837
34	0	0	396	623	179	902	2840
35	0	0	1384	623	179	902	2843
36	0	0	2504	621	181	902	2844
37	0	0	3192	620	184	902	2843
38	0	0	3599	619	186	902	2841
39	0	0	3840	617	188	903	2835
40	0	0	3978	616	191	903	2831
41	0	0	4055	615	192	901	2831
42	0	0	4091	615	193	902	2833
43	0	0	4091	614	191	902	2836
44	0	0	3655	607	189	902	2840
45	0	0	2299	608	187	903	2844
46	0	0	1372	610	184	902	2845
47	0	0	835	612	183	903	2844
48	0	0	522	613	178	903	2841
49	0	0	346	615	178	903	2836
50	0	0	250	618	176	903	2832
51	0	0	199	618	176	903	2831
52	0	0	174	619	176	902	2833
53	0	0	163	619	178	902	2836
54	0	0	361	623	177	902	2840
55	0	0	1346	623	180	903	2843
56	0	0	2478	622	180	902	2844
57	0	0	3171	620	183	902	2843
58	0	0	3585	619	185	902	2841
59	0	0	3833	618	189	901	2835
60	0	0	3974	616	190	902	2831
61	0	0	4053	614	192	902	2831
62	0	0	4092	614	192	902	2834
63	0	0	4092	615	191	902	2836
64	0	0	3672	607	189	902	2840
65	0	0	2313	609	187	902	2844
66	0	0	1372	610	184	903	2844
67	0	0	830	612	182	903	2844
68	0	0	524	613	181	902	2841
69	0	0	348	615	179	902	2835
70	0	0	250	617	176	903	2831
71	0	0	199	618	176	902	2831
72	0	0	174	619	175	902	2833
73	0	0	163	620	177	902	2836
74	0	0	371	623	178	901	2840
75	0	0	1351	623	180	902	2843
76	0	0	2482	621	181	902	2844
77	0	0	3179	621	184	902	2844
78	0	0	3590	620	187	902	2841
79	0	0	3835	617	188	903	2835
80	0	0	3975	617	192	902	2831
81	0	0	4054	615	192	902	2831
82	0	0	4091	614	192	903	2833
83	0	0	4092	614	192	902	2837
84	0	0	3687	607	188	903	2840
85	0	0	2317	609	187	902	2842
86	0	0	1383	610	184	902	2844
87	0	0	842	612	181	902	2844
88	0	0	526	613	179	903	2842
89	0	0	348	615	179	902	2835
90	0	0	252	618	176	903	2831
91	0	0	200	619	175	903	2832
92	0	0	174	620	176	902	2834
93	0	0	164	620	176	901	2836
94	0	0	346	623	178	902	2840
95	0	0	1340	622	179	902	2843
96	0	0	2469	622	181	902	2844
97	0	0	3166	621	184	902	2844
98	0	0	3583	619	185	902	2841
99	0	0	3833	617	189	902	2835
100	0	0	3975	616	191	903	2831
101	0	0	4053	615	192	902	2831
102	0	0	4092	615	192	903	2833
103	0	0	4092	616	192	902	2836
104	0	0	3731	607	190	902	2840
105	0	0	2337	609	187	902	2843
106	0	0	1386	610	184	902	2844
107	0	0	844	612	181	902	2844
108	0	0	529	613	179	902	2841
109	0	0	351	616	178	903	2836
110	0	0	252	617	176	902	2831
111	0	0	200	619	176	902	2831
112	0	0	174	620	176	902	2833
113	0	0	164	621	176	902	2836
114	0	0	380	623	177	902	2840
115	0	0	1377	623	180	902	2842
116	0	0	2495	622	182	902	2845
117	0	0	3187	621	183	902	2843
118	0	0	3594	620	186	903	2841
119	0	0	3837	618	189	902	2835
120	0	0	3977	617	191	902	2831
121	0	0	4055	614	192	902	2831
122	0	0	4092	615	191	902	2833
123	0	0	4092	615	191	902	2836
124	0	0	3721	607	190	902	2840
125	0	0	2331	608	186	903	2843
126	0	0	1391	610	184	902	2844
127	0	0	846	611	183	902	2844
0	0	0	528	614	179	903	2842
1	0	0	350	616	179	903	2836
2	0	0	252	618	177	903	2831
3	0	0	200	619	176	903	2831
4	0	0	174	620	177	902	2833
5	0	0	163	620	177	902	2836
6	0	0	344	624	177	902	2840
7	0	0	1348	623	180	902	2843
8	0	0	2478	622	182	902	2844
9	0	0	3172	621	184	902	2844
10	0	0	3586	621	186	902	2841
11	0	0	3833	617	188	902	2836
12	0	0	3975	616	191	902	2831
13	0	0	4052	615	192	902	2831
14	0	0	4092	615	193	902	2833
15	0	0	4091	615	192	902	2836
16	0	0	3751	608	190	902	2840
17	0	0	2359	609	187	902	2843
18	0	0	1399	610	184	903	2845
19	0	0	850	612	182	903	2844
20	0	0	532	614	179	903	2841
21	0	0	352	616	179	903	2836
22	0	0	252	617	177	902	2832
23	0	0	200	619	177	902	2831
24	0	0	174	620	176	902	2834
25	0	0	163	619	176	902	2836
26	0	0	352	624	178	902	2840
27	0	0	1332	623	179	902	2843
28	0	0	2462	622	182	902	2844
29	0	0	3168	622	183	901	2843
30	0	0	3582	620	185	902	2841
31	0	0	3830	617	189	902	2836
32	0	0	3973	616	191	903	2831
33	0	0	4052	615	193	902	2831
34	0	0	4091	615	192	902	2833
35	0	0	4092	615	191	902	2836
36	0	0	3713	609	190	903	2840
37	0	0	2318	609	186	903	2843
38	0	0	1383	610	185	904	2845
39	0	0	842	612	183	903	2844
40	0	0	525	614	180	901	2842
41	0	0	348	615	178	902	2836
42	0	0	251	618	176	902	2831
43	0	0	199	619	177	902	2831
44	0	0	174	619	176	902	2833
45	0	0	163	621	176	902	2836
46	0	0	327	625	178	902	2840
47	0	0	1336	623	179	902	2844
48	0	0	2469	622	182	903	2844
49	0	0	3166	622	183	903	2844
50	0	0	3582	620	186	902	2841
51	0	0	3832	618	189	902	2835
52	0	0	3973	616	191	903	2831
53	0	0	4052	615	192	901	2831
54	0	0	4092	615	192	902	2832
55	0	0	4092	615	191	901	2836
56	0	0	3767	607	188	898	2840
57	0	0	2363	609	187	903	2843
58	0	0	1409	610	184	902	2844
59	0	0	856	612	182	902	2844
60	0	0	537	614	182	902	2841
61	0	0	353	616	179	898	2836
62	0	0	253	618	177	898	2832
63	0	0	201	619	176	898	2831
64	0	0	173	620	176	902	2834
65	0	0	163	621	177	901	2836
66	0	0	320	624	178	901	2840
67	0	0	1303	623	179	901	2842
68	0	0	2458	622	182	902	2844
69	0	0	3158	622	184	902	2843
70	0	0	3577	620	185	902	2841
71	0	0	3827	618	187	902	2835
72	0	0	3973	616	192	898	2831
73	0	0	4053	616	192	899	2831
74	0	0	4092	615	191	899	2833
75	0	0	4091	615	191	902	2836
76	0	0	3735	609	189	902	2839
77	0	0	2361	609	187	903	2843
78	0	0	1408	610	184	902	2844
79	0	0	851	612	183	899	2844
80	0	0	533	614	181	903	2841
81	0	0	352	615	177	902	2835
82	0	0	252	618	176	902	2831
83	0	0	200	619	177	902	2831
84	0	0	175	620	177	902	2833
85	0	0	163	621	177	902	2836
86	0	0	319	625	179	902	2839
87	0	0	1292	623	179	903	2842
88	0	0	2435	623	181	902	2844
89	0	0	3145	621	184	902	2843
90	0	0	3572	620	185	898	2841
91	0	0	3825	619	189	898	2835
92	0	0	3970	617	191	898	2831
93	0	0	4050	616	192	902	2830
94	0	0	4093	615	192	902	2833
95	0	0	4092	615	191	902	2836
96	0	0	3759	609	189	902	2839
97	0	0	2354	609	187	903	2843
98	0	0	1404	611	184	902	2844
99	0	0	854	613	182	902	2843
100	0	0	535	614	179	902	2841
101	0	0	352	617	179	902	2836
102	0	0	253	618	176	903	2831
103	0	0	201	620	176	902	2831
104	0	0	174	621	177	902	2833
105	0	0	163	621	177	902	2836
106	0	0	314	625	178	902	2840
107	0	0	1298	624	179	902	2843
108	0	0	2453	623	183	898	2844
109	0	0	3157	622	183	898	2844
110	0	0	3577	621	187	898	2841
111	0	0	3828	619	189	902	2835
112	0	0	3971	617	191	902	2830
113	0	0	4051	616	191	902	2831
114	0	0	4091	616	192	902	2832
115	0	0	4091	615	192	902	2836
116	0	0	3753	609	189	903	2839
117	0	0	2375	609	186	902	2842
118	0	0	1417	612	185	903	2844
119	0	0	856	613	182	902	2843
120	0	0	536	614	180	898	2842
121	0	0	354	617	179	898	2836
122	0	0	253	618	177	902	2831
123	0	0	200	620	175	903	2831
124	0	0	175	621	177	902	2832
125	0	0	164	621	176	902	2835
126	0	0	332	625	179	898	2839
127	0	0	1293	624	180	898	2842
0	0	0	2436	623	182	902	2844
1	0	0	3146	622	183	902	2843
2	0	0	3574	621	185	902	2841
3	0	0	3824	620	188	902	2835
4	0	0	3969	617	190	902	2830
5	0	0	4050	617	193	903	2831
6	0	0	4092	615	193	902	2833
7	0	0	4092	616	193	902	2835
8	0	0	3811	609	189	902	2839
9	0	0	2397	609	187	899	2843
10	0	0	1428	611	184	899	2844
11	0	0	869	613	182	899	2844
12	0	0	541	615	180	901	2841
13	0	0	356	617	178	902	2836
14	0	0	255	619	177	902	2831
15	0	0	202	619	176	902	2831
16	0	0	174	620	178	902	2832
17	0	0	163	620	176	902	2835
18	0	0	298	625	178	903	2839
19	0	0	1249	624	179	902	2842
20	0	0	2413	623	181	902	2844
21	0	0	3132	622	183	902	2843
22	0	0	3562	621	186	901	2842
23	0	0	3820	619	188	902	2835
24	0	0	3967	618	191	902	2830
25	0	0	4051	617	192	902	2831
26	0	0	4091	616	191	902	2832
27	0	0	4091	615	192	898	2835
28	0	0	3788	609	189	898	2839
29	0	0	2390	610	186	898	2842
30	0	0	1416	611	185	902	2844
31	0	0	861	613	182	902	2843
32	0	0	539	615	180	902	2841
33	0	0	356	618	178	902	2836
34	0	0	254	619	177	902	2831
35	0	0	202	619	176	902	2831
36	0	0	176	621	176	902	2832
37	0	0	164	621	176	902	2836
38	0	0	320	625	177	902	2840
39	0	0	1263	624	179	902	2842
40	0	0	2410	623	181	901	2844
41	0	0	3138	622	184	898	2843
42	0	0	3565	621	186	898	2841
43	0	0	3819	619	190	898	2835
44	0	0	3968	618	191	902	2830
45	0	0	4049	616	191	902	2830
46	0	0	4090	615	193	902	2832
47	0	0	4091	616	192	902	2835
48	0	0	3814	609	189	903	2839
49	0	0	2429	610	187	903	2842
50	0	0	1449	611	184	903	2844
51	0	0	880	613	181	902	2843
52	0	0	547	614	180	901	2842
53	0	0	360	617	177	902	2835
54	0	0	256	617	176	902	2831
55	0	0	202	620	176	902	2831
56	0	0	175	621	176	902	2833
57	0	0	163	622	176	902	2836
58	0	0	282	625	177	902	2840
59	0	0	1241	624	180	898	2842
60	0	0	2399	623	181	898	2844
61	0	0	3122	623	185	898	2843
62	0	0	3560	621	186	901	2841
63	0	0	3818	620	188	902	2836
64	0	0	3963	618	192	902	2831
65	0	0	4047	616	192	902	2830
66	0	0	4091	615	192	902	2832
67	0	0	4092	616	192	902	2835
68	0	0	3817	609	189	903	2839
69	0	0	2425	609	187	902	2842
70	0	0	1436	611	185	902	2844
71	0	0	872	613	181	902	2843
72	0	0	546	615	180	898	2841
73	0	0	358	616	178	903	2836
74	0	0	256	619	176	902	2831
75	0	0	202	620	176	902	2831
76	0	0	176	620	176	902	2832
77	0	0	163	621	175	898	2836
78	0	0	287	625	179	898	2839
79	0	0	1247	624	180	898	2842
80	0	0	2405	623	181	902	2843
81	0	0	3134	622	184	902	2843
82	0	0	3563	621	186	902	2840
83	0	0	3819	619	188	902	2835
84	0	0	3969	618	191	902	2831
85	0	0	4048	617	193	902	2830
86	0	0	4091	616	192	902	2832
87	0	0	4091	616	192	903	2835
88	0	0	3820	609	190	898	2839
89	0	0	2437	609	187	899	2842
90	0	0	1452	611	184	899	2844
91	0	0	876	613	182	902	2843
92	0	0	548	615	180	902	2841
93	0	0	361	617	177	902	2836
94	0	0	257	619	176	902	2831
95	0	0	203	620	176	898	2831
96	0	0	175	621	176	902	2833
97	0	0	164	622	176	902	2835
98	0	0	267	625	178	902	2839
99	0	0	1220	624	180	902	2842
100	0	0	2380	623	182	901	2843
101	0	0	3112	623	184	901	2843
102	0	0	3553	621	185	902	2842
103	0	0	3814	620	189	902	2835
104	0	0	3962	618	191	902	2831
105	0	0	4047	616	192	902	2830
106	0	0	4091	617	192	898	2832
107	0	0	4091	616	192	898	2835
108	0	0	3843	610	190	898	2839
109	0	0	2423	610	186	903	2842
110	0	0	1444	611	184	902	2844
111	0	0	877	613	183	902	2844
112	0	0	549	615	180	902	2841
113	0	0	359	617	179	902	2836
114	0	0	257	619	177	902	2832
115	0	0	203	620	176	902	2830
116	0	0	175	621	177	902	2832
117	0	0	163	621	177	902	2835
118	0	0	269	625	178	901	2839
119	0	0	1210	625	180	902	2842
120	0	0	2385	625	182	901	2844
121	0	0	3115	622	184	902	2843
122	0	0	3551	621	186	902	2841
123	0	0	3812	621	189	902	2835
124	0	0	3962	618	192	898	2830
125	0	0	4047	617	192	897	2830
126	0	0	4090	616	192	898	2832
127	0	0	4091	616	191	902	2835
0	0	0	3837	609	190	902	2838
1	0	0	2434	609	187	902	2842
2	0	0	1450	612	184	902	2844
3	0	0	876	613	182	902	2843
4	0	0	548	614	180	902	2841
5	0	0	361	617	177	902	2835
6	0	0	257	619	177	902	2831
7	0	0	203	620	176	902	2831
8	0	0	176	620	175	898	2832
9	0	0	164	622	176	898	2836
10	0	0	277	625	178	902	2839
11	0	0	1221	624	179	902	2842
12	0	0	2383	624	181	902	2844
13	0	0	3115	622	184	902	2843
14	0	0	3555	621	185	898	2841
15	0	0	3815	620	188	898	2836
16	0	0	3963	618	191	902	2830
17	0	0	4047	616	192	902	2830
18	0	0	4091	617	192	902	2832
19	0	0	4092	617	190	902	2835
20	0	0	3841	609	188	902	2839
21	0	0	2434	610	187	903	2842
22	0	0	1449	611	184	902	2844
23	0	0	880	613	182	902	2843
24	0	0	551	614	180	902	2841
25	0	0	362	617	179	902	2836
26	0	0	258	618	176	902	2831
27	0	0	203	620	177	898	2831
28	0	0	175	622	175	898	2832
29	0	0	164	621	176	897	2835
30	0	0	290	625	177	902	2839
31	0	0	1240	624	179	902	2842
32	0	0	2396	623	182	902	2844
33	0	0	3123	622	184	902	2844
34	0	0	3561	623	186	902	2840
35	0	0	3817	620	189	902	2835
36	0	0	3965	618	191	902	2831
37	0	0	4051	617	192	902	2830
38	0	0	4091	616	192	901	2831
39	0	0	4091	616	191	902	2835
40	0	0	3867	610	190	898	2839
41	0	0	2449	610	187	902	2842
42	0	0	1458	612	185	902	2844
43	0	0	887	613	182	902	2843
44	0	0	553	615	180	902	2841
45	0	0	363	616	177	898	2836
46	0	0	258	618	177	898	2831
47	0	0	204	620	176	898	2831
48	0	0	177	620	176	902	2833
49	0	0	164	621	176	902	2835
50	0	0	263	625	179	901	2839
51	0	0	1214	624	179	902	2842
52	0	0	2388	623	181	902	2843
53	0	0	3117	623	184	902	2843
54	0	0	3553	621	185	902	2840
55	0	0	3813	620	188	902	2835
56	0	0	3963	617	191	898	2831
57	0	0	4047	616	192	897	2830
58	0	0	4091	615	192	898	2832
59	0	0	4091	616	192	902	2836
60	0	0	3873	609	189	903	2839
61	0	0	2481	610	187	902	2842
62	0	0	1478	611	185	902	2844
63	0	0	892	612	183	898	2843
64	0	0	557	614	180	902	2841
65	0	0	365	617	178	903	2836
66	0	0	260	618	178	902	2831
67	0	0	205	620	176	902	2830
68	0	0	177	620	176	902	2832
69	0	0	165	621	177	901	2835
70	0	0	273	624	177	902	2839
71	0	0	1232	623	181	902	2841
72	0	0	2394	624	182	901	2844
73	0	0	3122	621	184	902	2844
74	0	0	3560	621	186	898	2841
75	0	0	3817	619	187	898	2835
76	0	0	3964	618	191	898	2831
77	0	0	4050	616	192	902	2831
78	0	0	4091	615	192	902	2832
79	0	0	4091	615	192	901	2835
80	0	0	3868	609	189	902	2838
81	0	0	2462	609	188	902	2842
82	0	0	1465	611	185	902	2844
83	0	0	889	613	182	902	2843
84	0	0	555	615	180	902	2841
85	0	0	363	616	178	902	2836
86	0	0	259	618	176	902	2831
87	0	0	204	619	176	901	2830
88	0	0	176	620	177	902	2833
89	0	0	163	621	176	902	2835
90	0	0	244	625	176	902	2839
91	0	0	1179	625	180	902	2842
92	0	0	2362	624	182	897	2844
93	0	0	3103	622	183	898	2843
94	0	0	3543	621	185	899	2841
95	0	0	3809	619	189	902	2835
96	0	0	3960	617	192	902	2830
97	0	0	4045	616	191	901	2830
98	0	0	4090	615	192	902	2831
99	0	0	4092	615	191	903	2836
100	0	0	3899	609	190	903	2839
101	0	0	2501	609	187	902	2842
102	0	0	1489	611	185	903	2844
103	0	0	898	613	182	902	2843
104	0	0	560	614	179	898	2841
105	0	0	367	617	178	898	2836
106	0	0	260	618	177	902	2831
107	0	0	204	619	176	901	2830
108	0	0	176	620	176	902	2832
109	0	0	163	621	176	901	2835
110	0	0	250	625	178	898	2839
111	0	0	1185	624	179	898	2842
112	0	0	2354	623	181	902	2843
113	0	0	3097	621	183	902	2844
114	0	0	3545	621	187	902	2841
115	0	0	3808	619	188	902	2835
116	0	0	3959	617	191	902	2830
117	0	0	4046	616	192	901	2830
118	0	0	4091	615	192	902	2832
119	0	0	4091	615	192	903	2834
120	0	0	3894	609	189	902	2838
121	0	0	2480	609	187	899	2841
122	0	0	1476	611	184	898	2843
123	0	0	896	613	182	898	2843
124	0	0	556	614	180	902	2842
125	0	0	365	616	178	902	2836
126	0	0	260	618	176	902	2831
127	0	0	204	619	175	902	2830
0	0	0	176	619	175	902	2833
1	0	0	164	621	176	902	2835
2	0	0	234	624	177	902	2838
3	0	0	1160	623	179	902	2841
4	0	0	2343	623	181	901	2843
5	0	0	3091	622	183	901	2843
6	0	0	3536	621	184	903	2840
7	0	0	3806	620	189	902	2835
8	0	0	3958	618	190	902	2830
9	0	0	4047	616	192	902	2830
10	0	0	4090	616	192	898	2831
11	0	0	4091	616	191	902	2835
12	0	0	3904	609	190	903	2839
13	0	0	2509	609	187	902	2841
14	0	0	1492	611	185	902	2843
15	0	0	900	612	182	898	2843
16	0	0	562	614	180	902	2841
17	0	0	368	616	179	902	2836
18	0	0	262	618	177	902	2831
19	0	0	205	620	176	902	2830
20	0	0	176	620	175	902	2832
21	0	0	163	621	176	902	2835
22	0	0	216	625	177	902	2838
23	0	0	1137	624	180	902	2841
24	0	0	2315	623	181	902	2844
25	0	0	3074	623	183	902	2843
26	0	0	3531	622	187	898	2841
27	0	0	3800	620	189	898	2836
28	0	0	3955	617	191	898	2830
29	0	0	4043	616	193	902	2830
30	0	0	4090	616	192	902	2831
31	0	0	4091	616	192	902	2834
32	0	0	3927	609	190	902	2838
33	0	0	2540	609	186	902	2842
34	0	0	1510	611	185	902	2843
35	0	0	916	613	182	902	2843
36	0	0	571	614	181	902	2841
37	0	0	372	617	178	901	2835
38	0	0	263	617	177	902	2831
39	0	0	206	620	176	902	2831
40	0	0	177	621	176	902	2832
41	0	0	165	620	176	902	2835
42	0	0	228	625	178	902	2838
43	0	0	1159	625	179	902	2841
44	0	0	2349	623	181	898	2843
45	0	0	3094	621	184	898	2843
46	0	0	3538	621	185	898	2841
47	0	0	3807	620	188	902	2836
48	0	0	3958	617	191	902	2831
49	0	0	4044	617	193	902	2830
50	0	0	4090	615	192	902	2832
51	0	0	4092	615	191	902	2835
52	0	0	3931	609	189	903	2838
53	0	0	2533	609	187	902	2841
54	0	0	1507	611	184	902	2844
55	0	0	910	613	183	902	2843
56	0	0	567	615	181	897	2841
57	0	0	371	616	178	898	2836
58	0	0	262	618	177	902	2831
59	0	0	206	619	175	902	2830
60	0	0	176	620	176	902	2832
61	0	0	164	622	177	902	2835
62	0	0	242	624	177	898	2839
63	0	0	1188	625	178	898	2842
64	0	0	2359	623	181	902	2843
65	0	0	3099	622	184	902	2843
66	0	0	3546	620	185	901	2841
67	0	0	3809	620	189	902	2836
68	0	0	3960	617	191	902	2830
69	0	0	4046	616	193	902	2830
70	0	0	4089	616	192	902	2831
71	0	0	4092	616	191	903	2834
72	0	0	3932	609	189	902	2838
73	0	0	2522	610	188	898	2842
74	0	0	1500	611	185	898	2843
75	0	0	910	612	183	898	2843
76	0	0	564	615	180	902	2841
77	0	0	370	616	179	902	2836
78	0	0	262	619	177	902	2831
79	0	0	205	620	176	902	2830
80	0	0	177	620	177	902	2832
81	0	0	164	621	177	902	2836
82	0	0	222	625	178	902	2838
83	0	0	1146	624	180	902	2842
84	0	0	2334	623	180	901	2843
85	0	0	3085	621	184	902	2843
86	0	0	3534	620	185	902	2841
87	0	0	3803	619	189	902	2835
88	0	0	3956	619	191	902	2831
89	0	0	4043	617	192	902	2830
90	0	0	4089	616	192	902	2831
91	0	0	4092	616	192	898	2834
92	0	0	3948	609	189	899	2838
93	0	0	2561	610	187	898	2841
94	0	0	1512	611	185	902	2843
95	0	0	915	613	182	902	2843
96	0	0	571	615	180	902	2841
97	0	0	373	616	177	902	2836
98	0	0	264	618	178	902	2831
99	0	0	206	620	176	902	2831
100	0	0	176	620	176	902	2832
101	0	0	164	622	176	902	2835
102	0	0	217	625	177	902	2838
103	0	0	1120	624	179	902	2841
104	0	0	2293	624	181	898	2843
105	0	0	3066	623	183	902	2844
106	0	0	3524	621	187	902	2840
107	0	0	3795	620	187	903	2835
108	0	0	3951	617	191	902	2830
109	0	0	4043	617	193	898	2830
110	0	0	4090	616	193	898	2832
111	0	0	4091	615	193	898	2834
112	0	0	3941	609	188	903	2838
113	0	0	2542	610	187	902	2842
114	0	0	1511	611	185	902	2843
115	0	0	916	612	182	902	2844
116	0	0	568	615	178	903	2841
117	0	0	371	616	176	903	2836
118	0	0	263	618	176	902	2831
119	0	0	206	619	176	902	2830
120	0	0	177	621	177	898	2832
121	0	0	164	621	177	898	2835
122	0	0	204	624	176	898	2838
123	0	0	1134	625	179	902	2842
124	0	0	2316	624	182	898	2843
125	0	0	3074	623	183	898	2843
126	0	0	3527	622	185	898	2841
127	0	0	3800	620	187	902	2836
0	0	0	3954	618	191	902	2830
1	0	0	4043	617	193	902	2829
2	0	0	4089	617	192	901	2831
3	0	0	4092	616	191	902	2835
4	0	0	3959	609	189	903	2839
5	0	0	2579	609	187	902	2841
6	0	0	1532	611	185	902	2843
7	0	0	923	612	182	902	2844
8	0	0	574	615	180	898	2841
9	0	0	375	617	177	898	2836
10	0	0	264	619	177	902	2831
11	0	0	206	620	176	902	2830
12	0	0	177	621	175	903	2832
13	0	0	164	622	176	902	2834
14	0	0	208	625	178	898	2838
15	0	0	1111	624	179	898	2841
16	0	0	2288	624	181	902	2843
17	0	0	3056	623	184	902	2842
18	0	0	3521	621	185	902	2841
19	0	0	3795	620	189	902	2836
20	0	0	3951	618	190	902	2830
21	0	0	4043	617	192	902	2830
22	0	0	4090	617	191	903	2831
23	0	0	4091	615	192	902	2834
24	0	0	3968	609	190	902	2838
25	0	0	2573	610	188	899	2841
26	0	0	1529	611	185	898	2843
27	0	0	926	613	183	898	2843
28	0	0	573	615	180	902	2841
29	0	0	374	617	177	902	2836
30	0	0	265	618	177	902	2831
31	0	0	207	620	176	901	2830
32	0	0	177	620	176	902	2832
33	0	0	164	622	177	902	2834
34	0	0	191	626	178	902	2838
35	0	0	1098	625	179	902	2841
36	0	0	2293	624	181	901	2843
37	0	0	3059	623	185	903	2843
38	0	0	3518	622	185	902	2841
39	0	0	3794	620	189	902	2836
40	0	0	3952	618	191	902	2830
41	0	0	4041	617	192	902	2830
42	0	0	4088	616	192	902	2831
43	0	0	4091	617	192	898	2835
44	0	0	3971	610	189	899	2839
45	0	0	2577	610	187	898	2841
46	0	0	1522	611	185	903	2844
47	0	0	922	613	183	902	2843
48	0	0	574	615	181	902	2841
49	0	0	374	617	179	902	2836
50	0	0	264	618	177	902	2831
51	0	0	207	620	177	902	2830
52	0	0	178	621	176	902	2831
53	0	0	164	621	176	902	2834
54	0	0	197	625	177	901	2838
55	0	0	1097	626	180	901	2842
56	0	0	2276	624	181	898	2843
57	0	0	3056	622	183	902	2844
58	0	0	3517	622	184	902	2840
59	0	0	3791	620	188	902	2836
60	0	0	3951	618	192	902	2831
61	0	0	4040	617	191	898	2830
62	0	0	4089	616	192	898	2832
63	0	0	4092	616	191	898	2834
64	0	0	4008	609	190	902	2838
65	0	0	2589	610	187	902	2841
66	0	0	1537	612	184	902	2843
67	0	0	932	613	183	902	2843
68	0	0	577	615	181	902	2841
69	0	0	377	617	179	902	2836
70	0	0	266	619	177	903	2831
71	0	0	208	620	176	902	2830
72	0	0	177	621	176	899	2832
73	0	0	165	621	176	898	2834
74	0	0	183	625	177	897	2838
75	0	0	1080	625	179	902	2841
76	0	0	2259	624	180	902	2843
77	0	0	3038	623	184	902	2843
78	0	0	3507	621	186	902	2841
79	0	0	3788	620	188	898	2836
80	0	0	3948	618	191	902	2830
81	0	0	4038	616	191	902	2829
82	0	0	4088	617	193	902	2831
83	0	0	4091	616	192	902	2834
84	0	0	4091	610	189	902	2838
85	0	0	2640	610	187	902	2841
86	0	0	1556	611	184	902	2843
87	0	0	942	613	183	902	2843
88	0	0	586	615	180	902	2841
89	0	0	382	617	179	902	2837
90	0	0	268	618	177	898	2831
91	0	0	209	620	177	898	2830
92	0	0	178	621	176	898	2831
93	0	0	164	621	175	902	2834
94	0	0	191	625	178	902	2838
95	0	0	1105	624	180	902	2841
96	0	0	2294	624	180	901	2843
97	0	0	3066	623	184	902	2842
98	0	0	3523	621	185	902	2840
99	0	0	3795	621	187	902	2835
100	0	0	3952	618	191	902	2830
101	0	0	4041	617	192	901	2829
102	0	0	4089	617	193	902	2831
103	0	0	4092	616	194	902	2834
104	0	0	3974	610	190	902	2838
105	0	0	2605	610	187	902	2842
106	0	0	1547	611	185	902	2843
107	0	0	937	613	182	902	2844
108	0	0	579	615	183	898	2841
109	0	0	378	616	179	898	2836
110	0	0	267	618	177	902	2831
111	0	0	208	620	176	902	2830
112	0	0	178	621	175	903	2831
113	0	0	164	621	176	902	2834
114	0	0	180	625	177	902	2838
115	0	0	1082	623	179	902	2840
116	0	0	2286	623	181	901	2842
117	0	0	3055	622	183	902	2842
118	0	0	3516	621	185	901	2841
119	0	0	3794	621	187	902	2836
120	0	0	3951	618	191	902	2830
121	0	0	4042	617	192	902	2830
122	0	0	4087	617	192	902	2831
123	0	0	4091	616	192	898	2834
124	0	0	4091	610	190	898	2838
125	0	0	2633	610	188	899	2841
126	0	0	1553	612	186	902	2843
127	0	0	940	613	182	902	2843
0	0	0	585	615	180	902	2841
1	0	0	381	616	179	902	2836
2	0	0	268	618	177	902	2831
3	0	0	208	620	176	902	2830
4	0	0	177	621	175	902	2832
5	0	0	165	622	177	902	2834
6	0	0	168	625	178	902	2838
7	0	0	1068	624	179	902	2841
8	0	0	2264	624	182	898	2843
9	0	0	3049	623	183	901	2842
10	0	0	3512	622	186	902	2840
11	0	0	3788	620	189	902	2835
12	0	0	3948	617	192	902	2830
13	0	0	4039	617	192	898	2829
14	0	0	4087	617	193	898	2831
15	0	0	4091	616	192	898	2834
16	0	0	4091	609	189	903	2837
17	0	0	2626	609	187	902	2840
18	0	0	1558	611	185	902	2843
19	0	0	943	614	182	902	2842
20	0	0	584	615	180	902	2840
21	0	0	380	617	179	903	2835
22	0	0	268	618	177	903	2831
23	0	0	208	619	175	902	2829
24	0	0	177	621	177	898	2832
25	0	0	164	622	175	898	2834
26	0	0	176	625	178	898	2838
27	0	0	1083	625	178	902	2842
28	0	0	2273	624	181	902	2843
29	0	0	3047	622	183	902	2842
30	0	0	3511	621	186	902	2841
31	0	0	3792	621	188	898	2836
32	0	0	3949	617	191	902	2830
33	0	0	4039	617	192	902	2829
34	0	0	4088	617	194	902	2830
35	0	0	4091	616	192	902	2834
36	0	0	4091	610	189	902	2837
37	0	0	2639	609	188	902	2841
38	0	0	1556	611	184	902	2843
39	0	0	943	613	183	902	2842
40	0	0	585	614	180	902	2841
41	0	0	381	617	179	902	2836
42	0	0	267	618	177	898	2831
43	0	0	208	620	176	898	2830
44	0	0	177	621	176	898	2831
45	0	0	165	621	176	902	2835
46	0	0	160	625	179	902	2838
47	0	0	1029	624	178	901	2841
48	0	0	2216	624	181	901	2842
49	0	0	3020	624	185	902	2842
50	0	0	3495	622	185	902	2840
51	0	0	3779	620	188	902	2835
52	0	0	3945	619	191	902	2831
53	0	0	4035	617	192	902	2828
54	0	0	4086	616	192	902	2830
55	0	0	4091	616	192	901	2834
56	0	0	4091	610	190	902	2837
57	0	0	2646	609	187	902	2841
58	0	0	1572	611	186	903	2843
59	0	0	951	612	184	902	2843
60	0	0	588	615	180	898	2841
61	0	0	383	617	179	898	2836
62	0	0	269	618	175	898	2831
63	0	0	208	619	177	902	2830
64	0	0	177	621	177	902	2832
65	0	0	165	621	178	901	2834
66	0	0	160	625	178	901	2837
67	0	0	1045	624	179	902	2841
68	0	0	2226	624	182	902	2842
69	0	0	3020	623	183	902	2842
70	0	0	3495	622	186	902	2840
71	0	0	3781	620	188	902	2835
72	0	0	3944	618	190	898	2830
73	0	0	4036	617	192	898	2829
74	0	0	4087	616	193	902	2831
75	0	0	4092	616	192	902	2834
76	0	0	4091	609	189	902	2838
77	0	0	2669	610	187	902	2841
78	0	0	1574	611	185	899	2843
79	0	0	952	614	182	898	2842
80	0	0	591	615	180	902	2841
81	0	0	385	616	179	902	2836
82	0	0	270	618	177	902	2831
83	0	0	210	619	177	902	2829
84	0	0	179	621	176	901	2831
85	0	0	164	622	176	902	2834
86	0	0	161	625	175	902	2838
87	0	0	1052	624	179	902	2841
88	0	0	2251	624	182	902	2843
89	0	0	3041	623	182	898	2842
90	0	0	3507	622	186	898	2841
91	0	0	3786	620	189	898	2836
92	0	0	3950	618	191	903	2831
93	0	0	4039	617	191	902	2829
94	0	0	4087	616	192	902	2831
95	0	0	4091	616	192	902	2834
96	0	0	4091	609	189	902	2838
97	0	0	2658	609	187	902	2841
98	0	0	1576	611	184	902	2842
99	0	0	955	612	183	901	2842
100	0	0	589	615	180	902	2841
101	0	0	384	616	179	902	2836
102	0	0	270	618	176	902	2830
103	0	0	210	620	175	902	2829
104	0	0	178	621	176	898	2831
105	0	0	165	621	177	898	2834
106	0	0	160	625	179	898	2837
107	0	0	1022	624	178	902	2841
108	0	0	2205	624	181	902	2842
109	0	0	3006	623	182	902	2843
110	0	0	3489	622	185	901	2841
111	0	0	3776	621	189	898	2836
112	0	0	3943	618	191	902	2830
113	0	0	4035	617	192	902	2829
114	0	0	4086	617	192	902	2831
115	0	0	4092	615	192	901	2833
116	0	0	4091	608	191	902	2837
117	0	0	2709	610	187	902	2841
118	0	0	1594	611	185	902	2842
119	0	0	965	613	183	902	2842
120	0	0	599	615	181	902	2841
121	0	0	390	617	178	902	2836
122	0	0	272	618	177	898	2831
123	0	0	211	619	176	898	2829
124	0	0	180	620	177	898	2831
125	0	0	164	621	176	901	2834
126	0	0	160	624	178	902	2838
127	0	0	1003	624	179	902	2841
0	0	0	2195	623	181	901	2842
1	0	0	3008	623	184	902	2842
2	0	0	3488	621	185	902	2840
3	0	0	3775	620	188	902	2835
4	0	0	3940	618	192	902	2830
5	0	0	4036	617	192	902	2828
6	0	0	4086	616	192	902	2831
7	0	0	4092	616	192	901	2833
8	0	0	4091	609	191	902	2837
9	0	0	2689	609	188	902	2841
10	0	0	1594	611	186	902	2842
11	0	0	964	612	183	902	2843
12	0	0	596	615	181	898	2841
13	0	0	387	616	179	898	2836
14	0	0	272	617	177	898	2831
15	0	0	210	619	176	902	2829
16	0	0	179	621	176	902	2831
17	0	0	165	621	175	902	2834
18	0	0	161	625	178	902	2838
19	0	0	1016	624	178	902	2841
20	0	0	2200	623	181	902	2842
21	0	0	3004	622	182	902	2842
22	0	0	3485	622	185	902	2841
23	0	0	3776	620	185	902	2836
24	0	0	3941	618	190	898	2830
25	0	0	4035	617	191	898	2829
26	0	0	4086	615	193	901	2830
27	0	0	4091	616	191	902	2834
28	0	0	4092	609	190	902	2838
29	0	0	2711	609	188	902	2841
30	0	0	1597	610	185	898	2842
31	0	0	967	612	182	898	2843
32	0	0	599	615	181	903	2841
33	0	0	390	616	180	902	2836
34	0	0	272	618	177	902	2831
35	0	0	210	619	176	902	2830
36	0	0	179	620	176	902	2831
37	0	0	165	621	177	901	2834
38	0	0	161	625	176	902	2838
39	0	0	984	624	178	902	2841
40	0	0	2170	624	181	902	2843
41	0	0	2992	623	184	898	2842
42	0	0	3479	622	185	898	2840
43	0	0	3770	620	188	898	2836
44	0	0	3940	618	190	902	2831
45	0	0	4033	616	192	902	2829
46	0	0	4086	616	193	902	2831
47	0	0	4091	616	193	902	2834
48	0	0	4092	609	190	903	2838
49	0	0	2704	609	188	902	2841
50	0	0	1602	611	185	902	2842
51	0	0	970	612	183	902	2843
52	0	0	599	614	180	903	2841
53	0	0	390	616	180	902	2836
54	0	0	274	617	177	902	2831
55	0	0	211	619	176	902	2829
56	0	0	180	621	175	902	2831
57	0	0	166	621	177	903	2834
58	0	0	161	625	178	902	2838
59	0	0	1018	624	178	898	2841
60	0	0	2214	623	181	897	2842
61	0	0	3013	623	183	898	2843
62	0	0	3497	621	186	902	2841
63	0	0	3780	620	186	902	2836
64	0	0	3943	618	190	902	2831
65	0	0	4038	617	192	902	2830
66	0	0	4088	615	193	902	2831
67	0	0	4091	616	192	902	2834
68	0	0	4092	608	189	902	2837
69	0	0	2726	609	187	902	2841
70	0	0	1605	611	185	902	2843
71	0	0	970	612	182	902	2843
72	0	0	602	614	181	899	2841
73	0	0	390	616	180	902	2837
74	0	0	274	618	176	902	2831
75	0	0	212	619	176	902	2829
76	0	0	180	621	175	902	2832
77	0	0	165	621	177	897	2834
78	0	0	160	625	178	897	2838
79	0	0	1012	624	179	898	2841
80	0	0	2209	623	180	902	2842
81	0	0	3016	622	184	899	2842
82	0	0	3491	621	187	902	2841
83	0	0	3780	620	188	902	2836
84	0	0	3943	618	191	902	2831
85	0	0	4036	616	192	901	2829
86	0	0	4087	616	192	902	2831
87	0	0	4091	615	192	902	2833
88	0	0	4091	609	189	902	2837
89	0	0	2743	609	187	903	2841
90	0	0	1614	610	184	898	2843
91	0	0	976	612	183	898	2843
92	0	0	605	613	181	898	2841
93	0	0	391	616	180	902	2836
94	0	0	274	618	178	902	2831
95	0	0	212	619	176	901	2829
96	0	0	180	620	174	902	2832
97	0	0	165	621	177	902	2834
98	0	0	160	628	178	901	2838
99	0	0	970	624	178	902	2841
100	0	0	2162	623	181	902	2843
101	0	0	2989	623	183	902	2843
102	0	0	3477	621	185	902	2841
103	0	0	3768	620	188	901	2836
104	0	0	3940	618	192	902	2831
105	0	0	4033	617	193	902	2829
106	0	0	4085	616	192	902	2831
107	0	0	4092	616	192	902	2833
108	0	0	4092	609	190	898	2838
109	0	0	2754	609	187	899	2841
110	0	0	1630	610	186	898	2843
111	0	0	979	612	184	902	2843
112	0	0	606	615	181	902	2841
113	0	0	394	616	179	902	2837
114	0	0	276	617	177	902	2831
115	0	0	212	621	176	902	2829
116	0	0	180	620	175	902	2831
117	0	0	166	620	176	902	2834
118	0	0	160	625	178	902	2838
119	0	0	976	624	180	902	2841
120	0	0	2164	623	180	898	2843
121	0	0	2982	622	184	898	2844
122	0	0	3478	622	186	902	2841
123	0	0	3768	620	187	902	2836
124	0	0	3938	618	191	902	2831
125	0	0	4033	616	193	902	2829
126	0	0	4084	615	194	898	2830
127	0	0	4091	616	193	898	2834
0	0	0	4093	609	190	903	2837
1	0	0	2752	609	187	903	2841
2	0	0	1619	611	185	902	2842
3	0	0	979	612	182	902	2843
4	0	0	608	613	181	901	2841
5	0	0	393	615	180	902	2836
6	0	0	275	617	178	902	2831
7	0	0	213	619	177	902	2829
8	0	0	180	620	176	902	2832
9	0	0	166	621	176	898	2834
10	0	0	161	629	177	898	2837
11	0	0	967	624	179	898	2841
12	0	0	2157	624	180	902	2842
13	0	0	2978	622	182	902	2843
14	0	0	3469	621	185	902	2840
15	0	0	3764	620	188	902	2836
16	0	0	3935	617	191	902	2830
17	0	0	4032	617	192	902	2829
18	0	0	4084	616	192	902	2830
19	0	0	4091	615	193	902	2833
20	0	0	4091	609	189	902	2837
21	0	0	2737	609	188	902	2841
22	0	0	1621	610	185	902	2842
23	0	0	975	613	183	902	2843
24	0	0	604	614	181	902	2841
25	0	0	393	616	179	902	2837
26	0	0	275	618	175	902	2831
27	0	0	213	619	177	898	2830
28	0	0	180	622	176	898	2831
29	0	0	166	621	177	898	2834
30	0	0	161	625	178	902	2837
31	0	0	973	625	179	902	2841
32	0	0	2171	623	181	901	2842
33	0	0	2986	622	183	901	2842
34	0	0	3479	621	184	902	2841
35	0	0	3770	620	188	902	2836
36	0	0	3938	617	189	902	2831
37	0	0	4036	618	191	902	2829
38	0	0	4085	616	192	902	2830
39	0	0	4091	615	193	902	2833
40	0	0	4091	609	190	898	2837
41	0	0	2773	609	189	902	2841
42	0	0	1642	611	185	902	2843
43	0	0	992	612	182	902	2844
44	0	0	615	614	179	903	2841
45	0	0	397	616	179	898	2837
46	0	0	277	617	177	898	2832
47	0	0	214	619	176	898	2829
48	0	0	182	620	176	902	2831
49	0	0	167	621	175	902	2833
50	0	0	161	624	178	901	2837
51	0	0	971	624	179	902	2841
52	0	0	2182	623	181	902	2843
53	0	0	2993	622	183	902	2842
54	0	0	3479	621	185	902	2841
55	0	0	3769	620	187	902	2836
56	0	0	3941	618	190	898	2831
57	0	0	4033	615	193	898	2829
58	0	0	4085	616	191	898	2831
59	0	0	4091	615	191	902	2834
60	0	0	4092	609	190	902	2837
61	0	0	2784	608	187	903	2841
62	0	0	1649	611	186	902	2842
63	0	0	990	612	183	898	2843
64	0	0	614	613	181	902	2841
65	0	0	398	616	180	902	2836
66	0	0	278	617	179	902	2831
67	0	0	213	619	176	901	2830
68	0	0	181	619	175	902	2832
69	0	0	165	621	176	903	2834
70	0	0	160	621	178	901	2838
71	0	0	945	624	179	902	2841
72	0	0	2147	623	180	902	2843
73	0	0	2972	623	183	902	2843
74	0	0	3471	621	185	902	2841
75	0	0	3764	620	189	902	2837
76	0	0	3935	617	192	902	2831
77	0	0	4032	617	193	902	2829
78	0	0	4084	615	191	903	2831
79	0	0	4092	616	191	903	2834
80	0	0	4092	609	191	902	2837
81	0	0	2785	609	187	902	2841
82	0	0	1649	610	186	902	2842
83	0	0	996	612	182	902	2843
84	0	0	614	614	180	902	2841
85	0	0	398	615	180	902	2837
86	0	0	278	617	179	902	2831
87	0	0	214	619	176	902	2830
88	0	0	181	620	176	903	2831
89	0	0	166	620	177	903	2834
90	0	0	161	620	178	903	2838
91	0	0	950	624	179	902	2841
92	0	0	2159	623	181	902	2844
93	0	0	2980	622	183	902	2842
94	0	0	3470	621	185	902	2841
95	0	0	3767	620	188	902	2836
96	0	0	3938	618	191	903	2831
97	0	0	4032	616	192	902	2829
98	0	0	4084	615	192	902	2831
99	0	0	4093	615	192	902	2833
100	0	0	4092	609	190	902	2837
101	0	0	2813	609	188	902	2841
102	0	0	1653	610	185	902	2843
103	0	0	998	612	182	902	2843
104	0	0	618	614	180	902	2842
105	0	0	400	615	178	902	2837
106	0	0	278	617	177	903	2831
107	0	0	214	619	176	903	2830
108	0	0	182	620	176	902	2831
109	0	0	166	620	177	903	2835
110	0	0	161	621	177	902	2838
111	0	0	935	624	180	902	2841
112	0	0	2118	623	181	902	2842
113	0	0	2962	622	182	902	2843
114	0	0	3460	621	186	902	2841
115	0	0	3759	620	188	902	2837
116	0	0	3932	617	189	902	2831
117	0	0	4032	616	191	902	2830
118	0	0	4085	615	192	902	2831
119	0	0	4091	615	192	901	2834
120	0	0	4092	609	191	903	2837
121	0	0	2823	609	189	903	2841
122	0	0	1669	610	185	902	2843
123	0	0	1008	612	182	902	2843
124	0	0	621	613	181	903	2841
125	0	0	402	615	179	903	2837
126	0	0	280	617	177	903	2832
127	0	0	215	619	176	902	2830
0	0	0	182	620	177	902	2832
1	0	0	166	621	176	902	2834
2	0	0	160	621	177	902	2837
3	0	0	935	624	179	902	2841
4	0	0	2110	623	180	902	2843
5	0	0	2951	622	183	902	2843
6	0	0	3455	621	185	902	2841
7	0	0	3757	620	187	902	2837
8	0	0	3931	617	191	903	2831
9	0	0	4031	616	192	903	2830
10	0	0	4085	617	192	903	2831
11	0	0	4092	615	192	902	2834
12	0	0	4092	609	190	902	2838
13	0	0	2830	609	187	902	2841
14	0	0	1664	611	185	903	2843
15	0	0	1005	611	182	903	2843
16	0	0	622	613	182	902	2841
17	0	0	403	616	178	902	2837
18	0	0	279	618	178	902	2831
19	0	0	215	618	177	902	2829
20	0	0	182	620	177	902	2831
21	0	0	166	620	177	902	2834
22	0	0	161	621	177	902	2837
23	0	0	926	624	177	902	2841
24	0	0	2122	623	181	902	2842
25	0	0	2964	622	184	902	2843
26	0	0	3462	621	186	902	2841
27	0	0	3760	620	188	902	2837
28	0	0	3932	617	190	903	2831
29	0	0	4031	616	193	902	2829
30	0	0	4084	615	192	902	2831
31	0	0	4091	615	193	902	2833
32	0	0	4092	608	190	902	2837
33	0	0	2834	609	187	902	2841
34	0	0	1677	610	186	902	2843
35	0	0	1013	611	183	902	2843
36	0	0	624	614	180	902	2842
37	0	0	404	615	179	902	2838
38	0	0	280	618	178	902	2831
39	0	0	215	619	176	902	2830
40	0	0	182	619	174	902	2831
41	0	0	166	621	176	902	2834
42	0	0	161	621	177	902	2838
43	0	0	933	624	179	902	2841
44	0	0	2137	623	180	903	2844
45	0	0	2967	621	182	902	2843
46	0	0	3463	621	187	903	2842
47	0	0	3763	619	187	902	2838
48	0	0	3934	617	191	902	2831
49	0	0	4031	615	192	902	2829
50	0	0	4085	615	192	902	2832
51	0	0	4093	614	193	902	2833
52	0	0	4092	610	189	902	2837
53	0	0	2853	609	188	902	2841
54	0	0	1678	610	186	902	2843
55	0	0	1013	612	183	902	2843
56	0	0	628	614	181	903	2842
57	0	0	405	615	179	903	2837
58	0	0	280	617	176	902	2832
59	0	0	215	619	176	902	2830
60	0	0	182	619	175	902	2831
61	0	0	168	621	177	902	2834
62	0	0	160	621	177	902	2838
63	0	0	916	624	179	903	2842
64	0	0	2118	622	181	902	2843
65	0	0	2962	621	182	902	2843
66	0	0	3461	621	186	902	2841
67	0	0	3759	619	187	902	2837
68	0	0	3932	617	190	902	2831
69	0	0	4030	615	192	902	2829
70	0	0	4084	615	192	902	2831
71	0	0	4092	614	190	902	2834
72	0	0	4092	609	190	903	2837
73	0	0	2828	609	187	903	2841
74	0	0	1672	610	186	903	2843
75	0	0	1010	612	182	903	2843
76	0	0	622	614	181	902	2842
77	0	0	402	615	179	902	2838
78	0	0	280	617	178	902	2832
79	0	0	214	619	177	903	2831
80	0	0	182	620	176	902	2831
81	0	0	167	620	177	902	2834
82	0	0	160	621	178	902	2838
83	0	0	907	624	179	901	2841
84	0	0	2091	622	181	901	2843
85	0	0	2938	622	183	902	2843
86	0	0	3450	621	185	902	2841
87	0	0	3753	619	187	902	2837
88	0	0	3928	617	190	902	2831
89	0	0	4026	616	191	902	2829
90	0	0	4083	616	191	903	2831
91	0	0	4092	614	193	903	2833
92	0	0	4092	607	191	902	2838
93	0	0	2863	608	187	903	2841
94	0	0	1683	610	185	902	2844
95	0	0	1016	610	182	902	2843
96	0	0	629	613	179	902	2842
97	0	0	403	615	179	902	2838
98	0	0	281	617	177	902	2832
99	0	0	216	618	175	902	2830
100	0	0	182	619	176	902	2832
101	0	0	166	620	175	903	2834
102	0	0	160	621	178	902	2838
103	0	0	887	624	178	901	2841
104	0	0	2067	623	181	902	2843
105	0	0	2933	622	183	902	2843
106	0	0	3442	620	185	902	2841
107	0	0	3748	619	188	902	2838
108	0	0	3926	617	191	902	2831
109	0	0	4027	616	191	903	2830
110	0	0	4081	615	193	902	2831
111	0	0	4091	615	192	903	2834
112	0	0	4092	603	190	902	2838
113	0	0	2878	609	187	902	2841
114	0	0	1701	610	186	902	2843
115	0	0	1021	611	182	902	2843
116	0	0	632	613	181	902	2842
117	0	0	408	616	178	902	2838
118	0	0	283	617	176	902	2832
119	0	0	216	619	175	902	2830
120	0	0	182	619	176	902	2831
121	0	0	166	620	176	903	2835
122	0	0	161	620	177	903	2838
123	0	0	915	623	179	902	2841
124	0	0	2110	623	181	901	2843
125	0	0	2950	622	182	902	2844
126	0	0	3459	620	185	903	2842
127	0	0	3756	619	186	904	2837
0	0	0	3929	617	189	902	2831
1	0	0	4028	616	192	902	2829
2	0	0	4084	615	192	902	2831
3	0	0	4092	614	190	902	2834
4	0	0	4092	609	189	901	2838
5	0	0	2853	608	188	902	2841
6	0	0	1690	610	186	903	2843
7	0	0	1021	611	183	902	2843
8	0	0	631	613	181	902	2842
9	0	0	405	615	179	904	2838
10	0	0	281	617	177	903	2832
11	0	0	216	619	177	902	2830
12	0	0	181	619	176	902	2831
13	0	0	166	620	176	902	2834
14	0	0	160	620	177	903	2838
15	0	0	861	624	178	902	2842
16	0	0	2054	623	180	902	2843
17	0	0	2917	622	182	902	2843
18	0	0	3434	620	185	902	2842
19	0	0	3743	619	188	902	2838
20	0	0	3923	617	190	902	2831
21	0	0	4028	616	192	902	2829
22	0	0	4080	615	191	902	2831
23	0	0	4091	615	192	902	2834
24	0	0	4092	606	191	903	2837
25	0	0	2906	609	187	902	2841
26	0	0	1720	610	185	902	2843
27	0	0	1033	611	184	903	2844
28	0	0	638	613	180	903	2842
29	0	0	412	615	177	903	2838
30	0	0	285	617	177	903	2832
31	0	0	217	619	176	902	2830
32	0	0	183	621	176	902	2831
33	0	0	167	619	177	902	2835
34	0	0	161	621	176	902	2838
35	0	0	887	623	178	902	2841
36	0	0	2086	622	181	902	2843
37	0	0	2935	621	184	902	2843
38	0	0	3449	621	185	902	2842
39	0	0	3751	619	188	903	2838
40	0	0	3928	617	189	903	2831
41	0	0	4028	616	192	903	2829
42	0	0	4083	614	192	902	2831
43	0	0	4093	614	191	903	2834
44	0	0	4092	610	190	903	2837
45	0	0	2899	607	189	903	2841
46	0	0	1715	609	185	903	2843
47	0	0	1035	611	183	903	2844
48	0	0	639	613	181	902	2842
49	0	0	410	615	179	901	2838
50	0	0	284	616	177	902	2832
51	0	0	217	619	176	902	2830
52	0	0	182	621	174	902	2831
53	0	0	166	619	177	902	2834
54	0	0	160	621	177	902	2838
55	0	0	882	623	177	902	2841
56	0	0	2088	622	181	902	2843
57	0	0	2937	622	183	903	2844
58	0	0	3447	621	185	904	2842
59	0	0	3749	619	188	903	2837
60	0	0	3928	617	190	902	2831
61	0	0	4027	616	192	902	2829
62	0	0	4083	615	192	902	2831
63	0	0	4091	614	192	903	2833
64	0	0	4092	605	189	901	2838
65	0	0	2918	608	185	902	2841
66	0	0	1727	610	185	903	2844
67	0	0	1036	612	183	902	2843
68	0	0	640	613	181	902	2842
69	0	0	412	615	179	902	2838
70	0	0	284	617	176	902	2832
71	0	0	217	618	177	902	2830
72	0	0	182	619	175	902	2832
73	0	0	167	619	176	902	2834
74	0	0	160	621	178	902	2838
75	0	0	850	624	179	902	2841
76	0	0	2035	623	180	902	2843
77	0	0	2907	621	182	902	2843
78	0	0	3432	620	186	902	2842
79	0	0	3742	619	187	902	2838
80	0	0	3921	617	189	902	2832
81	0	0	4025	615	191	902	2829
82	0	0	4080	615	192	902	2831
83	0	0	4092	614	192	902	2834
84	0	0	4091	613	189	903	2838
85	0	0	2910	608	188	902	2841
86	0	0	1720	610	185	902	2843
87	0	0	1039	611	184	903	2844
88	0	0	641	613	181	903	2842
89	0	0	411	615	179	902	2838
90	0	0	285	617	177	902	2832
91	0	0	218	618	177	902	2830
92	0	0	182	619	176	903	2832
93	0	0	166	621	176	903	2834
94	0	0	160	621	177	903	2838
95	0	0	846	624	178	903	2841
96	0	0	2032	622	180	902	2843
97	0	0	2904	622	184	902	2844
98	0	0	3425	620	185	902	2842
99	0	0	3740	619	187	902	2837
100	0	0	3920	617	190	902	2832
101	0	0	4023	616	192	902	2829
102	0	0	4080	615	191	902	2831
103	0	0	4092	615	193	901	2834
104	0	0	4091	611	190	903	2837
105	0	0	2920	608	188	903	2841
106	0	0	1725	610	185	903	2843
107	0	0	1036	611	183	902	2843
108	0	0	640	612	181	902	2842
109	0	0	412	615	179	902	2838
110	0	0	284	618	177	903	2832
111	0	0	217	619	176	902	2830
112	0	0	183	620	176	902	2832
113	0	0	166	620	175	902	2835
114	0	0	161	621	177	902	2838
115	0	0	882	623	178	902	2842
116	0	0	2058	622	181	902	2843
117	0	0	2927	622	183	903	2844
118	0	0	3441	621	185	902	2842
119	0	0	3746	620	187	902	2838
120	0	0	3924	618	190	903	2832
121	0	0	4028	616	191	903	2830
122	0	0	4083	617	193	902	2831
123	0	0	4091	615	192	903	2834
124	0	0	4092	615	190	903	2837
125	0	0	2938	609	188	902	2841
126	0	0	1738	610	186	902	2843
127	0	0	1049	612	183	902	2844
0	0	0	644	613	180	902	2842
1	0	0	415	615	180	902	2838
2	0	0	286	617	177	902	2832
3	0	0	218	619	176	902	2830
4	0	0	183	620	177	902	2831
5	0	0	167	620	176	902	2834
6	0	0	161	622	177	902	2838
7	0	0	849	624	178	902	2841
8	0	0	2049	624	181	902	2844
9	0	0	2915	624	182	902	2843
10	0	0	3431	620	186	902	2842
11	0	0	3745	621	187	903	2838
12	0	0	3922	618	188	902	2831
13	0	0	4026	616	192	903	2830
14	0	0	4082	616	191	903	2831
15	0	0	4092	614	192	902	2833
16	0	0	4092	614	190	902	2838
17	0	0	2939	609	188	902	2841
18	0	0	1729	611	185	902	2843
19	0	0	1044	612	183	902	2843
20	0	0	644	613	181	902	2843
21	0	0	415	616	179	903	2839
22	0	0	286	618	176	902	2832
23	0	0	218	620	177	902	2830
24	0	0	183	621	175	902	2831
25	0	0	168	622	177	903	2834
26	0	0	159	622	177	903	2837
27	0	0	848	625	179	902	2841
28	0	0	2057	624	181	901	2843
29	0	0	2919	623	182	902	2843
30	0	0	3435	622	185	902	2842
31	0	0	3746	621	187	903	2838
32	0	0	3923	619	190	902	2831
33	0	0	4026	618	191	902	2829
34	0	0	4080	617	190	902	2831
35	0	0	4091	616	193	902	2833
36	0	0	4092	617	190	902	2838
37	0	0	2957	610	187	902	2841
38	0	0	1740	612	186	902	2843
39	0	0	1050	613	183	902	2844
40	0	0	648	615	180	902	2842
41	0	0	417	617	178	902	2838
42	0	0	287	620	177	903	2832
43	0	0	218	621	176	903	2831
44	0	0	183	623	176	902	2831
45	0	0	166	623	177	902	2834
46	0	0	160	623	176	902	2838
47	0	0	824	626	178	902	2841
48	0	0	2012	625	179	901	2843
49	0	0	2900	624	183	902	2844
50	0	0	3424	623	185	902	2842
51	0	0	3736	623	187	902	2838
52	0	0	3917	620	190	902	2832
53	0	0	4023	618	192	901	2829
54	0	0	4079	618	192	901	2831
55	0	0	4092	618	191	902	2833
56	0	0	4091	618	190	904	2837
57	0	0	2954	611	188	902	2841
58	0	0	1745	612	185	902	2843
59	0	0	1054	614	183	902	2843
60	0	0	647	615	181	903	2842
61	0	0	415	618	179	903	2838
62	0	0	288	620	177	903	2832
63	0	0	218	622	176	903	2831
64	0	0	183	623	177	902	2831
65	0	0	166	623	176	902	2834
66	0	0	160	624	178	901	2838
67	0	0	831	626	178	902	2841
68	0	0	2001	626	181	902	2843
69	0	0	2885	625	181	902	2844
70	0	0	3415	624	185	902	2843
71	0	0	3731	623	187	902	2838
72	0	0	3916	621	190	903	2832
73	0	0	4021	619	192	902	2830
74	0	0	4078	618	193	902	2831
75	0	0	4092	618	192	902	2834
76	0	0	4091	618	191	902	2837
77	0	0	2967	611	188	902	2841
78	0	0	1743	613	186	903	2843
79	0	0	1052	614	183	903	2843
80	0	0	649	616	180	902	2842
81	0	0	418	619	179	903	2838
82	0	0	287	620	177	902	2832
83	0	0	218	622	177	902	2831
84	0	0	185	623	175	902	2831
85	0	0	167	624	176	902	2834
86	0	0	161	624	177	902	2838
87	0	0	813	628	179	902	2841
88	0	0	1979	627	181	902	2844
89	0	0	2882	627	183	902	2843
90	0	0	3412	625	186	902	2842
91	0	0	3730	623	187	903	2838
92	0	0	3915	621	190	902	2832
93	0	0	4022	620	192	901	2830
94	0	0	4079	619	192	902	2831
95	0	0	4092	619	193	902	2834
96	0	0	4091	619	189	902	2837
97	0	0	2989	612	187	902	2841
98	0	0	1767	613	186	902	2843
99	0	0	1067	615	183	902	2843
100	0	0	653	618	181	902	2842
101	0	0	421	619	179	902	2839
102	0	0	290	621	177	901	2832
103	0	0	219	622	176	902	2831
104	0	0	184	624	177	902	2831
105	0	0	167	625	177	902	2834
106	0	0	161	624	177	902	2837
107	0	0	827	628	178	902	2841
108	0	0	1993	627	181	902	2843
109	0	0	2881	627	183	902	2844
110	0	0	3413	625	184	903	2842
111	0	0	3734	623	188	902	2838
112	0	0	3916	622	190	902	2832
113	0	0	4022	620	191	902	2830
114	0	0	4081	619	192	901	2831
115	0	0	4091	619	193	902	2833
116	0	0	4091	619	190	903	2837
117	0	0	2972	612	188	902	2840
118	0	0	1747	614	186	902	2843
119	0	0	1055	615	184	902	2843
120	0	0	650	617	181	903	2842
121	0	0	418	619	180	903	2838
122	0	0	288	621	177	902	2832
123	0	0	219	622	177	902	2830
124	0	0	184	624	176	902	2831
125	0	0	167	625	175	903	2834
126	0	0	161	625	176	902	2837
127	0	0	804	628	178	903	2841
0	0	0	1983	627	181	902	2843
1	0	0	2883	627	184	901	2844
2	0	0	3415	625	185	901	2842
3	0	0	3730	624	188	902	2838
4	0	0	3916	622	189	902	2832
5	0	0	4020	620	192	902	2829
6	0	0	4078	620	192	902	2831
7	0	0	4092	619	193	902	2834
8	0	0	4093	620	189	903	2838
9	0	0	3004	613	189	903	2841
10	0	0	1783	615	185	902	2844
11	0	0	1075	616	183	902	2844
12	0	0	659	618	181	903	2842
13	0	0	423	619	179	903	2839
14	0	0	291	622	177	903	2832
15	0	0	222	623	176	903	2830
16	0	0	186	624	175	902	2831
17	0	0	168	625	177	901	2834
18	0	0	162	626	177	901	2837
19	0	0	813	629	178	901	2841
20	0	0	2001	628	181	902	2843
21	0	0	2886	626	183	902	2843
22	0	0	3415	626	184	902	2842
23	0	0	3735	624	187	902	2839
24	0	0	3917	622	189	903	2832
25	0	0	4023	621	192	902	2830
26	0	0	4081	620	193	902	2831
27	0	0	4092	619	191	902	2834
28	0	0	4091	620	189	902	2837
29	0	0	3012	613	189	903	2841
30	0	0	1772	614	185	903	2843
31	0	0	1070	616	184	902	2843
32	0	0	659	618	181	902	2842
33	0	0	423	620	179	902	2838
34	0	0	290	622	177	902	2833
35	0	0	220	623	175	902	2830
36	0	0	185	624	175	902	2831
37	0	0	167	625	176	902	2834
38	0	0	161	626	177	902	2838
39	0	0	814	629	179	902	2841
40	0	0	1974	628	183	901	2843
41	0	0	2878	627	182	902	2843
42	0	0	3410	626	185	903	2842
43	0	0	3728	624	187	903	2838
44	0	0	3913	623	190	903	2832
45	0	0	4021	621	193	902	2830
46	0	0	4079	621	191	902	2831
47	0	0	4092	619	191	903	2834
48	0	0	4091	620	190	903	2837
49	0	0	2992	613	188	903	2841
50	0	0	1770	615	185	902	2843
51	0	0	1068	616	183	902	2844
52	0	0	655	619	180	902	2842
53	0	0	421	620	178	902	2838
54	0	0	291	622	176	902	2833
55	0	0	220	624	176	902	2830
56	0	0	184	625	176	901	2832
57	0	0	168	626	177	902	2835
58	0	0	161	626	177	902	2838
59	0	0	784	629	178	902	2842
60	0	0	1955	628	181	902	2843
61	0	0	2857	627	182	902	2843
62	0	0	3400	627	184	903	2842
63	0	0	3724	624	187	902	2838
64	0	0	3911	623	189	902	2832
65	0	0	4020	622	191	902	2830
66	0	0	4080	622	192	901	2831
67	0	0	4092	621	191	902	2834
68	0	0	4092	620	190	903	2837
69	0	0	3009	613	188	902	2841
70	0	0	1771	615	186	902	2843
71	0	0	1069	617	184	901	2843
72	0	0	659	618	181	903	2842
73	0	0	423	620	178	903	2839
74	0	0	291	622	178	902	2833
75	0	0	221	623	176	902	2830
76	0	0	185	625	176	901	2831
77	0	0	169	626	176	903	2834
78	0	0	161	626	177	901	2838
79	0	0	801	629	179	902	2841
80	0	0	1977	629	181	902	2843
81	0	0	2882	627	183	902	2843
82	0	0	3412	626	184	902	2842
83	0	0	3729	625	187	902	2839
84	0	0	3916	623	190	902	2832
85	0	0	4022	621	191	902	2829
86	0	0	4080	621	193	902	2831
87	0	0	4092	621	192	902	2833
88	0	0	4091	620	190	903	2837
89	0	0	3013	613	188	903	2841
90	0	0	1787	615	186	903	2843
91	0	0	1078	617	184	903	2843
92	0	0	661	620	182	902	2842
93	0	0	425	621	179	902	2839
94	0	0	293	622	178	902	2833
95	0	0	221	623	176	903	2830
96	0	0	185	625	176	901	2832
97	0	0	168	626	176	902	2835
98	0	0	162	626	176	904	2837
99	0	0	792	629	179	901	2841
100	0	0	1975	628	180	901	2843
101	0	0	2870	628	182	902	2844
102	0	0	3412	626	185	902	2843
103	0	0	3728	625	186	902	2839
104	0	0	3916	623	190	902	2833
105	0	0	4020	622	192	901	2830
106	0	0	4078	621	192	903	2831
107	0	0	4091	622	193	902	2834
108	0	0	4091	621	190	903	2837
109	0	0	3052	614	188	902	2841
110	0	0	1803	615	186	902	2844
111	0	0	1087	617	184	902	2844
112	0	0	670	619	181	902	2842
113	0	0	427	621	179	902	2839
114	0	0	294	622	177	902	2833
115	0	0	222	624	176	902	2830
116	0	0	186	625	175	902	2831
117	0	0	168	625	176	902	2835
118	0	0	161	626	176	903	2838
119	0	0	786	629	179	902	2841
120	0	0	1964	630	180	902	2843
121	0	0	2871	627	182	902	2843
122	0	0	3407	627	185	902	2842
123	0	0	3727	625	187	902	2839
124	0	0	3913	623	190	902	2832
125	0	0	4021	622	192	902	2829
126	0	0	4078	621	191	902	2831
127	0	0	4092	620	192	902	2834
0	0	0	4091	621	190	902	2838
1	0	0	3035	614	188	903	2841
2	0	0	1801	616	185	902	2843
3	0	0	1086	617	183	902	2844
4	0	0	665	620	180	902	2842
5	0	0	427	620	178	902	2839
6	0	0	294	622	178	901	2833
7	0	0	222	624	177	902	2830
8	0	0	185	625	176	902	2831
9	0	0	168	626	176	902	2834
10	0	0	161	626	177	902	2838
11	0	0	767	629	178	902	2841
12	0	0	1951	629	180	902	2843
13	0	0	2857	628	182	902	2843
14	0	0	3398	626	185	903	2843
15	0	0	3724	625	186	902	2839
16	0	0	3913	624	191	902	2833
17	0	0	4018	622	192	901	2830
18	0	0	4077	621	192	902	2831
19	0	0	4092	621	192	902	2834
20	0	0	4093	621	190	902	2838
21	0	0	3063	613	189	902	2841
22	0	0	1807	616	185	902	2843
23	0	0	1089	617	183	902	2844
24	0	0	671	618	180	903	2843
25	0	0	429	620	179	903	2839
26	0	0	294	623	177	902	2832
27	0	0	223	625	176	902	2830
28	0	0	185	625	177	901	2831
29	0	0	168	627	175	902	2834
30	0	0	161	626	178	903	2837
31	0	0	760	630	178	902	2841
32	0	0	1913	629	182	902	2843
33	0	0	2842	628	183	902	2843
34	0	0	3389	626	185	902	2843
35	0	0	3715	626	187	902	2838
36	0	0	3909	623	190	902	2832
37	0	0	4017	622	192	902	2829
38	0	0	4078	621	192	902	2831
39	0	0	4092	621	192	902	2834
40	0	0	4092	621	190	903	2837
41	0	0	3066	614	189	903	2841
42	0	0	1817	615	186	903	2843
43	0	0	1095	617	183	903	2844
44	0	0	671	619	181	902	2843
45	0	0	429	621	180	902	2838
46	0	0	296	623	177	902	2832
47	0	0	224	624	177	903	2831
48	0	0	186	627	177	902	2831
49	0	0	168	626	176	901	2834
50	0	0	161	627	178	902	2837
51	0	0	770	630	178	901	2841
52	0	0	1926	630	180	901	2843
53	0	0	2841	628	183	902	2843
54	0	0	3394	626	183	902	2843
55	0	0	3718	625	187	902	2838
56	0	0	3909	624	189	901	2832
57	0	0	4018	622	192	902	2829
58	0	0	4078	621	192	902	2831
59	0	0	4092	621	193	903	2834
60	0	0	4091	621	190	903	2837
61	0	0	3093	614	188	903	2841
62	0	0	1823	616	185	902	2843
63	0	0	1099	617	183	902	2844
64	0	0	676	620	182	902	2842
65	0	0	431	621	179	902	2839
66	0	0	296	623	176	902	2833
67	0	0	224	625	176	902	2831
68	0	0	186	626	176	902	2831
69	0	0	168	627	177	902	2834
70	0	0	161	627	177	902	2838
71	0	0	735	630	178	902	2841
72	0	0	1876	630	181	902	2843
73	0	0	2820	628	183	902	2843
74	0	0	3376	628	185	902	2843
75	0	0	3708	626	187	902	2839
76	0	0	3906	624	190	903	2832
77	0	0	4014	623	192	902	2829
78	0	0	4075	621	193	902	2830
79	0	0	4092	621	193	903	2834
80	0	0	4092	622	191	902	2838
81	0	0	3083	614	189	902	2841
82	0	0	1833	615	185	901	2843
83	0	0	1099	617	182	903	2844
84	0	0	676	620	182	902	2843
85	0	0	432	621	179	902	2839
86	0	0	298	623	177	902	2833
87	0	0	224	625	176	901	2830
88	0	0	186	626	175	903	2832
89	0	0	168	627	176	903	2835
90	0	0	162	626	177	902	2837
91	0	0	751	630	178	901	2841
92	0	0	1931	629	180	902	2842
93	0	0	2845	629	184	902	2844
94	0	0	3395	628	186	902	2842
95	0	0	3720	626	187	903	2839
96	0	0	3909	624	191	901	2832
97	0	0	4017	623	191	902	2829
98	0	0	4077	622	193	902	2831
99	0	0	4092	621	193	902	2833
100	0	0	4091	622	190	902	2838
101	0	0	3081	615	188	902	2841
102	0	0	1831	616	186	902	2843
103	0	0	1104	618	183	902	2844
104	0	0	679	620	181	902	2843
105	0	0	433	621	180	903	2840
106	0	0	297	623	177	903	2833
107	0	0	224	625	176	902	2830
108	0	0	186	626	176	903	2831
109	0	0	169	627	176	902	2834
110	0	0	162	627	177	904	2838
111	0	0	772	630	178	902	2841
112	0	0	1933	629	181	902	2843
113	0	0	2854	628	183	901	2843
114	0	0	3396	627	185	902	2842
115	0	0	3719	626	187	902	2838
116	0	0	3911	624	190	901	2832
117	0	0	4018	623	192	902	2830
118	0	0	4077	622	192	902	2831
119	0	0	4092	622	193	902	2833
120	0	0	4091	622	190	902	2837
121	0	0	3091	614	188	903	2841
122	0	0	1833	616	186	903	2843
123	0	0	1104	618	184	903	2844
124	0	0	676	619	181	902	2842
125	0	0	433	621	179	902	2839
126	0	0	297	623	178	902	2833
127	0	0	224	625	177	902	2830
0	0	0	186	626	177	902	2832
1	0	0	168	627	177	902	2834
2	0	0	161	628	176	902	2837
3	0	0	718	630	178	902	2841
4	0	0	1876	630	180	901	2843
5	0	0	2812	629	182	902	2844
6	0	0	3377	628	185	902	2843
7	0	0	3707	626	187	902	2839
8	0	0	3904	625	191	902	2833
9	0	0	4014	622	192	902	2830
10	0	0	4075	622	192	902	2831
11	0	0	4092	621	193	903	2833
12	0	0	4091	622	190	903	2837
13	0	0	3115	615	187	903	2841
14	0	0	1839	616	186	902	2844
15	0	0	1109	616	185	902	2843
16	0	0	682	620	180	902	2842
17	0	0	434	622	179	902	2839
18	0	0	299	624	178	903	2833
19	0	0	225	624	177	902	2830
20	0	0	188	626	176	902	2831
21	0	0	169	627	176	902	2834
22	0	0	162	628	177	902	2837
23	0	0	756	630	177	901	2841
24	0	0	1897	629	180	902	2843
25	0	0	2833	629	183	903	2844
26	0	0	3384	628	186	902	2842
27	0	0	3712	627	187	902	2838
28	0	0	3907	625	189	901	2832
29	0	0	4016	623	193	902	2830
30	0	0	4076	622	192	903	2831
31	0	0	4093	622	191	903	2834
32	0	0	4091	623	190	902	2837
33	0	0	3103	615	187	902	2841
34	0	0	1844	617	186	902	2843
35	0	0	1104	618	184	902	2844
36	0	0	680	620	181	902	2843
37	0	0	435	622	179	902	2839
38	0	0	298	623	176	902	2833
39	0	0	225	625	176	902	2830
40	0	0	187	627	177	902	2831
41	0	0	168	627	176	903	2834
42	0	0	162	628	178	902	2837
43	0	0	741	631	179	901	2841
44	0	0	1886	630	180	901	2843
45	0	0	2817	629	182	901	2843
46	0	0	3379	628	185	902	2842
47	0	0	3711	627	186	903	2839
48	0	0	3904	625	189	902	2832
49	0	0	4015	623	192	902	2830
50	0	0	4077	623	194	902	2831
51	0	0	4091	622	191	902	2833
52	0	0	4091	622	191	903	2837
53	0	0	3125	615	189	902	2841
54	0	0	1862	617	187	902	2843
55	0	0	1121	618	184	902	2844
56	0	0	690	621	181	902	2843
57	0	0	439	623	179	902	2839
58	0	0	300	624	177	902	2833
59	0	0	226	626	177	903	2830
60	0	0	187	626	175	902	2831
61	0	0	169	627	175	902	2834
62	0	0	162	628	177	902	2838
63	0	0	715	631	179	901	2841
64	0	0	1897	630	181	902	2844
65	0	0	2825	629	182	902	2843
66	0	0	3378	628	185	902	2842
67	0	0	3708	626	187	902	2839
68	0	0	3905	625	190	902	2832
69	0	0	4014	623	191	902	2829
70	0	0	4076	622	191	902	2830
71	0	0	4092	622	192	902	2833
72	0	0	4091	622	190	904	2837
73	0	0	3141	615	189	902	2841
74	0	0	1873	616	185	902	2843
75	0	0	1121	618	183	903	2844
76	0	0	689	621	181	903	2843
77	0	0	441	622	178	903	2839
78	0	0	302	624	178	902	2833
79	0	0	226	625	175	902	2830
80	0	0	188	627	176	902	2831
81	0	0	169	629	175	902	2833
82	0	0	162	628	176	902	2837
83	0	0	720	631	178	902	2840
84	0	0	1885	630	179	902	2843
85	0	0	2817	630	182	902	2843
86	0	0	3379	629	185	902	2842
87	0	0	3708	626	187	902	2839
88	0	0	3905	625	191	903	2833
89	0	0	4013	623	192	902	2830
90	0	0	4076	623	193	902	2831
91	0	0	4092	622	192	902	2834
92	0	0	4091	623	190	903	2837
93	0	0	3126	615	189	903	2840
94	0	0	1864	617	186	903	2843
95	0	0	1122	619	184	902	2844
96	0	0	690	619	181	902	2843
97	0	0	438	622	179	902	2840
98	0	0	300	623	178	902	2833
99	0	0	226	625	176	902	2830
100	0	0	187	627	177	902	2831
101	0	0	168	628	177	902	2834
102	0	0	161	628	177	901	2837
103	0	0	725	631	177	902	2841
104	0	0	1885	630	180	902	2843
105	0	0	2826	629	182	901	2844
106	0	0	3379	628	185	902	2842
107	0	0	3709	628	187	902	2839
108	0	0	3905	624	190	902	2832
109	0	0	4016	623	191	903	2830
110	0	0	4076	623	192	902	2831
111	0	0	4092	622	192	902	2833
112	0	0	4092	623	192	900	2838
113	0	0	3184	615	189	902	2841
114	0	0	1897	616	187	902	2844
115	0	0	1134	618	185	902	2843
116	0	0	697	620	180	902	2842
117	0	0	445	623	178	902	2839
118	0	0	304	624	176	902	2833
119	0	0	227	625	176	902	2830
120	0	0	187	626	176	902	2831
121	0	0	168	627	176	902	2834
122	0	0	162	628	178	902	2838
123	0	0	690	631	178	902	2841
124	0	0	1839	630	181	902	2843
125	0	0	2790	629	181	902	2843
126	0	0	3362	628	184	903	2843
127	0	0	3700	627	187	903	2839
0	0	0	3897	624	190	902	2832
1	0	0	4012	622	192	903	2830
2	0	0	4072	622	192	901	2830
3	0	0	4092	622	192	901	2833
4	0	0	4091	623	191	900	2837
5	0	0	3162	615	189	902	2840
6	0	0	1881	616	186	902	2843
7	0	0	1132	618	183	902	2844
8	0	0	695	620	182	902	2843
9	0	0	442	622	178	903	2839
10	0	0	301	624	177	902	2833
11	0	0	227	626	175	902	2830
12	0	0	188	627	176	903	2832
13	0	0	168	628	177	902	2834
14	0	0	161	628	176	902	2838
15	0	0	697	631	177	902	2841
16	0	0	1842	631	181	902	2843
17	0	0	2792	629	183	902	2844
18	0	0	3359	628	185	902	2843
19	0	0	3695	628	188	902	2839
20	0	0	3897	625	190	901	2833
21	0	0	4011	622	191	902	2829
22	0	0	4074	622	192	902	2831
23	0	0	4092	622	193	902	2833
24	0	0	4091	623	190	900	2837
25	0	0	3160	616	188	902	2841
26	0	0	1881	617	185	902	2843
27	0	0	1125	619	184	903	2844
28	0	0	692	620	179	902	2843
29	0	0	442	622	179	903	2840
30	0	0	302	623	178	902	2833
31	0	0	225	626	176	902	2830
32	0	0	187	627	176	902	2832
33	0	0	169	628	176	902	2835
34	0	0	162	628	176	902	2837
35	0	0	687	631	178	902	2840
36	0	0	1811	630	180	902	2843
37	0	0	2773	629	182	902	2843
38	0	0	3353	628	184	902	2842
39	0	0	3693	627	186	901	2839
40	0	0	3894	625	190	902	2832
41	0	0	4010	623	191	903	2830
42	0	0	4074	623	192	903	2831
43	0	0	4092	622	190	902	2833
44	0	0	4092	622	190	900	2838
45	0	0	3162	616	188	903	2841
46	0	0	1882	617	186	903	2843
47	0	0	1133	618	184	903	2844
48	0	0	696	620	180	902	2843
49	0	0	442	622	179	902	2839
50	0	0	303	624	177	902	2833
51	0	0	227	626	176	901	2830
52	0	0	188	627	175	902	2831
53	0	0	169	627	176	901	2834
54	0	0	162	628	176	902	2837
55	0	0	683	631	178	902	2841
56	0	0	1859	631	180	902	2843
57	0	0	2802	630	183	903	2844
58	0	0	3365	628	186	903	2843
59	0	0	3700	627	186	902	2840
60	0	0	3900	624	190	902	2833
61	0	0	4012	623	192	902	2830
62	0	0	4074	623	192	902	2831
63	0	0	4092	622	192	902	2834
64	0	0	4091	623	192	900	2837
65	0	0	3174	615	189	902	2841
66	0	0	1895	616	185	902	2843
67	0	0	1133	619	184	902	2844
68	0	0	696	621	181	901	2843
69	0	0	445	621	178	902	2840
70	0	0	303	624	177	902	2834
71	0	0	226	626	175	902	2830
72	0	0	188	627	175	902	2831
73	0	0	169	628	176	902	2834
74	0	0	162	628	178	902	2837
75	0	0	697	630	178	903	2841
76	0	0	1848	630	180	902	2843
77	0	0	2796	630	182	902	2844
78	0	0	3366	628	186	902	2842
79	0	0	3701	627	188	902	2840
80	0	0	3898	624	190	902	2833
81	0	0	4014	623	192	898	2830
82	0	0	4075	623	193	902	2831
83	0	0	4092	622	192	902	2833
84	0	0	4091	623	190	901	2837
85	0	0	3188	615	188	902	2840
86	0	0	1890	617	186	898	2843
87	0	0	1137	618	183	898	2844
88	0	0	699	621	182	902	2843
89	0	0	446	622	179	902	2840
90	0	0	303	624	177	901	2833
91	0	0	227	626	176	902	2831
92	0	0	188	627	175	903	2831
93	0	0	168	627	176	902	2834
94	0	0	162	628	178	902	2837
95	0	0	658	631	178	902	2841
96	0	0	1793	630	181	902	2843
97	0	0	2771	630	182	898	2844
98	0	0	3347	628	185	898	2843
99	0	0	3689	627	186	898	2839
100	0	0	3894	625	190	902	2833
101	0	0	4009	623	193	903	2830
102	0	0	4073	622	191	902	2831
103	0	0	4092	623	193	902	2833
104	0	0	4091	622	190	902	2837
105	0	0	3204	615	187	902	2840
106	0	0	1912	617	185	902	2842
107	0	0	1151	619	183	902	2844
108	0	0	703	620	180	902	2843
109	0	0	449	622	179	902	2840
110	0	0	306	624	178	902	2833
111	0	0	228	626	177	902	2830
112	0	0	189	627	176	902	2831
113	0	0	170	628	176	902	2834
114	0	0	162	628	177	902	2837
115	0	0	679	631	179	897	2841
116	0	0	1793	631	180	897	2843
117	0	0	2763	630	183	898	2843
118	0	0	3346	629	185	902	2843
119	0	0	3691	627	186	902	2840
120	0	0	3892	625	191	902	2832
121	0	0	4008	623	192	901	2830
122	0	0	4073	622	192	902	2831
123	0	0	4092	623	193	902	2834
124	0	0	4091	622	190	902	2837
125	0	0	3221	615	188	903	2841
126	0	0	1913	617	185	902	2843
127	0	0	1151	619	184	902	2844
0	0	0	706	621	181	898	2843
1	0	0	448	622	180	902	2840
2	0	0	306	624	177	902	2833
3	0	0	229	626	177	902	2830
4	0	0	189	627	176	902	2831
5	0	0	169	628	175	898	2834
6	0	0	162	628	177	898	2837
7	0	0	690	631	179	897	2840
8	0	0	1828	630	181	902	2842
9	0	0	2792	629	183	901	2844
10	0	0	3360	628	185	902	2843
11	0	0	3697	626	187	902	2839
12	0	0	3898	625	190	902	2832
13	0	0	4011	624	192	902	2830
14	0	0	4076	623	194	902	2831
15	0	0	4092	622	193	902	2833
16	0	0	4091	621	190	898	2837
17	0	0	3220	615	188	898	2841
18	0	0	1929	617	186	898	2843
19	0	0	1154	618	183	902	2844
20	0	0	708	621	181	902	2843
21	0	0	451	622	180	902	2840
22	0	0	307	624	177	902	2834
23	0	0	227	626	177	898	2830
24	0	0	189	627	176	902	2831
25	0	0	170	627	176	902	2834
26	0	0	162	628	177	902	2838
27	0	0	651	631	178	901	2840
28	0	0	1802	630	180	902	2843
29	0	0	2768	630	183	901	2844
30	0	0	3350	628	184	902	2843
31	0	0	3692	626	187	902	2839
32	0	0	3894	625	191	902	2833
33	0	0	4009	624	192	902	2830
34	0	0	4073	623	191	898	2831
35	0	0	4092	622	193	898	2834
36	0	0	4091	622	189	898	2837
37	0	0	3221	615	188	902	2840
38	0	0	1923	617	186	902	2843
39	0	0	1157	618	183	903	2844
40	0	0	710	620	182	902	2843
41	0	0	450	622	180	902	2840
42	0	0	306	624	178	902	2833
43	0	0	229	625	176	902	2830
44	0	0	189	627	175	902	2831
45	0	0	169	628	176	902	2834
46	0	0	162	627	176	902	2837
47	0	0	661	631	178	902	2841
48	0	0	1819	631	180	902	2843
49	0	0	2779	630	183	902	2844
50	0	0	3350	628	184	902	2842
51	0	0	3692	625	186	902	2839
52	0	0	3895	625	190	898	2833
53	0	0	4010	624	191	899	2830
54	0	0	4074	623	193	898	2830
55	0	0	4092	622	191	902	2833
56	0	0	4091	622	190	902	2837
57	0	0	3232	615	188	902	2840
58	0	0	1933	617	185	902	2842
59	0	0	1155	619	183	902	2843
