# bioPlux Text File Format
# Version: 1
# StartDateTime: 2011-07-19 11:06:53
# SamplingFrequency: 1000
# SampledChannels: 1 2 3 4 5
# SamplingResolution: 12
# AcquiringDevice: 00:07:80:42:0F:95
# EndOfHeader
0	0	0	1527	4	182	900	2785
1	0	0	1575	5	183	900	2788
2	0	0	1634	5	184	900	2792
3	0	0	1669	5	184	900	2795
4	0	0	1658	4	184	900	2796
5	0	0	1642	4	183	900	2796
6	0	0	1688	6	184	900	2794
7	0	0	1788	5	183	900	2788
8	0	0	1846	5	183	900	2783
9	0	0	1859	5	183	900	2782
10	0	0	1872	5	184	899	2784
11	0	0	1903	5	183	899	2788
12	0	0	1924	4	184	900	2791
13	0	0	1872	4	183	900	2795
14	0	0	1805	4	183	900	2796
15	0	0	1778	4	183	900	2796
16	0	0	1781	4	183	900	2794
17	0	0	1796	4	184	900	2788
18	0	0	1776	4	184	900	2784
19	0	0	1727	4	184	900	2783
20	0	0	1695	4	184	900	2785
21	0	0	1728	5	184	900	2788
22	0	0	1788	4	184	900	2791
23	0	0	1846	5	182	900	2794
24	0	0	1886	5	183	900	2796
25	0	0	1927	5	183	900	2796
26	0	0	1965	5	184	900	2793
27	0	0	1963	4	183	900	2788
28	0	0	1945	4	184	900	2783
29	0	0	1954	5	183	900	2782
30	0	0	1976	4	183	900	2784
31	0	0	1928	4	184	900	2788
32	0	0	1837	4	183	900	2792
33	0	0	1781	4	184	900	2795
34	0	0	1773	4	184	900	2797
35	0	0	1783	5	185	900	2796
36	0	0	1836	5	184	900	2794
37	0	0	1902	5	184	900	2789
38	0	0	1864	4	184	900	2784
39	0	0	1799	4	183	900	2783
40	0	0	1793	4	184	902	2785
41	0	0	1804	5	184	900	2788
42	0	0	1845	5	183	900	2792
43	0	0	1883	5	183	899	2794
44	0	0	1887	4	183	900	2796
45	0	0	1874	4	184	900	2796
46	0	0	1891	5	185	900	2793
47	0	0	1906	4	183	900	2788
48	0	0	1892	4	183	900	2783
49	0	0	1866	4	183	900	2782
50	0	0	1827	4	184	900	2784
51	0	0	1781	4	184	900	2788
52	0	0	1755	4	183	900	2792
53	0	0	1762	5	184	900	2795
54	0	0	1805	5	184	899	2796
55	0	0	1842	5	183	900	2796
56	0	0	1840	4	184	900	2794
57	0	0	1803	3	184	900	2789
58	0	0	1733	4	184	900	2784
59	0	0	1678	4	184	900	2782
60	0	0	1689	5	184	900	2785
61	0	0	1726	5	183	900	2788
62	0	0	1784	5	183	900	2791
63	0	0	1848	5	184	900	2795
64	0	0	1890	5	184	900	2796
65	0	0	1917	5	182	899	2796
66	0	0	1903	4	183	900	2793
67	0	0	1828	3	183	900	2788
68	0	0	1752	4	183	900	2783
69	0	0	1760	5	184	900	2782
70	0	0	1821	4	184	900	2784
71	0	0	1846	4	184	900	2787
72	0	0	1824	4	183	900	2791
73	0	0	1829	5	184	900	2794
74	0	0	1826	4	183	900	2796
75	0	0	1773	4	184	899	2796
76	0	0	1752	4	182	900	2794
77	0	0	1783	5	183	900	2789
78	0	0	1812	5	183	900	2783
79	0	0	1808	4	183	900	2782
80	0	0	1794	4	184	899	2784
81	0	0	1771	4	184	900	2788
82	0	0	1743	4	183	900	2791
83	0	0	1749	5	183	900	2795
84	0	0	1775	5	183	900	2796
85	0	0	1789	4	183	900	2796
86	0	0	1794	4	183	900	2794
87	0	0	1833	5	183	900	2789
88	0	0	1911	5	184	900	2783
89	0	0	1945	4	183	900	2782
90	0	0	1895	4	183	900	2784
91	0	0	1850	4	183	900	2787
92	0	0	1857	4	183	900	2791
93	0	0	1831	4	183	900	2794
94	0	0	1750	3	182	900	2796
95	0	0	1697	4	184	900	2796
96	0	0	1675	4	183	900	2794
97	0	0	1665	3	184	900	2788
98	0	0	1678	4	184	900	2783
99	0	0	1702	5	183	900	2783
100	0	0	1727	5	184	901	2784
101	0	0	1754	5	184	900	2787
102	0	0	1775	3	184	900	2791
103	0	0	1808	5	184	900	2794
104	0	0	1811	4	183	900	2796
105	0	0	1807	5	183	900	2795
106	0	0	1807	5	184	900	2794
107	0	0	1801	4	183	900	2788
108	0	0	1796	4	183	900	2783
109	0	0	1790	4	183	900	2782
110	0	0	1789	4	184	900	2784
111	0	0	1794	4	183	900	2787
112	0	0	1780	3	183	900	2791
113	0	0	1757	4	184	900	2794
114	0	0	1746	4	184	900	2796
115	0	0	1728	5	184	900	2796
116	0	0	1739	4	184	900	2794
117	0	0	1764	4	184	900	2789
118	0	0	1773	4	184	900	2783
119	0	0	1759	4	184	900	2782
120	0	0	1768	4	184	900	2784
121	0	0	1821	5	183	900	2788
122	0	0	1846	3	184	900	2791
123	0	0	1809	4	184	900	2794
124	0	0	1823	5	183	900	2796
125	0	0	1876	5	185	900	2795
126	0	0	1936	5	184	900	2794
127	0	0	1971	5	184	900	2789
0	0	0	1987	5	183	900	2782
1	0	0	1986	4	183	900	2782
2	0	0	1948	4	185	900	2784
3	0	0	1891	4	185	900	2787
4	0	0	1842	4	183	900	2791
5	0	0	1801	3	183	900	2794
6	0	0	1782	5	184	900	2796
7	0	0	1786	4	184	900	2796
8	0	0	1786	4	186	900	2794
9	0	0	1800	4	184	900	2789
10	0	0	1793	4	184	900	2783
11	0	0	1780	4	184	900	2782
12	0	0	1775	5	184	900	2784
13	0	0	1814	5	183	900	2787
14	0	0	1891	4	184	900	2791
15	0	0	1962	5	183	900	2794
16	0	0	1981	4	184	900	2795
17	0	0	1968	4	183	900	2796
18	0	0	1977	5	184	900	2794
19	0	0	1993	5	183	900	2788
20	0	0	2013	5	183	900	2783
21	0	0	2009	4	184	900	2782
22	0	0	1976	5	184	900	2784
23	0	0	1924	4	185	900	2787
24	0	0	1895	4	184	900	2791
25	0	0	1883	4	182	900	2794
26	0	0	1839	4	184	900	2796
27	0	0	1786	4	184	900	2796
28	0	0	1820	5	183	900	2794
29	0	0	1897	5	184	900	2788
30	0	0	1915	4	184	900	2783
31	0	0	1894	3	183	900	2782
32	0	0	1876	4	184	899	2784
33	0	0	1858	4	184	900	2787
34	0	0	1832	4	183	900	2791
35	0	0	1839	5	183	900	2794
36	0	0	1895	4	183	900	2796
37	0	0	1943	5	183	900	2795
38	0	0	2011	5	184	900	2794
39	0	0	2071	5	184	900	2789
40	0	0	2050	4	183	900	2783
41	0	0	2004	4	183	900	2782
42	0	0	1980	4	182	899	2784
43	0	0	1996	5	183	900	2787
44	0	0	2016	5	184	900	2791
45	0	0	2015	4	184	900	2794
46	0	0	1989	4	183	900	2796
47	0	0	1960	4	183	899	2796
48	0	0	1942	4	184	900	2794
49	0	0	1945	4	183	900	2789
50	0	0	1947	4	183	900	2784
51	0	0	1926	5	183	900	2782
52	0	0	1883	4	184	900	2784
53	0	0	1841	4	185	900	2787
54	0	0	1856	5	183	900	2791
55	0	0	1918	5	184	900	2794
56	0	0	1968	5	184	900	2796
57	0	0	1984	5	184	900	2796
58	0	0	1999	5	185	900	2794
59	0	0	2020	5	184	900	2789
60	0	0	2067	5	183	900	2783
61	0	0	2102	5	183	900	2782
62	0	0	2127	5	184	899	2784
63	0	0	2141	5	184	900	2787
64	0	0	2153	5	182	900	2791
65	0	0	2179	5	184	900	2794
66	0	0	2133	4	183	900	2796
67	0	0	2003	4	184	900	2796
68	0	0	1877	4	185	900	2793
69	0	0	1802	4	183	900	2789
70	0	0	1775	4	184	900	2784
71	0	0	1791	5	183	900	2782
72	0	0	1854	5	184	899	2784
73	0	0	1926	5	184	900	2787
74	0	0	2003	5	184	900	2791
75	0	0	2058	5	183	900	2794
76	0	0	2101	5	183	900	2796
77	0	0	2121	5	183	899	2796
78	0	0	2096	4	182	900	2794
79	0	0	2085	5	183	900	2789
80	0	0	2108	5	184	900	2783
81	0	0	2116	4	183	900	2782
82	0	0	2082	4	183	900	2784
83	0	0	2034	4	183	900	2787
84	0	0	2000	4	183	900	2791
85	0	0	2005	5	184	900	2794
86	0	0	2024	5	183	900	2795
87	0	0	2029	5	183	900	2795
88	0	0	2031	4	184	900	2793
89	0	0	2042	5	183	900	2789
90	0	0	2038	4	184	900	2783
91	0	0	2000	4	184	900	2783
92	0	0	1988	4	183	899	2784
93	0	0	1970	4	184	899	2787
94	0	0	1970	5	182	900	2791
95	0	0	2000	5	184	900	2795
96	0	0	2016	6	183	900	2796
97	0	0	2061	5	184	900	2796
98	0	0	2120	5	184	900	2793
99	0	0	2179	5	183	900	2789
100	0	0	2224	5	183	899	2782
101	0	0	2230	4	184	900	2782
102	0	0	2199	5	184	900	2784
103	0	0	2167	4	184	900	2787
104	0	0	2158	5	184	900	2791
105	0	0	2191	5	184	900	2794
106	0	0	2195	4	183	900	2796
107	0	0	2191	4	183	900	2796
108	0	0	2176	4	184	900	2795
109	0	0	2133	4	183	900	2790
110	0	0	2091	4	183	900	2784
111	0	0	2063	4	183	900	2782
112	0	0	2035	5	184	900	2784
113	0	0	2043	5	184	900	2787
114	0	0	2090	5	182	900	2791
115	0	0	2143	5	184	900	2794
116	0	0	2161	5	184	900	2796
117	0	0	2185	5	184	900	2795
118	0	0	2232	5	184	899	2793
119	0	0	2244	5	182	900	2789
120	0	0	2225	4	183	900	2783
121	0	0	2210	4	183	900	2782
122	0	0	2188	4	183	900	2784
123	0	0	2171	4	184	900	2787
124	0	0	2154	4	184	900	2791
125	0	0	2137	4	183	900	2794
126	0	0	2150	5	183	900	2796
127	0	0	2174	5	182	900	2796
0	0	0	2198	5	185	900	2794
1	0	0	2192	4	184	900	2790
2	0	0	2149	4	184	900	2783
3	0	0	2117	4	184	900	2782
4	0	0	2162	5	184	899	2784
5	0	0	2225	4	185	900	2787
6	0	0	2232	4	184	900	2791
7	0	0	2216	4	184	900	2793
8	0	0	2196	4	184	900	2795
9	0	0	2179	4	183	900	2796
10	0	0	2164	4	183	900	2794
11	0	0	2175	5	183	899	2789
12	0	0	2236	5	183	900	2783
13	0	0	2271	4	184	900	2783
14	0	0	2267	4	184	900	2784
15	0	0	2241	4	185	900	2787
16	0	0	2211	4	184	900	2791
17	0	0	2185	4	184	900	2794
18	0	0	2135	4	184	900	2796
19	0	0	2103	4	184	900	2796
20	0	0	2074	4	183	900	2794
21	0	0	2049	4	184	900	2789
22	0	0	2043	4	183	900	2783
23	0	0	2063	5	184	900	2782
24	0	0	2091	5	183	900	2784
25	0	0	2094	5	184	900	2787
26	0	0	2122	5	183	900	2791
27	0	0	2152	5	183	900	2793
28	0	0	2184	5	184	900	2796
29	0	0	2243	5	184	900	2796
30	0	0	2269	5	184	900	2794
31	0	0	2255	5	183	900	2790
32	0	0	2263	5	184	900	2784
33	0	0	2285	5	183	900	2782
34	0	0	2275	4	185	900	2784
35	0	0	2266	4	184	900	2787
36	0	0	2257	5	184	900	2791
37	0	0	2263	5	185	900	2794
38	0	0	2275	5	184	900	2796
39	0	0	2270	4	184	900	2796
40	0	0	2265	4	183	899	2794
41	0	0	2241	4	182	900	2789
42	0	0	2212	4	184	900	2783
43	0	0	2178	4	184	900	2782
44	0	0	2153	4	184	900	2784
45	0	0	2129	4	185	900	2787
46	0	0	2116	4	182	900	2791
47	0	0	2139	5	184	900	2795
48	0	0	2174	5	184	900	2796
49	0	0	2193	5	184	900	2796
50	0	0	2239	5	184	901	2795
51	0	0	2294	5	184	900	2789
52	0	0	2305	4	184	900	2783
53	0	0	2288	5	183	900	2782
54	0	0	2265	4	183	900	2784
55	0	0	2217	4	184	900	2787
56	0	0	2196	5	184	900	2791
57	0	0	2180	4	183	900	2794
58	0	0	2151	5	184	900	2796
59	0	0	2160	5	183	900	2796
60	0	0	2165	4	183	900	2794
61	0	0	2147	4	184	900	2790
62	0	0	2162	5	184	900	2784
63	0	0	2160	4	184	900	2782
64	0	0	2124	4	184	900	2784
65	0	0	2094	4	185	900	2787
66	0	0	2103	5	183	900	2791
67	0	0	2149	5	183	900	2794
68	0	0	2194	5	183	900	2796
69	0	0	2216	4	183	900	2796
70	0	0	2246	5	183	899	2794
71	0	0	2274	4	183	900	2790
72	0	0	2261	4	183	900	2783
73	0	0	2206	4	183	900	2783
74	0	0	2165	4	185	899	2784
75	0	0	2130	4	183	900	2787
76	0	0	2126	4	183	900	2791
77	0	0	2130	5	184	900	2794
78	0	0	2102	4	184	900	2796
79	0	0	2067	4	183	900	2797
80	0	0	2055	5	183	900	2795
81	0	0	2068	5	183	900	2790
82	0	0	2085	5	184	900	2785
83	0	0	2080	4	184	900	2783
84	0	0	2058	4	183	900	2784
85	0	0	2055	4	183	900	2788
86	0	0	2059	5	184	900	2791
87	0	0	2091	5	184	900	2794
88	0	0	2134	6	184	900	2797
89	0	0	2191	5	183	901	2796
90	0	0	2226	5	184	899	2794
91	0	0	2238	5	184	900	2790
92	0	0	2236	5	184	900	2784
93	0	0	2231	4	183	900	2782
94	0	0	2213	4	183	900	2784
95	0	0	2189	4	185	900	2787
96	0	0	2216	5	183	900	2791
97	0	0	2234	5	184	900	2795
98	0	0	2206	4	184	900	2796
99	0	0	2188	4	183	900	2797
100	0	0	2187	4	183	900	2795
101	0	0	2170	4	183	900	2790
102	0	0	2106	4	184	900	2785
103	0	0	2033	4	184	900	2782
104	0	0	2021	5	183	900	2784
105	0	0	2063	5	184	899	2787
106	0	0	2116	5	184	900	2791
107	0	0	2130	5	184	900	2794
108	0	0	2151	5	184	900	2796
109	0	0	2205	4	185	900	2796
110	0	0	2232	5	183	900	2795
111	0	0	2254	5	182	900	2790
112	0	0	2261	4	183	900	2784
113	0	0	2249	5	183	900	2782
114	0	0	2270	4	183	900	2784
115	0	0	2310	5	184	899	2787
116	0	0	2313	4	185	900	2791
117	0	0	2261	4	184	900	2794
118	0	0	2191	4	183	901	2797
119	0	0	2147	4	183	899	2796
120	0	0	2149	5	183	899	2794
121	0	0	2142	4	184	900	2790
122	0	0	2117	4	183	900	2784
123	0	0	2111	4	184	900	2782
124	0	0	2098	5	183	900	2784
125	0	0	2095	4	183	900	2787
126	0	0	2093	4	183	900	2791
127	0	0	2099	5	184	900	2794
0	0	0	2134	4	183	900	2796
1	0	0	2187	5	183	900	2796
2	0	0	2219	5	184	900	2795
3	0	0	2245	5	182	900	2790
4	0	0	2253	5	182	899	2784
5	0	0	2250	4	183	900	2783
6	0	0	2253	5	183	901	2784
7	0	0	2246	4	182	899	2787
8	0	0	2226	4	184	900	2791
9	0	0	2201	4	184	900	2793
10	0	0	2184	4	184	899	2796
11	0	0	2155	4	183	899	2796
12	0	0	2122	4	184	900	2794
13	0	0	2132	5	184	900	2790
14	0	0	2170	5	184	900	2784
15	0	0	2230	5	183	900	2782
16	0	0	2241	4	183	900	2784
17	0	0	2165	4	184	900	2787
18	0	0	2087	4	183	900	2791
19	0	0	2093	5	184	900	2794
20	0	0	2150	5	184	900	2797
21	0	0	2170	5	184	900	2796
22	0	0	2193	5	184	900	2795
23	0	0	2221	5	183	900	2790
24	0	0	2262	5	184	899	2784
25	0	0	2318	5	183	900	2783
26	0	0	2370	5	184	900	2784
27	0	0	2383	4	184	900	2787
28	0	0	2332	4	182	900	2791
29	0	0	2285	4	184	900	2794
30	0	0	2248	4	183	900	2796
31	0	0	2204	4	185	900	2796
32	0	0	2186	4	183	900	2795
33	0	0	2188	5	185	900	2791
34	0	0	2203	5	183	899	2784
35	0	0	2233	5	183	900	2784
36	0	0	2262	5	182	900	2785
37	0	0	2308	5	183	900	2787
38	0	0	2351	5	184	900	2791
39	0	0	2364	5	184	900	2794
40	0	0	2365	4	183	900	2796
41	0	0	2361	5	183	900	2796
42	0	0	2347	5	184	900	2795
43	0	0	2352	5	184	900	2791
44	0	0	2380	5	183	900	2784
45	0	0	2382	5	183	900	2782
46	0	0	2351	4	184	900	2784
47	0	0	2348	5	184	900	2787
48	0	0	2341	4	183	900	2791
49	0	0	2321	4	184	900	2794
50	0	0	2319	5	183	900	2797
51	0	0	2342	5	182	900	2797
52	0	0	2375	5	184	900	2795
53	0	0	2364	4	185	900	2791
54	0	0	2304	4	184	900	2784
55	0	0	2246	4	184	900	2783
56	0	0	2232	5	183	900	2784
57	0	0	2217	4	184	900	2788
58	0	0	2218	5	183	900	2791
59	0	0	2280	5	185	900	2795
60	0	0	2346	5	184	900	2796
61	0	0	2377	5	183	900	2796
62	0	0	2374	4	183	900	2795
63	0	0	2374	5	183	900	2790
64	0	0	2389	5	184	900	2784
65	0	0	2388	4	182	900	2782
66	0	0	2374	4	185	900	2784
67	0	0	2376	5	183	900	2787
68	0	0	2383	5	185	899	2791
69	0	0	2397	5	184	900	2794
70	0	0	2402	5	184	900	2796
71	0	0	2384	4	184	900	2797
72	0	0	2349	4	184	900	2795
73	0	0	2308	4	183	900	2791
74	0	0	2269	4	183	900	2784
75	0	0	2259	4	183	899	2783
76	0	0	2271	5	183	900	2784
77	0	0	2257	4	185	900	2787
78	0	0	2222	4	185	900	2791
79	0	0	2227	5	184	900	2794
80	0	0	2278	5	183	900	2796
81	0	0	2323	5	183	900	2797
82	0	0	2368	5	184	900	2796
83	0	0	2454	5	183	900	2791
84	0	0	2504	5	184	900	2784
85	0	0	2489	4	182	900	2783
86	0	0	2480	4	184	899	2784
87	0	0	2467	4	185	900	2788
88	0	0	2428	4	184	900	2791
89	0	0	2382	4	184	900	2795
90	0	0	2381	5	184	900	2796
91	0	0	2386	5	183	900	2797
92	0	0	2359	4	183	900	2795
93	0	0	2350	5	184	900	2791
94	0	0	2354	5	183	900	2784
95	0	0	2357	4	183	900	2783
96	0	0	2349	5	183	900	2784
97	0	0	2344	4	184	900	2787
98	0	0	2358	5	183	899	2791
99	0	0	2390	5	183	900	2794
100	0	0	2436	5	183	900	2796
101	0	0	2493	5	183	900	2797
102	0	0	2517	5	183	900	2796
103	0	0	2494	4	184	900	2791
104	0	0	2445	4	183	900	2785
105	0	0	2425	3	182	900	2784
106	0	0	2410	4	184	901	2785
107	0	0	2392	4	183	900	2787
108	0	0	2394	5	184	900	2791
109	0	0	2400	5	184	900	2795
110	0	0	2403	4	183	900	2797
111	0	0	2381	4	184	899	2797
112	0	0	2358	4	184	900	2796
113	0	0	2357	5	183	900	2792
114	0	0	2344	5	184	900	2785
115	0	0	2335	5	184	900	2783
116	0	0	2360	5	184	900	2785
117	0	0	2384	5	184	900	2788
118	0	0	2385	5	183	900	2791
119	0	0	2391	5	183	900	2795
120	0	0	2393	5	184	900	2796
121	0	0	2422	5	183	900	2798
122	0	0	2454	5	183	900	2796
123	0	0	2460	5	183	900	2792
124	0	0	2461	5	184	900	2785
125	0	0	2486	4	184	900	2783
126	0	0	2516	5	183	900	2784
127	0	0	2519	5	183	900	2788
0	0	0	2477	4	185	900	2792
1	0	0	2408	5	183	900	2794
2	0	0	2355	5	184	900	2796
3	0	0	2311	4	183	900	2797
4	0	0	2288	4	183	899	2796
5	0	0	2304	5	183	900	2792
6	0	0	2325	5	183	900	2785
7	0	0	2307	5	183	900	2783
8	0	0	2298	4	183	900	2785
9	0	0	2300	4	184	899	2788
10	0	0	2301	5	182	900	2791
11	0	0	2320	5	183	900	2794
12	0	0	2364	5	184	899	2797
13	0	0	2449	5	184	900	2797
14	0	0	2478	4	183	900	2796
15	0	0	2456	4	184	900	2792
16	0	0	2460	5	184	900	2785
17	0	0	2467	4	183	900	2783
18	0	0	2465	5	184	900	2784
19	0	0	2492	5	184	900	2787
20	0	0	2527	5	184	900	2791
21	0	0	2505	4	184	900	2794
22	0	0	2459	4	184	900	2797
23	0	0	2417	4	184	900	2798
24	0	0	2390	4	185	900	2796
25	0	0	2361	4	183	900	2792
26	0	0	2333	4	184	900	2785
27	0	0	2298	5	184	900	2784
28	0	0	2270	4	184	900	2785
29	0	0	2275	5	184	900	2788
30	0	0	2262	5	183	900	2791
31	0	0	2291	5	183	900	2794
32	0	0	2355	5	182	900	2798
33	0	0	2396	5	183	900	2797
34	0	0	2442	5	183	900	2796
35	0	0	2544	5	183	900	2792
36	0	0	2660	5	183	900	2785
37	0	0	2659	4	182	900	2784
38	0	0	2529	4	184	900	2785
39	0	0	2438	4	184	900	2788
40	0	0	2431	5	184	900	2792
41	0	0	2461	5	184	900	2795
42	0	0	2486	6	183	900	2797
43	0	0	2494	4	183	900	2798
44	0	0	2500	4	183	900	2797
45	0	0	2448	4	183	900	2792
46	0	0	2359	4	183	900	2786
47	0	0	2292	4	185	900	2784
48	0	0	2293	5	183	900	2784
49	0	0	2350	5	183	900	2788
50	0	0	2403	5	183	900	2792
51	0	0	2445	5	184	900	2794
52	0	0	2489	4	183	900	2798
53	0	0	2516	5	183	900	2797
54	0	0	2558	5	183	900	2796
55	0	0	2624	5	183	900	2792
56	0	0	2682	5	183	900	2785
57	0	0	2719	5	184	900	2784
58	0	0	2726	5	184	900	2785
59	0	0	2744	5	185	900	2788
60	0	0	2760	5	184	900	2792
61	0	0	2724	4	183	900	2795
62	0	0	2642	4	184	900	2797
63	0	0	2588	4	183	900	2798
64	0	0	2583	5	183	899	2797
65	0	0	2594	5	183	900	2792
66	0	0	2593	4	184	900	2786
67	0	0	2587	6	183	900	2784
68	0	0	2574	4	184	900	2785
69	0	0	2545	4	183	900	2788
70	0	0	2539	5	183	900	2792
71	0	0	2561	5	183	899	2795
72	0	0	2599	4	184	899	2797
73	0	0	2634	5	183	900	2797
74	0	0	2646	5	184	900	2796
75	0	0	2630	4	183	900	2793
76	0	0	2609	4	184	900	2786
77	0	0	2595	5	184	900	2784
78	0	0	2615	5	184	900	2785
79	0	0	2660	5	183	901	2788
80	0	0	2699	5	184	900	2792
81	0	0	2727	5	183	900	2795
82	0	0	2760	5	184	900	2798
83	0	0	2745	4	184	901	2798
84	0	0	2670	4	184	900	2796
85	0	0	2583	4	183	900	2793
86	0	0	2527	4	184	900	2785
87	0	0	2518	5	185	899	2784
88	0	0	2540	5	184	899	2785
89	0	0	2530	4	183	900	2788
90	0	0	2539	5	182	899	2792
91	0	0	2584	5	184	900	2795
92	0	0	2612	5	184	900	2797
93	0	0	2619	5	183	900	2798
94	0	0	2603	4	184	901	2797
95	0	0	2596	5	183	900	2792
96	0	0	2599	5	184	900	2786
97	0	0	2639	4	183	900	2784
98	0	0	2695	5	184	900	2785
99	0	0	2731	5	184	899	2788
100	0	0	2761	5	182	900	2791
101	0	0	2733	5	183	900	2794
102	0	0	2671	4	182	900	2798
103	0	0	2606	4	183	900	2797
104	0	0	2568	4	183	901	2796
105	0	0	2565	5	183	900	2793
106	0	0	2513	4	183	900	2786
107	0	0	2445	5	183	900	2784
108	0	0	2408	4	184	900	2785
109	0	0	2412	5	183	900	2789
110	0	0	2441	5	184	900	2792
111	0	0	2500	5	184	900	2795
112	0	0	2538	5	184	900	2797
113	0	0	2562	5	183	900	2798
114	0	0	2596	5	183	901	2796
115	0	0	2624	5	183	900	2793
116	0	0	2642	5	184	900	2786
117	0	0	2657	5	183	900	2784
118	0	0	2655	5	184	901	2784
119	0	0	2636	4	182	900	2788
120	0	0	2619	4	184	900	2792
121	0	0	2590	4	184	900	2795
122	0	0	2586	5	184	900	2798
123	0	0	2600	5	184	900	2798
124	0	0	2615	5	183	901	2797
125	0	0	2611	5	183	900	2793
126	0	0	2593	5	184	900	2786
127	0	0	2574	5	183	900	2784
0	0	0	2584	5	184	900	2785
1	0	0	2574	4	184	899	2788
2	0	0	2560	5	183	900	2792
3	0	0	2561	5	183	900	2794
4	0	0	2594	5	183	900	2797
5	0	0	2653	5	183	899	2797
6	0	0	2699	5	183	900	2796
7	0	0	2710	5	183	899	2792
8	0	0	2681	4	184	900	2786
9	0	0	2634	4	182	900	2783
10	0	0	2617	5	183	900	2785
11	0	0	2620	5	182	900	2788
12	0	0	2619	5	184	900	2792
13	0	0	2588	4	183	900	2796
14	0	0	2562	4	184	900	2797
15	0	0	2556	5	185	900	2798
16	0	0	2531	4	183	900	2797
17	0	0	2500	4	183	900	2793
18	0	0	2493	5	184	900	2786
19	0	0	2536	5	184	900	2784
20	0	0	2609	5	184	899	2785
21	0	0	2653	5	184	901	2788
22	0	0	2665	5	184	900	2792
23	0	0	2677	5	182	900	2794
24	0	0	2685	5	182	900	2797
25	0	0	2715	5	183	900	2797
26	0	0	2726	5	183	900	2796
27	0	0	2708	5	182	900	2792
28	0	0	2705	5	184	900	2786
29	0	0	2727	5	184	900	2784
30	0	0	2733	5	184	899	2785
31	0	0	2726	5	182	900	2788
32	0	0	2691	4	183	900	2792
33	0	0	2629	4	184	900	2795
34	0	0	2589	4	184	900	2798
35	0	0	2563	4	183	900	2798
36	0	0	2556	5	183	899	2796
37	0	0	2562	5	184	900	2793
38	0	0	2575	5	183	900	2786
39	0	0	2584	5	184	900	2784
40	0	0	2588	5	183	900	2785
41	0	0	2579	5	183	900	2788
42	0	0	2617	5	182	900	2791
43	0	0	2659	5	184	900	2794
44	0	0	2652	4	184	900	2797
45	0	0	2619	3	185	900	2798
46	0	0	2611	5	184	900	2796
47	0	0	2651	5	181	900	2793
48	0	0	2706	5	183	900	2787
49	0	0	2715	4	182	900	2784
50	0	0	2682	4	184	900	2785
51	0	0	2672	5	183	900	2788
52	0	0	2676	5	183	900	2791
53	0	0	2714	5	184	900	2794
54	0	0	2772	5	183	900	2797
55	0	0	2794	4	184	900	2797
56	0	0	2793	5	184	900	2796
57	0	0	2814	5	184	900	2793
58	0	0	2820	5	184	900	2786
59	0	0	2817	5	184	900	2784
60	0	0	2865	4	184	900	2785
61	0	0	2932	5	184	900	2788
62	0	0	3010	5	183	900	2791
63	0	0	3115	5	183	900	2795
64	0	0	3223	6	184	899	2797
65	0	0	3311	5	183	900	2798
66	0	0	3352	5	183	900	2796
67	0	0	3344	5	183	900	2793
68	0	0	3371	5	183	899	2786
69	0	0	3425	5	184	900	2783
70	0	0	3485	5	184	900	2784
71	0	0	3549	5	184	900	2787
72	0	0	3594	5	182	899	2791
73	0	0	3621	5	183	899	2794
74	0	0	3652	5	183	899	2797
75	0	0	3685	5	184	899	2797
76	0	0	3682	5	184	900	2796
77	0	0	3642	5	184	900	2793
78	0	0	3612	5	183	899	2786
79	0	0	3596	5	183	900	2784
80	0	0	3578	5	184	899	2785
81	0	0	3528	4	183	900	2787
82	0	0	3462	4	184	900	2791
83	0	0	3398	4	183	899	2794
84	0	0	3333	4	183	900	2796
85	0	0	3250	3	183	900	2797
86	0	0	3146	4	184	900	2796
87	0	0	3045	4	184	900	2792
88	0	0	2967	4	182	900	2786
89	0	0	2878	4	184	900	2783
90	0	0	2736	3	184	900	2784
91	0	0	2613	4	183	900	2787
92	0	0	2566	4	183	900	2791
93	0	0	2549	4	184	900	2795
94	0	0	2495	5	184	900	2796
95	0	0	2424	4	183	899	2798
96	0	0	2398	4	184	900	2797
97	0	0	2386	5	184	900	2793
98	0	0	2359	4	184	900	2786
99	0	0	2347	5	184	900	2783
100	0	0	2356	5	183	900	2784
101	0	0	2362	5	183	900	2787
102	0	0	2362	5	183	900	2791
103	0	0	2380	5	183	899	2794
104	0	0	2384	4	183	900	2796
105	0	0	2374	4	182	900	2797
106	0	0	2355	5	184	899	2796
107	0	0	2337	5	183	900	2792
108	0	0	2372	5	183	900	2785
109	0	0	2452	5	184	900	2784
110	0	0	2509	5	184	901	2784
111	0	0	2532	5	184	900	2787
112	0	0	2543	5	182	900	2791
113	0	0	2529	4	184	900	2794
114	0	0	2503	4	184	900	2797
115	0	0	2463	4	184	900	2798
116	0	0	2403	4	184	900	2796
117	0	0	2337	4	184	900	2793
118	0	0	2300	4	185	900	2786
119	0	0	2301	5	184	900	2783
120	0	0	2346	5	183	900	2784
121	0	0	2407	5	185	900	2787
122	0	0	2466	4	182	900	2790
123	0	0	2514	5	183	900	2793
124	0	0	2526	5	184	900	2796
125	0	0	2555	5	183	900	2797
126	0	0	2595	5	184	901	2795
127	0	0	2642	5	184	900	2793
0	0	0	2685	5	183	900	2785
1	0	0	2708	5	184	900	2784
2	0	0	2694	5	184	900	2784
3	0	0	2655	4	183	900	2787
4	0	0	2607	4	183	900	2790
5	0	0	2595	5	183	900	2794
6	0	0	2601	5	184	900	2796
7	0	0	2588	5	183	900	2797
8	0	0	2565	4	183	900	2796
9	0	0	2557	5	183	900	2792
10	0	0	2553	5	184	900	2785
11	0	0	2534	5	184	900	2783
12	0	0	2512	4	184	899	2784
13	0	0	2489	4	183	900	2786
14	0	0	2482	5	183	900	2791
15	0	0	2478	5	184	900	2793
16	0	0	2471	5	183	901	2796
17	0	0	2477	5	184	900	2797
18	0	0	2513	5	183	900	2796
19	0	0	2572	5	183	900	2792
20	0	0	2632	5	183	900	2785
21	0	0	2664	5	184	900	2783
22	0	0	2672	5	184	900	2784
23	0	0	2689	5	184	900	2787
24	0	0	2691	5	184	899	2790
25	0	0	2675	5	183	900	2793
26	0	0	2664	4	184	900	2796
27	0	0	2633	5	184	900	2797
28	0	0	2625	5	183	900	2796
29	0	0	2605	5	184	900	2792
30	0	0	2575	4	183	900	2785
31	0	0	2550	4	183	900	2783
32	0	0	2542	5	184	900	2784
33	0	0	2530	5	184	900	2787
34	0	0	2521	5	184	900	2790
35	0	0	2533	5	183	899	2793
36	0	0	2571	5	184	900	2796
37	0	0	2606	5	183	900	2797
38	0	0	2627	5	183	900	2795
39	0	0	2615	5	184	900	2793
40	0	0	2599	5	184	900	2785
41	0	0	2614	5	183	900	2782
42	0	0	2681	6	185	900	2783
43	0	0	2714	5	184	900	2786
44	0	0	2708	5	183	899	2790
45	0	0	2696	5	183	900	2793
46	0	0	2678	4	184	900	2796
47	0	0	2637	5	184	900	2797
48	0	0	2574	4	185	900	2796
49	0	0	2546	5	184	900	2792
50	0	0	2543	5	184	900	2786
51	0	0	2544	5	184	899	2784
52	0	0	2594	5	183	900	2784
53	0	0	2630	5	185	900	2787
54	0	0	2648	5	183	900	2790
55	0	0	2645	5	183	900	2793
56	0	0	2629	5	183	900	2796
57	0	0	2622	5	183	900	2797
58	0	0	2619	5	183	900	2796
59	0	0	2670	5	182	900	2792
60	0	0	2742	5	183	900	2785
61	0	0	2769	5	184	900	2782
62	0	0	2754	5	184	900	2784
63	0	0	2718	4	183	900	2786
64	0	0	2706	5	184	899	2790
65	0	0	2714	5	184	900	2793
66	0	0	2703	5	183	900	2796
67	0	0	2647	4	183	900	2797
68	0	0	2591	4	183	900	2796
69	0	0	2570	4	184	900	2793
70	0	0	2551	4	183	900	2786
71	0	0	2566	5	185	899	2783
72	0	0	2613	5	184	900	2784
73	0	0	2655	5	184	900	2786
74	0	0	2673	5	182	900	2790
75	0	0	2688	5	184	900	2793
76	0	0	2699	5	184	900	2796
77	0	0	2694	5	184	900	2797
78	0	0	2667	4	185	900	2795
79	0	0	2663	5	183	900	2792
80	0	0	2671	5	184	900	2785
81	0	0	2713	5	183	900	2782
82	0	0	2767	5	183	900	2784
83	0	0	2786	5	182	900	2787
84	0	0	2769	4	183	900	2790
85	0	0	2738	5	183	900	2793
86	0	0	2731	5	184	900	2796
87	0	0	2746	5	183	899	2797
88	0	0	2741	5	183	900	2795
89	0	0	2740	5	184	899	2792
90	0	0	2704	4	183	900	2785
91	0	0	2620	4	183	900	2782
92	0	0	2533	4	184	900	2783
93	0	0	2523	5	184	900	2786
94	0	0	2561	5	184	900	2790
95	0	0	2629	5	184	900	2793
96	0	0	2728	5	183	900	2796
97	0	0	2805	5	183	900	2797
98	0	0	2838	5	183	900	2795
99	0	0	2822	4	183	899	2792
100	0	0	2769	4	183	900	2785
101	0	0	2751	5	183	900	2782
102	0	0	2794	5	184	900	2783
103	0	0	2847	5	183	901	2786
104	0	0	2898	5	184	900	2790
105	0	0	2949	5	184	900	2794
106	0	0	2961	5	182	900	2795
107	0	0	2916	4	184	900	2796
108	0	0	2840	4	184	900	2795
109	0	0	2757	4	183	900	2792
110	0	0	2686	4	183	900	2785
111	0	0	2636	4	184	900	2783
112	0	0	2613	4	183	900	2783
113	0	0	2640	5	184	900	2785
114	0	0	2724	5	184	900	2790
115	0	0	2772	5	183	899	2792
116	0	0	2795	5	184	899	2796
117	0	0	2828	5	183	900	2796
118	0	0	2848	5	182	901	2795
119	0	0	2849	5	183	900	2792
120	0	0	2855	5	183	899	2785
121	0	0	2847	4	183	899	2782
122	0	0	2847	5	183	900	2783
123	0	0	2853	5	184	900	2786
124	0	0	2831	4	184	900	2790
125	0	0	2796	4	184	900	2793
126	0	0	2766	4	183	900	2796
127	0	0	2756	6	183	900	2796
0	0	0	2787	5	184	900	2796
1	0	0	2804	5	184	900	2792
2	0	0	2803	4	184	899	2785
3	0	0	2810	5	184	899	2782
4	0	0	2830	4	184	900	2784
5	0	0	2825	4	183	900	2785
6	0	0	2813	5	184	900	2790
7	0	0	2842	5	184	900	2793
8	0	0	2860	5	184	899	2795
9	0	0	2849	5	184	900	2797
10	0	0	2873	5	184	900	2796
11	0	0	2896	5	184	900	2792
12	0	0	2938	5	183	899	2785
13	0	0	2966	5	183	899	2783
14	0	0	2968	5	183	900	2784
15	0	0	2957	5	183	900	2785
16	0	0	2976	5	183	900	2790
17	0	0	2999	5	184	900	2792
18	0	0	2989	5	183	900	2795
19	0	0	2958	4	182	900	2797
20	0	0	2916	4	183	900	2796
21	0	0	2872	4	184	899	2792
22	0	0	2844	4	184	900	2785
23	0	0	2835	5	182	900	2783
24	0	0	2867	3	183	900	2784
25	0	0	2866	5	183	900	2787
26	0	0	2855	5	184	900	2790
27	0	0	2887	5	183	900	2792
28	0	0	2922	5	184	900	2795
29	0	0	2924	5	184	899	2796
30	0	0	2938	5	184	900	2796
31	0	0	3008	5	184	900	2792
32	0	0	3070	5	184	900	2786
33	0	0	3100	6	183	900	2782
34	0	0	3080	5	183	900	2783
35	0	0	3043	5	183	900	2786
36	0	0	3034	5	183	900	2789
37	0	0	3044	5	183	900	2792
38	0	0	3020	4	184	900	2796
39	0	0	2989	4	183	900	2797
40	0	0	2968	5	184	900	2795
41	0	0	2976	5	183	899	2793
42	0	0	2960	4	184	900	2786
43	0	0	2920	5	184	900	2782
44	0	0	2916	6	184	900	2783
45	0	0	2932	5	184	900	2787
46	0	0	2940	5	184	900	2789
47	0	0	2959	5	183	900	2792
48	0	0	2993	5	183	900	2796
49	0	0	3032	6	183	900	2796
50	0	0	3073	5	183	900	2795
51	0	0	3096	5	183	899	2792
52	0	0	3103	5	184	900	2785
53	0	0	3096	5	184	900	2782
54	0	0	3065	3	184	900	2783
55	0	0	2994	4	184	900	2786
56	0	0	2931	4	184	899	2789
57	0	0	2903	4	184	900	2793
58	0	0	2893	5	182	900	2795
59	0	0	2883	6	184	900	2796
60	0	0	2873	5	184	900	2796
61	0	0	2871	5	183	899	2793
62	0	0	2875	5	184	900	2786
63	0	0	2874	5	184	900	2783
64	0	0	2889	5	184	900	2784
65	0	0	2889	5	183	900	2786
66	0	0	2911	5	184	900	2789
67	0	0	2930	5	184	900	2792
68	0	0	2913	5	185	900	2795
69	0	0	2920	5	183	900	2796
70	0	0	2930	5	183	900	2795
71	0	0	2934	5	184	899	2792
72	0	0	2940	5	184	900	2785
73	0	0	2949	5	184	900	2782
74	0	0	2954	4	184	900	2783
75	0	0	2960	5	183	901	2785
76	0	0	2927	4	184	899	2789
77	0	0	2846	5	183	900	2793
78	0	0	2791	4	183	900	2795
79	0	0	2786	5	183	900	2796
80	0	0	2791	5	183	900	2795
81	0	0	2785	5	184	899	2792
82	0	0	2775	4	184	900	2786
83	0	0	2751	4	183	900	2783
84	0	0	2712	4	184	900	2784
85	0	0	2700	5	184	900	2786
86	0	0	2726	5	184	900	2789
87	0	0	2759	5	184	900	2792
88	0	0	2799	5	184	899	2796
89	0	0	2819	6	184	899	2796
90	0	0	2816	4	184	900	2795
91	0	0	2796	5	183	899	2792
92	0	0	2784	5	184	899	2786
93	0	0	2781	5	183	900	2782
94	0	0	2770	5	183	900	2783
95	0	0	2763	5	183	900	2786
96	0	0	2763	5	184	899	2789
97	0	0	2731	5	184	900	2792
98	0	0	2694	4	183	900	2796
99	0	0	2692	5	184	900	2796
100	0	0	2725	5	184	900	2795
101	0	0	2757	5	183	899	2792
102	0	0	2757	4	183	900	2786
103	0	0	2702	4	182	900	2782
104	0	0	2655	4	183	900	2783
105	0	0	2656	5	183	900	2786
106	0	0	2679	5	184	899	2789
107	0	0	2732	5	183	900	2792
108	0	0	2769	5	183	900	2796
109	0	0	2726	4	184	900	2797
110	0	0	2670	4	183	900	2796
111	0	0	2658	5	184	899	2792
112	0	0	2688	5	184	899	2786
113	0	0	2720	5	183	900	2782
114	0	0	2710	5	183	900	2783
115	0	0	2669	4	184	900	2785
116	0	0	2622	4	183	900	2789
117	0	0	2595	5	184	899	2792
118	0	0	2632	4	184	900	2795
119	0	0	2704	5	183	900	2796
120	0	0	2734	5	184	900	2795
121	0	0	2723	4	184	899	2792
122	0	0	2675	5	183	900	2787
123	0	0	2638	4	184	900	2782
124	0	0	2657	5	184	900	2783
125	0	0	2692	5	183	900	2786
126	0	0	2721	5	184	900	2789
127	0	0	2746	4	184	900	2793
0	0	0	2736	5	182	900	2795
1	0	0	2699	4	183	899	2796
2	0	0	2652	4	185	900	2795
3	0	0	2624	5	184	899	2792
4	0	0	2628	5	183	900	2785
5	0	0	2670	5	183	900	2783
6	0	0	2731	5	184	900	2782
7	0	0	2760	4	184	900	2785
8	0	0	2755	5	184	900	2788
9	0	0	2742	5	183	900	2792
10	0	0	2705	4	183	900	2795
11	0	0	2634	4	185	900	2796
12	0	0	2549	4	183	900	2796
13	0	0	2518	5	183	899	2793
14	0	0	2562	5	184	900	2787
15	0	0	2598	6	185	899	2782
16	0	0	2603	5	183	899	2783
17	0	0	2589	4	183	900	2786
18	0	0	2574	5	183	900	2789
19	0	0	2586	5	183	900	2792
20	0	0	2629	5	183	900	2796
21	0	0	2667	5	184	900	2796
22	0	0	2675	5	184	900	2795
23	0	0	2677	5	183	900	2792
24	0	0	2678	5	184	900	2786
25	0	0	2668	5	182	901	2782
26	0	0	2665	5	184	900	2782
27	0	0	2678	5	184	900	2785
28	0	0	2712	5	184	900	2789
29	0	0	2730	5	184	900	2792
30	0	0	2707	4	184	900	2796
31	0	0	2653	5	183	900	2796
32	0	0	2623	4	184	900	2796
33	0	0	2618	5	184	900	2793
34	0	0	2609	5	183	900	2786
35	0	0	2601	5	183	900	2782
36	0	0	2625	5	184	900	2783
37	0	0	2591	5	183	900	2786
38	0	0	2562	4	183	899	2789
39	0	0	2559	4	183	900	2793
40	0	0	2584	7	183	900	2795
41	0	0	2626	6	184	900	2796
42	0	0	2619	4	182	900	2795
43	0	0	2585	5	183	900	2792
44	0	0	2620	5	183	900	2786
45	0	0	2680	5	182	900	2782
46	0	0	2696	5	184	900	2783
47	0	0	2663	4	183	900	2785
48	0	0	2629	4	183	900	2789
49	0	0	2601	4	184	900	2792
50	0	0	2572	4	183	900	2796
51	0	0	2532	4	184	900	2797
52	0	0	2507	5	184	900	2796
53	0	0	2517	5	183	899	2793
54	0	0	2565	5	184	900	2786
55	0	0	2562	4	184	900	2783
56	0	0	2534	5	184	900	2783
57	0	0	2509	5	183	900	2785
58	0	0	2502	5	183	899	2789
59	0	0	2526	5	184	900	2792
60	0	0	2564	5	183	900	2795
61	0	0	2617	5	183	900	2796
62	0	0	2665	5	184	900	2796
63	0	0	2681	5	183	899	2793
64	0	0	2671	4	183	900	2787
65	0	0	2655	5	184	900	2782
66	0	0	2615	5	183	900	2783
67	0	0	2603	5	184	900	2785
68	0	0	2605	5	184	899	2789
69	0	0	2568	4	183	900	2792
70	0	0	2491	4	182	900	2795
71	0	0	2435	4	183	900	2796
72	0	0	2428	5	184	900	2796
73	0	0	2440	5	184	900	2793
74	0	0	2452	5	183	900	2786
75	0	0	2449	5	183	900	2783
76	0	0	2470	5	183	900	2783
77	0	0	2500	5	184	900	2786
78	0	0	2529	5	183	899	2789
79	0	0	2554	4	184	900	2793
80	0	0	2564	5	183	899	2795
81	0	0	2550	5	183	900	2796
82	0	0	2554	5	184	900	2796
83	0	0	2557	4	183	899	2793
84	0	0	2577	5	184	900	2786
85	0	0	2635	4	184	900	2783
86	0	0	2683	5	182	900	2782
87	0	0	2672	5	184	900	2785
88	0	0	2622	4	183	899	2789
89	0	0	2575	4	183	900	2792
90	0	0	2536	5	184	900	2795
91	0	0	2518	5	184	900	2796
92	0	0	2513	5	184	900	2796
93	0	0	2504	5	182	900	2793
94	0	0	2472	4	183	900	2787
95	0	0	2414	5	185	899	2783
96	0	0	2370	5	183	900	2783
97	0	0	2383	5	183	900	2785
98	0	0	2417	5	184	899	2789
99	0	0	2421	5	183	900	2792
100	0	0	2399	5	182	900	2795
101	0	0	2424	5	183	900	2796
102	0	0	2467	5	182	900	2795
103	0	0	2483	5	184	900	2793
104	0	0	2475	5	183	900	2786
105	0	0	2460	5	183	900	2783
106	0	0	2480	5	183	900	2783
107	0	0	2533	5	184	900	2785
108	0	0	2549	5	183	900	2789
109	0	0	2499	5	183	900	2792
110	0	0	2454	4	183	900	2796
111	0	0	2442	5	183	900	2797
112	0	0	2445	5	183	900	2796
113	0	0	2466	5	184	900	2794
114	0	0	2478	5	184	900	2787
115	0	0	2446	4	184	900	2784
116	0	0	2404	4	184	900	2784
117	0	0	2369	5	183	900	2785
118	0	0	2329	4	184	900	2789
119	0	0	2318	5	184	900	2792
120	0	0	2346	5	184	900	2795
121	0	0	2400	5	183	900	2796
122	0	0	2416	4	183	900	2796
123	0	0	2411	5	183	900	2793
124	0	0	2442	5	184	899	2786
125	0	0	2487	5	183	900	2782
126	0	0	2542	5	183	900	2783
127	0	0	2584	5	183	900	2785
0	0	0	2563	5	184	900	2789
1	0	0	2476	4	184	900	2793
2	0	0	2371	4	183	900	2795
3	0	0	2308	4	182	900	2797
4	0	0	2320	5	184	900	2797
5	0	0	2358	5	183	900	2793
6	0	0	2402	4	184	900	2787
7	0	0	2429	5	181	900	2783
8	0	0	2437	5	184	900	2783
9	0	0	2437	5	183	900	2786
10	0	0	2435	5	185	900	2789
11	0	0	2435	5	184	900	2792
12	0	0	2417	4	184	900	2795
13	0	0	2379	6	184	899	2796
14	0	0	2376	5	184	900	2796
15	0	0	2423	5	183	900	2793
16	0	0	2464	5	183	900	2787
17	0	0	2485	5	183	899	2783
18	0	0	2476	6	183	900	2783
19	0	0	2436	4	183	900	2786
20	0	0	2400	4	184	900	2790
21	0	0	2365	4	183	900	2793
22	0	0	2363	5	183	900	2796
23	0	0	2393	5	183	901	2798
24	0	0	2423	5	182	900	2796
25	0	0	2420	5	183	900	2794
26	0	0	2393	4	184	900	2787
27	0	0	2357	4	183	900	2783
28	0	0	2322	4	182	900	2783
29	0	0	2311	4	184	900	2786
30	0	0	2321	5	182	900	2789
31	0	0	2349	4	183	900	2792
32	0	0	2370	5	182	900	2795
33	0	0	2375	5	183	900	2797
34	0	0	2380	5	183	900	2796
35	0	0	2415	5	183	900	2794
36	0	0	2436	5	184	900	2787
37	0	0	2455	5	183	900	2783
38	0	0	2479	6	183	900	2784
39	0	0	2489	5	183	900	2786
40	0	0	2496	5	184	900	2789
41	0	0	2488	4	184	900	2793
42	0	0	2485	5	184	900	2796
43	0	0	2519	5	184	900	2797
44	0	0	2521	5	183	900	2796
45	0	0	2462	4	184	900	2794
46	0	0	2402	4	184	900	2788
47	0	0	2355	4	183	900	2784
48	0	0	2330	5	184	900	2783
49	0	0	2335	4	183	900	2786
50	0	0	2358	5	183	900	2789
51	0	0	2377	5	183	900	2793
52	0	0	2383	4	182	901	2796
53	0	0	2390	5	184	900	2797
54	0	0	2394	6	184	900	2797
55	0	0	2403	5	184	900	2794
56	0	0	2404	5	184	900	2787
57	0	0	2411	5	184	900	2783
58	0	0	2420	5	182	900	2784
59	0	0	2412	5	184	900	2786
60	0	0	2402	5	184	900	2790
61	0	0	2372	5	182	900	2792
62	0	0	2324	4	183	900	2795
63	0	0	2300	5	184	900	2797
64	0	0	2328	5	184	900	2797
65	0	0	2355	5	183	900	2794
66	0	0	2380	4	184	901	2788
67	0	0	2384	5	183	900	2783
68	0	0	2394	5	184	900	2784
69	0	0	2419	5	184	900	2786
70	0	0	2438	5	183	900	2789
71	0	0	2443	4	185	900	2793
72	0	0	2403	4	184	899	2796
73	0	0	2355	4	183	900	2797
74	0	0	2340	6	184	900	2796
75	0	0	2375	5	182	900	2793
76	0	0	2412	4	184	900	2787
77	0	0	2431	5	183	900	2783
78	0	0	2431	5	184	900	2783
79	0	0	2426	6	183	900	2786
80	0	0	2423	5	184	900	2789
81	0	0	2425	5	183	900	2792
82	0	0	2406	5	183	900	2795
83	0	0	2382	5	182	901	2797
84	0	0	2381	5	183	900	2796
85	0	0	2359	4	184	900	2794
86	0	0	2318	3	184	900	2788
87	0	0	2270	4	183	901	2784
88	0	0	2210	4	184	900	2784
89	0	0	2162	4	184	900	2786
90	0	0	2165	5	185	900	2789
91	0	0	2234	5	182	900	2792
92	0	0	2322	5	183	900	2795
93	0	0	2405	5	183	900	2797
94	0	0	2450	5	183	900	2796
95	0	0	2472	5	183	900	2793
96	0	0	2471	4	183	900	2787
97	0	0	2446	4	183	900	2783
98	0	0	2413	4	182	900	2784
99	0	0	2403	6	183	900	2786
100	0	0	2446	5	183	900	2789
101	0	0	2493	5	183	900	2792
102	0	0	2476	4	183	900	2796
103	0	0	2411	4	183	900	2798
104	0	0	2349	4	183	900	2797
105	0	0	2307	4	183	900	2794
106	0	0	2273	4	183	900	2788
107	0	0	2258	5	184	900	2784
108	0	0	2256	5	183	900	2784
109	0	0	2254	4	183	900	2786
110	0	0	2263	5	184	900	2789
111	0	0	2281	4	182	900	2793
112	0	0	2295	5	183	899	2796
113	0	0	2296	5	183	900	2797
114	0	0	2285	5	184	900	2796
115	0	0	2294	5	183	900	2794
116	0	0	2311	5	183	900	2788
117	0	0	2345	5	185	900	2783
118	0	0	2387	5	182	900	2784
119	0	0	2400	4	182	900	2786
120	0	0	2377	5	183	900	2789
121	0	0	2348	4	183	900	2793
122	0	0	2341	5	184	900	2796
123	0	0	2345	5	182	900	2797
124	0	0	2328	4	184	900	2797
125	0	0	2288	4	183	900	2794
126	0	0	2249	4	184	900	2788
127	0	0	2215	4	184	900	2784
0	0	0	2225	5	184	900	2783
1	0	0	2238	4	185	900	2786
2	0	0	2240	5	184	900	2789
3	0	0	2251	5	183	900	2792
4	0	0	2269	5	183	900	2796
5	0	0	2290	5	182	900	2797
6	0	0	2313	4	183	900	2796
7	0	0	2331	5	184	900	2794
8	0	0	2334	5	184	900	2788
9	0	0	2339	5	183	900	2784
10	0	0	2332	5	185	900	2784
11	0	0	2320	5	184	900	2786
12	0	0	2335	5	185	900	2789
13	0	0	2349	4	184	900	2793
14	0	0	2357	5	186	900	2795
15	0	0	2324	5	184	900	2797
16	0	0	2261	4	184	900	2797
17	0	0	2236	5	184	900	2794
18	0	0	2213	4	185	900	2788
19	0	0	2190	4	184	900	2784
20	0	0	2199	5	183	900	2784
21	0	0	2223	4	184	900	2786
22	0	0	2240	5	183	900	2789
23	0	0	2251	5	183	900	2793
24	0	0	2272	5	183	900	2796
25	0	0	2328	5	184	900	2797
26	0	0	2375	4	183	900	2797
27	0	0	2355	4	183	900	2794
28	0	0	2348	4	183	900	2789
29	0	0	2369	5	184	900	2784
30	0	0	2357	4	184	900	2784
31	0	0	2312	4	184	900	2786
32	0	0	2278	4	184	900	2789
33	0	0	2289	5	183	899	2792
34	0	0	2315	5	183	900	2796
35	0	0	2307	5	184	899	2797
36	0	0	2257	3	183	900	2797
37	0	0	2200	4	184	900	2794
38	0	0	2185	5	183	899	2788
39	0	0	2184	5	183	900	2784
40	0	0	2217	5	184	900	2784
41	0	0	2275	4	184	900	2786
42	0	0	2310	5	183	900	2790
43	0	0	2342	5	183	900	2793
44	0	0	2341	4	183	900	2796
45	0	0	2298	4	184	900	2798
46	0	0	2287	5	183	900	2797
47	0	0	2327	5	183	900	2794
48	0	0	2354	5	184	900	2789
49	0	0	2353	5	184	900	2783
50	0	0	2339	5	184	900	2784
51	0	0	2328	4	184	900	2786
52	0	0	2282	4	183	900	2789
53	0	0	2268	5	184	900	2793
54	0	0	2279	5	185	900	2796
55	0	0	2276	5	184	900	2797
56	0	0	2254	3	183	900	2797
57	0	0	2220	4	184	899	2795
58	0	0	2227	5	184	900	2789
59	0	0	2246	5	184	900	2784
60	0	0	2259	5	184	899	2784
61	0	0	2254	4	183	900	2786
62	0	0	2252	5	185	900	2790
63	0	0	2266	5	183	900	2793
64	0	0	2255	5	184	900	2796
65	0	0	2234	5	183	900	2798
66	0	0	2243	4	183	900	2797
67	0	0	2292	5	184	900	2795
68	0	0	2328	5	184	901	2789
69	0	0	2341	4	184	900	2784
70	0	0	2314	5	182	899	2784
71	0	0	2289	4	183	900	2786
72	0	0	2300	5	184	900	2790
73	0	0	2301	5	183	900	2793
74	0	0	2259	4	184	900	2796
75	0	0	2211	4	184	900	2798
76	0	0	2195	4	183	900	2797
77	0	0	2194	5	183	900	2795
78	0	0	2192	5	184	900	2789
79	0	0	2176	5	183	900	2784
80	0	0	2184	5	184	900	2784
81	0	0	2231	5	183	900	2787
82	0	0	2285	5	183	900	2789
83	0	0	2309	5	185	900	2793
84	0	0	2310	5	184	900	2796
85	0	0	2308	5	184	900	2797
86	0	0	2323	4	182	900	2797
87	0	0	2368	5	183	900	2795
88	0	0	2409	5	183	900	2789
89	0	0	2440	5	183	900	2785
90	0	0	2442	5	183	900	2784
91	0	0	2415	4	183	900	2787
92	0	0	2365	4	183	900	2790
93	0	0	2334	4	184	900	2793
94	0	0	2304	4	184	900	2796
95	0	0	2272	4	184	900	2798
96	0	0	2238	4	184	900	2798
97	0	0	2215	4	184	900	2795
98	0	0	2207	5	185	900	2789
99	0	0	2218	5	184	900	2785
100	0	0	2224	5	184	900	2785
101	0	0	2227	4	183	900	2786
102	0	0	2274	5	183	900	2790
103	0	0	2290	5	183	900	2793
104	0	0	2296	5	184	900	2796
105	0	0	2303	5	183	900	2798
106	0	0	2289	4	183	900	2797
107	0	0	2274	5	183	900	2795
108	0	0	2293	5	184	900	2789
109	0	0	2305	5	183	900	2784
110	0	0	2300	5	184	900	2784
111	0	0	2310	5	183	900	2787
112	0	0	2341	5	184	900	2790
113	0	0	2351	5	183	900	2794
114	0	0	2316	4	183	900	2796
115	0	0	2300	5	185	900	2797
116	0	0	2305	5	182	900	2798
117	0	0	2293	4	183	900	2795
118	0	0	2277	5	183	901	2789
119	0	0	2303	4	184	900	2785
120	0	0	2306	5	183	900	2784
121	0	0	2321	5	184	900	2787
122	0	0	2335	4	182	900	2790
123	0	0	2287	4	184	900	2793
124	0	0	2237	4	183	900	2796
125	0	0	2212	5	183	900	2798
126	0	0	2221	5	184	900	2798
127	0	0	2249	5	183	900	2796
0	0	0	2276	5	182	900	2790
1	0	0	2302	5	183	900	2785
2	0	0	2338	5	182	900	2785
3	0	0	2337	5	183	900	2787
4	0	0	2293	4	184	900	2790
5	0	0	2219	4	183	900	2793
6	0	0	2159	4	183	900	2796
7	0	0	2135	4	184	900	2798
8	0	0	2117	3	184	900	2798
9	0	0	2121	5	184	900	2796
10	0	0	2142	5	182	900	2790
11	0	0	2176	6	184	900	2785
12	0	0	2213	5	184	900	2784
13	0	0	2190	3	184	900	2787
14	0	0	2205	5	183	900	2790
15	0	0	2264	5	183	900	2793
16	0	0	2285	4	184	900	2796
17	0	0	2271	5	183	900	2798
18	0	0	2262	5	183	900	2798
19	0	0	2236	4	184	900	2795
20	0	0	2204	4	183	900	2790
21	0	0	2196	5	183	900	2785
22	0	0	2208	5	184	900	2784
23	0	0	2234	4	183	900	2786
24	0	0	2257	5	182	900	2790
25	0	0	2266	5	183	900	2793
26	0	0	2281	5	183	900	2797
27	0	0	2251	4	183	900	2799
28	0	0	2189	3	184	900	2798
29	0	0	2151	5	183	900	2795
30	0	0	2154	6	182	900	2790
31	0	0	2167	5	184	900	2785
32	0	0	2177	5	184	900	2785
33	0	0	2188	5	183	900	2787
34	0	0	2197	5	183	900	2790
35	0	0	2217	5	184	900	2794
36	0	0	2248	5	183	901	2796
37	0	0	2259	5	184	900	2798
38	0	0	2232	3	183	900	2798
39	0	0	2202	4	183	900	2795
40	0	0	2194	5	183	900	2790
41	0	0	2206	6	183	900	2785
42	0	0	2213	5	183	900	2784
43	0	0	2206	4	182	900	2786
44	0	0	2232	5	183	900	2789
45	0	0	2266	5	184	900	2793
46	0	0	2271	5	182	900	2796
47	0	0	2246	4	184	900	2798
48	0	0	2231	5	184	900	2799
49	0	0	2255	5	183	900	2796
50	0	0	2294	5	183	900	2791
51	0	0	2304	5	184	900	2785
52	0	0	2291	5	186	900	2784
53	0	0	2245	4	184	900	2787
54	0	0	2188	4	183	900	2789
55	0	0	2177	4	184	900	2793
56	0	0	2198	5	183	899	2796
57	0	0	2186	4	184	900	2798
58	0	0	2164	4	183	900	2798
59	0	0	2161	5	184	900	2796
60	0	0	2205	5	183	900	2790
61	0	0	2277	5	183	900	2785
62	0	0	2311	5	184	900	2784
63	0	0	2288	4	183	900	2787
64	0	0	2232	4	183	900	2789
65	0	0	2181	4	184	900	2793
66	0	0	2163	5	184	899	2797
67	0	0	2146	5	184	900	2798
68	0	0	2136	4	184	900	2798
69	0	0	2144	5	183	900	2796
70	0	0	2128	4	183	900	2790
71	0	0	2087	4	184	899	2785
72	0	0	2079	5	183	900	2784
73	0	0	2119	5	182	900	2787
74	0	0	2192	5	184	900	2789
75	0	0	2224	5	183	900	2793
76	0	0	2244	5	183	899	2797
77	0	0	2285	5	182	900	2799
78	0	0	2304	4	183	900	2798
79	0	0	2332	5	183	900	2796
80	0	0	2307	5	183	900	2790
81	0	0	2275	4	184	900	2785
82	0	0	2291	5	183	900	2784
83	0	0	2331	4	183	900	2787
84	0	0	2361	5	184	900	2790
85	0	0	2354	6	182	900	2793
86	0	0	2357	5	184	900	2796
87	0	0	2401	5	181	900	2798
88	0	0	2446	5	182	900	2798
89	0	0	2481	5	184	899	2795
90	0	0	2502	5	183	900	2791
91	0	0	2518	5	184	900	2786
92	0	0	2549	5	184	900	2784
93	0	0	2606	4	184	900	2787
94	0	0	2681	5	184	900	2790
95	0	0	2774	5	184	900	2793
96	0	0	2891	5	184	899	2797
97	0	0	3011	5	184	900	2799
98	0	0	3098	5	183	900	2798
99	0	0	3153	5	184	900	2796
100	0	0	3186	5	183	899	2790
101	0	0	3210	6	183	899	2785
102	0	0	3202	5	183	900	2785
103	0	0	3194	4	183	900	2787
104	0	0	3221	5	184	900	2789
105	0	0	3265	5	183	900	2793
106	0	0	3277	5	183	900	2796
107	0	0	3259	5	182	900	2798
108	0	0	3229	5	184	900	2798
109	0	0	3175	4	184	900	2796
110	0	0	3115	4	183	900	2790
111	0	0	3030	4	185	900	2785
112	0	0	2934	4	184	900	2785
113	0	0	2824	4	183	900	2787
114	0	0	2709	4	183	900	2790
115	0	0	2643	4	185	900	2793
116	0	0	2579	4	183	900	2796
117	0	0	2487	4	183	899	2798
118	0	0	2416	4	184	900	2798
119	0	0	2341	4	183	900	2796
120	0	0	2261	4	184	900	2791
121	0	0	2191	4	183	900	2785
122	0	0	2169	5	183	900	2784
123	0	0	2173	5	184	900	2787
124	0	0	2120	4	183	900	2789
125	0	0	2059	3	183	900	2793
126	0	0	2029	4	183	900	2797
127	0	0	2024	5	185	899	2798
0	0	0	2002	4	184	900	2798
1	0	0	1965	4	183	900	2796
2	0	0	1922	4	183	900	2791
3	0	0	1857	4	183	900	2785
4	0	0	1780	4	184	899	2784
5	0	0	1728	4	183	900	2787
6	0	0	1741	5	183	900	2789
7	0	0	1824	5	184	900	2793
8	0	0	1926	5	183	900	2796
9	0	0	2000	5	183	900	2798
10	0	0	2030	5	183	900	2798
11	0	0	2026	4	183	900	2795
12	0	0	1994	4	183	900	2791
13	0	0	1958	4	183	900	2785
14	0	0	1949	5	183	900	2784
15	0	0	1960	5	183	900	2786
16	0	0	1991	5	183	900	2789
17	0	0	2022	5	184	900	2793
18	0	0	2056	6	184	900	2796
19	0	0	2078	5	185	900	2798
20	0	0	2080	5	183	900	2798
21	0	0	2039	4	183	900	2796
22	0	0	1998	4	184	900	2791
23	0	0	1952	4	184	900	2785
24	0	0	1943	5	184	900	2785
25	0	0	1961	5	183	900	2787
26	0	0	2004	5	183	900	2789
27	0	0	2041	5	183	900	2793
28	0	0	2080	5	186	900	2796
29	0	0	2120	5	185	900	2798
30	0	0	2157	5	184	900	2798
31	0	0	2185	5	183	900	2796
32	0	0	2214	5	182	899	2790
33	0	0	2211	5	183	900	2785
34	0	0	2187	4	183	900	2785
35	0	0	2173	4	183	900	2787
36	0	0	2161	5	184	900	2789
37	0	0	2158	5	183	900	2794
38	0	0	2142	4	184	900	2796
39	0	0	2085	4	184	900	2798
40	0	0	2038	4	183	900	2798
41	0	0	2014	4	182	900	2796
42	0	0	1986	4	185	900	2791
43	0	0	1992	5	183	900	2785
44	0	0	2029	5	184	899	2784
45	0	0	2069	5	184	900	2786
46	0	0	2102	5	184	900	2789
47	0	0	2153	5	184	899	2792
48	0	0	2184	4	183	900	2796
49	0	0	2163	4	183	900	2798
50	0	0	2134	4	183	900	2798
51	0	0	2139	5	183	900	2796
52	0	0	2187	4	185	900	2791
53	0	0	2264	5	183	900	2785
54	0	0	2299	5	185	900	2784
55	0	0	2265	4	183	900	2787
56	0	0	2197	4	182	900	2789
57	0	0	2159	4	183	900	2793
58	0	0	2150	5	183	900	2796
59	0	0	2164	4	184	900	2799
60	0	0	2158	4	184	900	2798
61	0	0	2131	4	185	900	2796
62	0	0	2106	4	183	900	2791
63	0	0	2093	4	183	900	2785
64	0	0	2059	4	184	900	2784
65	0	0	2045	5	183	900	2787
66	0	0	2075	5	184	900	2789
67	0	0	2122	4	184	900	2793
68	0	0	2176	6	183	900	2796
69	0	0	2218	5	183	900	2798
70	0	0	2230	5	183	900	2798
71	0	0	2220	5	184	900	2796
72	0	0	2202	5	183	900	2791
73	0	0	2195	6	183	900	2785
74	0	0	2182	5	184	899	2784
75	0	0	2166	5	182	900	2786
76	0	0	2145	4	182	900	2789
77	0	0	2129	5	183	900	2793
78	0	0	2115	4	184	900	2796
79	0	0	2122	5	183	899	2798
80	0	0	2134	5	182	900	2798
81	0	0	2111	4	184	900	2796
82	0	0	2067	4	185	900	2791
83	0	0	2055	5	183	900	2785
84	0	0	2070	5	184	900	2785
85	0	0	2102	5	183	900	2787
86	0	0	2128	5	183	900	2789
87	0	0	2140	5	184	900	2793
88	0	0	2177	4	182	900	2796
89	0	0	2209	5	184	899	2798
90	0	0	2222	5	182	900	2798
91	0	0	2225	5	183	900	2796
92	0	0	2226	5	184	900	2791
93	0	0	2220	5	182	900	2785
94	0	0	2218	5	184	900	2784
95	0	0	2191	4	184	900	2786
96	0	0	2137	4	183	900	2789
97	0	0	2094	4	184	900	2792
98	0	0	2082	4	183	900	2796
99	0	0	2067	4	184	900	2798
100	0	0	2040	5	182	900	2798
101	0	0	2035	5	184	900	2797
102	0	0	2024	5	184	900	2791
103	0	0	1999	5	184	900	2786
104	0	0	2027	5	184	900	2785
105	0	0	2070	5	184	900	2787
106	0	0	2084	5	183	900	2789
107	0	0	2124	5	183	900	2793
108	0	0	2185	4	184	900	2796
109	0	0	2226	5	185	899	2798
110	0	0	2238	5	183	900	2798
111	0	0	2230	5	183	899	2796
112	0	0	2239	4	182	900	2791
113	0	0	2234	5	184	900	2785
114	0	0	2207	4	185	900	2784
115	0	0	2186	4	184	900	2787
116	0	0	2182	5	183	900	2789
117	0	0	2168	4	184	900	2793
118	0	0	2143	4	184	900	2796
119	0	0	2139	4	183	900	2798
120	0	0	2179	5	183	900	2798
121	0	0	2191	4	184	900	2796
122	0	0	2208	5	183	900	2791
123	0	0	2229	5	183	900	2785
124	0	0	2200	4	184	900	2784
125	0	0	2139	4	184	900	2786
126	0	0	2090	4	184	900	2790
127	0	0	2080	6	183	900	2792
0	0	0	2113	4	184	900	2796
1	0	0	2139	5	182	900	2798
2	0	0	2179	5	184	900	2798
3	0	0	2248	5	184	900	2796
4	0	0	2267	4	182	900	2791
5	0	0	2241	5	184	900	2786
6	0	0	2246	5	183	900	2785
7	0	0	2238	4	183	900	2786
8	0	0	2231	5	183	900	2790
9	0	0	2238	5	183	900	2793
10	0	0	2228	4	183	900	2796
11	0	0	2188	4	184	900	2798
12	0	0	2139	4	183	900	2798
13	0	0	2112	4	183	900	2796
14	0	0	2116	5	183	900	2792
15	0	0	2137	5	185	899	2785
16	0	0	2137	5	183	899	2784
17	0	0	2176	4	183	900	2786
18	0	0	2235	5	184	900	2790
19	0	0	2241	5	184	900	2792
20	0	0	2215	4	183	900	2796
21	0	0	2183	4	183	899	2798
22	0	0	2175	5	184	900	2798
23	0	0	2198	5	184	900	2796
24	0	0	2231	5	183	900	2791
25	0	0	2242	4	184	900	2785
26	0	0	2223	4	184	899	2784
27	0	0	2221	5	183	900	2786
28	0	0	2239	5	182	900	2789
29	0	0	2266	5	183	900	2793
30	0	0	2272	5	183	900	2796
31	0	0	2249	4	183	900	2798
32	0	0	2221	4	184	900	2798
33	0	0	2181	4	183	900	2796
34	0	0	2159	4	183	900	2792
35	0	0	2154	5	184	900	2786
36	0	0	2161	5	183	899	2784
37	0	0	2185	5	182	900	2787
38	0	0	2201	5	184	900	2789
39	0	0	2214	5	183	900	2792
40	0	0	2227	5	184	900	2796
41	0	0	2235	5	184	900	2798
42	0	0	2238	5	182	900	2798
43	0	0	2249	5	183	900	2796
44	0	0	2285	5	183	900	2791
45	0	0	2332	4	183	900	2785
46	0	0	2370	5	185	900	2784
47	0	0	2339	5	184	900	2786
48	0	0	2323	5	183	900	2790
49	0	0	2311	4	183	900	2792
50	0	0	2271	4	184	900	2796
51	0	0	2235	4	184	900	2798
52	0	0	2222	5	182	900	2798
53	0	0	2258	5	183	899	2796
54	0	0	2314	5	184	900	2791
55	0	0	2349	4	184	900	2786
56	0	0	2319	4	185	900	2784
57	0	0	2282	5	184	900	2787
58	0	0	2287	5	183	900	2789
59	0	0	2335	5	184	900	2793
60	0	0	2381	4	184	900	2796
61	0	0	2384	4	184	900	2798
62	0	0	2389	5	184	900	2799
63	0	0	2442	5	183	900	2796
64	0	0	2480	4	183	900	2792
65	0	0	2471	5	182	900	2786
66	0	0	2436	4	183	899	2784
67	0	0	2408	4	183	900	2786
68	0	0	2377	4	183	900	2789
69	0	0	2321	4	183	900	2793
70	0	0	2273	4	183	900	2796
71	0	0	2257	5	184	900	2798
72	0	0	2288	5	182	900	2798
73	0	0	2300	5	183	900	2796
74	0	0	2271	5	185	900	2792
75	0	0	2256	5	183	900	2786
76	0	0	2263	5	184	900	2784
77	0	0	2298	5	185	900	2787
78	0	0	2311	5	184	900	2789
79	0	0	2288	4	183	900	2793
80	0	0	2274	5	185	900	2796
81	0	0	2282	5	183	900	2798
82	0	0	2304	5	184	900	2798
83	0	0	2300	5	184	900	2797
84	0	0	2305	5	183	900	2791
85	0	0	2331	5	184	900	2786
86	0	0	2377	5	183	900	2785
87	0	0	2383	5	184	900	2786
88	0	0	2345	4	184	900	2789
89	0	0	2306	3	184	900	2792
90	0	0	2314	5	183	900	2796
91	0	0	2337	5	183	900	2798
92	0	0	2318	5	185	900	2799
93	0	0	2244	4	183	900	2796
94	0	0	2178	4	184	900	2792
95	0	0	2143	4	183	900	2786
96	0	0	2152	5	185	900	2784
97	0	0	2182	5	184	900	2786
98	0	0	2193	5	183	900	2789
99	0	0	2186	5	183	900	2792
100	0	0	2217	5	184	900	2796
101	0	0	2269	5	183	900	2798
102	0	0	2307	5	185	900	2798
103	0	0	2315	5	183	900	2797
104	0	0	2278	4	183	900	2791
105	0	0	2240	4	183	900	2786
106	0	0	2204	4	184	900	2784
107	0	0	2164	4	184	900	2786
108	0	0	2138	4	183	900	2789
109	0	0	2125	4	183	900	2793
110	0	0	2124	5	184	900	2796
111	0	0	2136	5	184	900	2798
112	0	0	2144	5	184	900	2799
113	0	0	2135	5	184	900	2796
114	0	0	2108	4	183	900	2792
115	0	0	2101	5	183	901	2786
116	0	0	2104	4	184	900	2784
117	0	0	2107	5	183	900	2786
118	0	0	2100	5	183	900	2789
119	0	0	2108	5	183	900	2792
120	0	0	2139	5	183	900	2796
121	0	0	2134	4	183	900	2798
122	0	0	2125	6	185	900	2798
123	0	0	2125	5	183	899	2796
124	0	0	2152	4	183	900	2792
125	0	0	2183	5	183	900	2786
126	0	0	2171	4	184	900	2784
127	0	0	2149	5	184	900	2786
0	0	0	2144	5	183	900	2788
1	0	0	2138	4	183	900	2792
2	0	0	2153	5	184	900	2796
3	0	0	2150	4	184	900	2798
4	0	0	2097	4	185	900	2799
5	0	0	2039	4	184	900	2796
6	0	0	2001	4	183	900	2792
7	0	0	1981	4	184	901	2786
8	0	0	1995	5	183	900	2784
9	0	0	2032	5	183	900	2786
10	0	0	2046	5	184	900	2788
11	0	0	2057	5	184	900	2792
12	0	0	2070	5	183	900	2796
13	0	0	2113	5	183	900	2798
14	0	0	2128	5	183	899	2798
15	0	0	2149	5	183	900	2796
16	0	0	2170	4	184	900	2792
17	0	0	2179	5	182	900	2786
18	0	0	2146	4	183	900	2784
19	0	0	2104	4	183	900	2786
20	0	0	2084	5	183	900	2789
21	0	0	2080	5	184	900	2792
22	0	0	2043	4	185	900	2796
23	0	0	2014	4	184	900	2798
24	0	0	1985	4	183	900	2798
25	0	0	1971	5	183	900	2796
26	0	0	1979	5	182	900	2793
27	0	0	1972	5	184	900	2786
28	0	0	1980	5	183	900	2784
29	0	0	1983	5	183	900	2786
30	0	0	1971	5	184	900	2789
31	0	0	1975	5	183	900	2792
32	0	0	2001	5	184	900	2796
33	0	0	2030	5	184	900	2798
34	0	0	2046	5	183	900	2799
35	0	0	2077	5	183	900	2797
36	0	0	2102	6	182	900	2792
37	0	0	2110	5	184	900	2786
38	0	0	2119	5	184	900	2784
39	0	0	2106	5	184	900	2786
40	0	0	2070	4	184	900	2788
41	0	0	2024	4	184	900	2792
42	0	0	1998	4	184	900	2796
43	0	0	2001	5	182	900	2798
44	0	0	2008	5	182	900	2799
45	0	0	2012	5	183	900	2796
46	0	0	1974	4	183	899	2792
47	0	0	1939	4	184	900	2786
48	0	0	1937	5	184	900	2785
49	0	0	1970	5	183	900	2787
50	0	0	1977	5	183	900	2789
51	0	0	1983	4	182	900	2793
52	0	0	2004	5	184	901	2796
53	0	0	2040	4	183	900	2798
54	0	0	2091	5	183	900	2798
55	0	0	2141	5	184	900	2796
56	0	0	2189	5	183	900	2792
57	0	0	2211	5	184	900	2786
58	0	0	2180	4	184	900	2784
59	0	0	2118	4	182	900	2786
60	0	0	2056	4	184	900	2789
61	0	0	2029	5	184	900	2792
62	0	0	2042	5	184	900	2796
63	0	0	2051	5	184	900	2799
64	0	0	2030	4	184	900	2799
65	0	0	2000	5	184	900	2797
66	0	0	1994	5	183	900	2792
67	0	0	2007	5	183	900	2786
68	0	0	2029	5	183	900	2784
69	0	0	2027	5	183	900	2786
70	0	0	2027	5	184	900	2789
71	0	0	2036	4	182	900	2793
72	0	0	2062	4	183	901	2796
73	0	0	2105	5	182	900	2798
74	0	0	2148	5	182	900	2798
75	0	0	2175	5	183	900	2796
76	0	0	2150	4	184	900	2792
77	0	0	2097	4	182	900	2786
78	0	0	2063	4	184	899	2784
79	0	0	2061	5	182	899	2786
80	0	0	2073	5	183	900	2789
81	0	0	2073	5	184	900	2792
82	0	0	2033	4	184	900	2796
83	0	0	1995	4	183	900	2798
84	0	0	2005	5	183	900	2799
85	0	0	2017	5	184	900	2797
86	0	0	2021	7	182	900	2792
87	0	0	2022	5	184	900	2786
88	0	0	2035	5	183	900	2785
89	0	0	2044	5	183	900	2786
90	0	0	2055	5	184	900	2789
91	0	0	2060	5	184	900	2792
92	0	0	2058	5	182	900	2795
93	0	0	2038	4	183	900	2798
94	0	0	2031	5	183	900	2799
95	0	0	2044	5	184	900	2796
96	0	0	2043	5	184	900	2793
97	0	0	2060	4	184	900	2786
98	0	0	2087	5	184	900	2785
99	0	0	2110	5	184	900	2786
100	0	0	2132	5	184	900	2789
101	0	0	2136	4	183	900	2792
102	0	0	2082	4	183	900	2796
103	0	0	2030	5	184	901	2798
104	0	0	2012	5	183	900	2799
105	0	0	1999	4	184	900	2796
106	0	0	1964	4	184	900	2793
107	0	0	1928	4	183	900	2786
108	0	0	1929	5	183	900	2784
109	0	0	1933	5	183	900	2786
110	0	0	1910	4	184	900	2788
111	0	0	1893	5	184	900	2792
112	0	0	1912	4	183	900	2796
113	0	0	1964	5	183	900	2798
114	0	0	2069	5	183	900	2799
115	0	0	2152	5	184	900	2797
116	0	0	2185	5	183	900	2792
117	0	0	2183	4	183	900	2786
118	0	0	2171	5	183	900	2785
119	0	0	2186	5	183	900	2786
120	0	0	2172	4	183	900	2789
121	0	0	2119	5	183	900	2792
122	0	0	2083	4	183	900	2795
123	0	0	2087	5	184	900	2798
124	0	0	2086	5	184	900	2799
125	0	0	2089	5	183	900	2797
126	0	0	2071	4	184	900	2792
127	0	0	2032	4	185	900	2786
0	0	0	1999	5	183	899	2784
1	0	0	2035	5	183	900	2786
2	0	0	2110	5	184	900	2789
3	0	0	2151	7	183	900	2792
4	0	0	2155	5	184	900	2796
5	0	0	2146	5	184	900	2798
6	0	0	2109	4	183	900	2799
7	0	0	2075	4	183	900	2797
8	0	0	2050	4	183	900	2793
9	0	0	2040	5	182	901	2786
10	0	0	2045	5	182	901	2784
11	0	0	2048	5	183	900	2786
12	0	0	2086	5	184	900	2788
13	0	0	2138	5	184	900	2792
14	0	0	2150	4	184	900	2795
15	0	0	2139	5	184	899	2798
16	0	0	2091	4	184	899	2799
17	0	0	2033	4	184	900	2797
18	0	0	2008	5	183	900	2793
19	0	0	2018	5	183	900	2786
20	0	0	2006	4	185	901	2785
21	0	0	1967	4	183	900	2787
22	0	0	1978	5	183	900	2789
23	0	0	2010	5	183	900	2793
24	0	0	2008	4	184	900	2796
25	0	0	2003	5	184	899	2798
26	0	0	2036	5	182	900	2799
27	0	0	2112	5	182	900	2797
28	0	0	2180	5	183	900	2792
29	0	0	2211	5	184	900	2786
30	0	0	2205	4	184	900	2785
31	0	0	2164	4	183	900	2786
32	0	0	2139	4	183	900	2788
33	0	0	2117	4	184	900	2792
34	0	0	2109	5	184	900	2796
35	0	0	2094	4	183	901	2798
36	0	0	2061	4	183	900	2799
37	0	0	2040	5	183	900	2797
38	0	0	2049	5	184	900	2794
39	0	0	2062	5	184	900	2787
40	0	0	2044	5	183	900	2785
41	0	0	2037	5	183	900	2786
42	0	0	2043	5	183	900	2789
43	0	0	2042	5	183	899	2792
44	0	0	2050	5	183	900	2795
45	0	0	2043	5	184	901	2798
46	0	0	2040	5	183	900	2799
47	0	0	2065	5	183	900	2797
48	0	0	2118	5	183	900	2793
49	0	0	2158	5	183	900	2786
50	0	0	2150	4	182	900	2784
51	0	0	2137	5	183	900	2786
52	0	0	2142	5	183	900	2789
53	0	0	2130	5	183	900	2792
54	0	0	2112	5	184	900	2796
55	0	0	2117	5	183	900	2798
56	0	0	2119	5	183	900	2799
57	0	0	2116	5	184	900	2798
58	0	0	2089	4	181	900	2793
59	0	0	2035	3	184	900	2787
60	0	0	1986	4	185	900	2785
61	0	0	1998	5	183	900	2786
62	0	0	2041	5	183	900	2789
63	0	0	2072	5	184	900	2792
64	0	0	2099	5	184	900	2795
65	0	0	2120	5	183	900	2798
66	0	0	2099	4	184	900	2799
67	0	0	2099	5	183	900	2797
68	0	0	2141	5	184	900	2793
69	0	0	2163	5	184	900	2787
70	0	0	2156	5	184	901	2785
71	0	0	2124	4	183	900	2786
72	0	0	2105	5	183	900	2789
73	0	0	2090	4	183	900	2792
74	0	0	2046	4	183	900	2796
75	0	0	2012	5	184	900	2798
76	0	0	2039	5	182	900	2799
77	0	0	2115	5	183	899	2797
78	0	0	2179	5	184	900	2793
79	0	0	2173	4	184	900	2787
80	0	0	2181	5	183	900	2785
81	0	0	2206	5	183	900	2786
82	0	0	2209	5	184	900	2788
83	0	0	2191	5	183	900	2792
84	0	0	2172	4	183	900	2796
85	0	0	2168	5	183	900	2799
86	0	0	2190	5	181	900	2799
87	0	0	2217	5	183	900	2797
88	0	0	2200	5	184	900	2793
89	0	0	2173	4	184	900	2787
90	0	0	2143	5	183	900	2785
91	0	0	2110	4	184	900	2786
92	0	0	2103	5	184	900	2789
93	0	0	2113	5	183	900	2792
94	0	0	2143	4	184	900	2795
95	0	0	2168	4	183	900	2798
96	0	0	2166	5	184	900	2799
97	0	0	2152	5	184	900	2797
98	0	0	2121	4	184	900	2794
99	0	0	2083	4	183	900	2787
100	0	0	2061	4	184	900	2784
101	0	0	2059	5	182	900	2787
102	0	0	2071	5	184	900	2789
103	0	0	2062	4	183	900	2792
104	0	0	2080	3	184	900	2796
105	0	0	2085	4	183	900	2799
106	0	0	2098	5	183	900	2799
107	0	0	2153	5	182	900	2797
108	0	0	2205	5	184	900	2794
109	0	0	2214	5	183	900	2787
110	0	0	2219	5	184	900	2784
111	0	0	2234	5	184	900	2786
112	0	0	2209	4	184	900	2788
113	0	0	2160	4	184	900	2793
114	0	0	2123	4	183	900	2795
115	0	0	2102	4	183	900	2798
116	0	0	2094	5	184	900	2799
117	0	0	2123	5	183	900	2798
118	0	0	2175	5	184	900	2793
119	0	0	2184	5	184	900	2787
120	0	0	2141	4	184	900	2785
121	0	0	2103	4	182	900	2786
122	0	0	2062	4	183	900	2789
123	0	0	2044	5	183	900	2792
124	0	0	2055	4	184	900	2796
125	0	0	2105	5	183	900	2798
126	0	0	2153	5	182	900	2799
127	0	0	2171	5	184	900	2797
0	0	0	2162	5	183	900	2793
1	0	0	2164	5	182	900	2786
2	0	0	2180	5	183	900	2784
3	0	0	2200	5	184	900	2786
4	0	0	2222	5	184	900	2788
5	0	0	2178	4	184	900	2793
6	0	0	2096	4	183	900	2796
7	0	0	2044	4	183	900	2798
8	0	0	2015	4	184	900	2799
9	0	0	1999	5	183	900	2797
10	0	0	2032	5	184	900	2794
11	0	0	2060	5	185	900	2788
12	0	0	2087	5	184	900	2785
13	0	0	2102	5	184	900	2786
14	0	0	2106	5	184	900	2788
15	0	0	2129	5	183	900	2792
16	0	0	2133	5	183	900	2795
17	0	0	2125	5	184	901	2798
18	0	0	2147	5	183	900	2799
19	0	0	2184	5	184	900	2797
20	0	0	2237	5	184	900	2794
21	0	0	2291	5	183	900	2787
22	0	0	2329	5	183	900	2784
23	0	0	2297	4	183	900	2786
24	0	0	2238	4	182	900	2789
25	0	0	2196	4	183	900	2792
26	0	0	2182	4	183	900	2796
27	0	0	2168	4	184	900	2799
28	0	0	2124	4	184	900	2799
29	0	0	2071	4	184	900	2797
30	0	0	2066	5	184	900	2794
31	0	0	2112	5	183	900	2787
32	0	0	2108	4	183	900	2785
33	0	0	2053	4	184	900	2786
34	0	0	1994	4	184	900	2788
35	0	0	1973	5	184	901	2792
36	0	0	2010	3	183	900	2796
37	0	0	2076	5	183	900	2798
38	0	0	2127	4	184	900	2799
39	0	0	2169	5	184	900	2798
40	0	0	2213	5	183	899	2793
41	0	0	2253	5	184	900	2787
42	0	0	2246	5	183	900	2785
43	0	0	2206	4	185	900	2786
44	0	0	2176	4	183	900	2789
45	0	0	2168	5	184	900	2792
46	0	0	2179	5	183	900	2796
47	0	0	2164	5	183	900	2798
48	0	0	2142	4	183	900	2799
49	0	0	2113	4	184	900	2797
50	0	0	2101	5	184	900	2794
51	0	0	2081	3	184	900	2787
52	0	0	2046	4	185	900	2785
53	0	0	2042	5	184	900	2786
54	0	0	2062	5	184	900	2788
55	0	0	2081	5	184	900	2792
56	0	0	2117	6	184	900	2796
57	0	0	2155	5	183	900	2798
58	0	0	2182	5	184	899	2799
59	0	0	2195	5	185	900	2798
60	0	0	2179	4	185	900	2794
61	0	0	2169	5	184	900	2787
62	0	0	2191	5	184	900	2785
63	0	0	2219	5	184	900	2786
64	0	0	2205	4	183	900	2788
65	0	0	2127	4	183	900	2792
66	0	0	2104	5	183	900	2795
67	0	0	2131	5	184	900	2798
68	0	0	2163	5	184	900	2799
69	0	0	2153	5	183	899	2797
70	0	0	2113	4	184	900	2794
71	0	0	2080	4	184	900	2787
72	0	0	2035	4	183	900	2785
73	0	0	2030	5	183	900	2786
74	0	0	2050	5	184	900	2788
75	0	0	2076	5	183	900	2792
76	0	0	2118	5	184	900	2795
77	0	0	2172	5	183	900	2798
78	0	0	2191	5	184	900	2799
79	0	0	2199	5	183	900	2797
80	0	0	2229	5	183	900	2794
81	0	0	2246	5	184	900	2788
82	0	0	2239	4	183	900	2784
83	0	0	2201	4	184	900	2786
84	0	0	2170	4	184	900	2788
85	0	0	2161	5	183	900	2791
86	0	0	2150	5	184	900	2795
87	0	0	2153	5	184	900	2798
88	0	0	2179	5	183	899	2799
89	0	0	2193	5	183	900	2797
90	0	0	2174	4	183	900	2794
91	0	0	2127	4	184	900	2787
92	0	0	2102	4	183	900	2785
93	0	0	2064	4	182	899	2786
94	0	0	2004	4	184	900	2789
95	0	0	1964	4	185	900	2792
96	0	0	1962	5	182	900	2796
97	0	0	2006	5	183	900	2799
98	0	0	2100	5	183	900	2799
99	0	0	2188	5	183	900	2797
100	0	0	2249	5	183	900	2794
101	0	0	2277	5	183	900	2787
102	0	0	2253	4	183	900	2785
103	0	0	2226	5	184	899	2786
104	0	0	2239	5	183	900	2788
105	0	0	2266	5	184	900	2793
106	0	0	2296	5	185	900	2796
107	0	0	2307	4	184	900	2798
108	0	0	2288	4	184	900	2800
109	0	0	2247	4	183	900	2798
110	0	0	2193	4	184	900	2794
111	0	0	2138	4	185	900	2788
112	0	0	2102	5	183	900	2785
113	0	0	2139	5	184	900	2786
114	0	0	2178	5	185	899	2788
115	0	0	2192	5	183	900	2792
116	0	0	2179	4	183	900	2795
117	0	0	2140	4	184	901	2798
118	0	0	2121	5	184	900	2799
119	0	0	2143	5	183	900	2798
120	0	0	2181	7	183	900	2794
121	0	0	2226	5	183	900	2787
122	0	0	2266	5	185	900	2785
123	0	0	2285	5	184	899	2786
124	0	0	2292	5	183	900	2788
125	0	0	2289	5	184	900	2792
126	0	0	2278	5	183	900	2796
127	0	0	2242	4	183	900	2798
0	0	0	2189	4	182	900	2799
1	0	0	2162	5	183	900	2798
2	0	0	2164	5	183	900	2795
3	0	0	2153	5	184	900	2788
4	0	0	2164	5	184	900	2785
5	0	0	2198	5	183	900	2786
6	0	0	2233	5	184	900	2789
7	0	0	2249	7	184	900	2792
8	0	0	2238	5	183	900	2795
9	0	0	2240	5	183	900	2798
10	0	0	2267	5	184	900	2799
11	0	0	2297	5	182	900	2798
12	0	0	2307	5	185	899	2795
13	0	0	2305	5	185	900	2787
14	0	0	2301	4	183	900	2785
15	0	0	2240	4	184	900	2786
16	0	0	2191	4	184	900	2788
17	0	0	2199	5	184	899	2792
18	0	0	2229	5	183	900	2796
19	0	0	2244	5	184	900	2798
20	0	0	2255	5	184	899	2799
21	0	0	2264	4	183	900	2797
22	0	0	2226	4	184	900	2794
23	0	0	2164	3	183	900	2788
24	0	0	2144	4	183	900	2784
25	0	0	2172	5	183	900	2786
26	0	0	2208	5	184	899	2788
27	0	0	2249	5	183	900	2791
28	0	0	2276	5	183	900	2795
29	0	0	2279	5	184	900	2798
30	0	0	2286	5	184	900	2799
31	0	0	2292	5	183	900	2798
32	0	0	2288	5	184	899	2794
33	0	0	2291	6	184	900	2787
34	0	0	2274	4	183	900	2785
35	0	0	2241	4	184	900	2786
36	0	0	2234	5	183	900	2788
37	0	0	2251	5	184	900	2791
38	0	0	2266	5	183	900	2795
39	0	0	2293	5	184	900	2798
40	0	0	2279	4	184	900	2799
41	0	0	2237	5	183	900	2798
42	0	0	2235	5	182	900	2794
43	0	0	2262	5	184	900	2788
44	0	0	2261	4	184	900	2785
45	0	0	2226	4	184	900	2786
46	0	0	2214	4	183	900	2788
47	0	0	2205	5	183	899	2792
48	0	0	2253	4	184	900	2796
49	0	0	2297	5	184	900	2798
50	0	0	2353	5	184	900	2799
51	0	0	2429	5	183	900	2797
52	0	0	2485	5	185	900	2794
53	0	0	2477	5	184	899	2787
54	0	0	2437	4	183	900	2785
55	0	0	2400	4	183	899	2786
56	0	0	2337	4	183	900	2788
57	0	0	2258	4	183	900	2792
58	0	0	2211	5	183	900	2795
59	0	0	2212	5	183	900	2798
60	0	0	2211	5	183	900	2799
61	0	0	2233	5	184	900	2797
62	0	0	2242	5	184	900	2794
63	0	0	2243	4	183	900	2788
64	0	0	2246	4	184	900	2785
65	0	0	2250	5	184	900	2787
66	0	0	2267	5	183	900	2788
67	0	0	2288	5	184	900	2792
68	0	0	2305	5	183	900	2795
69	0	0	2332	5	184	900	2798
70	0	0	2359	5	184	900	2799
71	0	0	2392	5	184	900	2798
72	0	0	2403	5	186	900	2794
73	0	0	2391	6	183	900	2787
74	0	0	2370	4	184	900	2784
75	0	0	2362	5	183	899	2786
76	0	0	2370	5	183	900	2788
77	0	0	2374	5	183	900	2792
78	0	0	2379	5	183	900	2795
79	0	0	2406	5	184	900	2798
80	0	0	2409	5	183	899	2799
81	0	0	2346	4	184	900	2798
82	0	0	2288	4	182	900	2795
83	0	0	2260	6	183	900	2788
84	0	0	2233	4	184	900	2785
85	0	0	2220	5	184	900	2786
86	0	0	2223	5	184	900	2789
87	0	0	2257	5	183	900	2791
88	0	0	2319	5	183	900	2795
89	0	0	2340	5	183	900	2798
90	0	0	2337	5	183	900	2799
91	0	0	2350	5	184	900	2798
92	0	0	2382	5	183	899	2795
93	0	0	2383	5	184	900	2788
94	0	0	2378	5	183	900	2785
95	0	0	2355	4	184	900	2786
96	0	0	2339	5	184	900	2788
97	0	0	2338	5	183	900	2792
98	0	0	2325	5	184	900	2796
99	0	0	2316	5	184	900	2798
100	0	0	2278	4	182	900	2799
101	0	0	2249	6	184	900	2798
102	0	0	2278	5	185	900	2795
103	0	0	2302	6	184	900	2788
104	0	0	2302	5	184	900	2785
105	0	0	2299	5	184	899	2786
106	0	0	2267	4	183	900	2789
107	0	0	2229	6	184	899	2791
108	0	0	2217	6	183	900	2795
109	0	0	2225	4	184	900	2798
110	0	0	2255	5	183	899	2799
111	0	0	2288	5	183	899	2798
112	0	0	2343	5	184	900	2795
113	0	0	2407	5	184	900	2789
114	0	0	2449	5	183	900	2785
115	0	0	2412	4	183	899	2786
116	0	0	2352	4	183	900	2788
117	0	0	2322	5	183	900	2792
118	0	0	2326	5	183	900	2795
119	0	0	2345	5	183	900	2799
120	0	0	2378	5	184	899	2799
121	0	0	2387	5	183	900	2798
122	0	0	2334	4	184	900	2794
123	0	0	2281	4	183	900	2788
124	0	0	2284	5	183	900	2785
125	0	0	2311	5	183	900	2786
126	0	0	2314	5	184	900	2788
127	0	0	2277	4	184	900	2791
0	0	0	2250	6	184	900	2795
1	0	0	2264	5	184	900	2798
2	0	0	2288	5	184	899	2799
3	0	0	2303	5	182	900	2798
4	0	0	2314	5	184	900	2795
5	0	0	2323	5	184	900	2788
6	0	0	2351	5	184	900	2786
7	0	0	2353	5	184	899	2786
8	0	0	2305	5	183	900	2788
9	0	0	2282	5	183	900	2792
10	0	0	2305	5	183	900	2795
11	0	0	2301	4	184	901	2798
12	0	0	2255	4	184	899	2799
13	0	0	2221	4	183	900	2798
14	0	0	2240	5	183	900	2795
15	0	0	2267	4	184	900	2789
16	0	0	2222	4	183	900	2785
17	0	0	2156	4	185	899	2786
18	0	0	2124	5	183	900	2788
19	0	0	2138	4	183	900	2792
20	0	0	2168	4	182	900	2795
21	0	0	2189	5	183	900	2799
22	0	0	2187	5	184	900	2800
23	0	0	2192	5	183	900	2798
24	0	0	2238	5	184	899	2795
25	0	0	2290	5	183	900	2788
26	0	0	2319	5	183	900	2785
27	0	0	2307	5	183	899	2786
28	0	0	2319	4	184	900	2789
29	0	0	2326	5	185	900	2791
30	0	0	2297	5	183	899	2795
31	0	0	2275	4	185	900	2798
32	0	0	2235	4	183	900	2799
33	0	0	2219	5	184	900	2798
34	0	0	2221	5	184	900	2795
35	0	0	2235	5	183	900	2788
36	0	0	2237	4	184	900	2785
37	0	0	2246	5	184	900	2787
38	0	0	2272	5	184	900	2788
39	0	0	2310	5	183	900	2792
40	0	0	2356	5	183	900	2796
41	0	0	2392	5	183	900	2798
42	0	0	2427	5	184	900	2799
43	0	0	2454	5	184	900	2798
44	0	0	2525	5	183	899	2794
45	0	0	2609	5	183	900	2788
46	0	0	2684	5	184	900	2785
47	0	0	2758	5	183	900	2786
48	0	0	2822	5	183	899	2788
49	0	0	2851	5	184	900	2791
50	0	0	2872	5	184	900	2795
51	0	0	2899	5	184	900	2798
52	0	0	2924	5	183	899	2799
53	0	0	2961	5	184	900	2798
54	0	0	3002	5	183	900	2796
55	0	0	3051	5	184	900	2789
56	0	0	3103	4	184	900	2785
57	0	0	3155	5	184	900	2786
58	0	0	3175	6	183	900	2789
59	0	0	3189	5	185	900	2792
60	0	0	3223	5	184	899	2795
61	0	0	3291	5	183	900	2798
62	0	0	3358	5	184	900	2799
63	0	0	3367	5	184	900	2798
64	0	0	3292	4	183	900	2795
65	0	0	3177	4	183	900	2788
66	0	0	3079	5	184	900	2785
67	0	0	3020	4	184	899	2786
68	0	0	2953	4	183	900	2788
69	0	0	2840	3	183	900	2792
70	0	0	2691	5	183	900	2795
71	0	0	2564	4	185	900	2798
72	0	0	2472	4	183	900	2800
73	0	0	2391	4	183	900	2798
74	0	0	2290	5	183	900	2795
75	0	0	2182	5	185	900	2789
76	0	0	2076	4	184	900	2785
77	0	0	1991	4	184	899	2786
78	0	0	1916	5	183	900	2789
79	0	0	1836	4	182	900	2791
80	0	0	1791	4	184	900	2795
81	0	0	1813	5	184	900	2799
82	0	0	1871	5	184	900	2799
83	0	0	1932	5	183	900	2799
84	0	0	1992	5	182	900	2795
85	0	0	2024	5	183	899	2789
86	0	0	1992	4	184	900	2785
87	0	0	1951	4	183	899	2786
88	0	0	1940	5	183	900	2788
89	0	0	1945	4	183	900	2793
90	0	0	1955	5	184	900	2796
91	0	0	1936	4	184	900	2799
92	0	0	1922	5	184	899	2799
93	0	0	1916	6	183	900	2798
94	0	0	1915	5	184	900	2795
95	0	0	1927	4	184	900	2789
96	0	0	1940	5	183	900	2785
97	0	0	1933	5	184	899	2786
98	0	0	1925	5	183	900	2788
99	0	0	1927	5	182	900	2792
100	0	0	1940	5	183	900	2796
101	0	0	1932	4	184	900	2798
102	0	0	1904	5	184	900	2800
103	0	0	1896	5	182	899	2798
104	0	0	1921	5	182	899	2795
105	0	0	1956	5	183	900	2789
106	0	0	1999	5	184	900	2785
107	0	0	2038	5	182	900	2786
108	0	0	2050	5	183	900	2788
109	0	0	2014	5	183	900	2792
110	0	0	1963	4	183	900	2795
111	0	0	1959	5	185	900	2798
112	0	0	1995	5	183	899	2799
113	0	0	2068	5	184	900	2798
114	0	0	2090	5	184	900	2795
115	0	0	2061	5	184	900	2789
116	0	0	2046	5	183	900	2786
117	0	0	2042	5	184	900	2786
118	0	0	2052	4	184	901	2789
119	0	0	2067	5	183	900	2792
120	0	0	2093	5	183	900	2796
121	0	0	2119	5	183	900	2799
122	0	0	2133	5	183	900	2799
123	0	0	2126	4	184	900	2799
124	0	0	2097	4	184	900	2795
125	0	0	2101	5	183	900	2789
126	0	0	2163	4	182	900	2786
127	0	0	2186	5	184	899	2786
0	0	0	2175	4	184	900	2789
1	0	0	2140	4	183	900	2791
2	0	0	2123	5	184	900	2795
3	0	0	2110	5	183	900	2798
4	0	0	2085	4	184	899	2799
5	0	0	2045	4	184	900	2798
6	0	0	2010	4	182	900	2795
7	0	0	1974	4	184	900	2789
8	0	0	1949	5	184	900	2786
9	0	0	1947	5	184	900	2787
10	0	0	1978	5	183	900	2788
11	0	0	2022	5	183	900	2792
12	0	0	2066	5	184	900	2796
13	0	0	2083	5	183	900	2798
14	0	0	2107	5	184	899	2799
15	0	0	2126	5	184	900	2798
16	0	0	2140	5	183	899	2795
17	0	0	2166	5	183	900	2789
18	0	0	2191	5	183	900	2785
19	0	0	2215	5	183	900	2786
20	0	0	2236	5	184	899	2788
21	0	0	2239	5	185	900	2792
22	0	0	2203	4	183	900	2795
23	0	0	2144	4	183	900	2798
24	0	0	2080	4	182	899	2800
25	0	0	2019	3	184	900	2799
26	0	0	1997	5	184	900	2796
27	0	0	2005	5	182	900	2790
28	0	0	2014	5	184	900	2786
29	0	0	2033	5	183	900	2786
30	0	0	2046	5	184	900	2788
31	0	0	2041	5	184	900	2792
32	0	0	2051	5	184	900	2796
33	0	0	2094	5	185	900	2798
34	0	0	2155	5	184	899	2799
35	0	0	2196	5	184	900	2798
36	0	0	2223	5	182	899	2795
37	0	0	2209	4	184	900	2789
38	0	0	2155	4	183	900	2785
39	0	0	2117	4	183	900	2786
40	0	0	2106	5	184	900	2788
41	0	0	2091	5	183	900	2792
42	0	0	2089	5	183	900	2795
43	0	0	2133	5	183	900	2798
44	0	0	2137	4	183	900	2800
45	0	0	2088	4	184	900	2798
46	0	0	2071	5	183	900	2796
47	0	0	2071	5	184	900	2789
48	0	0	2045	4	184	900	2785
49	0	0	2031	5	183	900	2786
50	0	0	2014	5	184	900	2788
51	0	0	2009	5	185	900	2791
52	0	0	2036	5	183	900	2795
53	0	0	2069	5	184	900	2799
54	0	0	2101	5	183	899	2799
55	0	0	2115	5	184	900	2798
56	0	0	2104	5	183	900	2796
57	0	0	2090	5	184	900	2790
58	0	0	2081	5	183	900	2786
59	0	0	2083	5	182	900	2786
60	0	0	2107	5	184	900	2788
61	0	0	2150	5	183	900	2792
62	0	0	2191	5	182	900	2795
63	0	0	2179	4	184	900	2798
64	0	0	2120	4	185	900	2799
65	0	0	2066	4	183	900	2798
66	0	0	2069	5	184	900	2796
67	0	0	2086	5	183	900	2789
68	0	0	2061	4	184	900	2786
69	0	0	2023	4	184	900	2786
70	0	0	2034	5	184	900	2788
71	0	0	2053	5	183	900	2791
72	0	0	2089	6	183	900	2795
73	0	0	2131	5	184	900	2798
74	0	0	2141	5	183	900	2799
75	0	0	2151	4	183	900	2799
76	0	0	2176	5	183	900	2796
77	0	0	2174	6	183	900	2789
78	0	0	2174	6	183	900	2786
79	0	0	2183	5	184	900	2786
80	0	0	2179	5	184	900	2788
81	0	0	2167	5	183	899	2792
82	0	0	2152	6	184	900	2795
83	0	0	2134	4	183	900	2798
84	0	0	2121	5	183	900	2799
85	0	0	2120	5	184	900	2798
86	0	0	2119	5	184	900	2796
87	0	0	2110	6	185	900	2790
88	0	0	2085	5	183	900	2786
89	0	0	2090	5	183	899	2786
90	0	0	2106	4	184	900	2788
91	0	0	2131	5	184	900	2792
92	0	0	2160	5	184	900	2795
93	0	0	2202	5	184	900	2799
94	0	0	2224	5	183	900	2800
95	0	0	2231	5	184	900	2798
96	0	0	2263	5	184	900	2796
97	0	0	2285	5	184	900	2790
98	0	0	2274	5	183	900	2785
99	0	0	2236	4	184	900	2786
100	0	0	2196	5	184	900	2788
101	0	0	2178	5	182	900	2792
102	0	0	2170	5	183	900	2796
103	0	0	2159	5	184	900	2798
104	0	0	2139	4	183	900	2800
105	0	0	2131	5	183	899	2798
106	0	0	2122	5	182	900	2797
107	0	0	2130	4	183	900	2790
108	0	0	2148	4	185	900	2786
109	0	0	2145	5	183	900	2787
110	0	0	2122	5	183	900	2788
111	0	0	2116	5	184	900	2791
112	0	0	2122	5	183	900	2795
113	0	0	2160	6	183	900	2798
114	0	0	2197	5	184	900	2799
115	0	0	2211	5	183	899	2798
116	0	0	2230	5	184	899	2796
117	0	0	2234	6	183	900	2789
118	0	0	2225	5	184	900	2785
119	0	0	2236	5	184	900	2786
120	0	0	2258	4	184	900	2788
121	0	0	2263	5	183	900	2791
122	0	0	2263	5	185	900	2795
123	0	0	2265	5	183	900	2799
124	0	0	2249	5	183	900	2799
125	0	0	2238	5	183	899	2799
126	0	0	2259	5	184	900	2797
127	0	0	2225	4	184	900	2790
0	0	0	2122	4	183	900	2786
1	0	0	2070	4	183	900	2786
2	0	0	2077	5	183	900	2789
3	0	0	2139	5	183	900	2791
4	0	0	2202	5	182	900	2795
5	0	0	2263	6	185	900	2798
6	0	0	2308	5	183	900	2799
7	0	0	2343	4	185	900	2798
8	0	0	2357	5	184	900	2795
9	0	0	2360	5	182	900	2790
10	0	0	2360	5	184	900	2786
11	0	0	2339	5	183	900	2786
12	0	0	2312	4	184	900	2788
13	0	0	2320	5	184	900	2791
14	0	0	2359	5	183	900	2795
15	0	0	2388	4	183	900	2798
16	0	0	2364	4	185	900	2800
17	0	0	2298	4	184	900	2799
18	0	0	2251	4	184	900	2796
19	0	0	2231	5	182	900	2790
20	0	0	2220	6	184	900	2786
21	0	0	2226	5	183	900	2786
22	0	0	2226	4	184	900	2789
23	0	0	2229	5	184	901	2791
24	0	0	2256	5	182	900	2795
25	0	0	2291	4	183	900	2798
26	0	0	2307	5	182	900	2800
27	0	0	2307	5	183	900	2798
28	0	0	2300	4	183	900	2796
29	0	0	2298	5	182	900	2790
30	0	0	2305	5	183	900	2786
31	0	0	2297	5	183	899	2786
32	0	0	2327	5	183	899	2788
33	0	0	2362	5	183	900	2791
34	0	0	2363	5	183	900	2795
35	0	0	2355	5	183	900	2799
36	0	0	2353	5	184	900	2800
37	0	0	2351	5	183	900	2799
38	0	0	2353	5	184	900	2796
39	0	0	2320	4	184	900	2791
40	0	0	2262	4	184	900	2786
41	0	0	2223	4	184	900	2786
42	0	0	2201	5	183	900	2788
43	0	0	2208	5	184	900	2791
44	0	0	2226	5	183	900	2795
45	0	0	2243	5	185	900	2798
46	0	0	2248	5	184	900	2799
47	0	0	2231	5	183	900	2799
48	0	0	2236	5	183	900	2796
49	0	0	2288	5	182	899	2790
50	0	0	2361	5	182	900	2786
51	0	0	2374	5	183	900	2786
52	0	0	2350	4	184	900	2789
53	0	0	2307	4	183	900	2791
54	0	0	2267	4	184	900	2795
55	0	0	2258	4	184	900	2798
56	0	0	2249	4	182	899	2800
57	0	0	2212	4	184	900	2798
58	0	0	2180	5	183	900	2796
59	0	0	2166	5	183	900	2790
60	0	0	2160	4	183	900	2786
61	0	0	2150	5	183	900	2786
62	0	0	2150	5	183	900	2788
63	0	0	2152	5	184	900	2791
64	0	0	2171	5	183	900	2795
65	0	0	2201	4	183	900	2798
66	0	0	2232	5	184	900	2799
67	0	0	2253	4	183	900	2799
68	0	0	2244	5	183	900	2796
69	0	0	2209	4	184	900	2790
70	0	0	2195	5	183	900	2786
71	0	0	2197	5	183	900	2786
72	0	0	2172	4	183	900	2788
73	0	0	2108	4	183	900	2791
74	0	0	2044	4	183	900	2795
75	0	0	2019	5	184	900	2798
76	0	0	2030	5	184	900	2799
77	0	0	2054	5	184	900	2799
78	0	0	2101	4	183	900	2796
79	0	0	2131	5	184	900	2790
80	0	0	2096	3	184	900	2786
81	0	0	2046	4	183	900	2787
82	0	0	2016	5	183	900	2788
83	0	0	2014	5	183	900	2792
84	0	0	2021	5	184	900	2795
85	0	0	2041	5	183	900	2798
86	0	0	2060	5	184	899	2800
87	0	0	2082	5	184	900	2799
88	0	0	2119	5	184	900	2796
89	0	0	2108	4	184	900	2790
90	0	0	2055	4	184	900	2786
91	0	0	2030	5	184	900	2786
92	0	0	2033	5	184	900	2788
93	0	0	2057	5	184	900	2791
94	0	0	2072	5	183	900	2795
95	0	0	2079	4	182	899	2798
96	0	0	2065	5	184	900	2800
97	0	0	2019	4	184	900	2799
98	0	0	1983	4	183	900	2797
99	0	0	1949	4	184	900	2791
100	0	0	1910	4	184	900	2787
101	0	0	1895	5	183	900	2786
102	0	0	1909	5	183	900	2788
103	0	0	1927	5	183	900	2791
104	0	0	1938	5	184	900	2795
105	0	0	1970	5	183	900	2799
106	0	0	2018	5	183	899	2799
107	0	0	2068	5	183	899	2799
108	0	0	2102	5	184	900	2796
109	0	0	2104	5	184	900	2790
110	0	0	2109	4	184	900	2786
111	0	0	2109	5	184	900	2786
112	0	0	2106	4	182	900	2788
113	0	0	2096	5	183	900	2792
114	0	0	2071	4	184	900	2796
115	0	0	2036	3	183	900	2798
116	0	0	2002	4	183	900	2800
117	0	0	1955	4	185	900	2799
118	0	0	1910	4	183	900	2796
119	0	0	1896	4	184	900	2790
120	0	0	1861	4	183	900	2786
121	0	0	1864	5	183	900	2786
122	0	0	1899	5	183	899	2788
123	0	0	1916	5	184	900	2791
124	0	0	1925	5	183	899	2795
125	0	0	1957	4	183	900	2798
126	0	0	1990	5	184	900	2800
127	0	0	2023	5	184	900	2798
0	0	0	2061	5	184	899	2796
1	0	0	2078	5	183	900	2791
2	0	0	2054	4	184	900	2786
3	0	0	2018	4	184	900	2786
4	0	0	1961	4	184	900	2788
5	0	0	1896	4	183	900	2791
6	0	0	1911	5	183	900	2795
7	0	0	1961	3	182	900	2798
8	0	0	1959	5	184	900	2799
9	0	0	1926	4	183	900	2800
10	0	0	1908	4	183	899	2796
11	0	0	1910	5	184	900	2791
12	0	0	1892	4	183	900	2786
13	0	0	1900	5	184	900	2786
14	0	0	1928	5	183	899	2788
15	0	0	1943	5	183	900	2791
16	0	0	1940	5	184	900	2794
17	0	0	1950	5	183	900	2798
18	0	0	1979	5	183	900	2800
19	0	0	2005	5	183	900	2799
20	0	0	2013	5	183	900	2796
21	0	0	2011	5	183	900	2791
22	0	0	1994	4	184	900	2786
23	0	0	1984	5	184	900	2786
24	0	0	1990	5	183	900	2788
25	0	0	2000	5	184	900	2792
26	0	0	2001	5	184	900	2795
27	0	0	1989	5	183	900	2798
28	0	0	1980	5	183	900	2800
29	0	0	1975	5	184	900	2799
30	0	0	1992	5	183	899	2796
31	0	0	2027	5	184	900	2790
32	0	0	2071	3	184	900	2786
33	0	0	2123	5	184	900	2786
34	0	0	2151	5	183	900	2788
35	0	0	2156	5	184	900	2791
36	0	0	2130	4	183	900	2795
37	0	0	2074	4	182	900	2799
38	0	0	2024	4	183	900	2800
39	0	0	2006	6	183	900	2799
40	0	0	2000	5	184	899	2797
41	0	0	1993	5	183	900	2791
42	0	0	2012	3	183	900	2786
43	0	0	2038	5	184	900	2786
44	0	0	2049	5	183	900	2788
45	0	0	2074	5	184	900	2791
46	0	0	2084	4	183	900	2794
47	0	0	2106	4	184	900	2798
48	0	0	2116	5	184	900	2799
49	0	0	2085	4	183	900	2798
50	0	0	2052	5	183	899	2796
51	0	0	2045	4	183	900	2791
52	0	0	1993	3	184	900	2786
53	0	0	1961	5	183	900	2786
54	0	0	1968	5	184	899	2788
55	0	0	1993	5	184	900	2791
56	0	0	2025	5	184	900	2795
57	0	0	2037	4	183	900	2798
58	0	0	2076	5	183	900	2800
59	0	0	2097	5	183	900	2799
60	0	0	2073	4	183	900	2797
61	0	0	2050	4	183	900	2791
62	0	0	2032	5	182	900	2786
63	0	0	2041	5	183	900	2786
64	0	0	2050	6	183	900	2788
65	0	0	2034	4	184	900	2791
66	0	0	1985	4	184	900	2794
67	0	0	1971	5	183	900	2798
68	0	0	1984	4	184	900	2799
69	0	0	1995	5	184	900	2799
70	0	0	1960	4	184	900	2797
71	0	0	1908	4	184	900	2791
72	0	0	1893	4	183	900	2787
73	0	0	1910	5	183	900	2786
74	0	0	1932	5	183	900	2789
75	0	0	1976	5	184	900	2791
76	0	0	2026	5	185	900	2795
77	0	0	2064	5	183	900	2798
78	0	0	2090	5	184	900	2799
79	0	0	2137	5	184	900	2798
80	0	0	2184	5	184	899	2796
81	0	0	2184	5	184	900	2791
82	0	0	2162	4	183	900	2786
83	0	0	2116	4	183	900	2785
84	0	0	2075	4	183	900	2788
85	0	0	2036	4	183	900	2792
86	0	0	1984	4	183	900	2795
87	0	0	1932	3	183	900	2798
88	0	0	1921	5	184	900	2800
89	0	0	1939	5	183	899	2799
90	0	0	1926	5	184	900	2797
91	0	0	1904	4	184	900	2791
92	0	0	1892	4	183	900	2786
93	0	0	1906	5	184	900	2786
94	0	0	1936	4	184	900	2788
95	0	0	1964	5	183	900	2791
96	0	0	1984	5	184	899	2794
97	0	0	2011	4	183	900	2798
98	0	0	2039	5	184	900	2799
99	0	0	2085	5	184	900	2799
100	0	0	2126	5	183	901	2796
101	0	0	2160	5	184	900	2791
102	0	0	2131	4	184	900	2786
103	0	0	2085	4	184	900	2786
104	0	0	2083	5	183	900	2788
105	0	0	2090	5	183	899	2791
106	0	0	2067	4	184	900	2795
107	0	0	2025	4	184	900	2798
108	0	0	1985	4	184	899	2799
109	0	0	1951	5	183	900	2799
110	0	0	1929	4	183	900	2797
111	0	0	1920	5	186	900	2791
112	0	0	1897	4	184	900	2787
113	0	0	1888	5	183	900	2785
114	0	0	1881	4	185	900	2787
115	0	0	1881	5	184	899	2791
116	0	0	1887	4	182	900	2795
117	0	0	1914	4	184	900	2798
118	0	0	2002	5	182	900	2799
119	0	0	2092	4	184	900	2799
120	0	0	2153	5	184	901	2797
121	0	0	2168	5	183	900	2791
122	0	0	2151	4	183	900	2787
123	0	0	2097	5	184	900	2786
124	0	0	2041	4	184	900	2787
125	0	0	1989	4	183	900	2791
126	0	0	1942	4	181	900	2795
127	0	0	1933	4	184	900	2798
0	0	0	1974	5	183	900	2799
1	0	0	2016	5	184	899	2799
2	0	0	2024	5	183	900	2797
3	0	0	1988	4	183	900	2791
4	0	0	1943	4	184	900	2787
5	0	0	1914	4	183	900	2786
6	0	0	1890	4	183	900	2788
7	0	0	1866	4	184	899	2792
8	0	0	1850	4	184	900	2795
9	0	0	1868	5	183	900	2798
10	0	0	1898	4	183	900	2800
11	0	0	1911	6	184	900	2799
12	0	0	1996	5	183	900	2797
13	0	0	2083	4	183	900	2791
14	0	0	2114	4	184	900	2786
15	0	0	2112	5	183	900	2785
16	0	0	2105	5	183	899	2787
17	0	0	2099	5	183	900	2791
18	0	0	2059	4	185	900	2795
19	0	0	2026	4	184	900	2798
20	0	0	2016	5	183	900	2799
21	0	0	1984	4	183	900	2799
22	0	0	1961	5	183	900	2797
23	0	0	1960	5	185	900	2792
24	0	0	1959	5	183	900	2787
25	0	0	1980	5	184	900	2786
26	0	0	1999	5	183	900	2788
27	0	0	2015	5	183	901	2791
28	0	0	2004	4	183	900	2795
29	0	0	1974	4	183	900	2798
30	0	0	1948	4	184	900	2799
31	0	0	1930	5	184	900	2800
32	0	0	1955	5	185	900	2796
33	0	0	2002	5	185	900	2791
34	0	0	2026	5	184	899	2786
35	0	0	2027	5	184	900	2785
36	0	0	2025	5	184	899	2787
37	0	0	2019	5	184	900	2791
38	0	0	2023	5	183	900	2795
39	0	0	2042	5	184	900	2798
40	0	0	2022	4	183	900	2800
41	0	0	1974	4	183	900	2799
42	0	0	1920	4	184	900	2797
43	0	0	1894	4	185	900	2792
44	0	0	1889	5	184	900	2787
45	0	0	1882	4	184	900	2786
46	0	0	1882	4	184	900	2788
47	0	0	1903	5	183	899	2791
48	0	0	1933	4	183	900	2795
49	0	0	1982	5	184	900	2798
50	0	0	2025	5	183	900	2800
51	0	0	2046	5	183	900	2799
52	0	0	2048	6	182	900	2797
53	0	0	2066	5	185	900	2791
54	0	0	2080	5	183	900	2786
55	0	0	2066	4	183	900	2786
56	0	0	2052	5	182	899	2788
57	0	0	2051	5	184	900	2791
58	0	0	2060	5	183	899	2795
59	0	0	2043	4	183	900	2799
60	0	0	1987	4	183	900	2800
61	0	0	1924	3	184	900	2799
62	0	0	1874	4	183	899	2797
63	0	0	1863	5	184	900	2792
64	0	0	1871	5	183	900	2787
65	0	0	1892	5	184	900	2786
66	0	0	1914	5	183	899	2788
67	0	0	1933	5	183	900	2791
68	0	0	1949	5	184	900	2795
69	0	0	1961	5	184	900	2798
70	0	0	1978	5	183	900	2799
71	0	0	1986	4	184	900	2800
72	0	0	1985	4	184	900	2797
73	0	0	2019	5	183	899	2792
74	0	0	2034	4	183	900	2787
75	0	0	2021	5	184	900	2786
76	0	0	2011	5	183	899	2788
77	0	0	2014	6	184	900	2791
78	0	0	1999	4	184	900	2796
79	0	0	1963	4	184	900	2798
80	0	0	1952	5	183	900	2799
81	0	0	1944	5	182	900	2799
82	0	0	1925	4	184	900	2797
83	0	0	1916	5	183	899	2791
84	0	0	1913	5	184	900	2787
85	0	0	1898	5	184	900	2786
86	0	0	1905	5	184	900	2788
87	0	0	1939	5	185	899	2791
88	0	0	1958	5	184	899	2795
89	0	0	1974	5	184	900	2798
90	0	0	2000	5	184	900	2799
91	0	0	2023	5	184	900	2799
92	0	0	2071	5	183	900	2798
93	0	0	2093	4	184	900	2792
94	0	0	2086	5	184	900	2787
95	0	0	2066	5	184	900	2786
96	0	0	2059	5	182	900	2788
97	0	0	2050	4	184	900	2791
98	0	0	2017	4	184	900	2795
99	0	0	1975	4	183	900	2798
100	0	0	1929	4	183	900	2800
101	0	0	1892	4	184	900	2799
102	0	0	1888	5	184	900	2797
103	0	0	1897	5	183	900	2792
104	0	0	1892	5	184	900	2787
105	0	0	1904	5	183	900	2786
106	0	0	1917	5	184	900	2788
107	0	0	1918	4	184	900	2791
108	0	0	1929	5	184	900	2795
109	0	0	1945	5	183	900	2798
110	0	0	1969	5	184	900	2800
111	0	0	1995	5	184	900	2800
112	0	0	2018	5	184	900	2797
113	0	0	2045	5	184	900	2792
114	0	0	2049	5	183	900	2787
115	0	0	2023	4	183	900	2786
116	0	0	2008	5	184	900	2788
117	0	0	2006	5	183	900	2791
118	0	0	1997	4	183	900	2795
119	0	0	1986	5	184	900	2798
120	0	0	1965	4	183	900	2800
121	0	0	1955	5	184	900	2799
122	0	0	1961	6	184	899	2798
123	0	0	1956	5	184	900	2792
124	0	0	1967	5	185	900	2787
125	0	0	1957	4	184	899	2786
126	0	0	1929	4	184	900	2788
127	0	0	1924	4	183	900	2791
0	0	0	1935	5	183	900	2795
1	0	0	1966	5	184	900	2798
2	0	0	2016	5	182	900	2800
3	0	0	2070	4	183	900	2799
4	0	0	2051	4	184	900	2798
5	0	0	1997	4	183	900	2792
6	0	0	1971	5	182	900	2787
7	0	0	1972	5	183	900	2786
8	0	0	1976	6	183	899	2788
9	0	0	1995	5	184	900	2791
10	0	0	2001	5	182	899	2795
11	0	0	2009	5	183	900	2798
12	0	0	2004	5	183	900	2800
13	0	0	1967	4	184	900	2799
14	0	0	1941	4	184	900	2797
15	0	0	1931	4	184	900	2793
16	0	0	1902	4	184	900	2787
17	0	0	1908	5	183	900	2786
18	0	0	1943	5	182	900	2789
19	0	0	1981	5	183	901	2791
20	0	0	1996	5	184	900	2795
21	0	0	1988	5	183	900	2798
22	0	0	1988	5	183	900	2799
23	0	0	1996	5	184	900	2800
24	0	0	1999	5	183	900	2797
25	0	0	2012	5	184	900	2792
26	0	0	2021	5	183	900	2787
27	0	0	2033	5	184	900	2786
28	0	0	2062	5	183	900	2788
29	0	0	2092	4	183	900	2791
30	0	0	2062	4	184	900	2795
31	0	0	2039	5	183	900	2798
32	0	0	2054	5	184	900	2800
33	0	0	2053	5	184	900	2800
34	0	0	2038	5	184	900	2798
35	0	0	2002	4	184	900	2793
36	0	0	1939	4	185	900	2787
37	0	0	1895	4	184	900	2787
38	0	0	1888	5	184	900	2788
39	0	0	1896	5	184	900	2791
40	0	0	1912	5	184	899	2795
41	0	0	1937	5	184	900	2798
42	0	0	1980	7	184	900	2799
43	0	0	2026	5	185	900	2799
44	0	0	2049	4	184	900	2797
45	0	0	2043	5	184	900	2792
46	0	0	2045	5	183	899	2787
47	0	0	2040	5	183	900	2786
48	0	0	2012	5	183	900	2789
49	0	0	1973	4	183	900	2792
50	0	0	1932	4	184	899	2795
51	0	0	1921	5	184	900	2799
52	0	0	1936	5	184	900	2801
53	0	0	1952	6	183	900	2800
54	0	0	1965	5	184	900	2798
55	0	0	1986	5	184	899	2793
56	0	0	2016	5	183	900	2787
57	0	0	2022	5	184	900	2786
58	0	0	2012	5	184	900	2788
59	0	0	2009	4	184	900	2791
60	0	0	2012	5	183	899	2795
61	0	0	2030	4	183	900	2799
62	0	0	2040	5	183	900	2800
63	0	0	2060	5	183	900	2800
64	0	0	2075	5	183	900	2798
65	0	0	2057	4	184	900	2793
66	0	0	2022	4	183	900	2788
67	0	0	1985	4	183	900	2787
68	0	0	1987	5	183	900	2788
69	0	0	2002	5	184	900	2791
70	0	0	2027	5	184	900	2795
71	0	0	2040	5	184	900	2798
72	0	0	1995	4	184	900	2800
73	0	0	1952	4	183	900	2800
74	0	0	1941	5	183	900	2798
75	0	0	1925	4	184	900	2793
76	0	0	1904	5	183	900	2788
77	0	0	1924	5	184	900	2787
78	0	0	1972	5	184	900	2788
79	0	0	2031	5	184	900	2792
80	0	0	2063	5	183	900	2796
81	0	0	2060	5	184	900	2799
82	0	0	2055	5	184	900	2801
83	0	0	2084	5	185	900	2800
84	0	0	2100	5	182	900	2799
85	0	0	2091	5	184	900	2794
86	0	0	2053	4	182	900	2788
87	0	0	2004	4	183	900	2787
88	0	0	1980	5	182	900	2788
89	0	0	1988	5	183	900	2792
90	0	0	2012	5	184	900	2795
91	0	0	2019	5	183	900	2798
92	0	0	2009	4	184	900	2801
93	0	0	1967	4	183	900	2800
94	0	0	1925	4	183	900	2798
95	0	0	1899	4	184	899	2793
96	0	0	1878	4	183	900	2788
97	0	0	1871	6	183	899	2787
98	0	0	1880	4	182	900	2788
99	0	0	1883	4	184	900	2792
100	0	0	1905	5	184	900	2795
101	0	0	1952	5	182	900	2799
102	0	0	1984	5	183	900	2800
103	0	0	2005	5	183	900	2801
104	0	0	2026	5	183	901	2798
105	0	0	2026	5	183	900	2793
106	0	0	2019	5	184	900	2788
107	0	0	2029	5	183	900	2786
108	0	0	2041	5	183	900	2789
109	0	0	2030	4	184	900	2791
110	0	0	2013	5	184	899	2795
111	0	0	2024	5	183	900	2799
112	0	0	2017	5	184	900	2800
113	0	0	2017	5	184	900	2800
114	0	0	2016	4	184	900	2799
115	0	0	1974	4	185	900	2793
116	0	0	1944	4	184	900	2788
117	0	0	1931	4	183	900	2787
118	0	0	1917	5	183	900	2788
119	0	0	1934	5	184	900	2792
120	0	0	1999	5	184	900	2795
121	0	0	2038	5	183	900	2798
122	0	0	2026	5	184	899	2800
123	0	0	1998	4	183	900	2800
124	0	0	1969	4	183	900	2798
125	0	0	1954	5	183	899	2793
126	0	0	1973	5	184	900	2788
127	0	0	2005	5	183	900	2786
0	0	0	2028	5	183	900	2788
1	0	0	2028	5	184	900	2791
2	0	0	2035	5	183	900	2795
3	0	0	2043	5	183	900	2799
4	0	0	2035	4	183	900	2800
5	0	0	2004	4	183	900	2801
6	0	0	1965	4	183	900	2799
7	0	0	1929	4	183	900	2794
8	0	0	1892	4	184	900	2788
9	0	0	1885	5	184	900	2786
10	0	0	1905	5	183	900	2788
11	0	0	1925	5	183	899	2791
12	0	0	1939	5	183	900	2795
13	0	0	1973	5	183	900	2798
14	0	0	2007	5	183	900	2801
15	0	0	2041	5	184	900	2800
16	0	0	2041	5	183	900	2798
17	0	0	2036	5	182	900	2794
18	0	0	2067	5	184	900	2788
19	0	0	2099	5	183	900	2786
20	0	0	2081	4	183	900	2789
21	0	0	2011	4	184	900	2792
22	0	0	1941	4	185	900	2795
23	0	0	1926	5	184	900	2799
24	0	0	1928	5	183	900	2800
25	0	0	1908	4	184	900	2800
26	0	0	1858	4	183	900	2799
27	0	0	1832	5	183	900	2794
28	0	0	1843	5	183	900	2788
29	0	0	1871	5	183	899	2786
30	0	0	1915	5	183	900	2788
31	0	0	1960	5	184	900	2792
32	0	0	1977	5	183	900	2795
33	0	0	1969	5	184	900	2798
34	0	0	1967	5	183	900	2801
35	0	0	1933	5	184	899	2800
36	0	0	1918	5	182	900	2798
37	0	0	1933	5	183	900	2794
38	0	0	1949	5	183	900	2788
39	0	0	1975	5	183	900	2787
40	0	0	1993	5	183	900	2788
41	0	0	1981	4	183	900	2792
42	0	0	1953	4	184	900	2795
43	0	0	1923	4	185	900	2799
44	0	0	1901	5	184	900	2800
45	0	0	1906	5	184	900	2800
46	0	0	1882	4	183	900	2798
47	0	0	1847	4	185	900	2794
48	0	0	1790	4	184	900	2788
49	0	0	1743	4	183	900	2787
50	0	0	1741	5	184	900	2788
51	0	0	1781	5	184	900	2791
52	0	0	1808	5	183	899	2795
53	0	0	1776	4	184	900	2799
54	0	0	1736	4	183	900	2801
55	0	0	1739	6	184	899	2800
56	0	0	1787	5	184	900	2799
57	0	0	1850	5	184	900	2794
58	0	0	1880	5	184	900	2788
59	0	0	1889	5	183	900	2787
60	0	0	1896	4	183	900	2788
61	0	0	1889	5	184	900	2791
62	0	0	1876	4	183	900	2795
63	0	0	1891	5	183	900	2798
64	0	0	1923	5	183	900	2800
65	0	0	1900	4	181	900	2801
66	0	0	1842	4	183	901	2799
67	0	0	1784	4	183	900	2794
68	0	0	1747	4	183	900	2788
69	0	0	1747	5	184	900	2787
70	0	0	1759	4	182	900	2788
71	0	0	1789	5	184	900	2792
72	0	0	1820	5	183	900	2796
73	0	0	1810	4	184	900	2799
74	0	0	1779	4	183	900	2800
75	0	0	1775	5	183	900	2800
76	0	0	1812	5	182	900	2798
77	0	0	1853	5	182	900	2794
78	0	0	1900	5	183	900	2788
79	0	0	1918	4	182	900	2786
80	0	0	1858	3	181	900	2789
81	0	0	1821	5	183	901	2791
82	0	0	1831	5	184	900	2795
83	0	0	1835	5	184	899	2798
84	0	0	1827	5	183	900	2801
85	0	0	1813	5	183	900	2800
86	0	0	1784	4	183	900	2799
87	0	0	1752	4	184	900	2794
88	0	0	1749	4	183	900	2789
89	0	0	1749	4	183	900	2787
90	0	0	1743	5	182	900	2789
91	0	0	1747	5	183	901	2791
92	0	0	1764	5	183	900	2795
93	0	0	1796	5	183	900	2798
94	0	0	1858	5	183	900	2800
95	0	0	1899	5	183	900	2800
96	0	0	1922	5	183	900	2799
97	0	0	1952	5	183	900	2794
98	0	0	1956	5	183	900	2788
99	0	0	1916	4	183	900	2786
100	0	0	1861	4	184	900	2788
101	0	0	1841	4	183	900	2791
102	0	0	1832	5	183	900	2795
103	0	0	1829	5	183	900	2799
104	0	0	1810	4	184	900	2800
105	0	0	1783	4	182	900	2801
106	0	0	1771	5	184	901	2799
107	0	0	1760	4	182	900	2794
108	0	0	1734	4	184	900	2788
109	0	0	1704	4	184	900	2787
110	0	0	1687	5	183	900	2788
111	0	0	1712	5	184	900	2791
112	0	0	1741	5	183	900	2795
113	0	0	1799	5	183	900	2798
114	0	0	1859	5	183	900	2800
115	0	0	1868	5	182	900	2801
116	0	0	1853	4	183	901	2798
117	0	0	1828	4	184	900	2794
118	0	0	1823	5	182	900	2788
119	0	0	1833	5	184	900	2786
120	0	0	1843	5	183	900	2788
121	0	0	1843	5	184	900	2792
122	0	0	1864	5	184	900	2796
123	0	0	1852	4	184	899	2799
124	0	0	1820	4	184	900	2800
125	0	0	1830	4	184	900	2800
126	0	0	1836	5	183	900	2798
127	0	0	1849	5	184	900	2794
0	0	0	1879	5	183	900	2788
1	0	0	1865	4	183	900	2786
2	0	0	1871	4	184	900	2789
3	0	0	1925	5	184	901	2791
4	0	0	1982	5	184	900	2795
5	0	0	2036	5	184	899	2798
6	0	0	2098	5	182	900	2800
7	0	0	2160	6	183	900	2800
8	0	0	2248	5	183	900	2799
9	0	0	2354	5	183	900	2795
10	0	0	2441	5	183	900	2788
11	0	0	2512	5	185	900	2786
12	0	0	2572	5	184	900	2789
13	0	0	2623	5	184	901	2791
14	0	0	2646	5	183	900	2795
15	0	0	2679	5	182	900	2799
16	0	0	2751	5	184	900	2800
17	0	0	2802	6	183	900	2800
18	0	0	2807	5	184	900	2799
19	0	0	2824	5	184	901	2794
20	0	0	2819	5	182	900	2789
21	0	0	2775	4	184	900	2787
22	0	0	2759	6	184	900	2788
23	0	0	2753	5	183	900	2792
24	0	0	2751	5	183	900	2795
25	0	0	2724	4	182	900	2799
26	0	0	2658	4	183	900	2800
27	0	0	2581	4	184	900	2801
28	0	0	2496	4	184	901	2799
29	0	0	2415	4	183	900	2795
30	0	0	2342	4	182	900	2789
31	0	0	2259	4	183	900	2787
32	0	0	2131	4	184	900	2788
33	0	0	1989	4	183	900	2791
34	0	0	1881	4	184	899	2795
35	0	0	1802	4	184	900	2798
36	0	0	1718	4	183	900	2801
37	0	0	1650	4	184	900	2800
38	0	0	1612	4	183	900	2799
39	0	0	1587	4	184	900	2795
40	0	0	1525	4	182	900	2789
41	0	0	1462	4	183	900	2787
42	0	0	1443	4	182	900	2789
43	0	0	1444	5	184	900	2791
44	0	0	1440	4	183	901	2795
45	0	0	1433	4	183	900	2799
46	0	0	1427	4	184	900	2801
47	0	0	1433	4	183	900	2800
48	0	0	1473	5	185	900	2799
49	0	0	1525	5	184	900	2794
50	0	0	1561	5	184	900	2789
51	0	0	1583	5	183	900	2786
52	0	0	1575	4	184	900	2788
53	0	0	1575	5	182	900	2791
54	0	0	1560	4	183	899	2795
55	0	0	1514	4	183	900	2798
56	0	0	1498	5	184	900	2800
57	0	0	1512	6	183	900	2800
58	0	0	1481	4	183	900	2799
59	0	0	1420	4	184	899	2795
60	0	0	1410	5	183	900	2789
61	0	0	1442	5	183	900	2787
62	0	0	1501	5	183	900	2788
63	0	0	1545	4	184	900	2791
64	0	0	1584	5	183	900	2795
65	0	0	1610	5	182	900	2798
66	0	0	1640	5	183	900	2801
67	0	0	1683	5	183	900	2800
68	0	0	1735	4	183	900	2799
69	0	0	1771	5	184	901	2795
70	0	0	1751	4	184	900	2789
71	0	0	1733	5	183	900	2787
72	0	0	1751	5	183	900	2788
73	0	0	1771	5	183	900	2791
74	0	0	1750	4	183	900	2795
75	0	0	1701	4	183	900	2799
76	0	0	1671	4	183	900	2800
77	0	0	1663	5	183	900	2801
78	0	0	1691	4	184	900	2799
79	0	0	1701	4	184	899	2795
80	0	0	1633	4	183	900	2789
81	0	0	1574	4	183	900	2787
82	0	0	1609	5	184	900	2788
83	0	0	1691	4	183	900	2791
84	0	0	1780	5	182	900	2795
85	0	0	1820	5	184	900	2798
86	0	0	1839	5	183	900	2800
87	0	0	1839	5	183	900	2801
88	0	0	1826	4	184	900	2799
89	0	0	1836	5	184	901	2795
90	0	0	1850	5	183	900	2789
91	0	0	1857	5	183	900	2787
92	0	0	1849	4	182	900	2788
93	0	0	1834	4	183	900	2791
94	0	0	1810	4	184	901	2795
95	0	0	1778	4	183	900	2799
96	0	0	1768	5	183	900	2800
97	0	0	1777	5	184	900	2801
98	0	0	1790	5	184	900	2799
99	0	0	1815	5	183	900	2795
100	0	0	1820	5	183	900	2789
101	0	0	1810	5	183	900	2787
102	0	0	1787	4	184	900	2788
103	0	0	1738	4	184	900	2791
104	0	0	1702	4	184	900	2795
105	0	0	1705	5	183	900	2798
106	0	0	1747	5	184	900	2800
107	0	0	1796	4	184	900	2800
108	0	0	1802	5	184	900	2799
109	0	0	1816	4	183	900	2795
110	0	0	1850	5	183	900	2789
111	0	0	1854	5	183	900	2787
112	0	0	1852	5	183	900	2788
113	0	0	1842	4	184	900	2791
114	0	0	1814	4	183	900	2794
115	0	0	1769	5	181	900	2798
116	0	0	1758	5	184	900	2800
117	0	0	1780	5	184	900	2800
118	0	0	1799	5	183	900	2799
119	0	0	1814	5	184	900	2795
120	0	0	1819	5	182	900	2788
121	0	0	1824	5	182	900	2786
122	0	0	1851	5	184	900	2788
123	0	0	1853	5	183	899	2791
124	0	0	1841	5	182	900	2795
125	0	0	1825	4	183	900	2798
126	0	0	1818	5	182	900	2801
127	0	0	1804	4	183	900	2801
0	0	0	1792	4	183	900	2800
1	0	0	1813	5	184	900	2795
2	0	0	1878	5	182	900	2789
3	0	0	1965	5	184	900	2787
4	0	0	1993	5	184	900	2788
5	0	0	1947	3	183	900	2791
6	0	0	1898	4	184	900	2795
7	0	0	1862	4	184	900	2798
8	0	0	1855	5	184	900	2800
9	0	0	1839	4	185	900	2800
10	0	0	1817	4	184	900	2799
11	0	0	1799	4	185	900	2795
12	0	0	1767	4	182	900	2789
13	0	0	1734	5	183	900	2787
14	0	0	1766	5	184	900	2788
15	0	0	1822	5	183	900	2791
16	0	0	1857	5	183	900	2795
17	0	0	1880	5	183	900	2798
18	0	0	1905	5	183	900	2800
19	0	0	1926	5	183	900	2801
20	0	0	1918	4	183	900	2799
21	0	0	1890	4	182	900	2795
22	0	0	1901	5	183	900	2789
23	0	0	1914	5	183	900	2786
24	0	0	1903	4	183	900	2788
25	0	0	1876	4	184	900	2791
26	0	0	1852	4	184	900	2795
27	0	0	1834	4	183	900	2798
28	0	0	1809	4	184	900	2800
29	0	0	1792	4	184	900	2800
30	0	0	1780	3	184	900	2799
31	0	0	1777	5	183	900	2795
32	0	0	1763	4	184	900	2789
33	0	0	1762	5	183	900	2787
34	0	0	1793	5	183	900	2788
35	0	0	1826	5	183	899	2791
36	0	0	1850	5	183	900	2794
37	0	0	1867	5	184	900	2798
38	0	0	1876	5	184	900	2801
39	0	0	1893	6	183	900	2800
40	0	0	1902	3	184	900	2799
41	0	0	1920	5	182	900	2795
42	0	0	1960	5	183	900	2788
43	0	0	1990	5	182	900	2786
44	0	0	1988	5	185	900	2788
45	0	0	1983	5	184	900	2791
46	0	0	1973	4	183	900	2795
47	0	0	1943	4	184	900	2798
48	0	0	1901	4	183	900	2800
49	0	0	1870	4	183	900	2801
50	0	0	1867	5	183	900	2800
51	0	0	1881	5	184	900	2795
52	0	0	1892	4	183	900	2789
53	0	0	1864	4	184	900	2786
54	0	0	1839	4	183	900	2788
55	0	0	1836	4	183	900	2791
56	0	0	1858	5	183	900	2794
57	0	0	1883	5	183	900	2798
58	0	0	1934	5	184	900	2800
59	0	0	2011	5	183	900	2800
60	0	0	2038	5	183	900	2799
61	0	0	2006	4	183	900	2795
62	0	0	1966	4	183	900	2789
63	0	0	1959	5	184	900	2787
64	0	0	1949	4	184	900	2788
65	0	0	1937	5	184	900	2791
66	0	0	1945	5	183	900	2794
67	0	0	1955	5	183	900	2798
68	0	0	1944	5	183	899	2800
69	0	0	1949	5	184	900	2800
70	0	0	1958	5	184	899	2799
71	0	0	1936	4	184	900	2796
72	0	0	1911	4	183	900	2789
73	0	0	1911	5	183	900	2786
74	0	0	1938	5	183	900	2788
75	0	0	1953	5	183	900	2791
76	0	0	1935	4	183	900	2794
77	0	0	1927	5	184	900	2798
78	0	0	1959	5	184	900	2800
79	0	0	1994	5	184	900	2801
80	0	0	2007	4	183	900	2799
81	0	0	1961	4	184	900	2795
82	0	0	1938	5	184	900	2789
83	0	0	1966	5	184	900	2787
84	0	0	2002	5	182	901	2788
85	0	0	2038	5	184	900	2791
86	0	0	2051	5	183	900	2794
87	0	0	2034	5	183	900	2798
88	0	0	2029	5	183	900	2800
89	0	0	2033	5	183	900	2800
90	0	0	2063	4	183	900	2799
91	0	0	2076	5	183	900	2796
92	0	0	2064	5	184	900	2789
93	0	0	2045	4	182	900	2786
94	0	0	2041	5	184	900	2787
95	0	0	2046	5	183	900	2791
96	0	0	2056	5	184	900	2794
97	0	0	2102	5	183	900	2798
98	0	0	2150	5	182	900	2800
99	0	0	2150	5	183	900	2800
100	0	0	2110	5	185	900	2799
101	0	0	2053	4	184	900	2795
102	0	0	2049	5	183	900	2789
103	0	0	2078	5	183	899	2786
104	0	0	2119	5	183	900	2787
105	0	0	2117	5	183	900	2790
106	0	0	2104	5	184	900	2794
107	0	0	2091	5	184	900	2798
108	0	0	2071	4	183	900	2800
109	0	0	2064	5	183	900	2800
110	0	0	2060	6	183	900	2799
111	0	0	2041	5	184	900	2795
112	0	0	2016	4	184	900	2789
113	0	0	2000	5	184	900	2786
114	0	0	2019	5	184	900	2788
115	0	0	2056	5	182	900	2791
116	0	0	2083	5	183	900	2794
117	0	0	2105	5	183	900	2798
118	0	0	2116	5	183	901	2800
119	0	0	2130	5	184	900	2801
120	0	0	2149	5	184	900	2799
121	0	0	2170	5	184	900	2795
122	0	0	2192	5	183	900	2789
123	0	0	2194	5	183	900	2786
124	0	0	2182	5	185	900	2787
125	0	0	2161	5	184	900	2790
126	0	0	2137	4	183	900	2794
127	0	0	2109	4	183	900	2798
0	0	0	2070	4	184	900	2800
1	0	0	2038	4	183	900	2800
2	0	0	2050	5	183	900	2799
3	0	0	2058	5	184	900	2795
4	0	0	2022	4	183	900	2789
5	0	0	2003	5	184	900	2787
6	0	0	1995	5	182	900	2788
7	0	0	1983	5	184	900	2791
8	0	0	1991	5	183	900	2795
9	0	0	2011	5	183	900	2798
10	0	0	2045	5	184	900	2800
11	0	0	2081	5	182	900	2800
12	0	0	2113	5	182	900	2799
13	0	0	2132	5	184	900	2795
14	0	0	2127	5	182	900	2789
15	0	0	2115	5	183	900	2786
16	0	0	2128	5	183	900	2787
17	0	0	2124	4	183	900	2790
18	0	0	2075	4	183	900	2794
19	0	0	2018	4	184	900	2798
20	0	0	1979	4	184	900	2801
21	0	0	1965	5	184	900	2800
22	0	0	1997	5	183	900	2799
23	0	0	2033	5	182	900	2795
24	0	0	2017	4	184	900	2789
25	0	0	1972	4	183	900	2787
26	0	0	1925	4	184	900	2788
27	0	0	1904	4	183	900	2791
28	0	0	1896	4	183	900	2794
29	0	0	1900	5	184	900	2798
30	0	0	1896	5	184	900	2800
31	0	0	1911	5	183	900	2800
32	0	0	1906	5	184	900	2799
33	0	0	1893	5	184	900	2796
34	0	0	1901	5	183	900	2789
35	0	0	1934	4	183	900	2786
36	0	0	1964	5	185	900	2788
37	0	0	1966	5	183	900	2791
38	0	0	1936	4	182	900	2794
39	0	0	1875	4	184	900	2798
40	0	0	1827	4	185	900	2800
41	0	0	1804	5	184	900	2800
42	0	0	1825	5	183	900	2799
43	0	0	1870	4	184	900	2796
44	0	0	1884	5	184	900	2789
45	0	0	1864	4	184	900	2787
46	0	0	1858	6	183	900	2787
47	0	0	1856	5	183	900	2790
48	0	0	1831	4	183	900	2794
49	0	0	1823	5	183	900	2798
50	0	0	1850	5	184	900	2800
51	0	0	1877	5	183	900	2800
52	0	0	1907	5	184	900	2799
53	0	0	1948	5	184	900	2795
54	0	0	1961	5	184	900	2790
55	0	0	1936	4	184	899	2786
56	0	0	1888	4	183	899	2788
57	0	0	1835	4	183	900	2791
58	0	0	1789	4	183	901	2794
59	0	0	1795	5	185	900	2798
60	0	0	1821	5	183	900	2800
61	0	0	1825	4	185	900	2800
62	0	0	1803	3	184	900	2799
63	0	0	1791	4	183	901	2796
64	0	0	1778	5	184	900	2789
65	0	0	1769	4	183	900	2786
66	0	0	1768	5	183	899	2788
67	0	0	1775	4	183	900	2791
68	0	0	1792	5	184	900	2794
69	0	0	1801	5	184	900	2798
70	0	0	1824	4	183	900	2800
71	0	0	1861	5	184	900	2800
72	0	0	1917	4	184	900	2800
73	0	0	1943	4	183	900	2795
74	0	0	1932	4	183	900	2790
75	0	0	1926	5	183	900	2786
76	0	0	1903	4	183	900	2787
77	0	0	1886	5	183	900	2790
78	0	0	1879	4	183	900	2794
79	0	0	1853	5	184	900	2798
80	0	0	1817	4	186	900	2800
81	0	0	1773	4	183	900	2800
82	0	0	1712	4	183	900	2800
83	0	0	1667	4	184	901	2796
84	0	0	1689	5	183	900	2789
85	0	0	1724	5	183	900	2787
86	0	0	1756	5	184	900	2788
87	0	0	1774	4	183	900	2791
88	0	0	1792	5	184	900	2794
89	0	0	1823	5	183	900	2798
90	0	0	1858	5	183	900	2800
91	0	0	1878	4	183	900	2800
92	0	0	1883	4	184	900	2800
93	0	0	1870	4	182	900	2796
94	0	0	1860	5	183	900	2789
95	0	0	1878	5	184	900	2786
96	0	0	1870	4	183	900	2787
97	0	0	1839	4	184	900	2791
98	0	0	1829	4	185	900	2794
99	0	0	1833	5	184	900	2798
100	0	0	1839	6	183	900	2800
101	0	0	1839	5	183	899	2800
102	0	0	1821	4	184	900	2800
103	0	0	1799	4	183	900	2796
104	0	0	1780	4	183	900	2790
105	0	0	1781	5	183	900	2787
106	0	0	1806	5	184	899	2788
107	0	0	1798	4	183	900	2791
108	0	0	1795	4	183	900	2795
109	0	0	1804	5	183	900	2798
110	0	0	1807	5	183	900	2800
111	0	0	1818	5	183	900	2801
112	0	0	1842	5	184	900	2799
113	0	0	1877	4	184	900	2795
114	0	0	1885	5	184	900	2789
115	0	0	1877	5	184	900	2787
116	0	0	1861	4	183	900	2787
117	0	0	1838	5	184	900	2791
118	0	0	1818	4	183	900	2794
119	0	0	1783	4	183	900	2798
120	0	0	1745	4	184	900	2801
121	0	0	1748	4	183	900	2801
122	0	0	1780	6	183	900	2799
123	0	0	1811	5	184	900	2796
124	0	0	1835	5	184	900	2790
125	0	0	1804	4	183	900	2787
126	0	0	1772	4	184	900	2787
127	0	0	1752	4	184	900	2790
0	0	0	1740	5	183	900	2794
1	0	0	1746	5	184	900	2798
2	0	0	1782	5	184	900	2800
3	0	0	1811	5	183	900	2800
4	0	0	1800	6	184	900	2799
5	0	0	1782	4	184	900	2796
6	0	0	1789	5	183	900	2789
7	0	0	1817	5	183	900	2787
8	0	0	1817	6	184	900	2787
9	0	0	1814	5	183	900	2790
10	0	0	1851	5	184	900	2794
11	0	0	1891	5	184	899	2798
12	0	0	1897	4	183	900	2800
13	0	0	1855	4	184	900	2800
14	0	0	1809	4	182	901	2800
15	0	0	1774	4	183	900	2796
16	0	0	1752	4	183	900	2790
17	0	0	1715	4	183	900	2786
18	0	0	1705	5	184	900	2788
19	0	0	1739	5	184	900	2791
20	0	0	1797	5	183	900	2794
21	0	0	1846	5	183	900	2797
22	0	0	1864	5	183	900	2800
23	0	0	1870	4	184	900	2800
24	0	0	1867	6	182	899	2799
25	0	0	1841	4	184	900	2796
26	0	0	1842	5	184	899	2790
27	0	0	1853	5	184	900	2787
28	0	0	1849	5	184	900	2787
29	0	0	1846	4	184	900	2790
30	0	0	1841	4	184	901	2794
31	0	0	1818	4	184	900	2798
32	0	0	1810	5	183	900	2800
33	0	0	1811	6	183	900	2800
34	0	0	1790	5	184	900	2800
35	0	0	1779	5	183	900	2796
36	0	0	1774	4	184	900	2789
37	0	0	1764	4	183	900	2787
38	0	0	1794	4	183	900	2787
39	0	0	1821	6	182	900	2790
40	0	0	1852	5	184	900	2794
41	0	0	1877	5	183	899	2797
42	0	0	1885	5	184	899	2800
43	0	0	1888	5	182	900	2800
44	0	0	1872	4	182	900	2799
45	0	0	1872	5	183	900	2796
46	0	0	1910	5	184	899	2790
47	0	0	1973	5	182	900	2786
48	0	0	2016	5	182	900	2788
49	0	0	1996	4	184	900	2791
50	0	0	1934	4	184	900	2794
51	0	0	1892	4	183	900	2798
52	0	0	1853	4	183	900	2799
53	0	0	1814	4	184	900	2801
54	0	0	1787	4	184	900	2799
55	0	0	1765	4	183	900	2796
56	0	0	1766	5	183	900	2790
57	0	0	1752	4	184	900	2787
58	0	0	1754	6	184	900	2787
59	0	0	1762	5	183	899	2790
60	0	0	1793	5	184	900	2794
61	0	0	1847	5	183	899	2798
62	0	0	1878	5	183	900	2800
63	0	0	1889	5	182	900	2800
64	0	0	1917	4	184	900	2799
65	0	0	1948	4	184	900	2796
66	0	0	1982	5	183	900	2790
67	0	0	1984	4	183	900	2786
68	0	0	1943	4	184	900	2787
69	0	0	1893	4	184	900	2790
70	0	0	1851	4	183	900	2794
71	0	0	1841	5	183	899	2797
72	0	0	1833	5	184	900	2800
73	0	0	1797	4	183	900	2800
74	0	0	1743	5	183	900	2800
75	0	0	1701	4	183	900	2796
76	0	0	1713	4	184	900	2790
77	0	0	1756	5	184	900	2787
78	0	0	1810	5	182	900	2788
79	0	0	1838	5	184	900	2790
80	0	0	1841	5	183	900	2794
81	0	0	1862	5	183	900	2797
82	0	0	1885	5	184	900	2800
83	0	0	1862	4	183	900	2801
84	0	0	1842	4	184	900	2800
85	0	0	1840	5	183	900	2796
86	0	0	1865	5	183	900	2790
87	0	0	1891	5	183	900	2786
88	0	0	1897	5	183	900	2788
89	0	0	1901	5	183	900	2790
90	0	0	1897	5	183	900	2793
91	0	0	1880	4	184	900	2798
92	0	0	1860	4	183	900	2800
93	0	0	1826	4	184	900	2801
94	0	0	1797	4	184	900	2800
95	0	0	1808	5	182	900	2797
96	0	0	1834	5	184	899	2790
97	0	0	1845	5	184	900	2787
98	0	0	1848	5	183	900	2787
99	0	0	1865	4	183	900	2790
100	0	0	1887	5	183	900	2794
101	0	0	1883	4	184	900	2797
102	0	0	1860	4	183	900	2799
103	0	0	1854	5	182	900	2800
104	0	0	1833	5	183	899	2799
105	0	0	1791	4	184	900	2796
106	0	0	1794	5	183	900	2790
107	0	0	1840	4	183	900	2786
108	0	0	1866	5	182	900	2788
109	0	0	1867	5	183	900	2791
110	0	0	1871	5	184	900	2794
111	0	0	1898	5	184	900	2797
112	0	0	1915	5	183	900	2800
113	0	0	1927	5	184	900	2800
114	0	0	1918	5	183	900	2800
115	0	0	1910	4	184	900	2796
116	0	0	1881	4	184	900	2790
117	0	0	1825	4	184	900	2787
118	0	0	1785	3	185	900	2787
119	0	0	1792	5	184	900	2790
120	0	0	1836	5	184	900	2793
121	0	0	1866	5	184	900	2797
122	0	0	1876	5	183	900	2799
123	0	0	1895	5	183	900	2801
124	0	0	1922	5	184	900	2800
125	0	0	1964	5	183	900	2797
126	0	0	2035	5	183	900	2790
127	0	0	2064	4	184	900	2787
0	0	0	2004	5	183	900	2787
1	0	0	1948	4	183	900	2790
2	0	0	1877	4	184	900	2793
3	0	0	1809	4	183	899	2797
4	0	0	1774	4	183	900	2799
5	0	0	1774	4	184	900	2800
6	0	0	1787	5	184	900	2799
7	0	0	1792	5	184	900	2796
8	0	0	1802	5	183	899	2790
9	0	0	1808	5	184	900	2786
10	0	0	1808	5	183	900	2787
11	0	0	1802	5	184	900	2790
12	0	0	1815	5	184	900	2793
13	0	0	1858	5	184	900	2798
14	0	0	1895	5	184	900	2800
15	0	0	1929	5	184	900	2801
16	0	0	1938	5	184	900	2800
17	0	0	1913	4	184	900	2797
18	0	0	1901	5	183	900	2790
19	0	0	1925	4	183	900	2787
20	0	0	1917	4	182	900	2788
21	0	0	1880	4	183	900	2790
22	0	0	1846	4	183	900	2793
23	0	0	1830	4	184	899	2797
24	0	0	1849	4	183	900	2800
25	0	0	1861	4	183	900	2800
26	0	0	1857	5	183	900	2799
27	0	0	1865	5	183	900	2796
28	0	0	1879	5	183	899	2790
29	0	0	1888	5	184	900	2787
30	0	0	1879	4	184	900	2788
31	0	0	1875	5	183	900	2790
32	0	0	1882	5	184	900	2794
33	0	0	1868	4	183	900	2797
34	0	0	1844	4	184	900	2800
35	0	0	1854	5	183	900	2800
36	0	0	1892	5	183	900	2799
37	0	0	1921	4	183	900	2797
38	0	0	1928	5	183	900	2790
39	0	0	1936	5	182	900	2786
40	0	0	1941	5	184	900	2788
41	0	0	1943	5	183	900	2790
42	0	0	1917	4	184	900	2793
43	0	0	1885	4	183	900	2797
44	0	0	1876	4	183	900	2799
45	0	0	1884	5	183	900	2800
46	0	0	1863	4	184	901	2800
47	0	0	1829	4	183	900	2797
48	0	0	1802	4	184	899	2790
49	0	0	1774	5	184	900	2787
50	0	0	1764	5	183	901	2788
51	0	0	1773	5	183	900	2790
52	0	0	1785	5	183	900	2794
53	0	0	1831	5	184	900	2798
54	0	0	1873	5	183	900	2800
55	0	0	1888	5	184	899	2800
56	0	0	1908	5	182	900	2799
57	0	0	1935	5	183	900	2796
58	0	0	1938	5	182	900	2790
59	0	0	1960	5	183	900	2787
60	0	0	2008	4	182	900	2787
61	0	0	2028	5	184	900	2790
62	0	0	2024	5	183	900	2793
63	0	0	2017	4	183	900	2798
64	0	0	1971	4	184	900	2800
65	0	0	1911	4	184	900	2801
66	0	0	1856	5	184	900	2800
67	0	0	1836	5	183	900	2797
68	0	0	1856	5	183	900	2790
69	0	0	1868	5	184	900	2787
70	0	0	1845	5	183	900	2787
71	0	0	1838	5	183	900	2790
72	0	0	1837	5	184	900	2793
73	0	0	1848	5	184	900	2797
74	0	0	1881	4	183	900	2800
75	0	0	1903	5	183	900	2800
76	0	0	1904	5	182	900	2800
77	0	0	1913	5	183	900	2797
78	0	0	1914	5	182	900	2790
79	0	0	1920	5	183	900	2786
80	0	0	1918	5	184	900	2787
81	0	0	1940	5	184	900	2790
82	0	0	1964	5	183	900	2793
83	0	0	1962	5	184	900	2797
84	0	0	1959	5	184	900	2800
85	0	0	1951	5	183	900	2801
86	0	0	1947	5	184	900	2800
87	0	0	1960	4	185	900	2797
88	0	0	1965	5	184	900	2790
89	0	0	1930	3	183	900	2787
90	0	0	1892	4	185	900	2787
91	0	0	1865	4	184	900	2790
92	0	0	1857	5	184	900	2793
93	0	0	1877	5	183	900	2797
94	0	0	1912	4	183	900	2800
95	0	0	1930	5	182	900	2800
96	0	0	1941	6	184	900	2800
97	0	0	1950	4	183	900	2797
98	0	0	1951	5	184	900	2790
99	0	0	1936	4	183	900	2787
100	0	0	1929	5	182	900	2788
101	0	0	1928	5	183	900	2791
102	0	0	1911	4	184	900	2794
103	0	0	1894	4	184	900	2798
104	0	0	1890	5	183	899	2800
105	0	0	1862	4	184	899	2800
106	0	0	1838	5	182	900	2800
107	0	0	1863	4	184	900	2797
108	0	0	1909	5	183	900	2790
109	0	0	1896	3	183	900	2787
110	0	0	1861	5	184	900	2787
111	0	0	1830	4	183	900	2790
112	0	0	1841	4	184	900	2794
113	0	0	1870	5	183	900	2797
114	0	0	1918	5	183	900	2800
115	0	0	1950	5	183	900	2800
116	0	0	1958	6	183	900	2800
117	0	0	1952	5	184	900	2797
118	0	0	1947	5	183	900	2790
119	0	0	1950	5	184	900	2787
120	0	0	1954	5	182	900	2787
121	0	0	1932	5	183	900	2790
122	0	0	1875	3	184	900	2793
123	0	0	1818	4	184	900	2797
124	0	0	1777	4	183	900	2799
125	0	0	1792	5	183	900	2801
126	0	0	1875	4	184	900	2800
127	0	0	1941	6	184	900	2797
0	0	0	1916	4	184	900	2791
1	0	0	1896	5	184	900	2787
2	0	0	1889	4	184	900	2788
3	0	0	1876	4	183	900	2791
4	0	0	1887	4	184	900	2794
5	0	0	1925	5	183	900	2797
6	0	0	1953	3	183	900	2800
7	0	0	1946	4	181	900	2800
8	0	0	1943	5	185	900	2800
9	0	0	1951	6	184	900	2797
10	0	0	1944	5	183	900	2790
11	0	0	1942	5	184	899	2787
12	0	0	1941	5	184	900	2787
13	0	0	1951	5	183	899	2790
14	0	0	1936	3	184	900	2793
15	0	0	1901	4	183	900	2797
16	0	0	1895	5	183	900	2799
17	0	0	1910	6	184	900	2800
18	0	0	1916	6	184	900	2800
19	0	0	1918	5	183	900	2797
20	0	0	1903	4	185	900	2791
21	0	0	1888	5	183	900	2787
22	0	0	1882	5	184	900	2788
23	0	0	1870	4	183	900	2791
24	0	0	1865	5	182	900	2794
25	0	0	1901	5	184	900	2797
26	0	0	1948	5	183	900	2800
27	0	0	1978	5	183	900	2801
28	0	0	1970	4	182	901	2800
29	0	0	1935	5	183	900	2797
30	0	0	1928	5	182	900	2790
31	0	0	1917	4	184	900	2786
32	0	0	1915	5	184	900	2787
33	0	0	1921	5	184	900	2790
34	0	0	1905	5	184	900	2793
35	0	0	1910	5	183	900	2797
36	0	0	1935	5	183	899	2800
37	0	0	1963	5	182	900	2801
38	0	0	1955	4	183	900	2800
39	0	0	1909	4	183	900	2798
40	0	0	1882	5	184	900	2791
41	0	0	1889	3	183	900	2788
42	0	0	1927	5	184	900	2787
43	0	0	1988	5	183	900	2790
44	0	0	2045	5	183	900	2793
45	0	0	2063	5	183	899	2797
46	0	0	2044	4	183	901	2800
47	0	0	2029	4	184	900	2800
48	0	0	2014	4	184	899	2800
49	0	0	1999	4	184	900	2797
50	0	0	1990	5	183	900	2791
51	0	0	1979	4	183	899	2787
52	0	0	1955	4	183	900	2787
53	0	0	1924	4	183	899	2790
54	0	0	1912	6	182	900	2793
55	0	0	1911	4	183	900	2797
56	0	0	1909	5	184	900	2800
57	0	0	1934	5	184	900	2801
58	0	0	1979	5	184	900	2801
59	0	0	2015	5	184	900	2797
60	0	0	2042	5	183	900	2791
61	0	0	2031	5	183	900	2787
62	0	0	2001	4	184	900	2787
63	0	0	1990	5	182	900	2790
64	0	0	1986	5	184	900	2794
65	0	0	1993	5	183	900	2797
66	0	0	2011	5	183	900	2799
67	0	0	2040	5	183	900	2800
68	0	0	2020	4	183	899	2800
69	0	0	1998	4	184	900	2797
70	0	0	2001	5	184	900	2791
71	0	0	1991	5	184	899	2787
72	0	0	1955	5	183	900	2787
73	0	0	1945	5	183	899	2790
74	0	0	1965	4	183	900	2793
75	0	0	1980	5	184	900	2797
76	0	0	1965	5	183	900	2799
77	0	0	1987	5	184	900	2800
78	0	0	2028	5	184	899	2800
79	0	0	2037	5	184	900	2797
80	0	0	1997	4	183	900	2791
81	0	0	1924	4	184	900	2787
82	0	0	1865	5	183	900	2787
83	0	0	1852	5	184	899	2790
84	0	0	1878	4	183	900	2793
85	0	0	1939	5	184	900	2797
86	0	0	1970	5	182	900	2800
87	0	0	1968	5	183	900	2801
88	0	0	1951	5	183	900	2800
89	0	0	1933	5	183	900	2797
90	0	0	1930	5	183	900	2791
91	0	0	1953	5	184	900	2787
92	0	0	1962	5	183	900	2788
93	0	0	1940	4	183	900	2790
94	0	0	1935	4	184	900	2793
95	0	0	1933	5	183	900	2797
96	0	0	1916	5	183	900	2799
97	0	0	1884	4	184	900	2801
98	0	0	1841	4	183	900	2801
99	0	0	1797	3	184	900	2797
100	0	0	1790	4	183	900	2791
101	0	0	1789	4	183	900	2787
102	0	0	1807	5	185	900	2787
103	0	0	1850	5	184	900	2790
104	0	0	1903	4	183	900	2794
105	0	0	1961	5	184	900	2797
106	0	0	1985	5	183	900	2800
107	0	0	1953	4	184	900	2801
108	0	0	1934	5	184	899	2800
109	0	0	1941	5	182	900	2797
110	0	0	1952	5	184	900	2791
111	0	0	1969	5	183	899	2787
112	0	0	1968	5	183	900	2787
113	0	0	1944	5	183	899	2790
114	0	0	1903	3	183	900	2793
115	0	0	1880	5	184	900	2797
116	0	0	1880	5	182	900	2799
117	0	0	1896	5	184	900	2801
118	0	0	1911	5	183	900	2801
119	0	0	1902	4	184	900	2797
120	0	0	1871	4	184	900	2791
121	0	0	1832	4	183	900	2788
122	0	0	1810	4	185	900	2787
123	0	0	1815	5	184	900	2790
124	0	0	1827	4	183	900	2794
125	0	0	1859	5	184	900	2797
126	0	0	1904	5	184	900	2800
127	0	0	1954	5	184	900	2801
0	0	0	1999	5	184	899	2800
1	0	0	1999	4	183	900	2797
2	0	0	1944	4	184	899	2791
3	0	0	1894	5	183	900	2786
4	0	0	1901	5	184	899	2787
5	0	0	1943	6	184	900	2790
6	0	0	2005	4	182	900	2793
7	0	0	2029	4	183	900	2797
8	0	0	2012	4	183	900	2800
9	0	0	1984	4	184	900	2801
10	0	0	1935	4	184	900	2801
11	0	0	1864	3	183	900	2798
12	0	0	1833	4	183	900	2792
13	0	0	1863	5	183	899	2787
14	0	0	1917	5	183	900	2788
15	0	0	1959	5	184	900	2790
16	0	0	1952	4	184	900	2793
17	0	0	1928	4	184	900	2797
18	0	0	1930	5	183	900	2800
19	0	0	1932	5	185	900	2800
20	0	0	1903	5	184	899	2800
21	0	0	1928	5	183	900	2797
22	0	0	1996	5	183	900	2791
23	0	0	2012	5	184	900	2788
24	0	0	2008	5	184	899	2787
25	0	0	2004	5	185	900	2790
26	0	0	1992	4	184	900	2794
27	0	0	1959	4	183	900	2797
28	0	0	1917	4	184	899	2800
29	0	0	1877	4	184	900	2801
30	0	0	1857	5	183	900	2800
31	0	0	1863	5	183	900	2798
32	0	0	1913	5	183	900	2791
33	0	0	1957	5	183	899	2787
34	0	0	1921	4	183	899	2788
35	0	0	1887	5	184	900	2790
36	0	0	1888	4	183	900	2793
37	0	0	1904	5	183	900	2797
38	0	0	1938	5	182	900	2799
39	0	0	1983	4	183	900	2800
40	0	0	2014	5	183	899	2800
41	0	0	2037	4	183	900	2798
42	0	0	2099	4	183	900	2791
43	0	0	2186	5	183	900	2787
44	0	0	2245	5	183	900	2787
45	0	0	2261	5	183	899	2790
46	0	0	2258	4	183	900	2793
47	0	0	2267	5	184	900	2797
48	0	0	2273	5	183	900	2800
49	0	0	2272	5	184	900	2801
50	0	0	2284	5	183	900	2800
51	0	0	2315	5	182	900	2798
52	0	0	2364	5	184	900	2792
53	0	0	2409	5	184	900	2787
54	0	0	2448	4	183	899	2787
55	0	0	2503	5	183	900	2789
56	0	0	2568	4	183	900	2793
57	0	0	2632	5	184	900	2797
58	0	0	2713	5	184	900	2800
59	0	0	2804	5	184	900	2801
60	0	0	2866	5	183	900	2800
61	0	0	2934	5	184	900	2798
62	0	0	3000	5	184	900	2791
63	0	0	3024	5	183	900	2787
64	0	0	3017	5	183	899	2788
65	0	0	2988	5	183	900	2790
66	0	0	2937	4	184	900	2793
67	0	0	2875	4	183	900	2796
68	0	0	2829	5	182	899	2799
69	0	0	2788	4	184	900	2800
70	0	0	2721	4	183	900	2800
71	0	0	2627	4	184	900	2798
72	0	0	2526	4	184	900	2792
73	0	0	2422	4	183	900	2787
74	0	0	2327	4	183	900	2787
75	0	0	2229	4	184	899	2790
76	0	0	2092	3	184	900	2793
77	0	0	1956	4	183	899	2797
78	0	0	1873	4	184	900	2799
79	0	0	1836	4	184	900	2801
80	0	0	1829	4	183	900	2800
81	0	0	1844	5	183	900	2798
82	0	0	1867	5	184	900	2792
83	0	0	1835	4	183	900	2787
84	0	0	1805	4	184	900	2787
85	0	0	1784	4	184	900	2789
86	0	0	1739	3	184	900	2792
87	0	0	1689	4	182	900	2796
88	0	0	1646	4	184	900	2799
89	0	0	1605	4	183	900	2800
90	0	0	1582	4	184	900	2800
91	0	0	1587	4	184	900	2798
92	0	0	1593	5	184	900	2792
93	0	0	1595	5	183	900	2788
94	0	0	1582	4	183	900	2787
95	0	0	1578	5	183	899	2790
96	0	0	1606	5	184	900	2793
97	0	0	1634	5	184	900	2797
98	0	0	1643	5	184	900	2799
99	0	0	1646	5	184	900	2801
100	0	0	1669	5	184	900	2800
101	0	0	1694	4	182	900	2797
102	0	0	1747	5	183	900	2792
103	0	0	1830	5	183	900	2786
104	0	0	1885	5	182	900	2787
105	0	0	1914	5	184	900	2789
106	0	0	1891	3	182	900	2793
107	0	0	1852	3	184	900	2796
108	0	0	1818	5	183	899	2799
109	0	0	1794	4	184	899	2801
110	0	0	1771	4	184	900	2801
111	0	0	1761	3	183	900	2798
112	0	0	1746	4	183	900	2792
113	0	0	1730	4	185	900	2788
114	0	0	1733	5	184	901	2787
115	0	0	1751	5	184	900	2790
116	0	0	1798	5	184	900	2793
117	0	0	1831	5	183	900	2796
118	0	0	1803	3	182	900	2799
119	0	0	1760	4	182	899	2801
120	0	0	1776	5	183	900	2800
121	0	0	1848	5	183	899	2797
122	0	0	1924	5	184	900	2791
123	0	0	1963	5	182	899	2787
124	0	0	1950	5	183	900	2787
125	0	0	1945	5	184	900	2790
126	0	0	1949	4	184	900	2793
127	0	0	1946	4	185	900	2797
0	0	0	1914	6	183	900	2800
1	0	0	1885	5	184	900	2801
2	0	0	1871	4	184	900	2800
3	0	0	1859	3	184	900	2798
4	0	0	1840	3	183	899	2791
5	0	0	1807	5	183	900	2787
6	0	0	1786	5	184	900	2787
7	0	0	1793	5	184	900	2789
8	0	0	1825	4	182	900	2793
9	0	0	1850	5	183	900	2796
10	0	0	1860	5	183	900	2800
11	0	0	1851	4	185	899	2800
12	0	0	1875	5	184	900	2800
13	0	0	1920	5	183	900	2798
14	0	0	1934	5	184	900	2792
15	0	0	1959	5	183	900	2787
16	0	0	2005	5	183	899	2787
17	0	0	2020	5	182	900	2790
18	0	0	1997	3	184	900	2793
19	0	0	1981	5	184	900	2796
20	0	0	1970	4	184	900	2799
21	0	0	1955	5	184	900	2800
22	0	0	1937	4	183	900	2800
23	0	0	1888	4	183	900	2798
24	0	0	1838	4	183	899	2792
25	0	0	1811	4	184	899	2787
26	0	0	1800	5	183	899	2787
27	0	0	1811	5	182	900	2789
28	0	0	1836	5	184	900	2793
29	0	0	1891	5	184	899	2796
30	0	0	1959	5	184	900	2800
31	0	0	1991	5	183	899	2801
32	0	0	1987	5	184	900	2800
33	0	0	2011	5	183	900	2799
34	0	0	2018	5	184	900	2792
35	0	0	1986	4	183	900	2788
36	0	0	1962	4	183	901	2787
37	0	0	1959	5	184	900	2789
38	0	0	1969	5	184	900	2793
39	0	0	1966	5	183	899	2796
40	0	0	1957	4	183	900	2799
41	0	0	1960	5	182	899	2801
42	0	0	1964	4	183	900	2800
43	0	0	1976	5	183	900	2798
44	0	0	1976	4	184	900	2792
45	0	0	1928	4	183	900	2787
46	0	0	1880	5	184	899	2787
47	0	0	1861	4	183	900	2790
48	0	0	1863	4	183	900	2793
49	0	0	1883	5	184	900	2796
50	0	0	1909	5	184	900	2799
51	0	0	1941	5	184	899	2801
52	0	0	1971	5	184	900	2801
53	0	0	1990	5	182	900	2798
54	0	0	2022	5	183	900	2792
55	0	0	2032	5	183	899	2787
56	0	0	1990	4	183	900	2787
57	0	0	1947	4	183	900	2789
58	0	0	1965	5	184	900	2793
59	0	0	2012	5	184	900	2796
60	0	0	2034	5	182	900	2799
61	0	0	1998	4	184	899	2801
62	0	0	1966	4	183	900	2801
63	0	0	1953	4	183	900	2798
64	0	0	1935	4	183	900	2792
65	0	0	1924	5	185	900	2787
66	0	0	1950	5	183	899	2787
67	0	0	1959	4	183	900	2790
68	0	0	1931	4	183	900	2793
69	0	0	1934	5	183	900	2796
70	0	0	1937	5	183	900	2799
71	0	0	1937	5	183	900	2801
72	0	0	1948	5	183	900	2801
73	0	0	1938	4	183	900	2798
74	0	0	1906	4	182	900	2792
75	0	0	1907	5	182	900	2787
76	0	0	1968	5	185	899	2787
77	0	0	2028	5	185	900	2789
78	0	0	2045	5	183	900	2793
79	0	0	2011	4	184	900	2796
80	0	0	1968	4	183	899	2799
81	0	0	1942	4	183	900	2801
82	0	0	1954	5	184	900	2801
83	0	0	1950	4	184	900	2798
84	0	0	1934	5	183	900	2792
85	0	0	1952	5	183	900	2788
86	0	0	2022	5	183	899	2787
87	0	0	2069	5	183	900	2789
88	0	0	2070	5	184	900	2793
89	0	0	2090	5	184	900	2796
90	0	0	2058	4	184	900	2799
91	0	0	1979	4	184	899	2800
92	0	0	1902	4	182	900	2800
93	0	0	1896	5	184	900	2798
94	0	0	1962	5	182	900	2792
95	0	0	2033	5	183	899	2787
96	0	0	2079	5	183	900	2787
97	0	0	2103	5	184	899	2789
98	0	0	2088	4	184	900	2793
99	0	0	2054	4	183	900	2796
100	0	0	2012	4	184	900	2799
101	0	0	1999	5	184	901	2801
102	0	0	1998	5	183	899	2800
103	0	0	1990	5	183	900	2799
104	0	0	1990	5	184	899	2792
105	0	0	1974	4	184	900	2787
106	0	0	1986	5	184	899	2787
107	0	0	2011	4	184	900	2790
108	0	0	2022	5	183	900	2793
109	0	0	2041	5	184	900	2796
110	0	0	2059	5	184	900	2799
111	0	0	2057	5	183	900	2801
112	0	0	2056	5	183	900	2801
113	0	0	2088	5	184	900	2798
114	0	0	2137	5	182	900	2793
115	0	0	2162	5	184	900	2787
116	0	0	2137	4	183	900	2788
117	0	0	2110	4	183	900	2790
118	0	0	2081	4	184	900	2793
119	0	0	2043	4	184	900	2797
120	0	0	2036	5	183	899	2799
121	0	0	2052	6	184	900	2800
122	0	0	2076	5	184	899	2800
123	0	0	2070	4	184	900	2798
124	0	0	2024	4	183	899	2792
125	0	0	1979	4	185	900	2787
126	0	0	1960	6	183	899	2787
127	0	0	1976	5	182	900	2790
0	0	0	2035	5	184	900	2793
1	0	0	2121	5	184	900	2796
2	0	0	2199	5	184	899	2799
3	0	0	2254	5	184	900	2801
4	0	0	2275	5	183	900	2801
5	0	0	2246	5	183	900	2798
6	0	0	2243	5	183	900	2793
7	0	0	2245	5	184	900	2787
8	0	0	2240	5	184	900	2787
9	0	0	2222	5	183	900	2790
10	0	0	2198	4	184	900	2793
11	0	0	2177	5	183	900	2796
12	0	0	2163	5	185	900	2800
13	0	0	2150	4	184	901	2801
14	0	0	2114	5	184	899	2800
15	0	0	2104	5	184	900	2798
16	0	0	2122	5	184	900	2792
17	0	0	2126	5	184	900	2787
18	0	0	2097	5	183	900	2787
19	0	0	2076	4	184	900	2790
20	0	0	2081	5	183	900	2793
21	0	0	2101	5	184	900	2796
22	0	0	2121	5	183	900	2799
23	0	0	2160	5	183	901	2800
24	0	0	2211	5	183	900	2801
25	0	0	2237	5	183	900	2798
26	0	0	2206	4	183	900	2793
27	0	0	2172	5	183	899	2787
28	0	0	2178	6	183	900	2787
29	0	0	2202	5	184	899	2789
30	0	0	2230	5	183	900	2792
31	0	0	2239	5	183	899	2796
32	0	0	2246	5	183	899	2799
