# bioPlux Text File Format
# Version: 1
# StartDateTime: 2011-07-18 12:48:47
# SamplingFrequency: 1000
# SampledChannels: 1 2 3 4
# SamplingResolution: 12
# AcquiringDevice: 00:07:80:42:0F:8B
# EndOfHeader
0	0	0	214	10	2131	39
1	0	0	679	9	2133	42
2	0	0	2205	8	2134	42
3	0	0	3051	9	2134	42
4	0	0	3545	7	2132	44
5	0	0	3835	7	2128	42
6	0	0	4002	9	2124	42
7	0	0	4091	1	2124	40
8	0	0	4091	6	2124	41
9	0	0	4089	4	2127	40
10	0	0	4094	6	2129	35
11	0	0	2912	5	2130	39
12	0	0	1725	4	2132	39
13	0	0	1050	5	2131	39
14	0	0	664	4	2129	37
15	0	0	444	6	2125	35
16	0	0	329	5	2120	37
17	0	0	264	1	2120	39
18	0	0	238	9	2121	42
19	0	0	222	7	2123	41
20	0	0	215	8	2126	42
21	0	0	754	10	2129	42
22	0	0	2252	7	2130	41
23	0	0	3065	7	2129	41
24	0	0	3556	12	2128	41
25	0	0	3841	11	2124	37
26	0	0	4005	11	2121	42
27	0	0	4088	4	2120	41
28	0	0	4091	6	2121	41
29	0	0	4089	3	2123	40
30	0	0	4093	5	2125	36
31	0	0	2962	5	2128	39
32	0	0	1741	5	2128	39
33	0	0	1063	5	2128	38
34	0	0	671	6	2127	39
35	0	0	450	5	2121	38
36	0	0	328	5	2118	37
37	0	0	263	4	2116	38
38	0	0	236	10	2118	40
39	0	0	215	12	2120	41
40	0	0	210	8	2123	40
41	0	0	739	8	2125	41
42	0	0	2243	8	2126	43
43	0	0	3062	10	2127	42
44	0	0	3553	11	2124	41
45	0	0	3837	9	2121	37
46	0	0	4001	9	2118	40
47	0	0	4087	4	2118	40
48	0	0	4092	5	2118	40
49	0	0	4093	6	2121	40
50	0	0	4092	4	2123	39
51	0	0	2921	5	2125	40
52	0	0	1718	4	2125	40
53	0	0	1049	5	2126	40
54	0	0	659	5	2123	39
55	0	0	442	7	2119	39
56	0	0	322	5	2116	39
57	0	0	259	4	2114	38
58	0	0	231	9	2115	38
59	0	0	216	7	2119	36
60	0	0	211	8	2121	40
61	0	0	659	10	2124	40
62	0	0	2205	8	2125	41
63	0	0	3044	9	2125	41
64	0	0	3536	7	2124	40
65	0	0	3829	8	2120	40
66	0	0	3995	9	2116	42
67	0	0	4086	6	2116	39
68	0	0	4091	6	2117	39
69	0	0	4092	5	2119	40
70	0	0	4091	6	2120	40
71	0	0	2895	4	2124	40
72	0	0	1703	4	2125	38
73	0	0	1040	5	2124	40
74	0	0	655	5	2122	38
75	0	0	438	7	2116	38
76	0	0	319	5	2114	39
77	0	0	256	5	2114	38
78	0	0	228	12	2114	37
79	0	0	211	10	2117	40
80	0	0	208	10	2120	40
81	0	0	703	9	2123	41
82	0	0	2226	10	2125	40
83	0	0	3058	9	2125	41
84	0	0	3541	8	2124	42
85	0	0	3832	9	2119	42
86	0	0	3993	8	2115	41
87	0	0	4082	4	2115	42
88	0	0	4093	6	2117	40
89	0	0	4093	5	2118	41
90	0	0	4091	6	2121	38
91	0	0	2843	5	2124	40
92	0	0	1673	4	2125	40
93	0	0	1016	5	2125	39
94	0	0	641	5	2123	39
95	0	0	431	8	2118	36
96	0	0	313	6	2115	39
97	0	0	252	5	2114	37
98	0	0	226	10	2115	39
99	0	0	208	11	2116	40
100	0	0	205	10	2119	40
101	0	0	786	11	2123	42
102	0	0	2263	10	2125	41
103	0	0	3080	3	2125	42
104	0	0	3556	10	2123	41
105	0	0	3839	10	2119	43
106	0	0	3999	9	2116	42
107	0	0	4084	5	2116	39
108	0	0	4091	6	2117	38
109	0	0	4092	4	2120	39
110	0	0	4093	6	2122	37
111	0	0	2809	6	2124	41
112	0	0	1654	5	2125	39
113	0	0	1004	5	2124	39
114	0	0	637	4	2123	39
115	0	0	426	8	2118	35
116	0	0	309	6	2115	39
117	0	0	249	6	2114	39
118	0	0	223	10	2115	39
119	0	0	208	9	2117	40
120	0	0	203	12	2120	39
121	0	0	782	11	2122	41
122	0	0	2259	9	2125	41
123	0	0	3078	9	2124	41
124	0	0	3554	10	2123	41
125	0	0	3834	10	2119	40
126	0	0	3997	9	2116	40
127	0	0	4079	8	2115	42
0	0	0	4093	7	2117	42
1	0	0	4092	8	2119	40
2	0	0	4092	8	2121	39
3	0	0	2826	5	2124	39
4	0	0	1662	6	2125	39
5	0	0	1008	4	2124	39
6	0	0	634	4	2122	40
7	0	0	424	5	2119	39
8	0	0	309	6	2114	37
9	0	0	248	6	2114	39
10	0	0	222	9	2115	39
11	0	0	205	8	2118	40
12	0	0	200	12	2120	39
13	0	0	793	8	2123	42
14	0	0	2252	9	2124	42
15	0	0	3072	9	2127	42
16	0	0	3551	10	2124	42
17	0	0	3828	11	2119	41
18	0	0	3994	9	2117	39
19	0	0	4080	6	2116	40
20	0	0	4093	8	2117	39
21	0	0	4091	4	2120	41
22	0	0	4091	6	2122	41
23	0	0	2828	6	2123	40
24	0	0	1673	6	2124	39
25	0	0	1013	5	2124	38
26	0	0	637	4	2124	39
27	0	0	426	7	2119	37
28	0	0	308	5	2115	37
29	0	0	247	6	2115	38
30	0	0	220	9	2115	39
31	0	0	205	8	2118	40
32	0	0	196	12	2120	40
33	0	0	859	10	2123	41
34	0	0	2282	9	2125	42
35	0	0	3091	10	2126	42
36	0	0	3564	10	2124	42
37	0	0	3832	11	2120	40
38	0	0	3996	9	2117	40
39	0	0	4078	6	2117	39
40	0	0	4091	10	2117	41
41	0	0	4091	5	2120	40
42	0	0	4093	6	2123	40
43	0	0	2795	4	2125	40
44	0	0	1655	5	2126	39
45	0	0	1003	5	2127	39
46	0	0	632	5	2125	39
47	0	0	416	7	2119	38
48	0	0	305	4	2116	35
49	0	0	244	6	2115	39
50	0	0	212	16	2118	38
51	0	0	202	10	2120	39
52	0	0	195	7	2123	41
53	0	0	829	9	2126	40
54	0	0	2279	10	2127	41
55	0	0	3079	9	2128	40
56	0	0	3554	10	2127	43
57	0	0	3833	9	2123	43
58	0	0	3992	9	2120	40
59	0	0	4077	6	2119	39
60	0	0	4091	6	2121	41
61	0	0	4092	6	2123	39
62	0	0	4093	5	2126	39
63	0	0	2827	5	2128	37
64	0	0	1662	5	2130	38
65	0	0	1010	5	2129	38
66	0	0	633	5	2128	40
67	0	0	416	7	2123	36
68	0	0	304	6	2120	37
69	0	0	243	6	2120	37
70	0	0	216	7	2121	39
71	0	0	201	10	2123	40
72	0	0	191	9	2127	42
73	0	0	745	9	2130	41
74	0	0	2238	10	2131	41
75	0	0	3062	10	2132	41
76	0	0	3537	11	2130	41
77	0	0	3821	7	2127	43
78	0	0	3987	9	2125	39
79	0	0	4072	6	2124	41
80	0	0	4091	6	2125	43
81	0	0	4091	6	2128	40
82	0	0	4092	5	2130	39
83	0	0	2893	4	2133	38
84	0	0	1696	5	2134	39
85	0	0	1024	8	2135	39
86	0	0	643	7	2131	38
87	0	0	423	3	2128	37
88	0	0	306	6	2125	36
89	0	0	244	5	2125	40
90	0	0	216	11	2125	39
91	0	0	199	11	2129	41
92	0	0	192	10	2133	39
93	0	0	692	8	2136	39
94	0	0	2212	10	2138	42
95	0	0	3045	10	2137	44
96	0	0	3529	10	2136	43
97	0	0	3817	9	2132	40
98	0	0	3983	9	2130	40
99	0	0	4068	6	2131	40
100	0	0	4091	6	2131	40
101	0	0	4091	6	2134	40
102	0	0	4094	5	2136	40
103	0	0	2917	6	2140	40
104	0	0	1707	5	2141	40
105	0	0	1030	5	2141	38
106	0	0	645	4	2140	39
107	0	0	426	5	2136	38
108	0	0	305	5	2133	38
109	0	0	242	4	2131	38
110	0	0	211	6	2134	38
111	0	0	199	13	2137	42
112	0	0	188	9	2140	42
113	0	0	638	10	2143	41
114	0	0	2186	10	2146	42
115	0	0	3031	13	2146	40
116	0	0	3519	10	2144	40
117	0	0	3810	8	2141	41
118	0	0	3977	8	2139	41
119	0	0	4070	7	2138	41
120	0	0	4091	6	2140	41
121	0	0	4092	5	2143	42
122	0	0	4093	6	2147	38
123	0	0	2926	4	2149	40
124	0	0	1712	6	2151	41
125	0	0	1031	5	2150	39
126	0	0	644	4	2149	39
127	0	0	423	5	2145	39
0	0	0	304	5	2142	39
1	0	0	240	6	2141	40
2	0	0	213	9	2143	41
3	0	0	194	9	2146	41
4	0	0	189	7	2150	41
5	0	0	654	11	2154	41
6	0	0	2178	10	2156	42
7	0	0	3024	10	2155	42
8	0	0	3519	9	2155	43
9	0	0	3811	8	2152	42
10	0	0	3976	9	2149	44
11	0	0	4064	9	2149	40
12	0	0	4091	6	2150	41
13	0	0	4092	6	2153	41
14	0	0	4090	4	2156	40
15	0	0	2956	5	2159	40
16	0	0	1737	5	2162	41
17	0	0	1044	5	2160	40
18	0	0	648	4	2159	41
19	0	0	430	4	2156	37
20	0	0	304	6	2152	39
21	0	0	240	6	2153	40
22	0	0	206	14	2152	41
23	0	0	191	10	2157	41
24	0	0	187	9	2161	41
25	0	0	580	10	2164	43
26	0	0	2143	9	2167	43
27	0	0	3004	10	2167	42
28	0	0	3507	9	2166	42
29	0	0	3799	10	2162	43
30	0	0	3972	9	2159	43
31	0	0	4063	7	2160	43
32	0	0	4093	5	2161	41
33	0	0	4089	6	2163	40
34	0	0	4094	6	2167	42
35	0	0	3069	6	2170	40
36	0	0	1798	5	2171	40
37	0	0	1079	6	2172	41
38	0	0	669	6	2169	40
39	0	0	438	4	2166	38
40	0	0	310	5	2164	38
41	0	0	242	6	2164	40
42	0	0	212	8	2166	41
43	0	0	195	10	2168	42
44	0	0	188	8	2172	42
45	0	0	509	10	2175	43
46	0	0	2125	9	2178	42
47	0	0	2984	9	2178	42
48	0	0	3495	10	2177	41
49	0	0	3794	9	2174	46
50	0	0	3965	10	2170	41
51	0	0	4061	9	2171	42
52	0	0	4092	7	2172	41
53	0	0	4092	7	2175	42
54	0	0	4091	5	2177	39
55	0	0	2977	5	2181	41
56	0	0	1737	5	2184	40
57	0	0	1050	5	2183	40
58	0	0	653	6	2181	40
59	0	0	424	5	2178	38
60	0	0	304	4	2175	38
61	0	0	238	5	2174	42
62	0	0	211	9	2176	39
63	0	0	192	9	2179	42
64	0	0	184	10	2182	41
65	0	0	531	10	2186	39
66	0	0	2133	10	2188	43
67	0	0	2988	9	2188	43
68	0	0	3497	10	2187	43
69	0	0	3799	8	2184	42
70	0	0	3966	8	2181	40
71	0	0	4058	7	2181	41
72	0	0	4091	6	2182	41
73	0	0	4092	7	2185	41
74	0	0	4091	5	2189	43
75	0	0	2992	4	2191	39
76	0	0	1745	4	2193	40
77	0	0	1054	6	2193	39
78	0	0	654	7	2192	40
79	0	0	428	5	2188	43
80	0	0	300	6	2184	39
81	0	0	238	5	2183	41
82	0	0	210	10	2186	40
83	0	0	190	10	2189	41
84	0	0	186	9	2191	41
85	0	0	476	9	2196	43
86	0	0	2108	10	2197	43
87	0	0	2981	11	2198	43
88	0	0	3488	8	2197	43
89	0	0	3789	10	2193	42
90	0	0	3963	10	2191	43
91	0	0	4055	6	2190	43
92	0	0	4092	8	2192	42
93	0	0	4093	1	2195	43
94	0	0	4089	6	2198	41
95	0	0	2819	5	2201	40
96	0	0	1651	5	2201	41
97	0	0	991	4	2203	41
98	0	0	622	5	2202	41
99	0	0	410	5	2198	39
100	0	0	294	5	2195	37
101	0	0	231	10	2195	40
102	0	0	205	9	2196	42
103	0	0	188	9	2199	40
104	0	0	184	10	2202	43
105	0	0	895	10	2206	40
106	0	0	2307	9	2207	42
107	0	0	3100	9	2208	43
108	0	0	3557	12	2207	42
109	0	0	3829	9	2202	43
110	0	0	3986	10	2201	40
111	0	0	4066	7	2201	42
112	0	0	4091	7	2202	39
113	0	0	4092	5	2206	40
114	0	0	4091	5	2208	41
115	0	0	2862	5	2211	40
116	0	0	1675	5	2212	39
117	0	0	1008	5	2213	39
118	0	0	630	3	2211	40
119	0	0	411	3	2208	40
120	0	0	293	6	2205	37
121	0	0	232	5	2204	41
122	0	0	205	4	2206	42
123	0	0	188	7	2210	42
124	0	0	182	10	2213	45
125	0	0	178	9	2216	44
126	0	0	1868	9	2218	43
127	0	0	2842	10	2219	43
0	0	0	3405	12	2218	45
1	0	0	3741	10	2215	43
2	0	0	3937	8	2212	43
3	0	0	4039	6	2212	42
4	0	0	4092	8	2214	42
5	0	0	4091	6	2217	43
6	0	0	4091	4	2220	41
7	0	0	3138	6	2223	44
8	0	0	1823	4	2225	41
9	0	0	1091	5	2225	41
10	0	0	673	5	2225	40
11	0	0	443	6	2219	40
12	0	0	309	5	2217	40
13	0	0	240	5	2217	42
14	0	0	210	9	2219	42
15	0	0	191	12	2223	44
16	0	0	183	13	2226	43
17	0	0	182	10	2230	44
18	0	0	1874	11	2231	43
19	0	0	2845	10	2232	44
20	0	0	3411	10	2232	45
21	0	0	3742	8	2229	44
22	0	0	3935	8	2226	43
23	0	0	4043	6	2226	43
24	0	0	4092	6	2227	43
25	0	0	4091	5	2231	44
26	0	0	4089	5	2233	42
27	0	0	3151	5	2237	42
28	0	0	1827	5	2239	40
29	0	0	1096	5	2240	41
30	0	0	678	8	2240	40
31	0	0	443	6	2234	40
32	0	0	309	6	2232	40
33	0	0	241	6	2232	40
34	0	0	211	7	2234	41
35	0	0	192	12	2238	46
36	0	0	187	10	2241	43
37	0	0	183	9	2245	42
38	0	0	1915	9	2247	43
39	0	0	2868	10	2248	43
40	0	0	3427	12	2248	41
41	0	0	3752	11	2244	43
42	0	0	3944	9	2242	44
43	0	0	4045	6	2241	42
44	0	0	4091	7	2243	42
45	0	0	4091	3	2247	42
46	0	0	4094	4	2251	42
47	0	0	2756	5	2254	44
48	0	0	1628	5	2255	41
49	0	0	984	4	2256	41
50	0	0	614	8	2256	42
51	0	0	404	7	2253	42
52	0	0	292	5	2250	44
53	0	0	237	8	2250	42
54	0	0	204	10	2252	42
55	0	0	190	9	2255	43
56	0	0	185	10	2260	48
57	0	0	969	9	2263	48
58	0	0	2334	9	2265	44
59	0	0	3114	10	2266	47
60	0	0	3570	7	2266	44
61	0	0	3838	10	2263	41
62	0	0	3990	8	2261	46
63	0	0	4069	6	2261	43
64	0	0	4091	9	2263	44
65	0	0	4092	4	2266	43
66	0	0	4092	6	2271	40
67	0	0	3276	6	2274	44
68	0	0	1904	6	2275	41
69	0	0	1137	5	2277	42
70	0	0	698	4	2276	42
71	0	0	447	5	2273	39
72	0	0	316	5	2270	43
73	0	0	242	4	2271	42
74	0	0	210	10	2273	42
75	0	0	188	9	2276	43
76	0	0	183	10	2281	41
77	0	0	179	8	2284	44
78	0	0	1856	9	2287	45
79	0	0	2825	10	2288	44
80	0	0	3395	9	2288	44
81	0	0	3736	9	2285	45
82	0	0	3933	9	2283	47
83	0	0	4037	6	2283	43
84	0	0	4091	5	2286	41
85	0	0	4092	5	2289	43
86	0	0	4092	6	2294	40
87	0	0	2516	5	2297	44
88	0	0	1482	5	2299	46
89	0	0	905	5	2300	43
90	0	0	566	4	2300	44
91	0	0	379	6	2297	40
92	0	0	279	4	2295	43
93	0	0	231	11	2296	44
94	0	0	201	9	2297	47
95	0	0	188	10	2302	44
96	0	0	181	9	2306	44
97	0	0	882	12	2309	42
98	0	0	2301	11	2311	43
99	0	0	3091	10	2314	45
100	0	0	3557	7	2313	45
101	0	0	3830	13	2310	44
102	0	0	3986	9	2308	43
103	0	0	4068	6	2309	43
104	0	0	4090	6	2311	44
105	0	0	4093	2	2314	44
106	0	0	4091	6	2318	45
107	0	0	2584	5	2322	47
108	0	0	1519	5	2324	43
109	0	0	926	5	2325	43
110	0	0	582	4	2325	42
111	0	0	387	6	2322	40
112	0	0	282	5	2319	46
113	0	0	232	8	2320	43
114	0	0	201	9	2321	42
115	0	0	187	9	2325	45
116	0	0	180	10	2330	44
117	0	0	917	8	2333	47
118	0	0	2318	9	2336	44
119	0	0	3103	10	2337	45
120	0	0	3562	9	2337	46
121	0	0	3833	8	2334	46
122	0	0	3989	10	2332	47
123	0	0	4067	6	2332	44
124	0	0	4092	7	2334	44
125	0	0	4091	6	2338	44
126	0	0	4092	4	2342	43
127	0	0	2610	6	2345	43
0	0	0	1534	5	2347	44
1	0	0	928	5	2349	44
2	0	0	587	6	2348	44
3	0	0	390	5	2345	43
4	0	0	282	5	2343	43
5	0	0	232	9	2344	45
6	0	0	203	9	2346	44
7	0	0	188	12	2350	46
8	0	0	182	11	2353	46
9	0	0	906	10	2357	45
10	0	0	2311	9	2358	46
11	0	0	3102	9	2361	46
12	0	0	3559	10	2360	47
13	0	0	3831	10	2358	46
14	0	0	3989	9	2355	45
15	0	0	4069	6	2355	45
16	0	0	4091	6	2358	43
17	0	0	4092	5	2361	45
18	0	0	4091	4	2365	46
19	0	0	2578	4	2368	44
20	0	0	1517	5	2372	43
21	0	0	916	5	2372	44
22	0	0	580	5	2371	44
23	0	0	381	6	2369	44
24	0	0	280	4	2366	45
25	0	0	225	11	2366	45
26	0	0	203	10	2369	44
27	0	0	190	10	2373	46
28	0	0	184	10	2376	47
29	0	0	901	9	2380	42
30	0	0	2309	8	2383	46
31	0	0	3100	10	2384	46
32	0	0	3559	10	2383	47
33	0	0	3832	7	2381	46
34	0	0	3990	9	2379	43
35	0	0	4065	5	2379	45
36	0	0	4091	6	2381	47
37	0	0	4092	6	2385	46
38	0	0	4091	4	2388	45
39	0	0	2621	5	2392	45
40	0	0	1541	5	2395	44
41	0	0	932	5	2395	44
42	0	0	587	1	2394	45
43	0	0	391	2	2391	43
44	0	0	281	5	2388	45
45	0	0	232	8	2388	44
46	0	0	201	10	2390	45
47	0	0	187	9	2394	47
48	0	0	182	9	2398	46
49	0	0	880	10	2401	47
50	0	0	2300	10	2402	45
51	0	0	3098	10	2403	46
52	0	0	3555	10	2403	47
53	0	0	3829	6	2400	45
54	0	0	3983	9	2398	45
55	0	0	4067	6	2398	47
56	0	0	4093	6	2399	47
57	0	0	4092	8	2402	45
58	0	0	4092	2	2405	44
59	0	0	2611	5	2407	47
60	0	0	1537	5	2409	45
61	0	0	929	5	2409	45
62	0	0	582	5	2408	47
63	0	0	392	4	2404	43
64	0	0	280	6	2402	40
65	0	0	233	9	2402	45
66	0	0	201	9	2403	45
67	0	0	187	9	2406	47
68	0	0	182	9	2409	48
69	0	0	878	9	2412	48
70	0	0	2287	10	2414	48
71	0	0	3087	9	2414	48
72	0	0	3552	9	2412	48
73	0	0	3827	7	2409	46
74	0	0	3982	9	2406	48
75	0	0	4067	6	2405	46
76	0	0	4091	6	2406	47
77	0	0	4091	5	2409	45
78	0	0	4092	2	2412	45
79	0	0	2604	6	2414	43
80	0	0	1547	3	2415	47
81	0	0	932	5	2416	44
82	0	0	584	6	2414	46
83	0	0	390	3	2411	45
84	0	0	283	4	2408	45
85	0	0	231	8	2407	45
86	0	0	201	11	2409	44
87	0	0	187	9	2411	47
88	0	0	183	6	2413	46
89	0	0	852	9	2416	47
90	0	0	2273	10	2417	48
91	0	0	3079	11	2419	47
92	0	0	3547	9	2416	47
93	0	0	3824	9	2412	45
94	0	0	3988	10	2410	48
95	0	0	4066	5	2408	44
96	0	0	4091	6	2410	47
97	0	0	4092	5	2413	45
98	0	0	4092	4	2415	46
99	0	0	2621	5	2418	47
100	0	0	1553	5	2419	44
101	0	0	938	4	2419	45
102	0	0	588	6	2418	46
103	0	0	390	3	2414	45
104	0	0	284	5	2411	45
105	0	0	231	10	2410	42
106	0	0	201	11	2412	46
107	0	0	187	10	2414	46
108	0	0	183	9	2416	43
109	0	0	922	11	2420	47
110	0	0	2321	10	2421	45
111	0	0	3099	9	2421	47
112	0	0	3561	9	2421	46
113	0	0	3834	9	2417	47
114	0	0	3987	9	2414	47
115	0	0	4067	6	2413	48
116	0	0	4091	5	2414	47
117	0	0	4089	4	2416	46
118	0	0	4095	5	2419	46
119	0	0	2612	5	2422	45
120	0	0	1536	5	2424	48
121	0	0	932	8	2424	46
122	0	0	585	5	2422	43
123	0	0	391	5	2418	41
124	0	0	287	5	2416	28
125	0	0	231	7	2415	45
126	0	0	198	7	2416	45
127	0	0	188	8	2418	47
0	0	0	183	9	2421	45
1	0	0	905	10	2424	50
2	0	0	2310	10	2425	50
3	0	0	3099	10	2426	47
4	0	0	3559	11	2424	48
5	0	0	3831	9	2421	48
6	0	0	3986	9	2418	46
7	0	0	4064	6	2418	47
8	0	0	4092	8	2418	47
9	0	0	4091	6	2420	42
10	0	0	4090	5	2422	43
11	0	0	2590	5	2424	46
12	0	0	1521	7	2424	47
13	0	0	920	5	2425	46
14	0	0	577	6	2424	43
15	0	0	385	7	2420	42
16	0	0	280	7	2417	48
17	0	0	228	11	2416	46
18	0	0	200	9	2417	47
19	0	0	190	7	2418	46
20	0	0	181	11	2421	44
21	0	0	957	9	2423	48
22	0	0	2325	7	2424	48
23	0	0	3108	10	2424	48
24	0	0	3565	8	2423	47
25	0	0	3835	11	2420	48
26	0	0	3992	9	2417	50
27	0	0	4067	6	2415	48
28	0	0	4091	7	2416	47
29	0	0	4088	5	2417	46
30	0	0	4092	7	2419	44
31	0	0	2540	7	2421	48
32	0	0	1506	5	2421	49
33	0	0	911	5	2421	45
34	0	0	574	4	2420	45
35	0	0	380	8	2416	48
36	0	0	283	4	2413	47
37	0	0	229	7	2411	47
38	0	0	199	10	2413	46
39	0	0	186	9	2414	47
40	0	0	181	10	2416	47
41	0	0	810	9	2417	47
42	0	0	2250	10	2418	47
43	0	0	3062	11	2417	47
44	0	0	3542	10	2417	46
45	0	0	3819	9	2413	47
46	0	0	3979	9	2410	45
47	0	0	4065	5	2409	45
48	0	0	4092	6	2408	45
49	0	0	4092	4	2409	47
50	0	0	2284	5	2411	45
51	0	0	1357	4	2412	45
52	0	0	833	5	2412	47
53	0	0	527	5	2412	44
54	0	0	367	3	2410	44
55	0	0	271	3	2406	43
56	0	0	224	6	2404	47
57	0	0	202	6	2402	46
58	0	0	193	5	2403	43
59	0	0	195	12	2404	47
60	0	0	193	8	2405	47
61	0	0	197	11	2407	47
62	0	0	1423	11	2408	48
63	0	0	2586	11	2407	48
64	0	0	3266	10	2406	47
65	0	0	3671	8	2403	47
66	0	0	3902	11	2400	47
67	0	0	4029	6	2399	47
68	0	0	4088	7	2399	45
69	0	0	3132	7	2400	44
70	0	0	1833	4	2402	43
71	0	0	1112	4	2403	47
72	0	0	702	6	2403	45
73	0	0	472	5	2403	43
74	0	0	343	7	2402	42
75	0	0	276	2	2398	43
76	0	0	241	5	2396	43
77	0	0	224	7	2395	45
78	0	0	216	8	2396	45
79	0	0	220	13	2397	46
80	0	0	221	12	2399	47
81	0	0	224	11	2400	46
82	0	0	1355	10	2401	47
83	0	0	2562	11	2401	47
84	0	0	3269	10	2400	47
85	0	0	3681	12	2397	52
86	0	0	3919	11	2394	45
87	0	0	4053	6	2393	44
88	0	0	4091	6	2393	45
89	0	0	4088	6	2394	45
90	0	0	2489	4	2396	47
91	0	0	1492	7	2398	44
92	0	0	931	5	2398	44
93	0	0	610	6	2397	44
94	0	0	431	6	2396	43
95	0	0	333	5	2393	43
96	0	0	286	4	2390	43
97	0	0	256	6	2388	43
98	0	0	248	12	2390	45
99	0	0	245	10	2391	46
100	0	0	247	10	2392	47
101	0	0	245	11	2394	47
102	0	0	1968	11	2394	47
103	0	0	2927	11	2394	47
104	0	0	3483	12	2393	46
105	0	0	3816	12	2389	50
106	0	0	4003	9	2387	44
107	0	0	4092	6	2386	44
108	0	0	3392	7	2385	44
109	0	0	1988	6	2386	43
110	0	0	1227	1	2387	44
111	0	0	786	4	2388	44
112	0	0	540	6	2388	43
113	0	0	401	8	2387	43
114	0	0	330	8	2386	44
115	0	0	291	8	2382	43
116	0	0	274	6	2379	45
117	0	0	272	11	2377	43
118	0	0	268	11	2377	45
119	0	0	267	13	2378	47
120	0	0	500	9	2379	47
121	0	0	2170	11	2380	48
122	0	0	3055	10	2380	46
123	0	0	3575	13	2380	47
124	0	0	3876	11	2377	45
125	0	0	4051	12	2374	46
126	0	0	4092	11	2371	46
127	0	0	4091	6	2368	47
0	0	0	4092	5	2369	45
1	0	0	4091	5	2368	47
2	0	0	3722	3	2370	43
3	0	0	2154	4	2370	43
4	0	0	1316	5	2369	41
5	0	0	842	4	2368	43
6	0	0	571	6	2365	47
7	0	0	419	3	2362	43
8	0	0	340	5	2358	48
9	0	0	296	11	2356	44
10	0	0	280	11	2356	44
11	0	0	1612	10	2355	47
12	0	0	1843	6	2357	47
13	0	0	1119	4	2358	47
14	0	0	729	6	2357	45
15	0	0	518	6	2358	47
16	0	0	403	5	2355	44
17	0	0	345	6	2352	46
18	0	0	316	4	2349	45
19	0	0	303	6	2347	44
20	0	0	296	8	2347	45
21	0	0	298	7	2349	43
22	0	0	300	8	2349	40
23	0	0	309	8	2351	44
24	0	0	706	10	2351	41
25	0	0	2285	9	2351	43
26	0	0	3132	9	2350	44
27	0	0	3634	11	2346	43
28	0	0	3930	10	2344	46
29	0	0	4090	11	2342	43
30	0	0	4091	8	2343	46
31	0	0	4091	10	2345	44
32	0	0	4093	4	2347	48
33	0	0	3460	4	2349	47
34	0	0	2050	10	2349	48
35	0	0	1277	6	2350	47
36	0	0	843	5	2349	45
37	0	0	592	7	2347	44
38	0	0	454	3	2345	46
39	0	0	376	6	2344	44
40	0	0	340	5	2345	44
41	0	0	321	5	2347	46
42	0	0	312	3	2349	44
43	0	0	311	8	2351	43
44	0	0	1130	10	2352	42
45	0	0	2490	8	2353	42
46	0	0	3260	10	2352	41
47	0	0	3708	9	2350	44
48	0	0	3969	10	2348	47
49	0	0	4091	10	2348	44
50	0	0	4091	11	2349	44
51	0	0	4091	10	2352	44
52	0	0	4093	6	2355	46
53	0	0	3088	5	2357	47
54	0	0	1868	6	2359	47
55	0	0	1174	3	2360	47
56	0	0	778	5	2359	47
57	0	0	558	5	2357	47
58	0	0	431	5	2355	44
59	0	0	366	6	2355	44
60	0	0	333	7	2356	40
61	0	0	315	7	2357	41
62	0	0	311	1	2359	43
63	0	0	314	8	2361	45
64	0	0	991	9	2362	44
65	0	0	2418	9	2361	43
66	0	0	3219	10	2362	42
67	0	0	3683	10	2360	46
68	0	0	3956	10	2358	47
69	0	0	4090	11	2357	46
70	0	0	4091	10	2359	44
71	0	0	4092	10	2361	45
72	0	0	4092	5	2363	47
73	0	0	3124	4	2366	47
74	0	0	1887	6	2367	47
75	0	0	1185	4	2368	47
76	0	0	783	6	2367	43
77	0	0	562	3	2365	46
78	0	0	433	6	2363	46
79	0	0	367	6	2362	48
80	0	0	336	6	2363	44
81	0	0	322	9	2365	45
82	0	0	313	10	2368	43
83	0	0	311	11	2370	44
84	0	0	314	10	2371	46
85	0	0	317	12	2372	45
86	0	0	320	9	2370	48
87	0	0	325	11	2369	44
88	0	0	1666	11	2368	44
89	0	0	2789	10	2368	46
90	0	0	3441	10	2368	44
91	0	0	3823	10	2372	44
92	0	0	4046	8	2373	45
93	0	0	3046	6	2376	45
94	0	0	1844	6	2377	46
95	0	0	1182	4	2378	45
96	0	0	805	4	2378	45
97	0	0	592	3	2377	47
98	0	0	467	7	2376	45
99	0	0	408	6	2377	46
100	0	0	377	6	2379	44
101	0	0	363	5	2381	45
102	0	0	359	7	2384	46
103	0	0	355	8	2387	45
104	0	0	358	12	2388	47
105	0	0	360	10	2390	46
106	0	0	2049	8	2390	46
107	0	0	3021	11	2389	46
108	0	0	3590	11	2388	46
109	0	0	3922	10	2389	47
110	0	0	4091	10	2390	46
111	0	0	4090	7	2391	46
112	0	0	4092	5	2394	47
113	0	0	4094	10	2396	46
114	0	0	4092	7	2397	46
115	0	0	3265	4	2397	47
116	0	0	1971	6	2396	46
117	0	0	1252	5	2394	45
118	0	0	1214	11	2393	57
119	0	0	2581	10	2393	49
120	0	0	3320	9	2392	46
121	0	0	3741	5	2393	46
122	0	0	3994	6	2395	45
123	0	0	4095	7	2396	46
124	0	0	2808	5	2396	47
125	0	0	1721	5	2395	46
126	0	0	1097	7	2394	46
127	0	0	744	6	2391	45
0	0	0	548	6	2389	45
1	0	0	442	9	2388	43
2	0	0	383	12	2388	46
3	0	0	353	10	2389	48
4	0	0	1246	8	2391	47
5	0	0	2555	11	2392	46
6	0	0	3301	9	2392	47
7	0	0	3734	10	2393	47
8	0	0	3990	10	2392	47
9	0	0	4092	9	2391	48
10	0	0	4091	8	2388	46
11	0	0	4091	6	2387	43
12	0	0	4088	6	2388	46
13	0	0	4090	3	2389	45
14	0	0	4092	7	2392	44
15	0	0	3273	5	2394	44
16	0	0	1952	5	2394	43
17	0	0	1224	5	2395	42
18	0	0	802	6	2394	44
19	0	0	564	2	2392	43
20	0	0	432	7	2391	44
21	0	0	363	6	2391	39
22	0	0	326	6	2392	45
23	0	0	313	10	2394	47
24	0	0	305	10	2397	48
25	0	0	1564	11	2400	48
26	0	0	2717	10	2401	43
27	0	0	3384	7	2402	50
28	0	0	3774	12	2403	50
29	0	0	4003	10	2401	51
30	0	0	4091	11	2401	49
31	0	0	4091	9	2400	43
32	0	0	4091	7	2402	44
33	0	0	4090	5	2404	45
34	0	0	4092	5	2406	44
35	0	0	3264	5	2409	44
36	0	0	1939	5	2410	39
37	0	0	1203	8	2411	42
38	0	0	789	5	2411	43
39	0	0	551	5	2409	38
40	0	0	411	8	2408	43
41	0	0	347	6	2408	40
42	0	0	311	7	2410	46
43	0	0	297	9	2412	48
44	0	0	288	12	2416	47
45	0	0	1495	8	2419	50
46	0	0	2672	10	2421	48
47	0	0	3352	11	2422	50
48	0	0	3747	8	2423	51
49	0	0	3982	8	2422	53
50	0	0	4091	9	2422	48
51	0	0	4091	9	2422	47
52	0	0	4093	5	2425	47
53	0	0	4093	5	2427	48
54	0	0	4091	6	2429	45
55	0	0	3116	6	2432	41
56	0	0	1854	5	2432	39
57	0	0	1148	7	2433	41
58	0	0	752	5	2433	46
59	0	0	522	6	2432	39
60	0	0	395	4	2431	42
61	0	0	328	6	2431	41
62	0	0	295	6	2433	45
63	0	0	282	8	2435	48
64	0	0	275	8	2438	49
65	0	0	1401	8	2441	50
66	0	0	2616	10	2443	50
67	0	0	3313	10	2443	51
68	0	0	3718	7	2443	47
69	0	0	3960	9	2442	49
70	0	0	4090	8	2441	51
71	0	0	4091	9	2441	48
72	0	0	4092	8	2442	49
73	0	0	4091	4	2444	47
74	0	0	4093	5	2446	43
75	0	0	3146	4	2447	46
76	0	0	1865	5	2448	44
77	0	0	1150	5	2449	46
78	0	0	742	3	2448	46
79	0	0	514	4	2445	44
80	0	0	386	4	2445	44
81	0	0	321	9	2444	44
82	0	0	286	9	2445	47
83	0	0	268	8	2447	48
84	0	0	261	9	2449	47
85	0	0	1021	10	2451	47
86	0	0	2409	9	2453	48
87	0	0	3187	9	2452	47
88	0	0	3642	9	2452	48
89	0	0	3911	9	2451	47
90	0	0	4063	8	2449	47
91	0	0	4091	6	2448	44
92	0	0	4092	8	2449	47
93	0	0	4091	4	2451	46
94	0	0	4092	5	2452	48
95	0	0	2863	0	2453	46
96	0	0	1710	4	2454	44
97	0	0	1055	6	2456	46
98	0	0	686	5	2455	47
99	0	0	478	4	2451	48
100	0	0	362	4	2450	47
101	0	0	305	10	2450	44
102	0	0	275	7	2452	44
103	0	0	258	9	2453	46
104	0	0	253	9	2455	48
105	0	0	995	8	2457	49
106	0	0	2379	9	2457	47
107	0	0	3167	10	2458	48
108	0	0	3629	8	2457	49
109	0	0	3900	9	2455	50
110	0	0	4052	10	2453	48
111	0	0	4091	6	2453	48
112	0	0	4090	7	2455	47
113	0	0	4091	5	2456	47
114	0	0	4092	5	2456	48
115	0	0	2721	4	2459	46
116	0	0	1637	5	2459	47
117	0	0	1015	5	2460	46
118	0	0	662	5	2459	47
119	0	0	460	7	2456	46
120	0	0	351	4	2456	45
121	0	0	295	9	2455	46
122	0	0	267	8	2456	47
123	0	0	253	9	2457	45
124	0	0	247	8	2458	48
125	0	0	836	9	2461	49
126	0	0	2298	9	2462	49
127	0	0	3121	11	2463	48
0	0	0	3601	9	2462	49
1	0	0	3879	10	2460	52
2	0	0	4040	11	2458	49
3	0	0	4091	6	2457	49
4	0	0	4091	6	2459	47
5	0	0	4092	7	2460	46
6	0	0	4093	7	2461	46
7	0	0	2700	6	2463	47
8	0	0	1622	4	2464	46
9	0	0	1004	5	2465	44
10	0	0	653	5	2464	46
11	0	0	452	5	2463	45
12	0	0	345	9	2460	46
13	0	0	293	8	2459	47
14	0	0	263	10	2461	47
15	0	0	248	9	2462	47
16	0	0	242	9	2463	52
17	0	0	966	11	2466	48
18	0	0	2373	9	2467	48
19	0	0	3152	10	2467	48
20	0	0	3617	9	2467	48
21	0	0	3889	11	2464	48
22	0	0	4044	11	2463	50
23	0	0	4091	5	2462	47
24	0	0	4091	6	2463	48
25	0	0	4092	7	2464	46
26	0	0	4093	5	2466	46
27	0	0	2660	7	2469	46
28	0	0	1590	5	2470	46
29	0	0	989	3	2469	46
30	0	0	641	5	2469	48
31	0	0	445	6	2467	45
32	0	0	344	9	2465	44
33	0	0	290	9	2463	46
34	0	0	257	9	2464	47
35	0	0	243	12	2466	47
36	0	0	239	9	2468	47
37	0	0	735	13	2470	47
38	0	0	2257	7	2471	48
39	0	0	3083	9	2472	48
40	0	0	3576	14	2471	48
41	0	0	3864	9	2469	48
42	0	0	4027	9	2467	48
43	0	0	4091	7	2466	47
44	0	0	4092	6	2467	47
45	0	0	4092	7	2469	46
46	0	0	4091	5	2471	47
47	0	0	2749	10	2473	46
48	0	0	1636	5	2474	46
49	0	0	1014	5	2474	46
50	0	0	654	7	2473	46
51	0	0	451	4	2471	47
52	0	0	341	9	2469	46
53	0	0	285	8	2469	46
54	0	0	255	9	2469	43
55	0	0	239	14	2471	47
56	0	0	236	10	2473	47
57	0	0	691	10	2475	49
58	0	0	2235	9	2477	49
59	0	0	3074	11	2477	49
60	0	0	3565	10	2477	50
61	0	0	3859	10	2475	48
62	0	0	4023	13	2472	48
63	0	0	4092	6	2472	48
64	0	0	4091	5	2472	48
65	0	0	4092	5	2474	50
66	0	0	4092	5	2477	47
67	0	0	2731	4	2478	49
68	0	0	1627	5	2479	47
69	0	0	1004	4	2479	47
70	0	0	649	5	2479	47
71	0	0	447	5	2477	47
72	0	0	336	6	2474	46
73	0	0	283	9	2473	45
74	0	0	252	9	2474	46
75	0	0	235	11	2475	47
76	0	0	231	9	2479	49
77	0	0	685	9	2481	48
78	0	0	2231	10	2482	48
79	0	0	3075	8	2483	48
80	0	0	3562	9	2482	48
81	0	0	3854	9	2480	51
82	0	0	4021	8	2477	49
83	0	0	4091	6	2476	49
84	0	0	4091	6	2477	48
85	0	0	4092	8	2479	49
86	0	0	4094	8	2481	47
87	0	0	3182	4	2484	49
88	0	0	1867	4	2485	48
89	0	0	1137	3	2486	49
90	0	0	725	4	2484	49
91	0	0	487	6	2483	49
92	0	0	357	4	2480	47
93	0	0	287	5	2479	49
94	0	0	250	3	2480	48
95	0	0	234	7	2481	46
96	0	0	229	6	2485	47
97	0	0	228	6	2487	46
98	0	0	229	6	2488	47
99	0	0	233	7	2488	47
100	0	0	238	8	2487	49
101	0	0	243	7	2484	45
102	0	0	248	4	2482	47
103	0	0	254	6	2482	47
104	0	0	262	4	2482	47
105	0	0	266	5	2484	48
106	0	0	271	4	2487	49
107	0	0	277	4	2489	49
108	0	0	283	6	2491	49
109	0	0	289	7	2491	49
110	0	0	292	7	2490	48
111	0	0	300	8	2488	50
112	0	0	306	5	2485	48
113	0	0	311	6	2484	48
114	0	0	316	8	2484	48
115	0	0	323	8	2487	47
116	0	0	326	7	2490	47
117	0	0	332	8	2492	48
118	0	0	338	6	2493	48
119	0	0	343	6	2493	47
120	0	0	349	6	2492	47
121	0	0	355	6	2490	46
122	0	0	359	8	2486	47
123	0	0	364	6	2486	48
124	0	0	370	7	2487	48
125	0	0	374	5	2489	49
126	0	0	381	4	2491	49
127	0	0	385	8	2494	50
0	0	0	392	4	2495	50
1	0	0	396	6	2497	49
2	0	0	401	6	2496	48
3	0	0	404	7	2492	51
4	0	0	411	10	2489	49
5	0	0	416	7	2489	48
6	0	0	420	6	2490	51
7	0	0	426	7	2492	48
8	0	0	429	7	2494	48
9	0	0	434	8	2496	47
10	0	0	438	6	2497	47
11	0	0	444	4	2498	47
12	0	0	450	5	2497	47
13	0	0	454	6	2493	47
14	0	0	459	7	2491	47
15	0	0	465	6	2490	48
16	0	0	468	5	2491	48
17	0	0	473	6	2493	47
18	0	0	477	7	2495	49
19	0	0	482	6	2498	48
20	0	0	487	7	2499	48
21	0	0	491	5	2501	49
22	0	0	496	6	2499	49
23	0	0	500	7	2496	49
24	0	0	504	6	2494	50
25	0	0	512	7	2492	49
26	0	0	515	8	2492	48
27	0	0	521	6	2495	48
28	0	0	524	6	2497	47
29	0	0	528	7	2500	45
30	0	0	533	6	2501	47
31	0	0	536	8	2501	47
32	0	0	542	6	2500	48
33	0	0	548	5	2498	46
34	0	0	551	7	2494	48
35	0	0	555	6	2493	48
36	0	0	560	4	2494	49
37	0	0	563	4	2496	48
38	0	0	568	6	2499	49
39	0	0	575	6	2501	48
40	0	0	577	6	2502	48
41	0	0	581	6	2503	50
42	0	0	585	5	2502	48
43	0	0	589	7	2498	49
44	0	0	594	3	2496	48
45	0	0	599	6	2495	49
46	0	0	600	8	2496	47
47	0	0	608	5	2498	45
48	0	0	610	6	2499	47
49	0	0	615	3	2502	47
50	0	0	620	6	2503	47
51	0	0	624	8	2504	45
52	0	0	627	6	2503	48
53	0	0	631	7	2500	46
54	0	0	635	7	2496	48
55	0	0	640	6	2496	46
56	0	0	640	7	2497	47
57	0	0	648	5	2498	47
58	0	0	653	6	2502	49
59	0	0	656	3	2503	48
60	0	0	660	6	2505	49
61	0	0	664	4	2506	49
62	0	0	666	6	2505	47
63	0	0	671	6	2502	50
64	0	0	675	7	2499	47
65	0	0	678	6	2497	47
66	0	0	680	8	2499	47
67	0	0	687	7	2501	47
68	0	0	691	7	2503	47
69	0	0	695	6	2506	47
70	0	0	698	6	2506	47
71	0	0	703	4	2507	47
72	0	0	706	7	2506	47
73	0	0	711	6	2503	47
74	0	0	714	7	2498	47
75	0	0	718	3	2499	46
76	0	0	722	8	2499	47
77	0	0	725	7	2502	47
78	0	0	730	6	2505	49
79	0	0	735	3	2506	50
80	0	0	736	5	2508	49
81	0	0	740	8	2509	49
82	0	0	744	7	2508	48
83	0	0	748	6	2505	51
84	0	0	753	6	2502	49
85	0	0	756	6	2501	48
86	0	0	759	7	2503	49
87	0	0	764	7	2504	48
88	0	0	766	7	2506	47
89	0	0	770	4	2509	48
90	0	0	774	6	2511	48
91	0	0	775	10	2510	47
92	0	0	782	4	2509	48
93	0	0	785	5	2506	47
94	0	0	789	3	2503	47
95	0	0	792	6	2502	47
96	0	0	794	7	2504	48
97	0	0	799	7	2506	47
98	0	0	803	6	2509	50
99	0	0	806	4	2511	49
100	0	0	809	6	2512	49
101	0	0	812	7	2513	51
102	0	0	818	4	2512	47
103	0	0	819	6	2508	49
104	0	0	824	3	2505	49
105	0	0	826	6	2504	48
106	0	0	831	5	2506	48
107	0	0	833	6	2508	48
108	0	0	837	7	2509	48
109	0	0	841	4	2512	48
110	0	0	845	6	2513	48
111	0	0	847	6	2513	48
112	0	0	851	7	2512	47
113	0	0	855	7	2509	47
114	0	0	858	4	2506	47
115	0	0	861	6	2505	48
116	0	0	863	6	2506	48
117	0	0	867	8	2508	48
118	0	0	871	6	2510	50
119	0	0	874	3	2514	48
120	0	0	879	0	2514	49
121	0	0	880	6	2515	49
122	0	0	884	7	2514	48
123	0	0	888	6	2511	51
124	0	0	891	4	2508	49
125	0	0	894	7	2507	49
126	0	0	897	6	2508	48
127	0	0	901	9	2509	48
0	0	0	905	7	2512	48
1	0	0	908	6	2515	47
2	0	0	910	6	2516	47
3	0	0	914	7	2516	47
4	0	0	917	6	2516	47
5	0	0	920	5	2512	49
6	0	0	923	6	2509	48
7	0	0	926	6	2508	48
8	0	0	928	7	2509	48
9	0	0	933	6	2512	46
10	0	0	935	6	2513	49
11	0	0	939	7	2517	49
12	0	0	942	6	2517	49
13	0	0	945	7	2518	49
14	0	0	948	6	2517	46
15	0	0	952	8	2514	51
16	0	0	954	6	2511	50
17	0	0	958	6	2510	49
18	0	0	959	6	2511	51
19	0	0	966	8	2513	47
20	0	0	967	5	2516	47
21	0	0	970	4	2518	48
22	0	0	973	7	2519	47
23	0	0	975	7	2519	48
24	0	0	979	8	2517	46
25	0	0	983	7	2515	47
26	0	0	984	7	2512	47
27	0	0	988	6	2511	48
28	0	0	993	8	2512	48
29	0	0	995	6	2514	48
30	0	0	997	8	2517	48
31	0	0	999	4	2520	50
32	0	0	1004	6	2520	50
33	0	0	1004	5	2521	50
34	0	0	1009	7	2520	48
35	0	0	1010	6	2517	52
36	0	0	1013	7	2514	48
37	0	0	1017	7	2513	48
38	0	0	1019	7	2514	48
39	0	0	1024	8	2516	48
40	0	0	1027	7	2519	48
41	0	0	1029	6	2521	48
42	0	0	1032	6	2522	47
43	0	0	1033	6	2522	48
44	0	0	1038	8	2521	48
45	0	0	1041	6	2518	48
46	0	0	1042	8	2515	47
47	0	0	1045	7	2514	47
48	0	0	1049	6	2516	48
49	0	0	1052	7	2518	47
50	0	0	1054	7	2520	50
51	0	0	1058	6	2523	50
52	0	0	1060	6	2524	50
53	0	0	1063	6	2524	50
54	0	0	1067	8	2523	49
55	0	0	1069	6	2520	51
56	0	0	1071	6	2517	50
57	0	0	1074	6	2517	48
58	0	0	1075	6	2517	49
59	0	0	1080	10	2519	47
60	0	0	1081	7	2521	48
61	0	0	1085	6	2524	48
62	0	0	1088	5	2525	49
63	0	0	1091	4	2526	48
64	0	0	1093	7	2524	48
65	0	0	1097	6	2520	48
66	0	0	1098	8	2518	47
67	0	0	1101	7	2516	48
68	0	0	1104	4	2519	49
69	0	0	1108	8	2520	47
70	0	0	1109	6	2522	50
71	0	0	1112	4	2526	50
72	0	0	1114	7	2527	51
73	0	0	1118	7	2527	51
74	0	0	1120	7	2526	50
75	0	0	1122	6	2523	51
76	0	0	1125	8	2519	49
77	0	0	1126	6	2518	49
78	0	0	1130	5	2520	48
79	0	0	1133	7	2522	46
80	0	0	1133	7	2524	47
81	0	0	1137	6	2527	49
82	0	0	1140	7	2527	48
83	0	0	1144	7	2528	47
84	0	0	1144	8	2526	46
85	0	0	1148	8	2522	47
86	0	0	1150	8	2521	49
87	0	0	1153	7	2519	48
88	0	0	1155	7	2520	51
89	0	0	1159	6	2523	49
90	0	0	1160	6	2525	49
91	0	0	1162	6	2528	50
92	0	0	1165	6	2530	49
93	0	0	1169	6	2529	49
94	0	0	1169	7	2528	49
95	0	0	1173	7	2526	50
96	0	0	1176	8	2522	51
97	0	0	1175	7	2521	49
98	0	0	1180	6	2523	50
99	0	0	1183	8	2524	48
100	0	0	1185	7	2527	47
101	0	0	1187	7	2529	47
102	0	0	1189	7	2530	48
103	0	0	1193	7	2531	47
104	0	0	1194	7	2530	47
105	0	0	1199	6	2526	47
106	0	0	1199	5	2523	48
107	0	0	1200	6	2522	49
108	0	0	1204	6	2523	48
109	0	0	1205	7	2525	49
110	0	0	1209	4	2528	49
111	0	0	1210	5	2531	48
112	0	0	1212	7	2532	49
113	0	0	1216	5	2532	50
114	0	0	1217	6	2531	50
115	0	0	1220	7	2528	49
116	0	0	1223	7	2524	50
117	0	0	1226	7	2523	48
118	0	0	1228	7	2525	50
119	0	0	1230	7	2528	47
120	0	0	1231	7	2529	47
121	0	0	1234	6	2531	50
122	0	0	1237	7	2533	47
123	0	0	1239	6	2533	47
124	0	0	1242	7	2532	46
125	0	0	1245	7	2529	43
126	0	0	1246	6	2525	48
127	0	0	1248	6	2524	48
0	0	0	1250	6	2525	50
1	0	0	1249	7	2527	48
2	0	0	1255	7	2530	48
3	0	0	1257	6	2532	49
4	0	0	1261	9	2534	48
5	0	0	1262	5	2535	50
6	0	0	1263	5	2533	49
7	0	0	1266	6	2530	50
8	0	0	1269	8	2526	50
9	0	0	1271	7	2525	50
10	0	0	1272	9	2526	49
11	0	0	1277	8	2529	47
12	0	0	1277	7	2531	45
13	0	0	1278	6	2533	48
14	0	0	1280	7	2534	50
15	0	0	1283	6	2534	48
16	0	0	1284	11	2532	48
17	0	0	1289	6	2530	46
18	0	0	1289	6	2525	47
19	0	0	1291	7	2525	49
20	0	0	1294	6	2526	49
21	0	0	1293	7	2528	48
22	0	0	1299	7	2531	48
23	0	0	1299	6	2533	49
24	0	0	1303	8	2534	50
25	0	0	1305	6	2535	50
26	0	0	1305	6	2534	50
27	0	0	1308	6	2531	50
28	0	0	1311	7	2526	51
29	0	0	1314	6	2527	50
30	0	0	1317	6	2526	49
31	0	0	1315	7	2529	48
32	0	0	1320	7	2532	45
33	0	0	1321	7	2534	48
34	0	0	1322	7	2535	47
35	0	0	1325	9	2536	47
36	0	0	1324	7	2533	48
37	0	0	1332	6	2531	47
38	0	0	1331	6	2527	48
39	0	0	1333	7	2526	48
40	0	0	1334	6	2527	49
41	0	0	1335	6	2530	49
42	0	0	1340	7	2533	49
43	0	0	1341	6	2534	50
44	0	0	1345	6	2536	50
45	0	0	1345	7	2537	50
46	0	0	1349	9	2536	48
47	0	0	1353	7	2532	48
48	0	0	1351	7	2529	50
49	0	0	1354	7	2528	49
50	0	0	1354	7	2528	48
51	0	0	1359	6	2531	46
52	0	0	1358	7	2533	48
53	0	0	1361	7	2535	47
54	0	0	1362	7	2537	48
55	0	0	1364	6	2537	48
56	0	0	1365	5	2536	48
57	0	0	1369	7	2532	48
58	0	0	1370	7	2529	47
59	0	0	1372	7	2527	48
60	0	0	1375	6	2529	48
61	0	0	1376	5	2532	48
62	0	0	1379	5	2534	49
63	0	0	1381	8	2537	49
64	0	0	1382	7	2538	51
65	0	0	1383	6	2538	50
66	0	0	1385	5	2538	49
67	0	0	1388	6	2534	52
68	0	0	1389	7	2531	50
69	0	0	1391	8	2529	49
70	0	0	1393	6	2531	49
71	0	0	1397	5	2533	48
72	0	0	1398	7	2536	49
73	0	0	1398	6	2538	48
74	0	0	1400	7	2540	48
75	0	0	1402	3	2539	48
76	0	0	1404	6	2538	48
77	0	0	1407	7	2535	48
78	0	0	1407	8	2532	51
79	0	0	1409	7	2531	48
80	0	0	1414	6	2531	48
81	0	0	1413	7	2533	49
82	0	0	1415	6	2537	49
83	0	0	1417	6	2540	50
84	0	0	1421	8	2540	51
85	0	0	1421	8	2540	50
86	0	0	1423	4	2540	49
87	0	0	1425	5	2536	51
88	0	0	1426	7	2533	48
89	0	0	1428	7	2532	48
90	0	0	1430	5	2534	49
91	0	0	1433	7	2536	52
92	0	0	1433	7	2538	47
93	0	0	1435	6	2541	49
94	0	0	1437	8	2542	49
95	0	0	1438	7	2542	46
96	0	0	1440	6	2541	49
97	0	0	1443	7	2537	47
98	0	0	1443	7	2534	47
99	0	0	1444	9	2533	48
100	0	0	1448	8	2533	48
101	0	0	1448	4	2536	48
102	0	0	1451	5	2538	51
103	0	0	1452	6	2542	51
104	0	0	1453	6	2543	50
105	0	0	1455	8	2544	50
106	0	0	1456	7	2543	50
107	0	0	1459	6	2539	51
108	0	0	1461	6	2535	48
109	0	0	1462	7	2534	50
110	0	0	1462	7	2535	49
111	0	0	1466	8	2538	48
112	0	0	1466	7	2540	48
113	0	0	1468	7	2543	48
114	0	0	1470	7	2544	48
115	0	0	1472	8	2543	50
116	0	0	1475	8	2543	48
117	0	0	1477	7	2539	47
118	0	0	1477	7	2536	47
119	0	0	1478	7	2535	49
120	0	0	1481	8	2536	49
121	0	0	1482	6	2539	52
122	0	0	1484	6	2541	47
123	0	0	1485	7	2544	48
124	0	0	1487	6	2545	51
125	0	0	1486	7	2545	50
126	0	0	1488	6	2544	50
127	0	0	1492	6	2541	51
0	0	0	1493	8	2538	51
1	0	0	1493	7	2536	49
2	0	0	1496	8	2537	50
3	0	0	1498	9	2539	48
4	0	0	1500	7	2542	46
5	0	0	1500	6	2543	50
6	0	0	1502	7	2545	49
7	0	0	1503	7	2545	48
8	0	0	1506	7	2544	50
9	0	0	1509	6	2541	47
10	0	0	1510	5	2538	47
11	0	0	1508	6	2536	49
12	0	0	1512	7	2538	48
13	0	0	1512	7	2540	50
14	0	0	1515	6	2543	50
15	0	0	1515	7	2545	47
16	0	0	1516	6	2546	50
17	0	0	1520	8	2546	50
18	0	0	1522	6	2545	51
19	0	0	1522	7	2542	50
20	0	0	1523	7	2538	50
21	0	0	1525	8	2537	48
22	0	0	1526	7	2539	51
23	0	0	1530	8	2541	50
24	0	0	1526	6	2543	48
25	0	0	1530	8	2544	48
26	0	0	1532	7	2546	47
27	0	0	1534	8	2547	47
28	0	0	1537	7	2546	51
29	0	0	1539	10	2542	48
30	0	0	1540	7	2539	49
31	0	0	1541	7	2537	48
32	0	0	1542	6	2539	48
33	0	0	1542	7	2541	49
34	0	0	1546	7	2543	51
35	0	0	1547	7	2545	51
36	0	0	1550	7	2547	47
37	0	0	1549	7	2547	51
38	0	0	1550	6	2545	51
39	0	0	1551	6	2543	50
40	0	0	1554	7	2538	50
41	0	0	1555	8	2538	50
42	0	0	1556	7	2540	50
43	0	0	1559	8	2541	51
44	0	0	1558	8	2544	46
45	0	0	1560	7	2546	48
46	0	0	1562	8	2547	48
47	0	0	1563	7	2548	48
48	0	0	1565	7	2546	47
49	0	0	1567	7	2543	48
50	0	0	1568	6	2539	48
51	0	0	1568	6	2538	49
52	0	0	1570	6	2539	48
53	0	0	1572	6	2541	49
54	0	0	1574	6	2544	50
55	0	0	1575	8	2545	48
56	0	0	1577	7	2548	50
57	0	0	1579	9	2547	50
58	0	0	1581	7	2545	49
59	0	0	1580	6	2543	48
60	0	0	1581	7	2539	50
61	0	0	1583	7	2539	49
62	0	0	1583	7	2540	49
63	0	0	1585	8	2541	51
64	0	0	1587	5	2544	45
65	0	0	1587	7	2546	47
66	0	0	1588	7	2548	47
67	0	0	1592	7	2548	48
68	0	0	1592	7	2546	50
69	0	0	1594	8	2543	48
70	0	0	1595	7	2541	47
71	0	0	1596	7	2538	48
72	0	0	1597	5	2540	49
73	0	0	1600	6	2542	50
74	0	0	1601	7	2545	48
75	0	0	1601	7	2547	50
76	0	0	1604	8	2548	50
77	0	0	1604	5	2549	51
78	0	0	1606	7	2548	52
79	0	0	1604	6	2544	52
80	0	0	1607	6	2540	50
81	0	0	1611	8	2540	50
82	0	0	1610	7	2540	50
83	0	0	1613	10	2542	49
84	0	0	1612	8	2545	48
85	0	0	1613	7	2547	48
86	0	0	1614	7	2548	48
87	0	0	1616	8	2549	49
88	0	0	1616	6	2547	47
89	0	0	1618	9	2544	48
90	0	0	1617	7	2540	48
91	0	0	1621	6	2540	48
92	0	0	1623	8	2541	48
93	0	0	1626	7	2543	50
94	0	0	1626	7	2546	49
95	0	0	1626	2	2546	48
96	0	0	1626	7	2549	48
97	0	0	1629	6	2549	49
98	0	0	1631	7	2547	48
99	0	0	1631	4	2545	52
100	0	0	1633	8	2541	49
101	0	0	1635	9	2540	49
102	0	0	1635	7	2542	50
103	0	0	1637	10	2543	49
104	0	0	1636	10	2546	48
105	0	0	1638	9	2548	48
106	0	0	2342	11	2549	49
107	0	0	3429	7	2549	49
108	0	0	4091	9	2548	49
109	0	0	4092	10	2545	48
110	0	0	4091	9	2540	48
111	0	0	4091	6	2540	49
112	0	0	3520	4	2541	50
113	0	0	2532	6	2543	49
114	0	0	1974	6	2546	52
115	0	0	1657	6	2547	48
116	0	0	1480	5	2549	49
117	0	0	1380	5	2549	49
118	0	0	1330	7	2548	49
119	0	0	1300	7	2545	48
120	0	0	1286	7	2541	51
121	0	0	1283	9	2540	50
122	0	0	1280	9	2541	50
123	0	0	1281	10	2544	48
124	0	0	1280	9	2546	32
125	0	0	1331	10	2547	49
126	0	0	2513	9	2550	49
127	0	0	3659	10	2549	50
0	0	0	4092	11	2548	48
1	0	0	4092	8	2544	48
2	0	0	4090	10	2541	49
3	0	0	4091	10	2540	48
4	0	0	3863	5	2541	49
5	0	0	2630	6	2543	48
6	0	0	1934	7	2546	48
7	0	0	1544	6	2547	47
8	0	0	1316	6	2550	49
9	0	0	1190	5	2550	49
10	0	0	1125	7	2549	48
11	0	0	1089	6	2546	49
12	0	0	1072	7	2541	49
13	0	0	1067	8	2541	50
14	0	0	1060	7	2541	49
15	0	0	1063	12	2544	49
16	0	0	1063	10	2547	49
17	0	0	1336	10	2548	48
18	0	0	2718	9	2550	49
19	0	0	3699	12	2550	49
20	0	0	4090	11	2549	49
21	0	0	4092	10	2546	49
22	0	0	4092	10	2541	49
23	0	0	4093	11	2541	49
24	0	0	4092	3	2542	50
25	0	0	2843	6	2545	49
26	0	0	1998	6	2547	49
27	0	0	1518	4	2549	48
28	0	0	1248	6	2550	49
29	0	0	1096	4	2551	48
30	0	0	1011	7	2550	48
31	0	0	969	7	2547	47
32	0	0	948	7	2542	49
33	0	0	938	9	2541	49
34	0	0	933	9	2543	50
35	0	0	933	9	2545	50
36	0	0	934	10	2547	54
37	0	0	1456	10	2550	49
38	0	0	2856	10	2551	50
39	0	0	3728	11	2552	49
40	0	0	4092	10	2550	49
41	0	0	4091	11	2546	51
42	0	0	4092	8	2543	50
43	0	0	4089	10	2541	49
44	0	0	4092	6	2543	49
45	0	0	3097	7	2544	49
46	0	0	2106	6	2548	49
47	0	0	1546	5	2549	49
48	0	0	1229	5	2550	49
49	0	0	1048	4	2551	48
50	0	0	949	7	2550	48
51	0	0	897	6	2547	49
52	0	0	869	7	2542	48
53	0	0	858	8	2542	50
54	0	0	853	8	2543	48
55	0	0	851	10	2545	48
56	0	0	852	10	2547	51
57	0	0	1527	10	2549	48
58	0	0	2913	10	2551	49
59	0	0	3728	10	2552	50
60	0	0	4091	11	2551	49
61	0	0	4090	9	2546	54
62	0	0	4093	9	2543	49
63	0	0	4091	10	2542	49
64	0	0	4091	6	2542	47
65	0	0	3450	5	2544	49
66	0	0	2277	6	2547	47
67	0	0	1618	6	2549	50
68	0	0	1245	7	2551	52
69	0	0	1032	6	2551	51
70	0	0	913	6	2550	48
71	0	0	852	7	2546	47
72	0	0	818	7	2543	49
73	0	0	806	8	2542	50
74	0	0	798	9	2544	49
75	0	0	797	9	2546	49
76	0	0	797	9	2548	49
77	0	0	1590	10	2550	50
78	0	0	2959	9	2552	51
79	0	0	3724	12	2552	48
80	0	0	4091	11	2550	49
81	0	0	4091	10	2547	51
82	0	0	4091	10	2542	47
83	0	0	4091	10	2542	49
84	0	0	4091	10	2543	49
85	0	0	4094	6	2545	48
86	0	0	2674	6	2548	49
87	0	0	1822	6	2550	50
88	0	0	1338	6	2551	49
89	0	0	1065	6	2552	49
90	0	0	908	6	2551	50
91	0	0	828	5	2548	49
92	0	0	785	7	2544	49
93	0	0	762	7	2542	49
94	0	0	752	8	2544	50
95	0	0	750	9	2546	49
96	0	0	750	8	2548	49
97	0	0	1871	10	2551	49
98	0	0	3087	10	2552	49
99	0	0	3776	10	2552	50
100	0	0	4090	8	2551	49
101	0	0	4092	11	2547	47
102	0	0	4091	9	2544	49
103	0	0	4093	11	2543	51
104	0	0	4092	11	2544	50
105	0	0	4092	5	2546	49
106	0	0	2917	6	2548	50
107	0	0	1944	6	2551	50
108	0	0	1394	6	2552	49
109	0	0	1077	6	2552	49
110	0	0	903	4	2552	49
111	0	0	804	7	2548	47
112	0	0	754	7	2543	47
113	0	0	730	10	2544	48
114	0	0	717	7	2544	49
115	0	0	712	9	2546	49
116	0	0	708	10	2549	50
117	0	0	2324	10	2551	49
118	0	0	3321	10	2552	50
119	0	0	3853	7	2552	50
120	0	0	3267	6	2552	49
121	0	0	2229	5	2548	48
122	0	0	1889	6	2543	50
123	0	0	1378	6	2543	50
124	0	0	1073	8	2544	49
125	0	0	907	3	2546	48
126	0	0	816	7	2549	48
127	0	0	769	6	2552	51
0	0	0	745	6	2553	52
1	0	0	735	4	2552	51
2	0	0	731	3	2551	48
3	0	0	728	6	2548	48
4	0	0	734	8	2544	48
5	0	0	734	8	2543	50
6	0	0	739	7	2544	47
7	0	0	745	7	2546	49
8	0	0	2036	10	2549	48
9	0	0	3173	10	2551	49
10	0	0	3834	9	2552	50
11	0	0	4091	10	2553	51
12	0	0	3973	5	2551	47
13	0	0	3020	7	2548	50
14	0	0	2322	6	2544	47
15	0	0	1631	6	2543	49
16	0	0	1231	5	2544	47
17	0	0	1006	6	2547	50
18	0	0	881	6	2549	48
19	0	0	816	7	2552	49
20	0	0	784	7	2552	50
21	0	0	765	7	2553	50
22	0	0	758	7	2552	49
23	0	0	755	7	2548	49
24	0	0	757	7	2544	47
25	0	0	760	7	2544	49
26	0	0	760	8	2545	49
27	0	0	767	6	2547	48
28	0	0	1660	10	2550	48
29	0	0	2949	9	2551	48
30	0	0	3719	9	2553	49
31	0	0	4094	10	2553	50
32	0	0	4088	5	2551	47
33	0	0	3124	6	2548	48
34	0	0	2660	6	2544	47
35	0	0	1868	6	2544	49
36	0	0	1381	10	2545	48
37	0	0	1102	2	2547	49
38	0	0	943	6	2550	47
39	0	0	860	6	2553	52
40	0	0	815	8	2553	50
41	0	0	793	6	2553	49
42	0	0	782	6	2552	50
43	0	0	778	6	2549	48
44	0	0	778	8	2545	48
45	0	0	784	8	2544	50
46	0	0	784	6	2545	48
47	0	0	789	7	2547	47
48	0	0	1471	11	2550	48
49	0	0	2257	9	2552	49
50	0	0	2752	10	2554	50
51	0	0	3027	12	2554	48
52	0	0	3096	3	2552	49
53	0	0	2896	6	2549	49
54	0	0	2703	6	2546	52
55	0	0	1936	7	2544	49
56	0	0	1423	6	2545	48
57	0	0	1135	5	2547	47
58	0	0	974	7	2550	51
59	0	0	889	6	2552	48
60	0	0	847	6	2554	49
61	0	0	823	6	2554	49
62	0	0	815	5	2552	47
63	0	0	815	4	2550	52
64	0	0	816	3	2545	47
65	0	0	813	8	2544	49
66	0	0	816	6	2545	49
67	0	0	819	7	2547	48
68	0	0	997	8	2550	52
69	0	0	1857	9	2552	49
70	0	0	2391	10	2553	50
71	0	0	2470	6	2553	50
72	0	0	2020	5	2552	47
73	0	0	1470	4	2549	52
74	0	0	1169	7	2545	48
75	0	0	1012	6	2544	49
76	0	0	928	6	2545	49
77	0	0	888	8	2547	48
78	0	0	863	5	2550	52
79	0	0	864	3	2552	52
80	0	0	854	7	2552	50
81	0	0	856	6	2554	50
82	0	0	858	7	2553	47
83	0	0	863	7	2550	52
84	0	0	864	7	2545	50
85	0	0	865	7	2544	49
86	0	0	869	7	2546	48
87	0	0	872	7	2548	49
88	0	0	874	9	2550	49
89	0	0	1011	9	2553	50
90	0	0	974	5	2553	50
91	0	0	923	6	2555	48
92	0	0	908	7	2553	49
93	0	0	903	7	2549	50
94	0	0	901	7	2546	49
95	0	0	900	7	2544	49
96	0	0	905	7	2546	48
97	0	0	908	7	2548	49
98	0	0	914	7	2550	49
99	0	0	914	7	2552	49
100	0	0	916	5	2553	49
101	0	0	917	7	2555	48
102	0	0	925	5	2552	51
103	0	0	928	6	2550	51
104	0	0	931	7	2546	50
105	0	0	935	7	2545	48
106	0	0	940	6	2545	49
107	0	0	943	4	2548	50
108	0	0	946	6	2551	50
109	0	0	949	7	2552	52
110	0	0	952	8	2555	50
111	0	0	956	10	2554	48
112	0	0	958	5	2553	51
113	0	0	965	7	2550	50
114	0	0	966	6	2546	51
115	0	0	969	7	2545	49
116	0	0	973	7	2546	48
117	0	0	976	8	2548	52
118	0	0	981	7	2551	48
119	0	0	982	6	2552	54
120	0	0	986	7	2554	48
121	0	0	991	7	2554	50
122	0	0	992	8	2553	48
123	0	0	999	7	2550	48
124	0	0	999	7	2547	49
125	0	0	999	7	2545	49
126	0	0	1005	7	2547	48
127	0	0	1008	7	2549	49
0	0	0	1014	4	2551	49
1	0	0	1015	6	2553	52
2	0	0	1015	5	2554	50
3	0	0	1024	6	2554	47
4	0	0	1024	4	2553	51
5	0	0	1031	7	2550	53
6	0	0	1030	6	2545	47
7	0	0	1034	7	2545	49
8	0	0	1039	7	2546	49
9	0	0	1041	4	2548	50
10	0	0	1044	6	2552	49
11	0	0	1045	7	2553	51
12	0	0	1048	8	2554	50
13	0	0	1052	7	2555	47
14	0	0	1059	6	2554	50
15	0	0	1061	8	2550	50
16	0	0	1061	7	2546	47
17	0	0	1063	7	2545	49
18	0	0	1069	7	2546	49
19	0	0	1070	4	2548	51
20	0	0	1072	7	2552	49
21	0	0	1077	7	2553	51
22	0	0	1077	7	2554	50
23	0	0	1082	8	2555	50
24	0	0	1085	8	2554	52
25	0	0	1088	7	2550	51
26	0	0	1091	6	2546	51
27	0	0	1093	8	2546	49
28	0	0	1097	10	2547	50
29	0	0	1100	8	2549	50
30	0	0	1103	6	2552	47
31	0	0	1105	7	2552	52
32	0	0	1109	6	2554	50
33	0	0	1112	7	2556	48
34	0	0	1114	6	2554	49
35	0	0	1116	7	2551	49
36	0	0	1119	7	2547	51
37	0	0	1122	7	2545	48
38	0	0	1125	7	2547	49
39	0	0	1128	8	2549	52
40	0	0	1128	6	2551	49
41	0	0	1133	7	2553	49
42	0	0	1136	7	2555	49
43	0	0	1139	7	2555	50
44	0	0	1142	6	2553	51
45	0	0	1144	5	2550	50
46	0	0	1147	7	2548	48
47	0	0	1148	8	2546	49
48	0	0	1152	7	2547	48
49	0	0	1155	5	2550	49
50	0	0	1156	6	2552	50
51	0	0	1159	7	2554	48
52	0	0	1163	8	2555	50
53	0	0	1167	8	2555	50
54	0	0	1168	10	2554	48
55	0	0	1172	4	2551	48
56	0	0	1173	8	2547	49
57	0	0	1176	7	2547	49
58	0	0	1179	9	2547	48
59	0	0	1181	8	2549	48
60	0	0	1184	7	2552	50
61	0	0	1187	7	2553	48
62	0	0	1189	7	2555	50
63	0	0	1192	6	2556	52
64	0	0	1195	6	2554	51
65	0	0	1197	7	2551	49
66	0	0	1199	7	2547	47
67	0	0	1302	9	2546	47
68	0	0	1384	10	2547	49
69	0	0	1413	8	2549	53
70	0	0	1444	9	2552	48
71	0	0	1474	10	2554	48
72	0	0	1496	9	2556	50
73	0	0	1483	8	2556	51
74	0	0	1456	5	2555	51
75	0	0	1434	10	2551	49
76	0	0	1440	6	2548	49
77	0	0	1345	6	2547	49
78	0	0	1317	8	2547	47
79	0	0	1365	12	2550	50
80	0	0	1377	9	2552	50
81	0	0	1444	9	2555	49
82	0	0	1545	9	2556	50
83	0	0	1660	9	2556	48
84	0	0	1784	11	2556	47
85	0	0	1915	11	2552	49
86	0	0	2023	10	2548	49
87	0	0	2182	10	2547	49
88	0	0	2289	10	2547	50
89	0	0	2339	14	2550	48
90	0	0	2386	11	2552	50
91	0	0	2420	10	2554	49
92	0	0	2464	10	2556	50
93	0	0	2477	12	2556	50
94	0	0	2490	15	2555	48
95	0	0	2550	9	2552	50
96	0	0	2614	6	2548	49
97	0	0	2573	10	2547	48
98	0	0	2703	11	2548	49
99	0	0	2951	11	2550	48
100	0	0	3260	9	2553	49
101	0	0	3796	10	2554	48
102	0	0	4092	8	2557	50
103	0	0	4092	10	2556	51
104	0	0	3459	10	2555	48
105	0	0	4089	10	2552	46
106	0	0	4090	11	2546	48
107	0	0	4090	11	2546	47
108	0	0	4094	11	2547	48
109	0	0	4092	11	2549	48
110	0	0	4090	6	2552	50
111	0	0	4091	7	2554	48
112	0	0	4091	8	2556	51
113	0	0	4092	8	2556	50
114	0	0	4092	11	2555	49
115	0	0	4093	12	2552	49
116	0	0	4091	8	2548	48
117	0	0	4093	8	2548	49
118	0	0	4092	10	2548	47
119	0	0	4092	11	2550	48
120	0	0	4090	11	2553	49
121	0	0	4092	11	2554	48
122	0	0	4091	11	2556	49
123	0	0	4092	11	2556	47
124	0	0	4093	10	2555	49
125	0	0	4090	11	2552	50
126	0	0	4091	11	2548	48
127	0	0	4091	11	2547	49
0	0	0	4092	12	2548	49
1	0	0	4092	8	2550	51
2	0	0	4092	10	2553	48
3	0	0	4093	10	2556	49
4	0	0	4092	10	2557	50
5	0	0	4092	10	2557	48
6	0	0	3830	6	2557	50
7	0	0	2364	4	2552	49
8	0	0	1572	6	2548	50
9	0	0	1112	6	2547	49
10	0	0	849	8	2548	49
11	0	0	702	6	2550	49
12	0	0	623	6	2553	49
13	0	0	2037	11	2555	50
14	0	0	3087	11	2556	50
15	0	0	3693	10	2556	50
16	0	0	4053	11	2555	50
17	0	0	4090	9	2552	51
18	0	0	4091	12	2548	48
19	0	0	4091	11	2547	49
20	0	0	4091	10	2548	49
21	0	0	4092	11	2550	49
22	0	0	4092	10	2553	49
23	0	0	3254	5	2555	48
24	0	0	2040	6	2556	48
25	0	0	1360	8	2557	50
26	0	0	976	7	2555	50
27	0	0	755	4	2553	51
28	0	0	632	6	2549	50
29	0	0	568	7	2548	49
30	0	0	537	8	2548	49
31	0	0	519	7	2550	49
32	0	0	512	11	2553	49
33	0	0	512	11	2555	48
34	0	0	2074	10	2557	49
35	0	0	3097	10	2556	48
36	0	0	3688	12	2556	50
37	0	0	4044	10	2553	49
38	0	0	4091	11	2548	50
39	0	0	4090	14	2548	48
40	0	0	4092	11	2548	48
41	0	0	4092	11	2550	49
42	0	0	3190	6	2553	49
43	0	0	2011	6	2555	47
44	0	0	1341	7	2557	50
45	0	0	958	6	2556	48
46	0	0	740	5	2556	50
47	0	0	623	6	2553	48
48	0	0	560	6	2548	52
49	0	0	527	13	2547	48
50	0	0	515	10	2548	49
51	0	0	505	8	2551	50
52	0	0	503	11	2553	51
53	0	0	504	10	2555	47
54	0	0	1583	9	2556	49
55	0	0	2819	11	2558	49
56	0	0	3523	8	2556	50
57	0	0	3947	11	2553	49
58	0	0	4092	10	2548	47
59	0	0	4092	12	2548	48
60	0	0	4092	10	2548	52
61	0	0	4091	8	2551	51
62	0	0	2430	6	2553	49
63	0	0	1587	6	2555	47
64	0	0	1098	4	2556	49
65	0	0	822	7	2557	48
66	0	0	671	4	2557	50
67	0	0	584	7	2553	49
68	0	0	543	6	2549	49
69	0	0	525	10	2548	49
70	0	0	516	9	2549	49
71	0	0	513	12	2551	49
72	0	0	510	10	2554	47
73	0	0	513	10	2555	47
74	0	0	1521	12	2557	49
75	0	0	2791	11	2557	48
76	0	0	3518	10	2557	50
77	0	0	3941	11	2553	49
78	0	0	4091	11	2548	47
79	0	0	4092	10	2547	49
80	0	0	4093	11	2549	49
81	0	0	3411	2	2551	50
82	0	0	2124	7	2553	50
83	0	0	1410	7	2556	49
84	0	0	1007	8	2557	50
85	0	0	774	8	2558	50
86	0	0	648	8	2557	51
87	0	0	578	6	2553	49
88	0	0	544	6	2549	47
89	0	0	531	11	2549	49
90	0	0	521	10	2550	51
91	0	0	520	11	2551	47
92	0	0	520	10	2554	48
93	0	0	524	10	2556	47
94	0	0	1836	11	2558	50
95	0	0	2967	10	2558	50
96	0	0	3628	10	2557	50
97	0	0	4009	11	2553	49
98	0	0	4091	10	2549	48
99	0	0	4088	11	2548	49
100	0	0	4093	11	2550	48
101	0	0	3666	6	2551	47
102	0	0	2259	5	2554	49
103	0	0	1491	5	2556	47
104	0	0	1056	7	2558	50
105	0	0	805	6	2560	48
106	0	0	668	4	2558	50
107	0	0	593	4	2554	50
108	0	0	556	6	2549	48
109	0	0	539	9	2549	49
110	0	0	530	10	2549	52
111	0	0	526	11	2551	49
112	0	0	528	12	2554	49
113	0	0	553	10	2556	47
114	0	0	2197	10	2558	49
115	0	0	3178	9	2558	51
116	0	0	3752	10	2557	52
117	0	0	4089	11	2553	49
118	0	0	4092	10	2550	49
119	0	0	4091	12	2548	49
120	0	0	4091	10	2549	50
121	0	0	3657	5	2551	48
122	0	0	2257	4	2554	50
123	0	0	1491	6	2556	48
124	0	0	1055	7	2557	50
125	0	0	808	6	2560	51
126	0	0	670	7	2557	49
127	0	0	594	7	2554	48
0	0	0	560	7	2549	48
1	0	0	541	11	2549	50
2	0	0	532	10	2549	50
3	0	0	530	10	2551	49
4	0	0	531	10	2554	49
5	0	0	680	10	2556	50
6	0	0	2330	14	2557	49
7	0	0	3247	10	2558	49
8	0	0	3793	10	2557	49
9	0	0	4091	8	2553	49
10	0	0	4091	11	2549	50
11	0	0	4092	12	2548	49
12	0	0	4091	13	2549	49
13	0	0	3427	7	2551	47
14	0	0	2152	4	2554	50
15	0	0	1432	6	2556	48
16	0	0	1024	7	2560	47
17	0	0	791	5	2560	47
18	0	0	661	7	2556	50
19	0	0	592	6	2554	51
20	0	0	557	7	2549	48
21	0	0	542	8	2549	49
22	0	0	535	10	2550	51
23	0	0	533	9	2551	49
24	0	0	533	9	2555	49
25	0	0	955	10	2556	48
26	0	0	2511	11	2557	49
27	0	0	3355	7	2558	51
28	0	0	3859	12	2557	48
29	0	0	4091	8	2554	48
30	0	0	4091	10	2549	48
31	0	0	4087	10	2548	49
32	0	0	4091	10	2550	48
33	0	0	3704	6	2552	49
34	0	0	2294	5	2554	50
35	0	0	1511	6	2556	50
36	0	0	1066	8	2558	50
37	0	0	814	6	2560	50
38	0	0	675	6	2556	48
39	0	0	598	5	2554	50
40	0	0	560	5	2550	44
41	0	0	545	10	2550	49
42	0	0	535	10	2550	50
43	0	0	532	11	2551	48
44	0	0	531	11	2554	50
45	0	0	1104	10	2556	49
46	0	0	2587	10	2558	49
47	0	0	3405	13	2558	50
48	0	0	3882	10	2558	50
49	0	0	4090	9	2554	50
50	0	0	4091	10	2550	48
51	0	0	4092	10	2548	49
52	0	0	4091	10	2550	49
53	0	0	4091	5	2551	48
54	0	0	2482	6	2554	50
55	0	0	1618	6	2556	50
56	0	0	1125	6	2560	48
57	0	0	845	6	2560	49
58	0	0	691	6	2556	50
59	0	0	605	4	2554	50
60	0	0	562	7	2550	48
61	0	0	544	10	2549	49
62	0	0	534	7	2550	48
63	0	0	527	12	2552	48
64	0	0	528	8	2554	49
65	0	0	1510	10	2557	49
66	0	0	2792	8	2558	50
67	0	0	3521	10	2558	47
68	0	0	3951	11	2557	52
69	0	0	4091	10	2554	49
70	0	0	4091	11	2549	50
71	0	0	4090	7	2550	49
72	0	0	4092	10	2550	49
73	0	0	4093	6	2551	48
74	0	0	2496	4	2554	50
75	0	0	1630	6	2557	49
76	0	0	1129	6	2560	48
77	0	0	845	5	2560	48
78	0	0	687	6	2557	52
79	0	0	599	7	2554	50
80	0	0	555	7	2550	49
81	0	0	537	10	2549	49
82	0	0	523	12	2550	49
83	0	0	520	11	2551	48
84	0	0	520	10	2555	51
85	0	0	1500	8	2556	50
86	0	0	2783	10	2558	50
87	0	0	3514	10	2560	47
88	0	0	3942	11	2557	50
89	0	0	4091	13	2555	49
90	0	0	4091	11	2550	49
91	0	0	4091	10	2549	50
92	0	0	4092	12	2550	49
93	0	0	4092	7	2551	48
94	0	0	2531	4	2555	49
95	0	0	1646	5	2556	50
96	0	0	1135	6	2560	48
97	0	0	845	8	2560	49
98	0	0	684	8	2557	51
99	0	0	595	10	2555	51
100	0	0	551	6	2550	49
101	0	0	530	10	2549	49
102	0	0	517	14	2550	49
103	0	0	513	11	2551	48
104	0	0	513	8	2554	50
105	0	0	1576	9	2557	50
106	0	0	2820	10	2558	50
107	0	0	3534	10	2560	48
108	0	0	3955	10	2558	50
109	0	0	4090	13	2555	48
110	0	0	4093	10	2551	49
111	0	0	4092	9	2549	49
112	0	0	4092	10	2550	51
113	0	0	4092	6	2552	49
114	0	0	2706	11	2555	50
115	0	0	1733	6	2558	51
116	0	0	1186	10	2558	50
117	0	0	871	2	2560	50
118	0	0	694	6	2558	50
119	0	0	597	5	2554	49
120	0	0	546	6	2550	50
121	0	0	525	8	2549	49
122	0	0	507	11	2549	48
123	0	0	505	10	2552	52
124	0	0	503	11	2555	50
125	0	0	1743	11	2557	49
126	0	0	2901	11	2558	49
127	0	0	3576	14	2558	49
0	0	0	3975	11	2557	50
1	0	0	4092	9	2554	49
2	0	0	4091	9	2550	49
3	0	0	4092	7	2550	49
4	0	0	4094	11	2551	50
5	0	0	4092	7	2552	49
6	0	0	2864	6	2555	51
7	0	0	1816	6	2556	51
8	0	0	1231	7	2558	50
9	0	0	890	8	2560	49
10	0	0	700	5	2557	51
11	0	0	596	5	2554	50
12	0	0	540	6	2550	49
13	0	0	516	10	2549	48
14	0	0	499	14	2550	49
15	0	0	494	10	2552	47
16	0	0	493	9	2555	48
17	0	0	1812	10	2557	50
18	0	0	2931	7	2560	47
19	0	0	3591	12	2560	48
20	0	0	3980	10	2558	53
21	0	0	4090	13	2554	49
22	0	0	4091	10	2550	51
23	0	0	4092	8	2550	49
24	0	0	4092	10	2550	47
25	0	0	4091	6	2552	49
26	0	0	2934	5	2555	50
27	0	0	1851	6	2557	50
28	0	0	1241	7	2560	48
29	0	0	895	6	2560	47
30	0	0	697	3	2558	50
31	0	0	585	11	2555	49
32	0	0	532	6	2550	49
33	0	0	507	7	2549	49
34	0	0	489	11	2549	48
35	0	0	485	10	2552	49
36	0	0	483	8	2554	50
37	0	0	1822	11	2557	49
38	0	0	2946	7	2558	49
39	0	0	3591	11	2558	50
40	0	0	3974	10	2557	47
41	0	0	4091	10	2553	50
42	0	0	4091	11	2550	49
43	0	0	4091	8	2549	49
44	0	0	4091	9	2550	49
45	0	0	4092	8	2552	49
46	0	0	2985	5	2555	50
47	0	0	1875	6	2557	48
48	0	0	1250	7	2558	49
49	0	0	896	5	2560	47
50	0	0	693	6	2560	49
51	0	0	581	4	2555	50
52	0	0	524	6	2550	49
53	0	0	496	9	2549	49
54	0	0	480	11	2550	49
55	0	0	475	11	2552	48
56	0	0	471	10	2555	50
57	0	0	1873	11	2557	50
58	0	0	2967	8	2560	48
59	0	0	3598	10	2560	48
60	0	0	3974	10	2558	49
61	0	0	4093	9	2555	49
62	0	0	4091	10	2550	48
63	0	0	4091	11	2548	48
64	0	0	4092	12	2550	51
65	0	0	4092	12	2552	47
66	0	0	2994	8	2554	49
67	0	0	1876	6	2557	50
68	0	0	1246	5	2560	48
69	0	0	889	4	2560	48
70	0	0	685	7	2558	48
71	0	0	572	8	2554	50
72	0	0	514	3	2551	49
73	0	0	487	10	2549	49
74	0	0	470	10	2550	49
75	0	0	464	10	2553	48
76	0	0	463	12	2555	49
77	0	0	1997	10	2558	50
78	0	0	3034	8	2560	48
79	0	0	3633	8	2560	48
80	0	0	3990	10	2557	50
81	0	0	4091	12	2554	49
82	0	0	4090	10	2550	48
83	0	0	4091	8	2550	49
84	0	0	4091	9	2550	50
85	0	0	4092	8	2552	49
86	0	0	3151	7	2555	49
87	0	0	1957	6	2557	50
88	0	0	1287	6	2560	47
89	0	0	904	5	2560	48
90	0	0	690	6	2558	50
91	0	0	569	6	2555	50
92	0	0	505	6	2550	51
93	0	0	478	8	2550	49
94	0	0	460	9	2550	50
95	0	0	452	10	2552	50
96	0	0	450	7	2555	49
97	0	0	1954	10	2557	50
98	0	0	3004	10	2560	45
99	0	0	3617	10	2560	47
100	0	0	3972	8	2557	48
101	0	0	4091	11	2555	48
102	0	0	4091	10	2550	50
103	0	0	4091	10	2549	47
104	0	0	4091	9	2551	50
105	0	0	4093	11	2552	48
106	0	0	3132	6	2555	51
107	0	0	1953	6	2558	50
108	0	0	1280	6	2560	48
109	0	0	896	6	2560	48
110	0	0	680	8	2560	48
111	0	0	560	6	2554	50
112	0	0	493	6	2550	49
113	0	0	463	9	2550	51
114	0	0	449	7	2550	48
115	0	0	441	10	2552	48
116	0	0	440	12	2555	50
117	0	0	1998	10	2557	50
118	0	0	3023	10	2560	48
119	0	0	3623	8	2561	49
120	0	0	3971	9	2557	48
121	0	0	4091	11	2554	49
122	0	0	4092	10	2551	49
123	0	0	4089	8	2550	49
124	0	0	4092	10	2550	48
125	0	0	4093	10	2553	50
126	0	0	3163	8	2554	50
127	0	0	1967	6	2557	50
0	0	0	1282	4	2560	48
1	0	0	890	5	2561	49
2	0	0	672	6	2560	49
3	0	0	550	3	2555	50
4	0	0	485	6	2551	49
5	0	0	454	8	2550	49
6	0	0	436	11	2550	49
7	0	0	430	10	2552	48
8	0	0	427	12	2554	50
9	0	0	2015	10	2557	49
10	0	0	3030	10	2561	47
11	0	0	3622	10	2561	47
12	0	0	3970	10	2558	50
13	0	0	4091	10	2555	48
14	0	0	4091	10	2551	52
15	0	0	4092	10	2549	49
16	0	0	4091	14	2550	50
17	0	0	4092	10	2553	50
18	0	0	3272	7	2555	48
19	0	0	2006	5	2557	48
20	0	0	1305	8	2560	48
21	0	0	899	6	2561	48
22	0	0	671	6	2557	48
23	0	0	543	3	2554	50
24	0	0	476	6	2551	51
25	0	0	444	10	2550	49
26	0	0	425	11	2550	48
27	0	0	418	10	2552	48
28	0	0	416	7	2555	50
29	0	0	2076	10	2557	49
30	0	0	3058	10	2560	48
31	0	0	3633	11	2560	47
32	0	0	3971	11	2557	48
33	0	0	4091	5	2555	51
34	0	0	4091	10	2551	49
35	0	0	4091	10	2549	49
36	0	0	4092	11	2550	48
37	0	0	4092	11	2552	49
38	0	0	3359	3	2555	49
39	0	0	2047	8	2557	50
40	0	0	1323	5	2560	49
41	0	0	905	7	2561	48
42	0	0	668	6	2557	48
43	0	0	538	1	2555	51
44	0	0	466	6	2551	49
45	0	0	433	10	2550	49
46	0	0	415	9	2551	45
47	0	0	407	9	2553	49
48	0	0	405	9	2555	50
49	0	0	2082	10	2557	49
50	0	0	3049	11	2560	48
51	0	0	3624	9	2561	45
52	0	0	3960	10	2560	48
53	0	0	4092	10	2555	49
54	0	0	4091	10	2551	49
55	0	0	4091	11	2550	50
56	0	0	4093	14	2551	50
57	0	0	4092	10	2553	50
58	0	0	3338	1	2555	50
59	0	0	2029	6	2557	50
60	0	0	1308	7	2561	48
61	0	0	891	5	2561	45
62	0	0	655	5	2560	49
63	0	0	525	4	2556	50
64	0	0	454	6	2551	51
65	0	0	422	10	2550	49
66	0	0	404	7	2551	50
67	0	0	396	9	2553	50
68	0	0	393	8	2555	49
69	0	0	2073	9	2558	49
70	0	0	3037	7	2561	48
71	0	0	3614	9	2561	48
72	0	0	3950	10	2560	47
73	0	0	4091	8	2555	49
74	0	0	4091	10	2551	49
75	0	0	4087	7	2550	48
76	0	0	4093	11	2551	48
77	0	0	4092	9	2553	48
78	0	0	3374	4	2555	50
79	0	0	2042	5	2558	49
80	0	0	1306	4	2561	48
81	0	0	890	4	2561	48
82	0	0	649	5	2560	47
83	0	0	516	1	2555	49
84	0	0	443	6	2551	50
85	0	0	415	7	2550	47
86	0	0	392	9	2551	48
87	0	0	385	10	2554	49
88	0	0	382	8	2556	49
89	0	0	2098	10	2560	48
90	0	0	3058	10	2561	47
91	0	0	3611	10	2561	48
92	0	0	3943	10	2560	48
93	0	0	4093	11	2556	49
94	0	0	4093	10	2551	49
95	0	0	4090	12	2549	49
96	0	0	4089	10	2551	47
97	0	0	4092	10	2553	49
98	0	0	3473	5	2556	50
99	0	0	2090	3	2557	50
100	0	0	1325	7	2560	48
101	0	0	897	4	2561	52
102	0	0	648	6	2560	49
103	0	0	508	4	2555	50
104	0	0	435	8	2551	49
105	0	0	402	9	2551	49
106	0	0	383	9	2551	47
107	0	0	374	10	2553	50
108	0	0	371	9	2556	50
109	0	0	2091	10	2557	48
110	0	0	3048	7	2560	48
111	0	0	3607	10	2561	46
112	0	0	3937	10	2561	49
113	0	0	4091	10	2555	49
114	0	0	4091	10	2551	50
115	0	0	4091	11	2549	49
116	0	0	4090	9	2551	52
117	0	0	4092	10	2553	51
118	0	0	3416	6	2556	49
119	0	0	2054	7	2557	50
120	0	0	1300	7	2560	48
121	0	0	874	4	2561	48
122	0	0	635	6	2561	49
123	0	0	496	6	2556	51
124	0	0	423	5	2551	49
125	0	0	391	8	2552	50
126	0	0	371	10	2552	47
127	0	0	363	11	2553	50
0	0	0	364	10	2556	49
1	0	0	2100	10	2557	50
2	0	0	3049	7	2561	46
3	0	0	3607	11	2561	45
4	0	0	3929	10	2560	48
5	0	0	4090	10	2556	50
6	0	0	4092	11	2551	49
7	0	0	4091	9	2550	49
8	0	0	4092	10	2551	54
9	0	0	4092	11	2554	49
10	0	0	3448	4	2556	50
11	0	0	2076	6	2558	50
12	0	0	1309	4	2562	48
13	0	0	874	5	2562	46
14	0	0	627	5	2560	49
15	0	0	488	6	2556	51
16	0	0	415	6	2551	49
17	0	0	381	12	2550	47
18	0	0	362	10	2551	48
19	0	0	353	11	2554	49
20	0	0	350	10	2556	48
21	0	0	2062	9	2558	50
22	0	0	3024	8	2562	48
23	0	0	3592	9	2562	46
24	0	0	3911	11	2560	47
25	0	0	4091	10	2556	50
26	0	0	4090	11	2551	49
27	0	0	4092	16	2550	47
28	0	0	4092	12	2551	48
29	0	0	4092	10	2553	50
30	0	0	3474	8	2556	51
31	0	0	2086	6	2558	50
32	0	0	1312	6	2561	48
33	0	0	870	6	2561	49
34	0	0	622	6	2560	47
35	0	0	480	6	2556	50
36	0	0	406	6	2551	49
37	0	0	371	8	2551	50
38	0	0	349	11	2551	49
39	0	0	342	10	2554	49
40	0	0	372	10	2556	51
41	0	0	2100	10	2560	47
42	0	0	3040	9	2560	48
43	0	0	3593	12	2561	48
44	0	0	3914	10	2560	47
45	0	0	4091	10	2555	50
46	0	0	4091	10	2552	50
47	0	0	4091	8	2552	49
48	0	0	4092	10	2551	52
49	0	0	4092	11	2553	49
50	0	0	3608	8	2555	50
51	0	0	2148	6	2558	50
52	0	0	1344	6	2561	48
53	0	0	881	8	2561	45
54	0	0	624	6	2560	48
55	0	0	477	6	2555	50
56	0	0	400	6	2552	49
57	0	0	359	9	2550	49
58	0	0	339	11	2550	48
59	0	0	333	10	2553	48
60	0	0	359	9	2556	51
61	0	0	2081	11	2558	50
62	0	0	3025	11	2560	47
63	0	0	3573	11	2560	48
64	0	0	3906	11	2558	49
65	0	0	4085	9	2555	49
66	0	0	4091	9	2551	51
67	0	0	4091	11	2550	48
68	0	0	4094	11	2551	50
69	0	0	4093	11	2553	49
70	0	0	3644	5	2555	50
71	0	0	2147	6	2560	47
72	0	0	1344	5	2560	47
73	0	0	876	7	2560	48
74	0	0	616	5	2561	47
75	0	0	469	7	2555	49
76	0	0	391	5	2552	50
77	0	0	354	8	2551	50
78	0	0	331	7	2551	49
79	0	0	322	10	2553	47
80	0	0	372	10	2556	49
81	0	0	2105	9	2558	50
82	0	0	3026	10	2561	49
83	0	0	3570	11	2561	48
84	0	0	3898	10	2560	47
85	0	0	4079	11	2555	49
86	0	0	4091	10	2551	49
87	0	0	4090	10	2550	49
88	0	0	4093	11	2551	49
89	0	0	4093	11	2554	49
90	0	0	3623	5	2555	49
91	0	0	2130	7	2558	49
92	0	0	1330	7	2560	47
93	0	0	868	7	2561	48
94	0	0	605	6	2560	47
95	0	0	460	5	2556	49
96	0	0	380	6	2552	49
97	0	0	343	8	2551	50
98	0	0	322	7	2552	50
99	0	0	314	9	2554	48
100	0	0	338	12	2555	51
101	0	0	2076	10	2558	50
102	0	0	3005	9	2561	48
103	0	0	3562	8	2561	48
104	0	0	3886	9	2561	48
105	0	0	4070	10	2555	48
106	0	0	4091	10	2551	48
107	0	0	4092	9	2550	49
108	0	0	4092	11	2552	49
109	0	0	4092	11	2554	50
110	0	0	3683	5	2555	51
111	0	0	2157	7	2560	48
112	0	0	1334	5	2561	49
113	0	0	869	3	2561	48
114	0	0	602	6	2561	48
115	0	0	452	5	2556	51
116	0	0	373	6	2551	50
117	0	0	336	8	2550	50
118	0	0	313	7	2551	49
119	0	0	307	10	2553	49
120	0	0	383	10	2554	50
121	0	0	2109	10	2557	48
122	0	0	3030	13	2560	48
123	0	0	3566	10	2562	48
124	0	0	3884	10	2560	29
125	0	0	4066	11	2556	49
126	0	0	4092	10	2551	52
127	0	0	4092	13	2550	49
0	0	0	4092	10	2551	48
1	0	0	4091	10	2553	47
2	0	0	3761	6	2556	50
3	0	0	2200	6	2558	50
4	0	0	1353	6	2560	49
5	0	0	873	6	2560	48
6	0	0	602	5	2560	48
7	0	0	447	5	2556	50
8	0	0	368	6	2551	50
9	0	0	325	9	2550	49
10	0	0	303	8	2551	48
11	0	0	295	10	2553	47
12	0	0	355	10	2555	50
13	0	0	2071	9	2557	50
14	0	0	3005	11	2558	49
15	0	0	3548	7	2561	48
16	0	0	3872	10	2560	48
17	0	0	4052	10	2556	49
18	0	0	4091	10	2551	49
19	0	0	4092	11	2550	49
20	0	0	4092	12	2551	52
21	0	0	4092	10	2553	48
22	0	0	3749	5	2556	49
23	0	0	2175	5	2557	51
24	0	0	1344	6	2560	47
25	0	0	864	6	2561	49
26	0	0	591	6	2560	47
27	0	0	439	7	2556	50
28	0	0	356	6	2551	49
29	0	0	316	8	2550	49
30	0	0	296	10	2551	47
31	0	0	287	10	2553	51
32	0	0	346	9	2556	50
33	0	0	2077	10	2560	47
34	0	0	2994	11	2560	48
35	0	0	3542	10	2561	48
36	0	0	3864	9	2561	48
37	0	0	4044	10	2556	49
38	0	0	4093	10	2552	48
39	0	0	4093	7	2550	48
40	0	0	4092	10	2551	50
41	0	0	4092	10	2553	47
42	0	0	3788	8	2556	50
43	0	0	2192	5	2558	50
44	0	0	1349	6	2560	48
45	0	0	865	4	2561	48
46	0	0	587	6	2560	47
47	0	0	432	6	2557	49
48	0	0	350	8	2550	50
49	0	0	307	8	2550	49
50	0	0	287	8	2551	48
51	0	0	278	11	2553	47
52	0	0	321	8	2556	50
53	0	0	2055	9	2558	50
54	0	0	2979	12	2561	48
55	0	0	3528	10	2561	52
56	0	0	3855	11	2560	47
57	0	0	4037	11	2556	49
58	0	0	4092	10	2551	49
59	0	0	4092	11	2550	49
60	0	0	4092	11	2550	49
61	0	0	4091	10	2553	47
62	0	0	4089	5	2556	50
63	0	0	2260	5	2557	49
64	0	0	1374	5	2560	48
65	0	0	880	4	2561	48
66	0	0	592	5	2560	47
67	0	0	430	6	2556	50
68	0	0	345	6	2551	50
69	0	0	302	8	2550	49
70	0	0	276	10	2551	48
71	0	0	268	9	2553	47
72	0	0	348	10	2555	49
73	0	0	2070	10	2557	50
74	0	0	2990	10	2560	47
75	0	0	3525	10	2561	48
76	0	0	3848	10	2560	47
77	0	0	4035	10	2556	50
78	0	0	4090	10	2551	50
79	0	0	4090	11	2550	49
80	0	0	4090	8	2551	49
81	0	0	4093	11	2552	51
82	0	0	3875	6	2555	49
83	0	0	2234	6	2558	50
84	0	0	1356	2	2560	51
85	0	0	864	6	2561	48
86	0	0	580	6	2560	48
87	0	0	420	3	2558	51
88	0	0	334	5	2551	49
89	0	0	293	8	2550	50
90	0	0	274	8	2551	49
91	0	0	261	10	2553	47
92	0	0	347	10	2554	49
93	0	0	2070	10	2557	50
94	0	0	2988	10	2560	48
95	0	0	3521	10	2560	50
96	0	0	3840	11	2560	45
97	0	0	4024	10	2556	49
98	0	0	4090	10	2551	49
99	0	0	4091	10	2550	48
100	0	0	4095	10	2551	49
101	0	0	4091	11	2553	51
102	0	0	3849	6	2555	49
103	0	0	2216	5	2558	49
104	0	0	1343	7	2561	49
105	0	0	848	5	2561	47
106	0	0	568	6	2560	45
107	0	0	410	6	2555	50
108	0	0	326	5	2551	50
109	0	0	284	8	2551	50
110	0	0	264	10	2551	51
111	0	0	253	11	2553	47
112	0	0	340	10	2556	49
113	0	0	2064	10	2558	49
114	0	0	2982	10	2561	44
115	0	0	3513	10	2560	48
116	0	0	3834	10	2560	47
117	0	0	4018	10	2555	50
118	0	0	4090	10	2551	49
119	0	0	4091	10	2550	49
120	0	0	4091	10	2551	49
121	0	0	4093	11	2553	49
122	0	0	3770	5	2555	49
123	0	0	2165	5	2558	50
124	0	0	1313	6	2561	49
125	0	0	828	7	2561	47
126	0	0	554	5	2560	48
127	0	0	399	5	2556	50
0	0	0	318	6	2551	49
1	0	0	277	8	2550	48
2	0	0	255	9	2550	48
3	0	0	246	8	2553	49
4	0	0	320	10	2555	49
5	0	0	2042	9	2557	50
6	0	0	2972	10	2560	48
7	0	0	3503	9	2561	48
8	0	0	3824	10	2560	47
9	0	0	4006	10	2555	49
10	0	0	4092	9	2551	49
11	0	0	4091	11	2550	49
12	0	0	4091	10	2550	51
13	0	0	4092	10	2553	48
14	0	0	3776	6	2554	50
15	0	0	2184	5	2557	50
16	0	0	1320	5	2561	48
17	0	0	829	6	2561	51
18	0	0	551	6	2560	48
19	0	0	395	6	2555	51
20	0	0	312	6	2551	50
21	0	0	272	8	2550	49
22	0	0	252	9	2551	49
23	0	0	240	9	2553	49
24	0	0	394	7	2555	48
25	0	0	2076	11	2557	50
26	0	0	2981	10	2560	49
27	0	0	3513	9	2561	48
28	0	0	3824	10	2560	48
29	0	0	4005	10	2555	49
30	0	0	4091	9	2551	49
31	0	0	4090	10	2550	49
32	0	0	4092	10	2550	49
33	0	0	4092	11	2553	48
34	0	0	3859	7	2556	50
35	0	0	2226	6	2557	50
36	0	0	1340	5	2561	47
37	0	0	840	6	2561	48
38	0	0	554	6	2561	47
39	0	0	394	1	2555	48
40	0	0	305	8	2551	50
41	0	0	263	7	2550	50
42	0	0	239	9	2551	49
43	0	0	231	8	2553	48
44	0	0	346	10	2555	49
45	0	0	2041	10	2558	49
46	0	0	2962	10	2560	47
47	0	0	3494	9	2560	47
48	0	0	3815	11	2560	46
49	0	0	3994	10	2555	50
50	0	0	4091	10	2551	48
51	0	0	4090	10	2550	49
52	0	0	4092	10	2551	48
53	0	0	4094	11	2553	48
54	0	0	3840	4	2555	51
55	0	0	2200	5	2558	47
56	0	0	1329	5	2560	48
57	0	0	827	5	2561	47
58	0	0	544	5	2560	48
59	0	0	386	6	2556	49
60	0	0	299	6	2551	48
61	0	0	258	8	2550	49
62	0	0	233	9	2551	50
63	0	0	225	8	2553	47
64	0	0	334	10	2555	53
65	0	0	2046	10	2560	48
66	0	0	2955	7	2561	46
67	0	0	3489	11	2561	47
68	0	0	3810	11	2560	47
69	0	0	3987	10	2555	48
70	0	0	4093	11	2552	49
71	0	0	4092	7	2551	48
72	0	0	4092	10	2551	50
73	0	0	4093	10	2553	49
74	0	0	3893	6	2555	49
75	0	0	2233	6	2557	50
76	0	0	1347	3	2561	48
77	0	0	833	5	2561	48
78	0	0	542	7	2560	48
79	0	0	382	6	2555	50
80	0	0	296	5	2551	49
81	0	0	251	5	2550	48
82	0	0	225	8	2551	50
83	0	0	219	8	2553	47
84	0	0	358	10	2555	49
85	0	0	2063	8	2557	50
86	0	0	2958	9	2561	47
87	0	0	3493	9	2561	52
88	0	0	3806	9	2560	48
89	0	0	3986	10	2556	50
90	0	0	4085	10	2551	49
91	0	0	4090	11	2549	47
92	0	0	4092	11	2550	49
93	0	0	4092	11	2552	49
94	0	0	3873	5	2554	49
95	0	0	2218	5	2557	50
96	0	0	1329	8	2560	50
97	0	0	826	7	2561	47
98	0	0	537	6	2560	47
99	0	0	375	6	2555	49
100	0	0	291	6	2552	49
101	0	0	244	6	2550	48
102	0	0	224	11	2551	50
103	0	0	212	9	2553	52
104	0	0	361	10	2556	50
105	0	0	2056	9	2557	50
106	0	0	2963	10	2560	48
107	0	0	3487	12	2561	49
108	0	0	3801	10	2560	47
109	0	0	3979	10	2555	49
110	0	0	4074	10	2551	49
111	0	0	4092	11	2549	49
112	0	0	4093	12	2551	49
113	0	0	4093	9	2553	49
114	0	0	3864	6	2554	49
115	0	0	2215	6	2557	50
116	0	0	1323	3	2561	48
117	0	0	819	7	2561	48
118	0	0	531	6	2560	47
119	0	0	368	5	2555	49
120	0	0	281	6	2551	50
121	0	0	238	8	2550	47
122	0	0	217	12	2551	50
123	0	0	207	9	2553	50
124	0	0	308	11	2555	49
125	0	0	2020	11	2557	49
126	0	0	2939	15	2558	51
127	0	0	3478	10	2561	48
0	0	0	3791	10	2560	47
1	0	0	3969	10	2555	49
2	0	0	4075	10	2552	48
3	0	0	4092	7	2549	50
4	0	0	4093	13	2551	50
5	0	0	4091	11	2552	53
6	0	0	4090	5	2554	50
7	0	0	2265	4	2557	50
8	0	0	1349	5	2561	48
9	0	0	830	5	2561	48
10	0	0	537	6	2560	49
11	0	0	368	6	2555	49
12	0	0	278	6	2551	49
13	0	0	235	7	2550	48
14	0	0	214	11	2551	50
15	0	0	203	9	2553	47
16	0	0	336	10	2554	47
17	0	0	2025	9	2558	50
18	0	0	2937	11	2560	48
19	0	0	3471	12	2561	49
20	0	0	3786	10	2560	48
21	0	0	3965	10	2555	49
22	0	0	4066	9	2551	49
23	0	0	4092	11	2550	50
24	0	0	4093	10	2551	49
25	0	0	4090	11	2553	51
26	0	0	3959	6	2554	50
27	0	0	2267	6	2557	50
28	0	0	1347	7	2560	48
29	0	0	827	4	2561	48
30	0	0	530	5	2560	48
31	0	0	363	6	2555	50
32	0	0	272	3	2551	50
33	0	0	229	11	2549	49
34	0	0	208	8	2551	49
35	0	0	196	11	2553	49
36	0	0	396	9	2555	48
37	0	0	2058	10	2557	49
38	0	0	2953	10	2560	48
39	0	0	3479	11	2561	49
40	0	0	3785	10	2560	44
41	0	0	3964	10	2555	49
42	0	0	4066	9	2552	49
43	0	0	4093	7	2549	50
44	0	0	4092	8	2551	48
45	0	0	4092	10	2553	49
46	0	0	4091	5	2555	50
47	0	0	2325	8	2558	51
48	0	0	1377	6	2560	50
49	0	0	840	6	2561	48
50	0	0	535	6	2560	49
51	0	0	364	6	2555	50
52	0	0	271	7	2551	49
53	0	0	223	7	2549	49
54	0	0	202	6	2551	49
55	0	0	188	10	2552	47
56	0	0	405	9	2554	50
57	0	0	2069	11	2557	50
58	0	0	2953	11	2560	47
59	0	0	3471	10	2560	48
60	0	0	3786	10	2560	47
61	0	0	3958	10	2555	50
62	0	0	4060	10	2552	49
63	0	0	4091	13	2550	50
64	0	0	4092	7	2551	48
65	0	0	4093	10	2553	50
66	0	0	4088	6	2554	50
67	0	0	2260	6	2557	50
68	0	0	1349	5	2560	47
69	0	0	821	2	2561	48
70	0	0	520	6	2560	45
71	0	0	353	4	2555	49
72	0	0	263	6	2551	49
73	0	0	217	9	2550	49
74	0	0	195	9	2550	49
75	0	0	181	10	2553	48
76	0	0	490	9	2555	50
77	0	0	2110	10	2557	50
78	0	0	2973	10	2560	47
79	0	0	3486	6	2561	48
80	0	0	3787	10	2560	47
81	0	0	3957	10	2555	49
82	0	0	4054	10	2550	48
83	0	0	4092	12	2549	49
84	0	0	4093	10	2550	50
85	0	0	4093	10	2552	48
86	0	0	3642	6	2554	50
87	0	0	2067	5	2557	48
88	0	0	1232	6	2560	48
89	0	0	754	2	2560	48
90	0	0	480	7	2560	48
91	0	0	327	5	2556	50
92	0	0	247	6	2551	50
93	0	0	207	9	2549	49
94	0	0	185	9	2551	49
95	0	0	175	11	2552	50
96	0	0	443	9	2555	49
97	0	0	2089	9	2557	50
98	0	0	2965	10	2560	47
99	0	0	3475	11	2561	47
100	0	0	3777	10	2558	52
101	0	0	3954	10	2555	50
102	0	0	4047	10	2550	49
103	0	0	4091	10	2549	47
104	0	0	4092	7	2550	48
105	0	0	4092	11	2552	48
106	0	0	4091	5	2554	48
107	0	0	2347	6	2557	50
108	0	0	1379	6	2560	48
109	0	0	840	3	2561	48
110	0	0	526	6	2560	48
111	0	0	350	5	2555	48
112	0	0	257	6	2552	50
113	0	0	208	8	2549	49
114	0	0	188	7	2550	47
115	0	0	173	12	2552	48
116	0	0	343	10	2554	48
117	0	0	2037	10	2556	48
118	0	0	2933	10	2560	48
119	0	0	3451	7	2560	47
120	0	0	3758	13	2558	48
121	0	0	3942	10	2555	51
122	0	0	4040	10	2551	49
123	0	0	4091	10	2549	49
124	0	0	4089	9	2549	47
125	0	0	4093	10	2552	48
126	0	0	4092	6	2554	52
127	0	0	2320	5	2556	50
0	0	0	1363	6	2560	48
1	0	0	831	6	2560	50
2	0	0	518	6	2560	48
3	0	0	344	7	2554	49
4	0	0	250	6	2551	49
5	0	0	204	8	2549	49
6	0	0	180	7	2550	49
7	0	0	168	10	2553	50
8	0	0	339	9	2555	47
9	0	0	2033	10	2557	50
10	0	0	2929	14	2560	45
11	0	0	3453	7	2560	48
12	0	0	3759	9	2560	47
13	0	0	3936	10	2554	48
14	0	0	4037	10	2551	48
15	0	0	4090	15	2549	48
16	0	0	4092	7	2550	49
17	0	0	4092	10	2552	49
18	0	0	4091	6	2554	50
19	0	0	2362	4	2557	50
20	0	0	1388	10	2560	45
21	0	0	835	2	2560	47
22	0	0	522	5	2560	48
23	0	0	343	6	2555	48
24	0	0	246	8	2551	50
25	0	0	199	8	2550	48
26	0	0	175	10	2549	48
27	0	0	166	10	2552	51
28	0	0	359	9	2554	48
29	0	0	2024	10	2556	49
30	0	0	2924	10	2560	45
31	0	0	3445	7	2560	45
32	0	0	3758	11	2558	52
33	0	0	3930	10	2555	49
34	0	0	4030	10	2551	49
35	0	0	4084	10	2550	48
36	0	0	4091	9	2551	49
37	0	0	4092	13	2552	49
38	0	0	4093	6	2555	50
39	0	0	2377	6	2556	50
40	0	0	1389	5	2560	48
41	0	0	836	5	2560	49
42	0	0	523	6	2558	54
43	0	0	339	6	2554	52
44	0	0	242	5	2550	49
45	0	0	196	7	2549	49
46	0	0	170	8	2550	51
47	0	0	162	10	2552	52
48	0	0	175	11	2554	50
49	0	0	1904	10	2556	50
50	0	0	2849	7	2558	50
51	0	0	3403	9	2560	48
52	0	0	3728	10	2560	48
53	0	0	3913	10	2554	47
54	0	0	4020	10	2551	49
55	0	0	4077	10	2549	47
56	0	0	4092	8	2549	51
57	0	0	4089	11	2552	48
58	0	0	4091	5	2554	50
59	0	0	2478	6	2556	50
60	0	0	1450	6	2558	52
61	0	0	865	7	2560	48
62	0	0	535	6	2558	50
63	0	0	346	7	2554	53
64	0	0	244	6	2549	50
65	0	0	196	7	2549	48
66	0	0	168	10	2550	52
67	0	0	155	8	2552	47
68	0	0	195	10	2555	50
69	0	0	1919	9	2556	50
70	0	0	2859	10	2560	47
71	0	0	3405	10	2560	48
72	0	0	3727	8	2558	50
73	0	0	3912	8	2555	52
74	0	0	4009	9	2550	49
75	0	0	4069	9	2549	49
76	0	0	4093	8	2549	51
77	0	0	4092	10	2552	53
78	0	0	4090	4	2554	52
79	0	0	2490	6	2556	50
80	0	0	1455	6	2558	50
81	0	0	864	7	2560	48
82	0	0	533	6	2558	52
83	0	0	342	5	2555	53
84	0	0	237	6	2551	50
85	0	0	188	7	2549	50
86	0	0	163	8	2550	49
87	0	0	151	9	2552	48
88	0	0	169	12	2553	49
89	0	0	1913	8	2556	50
90	0	0	2845	10	2560	48
91	0	0	3394	11	2560	48
92	0	0	3723	9	2557	49
93	0	0	3904	10	2555	49
94	0	0	4009	10	2550	49
95	0	0	4067	10	2549	50
96	0	0	4095	11	2550	49
97	0	0	4093	11	2552	48
98	0	0	4093	6	2555	50
99	0	0	2482	6	2556	50
100	0	0	1455	5	2558	51
101	0	0	864	4	2560	49
102	0	0	526	5	2558	49
103	0	0	339	6	2553	52
104	0	0	236	7	2551	50
105	0	0	185	8	2549	48
106	0	0	160	11	2549	48
107	0	0	144	8	2552	49
108	0	0	141	10	2553	51
109	0	0	1872	10	2556	50
110	0	0	2817	10	2558	51
111	0	0	3377	10	2560	52
112	0	0	3710	10	2558	55
113	0	0	3895	10	2554	50
114	0	0	4002	11	2550	49
115	0	0	4061	10	2548	47
116	0	0	4092	9	2550	49
117	0	0	4091	10	2552	49
118	0	0	4093	5	2554	50
119	0	0	2524	6	2556	50
120	0	0	1475	5	2558	51
121	0	0	875	8	2560	49
122	0	0	530	6	2558	51
123	0	0	338	6	2554	53
124	0	0	233	7	2550	49
125	0	0	181	8	2549	50
126	0	0	154	8	2550	49
127	0	0	144	7	2552	49
0	0	0	131	11	2553	52
1	0	0	1816	10	2556	50
2	0	0	2792	11	2558	50
3	0	0	3356	12	2560	48
4	0	0	3694	10	2558	49
5	0	0	3888	10	2554	52
6	0	0	3996	10	2551	49
7	0	0	4056	11	2549	47
8	0	0	4086	10	2549	48
9	0	0	4091	10	2552	49
10	0	0	4091	8	2553	48
11	0	0	2665	5	2556	50
12	0	0	1546	5	2558	48
13	0	0	919	4	2558	53
14	0	0	552	5	2558	50
15	0	0	349	6	2554	51
16	0	0	239	6	2550	48
17	0	0	180	8	2549	50
18	0	0	155	8	2550	53
19	0	0	139	8	2552	49
20	0	0	133	10	2554	49
21	0	0	1715	10	2556	50
22	0	0	2729	10	2558	49
23	0	0	3317	10	2560	48
24	0	0	3671	7	2558	50
25	0	0	3872	10	2554	48
26	0	0	3983	11	2550	49
27	0	0	4047	11	2549	49
28	0	0	4081	12	2549	48
29	0	0	4093	11	2551	49
30	0	0	4091	9	2553	48
31	0	0	2939	7	2556	50
32	0	0	1690	7	2558	50
33	0	0	998	4	2558	51
34	0	0	598	5	2557	52
35	0	0	371	5	2554	49
36	0	0	246	7	2551	50
37	0	0	183	7	2549	49
38	0	0	149	12	2550	49
39	0	0	133	9	2552	47
40	0	0	129	12	2552	49
41	0	0	1400	11	2556	49
42	0	0	2546	10	2558	48
43	0	0	3215	12	2560	47
44	0	0	3603	8	2557	52
45	0	0	3832	10	2554	48
46	0	0	3964	11	2550	49
47	0	0	4032	10	2548	49
48	0	0	4071	9	2549	51
49	0	0	4083	10	2551	48
50	0	0	4092	9	2553	48
51	0	0	3830	3	2557	51
52	0	0	2274	6	2557	48
53	0	0	1319	8	2560	48
54	0	0	782	6	2558	48
55	0	0	473	7	2553	51
56	0	0	1573	7	2549	49
57	0	0	2627	10	2548	47
58	0	0	3248	7	2549	49
59	0	0	3608	9	2552	48
60	0	0	2345	4	2553	50
61	0	0	1347	6	2556	51
62	0	0	791	8	2557	51
63	0	0	477	4	2558	51
64	0	0	303	5	2557	51
65	0	0	215	5	2554	49
66	0	0	164	9	2550	49
67	0	0	139	8	2548	49
68	0	0	127	7	2549	48
69	0	0	126	8	2551	50
70	0	0	1205	9	2553	52
71	0	0	2442	9	2556	49
72	0	0	3151	8	2557	49
73	0	0	3569	7	2558	51
74	0	0	3812	9	2558	51
75	0	0	3948	9	2554	48
76	0	0	4026	10	2550	48
77	0	0	4064	4	2548	49
78	0	0	4084	7	2549	48
79	0	0	4088	5	2551	50
80	0	0	3279	5	2553	49
81	0	0	1875	4	2556	51
82	0	0	1095	6	2557	48
83	0	0	650	7	2560	50
84	0	0	402	5	2558	51
85	0	0	261	6	2554	52
86	0	0	186	4	2551	51
87	0	0	154	9	2548	48
88	0	0	133	9	2550	48
89	0	0	126	9	2552	49
90	0	0	124	9	2553	48
91	0	0	127	10	2557	49
92	0	0	1443	9	2557	48
93	0	0	2576	11	2558	48
94	0	0	3230	10	2557	49
95	0	0	3619	10	2555	48
96	0	0	3842	11	2549	47
97	0	0	3968	11	2548	48
98	0	0	4036	6	2549	47
99	0	0	4076	5	2551	49
100	0	0	4093	10	2553	48
101	0	0	3173	4	2555	51
102	0	0	1818	5	2558	49
103	0	0	1068	1	2558	51
104	0	0	644	6	2557	51
105	0	0	399	5	2554	47
106	0	0	268	4	2550	50
107	0	0	202	9	2549	49
108	0	0	161	6	2549	50
109	0	0	144	9	2551	49
110	0	0	137	9	2553	51
111	0	0	140	7	2555	49
112	0	0	1364	9	2558	48
113	0	0	2535	8	2557	49
114	0	0	3214	9	2557	51
115	0	0	3606	9	2553	47
116	0	0	3840	10	2548	46
117	0	0	3974	10	2548	47
118	0	0	4043	8	2549	48
119	0	0	4082	7	2551	51
120	0	0	4091	6	2553	52
121	0	0	3032	4	2556	51
122	0	0	1760	4	2557	49
123	0	0	1039	5	2558	52
124	0	0	627	5	2557	51
125	0	0	398	6	2555	50
126	0	0	271	4	2550	50
127	0	0	204	9	2548	49
0	0	0	168	7	2550	50
1	0	0	148	10	2551	50
2	0	0	145	8	2554	49
3	0	0	148	7	2555	50
4	0	0	1173	9	2557	48
5	0	0	2435	10	2558	47
6	0	0	3158	9	2557	49
7	0	0	3577	9	2553	47
8	0	0	3830	13	2550	48
9	0	0	3971	11	2547	48
10	0	0	4045	5	2549	47
11	0	0	4087	6	2550	48
12	0	0	4091	6	2553	47
13	0	0	2969	5	2555	50
14	0	0	1732	5	2557	54
15	0	0	1027	2	2560	50
16	0	0	624	6	2557	52
17	0	0	400	5	2555	52
18	0	0	275	7	2550	51
19	0	0	211	8	2548	50
20	0	0	178	8	2549	51
21	0	0	160	9	2551	49
22	0	0	153	9	2553	47
23	0	0	155	12	2556	50
24	0	0	917	9	2558	50
25	0	0	2306	11	2558	47
26	0	0	3087	11	2557	49
27	0	0	3544	9	2553	47
28	0	0	3808	10	2550	47
29	0	0	3966	10	2548	48
30	0	0	4047	4	2549	49
31	0	0	4091	6	2551	47
32	0	0	4092	5	2553	48
33	0	0	3179	4	2556	50
34	0	0	1832	5	2557	50
35	0	0	1095	7	2558	51
36	0	0	668	6	2557	50
37	0	0	423	5	2554	54
38	0	0	295	7	2550	51
39	0	0	232	8	2549	51
40	0	0	189	8	2549	50
41	0	0	172	8	2551	49
42	0	0	165	9	2553	47
43	0	0	165	11	2556	49
44	0	0	834	9	2557	51
45	0	0	2269	10	2558	47
46	0	0	3069	10	2557	49
47	0	0	3537	9	2553	47
48	0	0	3808	11	2549	47
49	0	0	3969	10	2548	47
50	0	0	4053	7	2549	48
51	0	0	4091	3	2550	50
52	0	0	4091	6	2552	49
53	0	0	3088	7	2556	50
54	0	0	1790	5	2556	48
55	0	0	1076	5	2558	51
56	0	0	660	5	2556	51
57	0	0	427	5	2553	47
58	0	0	299	7	2550	53
59	0	0	233	6	2548	52
60	0	0	199	4	2549	51
61	0	0	181	8	2551	48
62	0	0	174	9	2552	48
63	0	0	171	10	2555	50
64	0	0	174	9	2557	48
65	0	0	1740	8	2558	49
66	0	0	2766	8	2556	50
67	0	0	3365	9	2554	48
68	0	0	3714	7	2548	47
69	0	0	3919	10	2547	47
70	0	0	4035	10	2549	49
71	0	0	4091	8	2550	49
72	0	0	4095	7	2552	48
73	0	0	4092	7	2555	50
74	0	0	2908	3	2556	51
75	0	0	1709	5	2557	49
76	0	0	1027	4	2557	52
77	0	0	638	1	2553	49
78	0	0	418	8	2549	50
79	0	0	300	3	2548	51
80	0	0	240	16	2549	51
81	0	0	199	9	2551	49
82	0	0	187	9	2552	48
83	0	0	180	8	2556	49
84	0	0	182	10	2557	47
85	0	0	1484	9	2556	48
86	0	0	2624	10	2556	47
87	0	0	3282	10	2554	43
88	0	0	3672	14	2548	46
89	0	0	3893	9	2547	47
90	0	0	4023	12	2548	48
91	0	0	4091	9	2550	48
92	0	0	4091	7	2552	48
93	0	0	4091	6	2555	51
94	0	0	3099	5	2557	54
95	0	0	1805	4	2558	52
96	0	0	1088	3	2556	51
97	0	0	675	6	2553	47
98	0	0	440	5	2549	49
99	0	0	313	6	2548	48
100	0	0	244	6	2550	51
101	0	0	209	5	2551	49
102	0	0	195	8	2553	49
103	0	0	189	8	2555	49
104	0	0	186	11	2557	49
105	0	0	434	11	2557	48
106	0	0	2057	8	2556	49
107	0	0	2959	10	2553	48
108	0	0	3480	11	2549	48
109	0	0	3785	8	2547	48
110	0	0	3966	10	2547	48
111	0	0	4066	8	2550	49
112	0	0	4091	10	2552	48
113	0	0	4091	8	2555	51
114	0	0	2701	4	2557	51
115	0	0	1594	5	2557	50
116	0	0	974	6	2557	51
117	0	0	616	6	2553	48
118	0	0	412	8	2550	51
119	0	0	304	6	2548	53
120	0	0	245	6	2547	48
121	0	0	217	4	2550	49
122	0	0	205	8	2552	48
123	0	0	200	9	2554	49
124	0	0	204	7	2556	51
125	0	0	201	12	2556	48
126	0	0	818	11	2556	47
127	0	0	2269	9	2552	48
0	0	0	3087	10	2548	47
1	0	0	3563	8	2547	47
2	0	0	3845	13	2547	48
3	0	0	4008	11	2549	49
4	0	0	4091	10	2551	48
5	0	0	4091	10	2554	49
6	0	0	2851	8	2556	51
7	0	0	1686	8	2556	49
8	0	0	1036	4	2556	51
9	0	0	660	5	2552	48
10	0	0	448	6	2548	50
11	0	0	332	4	2547	50
12	0	0	272	7	2547	50
13	0	0	242	6	2550	49
14	0	0	230	4	2551	48
15	0	0	223	8	2554	52
16	0	0	223	10	2556	49
17	0	0	224	11	2555	48
18	0	0	1517	8	2555	49
19	0	0	2648	10	2552	45
20	0	0	3316	9	2548	49
21	0	0	3707	8	2546	48
22	0	0	3940	11	2546	48
23	0	0	4064	5	2548	49
24	0	0	4093	8	2551	50
25	0	0	4092	7	2553	50
26	0	0	3063	6	2556	50
27	0	0	1807	5	2556	51
28	0	0	1112	9	2556	52
29	0	0	711	6	2553	51
30	0	0	483	4	2548	50
31	0	0	358	6	2547	49
32	0	0	293	7	2549	49
33	0	0	259	9	2550	51
34	0	0	244	7	2552	50
35	0	0	238	7	2554	49
36	0	0	239	9	2556	48
37	0	0	239	9	2555	49
38	0	0	1296	9	2556	47
39	0	0	2530	10	2552	46
40	0	0	3256	7	2549	48
41	0	0	3676	10	2546	48
42	0	0	3924	9	2547	47
43	0	0	4065	15	2549	49
44	0	0	4091	10	2551	50
45	0	0	4091	10	2554	50
46	0	0	3498	7	2556	51
47	0	0	2048	7	2556	50
48	0	0	1247	7	2556	52
49	0	0	797	6	2553	48
50	0	0	538	5	2549	50
51	0	0	395	6	2547	50
52	0	0	318	6	2548	50
53	0	0	278	13	2550	49
54	0	0	259	6	2553	49
55	0	0	251	6	2554	49
56	0	0	251	9	2556	48
57	0	0	252	8	2556	52
58	0	0	1280	13	2556	48
59	0	0	2520	9	2552	48
60	0	0	3254	7	2547	48
61	0	0	3682	14	2545	48
62	0	0	3936	9	2546	50
63	0	0	4070	15	2550	48
64	0	0	4089	10	2551	49
65	0	0	4091	10	2554	50
66	0	0	4092	7	2555	50
67	0	0	2705	5	2556	51
68	0	0	1622	5	2556	51
69	0	0	1016	6	2552	51
70	0	0	666	6	2548	51
71	0	0	467	7	2546	50
72	0	0	360	6	2547	52
73	0	0	305	6	2549	49
74	0	0	275	6	2552	49
75	0	0	262	5	2553	49
76	0	0	258	8	2555	49
77	0	0	594	8	2556	51
78	0	0	1670	11	2555	48
79	0	0	2735	10	2551	46
80	0	0	3375	7	2547	48
81	0	0	3754	15	2545	48
82	0	0	3975	10	2546	52
83	0	0	4091	8	2548	47
84	0	0	4091	10	2550	49
85	0	0	4092	10	2553	51
86	0	0	3896	10	2554	50
87	0	0	2979	7	2556	53
88	0	0	1949	6	2555	49
89	0	0	1196	6	2551	52
90	0	0	772	5	2547	50
91	0	0	528	7	2545	48
92	0	0	393	4	2547	49
93	0	0	321	6	2549	48
94	0	0	284	6	2551	49
95	0	0	268	1	2553	49
96	0	0	621	9	2554	50
97	0	0	1368	9	2555	48
98	0	0	2202	8	2554	48
99	0	0	3009	10	2551	48
100	0	0	3534	7	2547	48
101	0	0	3847	11	2545	48
102	0	0	4023	9	2547	51
103	0	0	4095	15	2549	48
104	0	0	4089	13	2550	49
105	0	0	4092	8	2553	49
106	0	0	4093	6	2555	50
107	0	0	3544	5	2556	51
108	0	0	2931	6	2555	52
109	0	0	2315	6	2551	51
110	0	0	1774	5	2548	51
111	0	0	1340	5	2546	50
112	0	0	1075	5	2547	49
113	0	0	991	7	2549	49
114	0	0	1085	9	2551	49
115	0	0	1334	8	2553	49
116	0	0	1719	9	2555	49
117	0	0	2180	10	2555	48
118	0	0	2713	9	2555	49
119	0	0	3256	10	2551	47
120	0	0	3667	11	2546	46
121	0	0	3903	10	2545	47
122	0	0	4040	12	2546	47
123	0	0	4091	9	2548	49
124	0	0	4091	10	2549	50
125	0	0	4091	6	2552	51
126	0	0	3719	8	2554	51
127	0	0	3175	6	2554	51
0	0	0	2654	8	2553	51
1	0	0	2154	6	2550	50
2	0	0	1706	5	2545	50
3	0	0	1337	6	2544	49
4	0	0	1120	6	2545	49
5	0	0	1052	4	2546	49
6	0	0	1092	9	2548	48
7	0	0	1230	8	2550	49
8	0	0	1468	9	2551	49
9	0	0	1808	9	2552	51
10	0	0	2201	13	2550	48
11	0	0	2598	12	2547	47
12	0	0	2978	7	2541	48
13	0	0	3339	9	2540	47
14	0	0	3620	11	2539	47
15	0	0	3731	8	2541	49
16	0	0	3639	6	2542	49
17	0	0	3364	4	2544	50
18	0	0	2974	6	2545	48
19	0	0	2547	6	2544	49
20	0	0	2134	6	2544	49
21	0	0	1762	6	2540	50
22	0	0	1444	4	2536	49
23	0	0	1169	5	2534	50
24	0	0	962	5	2533	50
25	0	0	902	8	2534	49
26	0	0	1015	9	2536	49
27	0	0	1219	8	2537	49
28	0	0	1459	8	2537	48
29	0	0	1743	8	2538	49
30	0	0	2037	11	2536	47
31	0	0	2324	9	2533	47
32	0	0	2607	8	2529	47
33	0	0	2920	10	2527	46
34	0	0	3172	10	2526	49
35	0	0	3282	12	2528	48
36	0	0	3225	6	2529	50
37	0	0	3004	8	2530	49
38	0	0	2688	4	2531	48
39	0	0	2334	7	2531	48
40	0	0	1954	7	2532	49
41	0	0	1592	5	2528	49
42	0	0	1282	3	2523	50
43	0	0	1012	3	2521	48
44	0	0	844	6	2522	50
45	0	0	818	10	2523	49
46	0	0	929	10	2524	50
47	0	0	1127	8	2527	48
48	0	0	1374	10	2527	46
49	0	0	1690	11	2526	48
50	0	0	2013	7	2525	47
51	0	0	2325	10	2522	47
52	0	0	2656	11	2518	47
53	0	0	2982	10	2516	47
54	0	0	3196	8	2516	47
55	0	0	3282	12	2518	48
56	0	0	3275	7	2519	48
57	0	0	3107	8	2521	49
58	0	0	2844	6	2522	47
59	0	0	2540	7	2522	50
60	0	0	2216	3	2521	49
61	0	0	1872	5	2519	50
62	0	0	1554	3	2515	50
63	0	0	1282	5	2513	48
64	0	0	1115	5	2514	49
65	0	0	1066	7	2515	48
66	0	0	1115	9	2515	48
67	0	0	1254	8	2518	47
68	0	0	1468	9	2519	47
69	0	0	1738	11	2519	47
70	0	0	2043	12	2518	47
71	0	0	2347	8	2515	46
72	0	0	2652	8	2511	46
73	0	0	2962	9	2510	47
74	0	0	3181	10	2509	47
75	0	0	3291	7	2511	47
76	0	0	3271	6	2512	49
77	0	0	3082	8	2514	51
78	0	0	2787	6	2516	47
79	0	0	2453	7	2515	50
80	0	0	2128	7	2515	48
81	0	0	1824	5	2512	49
82	0	0	1560	6	2509	49
83	0	0	1329	6	2508	47
84	0	0	1204	6	2507	47
85	0	0	1193	7	2508	49
86	0	0	1240	9	2510	49
87	0	0	1344	9	2512	47
88	0	0	1510	11	2513	45
89	0	0	1746	8	2513	46
90	0	0	2011	7	2513	47
91	0	0	2284	11	2510	46
92	0	0	2583	10	2506	46
93	0	0	2897	10	2505	47
94	0	0	3113	10	2504	44
95	0	0	3206	7	2506	48
96	0	0	3167	7	2508	49
97	0	0	3008	6	2511	49
98	0	0	2784	7	2511	47
99	0	0	2513	7	2512	49
100	0	0	2241	5	2511	49
101	0	0	2017	6	2508	49
102	0	0	1809	6	2505	48
103	0	0	1605	5	2504	51
104	0	0	1437	6	2504	48
105	0	0	1390	7	2505	48
106	0	0	1438	9	2506	47
107	0	0	1563	8	2509	47
108	0	0	1745	9	2510	45
109	0	0	1956	9	2510	48
110	0	0	2190	7	2509	47
111	0	0	2441	10	2506	47
112	0	0	2692	9	2503	46
113	0	0	2938	15	2502	47
114	0	0	3126	10	2503	48
115	0	0	3216	11	2504	47
116	0	0	3171	6	2505	49
117	0	0	3002	6	2508	50
118	0	0	2752	6	2509	48
119	0	0	2474	6	2510	50
120	0	0	2188	3	2509	47
121	0	0	1926	6	2507	49
122	0	0	1718	10	2503	48
123	0	0	1538	7	2502	48
124	0	0	1407	6	2503	33
125	0	0	1375	3	2504	47
126	0	0	1439	9	2506	48
127	0	0	1575	13	2507	48
0	0	0	1748	11	2509	46
1	0	0	1977	9	2509	46
2	0	0	2231	8	2509	47
3	0	0	2492	10	2507	45
4	0	0	2725	10	2504	46
5	0	0	2933	11	2503	50
6	0	0	3092	10	2503	47
7	0	0	3162	10	2505	48
8	0	0	3081	6	2507	47
9	0	0	2869	6	2509	49
10	0	0	2591	3	2511	51
11	0	0	2300	5	2512	49
12	0	0	2070	4	2511	49
13	0	0	1891	6	2509	53
14	0	0	1748	6	2505	49
15	0	0	1619	7	2504	48
16	0	0	1533	5	2504	50
17	0	0	1511	8	2506	48
18	0	0	1551	9	2509	47
19	0	0	1653	9	2510	48
20	0	0	1822	8	2512	47
21	0	0	2039	8	2512	47
22	0	0	2290	10	2512	43
23	0	0	2537	10	2509	43
24	0	0	2763	11	2506	47
25	0	0	2963	7	2504	47
26	0	0	3108	10	2505	47
27	0	0	3178	10	2507	48
28	0	0	3177	9	2508	48
29	0	0	3083	6	2510	49
30	0	0	2935	4	2512	47
31	0	0	2747	6	2512	50
32	0	0	2538	1	2512	48
33	0	0	2333	6	2509	51
34	0	0	2162	6	2506	50
35	0	0	2037	6	2505	47
36	0	0	1967	6	2506	48
37	0	0	1971	8	2507	47
38	0	0	2021	9	2509	47
39	0	0	2091	11	2510	48
40	0	0	2218	8	2512	47
41	0	0	2381	9	2512	48
42	0	0	2568	8	2512	46
43	0	0	2749	8	2509	47
44	0	0	2931	10	2506	45
45	0	0	3140	8	2504	47
46	0	0	3278	10	2504	47
47	0	0	3335	10	2506	47
48	0	0	3264	7	2507	48
49	0	0	3064	6	2510	49
50	0	0	2845	6	2511	48
51	0	0	2616	5	2512	48
52	0	0	2367	4	2512	48
53	0	0	2138	6	2510	50
54	0	0	1934	5	2505	49
55	0	0	1755	4	2504	49
56	0	0	1621	7	2505	49
57	0	0	1590	8	2506	48
58	0	0	1634	11	2508	48
59	0	0	1714	11	2509	47
60	0	0	1828	8	2511	47
61	0	0	1949	11	2512	48
62	0	0	2115	8	2512	47
63	0	0	2343	10	2508	48
64	0	0	2593	10	2505	46
65	0	0	2811	11	2503	46
66	0	0	2949	10	2504	48
67	0	0	2996	11	2506	49
68	0	0	2947	7	2507	50
69	0	0	2792	5	2510	49
70	0	0	2570	4	2511	46
71	0	0	2350	7	2511	51
72	0	0	2127	6	2511	50
73	0	0	1897	6	2508	50
74	0	0	1705	6	2505	50
75	0	0	1553	8	2504	48
76	0	0	1460	6	2504	49
77	0	0	1428	8	2506	50
78	0	0	1447	10	2507	49
79	0	0	1505	9	2509	48
80	0	0	1608	10	2510	48
81	0	0	1776	11	2511	47
82	0	0	1975	9	2511	47
83	0	0	2163	10	2508	47
84	0	0	2360	8	2504	46
85	0	0	2572	10	2503	44
86	0	0	2704	15	2503	46
87	0	0	2754	8	2504	48
88	0	0	2734	7	2506	48
89	0	0	2607	5	2508	49
90	0	0	2382	6	2509	50
91	0	0	2107	6	2510	50
92	0	0	1811	5	2510	48
93	0	0	1528	5	2507	51
94	0	0	1285	5	2504	49
95	0	0	1074	6	2502	50
96	0	0	925	6	2502	47
97	0	0	846	6	2504	48
98	0	0	848	9	2505	47
99	0	0	986	8	2508	47
100	0	0	1203	9	2508	46
101	0	0	1433	10	2509	45
102	0	0	1671	8	2508	47
103	0	0	1904	10	2504	48
104	0	0	2146	8	2502	47
105	0	0	2387	10	2500	46
106	0	0	2544	10	2500	47
107	0	0	2623	10	2501	47
108	0	0	2623	7	2503	49
109	0	0	2460	6	2505	47
110	0	0	2172	6	2506	48
111	0	0	1834	6	2507	49
112	0	0	1498	4	2506	50
113	0	0	1170	6	2503	50
114	0	0	889	5	2500	50
115	0	0	661	6	2499	50
116	0	0	495	5	2499	47
117	0	0	397	5	2500	47
118	0	0	382	8	2501	47
119	0	0	482	8	2504	47
120	0	0	674	9	2505	47
121	0	0	896	9	2504	47
122	0	0	1137	9	2504	47
123	0	0	1383	10	2501	46
124	0	0	1651	8	2498	45
125	0	0	1914	10	2496	47
126	0	0	2103	10	2496	47
127	0	0	2200	10	2498	47
0	0	0	2136	6	2499	47
1	0	0	1932	6	2502	48
2	0	0	1648	10	2502	48
3	0	0	1313	6	2503	49
4	0	0	943	6	2502	48
5	0	0	599	5	2500	49
6	0	0	388	6	2496	49
7	0	0	277	6	2495	50
8	0	0	221	6	2496	47
9	0	0	193	6	2496	48
10	0	0	178	6	2498	47
11	0	0	175	6	2500	47
12	0	0	294	7	2502	47
13	0	0	609	10	2502	47
14	0	0	893	10	2502	46
15	0	0	1171	9	2499	45
16	0	0	1490	10	2494	47
17	0	0	1822	10	2494	47
18	0	0	2067	10	2494	48
19	0	0	2189	10	2494	49
20	0	0	2174	6	2496	47
21	0	0	2008	6	2499	48
22	0	0	1730	5	2500	49
23	0	0	1406	5	2501	48
24	0	0	1061	6	2500	49
25	0	0	720	6	2497	49
26	0	0	483	6	2494	50
27	0	0	356	6	2493	51
28	0	0	292	6	2493	48
29	0	0	257	6	2493	49
30	0	0	244	4	2495	49
31	0	0	238	7	2497	47
32	0	0	335	7	2498	47
33	0	0	622	9	2499	45
34	0	0	899	9	2498	46
35	0	0	1189	9	2495	46
36	0	0	1516	9	2491	46
37	0	0	1909	10	2490	47
38	0	0	2269	9	2490	47
39	0	0	2497	9	2490	49
40	0	0	2546	4	2493	48
41	0	0	2366	7	2495	48
42	0	0	2039	6	2497	52
43	0	0	1650	7	2497	46
44	0	0	1264	6	2497	48
45	0	0	916	5	2494	50
46	0	0	627	7	2491	49
47	0	0	460	6	2489	48
48	0	0	370	5	2489	47
49	0	0	326	6	2491	48
50	0	0	303	6	2492	48
51	0	0	344	11	2494	47
52	0	0	605	9	2496	46
53	0	0	911	8	2496	44
54	0	0	1251	9	2496	47
55	0	0	1581	9	2492	48
56	0	0	1903	10	2489	47
57	0	0	2262	9	2488	45
58	0	0	2566	10	2488	47
59	0	0	2764	10	2489	47
60	0	0	2818	8	2490	49
61	0	0	2663	9	2492	49
62	0	0	2368	5	2494	47
63	0	0	2021	7	2494	47
64	0	0	1679	6	2494	48
65	0	0	1360	6	2491	51
66	0	0	1098	6	2487	51
67	0	0	804	5	2485	48
68	0	0	578	5	2486	46
69	0	0	453	6	2487	48
70	0	0	388	6	2488	48
71	0	0	464	8	2490	48
72	0	0	763	9	2491	48
73	0	0	1152	8	2492	47
74	0	0	1582	9	2491	47
75	0	0	2005	10	2488	45
76	0	0	2431	11	2483	46
77	0	0	2888	8	2483	47
78	0	0	3241	9	2483	47
79	0	0	3432	9	2484	47
80	0	0	3406	6	2485	47
81	0	0	3143	6	2486	51
82	0	0	2729	7	2487	48
83	0	0	2265	6	2488	50
84	0	0	1790	6	2488	49
85	0	0	1341	6	2485	49
86	0	0	927	3	2481	48
87	0	0	651	6	2479	50
88	0	0	498	6	2479	49
89	0	0	418	6	2479	48
90	0	0	376	3	2481	47
91	0	0	357	4	2481	48
92	0	0	441	8	2483	47
93	0	0	815	8	2483	47
94	0	0	1225	9	2482	46
95	0	0	1606	9	2479	46
96	0	0	2037	9	2474	46
97	0	0	2503	9	2472	47
98	0	0	2833	10	2472	45
99	0	0	2989	10	2472	48
100	0	0	2912	7	2473	47
101	0	0	2548	7	2473	48
102	0	0	2031	4	2475	48
103	0	0	1435	6	2474	46
104	0	0	951	6	2473	48
105	0	0	682	5	2469	48
106	0	0	529	4	2464	48
107	0	0	449	6	2462	49
108	0	0	407	6	2461	46
109	0	0	386	6	2461	48
110	0	0	378	6	2461	47
111	0	0	376	5	2462	47
112	0	0	382	5	2462	46
113	0	0	454	9	2462	46
114	0	0	1024	10	2460	46
115	0	0	1668	10	2456	45
116	0	0	2392	7	2451	48
117	0	0	3177	9	2449	46
118	0	0	3691	10	2448	47
119	0	0	3989	10	2449	48
120	0	0	4091	6	2448	47
121	0	0	3716	3	2448	48
122	0	0	3002	5	2450	47
123	0	0	2141	5	2449	48
124	0	0	1376	5	2448	48
125	0	0	931	5	2444	48
126	0	0	682	3	2439	47
127	0	0	538	6	2437	47
0	0	0	467	4	2436	46
1	0	0	427	6	2438	46
2	0	0	411	5	2437	46
3	0	0	401	8	2438	45
4	0	0	399	4	2439	48
5	0	0	601	9	2438	46
6	0	0	1316	10	2437	44
7	0	0	2217	9	2433	44
8	0	0	3104	7	2428	48
9	0	0	3656	9	2427	47
10	0	0	3975	9	2427	45
11	0	0	4091	10	2427	45
12	0	0	4091	10	2427	47
13	0	0	3905	6	2428	47
14	0	0	2941	6	2430	47
15	0	0	1873	6	2430	48
16	0	0	1224	5	2429	48
17	0	0	849	5	2425	48
18	0	0	638	6	2422	46
19	0	0	521	6	2420	47
20	0	0	460	6	2419	47
21	0	0	428	6	2420	47
22	0	0	413	6	2421	46
23	0	0	408	3	2423	47
24	0	0	404	7	2424	46
25	0	0	1069	8	2424	47
26	0	0	2032	9	2424	46
27	0	0	2987	10	2420	45
28	0	0	3590	7	2416	47
29	0	0	3943	10	2414	46
30	0	0	4093	11	2415	45
31	0	0	4091	10	2415	48
32	0	0	4092	10	2417	46
33	0	0	4090	12	2418	47
34	0	0	4093	6	2419	47
35	0	0	3225	6	2420	47
36	0	0	2218	6	2421	47
37	0	0	1418	8	2417	49
38	0	0	956	6	2414	47
39	0	0	694	7	2413	47
40	0	0	549	8	2412	43
41	0	0	469	6	2414	47
42	0	0	429	6	2414	46
43	0	0	662	9	2416	43
44	0	0	1448	9	2417	44
45	0	0	2507	9	2418	45
46	0	0	3298	10	2417	45
47	0	0	3761	9	2415	43
48	0	0	4032	11	2411	46
49	0	0	4094	10	2409	45
50	0	0	4090	9	2410	44
51	0	0	4091	10	2410	46
52	0	0	4091	11	2412	46
53	0	0	4091	10	2414	47
54	0	0	4091	10	2415	47
55	0	0	4089	5	2416	45
56	0	0	3600	6	2415	48
57	0	0	3022	6	2413	47
58	0	0	2477	5	2410	48
59	0	0	1985	6	2408	47
60	0	0	1702	4	2408	47
61	0	0	1728	10	2409	46
62	0	0	1985	9	2411	46
63	0	0	2419	8	2412	46
64	0	0	2955	8	2414	45
65	0	0	3523	8	2415	46
66	0	0	3865	9	2412	45
67	0	0	4057	7	2411	44
68	0	0	4091	10	2408	43
69	0	0	4091	10	2406	47
70	0	0	4092	11	2406	43
71	0	0	4091	10	2407	46
72	0	0	4091	11	2409	46
73	0	0	4091	10	2411	47
74	0	0	4091	10	2412	49
75	0	0	4092	11	2412	45
76	0	0	3958	7	2411	48
77	0	0	3483	6	2409	48
78	0	0	3040	3	2406	48
79	0	0	2623	5	2405	49
80	0	0	2338	6	2405	43
81	0	0	2244	8	2406	46
82	0	0	2361	10	2407	45
83	0	0	2652	9	2409	45
84	0	0	3080	10	2410	45
85	0	0	3564	9	2411	42
86	0	0	3856	10	2409	44
87	0	0	4018	10	2407	42
88	0	0	4091	10	2404	45
89	0	0	4091	10	2402	47
90	0	0	4091	11	2403	43
91	0	0	4091	11	2404	46
92	0	0	4091	11	2405	46
93	0	0	4090	10	2407	47
94	0	0	4091	10	2408	47
95	0	0	4093	7	2409	45
96	0	0	3762	4	2408	47
97	0	0	3293	6	2406	46
98	0	0	2787	6	2403	47
99	0	0	2310	5	2401	47
100	0	0	2032	6	2402	45
101	0	0	1931	8	2403	46
102	0	0	2034	9	2404	45
103	0	0	2321	9	2406	45
104	0	0	2751	9	2407	47
105	0	0	3300	11	2407	42
106	0	0	3667	10	2406	44
107	0	0	3875	10	2404	43
108	0	0	3991	10	2401	44
109	0	0	4047	10	2400	47
110	0	0	4083	11	2400	40
111	0	0	4089	10	2401	44
112	0	0	4092	11	2403	46
113	0	0	4092	10	2405	45
114	0	0	4089	10	2406	47
115	0	0	3982	6	2406	47
116	0	0	3415	6	2405	46
117	0	0	2791	5	2404	47
118	0	0	2174	7	2401	47
119	0	0	1555	5	2399	46
120	0	0	1095	5	2400	46
121	0	0	872	6	2400	45
122	0	0	896	10	2402	46
123	0	0	1138	7	2404	45
124	0	0	1545	9	2404	47
125	0	0	2129	10	2406	44
126	0	0	2845	9	2404	44
127	0	0	3371	10	2403	44
0	0	0	3682	10	2399	44
1	0	0	3848	10	2398	43
2	0	0	3949	11	2398	42
3	0	0	4002	11	2399	45
4	0	0	4030	10	2402	46
5	0	0	4045	8	2403	45
6	0	0	3968	6	2404	47
7	0	0	3377	6	2404	46
8	0	0	2740	1	2404	46
9	0	0	2152	7	2402	48
10	0	0	1593	5	2399	49
11	0	0	1055	6	2398	46
12	0	0	708	5	2398	48
13	0	0	622	7	2398	45
14	0	0	778	10	2400	46
15	0	0	1165	7	2402	44
16	0	0	1744	9	2403	45
17	0	0	2503	11	2403	42
18	0	0	3154	10	2402	43
19	0	0	3537	10	2400	40
20	0	0	3760	8	2397	45
21	0	0	3886	8	2396	45
22	0	0	3960	11	2396	48
23	0	0	3993	10	2398	46
24	0	0	4009	11	2399	48
25	0	0	4016	11	2400	47
26	0	0	4018	11	2401	46
27	0	0	3637	7	2403	46
28	0	0	3012	5	2401	46
29	0	0	2394	5	2400	47
30	0	0	1832	5	2396	48
31	0	0	1321	6	2396	44
32	0	0	1013	5	2396	44
33	0	0	955	10	2396	47
34	0	0	1117	9	2399	46
35	0	0	1464	7	2400	44
36	0	0	1969	13	2401	45
37	0	0	2639	10	2401	48
38	0	0	3217	10	2401	44
39	0	0	3554	10	2398	44
40	0	0	3755	10	2395	47
41	0	0	3864	11	2393	43
42	0	0	3928	10	2394	44
43	0	0	3955	10	2395	44
44	0	0	3971	10	2397	47
45	0	0	3973	11	2398	47
46	0	0	3980	12	2400	47
47	0	0	3777	7	2400	44
48	0	0	3258	6	2400	47
49	0	0	2734	5	2398	48
50	0	0	2266	5	2395	47
51	0	0	1839	7	2393	45
52	0	0	1570	7	2395	46
53	0	0	1502	9	2395	43
54	0	0	1616	10	2397	46
55	0	0	1871	10	2398	46
56	0	0	2247	13	2400	45
57	0	0	2741	9	2400	46
58	0	0	3244	10	2400	44
59	0	0	3555	10	2397	46
60	0	0	3732	8	2395	43
61	0	0	3829	11	2394	41
62	0	0	3884	11	2395	47
63	0	0	3909	11	2395	46
64	0	0	3923	11	2397	47
65	0	0	3928	10	2399	47
66	0	0	3929	11	2401	47
67	0	0	3705	8	2402	47
68	0	0	3303	6	2400	47
69	0	0	2899	6	2400	46
70	0	0	2518	3	2396	46
71	0	0	2195	9	2395	47
72	0	0	2009	5	2396	47
73	0	0	1966	9	2397	47
74	0	0	2073	9	2399	47
75	0	0	2317	8	2401	45
76	0	0	2651	10	2403	42
77	0	0	3053	10	2403	47
78	0	0	3421	10	2402	44
79	0	0	3633	10	2400	44
80	0	0	3746	9	2398	45
81	0	0	3816	11	2398	41
82	0	0	3850	11	2398	45
83	0	0	3866	10	2400	45
84	0	0	3874	12	2401	45
85	0	0	3873	11	2403	46
86	0	0	3872	10	2405	45
87	0	0	3659	7	2405	47
88	0	0	3344	6	2405	45
89	0	0	3064	7	2403	47
90	0	0	2798	5	2401	47
91	0	0	2562	6	2400	47
92	0	0	2422	7	2401	47
93	0	0	2430	10	2402	45
94	0	0	2557	9	2404	46
95	0	0	2774	7	2406	45
96	0	0	3059	10	2408	46
97	0	0	3380	10	2408	47
98	0	0	3588	10	2408	46
99	0	0	3703	10	2406	43
100	0	0	3758	10	2403	44
101	0	0	3790	8	2402	44
102	0	0	3803	11	2403	47
103	0	0	3807	11	2405	45
104	0	0	3811	11	2406	45
105	0	0	3809	10	2409	48
106	0	0	3807	10	2410	47
107	0	0	3740	7	2411	47
108	0	0	3489	6	2410	48
109	0	0	3277	7	2409	49
110	0	0	3112	7	2406	47
111	0	0	2986	8	2405	47
112	0	0	2949	10	2406	47
113	0	0	2999	10	2407	47
114	0	0	3112	9	2409	46
115	0	0	3264	8	2411	46
116	0	0	3431	10	2412	47
117	0	0	3590	9	2413	45
118	0	0	3670	10	2412	45
119	0	0	3711	9	2411	44
120	0	0	3731	11	2408	46
121	0	0	3739	10	2408	44
122	0	0	3741	11	2408	43
123	0	0	3739	11	2409	46
124	0	0	3738	11	2411	47
125	0	0	3732	11	2413	48
126	0	0	3725	10	2415	48
127	0	0	3727	10	2416	47
0	0	0	3586	7	2416	47
1	0	0	3415	6	2414	47
2	0	0	3291	7	2411	47
3	0	0	3197	6	2410	47
4	0	0	3145	8	2411	48
5	0	0	3136	10	2412	44
6	0	0	3189	10	2414	45
7	0	0	3311	10	2416	47
8	0	0	3467	10	2418	45
9	0	0	3571	13	2418	41
10	0	0	3625	9	2418	45
11	0	0	3651	10	2416	44
12	0	0	3662	11	2413	45
13	0	0	3667	12	2413	46
14	0	0	3664	8	2414	47
15	0	0	3664	11	2416	46
16	0	0	3662	10	2417	46
17	0	0	3657	11	2419	47
18	0	0	3654	11	2421	47
19	0	0	3647	6	2421	48
20	0	0	3457	6	2421	46
21	0	0	3303	6	2420	46
22	0	0	3183	8	2417	45
23	0	0	3073	4	2417	45
24	0	0	2999	8	2417	47
25	0	0	2982	10	2418	47
26	0	0	3010	11	2420	46
27	0	0	3108	10	2422	47
28	0	0	3267	9	2423	47
29	0	0	3424	10	2425	42
30	0	0	3516	11	2424	44
31	0	0	3559	10	2422	45
32	0	0	3577	10	2420	47
33	0	0	3589	10	2418	43
34	0	0	3589	11	2420	42
35	0	0	3593	11	2421	46
36	0	0	3589	11	2423	47
37	0	0	3587	12	2425	47
38	0	0	3531	6	2426	47
39	0	0	3346	7	2427	45
40	0	0	3196	8	2427	48
41	0	0	3087	7	2425	48
42	0	0	2997	8	2423	48
43	0	0	2907	6	2421	47
44	0	0	2852	8	2423	45
45	0	0	2849	9	2423	45
46	0	0	2868	10	2425	45
47	0	0	2911	10	2427	47
48	0	0	2982	9	2428	47
49	0	0	3079	10	2430	43
50	0	0	3184	10	2429	45
51	0	0	3261	10	2427	46
52	0	0	3327	12	2425	46
53	0	0	3382	10	2423	45
54	0	0	3407	11	2424	42
55	0	0	3382	11	2425	46
56	0	0	3311	7	2427	43
57	0	0	3180	7	2429	47
58	0	0	2996	5	2432	47
59	0	0	2803	7	2432	48
60	0	0	2652	7	2432	47
61	0	0	2545	7	2430	49
62	0	0	2457	7	2427	47
63	0	0	2380	6	2426	47
64	0	0	2324	9	2427	47
65	0	0	2329	10	2429	47
66	0	0	2335	10	2430	47
67	0	0	2358	10	2432	44
68	0	0	2423	9	2434	45
69	0	0	2503	11	2435	46
70	0	0	2587	9	2435	44
71	0	0	2640	9	2432	43
72	0	0	2683	11	2429	45
73	0	0	2718	11	2429	46
74	0	0	2706	11	2429	45
75	0	0	2653	6	2430	46
76	0	0	2570	8	2432	47
77	0	0	2457	6	2434	46
78	0	0	2349	4	2436	46
79	0	0	2259	7	2437	44
80	0	0	2178	6	2437	48
81	0	0	2087	7	2436	47
82	0	0	2010	8	2433	45
83	0	0	1953	6	2432	47
84	0	0	1916	11	2433	47
85	0	0	1894	7	2433	45
86	0	0	1895	10	2435	44
87	0	0	1924	10	2438	43
88	0	0	1979	10	2439	45
89	0	0	2031	10	2440	47
90	0	0	2073	10	2440	48
91	0	0	2094	10	2438	44
92	0	0	2104	10	2435	44
93	0	0	2107	11	2435	45
94	0	0	2079	7	2435	47
95	0	0	2027	7	2437	46
96	0	0	1954	7	2439	47
97	0	0	1854	5	2440	47
98	0	0	1759	7	2442	44
99	0	0	1675	6	2443	47
100	0	0	1605	6	2444	47
101	0	0	1534	6	2441	47
102	0	0	1479	6	2440	46
103	0	0	1440	7	2439	46
104	0	0	1422	9	2438	45
105	0	0	1434	9	2441	46
106	0	0	1424	7	2442	46
107	0	0	1417	8	2444	47
108	0	0	1415	9	2446	47
109	0	0	1454	11	2447	48
110	0	0	1522	9	2446	45
111	0	0	1601	9	2445	45
112	0	0	1691	14	2442	43
113	0	0	1767	9	2441	46
114	0	0	1777	9	2442	46
115	0	0	1717	7	2443	48
116	0	0	1628	6	2445	47
117	0	0	1502	7	2448	44
118	0	0	1369	7	2449	48
119	0	0	1251	4	2450	48
120	0	0	1124	7	2450	47
121	0	0	1014	7	2448	46
122	0	0	936	6	2445	47
123	0	0	877	6	2444	46
124	0	0	879	10	2445	48
125	0	0	912	7	2446	48
126	0	0	959	9	2447	46
127	0	0	1034	10	2449	45
0	0	0	1091	11	2451	48
1	0	0	1131	10	2452	48
2	0	0	1191	7	2451	46
3	0	0	1265	9	2450	46
4	0	0	1345	13	2447	44
5	0	0	1401	9	2446	46
6	0	0	1397	6	2447	48
7	0	0	1325	6	2448	47
8	0	0	1214	6	2449	47
9	0	0	1066	6	2452	44
10	0	0	932	8	2453	48
11	0	0	833	5	2454	47
12	0	0	733	7	2453	49
13	0	0	637	6	2451	47
14	0	0	560	6	2449	44
15	0	0	515	7	2447	48
16	0	0	524	11	2448	48
17	0	0	568	9	2449	50
18	0	0	632	10	2451	46
19	0	0	721	10	2454	46
20	0	0	817	10	2455	45
21	0	0	900	9	2455	43
22	0	0	972	9	2455	45
23	0	0	1034	11	2453	44
24	0	0	1108	10	2450	46
25	0	0	1162	8	2449	47
26	0	0	1156	7	2450	46
27	0	0	1098	4	2451	47
28	0	0	1005	6	2453	47
29	0	0	879	7	2455	48
30	0	0	757	7	2456	48
31	0	0	645	7	2458	47
32	0	0	552	8	2457	51
33	0	0	475	6	2455	48
34	0	0	427	7	2452	47
35	0	0	404	8	2452	48
36	0	0	429	9	2452	47
37	0	0	474	10	2453	47
38	0	0	544	10	2456	46
39	0	0	629	13	2457	46
40	0	0	750	8	2458	47
41	0	0	861	9	2460	47
42	0	0	938	10	2459	48
43	0	0	995	10	2457	46
44	0	0	1070	10	2455	46
45	0	0	1144	12	2453	48
46	0	0	1171	8	2454	47
47	0	0	1128	7	2455	48
48	0	0	1055	6	2456	48
49	0	0	939	6	2459	47
50	0	0	810	5	2461	48
51	0	0	689	8	2462	47
52	0	0	561	6	2461	50
53	0	0	441	6	2460	48
54	0	0	368	7	2457	47
55	0	0	330	8	2456	47
56	0	0	340	11	2456	47
57	0	0	394	10	2457	47
58	0	0	480	11	2459	48
59	0	0	584	9	2461	46
60	0	0	702	10	2462	48
61	0	0	808	9	2463	48
62	0	0	871	8	2462	47
63	0	0	901	10	2460	46
64	0	0	936	10	2457	47
65	0	0	995	10	2456	50
66	0	0	1022	11	2457	47
67	0	0	1007	7	2458	50
68	0	0	941	6	2460	47
69	0	0	801	6	2462	47
70	0	0	649	6	2464	47
71	0	0	511	4	2464	47
72	0	0	434	6	2464	46
73	0	0	388	7	2461	47
74	0	0	344	5	2458	47
75	0	0	306	8	2457	47
76	0	0	316	8	2457	49
77	0	0	362	9	2458	47
78	0	0	427	10	2460	46
79	0	0	508	11	2462	46
80	0	0	599	8	2463	47
81	0	0	696	10	2464	46
82	0	0	784	10	2463	45
83	0	0	837	7	2461	46
84	0	0	886	10	2459	46
85	0	0	931	10	2457	47
86	0	0	917	8	2458	47
87	0	0	864	8	2459	48
88	0	0	784	6	2460	47
89	0	0	666	5	2462	50
90	0	0	542	8	2464	47
91	0	0	422	7	2464	47
92	0	0	315	8	2464	46
93	0	0	235	8	2462	48
94	0	0	203	8	2459	47
95	0	0	207	6	2458	47
96	0	0	268	8	2458	48
97	0	0	357	9	2459	45
98	0	0	448	8	2461	47
99	0	0	531	10	2463	47
100	0	0	615	12	2464	44
101	0	0	704	9	2465	45
102	0	0	797	10	2464	46
103	0	0	896	10	2462	46
104	0	0	1010	9	2459	49
105	0	0	1083	13	2458	44
106	0	0	1079	6	2459	48
107	0	0	1002	6	2460	46
108	0	0	887	6	2461	49
109	0	0	749	8	2464	48
110	0	0	632	6	2465	47
111	0	0	536	4	2466	47
112	0	0	459	7	2465	47
113	0	0	394	6	2463	49
114	0	0	358	8	2461	47
115	0	0	341	5	2459	47
116	0	0	365	9	2460	48
117	0	0	401	9	2462	46
118	0	0	452	10	2463	47
119	0	0	532	10	2464	46
120	0	0	654	8	2466	47
121	0	0	778	8	2466	48
122	0	0	896	11	2466	44
123	0	0	995	10	2464	46
124	0	0	1074	10	2462	47
125	0	0	1133	10	2460	47
126	0	0	1135	4	2461	50
127	0	0	1104	3	2462	48
0	0	0	1025	6	2464	48
1	0	0	908	8	2465	47
2	0	0	779	7	2467	47
3	0	0	665	6	2468	48
4	0	0	567	6	2467	48
5	0	0	480	4	2466	47
6	0	0	415	0	2463	47
7	0	0	387	10	2462	48
8	0	0	418	8	2462	52
9	0	0	468	10	2463	48
10	0	0	532	9	2465	46
11	0	0	610	9	2465	48
12	0	0	711	11	2468	47
13	0	0	831	9	2469	47
14	0	0	935	10	2467	48
15	0	0	1002	8	2466	45
16	0	0	1089	10	2463	45
17	0	0	1166	15	2462	47
18	0	0	1142	7	2463	48
19	0	0	1042	6	2463	48
20	0	0	900	3	2465	47
21	0	0	736	6	2466	45
22	0	0	610	5	2468	46
23	0	0	492	7	2468	47
24	0	0	403	6	2467	48
25	0	0	368	6	2466	47
26	0	0	340	8	2463	48
27	0	0	336	7	2462	46
28	0	0	375	8	2462	47
29	0	0	443	9	2463	48
30	0	0	482	10	2464	46
31	0	0	525	8	2465	46
32	0	0	607	7	2467	46
33	0	0	703	8	2468	47
34	0	0	793	10	2468	45
35	0	0	872	7	2465	46
36	0	0	941	11	2462	47
37	0	0	997	11	2461	47
38	0	0	970	7	2461	47
39	0	0	915	6	2462	48
40	0	0	843	3	2464	47
41	0	0	730	6	2465	47
42	0	0	606	5	2467	48
43	0	0	507	4	2468	47
44	0	0	443	6	2467	48
45	0	0	394	6	2465	47
46	0	0	349	7	2462	48
47	0	0	310	6	2461	48
48	0	0	321	7	2462	48
49	0	0	366	9	2463	47
50	0	0	425	9	2464	46
51	0	0	501	10	2466	44
52	0	0	588	9	2468	46
53	0	0	687	10	2468	46
54	0	0	785	10	2468	47
55	0	0	867	7	2465	45
56	0	0	947	11	2463	46
57	0	0	1032	11	2461	46
58	0	0	1041	7	2462	47
59	0	0	983	7	2463	47
60	0	0	888	5	2465	47
61	0	0	753	6	2467	47
62	0	0	619	4	2468	47
63	0	0	512	7	2469	49
64	0	0	445	6	2468	48
65	0	0	411	6	2466	46
66	0	0	395	6	2464	45
67	0	0	403	4	2462	48
68	0	0	463	8	2463	47
69	0	0	543	9	2464	47
70	0	0	606	12	2466	47
71	0	0	664	10	2466	48
72	0	0	731	12	2469	47
73	0	0	808	10	2469	46
74	0	0	903	11	2469	46
75	0	0	980	7	2467	46
76	0	0	1051	10	2464	46
77	0	0	1130	12	2463	47
78	0	0	1159	9	2463	47
79	0	0	1129	7	2464	47
80	0	0	1057	10	2467	47
81	0	0	935	6	2467	48
82	0	0	793	5	2469	48
83	0	0	688	7	2470	47
84	0	0	633	6	2469	47
85	0	0	588	6	2467	48
86	0	0	541	8	2464	48
87	0	0	507	4	2463	47
88	0	0	475	7	2464	46
89	0	0	466	7	2464	43
90	0	0	527	10	2465	46
91	0	0	648	9	2468	44
92	0	0	761	8	2468	47
93	0	0	864	10	2469	45
94	0	0	976	10	2468	47
95	0	0	1082	10	2466	44
96	0	0	1188	10	2464	45
97	0	0	1272	8	2463	47
98	0	0	1280	7	2463	47
99	0	0	1247	6	2463	47
100	0	0	1159	7	2465	47
101	0	0	1012	6	2467	48
102	0	0	863	4	2468	48
103	0	0	729	4	2468	48
104	0	0	627	6	2468	47
105	0	0	569	6	2465	48
106	0	0	555	7	2463	48
107	0	0	562	4	2463	47
108	0	0	576	9	2462	47
109	0	0	601	7	2464	46
110	0	0	608	6	2465	46
111	0	0	603	7	2466	46
112	0	0	660	10	2467	47
113	0	0	794	9	2467	44
114	0	0	949	9	2467	43
115	0	0	1076	11	2466	43
116	0	0	1186	10	2462	47
117	0	0	1252	8	2461	46
118	0	0	1247	7	2461	50
119	0	0	1181	6	2462	47
120	0	0	1091	5	2464	47
121	0	0	943	5	2466	48
122	0	0	781	7	2467	48
123	0	0	648	6	2467	47
124	0	0	582	6	2468	47
125	0	0	551	8	2465	47
126	0	0	537	6	2463	48
127	0	0	531	7	2462	48
0	0	0	526	12	2462	48
1	0	0	533	6	2463	47
2	0	0	535	8	2464	46
3	0	0	636	8	2466	47
4	0	0	789	11	2467	47
5	0	0	916	8	2467	45
6	0	0	1012	10	2467	41
7	0	0	1073	9	2466	45
8	0	0	1127	10	2462	50
9	0	0	1164	11	2461	45
10	0	0	1162	4	2462	47
11	0	0	1125	7	2462	47
12	0	0	1050	4	2464	46
13	0	0	952	6	2466	52
14	0	0	851	4	2468	47
15	0	0	772	7	2468	47
16	0	0	724	6	2467	48
17	0	0	707	7	2466	47
18	0	0	718	7	2463	48
19	0	0	755	10	2463	48
20	0	0	824	8	2462	48
21	0	0	898	9	2463	47
22	0	0	973	10	2464	46
23	0	0	1057	9	2466	47
24	0	0	1142	10	2467	45
25	0	0	1231	8	2468	46
26	0	0	1323	9	2467	44
27	0	0	1392	8	2465	46
28	0	0	1472	10	2462	48
29	0	0	1551	12	2460	45
30	0	0	1560	4	2461	47
31	0	0	1518	7	2462	44
32	0	0	1457	6	2464	43
33	0	0	1366	6	2466	47
34	0	0	1288	6	2468	47
35	0	0	1232	8	2468	47
36	0	0	1170	7	2467	48
37	0	0	1112	5	2466	48
38	0	0	1072	6	2463	51
39	0	0	1062	7	2460	48
40	0	0	1089	8	2461	47
41	0	0	1146	9	2462	44
42	0	0	1219	8	2464	45
43	0	0	1300	7	2465	47
44	0	0	1373	12	2466	45
45	0	0	1456	9	2466	45
46	0	0	1550	8	2465	46
47	0	0	1616	9	2463	45
48	0	0	1650	9	2460	47
49	0	0	1697	8	2459	47
50	0	0	1723	8	2459	47
51	0	0	1683	8	2460	44
52	0	0	1607	6	2461	47
53	0	0	1510	8	2464	47
54	0	0	1412	10	2464	48
55	0	0	1324	7	2465	49
56	0	0	1260	3	2464	44
57	0	0	1248	10	2463	50
58	0	0	1297	8	2460	49
59	0	0	1361	10	2458	48
60	0	0	1410	9	2459	48
61	0	0	1445	9	2460	48
62	0	0	1487	10	2461	50
63	0	0	1555	8	2463	47
64	0	0	1646	12	2463	45
65	0	0	1742	8	2465	46
66	0	0	1825	11	2463	44
67	0	0	1883	10	2461	44
68	0	0	1926	8	2459	44
69	0	0	1958	12	2456	45
70	0	0	1977	8	2458	47
71	0	0	1979	13	2458	44
72	0	0	1934	7	2459	47
73	0	0	1826	6	2462	47
74	0	0	1700	7	2464	47
75	0	0	1599	5	2463	50
76	0	0	1550	7	2464	47
77	0	0	1549	10	2462	49
78	0	0	1546	7	2459	48
79	0	0	1555	14	2458	48
80	0	0	1586	8	2457	47
81	0	0	1657	9	2459	47
82	0	0	1746	8	2460	46
83	0	0	1844	9	2462	46
84	0	0	1932	9	2463	46
85	0	0	2004	10	2463	47
86	0	0	2049	9	2463	46
87	0	0	2090	10	2461	45
88	0	0	2133	10	2457	43
89	0	0	2174	10	2455	48
90	0	0	2179	5	2456	47
91	0	0	2137	7	2457	47
92	0	0	2057	8	2459	48
93	0	0	1967	8	2461	48
94	0	0	1909	7	2461	52
95	0	0	1879	4	2463	49
96	0	0	1849	12	2462	48
97	0	0	1857	10	2461	49
98	0	0	1870	12	2458	48
99	0	0	1899	11	2455	47
100	0	0	1944	10	2457	48
101	0	0	1947	8	2457	48
102	0	0	1935	7	2460	47
103	0	0	1934	9	2461	47
104	0	0	1969	9	2461	48
105	0	0	2049	11	2462	46
106	0	0	2130	10	2461	47
107	0	0	2176	10	2460	43
108	0	0	2195	9	2456	44
109	0	0	2199	11	2454	44
110	0	0	2163	7	2454	46
111	0	0	2081	7	2455	47
112	0	0	1952	6	2457	48
113	0	0	1812	7	2459	48
114	0	0	1725	7	2461	48
115	0	0	1709	11	2460	48
116	0	0	1713	8	2460	48
117	0	0	1680	7	2459	48
118	0	0	1663	6	2456	47
119	0	0	1673	9	2453	48
120	0	0	1703	11	2455	47
121	0	0	1756	9	2455	48
122	0	0	1815	9	2456	48
123	0	0	1883	9	2457	46
124	0	0	1956	11	2458	36
125	0	0	2018	11	2459	46
126	0	0	2059	10	2458	45
127	0	0	2070	10	2456	45
0	0	0	2075	10	2453	46
1	0	0	2094	11	2451	44
2	0	0	2072	9	2452	46
3	0	0	1997	6	2453	45
4	0	0	1899	8	2454	47
5	0	0	1783	7	2456	48
6	0	0	1681	4	2458	48
7	0	0	1603	10	2458	48
8	0	0	1558	7	2457	48
9	0	0	1525	6	2456	50
10	0	0	1510	11	2453	48
11	0	0	1512	7	2452	50
12	0	0	1525	11	2452	48
13	0	0	1541	9	2453	46
14	0	0	1563	9	2454	47
15	0	0	1587	12	2456	46
16	0	0	1622	8	2457	47
17	0	0	1670	11	2458	47
18	0	0	1701	10	2457	46
19	0	0	1729	7	2455	43
20	0	0	1764	10	2452	47
21	0	0	1767	7	2451	47
22	0	0	1734	10	2451	47
23	0	0	1686	7	2452	46
24	0	0	1622	7	2453	46
25	0	0	1551	8	2455	46
26	0	0	1476	6	2457	51
27	0	0	1398	7	2458	48
28	0	0	1333	6	2457	49
29	0	0	1286	4	2456	50
30	0	0	1249	7	2452	49
31	0	0	1229	6	2451	47
32	0	0	1237	9	2452	48
33	0	0	1282	9	2453	47
34	0	0	1336	9	2455	47
35	0	0	1407	10	2456	48
36	0	0	1477	9	2457	46
37	0	0	1547	8	2459	46
38	0	0	1607	9	2457	44
39	0	0	1626	9	2456	45
40	0	0	1664	10	2453	44
41	0	0	1705	10	2452	44
42	0	0	1688	9	2452	43
43	0	0	1640	7	2452	46
44	0	0	1549	7	2454	48
45	0	0	1446	7	2455	47
46	0	0	1366	4	2458	50
47	0	0	1295	6	2459	48
48	0	0	1227	6	2458	48
49	0	0	1174	7	2457	49
50	0	0	1163	8	2454	47
51	0	0	1199	10	2453	47
52	0	0	1249	8	2453	48
53	0	0	1284	9	2454	46
54	0	0	1307	9	2455	46
55	0	0	1343	10	2457	47
56	0	0	1379	8	2458	47
57	0	0	1423	8	2459	46
58	0	0	1507	8	2457	45
59	0	0	1574	10	2456	43
60	0	0	1605	10	2453	43
61	0	0	1631	9	2452	45
62	0	0	1660	11	2452	46
63	0	0	1640	8	2453	46
64	0	0	1606	4	2455	47
65	0	0	1564	6	2456	47
66	0	0	1510	6	2458	49
67	0	0	1478	8	2459	50
68	0	0	1434	6	2458	48
69	0	0	1367	4	2457	48
70	0	0	1312	6	2454	47
71	0	0	1306	7	2453	49
72	0	0	1342	8	2453	49
73	0	0	1409	9	2454	48
74	0	0	1494	9	2456	51
75	0	0	1600	10	2457	47
76	0	0	1705	10	2459	43
77	0	0	1806	9	2459	46
78	0	0	1892	7	2458	45
79	0	0	1934	10	2456	43
80	0	0	1959	10	2453	46
81	0	0	1978	11	2452	43
82	0	0	1968	8	2452	46
83	0	0	1942	7	2453	43
84	0	0	1902	7	2455	47
85	0	0	1835	6	2457	47
86	0	0	1759	6	2460	48
87	0	0	1667	11	2460	49
88	0	0	1565	6	2460	49
89	0	0	1478	6	2458	49
90	0	0	1433	8	2456	48
91	0	0	1404	5	2454	47
92	0	0	1375	8	2454	49
93	0	0	1382	8	2456	47
94	0	0	1411	7	2457	47
95	0	0	1438	8	2459	47
96	0	0	1474	9	2461	46
97	0	0	1530	10	2462	44
98	0	0	1568	9	2460	46
99	0	0	1556	8	2458	44
100	0	0	1532	8	2456	46
101	0	0	1508	7	2454	43
102	0	0	1430	8	2455	45
103	0	0	1316	8	2457	46
104	0	0	1199	3	2458	47
105	0	0	1091	4	2460	49
106	0	0	987	6	2462	50
107	0	0	926	8	2463	50
108	0	0	897	6	2463	49
109	0	0	881	4	2462	50
110	0	0	874	5	2459	50
111	0	0	874	7	2458	47
112	0	0	873	7	2458	48
113	0	0	931	9	2459	47
114	0	0	1021	8	2462	46
115	0	0	1117	9	2463	47
116	0	0	1196	9	2464	46
117	0	0	1245	10	2465	45
118	0	0	1282	9	2465	45
119	0	0	1317	12	2463	43
120	0	0	1346	8	2460	45
121	0	0	1369	10	2459	47
122	0	0	1376	11	2459	47
123	0	0	1366	6	2460	47
124	0	0	1327	6	2462	50
125	0	0	1262	7	2464	46
126	0	0	1200	8	2466	45
127	0	0	1155	8	2465	47
0	0	0	1129	10	2465	48
1	0	0	1118	7	2464	49
2	0	0	1092	5	2462	51
3	0	0	1060	7	2460	45
4	0	0	1062	7	2460	47
5	0	0	1106	8	2461	47
6	0	0	1149	9	2463	50
7	0	0	1200	8	2465	47
8	0	0	1242	10	2465	44
9	0	0	1264	10	2467	45
10	0	0	1277	9	2466	45
11	0	0	1297	10	2464	45
12	0	0	1321	8	2462	47
13	0	0	1320	7	2460	43
14	0	0	1269	7	2461	45
15	0	0	1197	12	2461	48
16	0	0	1132	6	2463	47
17	0	0	1082	6	2465	46
18	0	0	1033	5	2467	48
19	0	0	1000	7	2466	48
20	0	0	1010	9	2467	47
21	0	0	1058	12	2464	47
22	0	0	1102	9	2462	48
23	0	0	1114	7	2461	48
24	0	0	1107	8	2460	49
25	0	0	1099	7	2463	48
26	0	0	1119	12	2463	47
27	0	0	1152	7	2465	46
28	0	0	1178	9	2467	47
29	0	0	1194	7	2467	45
30	0	0	1208	8	2466	46
31	0	0	1227	12	2465	44
32	0	0	1231	7	2462	45
33	0	0	1240	8	2461	47
34	0	0	1248	7	2461	47
35	0	0	1229	7	2462	48
36	0	0	1200	6	2463	48
37	0	0	1141	6	2466	47
38	0	0	1074	5	2467	48
39	0	0	1039	6	2468	48
40	0	0	1029	7	2467	50
41	0	0	1039	5	2467	47
42	0	0	1042	5	2464	46
43	0	0	1052	6	2462	48
44	0	0	1062	7	2462	47
45	0	0	1089	9	2463	48
46	0	0	1127	9	2465	47
47	0	0	1178	9	2467	48
48	0	0	1210	8	2469	46
49	0	0	1249	7	2468	45
50	0	0	1305	10	2468	46
51	0	0	1332	8	2467	45
52	0	0	1323	7	2463	46
53	0	0	1317	9	2463	47
54	0	0	1305	7	2463	46
55	0	0	1284	7	2464	46
56	0	0	1261	7	2467	47
57	0	0	1233	6	2469	47
58	0	0	1201	6	2470	49
59	0	0	1172	3	2470	48
60	0	0	1137	6	2470	47
61	0	0	1134	7	2469	48
62	0	0	1153	5	2466	47
63	0	0	1161	7	2464	48
64	0	0	1180	7	2465	46
65	0	0	1214	9	2467	47
66	0	0	1237	11	2468	46
67	0	0	1267	7	2470	47
68	0	0	1299	9	2472	47
69	0	0	1341	8	2472	46
70	0	0	1388	9	2472	45
71	0	0	1425	9	2471	46
72	0	0	1440	8	2468	45
73	0	0	1428	6	2466	47
74	0	0	1382	3	2466	47
75	0	0	1346	6	2468	47
76	0	0	1316	7	2470	47
77	0	0	1292	5	2472	48
78	0	0	1268	6	2473	48
79	0	0	1236	4	2474	49
80	0	0	1221	7	2473	48
81	0	0	1218	7	2472	49
82	0	0	1213	7	2470	49
83	0	0	1221	7	2469	47
84	0	0	1251	8	2468	48
85	0	0	1282	10	2470	47
86	0	0	1314	10	2472	47
87	0	0	1370	9	2474	43
88	0	0	1442	8	2475	47
89	0	0	1471	7	2475	46
90	0	0	1477	8	2474	45
91	0	0	1467	7	2474	45
92	0	0	1465	7	2470	45
93	0	0	1480	9	2469	47
94	0	0	1470	4	2470	47
95	0	0	1421	6	2471	46
96	0	0	1361	7	2472	47
97	0	0	1341	5	2475	47
98	0	0	1340	7	2477	49
99	0	0	1341	6	2477	49
100	0	0	1317	6	2477	49
101	0	0	1295	10	2475	49
102	0	0	1281	7	2472	49
103	0	0	1275	6	2471	48
104	0	0	1302	9	2472	47
105	0	0	1361	9	2472	47
106	0	0	1409	9	2475	48
107	0	0	1446	9	2477	45
108	0	0	1479	9	2478	48
109	0	0	1523	10	2480	47
110	0	0	1576	9	2479	47
111	0	0	1612	11	2478	46
112	0	0	1623	10	2475	43
113	0	0	1638	9	2473	47
114	0	0	1640	8	2474	47
115	0	0	1636	8	2474	49
116	0	0	1622	5	2477	48
117	0	0	1582	4	2479	47
118	0	0	1523	6	2481	48
119	0	0	1462	4	2482	49
120	0	0	1440	7	2482	47
121	0	0	1425	7	2480	47
122	0	0	1417	5	2477	47
123	0	0	1411	6	2476	49
124	0	0	1426	8	2477	48
125	0	0	1471	9	2477	47
126	0	0	1539	14	2479	48
127	0	0	1591	8	2482	48
0	0	0	1614	8	2483	48
1	0	0	1632	10	2485	46
2	0	0	1656	10	2484	47
3	0	0	1683	9	2483	46
4	0	0	1691	6	2480	47
5	0	0	1689	8	2479	48
6	0	0	1656	6	2479	48
7	0	0	1623	7	2480	48
8	0	0	1591	7	2481	47
9	0	0	1556	8	2484	48
10	0	0	1516	6	2486	49
11	0	0	1486	4	2487	48
12	0	0	1466	3	2487	50
13	0	0	1458	7	2485	49
14	0	0	1473	6	2483	48
15	0	0	1483	8	2481	48
16	0	0	1505	10	2482	47
17	0	0	1539	10	2482	47
18	0	0	1580	10	2485	48
19	0	0	1601	8	2488	46
20	0	0	1595	8	2489	48
21	0	0	1596	7	2490	47
22	0	0	1610	10	2489	46
23	0	0	1633	8	2489	46
24	0	0	1645	10	2484	46
25	0	0	1638	7	2482	48
26	0	0	1607	7	2483	47
27	0	0	1593	8	2484	48
28	0	0	1612	11	2486	47
29	0	0	1617	8	2488	47
30	0	0	1588	7	2491	49
31	0	0	1544	6	2492	49
32	0	0	1510	6	2491	49
33	0	0	1495	9	2489	51
34	0	0	1515	9	2487	52
35	0	0	1547	9	2485	48
36	0	0	1590	10	2485	48
37	0	0	1633	9	2487	47
38	0	0	1665	10	2488	48
39	0	0	1693	9	2491	45
40	0	0	1688	7	2493	47
41	0	0	1668	7	2493	47
42	0	0	1654	7	2492	48
43	0	0	1672	8	2491	47
44	0	0	1677	8	2488	52
45	0	0	1677	8	2486	45
46	0	0	1679	8	2486	48
47	0	0	1665	7	2487	48
48	0	0	1637	7	2489	47
49	0	0	1614	6	2492	52
50	0	0	1596	7	2494	50
51	0	0	1587	7	2495	49
52	0	0	1582	7	2496	47
53	0	0	1579	9	2493	50
54	0	0	1611	12	2489	49
55	0	0	1645	10	2488	49
56	0	0	1688	9	2488	47
57	0	0	1738	10	2489	48
58	0	0	1765	8	2492	47
59	0	0	1772	9	2494	47
60	0	0	1784	11	2495	47
61	0	0	1799	11	2496	47
62	0	0	1814	10	2496	47
63	0	0	1813	10	2494	47
64	0	0	1822	10	2491	47
65	0	0	1841	10	2490	48
66	0	0	1845	8	2490	47
67	0	0	1832	8	2491	49
68	0	0	1799	9	2493	47
69	0	0	1747	7	2496	52
70	0	0	1705	7	2498	47
71	0	0	1687	7	2498	49
72	0	0	1681	8	2498	48
73	0	0	1693	11	2496	47
74	0	0	1692	9	2493	51
75	0	0	1703	10	2491	50
76	0	0	1731	10	2491	50
77	0	0	1760	10	2492	48
78	0	0	1789	12	2494	47
79	0	0	1811	10	2498	47
80	0	0	1842	10	2499	47
81	0	0	1877	10	2500	47
82	0	0	1907	10	2500	47
83	0	0	1923	10	2498	46
84	0	0	1914	7	2495	47
85	0	0	1913	9	2492	46
86	0	0	1907	8	2493	48
87	0	0	1893	7	2494	48
88	0	0	1872	8	2497	48
89	0	0	1864	9	2499	48
90	0	0	1882	11	2502	48
91	0	0	1894	8	2502	49
92	0	0	1885	7	2503	48
93	0	0	1888	11	2501	48
94	0	0	1911	10	2497	46
95	0	0	1927	9	2496	47
96	0	0	1915	7	2495	49
97	0	0	1918	9	2497	47
98	0	0	1936	10	2499	47
99	0	0	1977	13	2501	47
100	0	0	2032	10	2504	46
101	0	0	2067	10	2505	47
102	0	0	2105	10	2505	47
103	0	0	2125	9	2504	47
104	0	0	2137	7	2499	46
105	0	0	2150	11	2498	45
106	0	0	2132	7	2498	47
107	0	0	2098	7	2500	48
108	0	0	2056	6	2502	48
109	0	0	2012	7	2506	49
110	0	0	1986	6	2508	47
111	0	0	1965	7	2509	49
112	0	0	1939	7	2509	48
113	0	0	1921	7	2507	48
114	0	0	1909	7	2503	47
115	0	0	1925	8	2501	45
116	0	0	1959	11	2502	48
117	0	0	1981	9	2504	46
118	0	0	1992	10	2506	47
119	0	0	2009	10	2509	48
120	0	0	2042	10	2513	47
121	0	0	2071	10	2512	47
122	0	0	2109	10	2513	47
123	0	0	2138	10	2510	47
124	0	0	2151	10	2506	49
125	0	0	2157	9	2505	47
126	0	0	2144	8	2506	49
127	0	0	2131	7	2507	49
0	0	0	2115	8	2509	51
1	0	0	2102	9	2512	48
2	0	0	2091	8	2515	48
3	0	0	2060	7	2516	49
4	0	0	2033	7	2515	49
5	0	0	2024	9	2513	49
6	0	0	2024	11	2509	48
7	0	0	2008	6	2508	48
8	0	0	1987	7	2507	48
9	0	0	1988	8	2509	47
10	0	0	1993	9	2511	47
11	0	0	2010	9	2515	47
12	0	0	2024	11	2517	48
13	0	0	2050	12	2517	46
14	0	0	2078	10	2519	48
15	0	0	2079	10	2516	48
16	0	0	2052	7	2512	48
17	0	0	2031	7	2510	47
18	0	0	2025	8	2511	49
19	0	0	2029	12	2513	48
20	0	0	2030	10	2514	48
21	0	0	2028	7	2518	48
22	0	0	2023	9	2521	48
23	0	0	1993	7	2521	49
24	0	0	1963	7	2521	49
25	0	0	1955	9	2520	49
26	0	0	1958	8	2515	47
27	0	0	1947	8	2513	47
28	0	0	1931	8	2514	47
29	0	0	1957	10	2516	47
30	0	0	1974	8	2517	47
31	0	0	2009	10	2521	49
32	0	0	2045	10	2523	45
33	0	0	2075	10	2524	49
34	0	0	2103	10	2524	48
35	0	0	2130	11	2521	48
36	0	0	2144	9	2518	48
37	0	0	2155	12	2516	47
38	0	0	2146	8	2517	47
39	0	0	2113	9	2517	48
40	0	0	2057	6	2521	49
41	0	0	1991	4	2524	48
42	0	0	1937	7	2526	47
43	0	0	1907	8	2528	48
44	0	0	1907	10	2527	49
45	0	0	1922	8	2525	49
46	0	0	1921	7	2521	48
47	0	0	1915	7	2519	45
48	0	0	1919	10	2520	49
49	0	0	1930	9	2521	48
50	0	0	1947	9	2524	48
51	0	0	1972	10	2527	49
52	0	0	2001	10	2529	49
53	0	0	2025	10	2530	48
54	0	0	2048	10	2529	48
55	0	0	2063	10	2527	49
56	0	0	2091	11	2524	49
57	0	0	2111	9	2522	48
58	0	0	2106	8	2523	49
59	0	0	2092	8	2523	50
60	0	0	2063	9	2525	49
61	0	0	2040	8	2529	48
62	0	0	2013	7	2531	47
63	0	0	1999	7	2532	48
64	0	0	1980	7	2531	47
65	0	0	1981	10	2529	47
66	0	0	1997	9	2525	49
