# bioPlux Text File Format
# Version: 1
# StartDateTime: 2011-07-18 11:31:02
# SamplingFrequency: 1000
# SampledChannels: 1 2 3 4 5
# SamplingResolution: 12
# AcquiringDevice: 00:07:80:42:0F:95
# EndOfHeader
0	0	0	2234	1757	181	404	2316
1	0	0	2738	1757	181	405	2321
2	0	0	3160	1757	181	404	2326
3	0	0	3468	1756	182	404	2329
4	0	0	3626	1755	183	404	2331
5	0	0	3669	1755	183	404	2330
6	0	0	3568	1749	185	405	2325
7	0	0	3206	1747	186	405	2316
8	0	0	2719	1746	187	404	2312
9	0	0	2473	1745	187	404	2312
10	0	0	2090	1744	186	400	2314
11	0	0	1605	1744	186	400	2320
12	0	0	1249	1745	186	400	2325
13	0	0	855	1747	186	404	2329
14	0	0	566	1748	184	404	2332
15	0	0	502	1754	183	404	2331
16	0	0	657	1755	183	404	2326
17	0	0	995	1756	182	404	2318
18	0	0	1465	1758	181	404	2314
19	0	0	1830	1757	182	404	2314
20	0	0	2264	1757	180	404	2316
21	0	0	2767	1757	181	404	2321
22	0	0	3183	1757	182	400	2325
23	0	0	3483	1757	181	400	2329
24	0	0	3659	1755	184	404	2331
25	0	0	3711	1755	184	404	2330
26	0	0	3615	1750	184	404	2325
27	0	0	3277	1746	185	404	2316
28	0	0	2778	1746	187	400	2312
29	0	0	2533	1745	187	400	2312
30	0	0	2166	1744	187	405	2315
31	0	0	1683	1745	187	404	2320
32	0	0	1335	1745	185	404	2325
33	0	0	957	1746	185	404	2329
34	0	0	668	1748	183	404	2332
35	0	0	605	1755	183	405	2331
36	0	0	763	1755	183	405	2326
37	0	0	1089	1755	182	404	2318
38	0	0	1557	1757	182	403	2314
39	0	0	1928	1757	182	400	2314
40	0	0	2353	1757	182	400	2316
41	0	0	2855	1757	180	400	2321
42	0	0	3271	1758	182	405	2326
43	0	0	3568	1757	182	405	2329
44	0	0	3726	1755	182	404	2331
45	0	0	3775	1755	183	404	2330
46	0	0	3673	1749	184	404	2325
47	0	0	3327	1746	185	405	2317
48	0	0	2836	1747	186	403	2312
49	0	0	2588	1745	186	405	2312
50	0	0	2218	1745	187	405	2315
51	0	0	1737	1745	186	405	2320
52	0	0	1388	1745	186	404	2325
53	0	0	1003	1746	184	403	2330
54	0	0	714	1748	184	405	2332
55	0	0	641	1754	184	405	2332
56	0	0	791	1755	183	404	2327
57	0	0	1113	1756	181	404	2319
58	0	0	1577	1757	181	404	2315
59	0	0	1941	1757	180	404	2314
60	0	0	2366	1758	180	405	2317
61	0	0	2861	1758	181	405	2321
62	0	0	3268	1757	181	404	2326
63	0	0	3568	1757	183	404	2329
64	0	0	3730	1755	182	404	2331
65	0	0	3779	1755	184	404	2330
66	0	0	3676	1748	184	404	2326
67	0	0	3331	1746	186	406	2317
68	0	0	2827	1746	186	404	2312
69	0	0	2578	1746	187	405	2313
70	0	0	2209	1744	186	404	2315
71	0	0	1722	1745	187	405	2320
72	0	0	1380	1746	186	405	2325
73	0	0	999	1747	186	405	2329
74	0	0	702	1747	185	405	2332
75	0	0	625	1753	182	404	2331
76	0	0	766	1755	182	404	2327
77	0	0	1078	1756	182	404	2319
78	0	0	1546	1757	182	404	2314
79	0	0	1902	1757	180	404	2314
80	0	0	2314	1757	180	404	2316
81	0	0	2815	1757	180	404	2321
82	0	0	3219	1758	181	405	2326
83	0	0	3515	1756	181	404	2329
84	0	0	3678	1756	182	404	2331
85	0	0	3723	1754	183	404	2330
86	0	0	3616	1749	183	404	2325
87	0	0	3278	1745	185	404	2317
88	0	0	2776	1746	187	404	2312
89	0	0	2517	1745	185	405	2312
90	0	0	2146	1743	187	405	2315
91	0	0	1660	1745	186	405	2320
92	0	0	1303	1745	186	405	2325
93	0	0	915	1746	186	405	2330
94	0	0	617	1747	184	404	2332
95	0	0	534	1753	183	404	2332
96	0	0	680	1755	181	404	2327
97	0	0	993	1756	181	404	2319
98	0	0	1452	1756	181	404	2314
99	0	0	1820	1756	180	404	2314
100	0	0	2239	1757	180	404	2316
101	0	0	2737	1757	181	404	2321
102	0	0	3143	1757	182	405	2326
103	0	0	3448	1756	182	404	2329
104	0	0	3611	1755	184	404	2331
105	0	0	3659	1754	183	404	2330
106	0	0	3563	1748	184	404	2325
107	0	0	3223	1745	186	405	2317
108	0	0	2726	1746	186	405	2312
109	0	0	2472	1744	188	405	2312
110	0	0	2103	1744	187	404	2315
111	0	0	1613	1744	186	404	2319
112	0	0	1263	1745	185	404	2325
113	0	0	879	1746	184	404	2329
114	0	0	568	1747	184	405	2332
115	0	0	478	1751	183	404	2331
116	0	0	615	1754	183	404	2327
117	0	0	922	1755	182	404	2319
118	0	0	1389	1756	182	405	2314
119	0	0	1751	1756	182	405	2314
120	0	0	2165	1756	179	405	2316
121	0	0	2667	1756	181	404	2320
122	0	0	3073	1756	182	404	2325
123	0	0	3374	1756	182	404	2329
124	0	0	3532	1755	184	404	2331
125	0	0	3580	1755	184	405	2330
126	0	0	3480	1748	184	404	2325
127	0	0	3154	1746	186	405	2317
0	0	0	2652	1746	186	404	2312
1	0	0	2400	1744	187	404	2312
2	0	0	2033	1744	186	404	2315
3	0	0	1549	1744	186	404	2319
4	0	0	1195	1744	186	405	2325
5	0	0	814	1745	185	405	2329
6	0	0	513	1746	185	404	2332
7	0	0	420	1751	184	404	2331
8	0	0	564	1753	183	405	2327
9	0	0	873	1754	182	405	2319
10	0	0	1344	1756	182	405	2315
11	0	0	1715	1756	181	404	2314
12	0	0	2124	1756	182	404	2316
13	0	0	2619	1755	181	404	2321
14	0	0	3026	1756	182	404	2326
15	0	0	3332	1755	182	405	2329
16	0	0	3492	1755	183	404	2331
17	0	0	3539	1753	184	404	2330
18	0	0	3442	1748	185	404	2325
19	0	0	3124	1745	186	404	2316
20	0	0	2624	1745	186	404	2312
21	0	0	2368	1743	187	404	2312
22	0	0	2001	1743	187	404	2314
23	0	0	1518	1743	187	404	2319
24	0	0	1168	1744	185	404	2325
25	0	0	785	1745	185	405	2329
26	0	0	488	1746	184	405	2332
27	0	0	382	1751	182	405	2331
28	0	0	521	1754	182	405	2327
29	0	0	830	1754	181	404	2319
30	0	0	1291	1755	180	404	2314
31	0	0	1659	1756	181	404	2314
32	0	0	2071	1756	181	404	2316
33	0	0	2570	1755	181	405	2320
34	0	0	2973	1755	181	404	2325
35	0	0	3270	1755	182	404	2329
36	0	0	3438	1753	184	404	2331
37	0	0	3512	1752	185	404	2329
38	0	0	3442	1747	185	405	2325
39	0	0	3130	1744	186	405	2316
40	0	0	2594	1744	187	405	2312
41	0	0	2339	1742	187	404	2312
42	0	0	1929	1742	188	404	2314
43	0	0	1368	1742	188	405	2319
44	0	0	941	1742	187	405	2324
45	0	0	580	1744	185	405	2329
46	0	0	374	1746	185	405	2332
47	0	0	260	1747	183	404	2330
48	0	0	200	1748	182	404	2327
49	0	0	536	1754	182	404	2319
50	0	0	1089	1756	180	404	2314
51	0	0	1517	1755	181	404	2314
52	0	0	2003	1756	180	405	2316
53	0	0	2592	1755	182	404	2320
54	0	0	3085	1754	181	404	2324
55	0	0	3462	1754	182	405	2329
56	0	0	3677	1753	182	405	2330
57	0	0	3769	1752	184	405	2329
58	0	0	3680	1745	184	404	2325
59	0	0	3328	1742	187	404	2316
60	0	0	2764	1742	187	404	2311
61	0	0	2476	1742	187	404	2311
62	0	0	2035	1741	187	405	2314
63	0	0	1446	1742	186	405	2319
64	0	0	993	1742	186	406	2324
65	0	0	608	1743	184	405	2328
66	0	0	393	1746	184	404	2331
67	0	0	272	1746	183	404	2330
68	0	0	209	1747	183	403	2327
69	0	0	472	1754	181	404	2319
70	0	0	1019	1754	180	404	2314
71	0	0	1441	1754	181	404	2313
72	0	0	1925	1754	181	404	2315
73	0	0	2522	1755	181	405	2320
74	0	0	3020	1755	182	405	2324
75	0	0	3418	1754	182	405	2328
76	0	0	3651	1752	183	404	2330
77	0	0	3745	1751	184	404	2329
78	0	0	3672	1746	185	404	2325
79	0	0	3334	1743	186	404	2316
80	0	0	2768	1743	187	405	2311
81	0	0	2484	1741	188	405	2311
82	0	0	2042	1740	187	405	2313
83	0	0	1434	1740	186	405	2319
84	0	0	970	1742	187	404	2324
85	0	0	601	1743	185	405	2328
86	0	0	390	1744	185	405	2331
87	0	0	273	1745	184	405	2330
88	0	0	212	1747	182	404	2326
89	0	0	391	1752	181	404	2318
90	0	0	942	1754	181	404	2313
91	0	0	1383	1754	181	405	2313
92	0	0	1877	1754	182	405	2316
93	0	0	2476	1754	181	405	2319
94	0	0	2983	1754	182	404	2324
95	0	0	3377	1754	182	404	2328
96	0	0	3609	1752	184	404	2330
97	0	0	3720	1751	184	404	2329
98	0	0	3654	1745	186	404	2324
99	0	0	3324	1741	187	405	2316
100	0	0	2760	1741	187	405	2311
101	0	0	2473	1740	187	404	2311
102	0	0	2035	1740	187	405	2313
103	0	0	1427	1740	186	405	2318
104	0	0	959	1741	186	405	2323
105	0	0	594	1742	185	405	2328
106	0	0	390	1744	184	404	2331
107	0	0	277	1745	184	404	2330
108	0	0	217	1747	184	404	2327
109	0	0	302	1752	182	406	2318
110	0	0	861	1753	181	405	2313
111	0	0	1294	1753	180	404	2313
112	0	0	1792	1753	181	404	2315
113	0	0	2392	1753	181	404	2319
114	0	0	2897	1753	182	404	2324
115	0	0	3305	1753	183	404	2327
116	0	0	3550	1751	183	404	2329
117	0	0	3663	1751	185	404	2329
118	0	0	3608	1745	186	405	2324
119	0	0	3293	1741	186	405	2315
120	0	0	2733	1742	187	405	2310
121	0	0	2458	1740	186	404	2310
122	0	0	2025	1740	188	405	2312
123	0	0	1415	1739	188	405	2318
124	0	0	949	1740	186	405	2323
125	0	0	596	1742	185	405	2328
126	0	0	394	1743	184	404	2330
127	0	0	283	1744	184	405	2330
0	0	0	225	1746	182	404	2326
1	0	0	350	1752	182	404	2318
2	0	0	908	1753	181	405	2313
3	0	0	1347	1754	181	404	2313
4	0	0	1852	1753	181	404	2314
5	0	0	2473	1754	180	404	2319
6	0	0	3012	1753	181	404	2323
7	0	0	3442	1752	182	404	2328
8	0	0	3713	1751	184	404	2329
9	0	0	3857	1750	184	404	2328
10	0	0	3823	1745	186	405	2324
11	0	0	3515	1741	186	405	2315
12	0	0	2950	1741	186	406	2310
13	0	0	2667	1741	187	404	2310
14	0	0	2238	1739	186	404	2313
15	0	0	1628	1739	187	404	2317
16	0	0	1147	1740	186	404	2322
17	0	0	708	1742	186	405	2327
18	0	0	459	1742	184	404	2330
19	0	0	321	1745	184	405	2330
20	0	0	247	1747	183	404	2326
21	0	0	396	1751	181	404	2317
22	0	0	938	1753	180	406	2313
23	0	0	1366	1752	182	405	2312
24	0	0	1874	1753	180	404	2314
25	0	0	2495	1753	181	404	2319
26	0	0	3034	1753	182	404	2323
27	0	0	3471	1752	182	404	2328
28	0	0	3752	1751	182	405	2329
29	0	0	3900	1750	184	404	2328
30	0	0	3870	1744	185	405	2324
31	0	0	3572	1741	186	404	2315
32	0	0	3014	1741	187	405	2310
33	0	0	2745	1740	186	404	2310
34	0	0	2318	1739	188	404	2312
35	0	0	1697	1739	187	405	2318
36	0	0	1209	1741	187	405	2323
37	0	0	750	1741	186	406	2327
38	0	0	483	1743	184	405	2330
39	0	0	332	1744	183	405	2329
40	0	0	252	1746	181	405	2326
41	0	0	427	1752	183	406	2318
42	0	0	976	1753	181	405	2312
43	0	0	1406	1753	180	404	2312
44	0	0	1903	1753	181	404	2314
45	0	0	2525	1753	180	404	2318
46	0	0	3074	1753	181	404	2323
47	0	0	3512	1753	181	403	2327
48	0	0	3781	1751	183	404	2329
49	0	0	3949	1751	184	404	2328
50	0	0	3914	1745	184	404	2324
51	0	0	3623	1741	186	404	2315
52	0	0	3056	1741	187	404	2310
53	0	0	2776	1740	188	405	2310
54	0	0	2343	1738	188	404	2312
55	0	0	1726	1739	186	404	2317
56	0	0	1232	1740	186	405	2322
57	0	0	757	1742	186	405	2327
58	0	0	486	1743	184	405	2330
59	0	0	334	1743	183	405	2329
60	0	0	249	1746	182	404	2325
61	0	0	406	1751	182	404	2317
62	0	0	955	1752	181	404	2312
63	0	0	1393	1753	179	404	2312
64	0	0	1904	1753	181	404	2314
65	0	0	2528	1752	181	404	2318
66	0	0	3066	1752	181	404	2323
67	0	0	3512	1752	182	403	2326
68	0	0	3785	1751	183	404	2329
69	0	0	3947	1750	185	404	2327
70	0	0	3937	1744	185	405	2324
71	0	0	3644	1741	185	405	2315
72	0	0	3069	1741	186	405	2309
73	0	0	2794	1740	186	405	2309
74	0	0	2364	1738	188	405	2311
75	0	0	1738	1740	187	405	2317
76	0	0	1229	1740	186	405	2322
77	0	0	759	1741	185	405	2326
78	0	0	482	1742	185	404	2329
79	0	0	330	1745	182	405	2329
80	0	0	247	1745	182	404	2325
81	0	0	357	1751	182	403	2317
82	0	0	919	1752	180	405	2312
83	0	0	1361	1752	179	404	2312
84	0	0	1864	1752	182	404	2313
85	0	0	2493	1752	181	404	2317
86	0	0	3038	1752	182	405	2322
87	0	0	3487	1752	181	405	2326
88	0	0	3765	1752	183	405	2328
89	0	0	3935	1749	184	404	2327
90	0	0	3927	1744	185	404	2324
91	0	0	3640	1741	185	405	2314
92	0	0	3063	1741	187	405	2309
93	0	0	2787	1739	187	405	2309
94	0	0	2360	1738	187	405	2311
95	0	0	1737	1738	188	405	2316
96	0	0	1222	1739	185	404	2322
97	0	0	753	1742	185	405	2327
98	0	0	481	1742	184	404	2329
99	0	0	329	1743	183	404	2329
100	0	0	244	1745	184	405	2325
101	0	0	352	1751	183	404	2317
102	0	0	891	1752	180	404	2312
103	0	0	1324	1753	181	405	2311
104	0	0	1832	1752	181	405	2313
105	0	0	2461	1752	181	405	2317
106	0	0	3016	1752	181	405	2322
107	0	0	3481	1752	182	404	2326
108	0	0	3763	1750	182	404	2328
109	0	0	3933	1749	183	404	2327
110	0	0	3939	1744	185	404	2323
111	0	0	3660	1741	187	405	2314
112	0	0	3093	1740	187	405	2309
113	0	0	2821	1739	188	405	2309
114	0	0	2394	1739	187	404	2312
115	0	0	1771	1739	187	404	2316
116	0	0	1257	1739	187	404	2321
117	0	0	773	1740	185	405	2326
118	0	0	488	1743	184	405	2329
119	0	0	330	1743	184	404	2328
120	0	0	246	1745	181	405	2325
121	0	0	348	1750	182	404	2317
122	0	0	901	1752	181	405	2311
123	0	0	1336	1751	180	405	2311
124	0	0	1841	1752	180	405	2313
125	0	0	2477	1752	181	405	2318
126	0	0	3028	1751	181	404	2322
127	0	0	3489	1752	181	405	2326
0	0	0	3770	1750	183	404	2328
1	0	0	3937	1749	183	404	2327
2	0	0	3982	1744	184	404	2323
3	0	0	3705	1740	186	405	2314
4	0	0	3125	1740	187	405	2309
5	0	0	2852	1738	187	404	2308
6	0	0	2430	1738	187	405	2311
7	0	0	1805	1737	187	405	2315
8	0	0	1291	1738	186	405	2321
9	0	0	795	1741	184	405	2326
10	0	0	499	1741	184	404	2328
11	0	0	335	1744	183	404	2329
12	0	0	245	1745	183	404	2325
13	0	0	337	1749	183	404	2317
14	0	0	885	1751	181	405	2312
15	0	0	1316	1750	180	404	2311
16	0	0	1819	1751	181	404	2313
17	0	0	2458	1751	182	404	2317
18	0	0	3015	1751	181	404	2321
19	0	0	3482	1751	182	405	2325
20	0	0	3767	1750	183	404	2328
21	0	0	3931	1748	184	404	2327
22	0	0	3988	1743	184	405	2323
23	0	0	3709	1740	186	404	2314
24	0	0	3144	1740	186	405	2309
25	0	0	2870	1739	188	405	2308
26	0	0	2449	1738	187	405	2311
27	0	0	1819	1738	187	405	2315
28	0	0	1292	1737	186	404	2321
29	0	0	794	1739	185	405	2325
30	0	0	499	1741	185	404	2328
31	0	0	333	1742	184	404	2328
32	0	0	242	1744	183	405	2324
33	0	0	306	1750	181	405	2316
34	0	0	846	1751	181	405	2311
35	0	0	1290	1752	180	404	2311
36	0	0	1798	1752	180	404	2312
37	0	0	2434	1752	181	404	2317
38	0	0	2995	1752	180	405	2322
39	0	0	3471	1750	183	404	2325
40	0	0	3757	1749	183	404	2327
41	0	0	3924	1748	183	404	2326
42	0	0	4017	1746	184	404	2323
43	0	0	3736	1739	186	405	2313
44	0	0	3165	1739	187	405	2308
45	0	0	2892	1738	186	405	2308
46	0	0	2464	1737	188	405	2311
47	0	0	1838	1738	186	404	2315
48	0	0	1317	1738	186	404	2320
49	0	0	808	1740	186	405	2325
50	0	0	503	1740	184	405	2328
51	0	0	334	1742	183	405	2328
52	0	0	242	1743	183	404	2325
53	0	0	304	1749	182	404	2316
54	0	0	841	1751	182	405	2311
55	0	0	1271	1751	181	405	2310
56	0	0	1774	1752	180	405	2312
57	0	0	2412	1751	181	404	2316
58	0	0	2970	1751	181	404	2321
59	0	0	3451	1751	182	404	2325
60	0	0	3744	1749	182	405	2327
61	0	0	3917	1748	183	405	2326
62	0	0	4009	1746	185	405	2322
63	0	0	3737	1740	187	405	2314
64	0	0	3181	1739	187	405	2308
65	0	0	2918	1737	187	404	2308
66	0	0	2499	1737	187	404	2310
67	0	0	1867	1737	187	404	2315
68	0	0	1327	1739	185	404	2321
69	0	0	813	1739	186	405	2325
70	0	0	508	1741	184	405	2328
71	0	0	334	1743	183	404	2328
72	0	0	239	1743	182	405	2324
73	0	0	287	1751	182	405	2317
74	0	0	829	1751	180	405	2311
75	0	0	1269	1750	181	405	2310
76	0	0	1773	1751	180	404	2312
77	0	0	2405	1751	181	404	2316
78	0	0	2971	1751	182	404	2321
79	0	0	3455	1750	182	404	2325
80	0	0	3745	1749	184	405	2327
81	0	0	3915	1749	184	404	2326
82	0	0	4013	1747	182	404	2323
83	0	0	3798	1740	186	404	2314
84	0	0	3224	1739	187	405	2309
85	0	0	2955	1737	187	404	2308
86	0	0	2533	1737	187	404	2310
87	0	0	1908	1737	186	404	2315
88	0	0	1387	1738	186	405	2321
89	0	0	851	1739	186	405	2325
90	0	0	525	1740	184	405	2328
91	0	0	342	1742	183	405	2328
92	0	0	243	1743	182	405	2324
93	0	0	297	1749	183	404	2316
94	0	0	825	1751	181	404	2311
95	0	0	1248	1750	180	404	2310
96	0	0	1748	1751	181	404	2312
97	0	0	2395	1750	180	404	2316
98	0	0	2965	1752	181	404	2321
99	0	0	3448	1751	182	403	2325
100	0	0	3741	1748	182	404	2327
101	0	0	3912	1748	184	404	2327
102	0	0	4008	1747	185	405	2323
103	0	0	3824	1740	185	405	2314
104	0	0	3236	1739	187	405	2309
105	0	0	2963	1738	187	404	2308
106	0	0	2546	1736	186	405	2310
107	0	0	1918	1736	186	405	2314
108	0	0	1371	1737	186	405	2320
109	0	0	836	1738	186	405	2324
110	0	0	517	1739	185	404	2328
111	0	0	334	1742	184	404	2327
112	0	0	236	1743	183	404	2324
113	0	0	213	1750	182	404	2316
114	0	0	719	1750	181	404	2310
115	0	0	1139	1749	181	405	2310
116	0	0	1625	1750	181	405	2312
117	0	0	2252	1750	181	404	2316
118	0	0	2812	1750	182	405	2320
119	0	0	3303	1749	182	404	2325
120	0	0	3623	1747	183	404	2327
121	0	0	3830	1748	183	404	2326
122	0	0	3861	1744	185	404	2322
123	0	0	3637	1737	186	405	2314
124	0	0	3080	1737	187	405	2308
125	0	0	2815	1737	187	405	2307
126	0	0	2391	1735	187	404	2309
127	0	0	1760	1735	187	404	2314
0	0	0	1216	1736	186	404	2319
1	0	0	738	1738	186	405	2324
2	0	0	459	1739	185	404	2327
3	0	0	304	1740	184	405	2327
4	0	0	221	1742	184	404	2324
5	0	0	177	1743	184	405	2316
6	0	0	560	1748	182	406	2310
7	0	0	961	1750	182	405	2309
8	0	0	1450	1749	182	405	2311
9	0	0	2081	1749	181	404	2315
10	0	0	2637	1748	181	404	2320
11	0	0	3121	1748	182	405	2324
12	0	0	3443	1747	184	405	2326
13	0	0	3658	1747	184	405	2326
14	0	0	3700	1745	186	404	2322
15	0	0	3489	1738	186	405	2313
16	0	0	2943	1736	187	404	2308
17	0	0	2674	1735	189	404	2307
18	0	0	2252	1735	187	404	2309
19	0	0	1611	1735	187	405	2313
20	0	0	1063	1736	187	405	2319
21	0	0	652	1736	187	405	2324
22	0	0	417	1738	185	405	2327
23	0	0	286	1739	185	404	2327
24	0	0	215	1741	183	405	2323
25	0	0	180	1742	183	405	2315
26	0	0	491	1748	183	405	2309
27	0	0	911	1747	181	404	2309
28	0	0	1412	1748	182	404	2311
29	0	0	2051	1748	182	404	2315
30	0	0	2628	1748	183	404	2320
31	0	0	3141	1748	183	405	2323
32	0	0	3483	1746	183	405	2326
33	0	0	3719	1746	184	405	2326
34	0	0	3784	1744	186	404	2321
35	0	0	3586	1736	187	404	2313
36	0	0	3065	1736	187	404	2307
37	0	0	2828	1735	188	405	2306
38	0	0	2427	1734	189	404	2308
39	0	0	1803	1734	187	404	2314
40	0	0	1268	1734	187	404	2319
41	0	0	778	1736	186	404	2323
42	0	0	490	1737	184	405	2327
43	0	0	332	1739	184	405	2326
44	0	0	245	1740	184	405	2323
45	0	0	199	1743	182	404	2316
46	0	0	662	1747	182	404	2310
47	0	0	1088	1748	181	405	2309
48	0	0	1597	1748	181	404	2310
49	0	0	2249	1747	180	405	2314
50	0	0	2836	1747	181	404	2319
51	0	0	3358	1747	182	404	2323
52	0	0	3697	1747	184	404	2326
53	0	0	3892	1745	185	404	2325
54	0	0	4006	1744	185	405	2321
55	0	0	3934	1737	185	405	2313
56	0	0	3365	1736	188	405	2307
57	0	0	3127	1735	188	405	2306
58	0	0	2738	1735	188	405	2309
59	0	0	2127	1735	188	405	2313
60	0	0	1583	1735	186	405	2318
61	0	0	995	1735	185	405	2323
62	0	0	617	1737	185	405	2326
63	0	0	399	1738	183	404	2326
64	0	0	281	1741	184	403	2323
65	0	0	326	1747	183	404	2316
66	0	0	832	1747	181	404	2309
67	0	0	1253	1748	181	405	2308
68	0	0	1743	1748	181	404	2310
69	0	0	2380	1748	181	404	2314
70	0	0	2960	1748	182	404	2319
71	0	0	3454	1747	182	405	2323
72	0	0	3748	1746	183	404	2325
73	0	0	3920	1744	183	405	2325
74	0	0	4018	1744	185	404	2321
75	0	0	3998	1736	185	405	2312
76	0	0	3421	1736	186	405	2307
77	0	0	3165	1735	188	404	2306
78	0	0	2760	1734	188	405	2309
79	0	0	2138	1734	187	405	2313
80	0	0	1596	1735	186	404	2318
81	0	0	997	1736	185	405	2323
82	0	0	615	1737	185	405	2326
83	0	0	395	1739	185	404	2326
84	0	0	273	1741	183	404	2323
85	0	0	292	1746	182	404	2315
86	0	0	790	1747	181	404	2309
87	0	0	1198	1747	181	404	2308
88	0	0	1685	1748	181	404	2310
89	0	0	2326	1748	181	405	2314
90	0	0	2905	1748	181	405	2319
91	0	0	3409	1748	182	405	2323
92	0	0	3720	1746	183	405	2325
93	0	0	3901	1745	184	404	2325
94	0	0	4001	1744	184	405	2321
95	0	0	3987	1736	186	405	2313
96	0	0	3421	1736	186	405	2306
97	0	0	3181	1734	187	405	2306
98	0	0	2788	1734	188	405	2308
99	0	0	2166	1734	187	403	2313
100	0	0	1621	1735	186	405	2318
101	0	0	1018	1735	185	404	2323
102	0	0	623	1738	185	405	2326
103	0	0	394	1738	183	404	2326
104	0	0	268	1740	183	405	2322
105	0	0	285	1746	182	405	2315
106	0	0	780	1747	181	405	2309
107	0	0	1194	1747	181	405	2308
108	0	0	1678	1747	180	404	2310
109	0	0	2308	1748	181	404	2314
110	0	0	2886	1747	181	404	2319
111	0	0	3395	1747	182	404	2323
112	0	0	3705	1745	183	404	2325
113	0	0	3888	1746	184	405	2325
114	0	0	3993	1744	185	405	2321
115	0	0	3968	1737	185	404	2313
116	0	0	3391	1736	186	404	2307
117	0	0	3141	1735	187	404	2305
118	0	0	2746	1734	186	404	2308
119	0	0	2125	1733	186	405	2312
120	0	0	1575	1733	186	404	2318
121	0	0	981	1735	186	405	2323
122	0	0	595	1737	184	405	2325
123	0	0	377	1738	183	405	2325
124	0	0	255	1740	182	405	2323
125	0	0	225	1746	182	405	2315
126	0	0	712	1746	181	404	2309
127	0	0	1120	1748	181	404	2308
0	0	0	1600	1748	181	404	2310
1	0	0	2235	1748	180	404	2314
2	0	0	2814	1748	182	405	2318
3	0	0	3332	1747	181	404	2323
4	0	0	3667	1746	182	404	2325
5	0	0	3862	1745	184	404	2324
6	0	0	3974	1744	186	405	2321
7	0	0	3927	1737	185	405	2312
8	0	0	3365	1736	187	405	2306
9	0	0	3125	1735	188	404	2305
10	0	0	2735	1734	187	405	2307
11	0	0	2116	1733	186	404	2312
12	0	0	1558	1735	187	405	2317
13	0	0	967	1735	185	405	2323
14	0	0	587	1737	184	404	2325
15	0	0	368	1738	183	404	2326
16	0	0	248	1740	183	404	2322
17	0	0	184	1749	183	404	2315
18	0	0	663	1746	181	404	2308
19	0	0	1085	1747	180	404	2308
20	0	0	1572	1747	181	404	2309
21	0	0	2200	1747	182	404	2313
22	0	0	2777	1747	182	404	2318
23	0	0	3297	1746	181	405	2322
24	0	0	3636	1746	182	405	2324
25	0	0	3843	1745	184	405	2324
26	0	0	3963	1744	186	404	2320
27	0	0	3890	1736	185	404	2312
28	0	0	3335	1735	186	405	2307
29	0	0	3089	1734	187	404	2305
30	0	0	2698	1734	187	405	2308
31	0	0	2080	1734	187	405	2312
32	0	0	1523	1734	186	404	2317
33	0	0	930	1735	185	405	2323
34	0	0	565	1736	184	404	2325
35	0	0	356	1737	184	404	2325
36	0	0	242	1739	183	404	2323
37	0	0	178	1741	183	405	2315
38	0	0	602	1747	182	405	2308
39	0	0	1007	1747	181	404	2307
40	0	0	1489	1747	181	404	2309
41	0	0	2125	1747	181	405	2313
42	0	0	2704	1747	182	405	2318
43	0	0	3224	1747	182	405	2322
44	0	0	3583	1745	183	403	2324
45	0	0	3812	1744	183	405	2324
46	0	0	3943	1745	186	404	2321
47	0	0	3827	1736	186	404	2312
48	0	0	3289	1735	187	405	2306
49	0	0	3061	1734	187	404	2305
50	0	0	2684	1733	188	405	2307
51	0	0	2054	1733	187	405	2311
52	0	0	1492	1733	186	404	2317
53	0	0	913	1734	186	405	2322
54	0	0	555	1736	185	405	2325
55	0	0	348	1738	184	404	2325
56	0	0	235	1739	182	405	2323
57	0	0	175	1741	181	406	2315
58	0	0	545	1747	182	404	2308
59	0	0	950	1746	181	404	2307
60	0	0	1433	1746	181	405	2309
61	0	0	2065	1747	181	405	2313
62	0	0	2663	1747	181	404	2318
63	0	0	3183	1746	182	404	2322
64	0	0	3545	1745	184	404	2324
65	0	0	3789	1744	185	404	2324
66	0	0	3932	1742	185	405	2320
67	0	0	3790	1736	187	405	2312
68	0	0	3281	1735	186	405	2306
69	0	0	3044	1733	187	404	2304
70	0	0	2671	1734	189	405	2307
71	0	0	2052	1733	188	405	2311
72	0	0	1487	1734	186	405	2316
73	0	0	903	1734	185	405	2321
74	0	0	549	1735	185	404	2324
75	0	0	347	1737	184	405	2324
76	0	0	236	1739	182	404	2322
77	0	0	175	1741	181	405	2314
78	0	0	507	1746	181	405	2308
79	0	0	910	1746	181	404	2307
80	0	0	1398	1746	181	404	2308
81	0	0	2023	1746	182	404	2312
82	0	0	2609	1746	181	404	2317
83	0	0	3133	1744	182	404	2321
84	0	0	3510	1744	183	404	2324
85	0	0	3770	1745	183	404	2324
86	0	0	3908	1743	184	405	2320
87	0	0	3764	1735	186	405	2312
88	0	0	3247	1735	187	405	2306
89	0	0	3015	1733	188	404	2304
90	0	0	2646	1733	186	404	2307
91	0	0	2032	1732	186	405	2310
92	0	0	1458	1734	188	405	2316
93	0	0	889	1734	186	405	2321
94	0	0	542	1735	185	405	2324
95	0	0	342	1737	183	404	2324
96	0	0	235	1738	182	404	2322
97	0	0	176	1740	182	404	2314
98	0	0	519	1746	182	404	2308
99	0	0	932	1746	182	404	2307
100	0	0	1418	1746	181	405	2308
101	0	0	2049	1746	181	404	2312
102	0	0	2638	1746	180	404	2317
103	0	0	3182	1745	182	405	2321
104	0	0	3552	1744	184	405	2323
105	0	0	3796	1743	183	405	2323
106	0	0	3936	1742	185	404	2320
107	0	0	3858	1735	186	404	2311
108	0	0	3347	1734	187	405	2305
109	0	0	3124	1734	187	403	2304
110	0	0	2752	1733	188	405	2306
111	0	0	2137	1731	188	405	2310
112	0	0	1570	1733	187	405	2316
113	0	0	965	1734	185	405	2321
114	0	0	586	1735	184	405	2324
115	0	0	370	1737	184	404	2324
116	0	0	249	1738	183	404	2322
117	0	0	184	1740	182	406	2313
118	0	0	556	1745	181	405	2307
119	0	0	970	1745	180	403	2306
120	0	0	1455	1745	181	404	2307
121	0	0	2094	1745	182	405	2311
122	0	0	2690	1746	181	405	2316
123	0	0	3231	1746	182	405	2320
124	0	0	3597	1743	183	404	2323
125	0	0	3820	1743	183	404	2322
126	0	0	3949	1742	184	404	2319
127	0	0	3951	1735	186	404	2311
0	0	0	3408	1734	187	405	2305
1	0	0	3180	1733	187	405	2304
2	0	0	2810	1732	187	405	2306
3	0	0	2186	1732	187	404	2310
4	0	0	1614	1733	187	404	2316
5	0	0	999	1734	185	405	2321
6	0	0	605	1734	185	404	2323
7	0	0	376	1737	184	405	2324
8	0	0	252	1737	183	404	2321
9	0	0	185	1740	182	407	2314
10	0	0	551	1745	181	404	2307
11	0	0	954	1745	181	405	2306
12	0	0	1437	1745	180	405	2307
13	0	0	2068	1746	181	405	2311
14	0	0	2681	1745	182	405	2316
15	0	0	3230	1744	182	404	2320
16	0	0	3599	1744	183	404	2323
17	0	0	3820	1742	184	404	2322
18	0	0	3949	1742	184	404	2319
19	0	0	3991	1735	186	405	2311
20	0	0	3454	1734	187	405	2305
21	0	0	3216	1733	188	403	2304
22	0	0	2844	1732	188	405	2305
23	0	0	2227	1731	187	406	2309
24	0	0	1646	1733	187	405	2315
25	0	0	1016	1733	186	405	2321
26	0	0	614	1734	185	404	2323
27	0	0	382	1735	185	405	2323
28	0	0	254	1738	183	405	2321
29	0	0	183	1739	182	405	2314
30	0	0	528	1745	182	404	2307
31	0	0	929	1745	181	405	2306
32	0	0	1413	1745	181	404	2307
33	0	0	2050	1745	181	404	2311
34	0	0	2658	1746	181	404	2316
35	0	0	3206	1745	182	404	2320
36	0	0	3581	1743	182	404	2323
37	0	0	3810	1743	184	404	2323
38	0	0	3939	1741	184	405	2319
39	0	0	4002	1735	186	404	2311
40	0	0	3456	1733	187	405	2304
41	0	0	3229	1732	187	404	2303
42	0	0	2860	1731	187	405	2305
43	0	0	2233	1731	186	405	2310
44	0	0	1645	1732	186	405	2315
45	0	0	1017	1733	185	405	2320
46	0	0	613	1734	185	404	2323
47	0	0	378	1735	185	405	2323
48	0	0	250	1738	185	405	2321
49	0	0	181	1739	181	405	2313
50	0	0	508	1745	182	404	2307
51	0	0	916	1745	182	404	2306
52	0	0	1398	1745	181	404	2307
53	0	0	2033	1745	180	405	2311
54	0	0	2649	1745	181	404	2316
55	0	0	3213	1745	182	404	2320
56	0	0	3591	1744	183	404	2323
57	0	0	3812	1742	184	404	2322
58	0	0	3941	1741	184	404	2319
59	0	0	4013	1740	186	405	2311
60	0	0	3554	1733	187	405	2304
61	0	0	3345	1732	188	404	2303
62	0	0	2983	1731	187	404	2305
63	0	0	2362	1731	187	404	2309
64	0	0	1776	1732	186	405	2315
65	0	0	1113	1733	186	405	2320
66	0	0	666	1735	185	405	2323
67	0	0	408	1735	183	404	2323
68	0	0	263	1737	183	404	2322
69	0	0	185	1739	181	404	2313
70	0	0	564	1744	181	405	2307
71	0	0	978	1745	180	405	2305
72	0	0	1465	1745	181	404	2307
73	0	0	2099	1745	183	404	2311
74	0	0	2717	1745	182	404	2316
75	0	0	3273	1745	182	404	2320
76	0	0	3626	1743	182	404	2322
77	0	0	3831	1743	183	404	2322
78	0	0	3948	1741	184	404	2319
79	0	0	4014	1740	185	404	2311
80	0	0	3627	1733	186	405	2304
81	0	0	3404	1733	187	405	2303
82	0	0	3045	1731	187	405	2305
83	0	0	2422	1731	187	404	2309
84	0	0	1830	1732	185	405	2315
85	0	0	1159	1732	186	404	2320
86	0	0	689	1733	183	405	2323
87	0	0	416	1736	183	404	2323
88	0	0	265	1738	183	404	2321
89	0	0	183	1739	181	406	2314
90	0	0	542	1744	181	404	2307
91	0	0	951	1744	180	405	2305
92	0	0	1431	1745	180	405	2307
93	0	0	2073	1745	182	405	2310
94	0	0	2705	1745	182	405	2316
95	0	0	3261	1744	183	404	2320
96	0	0	3614	1744	182	404	2322
97	0	0	3821	1742	184	404	2322
98	0	0	3939	1741	183	404	2319
99	0	0	4005	1740	186	405	2311
100	0	0	3646	1733	187	405	2304
101	0	0	3440	1733	187	404	2303
102	0	0	3085	1732	188	405	2305
103	0	0	2467	1731	186	406	2309
104	0	0	1873	1732	185	406	2314
105	0	0	1187	1732	185	405	2320
106	0	0	702	1734	185	404	2323
107	0	0	422	1735	184	404	2323
108	0	0	264	1737	184	405	2321
109	0	0	177	1739	182	405	2314
110	0	0	545	1744	181	404	2307
111	0	0	949	1745	181	405	2305
112	0	0	1441	1745	180	404	2307
113	0	0	2090	1745	181	404	2311
114	0	0	2730	1745	181	404	2315
115	0	0	3282	1745	182	404	2320
116	0	0	3624	1743	183	404	2322
117	0	0	3823	1743	184	405	2322
118	0	0	3936	1741	184	404	2319
119	0	0	3999	1741	185	405	2311
120	0	0	3720	1733	186	406	2304
121	0	0	3525	1732	187	405	2303
122	0	0	3168	1731	188	405	2304
123	0	0	2531	1731	187	405	2309
124	0	0	1927	1731	186	405	2315
125	0	0	1235	1734	185	405	2320
126	0	0	726	1734	184	405	2323
127	0	0	428	1736	183	405	2323
0	0	0	263	1737	183	405	2321
1	0	0	173	1739	181	405	2314
2	0	0	516	1743	180	404	2307
3	0	0	922	1745	180	404	2305
4	0	0	1408	1745	181	404	2306
5	0	0	2051	1746	180	405	2310
6	0	0	2689	1744	181	404	2315
7	0	0	3249	1745	182	404	2319
8	0	0	3599	1743	182	404	2322
9	0	0	3805	1742	183	404	2322
10	0	0	3924	1742	182	405	2319
11	0	0	3987	1741	184	406	2311
12	0	0	3711	1733	185	406	2304
13	0	0	3529	1733	186	404	2303
14	0	0	3178	1731	186	405	2304
15	0	0	2546	1731	187	404	2309
16	0	0	1937	1731	183	405	2314
17	0	0	1230	1733	185	405	2319
18	0	0	718	1733	184	405	2322
19	0	0	422	1735	184	405	2323
20	0	0	255	1737	182	404	2320
21	0	0	164	1738	181	405	2313
22	0	0	457	1744	182	405	2306
23	0	0	850	1744	181	405	2305
24	0	0	1335	1744	181	405	2306
25	0	0	1978	1745	181	404	2310
26	0	0	2615	1744	181	404	2315
27	0	0	3189	1744	181	404	2319
28	0	0	3562	1742	182	405	2321
29	0	0	3781	1743	184	405	2322
30	0	0	3906	1742	184	405	2318
31	0	0	3974	1739	185	404	2311
32	0	0	3684	1733	187	405	2304
33	0	0	3485	1732	187	404	2302
34	0	0	3133	1730	187	405	2304
35	0	0	2488	1731	188	404	2308
36	0	0	1871	1731	185	405	2314
37	0	0	1173	1732	186	405	2319
38	0	0	683	1733	184	405	2322
39	0	0	397	1735	184	406	2322
40	0	0	238	1736	183	405	2320
41	0	0	152	1738	182	405	2313
42	0	0	335	1744	180	404	2306
43	0	0	722	1744	181	404	2305
44	0	0	1195	1744	180	404	2306
45	0	0	1831	1744	180	404	2309
46	0	0	2468	1744	181	405	2314
47	0	0	3059	1743	181	404	2319
48	0	0	3474	1742	183	405	2321
49	0	0	3729	1740	183	404	2321
50	0	0	3873	1741	183	404	2318
51	0	0	3954	1740	183	404	2310
52	0	0	3600	1732	187	404	2304
53	0	0	3396	1731	187	405	2302
54	0	0	3043	1730	187	405	2303
55	0	0	2409	1730	186	405	2308
56	0	0	1781	1731	187	404	2313
57	0	0	1089	1731	186	405	2318
58	0	0	633	1732	184	405	2321
59	0	0	370	1734	184	405	2322
60	0	0	222	1736	183	404	2320
61	0	0	142	1738	182	404	2313
62	0	0	240	1743	181	400	2306
63	0	0	617	1742	181	400	2304
64	0	0	1088	1744	181	400	2305
65	0	0	1734	1744	182	404	2309
66	0	0	2365	1743	179	405	2314
67	0	0	2955	1743	181	404	2318
68	0	0	3396	1741	183	404	2321
69	0	0	3684	1741	184	401	2321
70	0	0	3847	1739	185	405	2318
71	0	0	3940	1739	186	405	2310
72	0	0	3531	1731	187	405	2303
73	0	0	3312	1730	186	404	2301
74	0	0	2960	1729	188	405	2304
75	0	0	2326	1730	188	405	2308
76	0	0	1681	1730	186	405	2313
77	0	0	1017	1730	185	405	2318
78	0	0	593	1732	185	405	2322
79	0	0	348	1734	184	405	2322
80	0	0	211	1735	184	401	2320
81	0	0	138	1737	182	401	2313
82	0	0	146	1741	181	401	2306
83	0	0	501	1743	182	405	2304
84	0	0	966	1741	181	405	2305
85	0	0	1600	1742	181	405	2309
86	0	0	2234	1743	182	404	2313
87	0	0	2841	1742	182	404	2318
88	0	0	3298	1741	183	405	2321
89	0	0	3624	1739	184	405	2320
90	0	0	3817	1739	185	404	2318
91	0	0	3926	1735	186	404	2310
92	0	0	3472	1731	187	405	2303
93	0	0	3274	1729	186	405	2302
94	0	0	2931	1728	188	405	2303
95	0	0	2300	1728	188	405	2307
96	0	0	1662	1728	187	405	2312
97	0	0	1004	1729	186	405	2318
98	0	0	585	1731	186	401	2321
99	0	0	347	1733	184	401	2321
100	0	0	215	1733	183	401	2319
101	0	0	143	1735	182	404	2312
102	0	0	142	1740	182	404	2305
103	0	0	487	1742	181	404	2303
104	0	0	949	1741	181	405	2305
105	0	0	1600	1742	182	405	2308
106	0	0	2233	1741	182	404	2313
107	0	0	2834	1740	182	405	2318
108	0	0	3304	1740	184	405	2321
109	0	0	3630	1739	184	404	2320
110	0	0	3822	1738	185	400	2318
111	0	0	3933	1737	186	401	2311
112	0	0	3500	1729	188	405	2303
113	0	0	3299	1728	188	405	2301
114	0	0	2961	1728	188	405	2303
115	0	0	2333	1728	187	404	2307
116	0	0	1689	1728	188	401	2312
117	0	0	1029	1729	186	401	2317
118	0	0	606	1730	186	405	2320
119	0	0	360	1731	184	405	2321
120	0	0	225	1733	182	405	2319
121	0	0	152	1734	183	405	2312
122	0	0	137	1740	182	404	2305
123	0	0	481	1740	181	405	2303
124	0	0	946	1741	182	405	2304
125	0	0	1591	1741	181	405	2308
126	0	0	2237	1742	182	404	2313
127	0	0	2852	1741	182	400	2318
0	0	0	3321	1739	182	400	2320
1	0	0	3644	1738	184	401	2321
2	0	0	3836	1738	184	406	2317
3	0	0	3942	1736	187	403	2309
4	0	0	3577	1729	187	405	2303
5	0	0	3379	1729	187	405	2301
6	0	0	3042	1727	188	405	2302
7	0	0	2421	1726	187	405	2307
8	0	0	1792	1728	187	405	2312
9	0	0	1101	1729	186	405	2317
10	0	0	649	1730	185	404	2320
11	0	0	389	1732	184	405	2322
12	0	0	243	1733	184	404	2319
13	0	0	163	1734	184	405	2312
14	0	0	194	1739	181	405	2305
15	0	0	555	1740	182	404	2303
16	0	0	1030	1741	181	405	2304
17	0	0	1686	1741	182	400	2308
18	0	0	2338	1740	181	400	2313
19	0	0	2953	1740	183	401	2317
20	0	0	3417	1740	183	404	2320
21	0	0	3703	1738	184	404	2320
22	0	0	3868	1738	185	404	2317
23	0	0	3962	1737	185	404	2310
24	0	0	3698	1730	188	405	2303
25	0	0	3510	1729	187	405	2300
26	0	0	3190	1728	187	405	2303
27	0	0	2556	1728	189	404	2306
28	0	0	1920	1727	187	404	2312
29	0	0	1213	1728	187	405	2317
30	0	0	714	1730	186	401	2321
31	0	0	423	1731	184	405	2321
32	0	0	262	1732	183	404	2319
33	0	0	174	1735	182	405	2312
34	0	0	220	1739	181	404	2305
35	0	0	579	1740	181	400	2303
36	0	0	1049	1741	180	400	2304
37	0	0	1695	1742	180	400	2307
38	0	0	2362	1742	183	404	2312
39	0	0	2986	1741	181	404	2317
40	0	0	3439	1739	184	404	2320
41	0	0	3714	1738	182	404	2320
42	0	0	3876	1737	184	405	2317
43	0	0	3965	1737	185	405	2309
44	0	0	3729	1729	186	405	2302
45	0	0	3533	1729	187	405	2301
46	0	0	3207	1727	187	400	2302
47	0	0	2577	1726	188	404	2306
48	0	0	1928	1727	187	400	2311
49	0	0	1206	1728	185	405	2317
50	0	0	710	1729	185	405	2320
51	0	0	422	1731	184	405	2321
52	0	0	261	1732	183	405	2319
53	0	0	172	1734	183	401	2312
54	0	0	184	1740	181	405	2305
55	0	0	529	1740	181	405	2303
56	0	0	982	1740	182	404	2304
57	0	0	1612	1740	181	405	2307
58	0	0	2247	1740	182	404	2312
59	0	0	2856	1740	181	404	2317
60	0	0	3335	1739	183	405	2319
61	0	0	3651	1738	184	405	2319
62	0	0	3838	1737	185	404	2317
63	0	0	3943	1736	186	404	2310
64	0	0	3602	1729	187	401	2303
65	0	0	3395	1729	188	401	2301
66	0	0	3076	1728	187	401	2302
67	0	0	2446	1726	188	405	2306
68	0	0	1796	1728	187	405	2311
69	0	0	1109	1729	186	405	2317
70	0	0	653	1729	185	405	2320
71	0	0	389	1731	185	406	2321
72	0	0	243	1732	184	404	2318
73	0	0	164	1734	183	405	2312
74	0	0	122	1743	181	404	2305
75	0	0	425	1739	181	404	2303
76	0	0	877	1740	181	404	2304
77	0	0	1509	1740	181	404	2307
78	0	0	2155	1740	182	404	2312
79	0	0	2755	1739	182	404	2317
80	0	0	3222	1738	183	404	2319
81	0	0	3584	1737	184	404	2319
82	0	0	3803	1737	185	400	2317
83	0	0	3911	1731	186	400	2310
84	0	0	3482	1728	187	401	2302
85	0	0	3284	1727	188	404	2300
86	0	0	2960	1725	188	404	2301
87	0	0	2329	1725	187	404	2306
88	0	0	1662	1725	188	404	2311
89	0	0	999	1727	187	405	2317
90	0	0	593	1728	185	405	2319
91	0	0	360	1729	185	405	2320
92	0	0	229	1731	185	405	2318
93	0	0	160	1732	184	404	2312
94	0	0	124	1733	183	401	2305
95	0	0	282	1738	181	400	2302
96	0	0	742	1738	181	404	2303
97	0	0	1384	1738	182	405	2307
98	0	0	2038	1738	182	404	2312
99	0	0	2664	1737	183	405	2316
100	0	0	3168	1736	184	401	2319
101	0	0	3556	1736	184	401	2320
102	0	0	3790	1735	187	404	2316
103	0	0	3923	1734	187	404	2310
104	0	0	3545	1726	188	405	2302
105	0	0	3363	1726	187	404	2300
106	0	0	3075	1724	188	405	2301
107	0	0	2466	1724	188	404	2305
108	0	0	1833	1724	187	405	2311
109	0	0	1150	1724	186	405	2316
110	0	0	684	1727	185	404	2319
111	0	0	413	1728	184	401	2321
112	0	0	264	1729	185	401	2319
113	0	0	183	1732	183	401	2312
114	0	0	199	1736	182	404	2305
115	0	0	555	1738	183	405	2303
116	0	0	1028	1737	182	405	2304
117	0	0	1682	1738	181	405	2307
118	0	0	2379	1738	183	405	2312
119	0	0	3028	1737	183	405	2317
120	0	0	3477	1737	184	405	2319
121	0	0	3747	1735	185	405	2319
122	0	0	3900	1735	185	404	2317
123	0	0	3987	1735	185	404	2310
124	0	0	3990	1727	186	404	2303
125	0	0	3879	1728	188	405	2300
126	0	0	3597	1725	188	404	2302
127	0	0	2977	1725	188	405	2306
0	0	0	2342	1726	188	405	2311
1	0	0	1616	1726	186	401	2317
2	0	0	959	1727	184	400	2320
3	0	0	571	1729	184	401	2322
4	0	0	347	1731	183	405	2319
5	0	0	224	1732	182	405	2313
6	0	0	501	1739	181	404	2305
7	0	0	882	1739	181	404	2303
8	0	0	1351	1739	181	404	2304
9	0	0	1995	1740	183	405	2307
10	0	0	2671	1739	182	405	2312
11	0	0	3250	1739	182	404	2317
12	0	0	3604	1739	181	404	2320
13	0	0	3811	1737	184	405	2320
14	0	0	3929	1736	185	401	2318
15	0	0	3996	1736	186	405	2310
16	0	0	3921	1728	187	405	2303
17	0	0	3763	1727	186	405	2300
18	0	0	3465	1726	187	405	2302
19	0	0	2831	1726	187	400	2306
20	0	0	2189	1726	185	400	2312
21	0	0	1470	1727	185	400	2317
22	0	0	855	1728	185	404	2320
23	0	0	504	1730	184	405	2321
24	0	0	303	1731	182	404	2319
25	0	0	193	1734	181	405	2313
26	0	0	395	1739	181	405	2305
27	0	0	788	1740	181	405	2303
28	0	0	1261	1740	181	405	2304
29	0	0	1925	1740	180	404	2308
30	0	0	2610	1740	182	401	2312
31	0	0	3201	1739	181	400	2317
32	0	0	3568	1739	182	400	2319
33	0	0	3785	1739	183	404	2321
34	0	0	3911	1738	185	400	2318
35	0	0	3978	1737	186	401	2310
36	0	0	4012	1729	186	401	2303
37	0	0	3903	1729	185	405	2300
38	0	0	3614	1727	186	404	2302
39	0	0	2991	1727	186	404	2306
40	0	0	2345	1727	186	404	2312
41	0	0	1622	1728	185	405	2317
42	0	0	953	1729	185	405	2320
43	0	0	554	1731	183	405	2321
44	0	0	323	1733	183	405	2319
45	0	0	197	1734	182	405	2312
46	0	0	402	1741	180	401	2305
47	0	0	772	1741	181	401	2303
48	0	0	1226	1740	181	404	2304
49	0	0	1866	1741	181	404	2307
50	0	0	2540	1741	180	404	2312
51	0	0	3145	1740	181	405	2317
52	0	0	3531	1740	182	400	2319
53	0	0	3757	1739	183	400	2320
54	0	0	3885	1739	184	405	2318
55	0	0	3958	1736	183	405	2311
56	0	0	3904	1729	185	404	2303
57	0	0	3739	1730	186	404	2300
58	0	0	3456	1728	186	404	2301
59	0	0	2825	1728	187	404	2306
60	0	0	2176	1728	185	405	2311
61	0	0	1456	1729	185	405	2316
62	0	0	841	1731	184	405	2320
63	0	0	480	1732	182	400	2321
64	0	0	278	1733	182	400	2319
65	0	0	166	1735	181	400	2312
66	0	0	292	1741	181	405	2305
67	0	0	690	1740	180	404	2302
68	0	0	1149	1741	181	405	2303
69	0	0	1777	1742	180	404	2307
70	0	0	2450	1741	180	405	2312
71	0	0	3064	1740	181	405	2316
72	0	0	3477	1740	182	405	2319
73	0	0	3724	1740	184	404	2319
74	0	0	3861	1737	184	404	2317
75	0	0	3940	1737	185	404	2310
76	0	0	3850	1730	185	404	2302
77	0	0	3673	1730	187	405	2299
78	0	0	3396	1727	186	404	2301
79	0	0	2782	1728	186	406	2305
80	0	0	2127	1728	186	404	2310
81	0	0	1397	1729	185	401	2316
82	0	0	804	1729	185	400	2319
83	0	0	458	1731	184	401	2320
84	0	0	260	1733	183	404	2318
85	0	0	153	1735	181	404	2312
86	0	0	208	1740	181	404	2305
87	0	0	570	1741	180	404	2302
88	0	0	1026	1741	179	405	2303
89	0	0	1663	1741	181	405	2306
90	0	0	2336	1741	181	404	2311
91	0	0	2976	1741	180	404	2316
92	0	0	3420	1739	182	404	2318
93	0	0	3684	1738	184	404	2319
94	0	0	3839	1738	183	400	2317
95	0	0	3925	1737	185	405	2310
96	0	0	3803	1729	186	405	2302
97	0	0	3616	1730	186	404	2299
98	0	0	3338	1728	186	405	2300
99	0	0	2724	1727	186	401	2304
100	0	0	2070	1728	186	401	2310
101	0	0	1349	1728	185	401	2315
102	0	0	767	1730	185	405	2319
103	0	0	436	1731	184	404	2319
104	0	0	248	1733	182	404	2318
105	0	0	144	1734	182	404	2312
106	0	0	179	1740	181	405	2304
107	0	0	557	1740	180	405	2301
108	0	0	1006	1741	180	405	2302
109	0	0	1645	1741	180	404	2306
110	0	0	2313	1741	180	400	2311
111	0	0	2944	1740	181	400	2315
112	0	0	3401	1740	183	401	2318
113	0	0	3673	1739	183	405	2318
114	0	0	3830	1737	184	404	2316
115	0	0	3918	1736	185	404	2309
116	0	0	3791	1729	185	405	2302
117	0	0	3591	1730	187	401	2299
118	0	0	3320	1727	188	405	2301
119	0	0	2715	1727	186	406	2304
120	0	0	2057	1727	186	404	2309
121	0	0	1347	1727	184	404	2315
122	0	0	772	1729	185	405	2319
123	0	0	437	1732	183	405	2319
124	0	0	246	1733	182	405	2318
125	0	0	142	1734	181	404	2311
126	0	0	181	1739	180	405	2304
127	0	0	553	1740	179	404	2301
0	0	0	1004	1741	181	400	2302
1	0	0	1630	1741	180	401	2305
2	0	0	2292	1741	182	400	2310
3	0	0	2929	1741	181	405	2315
4	0	0	3388	1739	183	404	2317
5	0	0	3663	1738	184	404	2318
6	0	0	3822	1737	183	404	2316
7	0	0	3914	1737	185	404	2309
8	0	0	3777	1728	185	405	2301
9	0	0	3567	1729	186	405	2298
10	0	0	3282	1726	186	405	2300
11	0	0	2689	1726	187	404	2304
12	0	0	2054	1727	186	404	2309
13	0	0	1353	1727	185	404	2314
14	0	0	767	1728	185	405	2317
15	0	0	434	1731	183	405	2319
16	0	0	244	1732	182	405	2317
17	0	0	140	1733	182	404	2311
18	0	0	190	1740	181	401	2304
19	0	0	575	1740	181	401	2300
20	0	0	1016	1740	182	400	2301
21	0	0	1647	1740	181	405	2305
22	0	0	2313	1740	180	405	2310
23	0	0	2940	1739	181	404	2314
24	0	0	3396	1739	182	404	2317
25	0	0	3668	1737	183	405	2317
26	0	0	3826	1737	183	405	2315
27	0	0	3914	1736	185	404	2308
28	0	0	3787	1729	186	405	2301
29	0	0	3584	1729	186	404	2298
30	0	0	3315	1726	187	400	2299
31	0	0	2716	1726	186	400	2303
32	0	0	2063	1727	186	404	2309
33	0	0	1362	1727	186	405	2314
34	0	0	778	1728	184	405	2317
35	0	0	438	1729	182	405	2318
36	0	0	244	1732	181	401	2316
37	0	0	138	1733	181	401	2311
38	0	0	206	1739	181	405	2303
39	0	0	614	1739	181	404	2300
40	0	0	1062	1740	180	405	2301
41	0	0	1673	1740	181	404	2304
42	0	0	2331	1740	181	404	2309
43	0	0	2956	1739	180	405	2314
44	0	0	3403	1738	182	405	2316
45	0	0	3670	1737	183	405	2317
46	0	0	3826	1736	184	406	2315
47	0	0	3912	1735	184	401	2308
48	0	0	3762	1729	187	401	2300
49	0	0	3530	1729	186	401	2298
50	0	0	3266	1725	186	404	2298
51	0	0	2679	1725	186	404	2303
52	0	0	2030	1726	186	405	2308
53	0	0	1339	1726	185	404	2313
54	0	0	757	1729	184	405	2317
55	0	0	425	1730	184	405	2318
56	0	0	237	1731	184	405	2316
57	0	0	132	1733	182	404	2310
58	0	0	163	1738	181	405	2302
59	0	0	531	1738	180	404	2299
60	0	0	963	1740	179	405	2301
61	0	0	1590	1740	181	405	2303
62	0	0	2258	1739	181	404	2308
63	0	0	2883	1739	180	405	2313
64	0	0	3352	1738	182	405	2316
65	0	0	3641	1736	183	401	2316
66	0	0	3807	1736	184	401	2315
67	0	0	3902	1735	186	401	2308
68	0	0	3728	1727	186	405	2300
69	0	0	3504	1727	187	404	2297
70	0	0	3244	1726	186	404	2298
71	0	0	2663	1724	186	404	2302
72	0	0	2013	1726	186	405	2308
73	0	0	1325	1726	186	405	2313
74	0	0	754	1727	184	404	2316
75	0	0	420	1730	184	405	2318
76	0	0	234	1731	183	403	2316
77	0	0	131	1732	182	404	2310
78	0	0	158	1738	181	401	2302
79	0	0	549	1738	181	404	2299
80	0	0	981	1738	181	404	2300
81	0	0	1590	1739	181	404	2303
82	0	0	2246	1739	182	404	2308
83	0	0	2870	1737	182	400	2313
84	0	0	3340	1737	183	400	2315
85	0	0	3631	1736	183	400	2316
86	0	0	3803	1735	185	404	2314
87	0	0	3899	1735	185	405	2307
88	0	0	3681	1726	186	404	2300
89	0	0	3427	1727	186	404	2297
90	0	0	3172	1725	187	405	2298
91	0	0	2597	1724	187	405	2302
92	0	0	1959	1725	187	405	2307
93	0	0	1276	1725	186	405	2312
94	0	0	726	1727	185	400	2316
95	0	0	408	1728	184	401	2317
96	0	0	228	1730	183	401	2315
97	0	0	127	1731	181	404	2309
98	0	0	139	1737	181	404	2302
99	0	0	512	1737	181	405	2299
100	0	0	935	1737	180	404	2300
101	0	0	1552	1738	181	400	2303
102	0	0	2210	1738	181	405	2307
103	0	0	2823	1738	180	405	2312
104	0	0	3308	1736	182	405	2315
105	0	0	3613	1735	184	405	2316
106	0	0	3792	1734	183	404	2314
107	0	0	3893	1734	185	404	2308
108	0	0	3660	1725	187	405	2299
109	0	0	3400	1726	186	404	2297
110	0	0	3135	1724	188	405	2297
111	0	0	2572	1723	188	405	2301
112	0	0	1932	1724	187	400	2307
113	0	0	1262	1724	184	401	2312
114	0	0	718	1726	186	400	2315
115	0	0	401	1728	185	404	2317
116	0	0	225	1729	184	405	2315
117	0	0	128	1730	182	404	2309
118	0	0	115	1737	182	404	2302
119	0	0	497	1736	182	405	2298
120	0	0	921	1737	181	405	2300
121	0	0	1522	1737	181	405	2302
122	0	0	2180	1737	181	403	2307
123	0	0	2788	1737	181	404	2312
124	0	0	3267	1735	181	404	2315
125	0	0	3589	1734	183	404	2316
126	0	0	3782	1734	185	405	2314
127	0	0	3888	1733	185	403	2307
0	0	0	3622	1724	188	404	2299
1	0	0	3350	1725	188	404	2296
2	0	0	3092	1723	188	400	2297
3	0	0	2528	1723	187	400	2301
4	0	0	1895	1723	187	400	2306
5	0	0	1227	1724	185	400	2312
6	0	0	700	1724	184	405	2315
7	0	0	392	1726	184	404	2317
8	0	0	222	1728	183	404	2315
9	0	0	128	1729	183	404	2309
10	0	0	113	1735	182	404	2301
11	0	0	514	1736	181	405	2298
12	0	0	939	1736	179	405	2299
13	0	0	1532	1737	181	405	2302
14	0	0	2180	1737	181	405	2307
15	0	0	2787	1736	181	401	2312
16	0	0	3258	1735	183	400	2315
17	0	0	3586	1734	183	400	2315
18	0	0	3780	1733	185	404	2313
19	0	0	3890	1732	185	404	2307
20	0	0	3608	1725	186	405	2299
21	0	0	3333	1725	188	404	2296
22	0	0	3085	1723	186	404	2297
23	0	0	2522	1722	187	405	2301
24	0	0	1885	1723	186	405	2306
25	0	0	1217	1723	185	404	2311
26	0	0	696	1725	185	404	2315
27	0	0	394	1727	183	404	2316
28	0	0	225	1727	183	404	2315
29	0	0	130	1729	183	404	2309
30	0	0	115	1735	184	405	2301
31	0	0	485	1736	181	405	2298
32	0	0	893	1735	180	404	2299
33	0	0	1499	1735	181	401	2302
34	0	0	2151	1736	181	401	2307
35	0	0	2755	1735	183	401	2312
36	0	0	3228	1734	183	404	2314
37	0	0	3569	1733	183	405	2316
38	0	0	3772	1733	185	405	2313
39	0	0	3887	1732	186	405	2307
40	0	0	3584	1723	187	405	2298
41	0	0	3304	1723	188	405	2295
42	0	0	3057	1722	188	405	2296
43	0	0	2506	1721	188	404	2300
44	0	0	1875	1722	187	405	2305
45	0	0	1220	1722	187	404	2311
46	0	0	700	1724	186	401	2315
47	0	0	397	1725	184	404	2316
48	0	0	228	1726	184	404	2315
49	0	0	136	1728	182	405	2309
50	0	0	127	1735	182	405	2302
51	0	0	525	1735	181	401	2298
52	0	0	941	1735	181	401	2299
53	0	0	1528	1735	181	400	2302
54	0	0	2179	1735	183	404	2306
55	0	0	2784	1734	184	404	2311
56	0	0	3257	1734	183	404	2314
57	0	0	3589	1732	184	405	2315
58	0	0	3786	1732	184	405	2313
59	0	0	3897	1731	185	405	2306
60	0	0	3586	1722	187	405	2298
61	0	0	3287	1723	187	404	2295
62	0	0	3048	1721	189	401	2296
63	0	0	2508	1721	188	400	2300
64	0	0	1882	1722	187	400	2305
65	0	0	1239	1722	187	404	2311
66	0	0	714	1723	186	404	2314
67	0	0	409	1725	185	405	2316
68	0	0	238	1727	183	404	2315
69	0	0	142	1728	182	401	2309
70	0	0	150	1733	182	405	2301
71	0	0	546	1734	182	405	2297
72	0	0	965	1734	181	404	2298
73	0	0	1554	1734	182	404	2301
74	0	0	2199	1734	181	405	2306
75	0	0	2798	1735	182	404	2311
76	0	0	3279	1734	182	405	2314
77	0	0	3602	1732	183	405	2314
78	0	0	3795	1732	184	404	2313
79	0	0	3904	1731	185	405	2307
80	0	0	3635	1722	187	400	2298
81	0	0	3334	1723	187	400	2295
82	0	0	3094	1721	188	401	2297
83	0	0	2557	1720	187	405	2300
84	0	0	1936	1720	188	405	2305
85	0	0	1302	1721	186	404	2311
86	0	0	751	1723	185	404	2314
87	0	0	428	1724	185	405	2316
88	0	0	249	1726	183	404	2314
89	0	0	151	1728	182	405	2308
90	0	0	166	1733	181	404	2301
91	0	0	561	1733	181	404	2297
92	0	0	971	1734	181	404	2298
93	0	0	1555	1734	181	404	2301
94	0	0	2209	1735	181	404	2305
95	0	0	2806	1733	183	404	2311
96	0	0	3278	1733	183	405	2314
97	0	0	3605	1732	183	405	2314
98	0	0	3798	1731	185	401	2313
99	0	0	3907	1731	185	401	2307
100	0	0	3641	1721	186	400	2298
101	0	0	3329	1723	189	405	2295
102	0	0	3101	1720	187	404	2296
103	0	0	2572	1720	188	405	2299
104	0	0	1950	1721	187	404	2305
105	0	0	1315	1720	186	405	2310
106	0	0	760	1722	185	405	2314
107	0	0	438	1723	184	404	2315
108	0	0	254	1725	183	404	2314
109	0	0	153	1727	184	404	2308
110	0	0	192	1732	181	400	2301
111	0	0	613	1734	181	400	2297
112	0	0	1032	1734	181	404	2298
113	0	0	1602	1734	181	404	2301
114	0	0	2238	1734	182	405	2306
115	0	0	2826	1733	181	404	2311
116	0	0	3294	1733	182	401	2314
117	0	0	3614	1731	183	400	2315
118	0	0	3803	1731	184	404	2312
119	0	0	3909	1730	185	405	2307
120	0	0	3675	1721	187	405	2298
121	0	0	3368	1722	187	405	2295
122	0	0	3151	1720	188	404	2296
123	0	0	2618	1720	187	405	2300
124	0	0	1993	1720	188	404	2304
125	0	0	1367	1721	186	404	2310
126	0	0	790	1722	184	400	2314
127	0	0	453	1724	184	405	2315
0	0	0	264	1725	183	404	2314
1	0	0	160	1727	183	404	2309
2	0	0	208	1733	181	404	2301
3	0	0	629	1733	180	401	2298
4	0	0	1035	1734	181	401	2298
5	0	0	1612	1734	181	400	2301
6	0	0	2265	1734	181	404	2306
7	0	0	2858	1733	182	404	2310
8	0	0	3324	1732	183	404	2313
9	0	0	3632	1731	184	404	2315
10	0	0	3815	1731	185	405	2313
11	0	0	3916	1730	186	405	2306
12	0	0	3701	1721	187	405	2298
13	0	0	3394	1722	187	404	2295
14	0	0	3170	1720	187	400	2295
15	0	0	2649	1719	188	400	2299
16	0	0	2034	1721	187	401	2305
17	0	0	1412	1720	185	404	2310
18	0	0	821	1721	185	405	2313
19	0	0	472	1723	185	404	2315
20	0	0	274	1724	184	405	2314
21	0	0	164	1726	182	401	2308
22	0	0	233	1733	181	405	2301
23	0	0	647	1733	182	405	2297
24	0	0	1054	1733	181	405	2298
25	0	0	1617	1734	181	404	2300
26	0	0	2255	1733	181	405	2305
27	0	0	2840	1733	181	404	2310
28	0	0	3308	1731	183	405	2313
29	0	0	3622	1731	183	405	2313
30	0	0	3807	1730	185	405	2312
31	0	0	3911	1730	186	406	2306
32	0	0	3641	1721	187	400	2297
33	0	0	3312	1721	188	400	2294
34	0	0	3091	1720	187	400	2295
35	0	0	2570	1719	188	404	2299
36	0	0	1949	1720	187	405	2304
37	0	0	1326	1721	186	404	2310
38	0	0	766	1722	186	404	2313
39	0	0	437	1723	185	405	2315
40	0	0	255	1725	184	406	2313
41	0	0	154	1726	182	405	2308
42	0	0	237	1732	181	404	2300
43	0	0	668	1732	181	404	2296
44	0	0	1074	1733	180	404	2297
45	0	0	1645	1733	181	404	2300
46	0	0	2299	1733	182	405	2305
47	0	0	2884	1733	182	405	2309
48	0	0	3346	1731	184	405	2312
49	0	0	3645	1731	184	405	2314
50	0	0	3822	1729	184	401	2311
51	0	0	3918	1729	185	401	2306
52	0	0	3686	1720	186	400	2297
53	0	0	3341	1720	188	404	2293
54	0	0	3115	1719	189	404	2294
55	0	0	2607	1718	189	405	2298
56	0	0	1982	1719	188	406	2303
57	0	0	1365	1719	185	404	2309
58	0	0	790	1720	185	405	2312
59	0	0	454	1722	185	405	2314
60	0	0	261	1722	185	404	2312
61	0	0	157	1725	183	405	2307
62	0	0	178	1731	182	401	2299
63	0	0	587	1731	181	401	2295
64	0	0	978	1732	182	405	2297
65	0	0	1538	1733	181	405	2300
66	0	0	2169	1732	182	406	2304
67	0	0	2758	1732	183	405	2309
68	0	0	3226	1730	183	401	2312
69	0	0	3571	1730	184	401	2313
70	0	0	3778	1729	185	405	2311
71	0	0	3895	1728	185	405	2305
72	0	0	3589	1719	185	404	2297
73	0	0	3269	1720	188	404	2293
74	0	0	3069	1718	188	404	2294
75	0	0	2576	1717	187	405	2297
76	0	0	1975	1719	188	404	2302
77	0	0	1388	1719	186	405	2308
78	0	0	808	1721	185	405	2312
79	0	0	462	1722	185	400	2313
80	0	0	269	1723	183	400	2312
81	0	0	163	1725	183	401	2307
82	0	0	265	1731	181	405	2299
83	0	0	695	1731	181	404	2295
84	0	0	1094	1732	181	405	2296
85	0	0	1642	1732	182	405	2299
86	0	0	2284	1733	181	404	2303
87	0	0	2868	1731	182	405	2308
88	0	0	3334	1731	183	405	2311
89	0	0	3640	1730	184	404	2312
90	0	0	3818	1729	184	404	2311
91	0	0	3917	1728	185	404	2305
92	0	0	3739	1720	185	404	2297
93	0	0	3389	1721	188	405	2293
94	0	0	3187	1719	187	404	2294
95	0	0	2701	1717	188	405	2297
96	0	0	2095	1719	187	405	2303
97	0	0	1507	1719	186	400	2308
98	0	0	891	1721	185	401	2312
99	0	0	513	1721	185	400	2313
100	0	0	294	1723	183	404	2312
101	0	0	175	1725	183	405	2308
102	0	0	336	1731	181	405	2299
103	0	0	764	1732	180	404	2295
104	0	0	1159	1732	181	405	2296
105	0	0	1717	1732	181	404	2299
106	0	0	2361	1732	181	405	2303
107	0	0	2951	1732	181	404	2308
108	0	0	3411	1732	182	405	2311
109	0	0	3682	1730	183	405	2312
110	0	0	3839	1730	184	405	2310
111	0	0	3928	1729	184	405	2305
112	0	0	3801	1721	187	401	2296
113	0	0	3476	1721	187	401	2292
114	0	0	3273	1719	186	401	2293
115	0	0	2759	1718	187	405	2297
116	0	0	2172	1720	185	405	2302
117	0	0	1667	1720	185	404	2307
118	0	0	1082	1721	184	404	2311
119	0	0	616	1722	185	405	2313
120	0	0	353	1724	182	404	2312
121	0	0	204	1726	182	405	2307
122	0	0	385	1731	181	404	2298
123	0	0	800	1732	181	404	2295
124	0	0	1184	1733	181	404	2295
125	0	0	1715	1734	180	404	2298
126	0	0	2351	1733	180	405	2303
127	0	0	2933	1732	181	404	2308
0	0	0	3387	1731	183	405	2310
1	0	0	3664	1731	183	405	2312
2	0	0	3826	1730	183	401	2310
3	0	0	3916	1729	185	400	2305
4	0	0	3784	1721	185	401	2296
5	0	0	3437	1722	187	404	2292
6	0	0	3245	1720	186	404	2292
7	0	0	2757	1718	187	404	2296
8	0	0	2142	1720	187	405	2301
9	0	0	1552	1719	186	404	2307
10	0	0	919	1721	185	405	2311
11	0	0	523	1723	183	404	2312
12	0	0	294	1724	183	404	2312
13	0	0	168	1726	182	404	2307
14	0	0	336	1732	180	400	2298
15	0	0	763	1732	182	400	2294
16	0	0	1162	1733	181	405	2294
17	0	0	1713	1733	180	404	2297
18	0	0	2356	1733	181	405	2302
19	0	0	2943	1733	180	405	2307
20	0	0	3400	1732	182	400	2310
21	0	0	3670	1731	184	401	2312
22	0	0	3826	1730	183	405	2310
23	0	0	3913	1729	185	405	2304
24	0	0	3808	1722	187	404	2296
25	0	0	3465	1722	187	404	2291
26	0	0	3270	1720	187	405	2292
27	0	0	2779	1719	187	405	2296
28	0	0	2160	1720	187	405	2301
29	0	0	1570	1720	186	405	2306
30	0	0	924	1720	185	405	2310
31	0	0	520	1722	183	400	2312
32	0	0	291	1724	184	400	2311
33	0	0	163	1726	182	401	2306
34	0	0	293	1731	180	405	2298
35	0	0	720	1733	181	405	2294
36	0	0	1096	1734	180	405	2294
37	0	0	1635	1731	180	404	2297
38	0	0	2285	1733	180	405	2302
39	0	0	2866	1732	180	405	2307
40	0	0	3335	1731	182	405	2310
41	0	0	3631	1731	182	404	2311
42	0	0	3800	1729	183	404	2309
43	0	0	3897	1729	185	405	2304
44	0	0	3767	1721	186	405	2295
45	0	0	3414	1722	187	405	2291
46	0	0	3224	1719	187	405	2292
47	0	0	2739	1719	186	404	2295
48	0	0	2122	1719	186	405	2300
49	0	0	1531	1719	185	400	2306
50	0	0	895	1721	185	400	2310
51	0	0	505	1723	183	401	2311
52	0	0	279	1723	184	404	2311
53	0	0	155	1725	182	405	2305
54	0	0	259	1731	180	404	2297
55	0	0	688	1732	180	404	2293
56	0	0	1080	1733	180	405	2294
57	0	0	1624	1733	181	405	2297
58	0	0	2272	1733	181	405	2301
59	0	0	2862	1732	180	404	2306
60	0	0	3335	1731	182	404	2309
61	0	0	3626	1730	183	404	2310
62	0	0	3797	1730	184	400	2309
63	0	0	3894	1729	184	405	2304
64	0	0	3777	1720	186	405	2295
65	0	0	3430	1722	187	405	2291
66	0	0	3243	1718	187	404	2291
67	0	0	2762	1717	187	400	2295
68	0	0	2142	1719	186	401	2300
69	0	0	1562	1719	185	400	2305
70	0	0	913	1720	186	404	2309
71	0	0	513	1722	185	404	2311
72	0	0	284	1723	183	405	2310
73	0	0	155	1726	182	405	2305
74	0	0	257	1732	181	405	2297
75	0	0	696	1732	181	405	2293
76	0	0	1079	1732	181	404	2294
77	0	0	1627	1733	180	404	2296
78	0	0	2263	1732	181	401	2301
79	0	0	2851	1731	182	401	2306
80	0	0	3323	1731	182	401	2309
81	0	0	3620	1730	183	405	2310
82	0	0	3792	1729	183	404	2309
83	0	0	3887	1728	185	405	2303
84	0	0	3760	1721	186	405	2295
85	0	0	3385	1720	186	400	2290
86	0	0	3199	1718	186	405	2291
87	0	0	2725	1718	188	405	2294
88	0	0	2098	1718	186	405	2299
89	0	0	1514	1719	185	404	2305
90	0	0	883	1720	185	405	2309
91	0	0	494	1721	184	404	2311
92	0	0	269	1722	184	404	2310
93	0	0	146	1725	183	405	2305
94	0	0	193	1730	181	401	2297
95	0	0	646	1732	182	401	2293
96	0	0	1041	1732	181	405	2293
97	0	0	1581	1732	180	404	2296
98	0	0	2223	1732	181	405	2300
99	0	0	2820	1731	182	405	2305
100	0	0	3310	1730	182	400	2308
101	0	0	3609	1729	182	400	2309
102	0	0	3784	1728	184	405	2308
103	0	0	3884	1728	185	405	2303
104	0	0	3760	1720	186	405	2294
105	0	0	3377	1720	187	404	2289
106	0	0	3201	1719	187	404	2291
107	0	0	2721	1718	187	405	2294
108	0	0	2091	1718	186	405	2299
109	0	0	1509	1719	186	405	2304
110	0	0	875	1719	185	404	2308
111	0	0	485	1721	184	400	2310
112	0	0	266	1723	183	400	2309
113	0	0	144	1724	182	401	2304
114	0	0	171	1730	181	405	2296
115	0	0	597	1730	182	404	2292
116	0	0	969	1731	181	405	2292
117	0	0	1504	1732	179	405	2295
118	0	0	2162	1732	181	405	2299
119	0	0	2753	1731	180	405	2304
120	0	0	3240	1731	182	405	2308
121	0	0	3571	1730	182	405	2309
122	0	0	3761	1728	184	404	2308
123	0	0	3871	1728	185	405	2303
124	0	0	3757	1719	186	404	2293
125	0	0	3380	1720	186	405	2289
126	0	0	3201	1717	187	405	2289
127	0	0	2732	1717	187	405	2293
0	0	0	2104	1717	186	405	2298
1	0	0	1513	1718	186	401	2304
2	0	0	879	1719	184	400	2307
3	0	0	491	1721	184	400	2310
4	0	0	268	1723	183	405	2309
5	0	0	144	1724	183	404	2304
6	0	0	161	1731	181	405	2296
7	0	0	592	1730	180	404	2291
8	0	0	976	1731	180	404	2292
9	0	0	1514	1732	182	405	2294
10	0	0	2166	1731	180	405	2298
11	0	0	2766	1731	181	405	2304
12	0	0	3259	1730	182	404	2307
13	0	0	3578	1728	183	405	2308
14	0	0	3766	1729	184	401	2307
15	0	0	3874	1728	185	405	2302
16	0	0	3786	1719	186	405	2293
17	0	0	3405	1720	187	405	2288
18	0	0	3235	1718	187	405	2289
19	0	0	2769	1717	187	401	2292
20	0	0	2146	1717	186	401	2297
21	0	0	1563	1718	186	401	2303
22	0	0	906	1718	184	404	2307
23	0	0	506	1720	183	405	2308
24	0	0	277	1722	183	404	2308
25	0	0	149	1724	182	404	2303
26	0	0	171	1730	180	405	2295
27	0	0	601	1731	181	405	2290
28	0	0	973	1730	181	405	2290
29	0	0	1518	1732	180	404	2294
30	0	0	2169	1731	182	401	2298
31	0	0	2762	1730	180	400	2303
32	0	0	3252	1730	182	400	2306
33	0	0	3577	1729	183	405	2307
34	0	0	3764	1728	184	405	2306
35	0	0	3871	1727	184	405	2301
36	0	0	3803	1720	187	405	2292
37	0	0	3427	1719	187	401	2287
38	0	0	3253	1717	188	404	2288
39	0	0	2796	1717	187	404	2292
40	0	0	2166	1718	187	404	2296
41	0	0	1579	1717	186	404	2302
42	0	0	926	1718	185	404	2306
43	0	0	519	1720	184	404	2308
44	0	0	280	1722	183	405	2307
45	0	0	151	1723	182	406	2302
46	0	0	160	1729	180	404	2294
47	0	0	596	1731	180	405	2290
48	0	0	978	1731	180	401	2290
49	0	0	1517	1731	181	400	2293
50	0	0	2176	1731	181	400	2297
51	0	0	2779	1731	181	405	2302
52	0	0	3279	1729	183	405	2305
53	0	0	3588	1728	183	405	2306
54	0	0	3771	1728	184	404	2305
55	0	0	3874	1726	185	405	2300
56	0	0	3821	1719	187	405	2291
57	0	0	3470	1719	187	405	2287
58	0	0	3314	1717	186	404	2287
59	0	0	2856	1716	187	405	2290
60	0	0	2221	1717	186	404	2295
61	0	0	1638	1717	186	404	2301
62	0	0	963	1718	185	405	2305
63	0	0	539	1719	184	404	2307
64	0	0	292	1721	182	405	2306
65	0	0	156	1722	182	404	2302
66	0	0	166	1730	181	401	2294
67	0	0	625	1730	181	401	2289
68	0	0	1009	1730	181	400	2289
69	0	0	1538	1731	181	405	2292
70	0	0	2180	1730	180	404	2296
71	0	0	2765	1730	181	405	2301
72	0	0	3254	1729	182	404	2304
73	0	0	3575	1728	182	405	2305
74	0	0	3762	1727	183	404	2304
75	0	0	3866	1726	185	405	2299
76	0	0	3811	1718	187	404	2291
77	0	0	3440	1719	187	405	2286
78	0	0	3273	1717	187	404	2286
79	0	0	2823	1716	187	404	2290
80	0	0	2185	1716	187	405	2295
81	0	0	1613	1717	187	406	2300
82	0	0	951	1718	185	405	2305
83	0	0	526	1720	184	404	2306
84	0	0	285	1721	184	404	2306
85	0	0	150	1723	182	405	2301
86	0	0	145	1729	180	405	2293
87	0	0	574	1729	181	405	2288
88	0	0	932	1730	181	405	2288
89	0	0	1463	1730	181	406	2291
90	0	0	2120	1730	181	404	2295
91	0	0	2724	1730	182	405	2300
92	0	0	3230	1728	182	404	2304
93	0	0	3559	1728	183	404	2305
94	0	0	3753	1727	184	405	2304
95	0	0	3861	1726	185	404	2299
96	0	0	3822	1718	186	404	2290
97	0	0	3432	1718	187	404	2285
98	0	0	3269	1717	187	405	2286
99	0	0	2820	1717	187	405	2289
100	0	0	2197	1716	186	405	2293
101	0	0	1619	1717	186	404	2300
102	0	0	952	1717	185	404	2304
103	0	0	530	1719	184	404	2306
104	0	0	286	1720	183	404	2305
105	0	0	149	1723	182	404	2301
106	0	0	141	1728	182	405	2292
107	0	0	579	1729	180	405	2288
108	0	0	953	1730	180	404	2288
109	0	0	1472	1730	181	405	2290
110	0	0	2118	1729	181	405	2295
111	0	0	2715	1729	182	405	2300
112	0	0	3230	1729	183	405	2304
113	0	0	3557	1728	183	404	2304
114	0	0	3749	1727	183	404	2304
115	0	0	3859	1727	185	405	2299
116	0	0	3832	1717	186	406	2289
117	0	0	3440	1718	187	405	2284
118	0	0	3290	1716	187	404	2285
119	0	0	2845	1715	187	404	2288
120	0	0	2220	1716	187	405	2293
121	0	0	1650	1716	185	404	2299
122	0	0	981	1717	185	404	2303
123	0	0	542	1719	183	404	2305
124	0	0	292	1720	184	405	2305
125	0	0	153	1722	182	405	2300
126	0	0	131	1728	182	404	2291
127	0	0	568	1729	181	405	2287
0	0	0	924	1729	179	405	2287
1	0	0	1438	1729	180	405	2290
2	0	0	2087	1729	180	405	2294
3	0	0	2672	1729	181	405	2299
4	0	0	3171	1729	182	405	2302
5	0	0	3520	1728	183	404	2304
6	0	0	3729	1727	184	405	2303
7	0	0	3847	1726	184	404	2298
8	0	0	3815	1717	186	404	2289
9	0	0	3423	1719	187	404	2285
10	0	0	3279	1717	187	404	2284
11	0	0	2849	1716	186	404	2287
12	0	0	2229	1716	188	404	2293
13	0	0	1654	1716	186	405	2298
14	0	0	986	1717	185	404	2302
15	0	0	548	1719	183	404	2305
16	0	0	295	1720	183	404	2304
17	0	0	153	1722	182	405	2300
18	0	0	149	1728	182	405	2291
19	0	0	576	1729	180	405	2287
20	0	0	937	1729	181	404	2286
21	0	0	1445	1730	180	405	2289
22	0	0	2086	1729	181	404	2294
23	0	0	2674	1729	181	404	2298
24	0	0	3187	1729	181	405	2302
25	0	0	3528	1727	183	404	2303
26	0	0	3732	1725	183	405	2303
27	0	0	3847	1725	184	404	2297
28	0	0	3803	1718	186	404	2289
29	0	0	3408	1717	187	404	2283
30	0	0	3274	1716	187	405	2284
31	0	0	2845	1715	187	404	2287
32	0	0	2223	1716	188	405	2292
33	0	0	1661	1716	186	404	2298
34	0	0	997	1717	185	404	2302
35	0	0	550	1719	183	405	2304
36	0	0	296	1720	183	406	2304
37	0	0	154	1722	183	405	2300
38	0	0	127	1728	182	404	2291
39	0	0	584	1729	181	404	2286
40	0	0	938	1729	180	405	2286
41	0	0	1443	1728	181	405	2289
42	0	0	2089	1729	181	405	2293
43	0	0	2670	1729	181	404	2298
44	0	0	3170	1728	182	405	2301
45	0	0	3520	1727	182	404	2303
46	0	0	3727	1727	183	405	2302
47	0	0	3842	1725	184	405	2297
48	0	0	3790	1717	186	405	2288
49	0	0	3382	1717	187	404	2283
50	0	0	3235	1716	188	405	2283
51	0	0	2808	1715	186	404	2286
52	0	0	2187	1715	187	404	2292
53	0	0	1617	1716	186	405	2297
54	0	0	956	1716	185	405	2301
55	0	0	530	1718	184	405	2304
56	0	0	283	1720	183	404	2304
57	0	0	146	1721	182	404	2299
58	0	0	73	1727	182	404	2290
59	0	0	514	1728	181	404	2285
60	0	0	875	1729	180	405	2285
61	0	0	1377	1729	181	404	2288
62	0	0	2009	1729	181	405	2292
63	0	0	2590	1728	180	405	2297
64	0	0	3090	1727	183	405	2301
65	0	0	3463	1727	183	404	2302
66	0	0	3694	1724	184	404	2302
67	0	0	3825	1725	184	405	2297
68	0	0	3707	1717	186	404	2288
69	0	0	3279	1716	186	405	2282
70	0	0	3131	1716	188	405	2283
71	0	0	2725	1714	187	405	2286
72	0	0	2112	1714	187	404	2291
73	0	0	1562	1715	185	404	2297
74	0	0	916	1717	185	404	2301
75	0	0	508	1718	185	404	2303
76	0	0	271	1718	183	405	2303
77	0	0	141	1720	182	405	2298
78	0	0	72	1722	181	404	2290
79	0	0	470	1728	180	404	2285
80	0	0	845	1728	181	405	2284
81	0	0	1353	1728	181	405	2288
82	0	0	1989	1728	180	405	2292
83	0	0	2582	1729	182	404	2297
84	0	0	3083	1727	182	404	2300
85	0	0	3454	1726	183	404	2303
86	0	0	3691	1725	183	404	2302
87	0	0	3827	1724	185	405	2296
88	0	0	3697	1716	186	404	2287
89	0	0	3266	1717	187	405	2283
90	0	0	3119	1715	188	404	2283
91	0	0	2718	1714	187	404	2286
92	0	0	2100	1714	187	404	2291
93	0	0	1555	1714	185	404	2296
94	0	0	908	1716	185	405	2301
95	0	0	505	1718	184	405	2303
96	0	0	274	1718	183	404	2302
97	0	0	144	1720	181	404	2298
98	0	0	75	1721	181	405	2290
99	0	0	448	1727	180	405	2285
100	0	0	773	1728	180	405	2285
101	0	0	1266	1728	180	404	2287
102	0	0	1890	1728	181	404	2292
103	0	0	2466	1726	181	404	2297
104	0	0	2965	1726	183	404	2300
105	0	0	3356	1725	183	404	2302
106	0	0	3634	1725	184	404	2301
107	0	0	3777	1724	185	405	2297
108	0	0	3574	1715	186	404	2287
109	0	0	3172	1717	187	404	2283
110	0	0	3055	1716	188	405	2282
111	0	0	2680	1714	187	405	2285
112	0	0	2086	1713	187	404	2290
113	0	0	1562	1715	186	404	2296
114	0	0	928	1715	185	405	2300
115	0	0	520	1717	183	404	2303
116	0	0	283	1719	184	405	2302
117	0	0	153	1720	182	405	2298
118	0	0	113	1726	180	404	2290
119	0	0	580	1726	181	404	2284
120	0	0	952	1728	180	405	2285
121	0	0	1454	1727	181	404	2287
122	0	0	2094	1728	181	405	2291
123	0	0	2675	1727	182	404	2296
124	0	0	3159	1726	181	405	2300
125	0	0	3508	1724	182	404	2301
126	0	0	3726	1724	183	404	2300
127	0	0	3851	1723	184	405	2296
0	0	0	3737	1715	186	405	2286
1	0	0	3285	1715	186	405	2281
2	0	0	3155	1714	187	404	2282
3	0	0	2776	1714	186	405	2284
4	0	0	2177	1713	188	405	2289
5	0	0	1662	1714	186	404	2296
6	0	0	1015	1715	185	405	2299
7	0	0	572	1716	185	405	2303
8	0	0	315	1718	183	405	2302
9	0	0	169	1719	182	405	2297
10	0	0	182	1725	181	404	2289
11	0	0	633	1727	181	404	2284
12	0	0	968	1727	180	405	2283
13	0	0	1448	1727	181	404	2286
14	0	0	2072	1727	181	404	2290
15	0	0	2631	1726	181	403	2295
16	0	0	3126	1725	183	404	2299
17	0	0	3488	1724	182	405	2300
18	0	0	3714	1724	183	405	2299
19	0	0	3843	1723	185	405	2295
20	0	0	3771	1715	186	405	2286
21	0	0	3333	1715	187	404	2281
22	0	0	3216	1713	187	404	2280
23	0	0	2861	1713	187	405	2283
24	0	0	2276	1713	187	405	2288
25	0	0	1786	1712	186	405	2294
26	0	0	1168	1714	185	405	2299
27	0	0	657	1716	185	404	2301
28	0	0	364	1717	184	404	2300
29	0	0	198	1719	182	404	2296
30	0	0	348	1724	182	405	2288
31	0	0	803	1725	181	404	2282
32	0	0	1152	1726	180	405	2282
33	0	0	1614	1725	181	404	2285
34	0	0	2230	1726	180	404	2289
35	0	0	2795	1726	182	405	2294
36	0	0	3279	1724	182	405	2297
37	0	0	3588	1724	183	405	2299
38	0	0	3772	1724	184	404	2299
39	0	0	3872	1722	185	404	2294
40	0	0	3885	1714	187	405	2285
41	0	0	3420	1715	186	404	2279
42	0	0	3307	1713	187	404	2279
43	0	0	2960	1713	188	405	2282
44	0	0	2389	1712	187	405	2288
45	0	0	1899	1712	187	404	2293
46	0	0	1273	1713	185	405	2297
47	0	0	730	1715	183	405	2299
48	0	0	401	1716	183	405	2299
49	0	0	250	1724	183	404	2295
50	0	0	451	1724	181	404	2286
51	0	0	879	1724	181	405	2281
52	0	0	1188	1725	181	405	2281
53	0	0	1638	1726	180	404	2283
54	0	0	2256	1726	181	404	2288
55	0	0	2806	1725	181	404	2293
56	0	0	3274	1725	181	404	2296
57	0	0	3580	1723	183	404	2298
58	0	0	3762	1723	184	404	2297
59	0	0	3863	1722	184	405	2292
60	0	0	3845	1713	187	403	2283
61	0	0	3356	1714	186	404	2278
62	0	0	3246	1713	188	405	2278
63	0	0	2918	1712	188	405	2281
64	0	0	2363	1711	186	404	2286
65	0	0	1905	1712	186	404	2291
66	0	0	1301	1713	185	405	2296
67	0	0	751	1715	186	405	2298
68	0	0	406	1715	183	405	2297
69	0	0	297	1723	183	405	2293
70	0	0	467	1724	181	404	2285
71	0	0	892	1724	181	404	2280
72	0	0	1196	1725	181	404	2279
73	0	0	1626	1725	180	404	2282
74	0	0	2218	1725	181	404	2286
75	0	0	2757	1725	181	403	2291
76	0	0	3219	1723	184	404	2295
77	0	0	3534	1723	183	405	2296
78	0	0	3730	1722	182	404	2296
79	0	0	3843	1722	185	405	2291
80	0	0	3776	1713	186	404	2282
81	0	0	3271	1713	187	405	2277
82	0	0	3151	1713	185	405	2276
83	0	0	2815	1711	188	405	2279
84	0	0	2253	1712	187	405	2285
85	0	0	1792	1712	187	404	2289
86	0	0	1186	1713	184	404	2294
87	0	0	666	1714	183	405	2296
88	0	0	357	1716	183	405	2296
89	0	0	181	1719	182	405	2292
90	0	0	370	1723	181	404	2284
91	0	0	821	1724	180	403	2278
92	0	0	1145	1724	180	405	2278
93	0	0	1588	1726	181	405	2281
94	0	0	2197	1725	181	404	2284
95	0	0	2749	1724	181	404	2289
96	0	0	3228	1723	182	404	2293
97	0	0	3545	1722	183	405	2295
98	0	0	3736	1722	183	405	2294
99	0	0	3841	1720	185	405	2290
100	0	0	3781	1713	186	405	2281
101	0	0	3262	1712	186	404	2275
102	0	0	3109	1712	188	405	2275
103	0	0	2788	1711	188	405	2277
104	0	0	2233	1711	188	405	2282
105	0	0	1777	1711	186	404	2288
106	0	0	1189	1712	186	405	2292
107	0	0	660	1713	184	404	2295
108	0	0	352	1715	183	405	2294
109	0	0	178	1717	183	404	2291
110	0	0	305	1723	181	405	2282
111	0	0	732	1724	182	404	2277
112	0	0	1034	1723	182	404	2276
113	0	0	1446	1724	180	404	2279
114	0	0	2016	1725	181	404	2283
115	0	0	2552	1724	182	404	2288
116	0	0	3001	1724	181	405	2291
117	0	0	3329	1722	183	405	2293
118	0	0	3582	1721	183	404	2292
119	0	0	3687	1721	185	404	2288
120	0	0	3511	1712	185	404	2279
121	0	0	3045	1712	186	404	2273
122	0	0	2928	1712	187	405	2274
123	0	0	2639	1711	187	405	2276
124	0	0	2116	1711	186	405	2281
125	0	0	1678	1711	186	404	2287
126	0	0	1119	1712	185	405	2292
127	0	0	623	1714	183	406	2294
0	0	0	332	1716	184	405	2293
1	0	0	167	1717	183	405	2290
2	0	0	331	1722	181	404	2281
3	0	0	764	1723	181	404	2276
4	0	0	1089	1723	181	404	2275
5	0	0	1499	1725	182	405	2277
6	0	0	2065	1723	180	405	2282
7	0	0	2588	1724	181	404	2286
8	0	0	3042	1723	182	404	2290
9	0	0	3355	1722	183	404	2292
10	0	0	3586	1722	183	404	2291
11	0	0	3680	1721	184	404	2288
12	0	0	3494	1713	186	405	2278
13	0	0	3021	1712	186	405	2273
14	0	0	2914	1712	187	404	2273
15	0	0	2643	1711	187	405	2275
16	0	0	2117	1710	187	405	2280
17	0	0	1698	1711	186	406	2286
18	0	0	1156	1712	186	405	2290
19	0	0	644	1713	183	404	2292
20	0	0	344	1715	183	405	2292
21	0	0	176	1716	182	405	2289
22	0	0	312	1722	182	404	2280
23	0	0	768	1723	182	405	2275
24	0	0	1078	1725	181	404	2274
25	0	0	1479	1724	181	404	2276
26	0	0	2049	1723	182	404	2281
27	0	0	2557	1723	181	404	2286
28	0	0	2991	1723	182	404	2290
29	0	0	3301	1722	182	404	2291
30	0	0	3533	1721	184	405	2290
31	0	0	3627	1720	184	404	2287
32	0	0	3445	1713	186	405	2278
33	0	0	2971	1712	187	405	2272
34	0	0	2864	1711	187	404	2272
35	0	0	2596	1710	188	405	2274
36	0	0	2088	1711	187	405	2279
37	0	0	1668	1710	186	404	2284
38	0	0	1121	1711	185	405	2289
39	0	0	629	1713	184	405	2291
40	0	0	339	1714	184	405	2291
41	0	0	173	1715	182	404	2288
42	0	0	353	1722	182	404	2279
43	0	0	783	1723	180	404	2274
44	0	0	1093	1724	181	404	2274
45	0	0	1485	1724	181	404	2276
46	0	0	2035	1723	181	404	2280
47	0	0	2547	1723	181	404	2284
48	0	0	2978	1722	182	404	2288
49	0	0	3287	1722	183	405	2290
50	0	0	3520	1720	183	405	2289
51	0	0	3613	1719	184	405	2286
52	0	0	3420	1712	186	405	2276
53	0	0	2947	1712	187	404	2270
54	0	0	2816	1711	188	404	2270
55	0	0	2566	1710	187	404	2273
56	0	0	2074	1710	187	405	2277
57	0	0	1659	1710	186	405	2282
58	0	0	1133	1711	184	405	2287
59	0	0	635	1712	184	404	2289
60	0	0	343	1715	184	404	2289
61	0	0	180	1716	182	405	2286
62	0	0	342	1722	182	405	2277
63	0	0	765	1723	181	404	2272
64	0	0	1080	1723	181	404	2272
65	0	0	1471	1724	180	404	2274
66	0	0	2015	1723	181	405	2277
67	0	0	2524	1723	181	405	2282
68	0	0	2944	1722	182	405	2285
69	0	0	3238	1721	184	405	2288
70	0	0	3466	1720	184	404	2287
71	0	0	3558	1720	184	404	2283
72	0	0	3381	1712	185	404	2274
73	0	0	2914	1710	187	404	2268
74	0	0	2776	1711	187	404	2267
75	0	0	2522	1710	187	405	2270
76	0	0	2041	1710	186	405	2275
77	0	0	1621	1710	185	404	2280
78	0	0	1093	1711	186	406	2284
79	0	0	617	1712	185	405	2286
80	0	0	336	1714	183	405	2287
81	0	0	177	1716	182	404	2283
82	0	0	322	1721	182	404	2274
83	0	0	745	1721	181	404	2268
84	0	0	1068	1723	181	404	2268
85	0	0	1453	1723	181	405	2269
86	0	0	1996	1723	180	405	2274
87	0	0	2501	1723	181	404	2278
88	0	0	2933	1721	182	404	2282
89	0	0	3231	1721	182	404	2284
90	0	0	3459	1721	183	405	2284
91	0	0	3546	1718	185	404	2279
92	0	0	3367	1711	186	405	2270
93	0	0	2889	1710	187	405	2264
94	0	0	2753	1711	187	405	2263
95	0	0	2511	1710	188	405	2266
96	0	0	2026	1709	187	405	2270
97	0	0	1625	1709	186	405	2275
98	0	0	1108	1710	185	405	2280
99	0	0	624	1711	184	404	2282
100	0	0	344	1713	184	405	2282
101	0	0	187	1715	183	404	2278
102	0	0	319	1721	182	404	2269
103	0	0	758	1722	181	405	2263
104	0	0	1085	1723	181	404	2262
105	0	0	1463	1723	180	404	2264
106	0	0	2011	1724	181	404	2268
107	0	0	2515	1722	182	404	2273
108	0	0	2932	1721	182	404	2276
109	0	0	3212	1720	183	405	2277
110	0	0	3434	1721	183	405	2277
111	0	0	3516	1718	184	404	2272
112	0	0	3337	1711	186	404	2262
113	0	0	2858	1711	187	404	2255
114	0	0	2718	1711	187	405	2254
115	0	0	2482	1709	187	405	2256
116	0	0	2008	1710	187	405	2261
117	0	0	1610	1709	186	405	2266
118	0	0	1114	1710	185	405	2270
119	0	0	637	1711	183	404	2272
120	0	0	355	1713	184	404	2271
121	0	0	195	1714	182	405	2267
122	0	0	347	1721	181	404	2258
123	0	0	780	1721	181	405	2251
124	0	0	1112	1723	180	404	2250
125	0	0	1482	1723	181	404	2252
126	0	0	2007	1722	181	405	2255
127	0	0	2507	1722	181	405	2259
0	0	0	2936	1721	181	404	2262
1	0	0	3209	1721	183	405	2263
2	0	0	3417	1720	184	405	2262
3	0	0	3494	1718	184	405	2257
4	0	0	3310	1710	184	405	2247
5	0	0	2832	1711	187	405	2241
6	0	0	2697	1711	188	404	2239
7	0	0	2474	1709	185	405	2240
8	0	0	2009	1708	186	404	2245
9	0	0	1627	1709	185	405	2249
10	0	0	1138	1709	185	404	2253
11	0	0	656	1711	184	405	2255
12	0	0	369	1713	184	405	2254
13	0	0	215	1719	182	405	2250
14	0	0	396	1720	180	404	2240
15	0	0	827	1721	181	405	2233
16	0	0	1160	1722	181	405	2231
17	0	0	1525	1722	181	405	2233
18	0	0	2056	1721	181	404	2236
19	0	0	2538	1721	181	404	2240
20	0	0	2942	1721	182	404	2243
21	0	0	3217	1720	182	404	2244
22	0	0	3427	1719	185	405	2243
23	0	0	3503	1717	185	405	2238
24	0	0	3342	1711	186	405	2228
25	0	0	2831	1709	188	404	2220
26	0	0	2683	1710	188	404	2219
27	0	0	2456	1708	187	405	2220
28	0	0	1988	1708	187	404	2224
29	0	0	1608	1708	185	405	2229
30	0	0	1129	1710	185	405	2233
31	0	0	659	1711	185	405	2234
32	0	0	373	1712	184	405	2233
33	0	0	216	1719	182	405	2229
34	0	0	412	1720	181	405	2219
35	0	0	841	1721	181	405	2212
36	0	0	1160	1721	180	404	2210
37	0	0	1516	1722	181	404	2211
38	0	0	2042	1721	181	404	2214
39	0	0	2539	1721	180	404	2218
40	0	0	2962	1720	183	405	2222
41	0	0	3231	1720	182	404	2222
42	0	0	3433	1719	183	404	2221
43	0	0	3512	1717	185	404	2216
44	0	0	3356	1710	186	405	2206
45	0	0	2851	1709	187	404	2198
46	0	0	2705	1709	187	405	2196
47	0	0	2488	1708	187	405	2197
48	0	0	2040	1708	187	405	2202
49	0	0	1677	1709	187	405	2206
50	0	0	1216	1709	185	404	2210
51	0	0	724	1710	184	405	2212
52	0	0	413	1712	183	405	2212
53	0	0	323	1719	182	405	2207
54	0	0	481	1720	182	404	2197
55	0	0	913	1721	181	404	2190
56	0	0	1250	1720	179	404	2188
57	0	0	1604	1721	180	404	2189
58	0	0	2127	1720	180	405	2192
59	0	0	2604	1720	181	405	2196
60	0	0	3004	1721	181	405	2200
61	0	0	3270	1720	183	406	2201
62	0	0	3466	1719	185	405	2200
63	0	0	3542	1717	184	405	2195
64	0	0	3390	1709	186	405	2184
65	0	0	2865	1709	187	405	2177
66	0	0	2713	1708	188	405	2175
67	0	0	2504	1707	187	405	2177
68	0	0	2054	1707	187	404	2181
69	0	0	1689	1709	186	405	2187
70	0	0	1221	1709	186	405	2190
71	0	0	740	1710	185	405	2193
72	0	0	420	1712	184	404	2192
73	0	0	354	1719	182	404	2188
74	0	0	515	1719	181	404	2178
75	0	0	932	1720	181	404	2170
76	0	0	1252	1719	180	405	2168
77	0	0	1599	1721	181	404	2170
78	0	0	2123	1721	181	404	2174
79	0	0	2611	1721	181	404	2178
80	0	0	3019	1720	183	405	2181
81	0	0	3281	1718	183	405	2183
82	0	0	3487	1718	184	405	2182
83	0	0	3565	1716	184	405	2177
84	0	0	3416	1709	187	405	2167
85	0	0	2896	1709	187	405	2159
86	0	0	2750	1709	189	405	2157
87	0	0	2550	1707	187	405	2159
88	0	0	2112	1707	187	405	2163
89	0	0	1769	1707	186	405	2169
90	0	0	1309	1708	185	405	2173
91	0	0	831	1709	184	404	2175
92	0	0	521	1712	182	405	2175
93	0	0	469	1719	182	404	2170
94	0	0	630	1720	183	404	2160
95	0	0	1039	1721	181	404	2153
96	0	0	1366	1721	180	404	2151
97	0	0	1712	1721	182	404	2152
98	0	0	2229	1721	181	405	2156
99	0	0	2699	1720	181	405	2160
100	0	0	3106	1719	180	405	2164
101	0	0	3361	1718	182	404	2165
102	0	0	3551	1718	184	404	2164
103	0	0	3625	1717	184	404	2160
104	0	0	3464	1709	186	404	2149
105	0	0	2924	1708	186	405	2141
106	0	0	2774	1709	187	405	2139
107	0	0	2592	1707	187	405	2141
108	0	0	2147	1706	187	405	2145
109	0	0	1814	1708	185	405	2151
110	0	0	1388	1708	186	405	2155
111	0	0	911	1709	184	405	2157
112	0	0	591	1711	183	405	2157
113	0	0	533	1718	183	404	2153
114	0	0	672	1719	183	404	2142
115	0	0	1096	1719	180	404	2134
116	0	0	1419	1719	181	405	2132
117	0	0	1763	1721	180	405	2134
118	0	0	2275	1720	181	405	2137
119	0	0	2752	1720	182	404	2142
120	0	0	3161	1719	182	405	2145
121	0	0	3406	1719	182	404	2147
122	0	0	3593	1718	184	404	2146
123	0	0	3663	1716	184	405	2141
124	0	0	3491	1708	185	405	2131
125	0	0	2966	1709	186	405	2122
126	0	0	2826	1709	187	405	2120
127	0	0	2645	1707	186	405	2121
0	0	0	2215	1707	187	405	2126
1	0	0	1879	1707	187	405	2131
2	0	0	1433	1707	184	404	2136
3	0	0	962	1709	184	404	2138
4	0	0	651	1711	184	405	2138
5	0	0	593	1718	182	405	2134
6	0	0	744	1719	181	404	2124
7	0	0	1153	1720	181	404	2116
8	0	0	1479	1720	180	404	2113
9	0	0	1805	1720	180	405	2114
10	0	0	2298	1720	180	405	2119
11	0	0	2765	1720	180	404	2123
12	0	0	3162	1719	182	404	2127
13	0	0	3405	1719	184	404	2128
14	0	0	3584	1717	184	405	2127
15	0	0	3651	1716	184	404	2122
16	0	0	3510	1708	185	404	2111
17	0	0	2953	1708	187	405	2103
18	0	0	2784	1709	187	404	2101
19	0	0	2609	1707	187	405	2103
20	0	0	2178	1706	187	405	2107
21	0	0	1853	1707	186	406	2113
22	0	0	1421	1708	185	405	2118
23	0	0	956	1709	184	404	2120
24	0	0	640	1711	183	404	2120
25	0	0	567	1716	182	404	2116
26	0	0	708	1717	181	404	2105
27	0	0	1112	1719	181	405	2098
28	0	0	1411	1720	181	405	2095
29	0	0	1735	1720	180	405	2096
30	0	0	2233	1721	180	405	2100
31	0	0	2694	1720	180	405	2105
32	0	0	3086	1720	182	405	2109
33	0	0	3322	1719	183	404	2111
34	0	0	3502	1717	184	404	2110
35	0	0	3568	1716	185	404	2105
36	0	0	3441	1708	186	405	2094
37	0	0	2887	1708	187	405	2086
38	0	0	2732	1709	188	405	2084
39	0	0	2568	1706	186	405	2086
40	0	0	2150	1707	186	405	2090
41	0	0	1833	1708	186	405	2096
42	0	0	1401	1708	186	404	2101
43	0	0	936	1709	184	405	2104
44	0	0	616	1711	184	405	2103
45	0	0	544	1716	182	404	2099
46	0	0	683	1718	182	404	2089
47	0	0	1089	1719	181	405	2081
48	0	0	1410	1720	181	405	2078
49	0	0	1719	1720	182	405	2080
50	0	0	2205	1719	180	405	2084
51	0	0	2672	1720	181	404	2088
52	0	0	3060	1718	181	404	2092
53	0	0	3301	1718	182	404	2094
54	0	0	3483	1718	185	404	2093
55	0	0	3553	1716	184	404	2089
56	0	0	3424	1708	185	405	2077
57	0	0	2862	1708	186	405	2069
58	0	0	2700	1710	187	405	2067
59	0	0	2543	1706	188	405	2069
60	0	0	2128	1707	187	405	2074
61	0	0	1808	1707	186	404	2079
62	0	0	1378	1707	185	405	2084
63	0	0	906	1709	185	404	2087
64	0	0	580	1710	181	405	2087
65	0	0	492	1714	182	405	2083
66	0	0	614	1718	181	405	2072
67	0	0	1007	1719	181	405	2064
68	0	0	1299	1719	181	405	2061
69	0	0	1606	1720	179	404	2063
70	0	0	2086	1720	181	404	2067
71	0	0	2531	1719	181	404	2072
72	0	0	2920	1719	181	404	2076
73	0	0	3139	1719	183	404	2078
74	0	0	3303	1717	182	405	2078
75	0	0	3363	1716	185	405	2073
76	0	0	3211	1708	185	404	2062
77	0	0	2651	1708	187	405	2053
78	0	0	2479	1709	186	405	2051
79	0	0	2324	1707	188	406	2053
80	0	0	1922	1706	187	405	2057
81	0	0	1645	1707	186	405	2063
82	0	0	1276	1707	184	405	2068
83	0	0	843	1708	184	405	2071
84	0	0	526	1711	181	405	2071
85	0	0	446	1714	183	405	2067
86	0	0	550	1718	183	405	2057
87	0	0	944	1718	181	404	2048
88	0	0	1263	1719	181	404	2045
89	0	0	1561	1720	180	404	2048
90	0	0	2026	1720	180	404	2051
91	0	0	2472	1719	181	404	2056
92	0	0	2861	1718	182	405	2061
93	0	0	3079	1718	183	404	2063
94	0	0	3250	1717	183	404	2063
95	0	0	3329	1716	185	405	2058
96	0	0	3188	1707	186	405	2045
97	0	0	2647	1707	187	406	2037
98	0	0	2513	1712	187	405	2035
99	0	0	2383	1707	187	405	2036
100	0	0	1973	1705	186	405	2041
101	0	0	1658	1707	186	405	2047
102	0	0	1233	1708	185	405	2053
103	0	0	764	1708	185	405	2056
104	0	0	432	1710	183	405	2055
105	0	0	353	1715	182	404	2052
106	0	0	484	1717	182	404	2040
107	0	0	896	1718	181	404	2032
108	0	0	1225	1719	181	405	2029
109	0	0	1540	1720	181	405	2030
110	0	0	2030	1720	180	405	2035
111	0	0	2503	1719	182	404	2039
112	0	0	2912	1718	183	404	2044
113	0	0	3163	1718	184	405	2045
114	0	0	3356	1716	185	405	2045
115	0	0	3450	1716	184	405	2041
116	0	0	3353	1708	185	405	2029
117	0	0	2809	1707	187	405	2021
118	0	0	2664	1711	187	405	2018
119	0	0	2542	1706	188	405	2019
120	0	0	2156	1706	187	405	2024
121	0	0	1867	1706	186	405	2030
122	0	0	1474	1706	186	405	2035
123	0	0	1024	1708	185	404	2039
124	0	0	706	1709	183	405	2038
125	0	0	641	1716	182	405	2035
126	0	0	775	1717	182	404	2024
127	0	0	1178	1718	181	404	2015
0	0	0	1507	1718	181	405	2012
1	0	0	1817	1719	182	405	2014
2	0	0	2313	1719	180	405	2018
3	0	0	2798	1718	181	405	2023
4	0	0	3226	1718	182	404	2027
5	0	0	3497	1718	183	404	2030
6	0	0	3715	1717	182	404	2029
7	0	0	3845	1715	184	405	2024
8	0	0	3821	1708	186	405	2014
9	0	0	3284	1707	187	405	2004
10	0	0	3156	1712	187	404	2001
11	0	0	3061	1706	188	404	2003
12	0	0	2690	1706	187	405	2008
13	0	0	2424	1705	186	405	2014
14	0	0	2051	1707	186	405	2019
15	0	0	1599	1708	183	404	2023
16	0	0	1279	1710	185	405	2023
17	0	0	1197	1715	182	405	2019
18	0	0	1321	1718	181	405	2008
19	0	0	1730	1717	180	405	1999
20	0	0	2067	1719	181	405	1996
21	0	0	2381	1719	181	404	1998
22	0	0	2876	1718	181	404	2002
23	0	0	3329	1718	181	404	2006
24	0	0	3611	1718	182	404	2011
25	0	0	3776	1718	183	405	2014
26	0	0	3866	1716	184	405	2013
27	0	0	3912	1715	184	405	2009
28	0	0	3939	1715	185	404	1998
29	0	0	3539	1707	187	405	1988
30	0	0	3393	1712	186	405	1985
31	0	0	3281	1706	187	406	1987
32	0	0	2870	1705	188	405	1992
33	0	0	2575	1707	186	405	1998
34	0	0	2183	1706	185	405	2003
35	0	0	1714	1708	184	405	2007
36	0	0	1360	1710	184	405	2006
37	0	0	1237	1713	182	405	2003
38	0	0	1322	1717	181	405	1992
39	0	0	1689	1718	180	404	1983
40	0	0	1967	1719	180	404	1981
41	0	0	2220	1718	181	404	1982
42	0	0	2656	1719	181	405	1987
43	0	0	3083	1719	181	405	1992
44	0	0	3441	1718	182	405	1997
45	0	0	3650	1718	182	403	2000
46	0	0	3776	1717	183	404	1999
47	0	0	3847	1716	184	405	1995
48	0	0	3882	1714	185	405	1984
49	0	0	3405	1708	187	405	1975
50	0	0	3288	1713	187	406	1972
51	0	0	3230	1706	186	404	1974
52	0	0	2898	1706	187	405	1979
53	0	0	2682	1706	185	405	1985
54	0	0	2376	1707	185	405	1992
55	0	0	1988	1708	184	404	1996
56	0	0	1723	1711	184	405	1996
57	0	0	1698	1716	182	404	1992
58	0	0	1842	1718	180	404	1982
59	0	0	2268	1718	181	404	1973
60	0	0	2625	1719	180	404	1970
61	0	0	2939	1719	180	404	1972
62	0	0	3338	1719	180	404	1977
63	0	0	3580	1719	181	405	1982
64	0	0	3718	1718	181	404	1988
65	0	0	3795	1717	183	405	1990
66	0	0	3836	1716	182	405	1991
67	0	0	3856	1716	184	405	1987
68	0	0	3863	1714	185	404	1975
69	0	0	3866	1713	186	405	1967
70	0	0	3866	1712	187	405	1964
71	0	0	3863	1711	187	404	1966
72	0	0	3706	1706	186	405	1971
73	0	0	3493	1707	186	405	1978
74	0	0	3184	1707	185	405	1984
75	0	0	2791	1708	183	404	1989
76	0	0	2534	1710	182	405	1989
77	0	0	2512	1716	182	405	1986
78	0	0	2681	1718	181	405	1976
79	0	0	3120	1719	180	404	1967
80	0	0	3439	1719	179	404	1964
81	0	0	3615	1719	181	404	1966
82	0	0	3710	1719	179	405	1971
83	0	0	3758	1719	180	405	1976
84	0	0	3783	1719	181	405	1982
85	0	0	3794	1717	181	405	1986
86	0	0	3799	1717	182	404	1985
87	0	0	3797	1715	183	404	1982
88	0	0	3795	1714	185	405	1970
89	0	0	3791	1712	186	405	1962
90	0	0	3787	1711	186	405	1959
91	0	0	3783	1712	187	405	1962
92	0	0	3778	1711	187	405	1967
93	0	0	3773	1707	186	405	1973
94	0	0	3464	1707	184	405	1980
95	0	0	3059	1708	183	405	1984
96	0	0	2776	1710	183	405	1986
97	0	0	2711	1716	182	405	1982
98	0	0	2822	1717	181	404	1973
99	0	0	3199	1718	180	404	1963
100	0	0	3451	1719	180	404	1961
101	0	0	3589	1719	180	405	1963
102	0	0	3656	1720	181	405	1968
103	0	0	3692	1719	180	405	1973
104	0	0	3708	1719	181	404	1979
105	0	0	3715	1717	183	405	1983
106	0	0	3718	1716	182	405	1983
107	0	0	3715	1715	183	405	1979
108	0	0	3713	1714	185	404	1968
109	0	0	3637	1707	186	405	1959
110	0	0	3580	1711	187	405	1957
111	0	0	3591	1707	186	405	1959
112	0	0	3241	1706	186	405	1965
113	0	0	3062	1707	186	405	1972
114	0	0	2779	1707	185	405	1978
115	0	0	2382	1707	184	405	1983
116	0	0	2080	1710	183	405	1984
117	0	0	1986	1713	182	405	1980
118	0	0	2057	1716	181	405	1970
119	0	0	2388	1718	180	404	1961
120	0	0	2616	1718	180	404	1959
121	0	0	2747	1718	180	403	1961
122	0	0	3055	1718	180	404	1966
123	0	0	3327	1718	180	404	1972
124	0	0	3480	1718	180	405	1978
125	0	0	3565	1717	183	405	1981
126	0	0	3557	1712	183	404	1982
127	0	0	3417	1710	184	405	1978
0	0	0	3192	1707	185	405	1968
1	0	0	2476	1705	187	405	1959
2	0	0	2272	1711	187	405	1957
3	0	0	2305	1706	187	405	1959
4	0	0	2080	1705	186	405	1964
5	0	0	1996	1706	187	405	1971
6	0	0	1808	1707	186	405	1978
7	0	0	1479	1707	184	405	1982
8	0	0	1194	1708	184	405	1983
9	0	0	1089	1712	182	404	1980
10	0	0	1147	1717	181	405	1971
11	0	0	1471	1716	179	404	1961
12	0	0	1701	1718	180	404	1959
13	0	0	1808	1718	181	405	1961
14	0	0	2099	1717	180	404	1966
15	0	0	2385	1718	182	405	1972
16	0	0	2604	1717	182	404	1978
17	0	0	2645	1716	182	405	1981
18	0	0	2670	1715	183	404	1982
19	0	0	2616	1709	184	405	1979
20	0	0	2449	1706	185	405	1968
21	0	0	1735	1705	187	405	1959
22	0	0	1518	1711	187	405	1957
23	0	0	1564	1706	186	404	1959
24	0	0	1353	1704	187	405	1965
25	0	0	1332	1708	187	405	1971
26	0	0	1229	1705	185	405	1978
27	0	0	996	1705	185	405	1983
28	0	0	804	1708	184	405	1983
29	0	0	783	1714	184	404	1981
30	0	0	908	1714	182	405	1971
31	0	0	1318	1716	181	404	1962
32	0	0	1628	1716	181	405	1960
33	0	0	1783	1717	182	405	1962
34	0	0	2103	1716	181	405	1967
35	0	0	2393	1717	181	405	1973
36	0	0	2597	1716	182	405	1979
37	0	0	2587	1712	182	405	1983
38	0	0	2537	1712	184	405	1984
39	0	0	2451	1708	183	405	1980
40	0	0	2287	1706	185	405	1971
41	0	0	1528	1704	185	405	1961
42	0	0	1230	1708	188	404	1959
43	0	0	1235	1705	188	404	1961
44	0	0	1025	1703	187	405	1967
45	0	0	1025	1709	187	405	1974
46	0	0	957	1705	186	405	1980
47	0	0	737	1705	185	405	1985
48	0	0	561	1707	185	405	1987
49	0	0	565	1714	183	405	1984
50	0	0	683	1714	182	405	1975
51	0	0	1066	1716	180	404	1967
52	0	0	1347	1716	181	404	1964
53	0	0	1437	1716	182	404	1966
54	0	0	1662	1716	181	405	1972
55	0	0	1863	1715	182	405	1978
56	0	0	2008	1715	182	404	1984
57	0	0	1947	1710	182	404	1988
58	0	0	1889	1710	184	405	1989
59	0	0	1822	1709	185	404	1986
60	0	0	1657	1705	185	405	1976
61	0	0	894	1703	187	405	1967
62	0	0	614	1708	187	405	1964
63	0	0	684	1705	189	405	1967
64	0	0	503	1703	187	406	1973
65	0	0	532	1709	186	405	1980
66	0	0	491	1704	186	405	1987
67	0	0	250	1705	185	405	1992
68	0	0	27	1707	184	405	1993
69	0	0	0	1713	184	405	1991
70	0	0	94	1714	182	404	1982
71	0	0	485	1715	182	405	1973
72	0	0	751	1716	181	405	1971
73	0	0	838	1716	181	405	1973
74	0	0	1086	1716	180	404	1978
75	0	0	1299	1715	181	404	1985
76	0	0	1418	1715	182	404	1991
77	0	0	1318	1709	183	404	1995
78	0	0	1209	1709	183	404	1996
79	0	0	1081	1708	185	405	1993
80	0	0	902	1704	186	405	1983
81	0	0	406	1703	187	405	1974
82	0	0	128	1703	188	406	1972
83	0	0	0	1704	190	406	1975
84	0	0	0	1703	187	405	1980
85	0	0	0	1705	187	404	1987
86	0	0	0	1705	185	405	1994
87	0	0	0	1707	186	405	1999
88	0	0	0	1708	185	405	2001
89	0	0	0	1709	185	405	1998
90	0	0	0	1711	183	401	1989
91	0	0	0	1712	181	401	1981
92	0	0	0	1716	182	405	1979
93	0	0	20	1716	182	405	1981
94	0	0	261	1715	182	404	1986
95	0	0	472	1715	182	405	1992
96	0	0	602	1714	182	405	1999
97	0	0	508	1709	184	407	2003
98	0	0	427	1709	184	405	2003
99	0	0	343	1707	185	405	2001
100	0	0	215	1705	186	405	1991
101	0	0	66	1705	187	405	1982
102	0	0	0	1704	188	401	1980
103	0	0	0	1705	189	406	1983
104	0	0	0	1704	189	405	1989
105	0	0	0	1706	188	405	1996
106	0	0	0	1706	186	405	2002
107	0	0	0	1707	185	401	2008
108	0	0	0	1709	184	401	2009
109	0	0	0	1709	183	400	2007
110	0	0	0	1710	182	405	1998
111	0	0	0	1711	181	405	1989
112	0	0	0	1712	181	405	1987
113	0	0	0	1712	182	405	1990
114	0	0	0	1712	183	405	1995
115	0	0	0	1712	181	405	2001
116	0	0	0	1711	182	405	2007
117	0	0	6	1711	183	405	2011
118	0	0	12	1710	185	401	2013
119	0	0	19	1709	185	401	2010
120	0	0	25	1707	186	401	2001
121	0	0	32	1706	186	405	1992
122	0	0	37	1705	189	405	1989
123	0	0	43	1705	189	405	1992
124	0	0	50	1705	188	405	1998
125	0	0	56	1705	188	401	2004
126	0	0	62	1706	186	405	2011
127	0	0	69	1707	186	405	2016
0	0	0	75	1708	185	404	2018
1	0	0	80	1709	184	405	2016
2	0	0	87	1711	183	405	2007
3	0	0	188	1714	182	404	1998
4	0	0	433	1715	182	405	1996
5	0	0	486	1715	182	405	1998
6	0	0	752	1716	181	405	2004
7	0	0	1020	1714	182	404	2010
8	0	0	1238	1715	182	400	2016
9	0	0	1274	1714	183	400	2020
10	0	0	1302	1714	184	401	2021
11	0	0	1309	1709	185	404	2019
12	0	0	1261	1706	186	405	2010
13	0	0	755	1704	185	405	2000
14	0	0	464	1703	188	405	1998
15	0	0	518	1708	188	405	2001
16	0	0	377	1702	188	405	2007
17	0	0	304	1704	187	405	2013
18	0	0	243	1705	187	405	2020
19	0	0	206	1707	185	405	2025
20	0	0	189	1708	184	405	2027
21	0	0	183	1709	184	405	2025
22	0	0	183	1710	183	405	2016
23	0	0	185	1719	182	404	2008
24	0	0	431	1715	181	404	2006
25	0	0	556	1717	182	404	2008
26	0	0	903	1715	181	401	2013
27	0	0	1246	1716	181	401	2019
28	0	0	1540	1715	182	400	2025
29	0	0	1648	1714	183	405	2029
30	0	0	1727	1713	183	405	2030
31	0	0	1785	1712	185	405	2028
32	0	0	1743	1705	186	405	2019
33	0	0	1120	1703	187	405	2010
34	0	0	929	1709	188	405	2008
35	0	0	1030	1705	188	405	2011
36	0	0	803	1702	186	405	2016
37	0	0	704	1705	187	405	2022
38	0	0	545	1704	187	401	2029
39	0	0	400	1707	185	401	2034
40	0	0	326	1708	183	405	2036
41	0	0	288	1709	182	405	2034
42	0	0	271	1710	182	405	2025
43	0	0	300	1715	181	405	2017
44	0	0	602	1716	182	402	2015
45	0	0	767	1716	181	401	2017
46	0	0	1139	1716	181	405	2022
47	0	0	1522	1716	180	404	2028
48	0	0	1855	1716	182	404	2034
49	0	0	2008	1714	183	404	2038
50	0	0	2131	1714	184	404	2040
51	0	0	2220	1713	183	404	2037
52	0	0	2204	1705	186	405	2028
53	0	0	1628	1704	187	405	2019
54	0	0	1449	1710	188	405	2017
55	0	0	1516	1705	187	401	2019
56	0	0	1270	1703	187	401	2025
57	0	0	1103	1703	187	401	2031
58	0	0	870	1703	186	405	2038
59	0	0	606	1705	185	405	2043
60	0	0	462	1707	184	405	2045
61	0	0	386	1708	184	405	2043
62	0	0	345	1710	183	405	2035
63	0	0	431	1714	181	405	2026
64	0	0	754	1715	180	405	2023
65	0	0	958	1716	182	404	2026
66	0	0	1361	1716	181	405	2031
67	0	0	1775	1715	181	405	2037
68	0	0	2135	1715	182	405	2044
69	0	0	2342	1715	183	407	2048
70	0	0	2510	1714	184	405	2049
71	0	0	2630	1712	184	404	2046
72	0	0	2654	1705	185	405	2037
73	0	0	2099	1705	187	401	2029
74	0	0	1918	1710	187	401	2026
75	0	0	1955	1704	188	399	2029
76	0	0	1681	1702	187	405	2034
77	0	0	1462	1704	187	405	2041
78	0	0	1175	1704	185	405	2049
79	0	0	802	1705	184	405	2053
80	0	0	585	1707	185	405	2055
81	0	0	468	1708	183	405	2053
82	0	0	406	1710	181	405	2044
83	0	0	591	1715	180	405	2036
84	0	0	920	1716	181	405	2034
85	0	0	1143	1716	181	405	2036
86	0	0	1561	1716	181	400	2041
87	0	0	2010	1716	182	405	2048
88	0	0	2404	1716	182	405	2053
89	0	0	2651	1715	183	405	2058
90	0	0	2857	1714	184	405	2059
91	0	0	3006	1713	184	400	2057
92	0	0	3040	1706	185	401	2048
93	0	0	2504	1704	187	401	2039
94	0	0	2315	1710	187	405	2036
95	0	0	2329	1703	187	405	2039
96	0	0	2033	1703	187	404	2044
97	0	0	1771	1704	187	405	2051
98	0	0	1430	1703	186	405	2058
99	0	0	979	1705	185	405	2063
100	0	0	695	1707	183	404	2064
101	0	0	535	1708	183	404	2063
102	0	0	450	1709	182	401	2055
103	0	0	741	1715	181	400	2046
104	0	0	1067	1715	181	401	2043
105	0	0	1287	1716	181	405	2045
106	0	0	1698	1716	180	404	2051
107	0	0	2145	1715	181	404	2057
108	0	0	2535	1715	181	405	2063
109	0	0	2780	1714	183	400	2067
110	0	0	2986	1714	184	405	2069
111	0	0	3142	1713	184	405	2066
112	0	0	3186	1707	185	405	2058
113	0	0	2671	1704	187	405	2049
114	0	0	2499	1709	187	404	2046
115	0	0	2518	1705	187	405	2049
116	0	0	2220	1702	188	405	2054
117	0	0	1947	1704	187	405	2061
118	0	0	1607	1704	186	405	2067
119	0	0	1117	1705	186	405	2072
120	0	0	775	1707	183	401	2074
121	0	0	585	1707	182	401	2071
122	0	0	481	1710	183	401	2064
123	0	0	692	1715	181	404	2055
124	0	0	1016	1715	182	404	2052
125	0	0	1243	1716	181	406	2054
126	0	0	1667	1716	181	404	2059
127	0	0	2135	1716	181	405	2065
0	0	0	2573	1715	183	405	2071
1	0	0	2852	1714	183	405	2075
2	0	0	3085	1714	183	405	2076
3	0	0	3262	1713	184	404	2074
4	0	0	3312	1706	185	405	2065
5	0	0	2815	1703	187	404	2057
6	0	0	2652	1710	187	405	2054
7	0	0	2673	1704	187	405	2056
8	0	0	2367	1702	187	405	2061
9	0	0	2068	1703	187	405	2067
10	0	0	1689	1703	186	401	2074
11	0	0	1172	1704	185	401	2078
12	0	0	811	1706	184	401	2080
13	0	0	607	1707	182	405	2078
14	0	0	495	1709	182	405	2070
15	0	0	722	1715	182	404	2061
16	0	0	1070	1716	181	404	2058
17	0	0	1324	1717	181	404	2060
18	0	0	1767	1716	180	404	2065
19	0	0	2250	1716	181	405	2070
20	0	0	2713	1715	182	405	2076
21	0	0	3006	1714	183	404	2080
22	0	0	3263	1714	184	401	2081
23	0	0	3457	1713	184	400	2078
24	0	0	3523	1707	185	405	2070
25	0	0	3033	1705	186	405	2061
26	0	0	2870	1709	188	405	2058
27	0	0	2888	1704	187	405	2060
28	0	0	2568	1702	187	401	2065
29	0	0	2258	1704	185	402	2071
30	0	0	1879	1703	186	405	2077
31	0	0	1331	1705	185	405	2082
32	0	0	902	1706	183	404	2083
33	0	0	659	1707	183	404	2081
34	0	0	577	1714	182	404	2073
35	0	0	895	1715	181	405	2065
36	0	0	1234	1716	180	405	2061
37	0	0	1479	1717	181	405	2063
38	0	0	1911	1716	181	405	2067
39	0	0	2401	1716	181	400	2073
40	0	0	2854	1715	182	401	2078
41	0	0	3164	1714	183	400	2082
42	0	0	3431	1714	184	404	2083
43	0	0	3629	1712	183	405	2081
44	0	0	3707	1705	185	405	2072
45	0	0	3221	1703	187	405	2063
46	0	0	3037	1710	187	405	2060
47	0	0	3042	1704	187	405	2062
48	0	0	2733	1703	187	405	2067
49	0	0	2409	1703	187	405	2073
50	0	0	2000	1704	185	404	2079
51	0	0	1445	1704	185	405	2083
52	0	0	972	1706	184	405	2085
53	0	0	700	1708	183	405	2083
54	0	0	694	1715	181	405	2075
55	0	0	978	1715	182	404	2065
56	0	0	1285	1715	181	404	2062
57	0	0	1525	1716	181	401	2063
58	0	0	1966	1716	180	400	2068
59	0	0	2464	1715	181	400	2073
60	0	0	2934	1716	181	405	2080
61	0	0	3251	1715	183	400	2083
62	0	0	3525	1714	184	405	2084
63	0	0	3734	1713	184	404	2081
64	0	0	3822	1707	186	405	2073
65	0	0	3343	1703	187	405	2063
66	0	0	3157	1709	188	405	2060
67	0	0	3160	1704	188	405	2062
68	0	0	2834	1702	186	405	2066
69	0	0	2494	1703	187	405	2072
70	0	0	2091	1704	187	401	2078
71	0	0	1534	1704	185	400	2083
72	0	0	1040	1706	184	401	2084
73	0	0	773	1708	183	405	2082
74	0	0	750	1713	182	405	2074
75	0	0	1027	1715	181	405	2065
76	0	0	1335	1715	181	405	2062
77	0	0	1578	1716	181	401	2063
78	0	0	2015	1716	180	405	2067
79	0	0	2520	1716	182	405	2073
80	0	0	3007	1715	182	404	2078
81	0	0	3335	1714	183	404	2082
82	0	0	3616	1715	183	405	2083
83	0	0	3829	1712	184	404	2081
84	0	0	3916	1707	185	405	2072
85	0	0	3433	1704	187	405	2062
86	0	0	3245	1709	188	404	2059
87	0	0	3248	1704	188	405	2061
88	0	0	2914	1702	186	401	2065
89	0	0	2571	1703	187	401	2072
90	0	0	2153	1704	187	401	2078
91	0	0	1573	1705	185	404	2082
92	0	0	1067	1706	184	405	2083
93	0	0	789	1708	183	405	2082
94	0	0	756	1714	182	404	2073
95	0	0	1019	1716	181	405	2065
96	0	0	1327	1716	181	405	2060
97	0	0	1561	1717	181	405	2062
98	0	0	2003	1717	180	404	2067
99	0	0	2513	1716	181	404	2071
100	0	0	3004	1715	181	405	2077
101	0	0	3334	1715	182	404	2081
102	0	0	3623	1714	184	405	2082
103	0	0	3846	1713	184	405	2080
104	0	0	3938	1707	185	405	2071
105	0	0	3464	1704	186	405	2061
106	0	0	3284	1710	187	401	2058
107	0	0	3283	1704	187	401	2060
108	0	0	2947	1702	187	401	2064
109	0	0	2571	1702	188	405	2070
110	0	0	2138	1703	187	405	2076
111	0	0	1551	1704	184	405	2081
112	0	0	1026	1706	183	405	2082
113	0	0	724	1707	182	405	2080
114	0	0	666	1711	182	405	2072
115	0	0	919	1715	181	405	2064
116	0	0	1234	1716	180	404	2059
117	0	0	1472	1715	181	404	2061
118	0	0	1909	1716	180	401	2065
119	0	0	2415	1716	182	400	2070
120	0	0	2919	1715	181	405	2076
121	0	0	3264	1715	182	404	2080
122	0	0	3545	1714	184	405	2081
123	0	0	3768	1713	184	405	2079
124	0	0	3862	1709	185	401	2070
125	0	0	3401	1704	185	401	2060
126	0	0	3222	1710	188	405	2057
127	0	0	3232	1704	187	405	2059
0	0	0	2899	1702	187	405	2063
1	0	0	2534	1702	186	405	2069
2	0	0	2105	1704	186	404	2076
3	0	0	1513	1705	184	405	2080
4	0	0	986	1706	184	405	2081
5	0	0	680	1708	184	405	2079
6	0	0	633	1712	182	405	2072
7	0	0	885	1714	181	400	2062
8	0	0	1206	1715	182	400	2058
9	0	0	1451	1716	181	401	2059
10	0	0	1884	1716	181	404	2064
11	0	0	2393	1715	181	404	2069
12	0	0	2878	1715	182	404	2074
13	0	0	3219	1714	182	405	2078
14	0	0	3516	1714	183	405	2079
15	0	0	3752	1713	185	405	2077
16	0	0	3858	1710	185	405	2069
17	0	0	3404	1704	186	405	2059
18	0	0	3207	1710	187	404	2056
19	0	0	3217	1704	186	405	2057
20	0	0	2893	1702	187	405	2061
21	0	0	2521	1702	186	405	2067
22	0	0	2081	1703	186	405	2073
23	0	0	1489	1704	186	405	2078
24	0	0	965	1706	184	405	2079
25	0	0	647	1707	183	401	2077
26	0	0	600	1713	182	400	2070
27	0	0	840	1714	181	400	2060
28	0	0	1148	1716	181	405	2056
29	0	0	1381	1716	180	404	2057
30	0	0	1817	1716	181	404	2061
31	0	0	2339	1716	180	404	2067
32	0	0	2837	1716	181	405	2072
33	0	0	3191	1715	181	404	2076
34	0	0	3498	1714	182	405	2078
35	0	0	3745	1712	184	404	2075
36	0	0	3864	1712	184	404	2067
37	0	0	3419	1704	186	405	2056
38	0	0	3221	1708	187	401	2053
39	0	0	3233	1704	187	405	2054
40	0	0	2907	1702	187	405	2059
41	0	0	2531	1703	186	405	2064
42	0	0	2087	1704	187	404	2071
43	0	0	1488	1705	184	401	2075
44	0	0	952	1706	185	401	2077
45	0	0	635	1707	183	401	2075
46	0	0	525	1712	182	404	2067
47	0	0	766	1715	181	404	2057
48	0	0	1074	1716	181	405	2054
49	0	0	1309	1716	180	405	2054
50	0	0	1747	1715	180	405	2058
51	0	0	2262	1716	181	404	2064
52	0	0	2769	1715	182	405	2069
53	0	0	3132	1714	182	404	2073
54	0	0	3442	1714	184	405	2074
55	0	0	3696	1713	185	405	2072
56	0	0	3825	1712	185	405	2064
57	0	0	3410	1704	188	404	2054
58	0	0	3207	1710	187	401	2050
59	0	0	3223	1704	188	401	2051
60	0	0	2898	1702	188	401	2055
61	0	0	2511	1703	188	405	2061
62	0	0	2055	1703	186	404	2067
63	0	0	1437	1704	186	405	2072
64	0	0	913	1706	183	406	2073
65	0	0	604	1707	183	405	2071
66	0	0	432	1709	183	406	2064
67	0	0	653	1716	180	405	2054
68	0	0	969	1716	181	404	2050
69	0	0	1206	1715	180	405	2051
70	0	0	1647	1716	181	400	2055
71	0	0	2184	1716	182	400	2060
72	0	0	2697	1716	182	404	2066
73	0	0	3076	1715	181	404	2069
74	0	0	3412	1713	183	404	2071
75	0	0	3691	1712	184	404	2068
76	0	0	3841	1712	185	401	2060
77	0	0	3444	1705	187	400	2050
78	0	0	3267	1709	189	405	2045
79	0	0	3290	1703	187	405	2048
80	0	0	2954	1702	188	405	2052
81	0	0	2550	1703	186	405	2058
82	0	0	2071	1704	185	404	2064
83	0	0	1417	1705	186	405	2068
84	0	0	894	1706	185	405	2069
85	0	0	591	1707	183	404	2068
86	0	0	421	1709	181	405	2060
87	0	0	539	1715	181	400	2051
88	0	0	851	1717	181	401	2046
89	0	0	1083	1716	180	401	2048
90	0	0	1539	1716	180	405	2052
91	0	0	2088	1716	181	405	2057
92	0	0	2625	1716	182	405	2062
93	0	0	3026	1715	182	404	2066
94	0	0	3380	1714	183	405	2067
95	0	0	3673	1713	184	405	2065
96	0	0	3839	1712	186	405	2057
97	0	0	3461	1704	187	405	2046
98	0	0	3310	1709	188	405	2042
99	0	0	3342	1704	188	406	2043
100	0	0	3007	1702	188	405	2048
101	0	0	2574	1703	187	405	2054
102	0	0	2074	1703	187	404	2061
103	0	0	1395	1705	185	405	2065
104	0	0	877	1706	183	405	2066
105	0	0	576	1707	183	400	2065
106	0	0	407	1710	182	401	2058
107	0	0	382	1715	182	401	2048
108	0	0	715	1716	182	405	2042
109	0	0	966	1716	180	404	2043
110	0	0	1420	1716	180	404	2048
111	0	0	1969	1716	181	404	2053
112	0	0	2524	1715	182	405	2059
113	0	0	2948	1714	183	405	2063
114	0	0	3319	1714	183	405	2064
115	0	0	3645	1714	185	404	2062
116	0	0	3832	1712	186	404	2054
117	0	0	3489	1704	187	404	2043
118	0	0	3341	1710	188	401	2039
119	0	0	3381	1705	187	405	2040
120	0	0	3030	1702	187	405	2045
121	0	0	2579	1702	187	405	2051
122	0	0	2062	1703	186	404	2057
123	0	0	1358	1704	186	401	2062
124	0	0	853	1706	183	401	2064
125	0	0	562	1708	183	401	2062
126	0	0	397	1709	182	405	2054
127	0	0	321	1715	182	404	2044
0	0	0	609	1714	181	404	2040
1	0	0	859	1716	180	405	2041
2	0	0	1336	1716	180	404	2044
3	0	0	1906	1717	181	405	2051
4	0	0	2461	1717	182	404	2056
5	0	0	2917	1715	183	404	2060
6	0	0	3325	1714	183	400	2061
7	0	0	3676	1713	185	401	2059
8	0	0	3893	1712	186	401	2052
9	0	0	3579	1704	187	405	2040
10	0	0	3442	1709	188	405	2037
11	0	0	3479	1704	188	405	2037
12	0	0	3127	1703	187	405	2042
13	0	0	2652	1703	187	401	2048
14	0	0	2112	1703	186	405	2055
15	0	0	1391	1705	185	405	2059
16	0	0	865	1706	184	405	2061
17	0	0	566	1707	183	405	2059
18	0	0	398	1709	183	404	2052
19	0	0	306	1711	179	404	2041
20	0	0	559	1716	181	405	2037
21	0	0	803	1717	181	405	2038
22	0	0	1278	1716	181	405	2042
23	0	0	1866	1717	181	405	2048
24	0	0	2447	1717	181	400	2054
25	0	0	2915	1716	182	401	2058
26	0	0	3349	1715	184	401	2059
27	0	0	3709	1713	184	405	2057
28	0	0	3923	1712	185	405	2050
29	0	0	3692	1705	188	405	2038
30	0	0	3552	1710	187	405	2034
31	0	0	3588	1704	187	405	2035
32	0	0	3230	1703	187	405	2039
33	0	0	2749	1703	186	405	2045
34	0	0	2186	1703	186	404	2052
35	0	0	1433	1704	185	405	2057
36	0	0	891	1706	185	405	2058
37	0	0	579	1707	183	404	2057
38	0	0	401	1709	183	405	2050
39	0	0	303	1711	180	400	2040
40	0	0	520	1715	181	400	2035
41	0	0	761	1717	181	400	2036
42	0	0	1257	1718	180	405	2040
43	0	0	1858	1716	181	404	2045
44	0	0	2446	1716	181	405	2052
45	0	0	2934	1716	182	404	2056
46	0	0	3392	1715	183	405	2058
47	0	0	3733	1714	184	405	2056
48	0	0	3932	1713	184	405	2048
49	0	0	3815	1705	186	404	2037
50	0	0	3664	1710	186	405	2032
51	0	0	3692	1704	187	405	2034
52	0	0	3319	1702	188	404	2038
53	0	0	2801	1703	187	405	2044
54	0	0	2224	1704	185	404	2051
55	0	0	1468	1704	186	405	2056
56	0	0	908	1706	185	406	2058
57	0	0	582	1708	183	400	2057
58	0	0	399	1709	182	401	2050
59	0	0	299	1710	182	401	2039
60	0	0	494	1716	181	405	2035
61	0	0	741	1717	181	405	2036
62	0	0	1230	1716	180	404	2040
63	0	0	1834	1717	181	404	2046
64	0	0	2450	1716	182	405	2052
65	0	0	2960	1716	182	405	2056
66	0	0	3418	1715	183	405	2058
67	0	0	3748	1713	184	404	2056
68	0	0	3938	1712	185	404	2049
69	0	0	3869	1706	186	404	2038
70	0	0	3742	1711	187	400	2034
71	0	0	3781	1704	188	405	2035
72	0	0	3401	1703	188	404	2039
73	0	0	2884	1704	187	405	2046
74	0	0	2304	1704	185	404	2053
75	0	0	1524	1706	186	401	2058
76	0	0	936	1706	185	401	2061
77	0	0	597	1707	183	400	2059
78	0	0	401	1710	184	404	2052
79	0	0	294	1710	181	404	2042
80	0	0	509	1717	181	405	2037
81	0	0	765	1717	180	404	2039
82	0	0	1259	1717	180	404	2043
83	0	0	1871	1717	181	405	2050
84	0	0	2477	1715	181	404	2056
85	0	0	2994	1716	182	404	2060
86	0	0	3452	1715	184	401	2062
87	0	0	3760	1713	185	401	2061
88	0	0	3940	1713	185	401	2053
89	0	0	3890	1705	186	405	2042
90	0	0	3766	1709	187	405	2039
91	0	0	3808	1705	188	405	2040
92	0	0	3431	1703	188	405	2045
93	0	0	2894	1704	187	401	2052
94	0	0	2303	1703	187	405	2058
95	0	0	1526	1705	186	405	2063
96	0	0	927	1707	185	405	2066
97	0	0	586	1708	184	404	2065
98	0	0	391	1709	183	405	2058
99	0	0	284	1710	181	405	2048
100	0	0	493	1715	181	405	2044
101	0	0	741	1717	181	405	2044
102	0	0	1226	1717	180	404	2049
103	0	0	1844	1717	180	405	2056
104	0	0	2462	1717	181	400	2061
105	0	0	2974	1715	183	400	2066
106	0	0	3433	1715	183	400	2068
107	0	0	3747	1713	184	404	2066
108	0	0	3927	1712	185	405	2059
109	0	0	3909	1705	186	405	2049
110	0	0	3769	1711	188	404	2044
111	0	0	3813	1704	187	405	2046
112	0	0	3440	1704	187	405	2051
113	0	0	2907	1703	187	405	2057
114	0	0	2309	1704	185	405	2064
115	0	0	1537	1703	185	405	2069
116	0	0	933	1707	184	405	2071
117	0	0	585	1708	183	404	2070
118	0	0	384	1709	182	405	2064
119	0	0	274	1710	183	405	2054
120	0	0	488	1717	181	404	2050
121	0	0	740	1717	181	404	2051
122	0	0	1228	1716	181	400	2055
123	0	0	1839	1716	181	400	2061
124	0	0	2460	1715	182	400	2067
125	0	0	2988	1715	182	404	2072
126	0	0	3444	1714	183	404	2074
127	0	0	3749	1714	184	404	2072
0	0	0	3923	1712	186	404	2065
1	0	0	3913	1706	186	405	2055
2	0	0	3772	1712	187	404	2051
3	0	0	3818	1705	187	405	2052
4	0	0	3445	1703	187	405	2057
5	0	0	2913	1703	187	405	2063
6	0	0	2334	1704	186	401	2070
7	0	0	1570	1705	186	401	2075
8	0	0	943	1707	185	405	2077
9	0	0	585	1709	183	404	2076
10	0	0	381	1709	182	405	2069
11	0	0	267	1711	182	405	2060
12	0	0	516	1717	180	400	2056
13	0	0	759	1717	180	401	2057
14	0	0	1237	1717	181	404	2061
15	0	0	1861	1717	181	404	2067
16	0	0	2473	1716	182	405	2072
17	0	0	2985	1716	182	404	2076
18	0	0	3439	1714	183	404	2078
19	0	0	3742	1714	184	405	2077
20	0	0	3913	1713	185	405	2070
21	0	0	3917	1705	187	405	2059
22	0	0	3763	1711	188	404	2056
23	0	0	3816	1705	188	400	2057
24	0	0	3451	1703	188	400	2061
25	0	0	2934	1703	188	401	2067
26	0	0	2352	1703	186	405	2073
27	0	0	1597	1705	186	405	2078
28	0	0	961	1706	184	405	2081
29	0	0	591	1707	184	404	2080
30	0	0	377	1710	182	405	2074
31	0	0	260	1716	181	405	2063
32	0	0	541	1717	181	405	2059
33	0	0	795	1717	181	404	2060
34	0	0	1265	1717	181	404	2064
35	0	0	1871	1717	181	404	2069
36	0	0	2474	1716	181	405	2075
37	0	0	2987	1716	182	405	2079
38	0	0	3433	1715	183	405	2081
39	0	0	3729	1713	184	404	2079
40	0	0	3902	1713	184	404	2072
41	0	0	3889	1705	187	401	2062
42	0	0	3722	1711	187	401	2058
43	0	0	3774	1705	188	401	2059
44	0	0	3421	1703	187	405	2063
45	0	0	2906	1703	187	405	2069
46	0	0	2346	1703	186	404	2075
47	0	0	1602	1705	185	405	2080
48	0	0	953	1706	183	405	2082
49	0	0	582	1708	184	405	2081
50	0	0	369	1709	182	405	2074
51	0	0	264	1715	181	404	2064
52	0	0	544	1717	181	404	2060
53	0	0	778	1717	180	404	2060
54	0	0	1236	1716	181	401	2064
55	0	0	1846	1718	181	405	2069
56	0	0	2455	1716	182	405	2075
57	0	0	2960	1716	183	404	2079
58	0	0	3401	1715	184	404	2081
59	0	0	3707	1714	184	399	2079
60	0	0	3884	1713	185	401	2072
61	0	0	3858	1705	186	401	2061
62	0	0	3677	1710	187	405	2056
63	0	0	3749	1705	188	404	2057
64	0	0	3415	1703	188	405	2061
65	0	0	2908	1703	187	405	2066
66	0	0	2365	1704	186	405	2073
67	0	0	1634	1705	184	405	2078
68	0	0	976	1706	184	405	2080
69	0	0	586	1708	183	404	2078
70	0	0	366	1709	181	401	2071
71	0	0	275	1715	181	400	2060
72	0	0	593	1717	181	401	2056
73	0	0	834	1716	181	404	2056
74	0	0	1282	1717	181	403	2059
75	0	0	1875	1716	181	404	2064
76	0	0	2473	1716	182	404	2069
77	0	0	2975	1716	182	400	2073
78	0	0	3398	1715	183	404	2074
79	0	0	3699	1714	185	404	2072
80	0	0	3876	1713	185	405	2065
81	0	0	3840	1705	186	405	2053
82	0	0	3644	1710	187	405	2048
83	0	0	3727	1707	187	405	2048
84	0	0	3406	1703	188	405	2051
85	0	0	2914	1703	186	405	2056
86	0	0	2386	1704	186	405	2062
87	0	0	1661	1705	186	405	2066
88	0	0	986	1705	184	401	2067
89	0	0	591	1707	184	400	2065
90	0	0	364	1708	182	401	2057
91	0	0	276	1715	182	404	2045
92	0	0	564	1716	181	405	2039
93	0	0	771	1716	180	405	2038
94	0	0	1182	1716	181	404	2041
95	0	0	1752	1716	181	405	2045
96	0	0	2293	1717	180	405	2050
97	0	0	2718	1715	182	405	2054
98	0	0	3028	1714	183	404	2054
99	0	0	3036	1707	184	405	2049
100	0	0	2345	1705	185	405	2039
101	0	0	1493	1702	187	404	2027
102	0	0	1181	1709	188	405	2021
103	0	0	1665	1709	188	405	2021
104	0	0	1991	1708	188	404	2024
105	0	0	2084	1708	187	405	2030
106	0	0	1966	1704	186	402	2035
107	0	0	1512	1704	185	401	2040
108	0	0	1010	1705	185	401	2042
109	0	0	669	1707	184	405	2039
110	0	0	550	1710	182	405	2032
111	0	0	702	1715	182	404	2021
112	0	0	999	1716	182	405	2015
113	0	0	1239	1716	181	405	2015
114	0	0	1693	1716	180	404	2017
115	0	0	2309	1716	181	405	2022
116	0	0	2943	1716	182	404	2027
117	0	0	3432	1715	182	405	2031
118	0	0	3724	1714	184	401	2032
119	0	0	3894	1713	184	400	2031
120	0	0	3991	1713	186	405	2024
121	0	0	4044	1712	186	405	2011
122	0	0	4070	1710	187	405	2006
123	0	0	4081	1709	187	405	2006
124	0	0	3959	1703	187	401	2009
125	0	0	3379	1703	187	401	2014
126	0	0	2789	1703	187	405	2020
127	0	0	2003	1704	185	405	2025
0	0	0	1235	1705	184	404	2027
1	0	0	736	1707	184	404	2025
2	0	0	443	1708	182	405	2018
3	0	0	366	1716	181	405	2007
4	0	0	617	1716	180	405	2001
5	0	0	810	1717	181	405	2001
6	0	0	1234	1716	180	404	2004
7	0	0	1846	1716	182	404	2009
8	0	0	2462	1716	180	405	2015
9	0	0	3000	1716	182	400	2020
10	0	0	3442	1714	184	400	2022
11	0	0	3720	1715	185	400	2020
12	0	0	3880	1712	185	404	2012
13	0	0	3965	1705	186	404	2001
14	0	0	3835	1711	187	405	1996
15	0	0	3955	1709	188	405	1995
16	0	0	3722	1703	187	404	2000
17	0	0	3225	1704	186	405	2006
18	0	0	2703	1704	184	406	2012
19	0	0	1963	1705	184	405	2017
20	0	0	1229	1705	185	404	2019
21	0	0	724	1708	184	405	2018
22	0	0	455	1710	182	400	2011
23	0	0	514	1716	182	404	2001
24	0	0	769	1717	179	405	1995
25	0	0	931	1716	181	405	1995
26	0	0	1299	1717	180	404	1999
27	0	0	1877	1717	180	400	2004
28	0	0	2439	1716	183	400	2010
29	0	0	2903	1716	182	400	2015
30	0	0	3305	1715	183	404	2016
31	0	0	3627	1714	184	404	2016
32	0	0	3817	1713	186	405	2009
33	0	0	3765	1706	186	405	1998
34	0	0	3507	1711	187	405	1992
35	0	0	3633	1710	188	405	1993
36	0	0	3407	1704	187	405	1997
37	0	0	2979	1704	187	405	2003
38	0	0	2560	1704	186	400	2010
39	0	0	1942	1705	184	401	2015
40	0	0	1286	1706	184	401	2017
41	0	0	829	1707	183	404	2017
42	0	0	639	1710	182	404	2010
43	0	0	717	1716	181	404	2000
44	0	0	1012	1717	182	404	1995
45	0	0	1200	1718	181	400	1995
46	0	0	1554	1717	181	405	1998
47	0	0	2081	1718	181	405	2004
48	0	0	2611	1718	182	404	2010
49	0	0	3039	1716	182	404	2015
50	0	0	3392	1715	183	404	2017
51	0	0	3670	1714	184	404	2016
52	0	0	3835	1713	185	405	2010
53	0	0	3733	1706	185	405	1998
54	0	0	3420	1711	187	405	1993
55	0	0	3533	1711	187	405	1993
56	0	0	3325	1704	187	401	1997
57	0	0	2911	1704	186	401	2003
58	0	0	2524	1705	185	401	2010
59	0	0	1917	1706	185	405	2016
60	0	0	1289	1706	184	405	2019
61	0	0	839	1708	184	405	2018
62	0	0	640	1710	183	404	2012
63	0	0	721	1716	183	405	2001
64	0	0	974	1717	181	404	1996
65	0	0	1104	1718	180	405	1996
66	0	0	1415	1717	181	404	2000
67	0	0	1899	1717	180	404	2006
68	0	0	2387	1717	181	404	2012
69	0	0	2783	1717	182	404	2017
70	0	0	3098	1715	184	405	2020
71	0	0	3389	1715	184	405	2018
72	0	0	3584	1714	185	404	2012
73	0	0	3342	1706	187	405	2001
74	0	0	3044	1713	187	400	1996
75	0	0	3171	1711	188	401	1997
76	0	0	3008	1704	186	401	2001
77	0	0	2655	1704	188	405	2007
78	0	0	2319	1705	185	405	2015
79	0	0	1756	1706	185	405	2020
80	0	0	1160	1707	185	405	2022
81	0	0	748	1708	183	405	2022
82	0	0	590	1711	181	405	2016
83	0	0	709	1716	182	405	2006
84	0	0	1025	1718	181	404	2001
85	0	0	1198	1717	180	404	2002
86	0	0	1514	1717	180	400	2005
87	0	0	2029	1717	181	400	2011
88	0	0	2523	1717	181	404	2017
89	0	0	2905	1717	182	404	2023
90	0	0	3215	1716	182	404	2025
91	0	0	3514	1714	184	405	2024
92	0	0	3719	1714	186	400	2018
93	0	0	3478	1706	186	401	2008
94	0	0	3157	1711	188	405	2002
95	0	0	3317	1711	189	405	2002
96	0	0	3205	1703	187	404	2006
97	0	0	2882	1706	188	405	2013
98	0	0	2611	1706	186	404	2020
99	0	0	2103	1706	185	405	2026
100	0	0	1548	1707	184	405	2029
101	0	0	1159	1708	183	405	2028
102	0	0	994	1710	182	405	2023
103	0	0	1089	1717	181	401	2012
104	0	0	1382	1717	180	401	2008
105	0	0	1517	1717	180	400	2008
106	0	0	1780	1717	181	404	2012
107	0	0	2240	1718	181	404	2017
108	0	0	2672	1717	181	405	2024
109	0	0	3000	1716	182	404	2029
110	0	0	3249	1716	183	405	2032
111	0	0	3482	1715	183	404	2031
112	0	0	3633	1713	184	405	2025
113	0	0	3353	1705	186	405	2015
114	0	0	2975	1709	187	405	2010
115	0	0	3124	1711	187	404	2010
116	0	0	3053	1704	187	405	2015
117	0	0	2773	1705	187	405	2021
118	0	0	2571	1705	186	401	2028
119	0	0	2140	1705	183	401	2034
120	0	0	1642	1706	185	401	2037
121	0	0	1299	1708	183	405	2037
122	0	0	1183	1711	182	405	2032
123	0	0	1295	1716	181	404	2022
124	0	0	1606	1716	180	404	2017
125	0	0	1739	1718	180	401	2017
126	0	0	1971	1717	180	405	2021
127	0	0	2382	1716	181	405	2027
0	0	0	2787	1718	182	404	2033
1	0	0	3075	1716	182	404	2039
2	0	0	3272	1715	183	405	2041
3	0	0	3475	1714	184	404	2040
4	0	0	3612	1714	185	405	2034
5	0	0	3339	1705	186	405	2024
6	0	0	2915	1709	188	405	2019
7	0	0	3089	1710	187	405	2020
8	0	0	3095	1704	187	401	2024
9	0	0	2877	1709	186	400	2030
10	0	0	2801	1705	186	401	2037
11	0	0	2482	1705	185	405	2043
12	0	0	2073	1707	185	405	2046
13	0	0	1786	1708	183	405	2046
14	0	0	1699	1712	182	404	2040
15	0	0	1833	1716	181	404	2030
16	0	0	2146	1717	181	404	2025
17	0	0	2230	1717	180	404	2026
18	0	0	2393	1718	181	404	2030
19	0	0	2757	1717	180	404	2035
20	0	0	3077	1717	181	404	2041
21	0	0	3273	1716	182	404	2048
22	0	0	3356	1715	182	405	2050
23	0	0	3463	1713	184	405	2049
24	0	0	3529	1713	184	405	2042
25	0	0	3171	1705	186	405	2032
26	0	0	2679	1707	185	401	2027
27	0	0	2882	1710	187	401	2028
28	0	0	2969	1704	188	401	2032
29	0	0	2868	1709	187	405	2038
30	0	0	2938	1706	186	405	2045
31	0	0	2712	1705	186	405	2052
32	0	0	2374	1706	184	405	2055
33	0	0	2166	1709	183	405	2054
34	0	0	2149	1716	182	405	2049
35	0	0	2294	1715	181	405	2038
36	0	0	2675	1716	181	405	2033
37	0	0	2765	1717	180	404	2034
38	0	0	2873	1717	180	400	2037
39	0	0	3174	1716	181	400	2043
40	0	0	3405	1717	182	404	2050
41	0	0	3514	1716	182	404	2055
42	0	0	3483	1715	184	405	2058
43	0	0	3503	1714	183	404	2057
44	0	0	3503	1713	185	400	2051
45	0	0	3076	1704	187	401	2040
46	0	0	2498	1706	188	404	2035
47	0	0	2718	1709	187	405	2035
48	0	0	2921	1708	187	405	2039
49	0	0	2931	1710	187	405	2045
50	0	0	3192	1710	186	404	2052
51	0	0	3164	1706	184	405	2059
52	0	0	2958	1707	184	405	2062
53	0	0	2852	1713	183	405	2061
54	0	0	2919	1714	183	404	2056
55	0	0	3136	1715	182	400	2045
56	0	0	3464	1717	181	400	2040
57	0	0	3577	1712	181	400	2040
58	0	0	3578	1717	181	405	2044
59	0	0	3696	1716	182	405	2050
60	0	0	3755	1717	182	404	2057
61	0	0	3788	1716	181	405	2062
62	0	0	3575	1709	183	405	2064
63	0	0	3433	1709	184	405	2063
64	0	0	3326	1710	185	405	2057
65	0	0	2860	1704	185	404	2046
66	0	0	2153	1705	186	405	2040
67	0	0	2344	1710	188	404	2041
68	0	0	2654	1709	188	405	2045
69	0	0	2827	1709	188	405	2052
70	0	0	3259	1710	186	405	2059
71	0	0	3499	1712	186	404	2065
72	0	0	3548	1710	184	405	2068
73	0	0	3556	1713	182	400	2067
74	0	0	3661	1715	183	400	2062
75	0	0	3716	1715	182	400	2052
76	0	0	3745	1716	181	405	2048
77	0	0	3756	1717	181	405	2046
78	0	0	3763	1716	181	405	2051
79	0	0	3762	1716	181	404	2055
80	0	0	3760	1716	181	405	2062
81	0	0	3758	1715	182	404	2066
82	0	0	3476	1709	182	405	2069
83	0	0	3200	1708	183	405	2068
84	0	0	2984	1708	185	405	2062
85	0	0	2451	1703	186	405	2051
86	0	0	1605	1705	187	400	2046
87	0	0	1816	1710	187	405	2046
88	0	0	2264	1708	188	405	2050
89	0	0	2622	1710	188	405	2056
90	0	0	3099	1710	186	405	2063
91	0	0	3377	1711	185	400	2068
92	0	0	3531	1711	184	401	2071
93	0	0	3617	1713	183	400	2071
94	0	0	3664	1714	182	405	2066
95	0	0	3689	1716	183	404	2055
96	0	0	3700	1717	181	404	2050
97	0	0	3704	1717	181	404	2050
98	0	0	3702	1716	179	404	2053
99	0	0	3700	1717	182	405	2058
100	0	0	3698	1715	182	405	2064
101	0	0	3695	1715	182	405	2069
102	0	0	3288	1708	183	401	2071
103	0	0	2873	1708	183	401	2070
104	0	0	2537	1706	185	405	2064
105	0	0	1930	1703	187	405	2053
106	0	0	968	1703	187	405	2048
107	0	0	1037	1709	187	405	2048
108	0	0	1660	1709	188	405	2051
109	0	0	2194	1710	188	405	2058
110	0	0	2816	1710	188	404	2064
111	0	0	3182	1711	185	404	2069
112	0	0	3397	1712	184	405	2072
113	0	0	3518	1712	184	405	2072
114	0	0	3585	1714	183	406	2067
115	0	0	3621	1715	181	404	2057
116	0	0	3641	1716	180	404	2051
117	0	0	3647	1716	180	405	2051
118	0	0	3649	1716	182	405	2054
119	0	0	3650	1716	181	405	2059
120	0	0	3648	1716	181	404	2065
121	0	0	3595	1709	182	405	2069
122	0	0	2819	1707	183	405	2072
123	0	0	2164	1706	184	405	2070
124	0	0	1651	1707	185	405	2065
125	0	0	1016	1704	186	407	2054
126	0	0	418	1703	187	404	2049
127	0	0	128	1708	187	405	2048
0	0	0	730	1709	187	405	2052
1	0	0	1434	1709	187	405	2058
2	0	0	2355	1710	186	405	2064
3	0	0	2892	1711	185	404	2070
4	0	0	3212	1711	184	405	2073
5	0	0	3399	1712	183	404	2072
6	0	0	3505	1714	184	405	2067
7	0	0	3563	1715	181	405	2057
8	0	0	3596	1715	181	405	2051
9	0	0	3611	1716	181	405	2051
10	0	0	3618	1715	180	404	2054
11	0	0	3619	1716	179	404	2059
12	0	0	3618	1716	181	405	2064
13	0	0	3187	1708	181	405	2069
14	0	0	2152	1707	183	405	2072
15	0	0	1280	1705	184	405	2071
16	0	0	574	1706	186	404	2065
17	0	0	161	1704	188	404	2054
18	0	0	0	1704	187	405	2048
19	0	0	0	1704	188	405	2048
20	0	0	0	1708	187	405	2051
21	0	0	623	1708	187	405	2057
22	0	0	1860	1709	186	404	2063
23	0	0	2589	1710	185	405	2069
24	0	0	3030	1710	183	405	2072
25	0	0	3291	1713	183	405	2072
26	0	0	3440	1714	183	405	2066
27	0	0	3526	1713	183	405	2056
28	0	0	3573	1715	181	404	2050
29	0	0	3595	1715	180	404	2050
30	0	0	3607	1715	180	404	2053
31	0	0	3611	1716	180	405	2058
32	0	0	3460	1709	181	405	2064
33	0	0	2555	1708	183	405	2069
34	0	0	1351	1706	182	404	2071
35	0	0	606	1706	184	405	2070
36	0	0	173	1705	185	404	2064
37	0	0	0	1704	186	404	2053
38	0	0	0	1704	187	405	2046
39	0	0	0	1703	188	405	2046
40	0	0	0	1703	188	405	2049
41	0	0	0	1709	187	405	2055
42	0	0	1454	1709	186	406	2062
43	0	0	2350	1710	185	405	2067
44	0	0	2886	1710	185	405	2070
45	0	0	3212	1711	183	405	2070
46	0	0	3399	1713	183	404	2064
47	0	0	3507	1714	181	404	2054
48	0	0	3567	1715	181	404	2049
49	0	0	3598	1715	180	405	2048
50	0	0	3614	1715	181	404	2051
51	0	0	3621	1715	180	405	2056
52	0	0	3072	1708	181	405	2061
53	0	0	1984	1707	183	404	2065
54	0	0	974	1706	183	405	2068
55	0	0	393	1706	184	405	2066
56	0	0	53	1706	185	405	2061
57	0	0	0	1705	186	405	2050
58	0	0	0	1704	188	405	2042
59	0	0	0	1703	186	405	2042
60	0	0	0	1704	188	406	2045
61	0	0	0	1708	187	405	2051
62	0	0	1224	1709	185	405	2058
63	0	0	2231	1710	186	404	2064
64	0	0	2821	1710	185	405	2067
65	0	0	3177	1711	184	404	2066
66	0	0	3388	1712	182	404	2061
67	0	0	3509	1714	182	405	2050
68	0	0	3576	1715	181	405	2044
69	0	0	3612	1714	180	405	2043
70	0	0	3631	1715	180	404	2045
71	0	0	3555	1708	181	405	2051
72	0	0	2588	1707	182	405	2057
73	0	0	1450	1707	181	405	2062
74	0	0	670	1706	183	405	2064
75	0	0	225	1707	184	405	2063
76	0	0	0	1706	184	405	2057
77	0	0	0	1704	186	405	2045
78	0	0	0	1705	186	405	2039
79	0	0	0	1703	188	405	2038
80	0	0	0	1703	187	405	2041
81	0	0	0	1707	186	404	2048
82	0	0	725	1709	186	404	2054
83	0	0	1942	1709	186	404	2060
84	0	0	2658	1710	184	405	2063
85	0	0	3094	1711	183	405	2062
86	0	0	3349	1712	183	405	2057
87	0	0	3497	1713	182	404	2046
88	0	0	3583	1714	180	405	2039
89	0	0	3628	1714	180	405	2038
90	0	0	3310	1709	180	405	2041
91	0	0	2595	1707	181	405	2045
92	0	0	1510	1708	181	404	2052
93	0	0	726	1707	182	405	2057
94	0	0	271	1706	183	404	2059
95	0	0	9	1706	185	404	2057
96	0	0	0	1706	185	405	2052
97	0	0	0	1705	186	405	2040
98	0	0	0	1704	189	405	2034
99	0	0	0	1704	188	405	2033
100	0	0	0	1703	188	404	2036
101	0	0	0	1708	188	405	2041
102	0	0	259	1708	186	405	2049
103	0	0	1294	1710	186	405	2055
104	0	0	2149	1710	185	405	2057
105	0	0	2784	1712	183	405	2056
106	0	0	3183	1712	183	405	2051
107	0	0	3421	1713	182	405	2040
108	0	0	3558	1713	182	406	2034
109	0	0	3451	1708	181	405	2033
110	0	0	2443	1707	180	404	2035
111	0	0	1603	1707	181	404	2040
112	0	0	799	1708	181	404	2046
113	0	0	336	1707	182	404	2052
114	0	0	65	1707	183	405	2054
115	0	0	0	1707	184	405	2053
116	0	0	0	1707	184	405	2046
117	0	0	0	1705	186	404	2035
118	0	0	0	1703	188	405	2028
119	0	0	0	1704	187	406	2028
120	0	0	0	1704	187	405	2030
121	0	0	0	1708	187	405	2036
122	0	0	0	1709	186	404	2042
123	0	0	734	1710	187	405	2048
124	0	0	1398	1710	185	405	2052
125	0	0	1907	1711	184	405	2051
126	0	0	2343	1712	182	405	2045
127	0	0	2613	1713	182	405	2034
0	0	0	3079	1715	182	404	2028
1	0	0	2687	1708	180	405	2027
2	0	0	1780	1707	180	404	2029
3	0	0	1032	1708	180	405	2035
4	0	0	491	1709	183	404	2040
5	0	0	186	1708	183	405	2045
6	0	0	14	1708	183	405	2048
7	0	0	0	1707	184	405	2045
8	0	0	0	1706	186	406	2040
9	0	0	0	1705	186	405	2029
10	0	0	0	1705	186	405	2022
11	0	0	0	1704	187	405	2021
12	0	0	0	1703	188	405	2023
13	0	0	0	1707	187	405	2029
14	0	0	0	1708	186	405	2035
15	0	0	936	1710	183	405	2041
16	0	0	1508	1710	185	405	2044
17	0	0	1916	1711	183	404	2043
18	0	0	2278	1712	181	404	2039
19	0	0	2519	1713	181	403	2028
20	0	0	2988	1714	183	404	2021
21	0	0	2623	1708	180	405	2020
22	0	0	1821	1708	181	405	2022
23	0	0	1262	1707	181	404	2027
24	0	0	665	1708	181	404	2033
25	0	0	316	1708	182	405	2038
26	0	0	116	1707	183	405	2040
27	0	0	8	1707	184	405	2039
28	0	0	0	1706	185	405	2033
29	0	0	0	1704	187	405	2021
30	0	0	0	1706	187	404	2015
31	0	0	0	1705	187	405	2014
32	0	0	0	1703	187	404	2016
33	0	0	0	1706	187	405	2022
34	0	0	439	1708	187	405	2029
35	0	0	1288	1709	184	405	2035
36	0	0	1749	1710	185	405	2038
37	0	0	2029	1711	183	404	2037
38	0	0	2276	1712	183	405	2032
39	0	0	2377	1713	182	406	2021
40	0	0	2747	1713	181	404	2014
41	0	0	2488	1707	181	405	2013
42	0	0	1833	1708	181	405	2015
43	0	0	1378	1708	182	405	2021
44	0	0	806	1708	181	405	2026
45	0	0	422	1708	182	405	2030
46	0	0	206	1707	184	405	2033
47	0	0	85	1706	183	404	2032
