# bioPlux Text File Format
# Version: 1
# StartDateTime: 2011-07-18 09:15:14
# SamplingFrequency: 1000
# SampledChannels: 1 2 3 4
# SamplingResolution: 12
# AcquiringDevice: 00:07:80:42:0F:95
# EndOfHeader
0	0	0	2359	4	183	1683
1	0	0	2296	4	183	1683
2	0	0	2216	3	183	1684
3	0	0	2130	4	183	1683
4	0	0	2038	4	184	1683
5	0	0	1966	5	184	1683
6	0	0	1943	4	184	1683
7	0	0	1921	3	182	1684
8	0	0	1904	5	184	1683
9	0	0	1925	5	184	1683
10	0	0	1977	5	183	1683
11	0	0	2048	5	183	1683
12	0	0	2121	4	182	1684
13	0	0	2212	5	183	1684
14	0	0	2281	5	183	1683
15	0	0	2322	5	183	1683
16	0	0	2340	5	184	1683
17	0	0	2374	5	183	1683
18	0	0	2369	4	183	1683
19	0	0	2315	5	184	1683
20	0	0	2288	4	184	1683
21	0	0	2248	4	184	1684
22	0	0	2176	4	183	1684
23	0	0	2103	4	184	1683
24	0	0	2036	4	183	1684
25	0	0	1965	4	186	1683
26	0	0	1947	4	185	1683
27	0	0	1955	4	184	1684
28	0	0	1951	5	184	1683
29	0	0	1960	5	185	1683
30	0	0	1981	5	184	1683
31	0	0	1995	5	184	1683
32	0	0	2019	3	184	1683
33	0	0	2087	5	184	1684
34	0	0	2183	4	183	1683
35	0	0	2247	5	183	1683
36	0	0	2270	4	183	1683
37	0	0	2327	5	183	1684
38	0	0	2361	4	184	1683
39	0	0	2326	4	183	1684
40	0	0	2278	5	183	1683
41	0	0	2245	4	184	1683
42	0	0	2236	3	182	1684
43	0	0	2226	4	184	1683
44	0	0	2175	4	183	1683
45	0	0	2094	4	183	1683
46	0	0	2029	4	182	1683
47	0	0	1998	4	183	1684
48	0	0	2002	5	184	1683
49	0	0	2017	5	184	1683
50	0	0	2017	5	183	1683
51	0	0	2006	4	184	1684
52	0	0	2049	4	183	1684
53	0	0	2144	5	182	1684
54	0	0	2232	5	182	1683
55	0	0	2287	5	182	1683
56	0	0	2300	5	183	1684
57	0	0	2326	4	182	1684
58	0	0	2348	5	183	1683
59	0	0	2337	5	183	1683
60	0	0	2332	5	183	1683
61	0	0	2310	4	184	1683
62	0	0	2252	3	183	1684
63	0	0	2182	4	184	1683
64	0	0	2124	4	184	1684
65	0	0	2076	4	183	1683
66	0	0	2009	4	185	1684
67	0	0	1923	4	184	1683
68	0	0	1873	4	184	1683
69	0	0	1890	5	183	1684
70	0	0	1903	5	183	1683
71	0	0	1923	5	184	1684
72	0	0	1974	4	184	1684
73	0	0	2057	5	183	1683
74	0	0	2141	5	182	1683
75	0	0	2236	5	185	1683
76	0	0	2324	5	184	1683
77	0	0	2396	5	183	1684
78	0	0	2436	5	183	1683
79	0	0	2438	5	183	1684
80	0	0	2434	5	184	1683
81	0	0	2382	4	184	1684
82	0	0	2307	4	184	1684
83	0	0	2216	4	184	1683
84	0	0	2102	4	184	1683
85	0	0	1985	4	183	1683
86	0	0	1905	4	183	1683
87	0	0	1875	4	183	1683
88	0	0	1892	5	184	1684
89	0	0	1941	5	183	1683
90	0	0	2011	5	184	1683
91	0	0	2070	5	183	1684
92	0	0	2125	4	183	1684
93	0	0	2206	5	183	1683
94	0	0	2296	5	183	1684
95	0	0	2368	5	183	1684
96	0	0	2394	4	183	1683
97	0	0	2404	5	182	1684
98	0	0	2402	5	182	1683
99	0	0	2376	4	183	1684
100	0	0	2342	4	184	1683
101	0	0	2285	4	183	1683
102	0	0	2207	4	183	1684
103	0	0	2122	4	184	1683
104	0	0	2031	4	183	1683
105	0	0	1961	4	184	1683
106	0	0	1953	5	182	1683
107	0	0	1972	5	182	1684
108	0	0	2021	5	183	1683
109	0	0	2081	5	183	1683
110	0	0	2114	5	185	1683
111	0	0	2125	5	183	1683
112	0	0	2153	4	183	1684
113	0	0	2197	5	184	1683
114	0	0	2248	5	184	1684
115	0	0	2287	5	183	1685
116	0	0	2317	5	182	1684
117	0	0	2359	5	183	1684
118	0	0	2399	5	183	1683
119	0	0	2404	4	183	1683
120	0	0	2364	5	183	1683
121	0	0	2285	4	184	1683
122	0	0	2178	4	183	1683
123	0	0	2088	3	184	1683
124	0	0	2037	4	184	1683
125	0	0	2014	4	183	1684
126	0	0	1979	5	185	1683
127	0	0	1955	4	183	1684
0	0	0	1942	5	184	1683
1	0	0	1966	5	185	1684
2	0	0	2018	5	184	1683
3	0	0	2075	5	184	1683
4	0	0	2155	4	184	1684
5	0	0	2231	5	183	1684
6	0	0	2299	4	183	1683
7	0	0	2381	5	183	1683
8	0	0	2457	5	183	1683
9	0	0	2507	5	182	1683
10	0	0	2511	4	183	1683
11	0	0	2434	4	183	1683
12	0	0	2329	4	182	1683
13	0	0	2218	3	184	1683
14	0	0	2124	4	184	1684
15	0	0	2066	4	183	1683
16	0	0	2007	4	183	1683
17	0	0	1950	3	183	1683
18	0	0	1925	4	184	1683
19	0	0	1918	4	184	1684
20	0	0	1915	5	184	1683
21	0	0	1951	5	185	1684
22	0	0	2014	5	183	1684
23	0	0	2079	5	183	1683
24	0	0	2136	5	184	1684
25	0	0	2199	5	184	1683
26	0	0	2253	5	183	1683
27	0	0	2281	6	183	1683
28	0	0	2302	5	184	1683
29	0	0	2358	5	183	1684
30	0	0	2396	5	183	1683
31	0	0	2365	4	183	1683
32	0	0	2313	4	182	1683
33	0	0	2257	4	184	1683
34	0	0	2198	4	183	1684
35	0	0	2135	4	183	1684
36	0	0	2069	4	184	1683
37	0	0	2044	4	184	1683
38	0	0	2029	4	184	1684
39	0	0	1997	4	184	1684
40	0	0	1969	5	185	1683
41	0	0	1975	5	184	1683
42	0	0	2005	5	183	1684
43	0	0	2046	5	184	1683
44	0	0	2087	5	183	1684
45	0	0	2171	5	183	1683
46	0	0	2260	5	183	1683
47	0	0	2318	5	182	1684
48	0	0	2339	5	183	1684
49	0	0	2392	5	182	1684
50	0	0	2467	5	182	1683
51	0	0	2491	5	183	1683
52	0	0	2455	4	183	1684
53	0	0	2375	4	184	1684
54	0	0	2285	4	183	1684
55	0	0	2212	4	183	1683
56	0	0	2160	4	183	1684
57	0	0	2117	4	184	1684
58	0	0	2088	4	185	1683
59	0	0	2068	4	183	1684
60	0	0	2046	4	183	1683
61	0	0	2053	5	184	1683
62	0	0	2080	5	184	1683
63	0	0	2121	4	183	1684
64	0	0	2161	5	184	1684
65	0	0	2220	5	183	1683
66	0	0	2270	5	182	1684
67	0	0	2314	5	183	1684
68	0	0	2385	5	184	1683
69	0	0	2489	5	183	1684
70	0	0	2566	5	184	1683
71	0	0	2548	4	184	1684
72	0	0	2498	4	183	1683
73	0	0	2434	4	184	1684
74	0	0	2335	4	185	1684
75	0	0	2248	4	184	1683
76	0	0	2182	4	182	1683
77	0	0	2133	4	184	1684
78	0	0	2075	4	184	1683
79	0	0	2011	4	184	1684
80	0	0	1973	5	184	1683
81	0	0	1997	5	183	1683
82	0	0	2046	5	184	1684
83	0	0	2090	4	183	1684
84	0	0	2118	5	183	1683
85	0	0	2151	5	183	1683
86	0	0	2186	5	183	1683
87	0	0	2236	5	182	1684
88	0	0	2295	5	183	1683
89	0	0	2366	5	183	1683
90	0	0	2414	5	183	1683
91	0	0	2392	5	183	1684
92	0	0	2339	4	183	1684
93	0	0	2270	4	183	1683
94	0	0	2205	4	183	1684
95	0	0	2136	4	184	1683
96	0	0	2038	4	183	1684
97	0	0	1936	4	184	1683
98	0	0	1866	4	183	1683
99	0	0	1842	4	184	1684
100	0	0	1864	5	183	1683
101	0	0	1918	5	184	1684
102	0	0	1995	5	183	1684
103	0	0	2081	4	183	1683
104	0	0	2137	5	183	1684
105	0	0	2155	6	183	1683
106	0	0	2151	5	183	1683
107	0	0	2161	5	183	1684
108	0	0	2177	5	183	1683
109	0	0	2225	5	182	1684
110	0	0	2283	5	182	1683
111	0	0	2279	5	183	1683
112	0	0	2274	5	183	1684
113	0	0	2273	4	184	1683
114	0	0	2218	4	184	1684
115	0	0	2137	4	183	1683
116	0	0	2050	4	185	1683
117	0	0	1960	4	183	1683
118	0	0	1897	4	184	1684
119	0	0	1858	4	184	1684
120	0	0	1850	5	183	1683
121	0	0	1874	4	183	1683
122	0	0	1924	5	184	1684
123	0	0	1994	5	183	1684
124	0	0	2071	5	183	1683
125	0	0	2158	5	183	1684
126	0	0	2218	7	183	1684
127	0	0	2232	5	183	1684
0	0	0	2250	5	184	1684
1	0	0	2305	4	183	1683
2	0	0	2365	5	183	1683
3	0	0	2346	4	182	1683
4	0	0	2289	4	183	1684
5	0	0	2217	4	183	1684
6	0	0	2140	4	183	1684
7	0	0	2096	4	183	1683
8	0	0	2086	5	183	1684
9	0	0	2083	4	184	1683
10	0	0	2058	4	185	1683
11	0	0	1999	4	185	1684
12	0	0	1921	4	185	1684
13	0	0	1880	4	183	1683
14	0	0	1916	5	183	1684
15	0	0	1992	5	184	1684
16	0	0	2075	5	182	1684
17	0	0	2156	5	183	1683
18	0	0	2214	5	184	1683
19	0	0	2244	4	183	1683
20	0	0	2268	4	183	1683
21	0	0	2343	5	184	1683
22	0	0	2423	5	182	1684
23	0	0	2398	4	182	1684
24	0	0	2344	4	184	1683
25	0	0	2288	4	183	1683
26	0	0	2224	4	183	1683
27	0	0	2166	4	184	1683
28	0	0	2158	5	183	1683
29	0	0	2182	5	183	1683
30	0	0	2201	5	184	1683
31	0	0	2211	5	183	1684
32	0	0	2238	5	183	1684
33	0	0	2315	5	184	1683
34	0	0	2410	5	184	1683
35	0	0	2479	5	184	1683
36	0	0	2566	5	185	1684
37	0	0	2665	6	183	1683
38	0	0	2718	5	183	1684
39	0	0	2784	5	182	1685
40	0	0	2879	5	183	1683
41	0	0	2975	5	182	1684
42	0	0	3012	5	183	1683
43	0	0	2944	4	183	1683
44	0	0	2828	4	184	1683
45	0	0	2677	4	184	1683
46	0	0	2499	5	184	1683
47	0	0	2327	4	183	1683
48	0	0	2146	4	184	1683
49	0	0	1977	4	184	1683
50	0	0	1845	4	185	1683
51	0	0	1734	4	184	1683
52	0	0	1661	4	184	1683
53	0	0	1668	5	184	1683
54	0	0	1705	4	183	1683
55	0	0	1748	5	183	1683
56	0	0	1811	4	184	1684
57	0	0	1888	5	183	1683
58	0	0	1964	4	183	1684
59	0	0	2025	5	184	1684
60	0	0	2062	5	183	1683
61	0	0	2089	5	183	1684
62	0	0	2111	5	183	1683
63	0	0	2108	5	182	1683
64	0	0	2073	4	183	1683
65	0	0	2005	4	183	1683
66	0	0	1927	4	183	1683
67	0	0	1871	5	184	1683
68	0	0	1825	4	184	1683
69	0	0	1789	4	184	1683
70	0	0	1766	4	184	1683
71	0	0	1762	5	185	1684
72	0	0	1761	5	184	1683
73	0	0	1789	5	184	1684
74	0	0	1839	5	183	1684
75	0	0	1901	5	185	1684
76	0	0	1978	5	183	1684
77	0	0	2057	5	184	1684
78	0	0	2120	5	182	1683
79	0	0	2151	4	183	1683
80	0	0	2136	4	184	1683
81	0	0	2141	4	185	1684
82	0	0	2174	5	183	1683
83	0	0	2194	5	183	1683
84	0	0	2177	4	183	1683
85	0	0	2108	4	183	1683
86	0	0	2012	4	184	1683
87	0	0	1941	5	184	1683
88	0	0	1897	4	184	1683
89	0	0	1902	5	184	1683
90	0	0	1930	5	184	1683
91	0	0	1948	4	185	1684
92	0	0	1938	5	184	1683
93	0	0	1943	4	183	1684
94	0	0	1933	4	183	1684
95	0	0	1941	5	183	1684
96	0	0	2004	5	184	1684
97	0	0	2093	5	183	1683
98	0	0	2171	4	183	1684
99	0	0	2212	5	182	1683
100	0	0	2229	5	183	1683
101	0	0	2274	5	183	1684
102	0	0	2323	5	183	1683
103	0	0	2328	5	183	1683
104	0	0	2288	4	183	1683
105	0	0	2199	4	185	1684
106	0	0	2098	4	183	1683
107	0	0	2009	4	183	1683
108	0	0	1921	3	183	1683
109	0	0	1856	4	184	1683
110	0	0	1835	4	184	1684
111	0	0	1832	5	185	1684
112	0	0	1857	5	184	1683
113	0	0	1918	4	183	1684
114	0	0	1963	5	184	1684
115	0	0	1972	5	184	1683
116	0	0	1982	5	183	1684
117	0	0	2031	5	183	1683
118	0	0	2102	5	183	1683
119	0	0	2166	5	182	1683
120	0	0	2204	5	183	1683
121	0	0	2247	5	184	1684
122	0	0	2280	5	183	1683
123	0	0	2248	4	183	1683
124	0	0	2209	4	184	1683
125	0	0	2183	4	184	1683
126	0	0	2131	4	185	1683
127	0	0	2046	4	184	1683
0	0	0	1950	4	184	1683
1	0	0	1873	4	184	1683
2	0	0	1842	4	184	1684
3	0	0	1851	5	184	1684
4	0	0	1867	5	184	1683
5	0	0	1911	5	182	1684
6	0	0	1983	5	184	1684
7	0	0	2054	5	183	1683
8	0	0	2116	5	183	1683
9	0	0	2179	5	184	1683
10	0	0	2230	4	183	1683
11	0	0	2246	5	183	1683
12	0	0	2230	5	183	1683
13	0	0	2257	5	183	1683
14	0	0	2338	5	183	1683
15	0	0	2373	5	183	1683
16	0	0	2336	4	183	1685
17	0	0	2259	4	184	1683
18	0	0	2193	4	183	1683
19	0	0	2162	4	184	1684
20	0	0	2134	6	184	1683
21	0	0	2083	4	185	1683
22	0	0	2018	4	184	1684
23	0	0	1963	5	184	1683
24	0	0	1928	4	184	1683
25	0	0	1954	4	182	1683
26	0	0	1998	5	185	1683
27	0	0	2048	5	183	1683
28	0	0	2096	5	183	1684
29	0	0	2151	5	183	1683
30	0	0	2221	5	183	1683
31	0	0	2277	5	185	1683
32	0	0	2309	5	184	1683
33	0	0	2344	5	183	1683
34	0	0	2378	5	183	1683
35	0	0	2385	5	182	1684
36	0	0	2384	5	183	1683
37	0	0	2351	4	183	1683
38	0	0	2275	4	183	1684
39	0	0	2193	4	184	1683
40	0	0	2122	4	182	1684
41	0	0	2046	4	184	1683
42	0	0	1989	4	184	1683
43	0	0	1963	4	184	1683
44	0	0	1943	4	184	1683
45	0	0	1937	5	184	1683
46	0	0	1949	5	183	1683
47	0	0	1969	5	183	1683
48	0	0	1997	5	182	1683
49	0	0	2054	5	184	1683
50	0	0	2150	5	183	1683
51	0	0	2273	5	183	1683
52	0	0	2374	5	183	1684
53	0	0	2430	5	182	1684
54	0	0	2450	5	183	1683
55	0	0	2425	4	184	1683
56	0	0	2390	4	183	1683
57	0	0	2334	4	183	1683
58	0	0	2230	4	183	1683
59	0	0	2126	4	184	1683
60	0	0	2051	4	183	1684
61	0	0	2011	4	183	1683
62	0	0	2011	5	184	1683
63	0	0	2034	5	184	1683
64	0	0	2051	5	184	1683
65	0	0	2047	4	183	1683
66	0	0	2022	4	184	1683
67	0	0	2012	5	185	1684
68	0	0	2026	5	183	1683
69	0	0	2082	5	183	1683
70	0	0	2178	5	183	1683
71	0	0	2272	5	183	1683
72	0	0	2337	5	183	1683
73	0	0	2402	5	182	1683
74	0	0	2454	5	183	1683
75	0	0	2430	4	184	1683
76	0	0	2380	4	184	1683
77	0	0	2305	4	184	1683
78	0	0	2203	4	183	1684
79	0	0	2096	4	183	1683
80	0	0	2015	4	183	1683
81	0	0	1976	4	183	1683
82	0	0	1978	5	184	1683
83	0	0	1988	5	183	1683
84	0	0	1981	5	184	1683
85	0	0	2003	5	183	1683
86	0	0	2062	5	183	1683
87	0	0	2142	5	183	1683
88	0	0	2209	5	184	1684
89	0	0	2255	5	184	1684
90	0	0	2301	5	182	1684
91	0	0	2325	5	184	1684
92	0	0	2312	5	184	1684
93	0	0	2342	5	182	1684
94	0	0	2384	5	183	1683
95	0	0	2399	5	182	1684
96	0	0	2406	5	183	1684
97	0	0	2383	4	183	1684
98	0	0	2309	4	182	1683
99	0	0	2212	4	184	1683
100	0	0	2132	4	184	1683
101	0	0	2097	4	183	1683
102	0	0	2075	4	184	1683
103	0	0	2049	4	183	1683
104	0	0	2031	5	183	1684
105	0	0	2043	5	184	1683
106	0	0	2063	4	183	1683
107	0	0	2099	5	184	1684
108	0	0	2195	5	182	1684
109	0	0	2298	5	184	1683
110	0	0	2377	5	183	1684
111	0	0	2466	5	183	1684
112	0	0	2538	5	183	1684
113	0	0	2603	5	184	1684
114	0	0	2623	5	182	1683
115	0	0	2559	4	184	1684
116	0	0	2467	4	183	1683
117	0	0	2364	4	183	1683
118	0	0	2272	4	183	1683
119	0	0	2211	4	183	1683
120	0	0	2173	4	184	1683
121	0	0	2137	4	184	1683
122	0	0	2090	4	185	1683
123	0	0	2037	4	182	1683
124	0	0	1996	4	184	1683
125	0	0	2006	5	184	1683
126	0	0	2064	5	184	1683
127	0	0	2144	5	183	1684
0	0	0	2224	5	183	1684
1	0	0	2306	5	183	1683
2	0	0	2399	5	183	1684
3	0	0	2491	5	183	1684
4	0	0	2545	5	184	1684
5	0	0	2567	5	183	1684
6	0	0	2589	5	184	1683
7	0	0	2599	5	182	1684
8	0	0	2601	4	182	1683
9	0	0	2578	5	183	1683
10	0	0	2555	5	183	1684
11	0	0	2533	5	184	1683
12	0	0	2464	4	183	1683
13	0	0	2340	3	184	1683
14	0	0	2182	4	184	1683
15	0	0	2020	4	183	1684
16	0	0	1926	4	184	1683
17	0	0	1960	5	184	1683
18	0	0	2067	4	183	1683
19	0	0	2190	5	184	1684
20	0	0	2269	5	184	1683
21	0	0	2318	5	183	1684
22	0	0	2351	5	183	1683
23	0	0	2410	5	183	1684
24	0	0	2469	5	183	1684
25	0	0	2505	5	183	1684
26	0	0	2520	5	182	1683
27	0	0	2500	5	182	1684
28	0	0	2448	4	183	1683
29	0	0	2371	4	183	1683
30	0	0	2255	4	184	1684
31	0	0	2145	4	184	1683
32	0	0	2061	4	184	1683
33	0	0	2015	4	183	1684
34	0	0	2012	5	184	1684
35	0	0	1995	4	183	1684
36	0	0	1966	4	184	1683
37	0	0	1953	5	183	1684
38	0	0	1972	5	184	1684
39	0	0	2030	5	184	1683
40	0	0	2133	5	182	1683
41	0	0	2239	5	184	1683
42	0	0	2321	5	183	1683
43	0	0	2361	5	182	1683
44	0	0	2373	5	183	1683
45	0	0	2406	5	182	1683
46	0	0	2448	5	183	1683
47	0	0	2442	5	183	1683
48	0	0	2404	4	184	1683
49	0	0	2339	4	183	1683
50	0	0	2244	4	182	1683
51	0	0	2139	4	184	1684
52	0	0	2036	4	184	1683
53	0	0	1948	4	183	1684
54	0	0	1894	4	184	1684
55	0	0	1858	4	184	1684
56	0	0	1854	5	184	1683
57	0	0	1885	5	184	1683
58	0	0	1927	5	184	1683
59	0	0	1971	5	183	1684
60	0	0	2001	5	183	1684
61	0	0	2031	5	183	1684
62	0	0	2061	5	183	1683
63	0	0	2081	5	184	1683
64	0	0	2114	5	183	1683
65	0	0	2183	5	181	1683
66	0	0	2256	5	182	1683
67	0	0	2265	5	183	1684
68	0	0	2248	4	183	1684
69	0	0	2218	5	184	1683
70	0	0	2154	4	182	1684
71	0	0	2064	4	183	1683
72	0	0	1984	4	183	1683
73	0	0	1933	4	184	1683
74	0	0	1888	4	184	1683
75	0	0	1841	4	182	1684
76	0	0	1806	4	184	1683
77	0	0	1814	5	184	1683
78	0	0	1854	5	185	1683
79	0	0	1897	5	184	1684
80	0	0	1947	4	182	1683
81	0	0	2023	5	183	1683
82	0	0	2104	5	183	1683
83	0	0	2145	4	183	1683
84	0	0	2151	5	184	1684
85	0	0	2154	5	183	1684
86	0	0	2177	5	183	1684
87	0	0	2177	4	182	1683
88	0	0	2137	4	184	1683
89	0	0	2060	3	183	1684
90	0	0	1965	4	184	1683
91	0	0	1882	4	183	1683
92	0	0	1820	4	182	1683
93	0	0	1792	3	185	1683
94	0	0	1772	4	185	1684
95	0	0	1739	4	183	1683
96	0	0	1709	5	184	1683
97	0	0	1745	5	183	1683
98	0	0	1820	5	183	1683
99	0	0	1868	4	184	1684
100	0	0	1930	5	182	1683
101	0	0	2033	5	183	1684
102	0	0	2130	5	184	1683
103	0	0	2210	3	184	1683
104	0	0	2251	5	183	1684
105	0	0	2266	5	181	1683
106	0	0	2270	5	182	1683
107	0	0	2246	4	183	1683
108	0	0	2197	4	184	1683
109	0	0	2119	4	182	1683
110	0	0	2010	4	182	1684
111	0	0	1913	4	184	1683
112	0	0	1825	4	184	1683
113	0	0	1766	4	184	1683
114	0	0	1760	5	184	1684
115	0	0	1770	5	184	1684
116	0	0	1773	5	184	1683
117	0	0	1799	5	184	1684
118	0	0	1809	5	184	1684
119	0	0	1835	5	183	1684
120	0	0	1902	5	182	1683
121	0	0	1966	5	183	1684
122	0	0	2039	5	183	1683
123	0	0	2094	5	183	1683
124	0	0	2117	5	183	1684
125	0	0	2151	5	184	1683
126	0	0	2199	5	183	1683
127	0	0	2212	5	183	1683
0	0	0	2190	4	184	1683
1	0	0	2143	4	183	1684
2	0	0	2055	4	183	1684
3	0	0	1940	4	184	1683
4	0	0	1823	4	183	1684
5	0	0	1741	4	183	1683
6	0	0	1706	4	183	1684
7	0	0	1696	4	184	1684
8	0	0	1691	5	183	1683
9	0	0	1740	5	183	1683
10	0	0	1803	4	183	1684
11	0	0	1866	5	183	1683
12	0	0	1946	5	184	1684
13	0	0	2029	5	183	1683
14	0	0	2087	5	183	1683
15	0	0	2130	6	184	1684
16	0	0	2150	5	183	1683
17	0	0	2168	5	182	1683
18	0	0	2186	5	182	1683
19	0	0	2146	4	184	1684
20	0	0	2083	4	184	1684
21	0	0	2007	4	183	1684
22	0	0	1923	4	183	1683
23	0	0	1852	4	183	1684
24	0	0	1794	5	184	1683
25	0	0	1765	4	184	1683
26	0	0	1760	5	184	1684
27	0	0	1765	5	185	1683
28	0	0	1780	5	184	1683
29	0	0	1822	5	183	1683
30	0	0	1881	6	184	1684
31	0	0	1928	5	184	1684
32	0	0	1955	5	183	1684
33	0	0	1996	6	183	1683
34	0	0	2066	5	183	1683
35	0	0	2126	5	184	1684
36	0	0	2147	4	182	1684
37	0	0	2187	5	182	1684
38	0	0	2228	4	183	1683
39	0	0	2200	4	182	1684
40	0	0	2157	4	184	1684
41	0	0	2109	4	183	1684
42	0	0	2048	4	183	1684
43	0	0	1967	4	183	1683
44	0	0	1874	4	184	1683
45	0	0	1804	3	184	1683
46	0	0	1800	5	184	1684
47	0	0	1835	5	182	1684
48	0	0	1872	5	184	1683
49	0	0	1914	5	183	1683
50	0	0	1940	6	184	1684
51	0	0	1958	5	184	1684
52	0	0	1948	4	183	1684
53	0	0	1953	5	184	1683
54	0	0	1966	5	183	1683
55	0	0	1966	6	183	1684
56	0	0	2001	5	183	1684
57	0	0	2094	5	183	1684
58	0	0	2195	5	182	1684
59	0	0	2225	5	182	1684
60	0	0	2198	4	183	1684
61	0	0	2138	4	182	1684
62	0	0	2046	4	183	1684
63	0	0	1953	5	184	1683
64	0	0	1867	4	184	1683
65	0	0	1799	5	184	1683
66	0	0	1753	4	184	1684
67	0	0	1728	4	184	1684
68	0	0	1740	6	183	1683
69	0	0	1800	5	184	1683
70	0	0	1868	4	184	1684
71	0	0	1910	5	184	1684
72	0	0	1946	5	183	1684
73	0	0	1977	5	183	1683
74	0	0	2014	5	184	1683
75	0	0	2080	5	184	1683
76	0	0	2171	5	183	1683
77	0	0	2262	5	182	1684
78	0	0	2295	5	182	1683
79	0	0	2230	4	183	1683
80	0	0	2158	5	183	1683
81	0	0	2128	4	183	1684
82	0	0	2090	4	183	1684
83	0	0	1996	4	183	1684
84	0	0	1874	4	183	1683
85	0	0	1757	4	184	1683
86	0	0	1678	4	184	1684
87	0	0	1636	4	183	1684
88	0	0	1627	5	184	1683
89	0	0	1667	5	183	1683
90	0	0	1735	5	184	1683
91	0	0	1807	4	184	1684
92	0	0	1872	5	184	1683
93	0	0	1941	5	183	1683
94	0	0	2007	5	184	1683
95	0	0	2068	6	183	1683
96	0	0	2119	5	183	1684
97	0	0	2157	5	183	1683
98	0	0	2192	5	183	1683
99	0	0	2167	4	183	1683
100	0	0	2112	5	183	1683
101	0	0	2036	4	183	1684
102	0	0	1936	4	183	1683
103	0	0	1855	4	183	1684
104	0	0	1812	4	183	1683
105	0	0	1806	5	185	1683
106	0	0	1804	5	184	1684
107	0	0	1800	4	183	1683
108	0	0	1796	5	184	1683
109	0	0	1807	5	185	1683
110	0	0	1820	5	182	1684
111	0	0	1834	4	183	1684
112	0	0	1843	4	184	1684
113	0	0	1882	5	184	1683
114	0	0	1941	5	183	1683
115	0	0	1996	5	183	1683
116	0	0	2035	5	183	1684
117	0	0	2086	5	183	1683
118	0	0	2140	5	183	1684
119	0	0	2140	4	182	1683
120	0	0	2114	5	183	1683
121	0	0	2066	4	183	1684
122	0	0	1974	4	183	1683
123	0	0	1904	4	184	1684
124	0	0	1844	4	183	1683
125	0	0	1782	4	183	1684
126	0	0	1752	4	184	1684
127	0	0	1742	4	184	1684
0	0	0	1728	5	184	1683
1	0	0	1741	5	184	1683
2	0	0	1770	5	183	1684
3	0	0	1798	5	183	1683
4	0	0	1839	5	184	1684
5	0	0	1902	5	183	1683
6	0	0	1983	5	182	1683
7	0	0	2045	5	184	1684
8	0	0	2081	4	183	1684
9	0	0	2120	5	183	1683
10	0	0	2175	5	183	1683
11	0	0	2162	4	182	1683
12	0	0	2106	4	183	1683
13	0	0	2054	4	184	1683
14	0	0	1982	4	183	1684
15	0	0	1901	4	183	1684
16	0	0	1826	5	184	1684
17	0	0	1775	4	184	1683
18	0	0	1777	4	183	1684
19	0	0	1821	5	184	1683
20	0	0	1856	5	185	1683
21	0	0	1856	5	183	1683
22	0	0	1861	5	183	1684
23	0	0	1888	4	183	1684
24	0	0	1927	5	184	1684
25	0	0	1973	5	183	1683
26	0	0	2041	5	183	1683
27	0	0	2075	5	183	1684
28	0	0	2064	4	183	1684
29	0	0	2070	5	183	1684
30	0	0	2100	5	183	1683
31	0	0	2104	5	184	1683
32	0	0	2079	5	183	1683
33	0	0	2028	4	184	1684
34	0	0	1962	4	184	1684
35	0	0	1916	4	184	1683
36	0	0	1880	4	184	1683
37	0	0	1847	5	183	1683
38	0	0	1846	5	183	1683
39	0	0	1858	5	184	1683
40	0	0	1862	5	183	1683
41	0	0	1880	5	183	1683
42	0	0	1896	5	183	1684
43	0	0	1931	5	183	1684
44	0	0	1975	5	183	1684
45	0	0	2016	5	183	1684
46	0	0	2057	5	184	1683
47	0	0	2102	5	183	1683
48	0	0	2136	5	183	1684
49	0	0	2168	5	183	1684
50	0	0	2202	5	185	1684
51	0	0	2173	4	183	1683
52	0	0	2127	4	182	1684
53	0	0	2078	4	182	1684
54	0	0	2012	4	183	1683
55	0	0	1946	4	183	1683
56	0	0	1901	4	184	1683
57	0	0	1848	4	183	1684
58	0	0	1785	4	184	1684
59	0	0	1720	4	184	1684
60	0	0	1653	4	184	1683
61	0	0	1618	4	184	1683
62	0	0	1625	5	184	1684
63	0	0	1664	5	183	1684
64	0	0	1734	5	183	1683
65	0	0	1814	5	183	1683
66	0	0	1885	5	184	1683
67	0	0	1949	5	182	1683
68	0	0	2017	4	183	1683
69	0	0	2104	5	183	1683
70	0	0	2195	5	183	1683
71	0	0	2212	5	183	1683
72	0	0	2181	4	183	1684
73	0	0	2124	3	184	1684
74	0	0	2017	4	183	1683
75	0	0	1900	4	183	1683
76	0	0	1813	4	183	1683
77	0	0	1761	4	183	1683
78	0	0	1747	4	184	1684
79	0	0	1737	4	184	1683
80	0	0	1734	5	184	1684
81	0	0	1767	6	183	1683
82	0	0	1833	6	183	1683
83	0	0	1901	4	183	1684
84	0	0	1967	5	183	1684
85	0	0	2006	5	183	1683
86	0	0	2028	5	183	1683
87	0	0	2055	5	183	1684
88	0	0	2070	5	184	1684
89	0	0	2103	5	183	1684
90	0	0	2137	5	182	1683
91	0	0	2121	4	182	1683
92	0	0	2063	6	183	1683
93	0	0	1976	4	183	1684
94	0	0	1886	4	183	1683
95	0	0	1821	4	183	1684
96	0	0	1779	6	184	1683
97	0	0	1735	5	184	1683
98	0	0	1699	4	184	1684
99	0	0	1700	5	183	1683
100	0	0	1722	5	183	1683
101	0	0	1771	5	183	1684
102	0	0	1848	4	183	1683
103	0	0	1927	5	184	1683
104	0	0	1985	5	184	1684
105	0	0	2029	5	183	1683
106	0	0	2059	5	184	1683
107	0	0	2066	6	184	1683
108	0	0	2073	5	183	1684
109	0	0	2111	5	183	1683
110	0	0	2178	5	184	1684
111	0	0	2206	3	183	1683
112	0	0	2187	5	183	1683
113	0	0	2124	4	182	1684
114	0	0	2028	4	184	1683
115	0	0	1945	4	183	1683
116	0	0	1875	4	183	1683
117	0	0	1829	3	185	1684
118	0	0	1801	4	183	1684
119	0	0	1780	4	184	1683
120	0	0	1763	4	184	1683
121	0	0	1764	5	183	1684
122	0	0	1779	5	184	1683
123	0	0	1816	5	183	1684
124	0	0	1888	5	184	1683
125	0	0	1991	5	183	1683
126	0	0	2118	5	184	1684
127	0	0	2230	5	183	1684
0	0	0	2303	5	184	1684
1	0	0	2369	5	183	1684
2	0	0	2422	5	182	1683
3	0	0	2399	4	183	1683
4	0	0	2368	5	183	1683
5	0	0	2334	4	183	1683
6	0	0	2280	4	183	1683
7	0	0	2244	4	183	1683
8	0	0	2212	4	184	1683
9	0	0	2207	4	183	1683
10	0	0	2220	4	184	1684
11	0	0	2230	5	184	1683
12	0	0	2219	5	183	1683
13	0	0	2246	5	184	1683
14	0	0	2293	5	184	1684
15	0	0	2344	5	183	1684
16	0	0	2396	5	184	1684
17	0	0	2401	5	183	1683
18	0	0	2363	4	183	1684
19	0	0	2307	4	183	1684
20	0	0	2251	4	183	1684
21	0	0	2215	4	183	1684
22	0	0	2184	4	184	1683
23	0	0	2108	4	183	1684
24	0	0	1996	5	183	1683
25	0	0	1885	4	183	1683
26	0	0	1769	4	183	1683
27	0	0	1669	4	184	1683
28	0	0	1591	3	183	1683
29	0	0	1525	5	184	1683
30	0	0	1471	4	184	1684
31	0	0	1449	4	184	1683
32	0	0	1453	5	184	1683
33	0	0	1497	4	183	1683
34	0	0	1556	5	184	1683
35	0	0	1602	4	184	1684
36	0	0	1651	5	184	1683
37	0	0	1720	5	183	1684
38	0	0	1790	5	184	1683
39	0	0	1847	5	183	1683
40	0	0	1897	5	183	1684
41	0	0	1942	5	183	1683
42	0	0	1975	5	183	1683
43	0	0	1944	4	182	1683
44	0	0	1900	4	183	1684
45	0	0	1865	4	183	1683
46	0	0	1797	4	183	1683
47	0	0	1740	4	184	1683
48	0	0	1696	4	183	1683
49	0	0	1663	5	183	1684
50	0	0	1644	4	184	1684
51	0	0	1624	4	184	1684
52	0	0	1608	5	183	1683
53	0	0	1623	5	183	1684
54	0	0	1650	5	184	1684
55	0	0	1680	4	184	1684
56	0	0	1745	5	182	1684
57	0	0	1829	5	184	1683
58	0	0	1938	5	183	1683
59	0	0	2041	6	183	1684
60	0	0	2110	4	183	1684
61	0	0	2172	4	184	1683
62	0	0	2227	5	183	1683
63	0	0	2198	4	183	1683
64	0	0	2134	5	183	1684
65	0	0	2064	3	183	1684
66	0	0	1975	4	184	1683
67	0	0	1885	4	183	1683
68	0	0	1786	3	183	1683
69	0	0	1701	4	183	1683
70	0	0	1648	4	184	1684
71	0	0	1654	5	184	1684
72	0	0	1669	5	183	1683
73	0	0	1694	5	184	1683
74	0	0	1754	5	184	1683
75	0	0	1831	5	183	1684
76	0	0	1902	5	183	1683
77	0	0	1959	5	183	1683
78	0	0	2015	4	182	1683
79	0	0	2072	5	183	1683
80	0	0	2096	4	183	1684
81	0	0	2085	5	183	1684
82	0	0	2081	5	184	1683
83	0	0	2074	4	182	1683
84	0	0	2059	4	183	1683
85	0	0	2040	4	183	1684
86	0	0	2016	4	184	1683
87	0	0	1993	4	183	1683
88	0	0	1950	4	183	1684
89	0	0	1892	3	183	1683
90	0	0	1831	4	184	1684
91	0	0	1790	4	183	1683
92	0	0	1764	4	183	1683
93	0	0	1766	5	184	1683
94	0	0	1800	5	183	1684
95	0	0	1852	5	183	1684
96	0	0	1888	5	183	1683
97	0	0	1930	4	184	1684
98	0	0	1987	5	183	1683
99	0	0	2027	5	182	1684
100	0	0	2055	5	183	1684
101	0	0	2081	5	183	1684
102	0	0	2116	5	183	1683
103	0	0	2096	4	182	1683
104	0	0	2042	5	182	1683
105	0	0	1981	3	183	1684
106	0	0	1892	4	184	1683
107	0	0	1804	4	185	1683
108	0	0	1746	5	184	1683
109	0	0	1724	4	183	1684
110	0	0	1731	5	183	1684
111	0	0	1762	5	184	1683
112	0	0	1788	4	183	1683
113	0	0	1818	5	184	1683
114	0	0	1850	5	184	1684
115	0	0	1884	4	184	1684
116	0	0	1931	5	184	1683
117	0	0	1982	6	182	1683
118	0	0	2057	5	182	1684
119	0	0	2125	5	183	1684
120	0	0	2161	5	183	1683
121	0	0	2191	5	182	1683
122	0	0	2263	5	183	1683
123	0	0	2304	4	183	1684
124	0	0	2272	5	183	1684
125	0	0	2193	4	183	1683
126	0	0	2070	4	184	1683
127	0	0	1956	3	183	1683
0	0	0	1879	4	184	1683
1	0	0	1817	5	183	1684
2	0	0	1784	4	184	1684
3	0	0	1740	4	184	1683
4	0	0	1707	5	183	1683
5	0	0	1725	5	183	1683
6	0	0	1790	5	184	1684
7	0	0	1869	5	183	1684
8	0	0	1930	5	183	1684
9	0	0	2000	5	182	1683
10	0	0	2077	5	183	1683
11	0	0	2124	5	183	1684
12	0	0	2166	5	183	1683
13	0	0	2230	4	183	1683
14	0	0	2293	5	184	1683
15	0	0	2277	4	184	1683
16	0	0	2226	4	182	1683
17	0	0	2173	4	183	1684
18	0	0	2075	4	183	1683
19	0	0	1972	4	184	1683
20	0	0	1898	4	183	1684
21	0	0	1862	5	184	1683
22	0	0	1839	3	183	1683
23	0	0	1840	5	183	1684
24	0	0	1851	5	184	1683
25	0	0	1889	5	184	1683
26	0	0	1932	5	183	1684
27	0	0	1966	5	184	1683
28	0	0	2026	5	183	1683
29	0	0	2082	4	183	1684
30	0	0	2125	5	183	1684
31	0	0	2178	5	182	1684
32	0	0	2205	5	183	1684
33	0	0	2244	5	183	1683
34	0	0	2276	4	183	1683
35	0	0	2243	4	183	1684
36	0	0	2199	4	183	1684
37	0	0	2170	4	182	1684
38	0	0	2111	4	183	1683
39	0	0	2028	4	183	1683
40	0	0	1957	4	185	1683
41	0	0	1907	4	182	1684
42	0	0	1881	4	184	1684
43	0	0	1869	5	184	1683
44	0	0	1868	5	184	1683
45	0	0	1888	5	183	1683
46	0	0	1924	6	184	1684
47	0	0	1966	4	184	1684
48	0	0	2004	5	183	1684
49	0	0	2046	5	183	1683
50	0	0	2105	5	183	1684
51	0	0	2152	5	183	1684
52	0	0	2201	5	183	1684
53	0	0	2275	5	182	1684
54	0	0	2340	5	183	1683
55	0	0	2307	4	183	1683
56	0	0	2245	4	183	1683
57	0	0	2185	3	183	1684
58	0	0	2114	4	184	1683
59	0	0	2031	3	183	1684
60	0	0	1937	4	184	1683
61	0	0	1845	5	184	1684
62	0	0	1779	4	184	1684
63	0	0	1761	5	183	1683
64	0	0	1800	4	185	1683
65	0	0	1866	5	183	1684
66	0	0	1905	5	185	1684
67	0	0	1959	5	184	1683
68	0	0	2056	5	183	1683
69	0	0	2137	4	183	1683
70	0	0	2168	5	183	1683
71	0	0	2190	5	183	1684
72	0	0	2233	4	183	1684
73	0	0	2281	5	182	1683
74	0	0	2324	4	182	1684
75	0	0	2311	5	183	1684
76	0	0	2261	5	184	1684
77	0	0	2190	5	183	1684
78	0	0	2110	4	184	1683
79	0	0	2046	3	184	1683
80	0	0	1993	4	183	1683
81	0	0	1943	5	184	1683
82	0	0	1909	4	183	1684
83	0	0	1890	5	184	1683
84	0	0	1866	4	184	1683
85	0	0	1884	5	184	1683
86	0	0	1931	6	183	1683
87	0	0	1979	5	184	1684
88	0	0	2046	5	183	1684
89	0	0	2125	5	183	1683
90	0	0	2205	5	183	1684
91	0	0	2271	5	182	1684
92	0	0	2306	5	183	1683
93	0	0	2316	5	183	1684
94	0	0	2344	5	183	1683
95	0	0	2325	4	184	1683
96	0	0	2265	4	183	1684
97	0	0	2207	3	183	1684
98	0	0	2132	4	183	1683
99	0	0	2070	4	183	1683
100	0	0	2044	4	184	1684
101	0	0	2021	5	183	1683
102	0	0	1997	5	183	1684
103	0	0	1975	4	183	1683
104	0	0	1951	5	184	1683
105	0	0	1984	5	184	1684
106	0	0	2040	5	184	1683
107	0	0	2092	5	184	1684
108	0	0	2131	5	183	1683
109	0	0	2165	5	183	1683
110	0	0	2200	5	182	1684
111	0	0	2232	5	183	1684
112	0	0	2265	5	183	1684
113	0	0	2331	5	183	1683
114	0	0	2404	5	183	1683
115	0	0	2419	5	183	1683
116	0	0	2384	4	182	1684
117	0	0	2316	5	183	1684
118	0	0	2222	4	184	1683
119	0	0	2136	3	184	1684
120	0	0	2067	4	184	1683
121	0	0	2014	4	184	1684
122	0	0	1958	4	184	1684
123	0	0	1906	4	184	1683
124	0	0	1869	3	184	1684
125	0	0	1880	5	184	1684
126	0	0	1920	5	183	1683
127	0	0	1979	5	183	1684
0	0	0	2060	5	183	1683
1	0	0	2101	5	183	1683
2	0	0	2118	5	183	1684
3	0	0	2152	5	183	1684
4	0	0	2184	5	183	1684
5	0	0	2205	5	183	1684
6	0	0	2225	4	183	1683
7	0	0	2236	5	182	1683
8	0	0	2262	5	182	1684
9	0	0	2270	5	184	1684
10	0	0	2193	4	183	1683
11	0	0	2091	3	183	1683
12	0	0	2015	5	184	1683
13	0	0	1954	4	182	1684
14	0	0	1906	3	183	1684
15	0	0	1865	4	184	1683
16	0	0	1848	5	184	1683
17	0	0	1880	5	184	1683
18	0	0	1940	5	183	1683
19	0	0	2000	5	184	1684
20	0	0	2050	5	184	1683
21	0	0	2097	4	184	1684
22	0	0	2146	5	183	1683
23	0	0	2187	5	182	1683
24	0	0	2214	5	183	1684
25	0	0	2234	4	182	1683
26	0	0	2254	4	183	1684
27	0	0	2227	4	182	1683
28	0	0	2163	4	183	1683
29	0	0	2072	4	183	1684
30	0	0	1957	4	184	1683
31	0	0	1852	4	183	1683
32	0	0	1776	5	185	1683
33	0	0	1721	4	184	1683
34	0	0	1696	5	184	1684
35	0	0	1679	4	184	1683
36	0	0	1676	5	184	1683
37	0	0	1704	6	183	1683
38	0	0	1727	5	183	1683
39	0	0	1740	4	184	1683
40	0	0	1770	5	183	1684
41	0	0	1819	5	183	1683
42	0	0	1896	5	183	1684
43	0	0	1970	5	182	1684
44	0	0	2029	5	183	1684
45	0	0	2081	5	183	1684
46	0	0	2117	5	183	1683
47	0	0	2079	4	183	1683
48	0	0	2019	4	183	1684
49	0	0	1954	4	184	1684
50	0	0	1880	4	183	1683
51	0	0	1839	3	184	1683
52	0	0	1805	4	183	1683
53	0	0	1772	4	184	1683
54	0	0	1739	4	184	1683
55	0	0	1708	4	183	1683
56	0	0	1684	4	184	1683
57	0	0	1690	5	184	1683
58	0	0	1715	5	183	1683
59	0	0	1748	4	184	1683
60	0	0	1800	5	183	1683
61	0	0	1872	4	182	1684
62	0	0	1942	5	184	1684
63	0	0	1994	5	182	1683
64	0	0	2025	5	183	1684
65	0	0	2046	5	182	1683
66	0	0	2070	4	183	1684
67	0	0	2040	5	183	1683
68	0	0	2001	4	183	1683
69	0	0	1952	3	184	1684
70	0	0	1889	4	183	1683
71	0	0	1847	4	183	1683
72	0	0	1809	4	183	1683
73	0	0	1793	5	184	1684
74	0	0	1782	4	184	1684
75	0	0	1736	4	184	1683
76	0	0	1686	4	184	1683
77	0	0	1700	5	185	1683
78	0	0	1748	5	184	1684
79	0	0	1782	5	185	1684
80	0	0	1805	5	182	1683
81	0	0	1849	5	184	1683
82	0	0	1933	5	183	1683
83	0	0	2031	5	183	1683
84	0	0	2114	4	183	1683
85	0	0	2181	5	183	1683
86	0	0	2237	5	183	1683
87	0	0	2212	4	183	1683
88	0	0	2111	4	183	1684
89	0	0	1982	3	182	1684
90	0	0	1830	4	184	1683
91	0	0	1746	5	183	1683
92	0	0	1729	5	183	1684
93	0	0	1734	5	184	1683
94	0	0	1764	4	184	1683
95	0	0	1771	4	184	1683
96	0	0	1735	4	183	1683
97	0	0	1733	4	182	1683
98	0	0	1756	5	183	1683
99	0	0	1788	5	184	1684
100	0	0	1843	5	184	1683
101	0	0	1900	5	184	1684
102	0	0	1954	5	184	1683
103	0	0	2001	5	184	1683
104	0	0	2024	4	184	1683
105	0	0	2032	5	183	1683
106	0	0	2055	5	182	1683
107	0	0	2038	4	183	1683
108	0	0	1989	5	183	1683
109	0	0	1938	3	183	1684
110	0	0	1869	4	183	1683
111	0	0	1825	4	184	1683
112	0	0	1804	4	184	1683
113	0	0	1775	4	184	1683
114	0	0	1746	3	183	1684
115	0	0	1722	4	184	1684
116	0	0	1696	4	184	1683
117	0	0	1706	5	184	1683
118	0	0	1747	5	184	1684
119	0	0	1797	4	183	1683
120	0	0	1848	5	182	1683
121	0	0	1913	5	183	1683
122	0	0	1964	5	182	1683
123	0	0	1974	5	182	1683
124	0	0	1979	4	182	1684
125	0	0	2026	5	184	1683
126	0	0	2116	5	183	1683
127	0	0	2140	5	183	1683
0	0	0	2111	4	183	1683
1	0	0	2063	4	183	1683
2	0	0	1987	4	183	1683
3	0	0	1902	4	183	1683
4	0	0	1839	4	184	1683
5	0	0	1777	3	185	1683
6	0	0	1711	4	185	1684
7	0	0	1676	4	184	1683
8	0	0	1682	5	183	1684
9	0	0	1731	5	185	1683
10	0	0	1780	5	183	1683
11	0	0	1807	4	184	1684
12	0	0	1849	5	184	1683
13	0	0	1909	5	183	1683
14	0	0	1982	4	183	1683
15	0	0	2046	5	182	1683
16	0	0	2077	3	182	1683
17	0	0	2107	5	184	1684
18	0	0	2149	4	182	1683
19	0	0	2131	4	183	1683
20	0	0	2065	4	182	1683
21	0	0	1984	4	183	1684
22	0	0	1904	4	183	1683
23	0	0	1843	4	184	1683
24	0	0	1767	4	183	1683
25	0	0	1707	4	183	1683
26	0	0	1689	3	183	1684
27	0	0	1700	5	184	1683
28	0	0	1704	4	183	1683
29	0	0	1724	5	184	1683
30	0	0	1766	5	183	1683
31	0	0	1813	4	183	1683
32	0	0	1863	5	183	1684
33	0	0	1912	5	183	1684
34	0	0	1956	5	183	1683
35	0	0	1993	5	183	1684
36	0	0	2019	5	182	1684
37	0	0	2059	5	183	1684
38	0	0	2111	5	183	1683
39	0	0	2120	5	184	1683
40	0	0	2123	5	184	1684
41	0	0	2090	3	182	1684
42	0	0	1987	4	184	1683
43	0	0	1898	4	182	1683
44	0	0	1857	4	184	1683
45	0	0	1831	3	183	1683
46	0	0	1799	4	183	1684
47	0	0	1777	4	184	1683
48	0	0	1779	4	185	1683
49	0	0	1801	5	184	1683
50	0	0	1795	5	184	1683
51	0	0	1800	5	183	1684
52	0	0	1865	5	184	1683
53	0	0	1944	5	183	1684
54	0	0	2003	4	182	1684
55	0	0	2060	5	183	1683
56	0	0	2123	4	183	1684
57	0	0	2170	5	183	1683
58	0	0	2197	5	183	1684
59	0	0	2154	4	183	1683
60	0	0	2081	4	183	1683
61	0	0	1999	3	183	1684
62	0	0	1908	4	184	1684
63	0	0	1848	4	183	1683
64	0	0	1816	4	183	1684
65	0	0	1802	4	184	1684
66	0	0	1802	5	183	1684
67	0	0	1803	4	184	1683
68	0	0	1769	4	184	1683
69	0	0	1738	4	183	1683
70	0	0	1708	5	183	1684
71	0	0	1695	5	183	1684
72	0	0	1735	5	184	1683
73	0	0	1840	4	181	1683
74	0	0	1967	5	184	1683
75	0	0	2041	5	183	1683
76	0	0	2036	3	183	1683
77	0	0	2040	5	183	1683
78	0	0	2094	5	183	1683
79	0	0	2099	4	183	1684
80	0	0	2051	4	183	1684
81	0	0	1970	4	184	1684
82	0	0	1856	4	183	1683
83	0	0	1779	4	184	1683
84	0	0	1760	4	184	1683
85	0	0	1773	5	184	1683
86	0	0	1787	3	184	1683
87	0	0	1783	5	184	1683
88	0	0	1769	4	184	1684
89	0	0	1780	5	184	1683
90	0	0	1787	5	184	1684
91	0	0	1788	4	183	1683
92	0	0	1822	5	184	1683
93	0	0	1884	5	184	1684
94	0	0	1960	5	183	1683
95	0	0	2040	5	183	1684
96	0	0	2113	4	183	1684
97	0	0	2185	5	183	1683
98	0	0	2252	6	183	1683
99	0	0	2244	5	183	1683
100	0	0	2189	4	184	1684
101	0	0	2102	4	183	1684
102	0	0	1984	4	184	1683
103	0	0	1889	4	183	1684
104	0	0	1825	4	186	1683
105	0	0	1774	3	184	1684
106	0	0	1724	4	184	1684
107	0	0	1678	4	184	1683
108	0	0	1662	5	184	1683
109	0	0	1708	5	184	1683
110	0	0	1786	5	184	1683
111	0	0	1858	4	184	1684
112	0	0	1923	5	184	1684
113	0	0	1974	5	184	1683
114	0	0	1998	5	184	1683
115	0	0	2033	5	184	1684
116	0	0	2107	4	183	1684
117	0	0	2170	5	184	1683
118	0	0	2240	5	183	1684
119	0	0	2257	5	184	1684
120	0	0	2216	4	184	1684
121	0	0	2138	4	183	1684
122	0	0	2036	4	184	1683
123	0	0	1962	3	184	1683
124	0	0	1907	4	184	1683
125	0	0	1862	4	184	1683
126	0	0	1826	4	185	1684
127	0	0	1794	4	184	1684
0	0	0	1767	4	184	1683
1	0	0	1785	5	185	1683
2	0	0	1833	5	184	1684
3	0	0	1884	4	183	1684
4	0	0	1941	5	183	1683
5	0	0	1994	5	183	1683
6	0	0	2044	5	184	1683
7	0	0	2100	5	185	1683
8	0	0	2154	5	183	1684
9	0	0	2213	5	183	1683
10	0	0	2292	5	183	1683
11	0	0	2307	5	184	1683
12	0	0	2270	4	182	1683
13	0	0	2192	4	182	1684
14	0	0	2085	4	183	1683
15	0	0	1987	4	184	1683
16	0	0	1907	4	184	1685
17	0	0	1838	4	184	1684
18	0	0	1792	4	183	1684
19	0	0	1772	4	183	1683
20	0	0	1769	5	184	1683
21	0	0	1811	4	184	1683
22	0	0	1880	5	184	1684
23	0	0	1935	5	184	1684
24	0	0	1982	5	183	1683
25	0	0	2036	4	183	1683
26	0	0	2085	5	184	1683
27	0	0	2119	5	182	1683
28	0	0	2130	5	183	1684
29	0	0	2122	6	183	1683
30	0	0	2140	5	183	1683
31	0	0	2134	4	183	1683
32	0	0	2130	5	183	1683
33	0	0	2112	4	183	1683
34	0	0	2034	4	183	1683
35	0	0	1950	4	183	1684
36	0	0	1892	4	183	1683
37	0	0	1850	3	183	1683
38	0	0	1802	4	183	1684
39	0	0	1751	4	184	1683
40	0	0	1718	3	184	1683
41	0	0	1704	5	183	1683
42	0	0	1723	5	183	1683
43	0	0	1787	5	182	1684
44	0	0	1854	5	183	1683
45	0	0	1935	5	183	1683
46	0	0	2048	6	183	1683
47	0	0	2150	4	183	1683
48	0	0	2211	4	183	1683
49	0	0	2230	5	183	1683
50	0	0	2238	5	183	1683
51	0	0	2193	4	183	1683
52	0	0	2140	4	183	1684
53	0	0	2099	4	182	1683
54	0	0	2051	4	183	1684
55	0	0	1988	4	184	1683
56	0	0	1927	4	183	1683
57	0	0	1907	4	184	1683
58	0	0	1902	5	184	1684
59	0	0	1903	5	184	1683
60	0	0	1880	4	184	1684
61	0	0	1839	4	183	1683
62	0	0	1807	4	184	1683
63	0	0	1766	4	183	1684
64	0	0	1780	5	183	1683
65	0	0	1855	5	183	1683
66	0	0	1959	5	182	1683
67	0	0	2050	5	183	1684
68	0	0	2118	5	184	1683
69	0	0	2160	5	182	1683
70	0	0	2180	5	183	1684
71	0	0	2141	4	182	1683
72	0	0	2087	4	182	1684
73	0	0	2014	4	184	1684
74	0	0	1919	4	183	1683
75	0	0	1844	4	183	1683
76	0	0	1790	4	183	1684
77	0	0	1772	4	184	1684
78	0	0	1777	5	183	1683
79	0	0	1767	4	184	1683
80	0	0	1745	4	184	1683
81	0	0	1768	5	183	1684
82	0	0	1827	4	184	1683
83	0	0	1902	5	183	1683
84	0	0	1981	5	183	1683
85	0	0	2045	5	183	1683
86	0	0	2104	5	183	1684
87	0	0	2146	5	183	1683
88	0	0	2163	5	182	1684
89	0	0	2178	5	182	1683
90	0	0	2228	5	183	1683
91	0	0	2252	5	183	1684
92	0	0	2231	4	184	1684
93	0	0	2177	4	184	1684
94	0	0	2079	4	183	1683
95	0	0	1991	4	183	1684
96	0	0	1953	4	183	1684
97	0	0	1922	4	184	1684
98	0	0	1908	4	184	1684
99	0	0	1926	5	184	1683
100	0	0	1955	5	183	1683
101	0	0	2018	5	184	1683
102	0	0	2107	5	184	1684
103	0	0	2186	5	184	1683
104	0	0	2261	5	184	1684
105	0	0	2328	5	183	1684
106	0	0	2398	5	183	1684
107	0	0	2469	5	184	1683
108	0	0	2543	5	183	1684
109	0	0	2608	5	182	1683
110	0	0	2670	4	183	1684
111	0	0	2702	5	182	1684
112	0	0	2721	5	184	1683
113	0	0	2727	5	183	1684
114	0	0	2675	4	183	1683
115	0	0	2587	5	183	1684
116	0	0	2473	5	183	1683
117	0	0	2336	4	183	1684
118	0	0	2173	4	184	1684
119	0	0	2008	4	183	1684
120	0	0	1870	4	184	1683
121	0	0	1793	5	183	1683
122	0	0	1770	4	183	1683
123	0	0	1752	4	183	1684
124	0	0	1746	5	184	1683
125	0	0	1774	5	183	1683
126	0	0	1840	5	182	1684
127	0	0	1890	5	182	1683
0	0	0	1901	5	183	1684
1	0	0	1887	5	182	1683
2	0	0	1898	5	183	1683
3	0	0	1910	4	184	1683
4	0	0	1875	4	183	1683
5	0	0	1824	4	182	1684
6	0	0	1753	4	183	1683
7	0	0	1703	4	183	1684
8	0	0	1667	4	183	1684
9	0	0	1631	4	184	1683
10	0	0	1626	4	183	1684
11	0	0	1641	5	183	1683
12	0	0	1658	5	184	1683
13	0	0	1699	4	184	1684
14	0	0	1746	5	184	1684
15	0	0	1784	5	184	1683
16	0	0	1823	6	183	1683
17	0	0	1861	5	183	1683
18	0	0	1916	4	183	1683
19	0	0	1969	5	183	1683
20	0	0	2016	5	184	1684
21	0	0	2065	5	183	1683
22	0	0	2096	5	182	1683
23	0	0	2070	4	184	1683
24	0	0	2030	4	183	1683
25	0	0	1980	4	184	1683
26	0	0	1907	4	184	1683
27	0	0	1845	4	183	1684
28	0	0	1793	4	183	1684
29	0	0	1744	3	184	1683
30	0	0	1722	4	184	1684
31	0	0	1751	5	183	1683
32	0	0	1788	5	183	1683
33	0	0	1846	5	184	1683
34	0	0	1904	5	184	1683
35	0	0	1911	5	184	1684
36	0	0	1876	4	184	1683
37	0	0	1851	4	183	1683
38	0	0	1884	5	183	1683
39	0	0	1966	5	183	1683
40	0	0	2056	5	183	1683
41	0	0	2139	5	182	1683
42	0	0	2224	5	183	1683
43	0	0	2236	4	183	1683
44	0	0	2177	4	182	1684
45	0	0	2083	4	182	1683
46	0	0	1967	4	183	1684
47	0	0	1866	4	183	1683
48	0	0	1823	4	182	1683
49	0	0	1801	4	183	1683
50	0	0	1770	4	184	1684
51	0	0	1746	4	184	1683
52	0	0	1724	5	184	1683
53	0	0	1736	4	184	1683
54	0	0	1769	5	185	1683
55	0	0	1810	5	184	1684
56	0	0	1878	5	184	1683
57	0	0	1961	5	184	1683
58	0	0	2036	4	183	1683
59	0	0	2087	5	182	1683
60	0	0	2078	4	183	1684
61	0	0	2051	5	183	1683
62	0	0	2081	4	183	1684
63	0	0	2132	4	182	1684
64	0	0	2180	5	184	1684
65	0	0	2206	4	182	1684
66	0	0	2191	4	183	1683
67	0	0	2128	4	183	1683
68	0	0	2050	4	184	1683
69	0	0	1961	4	184	1683
70	0	0	1881	4	184	1684
71	0	0	1819	4	184	1684
72	0	0	1774	4	184	1683
73	0	0	1802	5	184	1683
74	0	0	1851	5	183	1683
75	0	0	1907	5	182	1683
76	0	0	1953	5	183	1683
77	0	0	1967	5	183	1684
78	0	0	1990	5	183	1683
79	0	0	2053	4	184	1683
80	0	0	2142	5	183	1683
81	0	0	2227	5	184	1683
82	0	0	2299	5	184	1683
83	0	0	2278	4	183	1683
84	0	0	2181	4	183	1684
85	0	0	2076	4	183	1683
86	0	0	1978	4	183	1684
87	0	0	1937	5	184	1683
88	0	0	1946	5	184	1683
89	0	0	1956	5	184	1683
90	0	0	1942	4	182	1683
91	0	0	1921	4	184	1683
92	0	0	1886	4	184	1683
93	0	0	1870	4	184	1683
94	0	0	1867	4	184	1683
95	0	0	1877	5	184	1683
96	0	0	1914	5	184	1683
97	0	0	1953	5	183	1683
98	0	0	2004	4	184	1683
99	0	0	2057	5	183	1683
100	0	0	2102	5	183	1684
101	0	0	2143	5	183	1683
102	0	0	2197	4	183	1684
103	0	0	2204	5	185	1683
104	0	0	2172	4	183	1683
105	0	0	2127	4	183	1683
106	0	0	2051	4	182	1683
107	0	0	1995	4	183	1684
108	0	0	1977	4	184	1683
109	0	0	1939	4	183	1683
110	0	0	1873	4	184	1684
111	0	0	1811	4	184	1683
112	0	0	1772	4	184	1683
113	0	0	1792	5	183	1683
114	0	0	1843	5	183	1684
115	0	0	1899	5	183	1684
116	0	0	1958	5	184	1683
117	0	0	2008	5	184	1684
118	0	0	2045	5	183	1684
119	0	0	2089	5	183	1684
120	0	0	2135	5	184	1684
121	0	0	2175	5	182	1683
122	0	0	2239	5	183	1683
123	0	0	2255	5	183	1683
124	0	0	2209	4	183	1683
125	0	0	2144	4	182	1683
126	0	0	2046	4	184	1683
127	0	0	1960	4	184	1683
0	0	0	1898	4	183	1683
1	0	0	1855	4	183	1683
2	0	0	1826	5	184	1684
3	0	0	1811	4	184	1684
4	0	0	1794	4	184	1683
5	0	0	1802	5	184	1684
6	0	0	1830	5	183	1684
7	0	0	1875	5	183	1683
8	0	0	1935	5	183	1683
9	0	0	2009	5	183	1683
10	0	0	2081	5	182	1683
11	0	0	2120	5	183	1684
12	0	0	2154	5	183	1684
13	0	0	2192	5	183	1683
14	0	0	2233	5	183	1683
15	0	0	2233	5	182	1683
16	0	0	2207	4	183	1684
17	0	0	2163	4	183	1684
18	0	0	2096	4	184	1683
19	0	0	2039	4	183	1683
20	0	0	1985	4	184	1683
21	0	0	1924	4	183	1683
22	0	0	1874	4	183	1684
23	0	0	1841	4	184	1684
24	0	0	1822	4	183	1683
25	0	0	1842	5	183	1683
26	0	0	1863	5	183	1684
27	0	0	1879	4	184	1683
28	0	0	1926	5	184	1683
29	0	0	1995	4	182	1684
30	0	0	2066	5	182	1684
31	0	0	2142	5	183	1683
32	0	0	2204	5	183	1683
33	0	0	2240	5	183	1683
34	0	0	2270	5	183	1683
35	0	0	2267	5	183	1683
36	0	0	2270	5	184	1683
37	0	0	2275	5	185	1684
38	0	0	2220	4	183	1683
39	0	0	2123	4	183	1683
40	0	0	2015	4	184	1683
41	0	0	1915	4	185	1683
42	0	0	1819	4	183	1684
43	0	0	1764	4	184	1683
44	0	0	1733	4	184	1683
45	0	0	1760	5	184	1683
46	0	0	1823	5	183	1684
47	0	0	1885	4	183	1684
48	0	0	1938	5	183	1683
49	0	0	1991	5	182	1684
50	0	0	2062	5	183	1684
51	0	0	2111	4	183	1683
52	0	0	2142	5	183	1683
53	0	0	2186	5	183	1684
54	0	0	2242	5	183	1683
55	0	0	2235	4	183	1683
56	0	0	2209	5	183	1683
57	0	0	2216	5	183	1683
58	0	0	2187	4	183	1683
59	0	0	2121	3	183	1683
60	0	0	2061	4	185	1683
61	0	0	1996	4	183	1684
62	0	0	1943	4	184	1684
63	0	0	1906	4	184	1683
64	0	0	1874	4	183	1683
65	0	0	1885	5	185	1683
66	0	0	1939	5	183	1683
67	0	0	2024	5	183	1684
68	0	0	2097	5	184	1683
69	0	0	2114	4	182	1684
70	0	0	2140	5	183	1684
71	0	0	2187	5	183	1684
72	0	0	2247	5	183	1684
73	0	0	2320	5	183	1683
74	0	0	2388	5	182	1684
75	0	0	2392	5	182	1683
76	0	0	2343	4	183	1683
77	0	0	2272	4	182	1684
78	0	0	2180	4	183	1683
79	0	0	2109	4	183	1683
80	0	0	2065	4	184	1683
81	0	0	2024	4	183	1684
82	0	0	1997	4	183	1683
83	0	0	1959	4	184	1683
84	0	0	1920	4	185	1683
85	0	0	1919	5	183	1683
86	0	0	1946	5	184	1684
87	0	0	1990	5	184	1684
88	0	0	2048	5	184	1683
89	0	0	2106	5	184	1683
90	0	0	2164	5	184	1683
91	0	0	2208	5	183	1683
92	0	0	2227	5	182	1683
93	0	0	2247	5	183	1683
94	0	0	2308	5	183	1683
95	0	0	2329	5	182	1683
96	0	0	2324	5	183	1684
97	0	0	2302	4	183	1683
98	0	0	2244	4	184	1683
99	0	0	2185	3	183	1683
100	0	0	2125	4	184	1683
101	0	0	2052	4	183	1683
102	0	0	1977	4	184	1684
103	0	0	1920	4	184	1683
104	0	0	1891	4	185	1684
105	0	0	1906	5	185	1683
106	0	0	1920	4	183	1684
107	0	0	1908	5	183	1683
108	0	0	1922	5	183	1683
109	0	0	1993	5	182	1684
110	0	0	2119	4	183	1683
111	0	0	2222	5	183	1684
112	0	0	2257	5	183	1683
113	0	0	2276	5	183	1683
114	0	0	2314	5	183	1683
115	0	0	2299	4	183	1683
116	0	0	2240	4	183	1683
117	0	0	2168	4	183	1684
118	0	0	2061	4	183	1683
119	0	0	1955	4	184	1683
120	0	0	1863	4	183	1683
121	0	0	1770	4	183	1684
122	0	0	1694	4	183	1683
123	0	0	1645	4	183	1683
124	0	0	1627	4	183	1684
125	0	0	1654	5	183	1683
126	0	0	1727	5	184	1684
127	0	0	1820	5	183	1684
0	0	0	1890	5	184	1683
1	0	0	1941	5	183	1683
2	0	0	1997	4	182	1683
3	0	0	2044	4	183	1683
4	0	0	2068	5	183	1683
5	0	0	2077	5	183	1683
6	0	0	2107	5	183	1683
7	0	0	2108	4	182	1683
8	0	0	2102	5	183	1684
9	0	0	2115	5	182	1683
10	0	0	2075	4	183	1683
11	0	0	1988	3	184	1683
12	0	0	1870	4	185	1683
13	0	0	1778	4	183	1684
14	0	0	1729	4	183	1683
15	0	0	1695	4	184	1683
16	0	0	1659	4	183	1683
17	0	0	1644	4	183	1683
18	0	0	1647	5	183	1684
19	0	0	1654	5	184	1684
20	0	0	1691	5	184	1683
21	0	0	1762	5	183	1684
22	0	0	1839	5	183	1684
23	0	0	1906	5	183	1684
24	0	0	1967	5	182	1684
25	0	0	2005	5	183	1683
26	0	0	2040	5	183	1684
27	0	0	2031	4	182	1683
28	0	0	2004	4	183	1684
29	0	0	1975	4	183	1683
30	0	0	1905	4	183	1683
31	0	0	1827	4	183	1683
32	0	0	1775	4	184	1683
33	0	0	1725	4	184	1684
34	0	0	1674	4	182	1683
35	0	0	1634	4	184	1683
36	0	0	1605	3	184	1683
37	0	0	1620	5	184	1683
38	0	0	1669	5	183	1684
39	0	0	1720	5	184	1684
40	0	0	1774	5	184	1683
41	0	0	1830	5	183	1684
42	0	0	1887	4	182	1683
43	0	0	1939	5	182	1683
44	0	0	1979	4	183	1683
45	0	0	2016	4	183	1684
46	0	0	2073	4	183	1683
47	0	0	2074	4	183	1683
48	0	0	2024	4	183	1683
49	0	0	1962	4	182	1683
50	0	0	1884	4	184	1683
51	0	0	1826	4	184	1684
52	0	0	1792	4	184	1684
53	0	0	1757	4	184	1684
54	0	0	1719	4	183	1683
55	0	0	1695	4	184	1683
56	0	0	1674	4	183	1683
57	0	0	1679	4	184	1683
58	0	0	1704	5	183	1683
59	0	0	1735	5	183	1683
60	0	0	1776	5	183	1684
61	0	0	1831	5	183	1683
62	0	0	1897	4	183	1683
63	0	0	1961	5	183	1684
64	0	0	2014	5	183	1683
65	0	0	2050	5	183	1683
66	0	0	2101	4	184	1683
67	0	0	2122	5	182	1683
68	0	0	2119	5	183	1684
69	0	0	2100	4	183	1683
70	0	0	2048	4	183	1683
71	0	0	1991	4	184	1684
72	0	0	1934	4	184	1684
73	0	0	1859	4	183	1684
74	0	0	1780	4	183	1684
75	0	0	1742	4	185	1683
76	0	0	1732	4	183	1684
77	0	0	1733	4	184	1683
78	0	0	1712	4	184	1683
79	0	0	1692	4	183	1683
80	0	0	1728	5	185	1683
81	0	0	1803	5	184	1683
82	0	0	1908	5	183	1683
83	0	0	2005	5	184	1684
84	0	0	2070	5	183	1683
85	0	0	2119	5	182	1684
86	0	0	2153	6	183	1683
87	0	0	2135	4	183	1683
88	0	0	2080	4	183	1684
89	0	0	2017	4	183	1684
90	0	0	1935	4	183	1683
91	0	0	1873	4	184	1683
92	0	0	1830	4	184	1683
93	0	0	1761	4	183	1684
94	0	0	1693	4	183	1683
95	0	0	1681	5	184	1683
96	0	0	1711	5	183	1683
97	0	0	1782	4	184	1683
98	0	0	1838	5	183	1684
99	0	0	1858	5	184	1684
100	0	0	1861	5	183	1683
101	0	0	1875	5	183	1684
102	0	0	1897	5	184	1684
103	0	0	1928	5	183	1683
104	0	0	1975	5	182	1683
105	0	0	2009	5	182	1683
106	0	0	2060	5	182	1683
107	0	0	2076	4	183	1683
108	0	0	2079	5	183	1684
109	0	0	2074	4	181	1683
110	0	0	2016	4	183	1683
111	0	0	1921	4	183	1683
112	0	0	1832	4	184	1683
113	0	0	1765	4	184	1683
114	0	0	1696	4	183	1683
115	0	0	1662	4	183	1683
116	0	0	1642	4	184	1683
117	0	0	1657	5	182	1684
118	0	0	1719	5	185	1683
119	0	0	1782	5	182	1684
120	0	0	1836	5	183	1684
121	0	0	1885	3	183	1683
122	0	0	1947	4	182	1683
123	0	0	2023	4	183	1684
124	0	0	2083	5	183	1684
125	0	0	2130	5	183	1684
126	0	0	2199	4	181	1683
127	0	0	2224	4	183	1683
0	0	0	2179	4	184	1684
1	0	0	2127	4	182	1684
2	0	0	2047	4	183	1683
3	0	0	1950	4	184	1683
4	0	0	1862	4	184	1683
5	0	0	1806	4	184	1684
6	0	0	1776	4	184	1683
7	0	0	1755	4	183	1683
8	0	0	1721	4	183	1683
9	0	0	1735	5	184	1683
10	0	0	1781	5	183	1683
11	0	0	1817	4	183	1684
12	0	0	1849	5	183	1683
13	0	0	1881	5	183	1684
14	0	0	1922	5	182	1684
15	0	0	1973	5	184	1683
16	0	0	2023	5	181	1683
17	0	0	2074	5	182	1683
18	0	0	2141	5	183	1683
19	0	0	2159	5	183	1683
20	0	0	2124	4	182	1684
21	0	0	2074	4	184	1683
22	0	0	2019	4	183	1683
23	0	0	1963	4	184	1683
24	0	0	1887	4	183	1684
25	0	0	1809	4	183	1684
26	0	0	1779	4	184	1684
27	0	0	1787	5	184	1683
28	0	0	1775	4	184	1684
29	0	0	1772	4	184	1684
30	0	0	1795	5	184	1684
31	0	0	1829	5	182	1683
32	0	0	1863	5	182	1683
33	0	0	1891	5	184	1683
34	0	0	1956	5	182	1684
35	0	0	2053	5	184	1684
36	0	0	2142	5	182	1683
37	0	0	2178	5	182	1683
38	0	0	2203	5	182	1683
39	0	0	2194	4	183	1683
40	0	0	2165	4	183	1683
41	0	0	2109	4	183	1683
42	0	0	2002	4	183	1683
43	0	0	1906	4	184	1684
44	0	0	1850	4	182	1684
45	0	0	1814	5	184	1683
46	0	0	1811	5	184	1684
47	0	0	1851	5	185	1683
48	0	0	1874	5	183	1683
49	0	0	1901	3	184	1683
50	0	0	1918	5	183	1683
51	0	0	1881	4	184	1683
52	0	0	1818	4	183	1683
53	0	0	1787	5	182	1683
54	0	0	1847	4	183	1683
55	0	0	1939	5	183	1683
56	0	0	1994	5	184	1683
57	0	0	2033	5	182	1683
58	0	0	2098	5	182	1683
59	0	0	2110	4	182	1683
60	0	0	2063	4	183	1684
61	0	0	2017	4	182	1683
62	0	0	1982	4	184	1684
63	0	0	1954	4	183	1683
64	0	0	1915	3	184	1683
65	0	0	1847	4	183	1684
66	0	0	1788	4	183	1683
67	0	0	1769	4	183	1683
68	0	0	1770	5	185	1683
69	0	0	1803	5	183	1683
70	0	0	1846	5	183	1684
71	0	0	1857	5	183	1683
72	0	0	1855	5	183	1683
73	0	0	1904	5	183	1683
74	0	0	1994	5	183	1684
75	0	0	2075	5	184	1684
76	0	0	2132	5	183	1684
77	0	0	2160	4	183	1683
78	0	0	2190	5	182	1684
79	0	0	2174	5	184	1683
80	0	0	2121	4	183	1684
81	0	0	2042	4	183	1684
82	0	0	1935	4	183	1684
83	0	0	1843	4	183	1683
84	0	0	1783	4	183	1683
85	0	0	1766	4	183	1683
86	0	0	1782	5	183	1684
87	0	0	1784	4	183	1683
88	0	0	1768	5	185	1683
89	0	0	1802	5	185	1684
90	0	0	1858	5	183	1684
91	0	0	1920	5	183	1684
92	0	0	1974	5	182	1683
93	0	0	2031	5	181	1683
94	0	0	2098	5	183	1684
95	0	0	2135	5	183	1683
96	0	0	2165	5	183	1684
97	0	0	2200	5	182	1683
98	0	0	2217	5	182	1683
99	0	0	2156	3	183	1683
100	0	0	2083	4	183	1684
101	0	0	2041	4	183	1683
102	0	0	1996	4	184	1683
103	0	0	1939	4	183	1683
104	0	0	1895	4	184	1684
105	0	0	1886	5	184	1684
106	0	0	1910	5	184	1683
107	0	0	1959	5	184	1683
108	0	0	2002	5	183	1683
109	0	0	2032	5	183	1683
110	0	0	2041	5	184	1683
111	0	0	2019	4	183	1684
112	0	0	2006	5	183	1683
113	0	0	2046	5	182	1683
114	0	0	2118	5	184	1683
115	0	0	2163	5	182	1684
116	0	0	2163	5	183	1683
117	0	0	2146	5	182	1683
118	0	0	2162	4	183	1683
119	0	0	2146	4	184	1684
120	0	0	2116	4	183	1684
121	0	0	2093	4	183	1684
122	0	0	2037	4	183	1683
123	0	0	1967	4	183	1683
124	0	0	1899	4	182	1683
125	0	0	1836	4	183	1684
126	0	0	1817	4	184	1683
127	0	0	1839	5	184	1683
0	0	0	1834	4	184	1684
1	0	0	1815	4	184	1684
2	0	0	1826	5	183	1684
3	0	0	1846	5	184	1684
4	0	0	1891	5	183	1683
5	0	0	1964	5	184	1683
6	0	0	2036	5	183	1683
7	0	0	2086	5	183	1684
8	0	0	2122	5	183	1683
9	0	0	2163	5	183	1683
10	0	0	2228	5	183	1683
11	0	0	2224	4	183	1683
12	0	0	2149	4	183	1684
13	0	0	2088	4	183	1683
14	0	0	2028	4	183	1683
15	0	0	1974	4	183	1683
16	0	0	1929	4	182	1684
17	0	0	1871	4	183	1684
18	0	0	1816	4	183	1684
19	0	0	1770	4	184	1683
20	0	0	1729	4	184	1684
21	0	0	1728	5	183	1683
22	0	0	1750	5	183	1684
23	0	0	1784	5	183	1683
24	0	0	1821	6	183	1683
25	0	0	1867	5	183	1683
26	0	0	1931	5	182	1684
27	0	0	1990	5	183	1684
28	0	0	2037	5	182	1683
29	0	0	2088	5	183	1683
30	0	0	2161	4	183	1683
31	0	0	2189	5	183	1684
32	0	0	2192	4	182	1684
33	0	0	2168	4	183	1684
34	0	0	2077	4	183	1683
35	0	0	1961	4	184	1683
36	0	0	1898	4	183	1684
37	0	0	1894	4	185	1684
38	0	0	1906	5	183	1684
39	0	0	1895	4	184	1683
40	0	0	1854	4	183	1684
41	0	0	1822	4	183	1683
42	0	0	1817	5	183	1684
43	0	0	1818	5	183	1684
44	0	0	1821	5	183	1683
45	0	0	1865	5	183	1683
46	0	0	1940	5	183	1684
47	0	0	2018	4	183	1684
48	0	0	2071	5	183	1683
49	0	0	2081	5	182	1684
50	0	0	2115	5	185	1683
51	0	0	2110	4	183	1683
52	0	0	2065	4	182	1684
53	0	0	2025	4	183	1683
54	0	0	1945	4	183	1683
55	0	0	1862	4	183	1683
56	0	0	1823	4	183	1684
57	0	0	1813	4	183	1684
58	0	0	1795	4	184	1683
59	0	0	1780	4	183	1683
60	0	0	1782	5	184	1683
61	0	0	1809	5	184	1684
62	0	0	1845	5	184	1684
63	0	0	1864	5	183	1683
64	0	0	1882	5	183	1684
65	0	0	1928	4	183	1683
66	0	0	2007	5	183	1683
67	0	0	2087	5	182	1684
68	0	0	2153	5	183	1684
69	0	0	2205	5	184	1684
70	0	0	2258	6	183	1683
71	0	0	2234	4	183	1683
72	0	0	2196	4	183	1684
73	0	0	2149	4	183	1683
74	0	0	2081	4	183	1683
75	0	0	2030	4	183	1683
76	0	0	2023	5	183	1683
77	0	0	2019	5	183	1684
78	0	0	2016	5	184	1684
79	0	0	2013	4	183	1683
80	0	0	2001	5	184	1683
81	0	0	2021	5	183	1684
82	0	0	2068	4	183	1684
83	0	0	2136	5	183	1683
84	0	0	2240	5	183	1683
85	0	0	2358	5	183	1683
86	0	0	2471	5	182	1684
87	0	0	2559	4	183	1683
88	0	0	2671	5	183	1683
89	0	0	2789	5	183	1683
90	0	0	2897	5	182	1683
91	0	0	2929	6	183	1683
92	0	0	2859	4	183	1684
93	0	0	2718	4	183	1684
94	0	0	2533	4	183	1683
95	0	0	2355	4	183	1683
96	0	0	2198	4	182	1684
97	0	0	2054	4	184	1684
98	0	0	1940	4	184	1683
99	0	0	1857	4	184	1684
100	0	0	1753	4	184	1683
101	0	0	1680	5	184	1683
102	0	0	1662	4	184	1684
103	0	0	1649	4	184	1684
104	0	0	1636	4	183	1683
105	0	0	1642	5	183	1683
106	0	0	1670	5	183	1683
107	0	0	1687	4	183	1684
108	0	0	1709	5	183	1683
109	0	0	1754	5	182	1683
110	0	0	1835	5	184	1683
111	0	0	1886	5	183	1684
112	0	0	1905	4	183	1683
113	0	0	1909	5	183	1684
114	0	0	1851	4	182	1683
115	0	0	1756	4	183	1683
116	0	0	1665	4	183	1684
117	0	0	1612	4	184	1684
118	0	0	1600	5	184	1684
119	0	0	1618	5	183	1683
120	0	0	1622	4	185	1683
121	0	0	1635	5	184	1684
122	0	0	1672	5	184	1684
123	0	0	1699	5	183	1683
124	0	0	1736	5	183	1683
125	0	0	1798	5	183	1683
126	0	0	1870	4	182	1683
127	0	0	1933	5	183	1684
0	0	0	1998	4	183	1684
1	0	0	2042	5	182	1683
2	0	0	2099	5	182	1683
3	0	0	2140	5	183	1684
4	0	0	2161	4	184	1684
5	0	0	2169	5	183	1684
6	0	0	2116	4	184	1683
7	0	0	2043	4	184	1683
8	0	0	1991	5	183	1683
9	0	0	1976	4	183	1684
10	0	0	1967	4	184	1683
11	0	0	1939	4	184	1683
12	0	0	1879	4	184	1683
13	0	0	1816	4	184	1684
14	0	0	1779	4	184	1684
15	0	0	1763	4	183	1683
16	0	0	1791	5	183	1683
17	0	0	1867	5	184	1683
18	0	0	1952	4	183	1683
19	0	0	2013	5	182	1683
20	0	0	2056	5	182	1683
21	0	0	2088	4	183	1684
22	0	0	2129	5	183	1683
23	0	0	2121	6	182	1683
24	0	0	2081	4	183	1684
25	0	0	2026	4	183	1683
26	0	0	1939	5	182	1683
27	0	0	1861	4	184	1683
28	0	0	1810	4	184	1684
29	0	0	1773	4	183	1683
30	0	0	1745	4	184	1683
31	0	0	1750	5	184	1683
32	0	0	1754	5	182	1684
33	0	0	1771	5	183	1684
34	0	0	1819	5	183	1684
35	0	0	1878	5	184	1683
36	0	0	1927	5	183	1683
37	0	0	1974	5	184	1683
38	0	0	2033	5	183	1683
39	0	0	2090	4	183	1684
40	0	0	2116	4	183	1683
41	0	0	2145	5	182	1683
42	0	0	2202	5	182	1684
43	0	0	2244	5	184	1683
44	0	0	2233	4	183	1684
45	0	0	2160	4	182	1683
46	0	0	2060	4	183	1683
47	0	0	1987	4	184	1683
48	0	0	1975	4	183	1684
49	0	0	1975	4	183	1684
50	0	0	1940	4	184	1684
51	0	0	1902	4	183	1683
52	0	0	1871	4	183	1684
53	0	0	1866	5	184	1683
54	0	0	1896	5	183	1684
55	0	0	1922	5	184	1683
56	0	0	1955	4	183	1683
57	0	0	2003	5	185	1683
58	0	0	2052	5	183	1683
59	0	0	2097	5	184	1684
60	0	0	2121	5	183	1683
61	0	0	2137	5	183	1684
62	0	0	2175	7	183	1683
63	0	0	2159	5	183	1683
64	0	0	2114	4	183	1684
65	0	0	2068	4	183	1683
66	0	0	2005	4	184	1683
67	0	0	1932	4	183	1684
68	0	0	1875	3	183	1684
69	0	0	1851	4	183	1684
70	0	0	1854	5	183	1683
71	0	0	1857	5	183	1683
72	0	0	1836	4	184	1683
73	0	0	1840	4	183	1684
74	0	0	1868	5	184	1684
75	0	0	1922	5	184	1684
76	0	0	2004	5	184	1683
77	0	0	2068	5	184	1683
78	0	0	2123	5	183	1684
79	0	0	2175	5	184	1683
80	0	0	2206	5	182	1684
81	0	0	2202	5	183	1683
82	0	0	2221	5	183	1684
83	0	0	2222	5	183	1683
84	0	0	2192	4	183	1684
85	0	0	2156	4	183	1683
86	0	0	2092	4	183	1683
87	0	0	2033	4	185	1683
88	0	0	2022	5	183	1683
89	0	0	2026	5	183	1684
90	0	0	1987	4	183	1683
91	0	0	1959	5	184	1683
92	0	0	1925	4	183	1684
93	0	0	1874	5	183	1684
94	0	0	1863	5	183	1684
95	0	0	1891	5	184	1683
96	0	0	1920	5	184	1683
97	0	0	1958	5	183	1683
98	0	0	2028	5	183	1684
99	0	0	2099	5	183	1684
100	0	0	2180	4	183	1683
101	0	0	2250	5	183	1683
102	0	0	2320	5	184	1683
103	0	0	2327	5	184	1683
104	0	0	2268	4	183	1684
105	0	0	2186	4	183	1683
106	0	0	2089	4	184	1683
107	0	0	2020	4	183	1683
108	0	0	1963	4	184	1683
109	0	0	1906	4	184	1683
110	0	0	1861	4	184	1683
111	0	0	1849	5	184	1683
112	0	0	1854	5	184	1683
113	0	0	1876	5	183	1684
114	0	0	1911	5	184	1684
115	0	0	1932	5	183	1684
116	0	0	1951	5	184	1683
117	0	0	1996	5	183	1683
118	0	0	2058	5	184	1683
119	0	0	2110	5	183	1684
120	0	0	2156	5	183	1683
121	0	0	2193	5	182	1684
122	0	0	2261	5	183	1683
123	0	0	2294	5	183	1684
124	0	0	2281	4	183	1684
125	0	0	2250	4	183	1683
126	0	0	2162	4	185	1683
127	0	0	2044	4	184	1684
0	0	0	1952	4	182	1684
1	0	0	1901	4	184	1684
2	0	0	1885	4	183	1683
3	0	0	1887	4	184	1683
4	0	0	1882	5	184	1683
5	0	0	1915	6	183	1684
6	0	0	1981	5	183	1684
7	0	0	2040	5	184	1683
8	0	0	2092	6	184	1684
9	0	0	2158	5	184	1683
10	0	0	2227	6	183	1683
11	0	0	2255	5	184	1684
12	0	0	2256	5	182	1683
13	0	0	2287	4	182	1684
14	0	0	2348	5	182	1683
15	0	0	2329	4	182	1684
16	0	0	2259	4	183	1684
17	0	0	2208	4	183	1683
18	0	0	2179	3	183	1683
19	0	0	2158	4	183	1684
20	0	0	2125	4	183	1684
21	0	0	2067	4	184	1684
22	0	0	2004	4	183	1683
23	0	0	1970	4	184	1683
24	0	0	1954	5	184	1683
25	0	0	1966	6	183	1684
26	0	0	1999	5	184	1683
27	0	0	2035	5	184	1684
28	0	0	2069	5	183	1683
29	0	0	2105	5	183	1684
30	0	0	2142	5	184	1684
31	0	0	2156	4	183	1684
32	0	0	2184	4	182	1683
33	0	0	2223	5	183	1683
34	0	0	2269	5	183	1683
35	0	0	2288	5	183	1683
36	0	0	2300	5	182	1684
37	0	0	2296	5	184	1683
38	0	0	2255	4	184	1683
39	0	0	2195	4	183	1683
40	0	0	2124	4	184	1684
41	0	0	2049	4	184	1684
42	0	0	1987	4	183	1683
43	0	0	1956	3	183	1684
44	0	0	1937	7	184	1683
45	0	0	1952	6	184	1684
46	0	0	1988	5	184	1684
47	0	0	2021	6	184	1683
48	0	0	2064	6	184	1683
49	0	0	2113	5	183	1683
50	0	0	2174	5	182	1683
51	0	0	2235	5	184	1684
52	0	0	2284	5	183	1683
53	0	0	2321	5	183	1683
54	0	0	2380	5	182	1683
55	0	0	2417	5	183	1683
56	0	0	2410	4	183	1684
57	0	0	2357	4	184	1683
58	0	0	2249	3	184	1684
59	0	0	2129	4	181	1683
60	0	0	2053	4	183	1684
61	0	0	2030	4	184	1684
62	0	0	2040	5	184	1683
63	0	0	2042	4	183	1684
64	0	0	1995	6	183	1683
65	0	0	1969	5	183	1684
66	0	0	1991	6	184	1684
67	0	0	2037	5	183	1683
68	0	0	2095	5	183	1683
69	0	0	2128	5	183	1684
70	0	0	2151	6	183	1683
71	0	0	2171	5	183	1683
72	0	0	2219	4	183	1684
73	0	0	2274	5	183	1683
74	0	0	2343	5	182	1683
75	0	0	2349	4	183	1683
76	0	0	2302	4	184	1684
77	0	0	2245	4	183	1683
78	0	0	2168	3	184	1684
79	0	0	2120	6	184	1683
80	0	0	2100	4	183	1684
81	0	0	2059	3	184	1684
82	0	0	1993	4	184	1683
83	0	0	1946	4	184	1683
84	0	0	1927	5	184	1683
85	0	0	1927	6	184	1683
86	0	0	1931	6	182	1684
87	0	0	1953	5	184	1683
88	0	0	2031	5	183	1683
89	0	0	2119	5	184	1683
90	0	0	2169	5	184	1684
91	0	0	2212	4	182	1684
92	0	0	2252	5	184	1684
93	0	0	2271	5	184	1683
94	0	0	2308	5	183	1684
95	0	0	2338	4	183	1684
96	0	0	2298	4	183	1683
97	0	0	2216	3	182	1684
98	0	0	2112	4	183	1683
99	0	0	2028	4	183	1684
100	0	0	1972	4	183	1684
101	0	0	1928	4	186	1683
102	0	0	1890	4	183	1684
103	0	0	1858	4	184	1683
104	0	0	1822	5	184	1683
105	0	0	1843	5	183	1684
106	0	0	1920	5	184	1683
107	0	0	1986	5	183	1683
108	0	0	2024	4	183	1683
109	0	0	2026	5	184	1683
110	0	0	2018	6	182	1683
111	0	0	2014	5	183	1684
112	0	0	2033	5	183	1683
113	0	0	2057	5	183	1683
114	0	0	2099	4	182	1684
115	0	0	2104	4	183	1684
116	0	0	2065	3	183	1684
117	0	0	2008	4	182	1684
118	0	0	1920	4	184	1683
119	0	0	1846	4	183	1683
120	0	0	1811	4	183	1684
121	0	0	1803	5	183	1684
122	0	0	1804	5	184	1683
123	0	0	1814	5	184	1683
124	0	0	1814	5	184	1683
125	0	0	1805	5	184	1683
126	0	0	1790	4	184	1684
127	0	0	1798	4	183	1683
0	0	0	1830	5	183	1683
1	0	0	1888	5	183	1683
2	0	0	1958	5	183	1684
3	0	0	1994	5	183	1684
4	0	0	2012	5	183	1683
5	0	0	2042	4	183	1684
6	0	0	2106	5	183	1683
7	0	0	2132	4	182	1684
8	0	0	2088	5	183	1684
9	0	0	2019	4	183	1683
10	0	0	1935	4	182	1683
11	0	0	1854	3	183	1684
12	0	0	1788	4	184	1684
13	0	0	1747	3	184	1684
14	0	0	1752	5	184	1683
15	0	0	1769	5	183	1683
16	0	0	1743	4	184	1684
17	0	0	1732	5	184	1684
18	0	0	1761	5	184	1684
19	0	0	1799	5	183	1683
20	0	0	1831	6	184	1683
21	0	0	1866	5	183	1684
22	0	0	1916	5	183	1684
23	0	0	1961	6	183	1683
24	0	0	2006	5	183	1683
25	0	0	2070	5	183	1683
26	0	0	2140	6	182	1683
27	0	0	2138	4	183	1684
28	0	0	2096	4	184	1684
29	0	0	2050	4	184	1683
30	0	0	1960	3	183	1683
31	0	0	1864	4	184	1683
32	0	0	1816	5	184	1683
33	0	0	1794	5	184	1684
34	0	0	1766	4	184	1683
35	0	0	1758	4	184	1684
36	0	0	1750	5	184	1683
37	0	0	1761	6	183	1684
38	0	0	1784	5	183	1684
39	0	0	1771	4	184	1683
40	0	0	1779	5	183	1683
41	0	0	1824	5	183	1683
42	0	0	1886	5	183	1684
43	0	0	1958	5	183	1683
44	0	0	2023	5	183	1683
45	0	0	2078	4	183	1683
46	0	0	2145	4	182	1683
47	0	0	2169	4	183	1683
48	0	0	2126	5	183	1683
49	0	0	2086	4	182	1684
50	0	0	2045	5	183	1683
51	0	0	2004	4	183	1684
52	0	0	1945	4	184	1684
53	0	0	1863	3	184	1684
54	0	0	1748	4	184	1684
55	0	0	1644	4	183	1683
56	0	0	1614	5	184	1683
57	0	0	1659	6	182	1684
58	0	0	1726	6	184	1684
59	0	0	1779	6	184	1683
60	0	0	1806	5	183	1683
61	0	0	1848	7	184	1683
62	0	0	1924	6	183	1684
63	0	0	1983	6	184	1684
64	0	0	2009	5	183	1683
65	0	0	2027	5	183	1683
66	0	0	2071	5	183	1683
67	0	0	2088	5	183	1683
68	0	0	2065	4	184	1684
69	0	0	2041	4	184	1683
70	0	0	1970	4	183	1683
71	0	0	1867	5	184	1683
72	0	0	1821	4	183	1683
73	0	0	1819	6	184	1684
74	0	0	1814	5	184	1683
75	0	0	1799	4	183	1683
76	0	0	1767	6	183	1683
77	0	0	1771	5	183	1683
78	0	0	1788	5	184	1684
79	0	0	1825	6	183	1683
80	0	0	1874	5	184	1684
81	0	0	1924	6	183	1683
82	0	0	1971	5	181	1683
83	0	0	2017	5	183	1684
84	0	0	2068	5	183	1683
85	0	0	2109	4	183	1683
86	0	0	2155	4	183	1684
87	0	0	2174	4	182	1684
88	0	0	2169	4	184	1684
89	0	0	2113	4	183	1683
90	0	0	1988	3	184	1683
91	0	0	1877	3	184	1683
92	0	0	1832	3	182	1683
93	0	0	1815	3	184	1684
94	0	0	1791	4	183	1684
95	0	0	1760	4	183	1683
96	0	0	1732	4	184	1684
97	0	0	1746	8	183	1684
98	0	0	1786	15	183	1684
99	0	0	1821	23	183	1683
100	0	0	1866	26	183	1683
101	0	0	1914	28	183	1683
102	0	0	1960	28	181	1683
103	0	0	1976	27	184	1683
104	0	0	1988	25	184	1683
105	0	0	2037	21	183	1684
106	0	0	2123	17	184	1684
107	0	0	2169	5	182	1683
108	0	0	2166	3	184	1684
109	0	0	2101	3	185	1683
110	0	0	1992	2	183	1683
111	0	0	1870	3	183	1683
112	0	0	1793	2	183	1684
113	0	0	1774	3	183	1684
114	0	0	1797	4	184	1683
115	0	0	1837	4	183	1683
116	0	0	1847	8	183	1683
117	0	0	1837	14	184	1683
118	0	0	1788	21	183	1683
119	0	0	1752	32	183	1683
120	0	0	1806	38	183	1683
121	0	0	1920	40	183	1683
122	0	0	2016	40	183	1683
123	0	0	2055	36	184	1683
124	0	0	2050	30	183	1684
125	0	0	2044	24	183	1683
126	0	0	2090	13	183	1684
127	0	0	2118	5	184	1684
0	0	0	2095	3	184	1684
1	0	0	2062	3	184	1683
2	0	0	1980	3	183	1683
3	0	0	1870	3	184	1683
4	0	0	1797	3	183	1684
5	0	0	1745	3	183	1683
6	0	0	1698	4	184	1683
7	0	0	1671	7	183	1684
8	0	0	1669	17	185	1683
9	0	0	1715	23	182	1683
10	0	0	1809	26	183	1683
11	0	0	1912	27	183	1683
12	0	0	1988	27	183	1683
13	0	0	2038	26	183	1683
14	0	0	2063	26	183	1683
15	0	0	2083	25	183	1683
16	0	0	2106	25	184	1684
17	0	0	2134	25	182	1683
18	0	0	2189	23	184	1683
19	0	0	2189	19	184	1683
20	0	0	2139	16	183	1684
21	0	0	2086	16	183	1683
22	0	0	2010	15	184	1684
23	0	0	1913	14	184	1683
24	0	0	1827	14	184	1683
25	0	0	1767	14	183	1684
26	0	0	1732	16	183	1683
27	0	0	1724	17	182	1683
28	0	0	1712	17	184	1684
29	0	0	1728	19	183	1683
30	0	0	1781	19	184	1683
31	0	0	1871	20	183	1683
32	0	0	1969	20	183	1683
33	0	0	2015	19	183	1683
34	0	0	2030	19	183	1683
35	0	0	2055	17	182	1683
36	0	0	2120	17	184	1684
37	0	0	2162	17	183	1683
38	0	0	2199	15	183	1683
39	0	0	2181	11	182	1684
40	0	0	2135	9	183	1684
41	0	0	2086	9	183	1683
42	0	0	2018	9	183	1683
43	0	0	1952	8	184	1683
44	0	0	1899	8	184	1684
45	0	0	1844	7	184	1684
46	0	0	1792	9	184	1683
47	0	0	1753	9	184	1684
48	0	0	1727	11	185	1684
49	0	0	1751	14	184	1683
50	0	0	1831	14	183	1684
51	0	0	1909	14	184	1683
52	0	0	1932	14	184	1683
53	0	0	1931	15	184	1683
54	0	0	1971	14	184	1683
55	0	0	2030	12	184	1684
56	0	0	2052	13	183	1683
57	0	0	2077	12	183	1683
58	0	0	2142	12	183	1683
59	0	0	2163	11	182	1683
60	0	0	2139	7	183	1684
61	0	0	2063	6	183	1683
62	0	0	1932	5	184	1684
63	0	0	1846	6	185	1683
64	0	0	1816	7	183	1683
65	0	0	1813	9	183	1684
66	0	0	1815	10	183	1683
67	0	0	1827	11	183	1683
68	0	0	1843	11	183	1683
69	0	0	1866	11	183	1683
70	0	0	1885	12	183	1683
71	0	0	1890	12	183	1683
72	0	0	1906	12	183	1683
73	0	0	1935	12	184	1683
74	0	0	1998	12	183	1683
75	0	0	2052	11	183	1684
76	0	0	2076	11	183	1684
77	0	0	2068	10	183	1683
78	0	0	2058	8	183	1683
79	0	0	2014	6	183	1684
80	0	0	1958	5	183	1684
81	0	0	1943	7	184	1683
82	0	0	1907	6	183	1683
83	0	0	1869	6	183	1683
84	0	0	1841	5	183	1683
85	0	0	1783	5	183	1684
86	0	0	1729	6	184	1683
87	0	0	1723	9	184	1683
88	0	0	1751	10	183	1683
89	0	0	1798	11	184	1683
90	0	0	1833	10	184	1684
91	0	0	1850	11	183	1683
92	0	0	1881	11	183	1683
93	0	0	1944	11	184	1683
94	0	0	2032	11	183	1684
95	0	0	2094	10	182	1683
96	0	0	2123	11	183	1684
97	0	0	2125	10	184	1683
98	0	0	2140	9	183	1683
99	0	0	2119	5	184	1683
100	0	0	2074	5	184	1683
101	0	0	2041	5	183	1684
102	0	0	2003	5	183	1684
103	0	0	1962	5	184	1684
104	0	0	1934	5	184	1683
105	0	0	1923	6	184	1684
106	0	0	1896	5	184	1683
107	0	0	1859	6	184	1683
108	0	0	1825	5	183	1683
109	0	0	1830	9	184	1683
110	0	0	1876	8	184	1683
111	0	0	1933	9	183	1683
112	0	0	1968	8	184	1683
113	0	0	1973	8	184	1684
114	0	0	2016	8	184	1684
115	0	0	2085	7	182	1684
116	0	0	2136	6	183	1684
117	0	0	2140	7	182	1683
118	0	0	2166	6	183	1683
119	0	0	2178	6	182	1684
120	0	0	2162	3	183	1684
121	0	0	2118	4	183	1683
122	0	0	2040	4	183	1684
123	0	0	1958	5	183	1683
124	0	0	1887	4	184	1684
125	0	0	1834	3	183	1684
126	0	0	1825	6	184	1683
127	0	0	1860	6	184	1683
0	0	0	1903	6	184	1684
1	0	0	1937	6	182	1684
2	0	0	1963	5	184	1684
3	0	0	1976	6	184	1684
4	0	0	2002	6	183	1683
5	0	0	2055	7	183	1683
6	0	0	2110	6	184	1683
7	0	0	2152	5	183	1683
8	0	0	2169	5	183	1683
9	0	0	2174	6	183	1683
10	0	0	2207	5	183	1684
11	0	0	2213	5	182	1684
12	0	0	2205	4	183	1683
13	0	0	2199	5	184	1683
14	0	0	2163	4	184	1684
15	0	0	2126	4	184	1684
16	0	0	2088	4	184	1684
17	0	0	2029	3	182	1684
18	0	0	1955	4	184	1683
19	0	0	1886	4	183	1684
20	0	0	1820	4	183	1684
21	0	0	1799	6	184	1684
22	0	0	1841	4	184	1684
23	0	0	1880	5	184	1684
24	0	0	1905	5	185	1683
25	0	0	1908	5	184	1683
26	0	0	1930	5	183	1684
27	0	0	1973	4	184	1684
28	0	0	2032	5	183	1684
29	0	0	2097	5	183	1683
30	0	0	2192	6	183	1683
31	0	0	2221	5	184	1683
32	0	0	2176	4	184	1684
33	0	0	2123	4	183	1683
34	0	0	2028	3	184	1683
35	0	0	1928	4	184	1683
36	0	0	1881	4	182	1684
37	0	0	1852	4	183	1684
38	0	0	1838	5	183	1683
39	0	0	1846	5	183	1683
40	0	0	1836	5	184	1683
41	0	0	1855	6	183	1684
42	0	0	1906	5	184	1683
43	0	0	1939	5	184	1683
44	0	0	1957	5	183	1683
45	0	0	1972	5	183	1683
46	0	0	1988	5	183	1684
47	0	0	2009	4	184	1684
48	0	0	2051	5	183	1684
49	0	0	2085	5	183	1683
50	0	0	2137	5	182	1683
51	0	0	2183	5	183	1684
52	0	0	2174	4	183	1684
53	0	0	2126	4	182	1684
54	0	0	2037	4	183	1683
55	0	0	1923	5	183	1683
56	0	0	1851	4	185	1684
57	0	0	1805	4	183	1684
58	0	0	1774	4	183	1683
59	0	0	1781	5	183	1683
60	0	0	1807	5	183	1684
61	0	0	1838	5	185	1683
62	0	0	1848	4	183	1683
63	0	0	1865	5	184	1683
64	0	0	1911	5	184	1683
65	0	0	1974	5	184	1683
66	0	0	2032	5	183	1683
67	0	0	2042	5	183	1684
68	0	0	2026	5	184	1683
69	0	0	2039	5	183	1683
70	0	0	2119	5	183	1683
71	0	0	2186	5	183	1683
72	0	0	2195	4	183	1684
73	0	0	2172	4	184	1683
74	0	0	2107	4	183	1684
75	0	0	2039	4	184	1684
76	0	0	1978	4	183	1683
77	0	0	1912	4	183	1684
78	0	0	1832	4	184	1683
79	0	0	1771	4	185	1683
80	0	0	1746	5	183	1683
81	0	0	1769	5	184	1684
82	0	0	1824	5	183	1684
83	0	0	1890	5	183	1683
84	0	0	1950	5	183	1683
85	0	0	1991	5	184	1683
86	0	0	2043	5	184	1683
87	0	0	2107	5	183	1683
88	0	0	2152	5	182	1683
89	0	0	2186	5	184	1683
90	0	0	2244	5	181	1683
91	0	0	2261	4	183	1683
92	0	0	2237	4	182	1684
93	0	0	2221	4	183	1684
94	0	0	2216	6	183	1683
95	0	0	2245	5	183	1683
96	0	0	2306	5	184	1684
97	0	0	2340	5	184	1684
98	0	0	2334	4	183	1683
99	0	0	2331	5	184	1683
100	0	0	2334	4	183	1683
101	0	0	2365	5	184	1683
102	0	0	2416	5	183	1684
103	0	0	2461	5	184	1683
104	0	0	2507	5	184	1684
105	0	0	2560	5	184	1683
106	0	0	2631	5	183	1683
107	0	0	2684	5	183	1684
108	0	0	2694	5	183	1683
109	0	0	2657	4	182	1683
110	0	0	2627	4	182	1683
111	0	0	2574	4	183	1684
112	0	0	2491	4	183	1684
113	0	0	2418	4	184	1683
114	0	0	2299	4	183	1683
115	0	0	2131	4	183	1684
116	0	0	1957	4	185	1683
117	0	0	1812	4	184	1684
118	0	0	1703	4	184	1683
119	0	0	1637	4	183	1683
120	0	0	1588	3	183	1683
121	0	0	1538	4	184	1683
122	0	0	1517	4	183	1684
123	0	0	1547	5	183	1683
124	0	0	1602	4	184	1683
125	0	0	1646	5	184	1683
126	0	0	1698	5	184	1684
127	0	0	1746	5	183	1683
0	0	0	1795	5	183	1683
1	0	0	1848	5	184	1683
2	0	0	1923	4	184	1683
3	0	0	1965	4	184	1683
4	0	0	1952	4	182	1684
5	0	0	1896	4	184	1683
6	0	0	1799	4	183	1683
7	0	0	1700	3	183	1683
8	0	0	1648	4	184	1683
9	0	0	1652	5	183	1684
10	0	0	1688	4	183	1683
11	0	0	1732	4	184	1684
12	0	0	1750	4	183	1683
13	0	0	1774	5	184	1683
14	0	0	1796	5	183	1684
15	0	0	1810	5	184	1684
16	0	0	1872	5	184	1683
17	0	0	1955	6	183	1683
18	0	0	2016	5	183	1684
19	0	0	2032	5	181	1684
20	0	0	2051	5	182	1683
21	0	0	2074	5	183	1683
22	0	0	2122	4	182	1683
23	0	0	2175	5	182	1683
24	0	0	2189	4	183	1684
25	0	0	2151	4	182	1684
26	0	0	2069	6	184	1683
27	0	0	1983	4	184	1683
28	0	0	1905	4	183	1684
29	0	0	1835	4	184	1684
30	0	0	1783	4	183	1684
31	0	0	1756	4	183	1683
32	0	0	1762	6	184	1683
33	0	0	1797	5	185	1683
34	0	0	1858	5	183	1683
35	0	0	1916	5	183	1683
36	0	0	1975	5	184	1683
37	0	0	2041	4	183	1683
38	0	0	2100	5	183	1683
39	0	0	2127	5	183	1684
40	0	0	2135	5	183	1683
41	0	0	2138	5	183	1683
42	0	0	2177	4	183	1683
43	0	0	2187	4	183	1683
44	0	0	2149	4	183	1684
45	0	0	2096	4	184	1683
46	0	0	2013	4	184	1684
47	0	0	1928	4	184	1684
48	0	0	1858	4	183	1683
49	0	0	1806	4	183	1684
50	0	0	1775	4	182	1683
51	0	0	1793	5	184	1683
52	0	0	1814	5	183	1683
53	0	0	1844	5	183	1683
54	0	0	1911	5	183	1683
55	0	0	1984	5	183	1683
56	0	0	2065	5	183	1683
57	0	0	2129	4	183	1683
58	0	0	2192	5	184	1683
59	0	0	2246	5	183	1684
60	0	0	2252	5	183	1683
61	0	0	2226	5	182	1684
62	0	0	2230	4	183	1683
63	0	0	2205	4	184	1683
64	0	0	2140	4	183	1684
65	0	0	2081	4	183	1683
66	0	0	2027	4	183	1683
67	0	0	1974	4	184	1683
68	0	0	1923	4	184	1683
69	0	0	1868	4	184	1684
70	0	0	1828	4	184	1683
71	0	0	1836	5	183	1683
72	0	0	1853	4	184	1683
73	0	0	1856	5	183	1683
74	0	0	1843	4	184	1683
75	0	0	1839	5	183	1684
76	0	0	1878	5	183	1683
77	0	0	1949	5	183	1683
78	0	0	2021	5	183	1683
79	0	0	2105	5	184	1683
80	0	0	2179	5	183	1683
81	0	0	2195	5	183	1683
82	0	0	2204	5	183	1683
83	0	0	2201	4	183	1683
84	0	0	2175	4	184	1683
85	0	0	2145	4	183	1683
86	0	0	2103	4	183	1683
87	0	0	2037	4	185	1684
88	0	0	1978	4	184	1683
89	0	0	1937	4	184	1683
90	0	0	1922	4	184	1683
91	0	0	1912	4	183	1683
92	0	0	1891	3	184	1683
93	0	0	1877	4	184	1683
94	0	0	1879	5	184	1683
95	0	0	1923	5	183	1683
96	0	0	1990	5	183	1684
97	0	0	2031	5	183	1683
98	0	0	2070	5	182	1683
99	0	0	2105	5	183	1684
100	0	0	2124	5	183	1683
101	0	0	2130	5	182	1684
102	0	0	2168	5	183	1684
103	0	0	2184	4	183	1683
104	0	0	2161	4	183	1684
105	0	0	2115	4	183	1683
106	0	0	2046	4	184	1683
107	0	0	1966	4	183	1683
108	0	0	1899	4	185	1683
109	0	0	1868	4	183	1683
110	0	0	1858	5	183	1683
111	0	0	1872	5	184	1683
112	0	0	1883	4	183	1683
113	0	0	1893	5	184	1683
114	0	0	1908	5	183	1684
115	0	0	1930	5	184	1684
116	0	0	1977	5	183	1683
117	0	0	2045	5	183	1684
118	0	0	2104	5	183	1684
119	0	0	2136	5	181	1684
120	0	0	2164	5	182	1683
121	0	0	2190	5	183	1683
122	0	0	2240	4	183	1684
123	0	0	2263	4	182	1683
124	0	0	2235	4	183	1684
125	0	0	2189	4	183	1683
126	0	0	2122	4	184	1683
127	0	0	2046	3	184	1683
0	0	0	1988	4	184	1683
1	0	0	1941	4	182	1683
2	0	0	1894	4	184	1683
3	0	0	1874	4	183	1684
4	0	0	1881	5	184	1684
5	0	0	1898	5	184	1683
6	0	0	1925	5	183	1684
7	0	0	1980	5	183	1683
8	0	0	2048	5	183	1683
9	0	0	2109	5	184	1683
10	0	0	2154	5	184	1683
11	0	0	2171	5	184	1684
12	0	0	2202	5	184	1683
13	0	0	2228	4	182	1683
14	0	0	2269	4	184	1683
15	0	0	2292	4	183	1683
16	0	0	2280	4	183	1684
17	0	0	2260	4	184	1683
18	0	0	2231	4	183	1683
19	0	0	2179	4	184	1683
20	0	0	2124	4	184	1684
21	0	0	2088	4	184	1684
22	0	0	2064	4	183	1684
23	0	0	2038	5	184	1683
24	0	0	2008	4	184	1683
25	0	0	2002	5	184	1683
26	0	0	2017	5	182	1683
27	0	0	2028	5	184	1683
28	0	0	2044	5	183	1683
29	0	0	2094	5	184	1683
30	0	0	2168	5	184	1683
31	0	0	2247	5	182	1683
32	0	0	2301	5	183	1683
33	0	0	2334	5	183	1683
34	0	0	2379	4	184	1683
35	0	0	2389	4	183	1684
36	0	0	2322	4	184	1684
37	0	0	2206	4	183	1683
38	0	0	2085	4	182	1684
39	0	0	2010	4	183	1684
40	0	0	2004	4	184	1684
41	0	0	2014	5	183	1683
42	0	0	2007	4	184	1683
43	0	0	1984	4	183	1683
44	0	0	1956	4	183	1683
45	0	0	1935	4	183	1683
46	0	0	1936	5	184	1684
47	0	0	1963	5	184	1683
48	0	0	2023	5	183	1683
49	0	0	2081	5	184	1683
50	0	0	2150	5	185	1683
51	0	0	2228	4	183	1684
52	0	0	2286	5	183	1684
53	0	0	2314	4	183	1683
54	0	0	2342	5	182	1683
55	0	0	2362	5	182	1684
56	0	0	2354	4	184	1684
57	0	0	2309	4	183	1683
58	0	0	2217	3	182	1684
59	0	0	2128	4	183	1683
60	0	0	2085	4	185	1683
61	0	0	2071	4	184	1684
62	0	0	2046	4	184	1683
63	0	0	2024	4	183	1683
64	0	0	2012	5	184	1683
65	0	0	2009	5	185	1683
66	0	0	2025	5	184	1683
67	0	0	2049	5	183	1684
68	0	0	2034	4	183	1683
69	0	0	2045	5	183	1683
70	0	0	2125	5	182	1684
71	0	0	2221	5	184	1684
72	0	0	2293	5	183	1683
73	0	0	2349	4	181	1683
74	0	0	2399	4	184	1683
75	0	0	2392	4	183	1683
76	0	0	2387	4	183	1683
77	0	0	2400	4	183	1683
78	0	0	2350	3	183	1683
79	0	0	2255	4	183	1684
80	0	0	2173	4	184	1683
81	0	0	2115	4	185	1683
82	0	0	2078	4	183	1683
83	0	0	2048	4	183	1683
84	0	0	2015	4	184	1684
85	0	0	2006	5	183	1683
86	0	0	2026	5	183	1683
87	0	0	2044	5	183	1683
88	0	0	2057	5	182	1683
89	0	0	2089	5	184	1684
90	0	0	2152	5	183	1683
91	0	0	2225	5	183	1683
92	0	0	2270	5	183	1683
93	0	0	2267	5	183	1683
94	0	0	2289	4	182	1684
95	0	0	2307	4	183	1683
96	0	0	2289	4	185	1683
97	0	0	2269	4	182	1683
98	0	0	2215	4	182	1684
99	0	0	2159	4	184	1684
100	0	0	2115	4	183	1683
101	0	0	2092	4	183	1683
102	0	0	2074	4	184	1683
103	0	0	2053	5	183	1683
104	0	0	2021	4	183	1683
105	0	0	2003	5	183	1684
106	0	0	2012	5	183	1684
107	0	0	2025	5	183	1683
108	0	0	2044	6	182	1683
109	0	0	2064	5	183	1683
110	0	0	2101	5	182	1683
111	0	0	2142	5	183	1684
112	0	0	2189	5	183	1684
113	0	0	2234	5	183	1684
114	0	0	2314	5	183	1683
115	0	0	2362	4	183	1684
116	0	0	2331	4	183	1684
117	0	0	2288	3	182	1683
118	0	0	2198	3	184	1683
119	0	0	2083	3	183	1684
120	0	0	1979	4	183	1683
121	0	0	1907	4	183	1684
122	0	0	1869	4	184	1683
123	0	0	1868	5	183	1684
124	0	0	1870	5	184	1684
125	0	0	1883	5	184	1683
126	0	0	1891	5	183	1683
127	0	0	1888	5	184	1684
0	0	0	1895	5	184	1683
1	0	0	1922	5	184	1683
2	0	0	1979	5	184	1684
3	0	0	2030	5	183	1683
4	0	0	2074	5	184	1683
5	0	0	2109	5	181	1684
6	0	0	2165	4	183	1684
7	0	0	2194	4	183	1683
8	0	0	2174	4	182	1683
9	0	0	2132	3	183	1683
10	0	0	2042	4	184	1683
11	0	0	1943	4	184	1683
12	0	0	1865	4	183	1684
13	0	0	1794	4	183	1683
14	0	0	1735	4	184	1684
15	0	0	1719	5	183	1683
16	0	0	1734	5	184	1683
17	0	0	1748	5	183	1684
18	0	0	1762	5	183	1683
19	0	0	1785	5	183	1683
20	0	0	1843	5	183	1683
21	0	0	1910	5	184	1684
22	0	0	1969	5	184	1683
23	0	0	2021	5	183	1683
24	0	0	2067	4	183	1683
25	0	0	2082	4	183	1684
26	0	0	2105	4	183	1684
27	0	0	2092	3	183	1683
28	0	0	2031	4	183	1683
29	0	0	1939	4	184	1683
30	0	0	1862	4	185	1683
31	0	0	1804	4	184	1683
32	0	0	1747	4	183	1683
33	0	0	1687	5	184	1683
34	0	0	1664	4	184	1683
35	0	0	1680	5	182	1683
36	0	0	1728	5	183	1683
37	0	0	1790	5	183	1683
38	0	0	1845	5	183	1683
39	0	0	1883	5	183	1683
40	0	0	1915	5	183	1684
41	0	0	1955	5	183	1684
42	0	0	2003	5	183	1684
43	0	0	2018	5	183	1684
44	0	0	2002	4	184	1683
45	0	0	1993	4	184	1684
46	0	0	2045	5	184	1684
47	0	0	2073	5	184	1683
48	0	0	2027	4	183	1683
49	0	0	1969	4	183	1683
50	0	0	1894	4	184	1683
51	0	0	1802	4	182	1683
52	0	0	1723	4	184	1683
53	0	0	1667	4	182	1683
54	0	0	1650	4	183	1683
55	0	0	1658	5	183	1683
56	0	0	1682	5	182	1683
57	0	0	1742	5	182	1683
58	0	0	1830	5	183	1683
59	0	0	1930	5	183	1684
60	0	0	2042	4	184	1683
61	0	0	2126	4	183	1683
62	0	0	2137	5	184	1684
63	0	0	2120	4	183	1683
64	0	0	2114	5	184	1683
65	0	0	2075	3	184	1683
66	0	0	2079	5	184	1683
67	0	0	2083	4	184	1684
68	0	0	2031	4	184	1683
69	0	0	1962	4	183	1683
70	0	0	1883	4	183	1683
71	0	0	1803	4	184	1683
72	0	0	1774	5	183	1684
73	0	0	1785	5	183	1684
74	0	0	1803	5	182	1683
75	0	0	1812	5	183	1683
76	0	0	1797	4	183	1683
77	0	0	1796	5	183	1683
78	0	0	1827	6	183	1684
79	0	0	1880	5	182	1684
80	0	0	1939	5	183	1683
81	0	0	1997	5	183	1684
82	0	0	2053	4	183	1684
83	0	0	2097	5	184	1683
84	0	0	2148	5	183	1683
85	0	0	2175	4	185	1683
86	0	0	2200	5	184	1683
87	0	0	2185	4	185	1684
88	0	0	2123	3	185	1684
89	0	0	2049	4	184	1683
90	0	0	1947	4	184	1683
91	0	0	1842	4	183	1683
92	0	0	1771	4	183	1683
93	0	0	1728	4	182	1683
94	0	0	1704	4	183	1683
95	0	0	1701	5	183	1683
96	0	0	1739	5	183	1683
97	0	0	1799	6	183	1684
98	0	0	1874	5	182	1683
99	0	0	1927	6	183	1683
100	0	0	1977	5	184	1683
101	0	0	2041	5	184	1683
102	0	0	2098	5	183	1684
103	0	0	2121	5	184	1684
104	0	0	2135	4	184	1683
105	0	0	2152	4	183	1684
106	0	0	2193	4	184	1683
107	0	0	2218	4	183	1683
108	0	0	2213	5	183	1683
109	0	0	2196	4	182	1683
110	0	0	2140	4	183	1683
111	0	0	2040	3	184	1683
112	0	0	1937	4	183	1684
113	0	0	1846	4	183	1683
114	0	0	1801	4	184	1683
115	0	0	1796	5	184	1683
116	0	0	1807	5	183	1684
117	0	0	1837	6	184	1684
118	0	0	1857	5	183	1684
119	0	0	1861	6	183	1683
120	0	0	1879	6	185	1684
121	0	0	1925	6	183	1683
122	0	0	1992	5	183	1684
123	0	0	2056	5	184	1684
124	0	0	2098	5	183	1683
125	0	0	2104	4	183	1684
126	0	0	2125	4	183	1684
127	0	0	2139	4	183	1684
0	0	0	2122	3	183	1683
1	0	0	2081	4	183	1684
2	0	0	2024	4	184	1683
3	0	0	1955	3	183	1683
4	0	0	1900	4	183	1683
5	0	0	1882	4	183	1684
6	0	0	1873	4	182	1684
7	0	0	1852	4	185	1683
8	0	0	1833	5	184	1683
9	0	0	1840	5	184	1683
10	0	0	1892	6	182	1684
11	0	0	1956	6	183	1684
12	0	0	2011	6	183	1684
13	0	0	2061	5	183	1683
14	0	0	2107	6	183	1683
15	0	0	2143	5	183	1684
16	0	0	2170	5	183	1683
17	0	0	2168	4	183	1684
18	0	0	2166	4	183	1683
19	0	0	2147	4	182	1684
20	0	0	2122	4	183	1683
21	0	0	2114	4	183	1683
22	0	0	2087	4	183	1683
23	0	0	2039	4	183	1683
24	0	0	1992	3	183	1684
25	0	0	1940	4	184	1684
26	0	0	1913	4	183	1683
27	0	0	1895	4	184	1684
28	0	0	1853	4	183	1683
29	0	0	1822	5	183	1684
30	0	0	1837	6	183	1683
31	0	0	1872	6	183	1683
32	0	0	1911	6	183	1684
33	0	0	1951	5	184	1684
34	0	0	2001	6	184	1684
35	0	0	2055	5	184	1684
36	0	0	2092	5	183	1683
37	0	0	2115	4	183	1683
38	0	0	2189	4	183	1684
39	0	0	2257	4	185	1684
40	0	0	2246	4	183	1683
41	0	0	2215	4	182	1683
42	0	0	2157	4	183	1683
43	0	0	2076	4	184	1683
44	0	0	2006	4	183	1684
45	0	0	1933	4	182	1683
46	0	0	1870	4	184	1683
47	0	0	1823	4	185	1683
48	0	0	1765	4	184	1683
49	0	0	1724	5	183	1683
50	0	0	1739	5	183	1683
51	0	0	1784	5	182	1683
52	0	0	1860	5	183	1684
53	0	0	1936	5	183	1684
54	0	0	2033	5	183	1683
55	0	0	2129	5	183	1684
56	0	0	2184	5	184	1683
57	0	0	2203	5	183	1683
58	0	0	2241	3	184	1683
59	0	0	2249	4	184	1684
60	0	0	2180	4	184	1683
61	0	0	2074	4	183	1683
62	0	0	1963	4	184	1683
63	0	0	1873	3	182	1684
64	0	0	1824	4	183	1684
65	0	0	1802	4	182	1683
66	0	0	1807	5	183	1683
67	0	0	1843	5	183	1683
68	0	0	1887	5	183	1683
69	0	0	1919	5	182	1684
70	0	0	1954	5	182	1683
71	0	0	1985	5	182	1683
72	0	0	2023	5	184	1683
73	0	0	2067	5	184	1683
74	0	0	2114	4	183	1684
75	0	0	2165	5	184	1684
76	0	0	2200	5	184	1683
77	0	0	2216	5	183	1684
78	0	0	2256	4	184	1684
79	0	0	2262	4	184	1684
80	0	0	2208	4	184	1684
81	0	0	2128	4	183	1683
82	0	0	2045	5	183	1683
83	0	0	1977	3	183	1683
84	0	0	1921	4	184	1684
85	0	0	1847	4	182	1683
86	0	0	1778	4	182	1683
87	0	0	1760	5	182	1683
88	0	0	1780	5	184	1683
89	0	0	1832	5	182	1683
90	0	0	1947	5	183	1683
91	0	0	2074	4	183	1684
92	0	0	2167	4	183	1683
93	0	0	2217	4	183	1683
94	0	0	2239	4	184	1684
95	0	0	2242	5	184	1683
96	0	0	2243	5	184	1684
97	0	0	2238	5	183	1683
98	0	0	2267	3	184	1683
99	0	0	2261	4	184	1683
100	0	0	2181	4	184	1683
101	0	0	2085	4	184	1683
102	0	0	1983	4	183	1683
103	0	0	1884	4	183	1684
104	0	0	1825	4	183	1683
105	0	0	1802	5	182	1684
106	0	0	1807	5	182	1683
107	0	0	1820	5	182	1683
108	0	0	1834	5	183	1683
109	0	0	1875	5	183	1684
110	0	0	1954	5	182	1684
111	0	0	2037	5	182	1683
112	0	0	2118	5	183	1684
113	0	0	2205	5	183	1684
114	0	0	2283	5	183	1684
115	0	0	2321	5	183	1684
116	0	0	2298	4	184	1683
117	0	0	2256	4	184	1684
118	0	0	2266	4	184	1683
119	0	0	2253	4	183	1683
120	0	0	2184	4	184	1683
121	0	0	2111	4	183	1684
122	0	0	2019	4	184	1684
123	0	0	1914	4	184	1683
124	0	0	1825	4	182	1684
125	0	0	1769	4	182	1683
126	0	0	1766	5	183	1683
127	0	0	1804	5	183	1683
0	0	0	1847	5	183	1684
1	0	0	1878	5	183	1683
2	0	0	1926	5	183	1683
3	0	0	1982	5	183	1683
4	0	0	2046	5	183	1683
5	0	0	2114	5	184	1683
6	0	0	2180	5	183	1683
7	0	0	2246	5	184	1684
8	0	0	2294	5	184	1683
9	0	0	2294	5	184	1683
10	0	0	2304	5	184	1684
11	0	0	2292	4	184	1683
12	0	0	2239	4	184	1684
13	0	0	2170	4	184	1684
14	0	0	2081	4	184	1683
15	0	0	1974	5	185	1683
16	0	0	1917	4	183	1684
17	0	0	1910	5	182	1683
18	0	0	1927	5	182	1683
19	0	0	1959	5	183	1683
20	0	0	2005	5	183	1684
21	0	0	2046	5	183	1684
22	0	0	2102	5	183	1684
23	0	0	2150	5	184	1683
24	0	0	2184	5	183	1683
25	0	0	2217	5	183	1684
26	0	0	2262	5	184	1684
27	0	0	2291	4	184	1684
28	0	0	2308	5	184	1683
29	0	0	2300	4	184	1684
30	0	0	2299	5	185	1684
31	0	0	2263	4	184	1684
32	0	0	2204	4	183	1684
33	0	0	2153	4	184	1683
34	0	0	2078	4	183	1683
35	0	0	1989	4	184	1683
36	0	0	1921	4	183	1684
37	0	0	1872	4	183	1684
38	0	0	1844	4	183	1683
39	0	0	1848	5	183	1683
40	0	0	1868	5	183	1683
41	0	0	1888	5	183	1684
42	0	0	1944	5	184	1684
43	0	0	2015	5	184	1683
44	0	0	2105	5	182	1683
45	0	0	2210	5	183	1683
46	0	0	2283	5	183	1684
47	0	0	2330	5	184	1683
48	0	0	2369	5	183	1683
49	0	0	2388	4	183	1683
50	0	0	2416	4	183	1684
51	0	0	2397	3	183	1684
52	0	0	2308	4	182	1684
53	0	0	2222	4	183	1683
54	0	0	2129	4	183	1683
55	0	0	2058	4	183	1684
56	0	0	2048	4	183	1684
57	0	0	2063	5	184	1683
58	0	0	2049	4	183	1683
59	0	0	2018	4	183	1683
60	0	0	1986	4	184	1684
61	0	0	1934	4	184	1683
62	0	0	1920	5	184	1684
63	0	0	1928	6	183	1683
64	0	0	1954	5	183	1683
65	0	0	2005	6	184	1683
66	0	0	2059	5	183	1683
67	0	0	2098	5	183	1683
68	0	0	2128	5	183	1683
69	0	0	2163	5	183	1683
70	0	0	2217	4	182	1684
71	0	0	2240	4	184	1684
72	0	0	2196	4	183	1684
73	0	0	2146	4	183	1683
74	0	0	2090	4	184	1683
75	0	0	2024	4	183	1684
76	0	0	1987	4	183	1684
77	0	0	1973	4	183	1683
78	0	0	1955	4	183	1684
79	0	0	1935	4	184	1683
80	0	0	1905	5	184	1683
81	0	0	1890	5	183	1684
82	0	0	1913	5	183	1683
83	0	0	1957	5	183	1683
84	0	0	2011	6	183	1684
85	0	0	2063	5	183	1683
86	0	0	2120	5	184	1684
87	0	0	2167	5	182	1684
88	0	0	2197	5	183	1683
89	0	0	2224	5	183	1683
90	0	0	2270	4	183	1684
91	0	0	2302	4	183	1684
92	0	0	2302	4	183	1684
93	0	0	2263	3	183	1683
94	0	0	2186	4	183	1683
95	0	0	2097	3	183	1683
96	0	0	2026	3	183	1684
97	0	0	1977	4	184	1684
98	0	0	1950	4	183	1683
99	0	0	1954	5	183	1683
100	0	0	1960	5	182	1684
101	0	0	1972	5	184	1683
102	0	0	2007	6	183	1683
103	0	0	2033	6	184	1683
104	0	0	2048	6	184	1683
105	0	0	2083	6	183	1684
106	0	0	2116	5	183	1684
107	0	0	2129	5	183	1683
108	0	0	2149	5	183	1684
109	0	0	2183	6	182	1683
110	0	0	2252	5	183	1683
111	0	0	2303	4	183	1684
112	0	0	2303	4	183	1684
113	0	0	2280	5	185	1683
114	0	0	2242	3	185	1683
115	0	0	2183	4	183	1684
116	0	0	2139	3	184	1684
117	0	0	2112	4	183	1683
118	0	0	2099	5	184	1683
119	0	0	2120	5	183	1684
120	0	0	2158	6	183	1684
121	0	0	2189	6	183	1684
122	0	0	2240	6	184	1684
123	0	0	2308	6	183	1683
124	0	0	2384	7	184	1684
125	0	0	2483	6	183	1684
126	0	0	2603	5	183	1683
127	0	0	2694	5	183	1684
0	0	0	2751	5	183	1683
1	0	0	2779	5	183	1683
2	0	0	2815	4	183	1683
3	0	0	2823	4	183	1684
4	0	0	2771	4	185	1684
5	0	0	2712	4	183	1683
6	0	0	2634	4	183	1683
7	0	0	2519	4	183	1683
8	0	0	2378	3	184	1683
9	0	0	2229	4	182	1684
10	0	0	2091	4	183	1683
11	0	0	1980	4	184	1683
12	0	0	1887	5	183	1683
13	0	0	1814	4	184	1684
14	0	0	1774	5	184	1684
15	0	0	1747	4	182	1683
16	0	0	1750	7	183	1684
17	0	0	1787	7	183	1684
18	0	0	1833	5	183	1684
19	0	0	1897	5	184	1683
20	0	0	1977	5	184	1683
21	0	0	2051	4	183	1683
22	0	0	2124	3	182	1684
23	0	0	2176	3	183	1683
24	0	0	2182	4	184	1684
25	0	0	2159	4	183	1683
26	0	0	2086	3	183	1683
27	0	0	1982	4	183	1684
28	0	0	1899	4	184	1684
29	0	0	1839	4	182	1684
30	0	0	1803	4	185	1683
31	0	0	1811	5	183	1684
32	0	0	1819	7	184	1683
33	0	0	1835	7	183	1684
34	0	0	1887	8	184	1684
35	0	0	1927	8	184	1683
36	0	0	1968	8	183	1683
37	0	0	2025	7	184	1684
38	0	0	2077	6	184	1684
39	0	0	2131	6	184	1683
40	0	0	2182	5	183	1683
41	0	0	2193	5	183	1683
42	0	0	2213	4	183	1684
43	0	0	2231	4	183	1684
44	0	0	2222	4	184	1683
45	0	0	2196	4	183	1683
46	0	0	2153	4	185	1683
47	0	0	2083	3	182	1683
48	0	0	2011	3	183	1684
49	0	0	1936	4	183	1683
50	0	0	1848	4	183	1683
51	0	0	1797	5	183	1683
52	0	0	1804	6	184	1684
53	0	0	1836	8	184	1684
54	0	0	1889	9	183	1684
55	0	0	1948	9	184	1683
56	0	0	2011	9	184	1684
57	0	0	2096	8	183	1684
58	0	0	2177	7	183	1684
59	0	0	2241	6	184	1684
60	0	0	2278	5	183	1683
61	0	0	2304	4	183	1683
62	0	0	2358	4	184	1684
63	0	0	2384	5	184	1684
64	0	0	2339	3	184	1684
65	0	0	2275	3	184	1683
66	0	0	2205	4	183	1684
67	0	0	2119	3	184	1684
68	0	0	2046	4	184	1683
69	0	0	1999	4	183	1684
70	0	0	1969	4	184	1683
71	0	0	1960	6	184	1683
72	0	0	1961	7	183	1684
73	0	0	1972	8	184	1683
74	0	0	2011	9	183	1683
75	0	0	2052	7	182	1683
76	0	0	2090	6	182	1684
77	0	0	2159	3	183	1684
78	0	0	2245	5	184	1684
79	0	0	2316	5	184	1683
80	0	0	2346	5	183	1683
81	0	0	2341	5	184	1684
82	0	0	2347	3	185	1684
83	0	0	2314	3	183	1684
84	0	0	2229	4	184	1683
85	0	0	2148	4	185	1683
86	0	0	2068	4	183	1683
87	0	0	1974	4	184	1684
88	0	0	1920	4	183	1684
89	0	0	1942	5	183	1683
90	0	0	1994	5	183	1683
91	0	0	2035	5	184	1683
92	0	0	2057	6	183	1683
93	0	0	2069	5	182	1683
94	0	0	2105	5	183	1683
95	0	0	2141	5	183	1683
96	0	0	2191	5	184	1683
97	0	0	2274	4	183	1684
98	0	0	2337	4	183	1684
99	0	0	2359	5	184	1683
100	0	0	2352	5	183	1684
101	0	0	2348	5	184	1683
102	0	0	2370	5	183	1684
103	0	0	2365	4	185	1684
104	0	0	2280	4	184	1683
105	0	0	2186	4	183	1684
106	0	0	2124	4	183	1684
107	0	0	2066	4	183	1683
108	0	0	2023	4	183	1684
109	0	0	1994	4	183	1683
110	0	0	1972	4	183	1683
111	0	0	1969	5	182	1684
112	0	0	1983	5	182	1683
113	0	0	2000	4	182	1684
114	0	0	2004	4	183	1683
115	0	0	1990	5	183	1683
116	0	0	2025	5	185	1683
117	0	0	2108	5	183	1684
118	0	0	2200	5	183	1684
119	0	0	2283	5	184	1683
120	0	0	2348	5	184	1683
121	0	0	2373	5	183	1683
122	0	0	2400	5	184	1683
123	0	0	2392	4	184	1684
124	0	0	2296	4	184	1683
125	0	0	2179	4	185	1683
126	0	0	2053	4	184	1683
127	0	0	1945	2	183	1684
0	0	0	1898	4	184	1684
1	0	0	1906	5	183	1683
2	0	0	1936	5	182	1683
3	0	0	1994	5	183	1683
4	0	0	2055	4	182	1683
5	0	0	2112	4	182	1683
6	0	0	2169	5	183	1683
7	0	0	2196	5	182	1683
8	0	0	2232	4	183	1683
9	0	0	2289	5	184	1683
10	0	0	2348	4	184	1684
11	0	0	2386	5	184	1683
12	0	0	2395	5	184	1683
13	0	0	2395	4	183	1683
14	0	0	2414	5	185	1684
15	0	0	2387	4	184	1684
16	0	0	2279	4	184	1684
17	0	0	2160	4	184	1684
18	0	0	2059	4	183	1684
19	0	0	1983	4	183	1683
20	0	0	1931	4	183	1684
21	0	0	1909	4	183	1684
22	0	0	1898	5	183	1683
23	0	0	1924	5	181	1684
24	0	0	1981	4	183	1684
25	0	0	2040	5	184	1683
26	0	0	2117	5	183	1683
27	0	0	2200	5	182	1683
28	0	0	2274	4	182	1683
29	0	0	2329	5	183	1683
30	0	0	2355	5	183	1684
31	0	0	2368	5	184	1683
32	0	0	2381	5	184	1684
33	0	0	2376	4	184	1684
34	0	0	2373	5	184	1683
35	0	0	2342	4	184	1683
36	0	0	2266	4	184	1683
37	0	0	2181	4	184	1683
38	0	0	2104	4	183	1684
39	0	0	2046	4	184	1684
40	0	0	2030	5	183	1684
41	0	0	2043	5	183	1683
42	0	0	2092	5	182	1683
43	0	0	2151	4	183	1683
44	0	0	2161	5	182	1683
45	0	0	2152	5	183	1684
46	0	0	2183	5	183	1683
47	0	0	2214	5	183	1683
48	0	0	2238	5	183	1683
49	0	0	2292	5	183	1683
50	0	0	2357	5	183	1684
51	0	0	2407	5	183	1683
52	0	0	2423	4	183	1684
53	0	0	2430	6	183	1683
54	0	0	2440	5	184	1684
55	0	0	2412	4	184	1684
56	0	0	2315	4	185	1683
57	0	0	2216	4	183	1684
58	0	0	2154	4	182	1683
59	0	0	2100	4	183	1684
60	0	0	2057	4	183	1683
61	0	0	2026	4	183	1684
62	0	0	2013	5	182	1683
63	0	0	2041	5	183	1683
64	0	0	2090	5	181	1684
65	0	0	2136	5	182	1684
66	0	0	2173	5	183	1683
67	0	0	2203	5	183	1683
68	0	0	2243	5	184	1683
69	0	0	2307	5	184	1683
70	0	0	2377	4	184	1684
71	0	0	2433	5	184	1683
72	0	0	2456	4	183	1683
73	0	0	2468	5	184	1683
74	0	0	2466	5	184	1684
75	0	0	2417	4	183	1684
76	0	0	2327	4	184	1683
77	0	0	2247	4	183	1684
78	0	0	2179	4	183	1683
79	0	0	2112	4	183	1683
80	0	0	2079	5	184	1684
81	0	0	2090	5	183	1683
82	0	0	2131	6	183	1683
83	0	0	2184	5	182	1684
84	0	0	2227	5	182	1683
85	0	0	2253	5	182	1684
86	0	0	2270	5	182	1683
87	0	0	2297	5	182	1683
88	0	0	2324	5	183	1684
89	0	0	2355	5	184	1684
90	0	0	2410	4	183	1684
91	0	0	2473	5	183	1683
92	0	0	2511	5	183	1683
93	0	0	2531	5	184	1683
94	0	0	2548	5	184	1684
95	0	0	2513	4	184	1684
96	0	0	2381	4	184	1683
97	0	0	2234	5	183	1683
98	0	0	2131	4	183	1684
99	0	0	2080	4	184	1684
100	0	0	2063	4	183	1684
101	0	0	2058	5	183	1683
102	0	0	2072	5	182	1683
103	0	0	2113	5	184	1683
104	0	0	2159	5	183	1683
105	0	0	2210	5	183	1684
106	0	0	2277	4	183	1684
107	0	0	2324	4	183	1683
108	0	0	2366	5	184	1683
109	0	0	2417	5	183	1683
110	0	0	2455	5	184	1684
111	0	0	2496	4	183	1683
112	0	0	2533	5	184	1683
113	0	0	2537	5	183	1684
114	0	0	2504	4	184	1684
115	0	0	2438	4	184	1684
116	0	0	2324	4	183	1683
117	0	0	2192	4	184	1683
118	0	0	2090	5	183	1683
119	0	0	2019	4	183	1684
120	0	0	1997	5	183	1684
121	0	0	2000	5	183	1683
122	0	0	2005	5	184	1683
123	0	0	2028	5	182	1683
124	0	0	2076	5	183	1684
125	0	0	2144	4	183	1683
126	0	0	2187	5	183	1683
127	0	0	2195	4	184	1684
0	0	0	2235	4	182	1684
1	0	0	2316	5	182	1683
2	0	0	2412	5	183	1684
3	0	0	2482	5	183	1683
4	0	0	2514	5	183	1683
5	0	0	2490	4	184	1684
6	0	0	2452	4	184	1684
7	0	0	2387	5	183	1683
8	0	0	2258	4	183	1683
9	0	0	2141	4	183	1683
10	0	0	2087	5	183	1683
11	0	0	2065	4	183	1684
12	0	0	2059	5	183	1684
13	0	0	2066	5	183	1683
14	0	0	2074	5	183	1683
15	0	0	2087	5	183	1683
16	0	0	2103	6	182	1683
17	0	0	2140	5	183	1684
18	0	0	2187	5	183	1683
19	0	0	2218	4	183	1684
20	0	0	2231	5	183	1684
21	0	0	2254	5	184	1683
22	0	0	2268	5	183	1684
23	0	0	2267	5	184	1683
24	0	0	2235	4	184	1683
25	0	0	2217	5	184	1683
26	0	0	2245	6	184	1683
27	0	0	2272	4	183	1684
28	0	0	2212	4	184	1683
29	0	0	2115	4	183	1683
30	0	0	2002	4	182	1684
31	0	0	1890	5	182	1683
32	0	0	1858	4	184	1684
33	0	0	1886	5	182	1683
34	0	0	1911	5	183	1683
35	0	0	1951	5	183	1684
36	0	0	1991	5	183	1684
37	0	0	2014	5	183	1683
38	0	0	2027	5	183	1684
39	0	0	2024	5	183	1683
40	0	0	2067	5	185	1683
41	0	0	2128	5	183	1684
42	0	0	2198	5	184	1684
43	0	0	2258	5	184	1683
44	0	0	2283	5	183	1683
45	0	0	2268	4	185	1683
46	0	0	2240	5	184	1683
47	0	0	2190	3	185	1683
48	0	0	2095	4	183	1683
49	0	0	2020	4	183	1683
50	0	0	1951	4	183	1684
51	0	0	1909	4	182	1684
52	0	0	1881	5	184	1683
53	0	0	1864	4	183	1684
54	0	0	1859	5	183	1683
55	0	0	1875	5	182	1683
56	0	0	1902	5	183	1684
57	0	0	1945	5	183	1683
58	0	0	2014	5	183	1684
59	0	0	2069	4	183	1683
60	0	0	2118	5	183	1683
61	0	0	2188	5	184	1683
62	0	0	2263	5	184	1684
63	0	0	2324	5	183	1683
64	0	0	2355	5	184	1683
65	0	0	2331	4	184	1683
66	0	0	2295	4	184	1683
67	0	0	2254	4	184	1684
68	0	0	2176	4	183	1683
69	0	0	2084	3	184	1684
70	0	0	1995	4	183	1683
71	0	0	1889	4	183	1683
72	0	0	1814	5	182	1684
73	0	0	1797	5	183	1683
74	0	0	1804	5	183	1683
75	0	0	1834	5	183	1683
76	0	0	1896	5	182	1683
77	0	0	1984	6	183	1684
78	0	0	2065	5	183	1683
79	0	0	2127	5	183	1683
80	0	0	2185	6	183	1683
81	0	0	2248	5	184	1683
82	0	0	2294	5	184	1684
83	0	0	2342	5	183	1684
84	0	0	2364	5	184	1683
85	0	0	2334	4	184	1683
86	0	0	2301	4	184	1684
87	0	0	2259	4	184	1683
88	0	0	2151	4	184	1683
89	0	0	2046	3	184	1683
90	0	0	1974	5	184	1683
91	0	0	1925	4	184	1684
92	0	0	1899	6	183	1683
93	0	0	1885	4	182	1683
94	0	0	1886	5	183	1683
95	0	0	1898	6	183	1683
96	0	0	1912	5	182	1683
97	0	0	1951	5	183	1683
98	0	0	2018	5	183	1683
99	0	0	2074	5	183	1684
100	0	0	2123	5	183	1684
101	0	0	2172	5	182	1683
102	0	0	2214	5	183	1684
103	0	0	2246	5	184	1683
104	0	0	2267	5	184	1683
105	0	0	2267	3	183	1684
106	0	0	2272	5	185	1684
107	0	0	2250	4	185	1684
108	0	0	2165	4	184	1683
109	0	0	2054	3	184	1683
110	0	0	1952	5	182	1683
111	0	0	1875	4	182	1683
112	0	0	1836	5	183	1684
113	0	0	1863	5	184	1683
114	0	0	1915	4	184	1684
115	0	0	1964	4	185	1683
116	0	0	2011	4	181	1684
117	0	0	2045	5	182	1684
118	0	0	2060	5	185	1683
119	0	0	2036	4	184	1683
120	0	0	2055	5	183	1683
121	0	0	2112	5	184	1683
122	0	0	2188	5	184	1684
123	0	0	2277	5	184	1683
124	0	0	2339	5	183	1683
125	0	0	2341	4	184	1684
126	0	0	2317	5	184	1683
127	0	0	2274	5	184	1684
0	0	0	2174	3	183	1683
1	0	0	2060	4	184	1683
2	0	0	1980	4	184	1684
3	0	0	1934	4	183	1684
4	0	0	1911	4	183	1684
5	0	0	1901	5	182	1684
6	0	0	1905	5	183	1683
7	0	0	1934	5	182	1683
8	0	0	1976	5	183	1684
9	0	0	2036	5	182	1684
10	0	0	2071	5	183	1684
11	0	0	2076	5	182	1683
12	0	0	2100	5	184	1684
13	0	0	2155	5	183	1683
14	0	0	2204	4	184	1684
15	0	0	2231	5	183	1683
16	0	0	2240	5	184	1683
17	0	0	2240	5	183	1684
18	0	0	2264	5	183	1683
19	0	0	2288	5	184	1684
20	0	0	2220	4	183	1683
21	0	0	2129	4	184	1683
22	0	0	2070	4	183	1684
23	0	0	1996	4	183	1684
24	0	0	1959	4	183	1683
25	0	0	1974	5	182	1684
26	0	0	1998	6	182	1683
27	0	0	2037	5	182	1683
28	0	0	2055	5	183	1683
29	0	0	2065	5	182	1684
30	0	0	2080	5	184	1684
31	0	0	2097	4	183	1684
32	0	0	2129	5	184	1684
33	0	0	2198	5	182	1683
34	0	0	2263	4	184	1684
35	0	0	2311	5	183	1683
36	0	0	2341	5	184	1684
37	0	0	2325	5	184	1684
38	0	0	2293	5	184	1684
39	0	0	2256	4	185	1684
40	0	0	2164	4	183	1683
41	0	0	2054	4	185	1683
42	0	0	1965	4	183	1683
43	0	0	1890	4	182	1684
44	0	0	1874	5	183	1684
45	0	0	1914	5	182	1683
46	0	0	1973	4	183	1684
47	0	0	2003	5	183	1684
48	0	0	2027	5	184	1684
49	0	0	2060	4	182	1684
50	0	0	2093	5	183	1683
51	0	0	2110	5	185	1683
52	0	0	2141	5	183	1684
53	0	0	2200	6	184	1684
54	0	0	2253	4	184	1683
55	0	0	2306	5	184	1684
56	0	0	2338	5	184	1684
57	0	0	2345	5	184	1684
58	0	0	2338	5	183	1684
59	0	0	2287	3	184	1684
60	0	0	2166	4	184	1684
61	0	0	2040	4	185	1683
62	0	0	1932	4	183	1683
63	0	0	1848	5	183	1684
64	0	0	1825	4	182	1684
65	0	0	1831	5	183	1683
66	0	0	1851	4	182	1684
67	0	0	1891	5	183	1683
68	0	0	1932	5	182	1684
69	0	0	1981	4	183	1684
70	0	0	2048	5	182	1684
71	0	0	2117	5	183	1683
72	0	0	2181	5	183	1684
73	0	0	2244	5	183	1684
74	0	0	2291	4	184	1684
75	0	0	2324	5	183	1684
76	0	0	2335	4	185	1684
77	0	0	2322	4	184	1684
78	0	0	2303	4	185	1684
79	0	0	2250	3	184	1684
80	0	0	2130	4	183	1684
81	0	0	2003	3	184	1683
82	0	0	1906	3	183	1683
83	0	0	1832	4	184	1684
84	0	0	1813	5	183	1684
85	0	0	1843	5	183	1683
86	0	0	1912	5	183	1683
87	0	0	1991	5	182	1683
88	0	0	2057	5	182	1684
89	0	0	2118	4	183	1684
90	0	0	2167	5	183	1683
91	0	0	2161	5	183	1683
92	0	0	2166	5	183	1683
93	0	0	2206	5	184	1684
94	0	0	2265	5	183	1684
95	0	0	2324	5	183	1683
96	0	0	2351	5	184	1684
97	0	0	2328	4	183	1684
98	0	0	2282	4	185	1683
99	0	0	2226	4	183	1684
100	0	0	2119	4	183	1684
101	0	0	2022	4	185	1683
102	0	0	1976	5	183	1683
103	0	0	1932	4	183	1684
104	0	0	1896	4	183	1684
105	0	0	1916	5	183	1683
106	0	0	1976	4	183	1683
107	0	0	2025	4	182	1683
108	0	0	2056	5	182	1684
109	0	0	2078	5	183	1684
110	0	0	2136	5	183	1683
111	0	0	2174	5	183	1683
112	0	0	2206	5	183	1683
113	0	0	2258	5	182	1684
114	0	0	2272	4	184	1684
115	0	0	2275	5	183	1683
116	0	0	2295	5	184	1683
117	0	0	2325	5	183	1683
118	0	0	2338	5	185	1684
119	0	0	2303	3	184	1684
120	0	0	2177	4	183	1684
121	0	0	2044	3	184	1683
122	0	0	1983	5	184	1683
123	0	0	1966	5	184	1683
124	0	0	1963	4	182	1684
125	0	0	1975	5	182	1683
126	0	0	2004	5	184	1683
127	0	0	2058	5	182	1684
0	0	0	2108	5	184	1683
1	0	0	2133	5	183	1684
2	0	0	2158	5	184	1683
3	0	0	2174	5	183	1683
4	0	0	2212	4	183	1683
5	0	0	2283	5	184	1684
6	0	0	2356	5	185	1684
7	0	0	2386	5	184	1684
8	0	0	2369	5	184	1683
9	0	0	2332	4	185	1683
10	0	0	2307	5	184	1683
11	0	0	2273	4	184	1684
12	0	0	2195	4	184	1683
13	0	0	2144	4	184	1683
14	0	0	2101	4	183	1683
15	0	0	2034	4	184	1683
16	0	0	1982	3	182	1684
17	0	0	1993	5	182	1683
18	0	0	2008	5	183	1683
19	0	0	2008	5	183	1684
20	0	0	2005	5	184	1683
21	0	0	2033	5	183	1684
22	0	0	2108	5	183	1683
23	0	0	2170	5	182	1684
24	0	0	2205	5	183	1684
25	0	0	2245	5	184	1683
26	0	0	2295	5	183	1684
27	0	0	2325	5	184	1683
28	0	0	2311	4	183	1683
29	0	0	2278	5	185	1683
30	0	0	2259	5	185	1683
31	0	0	2219	3	184	1684
32	0	0	2138	4	185	1684
33	0	0	2050	4	185	1683
34	0	0	1962	4	182	1683
35	0	0	1882	4	184	1684
36	0	0	1851	4	182	1683
37	0	0	1867	4	183	1683
38	0	0	1877	5	183	1683
39	0	0	1910	5	183	1683
40	0	0	1982	5	184	1683
41	0	0	2060	5	183	1683
42	0	0	2123	5	183	1683
43	0	0	2167	5	184	1684
44	0	0	2212	5	183	1683
45	0	0	2277	5	183	1684
46	0	0	2328	5	184	1684
47	0	0	2361	5	184	1683
48	0	0	2368	5	182	1684
49	0	0	2345	5	184	1683
50	0	0	2332	5	185	1683
51	0	0	2296	3	183	1684
52	0	0	2195	4	184	1683
53	0	0	2098	4	183	1683
54	0	0	2025	4	184	1683
55	0	0	1960	4	184	1683
56	0	0	1906	4	182	1684
57	0	0	1874	4	183	1683
58	0	0	1846	4	183	1683
59	0	0	1855	5	184	1683
60	0	0	1888	5	183	1684
61	0	0	1916	4	182	1683
62	0	0	1980	5	183	1684
63	0	0	2063	5	183	1683
64	0	0	2155	5	184	1684
65	0	0	2254	5	183	1684
66	0	0	2304	4	185	1684
67	0	0	2317	5	184	1683
68	0	0	2292	5	183	1683
69	0	0	2242	4	184	1683
70	0	0	2223	5	184	1683
71	0	0	2208	4	184	1684
72	0	0	2135	4	184	1683
73	0	0	2043	4	185	1683
74	0	0	1972	5	183	1683
75	0	0	1925	4	183	1683
76	0	0	1930	4	183	1684
77	0	0	1979	5	183	1683
78	0	0	2012	5	183	1683
79	0	0	2024	5	184	1683
80	0	0	2048	5	183	1683
81	0	0	2075	4	183	1683
82	0	0	2137	5	183	1683
83	0	0	2188	5	182	1683
84	0	0	2221	5	184	1683
85	0	0	2273	5	183	1684
86	0	0	2333	4	185	1684
87	0	0	2381	5	183	1684
88	0	0	2390	5	184	1683
89	0	0	2387	5	184	1683
90	0	0	2400	5	184	1684
91	0	0	2393	4	184	1684
92	0	0	2289	4	184	1683
93	0	0	2181	4	184	1683
94	0	0	2117	4	183	1683
95	0	0	2075	4	184	1684
96	0	0	2093	5	184	1684
97	0	0	2163	5	184	1683
98	0	0	2248	5	183	1683
99	0	0	2321	5	182	1683
100	0	0	2388	5	182	1683
101	0	0	2454	5	183	1684
102	0	0	2521	5	184	1684
103	0	0	2574	5	183	1683
104	0	0	2629	5	185	1683
105	0	0	2723	5	182	1683
106	0	0	2820	4	184	1684
107	0	0	2879	5	184	1684
108	0	0	2873	5	183	1683
109	0	0	2818	4	183	1683
110	0	0	2747	4	184	1684
111	0	0	2613	4	185	1684
112	0	0	2426	4	183	1683
113	0	0	2235	4	184	1683
114	0	0	2093	4	184	1683
115	0	0	1976	4	184	1684
116	0	0	1909	4	182	1684
117	0	0	1885	4	183	1683
118	0	0	1854	4	183	1683
119	0	0	1817	4	183	1683
120	0	0	1818	5	182	1683
121	0	0	1853	5	182	1684
122	0	0	1889	5	182	1684
123	0	0	1927	5	184	1683
124	0	0	1953	4	182	1683
125	0	0	1999	5	183	1683
126	0	0	2049	4	184	1684
127	0	0	2091	5	184	1683
0	0	0	2104	4	183	1683
1	0	0	2081	4	184	1683
2	0	0	2068	5	183	1683
3	0	0	2059	4	185	1684
4	0	0	1984	4	184	1683
5	0	0	1903	4	184	1683
6	0	0	1854	3	183	1683
7	0	0	1799	4	183	1683
8	0	0	1763	4	183	1684
9	0	0	1768	4	182	1683
10	0	0	1782	5	183	1683
11	0	0	1782	4	182	1683
12	0	0	1782	5	181	1683
13	0	0	1814	5	183	1684
14	0	0	1919	4	182	1684
15	0	0	2025	5	183	1683
16	0	0	2097	5	183	1684
17	0	0	2149	5	183	1684
18	0	0	2195	5	183	1684
19	0	0	2245	5	184	1684
20	0	0	2270	6	184	1683
21	0	0	2247	4	184	1684
22	0	0	2209	5	185	1684
23	0	0	2173	4	184	1684
24	0	0	2124	4	184	1684
25	0	0	2071	4	185	1683
26	0	0	2027	5	183	1684
27	0	0	1983	4	183	1683
28	0	0	1980	4	183	1684
29	0	0	1991	5	182	1684
30	0	0	1979	4	183	1683
31	0	0	1962	4	182	1683
32	0	0	1987	5	183	1683
33	0	0	2077	5	183	1684
34	0	0	2210	5	184	1684
35	0	0	2290	5	183	1683
36	0	0	2300	5	182	1683
37	0	0	2291	5	184	1683
38	0	0	2286	4	183	1684
39	0	0	2277	5	184	1683
40	0	0	2270	4	184	1684
41	0	0	2277	5	184	1684
42	0	0	2291	5	183	1684
43	0	0	2307	5	184	1684
44	0	0	2231	4	184	1683
45	0	0	2129	4	183	1683
46	0	0	2048	4	184	1683
47	0	0	1983	4	183	1683
48	0	0	1945	4	183	1684
49	0	0	1920	4	183	1684
50	0	0	1915	6	183	1683
51	0	0	1932	6	183	1683
52	0	0	1986	5	182	1683
53	0	0	2055	5	182	1684
54	0	0	2130	5	182	1683
55	0	0	2213	4	184	1684
56	0	0	2286	5	183	1684
57	0	0	2346	5	183	1683
58	0	0	2367	5	183	1684
59	0	0	2360	4	184	1683
60	0	0	2326	4	184	1683
61	0	0	2276	5	184	1683
62	0	0	2240	5	185	1683
63	0	0	2228	4	183	1684
64	0	0	2170	4	183	1684
65	0	0	2072	4	184	1683
66	0	0	1999	4	183	1683
67	0	0	1960	4	184	1683
68	0	0	1949	5	183	1684
69	0	0	1960	6	183	1683
70	0	0	2006	6	182	1684
71	0	0	2073	5	182	1684
72	0	0	2144	4	184	1683
73	0	0	2199	5	183	1683
74	0	0	2247	4	183	1683
75	0	0	2247	4	183	1683
76	0	0	2225	5	183	1683
77	0	0	2235	5	182	1683
78	0	0	2261	5	184	1684
79	0	0	2278	5	184	1683
80	0	0	2265	4	184	1683
81	0	0	2258	4	184	1683
82	0	0	2291	5	184	1683
83	0	0	2321	4	184	1684
84	0	0	2258	4	184	1684
85	0	0	2164	4	184	1683
86	0	0	2092	4	184	1683
87	0	0	2020	4	183	1684
88	0	0	1960	4	183	1684
89	0	0	1927	4	183	1683
90	0	0	1920	5	183	1683
91	0	0	1952	4	183	1683
92	0	0	2019	5	183	1683
93	0	0	2073	5	182	1683
94	0	0	2105	5	183	1683
95	0	0	2135	5	183	1684
96	0	0	2196	5	184	1683
97	0	0	2272	5	183	1683
98	0	0	2327	5	184	1684
99	0	0	2357	5	184	1683
100	0	0	2371	5	184	1683
101	0	0	2362	4	184	1683
102	0	0	2349	5	185	1683
103	0	0	2306	4	184	1684
104	0	0	2208	4	184	1683
105	0	0	2099	4	183	1683
106	0	0	2019	4	184	1683
107	0	0	1966	4	184	1683
108	0	0	1980	5	183	1684
109	0	0	2017	5	183	1683
110	0	0	2034	5	183	1684
111	0	0	2044	5	182	1684
112	0	0	2087	5	183	1683
113	0	0	2124	5	182	1684
114	0	0	2168	5	183	1683
115	0	0	2200	5	184	1683
116	0	0	2222	5	183	1683
117	0	0	2258	5	183	1683
118	0	0	2278	5	183	1684
119	0	0	2286	5	183	1684
120	0	0	2275	4	183	1683
121	0	0	2234	5	184	1683
122	0	0	2224	5	184	1683
123	0	0	2271	5	184	1684
124	0	0	2251	4	183	1683
125	0	0	2193	4	184	1683
126	0	0	2139	3	184	1683
127	0	0	2081	4	184	1683
0	0	0	2054	4	183	1684
1	0	0	2023	4	183	1683
2	0	0	1979	4	185	1683
3	0	0	1959	5	183	1683
4	0	0	1970	5	183	1683
5	0	0	2004	5	183	1684
6	0	0	2080	5	183	1683
7	0	0	2185	4	183	1683
8	0	0	2277	5	183	1683
9	0	0	2342	5	184	1683
10	0	0	2359	5	183	1684
11	0	0	2372	5	184	1684
12	0	0	2381	5	183	1683
13	0	0	2389	4	184	1683
14	0	0	2391	5	183	1684
15	0	0	2397	5	185	1683
16	0	0	2345	4	184	1683
17	0	0	2254	4	184	1683
18	0	0	2157	3	184	1683
19	0	0	2067	4	184	1683
20	0	0	2011	4	184	1684
21	0	0	2000	5	183	1683
22	0	0	2022	5	183	1683
23	0	0	2081	4	183	1683
24	0	0	2140	4	184	1683
25	0	0	2175	4	181	1683
26	0	0	2219	5	183	1683
27	0	0	2255	5	183	1684
28	0	0	2297	5	182	1683
29	0	0	2363	5	183	1683
30	0	0	2431	5	183	1684
31	0	0	2482	5	184	1683
32	0	0	2477	4	183	1683
33	0	0	2423	4	184	1683
34	0	0	2385	4	183	1684
35	0	0	2349	4	183	1684
36	0	0	2248	4	184	1683
37	0	0	2152	4	184	1683
38	0	0	2095	4	184	1683
39	0	0	2069	4	184	1683
40	0	0	2053	4	183	1684
41	0	0	2017	4	182	1684
42	0	0	1990	6	183	1683
43	0	0	2005	5	183	1683
44	0	0	2059	5	182	1683
45	0	0	2137	5	183	1684
46	0	0	2204	5	183	1683
47	0	0	2248	5	183	1683
48	0	0	2277	5	183	1683
49	0	0	2325	5	184	1683
50	0	0	2375	5	183	1684
51	0	0	2422	5	184	1683
52	0	0	2435	5	184	1683
53	0	0	2437	5	184	1683
54	0	0	2449	5	185	1683
55	0	0	2437	4	183	1684
56	0	0	2353	4	185	1683
57	0	0	2235	4	183	1683
58	0	0	2144	4	183	1683
59	0	0	2065	4	183	1684
60	0	0	2005	4	182	1684
61	0	0	1988	5	183	1684
62	0	0	2002	5	183	1683
63	0	0	2064	5	183	1683
64	0	0	2145	5	183	1683
65	0	0	2205	5	183	1684
66	0	0	2274	6	184	1683
67	0	0	2316	5	183	1683
68	0	0	2344	5	184	1683
69	0	0	2426	5	183	1683
70	0	0	2485	5	182	1683
71	0	0	2502	5	184	1683
72	0	0	2494	4	183	1683
73	0	0	2481	4	184	1683
74	0	0	2459	5	184	1683
75	0	0	2407	5	185	1684
76	0	0	2283	4	184	1683
77	0	0	2156	4	184	1683
78	0	0	2102	4	182	1683
79	0	0	2041	4	183	1683
80	0	0	2011	4	182	1683
81	0	0	2026	5	183	1683
82	0	0	2069	5	182	1683
83	0	0	2115	4	184	1683
84	0	0	2156	5	184	1683
85	0	0	2191	5	184	1684
86	0	0	2227	5	183	1684
87	0	0	2254	5	183	1683
88	0	0	2268	5	183	1684
89	0	0	2314	4	183	1684
90	0	0	2359	5	185	1683
91	0	0	2402	5	184	1684
92	0	0	2418	6	184	1683
93	0	0	2410	5	184	1683
94	0	0	2404	5	185	1684
95	0	0	2363	4	183	1683
96	0	0	2267	4	184	1684
97	0	0	2172	5	184	1683
98	0	0	2120	4	184	1683
99	0	0	2068	4	183	1684
100	0	0	2028	4	185	1683
101	0	0	1990	5	183	1683
102	0	0	1961	4	183	1683
103	0	0	1985	5	182	1683
104	0	0	2059	5	183	1683
105	0	0	2122	5	183	1683
106	0	0	2180	5	183	1684
107	0	0	2234	4	184	1684
108	0	0	2294	5	183	1683
109	0	0	2347	5	184	1684
110	0	0	2390	5	184	1684
111	0	0	2404	5	183	1683
112	0	0	2383	4	184	1683
113	0	0	2342	4	184	1683
114	0	0	2327	5	185	1683
115	0	0	2331	4	185	1684
116	0	0	2240	4	184	1683
117	0	0	2119	4	184	1683
118	0	0	2035	4	183	1683
119	0	0	1955	4	183	1683
120	0	0	1895	4	183	1683
121	0	0	1890	5	182	1683
122	0	0	1895	5	183	1683
123	0	0	1904	5	184	1683
124	0	0	1933	4	182	1684
125	0	0	1963	5	184	1683
126	0	0	2019	5	182	1684
127	0	0	2072	5	183	1683
0	0	0	2124	5	184	1684
1	0	0	2202	5	184	1684
2	0	0	2292	5	184	1684
3	0	0	2348	5	184	1683
4	0	0	2323	4	183	1683
5	0	0	2265	4	183	1683
6	0	0	2213	4	185	1683
7	0	0	2172	4	184	1684
8	0	0	2061	4	183	1683
9	0	0	1937	4	184	1683
10	0	0	1841	4	183	1683
11	0	0	1766	4	183	1683
12	0	0	1749	5	182	1683
13	0	0	1801	5	183	1683
14	0	0	1862	5	182	1683
15	0	0	1864	5	183	1683
16	0	0	1869	5	183	1683
17	0	0	1906	5	183	1684
18	0	0	1959	5	182	1683
19	0	0	1998	5	183	1683
20	0	0	2027	5	183	1684
21	0	0	2092	5	183	1684
22	0	0	2158	5	184	1683
23	0	0	2198	4	183	1684
24	0	0	2170	4	184	1683
25	0	0	2117	4	184	1683
26	0	0	2102	5	184	1683
27	0	0	2089	4	184	1683
28	0	0	2031	4	185	1683
29	0	0	1933	3	185	1683
30	0	0	1832	4	183	1683
31	0	0	1756	5	184	1684
32	0	0	1741	4	182	1684
33	0	0	1770	5	183	1683
34	0	0	1830	5	184	1684
35	0	0	1886	5	182	1684
36	0	0	1923	5	184	1683
37	0	0	1945	5	182	1683
38	0	0	1960	5	182	1683
39	0	0	1950	5	183	1684
40	0	0	1940	4	183	1684
41	0	0	1995	5	183	1683
42	0	0	2074	5	184	1683
43	0	0	2152	4	185	1684
44	0	0	2215	6	184	1683
45	0	0	2257	5	184	1683
46	0	0	2256	5	184	1683
47	0	0	2221	4	184	1683
48	0	0	2095	4	184	1683
49	0	0	1969	4	183	1684
50	0	0	1886	4	184	1684
51	0	0	1822	4	183	1683
52	0	0	1793	4	183	1683
53	0	0	1803	5	182	1683
54	0	0	1824	4	182	1684
55	0	0	1848	5	183	1683
56	0	0	1844	4	183	1684
57	0	0	1847	5	182	1683
58	0	0	1882	5	183	1683
59	0	0	1896	4	183	1683
60	0	0	1902	5	183	1683
61	0	0	1967	5	184	1683
62	0	0	2041	5	183	1683
63	0	0	2103	4	183	1683
64	0	0	2137	4	184	1684
65	0	0	2175	5	185	1683
66	0	0	2224	5	185	1683
67	0	0	2256	5	183	1683
68	0	0	2178	4	184	1683
69	0	0	2064	3	182	1684
70	0	0	1957	4	183	1683
71	0	0	1859	4	184	1684
72	0	0	1803	4	183	1683
73	0	0	1789	5	183	1683
74	0	0	1798	4	183	1683
75	0	0	1823	5	182	1684
76	0	0	1850	4	183	1683
77	0	0	1882	5	182	1683
78	0	0	1946	5	182	1683
79	0	0	2031	4	184	1684
80	0	0	2086	5	183	1684
81	0	0	2126	5	184	1684
82	0	0	2164	5	184	1683
83	0	0	2209	5	183	1683
84	0	0	2216	4	183	1684
85	0	0	2174	3	184	1683
86	0	0	2123	4	184	1683
87	0	0	2104	4	184	1684
88	0	0	2017	4	185	1683
89	0	0	1895	4	184	1683
90	0	0	1796	4	184	1683
91	0	0	1719	4	183	1683
92	0	0	1680	4	183	1683
93	0	0	1687	5	183	1683
94	0	0	1720	7	182	1683
95	0	0	1788	5	183	1683
96	0	0	1866	5	182	1683
97	0	0	1930	5	182	1683
98	0	0	1991	5	182	1683
99	0	0	2032	5	183	1683
100	0	0	2066	5	183	1683
101	0	0	2128	5	183	1684
102	0	0	2180	5	184	1683
103	0	0	2209	5	184	1684
104	0	0	2227	5	183	1683
105	0	0	2251	5	183	1683
106	0	0	2267	5	184	1684
107	0	0	2272	4	184	1684
108	0	0	2204	4	184	1683
109	0	0	2103	5	183	1683
110	0	0	1992	4	184	1683
111	0	0	1862	4	183	1683
112	0	0	1789	4	183	1684
113	0	0	1784	4	184	1683
114	0	0	1785	6	183	1684
115	0	0	1798	4	183	1683
116	0	0	1840	5	182	1684
117	0	0	1879	5	183	1683
118	0	0	1933	5	182	1683
119	0	0	1977	5	184	1683
120	0	0	1992	4	183	1684
121	0	0	2033	5	183	1684
122	0	0	2096	5	184	1684
123	0	0	2187	5	184	1683
124	0	0	2247	5	185	1683
125	0	0	2265	4	184	1683
126	0	0	2240	4	184	1684
127	0	0	2199	4	184	1683
0	0	0	2105	4	184	1684
1	0	0	1985	5	184	1683
2	0	0	1895	4	182	1683
3	0	0	1826	4	183	1684
4	0	0	1775	4	182	1684
5	0	0	1768	4	184	1684
6	0	0	1785	4	183	1684
7	0	0	1826	4	182	1683
8	0	0	1878	5	182	1684
9	0	0	1909	5	181	1684
10	0	0	1939	5	183	1683
11	0	0	1959	7	182	1683
12	0	0	1973	4	182	1683
13	0	0	2030	5	184	1683
14	0	0	2104	5	184	1683
15	0	0	2166	5	184	1683
16	0	0	2211	6	183	1685
17	0	0	2245	5	184	1684
18	0	0	2233	4	185	1683
19	0	0	2158	4	183	1683
20	0	0	2014	4	184	1683
21	0	0	1917	4	183	1683
22	0	0	1900	4	184	1683
23	0	0	1863	4	183	1683
24	0	0	1832	4	182	1683
25	0	0	1834	4	182	1684
26	0	0	1854	5	182	1683
27	0	0	1872	5	183	1683
28	0	0	1889	5	182	1683
29	0	0	1914	5	183	1683
30	0	0	1957	5	183	1683
31	0	0	1977	4	183	1683
32	0	0	1996	4	183	1684
33	0	0	2054	5	184	1684
34	0	0	2103	4	182	1684
35	0	0	2164	4	183	1684
36	0	0	2211	5	184	1683
37	0	0	2223	4	184	1683
38	0	0	2214	5	185	1684
39	0	0	2187	4	185	1684
40	0	0	2087	4	184	1683
41	0	0	1957	4	184	1683
42	0	0	1841	4	183	1683
43	0	0	1749	4	183	1684
44	0	0	1733	5	182	1683
45	0	0	1754	4	183	1683
46	0	0	1796	5	184	1683
47	0	0	1865	5	182	1684
48	0	0	1928	5	183	1683
49	0	0	1958	5	183	1683
50	0	0	1992	5	183	1683
51	0	0	2028	5	183	1684
52	0	0	2067	5	184	1684
53	0	0	2129	4	183	1683
54	0	0	2203	5	184	1684
55	0	0	2268	4	184	1683
56	0	0	2299	5	183	1684
57	0	0	2278	4	184	1683
58	0	0	2258	5	184	1683
59	0	0	2286	5	183	1683
60	0	0	2238	4	184	1683
61	0	0	2107	4	183	1683
62	0	0	1961	3	183	1683
63	0	0	1840	4	184	1683
64	0	0	1772	4	183	1683
65	0	0	1745	4	183	1683
66	0	0	1747	4	183	1683
67	0	0	1758	4	182	1683
68	0	0	1805	5	183	1684
69	0	0	1873	5	182	1684
70	0	0	1958	5	182	1684
71	0	0	2027	5	184	1683
72	0	0	2060	5	183	1683
73	0	0	2098	5	183	1684
74	0	0	2128	5	183	1683
75	0	0	2142	5	184	1683
76	0	0	2135	5	184	1683
77	0	0	2134	5	184	1683
78	0	0	2147	4	184	1684
79	0	0	2171	5	183	1683
80	0	0	2137	4	185	1683
81	0	0	2075	4	183	1683
82	0	0	2007	3	183	1683
83	0	0	1923	4	183	1684
84	0	0	1847	4	182	1683
85	0	0	1801	4	182	1684
86	0	0	1786	5	183	1683
87	0	0	1805	4	182	1683
88	0	0	1862	5	183	1683
89	0	0	1914	5	183	1684
90	0	0	1970	5	182	1683
91	0	0	2040	5	184	1683
92	0	0	2098	5	183	1683
93	0	0	2141	5	183	1684
94	0	0	2149	5	182	1683
95	0	0	2154	5	183	1683
96	0	0	2184	5	185	1683
97	0	0	2210	5	183	1683
98	0	0	2211	5	185	1684
99	0	0	2185	5	184	1684
100	0	0	2063	4	183	1683
101	0	0	1923	4	183	1684
102	0	0	1828	4	183	1684
103	0	0	1747	4	183	1684
104	0	0	1696	4	182	1683
105	0	0	1695	5	182	1683
106	0	0	1744	5	184	1683
107	0	0	1804	3	183	1683
108	0	0	1871	5	183	1684
109	0	0	1958	5	182	1684
110	0	0	2074	5	183	1683
111	0	0	2149	5	183	1683
112	0	0	2197	5	184	1683
113	0	0	2253	5	183	1684
114	0	0	2300	4	183	1684
115	0	0	2314	4	184	1683
116	0	0	2264	4	185	1683
117	0	0	2199	4	183	1683
118	0	0	2152	4	184	1684
119	0	0	2132	4	182	1683
120	0	0	2041	4	184	1683
121	0	0	1912	4	184	1683
122	0	0	1808	4	184	1683
123	0	0	1734	4	183	1684
124	0	0	1726	5	184	1683
125	0	0	1761	4	183	1683
126	0	0	1813	4	183	1683
127	0	0	1858	5	183	1683
0	0	0	1888	5	182	1683
1	0	0	1917	5	182	1684
2	0	0	1971	5	182	1684
3	0	0	2019	5	183	1684
4	0	0	2067	5	182	1683
5	0	0	2140	5	182	1684
6	0	0	2217	5	183	1684
7	0	0	2273	5	184	1684
8	0	0	2285	5	183	1683
9	0	0	2271	4	184	1684
10	0	0	2242	5	185	1684
11	0	0	2215	4	184	1683
12	0	0	2135	4	183	1684
13	0	0	2048	3	183	1683
14	0	0	1969	3	184	1683
15	0	0	1903	4	183	1684
16	0	0	1858	4	183	1684
17	0	0	1852	5	184	1683
18	0	0	1855	5	183	1683
19	0	0	1893	5	183	1683
20	0	0	1950	5	183	1683
21	0	0	2002	5	182	1683
22	0	0	2076	5	183	1683
23	0	0	2146	5	182	1683
24	0	0	2187	5	183	1684
25	0	0	2214	5	184	1684
26	0	0	2225	5	182	1683
27	0	0	2236	5	184	1683
28	0	0	2254	4	184	1684
29	0	0	2247	4	184	1684
30	0	0	2208	4	183	1684
31	0	0	2171	4	184	1684
32	0	0	2069	4	184	1683
33	0	0	1939	4	184	1683
34	0	0	1834	4	184	1683
35	0	0	1763	4	183	1683
36	0	0	1747	5	182	1683
37	0	0	1769	5	182	1683
38	0	0	1803	5	183	1683
39	0	0	1848	3	183	1683
40	0	0	1900	5	183	1684
41	0	0	1941	5	183	1683
42	0	0	2008	5	182	1683
43	0	0	2075	5	183	1683
44	0	0	2136	5	183	1684
45	0	0	2193	5	183	1684
46	0	0	2231	4	183	1683
47	0	0	2252	5	184	1684
48	0	0	2240	4	185	1683
49	0	0	2190	3	184	1683
50	0	0	2165	5	185	1684
51	0	0	2164	4	184	1684
52	0	0	2078	4	185	1683
53	0	0	1937	4	185	1683
54	0	0	1841	4	183	1684
55	0	0	1803	4	182	1683
56	0	0	1798	5	183	1684
57	0	0	1801	5	184	1683
58	0	0	1820	5	183	1683
59	0	0	1863	4	184	1683
60	0	0	1938	5	183	1683
61	0	0	1987	5	183	1684
62	0	0	2004	5	183	1684
63	0	0	2007	5	183	1683
64	0	0	2019	5	184	1683
65	0	0	2066	5	184	1684
66	0	0	2121	5	183	1684
67	0	0	2174	5	183	1683
68	0	0	2207	5	184	1683
69	0	0	2196	4	183	1684
70	0	0	2156	4	184	1684
71	0	0	2123	4	185	1684
72	0	0	2046	4	185	1684
73	0	0	1945	4	183	1683
74	0	0	1829	4	183	1683
75	0	0	1738	4	184	1684
76	0	0	1690	4	184	1684
77	0	0	1691	5	183	1683
78	0	0	1726	5	182	1683
79	0	0	1773	5	182	1684
80	0	0	1804	5	182	1684
81	0	0	1834	5	182	1683
82	0	0	1907	5	183	1683
83	0	0	1986	5	184	1683
84	0	0	2039	5	184	1683
85	0	0	2111	4	181	1684
86	0	0	2173	5	183	1684
87	0	0	2220	5	184	1683
88	0	0	2250	5	184	1683
89	0	0	2263	5	184	1684
90	0	0	2258	5	184	1684
91	0	0	2240	4	184	1684
92	0	0	2149	4	184	1684
93	0	0	2041	4	183	1683
94	0	0	1951	4	183	1684
95	0	0	1863	3	183	1684
96	0	0	1827	5	183	1684
97	0	0	1885	5	184	1683
98	0	0	2022	5	183	1683
99	0	0	2143	5	183	1684
100	0	0	2190	4	182	1684
101	0	0	2209	5	183	1684
102	0	0	2280	5	184	1684
103	0	0	2405	6	182	1683
104	0	0	2534	5	183	1684
105	0	0	2656	4	184	1684
106	0	0	2754	5	184	1683
107	0	0	2806	5	183	1684
108	0	0	2798	4	184	1683
109	0	0	2759	5	184	1683
110	0	0	2742	5	184	1684
111	0	0	2752	5	184	1683
112	0	0	2693	4	184	1684
113	0	0	2571	4	186	1683
114	0	0	2415	4	183	1683
115	0	0	2241	3	183	1684
116	0	0	2094	4	183	1683
117	0	0	1994	4	183	1683
118	0	0	1935	4	183	1683
119	0	0	1899	4	182	1684
120	0	0	1868	4	183	1684
121	0	0	1835	4	183	1684
122	0	0	1844	5	183	1683
123	0	0	1866	5	183	1684
124	0	0	1891	5	183	1683
125	0	0	1914	5	184	1684
126	0	0	1927	5	183	1683
127	0	0	1941	5	184	1684
0	0	0	1962	5	182	1683
1	0	0	1933	4	184	1683
2	0	0	1888	4	184	1684
3	0	0	1872	4	185	1683
4	0	0	1813	4	184	1683
5	0	0	1730	4	183	1684
6	0	0	1660	4	183	1684
7	0	0	1598	4	183	1683
8	0	0	1579	4	184	1684
9	0	0	1593	5	183	1683
10	0	0	1636	4	183	1683
11	0	0	1695	4	183	1683
12	0	0	1750	4	183	1684
13	0	0	1796	5	183	1683
14	0	0	1839	5	182	1683
15	0	0	1882	5	183	1683
16	0	0	1923	5	182	1684
17	0	0	1982	5	183	1684
18	0	0	2053	5	184	1684
19	0	0	2121	5	184	1683
20	0	0	2153	5	184	1684
21	0	0	2151	5	184	1684
22	0	0	2125	4	184	1684
23	0	0	2099	4	185	1684
24	0	0	2014	5	184	1683
25	0	0	1915	4	183	1683
26	0	0	1846	4	182	1684
27	0	0	1803	4	183	1684
28	0	0	1790	5	183	1683
29	0	0	1792	5	184	1683
30	0	0	1797	5	183	1683
31	0	0	1822	5	183	1684
32	0	0	1874	4	182	1684
33	0	0	1921	5	182	1684
34	0	0	1954	5	183	1683
35	0	0	1980	5	182	1683
36	0	0	2021	5	184	1684
37	0	0	2103	4	183	1684
38	0	0	2181	5	183	1684
39	0	0	2233	5	183	1683
40	0	0	2221	4	183	1683
41	0	0	2179	5	184	1684
42	0	0	2159	5	184	1684
43	0	0	2151	4	184	1684
44	0	0	2056	4	183	1683
45	0	0	1947	4	184	1684
46	0	0	1867	5	183	1684
47	0	0	1782	4	183	1684
48	0	0	1734	4	183	1684
49	0	0	1743	5	182	1683
50	0	0	1769	5	183	1683
51	0	0	1812	5	182	1684
52	0	0	1860	4	183	1684
53	0	0	1897	5	183	1684
54	0	0	1943	5	183	1684
55	0	0	1974	5	182	1683
56	0	0	1994	5	183	1684
57	0	0	2037	5	182	1684
58	0	0	2093	5	184	1684
59	0	0	2152	5	183	1683
60	0	0	2199	5	183	1683
61	0	0	2214	5	184	1683
62	0	0	2204	5	185	1684
63	0	0	2174	4	185	1683
64	0	0	2085	4	184	1684
65	0	0	1984	4	183	1683
66	0	0	1926	5	183	1683
67	0	0	1890	5	183	1684
68	0	0	1881	5	183	1684
69	0	0	1886	5	182	1683
70	0	0	1907	5	183	1683
71	0	0	1942	5	183	1684
72	0	0	1994	4	183	1684
73	0	0	2035	5	184	1683
74	0	0	2084	6	183	1683
75	0	0	2111	7	183	1683
76	0	0	2109	10	182	1684
77	0	0	2142	12	183	1684
78	0	0	2185	15	184	1683
79	0	0	2248	17	184	1683
80	0	0	2306	19	185	1683
81	0	0	2319	21	184	1683
82	0	0	2273	18	184	1683
83	0	0	2214	18	184	1684
84	0	0	2119	19	184	1683
85	0	0	2015	20	183	1683
86	0	0	1919	21	183	1684
87	0	0	1816	23	183	1683
88	0	0	1742	25	183	1683
89	0	0	1739	31	183	1683
90	0	0	1786	32	183	1683
91	0	0	1829	35	183	1683
92	0	0	1857	36	181	1683
93	0	0	1890	38	183	1684
94	0	0	1965	40	183	1683
95	0	0	2034	41	182	1683
96	0	0	2096	42	182	1683
97	0	0	2176	43	183	1683
98	0	0	2267	43	183	1682
99	0	0	2350	43	184	1683
100	0	0	2380	46	184	1683
101	0	0	2322	41	183	1683
102	0	0	2215	39	185	1683
103	0	0	2145	38	184	1683
104	0	0	2041	37	184	1683
105	0	0	1923	36	183	1683
106	0	0	1828	35	184	1683
107	0	0	1760	34	183	1684
108	0	0	1720	36	183	1683
109	0	0	1731	38	183	1683
110	0	0	1786	37	182	1683
111	0	0	1850	36	183	1683
112	0	0	1911	35	183	1683
113	0	0	1963	35	183	1683
114	0	0	2025	33	183	1683
115	0	0	2093	35	182	1682
116	0	0	2151	34	183	1683
117	0	0	2205	32	184	1684
118	0	0	2242	32	184	1683
119	0	0	2275	31	183	1683
120	0	0	2285	30	184	1683
121	0	0	2258	25	184	1683
122	0	0	2222	27	184	1683
123	0	0	2205	25	184	1683
124	0	0	2154	23	185	1683
125	0	0	2063	22	184	1683
126	0	0	1976	21	184	1683
127	0	0	1886	20	184	1684
0	0	0	1820	21	183	1683
1	0	0	1821	25	183	1683
2	0	0	1868	24	182	1683
3	0	0	1942	23	182	1684
4	0	0	2015	23	183	1683
5	0	0	2044	22	183	1684
6	0	0	2069	22	183	1683
7	0	0	2075	22	183	1683
8	0	0	2074	22	183	1683
9	0	0	2123	21	182	1683
10	0	0	2157	21	184	1683
11	0	0	2197	21	184	1683
12	0	0	2233	20	184	1683
13	0	0	2234	20	183	1683
14	0	0	2242	19	185	1683
15	0	0	2263	19	184	1683
16	0	0	2215	14	184	1683
17	0	0	2131	12	183	1683
18	0	0	2021	12	184	1683
19	0	0	1906	11	183	1684
20	0	0	1849	13	183	1683
21	0	0	1847	16	182	1684
22	0	0	1859	16	183	1683
23	0	0	1893	15	183	1684
24	0	0	1937	15	183	1684
25	0	0	1981	15	182	1683
26	0	0	2059	15	183	1683
27	0	0	2126	15	182	1683
28	0	0	2156	15	183	1683
29	0	0	2213	14	182	1683
30	0	0	2287	14	183	1683
31	0	0	2355	14	185	1683
32	0	0	2380	14	184	1684
33	0	0	2353	9	184	1684
34	0	0	2296	9	184	1684
35	0	0	2251	9	184	1683
36	0	0	2167	7	184	1683
37	0	0	2075	7	184	1683
38	0	0	2013	8	184	1684
39	0	0	1964	8	183	1684
40	0	0	1952	12	183	1683
41	0	0	1952	11	183	1683
42	0	0	1953	11	182	1683
43	0	0	1958	11	182	1684
44	0	0	1989	11	183	1684
45	0	0	2033	11	182	1683
46	0	0	2087	11	184	1683
47	0	0	2124	11	184	1683
48	0	0	2167	10	184	1683
49	0	0	2239	11	183	1684
50	0	0	2336	11	184	1683
51	0	0	2424	11	184	1684
52	0	0	2445	9	184	1683
53	0	0	2385	6	183	1683
54	0	0	2324	6	184	1684
55	0	0	2282	6	183	1683
56	0	0	2184	5	184	1683
57	0	0	2056	5	183	1684
58	0	0	1969	6	184	1683
59	0	0	1889	5	184	1683
60	0	0	1841	6	183	1683
61	0	0	1853	9	182	1683
62	0	0	1895	8	183	1683
63	0	0	1945	8	183	1683
64	0	0	2008	8	182	1684
65	0	0	2068	8	183	1683
66	0	0	2122	9	183	1683
67	0	0	2171	8	183	1684
68	0	0	2195	8	183	1684
69	0	0	2246	8	183	1683
70	0	0	2300	8	183	1684
71	0	0	2341	8	183	1683
72	0	0	2356	8	184	1683
73	0	0	2352	8	184	1684
74	0	0	2337	8	184	1684
75	0	0	2329	6	184	1683
76	0	0	2274	5	183	1683
77	0	0	2193	5	183	1684
78	0	0	2133	5	183	1684
79	0	0	2061	5	183	1684
80	0	0	1995	4	183	1683
81	0	0	1954	5	183	1683
82	0	0	1933	7	182	1683
83	0	0	1956	7	183	1683
84	0	0	2007	7	184	1684
85	0	0	2060	7	183	1683
86	0	0	2147	7	183	1683
87	0	0	2207	6	183	1683
88	0	0	2225	6	183	1684
89	0	0	2267	6	183	1683
90	0	0	2329	6	183	1683
