# bioPlux Text File Format
# Version: 1
# StartDateTime: 2011-07-18 15:26:34
# SamplingFrequency: 1000
# SampledChannels: 1 2 3 4
# SamplingResolution: 12
# AcquiringDevice: 00:07:80:42:0F:8B
# EndOfHeader
0	0	0	2082	1089	3016	63
1	0	0	2122	1089	3015	57
2	0	0	2160	1087	3012	58
3	0	0	2137	1084	3010	59
4	0	0	2108	1085	3011	59
5	0	0	2080	1085	3012	59
6	0	0	2056	1085	3013	60
7	0	0	2034	1086	3015	60
8	0	0	2017	1086	3016	61
9	0	0	2021	1087	3018	61
10	0	0	2035	1088	3017	62
11	0	0	2030	1090	3016	62
12	0	0	2032	1089	3013	61
13	0	0	2052	1087	3011	60
14	0	0	2074	1090	3012	61
15	0	0	2100	1090	3012	62
16	0	0	2120	1090	3013	61
17	0	0	2127	1091	3015	61
18	0	0	2140	1090	3016	61
19	0	0	2132	1086	3017	60
20	0	0	2095	1086	3016	59
21	0	0	2075	1087	3015	58
22	0	0	2073	1087	3013	59
23	0	0	2076	1087	3011	59
24	0	0	2055	1085	3012	60
25	0	0	2054	1087	3011	57
26	0	0	2040	1085	3015	62
27	0	0	2029	1087	3015	61
28	0	0	2024	1087	3016	61
29	0	0	2031	1087	3017	61
30	0	0	2043	1089	3017	62
31	0	0	2055	1089	3015	60
32	0	0	2081	1087	3013	61
33	0	0	2094	1089	3011	61
34	0	0	2101	1090	3011	62
35	0	0	2111	1089	3012	61
36	0	0	2102	1091	3013	61
37	0	0	2083	1088	3016	63
38	0	0	2068	1087	3016	60
39	0	0	2055	1087	3017	59
40	0	0	2027	1087	3016	59
41	0	0	2008	1086	3015	58
42	0	0	2001	1087	3013	59
43	0	0	2016	1087	3011	60
44	0	0	2034	1086	3011	60
45	0	0	2031	1086	3012	61
46	0	0	2020	1086	3013	60
47	0	0	2022	1087	3015	60
48	0	0	2054	1087	3015	59
49	0	0	2078	1087	3017	62
50	0	0	2093	1089	3016	61
51	0	0	2078	1085	3015	60
52	0	0	2044	1086	3013	61
53	0	0	2033	1089	3012	61
54	0	0	2064	1090	3012	61
55	0	0	2082	1089	3012	61
56	0	0	2083	1088	3013	62
57	0	0	2104	1090	3016	61
58	0	0	2123	1089	3016	61
59	0	0	2123	1088	3017	61
60	0	0	2102	1086	3017	62
61	0	0	2078	1086	3016	60
62	0	0	2080	1087	3013	59
63	0	0	2085	1086	3011	59
64	0	0	2048	1083	3011	60
65	0	0	2000	1083	3012	59
66	0	0	1992	1086	3013	61
67	0	0	2008	1084	3015	60
68	0	0	2040	1086	3016	60
69	0	0	2075	1086	3017	60
70	0	0	2111	1088	3017	63
71	0	0	2131	1088	3015	61
72	0	0	2134	1088	3013	62
73	0	0	2136	1089	3012	62
74	0	0	2140	1086	3012	59
75	0	0	2135	1088	3012	61
76	0	0	2118	1088	3014	61
77	0	0	2106	1089	3016	62
78	0	0	2100	1089	3015	59
79	0	0	2105	1089	3017	63
80	0	0	2107	1088	3016	61
81	0	0	2102	1087	3015	58
82	0	0	2095	1084	3013	59
83	0	0	2106	1085	3011	59
84	0	0	2134	1083	3011	60
85	0	0	2151	1084	3012	61
86	0	0	2166	1086	3013	59
87	0	0	2189	1085	3016	61
88	0	0	2206	1086	3016	61
89	0	0	2238	1085	3017	60
90	0	0	2268	1088	3017	63
91	0	0	2304	1088	3016	61
92	0	0	2322	1088	3013	62
93	0	0	2333	1087	3011	60
94	0	0	2354	1087	3011	58
95	0	0	2374	1089	3012	59
96	0	0	2391	1089	3014	60
97	0	0	2404	1088	3015	60
98	0	0	2409	1088	3017	61
99	0	0	2400	1090	3016	60
100	0	0	2385	1088	3017	61
101	0	0	2365	1085	3014	60
102	0	0	2329	1080	3013	60
103	0	0	2301	1083	3011	59
104	0	0	2280	1083	3010	59
105	0	0	2244	1081	3012	64
106	0	0	2190	1081	3012	62
107	0	0	2152	1082	3016	61
108	0	0	2115	1083	3016	64
109	0	0	2089	1083	3017	61
110	0	0	2084	1087	3017	62
111	0	0	2091	1086	3016	61
112	0	0	2093	1088	3014	62
113	0	0	2089	1086	3011	60
114	0	0	2065	1085	3011	61
115	0	0	2053	1088	3012	64
116	0	0	2049	1089	3013	61
117	0	0	2041	1088	3015	61
118	0	0	2034	1088	3016	61
119	0	0	2024	1090	3016	60
120	0	0	2028	1086	3017	64
121	0	0	2048	1087	3016	60
122	0	0	2045	1084	3013	60
123	0	0	2013	1082	3011	60
124	0	0	1989	1084	3011	60
125	0	0	1995	1084	3012	59
126	0	0	2015	1084	3013	62
127	0	0	2032	1084	3016	60
0	0	0	2033	1085	3016	61
1	0	0	2035	1085	3017	62
2	0	0	2040	1086	3017	59
3	0	0	2052	1086	3016	61
4	0	0	2054	1087	3014	59
5	0	0	2025	1085	3011	61
6	0	0	2016	1089	3012	61
7	0	0	2010	1091	3011	60
8	0	0	2008	1088	3013	62
9	0	0	2033	1087	3016	60
10	0	0	2058	1088	3016	61
11	0	0	2052	1085	3019	59
12	0	0	2020	1082	3016	59
13	0	0	1991	1085	3016	58
14	0	0	1989	1085	3013	60
15	0	0	1991	1085	3011	60
16	0	0	2003	1083	3010	60
17	0	0	1999	1086	3011	57
18	0	0	2000	1084	3014	61
19	0	0	2016	1084	3016	60
20	0	0	2045	1086	3016	61
21	0	0	2062	1085	3017	63
22	0	0	2039	1083	3017	60
23	0	0	2022	1087	3017	61
24	0	0	2031	1086	3013	61
25	0	0	2052	1086	3011	60
26	0	0	2050	1087	3013	60
27	0	0	2033	1087	3013	59
28	0	0	2024	1088	3014	61
29	0	0	2032	1086	3015	61
30	0	0	2059	1087	3016	59
31	0	0	2075	1088	3017	62
32	0	0	2080	1086	3017	58
33	0	0	2089	1085	3016	59
34	0	0	2088	1084	3013	60
35	0	0	2060	1081	3010	59
36	0	0	2020	1081	3011	61
37	0	0	1979	1082	3012	63
38	0	0	1976	1083	3014	61
39	0	0	2015	1084	3017	62
40	0	0	2045	1084	3016	61
41	0	0	2032	1082	3018	60
42	0	0	2012	1084	3016	59
43	0	0	2002	1086	3016	62
44	0	0	2002	1085	3013	62
45	0	0	1996	1088	3011	62
46	0	0	1994	1088	3011	61
47	0	0	1986	1087	3012	61
48	0	0	1993	1087	3014	59
49	0	0	2008	1087	3015	61
50	0	0	2026	1087	3017	60
51	0	0	2041	1087	3017	60
52	0	0	2051	1087	3016	60
53	0	0	2039	1083	3016	60
54	0	0	2022	1084	3013	59
55	0	0	2008	1083	3010	58
56	0	0	2002	1082	3011	58
57	0	0	2008	1086	3011	56
58	0	0	2011	1084	3014	60
59	0	0	1991	1081	3015	61
60	0	0	1966	1082	3016	59
61	0	0	1952	1084	3017	61
62	0	0	1955	1087	3016	60
63	0	0	1978	1086	3016	61
64	0	0	2029	1087	3012	61
65	0	0	2074	1086	3010	60
66	0	0	2103	1087	3011	60
67	0	0	2102	1088	3012	60
68	0	0	2107	1086	3014	60
69	0	0	2120	1087	3015	59
70	0	0	2128	1087	3017	60
71	0	0	2112	1082	3016	60
72	0	0	2070	1085	3016	59
73	0	0	2041	1083	3015	59
74	0	0	2032	1084	3013	59
75	0	0	2028	1086	3011	57
76	0	0	2030	1083	3011	60
77	0	0	2042	1084	3012	61
78	0	0	2051	1084	3015	60
79	0	0	2024	1080	3015	61
80	0	0	2003	1084	3016	61
81	0	0	2007	1085	3016	61
82	0	0	2013	1083	3017	61
83	0	0	2024	1087	3016	60
84	0	0	2041	1085	3013	61
85	0	0	2053	1086	3011	60
86	0	0	2052	1087	3011	60
87	0	0	2036	1085	3012	61
88	0	0	2025	1086	3013	58
89	0	0	2033	1087	3016	59
90	0	0	2046	1086	3016	61
91	0	0	2049	1084	3017	60
92	0	0	2039	1087	3016	60
93	0	0	2033	1085	3016	59
94	0	0	2014	1081	3012	60
95	0	0	2008	1084	3010	59
96	0	0	2016	1083	3010	59
97	0	0	2028	1083	3012	60
98	0	0	2048	1083	3014	60
99	0	0	2055	1084	3015	60
100	0	0	2051	1084	3016	62
101	0	0	2052	1085	3017	61
102	0	0	2072	1085	3018	61
103	0	0	2095	1085	3017	60
104	0	0	2095	1087	3012	61
105	0	0	2082	1087	3011	62
106	0	0	2077	1086	3011	60
107	0	0	2075	1087	3012	61
108	0	0	2081	1086	3014	59
109	0	0	2068	1084	3015	59
110	0	0	2040	1084	3016	60
111	0	0	2008	1083	3017	61
112	0	0	1991	1085	3017	59
113	0	0	2014	1086	3017	59
114	0	0	2036	1084	3012	59
115	0	0	2056	1083	3011	59
116	0	0	2066	1083	3011	60
117	0	0	2061	1083	3012	59
118	0	0	2051	1083	3014	59
119	0	0	2034	1081	3013	61
120	0	0	2017	1082	3016	60
121	0	0	1999	1082	3017	62
122	0	0	1989	1083	3018	60
123	0	0	2011	1084	3017	61
124	0	0	2042	1088	3013	62
125	0	0	2069	1088	3009	61
126	0	0	2091	1088	3012	61
127	0	0	2114	1088	3013	61
0	0	0	2129	1088	3013	59
1	0	0	2121	1085	3016	60
2	0	0	2082	1082	3016	60
3	0	0	2052	1087	3018	60
4	0	0	2053	1086	3018	61
5	0	0	2075	1086	3016	58
6	0	0	2086	1084	3013	59
7	0	0	2082	1084	3011	62
8	0	0	2068	1083	3010	59
9	0	0	2059	1083	3011	60
10	0	0	2065	1083	3014	59
11	0	0	2054	1084	3015	61
12	0	0	2051	1084	3016	61
13	0	0	2065	1084	3017	62
14	0	0	2095	1085	3017	61
15	0	0	2111	1084	3015	62
16	0	0	2087	1084	3014	61
17	0	0	2066	1085	3012	61
18	0	0	2055	1087	3011	60
19	0	0	2050	1087	3012	61
20	0	0	2058	1087	3013	58
21	0	0	2061	1088	3016	61
22	0	0	2064	1086	3016	64
23	0	0	2082	1086	3016	62
24	0	0	2129	1087	3016	60
25	0	0	2169	1085	3015	61
26	0	0	2159	1081	3014	60
27	0	0	2106	1080	3011	59
28	0	0	2063	1081	3010	59
29	0	0	2063	1083	3012	61
30	0	0	2097	1084	3012	63
31	0	0	2125	1084	3015	61
32	0	0	2144	1084	3016	61
33	0	0	2149	1084	3017	61
34	0	0	2151	1085	3017	62
35	0	0	2161	1086	3017	61
36	0	0	2155	1085	3014	61
37	0	0	2129	1085	3012	61
38	0	0	2122	1088	3011	61
39	0	0	2122	1086	3012	61
40	0	0	2108	1086	3014	59
41	0	0	2080	1084	3015	60
42	0	0	2059	1086	3016	60
43	0	0	2054	1088	3015	60
44	0	0	2061	1085	3018	59
45	0	0	2079	1084	3015	61
46	0	0	2077	1084	3014	58
47	0	0	2064	1083	3011	59
48	0	0	2053	1083	3010	59
49	0	0	2034	1080	3013	60
50	0	0	2029	1082	3013	62
51	0	0	2042	1083	3015	61
52	0	0	2059	1083	3016	61
53	0	0	2062	1084	3017	62
54	0	0	2068	1084	3017	64
55	0	0	2080	1086	3016	61
56	0	0	2103	1086	3014	61
57	0	0	2129	1088	3011	61
58	0	0	2163	1087	3010	62
59	0	0	2178	1087	3012	60
60	0	0	2172	1087	3013	62
61	0	0	2165	1086	3016	59
62	0	0	2177	1087	3016	60
63	0	0	2181	1086	3017	60
64	0	0	2185	1085	3017	60
65	0	0	2190	1084	3016	59
66	0	0	2205	1084	3013	59
67	0	0	2179	1079	3011	59
68	0	0	2127	1081	3010	59
69	0	0	2095	1082	3011	60
70	0	0	2101	1083	3014	61
71	0	0	2115	1083	3016	61
72	0	0	2128	1084	3016	61
73	0	0	2140	1084	3017	61
74	0	0	2147	1084	3018	62
75	0	0	2156	1085	3016	61
76	0	0	2157	1085	3013	60
77	0	0	2146	1086	3011	62
78	0	0	2147	1086	3011	60
79	0	0	2152	1086	3013	60
80	0	0	2161	1086	3014	61
81	0	0	2174	1086	3016	61
82	0	0	2181	1086	3016	60
83	0	0	2172	1086	3017	61
84	0	0	2165	1084	3017	60
85	0	0	2157	1085	3016	59
86	0	0	2148	1084	3012	59
87	0	0	2140	1083	3011	58
88	0	0	2121	1081	3011	60
89	0	0	2108	1083	3011	61
90	0	0	2129	1083	3013	61
91	0	0	2180	1082	3014	63
92	0	0	2197	1082	3016	62
93	0	0	2156	1081	3017	61
94	0	0	2110	1081	3016	63
95	0	0	2088	1085	3016	62
96	0	0	2096	1086	3014	62
97	0	0	2111	1086	3011	61
98	0	0	2129	1086	3011	58
99	0	0	2144	1087	3012	61
100	0	0	2170	1086	3014	59
101	0	0	2197	1086	3014	60
102	0	0	2219	1085	3016	63
103	0	0	2261	1086	3017	60
104	0	0	2284	1085	3017	60
105	0	0	2262	1081	3016	59
106	0	0	2224	1081	3013	59
107	0	0	2199	1079	3011	59
108	0	0	2153	1080	3011	60
109	0	0	2098	1080	3011	60
110	0	0	2057	1080	3014	61
111	0	0	2047	1083	3016	61
112	0	0	2053	1084	3016	61
113	0	0	2069	1083	3018	62
114	0	0	2096	1085	3018	61
115	0	0	2113	1084	3016	59
116	0	0	2125	1086	3013	62
117	0	0	2123	1085	3011	61
118	0	0	2114	1086	3011	62
119	0	0	2113	1087	3012	60
120	0	0	2135	1085	3014	60
121	0	0	2143	1085	3014	60
122	0	0	2108	1081	3016	59
123	0	0	2081	1084	3017	61
124	0	0	2084	1084	3016	63
125	0	0	2103	1085	3016	57
126	0	0	2120	1082	3012	59
127	0	0	2131	1081	3011	59
0	0	0	2129	1083	3012	59
1	0	0	2103	1080	3012	61
2	0	0	2081	1081	3014	58
3	0	0	2075	1082	3014	60
4	0	0	2077	1082	3016	62
5	0	0	2089	1082	3017	62
6	0	0	2104	1084	3017	62
7	0	0	2096	1082	3017	61
8	0	0	2058	1081	3012	61
9	0	0	2029	1083	3011	61
10	0	0	2029	1086	3012	62
11	0	0	2057	1085	3011	63
12	0	0	2063	1085	3013	60
13	0	0	2038	1082	3015	60
14	0	0	2026	1086	3016	59
15	0	0	2035	1085	3017	60
16	0	0	2049	1083	3016	62
17	0	0	2053	1084	3017	59
18	0	0	2033	1082	3012	59
19	0	0	1994	1079	3012	59
20	0	0	1958	1079	3011	60
21	0	0	1934	1080	3012	60
22	0	0	1934	1083	3014	61
23	0	0	1950	1082	3015	63
24	0	0	1980	1082	3016	61
25	0	0	2010	1082	3017	62
26	0	0	2028	1083	3016	63
27	0	0	2039	1084	3016	64
28	0	0	2029	1088	3013	63
29	0	0	2014	1084	3011	61
30	0	0	2014	1085	3012	61
31	0	0	2025	1085	3011	62
32	0	0	2023	1084	3014	59
33	0	0	1998	1082	3015	59
34	0	0	1979	1083	3016	60
35	0	0	1981	1085	3018	60
36	0	0	2010	1085	3017	60
37	0	0	2032	1083	3016	57
38	0	0	2044	1082	3014	59
39	0	0	2041	1082	3011	60
40	0	0	2028	1080	3011	60
41	0	0	2012	1081	3012	59
42	0	0	2007	1082	3014	60
43	0	0	2015	1083	3015	60
44	0	0	2025	1082	3017	61
45	0	0	2017	1084	3018	61
46	0	0	2007	1083	3017	62
47	0	0	1998	1084	3016	60
48	0	0	1982	1084	3013	61
49	0	0	1971	1084	3010	60
50	0	0	1969	1085	3011	60
51	0	0	1974	1085	3012	59
52	0	0	1976	1084	3014	58
53	0	0	1956	1082	3014	61
54	0	0	1938	1083	3019	60
55	0	0	1938	1084	3017	60
56	0	0	1941	1083	3016	62
57	0	0	1971	1083	3016	58
58	0	0	2006	1083	3013	59
59	0	0	2021	1082	3011	61
60	0	0	2021	1081	3011	60
61	0	0	2015	1081	3012	59
62	0	0	2012	1082	3013	58
63	0	0	2014	1081	3015	59
64	0	0	2011	1082	3016	61
65	0	0	2000	1082	3017	62
66	0	0	2002	1083	3016	63
67	0	0	2029	1084	3016	60
68	0	0	2051	1084	3013	61
69	0	0	2042	1082	3011	61
70	0	0	2021	1082	3012	60
71	0	0	2012	1084	3013	59
72	0	0	1984	1082	3014	60
73	0	0	1946	1081	3016	61
74	0	0	1919	1081	3016	61
75	0	0	1924	1084	3016	63
76	0	0	1956	1084	3015	60
77	0	0	2002	1083	3015	60
78	0	0	2040	1082	3013	58
79	0	0	2047	1082	3011	58
80	0	0	2020	1078	3011	60
81	0	0	1982	1079	3012	59
82	0	0	1969	1082	3014	61
83	0	0	1972	1081	3015	59
84	0	0	1976	1082	3016	61
85	0	0	1971	1081	3018	61
86	0	0	1960	1081	3017	63
87	0	0	1938	1081	3016	61
88	0	0	1926	1082	3013	61
89	0	0	1925	1084	3012	61
90	0	0	1939	1086	3011	58
91	0	0	1943	1085	3012	61
92	0	0	1940	1084	3014	62
93	0	0	1950	1084	3015	60
94	0	0	1971	1083	3016	60
95	0	0	1996	1084	3017	59
96	0	0	2007	1083	3017	57
97	0	0	1987	1080	3016	60
98	0	0	1977	1082	3014	59
99	0	0	1986	1082	3011	59
100	0	0	1992	1081	3010	61
101	0	0	2006	1082	3012	60
102	0	0	2011	1081	3014	60
103	0	0	2000	1079	3015	62
104	0	0	1994	1081	3016	61
105	0	0	2009	1081	3018	60
106	0	0	2042	1083	3017	59
107	0	0	2073	1082	3017	62
108	0	0	2076	1083	3013	61
109	0	0	2039	1081	3011	61
110	0	0	1977	1079	3011	61
111	0	0	1939	1082	3012	58
112	0	0	1945	1084	3014	60
113	0	0	1970	1084	3014	60
114	0	0	1985	1084	3017	60
115	0	0	1980	1084	3017	61
116	0	0	1970	1084	3017	59
117	0	0	1968	1084	3017	57
118	0	0	1970	1084	3013	60
119	0	0	1973	1082	3011	59
120	0	0	1976	1080	3012	58
121	0	0	1991	1081	3012	57
122	0	0	2005	1081	3014	63
123	0	0	1997	1080	3014	60
124	0	0	1988	1081	3016	62
125	0	0	1986	1080	3018	60
126	0	0	1984	1083	3018	58
127	0	0	1988	1083	3017	60
0	0	0	2001	1084	3013	61
1	0	0	2024	1084	3011	60
2	0	0	2041	1084	3012	59
3	0	0	2021	1081	3013	60
4	0	0	1986	1081	3014	63
5	0	0	1967	1083	3016	59
6	0	0	1963	1083	3016	57
7	0	0	1976	1084	3017	59
8	0	0	2020	1085	3017	61
9	0	0	2059	1083	3016	58
10	0	0	2046	1078	3012	59
11	0	0	2012	1079	3011	60
12	0	0	1993	1079	3011	60
13	0	0	1998	1081	3012	56
14	0	0	2010	1081	3014	62
15	0	0	2011	1080	3016	62
16	0	0	2027	1081	3016	61
17	0	0	2030	1084	3017	59
18	0	0	2012	1082	3018	61
19	0	0	1997	1081	3017	59
20	0	0	1989	1083	3013	63
21	0	0	1998	1083	3012	61
22	0	0	2006	1084	3012	63
23	0	0	2020	1085	3012	61
24	0	0	2035	1084	3015	60
25	0	0	2037	1083	3014	61
26	0	0	2036	1082	3016	60
27	0	0	2036	1082	3018	58
28	0	0	2030	1083	3017	60
29	0	0	2013	1080	3016	59
30	0	0	1990	1080	3013	58
31	0	0	1991	1081	3011	60
32	0	0	2001	1080	3012	60
33	0	0	2020	1080	3012	62
34	0	0	2021	1080	3014	63
35	0	0	1997	1078	3016	60
36	0	0	1991	1080	3016	62
37	0	0	2026	1081	3016	59
38	0	0	2070	1079	3018	61
39	0	0	2086	1084	3017	61
40	0	0	2088	1082	3014	62
41	0	0	2082	1082	3012	61
42	0	0	2073	1082	3011	62
43	0	0	2048	1082	3012	61
44	0	0	2029	1082	3014	60
45	0	0	2023	1084	3016	60
46	0	0	2040	1083	3017	63
47	0	0	2056	1083	3018	60
48	0	0	2049	1082	3018	60
49	0	0	2039	1081	3016	59
50	0	0	2035	1081	3014	59
51	0	0	2022	1079	3011	59
52	0	0	2006	1079	3011	58
53	0	0	2001	1079	3012	60
54	0	0	2004	1081	3014	57
55	0	0	2017	1080	3015	61
56	0	0	2026	1081	3016	61
57	0	0	2015	1080	3017	61
58	0	0	2001	1082	3018	61
59	0	0	1999	1082	3016	58
60	0	0	2002	1082	3014	61
61	0	0	1997	1083	3012	60
62	0	0	1991	1081	3012	59
63	0	0	1997	1082	3012	61
64	0	0	2003	1084	3015	60
65	0	0	2013	1083	3016	60
66	0	0	2011	1082	3016	59
67	0	0	1995	1081	3017	60
68	0	0	1985	1082	3017	60
69	0	0	1990	1082	3017	60
70	0	0	2005	1080	3014	59
71	0	0	2032	1080	3011	59
72	0	0	2045	1080	3011	60
73	0	0	2038	1080	3012	63
74	0	0	2039	1080	3014	61
75	0	0	2031	1080	3016	62
76	0	0	2040	1081	3016	61
77	0	0	2045	1080	3018	61
78	0	0	2029	1078	3017	62
79	0	0	2002	1080	3017	61
80	0	0	1998	1082	3015	62
81	0	0	2000	1082	3011	61
82	0	0	2003	1082	3011	61
83	0	0	2004	1081	3013	61
84	0	0	1996	1083	3014	60
85	0	0	1992	1082	3016	61
86	0	0	2000	1083	3016	60
87	0	0	2014	1082	3016	61
88	0	0	2040	1080	3018	60
89	0	0	2060	1081	3017	56
90	0	0	2074	1081	3013	58
91	0	0	2094	1080	3012	60
92	0	0	2096	1080	3011	60
93	0	0	2099	1080	3013	63
94	0	0	2082	1077	3014	61
95	0	0	2062	1079	3015	61
96	0	0	2053	1079	3017	61
97	0	0	2023	1077	3017	59
98	0	0	1984	1076	3017	61
99	0	0	1978	1081	3017	61
100	0	0	1983	1081	3014	62
101	0	0	1991	1083	3013	61
102	0	0	1997	1083	3012	61
103	0	0	2005	1079	3013	60
104	0	0	2019	1083	3014	62
105	0	0	2031	1083	3015	59
106	0	0	2034	1082	3017	63
107	0	0	2036	1081	3016	61
108	0	0	2044	1080	3018	60
109	0	0	2052	1080	3016	56
110	0	0	2060	1080	3013	57
111	0	0	2067	1080	3011	59
112	0	0	2060	1079	3010	61
113	0	0	2046	1079	3012	61
114	0	0	2028	1077	3014	60
115	0	0	2021	1079	3015	60
116	0	0	2013	1080	3016	61
117	0	0	2015	1079	3018	61
118	0	0	2027	1080	3018	63
119	0	0	2016	1082	3017	58
120	0	0	2028	1081	3014	61
121	0	0	2065	1083	3012	61
122	0	0	2078	1082	3011	61
123	0	0	2055	1078	3011	63
124	0	0	2022	1079	3014	58
125	0	0	2010	1082	3015	59
126	0	0	2010	1081	3016	61
127	0	0	2028	1080	3017	60
0	0	0	2047	1079	3017	59
1	0	0	2050	1079	3016	57
2	0	0	2045	1079	3014	58
3	0	0	2065	1079	3011	59
4	0	0	2082	1079	3011	59
5	0	0	2064	1074	3011	61
6	0	0	2020	1075	3014	60
7	0	0	1987	1076	3015	62
8	0	0	1969	1078	3016	62
9	0	0	1981	1079	3017	61
10	0	0	2011	1079	3017	59
11	0	0	2031	1081	3017	64
12	0	0	2028	1080	3014	59
13	0	0	2021	1081	3012	61
14	0	0	2031	1081	3012	59
15	0	0	2036	1083	3013	60
16	0	0	2027	1084	3014	61
17	0	0	2022	1082	3016	60
18	0	0	2021	1081	3016	60
19	0	0	2032	1081	3017	59
20	0	0	2044	1080	3017	59
21	0	0	2051	1080	3016	62
22	0	0	2045	1078	3014	59
23	0	0	2015	1075	3011	61
24	0	0	1994	1077	3012	58
25	0	0	2000	1079	3013	59
26	0	0	2019	1078	3014	61
27	0	0	2029	1076	3015	61
28	0	0	2033	1078	3016	61
29	0	0	2039	1079	3017	62
30	0	0	2038	1079	3017	63
31	0	0	2031	1080	3017	62
32	0	0	2035	1081	3013	59
33	0	0	2059	1080	3012	60
34	0	0	2073	1082	3011	60
35	0	0	2043	1077	3011	61
36	0	0	2024	1083	3014	62
37	0	0	2036	1081	3015	60
38	0	0	2049	1080	3017	61
39	0	0	2043	1080	3018	59
40	0	0	2039	1080	3018	62
41	0	0	2039	1078	3016	61
42	0	0	2039	1079	3013	58
43	0	0	2039	1077	3011	59
44	0	0	2007	1075	3012	58
45	0	0	1976	1074	3011	61
46	0	0	1961	1076	3013	64
47	0	0	1952	1077	3014	62
48	0	0	1966	1078	3016	63
49	0	0	1988	1078	3017	62
50	0	0	2005	1077	3017	61
51	0	0	2022	1080	3017	61
52	0	0	2041	1079	3013	61
53	0	0	2043	1080	3012	61
54	0	0	2057	1081	3011	63
55	0	0	2063	1081	3011	62
56	0	0	2059	1081	3014	61
57	0	0	2048	1080	3015	63
58	0	0	2054	1080	3016	60
59	0	0	2062	1080	3017	57
60	0	0	2076	1079	3017	57
61	0	0	2078	1079	3016	60
62	0	0	2065	1079	3013	60
63	0	0	2060	1077	3012	60
64	0	0	2054	1077	3011	60
65	0	0	2045	1078	3011	64
66	0	0	2038	1077	3013	61
67	0	0	2025	1078	3016	61
68	0	0	2014	1077	3016	61
69	0	0	2020	1078	3018	60
70	0	0	2035	1080	3017	61
71	0	0	2052	1076	3017	62
72	0	0	2069	1080	3014	63
73	0	0	2075	1079	3011	60
74	0	0	2085	1079	3011	60
75	0	0	2091	1080	3012	59
76	0	0	2098	1080	3014	61
77	0	0	2092	1081	3015	60
78	0	0	2067	1077	3016	62
79	0	0	2033	1077	3017	60
80	0	0	2026	1079	3017	64
81	0	0	2021	1079	3017	59
82	0	0	2018	1078	3015	59
83	0	0	2022	1078	3011	60
84	0	0	2025	1078	3011	59
85	0	0	2022	1076	3012	60
86	0	0	2032	1075	3013	60
87	0	0	2034	1077	3014	63
88	0	0	2034	1078	3016	61
89	0	0	2034	1078	3017	60
90	0	0	2032	1079	3019	62
91	0	0	2033	1079	3016	61
92	0	0	2036	1079	3015	62
93	0	0	2046	1080	3012	61
94	0	0	2057	1080	3011	62
95	0	0	2057	1080	3012	61
96	0	0	2076	1080	3014	63
97	0	0	2075	1080	3014	62
98	0	0	2073	1079	3016	60
99	0	0	2067	1079	3017	60
100	0	0	2063	1078	3016	61
101	0	0	2071	1079	3016	59
102	0	0	2077	1078	3013	62
103	0	0	2068	1076	3011	59
104	0	0	2049	1074	3011	59
105	0	0	2046	1076	3012	61
106	0	0	2052	1076	3014	61
107	0	0	2049	1077	3015	62
108	0	0	2034	1075	3016	61
109	0	0	2016	1075	3017	62
110	0	0	2009	1077	3017	62
111	0	0	2009	1079	3017	62
112	0	0	2015	1079	3014	63
113	0	0	2041	1081	3013	61
114	0	0	2073	1081	3012	61
115	0	0	2090	1080	3012	59
116	0	0	2064	1079	3014	60
117	0	0	2055	1080	3016	60
118	0	0	2073	1079	3016	60
119	0	0	2085	1079	3017	61
120	0	0	2067	1074	3017	61
121	0	0	2044	1077	3017	63
122	0	0	2035	1078	3013	59
123	0	0	2029	1077	3011	59
124	0	0	2035	1075	3011	59
125	0	0	2033	1076	3012	59
126	0	0	2024	1077	3014	59
127	0	0	2018	1075	3015	63
0	0	0	2013	1077	3016	61
1	0	0	2019	1078	3017	61
2	0	0	2020	1076	3017	62
3	0	0	2028	1078	3017	62
4	0	0	2032	1079	3014	59
5	0	0	2031	1082	3013	64
6	0	0	2054	1080	3011	61
7	0	0	2098	1080	3013	61
8	0	0	2139	1080	3014	61
9	0	0	2155	1080	3015	62
10	0	0	2136	1076	3016	60
11	0	0	2121	1078	3017	62
12	0	0	2111	1078	3018	62
13	0	0	2087	1074	3016	61
14	0	0	2064	1076	3014	59
15	0	0	2042	1075	3012	59
16	0	0	2031	1079	3011	57
17	0	0	2045	1075	3012	63
18	0	0	2063	1077	3014	60
19	0	0	2060	1077	3014	61
20	0	0	2065	1078	3017	61
21	0	0	2059	1079	3017	60
22	0	0	2040	1076	3018	61
23	0	0	2025	1076	3017	63
24	0	0	2016	1078	3014	59
25	0	0	2024	1078	3011	61
26	0	0	2033	1080	3011	62
27	0	0	2036	1080	3012	62
28	0	0	2051	1081	3014	60
29	0	0	2072	1079	3015	59
30	0	0	2071	1079	3017	59
31	0	0	2065	1079	3018	57
32	0	0	2067	1078	3018	60
33	0	0	2059	1076	3016	60
34	0	0	2041	1076	3014	59
35	0	0	2044	1078	3011	60
36	0	0	2060	1077	3011	60
37	0	0	2063	1076	3012	60
38	0	0	2058	1076	3014	62
39	0	0	2050	1076	3014	63
40	0	0	2054	1078	3017	61
41	0	0	2068	1078	3017	62
42	0	0	2063	1079	3018	60
43	0	0	2041	1075	3016	62
44	0	0	2027	1078	3014	61
45	0	0	2035	1079	3011	61
46	0	0	2065	1079	3012	59
47	0	0	2071	1080	3013	60
48	0	0	2051	1077	3014	62
49	0	0	2055	1079	3014	59
50	0	0	2079	1078	3016	60
51	0	0	2078	1078	3018	59
52	0	0	2073	1079	3018	60
53	0	0	2057	1075	3016	60
54	0	0	2028	1074	3015	59
55	0	0	1997	1074	3011	59
56	0	0	1999	1075	3011	59
57	0	0	2035	1077	3012	59
58	0	0	2069	1074	3014	62
59	0	0	2065	1074	3015	59
60	0	0	2035	1074	3016	62
61	0	0	2012	1077	3017	61
62	0	0	2008	1075	3017	63
63	0	0	2011	1076	3017	63
64	0	0	2037	1079	3014	61
65	0	0	2057	1078	3012	62
66	0	0	2066	1078	3011	61
67	0	0	2067	1076	3012	63
68	0	0	2060	1079	3014	60
69	0	0	2053	1079	3015	58
70	0	0	2057	1078	3016	64
71	0	0	2060	1080	3017	60
72	0	0	2057	1075	3017	59
73	0	0	2064	1076	3017	62
74	0	0	2063	1077	3013	58
75	0	0	2066	1075	3011	59
76	0	0	2083	1074	3010	59
77	0	0	2118	1074	3011	59
78	0	0	2155	1075	3013	62
79	0	0	2153	1071	3014	64
80	0	0	2115	1073	3016	61
81	0	0	2085	1075	3017	62
82	0	0	2071	1074	3017	61
83	0	0	2049	1075	3016	63
84	0	0	2051	1077	3014	61
85	0	0	2103	1077	3012	61
86	0	0	2144	1079	3012	57
87	0	0	2132	1079	3012	60
88	0	0	2095	1077	3014	60
89	0	0	2054	1075	3014	62
90	0	0	2023	1076	3017	60
91	0	0	2036	1078	3017	58
92	0	0	2060	1079	3017	60
93	0	0	2095	1077	3017	60
94	0	0	2082	1074	3012	58
95	0	0	2040	1071	3012	59
96	0	0	1995	1073	3011	59
97	0	0	1975	1074	3012	57
98	0	0	1991	1076	3014	60
99	0	0	2021	1075	3015	62
100	0	0	2063	1073	3016	62
101	0	0	2095	1076	3017	59
102	0	0	2122	1075	3017	61
103	0	0	2124	1077	3016	63
104	0	0	2128	1073	3015	62
105	0	0	2116	1079	3011	62
106	0	0	2116	1078	3011	59
107	0	0	2125	1077	3012	60
108	0	0	2131	1077	3014	60
109	0	0	2134	1079	3014	60
110	0	0	2130	1078	3017	60
111	0	0	2119	1075	3017	60
112	0	0	2111	1078	3017	58
113	0	0	2110	1077	3016	59
114	0	0	2113	1076	3013	62
115	0	0	2125	1075	3011	60
116	0	0	2102	1071	3011	59
117	0	0	2057	1071	3011	60
118	0	0	2024	1072	3013	61
119	0	0	2025	1074	3014	60
120	0	0	2048	1075	3016	61
121	0	0	2056	1073	3017	62
122	0	0	2049	1075	3017	61
123	0	0	2055	1076	3017	62
124	0	0	2060	1077	3015	62
125	0	0	2053	1077	3011	61
126	0	0	2063	1078	3011	59
127	0	0	2067	1076	3012	61
0	0	0	2061	1078	3013	60
1	0	0	2069	1078	3015	60
2	0	0	2085	1077	3016	60
3	0	0	2099	1075	3017	60
4	0	0	2108	1077	3017	60
5	0	0	2111	1076	3016	63
6	0	0	2093	1075	3014	60
7	0	0	2075	1074	3012	60
8	0	0	2058	1073	3010	59
9	0	0	2041	1072	3012	62
10	0	0	2020	1073	3013	61
11	0	0	2017	1074	3015	62
12	0	0	2028	1077	3017	59
13	0	0	2037	1076	3016	64
14	0	0	2051	1075	3017	62
15	0	0	2068	1076	3016	63
16	0	0	2089	1076	3014	63
17	0	0	2087	1076	3011	61
18	0	0	2070	1076	3011	61
19	0	0	2059	1077	3013	62
20	0	0	2056	1078	3013	60
21	0	0	2074	1078	3015	59
22	0	0	2068	1076	3016	61
23	0	0	2048	1076	3017	60
24	0	0	2042	1077	3017	61
25	0	0	2063	1076	3016	61
26	0	0	2096	1075	3013	55
27	0	0	2118	1073	3011	59
28	0	0	2099	1071	3012	57
29	0	0	2037	1071	3011	59
30	0	0	1976	1072	3013	61
31	0	0	1956	1074	3014	63
32	0	0	1973	1075	3015	61
33	0	0	1993	1075	3017	60
34	0	0	1997	1076	3017	62
35	0	0	2006	1076	3017	61
36	0	0	2030	1076	3014	59
37	0	0	2079	1078	3011	61
38	0	0	2119	1077	3012	61
39	0	0	2131	1076	3013	61
40	0	0	2104	1074	3014	60
41	0	0	2068	1074	3015	59
42	0	0	2041	1073	3016	60
43	0	0	2025	1076	3015	60
44	0	0	2028	1076	3017	62
45	0	0	2048	1076	3016	60
46	0	0	2046	1074	3013	61
47	0	0	2017	1071	3011	59
48	0	0	1990	1072	3011	58
49	0	0	1989	1072	3012	60
50	0	0	2011	1073	3013	61
51	0	0	2048	1074	3015	61
52	0	0	2057	1074	3016	61
53	0	0	2045	1074	3017	63
54	0	0	2033	1075	3017	63
55	0	0	2024	1076	3017	61
56	0	0	2022	1076	3014	63
57	0	0	2003	1075	3012	61
58	0	0	2009	1077	3012	39
59	0	0	2048	1078	3011	59
60	0	0	2061	1077	3014	61
61	0	0	2052	1077	3014	62
62	0	0	2049	1078	3016	61
63	0	0	2052	1076	3016	62
64	0	0	2077	1073	3018	61
65	0	0	2124	1074	3016	58
66	0	0	2173	1074	3013	57
67	0	0	2182	1074	3011	60
68	0	0	2168	1074	3011	58
69	0	0	2171	1072	3012	59
70	0	0	2183	1074	3013	61
71	0	0	2193	1073	3014	59
72	0	0	2191	1074	3016	63
73	0	0	2166	1071	3017	62
74	0	0	2149	1072	3018	62
75	0	0	2159	1074	3017	63
76	0	0	2183	1075	3014	57
77	0	0	2205	1077	3011	62
78	0	0	2240	1077	3011	60
79	0	0	2275	1076	3012	59
80	0	0	2305	1076	3013	60
81	0	0	2326	1076	3014	57
82	0	0	2348	1077	3016	61
83	0	0	2360	1075	3016	62
84	0	0	2365	1072	3018	59
85	0	0	2371	1076	3016	60
86	0	0	2378	1074	3015	60
87	0	0	2393	1074	3011	60
88	0	0	2399	1073	3011	61
89	0	0	2413	1073	3012	60
90	0	0	2420	1072	3013	61
91	0	0	2404	1072	3014	57
92	0	0	2370	1072	3016	62
93	0	0	2327	1071	3016	63
94	0	0	2287	1070	3017	63
95	0	0	2257	1073	3017	62
96	0	0	2235	1073	3014	60
97	0	0	2210	1073	3012	61
98	0	0	2175	1073	3011	62
99	0	0	2144	1076	3011	60
100	0	0	2123	1073	3013	59
101	0	0	2113	1077	3015	60
102	0	0	2123	1074	3016	61
103	0	0	2130	1075	3017	59
104	0	0	2107	1073	3017	60
105	0	0	2083	1074	3017	60
106	0	0	2074	1073	3013	58
107	0	0	2055	1071	3011	60
108	0	0	2034	1072	3011	59
109	0	0	2039	1072	3012	59
110	0	0	2052	1073	3013	60
111	0	0	2055	1073	3014	57
112	0	0	2057	1073	3017	61
113	0	0	2056	1076	3017	60
114	0	0	2049	1074	3016	62
115	0	0	2036	1073	3016	62
116	0	0	2025	1075	3014	60
117	0	0	2015	1076	3012	61
118	0	0	2030	1076	3012	58
119	0	0	2045	1076	3011	59
120	0	0	2016	1073	3013	61
121	0	0	1986	1073	3015	60
122	0	0	1976	1077	3016	60
123	0	0	1987	1074	3017	60
124	0	0	2012	1075	3016	57
125	0	0	2019	1073	3016	59
126	0	0	2017	1074	3014	56
127	0	0	2039	1072	3011	60
0	0	0	2054	1074	3010	59
1	0	0	2049	1073	3011	59
2	0	0	2030	1072	3014	61
3	0	0	2005	1070	3014	60
4	0	0	1993	1075	3015	62
5	0	0	1997	1073	3017	61
6	0	0	2011	1075	3018	61
7	0	0	2012	1071	3016	62
8	0	0	2035	1075	3013	60
9	0	0	2068	1075	3011	61
10	0	0	2094	1074	3011	61
11	0	0	2110	1076	3011	59
12	0	0	2101	1076	3014	61
13	0	0	2089	1076	3014	64
14	0	0	2079	1075	3016	62
15	0	0	2062	1073	3017	61
16	0	0	2061	1075	3016	60
17	0	0	2078	1073	3017	60
18	0	0	2105	1075	3014	58
19	0	0	2119	1072	3011	59
20	0	0	2094	1072	3011	59
21	0	0	2081	1075	3011	58
22	0	0	2079	1070	3013	61
23	0	0	2088	1071	3014	58
24	0	0	2072	1071	3016	61
25	0	0	2050	1072	3017	62
26	0	0	2045	1075	3017	60
27	0	0	2023	1071	3017	62
28	0	0	1999	1072	3014	62
29	0	0	1982	1075	3011	59
30	0	0	1997	1076	3011	60
31	0	0	2015	1079	3012	60
32	0	0	2029	1073	3013	61
33	0	0	2048	1076	3015	59
34	0	0	2061	1076	3015	60
35	0	0	2071	1074	3017	59
36	0	0	2072	1074	3017	60
37	0	0	2068	1075	3016	59
38	0	0	2069	1074	3014	59
39	0	0	2069	1074	3011	60
40	0	0	2072	1072	3011	57
41	0	0	2048	1069	3011	60
42	0	0	2022	1070	3013	60
43	0	0	2002	1070	3014	61
44	0	0	1973	1070	3016	61
45	0	0	1971	1072	3016	61
46	0	0	1989	1073	3017	63
47	0	0	2008	1074	3017	61
48	0	0	2031	1076	3013	60
49	0	0	2067	1074	3011	61
50	0	0	2090	1078	3011	60
51	0	0	2091	1075	3011	61
52	0	0	2087	1076	3014	59
53	0	0	2088	1076	3014	61
54	0	0	2083	1075	3017	60
55	0	0	2072	1077	3017	58
56	0	0	2064	1073	3017	63
57	0	0	2062	1077	3016	60
58	0	0	2068	1074	3013	58
59	0	0	2093	1072	3011	60
60	0	0	2115	1075	3010	58
61	0	0	2104	1070	3011	60
62	0	0	2079	1069	3013	60
63	0	0	2066	1072	3014	61
64	0	0	2059	1072	3016	61
65	0	0	2039	1072	3017	61
66	0	0	2022	1072	3018	62
67	0	0	2015	1074	3017	61
68	0	0	2024	1074	3014	62
69	0	0	2045	1075	3013	61
70	0	0	2071	1076	3011	61
71	0	0	2111	1075	3011	62
72	0	0	2133	1079	3013	59
73	0	0	2116	1073	3014	57
74	0	0	2095	1074	3016	61
75	0	0	2089	1075	3016	60
76	0	0	2063	1071	3016	60
77	0	0	2029	1073	3017	59
78	0	0	2007	1073	3013	60
79	0	0	2021	1072	3011	55
80	0	0	2048	1074	3010	60
81	0	0	2059	1072	3011	62
82	0	0	2052	1075	3013	61
83	0	0	2054	1073	3015	62
84	0	0	2081	1070	3016	61
85	0	0	2115	1073	3017	62
86	0	0	2132	1074	3019	62
87	0	0	2140	1077	3017	61
88	0	0	2146	1074	3013	61
89	0	0	2129	1071	3011	61
90	0	0	2107	1075	3010	60
91	0	0	2081	1074	3012	63
92	0	0	2060	1077	3013	62
93	0	0	2056	1075	3015	61
94	0	0	2075	1071	3015	60
95	0	0	2105	1077	3016	60
96	0	0	2131	1075	3017	60
97	0	0	2144	1074	3016	60
98	0	0	2146	1073	3014	59
99	0	0	2114	1069	3012	59
100	0	0	2086	1071	3012	61
101	0	0	2086	1072	3012	60
102	0	0	2105	1071	3014	61
103	0	0	2110	1072	3014	60
104	0	0	2099	1072	3016	61
105	0	0	2085	1073	3017	63
106	0	0	2085	1073	3017	63
107	0	0	2091	1072	3017	61
108	0	0	2099	1074	3015	61
109	0	0	2105	1074	3011	62
110	0	0	2115	1076	3011	62
111	0	0	2112	1076	3012	59
112	0	0	2115	1077	3013	60
113	0	0	2133	1075	3015	61
114	0	0	2142	1075	3016	60
115	0	0	2146	1074	3017	61
116	0	0	2138	1074	3018	60
117	0	0	2108	1072	3016	60
118	0	0	2066	1071	3015	59
119	0	0	2041	1072	3011	59
120	0	0	2048	1072	3010	58
121	0	0	2074	1071	3012	59
122	0	0	2095	1072	3013	61
123	0	0	2102	1072	3014	61
124	0	0	2098	1072	3016	60
125	0	0	2077	1072	3017	63
126	0	0	2077	1074	3017	63
127	0	0	2102	1074	3017	61
0	0	0	2106	1075	3014	61
1	0	0	2109	1075	3011	61
2	0	0	2121	1075	3011	61
3	0	0	2127	1075	3012	60
4	0	0	2118	1074	3013	60
5	0	0	2115	1075	3015	60
6	0	0	2119	1076	3016	60
7	0	0	2135	1074	3016	60
8	0	0	2144	1074	3018	63
9	0	0	2138	1073	3016	60
10	0	0	2127	1074	3014	58
11	0	0	2117	1071	3011	60
12	0	0	2101	1073	3010	60
13	0	0	2098	1071	3012	60
14	0	0	2091	1072	3013	61
15	0	0	2079	1074	3013	61
16	0	0	2090	1071	3016	61
17	0	0	2114	1072	3017	62
18	0	0	2105	1071	3017	62
19	0	0	2091	1073	3017	61
20	0	0	2104	1074	3014	61
21	0	0	2128	1074	3013	61
22	0	0	2155	1075	3011	59
23	0	0	2176	1075	3013	63
24	0	0	2165	1074	3013	60
25	0	0	2152	1076	3015	62
26	0	0	2169	1075	3016	60
27	0	0	2185	1074	3017	61
28	0	0	2157	1071	3017	61
29	0	0	2127	1073	3016	59
30	0	0	2123	1073	3013	60
31	0	0	2126	1072	3011	60
32	0	0	2131	1071	3011	61
33	0	0	2117	1071	3012	60
34	0	0	2113	1072	3013	61
35	0	0	2117	1072	3014	62
36	0	0	2124	1073	3015	61
37	0	0	2125	1073	3017	60
38	0	0	2115	1072	3018	61
39	0	0	2100	1072	3016	62
40	0	0	2089	1074	3014	62
41	0	0	2094	1073	3012	62
42	0	0	2100	1074	3011	61
43	0	0	2095	1075	3012	63
44	0	0	2093	1077	3013	60
45	0	0	2103	1075	3015	59
46	0	0	2115	1073	3016	61
47	0	0	2125	1073	3017	61
48	0	0	2128	1075	3017	57
49	0	0	2139	1073	3016	60
50	0	0	2172	1073	3014	59
51	0	0	2203	1072	3013	59
52	0	0	2210	1072	3011	63
53	0	0	2201	1072	3012	60
54	0	0	2179	1070	3013	61
55	0	0	2155	1070	3014	62
56	0	0	2149	1072	3017	65
57	0	0	2157	1071	3017	60
58	0	0	2181	1073	3017	59
59	0	0	2203	1072	3016	61
60	0	0	2218	1074	3014	63
61	0	0	2207	1074	3011	61
62	0	0	2201	1073	3011	60
63	0	0	2217	1075	3012	57
64	0	0	2228	1075	3013	61
65	0	0	2232	1075	3015	60
66	0	0	2219	1073	3016	60
67	0	0	2191	1072	3017	59
68	0	0	2167	1072	3017	60
69	0	0	2159	1074	3016	60
70	0	0	2171	1073	3015	59
71	0	0	2192	1072	3011	59
72	0	0	2204	1070	3010	59
73	0	0	2207	1071	3012	60
74	0	0	2199	1071	3013	61
75	0	0	2185	1070	3014	61
76	0	0	2177	1072	3016	62
77	0	0	2176	1072	3017	62
78	0	0	2183	1073	3016	60
79	0	0	2197	1074	3017	61
80	0	0	2217	1075	3014	60
81	0	0	2225	1074	3011	61
82	0	0	2231	1074	3010	63
83	0	0	2228	1074	3011	58
84	0	0	2221	1076	3013	61
85	0	0	2215	1075	3014	55
86	0	0	2203	1075	3016	61
87	0	0	2195	1073	3017	61
88	0	0	2177	1072	3015	60
89	0	0	2161	1071	3016	60
90	0	0	2152	1072	3014	60
91	0	0	2156	1072	3011	60
92	0	0	2154	1071	3011	59
93	0	0	2164	1071	3011	57
94	0	0	2170	1071	3012	61
95	0	0	2167	1074	3013	61
96	0	0	2168	1073	3015	61
97	0	0	2165	1071	3017	63
98	0	0	2181	1072	3016	60
99	0	0	2214	1072	3016	61
100	0	0	2229	1074	3014	59
101	0	0	2196	1071	3013	61
102	0	0	2151	1072	3011	63
103	0	0	2132	1075	3013	62
104	0	0	2138	1075	3014	60
105	0	0	2143	1075	3014	60
106	0	0	2136	1074	3016	60
107	0	0	2129	1075	3018	63
108	0	0	2124	1073	3018	60
109	0	0	2120	1073	3017	60
110	0	0	2105	1072	3014	59
111	0	0	2089	1070	3012	60
112	0	0	2086	1071	3011	59
113	0	0	2084	1072	3012	61
114	0	0	2086	1071	3013	60
115	0	0	2088	1071	3014	61
116	0	0	2090	1072	3016	63
117	0	0	2101	1071	3017	61
118	0	0	2101	1072	3016	60
119	0	0	2097	1072	3016	60
120	0	0	2090	1074	3014	62
121	0	0	2073	1073	3011	61
122	0	0	2065	1074	3011	62
123	0	0	2058	1075	3012	60
124	0	0	2038	1073	3013	61
125	0	0	2035	1075	3015	60
126	0	0	2020	1075	3015	60
127	0	0	2017	1073	3017	60
0	0	0	2009	1074	3017	60
1	0	0	2014	1072	3016	60
2	0	0	2023	1072	3014	59
3	0	0	2012	1072	3011	59
4	0	0	2007	1071	3011	60
5	0	0	2005	1071	3011	60
6	0	0	1992	1069	3012	60
7	0	0	1987	1067	3015	61
8	0	0	1996	1071	3016	62
9	0	0	2021	1073	3016	61
10	0	0	2028	1072	3018	62
11	0	0	2018	1074	3017	61
12	0	0	2010	1073	3014	63
13	0	0	1994	1071	3012	62
14	0	0	1982	1071	3011	60
15	0	0	1976	1074	3011	62
16	0	0	1973	1073	3013	61
17	0	0	1979	1074	3014	60
18	0	0	1984	1074	3016	60
19	0	0	2001	1074	3017	62
20	0	0	2004	1074	3018	61
21	0	0	1984	1072	3017	59
22	0	0	1993	1073	3015	59
23	0	0	2017	1072	3011	59
24	0	0	2034	1071	3011	59
25	0	0	2033	1071	3012	60
26	0	0	2006	1067	3013	60
27	0	0	1972	1065	3015	60
28	0	0	1940	1071	3015	61
29	0	0	1938	1073	3016	60
30	0	0	1964	1073	3017	62
31	0	0	2009	1072	3017	62
32	0	0	2023	1073	3014	62
33	0	0	2010	1074	3012	61
34	0	0	2017	1074	3012	63
35	0	0	2024	1075	3011	61
36	0	0	2000	1072	3013	59
37	0	0	1972	1072	3014	61
38	0	0	1955	1073	3016	61
39	0	0	1955	1074	3017	59
40	0	0	1958	1073	3018	60
41	0	0	1959	1069	3016	60
42	0	0	1958	1072	3014	59
43	0	0	1961	1074	3011	59
44	0	0	1970	1073	3010	59
45	0	0	1972	1070	3011	60
46	0	0	1993	1070	3012	60
47	0	0	2015	1067	3014	61
48	0	0	2008	1070	3017	61
49	0	0	1988	1070	3018	59
50	0	0	1982	1073	3016	62
51	0	0	1987	1072	3016	61
52	0	0	1982	1074	3014	62
53	0	0	1974	1074	3013	61
54	0	0	1978	1074	3011	61
55	0	0	1972	1076	3012	61
56	0	0	1969	1074	3013	60
57	0	0	1962	1074	3014	60
58	0	0	1944	1075	3015	60
59	0	0	1931	1074	3015	60
60	0	0	1931	1074	3016	61
61	0	0	1927	1072	3016	61
62	0	0	1938	1071	3014	59
63	0	0	1965	1072	3012	59
64	0	0	1957	1069	3011	60
65	0	0	1940	1068	3012	61
66	0	0	1934	1071	3013	60
67	0	0	1940	1071	3014	61
68	0	0	1947	1071	3016	61
69	0	0	1961	1072	3016	61
70	0	0	1957	1073	3017	63
71	0	0	1954	1067	3017	62
72	0	0	1960	1074	3015	62
73	0	0	1958	1077	3011	61
74	0	0	1965	1074	3011	61
75	0	0	1976	1075	3011	62
76	0	0	1988	1074	3013	61
77	0	0	1974	1072	3015	59
78	0	0	1962	1075	3017	60
79	0	0	1960	1074	3017	59
80	0	0	1958	1074	3016	60
81	0	0	1953	1073	3017	60
82	0	0	1961	1072	3014	59
83	0	0	1981	1070	3013	59
84	0	0	1994	1072	3010	59
85	0	0	1990	1071	3011	61
86	0	0	2000	1071	3013	60
87	0	0	2003	1070	3014	61
88	0	0	1972	1069	3016	61
89	0	0	1966	1072	3017	60
90	0	0	1967	1073	3018	62
91	0	0	1961	1073	3016	61
92	0	0	1982	1074	3014	61
93	0	0	1998	1073	3013	61
94	0	0	2011	1075	3012	63
95	0	0	2017	1075	3010	62
96	0	0	2018	1074	3013	60
97	0	0	2017	1075	3014	61
98	0	0	1994	1071	3015	60
99	0	0	1970	1072	3017	59
100	0	0	1960	1074	3017	59
101	0	0	1951	1071	3017	61
102	0	0	1926	1069	3014	59
103	0	0	1917	1072	3011	59
104	0	0	1927	1072	3011	61
105	0	0	1945	1072	3012	61
106	0	0	1956	1071	3013	60
107	0	0	1960	1071	3015	61
108	0	0	1964	1073	3015	60
109	0	0	1979	1072	3017	60
110	0	0	1972	1072	3017	61
111	0	0	1964	1074	3017	63
112	0	0	1973	1072	3014	62
113	0	0	2020	1072	3012	62
114	0	0	2061	1074	3011	63
115	0	0	2063	1074	3012	61
116	0	0	2036	1072	3013	61
117	0	0	1996	1072	3014	60
118	0	0	1972	1073	3015	59
119	0	0	1976	1074	3017	61
120	0	0	1981	1073	3017	59
121	0	0	1968	1070	3016	59
122	0	0	1936	1070	3015	59
123	0	0	1929	1072	3011	59
124	0	0	1943	1071	3010	59
125	0	0	1968	1071	3011	61
126	0	0	1976	1071	3012	59
127	0	0	1976	1071	3014	60
0	0	0	1980	1070	3015	60
1	0	0	1985	1072	3016	59
2	0	0	1985	1073	3016	63
3	0	0	1977	1073	3016	62
4	0	0	1968	1072	3014	61
5	0	0	1950	1072	3011	62
6	0	0	1945	1075	3010	60
7	0	0	1960	1075	3012	61
8	0	0	1966	1075	3013	61
9	0	0	1970	1074	3014	60
10	0	0	1966	1074	3016	60
11	0	0	1963	1074	3017	60
12	0	0	1979	1072	3017	60
13	0	0	1986	1073	3015	59
14	0	0	1965	1070	3015	59
15	0	0	1942	1068	3011	59
16	0	0	1937	1073	3010	59
17	0	0	1971	1071	3011	59
18	0	0	2007	1069	3012	61
19	0	0	2006	1069	3014	63
20	0	0	1988	1070	3016	62
21	0	0	1976	1071	3017	63
22	0	0	1974	1073	3017	62
23	0	0	1990	1073	3016	63
24	0	0	2016	1073	3014	62
25	0	0	2021	1074	3012	61
26	0	0	1998	1071	3011	62
27	0	0	1960	1072	3012	60
28	0	0	1937	1072	3013	88
29	0	0	1928	1074	3014	411
30	0	0	1923	1074	3015	1045
31	0	0	1936	1073	3017	1739
32	0	0	1963	1072	3017	2319
33	0	0	1983	1073	3016	2744
34	0	0	1993	1071	3014	3046
35	0	0	1993	1071	3011	3256
36	0	0	1977	1070	3011	3405
37	0	0	1988	1070	3012	3511
38	0	0	2029	1069	3013	3593
39	0	0	2051	1067	3014	3653
40	0	0	2026	1067	3015	3700
41	0	0	1995	1067	3016	3738
42	0	0	1998	1071	3018	3767
43	0	0	2008	1071	3016	3793
44	0	0	2009	1072	3015	3811
45	0	0	2003	1072	3011	3829
46	0	0	1998	1073	3011	3844
47	0	0	1994	1074	3012	3857
48	0	0	2012	1073	3012	3867
49	0	0	2039	1074	3015	3877
50	0	0	2027	1070	3015	3884
51	0	0	1995	1070	3017	3891
52	0	0	1987	1072	3018	3900
53	0	0	1988	1072	3016	3904
54	0	0	1986	1071	3015	3909
55	0	0	1978	1068	3012	3912
56	0	0	1990	1070	3011	3918
57	0	0	2020	1071	3012	3923
58	0	0	2016	1068	3012	3925
59	0	0	1986	1069	3015	3926
60	0	0	1959	1069	3016	3930
61	0	0	1953	1069	3018	3933
62	0	0	1945	1071	3017	3936
63	0	0	1932	1070	3016	3939
64	0	0	1927	1072	3014	3940
65	0	0	1940	1075	3012	3944
66	0	0	1983	1073	3012	3946
67	0	0	2031	1073	3012	3948
68	0	0	2046	1074	3013	3949
69	0	0	2036	1073	3014	3950
70	0	0	2018	1072	3015	3951
71	0	0	1999	1073	3016	3952
72	0	0	2000	1072	3018	3953
73	0	0	1993	1072	3016	3955
74	0	0	2005	1072	3014	3956
75	0	0	2029	1070	3011	3957
76	0	0	2003	1067	3010	3958
77	0	0	1962	1067	3012	3959
78	0	0	1942	1068	3013	3961
79	0	0	1931	1069	3014	3961
80	0	0	1920	1070	3015	3962
81	0	0	1926	1070	3018	3962
82	0	0	1960	1071	3018	3963
83	0	0	1989	1071	3016	3965
84	0	0	2004	1072	3014	3965
85	0	0	2024	1073	3011	3966
86	0	0	2051	1073	3012	3966
87	0	0	2071	1073	3012	3967
88	0	0	2057	1074	3013	3969
89	0	0	2030	1071	3014	3968
90	0	0	2012	1072	3015	3969
91	0	0	2007	1072	3018	3967
92	0	0	2011	1072	3017	3971
93	0	0	2012	1072	3016	3971
94	0	0	2007	1072	3015	3975
95	0	0	1987	1068	3012	3972
96	0	0	1952	1068	3010	3972
97	0	0	1941	1069	3011	3973
98	0	0	1970	1070	3013	3974
99	0	0	2018	1070	3014	3973
100	0	0	2037	1072	3016	3975
101	0	0	2032	1071	3016	3972
102	0	0	2022	1072	3017	3977
103	0	0	2020	1073	3017	3977
104	0	0	2018	1073	3014	3975
105	0	0	1998	1072	3012	3977
106	0	0	1990	1074	3011	3976
107	0	0	2000	1074	3011	3977
108	0	0	2010	1074	3014	3977
109	0	0	2036	1074	3014	3977
110	0	0	2065	1074	3015	3977
111	0	0	2066	1073	3017	3978
112	0	0	2027	1070	3016	3979
113	0	0	1986	1070	3017	3978
114	0	0	1966	1071	3014	3978
115	0	0	1977	1072	3011	3979
116	0	0	2004	1071	3011	3979
117	0	0	2018	1071	3011	3980
118	0	0	2026	1071	3011	3981
119	0	0	2027	1071	3015	3981
120	0	0	2016	1071	3015	3980
121	0	0	2003	1070	3016	3980
122	0	0	1992	1072	3017	3984
123	0	0	1994	1073	3017	3982
124	0	0	2011	1074	3014	3981
125	0	0	2017	1075	3011	3981
126	0	0	2014	1072	3011	3981
127	0	0	2003	1075	3011	3982
0	0	0	2022	1074	3013	3983
1	0	0	2048	1074	3014	3982
2	0	0	2051	1074	3015	3983
3	0	0	2055	1075	3018	3983
4	0	0	2056	1074	3017	3984
5	0	0	2050	1074	3017	3984
6	0	0	2039	1073	3014	3979
7	0	0	2054	1072	3010	3984
8	0	0	2054	1072	3011	3983
9	0	0	2051	1071	3010	3984
10	0	0	2040	1070	3013	3985
11	0	0	2003	1068	3014	3983
12	0	0	1970	1070	3015	3984
13	0	0	1966	1072	3017	3984
14	0	0	1979	1073	3016	3985
15	0	0	1993	1073	3017	3985
16	0	0	1975	1073	3014	3984
17	0	0	1995	1075	3011	3984
18	0	0	2030	1075	3011	3985
19	0	0	2039	1075	3012	3986
20	0	0	2025	1075	3013	3986
21	0	0	2031	1075	3015	3987
22	0	0	2045	1074	3015	3985
23	0	0	2049	1074	3016	3985
24	0	0	2043	1074	3017	3988
25	0	0	2039	1073	3016	3986
26	0	0	2039	1075	3014	3986
27	0	0	2040	1072	3011	3986
28	0	0	2024	1069	3009	3987
29	0	0	1989	1069	3010	3986
30	0	0	1971	1070	3013	3987
31	0	0	1960	1069	3013	3986
32	0	0	1948	1072	3015	3987
33	0	0	1975	1072	3015	3987
34	0	0	2027	1074	3016	3988
35	0	0	2073	1074	3015	3986
36	0	0	2091	1074	3014	3987
37	0	0	2077	1072	3011	3988
38	0	0	2065	1076	3011	3987
39	0	0	2060	1075	3011	3988
40	0	0	2044	1074	3013	3989
41	0	0	2034	1076	3014	3987
42	0	0	2046	1075	3016	3987
43	0	0	2066	1075	3016	3987
44	0	0	2093	1075	3016	3985
45	0	0	2074	1071	3015	3988
46	0	0	2022	1070	3014	3988
47	0	0	1981	1067	3012	3985
48	0	0	1955	1070	3011	3989
49	0	0	1938	1069	3011	3989
50	0	0	1939	1072	3012	3988
51	0	0	1983	1071	3013	3988
52	0	0	2033	1072	3016	3989
53	0	0	2057	1074	3017	3990
54	0	0	2065	1073	3017	3990
55	0	0	2059	1073	3017	3987
56	0	0	2032	1072	3014	3989
57	0	0	2006	1073	3012	3987
58	0	0	1989	1073	3011	3988
59	0	0	1978	1074	3011	3988
60	0	0	1982	1075	3011	3990
61	0	0	2023	1077	3014	3990
62	0	0	2073	1075	3016	3990
63	0	0	2083	1074	3016	3990
64	0	0	2057	1073	3016	3988
65	0	0	2062	1073	3015	3988
66	0	0	2078	1073	3014	3989
67	0	0	2067	1071	3012	3991
68	0	0	2048	1071	3011	3988
69	0	0	2032	1072	3011	3991
70	0	0	2023	1071	3011	3991
71	0	0	2003	1071	3013	3991
72	0	0	1997	1071	3016	3987
73	0	0	2011	1074	3015	3990
74	0	0	2044	1074	3017	3988
75	0	0	2059	1074	3016	3990
76	0	0	2046	1073	3014	3990
77	0	0	2029	1072	3012	3988
78	0	0	2028	1076	3011	3992
79	0	0	2030	1076	3011	3990
80	0	0	2026	1075	3012	3991
81	0	0	2028	1075	3014	3991
82	0	0	2032	1073	3016	3988
83	0	0	2033	1074	3017	3992
84	0	0	2031	1074	3017	3990
85	0	0	2027	1073	3015	3991
86	0	0	2019	1073	3015	3992
87	0	0	2016	1076	3011	3991
88	0	0	2025	1073	3009	3991
89	0	0	2035	1072	3011	3992
90	0	0	2032	1072	3013	3993
91	0	0	2033	1071	3013	3991
92	0	0	2048	1073	3016	3991
93	0	0	2046	1073	3016	3992
94	0	0	2036	1073	3017	3993
95	0	0	2028	1073	3015	3992
96	0	0	2040	1076	3014	3992
97	0	0	2060	1073	3012	3992
98	0	0	2064	1074	3011	3993
99	0	0	2065	1075	3011	3992
100	0	0	2049	1075	3012	3992
101	0	0	2039	1076	3014	3992
102	0	0	2037	1073	3016	3992
103	0	0	2052	1074	3017	3994
104	0	0	2066	1074	3017	3991
105	0	0	2032	1071	3015	3992
106	0	0	1999	1070	3014	3992
107	0	0	2005	1072	3011	3993
108	0	0	2038	1073	3011	3993
109	0	0	2062	1072	3011	3992
110	0	0	2070	1073	3012	3992
111	0	0	2059	1071	3013	3993
112	0	0	2051	1073	3015	3992
113	0	0	2049	1073	3016	3992
114	0	0	2049	1074	3017	3991
115	0	0	2033	1073	3016	3993
116	0	0	2020	1074	3014	3992
117	0	0	2025	1074	3011	3992
118	0	0	2027	1074	3011	3993
119	0	0	2021	1076	3012	3994
120	0	0	2022	1076	3012	3993
121	0	0	2021	1075	3015	3994
122	0	0	2019	1074	3016	3992
123	0	0	2024	1075	3016	3993
124	0	0	2034	1075	3017	3994
125	0	0	2033	1074	3015	3992
126	0	0	2043	1073	3015	3994
127	0	0	2082	1075	3011	3991
0	0	0	2079	1071	3011	3993
1	0	0	2057	1071	3012	3995
2	0	0	2060	1072	3011	3993
3	0	0	2069	1073	3013	3995
4	0	0	2074	1071	3016	3993
5	0	0	2049	1070	3016	3994
6	0	0	2010	1071	3017	3995
7	0	0	1989	1074	3016	3993
8	0	0	1995	1075	3014	3993
9	0	0	1993	1073	3012	3993
10	0	0	1980	1076	3011	3995
11	0	0	1990	1076	3011	3995
12	0	0	2019	1076	3011	3993
13	0	0	2061	1076	3015	3996
14	0	0	2098	1077	3015	3993
15	0	0	2110	1075	3015	3993
16	0	0	2104	1075	3017	3993
17	0	0	2098	1074	3015	3993
18	0	0	2088	1073	3014	3993
19	0	0	2077	1071	3012	3993
20	0	0	2048	1070	3011	3992
21	0	0	2040	1073	3011	3995
22	0	0	2065	1072	3012	3993
23	0	0	2090	1072	3011	3994
24	0	0	2083	1072	3015	3993
25	0	0	2059	1070	3016	3994
26	0	0	2035	1071	3017	3993
27	0	0	2015	1073	3017	3995
28	0	0	2005	1075	3014	3994
29	0	0	2008	1074	3012	3995
30	0	0	2002	1076	3011	3995
31	0	0	2009	1076	3011	3995
32	0	0	2025	1076	3012	3994
33	0	0	2048	1076	3013	3995
34	0	0	2080	1074	3016	3994
35	0	0	2096	1075	3015	3995
36	0	0	2090	1074	3017	3995
37	0	0	2084	1073	3015	3993
38	0	0	2057	1071	3014	3994
39	0	0	2037	1072	3011	3994
40	0	0	2025	1072	3010	3995
41	0	0	2014	1072	3011	3996
42	0	0	2042	1072	3011	3995
43	0	0	2091	1072	3013	3994
44	0	0	2097	1071	3016	3994
45	0	0	2076	1071	3017	3993
46	0	0	2066	1073	3018	3995
47	0	0	2057	1075	3017	3996
48	0	0	2072	1074	3014	3995
49	0	0	2085	1075	3011	3996
50	0	0	2099	1078	3011	3995
51	0	0	2101	1076	3011	3995
52	0	0	2079	1073	3011	3994
53	0	0	2060	1076	3013	3995
54	0	0	2068	1076	3015	3995
55	0	0	2088	1076	3017	3995
56	0	0	2096	1074	3016	3995
57	0	0	2079	1072	3015	3996
58	0	0	2056	1072	3014	3995
59	0	0	2038	1071	3011	3995
60	0	0	2039	1074	3010	3995
61	0	0	2066	1072	3012	3998
62	0	0	2100	1072	3011	4000
63	0	0	2116	1073	3014	3996
64	0	0	2139	1072	3016	3995
65	0	0	2177	1075	3017	3996
66	0	0	2189	1074	3017	3995
67	0	0	2169	1072	3016	3996
68	0	0	2129	1071	3014	3995
69	0	0	2100	1073	3011	3995
70	0	0	2100	1076	3011	3995
71	0	0	2114	1076	3011	3996
72	0	0	2131	1076	3011	3996
73	0	0	2135	1075	3013	3996
74	0	0	2139	1074	3015	3995
75	0	0	2130	1076	3016	3995
76	0	0	2110	1072	3017	3997
77	0	0	2084	1072	3016	3995
78	0	0	2077	1074	3015	3996
79	0	0	2099	1072	3011	3996
80	0	0	2143	1073	3011	3996
81	0	0	2156	1072	3011	3994
82	0	0	2129	1069	3011	3996
83	0	0	2095	1069	3014	3995
84	0	0	2064	1068	3015	3995
85	0	0	2033	1072	3017	3995
86	0	0	2042	1073	3016	3994
87	0	0	2067	1073	3016	3998
88	0	0	2072	1074	3014	3995
89	0	0	2044	1071	3011	3995
90	0	0	2036	1076	3011	3995
91	0	0	2056	1076	3011	3996
92	0	0	2101	1076	3013	3996
93	0	0	2141	1076	3014	3996
94	0	0	2161	1075	3015	3998
95	0	0	2148	1072	3017	4000
96	0	0	2102	1072	3017	3993
97	0	0	2039	1071	3016	3997
98	0	0	2016	1073	3015	3993
99	0	0	2024	1072	3011	3995
100	0	0	2036	1073	3011	3995
101	0	0	2049	1072	3010	3996
102	0	0	2059	1071	3012	3996
103	0	0	2056	1072	3014	3996
104	0	0	2054	1073	3015	3996
105	0	0	2064	1072	3016	3995
106	0	0	2078	1074	3017	3994
107	0	0	2076	1074	3017	3996
108	0	0	2053	1071	3014	3996
109	0	0	2040	1074	3012	3999
110	0	0	2033	1076	3011	3997
111	0	0	2041	1074	3011	3996
112	0	0	2065	1075	3012	3997
113	0	0	2092	1076	3013	3996
114	0	0	2115	1076	3015	3996
115	0	0	2113	1074	3016	3996
116	0	0	2082	1073	3017	3996
117	0	0	2064	1074	3016	3996
118	0	0	2067	1074	3014	3996
119	0	0	2073	1072	3011	3996
120	0	0	2050	1070	3010	3995
121	0	0	2012	1069	3011	3996
122	0	0	1998	1071	3012	3997
123	0	0	2001	1072	3014	3997
124	0	0	2014	1073	3016	3996
125	0	0	2031	1071	3016	3996
126	0	0	2050	1073	3019	3996
127	0	0	2078	1073	3016	3996
0	0	0	2096	1075	3015	3996
1	0	0	2089	1075	3010	3997
2	0	0	2082	1076	3010	3997
3	0	0	2085	1075	3011	3997
4	0	0	2079	1076	3013	3996
5	0	0	2082	1075	3013	3995
6	0	0	2099	1074	3015	3996
7	0	0	2106	1074	3016	4000
8	0	0	2096	1072	3017	3996
9	0	0	2053	1070	3016	3996
10	0	0	2002	1070	3014	3996
11	0	0	1991	1073	3011	3996
12	0	0	2002	1073	3011	3998
13	0	0	2040	1071	3011	3996
14	0	0	2086	1071	3013	3998
15	0	0	2109	1072	3013	3995
16	0	0	2107	1072	3015	3999
17	0	0	2098	1071	3017	3995
18	0	0	2097	1073	3017	3996
19	0	0	2107	1073	3017	3996
20	0	0	2108	1075	3014	3996
21	0	0	2088	1073	3011	3996
22	0	0	2083	1073	3011	3996
23	0	0	2092	1076	3013	3996
24	0	0	2099	1077	3013	3996
25	0	0	2097	1075	3013	3996
26	0	0	2100	1075	3015	3996
27	0	0	2119	1071	3016	3996
28	0	0	2129	1074	3018	3997
29	0	0	2126	1073	3017	3999
30	0	0	2112	1072	3015	3998
31	0	0	2101	1072	3010	3996
32	0	0	2111	1069	3011	3996
33	0	0	2136	1072	3011	3997
34	0	0	2147	1071	3012	3997
35	0	0	2138	1072	3013	3996
36	0	0	2131	1074	3015	3996
37	0	0	2141	1072	3016	3996
38	0	0	2147	1073	3017	3999
39	0	0	2143	1074	3017	3996
40	0	0	2137	1074	3014	3997
41	0	0	2142	1076	3011	3996
42	0	0	2168	1074	3010	4000
43	0	0	2185	1074	3012	3996
44	0	0	2191	1076	3012	3998
45	0	0	2206	1075	3014	3996
46	0	0	2223	1077	3015	3996
47	0	0	2234	1075	3016	4000
48	0	0	2262	1076	3017	3999
49	0	0	2301	1075	3015	3996
50	0	0	2318	1073	3014	3996
51	0	0	2325	1074	3011	3996
52	0	0	2331	1071	3010	3996
53	0	0	2339	1072	3010	3998
54	0	0	2347	1071	3012	3999
55	0	0	2336	1072	3015	3996
56	0	0	2321	1073	3015	3997
57	0	0	2319	1072	3016	4000
58	0	0	2328	1073	3017	3999
59	0	0	2335	1074	3015	3996
60	0	0	2318	1072	3014	3997
61	0	0	2273	1072	3011	3997
62	0	0	2231	1069	3011	3997
63	0	0	2199	1073	3011	3998
64	0	0	2147	1071	3013	3996
65	0	0	2103	1073	3014	3998
66	0	0	2083	1074	3014	3997
67	0	0	2081	1072	3016	3997
68	0	0	2093	1075	3017	3998
69	0	0	2087	1074	3016	3998
70	0	0	2070	1073	3015	3998
71	0	0	2062	1072	3011	3998
72	0	0	2062	1070	3010	3997
73	0	0	2053	1072	3012	3997
74	0	0	2027	1069	3011	3996
75	0	0	1995	1069	3015	3997
76	0	0	1992	1073	3015	3996
77	0	0	2027	1071	3015	3996
78	0	0	2045	1073	3017	3997
79	0	0	2054	1074	3016	3998
80	0	0	2048	1073	3014	3997
81	0	0	2023	1072	3012	3996
82	0	0	2021	1076	3011	3999
83	0	0	2037	1076	3011	3996
84	0	0	2051	1075	3012	3997
85	0	0	2057	1075	3015	3998
86	0	0	2047	1075	3015	3997
87	0	0	2025	1069	3015	3997
88	0	0	1997	1073	3017	3997
89	0	0	1999	1073	3016	3999
90	0	0	2017	1073	3016	3997
91	0	0	2017	1072	3010	3996
92	0	0	1997	1069	3010	3999
93	0	0	1989	1072	3010	3999
94	0	0	2012	1072	3011	3998
95	0	0	2028	1072	3013	3996
96	0	0	2033	1073	3016	3995
97	0	0	2039	1071	3016	3998
98	0	0	2046	1074	3017	3999
99	0	0	2053	1073	3016	3999
100	0	0	2053	1074	3015	3997
101	0	0	2057	1074	3012	3998
102	0	0	2072	1075	3011	3999
103	0	0	2074	1077	3011	3998
104	0	0	2074	1076	3013	3999
105	0	0	2081	1071	3014	3997
106	0	0	2084	1075	3015	3996
107	0	0	2064	1073	3015	3997
108	0	0	2057	1075	3017	3999
109	0	0	2067	1073	3015	3999
110	0	0	2085	1073	3014	3997
111	0	0	2103	1072	3011	3997
112	0	0	2094	1067	3010	3998
113	0	0	2057	1069	3012	3998
114	0	0	2037	1072	3011	3999
115	0	0	2040	1072	3013	3997
116	0	0	2052	1072	3015	3995
117	0	0	2070	1073	3016	3999
118	0	0	2079	1073	3016	4000
119	0	0	2064	1072	3017	3998
120	0	0	2039	1071	3015	3997
121	0	0	2037	1075	3012	3994
122	0	0	2061	1075	3011	3997
123	0	0	2067	1075	3011	3996
124	0	0	2026	1072	3012	3999
125	0	0	2014	1075	3015	3998
126	0	0	2017	1075	3015	3999
127	0	0	2044	1075	3016	3999
0	0	0	2075	1075	3017	3997
1	0	0	2084	1074	3016	3999
2	0	0	2072	1071	3014	3998
3	0	0	2055	1072	3012	3999
4	0	0	2058	1071	3011	3998
5	0	0	2064	1071	3011	3999
6	0	0	2052	1071	3012	3998
7	0	0	2033	1071	3013	3997
8	0	0	2034	1073	3015	3994
9	0	0	2036	1072	3016	4000
10	0	0	2030	1074	3017	3997
11	0	0	2020	1073	3016	4000
12	0	0	2026	1073	3014	3997
13	0	0	2045	1074	3011	3997
14	0	0	2065	1074	3010	4000
15	0	0	2087	1074	3012	3996
16	0	0	2103	1075	3012	4000
17	0	0	2102	1077	3013	3998
18	0	0	2102	1075	3014	3997
19	0	0	2069	1069	3016	3998
20	0	0	2039	1072	3017	3998
21	0	0	2015	1072	3016	3999
22	0	0	2016	1074	3015	3999
23	0	0	2022	1072	3010	3998
24	0	0	2017	1071	3009	4000
25	0	0	2019	1073	3011	3998
26	0	0	2028	1071	3013	3996
27	0	0	2027	1071	3013	3998
28	0	0	2010	1070	3016	3997
29	0	0	1991	1072	3016	3999
30	0	0	1992	1073	3017	3996
31	0	0	1995	1074	3016	4000
32	0	0	1993	1075	3014	3997
33	0	0	2011	1074	3012	4000
34	0	0	2024	1075	3011	3999
35	0	0	2029	1075	3011	3997
36	0	0	2022	1075	3012	3997
37	0	0	2021	1075	3013	3998
38	0	0	2036	1075	3016	3999
39	0	0	2044	1075	3017	3999
40	0	0	2050	1074	3017	3999
41	0	0	2045	1073	3016	3996
42	0	0	2025	1070	3015	3999
43	0	0	2025	1074	3012	4000
44	0	0	2036	1072	3010	3998
45	0	0	2046	1070	3011	3998
46	0	0	2049	1072	3011	3996
47	0	0	2054	1072	3013	3998
48	0	0	2060	1071	3015	4000
49	0	0	2076	1073	3017	3997
50	0	0	2093	1073	3017	3998
51	0	0	2100	1073	3016	3998
52	0	0	2111	1074	3015	3999
53	0	0	2134	1074	3012	3998
54	0	0	2153	1074	3011	3998
55	0	0	2149	1075	3012	3999
56	0	0	2123	1072	3012	3996
57	0	0	2094	1071	3013	3998
58	0	0	2065	1072	3016	3997
59	0	0	2056	1074	3017	3999
60	0	0	2080	1074	3017	3999
61	0	0	2099	1072	3016	3996
62	0	0	2103	1073	3014	3998
63	0	0	2093	1072	3011	3999
64	0	0	2078	1072	3010	3999
65	0	0	2067	1072	3011	3998
66	0	0	2066	1072	3012	3996
67	0	0	2056	1071	3013	3998
68	0	0	2042	1071	3015	4000
69	0	0	2029	1071	3017	3998
70	0	0	2029	1073	3017	3996
71	0	0	2051	1074	3016	4000
72	0	0	2060	1075	3015	3999
73	0	0	2063	1076	3012	3998
74	0	0	2074	1072	3010	3998
75	0	0	2069	1075	3011	3999
76	0	0	2071	1075	3012	3996
77	0	0	2080	1075	3014	3998
78	0	0	2073	1074	3015	4000
79	0	0	2073	1074	3017	3998
80	0	0	2073	1074	3017	3998
81	0	0	2082	1074	3016	3997
82	0	0	2098	1073	3014	3998
83	0	0	2099	1072	3011	3999
84	0	0	2080	1069	3011	3999
85	0	0	2054	1071	3011	3999
86	0	0	2053	1072	3011	3996
87	0	0	2076	1070	3014	3998
88	0	0	2117	1072	3015	3999
89	0	0	2150	1071	3017	3998
90	0	0	2171	1073	3016	3999
91	0	0	2171	1071	3016	3998
92	0	0	2124	1070	3014	3998
93	0	0	2060	1072	3012	3998
94	0	0	2033	1074	3011	3997
95	0	0	2058	1075	3011	3999
96	0	0	2098	1075	3012	3998
97	0	0	2117	1074	3013	3998
98	0	0	2114	1075	3015	3998
99	0	0	2106	1072	3017	3996
100	0	0	2102	1074	3017	3997
101	0	0	2095	1073	3017	3999
102	0	0	2102	1075	3015	4000
103	0	0	2100	1072	3012	3999
104	0	0	2072	1070	3011	3999
105	0	0	2042	1069	3011	3999
106	0	0	2023	1070	3011	3999
107	0	0	2015	1071	3013	3998
108	0	0	2023	1072	3015	4000
109	0	0	2035	1073	3017	3999
110	0	0	2052	1071	3016	3999
111	0	0	2066	1072	3016	3995
112	0	0	2078	1074	3014	3999
113	0	0	2093	1074	3012	3998
114	0	0	2107	1074	3011	3996
115	0	0	2117	1075	3011	3998
116	0	0	2125	1075	3011	3999
117	0	0	2132	1074	3013	3998
118	0	0	2133	1075	3015	3998
119	0	0	2132	1071	3017	3996
120	0	0	2141	1074	3017	3998
121	0	0	2152	1074	3017	3998
122	0	0	2147	1071	3014	3998
123	0	0	2112	1070	3011	3998
124	0	0	2062	1067	3011	3996
125	0	0	2041	1071	3011	3998
126	0	0	2062	1071	3011	3996
127	0	0	2080	1071	3012	3997
0	0	0	2088	1072	3015	3998
1	0	0	2106	1072	3017	3996
2	0	0	2133	1072	3017	3998
3	0	0	2154	1074	3016	3998
4	0	0	2172	1073	3014	3999
5	0	0	2191	1074	3011	3999
6	0	0	2220	1074	3011	3999
7	0	0	2234	1071	3011	3999
8	0	0	2240	1075	3013	3999
9	0	0	2257	1074	3013	3998
10	0	0	2288	1073	3015	3998
11	0	0	2249	1071	3016	3999
12	0	0	2196	1070	3017	3998
13	0	0	2148	1067	3016	3996
14	0	0	2124	1072	3015	4000
15	0	0	2133	1072	3012	3998
16	0	0	2134	1071	3011	3999
17	0	0	2124	1071	3011	4000
18	0	0	2111	1071	3011	3998
19	0	0	2101	1069	3014	4000
20	0	0	2108	1068	3015	3998
21	0	0	2134	1070	3017	4000
22	0	0	2179	1072	3017	4000
23	0	0	2205	1073	3016	3999
24	0	0	2198	1072	3015	4000
25	0	0	2198	1076	3012	4000
26	0	0	2185	1073	3011	3999
27	0	0	2169	1075	3011	4001
28	0	0	2163	1074	3012	3999
29	0	0	2170	1073	3015	4000
30	0	0	2175	1076	3015	3997
31	0	0	2168	1075	3016	3999
32	0	0	2160	1074	3017	4000
33	0	0	2173	1073	3016	3998
34	0	0	2203	1070	3015	4000
35	0	0	2220	1072	3012	3998
36	0	0	2206	1069	3010	3999
37	0	0	2174	1068	3012	4000
38	0	0	2163	1071	3011	3999
39	0	0	2172	1071	3014	4000
40	0	0	2174	1073	3015	3997
41	0	0	2176	1073	3016	3999
42	0	0	2187	1071	3017	3998
43	0	0	2187	1072	3015	3998
44	0	0	2187	1072	3014	3996
45	0	0	2201	1074	3011	4000
46	0	0	2192	1071	3010	4000
47	0	0	2173	1075	3012	4000
48	0	0	2194	1075	3012	3999
49	0	0	2223	1074	3013	3998
50	0	0	2236	1073	3015	3999
51	0	0	2208	1070	3017	4000
52	0	0	2180	1073	3017	3999
53	0	0	2173	1073	3017	4000
54	0	0	2159	1072	3014	3998
55	0	0	2159	1071	3011	3998
56	0	0	2165	1072	3010	4000
57	0	0	2165	1071	3011	3998
58	0	0	2176	1070	3011	3999
59	0	0	2183	1070	3013	3999
60	0	0	2156	1066	3014	3998
61	0	0	2128	1071	3016	3999
62	0	0	2143	1072	3017	4000
63	0	0	2160	1073	3016	3995
64	0	0	2161	1073	3014	3999
65	0	0	2152	1072	3011	3998
66	0	0	2135	1072	3011	3999
67	0	0	2127	1074	3012	4000
68	0	0	2122	1074	3012	3999
69	0	0	2140	1075	3015	4000
70	0	0	2157	1071	3014	4000
71	0	0	2185	1073	3016	4000
72	0	0	2198	1072	3017	4000
73	0	0	2167	1069	3016	4000
74	0	0	2114	1070	3015	3999
75	0	0	2092	1072	3011	3999
76	0	0	2104	1070	3010	4000
77	0	0	2119	1071	3011	4000
78	0	0	2128	1068	3011	4000
79	0	0	2119	1070	3013	3998
80	0	0	2127	1069	3015	3998
81	0	0	2139	1072	3016	3999
82	0	0	2150	1072	3017	4000
83	0	0	2179	1071	3016	4000
84	0	0	2204	1072	3014	3999
85	0	0	2190	1070	3012	4000
86	0	0	2143	1070	3011	4000
87	0	0	2107	1072	3011	3999
88	0	0	2084	1071	3012	4000
89	0	0	2072	1073	3013	3998
90	0	0	2078	1071	3015	3999
91	0	0	2079	1072	3016	4000
92	0	0	2080	1073	3017	3998
93	0	0	2077	1072	3016	4000
94	0	0	2063	1069	3014	3998
95	0	0	2044	1067	3011	3999
96	0	0	2026	1069	3010	4000
97	0	0	2022	1071	3011	4000
98	0	0	2019	1069	3011	4000
99	0	0	1995	1070	3014	4000
100	0	0	1999	1072	3015	3999
101	0	0	2024	1072	3017	4000
102	0	0	2042	1071	3017	4000
103	0	0	2037	1072	3016	3997
104	0	0	2044	1072	3015	3999
105	0	0	2049	1074	3012	3999
106	0	0	2039	1073	3011	4000
107	0	0	2024	1072	3011	4000
108	0	0	2005	1072	3012	4000
109	0	0	2006	1071	3013	3999
110	0	0	1982	1071	3015	3999
111	0	0	1955	1068	3016	4000
112	0	0	1950	1073	3017	3999
113	0	0	1968	1072	3015	4000
114	0	0	1989	1073	3015	4000
115	0	0	2003	1070	3012	3997
116	0	0	2022	1070	3011	3999
117	0	0	2041	1070	3011	4000
118	0	0	2032	1069	3010	4000
119	0	0	2004	1068	3013	3999
120	0	0	1996	1072	3015	3999
121	0	0	1994	1069	3016	3998
122	0	0	1985	1072	3017	3999
123	0	0	1978	1071	3016	4000
124	0	0	1973	1072	3014	3998
125	0	0	1968	1072	3012	3999
126	0	0	1965	1072	3010	4000
127	0	0	1966	1074	3011	3999
0	0	0	1984	1075	3011	3999
1	0	0	1996	1073	3013	3999
2	0	0	1997	1073	3016	4000
3	0	0	1992	1073	3017	4000
4	0	0	1986	1072	3017	4000
5	0	0	1989	1072	3017	4001
6	0	0	1999	1071	3014	3999
7	0	0	2008	1070	3011	4000
8	0	0	2003	1071	3009	4000
9	0	0	1982	1068	3011	3999
10	0	0	1971	1070	3011	3999
11	0	0	1973	1071	3014	4001
12	0	0	1992	1071	3015	3999
13	0	0	2007	1072	3016	3998
14	0	0	2027	1070	3017	3999
15	0	0	2059	1072	3016	4000
16	0	0	2088	1072	3014	3998
17	0	0	2084	1071	3013	3999
18	0	0	2037	1070	3011	4001
19	0	0	1982	1070	3011	4000
20	0	0	1940	1070	3012	3999
21	0	0	1932	1073	3014	4000
22	0	0	1958	1072	3014	4000
23	0	0	1994	1073	3015	3999
24	0	0	2024	1071	3017	4000
25	0	0	2040	1072	3016	4000
26	0	0	2023	1069	3014	3998
27	0	0	1988	1067	3012	3996
28	0	0	1977	1070	3010	3998
29	0	0	1998	1069	3010	3999
30	0	0	2020	1069	3011	3999
31	0	0	2016	1068	3013	3995
32	0	0	1998	1067	3015	3999
33	0	0	1978	1070	3016	3998
34	0	0	1973	1070	3017	4000
35	0	0	1977	1071	3017	4000
36	0	0	1998	1071	3014	3999
37	0	0	2021	1072	3012	3998
38	0	0	2008	1070	3011	4000
39	0	0	1982	1074	3011	3999
40	0	0	1991	1073	3012	3999
41	0	0	2011	1073	3014	3999
42	0	0	2011	1074	3015	3999
43	0	0	1993	1071	3015	3999
44	0	0	1970	1068	3017	3999
45	0	0	1958	1072	3016	3999
46	0	0	1960	1071	3014	3998
47	0	0	1978	1069	3012	3999
48	0	0	2008	1071	3009	3999
49	0	0	2015	1069	3011	4000
50	0	0	2004	1067	3011	4001
51	0	0	1975	1067	3013	3998
52	0	0	1949	1067	3015	3999
53	0	0	1937	1070	3016	3999
54	0	0	1939	1070	3017	4000
55	0	0	1962	1071	3015	4004
56	0	0	2003	1071	3015	3999
57	0	0	2042	1072	3012	3999
58	0	0	2073	1073	3010	3998
59	0	0	2082	1072	3011	4000
60	0	0	2090	1072	3011	3999
61	0	0	2102	1072	3012	4002
62	0	0	2111	1072	3015	3999
63	0	0	2109	1072	3016	3998
64	0	0	2102	1070	3017	4000
65	0	0	2080	1069	3016	3999
66	0	0	2058	1068	3014	3999
67	0	0	2030	1069	3011	3999
68	0	0	2013	1069	3010	3998
69	0	0	1994	1066	3011	4001
70	0	0	1986	1063	3012	4002
71	0	0	1983	1069	3013	3995
72	0	0	1983	1068	3015	3999
73	0	0	1996	1070	3016	3998
74	0	0	2006	1070	3017	4000
75	0	0	1986	1069	3016	3999
76	0	0	1984	1071	3016	3999
77	0	0	1970	1071	3011	4000
78	0	0	1968	1073	3009	3999
79	0	0	1983	1072	3012	4000
80	0	0	2012	1072	3011	3999
81	0	0	2049	1071	3014	4000
82	0	0	2074	1075	3015	3997
83	0	0	2074	1072	3015	3999
84	0	0	2051	1070	3017	4000
85	0	0	2031	1069	3016	3999
86	0	0	2014	1070	3015	4000
87	0	0	2021	1069	3012	4002
88	0	0	2049	1069	3010	3999
89	0	0	2075	1070	3011	4000
90	0	0	2058	1066	3011	3999
91	0	0	2021	1067	3014	3999
92	0	0	1992	1067	3015	4001
93	0	0	1990	1069	3015	3999
94	0	0	1993	1070	3017	4000
95	0	0	2007	1071	3016	3999
96	0	0	2023	1071	3015	4000
97	0	0	2023	1072	3013	3999
98	0	0	2023	1072	3010	3999
99	0	0	2035	1071	3011	3999
100	0	0	2036	1072	3011	4002
101	0	0	2014	1068	3015	3999
102	0	0	1993	1070	3015	4000
103	0	0	1998	1071	3016	4001
104	0	0	2016	1070	3017	4000
105	0	0	2019	1071	3017	4000
106	0	0	2017	1069	3014	3999
107	0	0	2027	1069	3011	4000
108	0	0	2024	1068	3010	3999
109	0	0	2004	1067	3012	4001
110	0	0	1991	1069	3011	3999
111	0	0	2016	1069	3014	4002
112	0	0	2050	1069	3015	4001
113	0	0	2061	1071	3016	4001
114	0	0	2034	1068	3017	4000
115	0	0	2006	1068	3016	3999
116	0	0	1996	1069	3015	3998
117	0	0	1995	1070	3011	3999
118	0	0	1975	1071	3011	4000
119	0	0	1975	1074	3011	3999
120	0	0	1993	1072	3011	3999
121	0	0	2022	1070	3014	3999
122	0	0	2070	1072	3015	4001
123	0	0	2106	1071	3017	4000
124	0	0	2100	1071	3017	4000
125	0	0	2092	1071	3016	3999
126	0	0	2094	1067	3015	3999
127	0	0	2080	1067	3012	4001
0	0	0	2051	1067	3011	4000
1	0	0	2034	1071	3011	4000
2	0	0	2038	1069	3011	3999
3	0	0	2045	1070	3014	4000
4	0	0	2061	1069	3015	3997
5	0	0	2066	1069	3016	3997
6	0	0	2044	1069	3017	4000
7	0	0	2039	1070	3016	3999
8	0	0	2039	1068	3015	3998
9	0	0	2045	1071	3012	4001
10	0	0	2050	1072	3011	4000
11	0	0	2065	1073	3011	4000
12	0	0	2077	1072	3011	3998
13	0	0	2075	1071	3014	4000
14	0	0	2074	1071	3015	3997
15	0	0	2050	1068	3016	3999
16	0	0	2036	1074	3017	4000
17	0	0	2050	1070	3016	3999
18	0	0	2063	1069	3015	3999
19	0	0	2079	1069	3011	4000
20	0	0	2060	1067	3011	4000
21	0	0	2024	1067	3011	4001
22	0	0	2002	1066	3011	4000
23	0	0	1991	1066	3015	3999
24	0	0	1999	1069	3015	3998
25	0	0	2024	1070	3017	4000
26	0	0	2048	1072	3017	4001
27	0	0	2038	1068	3016	4000
28	0	0	2028	1068	3015	3999
29	0	0	2034	1072	3013	3998
30	0	0	2054	1072	3012	4000
31	0	0	2062	1074	3011	4001
32	0	0	2054	1071	3013	4000
33	0	0	2037	1072	3013	3999
34	0	0	2035	1072	3015	3999
35	0	0	2039	1071	3017	4000
36	0	0	2046	1071	3017	4001
37	0	0	2059	1070	3016	3999
38	0	0	2074	1070	3015	3999
39	0	0	2093	1070	3012	4000
40	0	0	2088	1067	3011	4000
41	0	0	2061	1067	3011	4000
42	0	0	2035	1066	3011	3999
43	0	0	2031	1067	3013	3999
44	0	0	2035	1066	3015	4001
45	0	0	2042	1069	3016	3997
46	0	0	2053	1069	3017	4000
47	0	0	2063	1070	3016	3999
48	0	0	2054	1066	3015	3999
49	0	0	2035	1070	3013	3999
50	0	0	2024	1069	3012	4000
51	0	0	2003	1070	3012	4000
52	0	0	2000	1071	3012	3999
53	0	0	2013	1071	3013	3999
54	0	0	2023	1072	3015	4000
55	0	0	2040	1071	3017	4001
56	0	0	2053	1072	3017	4000
57	0	0	2043	1068	3016	3999
58	0	0	2013	1065	3014	3999
59	0	0	1988	1067	3012	3999
60	0	0	1985	1068	3011	3998
61	0	0	2001	1070	3011	4001
62	0	0	2029	1068	3011	3999
63	0	0	2062	1067	3013	3999
64	0	0	2057	1069	3014	3999
65	0	0	2046	1068	3016	4000
66	0	0	2058	1068	3017	4000
67	0	0	2084	1069	3016	3998
68	0	0	2108	1069	3016	4001
69	0	0	2116	1071	3012	4000
70	0	0	2094	1070	3012	4000
71	0	0	2085	1071	3012	4000
72	0	0	2064	1069	3012	3999
73	0	0	2044	1071	3013	3999
74	0	0	2035	1072	3015	4000
75	0	0	2030	1071	3016	4000
76	0	0	2030	1072	3017	3999
77	0	0	2050	1071	3017	4000
78	0	0	2075	1069	3014	3999
79	0	0	2093	1069	3011	3999
80	0	0	2092	1068	3010	3999
81	0	0	2049	1064	3011	4000
82	0	0	2018	1067	3011	4000
83	0	0	2030	1068	3014	4000
84	0	0	2039	1068	3016	4000
85	0	0	2020	1066	3017	4000
86	0	0	2008	1069	3018	4002
87	0	0	2023	1069	3016	3999
88	0	0	2043	1071	3014	3999
89	0	0	2044	1072	3012	4000
90	0	0	2046	1071	3011	4000
91	0	0	2050	1070	3011	3999
92	0	0	2062	1071	3012	3999
93	0	0	2068	1071	3013	4000
94	0	0	2053	1068	3015	3999
95	0	0	2035	1070	3016	4000
96	0	0	2009	1069	3017	4000
97	0	0	1981	1067	3015	3999
98	0	0	1961	1067	3015	3999
99	0	0	1972	1068	3012	3998
100	0	0	1996	1067	3011	4001
101	0	0	1997	1068	3011	4000
102	0	0	2000	1067	3012	4002
103	0	0	2035	1068	3013	3999
104	0	0	2098	1066	3015	3999
105	0	0	2121	1067	3016	4000
106	0	0	2108	1066	3017	4000
107	0	0	2103	1068	3016	4000
108	0	0	2111	1069	3016	3999
109	0	0	2108	1069	3012	3998
110	0	0	2093	1071	3011	4000
111	0	0	2094	1071	3011	4000
112	0	0	2093	1071	3011	4000
113	0	0	2077	1070	3013	3999
114	0	0	2068	1071	3015	3999
115	0	0	2061	1070	3017	4000
116	0	0	2057	1070	3017	4000
117	0	0	2050	1069	3017	4001
118	0	0	2038	1068	3015	3999
119	0	0	2035	1068	3012	4000
120	0	0	2038	1068	3011	4000
121	0	0	2041	1068	3011	4001
122	0	0	2053	1067	3011	4000
123	0	0	2039	1066	3012	3999
124	0	0	2015	1064	3015	3998
125	0	0	2013	1069	3016	3999
126	0	0	2042	1068	3017	4003
127	0	0	2066	1071	3016	3999
0	0	0	2075	1069	3015	3999
1	0	0	2092	1068	3012	4000
2	0	0	2105	1071	3011	4000
3	0	0	2102	1071	3011	4000
4	0	0	2089	1070	3012	3999
5	0	0	2086	1070	3013	3998
6	0	0	2094	1070	3016	3999
7	0	0	2077	1067	3016	3999
8	0	0	2046	1068	3017	4000
9	0	0	2045	1069	3015	3999
10	0	0	2062	1068	3014	3999
11	0	0	2090	1067	3012	4000
12	0	0	2090	1065	3010	3999
13	0	0	2061	1063	3010	4003
14	0	0	2049	1067	3011	3999
15	0	0	2033	1066	3013	3999
16	0	0	2029	1066	3015	4000
17	0	0	2025	1068	3015	3999
18	0	0	2023	1068	3017	4000
19	0	0	2026	1068	3017	3999
20	0	0	2043	1069	3015	3999
21	0	0	2071	1069	3012	3999
22	0	0	2097	1070	3011	4000
23	0	0	2111	1071	3011	3999
24	0	0	2113	1070	3013	4001
25	0	0	2136	1070	3013	3999
26	0	0	2149	1070	3015	3999
27	0	0	2135	1069	3017	4000
28	0	0	2107	1067	3016	4000
29	0	0	2076	1066	3017	4001
30	0	0	2046	1065	3016	3998
31	0	0	2015	1065	3012	3999
32	0	0	2004	1067	3011	4001
33	0	0	2005	1069	3010	4000
34	0	0	2042	1067	3011	3999
35	0	0	2077	1066	3014	3999
36	0	0	2065	1064	3016	3999
37	0	0	2050	1066	3017	4000
38	0	0	2055	1067	3016	4000
39	0	0	2079	1070	3016	3999
40	0	0	2098	1069	3016	4000
41	0	0	2128	1070	3012	3999
42	0	0	2140	1070	3012	4000
43	0	0	2118	1068	3011	4000
44	0	0	2094	1068	3011	4000
45	0	0	2082	1070	3014	4000
46	0	0	2074	1070	3015	3999
47	0	0	2072	1070	3017	4001
48	0	0	2071	1067	3016	4000
49	0	0	2057	1066	3016	3998
50	0	0	2024	1065	3014	3999
51	0	0	2006	1066	3012	4000
52	0	0	1994	1066	3011	4001
53	0	0	1999	1063	3011	3999
54	0	0	2007	1067	3012	4000
55	0	0	2009	1067	3013	4000
56	0	0	2020	1065	3015	3999
57	0	0	2026	1067	3017	4000
58	0	0	2026	1067	3017	4000
59	0	0	2026	1069	3016	3999
60	0	0	2020	1068	3015	3999
61	0	0	2021	1070	3011	3999
62	0	0	2029	1069	3011	3999
63	0	0	2052	1067	3011	4001
64	0	0	2070	1071	3011	3999
65	0	0	2084	1069	3013	4000
66	0	0	2081	1068	3015	3999
67	0	0	2082	1069	3017	4000
68	0	0	2085	1069	3018	4000
69	0	0	2073	1068	3016	3999
70	0	0	2063	1068	3015	4000
71	0	0	2062	1068	3012	3997
72	0	0	2071	1067	3011	4000
73	0	0	2069	1067	3011	4000
74	0	0	2055	1064	3011	3999
75	0	0	2042	1067	3014	4000
76	0	0	2049	1067	3015	4000
77	0	0	2062	1066	3015	3999
78	0	0	2057	1065	3017	4001
79	0	0	2064	1067	3016	3999
80	0	0	2078	1068	3015	3999
81	0	0	2090	1067	3012	3999
82	0	0	2091	1069	3011	4000
83	0	0	2113	1067	3011	4000
84	0	0	2132	1070	3012	3999
85	0	0	2131	1069	3013	3999
86	0	0	2138	1069	3015	4000
87	0	0	2136	1068	3015	3999
88	0	0	2109	1064	3017	4000
89	0	0	2076	1065	3016	3999
90	0	0	2055	1067	3015	3999
91	0	0	2065	1067	3012	3999
92	0	0	2089	1066	3010	4000
93	0	0	2073	1061	3011	4000
94	0	0	2039	1063	3012	3999
95	0	0	2007	1064	3013	3999
96	0	0	2012	1067	3015	4000
97	0	0	2045	1068	3017	4000
98	0	0	2080	1068	3018	4000
99	0	0	2102	1068	3016	4000
100	0	0	2120	1069	3016	4001
101	0	0	2128	1069	3013	4001
102	0	0	2137	1065	3012	3999
103	0	0	2134	1065	3011	4000
104	0	0	2125	1070	3013	4000
105	0	0	2122	1071	3013	3999
106	0	0	2155	1069	3015	4000
107	0	0	2185	1069	3017	4000
108	0	0	2193	1067	3017	4000
109	0	0	2170	1065	3017	4001
110	0	0	2117	1064	3015	3999
111	0	0	2061	1063	3012	4000
112	0	0	2044	1066	3010	3999
113	0	0	2054	1064	3011	4000
114	0	0	2075	1066	3011	3998
115	0	0	2095	1066	3014	4000
116	0	0	2083	1063	3015	4000
117	0	0	2050	1064	3016	3999
118	0	0	2014	1063	3017	4000
119	0	0	1997	1065	3017	3999
120	0	0	1980	1066	3015	4000
121	0	0	1969	1069	3012	3999
122	0	0	1982	1069	3010	4000
123	0	0	2017	1069	3012	4001
124	0	0	2054	1069	3012	3999
125	0	0	2085	1069	3013	3999
126	0	0	2104	1069	3014	3999
127	0	0	2104	1068	3016	4000
0	0	0	2091	1066	3017	4000
1	0	0	2081	1068	3016	4000
2	0	0	2081	1067	3015	4000
3	0	0	2108	1068	3011	3999
4	0	0	2127	1065	3010	3999
5	0	0	2110	1063	3010	4001
6	0	0	2080	1063	3011	3999
7	0	0	2074	1066	3014	4001
8	0	0	2079	1065	3016	3998
9	0	0	2094	1064	3016	3999
10	0	0	2104	1067	3018	4000
11	0	0	2109	1066	3016	3999
12	0	0	2107	1067	3016	3999
13	0	0	2085	1066	3013	4000
14	0	0	2070	1069	3010	4001
15	0	0	2064	1068	3011	4000
16	0	0	2058	1068	3012	3999
17	0	0	2054	1071	3013	3999
18	0	0	2049	1069	3015	3999
19	0	0	2048	1068	3016	4000
20	0	0	2042	1066	3017	4000
21	0	0	2015	1064	3016	3999
22	0	0	2007	1067	3015	4000
23	0	0	2021	1067	3011	3999
24	0	0	2046	1065	3010	4000
25	0	0	2048	1065	3012	4000
26	0	0	2037	1065	3011	4000
27	0	0	2054	1065	3013	3999
28	0	0	2086	1066	3015	4000
29	0	0	2105	1066	3016	4000
30	0	0	2129	1067	3017	4000
31	0	0	2143	1066	3016	4001
32	0	0	2136	1066	3015	4000
33	0	0	2136	1068	3012	4000
34	0	0	2142	1068	3010	4000
35	0	0	2151	1069	3011	4000
36	0	0	2137	1066	3012	3998
37	0	0	2119	1069	3013	3999
38	0	0	2119	1068	3015	4000
39	0	0	2124	1068	3017	3998
40	0	0	2124	1067	3017	4001
41	0	0	2105	1065	3016	3999
42	0	0	2078	1064	3015	3999
43	0	0	2071	1066	3012	4000
44	0	0	2073	1066	3011	4000
45	0	0	2077	1065	3011	4001
46	0	0	2101	1065	3011	3999
47	0	0	2133	1065	3013	3999
48	0	0	2144	1066	3015	4002
49	0	0	2131	1065	3017	4001
50	0	0	2115	1066	3018	4001
51	0	0	2121	1066	3016	4000
52	0	0	2107	1064	3016	4000
53	0	0	2101	1068	3013	4001
54	0	0	2113	1068	3010	4000
55	0	0	2144	1068	3011	4000
56	0	0	2168	1068	3011	3999
57	0	0	2168	1067	3014	3999
58	0	0	2159	1066	3015	4000
59	0	0	2137	1067	3016	3999
60	0	0	2137	1067	3017	4001
61	0	0	2143	1067	3016	3999
62	0	0	2143	1066	3015	4000
63	0	0	2132	1067	3012	3999
64	0	0	2140	1065	3010	4000
65	0	0	2165	1065	3011	4001
66	0	0	2194	1066	3011	3999
67	0	0	2189	1065	3013	4000
68	0	0	2157	1062	3015	4001
69	0	0	2107	1062	3017	4002
70	0	0	2058	1063	3017	4001
71	0	0	2056	1067	3016	4000
72	0	0	2073	1066	3015	4001
73	0	0	2060	1067	3013	4000
74	0	0	2058	1068	3011	4000
75	0	0	2094	1068	3011	4000
76	0	0	2134	1068	3012	4000
77	0	0	2150	1069	3013	4000
78	0	0	2139	1067	3015	4000
79	0	0	2120	1065	3017	3998
80	0	0	2106	1066	3016	4000
81	0	0	2081	1064	3016	4000
82	0	0	2052	1066	3015	4000
83	0	0	2049	1067	3013	4000
84	0	0	2063	1065	3012	4000
85	0	0	2075	1064	3011	4000
86	0	0	2077	1065	3011	4000
87	0	0	2058	1064	3013	4000
88	0	0	2038	1065	3015	4000
89	0	0	2045	1064	3017	4001
90	0	0	2062	1066	3017	3999
91	0	0	2082	1067	3017	4000
92	0	0	2090	1067	3015	4000
93	0	0	2099	1067	3013	4000
94	0	0	2122	1068	3012	4002
95	0	0	2123	1067	3011	4000
96	0	0	2101	1065	3013	4001
97	0	0	2075	1063	3013	4000
98	0	0	2044	1065	3015	4000
99	0	0	2016	1064	3017	4001
100	0	0	2008	1067	3016	4001
101	0	0	2035	1066	3017	4000
102	0	0	2071	1064	3015	3999
103	0	0	2084	1065	3012	4000
104	0	0	2095	1064	3011	4001
105	0	0	2072	1061	3011	4000
106	0	0	2038	1061	3012	4000
107	0	0	2028	1064	3013	3999
108	0	0	2032	1066	3014	3999
109	0	0	2050	1066	3017	3998
110	0	0	2066	1065	3017	4000
111	0	0	2081	1066	3016	3999
112	0	0	2100	1066	3016	4000
113	0	0	2105	1067	3013	4000
114	0	0	2106	1067	3011	3999
115	0	0	2097	1066	3012	4001
116	0	0	2077	1067	3011	4000
117	0	0	2079	1070	3014	4001
118	0	0	2086	1067	3015	4001
119	0	0	2083	1067	3016	3997
120	0	0	2062	1064	3016	4000
121	0	0	2057	1068	3017	3998
122	0	0	2074	1065	3016	4000
123	0	0	2093	1065	3013	4000
124	0	0	2097	1065	3010	3999
125	0	0	2090	1063	3010	4000
126	0	0	2093	1064	3011	3999
127	0	0	2105	1062	3012	3999
0	0	0	2093	1063	3015	4000
1	0	0	2081	1065	3016	3998
2	0	0	2085	1066	3018	4001
3	0	0	2102	1065	3016	4000
4	0	0	2113	1065	3015	4000
5	0	0	2113	1068	3012	3999
6	0	0	2099	1067	3012	4002
7	0	0	2083	1066	3010	4001
8	0	0	2077	1067	3011	3999
9	0	0	2078	1064	3012	3999
10	0	0	2092	1067	3015	4000
11	0	0	2129	1066	3017	4000
12	0	0	2129	1065	3017	3999
13	0	0	2100	1062	3016	3999
14	0	0	2089	1067	3015	4001
15	0	0	2085	1063	3012	4000
16	0	0	2076	1064	3010	4002
17	0	0	2065	1064	3011	4000
18	0	0	2069	1064	3011	4000
19	0	0	2075	1064	3014	4001
20	0	0	2087	1063	3013	4000
21	0	0	2112	1064	3016	4000
22	0	0	2145	1065	3016	4002
23	0	0	2172	1064	3016	3999
24	0	0	2183	1065	3015	4000
25	0	0	2175	1065	3012	3999
26	0	0	2171	1067	3011	4001
27	0	0	2167	1067	3011	4000
28	0	0	2141	1064	3011	3999
29	0	0	2129	1066	3013	4000
30	0	0	2127	1067	3015	4001
31	0	0	2131	1067	3016	4000
32	0	0	2141	1066	3016	4000
33	0	0	2160	1065	3016	4000
34	0	0	2170	1064	3015	4000
35	0	0	2170	1065	3011	3999
36	0	0	2187	1062	3009	4000
37	0	0	2204	1062	3011	4001
38	0	0	2211	1063	3011	3999
39	0	0	2226	1062	3013	4000
40	0	0	2274	1063	3015	3999
41	0	0	2326	1064	3017	4000
42	0	0	2353	1064	3017	4000
43	0	0	2363	1065	3017	4001
44	0	0	2349	1066	3015	3999
45	0	0	2316	1064	3013	4000
46	0	0	2314	1066	3011	4000
47	0	0	2339	1066	3010	4001
48	0	0	2359	1066	3011	4000
49	0	0	2338	1067	3013	3999
50	0	0	2331	1066	3014	4000
51	0	0	2336	1066	3016	4001
52	0	0	2336	1065	3017	4001
53	0	0	2336	1065	3016	3998
54	0	0	2343	1064	3015	3999
55	0	0	2339	1062	3013	3999
56	0	0	2300	1061	3010	4001
57	0	0	2227	1060	3011	4000
58	0	0	2158	1059	3011	4000
59	0	0	2110	1060	3012	4000
60	0	0	2096	1063	3015	4000
61	0	0	2101	1063	3015	4000
62	0	0	2114	1065	3017	4000
63	0	0	2143	1064	3018	3999
64	0	0	2142	1065	3015	3999
65	0	0	2113	1062	3013	4000
66	0	0	2083	1064	3010	4001
67	0	0	2082	1066	3011	4000
68	0	0	2080	1066	3011	4000
69	0	0	2069	1067	3012	3999
70	0	0	2058	1064	3015	3999
71	0	0	2054	1065	3016	4002
72	0	0	2059	1065	3017	4001
73	0	0	2045	1063	3016	3999
74	0	0	2026	1062	3015	3998
75	0	0	2020	1063	3012	4000
76	0	0	2028	1063	3010	4000
77	0	0	2028	1062	3011	4001
78	0	0	2023	1062	3011	3999
79	0	0	2015	1062	3013	3999
80	0	0	2015	1063	3015	4000
81	0	0	2020	1062	3017	4001
82	0	0	2027	1063	3017	4000
83	0	0	2031	1063	3016	4000
84	0	0	2028	1065	3015	4000
85	0	0	2040	1065	3012	4000
86	0	0	2053	1065	3011	4000
87	0	0	2070	1067	3012	3998
88	0	0	2091	1066	3012	4001
89	0	0	2084	1065	3013	4000
90	0	0	2057	1063	3015	4000
91	0	0	2034	1063	3016	4001
92	0	0	2014	1063	3017	4000
93	0	0	2012	1064	3016	3999
94	0	0	2030	1064	3015	3999
95	0	0	2045	1063	3012	4000
96	0	0	2066	1063	3011	4001
97	0	0	2064	1060	3011	4000
98	0	0	2055	1062	3011	3999
99	0	0	2060	1064	3013	3999
100	0	0	2056	1061	3015	3999
101	0	0	2058	1063	3016	4001
102	0	0	2065	1063	3017	4001
103	0	0	2065	1063	3017	3999
104	0	0	2057	1064	3016	4001
105	0	0	2046	1065	3014	4002
106	0	0	2045	1065	3011	4002
107	0	0	2049	1065	3010	4000
108	0	0	2041	1065	3011	4000
109	0	0	2043	1065	3013	3999
110	0	0	2080	1067	3015	4000
111	0	0	2106	1065	3016	4001
112	0	0	2089	1061	3016	4000
113	0	0	2040	1059	3016	3999
114	0	0	2006	1061	3015	4000
115	0	0	2015	1063	3013	3999
116	0	0	2032	1062	3011	4001
117	0	0	2037	1061	3011	3999
118	0	0	2037	1062	3011	4000
119	0	0	2036	1062	3013	4000
120	0	0	2044	1062	3014	4000
121	0	0	2042	1062	3017	4000
122	0	0	2037	1063	3017	4001
123	0	0	2036	1063	3016	3998
124	0	0	2035	1064	3015	3999
125	0	0	2032	1065	3013	4000
126	0	0	2044	1066	3012	4000
127	0	0	2071	1065	3012	4000
0	0	0	2084	1064	3011	3999
1	0	0	2082	1064	3013	4000
2	0	0	2064	1062	3015	4000
3	0	0	2053	1065	3016	3999
4	0	0	2080	1064	3016	4001
5	0	0	2101	1064	3016	4000
6	0	0	2096	1063	3015	4000
7	0	0	2078	1061	3011	4000
8	0	0	2051	1060	3010	4000
9	0	0	2027	1061	3010	4000
10	0	0	2020	1062	3011	4000
11	0	0	2019	1062	3013	4002
12	0	0	2032	1063	3015	4002
13	0	0	2056	1062	3017	4001
14	0	0	2062	1063	3017	4001
15	0	0	2049	1062	3016	3999
16	0	0	2045	1064	3015	3999
17	0	0	2067	1063	3012	4000
18	0	0	2087	1064	3011	3999
19	0	0	2093	1065	3009	4000
20	0	0	2090	1064	3011	3999
21	0	0	2091	1065	3013	4000
22	0	0	2100	1064	3014	4000
23	0	0	2136	1064	3016	4000
24	0	0	2174	1065	3016	4000
25	0	0	2164	1060	3015	3999
26	0	0	2130	1060	3015	3999
27	0	0	2095	1059	3012	4000
28	0	0	2064	1059	3011	3998
29	0	0	2028	1060	3007	4001
30	0	0	2011	1061	3010	3999
31	0	0	2012	1062	3013	4000
32	0	0	2029	1061	3014	4000
33	0	0	2050	1061	3016	4000
34	0	0	2033	1060	3017	4000
35	0	0	2009	1060	3016	4000
36	0	0	2011	1064	3015	3999
37	0	0	2031	1063	3012	4000
38	0	0	2053	1064	3011	4000
39	0	0	2067	1064	3012	4001
40	0	0	2052	1061	3011	3999
41	0	0	2033	1063	3014	4000
42	0	0	2051	1063	3015	4002
43	0	0	2079	1063	3016	3999
44	0	0	2087	1063	3017	3999
45	0	0	2099	1063	3017	4001
46	0	0	2137	1063	3016	3999
47	0	0	2161	1061	3012	4000
48	0	0	2134	1058	3011	4001
49	0	0	2092	1058	3010	4000
50	0	0	2072	1059	3012	4001
51	0	0	2062	1060	3012	3999
52	0	0	2055	1061	3014	3999
53	0	0	2054	1061	3016	4002
54	0	0	2060	1061	3018	4001
55	0	0	2074	1062	3016	3999
56	0	0	2098	1063	3016	4001
57	0	0	2101	1064	3012	3999
58	0	0	2087	1064	3011	3999
59	0	0	2081	1064	3011	4000
60	0	0	2061	1061	3011	3999
61	0	0	2047	1064	3013	3999
62	0	0	2058	1064	3014	3999
63	0	0	2077	1062	3015	3999
64	0	0	2078	1062	3016	4000
65	0	0	2057	1062	3015	3999
66	0	0	2059	1062	3015	3999
67	0	0	2047	1060	3012	4000
68	0	0	2044	1061	3011	4002
69	0	0	2046	1061	3011	4000
70	0	0	2054	1060	3012	4001
71	0	0	2074	1062	3012	3999
72	0	0	2096	1061	3014	4000
73	0	0	2107	1062	3017	3999
74	0	0	2105	1061	3017	3999
75	0	0	2087	1059	3016	3999
76	0	0	2060	1059	3016	3999
77	0	0	2039	1061	3013	3999
78	0	0	2037	1064	3011	3999
79	0	0	2046	1063	3011	4000
80	0	0	2063	1064	3011	3999
81	0	0	2084	1064	3013	4000
82	0	0	2093	1063	3015	3998
83	0	0	2101	1064	3016	3999
84	0	0	2100	1063	3017	4000
85	0	0	2095	1061	3016	4000
86	0	0	2098	1060	3015	4000
87	0	0	2102	1061	3012	3998
88	0	0	2081	1058	3011	3999
89	0	0	2064	1059	3010	3999
90	0	0	2060	1060	3010	3999
91	0	0	2080	1059	3013	3999
92	0	0	2087	1060	3015	3999
93	0	0	2085	1060	3016	3999
94	0	0	2095	1061	3017	4000
95	0	0	2116	1061	3016	3999
96	0	0	2135	1061	3015	4000
97	0	0	2140	1062	3013	3998
98	0	0	2128	1062	3011	3999
99	0	0	2114	1064	3012	4001
100	0	0	2100	1063	3011	4000
101	0	0	2106	1062	3013	4000
102	0	0	2131	1064	3015	4001
103	0	0	2156	1063	3016	3999
104	0	0	2161	1063	3017	4000
105	0	0	2133	1058	3016	4000
106	0	0	2089	1058	3015	3999
107	0	0	2077	1062	3012	4000
108	0	0	2062	1058	3011	3999
109	0	0	2041	1058	3010	4000
110	0	0	2044	1059	3011	4000
111	0	0	2065	1060	3013	4000
112	0	0	2064	1059	3014	4000
113	0	0	2076	1060	3016	4000
114	0	0	2108	1062	3016	4001
115	0	0	2145	1061	3017	4001
116	0	0	2170	1063	3016	4000
117	0	0	2175	1064	3013	4000
118	0	0	2182	1063	3012	4001
119	0	0	2197	1063	3010	4000
120	0	0	2189	1061	3011	3999
121	0	0	2163	1060	3014	4000
122	0	0	2153	1064	3015	4000
123	0	0	2155	1062	3016	4000
124	0	0	2149	1061	3015	4000
125	0	0	2125	1061	3017	4001
126	0	0	2114	1061	3016	4000
127	0	0	2095	1061	3013	4000
0	0	0	2089	1060	3011	3999
1	0	0	2083	1060	3010	3999
2	0	0	2089	1059	3011	3999
3	0	0	2106	1058	3014	3999
4	0	0	2091	1059	3015	3999
5	0	0	2088	1060	3017	4000
6	0	0	2100	1060	3016	4001
7	0	0	2136	1062	3015	4000
8	0	0	2168	1060	3015	4000
9	0	0	2172	1062	3013	3999
10	0	0	2157	1062	3011	4000
11	0	0	2169	1063	3012	4001
12	0	0	2192	1062	3011	4000
13	0	0	2215	1063	3014	4002
14	0	0	2216	1063	3015	4001
15	0	0	2209	1063	3016	4000
16	0	0	2219	1061	3016	4001
17	0	0	2229	1061	3016	3999
18	0	0	2216	1058	3015	4000
19	0	0	2195	1062	3013	4000
20	0	0	2195	1060	3011	4000
21	0	0	2186	1060	3009	4002
22	0	0	2173	1059	3011	4000
23	0	0	2159	1058	3013	4000
24	0	0	2153	1061	3015	4000
25	0	0	2164	1060	3017	4001
26	0	0	2184	1060	3016	4001
27	0	0	2197	1060	3016	3999
28	0	0	2154	1056	3015	3999
29	0	0	2116	1060	3013	4001
30	0	0	2114	1061	3011	4000
31	0	0	2106	1063	3011	4000
32	0	0	2111	1061	3011	4000
33	0	0	2118	1062	3013	4002
34	0	0	2099	1062	3015	4000
35	0	0	2097	1062	3016	4000
36	0	0	2132	1062	3016	3999
37	0	0	2182	1061	3016	4000
38	0	0	2219	1059	3015	4000
39	0	0	2232	1059	3013	4000
40	0	0	2214	1056	3011	4000
41	0	0	2170	1056	3010	4001
42	0	0	2146	1058	3011	3999
43	0	0	2167	1058	3013	4000
44	0	0	2208	1059	3015	3999
45	0	0	2230	1059	3017	4000
46	0	0	2222	1059	3016	4001
47	0	0	2193	1059	3016	3999
48	0	0	2160	1058	3016	4003
49	0	0	2157	1061	3013	4002
50	0	0	2171	1061	3011	3999
51	0	0	2174	1061	3010	4003
52	0	0	2168	1062	3011	4000
53	0	0	2172	1062	3013	4001
54	0	0	2183	1062	3015	4000
55	0	0	2196	1060	3016	4002
56	0	0	2169	1058	3017	4000
57	0	0	2131	1055	3016	4000
58	0	0	2110	1060	3015	3999
59	0	0	2117	1059	3012	4001
60	0	0	2153	1058	3011	4000
61	0	0	2184	1059	3010	4001
62	0	0	2203	1059	3011	3999
63	0	0	2215	1058	3013	4000
64	0	0	2217	1058	3015	3999
65	0	0	2200	1057	3016	4000
66	0	0	2161	1056	3016	4001
67	0	0	2131	1057	3016	4000
68	0	0	2117	1060	3015	4001
69	0	0	2118	1061	3014	4000
70	0	0	2134	1062	3011	3998
71	0	0	2145	1061	3011	4000
72	0	0	2157	1062	3011	4000
73	0	0	2167	1062	3013	4000
74	0	0	2152	1060	3015	4000
75	0	0	2116	1059	3016	4000
76	0	0	2098	1061	3017	4001
77	0	0	2108	1061	3016	4000
78	0	0	2118	1061	3015	4000
79	0	0	2110	1058	3012	4000
80	0	0	2109	1058	3011	4002
81	0	0	2098	1058	3010	4000
82	0	0	2097	1058	3012	4002
83	0	0	2102	1058	3013	4002
84	0	0	2097	1058	3014	4000
85	0	0	2100	1059	3016	4000
86	0	0	2094	1059	3017	4002
87	0	0	2097	1059	3016	4000
88	0	0	2111	1061	3015	3999
89	0	0	2089	1056	3014	4001
90	0	0	2074	1061	3011	4003
91	0	0	2084	1061	3012	4001
92	0	0	2081	1055	3011	3999
93	0	0	2046	1059	3013	3999
94	0	0	2049	1060	3015	4001
95	0	0	2070	1061	3016	4002
96	0	0	2091	1060	3017	4000
97	0	0	2109	1058	3016	4000
98	0	0	2108	1058	3015	3999
99	0	0	2072	1054	3013	4000
100	0	0	2060	1058	3011	4002
101	0	0	2055	1057	3010	4001
102	0	0	2043	1057	3011	4000
103	0	0	2042	1058	3013	3999
104	0	0	2044	1056	3015	4000
105	0	0	2032	1057	3016	4003
106	0	0	2017	1059	3017	3999
107	0	0	2037	1056	3017	4000
108	0	0	2091	1060	3017	3999
109	0	0	2124	1060	3014	4000
110	0	0	2107	1059	3011	4000
111	0	0	2078	1058	3011	4001
112	0	0	2051	1055	3011	3999
113	0	0	2030	1059	3013	4000
114	0	0	2022	1062	3015	3999
115	0	0	2002	1057	3016	3999
116	0	0	1967	1058	3017	4001
117	0	0	1970	1060	3016	4000
118	0	0	1998	1058	3015	3999
119	0	0	2021	1055	3013	3999
120	0	0	2034	1058	3011	3999
121	0	0	2040	1057	3011	4000
122	0	0	2029	1056	3011	4000
123	0	0	2007	1056	3013	4000
124	0	0	2006	1055	3015	4000
125	0	0	2021	1058	3016	4001
126	0	0	2038	1057	3017	3999
127	0	0	2021	1057	3016	4000
0	0	0	1994	1057	3015	4000
1	0	0	1984	1059	3014	4004
2	0	0	1975	1060	3011	4000
3	0	0	1992	1060	3011	3999
4	0	0	2028	1060	3011	4000
5	0	0	2043	1061	3013	4000
6	0	0	2052	1057	3015	3999
7	0	0	2029	1057	3016	3999
8	0	0	1998	1057	3016	3999
9	0	0	1970	1057	3017	4000
10	0	0	1942	1056	3017	4000
11	0	0	1929	1056	3013	3999
12	0	0	1931	1057	3011	4000
13	0	0	1951	1056	3011	3999
14	0	0	1990	1056	3011	4000
15	0	0	2012	1057	3013	4001
16	0	0	2004	1056	3015	4000
17	0	0	2007	1056	3016	4000
18	0	0	2016	1058	3017	3999
19	0	0	2037	1058	3016	4000
20	0	0	2057	1059	3016	4000
21	0	0	2077	1057	3014	3999
22	0	0	2073	1060	3011	3999
23	0	0	2062	1060	3011	3999
24	0	0	2055	1061	3012	4001
25	0	0	2049	1059	3013	4000
26	0	0	2034	1055	3015	4000
27	0	0	1998	1057	3017	4000
28	0	0	1963	1056	3017	3999
29	0	0	1957	1061	3015	3999
30	0	0	1976	1058	3016	4001
31	0	0	2006	1057	3013	4001
32	0	0	2016	1058	3011	4000
33	0	0	2007	1056	3010	3999
34	0	0	1998	1056	3011	4000
35	0	0	1990	1057	3012	4000
36	0	0	1978	1055	3015	4000
37	0	0	1973	1057	3016	3999
38	0	0	1978	1058	3016	4000
39	0	0	1991	1057	3016	4000
40	0	0	2009	1058	3015	4000
41	0	0	2014	1058	3013	4000
42	0	0	2030	1060	3011	4003
43	0	0	2061	1058	3010	4002
44	0	0	2079	1060	3012	4001
45	0	0	2090	1057	3011	4000
46	0	0	2091	1059	3014	4000
47	0	0	2088	1060	3017	4000
48	0	0	2082	1059	3016	3999
49	0	0	2076	1058	3016	4000
50	0	0	2071	1058	3015	3998
51	0	0	2074	1055	3012	4000
52	0	0	2083	1057	3011	4000
53	0	0	2047	1053	3011	4001
54	0	0	2008	1053	3011	3999
55	0	0	1979	1053	3013	4000
56	0	0	1957	1056	3015	4001
57	0	0	1964	1055	3016	4000
58	0	0	1995	1057	3016	3999
59	0	0	2027	1055	3016	4000
60	0	0	2075	1058	3016	3999
61	0	0	2106	1058	3013	4000
62	0	0	2100	1059	3011	3999
63	0	0	2075	1057	3011	4001
64	0	0	2041	1056	3011	3999
65	0	0	2015	1055	3012	4000
66	0	0	2003	1058	3014	4000
67	0	0	1994	1059	3017	4001
68	0	0	1983	1059	3016	4001
69	0	0	1982	1057	3017	4001
70	0	0	1998	1059	3015	4000
71	0	0	2027	1055	3012	4000
72	0	0	2038	1056	3011	4000
73	0	0	2031	1056	3010	4001
74	0	0	2032	1056	3011	3999
75	0	0	2034	1056	3013	3998
76	0	0	2034	1057	3014	3999
77	0	0	2034	1057	3017	4000
78	0	0	2017	1055	3017	4001
79	0	0	2018	1057	3016	3997
80	0	0	2063	1057	3015	4000
81	0	0	2103	1059	3013	3999
82	0	0	2117	1059	3011	4000
83	0	0	2101	1058	3012	4000
84	0	0	2064	1056	3011	4000
85	0	0	2025	1057	3014	3999
86	0	0	2009	1059	3015	4001
87	0	0	1993	1057	3016	4000
88	0	0	1959	1056	3016	4001
89	0	0	1961	1055	3016	4000
90	0	0	2001	1057	3015	4001
91	0	0	2026	1056	3012	4000
92	0	0	2023	1057	3011	3999
93	0	0	2015	1056	3011	4000
94	0	0	2023	1055	3011	3999
95	0	0	2034	1055	3012	4000
96	0	0	2029	1056	3014	4000
97	0	0	2024	1056	3016	4001
98	0	0	2015	1056	3016	4001
99	0	0	2018	1057	3016	4000
100	0	0	2032	1057	3016	3999
101	0	0	2050	1058	3013	3999
102	0	0	2063	1058	3011	4003
103	0	0	2044	1055	3011	4001
104	0	0	2010	1055	3011	4000
105	0	0	2003	1058	3013	4000
106	0	0	2025	1057	3013	4000
107	0	0	2041	1058	3016	4000
108	0	0	2053	1058	3016	4002
109	0	0	2046	1057	3016	3999
110	0	0	2048	1057	3015	4000
111	0	0	2048	1056	3013	4000
112	0	0	2053	1056	3011	4001
113	0	0	2040	1055	3010	4001
114	0	0	2024	1054	3010	3999
115	0	0	2016	1056	3013	3999
116	0	0	1993	1056	3014	3999
117	0	0	1986	1055	3016	4001
118	0	0	2009	1055	3016	4000
119	0	0	2053	1057	3015	4001
120	0	0	2048	1055	3016	4001
121	0	0	2022	1055	3014	4000
122	0	0	2001	1057	3011	4000
123	0	0	2000	1058	3010	4001
124	0	0	2011	1059	3011	4000
125	0	0	2041	1059	3012	4000
126	0	0	2060	1056	3014	4000
127	0	0	2075	1059	3016	4001
0	0	0	2082	1057	3016	4000
1	0	0	2074	1057	3017	4001
2	0	0	2068	1057	3015	4000
3	0	0	2059	1056	3013	3999
4	0	0	2041	1054	3011	4000
5	0	0	2018	1053	3010	4000
6	0	0	2009	1055	3011	4000
7	0	0	2009	1055	3012	4000
8	0	0	2008	1055	3015	4001
9	0	0	2016	1054	3016	4000
10	0	0	2018	1055	3016	3997
11	0	0	2019	1056	3016	4000
12	0	0	2026	1055	3015	4000
13	0	0	2030	1056	3013	3999
14	0	0	2022	1058	3011	3998
15	0	0	2030	1060	3010	4001
16	0	0	2056	1059	3012	4001
17	0	0	2097	1060	3013	3999
18	0	0	2136	1056	3014	3999
19	0	0	2143	1056	3016	4000
20	0	0	2099	1053	3016	3998
21	0	0	2065	1055	3016	4000
22	0	0	2056	1056	3014	4000
23	0	0	2044	1056	3014	4001
24	0	0	2032	1054	3011	4000
25	0	0	2008	1052	3010	4000
26	0	0	1998	1054	3011	4000
27	0	0	1997	1054	3012	4000
28	0	0	2018	1054	3015	4002
29	0	0	2042	1056	3016	4001
30	0	0	2045	1055	3016	3999
31	0	0	2043	1056	3016	3999
32	0	0	2048	1057	3015	4000
33	0	0	2058	1057	3013	3999
34	0	0	2076	1058	3011	3999
35	0	0	2084	1057	3010	3998
36	0	0	2069	1056	3011	4000
37	0	0	2053	1058	3012	4000
38	0	0	2037	1056	3015	4000
39	0	0	2027	1054	3016	4000
40	0	0	2027	1058	3016	4000
41	0	0	2041	1056	3016	4000
42	0	0	2045	1057	3015	4000
43	0	0	2040	1056	3013	3999
44	0	0	2025	1053	3011	4001
45	0	0	2012	1054	3009	3997
46	0	0	2010	1054	3011	4000
47	0	0	2009	1056	3012	4000
48	0	0	2013	1054	3015	4000
49	0	0	2043	1055	3016	4000
50	0	0	2072	1055	3017	4002
51	0	0	2084	1055	3016	4000
52	0	0	2098	1056	3016	4000
53	0	0	2083	1054	3014	4000
54	0	0	2055	1053	3011	4001
55	0	0	2024	1055	3011	4001
56	0	0	1995	1053	3011	4000
57	0	0	1987	1058	3013	4001
58	0	0	2000	1058	3015	4000
59	0	0	2034	1057	3016	4002
60	0	0	2075	1056	3017	4001
61	0	0	2088	1059	3016	3999
62	0	0	2082	1055	3015	4002
63	0	0	2056	1052	3013	4001
64	0	0	2019	1048	3011	4000
65	0	0	1984	1051	3010	3999
66	0	0	1975	1054	3011	4000
67	0	0	1977	1052	3012	4000
68	0	0	2008	1053	3014	4000
69	0	0	2054	1053	3016	4001
70	0	0	2073	1054	3016	3999
71	0	0	2063	1054	3016	4000
72	0	0	2039	1056	3015	4000
73	0	0	2022	1054	3014	4000
74	0	0	2006	1056	3012	4001
75	0	0	2010	1056	3011	4000
76	0	0	2032	1057	3011	4000
77	0	0	2058	1057	3013	4002
78	0	0	2066	1057	3015	4001
79	0	0	2073	1059	3016	4001
80	0	0	2075	1056	3016	3999
81	0	0	2058	1055	3016	4000
82	0	0	2045	1056	3015	4000
83	0	0	2048	1055	3013	3999
84	0	0	2070	1054	3011	4001
85	0	0	2077	1053	3010	3999
86	0	0	2056	1052	3011	4000
87	0	0	2037	1053	3013	4000
88	0	0	2028	1051	3015	4000
89	0	0	2014	1052	3017	4000
90	0	0	1997	1054	3016	3999
91	0	0	1993	1055	3017	4001
92	0	0	1988	1056	3016	3998
93	0	0	1969	1057	3014	4000
94	0	0	1966	1057	3012	4000
95	0	0	1995	1056	3010	3999
96	0	0	2037	1055	3011	4000
97	0	0	2057	1056	3012	4000
98	0	0	2075	1055	3015	4000
99	0	0	2083	1055	3016	4000
100	0	0	2075	1055	3016	3999
101	0	0	2065	1055	3016	4000
102	0	0	2069	1055	3015	4002
103	0	0	2080	1053	3012	4000
104	0	0	2064	1051	3011	4000
105	0	0	2041	1052	3010	4000
106	0	0	2044	1053	3011	4000
107	0	0	2052	1053	3013	4001
108	0	0	2036	1051	3015	4001
109	0	0	2016	1051	3016	4003
110	0	0	2020	1055	3017	4002
111	0	0	2032	1054	3016	4000
112	0	0	2043	1055	3015	3999
113	0	0	2053	1057	3013	3999
114	0	0	2078	1055	3011	4000
115	0	0	2113	1056	3010	3999
116	0	0	2133	1055	3011	4000
117	0	0	2118	1056	3013	4000
118	0	0	2119	1057	3014	3999
119	0	0	2116	1055	3016	4000
120	0	0	2073	1052	3016	4000
121	0	0	2024	1052	3015	3999
122	0	0	2001	1054	3016	4000
123	0	0	2009	1053	3013	4000
124	0	0	2035	1053	3011	4001
125	0	0	2050	1053	3010	3999
126	0	0	2053	1054	3012	4002
127	0	0	2029	1053	3012	4001
0	0	0	1991	1051	3014	4001
1	0	0	1984	1054	3016	4001
2	0	0	2020	1055	3016	4000
3	0	0	2055	1054	3016	4000
4	0	0	2062	1055	3016	4000
5	0	0	2063	1056	3014	4001
6	0	0	2068	1055	3012	4000
7	0	0	2066	1055	3010	4001
8	0	0	2063	1056	3011	4000
9	0	0	2085	1056	3014	3999
10	0	0	2096	1057	3014	4000
11	0	0	2093	1057	3016	4001
12	0	0	2071	1053	3016	4000
13	0	0	2061	1056	3016	4000
14	0	0	2078	1055	3015	4002
15	0	0	2090	1052	3013	4001
16	0	0	2063	1050	3011	4001
17	0	0	2025	1049	3010	4000
18	0	0	2005	1052	3010	4000
19	0	0	2000	1052	3012	4001
20	0	0	1994	1053	3015	4002
21	0	0	1993	1052	3016	4000
22	0	0	2018	1053	3016	4000
23	0	0	2048	1054	3017	4001
24	0	0	2065	1051	3015	4000
25	0	0	2074	1054	3013	4000
26	0	0	2068	1056	3011	4002
27	0	0	2061	1055	3010	4000
28	0	0	2057	1056	3011	3999
29	0	0	2054	1055	3013	4001
30	0	0	2026	1053	3014	3999
31	0	0	1999	1053	3016	4001
32	0	0	1997	1054	3017	4001
33	0	0	2003	1054	3016	4000
34	0	0	2011	1054	3015	3999
35	0	0	2022	1053	3013	4000
36	0	0	2044	1052	3011	4000
37	0	0	2058	1052	3010	4000
38	0	0	2056	1051	3011	4000
39	0	0	2044	1052	3013	3999
40	0	0	2034	1052	3014	4000
41	0	0	2027	1053	3016	4002
42	0	0	2028	1053	3016	4000
43	0	0	2043	1054	3016	3999
44	0	0	2061	1055	3015	3999
45	0	0	2062	1052	3013	4001
46	0	0	2051	1056	3011	4000
47	0	0	2054	1055	3011	4003
48	0	0	2044	1054	3011	4000
49	0	0	2050	1056	3012	4000
50	0	0	2071	1055	3014	4000
51	0	0	2072	1055	3016	4000
52	0	0	2044	1052	3016	4000
53	0	0	2025	1051	3016	4000
54	0	0	2017	1053	3015	3999
55	0	0	2006	1052	3013	4000
56	0	0	1986	1051	3011	4001
57	0	0	1978	1052	3010	4000
58	0	0	1980	1052	3010	4000
59	0	0	1991	1052	3011	4001
60	0	0	2006	1053	3014	4000
61	0	0	2041	1052	3016	4003
62	0	0	2083	1052	3016	4000
63	0	0	2106	1054	3017	4001
64	0	0	2099	1050	3014	4000
65	0	0	2062	1050	3014	3999
66	0	0	2023	1052	3011	4001
67	0	0	2018	1055	3010	4000
68	0	0	2034	1055	3011	4000
69	0	0	2070	1056	3012	3999
70	0	0	2096	1052	3015	4000
71	0	0	2081	1053	3016	4001
72	0	0	2073	1053	3016	4000
73	0	0	2067	1054	3016	4000
74	0	0	2054	1053	3015	3999
75	0	0	2046	1050	3014	4000
76	0	0	2031	1052	3010	4001
77	0	0	2035	1051	3011	4001
78	0	0	2050	1052	3011	4000
79	0	0	2075	1052	3012	4000
80	0	0	2071	1051	3013	4000
81	0	0	2043	1049	3016	4001
82	0	0	2034	1052	3016	4000
83	0	0	2031	1055	3015	3999
84	0	0	2029	1052	3016	4000
85	0	0	2041	1052	3014	4000
86	0	0	2063	1054	3011	4000
87	0	0	2079	1054	3010	3999
88	0	0	2088	1055	3011	4000
89	0	0	2091	1055	3013	4001
90	0	0	2082	1055	3015	4001
91	0	0	2062	1052	3016	4000
92	0	0	2027	1050	3016	4000
93	0	0	1993	1053	3017	4001
94	0	0	1988	1052	3016	4000
95	0	0	1996	1052	3013	4000
96	0	0	2016	1052	3011	4001
97	0	0	2021	1051	3010	4003
98	0	0	2034	1051	3011	4000
99	0	0	2055	1051	3012	3999
100	0	0	2051	1052	3014	3999
101	0	0	2042	1050	3016	4000
102	0	0	2035	1052	3016	4002
103	0	0	2046	1052	3016	4000
104	0	0	2063	1051	3015	4000
105	0	0	2076	1052	3013	3999
106	0	0	2083	1054	3011	4000
107	0	0	2089	1054	3010	4003
108	0	0	2076	1051	3011	4000
109	0	0	2050	1051	3012	4000
110	0	0	2044	1052	3014	4000
111	0	0	2039	1054	3015	4000
112	0	0	2043	1055	3015	4002
113	0	0	2055	1053	3016	4000
114	0	0	2032	1048	3015	4000
115	0	0	2016	1052	3012	3999
116	0	0	2002	1048	3011	4002
117	0	0	1975	1048	3008	3999
118	0	0	1970	1050	3010	4000
119	0	0	1990	1049	3012	4000
120	0	0	2013	1049	3014	4000
121	0	0	2027	1050	3016	4000
122	0	0	2034	1051	3016	3999
123	0	0	2040	1052	3016	4000
124	0	0	2051	1052	3016	4000
125	0	0	2070	1054	3013	3999
126	0	0	2077	1053	3011	4000
127	0	0	2071	1054	3011	3998
0	0	0	2070	1053	3011	4000
1	0	0	2066	1053	3012	4000
2	0	0	2058	1054	3015	4001
3	0	0	2061	1052	3016	4000
4	0	0	2056	1053	3017	4000
5	0	0	2041	1052	3016	4000
6	0	0	2032	1052	3015	4001
7	0	0	2037	1050	3013	4001
8	0	0	2037	1049	3011	4000
9	0	0	2017	1048	3011	4002
10	0	0	2004	1050	3010	3999
11	0	0	2001	1051	3012	4000
12	0	0	1993	1050	3013	4001
13	0	0	1987	1051	3016	4001
14	0	0	1998	1051	3016	3999
15	0	0	2028	1052	3016	3999
16	0	0	2057	1052	3015	4002
17	0	0	2081	1053	3014	4000
18	0	0	2105	1052	3011	4002
19	0	0	2135	1053	3010	4003
20	0	0	2119	1052	3011	4000
21	0	0	2083	1049	3012	4000
22	0	0	2051	1050	3013	4001
23	0	0	2042	1053	3016	4001
24	0	0	2064	1052	3016	4001
25	0	0	2080	1053	3015	4000
26	0	0	2065	1049	3015	4000
27	0	0	2041	1051	3012	3999
28	0	0	2015	1047	3010	4001
29	0	0	2002	1051	3010	4003
30	0	0	2011	1048	3010	4000
31	0	0	2023	1048	3012	4000
32	0	0	2037	1052	3013	3999
33	0	0	2061	1051	3016	4001
34	0	0	2070	1051	3016	4000
35	0	0	2065	1052	3017	4001
36	0	0	2066	1051	3014	3999
37	0	0	2096	1052	3012	3999
38	0	0	2133	1052	3011	4002
39	0	0	2147	1053	3010	4001
40	0	0	2151	1053	3010	4000
41	0	0	2142	1051	3012	3996
42	0	0	2107	1051	3013	3973
43	0	0	2067	1049	3015	3951
44	0	0	2055	1052	3017	3930
45	0	0	2051	1054	3015	3906
46	0	0	2057	1051	3015	3884
47	0	0	2061	1051	3015	3863
48	0	0	2058	1048	3011	3841
49	0	0	2057	1049	3010	3819
50	0	0	2058	1048	3010	3796
51	0	0	2058	1050	3012	3774
52	0	0	2044	1047	3013	3755
53	0	0	2024	1049	3015	3732
54	0	0	2039	1050	3016	3709
55	0	0	2077	1052	3017	3689
56	0	0	2098	1051	3016	3664
57	0	0	2107	1050	3013	3643
58	0	0	2112	1053	3011	3625
59	0	0	2122	1052	3010	3603
60	0	0	2121	1052	3011	3580
61	0	0	2114	1050	3012	3561
62	0	0	2098	1051	3013	3539
63	0	0	2089	1052	3015	3519
64	0	0	2091	1052	3015	3497
65	0	0	2099	1051	3016	3476
66	0	0	2093	1050	3014	3457
67	0	0	2083	1050	3011	3437
68	0	0	2082	1052	3010	3417
69	0	0	2067	1047	3009	3398
70	0	0	2058	1048	3011	3377
71	0	0	2055	1051	3011	3358
72	0	0	2055	1049	3013	3339
73	0	0	2057	1050	3016	3321
74	0	0	2057	1050	3016	3301
75	0	0	2036	1048	3016	3282
76	0	0	2023	1049	3015	3265
77	0	0	1998	1050	3012	3245
78	0	0	1977	1053	3011	3228
79	0	0	1972	1052	3010	3208
80	0	0	1987	1052	3010	3191
81	0	0	2012	1052	3012	3173
82	0	0	2036	1052	3015	3156
83	0	0	2055	1052	3016	3138
84	0	0	2067	1051	3015	3121
85	0	0	2052	1047	3016	3104
86	0	0	2016	1048	3015	3086
87	0	0	1992	1048	3012	3069
88	0	0	1977	1049	3010	3053
89	0	0	1970	1048	3009	3036
90	0	0	1981	1048	3010	3019
91	0	0	1994	1049	3011	3004
92	0	0	2007	1048	3013	2987
93	0	0	2019	1051	3015	2972
94	0	0	2030	1050	3016	2954
95	0	0	2050	1050	3016	2940
96	0	0	2068	1053	3015	2923
97	0	0	2072	1051	3013	2908
98	0	0	2076	1052	3011	2894
99	0	0	2083	1052	3011	2879
100	0	0	2079	1052	3011	2862
101	0	0	2046	1049	3012	2848
102	0	0	2018	1048	3014	2834
103	0	0	2004	1056	3015	2818
104	0	0	2004	1051	3016	2804
105	0	0	2020	1050	3016	2790
106	0	0	2059	1052	3015	2775
107	0	0	2077	1049	3012	2760
108	0	0	2051	1048	3011	2747
109	0	0	2023	1047	3009	2732
110	0	0	2004	1046	3010	2719
111	0	0	1996	1051	3011	2706
112	0	0	2004	1049	3014	2693
113	0	0	2013	1050	3015	2679
114	0	0	2019	1049	3017	2667
115	0	0	2021	1050	3015	2653
116	0	0	2017	1052	3015	2639
117	0	0	2021	1051	3013	2627
118	0	0	2039	1052	3010	2614
119	0	0	2084	1052	3009	2602
120	0	0	2110	1051	3010	2588
121	0	0	2117	1052	3011	2577
122	0	0	2122	1052	3013	2563
123	0	0	2121	1052	3015	2551
124	0	0	2114	1051	3015	2538
125	0	0	2121	1051	3015	2526
126	0	0	2131	1050	3015	2515
127	0	0	2112	1048	3012	2502
0	0	0	2085	1050	3010	2490
1	0	0	2068	1047	3009	2478
2	0	0	2064	1047	3010	2467
3	0	0	2084	1048	3012	2457
4	0	0	2117	1048	3014	2445
5	0	0	2140	1048	3015	2434
6	0	0	2138	1050	3017	2423
7	0	0	2136	1050	3016	2411
8	0	0	2140	1049	3015	2400
9	0	0	2144	1050	3014	2390
10	0	0	2154	1052	3011	2379
11	0	0	2177	1052	3009	2368
12	0	0	2210	1051	3010	2357
13	0	0	2222	1053	3011	2346
14	0	0	2228	1052	3014	2336
15	0	0	2229	1050	3015	2326
16	0	0	2227	1051	3015	2315
17	0	0	2232	1050	3015	2305
18	0	0	2269	1049	3014	2295
19	0	0	2314	1049	3013	2285
20	0	0	2332	1049	3011	2275
21	0	0	2324	1048	3009	2265
22	0	0	2321	1046	3011	2256
23	0	0	2329	1050	3011	2245
24	0	0	2340	1048	3013	2236
25	0	0	2363	1048	3015	2227
26	0	0	2383	1049	3015	2217
27	0	0	2359	1046	3015	2208
28	0	0	2345	1050	3015	2199
29	0	0	2351	1051	3013	2189
30	0	0	2344	1050	3010	2181
31	0	0	2319	1049	3008	2170
32	0	0	2294	1049	3010	2161
33	0	0	2261	1049	3011	2153
34	0	0	2211	1048	3013	2143
35	0	0	2175	1048	3014	2135
36	0	0	2147	1048	3016	2126
37	0	0	2109	1045	3015	2117
38	0	0	2070	1046	3015	2108
39	0	0	2034	1045	3013	2099
40	0	0	2008	1044	3010	2091
41	0	0	1997	1047	3009	2082
42	0	0	2020	1047	3011	2075
43	0	0	2046	1048	3011	2066
44	0	0	2067	1048	3013	2057
45	0	0	2090	1048	3015	2050
46	0	0	2096	1048	3015	2041
47	0	0	2082	1048	3015	2033
48	0	0	2061	1046	3015	2025
49	0	0	2044	1049	3012	2017
50	0	0	2040	1050	3011	2009
51	0	0	2032	1049	3009	2001
52	0	0	2009	1049	3010	1993
53	0	0	2008	1050	3011	1985
54	0	0	2022	1052	3013	1977
55	0	0	2020	1048	3014	1969
56	0	0	1993	1050	3015	1961
57	0	0	1972	1048	3015	1954
58	0	0	1964	1049	3014	1947
59	0	0	1971	1049	3012	1939
60	0	0	1989	1048	3010	1932
61	0	0	2012	1047	3010	1924
62	0	0	2026	1047	3010	1918
63	0	0	2019	1046	3011	1910
64	0	0	2012	1048	3012	1902
65	0	0	2012	1047	3015	1896
66	0	0	2023	1047	3015	1889
67	0	0	2031	1048	3015	1882
68	0	0	2029	1049	3015	1876
69	0	0	2041	1050	3012	1868
70	0	0	2061	1050	3011	1862
71	0	0	2081	1050	3009	1855
72	0	0	2084	1048	3010	1847
73	0	0	2068	1049	3012	1841
74	0	0	2063	1051	3013	1833
75	0	0	2069	1050	3014	1827
76	0	0	2084	1050	3016	1821
77	0	0	2087	1049	3015	1814
78	0	0	2087	1048	3015	1807
79	0	0	2059	1044	3013	1801
80	0	0	2015	1044	3010	1794
81	0	0	1990	1045	3010	1789
82	0	0	1985	1045	3010	1782
83	0	0	1987	1047	3011	1776
84	0	0	1995	1046	3014	1771
85	0	0	1987	1048	3015	1764
86	0	0	1984	1049	3015	1758
87	0	0	2006	1048	3017	1752
88	0	0	2022	1049	3016	1746
89	0	0	2031	1049	3014	1739
90	0	0	2060	1049	3011	1734
91	0	0	2087	1050	3009	1727
92	0	0	2093	1050	3011	1721
93	0	0	2095	1051	3010	1714
94	0	0	2100	1048	3014	1709
95	0	0	2114	1050	3015	1703
96	0	0	2096	1046	3015	1697
97	0	0	2050	1046	3015	1691
98	0	0	2014	1045	3014	1685
99	0	0	2010	1048	3013	1679
100	0	0	2015	1047	3010	1674
101	0	0	2034	1047	3009	1668
102	0	0	2035	1046	3009	1663
103	0	0	2027	1046	3011	1658
104	0	0	2031	1046	3012	1651
105	0	0	2042	1047	3015	1646
106	0	0	2038	1047	3016	1642
107	0	0	2022	1047	3016	1636
108	0	0	2026	1048	3015	1631
109	0	0	2054	1049	3013	1626
110	0	0	2077	1047	3011	1620
111	0	0	2090	1049	3009	1615
112	0	0	2088	1048	3010	1609
113	0	0	2052	1047	3011	1604
114	0	0	2012	1046	3014	1598
115	0	0	1991	1047	3014	1594
116	0	0	1994	1048	3015	1588
117	0	0	2002	1048	3015	1582
118	0	0	1998	1047	3014	1577
119	0	0	2001	1048	3012	1571
120	0	0	2019	1047	3010	1568
121	0	0	2009	1044	3007	1562
122	0	0	1981	1043	3011	1558
123	0	0	1955	1043	3011	1553
124	0	0	1944	1046	3012	1548
125	0	0	1963	1047	3015	1544
126	0	0	2004	1047	3015	1538
127	0	0	2042	1048	3016	1533
0	0	0	2065	1049	3014	1528
1	0	0	2069	1049	3013	1524
2	0	0	2059	1049	3011	1519
3	0	0	2040	1047	3009	1514
4	0	0	2012	1047	3009	1509
5	0	0	1998	1050	3011	1503
6	0	0	2028	1048	3013	1500
7	0	0	2060	1047	3015	1495
8	0	0	2056	1045	3016	1489
9	0	0	2034	1049	3015	1485
10	0	0	2013	1046	3014	1480
11	0	0	1999	1047	3013	1476
12	0	0	2006	1044	3010	1471
13	0	0	2012	1045	3009	1468
14	0	0	2021	1046	3010	1463
15	0	0	2039	1047	3010	1458
16	0	0	2052	1045	3012	1454
17	0	0	2047	1043	3014	1451
18	0	0	2048	1046	3015	1446
19	0	0	2044	1047	3016	1442
20	0	0	2037	1048	3015	1439
21	0	0	2034	1049	3013	1434
22	0	0	2031	1048	3011	1430
23	0	0	2028	1048	3008	1425
24	0	0	2027	1049	3010	1421
25	0	0	2017	1047	3011	1416
26	0	0	2001	1048	3013	1412
27	0	0	2001	1047	3014	1408
28	0	0	2016	1048	3015	1403
29	0	0	2018	1047	3015	1399
30	0	0	2016	1046	3014	1395
31	0	0	2023	1047	3011	1390
32	0	0	2051	1047	3009	1386
33	0	0	2076	1046	3008	1383
34	0	0	2079	1045	3009	1379
35	0	0	2066	1043	3011	1375
36	0	0	2041	1044	3013	1373
37	0	0	2024	1042	3015	1367
38	0	0	2004	1044	3016	1365
39	0	0	1978	1045	3015	1361
40	0	0	1969	1047	3015	1357
41	0	0	1982	1047	3013	1353
42	0	0	2012	1047	3010	1349
43	0	0	2053	1047	3009	1345
44	0	0	2091	1051	3009	1341
45	0	0	2090	1049	3011	1337
46	0	0	2075	1048	3012	1334
47	0	0	2059	1048	3015	1330
48	0	0	2059	1048	3015	1326
49	0	0	2068	1047	3015	1321
50	0	0	2089	1048	3013	1318
51	0	0	2103	1046	3011	1315
52	0	0	2092	1043	3010	1311
53	0	0	2053	1042	3009	1307
54	0	0	2030	1045	3010	1305
55	0	0	2028	1045	3011	1301
56	0	0	2015	1043	3012	1297
57	0	0	1994	1042	3014	1294
58	0	0	1980	1046	3015	1291
59	0	0	1987	1046	3015	1288
60	0	0	2012	1046	3014	1285
61	0	0	2036	1047	3012	1281
62	0	0	2051	1045	3010	1278
63	0	0	2058	1048	3009	1274
64	0	0	2060	1047	3010	1270
65	0	0	2077	1050	3010	1266
66	0	0	2101	1048	3012	1263
67	0	0	2114	1048	3015	1260
68	0	0	2108	1047	3016	1256
69	0	0	2080	1046	3015	1253
70	0	0	2066	1045	3014	1249
71	0	0	2065	1044	3012	1246
72	0	0	2070	1044	3010	1243
73	0	0	2057	1044	3008	1239
74	0	0	2060	1044	3011	1237
75	0	0	2082	1043	3011	1234
76	0	0	2080	1044	3012	1231
77	0	0	2049	1042	3015	1229
78	0	0	2029	1045	3015	1225
79	0	0	2025	1046	3015	1221
80	0	0	2023	1046	3014	1218
81	0	0	2034	1046	3012	1215
82	0	0	2059	1048	3011	1211
83	0	0	2098	1047	3010	1208
84	0	0	2123	1050	3009	1205
85	0	0	2131	1048	3011	1201
86	0	0	2113	1045	3014	1199
87	0	0	2082	1044	3014	1197
88	0	0	2065	1047	3016	1193
89	0	0	2072	1043	3015	1189
90	0	0	2075	1048	3014	1186
91	0	0	2052	1045	3012	1183
92	0	0	2035	1044	3010	1179
93	0	0	2044	1044	3007	1178
94	0	0	2073	1044	3011	1175
95	0	0	2099	1044	3012	1173
96	0	0	2099	1044	3012	1170
97	0	0	2088	1045	3015	1167
98	0	0	2080	1045	3015	1163
99	0	0	2083	1045	3015	1161
100	0	0	2076	1045	3015	1157
101	0	0	2071	1046	3012	1156
102	0	0	2094	1046	3011	1153
103	0	0	2109	1046	3009	1150
104	0	0	2107	1047	3009	1146
105	0	0	2120	1046	3011	1143
106	0	0	2151	1047	3012	1141
107	0	0	2181	1049	3015	1138
108	0	0	2177	1046	3015	1134
109	0	0	2145	1043	3016	1132
110	0	0	2117	1044	3015	1132
111	0	0	2106	1046	3012	1127
112	0	0	2101	1044	3010	1124
113	0	0	2112	1044	3008	1121
114	0	0	2121	1044	3009	1119
115	0	0	2113	1044	3010	1115
116	0	0	2112	1043	3012	1114
117	0	0	2105	1043	3014	1111
118	0	0	2123	1045	3015	1109
119	0	0	2142	1045	3015	1106
120	0	0	2146	1046	3014	1103
121	0	0	2131	1046	3012	1101
122	0	0	2108	1045	3011	1099
123	0	0	2092	1046	3009	1095
124	0	0	2090	1047	3009	1092
125	0	0	2096	1046	3011	1090
126	0	0	2110	1047	3012	1087
127	0	0	2123	1044	3014	1085
0	0	0	2132	1049	3015	1081
1	0	0	2144	1046	3015	1079
2	0	0	2150	1046	3014	1076
3	0	0	2150	1045	3012	1073
4	0	0	2155	1044	3010	1071
5	0	0	2166	1043	3011	1068
6	0	0	2178	1044	3009	1066
7	0	0	2184	1043	3011	1065
8	0	0	2183	1044	3012	1063
9	0	0	2185	1044	3014	1061
10	0	0	2184	1044	3015	1058
11	0	0	2156	1042	3015	1055
12	0	0	2126	1042	3014	1054
13	0	0	2107	1045	3012	1050
14	0	0	2114	1046	3011	1048
15	0	0	2140	1047	3010	1046
16	0	0	2164	1047	3009	1043
17	0	0	2206	1047	3011	1040
18	0	0	2244	1047	3013	1038
19	0	0	2250	1046	3014	1035
20	0	0	2240	1046	3015	1033
21	0	0	2216	1043	3014	1030
22	0	0	2201	1045	3014	1028
23	0	0	2197	1044	3013	1025
24	0	0	2177	1042	3009	1024
25	0	0	2173	1045	3009	1021
26	0	0	2157	1040	3009	1019
27	0	0	2134	1045	3010	1017
28	0	0	2147	1044	3012	1015
29	0	0	2177	1044	3014	1013
30	0	0	2167	1041	3015	1010
31	0	0	2134	1043	3015	1009
32	0	0	2122	1045	3015	1007
33	0	0	2112	1045	3012	1005
34	0	0	2118	1046	3010	1002
35	0	0	2130	1046	3009	1000
36	0	0	2155	1045	3011	997
37	0	0	2172	1047	3011	995
38	0	0	2191	1047	3013	993
39	0	0	2189	1047	3015	991
40	0	0	2179	1046	3015	988
41	0	0	2149	1040	3014	987
42	0	0	2098	1043	3013	983
43	0	0	2062	1041	3012	981
44	0	0	2045	1042	3009	979
45	0	0	2027	1041	3008	977
46	0	0	2018	1042	3009	975
47	0	0	2029	1042	3010	974
48	0	0	2057	1042	3012	971
49	0	0	2076	1044	3015	970
50	0	0	2069	1043	3015	968
51	0	0	2055	1044	3015	967
52	0	0	2063	1046	3014	964
53	0	0	2091	1045	3012	962
54	0	0	2079	1043	3009	961
55	0	0	2073	1046	3009	958
56	0	0	2067	1044	3009	955
57	0	0	2040	1046	3010	952
58	0	0	2017	1044	3012	950
59	0	0	2006	1045	3013	949
60	0	0	2005	1045	3014	946
61	0	0	1989	1044	3015	944
62	0	0	1975	1043	3014	943
63	0	0	1977	1044	3012	939
64	0	0	2001	1043	3010	939
65	0	0	2017	1043	3008	937
66	0	0	2032	1042	3009	934
67	0	0	2022	1043	3010	932
68	0	0	2010	1043	3013	932
69	0	0	2005	1043	3014	931
70	0	0	2009	1044	3015	928
71	0	0	2017	1045	3016	927
72	0	0	2018	1045	3015	925
73	0	0	2011	1045	3011	922
74	0	0	2010	1045	3009	921
75	0	0	2017	1045	3008	920
76	0	0	2024	1045	3009	917
77	0	0	2030	1047	3010	914
78	0	0	2014	1042	3013	913
79	0	0	1973	1043	3014	912
80	0	0	1930	1042	3015	909
81	0	0	1900	1043	3014	907
82	0	0	1909	1044	3014	905
83	0	0	1938	1043	3012	900
84	0	0	1947	1043	3009	900
85	0	0	1939	1043	3008	899
86	0	0	1945	1044	3010	898
87	0	0	1949	1042	3011	898
88	0	0	1946	1042	3012	895
89	0	0	1946	1043	3014	893
90	0	0	1939	1043	3015	891
91	0	0	1927	1042	3015	890
92	0	0	1925	1044	3014	889
93	0	0	1949	1045	3013	886
94	0	0	1989	1045	3010	885
95	0	0	2036	1046	3009	883
96	0	0	2075	1046	3010	881
97	0	0	2085	1045	3011	879
98	0	0	2071	1044	3012	876
99	0	0	2054	1045	3014	875
100	0	0	2040	1044	3014	873
101	0	0	2022	1045	3015	872
102	0	0	2005	1042	3013	870
103	0	0	1976	1040	3012	866
104	0	0	1944	1040	3010	866
105	0	0	1898	1040	3008	864
106	0	0	1845	1038	3008	863
107	0	0	1820	1041	3010	862
108	0	0	1841	1042	3013	860
109	0	0	1893	1042	3014	860
110	0	0	1957	1043	3015	857
111	0	0	2011	1043	3015	856
112	0	0	2052	1044	3014	854
113	0	0	2065	1044	3013	853
114	0	0	2057	1043	3010	851
115	0	0	2032	1044	3009	849
116	0	0	2012	1044	3008	849
117	0	0	2010	1044	3012	845
118	0	0	2034	1045	3012	842
119	0	0	2043	1045	3014	843
120	0	0	2032	1044	3014	841
121	0	0	2011	1042	3015	839
122	0	0	2003	1044	3015	837
123	0	0	1994	1042	3012	835
124	0	0	1980	1041	3010	834
125	0	0	1970	1041	3009	833
126	0	0	1953	1040	3008	831
127	0	0	1957	1042	3011	830
0	0	0	1967	1042	3012	827
1	0	0	1971	1041	3014	828
2	0	0	1989	1043	3015	825
3	0	0	2009	1042	3015	825
4	0	0	2012	1043	3014	823
5	0	0	2006	1045	3011	823
6	0	0	2008	1046	3010	821
7	0	0	2022	1046	3008	818
8	0	0	2043	1045	3009	816
9	0	0	2040	1044	3011	815
10	0	0	2006	1043	3013	813
11	0	0	1987	1046	3015	812
12	0	0	1982	1044	3014	810
13	0	0	1989	1044	3015	808
14	0	0	1996	1043	3014	806
15	0	0	1979	1041	3012	805
16	0	0	1951	1040	3010	804
17	0	0	1947	1042	3008	803
18	0	0	1967	1041	3009	800
19	0	0	1987	1041	3010	799
20	0	0	1961	1039	3011	799
21	0	0	1941	1040	3015	799
22	0	0	1947	1042	3015	799
23	0	0	1977	1043	3015	795
24	0	0	1997	1043	3015	794
25	0	0	1975	1041	3013	793
26	0	0	1948	1043	3010	791
27	0	0	1944	1044	3009	789
28	0	0	1972	1047	3007	787
29	0	0	2004	1044	3011	786
30	0	0	2015	1045	3012	783
31	0	0	2041	1045	3014	783
32	0	0	2058	1044	3014	781
33	0	0	2034	1040	3015	779
34	0	0	1995	1041	3015	779
35	0	0	1966	1041	3012	775
36	0	0	1972	1042	3010	775
37	0	0	1969	1040	3008	774
38	0	0	1942	1038	3009	774
39	0	0	1922	1040	3011	772
40	0	0	1924	1042	3013	771
41	0	0	1937	1041	3015	771
42	0	0	1965	1043	3015	770
43	0	0	1995	1042	3015	767
44	0	0	2020	1044	3015	766
45	0	0	2031	1044	3013	765
46	0	0	2031	1043	3009	764
47	0	0	2031	1044	3009	763
48	0	0	2033	1045	3009	760
49	0	0	2029	1045	3010	759
50	0	0	2024	1045	3012	757
51	0	0	2020	1043	3015	756
52	0	0	1998	1042	3015	755
53	0	0	1983	1044	3016	753
54	0	0	1987	1043	3015	752
55	0	0	2005	1043	3012	749
56	0	0	2024	1041	3008	749
57	0	0	2031	1041	3008	748
58	0	0	2018	1041	3009	736
59	0	0	2020	1041	3011	747
60	0	0	2036	1040	3012	747
61	0	0	2014	1037	3012	745
62	0	0	1968	1038	3015	743
63	0	0	1933	1039	3015	742
64	0	0	1934	1042	3013	742
65	0	0	1966	1043	3012	739
66	0	0	1999	1044	3010	738
67	0	0	2008	1044	3009	737
68	0	0	1993	1043	3009	735
69	0	0	1982	1044	3011	733
70	0	0	1985	1045	3012	733
71	0	0	1999	1043	3012	731
72	0	0	2016	1044	3015	729
73	0	0	2021	1045	3015	728
74	0	0	2028	1042	3015	726
75	0	0	2018	1041	3012	725
76	0	0	2002	1040	3008	724
77	0	0	1999	1040	3008	723
78	0	0	2014	1040	3009	722
79	0	0	2036	1039	3010	722
80	0	0	2015	1037	3012	722
81	0	0	1971	1037	3013	721
82	0	0	1957	1041	3015	719
83	0	0	1967	1043	3015	718
84	0	0	1987	1042	3015	716
85	0	0	1994	1043	3013	715
86	0	0	1998	1043	3010	713
87	0	0	2001	1044	3010	711
88	0	0	2006	1043	3009	711
89	0	0	1996	1044	3011	710
90	0	0	1987	1045	3013	709
91	0	0	1992	1044	3014	707
92	0	0	2001	1044	3015	706
93	0	0	2002	1044	3014	704
94	0	0	2009	1042	3015	703
95	0	0	2028	1041	3013	701
96	0	0	2051	1041	3009	701
97	0	0	2062	1040	3010	699
98	0	0	2027	1037	3008	697
99	0	0	1994	1038	3010	697
100	0	0	1978	1039	3012	695
101	0	0	1983	1039	3013	697
102	0	0	2002	1041	3015	697
103	0	0	2006	1043	3016	696
104	0	0	1998	1042	3015	694
105	0	0	2010	1042	3013	693
106	0	0	2030	1044	3009	691
107	0	0	2051	1043	3009	690
108	0	0	2051	1045	3009	688
109	0	0	2042	1044	3010	687
110	0	0	2042	1045	3013	684
111	0	0	2035	1044	3013	686
112	0	0	2019	1043	3015	685
113	0	0	2021	1043	3016	683
114	0	0	2033	1042	3015	681
115	0	0	2041	1041	3012	678
116	0	0	2052	1040	3010	679
117	0	0	2024	1037	3009	681
118	0	0	1971	1036	3010	676
119	0	0	1948	1038	3010	676
120	0	0	1945	1040	3013	675
121	0	0	1961	1042	3013	675
122	0	0	1995	1041	3015	674
123	0	0	2004	1041	3015	673
124	0	0	1985	1041	3014	672
125	0	0	1976	1043	3013	672
126	0	0	1975	1044	3007	671
127	0	0	1979	1044	3008	672
0	0	0	1996	1044	3009	668
1	0	0	2024	1045	3011	666
2	0	0	2041	1044	3014	665
3	0	0	2042	1044	3014	663
4	0	0	2034	1042	3015	663
5	0	0	1998	1040	3015	662
6	0	0	1978	1042	3015	663
7	0	0	1998	1040	3012	658
8	0	0	2028	1041	3010	657
9	0	0	2016	1037	3008	657
10	0	0	1987	1038	3009	656
11	0	0	2004	1040	3010	655
12	0	0	2032	1039	3012	654
13	0	0	2040	1040	3015	655
14	0	0	2058	1040	3015	654
15	0	0	2090	1040	3015	653
16	0	0	2105	1043	3014	652
17	0	0	2077	1040	3013	650
18	0	0	2029	1040	3010	650
19	0	0	1998	1041	3009	649
20	0	0	1993	1044	3009	648
21	0	0	2000	1044	3011	646
22	0	0	2006	1043	3013	645
23	0	0	2020	1043	3013	644
24	0	0	2039	1042	3016	643
25	0	0	2033	1042	3015	639
26	0	0	2029	1042	3014	641
27	0	0	2052	1041	3013	640
28	0	0	2055	1039	3009	638
29	0	0	2020	1035	3008	637
30	0	0	1977	1035	3010	636
31	0	0	1961	1038	3011	636
32	0	0	1957	1040	3013	636
33	0	0	1967	1040	3015	635
34	0	0	1985	1039	3015	634
35	0	0	2001	1041	3015	635
36	0	0	2020	1042	3014	633
37	0	0	2031	1043	3013	632
38	0	0	2034	1042	3010	630
39	0	0	2053	1043	3010	630
40	0	0	2059	1043	3009	628
41	0	0	2023	1042	3011	627
42	0	0	2000	1043	3013	628
43	0	0	2002	1043	3014	624
44	0	0	2017	1040	3015	624
45	0	0	2046	1042	3016	623
46	0	0	2044	1039	3015	622
47	0	0	2008	1039	3013	620
48	0	0	1980	1037	3010	618
49	0	0	1965	1037	3009	619
50	0	0	1979	1039	3010	621
51	0	0	2010	1038	3011	618
52	0	0	2020	1039	3013	616
53	0	0	2034	1040	3015	618
54	0	0	2046	1039	3015	616
55	0	0	2044	1040	3016	615
56	0	0	2018	1039	3016	613
57	0	0	2001	1041	3014	616
58	0	0	2019	1043	3010	612
59	0	0	2073	1042	3009	611
60	0	0	2099	1046	3009	613
61	0	0	2075	1042	3011	610
62	0	0	2038	1040	3012	606
63	0	0	1998	1040	3013	606
64	0	0	1966	1040	3016	606
65	0	0	1958	1039	3015	604
66	0	0	1970	1042	3014	604
67	0	0	1988	1041	3013	606
68	0	0	1996	1039	3009	602
69	0	0	1989	1037	3008	602
70	0	0	1978	1039	3010	600
71	0	0	1986	1039	3012	600
72	0	0	1986	1038	3013	604
73	0	0	1977	1039	3014	600
74	0	0	1972	1039	3015	599
75	0	0	1982	1039	3016	599
76	0	0	2001	1042	3015	598
77	0	0	1998	1043	3014	597
78	0	0	1998	1042	3009	596
79	0	0	2020	1043	3009	594
80	0	0	2067	1046	3009	595
81	0	0	2111	1045	3012	593
82	0	0	2124	1044	3013	591
83	0	0	2117	1042	3014	590
84	0	0	2086	1040	3016	590
85	0	0	2045	1037	3016	588
86	0	0	2023	1040	3015	588
87	0	0	2007	1038	3012	590
88	0	0	2003	1040	3011	586
89	0	0	2011	1039	3009	586
90	0	0	2030	1038	3010	585
91	0	0	2053	1039	3012	584
92	0	0	2033	1036	3013	586
93	0	0	1999	1036	3015	583
94	0	0	1990	1039	3015	580
95	0	0	2019	1040	3015	583
96	0	0	2049	1042	3015	582
97	0	0	2046	1041	3013	580
98	0	0	2025	1041	3010	580
99	0	0	2013	1042	3009	579
100	0	0	2006	1044	3009	579
101	0	0	1999	1045	3012	577
102	0	0	1999	1043	3013	575
103	0	0	2002	1042	3014	575
104	0	0	1995	1042	3015	573
105	0	0	1978	1043	3015	573
106	0	0	1972	1043	3015	571
107	0	0	1983	1040	3012	570
108	0	0	1995	1039	3010	571
109	0	0	1995	1038	3010	569
110	0	0	1972	1037	3010	570
111	0	0	1968	1039	3011	569
112	0	0	1990	1038	3013	571
113	0	0	2027	1039	3014	567
114	0	0	2076	1037	3015	568
115	0	0	2103	1040	3016	568
116	0	0	2095	1040	3016	569
117	0	0	2074	1040	3012	567
118	0	0	2077	1042	3010	564
119	0	0	2099	1042	3009	563
120	0	0	2111	1046	3009	563
121	0	0	2101	1042	3011	561
122	0	0	2071	1040	3013	560
123	0	0	2043	1041	3014	559
124	0	0	2050	1042	3015	559
125	0	0	2071	1042	3015	558
126	0	0	2069	1041	3015	557
127	0	0	2045	1037	3013	557
0	0	0	2027	1039	3011	555
1	0	0	2009	1037	3009	554
2	0	0	1972	1035	3009	551
3	0	0	1924	1034	3012	554
4	0	0	1903	1037	3013	551
5	0	0	1907	1038	3014	553
6	0	0	1940	1039	3016	553
7	0	0	1976	1040	3016	552
8	0	0	2005	1041	3016	551
9	0	0	2041	1041	3013	551
10	0	0	2066	1042	3011	550
11	0	0	2051	1039	3009	548
12	0	0	2015	1039	3010	548
13	0	0	1988	1041	3011	545
14	0	0	1989	1043	3014	545
15	0	0	2014	1043	3014	545
16	0	0	2048	1041	3015	544
17	0	0	2059	1040	3015	543
18	0	0	2054	1040	3014	542
19	0	0	2043	1038	3013	541
20	0	0	2027	1038	3010	539
21	0	0	2021	1039	3008	540
22	0	0	2010	1035	3009	539
23	0	0	1987	1036	3011	538
24	0	0	1987	1036	3013	539
25	0	0	2009	1039	3014	539
26	0	0	2022	1039	3015	538
27	0	0	2016	1039	3015	538
28	0	0	2002	1040	3015	538
29	0	0	2009	1041	3014	538
30	0	0	2019	1041	3008	535
31	0	0	2028	1042	3010	534
32	0	0	2055	1041	3011	535
33	0	0	2082	1042	3011	533
34	0	0	2088	1042	3013	532
35	0	0	2085	1041	3015	532
36	0	0	2069	1039	3016	531
37	0	0	2039	1035	3015	528
38	0	0	2004	1035	3015	529
39	0	0	1986	1039	3012	526
40	0	0	1999	1038	3010	526
41	0	0	2015	1037	3009	527
42	0	0	2009	1037	3009	527
43	0	0	2009	1036	3011	526
44	0	0	2030	1037	3013	523
45	0	0	2063	1037	3015	525
46	0	0	2100	1038	3015	525
47	0	0	2119	1040	3015	525
48	0	0	2122	1039	3014	525
49	0	0	2097	1037	3013	521
50	0	0	2065	1039	3011	523
51	0	0	2037	1039	3010	521
52	0	0	2008	1042	3010	518
53	0	0	1993	1041	3011	519
54	0	0	2000	1042	3012	519
55	0	0	2008	1041	3015	520
56	0	0	1995	1039	3015	517
57	0	0	1989	1040	3014	518
58	0	0	1996	1039	3014	515
59	0	0	2020	1038	3013	514
60	0	0	2049	1038	3010	512
61	0	0	2042	1036	3009	514
62	0	0	2007	1034	3008	515
63	0	0	1974	1034	3010	515
64	0	0	1978	1036	3013	513
65	0	0	1978	1038	3014	510
66	0	0	1976	1038	3015	512
67	0	0	1987	1039	3015	514
68	0	0	2023	1041	3016	512
69	0	0	2044	1040	3012	510
70	0	0	2059	1041	3011	509
71	0	0	2094	1041	3009	509
72	0	0	2115	1042	3010	507
73	0	0	2090	1036	3011	505
74	0	0	2054	1039	3013	503
75	0	0	2035	1041	3013	504
76	0	0	2040	1040	3015	504
77	0	0	2052	1041	3015	503
78	0	0	2061	1037	3015	502
79	0	0	2042	1036	3013	500
80	0	0	2013	1035	3010	499
81	0	0	1975	1034	3009	500
82	0	0	1953	1036	3009	500
83	0	0	1952	1034	3011	501
84	0	0	1962	1037	3013	501
85	0	0	1966	1037	3014	498
86	0	0	1980	1039	3016	499
87	0	0	1991	1038	3015	498
88	0	0	1990	1036	3015	497
89	0	0	2007	1040	3013	499
90	0	0	2031	1040	3010	496
91	0	0	2020	1039	3009	496
92	0	0	2012	1041	3010	493
93	0	0	2027	1039	3011	493
94	0	0	2035	1041	3013	494
95	0	0	2038	1041	3013	491
96	0	0	2029	1040	3015	492
97	0	0	2019	1040	3015	491
98	0	0	2029	1038	3014	491
99	0	0	2051	1037	3013	491
100	0	0	2074	1036	3011	489
101	0	0	2080	1035	3008	488
102	0	0	2060	1034	3010	488
103	0	0	2032	1034	3011	488
104	0	0	2017	1038	3013	490
105	0	0	2018	1037	3014	488
106	0	0	2009	1038	3017	489
107	0	0	2006	1039	3015	487
108	0	0	2025	1039	3015	487
109	0	0	2045	1040	3014	487
110	0	0	2056	1041	3011	484
111	0	0	2066	1041	3009	484
112	0	0	2062	1041	3010	484
113	0	0	2053	1039	3011	481
114	0	0	2054	1041	3013	483
115	0	0	2063	1042	3015	481
116	0	0	2062	1040	3015	481
117	0	0	2057	1039	3016	480
118	0	0	2066	1036	3015	479
119	0	0	2060	1038	3013	478
120	0	0	2060	1037	3010	477
121	0	0	2035	1034	3008	478
122	0	0	2025	1037	3009	477
123	0	0	2029	1035	3010	478
124	0	0	2009	1036	3013	480
125	0	0	2007	1037	3014	476
126	0	0	2043	1037	3015	477
127	0	0	2072	1038	3015	476
0	0	0	2063	1038	3015	475
1	0	0	2059	1040	3014	474
2	0	0	2060	1040	3010	476
3	0	0	2048	1040	3010	474
4	0	0	2045	1039	3010	472
5	0	0	2066	1040	3011	472
6	0	0	2076	1041	3013	471
7	0	0	2074	1041	3013	471
8	0	0	2086	1041	3015	470
9	0	0	2103	1040	3016	468
10	0	0	2101	1038	3014	469
11	0	0	2074	1036	3013	468
12	0	0	2064	1037	3009	469
13	0	0	2051	1034	3008	467
14	0	0	2027	1033	3009	467
15	0	0	2012	1037	3010	464
16	0	0	2021	1036	3013	470
17	0	0	2033	1037	3014	464
18	0	0	2042	1037	3016	467
19	0	0	2046	1040	3016	467
20	0	0	2054	1039	3015	465
21	0	0	2056	1040	3014	465
22	0	0	2066	1039	3011	463
23	0	0	2078	1042	3009	463
24	0	0	2085	1041	3010	461
