# bioPlux Text File Format
# Version: 1
# StartDateTime: 2011-07-18 11:46:33
# SamplingFrequency: 1000
# SampledChannels: 1 2 3 4 5
# SamplingResolution: 12
# AcquiringDevice: 00:07:80:42:0F:95
# EndOfHeader
0	0	0	670	4	185	402	2770
1	0	0	615	4	184	402	2768
2	0	0	588	5	184	402	2769
3	0	0	573	5	183	402	2770
4	0	0	567	5	184	403	2772
5	0	0	565	5	185	402	2774
6	0	0	1962	5	184	402	2775
7	0	0	3030	5	184	402	2776
8	0	0	3663	5	183	402	2775
9	0	0	4042	5	184	402	2773
10	0	0	4091	5	184	402	2769
11	0	0	4092	5	184	402	2768
12	0	0	4091	4	184	402	2768
13	0	0	4091	6	184	402	2770
14	0	0	4091	5	184	402	2771
15	0	0	2922	4	184	402	2773
16	0	0	1903	3	183	402	2775
17	0	0	1307	3	184	402	2776
18	0	0	964	4	183	403	2776
19	0	0	768	4	184	402	2773
20	0	0	657	4	183	402	2770
21	0	0	602	4	184	402	2769
22	0	0	574	4	184	402	2769
23	0	0	558	5	184	402	2770
24	0	0	551	5	183	402	2771
25	0	0	550	5	184	402	2774
26	0	0	1983	5	183	402	2776
27	0	0	3035	5	183	402	2776
28	0	0	3668	5	183	403	2776
29	0	0	4038	5	184	402	2773
30	0	0	4091	5	183	402	2769
31	0	0	4092	5	185	402	2767
32	0	0	4091	5	183	402	2768
33	0	0	4091	5	184	402	2770
34	0	0	4092	4	184	403	2772
35	0	0	2959	4	185	402	2773
36	0	0	1917	3	184	402	2775
37	0	0	1314	3	183	402	2776
38	0	0	961	4	183	402	2776
39	0	0	758	4	184	402	2773
40	0	0	646	4	184	402	2770
41	0	0	588	4	183	402	2768
42	0	0	559	4	184	402	2769
43	0	0	544	5	184	402	2770
44	0	0	536	5	184	402	2771
45	0	0	535	5	185	402	2774
46	0	0	1987	5	184	403	2776
47	0	0	3030	5	184	402	2776
48	0	0	3651	5	184	402	2775
49	0	0	4026	5	185	402	2773
50	0	0	4091	5	184	402	2769
51	0	0	4091	5	184	402	2768
52	0	0	4092	5	184	403	2768
53	0	0	4091	5	185	402	2769
54	0	0	4091	4	184	402	2771
55	0	0	3048	4	184	402	2773
56	0	0	1961	4	184	402	2775
57	0	0	1328	4	183	403	2776
58	0	0	962	4	184	403	2776
59	0	0	755	3	185	402	2773
60	0	0	637	3	184	402	2770
61	0	0	576	4	183	402	2768
62	0	0	546	5	183	402	2768
63	0	0	529	5	184	402	2769
64	0	0	522	5	184	402	2771
65	0	0	520	5	184	402	2773
66	0	0	2009	5	184	402	2775
67	0	0	3049	5	184	402	2776
68	0	0	3655	5	184	402	2775
69	0	0	4019	5	183	402	2773
70	0	0	4091	5	184	402	2770
71	0	0	4092	5	184	402	2768
72	0	0	4091	5	184	402	2768
73	0	0	4091	5	184	402	2769
74	0	0	4091	6	184	403	2771
75	0	0	3035	4	185	402	2773
76	0	0	1948	4	184	402	2775
77	0	0	1321	4	184	402	2776
78	0	0	948	4	184	402	2775
79	0	0	739	4	184	402	2773
80	0	0	623	4	185	402	2769
81	0	0	561	4	184	402	2768
82	0	0	532	5	184	402	2768
83	0	0	514	5	183	402	2769
84	0	0	506	5	184	402	2772
85	0	0	505	4	184	402	2773
86	0	0	2038	5	185	402	2775
87	0	0	3048	3	183	402	2776
88	0	0	3651	5	183	402	2776
89	0	0	4013	6	184	402	2773
90	0	0	4091	5	183	402	2769
91	0	0	4092	5	185	402	2767
92	0	0	4091	4	183	402	2768
93	0	0	4091	5	184	402	2769
94	0	0	4091	5	184	402	2771
95	0	0	3104	4	184	402	2773
96	0	0	1969	4	184	403	2775
97	0	0	1326	3	183	402	2776
98	0	0	949	4	184	402	2774
99	0	0	735	4	183	403	2773
100	0	0	612	3	183	403	2769
101	0	0	549	4	184	402	2768
102	0	0	518	4	184	402	2768
103	0	0	500	5	184	402	2769
104	0	0	492	5	184	402	2771
105	0	0	492	5	185	402	2773
106	0	0	2034	5	183	402	2775
107	0	0	3040	4	184	402	2776
108	0	0	3647	5	184	402	2775
109	0	0	4002	5	184	402	2772
110	0	0	4091	6	184	402	2769
111	0	0	4092	5	184	402	2768
112	0	0	4091	4	184	403	2768
113	0	0	4091	5	184	402	2769
114	0	0	4092	5	184	402	2771
115	0	0	3139	4	184	401	2773
116	0	0	1991	4	184	403	2774
117	0	0	1333	4	184	402	2775
118	0	0	948	4	184	402	2775
119	0	0	726	4	184	402	2772
120	0	0	602	4	183	403	2769
121	0	0	537	4	182	402	2768
122	0	0	505	4	184	402	2768
123	0	0	486	5	183	402	2769
124	0	0	479	5	184	402	2771
125	0	0	477	4	184	403	2773
126	0	0	2010	5	184	402	2775
127	0	0	3020	4	184	402	2775
0	0	0	3621	5	184	402	2774
1	0	0	3986	5	184	402	2772
2	0	0	4091	5	185	402	2769
3	0	0	4092	5	184	402	2767
4	0	0	4091	5	185	402	2767
5	0	0	4091	5	183	402	2768
6	0	0	4091	4	184	402	2771
7	0	0	3133	4	185	402	2773
8	0	0	1981	3	186	402	2774
9	0	0	1317	4	184	402	2775
10	0	0	933	4	184	402	2774
11	0	0	713	4	184	402	2772
12	0	0	588	4	184	402	2769
13	0	0	524	4	182	402	2768
14	0	0	492	5	183	402	2768
15	0	0	474	5	184	402	2769
16	0	0	468	5	184	403	2771
17	0	0	464	5	184	402	2773
18	0	0	2056	5	184	403	2775
19	0	0	3050	4	183	402	2775
20	0	0	3636	5	184	403	2775
21	0	0	3985	6	184	402	2772
22	0	0	4091	5	184	402	2769
23	0	0	4092	5	185	402	2767
24	0	0	4091	5	183	402	2767
25	0	0	4091	5	185	402	2768
26	0	0	4091	4	184	402	2770
27	0	0	3128	4	184	403	2773
28	0	0	1973	4	185	402	2774
29	0	0	1312	3	184	402	2776
30	0	0	921	4	183	402	2774
31	0	0	701	4	183	402	2773
32	0	0	577	3	183	401	2769
33	0	0	512	4	184	402	2767
34	0	0	480	5	184	402	2768
35	0	0	461	5	184	403	2768
36	0	0	454	5	183	402	2771
37	0	0	453	5	185	402	2773
38	0	0	2059	5	185	402	2774
39	0	0	3037	5	183	402	2775
40	0	0	3623	5	183	402	2775
41	0	0	3975	5	184	402	2772
42	0	0	4091	6	184	402	2768
43	0	0	4092	5	185	402	2766
44	0	0	4091	5	184	403	2767
45	0	0	4091	5	184	402	2768
46	0	0	4091	4	184	402	2770
47	0	0	3228	4	184	404	2772
48	0	0	2010	4	184	402	2774
49	0	0	1329	4	184	403	2775
50	0	0	929	3	184	402	2774
51	0	0	699	4	184	402	2773
52	0	0	570	3	184	402	2769
53	0	0	501	3	185	402	2767
54	0	0	468	5	184	403	2768
55	0	0	449	5	185	402	2768
56	0	0	442	5	183	402	2770
57	0	0	438	5	184	402	2773
58	0	0	2097	5	184	402	2775
59	0	0	3063	5	183	402	2775
60	0	0	3633	5	185	402	2774
61	0	0	3973	5	184	402	2772
62	0	0	4091	5	185	404	2768
63	0	0	4092	5	185	402	2767
64	0	0	4091	5	184	403	2767
65	0	0	4091	5	184	402	2768
66	0	0	4092	5	183	402	2771
67	0	0	3180	4	183	403	2772
68	0	0	1990	4	185	402	2774
69	0	0	1311	4	184	402	2775
70	0	0	910	4	184	402	2774
71	0	0	683	4	184	402	2772
72	0	0	556	4	184	402	2769
73	0	0	488	4	184	403	2767
74	0	0	455	5	184	402	2767
75	0	0	436	5	184	402	2768
76	0	0	429	5	184	402	2770
77	0	0	427	5	183	403	2772
78	0	0	2087	5	185	402	2774
79	0	0	3044	5	184	402	2775
80	0	0	3615	5	183	402	2774
81	0	0	3961	5	184	402	2772
82	0	0	4092	5	184	402	2768
83	0	0	4091	5	184	402	2767
84	0	0	4093	5	184	402	2767
85	0	0	4091	5	184	402	2768
86	0	0	4091	4	185	403	2770
87	0	0	3254	4	183	402	2772
88	0	0	2024	4	184	402	2774
89	0	0	1320	4	184	402	2775
90	0	0	914	4	184	402	2774
91	0	0	680	4	184	403	2772
92	0	0	547	4	184	402	2769
93	0	0	478	4	184	402	2767
94	0	0	444	5	184	402	2767
95	0	0	425	5	183	402	2768
96	0	0	416	5	183	402	2770
97	0	0	414	5	184	403	2772
98	0	0	2100	5	184	402	2774
99	0	0	3054	5	184	402	2775
100	0	0	3617	6	184	403	2774
101	0	0	3955	5	184	402	2772
102	0	0	4092	5	184	403	2768
103	0	0	4091	5	185	402	2766
104	0	0	4092	5	184	402	2767
105	0	0	4091	5	184	402	2768
106	0	0	4091	4	184	402	2770
107	0	0	3280	4	184	402	2772
108	0	0	2031	4	185	402	2774
109	0	0	1326	3	184	402	2775
110	0	0	908	4	183	403	2775
111	0	0	671	4	184	402	2772
112	0	0	538	5	183	402	2768
113	0	0	468	4	183	402	2767
114	0	0	433	5	184	402	2768
115	0	0	413	5	184	402	2768
116	0	0	404	5	184	402	2770
117	0	0	405	5	184	402	2772
118	0	0	2134	5	184	402	2774
119	0	0	3061	5	184	402	2775
120	0	0	3617	5	184	402	2774
121	0	0	3952	5	183	402	2772
122	0	0	4091	5	184	402	2768
123	0	0	4092	5	184	402	2767
124	0	0	4091	5	184	403	2767
125	0	0	4091	5	184	402	2768
126	0	0	4091	4	184	402	2771
127	0	0	3244	4	184	401	2772
0	0	0	1995	4	184	402	2774
1	0	0	1299	4	184	402	2775
2	0	0	891	4	183	402	2774
3	0	0	657	4	183	402	2772
4	0	0	524	5	184	401	2769
5	0	0	454	4	183	402	2767
6	0	0	421	5	183	402	2767
7	0	0	401	5	184	402	2768
8	0	0	393	5	183	402	2770
9	0	0	398	5	183	402	2772
10	0	0	2130	5	184	402	2774
11	0	0	3062	5	183	402	2775
12	0	0	3614	5	183	402	2774
13	0	0	3943	6	184	402	2772
14	0	0	4092	5	184	403	2768
15	0	0	4092	5	185	402	2767
16	0	0	4091	5	184	402	2767
17	0	0	4091	5	184	402	2768
18	0	0	4091	4	184	402	2770
19	0	0	3346	4	184	402	2772
20	0	0	2057	4	185	402	2774
21	0	0	1330	4	184	402	2775
22	0	0	900	4	184	402	2774
23	0	0	657	4	184	402	2772
24	0	0	520	4	185	402	2768
25	0	0	446	4	184	402	2767
26	0	0	411	5	184	403	2767
27	0	0	391	5	184	402	2768
28	0	0	382	5	185	402	2770
29	0	0	377	5	183	402	2772
30	0	0	2100	5	183	402	2774
31	0	0	3031	5	183	402	2774
32	0	0	3591	5	184	403	2774
33	0	0	3927	5	184	402	2772
34	0	0	4092	5	184	402	2768
35	0	0	4091	5	183	402	2766
36	0	0	4091	5	183	402	2767
37	0	0	4091	5	185	402	2768
38	0	0	4091	4	183	402	2770
39	0	0	3393	3	185	402	2772
40	0	0	2064	4	183	402	2774
41	0	0	1329	4	183	402	2774
42	0	0	899	4	184	402	2774
43	0	0	651	3	184	402	2771
44	0	0	510	3	185	402	2768
45	0	0	436	4	185	402	2767
46	0	0	401	5	184	403	2767
47	0	0	380	5	184	402	2768
48	0	0	370	5	184	402	2771
49	0	0	394	5	183	402	2772
50	0	0	2125	5	184	402	2774
51	0	0	3051	5	184	402	2775
52	0	0	3596	5	183	402	2774
53	0	0	3923	4	183	402	2772
54	0	0	4092	5	184	402	2768
55	0	0	4092	5	185	402	2766
56	0	0	4092	5	184	402	2767
57	0	0	4091	5	183	403	2767
58	0	0	4092	5	183	402	2770
59	0	0	3412	4	183	402	2772
60	0	0	2079	4	184	402	2774
61	0	0	1333	4	184	402	2774
62	0	0	893	4	184	402	2774
63	0	0	643	4	183	402	2772
64	0	0	502	3	184	402	2768
65	0	0	426	4	185	402	2767
66	0	0	389	5	184	402	2767
67	0	0	369	5	183	402	2768
68	0	0	360	5	184	402	2770
69	0	0	386	4	184	402	2772
70	0	0	2117	5	184	402	2773
71	0	0	3031	5	185	402	2774
72	0	0	3585	5	185	402	2774
73	0	0	3913	5	183	402	2772
74	0	0	4092	5	184	403	2768
75	0	0	4092	5	184	401	2766
76	0	0	4093	5	184	402	2767
77	0	0	4092	5	185	402	2767
78	0	0	4092	4	184	402	2770
79	0	0	3483	4	185	402	2772
80	0	0	2108	4	184	402	2773
81	0	0	1346	4	183	402	2775
82	0	0	900	4	184	402	2774
83	0	0	640	4	184	402	2772
84	0	0	495	4	184	402	2769
85	0	0	418	4	184	401	2766
86	0	0	380	5	183	402	2767
87	0	0	359	4	184	402	2768
88	0	0	349	5	184	402	2769
89	0	0	371	4	184	402	2771
90	0	0	2114	5	183	402	2773
91	0	0	3026	5	184	402	2774
92	0	0	3573	5	184	402	2773
93	0	0	3900	5	184	402	2771
94	0	0	4090	5	184	402	2767
95	0	0	4091	5	183	401	2766
96	0	0	4092	5	184	402	2767
97	0	0	4091	5	183	402	2767
98	0	0	4092	4	184	402	2770
99	0	0	3479	4	184	402	2772
100	0	0	2101	4	185	401	2773
101	0	0	1330	4	184	402	2775
102	0	0	886	4	184	402	2773
103	0	0	630	4	184	402	2771
104	0	0	485	4	184	402	2768
105	0	0	407	4	184	402	2766
106	0	0	370	5	183	402	2767
107	0	0	348	6	184	401	2767
108	0	0	339	5	185	402	2769
109	0	0	390	4	184	402	2771
110	0	0	2113	5	184	402	2773
111	0	0	3022	5	183	402	2774
112	0	0	3571	5	184	402	2773
113	0	0	3895	5	184	402	2772
114	0	0	4087	5	183	404	2768
115	0	0	4092	5	184	402	2766
116	0	0	4092	5	184	402	2767
117	0	0	4091	5	184	402	2767
118	0	0	4091	5	184	402	2769
119	0	0	3544	4	185	402	2772
120	0	0	2129	4	185	402	2773
121	0	0	1348	3	183	402	2774
122	0	0	893	3	184	402	2773
123	0	0	626	4	184	402	2771
124	0	0	479	4	184	402	2768
125	0	0	399	4	184	403	2767
126	0	0	360	5	183	402	2766
127	0	0	338	5	184	402	2768
0	0	0	329	4	183	402	2769
1	0	0	442	5	184	402	2771
2	0	0	2150	5	184	401	2773
3	0	0	3039	5	183	402	2774
4	0	0	3572	5	184	402	2773
5	0	0	3895	5	184	403	2771
6	0	0	4080	5	184	402	2767
7	0	0	4092	5	185	402	2766
8	0	0	4091	5	186	402	2766
9	0	0	4091	5	185	402	2767
10	0	0	4091	4	184	402	2769
11	0	0	3519	4	184	402	2772
12	0	0	2112	4	184	402	2774
13	0	0	1326	4	183	402	2774
14	0	0	876	3	184	402	2774
15	0	0	615	4	184	402	2771
16	0	0	466	4	183	402	2768
17	0	0	388	4	184	401	2766
18	0	0	350	5	185	402	2767
19	0	0	327	5	184	402	2767
20	0	0	318	5	183	402	2770
21	0	0	645	5	184	402	2771
22	0	0	2227	5	184	402	2773
23	0	0	3081	5	184	402	2774
24	0	0	3600	5	183	402	2774
25	0	0	3903	5	184	402	2771
26	0	0	4080	5	184	402	2767
27	0	0	4092	5	183	401	2766
28	0	0	4091	5	185	402	2766
29	0	0	4091	5	184	402	2767
30	0	0	4091	4	183	402	2770
31	0	0	3242	4	185	402	2772
32	0	0	1965	4	185	402	2773
33	0	0	1246	4	185	402	2774
34	0	0	820	3	184	402	2773
35	0	0	579	4	183	402	2771
36	0	0	443	4	184	402	2768
37	0	0	371	4	184	402	2766
38	0	0	336	5	183	402	2766
39	0	0	316	5	184	402	2768
40	0	0	309	4	184	402	2769
41	0	0	716	5	183	402	2771
42	0	0	2267	5	184	402	2773
43	0	0	3101	5	184	402	2774
44	0	0	3603	5	184	402	2773
45	0	0	3904	5	183	402	2771
46	0	0	4080	5	184	403	2767
47	0	0	4092	5	184	402	2765
48	0	0	4091	5	184	402	2766
49	0	0	4091	5	185	402	2767
50	0	0	4091	4	184	402	2769
51	0	0	3708	4	184	402	2772
52	0	0	2179	4	183	402	2773
53	0	0	1365	4	185	402	2774
54	0	0	888	4	184	402	2773
55	0	0	614	3	184	402	2771
56	0	0	456	4	182	402	2768
57	0	0	373	4	184	403	2766
58	0	0	332	5	184	402	2767
59	0	0	309	4	184	402	2767
60	0	0	299	5	183	402	2769
61	0	0	676	5	184	402	2771
62	0	0	2230	5	184	402	2773
63	0	0	3083	5	185	402	2774
64	0	0	3586	5	184	402	2773
65	0	0	3887	5	183	402	2771
66	0	0	4064	5	184	402	2767
67	0	0	4092	5	185	402	2765
68	0	0	4091	5	184	402	2766
69	0	0	4091	5	184	402	2767
70	0	0	4091	4	184	402	2769
71	0	0	3625	4	184	402	2771
72	0	0	2145	4	184	402	2773
73	0	0	1341	4	184	402	2774
74	0	0	867	4	184	402	2773
75	0	0	596	4	185	402	2771
76	0	0	444	4	184	402	2768
77	0	0	361	4	184	402	2766
78	0	0	320	5	183	402	2766
79	0	0	298	5	183	402	2768
80	0	0	288	4	184	402	2769
81	0	0	665	5	183	402	2771
82	0	0	2219	5	184	402	2773
83	0	0	3062	5	184	402	2774
84	0	0	3570	5	184	402	2773
85	0	0	3876	5	185	402	2771
86	0	0	4052	5	185	402	2767
87	0	0	4091	5	184	402	2766
88	0	0	4092	5	183	402	2766
89	0	0	4091	5	184	402	2767
90	0	0	4091	5	183	402	2770
91	0	0	3719	4	183	402	2771
92	0	0	2171	4	184	403	2773
93	0	0	1352	4	184	402	2774
94	0	0	872	4	184	402	2773
95	0	0	596	3	184	402	2771
96	0	0	437	4	184	402	2768
97	0	0	352	4	184	402	2766
98	0	0	312	5	183	402	2766
99	0	0	288	5	184	402	2768
100	0	0	279	4	183	402	2769
101	0	0	558	5	183	402	2771
102	0	0	2166	5	183	402	2773
103	0	0	3035	5	183	402	2774
104	0	0	3550	5	183	402	2773
105	0	0	3857	5	185	402	2771
106	0	0	4036	5	183	402	2767
107	0	0	4092	5	184	402	2766
108	0	0	4091	5	183	402	2766
109	0	0	4091	4	183	402	2767
110	0	0	4091	4	184	402	2769
111	0	0	3739	4	183	402	2771
112	0	0	2187	4	184	402	2773
113	0	0	1357	4	183	402	2774
114	0	0	869	4	184	402	2773
115	0	0	589	4	184	402	2771
116	0	0	431	4	183	402	2767
117	0	0	345	4	183	402	2766
118	0	0	303	4	183	402	2766
119	0	0	280	5	183	402	2767
120	0	0	269	4	184	402	2769
121	0	0	400	4	183	403	2771
122	0	0	2090	5	184	402	2773
123	0	0	2979	5	183	402	2774
124	0	0	3512	5	184	402	2773
125	0	0	3835	5	185	402	2771
126	0	0	4020	5	184	402	2767
127	0	0	4092	5	185	402	2765
0	0	0	4091	5	184	402	2766
1	0	0	4092	5	183	402	2767
2	0	0	4092	4	185	402	2769
3	0	0	4090	3	184	402	2771
4	0	0	2278	4	185	402	2773
5	0	0	1407	3	184	402	2774
6	0	0	897	4	183	402	2773
7	0	0	602	4	185	402	2771
8	0	0	432	4	183	402	2767
9	0	0	342	4	185	402	2766
10	0	0	298	5	184	402	2766
11	0	0	271	5	184	402	2767
12	0	0	260	5	184	402	2768
13	0	0	309	5	184	402	2771
14	0	0	2039	5	183	402	2772
15	0	0	2954	5	183	401	2773
16	0	0	3494	5	184	402	2773
17	0	0	3818	5	184	402	2771
18	0	0	4008	5	185	402	2767
19	0	0	4092	5	184	402	2766
20	0	0	4091	5	183	402	2766
21	0	0	4092	5	185	402	2767
22	0	0	4092	5	185	402	2768
23	0	0	4092	4	184	402	2771
24	0	0	2359	4	184	403	2773
25	0	0	1450	4	183	402	2773
26	0	0	914	4	184	402	2772
27	0	0	608	3	185	402	2771
28	0	0	433	4	184	402	2767
29	0	0	337	3	184	402	2766
30	0	0	292	5	183	402	2766
31	0	0	264	5	183	402	2767
32	0	0	252	5	183	402	2769
33	0	0	324	5	184	402	2771
34	0	0	2042	5	183	402	2772
35	0	0	2943	5	183	402	2773
36	0	0	3490	5	184	402	2772
37	0	0	3811	4	183	402	2771
38	0	0	3999	5	184	402	2767
39	0	0	4092	5	185	402	2765
40	0	0	4091	5	183	402	2766
41	0	0	4091	5	184	402	2767
42	0	0	4092	4	184	402	2769
43	0	0	4092	4	183	402	2771
44	0	0	2332	3	184	403	2773
45	0	0	1430	4	184	402	2774
46	0	0	899	4	183	402	2773
47	0	0	595	4	183	402	2771
48	0	0	422	3	183	402	2767
49	0	0	327	4	184	402	2766
50	0	0	282	5	183	402	2766
51	0	0	255	5	184	402	2767
52	0	0	243	7	183	402	2769
53	0	0	327	4	183	402	2771
54	0	0	2042	5	183	402	2773
55	0	0	2940	5	182	402	2773
56	0	0	3480	5	184	402	2773
57	0	0	3805	6	184	402	2770
58	0	0	3992	5	184	402	2767
59	0	0	4091	5	184	403	2765
60	0	0	4091	5	184	402	2766
61	0	0	4091	5	183	402	2767
62	0	0	4091	4	184	402	2769
63	0	0	4091	4	184	402	2771
64	0	0	2361	4	185	403	2773
65	0	0	1442	3	183	402	2774
66	0	0	908	4	185	402	2773
67	0	0	594	4	183	402	2771
68	0	0	417	4	184	402	2768
69	0	0	322	4	185	403	2766
70	0	0	275	4	184	402	2766
71	0	0	247	5	184	402	2767
72	0	0	236	5	183	402	2769
73	0	0	232	4	183	402	2771
74	0	0	1932	5	184	401	2773
75	0	0	2881	5	182	402	2773
76	0	0	3439	5	184	402	2772
77	0	0	3776	5	185	402	2771
78	0	0	3973	5	184	402	2767
79	0	0	4085	5	184	402	2766
80	0	0	4091	5	183	402	2766
81	0	0	4091	5	184	402	2767
82	0	0	4091	4	184	402	2769
83	0	0	4091	4	184	402	2771
84	0	0	2524	4	184	403	2773
85	0	0	1524	4	184	402	2773
86	0	0	951	4	185	402	2772
87	0	0	618	4	183	403	2771
88	0	0	428	3	185	402	2767
89	0	0	323	4	184	402	2766
90	0	0	272	5	182	402	2766
91	0	0	242	4	182	403	2767
92	0	0	227	5	184	402	2769
93	0	0	223	5	184	403	2771
94	0	0	1770	5	184	403	2773
95	0	0	2774	5	183	402	2774
96	0	0	3377	5	183	402	2773
97	0	0	3735	7	183	402	2771
98	0	0	3945	5	185	402	2767
99	0	0	4065	5	184	401	2765
100	0	0	4091	5	183	402	2766
101	0	0	4091	5	184	402	2767
102	0	0	4092	5	184	402	2768
103	0	0	4092	5	184	402	2771
104	0	0	2815	4	184	401	2773
105	0	0	1693	4	184	402	2773
106	0	0	1047	4	183	402	2773
107	0	0	667	3	183	402	2771
108	0	0	452	3	184	402	2767
109	0	0	333	4	184	403	2766
110	0	0	270	4	183	402	2766
111	0	0	239	5	184	402	2767
112	0	0	222	5	183	402	2769
113	0	0	215	4	183	402	2771
114	0	0	1362	4	184	402	2773
115	0	0	2540	5	183	402	2773
116	0	0	3229	5	183	403	2772
117	0	0	3641	5	183	402	2771
118	0	0	3889	5	184	402	2767
119	0	0	4030	5	184	403	2765
120	0	0	4091	5	182	402	2766
121	0	0	4092	5	184	402	2766
122	0	0	4091	5	184	402	2768
123	0	0	4092	4	184	402	2771
124	0	0	4092	4	184	402	2773
125	0	0	2482	4	183	402	2774
126	0	0	1500	4	184	402	2773
127	0	0	930	4	184	402	2771
0	0	0	845	5	185	402	2767
1	0	0	2297	5	184	403	2766
2	0	0	3069	5	184	402	2766
3	0	0	3531	5	184	402	2767
4	0	0	3375	5	184	402	2769
5	0	0	1949	4	184	402	2771
6	0	0	1185	3	183	402	2773
7	0	0	741	3	182	402	2774
8	0	0	485	3	181	402	2773
9	0	0	350	5	184	402	2771
10	0	0	266	3	182	401	2768
11	0	0	233	5	182	402	2766
12	0	0	211	5	181	402	2766
13	0	0	203	4	182	402	2767
14	0	0	202	5	181	403	2769
15	0	0	1863	5	182	402	2771
16	0	0	2822	5	184	402	2773
17	0	0	3392	5	184	402	2774
18	0	0	3736	5	184	402	2773
19	0	0	3939	5	185	402	2771
20	0	0	4052	5	186	402	2768
21	0	0	4091	5	186	402	2766
22	0	0	4091	5	187	403	2766
23	0	0	4091	4	186	402	2767
24	0	0	4091	4	186	403	2770
25	0	0	2611	4	185	402	2771
26	0	0	1562	4	185	402	2774
27	0	0	962	4	182	402	2774
28	0	0	613	4	183	402	2774
29	0	0	413	6	181	402	2771
30	0	0	303	3	180	402	2768
31	0	0	244	4	180	402	2767
32	0	0	214	4	178	402	2767
33	0	0	204	5	180	402	2768
34	0	0	199	5	179	403	2770
35	0	0	198	5	180	403	2772
36	0	0	412	5	180	402	2773
37	0	0	2063	5	180	402	2774
38	0	0	2939	5	183	402	2773
39	0	0	3469	5	183	402	2772
40	0	0	3783	5	185	402	2768
41	0	0	3967	5	185	402	2766
42	0	0	4069	5	187	402	2766
43	0	0	4091	5	187	402	2767
44	0	0	4091	4	188	402	2769
45	0	0	4091	4	186	402	2772
46	0	0	2358	4	186	402	2773
47	0	0	1430	4	184	402	2774
48	0	0	889	4	183	402	2773
49	0	0	575	4	183	402	2772
50	0	0	395	4	182	402	2768
51	0	0	298	4	180	402	2767
52	0	0	247	4	180	402	2767
53	0	0	227	5	180	402	2768
54	0	0	212	4	180	402	2770
55	0	0	207	3	180	402	2772
56	0	0	407	4	181	402	2774
57	0	0	2077	4	182	402	2774
58	0	0	2949	5	183	402	2774
59	0	0	3474	6	184	402	2771
60	0	0	3787	4	186	402	2767
61	0	0	3971	5	186	402	2766
62	0	0	4073	5	186	402	2767
63	0	0	4091	5	187	402	2767
64	0	0	4091	4	187	402	2770
65	0	0	4092	3	187	402	2772
66	0	0	2316	4	185	402	2774
67	0	0	1407	4	185	402	2775
68	0	0	873	4	184	402	2774
69	0	0	567	4	183	402	2772
70	0	0	394	4	182	402	2769
71	0	0	298	4	181	403	2767
72	0	0	248	4	180	402	2767
73	0	0	228	5	180	402	2768
74	0	0	215	4	180	402	2770
75	0	0	212	4	180	402	2772
76	0	0	231	4	180	402	2774
77	0	0	1995	5	182	402	2775
78	0	0	2903	5	183	402	2774
79	0	0	3451	5	184	402	2772
80	0	0	3777	5	186	403	2768
81	0	0	3965	5	187	402	2766
82	0	0	4073	5	186	402	2767
83	0	0	4091	5	187	402	2768
84	0	0	4091	4	187	402	2770
85	0	0	4091	4	186	402	2772
86	0	0	2300	4	185	402	2774
87	0	0	1400	4	185	402	2775
88	0	0	876	4	183	402	2775
89	0	0	572	4	182	402	2773
90	0	0	397	2	182	402	2769
91	0	0	303	4	181	402	2768
92	0	0	253	4	181	402	2768
93	0	0	232	5	180	402	2770
94	0	0	220	4	181	402	2771
95	0	0	215	4	180	402	2773
96	0	0	215	5	182	402	2775
97	0	0	218	5	182	402	2775
98	0	0	364	5	183	402	2775
99	0	0	2051	5	183	402	2772
100	0	0	2950	4	185	402	2769
101	0	0	3481	5	187	403	2767
102	0	0	3801	5	187	402	2768
103	0	0	3986	5	187	402	2768
104	0	0	4090	5	187	402	2770
105	0	0	4092	3	187	402	2773
106	0	0	2483	4	185	403	2774
107	0	0	1516	4	184	402	2776
108	0	0	950	4	184	402	2775
109	0	0	626	4	182	402	2773
110	0	0	441	4	181	402	2770
111	0	0	340	3	180	402	2768
112	0	0	287	4	180	402	2768
113	0	0	261	4	180	402	2770
114	0	0	249	5	181	402	2771
115	0	0	244	4	181	402	2773
116	0	0	244	5	182	402	2775
117	0	0	1102	5	183	402	2776
118	0	0	2417	5	184	402	2775
119	0	0	3176	5	184	402	2772
120	0	0	3625	5	185	402	2769
121	0	0	3894	5	186	402	2767
122	0	0	4048	5	188	402	2767
123	0	0	4091	6	187	402	2768
124	0	0	4091	4	187	402	2770
125	0	0	4092	4	187	403	2772
126	0	0	2847	4	187	403	2774
127	0	0	1726	4	185	403	2776
0	0	0	1081	5	184	402	2775
1	0	0	702	4	183	402	2773
2	0	0	487	4	181	402	2770
3	0	0	367	4	182	402	2768
4	0	0	308	4	180	402	2768
5	0	0	273	4	180	402	2770
6	0	0	258	4	180	402	2771
7	0	0	251	5	181	402	2773
8	0	0	250	5	181	402	2775
9	0	0	1430	4	182	402	2775
10	0	0	2596	4	183	402	2775
11	0	0	3278	5	185	402	2772
12	0	0	3691	5	186	402	2769
13	0	0	3934	5	187	402	2767
14	0	0	4072	5	187	402	2767
15	0	0	4092	4	189	402	2768
16	0	0	4091	4	187	402	2770
17	0	0	4092	4	185	402	2772
18	0	0	3191	4	186	402	2774
19	0	0	1911	4	185	402	2775
20	0	0	1184	4	184	402	2775
21	0	0	764	4	183	401	2773
22	0	0	523	4	181	402	2769
23	0	0	388	3	180	402	2767
24	0	0	318	5	180	402	2768
25	0	0	281	4	180	402	2768
26	0	0	261	4	181	402	2771
27	0	0	253	4	180	402	2773
28	0	0	252	5	180	402	2774
29	0	0	1963	5	183	402	2775
30	0	0	2899	5	182	402	2774
31	0	0	3464	5	184	402	2772
32	0	0	3800	6	185	402	2768
33	0	0	3996	5	186	402	2767
34	0	0	4091	5	187	402	2767
35	0	0	4091	5	188	402	2768
36	0	0	4091	4	187	402	2770
37	0	0	4092	4	187	402	2772
38	0	0	2444	4	186	402	2774
39	0	0	1500	3	185	402	2775
40	0	0	948	4	184	402	2774
41	0	0	628	4	183	402	2772
42	0	0	444	4	182	402	2769
43	0	0	345	4	181	403	2767
44	0	0	291	4	180	402	2767
45	0	0	265	4	180	402	2768
46	0	0	258	5	180	402	2770
47	0	0	251	5	181	402	2772
48	0	0	251	4	182	402	2774
49	0	0	1953	5	182	402	2775
50	0	0	2894	5	183	402	2774
51	0	0	3457	5	185	402	2773
52	0	0	3799	5	186	402	2769
53	0	0	3994	5	187	402	2766
54	0	0	4091	4	187	402	2767
55	0	0	4091	4	187	402	2767
56	0	0	4091	4	187	402	2770
57	0	0	4092	4	187	402	2772
58	0	0	2875	4	186	402	2774
59	0	0	1741	4	185	403	2775
60	0	0	1085	4	184	402	2774
61	0	0	706	4	183	403	2772
62	0	0	489	3	181	401	2769
63	0	0	369	4	180	402	2767
64	0	0	308	4	181	402	2767
65	0	0	272	5	180	402	2768
66	0	0	257	4	180	402	2770
67	0	0	250	5	181	402	2772
68	0	0	248	4	180	403	2773
69	0	0	252	5	183	402	2774
70	0	0	1111	5	183	402	2773
71	0	0	2437	5	184	402	2771
72	0	0	3184	5	186	402	2768
73	0	0	3635	5	186	402	2766
74	0	0	3904	5	188	402	2766
75	0	0	4011	4	188	402	2768
76	0	0	2428	3	187	402	2769
77	0	0	1498	4	186	402	2771
78	0	0	955	4	186	402	2773
79	0	0	646	4	185	402	2774
80	0	0	470	4	183	402	2774
81	0	0	373	4	183	402	2772
82	0	0	323	4	181	402	2768
83	0	0	297	4	181	402	2766
84	0	0	287	4	181	402	2767
85	0	0	282	4	180	402	2768
86	0	0	283	4	180	402	2770
87	0	0	286	4	181	402	2771
88	0	0	290	4	181	403	2773
89	0	0	294	4	182	402	2774
90	0	0	298	4	183	402	2774
91	0	0	303	5	185	402	2771
92	0	0	309	4	186	402	2767
93	0	0	314	4	187	402	2766
94	0	0	318	4	187	403	2766
95	0	0	324	4	187	402	2767
96	0	0	330	4	187	402	2769
97	0	0	335	4	186	402	2771
98	0	0	340	4	186	402	2773
99	0	0	346	4	184	402	2775
100	0	0	352	4	184	402	2773
101	0	0	357	4	182	402	2772
102	0	0	362	4	182	402	2769
103	0	0	367	4	181	403	2766
104	0	0	372	4	180	403	2767
105	0	0	377	4	180	402	2768
106	0	0	382	4	179	402	2770
107	0	0	387	4	181	402	2772
108	0	0	392	4	181	402	2774
109	0	0	397	4	183	402	2774
110	0	0	402	4	183	402	2773
111	0	0	407	4	184	402	2771
112	0	0	412	4	185	401	2768
113	0	0	417	4	188	402	2766
114	0	0	421	4	188	403	2766
115	0	0	427	4	189	402	2767
116	0	0	432	4	187	401	2770
117	0	0	436	4	186	402	2772
118	0	0	441	4	186	403	2773
119	0	0	446	4	184	402	2775
120	0	0	452	4	183	402	2774
121	0	0	457	4	183	402	2772
122	0	0	461	5	181	402	2769
123	0	0	466	4	180	402	2767
124	0	0	470	4	180	402	2767
125	0	0	475	4	181	402	2768
126	0	0	480	4	180	402	2770
127	0	0	485	3	181	402	2772
0	0	0	488	4	182	402	2774
1	0	0	494	4	182	402	2774
2	0	0	498	4	184	402	2773
3	0	0	502	4	184	401	2772
4	0	0	508	5	186	402	2768
5	0	0	511	4	188	402	2765
6	0	0	517	4	188	402	2766
7	0	0	522	4	188	402	2767
8	0	0	525	4	187	401	2770
9	0	0	530	4	187	402	2772
10	0	0	534	4	185	402	2773
11	0	0	540	4	185	402	2775
12	0	0	544	4	184	402	2773
13	0	0	548	4	183	401	2772
14	0	0	552	6	181	402	2768
15	0	0	557	4	180	403	2766
16	0	0	561	4	181	402	2767
17	0	0	566	4	180	402	2768
18	0	0	570	4	181	402	2769
19	0	0	574	4	180	402	2771
20	0	0	579	4	181	402	2774
21	0	0	583	4	182	402	2774
22	0	0	587	4	183	402	2773
23	0	0	590	4	183	402	2771
24	0	0	596	3	186	402	2768
25	0	0	599	4	186	402	2766
26	0	0	603	4	187	402	2766
27	0	0	608	4	187	402	2767
28	0	0	612	4	188	402	2769
29	0	0	616	3	187	402	2772
30	0	0	620	4	185	402	2773
31	0	0	625	4	185	402	2774
32	0	0	629	4	184	402	2773
33	0	0	633	4	183	401	2772
34	0	0	637	4	182	402	2768
35	0	0	641	4	181	402	2766
36	0	0	646	4	180	402	2767
37	0	0	649	4	180	402	2767
38	0	0	653	4	180	402	2769
39	0	0	657	5	181	402	2771
40	0	0	663	4	181	402	2773
41	0	0	665	4	183	402	2773
42	0	0	669	4	183	402	2773
43	0	0	673	4	184	402	2772
44	0	0	679	4	186	402	2768
45	0	0	680	4	187	402	2766
46	0	0	684	4	188	402	2766
47	0	0	688	4	188	402	2767
48	0	0	693	4	187	402	2769
49	0	0	697	4	186	402	2771
50	0	0	701	4	185	402	2773
51	0	0	705	4	185	402	2774
52	0	0	708	4	184	402	2773
53	0	0	712	4	182	402	2772
54	0	0	716	4	182	402	2767
55	0	0	719	4	180	402	2766
56	0	0	724	4	180	402	2766
57	0	0	728	4	180	402	2768
58	0	0	731	6	180	402	2769
59	0	0	735	5	180	402	2771
60	0	0	739	4	181	402	2773
61	0	0	743	4	183	402	2773
62	0	0	746	5	184	402	2772
63	0	0	749	4	183	403	2771
64	0	0	754	4	186	402	2767
65	0	0	755	4	186	402	2765
66	0	0	760	4	187	402	2766
67	0	0	764	4	188	402	2766
68	0	0	768	4	187	402	2768
69	0	0	772	3	186	402	2771
70	0	0	775	4	186	402	2772
71	0	0	779	4	185	402	2773
72	0	0	782	4	184	402	2772
73	0	0	786	4	183	402	2771
74	0	0	790	3	181	402	2768
75	0	0	793	4	181	402	2766
76	0	0	797	4	180	402	2766
77	0	0	800	4	180	402	2767
78	0	0	804	4	180	402	2768
79	0	0	808	4	180	402	2771
80	0	0	810	4	181	402	2772
81	0	0	814	4	182	401	2772
82	0	0	817	5	184	402	2771
83	0	0	821	4	184	402	2769
84	0	0	825	3	186	402	2766
85	0	0	827	4	187	402	2763
86	0	0	832	4	187	402	2763
87	0	0	835	4	187	402	2763
88	0	0	838	4	188	402	2764
89	0	0	842	4	187	402	2767
90	0	0	845	4	186	402	2767
91	0	0	848	4	184	402	2767
92	0	0	852	4	184	402	2766
93	0	0	855	3	182	402	2764
94	0	0	859	4	182	402	2760
95	0	0	862	3	181	402	2759
96	0	0	866	4	180	402	2758
97	0	0	869	4	181	402	2759
98	0	0	873	4	180	402	2759
99	0	0	876	5	181	402	2760
100	0	0	880	4	182	402	2761
101	0	0	883	4	182	402	2761
102	0	0	886	4	183	402	2759
103	0	0	888	4	183	402	2757
104	0	0	892	4	186	402	2753
105	0	0	896	4	186	402	2751
106	0	0	898	4	187	401	2750
107	0	0	902	5	187	402	2750
108	0	0	905	4	187	402	2751
109	0	0	908	4	186	402	2753
110	0	0	910	4	186	402	2753
111	0	0	915	5	185	402	2753
112	0	0	918	4	183	402	2752
113	0	0	921	4	182	402	2750
114	0	0	924	4	182	402	2746
115	0	0	928	4	181	402	2744
116	0	0	930	4	180	402	2743
117	0	0	934	4	180	402	2744
118	0	0	937	4	180	402	2744
119	0	0	940	4	181	402	2745
120	0	0	943	4	181	402	2746
121	0	0	945	4	182	402	2745
122	0	0	950	5	183	402	2745
123	0	0	953	4	185	402	2742
124	0	0	956	4	185	402	2739
125	0	0	958	4	187	402	2737
126	0	0	961	4	187	402	2736
127	0	0	965	4	187	402	2737
0	0	0	967	4	188	403	2737
1	0	0	971	4	187	402	2738
2	0	0	974	4	187	402	2740
3	0	0	977	5	185	401	2740
4	0	0	980	4	184	402	2739
5	0	0	983	4	182	402	2736
6	0	0	986	4	182	402	2733
7	0	0	988	4	181	402	2731
8	0	0	991	4	179	402	2731
9	0	0	994	4	181	402	2731
10	0	0	998	4	180	402	2732
11	0	0	1000	5	180	402	2733
12	0	0	1004	4	181	402	2734
13	0	0	1006	4	182	402	2734
14	0	0	1010	4	183	402	2733
15	0	0	1012	4	185	402	2731
16	0	0	1015	4	186	402	2727
17	0	0	1018	4	186	402	2725
18	0	0	1021	4	187	402	2725
19	0	0	1025	4	187	402	2725
20	0	0	1028	4	187	402	2727
21	0	0	1031	4	186	402	2727
22	0	0	1033	4	186	402	2728
23	0	0	1036	5	184	402	2728
24	0	0	1039	4	184	402	2727
25	0	0	1042	4	182	402	2725
26	0	0	1045	4	183	402	2722
27	0	0	1047	4	181	402	2720
28	0	0	1050	4	180	401	2720
29	0	0	1053	4	180	402	2720
30	0	0	1056	5	180	402	2721
31	0	0	1059	5	180	402	2722
32	0	0	1062	4	182	402	2723
33	0	0	1064	4	182	402	2723
34	0	0	1067	3	184	402	2722
35	0	0	1070	4	184	403	2720
36	0	0	1072	4	186	402	2716
37	0	0	1075	4	186	402	2714
38	0	0	1078	4	187	401	2714
39	0	0	1080	4	187	402	2714
40	0	0	1083	4	187	402	2715
41	0	0	1086	4	186	402	2716
42	0	0	1088	4	185	402	2718
43	0	0	1091	4	184	402	2718
44	0	0	1093	4	184	402	2717
45	0	0	1097	4	182	403	2715
46	0	0	1100	5	181	402	2712
47	0	0	1102	4	181	402	2710
48	0	0	1104	4	180	401	2710
49	0	0	1107	4	180	402	2711
50	0	0	1110	4	180	402	2712
51	0	0	1113	4	180	402	2713
52	0	0	1115	4	181	402	2714
53	0	0	1118	4	182	402	2714
54	0	0	1121	4	183	402	2713
55	0	0	1123	4	184	402	2711
56	0	0	1126	4	185	402	2708
57	0	0	1129	4	186	402	2706
58	0	0	1130	4	187	402	2706
59	0	0	1133	3	188	402	2707
60	0	0	1136	4	187	403	2708
61	0	0	1138	5	186	403	2710
62	0	0	1140	4	185	402	2711
63	0	0	1144	4	186	402	2712
64	0	0	1146	4	184	402	2711
65	0	0	1149	4	182	402	2710
66	0	0	1151	5	181	402	2707
67	0	0	1153	4	180	402	2705
68	0	0	1155	4	181	401	2705
69	0	0	1159	4	181	402	2706
70	0	0	1161	4	181	402	2707
71	0	0	1163	4	179	402	2708
72	0	0	1166	4	181	402	2710
73	0	0	1168	4	182	401	2710
74	0	0	1170	4	183	402	2710
75	0	0	1173	4	184	402	2708
76	0	0	1176	5	185	402	2705
77	0	0	1178	4	187	402	2704
78	0	0	1180	5	188	402	2704
79	0	0	1183	4	188	402	2705
80	0	0	1186	5	188	401	2706
81	0	0	1188	4	186	402	2708
82	0	0	1190	4	186	402	2709
83	0	0	1193	4	185	402	2710
84	0	0	1195	5	184	402	2709
85	0	0	1197	4	182	403	2708
86	0	0	1200	4	182	403	2705
87	0	0	1202	4	180	402	2703
88	0	0	1204	4	180	402	2704
89	0	0	1206	4	179	402	2705
90	0	0	1208	5	180	402	2706
91	0	0	1211	4	181	402	2708
92	0	0	1214	4	181	402	2709
93	0	0	1216	4	182	402	2710
94	0	0	1218	3	183	402	2709
95	0	0	1220	5	184	402	2707
96	0	0	1223	5	186	402	2704
97	0	0	1225	4	186	402	2703
98	0	0	1227	4	187	402	2703
99	0	0	1229	4	187	402	2704
100	0	0	1232	5	187	402	2706
101	0	0	1234	5	187	402	2707
102	0	0	1236	4	186	402	2708
103	0	0	1239	4	184	402	2710
104	0	0	1241	4	183	402	2709
105	0	0	1243	5	183	402	2707
106	0	0	1246	4	181	402	2705
107	0	0	1248	4	181	402	2704
108	0	0	1250	4	181	401	2703
109	0	0	1253	3	180	402	2705
110	0	0	1254	4	181	403	2706
111	0	0	1257	4	180	402	2707
112	0	0	1259	4	182	402	2709
113	0	0	1261	4	182	402	2709
114	0	0	1263	4	184	402	2709
115	0	0	1265	4	185	402	2707
116	0	0	1268	4	185	402	2704
117	0	0	1270	5	187	402	2703
118	0	0	1272	4	187	402	2703
119	0	0	1275	4	187	402	2704
120	0	0	1277	5	186	403	2705
121	0	0	1279	4	187	402	2707
122	0	0	1281	4	186	402	2708
123	0	0	1283	4	185	402	2709
124	0	0	1285	5	184	402	2708
125	0	0	1287	4	182	403	2707
126	0	0	1289	5	181	402	2704
127	0	0	1291	4	181	402	2703
0	0	0	1294	4	180	402	2703
1	0	0	1295	4	180	402	2704
2	0	0	1298	4	180	403	2705
3	0	0	1300	5	181	402	2707
4	0	0	1302	4	181	402	2708
5	0	0	1304	3	182	402	2709
6	0	0	1306	4	183	402	2708
7	0	0	1308	4	183	402	2707
8	0	0	1310	4	186	402	2704
9	0	0	1312	5	187	402	2702
10	0	0	1315	4	187	402	2702
11	0	0	1316	4	187	402	2703
12	0	0	1319	4	187	402	2705
13	0	0	1321	4	187	403	2707
14	0	0	1322	4	185	402	2708
15	0	0	1325	4	185	402	2709
16	0	0	1327	5	184	402	2708
17	0	0	1329	4	183	402	2707
18	0	0	1331	4	182	402	2704
19	0	0	1332	5	181	402	2702
20	0	0	1335	4	179	402	2702
21	0	0	1336	4	180	402	2703
22	0	0	1338	4	181	402	2704
23	0	0	1341	4	181	402	2706
24	0	0	1342	4	181	402	2707
25	0	0	1345	4	182	402	2708
26	0	0	1346	4	183	402	2707
27	0	0	1348	5	184	402	2705
28	0	0	1513	6	186	402	2702
29	0	0	1874	5	187	402	2701
30	0	0	2158	5	187	402	2701
31	0	0	2287	4	187	402	2702
32	0	0	2280	4	188	402	2703
33	0	0	2175	4	186	402	2705
34	0	0	2029	4	187	402	2707
35	0	0	1907	4	185	402	2707
36	0	0	1894	5	184	402	2706
37	0	0	1949	5	182	402	2705
38	0	0	2137	5	182	402	2702
39	0	0	2561	4	182	402	2700
40	0	0	3196	5	181	402	2701
41	0	0	3832	5	180	402	2701
42	0	0	4091	5	180	402	2703
43	0	0	4092	5	181	402	2704
44	0	0	4091	6	181	402	2705
45	0	0	4092	5	183	402	2706
46	0	0	4091	4	183	402	2704
47	0	0	4092	5	184	402	2704
48	0	0	4092	5	185	402	2700
49	0	0	4092	4	186	402	2698
50	0	0	4092	5	187	402	2699
51	0	0	4092	5	187	402	2699
52	0	0	4091	6	187	402	2700
53	0	0	4092	5	187	402	2702
54	0	0	4094	5	186	402	2703
55	0	0	4091	5	185	402	2704
56	0	0	4092	4	184	402	2704
57	0	0	4092	4	184	402	2701
58	0	0	4092	5	182	402	2698
59	0	0	4091	4	180	402	2697
60	0	0	4091	5	180	402	2697
61	0	0	4091	5	181	402	2697
62	0	0	4092	3	180	402	2699
63	0	0	4092	4	179	403	2700
64	0	0	4091	5	182	402	2701
65	0	0	4020	4	182	402	2702
66	0	0	3943	5	183	402	2701
67	0	0	4091	6	185	402	2699
68	0	0	4092	5	185	402	2696
69	0	0	4092	5	186	402	2695
70	0	0	4091	4	187	402	2694
71	0	0	4014	3	187	402	2695
72	0	0	3477	4	187	402	2696
73	0	0	2888	4	185	403	2698
74	0	0	2305	4	186	402	2699
75	0	0	1757	4	185	402	2699
76	0	0	1269	4	183	402	2699
77	0	0	955	4	183	403	2698
78	0	0	776	4	181	402	2695
79	0	0	677	4	181	402	2693
80	0	0	625	4	181	402	2693
81	0	0	598	4	180	402	2694
82	0	0	1183	5	182	402	2694
83	0	0	1756	4	180	402	2696
84	0	0	2030	5	181	402	2697
85	0	0	2083	4	183	402	2697
86	0	0	1955	3	183	402	2696
87	0	0	1755	5	184	402	2695
88	0	0	1566	4	185	402	2692
89	0	0	1457	4	186	402	2690
90	0	0	1332	4	187	402	2690
91	0	0	1124	4	188	402	2690
92	0	0	882	4	187	402	2692
93	0	0	746	4	185	402	2693
94	0	0	675	3	186	402	2694
95	0	0	639	4	185	402	2694
96	0	0	622	4	184	402	2694
97	0	0	615	5	183	403	2692
98	0	0	614	4	181	402	2689
99	0	0	615	4	181	402	2688
100	0	0	617	4	180	402	2687
101	0	0	621	4	181	402	2688
102	0	0	625	4	180	402	2689
103	0	0	629	4	180	403	2689
104	0	0	1276	4	181	402	2691
105	0	0	1991	5	182	402	2691
106	0	0	2498	5	182	402	2690
107	0	0	2788	5	184	402	2688
108	0	0	2915	5	186	402	2685
109	0	0	3036	5	186	402	2683
110	0	0	3207	5	187	402	2683
111	0	0	3370	5	187	402	2683
112	0	0	3638	5	187	402	2684
113	0	0	4046	6	186	402	2685
114	0	0	4092	5	186	402	2686
115	0	0	4091	5	185	403	2686
116	0	0	4092	4	182	404	2686
117	0	0	3841	4	182	402	2684
118	0	0	3537	4	182	402	2681
119	0	0	3321	4	181	402	2680
120	0	0	3262	5	181	402	2679
121	0	0	3604	5	180	402	2679
122	0	0	4048	5	180	402	2680
123	0	0	4092	6	181	402	2681
124	0	0	4091	5	182	402	2682
125	0	0	4091	5	181	402	2682
126	0	0	4091	5	184	402	2681
127	0	0	4091	5	184	402	2680
0	0	0	4093	5	185	402	2676
1	0	0	4091	5	187	402	2674
2	0	0	4093	5	187	402	2674
3	0	0	4091	6	187	402	2674
4	0	0	4092	5	187	403	2675
5	0	0	4092	6	187	402	2676
6	0	0	4091	5	186	402	2677
7	0	0	4092	5	185	403	2677
8	0	0	4092	5	184	402	2676
9	0	0	4092	4	183	402	2674
10	0	0	3958	4	182	402	2671
11	0	0	3703	4	181	402	2669
12	0	0	3473	4	181	402	2669
13	0	0	3451	5	181	402	2669
14	0	0	3660	5	183	402	2669
15	0	0	3947	5	179	403	2670
16	0	0	4091	5	182	402	2671
17	0	0	4091	5	181	402	2671
18	0	0	4091	5	182	402	2669
19	0	0	4092	5	184	402	2668
20	0	0	4092	6	186	402	2664
21	0	0	4091	5	187	402	2662
22	0	0	4093	5	187	402	2662
23	0	0	4091	6	187	402	2661
24	0	0	4092	6	187	402	2663
25	0	0	4093	6	187	402	2663
26	0	0	4091	4	185	402	2664
27	0	0	4024	4	184	402	2664
28	0	0	3712	4	183	402	2663
29	0	0	3427	4	183	402	2660
30	0	0	3196	4	182	402	2657
31	0	0	2952	4	181	402	2655
32	0	0	2720	4	181	402	2654
33	0	0	2587	4	181	402	2654
34	0	0	2569	5	180	403	2654
35	0	0	2639	5	181	402	2655
36	0	0	2777	4	182	402	2656
37	0	0	3017	5	182	402	2655
38	0	0	3293	5	183	402	2654
39	0	0	3503	5	184	402	2651
40	0	0	3677	6	185	402	2648
41	0	0	3910	5	187	402	2646
42	0	0	4060	5	187	402	2644
43	0	0	4032	5	187	402	2644
44	0	0	3905	4	187	402	2644
45	0	0	3649	5	187	402	2645
46	0	0	3335	4	185	402	2645
47	0	0	3051	4	184	402	2644
48	0	0	2822	4	184	402	2643
49	0	0	2676	4	182	402	2640
50	0	0	2649	5	183	402	2637
51	0	0	2600	4	181	402	2634
52	0	0	2570	5	181	402	2633
53	0	0	2664	4	180	403	2633
54	0	0	2908	5	182	402	2632
55	0	0	3274	5	182	402	2633
56	0	0	3678	5	181	402	2633
57	0	0	3942	5	183	402	2632
58	0	0	4090	5	183	402	2631
59	0	0	4092	5	185	402	2627
60	0	0	4092	5	185	402	2624
61	0	0	4091	5	186	402	2621
62	0	0	4093	5	188	402	2620
63	0	0	4091	5	188	402	2619
64	0	0	4092	6	188	402	2619
65	0	0	4092	5	185	402	2620
66	0	0	4091	5	186	402	2620
67	0	0	4091	5	185	402	2619
68	0	0	4092	5	184	403	2617
69	0	0	4092	5	183	403	2615
70	0	0	4092	4	182	402	2611
71	0	0	4091	4	181	403	2609
72	0	0	4093	5	181	402	2607
73	0	0	4092	4	180	402	2607
74	0	0	4092	4	180	402	2607
75	0	0	4092	5	180	402	2607
76	0	0	4091	4	181	402	2607
77	0	0	4091	5	182	402	2606
78	0	0	4092	5	183	402	2606
79	0	0	4092	5	184	402	2602
80	0	0	4092	5	187	402	2599
81	0	0	4092	5	187	402	2596
82	0	0	4091	5	188	402	2595
83	0	0	4092	6	187	402	2595
84	0	0	4092	5	188	403	2595
85	0	0	4092	6	186	402	2595
86	0	0	4091	6	185	402	2596
87	0	0	4091	5	185	402	2595
88	0	0	4091	5	184	402	2594
89	0	0	4091	5	182	402	2592
90	0	0	4092	5	181	402	2588
91	0	0	4092	5	181	402	2586
92	0	0	4085	5	181	402	2585
93	0	0	4080	5	179	402	2585
94	0	0	4075	5	179	402	2585
95	0	0	4069	5	181	402	2586
96	0	0	4063	5	181	402	2586
97	0	0	4057	5	182	402	2585
98	0	0	4052	5	183	402	2584
99	0	0	4047	5	183	402	2582
100	0	0	4042	5	186	402	2578
101	0	0	4035	5	186	402	2576
102	0	0	4029	5	187	402	2575
103	0	0	4025	6	188	402	2575
104	0	0	4020	5	188	402	2575
105	0	0	4014	5	187	402	2576
106	0	0	4008	6	185	402	2576
107	0	0	4002	5	185	402	2576
108	0	0	3997	5	184	402	2575
109	0	0	3992	5	182	402	2573
110	0	0	3987	5	181	402	2570
111	0	0	3980	5	181	403	2568
112	0	0	3977	5	181	402	2567
113	0	0	3969	5	180	402	2567
114	0	0	3965	5	181	402	2567
115	0	0	3960	5	180	402	2568
116	0	0	3955	5	181	402	2569
117	0	0	3948	5	182	402	2568
118	0	0	3943	5	183	403	2567
119	0	0	3937	6	184	402	2565
120	0	0	3934	5	185	402	2562
121	0	0	3927	5	186	402	2559
122	0	0	3921	5	187	402	2558
123	0	0	3918	5	187	402	2558
124	0	0	3913	5	187	402	2559
125	0	0	3908	5	186	402	2560
126	0	0	3902	5	185	402	2561
127	0	0	3896	5	185	402	2561
0	0	0	3892	6	183	402	2560
1	0	0	3887	5	184	403	2557
2	0	0	3882	5	182	402	2554
3	0	0	3878	5	181	402	2553
4	0	0	3871	5	181	402	2552
5	0	0	3867	4	180	402	2552
6	0	0	3862	5	180	402	2552
7	0	0	3857	5	181	402	2553
8	0	0	3852	4	181	402	2554
9	0	0	3846	5	182	402	2553
10	0	0	3840	5	184	402	2552
11	0	0	3837	5	184	402	2550
12	0	0	3834	5	186	402	2547
13	0	0	3827	5	186	402	2545
14	0	0	3824	5	187	402	2545
15	0	0	3818	6	187	402	2545
16	0	0	3814	6	187	402	2546
17	0	0	3810	6	187	402	2547
18	0	0	3803	5	186	402	2547
19	0	0	3800	5	184	402	2547
20	0	0	3794	6	184	402	2546
21	0	0	3790	6	182	402	2545
22	0	0	3787	5	182	403	2542
23	0	0	3780	4	180	402	2540
24	0	0	3776	5	181	402	2539
25	0	0	3771	5	180	402	2540
26	0	0	3767	5	181	402	2540
27	0	0	3762	5	181	402	2541
28	0	0	3756	4	181	402	2542
29	0	0	3752	5	182	402	2541
30	0	0	3749	5	183	402	2540
31	0	0	3744	5	184	402	2539
32	0	0	3739	5	185	402	2536
33	0	0	3734	4	187	402	2534
34	0	0	3732	5	187	402	2534
35	0	0	3725	5	188	402	2534
36	0	0	3720	6	187	402	2535
37	0	0	3717	5	188	402	2536
38	0	0	3713	5	185	403	2537
39	0	0	3707	5	185	402	2536
40	0	0	3703	5	184	402	2536
41	0	0	3698	6	183	402	2535
42	0	0	3694	5	181	402	2532
43	0	0	3689	4	181	402	2530
44	0	0	3684	5	181	402	2529
45	0	0	3681	5	180	402	2529
46	0	0	3677	5	181	402	2530
47	0	0	3673	5	180	402	2532
48	0	0	3668	4	181	402	2532
49	0	0	3663	5	182	402	2532
50	0	0	3660	5	183	402	2531
51	0	0	3655	5	184	401	2530
52	0	0	3652	5	185	402	2527
53	0	0	3646	4	187	402	2525
54	0	0	3642	5	186	402	2524
55	0	0	3637	7	187	402	2525
56	0	0	3634	5	187	402	2526
57	0	0	3631	6	187	402	2527
58	0	0	3625	5	185	402	2528
59	0	0	3621	5	185	402	2528
60	0	0	3617	5	184	402	2527
61	0	0	3614	5	184	403	2526
62	0	0	3610	5	181	402	2523
63	0	0	3604	5	181	402	2522
64	0	0	3601	4	180	402	2521
65	0	0	3596	6	180	402	2522
66	0	0	3593	5	181	403	2523
67	0	0	3588	5	179	402	2524
68	0	0	3583	4	180	402	2525
69	0	0	3579	5	182	402	2524
70	0	0	3576	5	182	402	2524
71	0	0	3573	5	184	402	2522
72	0	0	3568	5	186	402	2519
73	0	0	3563	5	186	402	2517
74	0	0	3559	6	188	402	2517
75	0	0	3555	5	187	402	2517
76	0	0	3552	6	187	402	2519
77	0	0	3548	5	185	402	2520
78	0	0	3543	5	186	402	2521
79	0	0	3540	6	185	402	2521
80	0	0	3537	5	183	402	2521
81	0	0	3531	5	182	402	2519
82	0	0	3529	5	183	402	2516
83	0	0	3523	5	180	402	2515
84	0	0	3520	5	181	402	2514
85	0	0	3516	5	180	402	2515
86	0	0	3512	5	180	402	2516
87	0	0	3509	5	179	402	2517
88	0	0	3504	5	181	402	2518
89	0	0	3500	5	182	402	2518
90	0	0	3497	5	184	402	2517
91	0	0	3493	5	184	402	2516
92	0	0	3490	5	186	402	2513
93	0	0	3486	5	187	402	2511
94	0	0	3481	5	187	402	2510
95	0	0	3477	5	187	402	2511
96	0	0	3474	5	187	402	2512
97	0	0	3471	6	187	402	2514
98	0	0	3467	5	186	402	2515
99	0	0	3464	5	186	403	2515
100	0	0	3459	5	185	402	2515
101	0	0	3456	5	182	402	2513
102	0	0	3452	5	182	402	2511
103	0	0	3449	5	181	402	2509
104	0	0	3445	5	181	402	2509
105	0	0	3440	5	180	402	2509
106	0	0	3437	5	181	402	2510
107	0	0	3434	5	181	402	2511
108	0	0	3430	4	183	402	2512
109	0	0	3427	5	183	402	2512
110	0	0	3424	7	184	402	2511
111	0	0	3419	5	183	402	2510
112	0	0	3416	5	184	402	2507
113	0	0	3411	5	186	402	2506
114	0	0	3407	5	188	402	2505
115	0	0	3404	5	188	402	2506
116	0	0	3401	5	187	402	2507
117	0	0	3399	6	187	402	2508
118	0	0	3394	6	186	402	2510
119	0	0	3390	6	184	402	2510
120	0	0	3387	5	183	402	2509
121	0	0	3382	5	183	402	2508
122	0	0	3380	5	183	402	2506
123	0	0	3378	5	181	402	2504
124	0	0	3373	5	180	402	2504
125	0	0	3369	4	182	402	2505
126	0	0	3367	5	180	403	2505
127	0	0	3363	5	181	402	2507
0	0	0	3360	5	182	402	2508
1	0	0	3356	5	183	402	2508
2	0	0	3352	5	183	402	2508
3	0	0	3350	5	186	403	2506
4	0	0	3346	6	185	402	2503
5	0	0	3344	5	187	402	2502
6	0	0	3337	5	187	402	2502
7	0	0	3335	5	189	402	2503
8	0	0	3333	5	187	404	2504
9	0	0	3329	5	187	402	2505
10	0	0	3327	5	185	402	2506
11	0	0	3322	5	184	402	2506
12	0	0	3319	5	182	402	2507
13	0	0	3316	5	183	402	2505
14	0	0	3313	5	182	402	2503
15	0	0	2979	4	181	402	2501
16	0	0	2459	4	180	402	2501
17	0	0	2225	4	180	402	2502
18	0	0	2307	5	180	402	2503
19	0	0	2686	5	181	402	2504
20	0	0	2970	5	181	402	2505
21	0	0	3123	5	182	402	2506
22	0	0	3201	5	183	402	2505
23	0	0	3242	5	185	402	2504
24	0	0	3263	5	185	402	2501
25	0	0	3272	5	186	402	2500
26	0	0	3275	5	187	402	2500
27	0	0	3276	5	189	402	2501
28	0	0	3276	6	187	402	2502
29	0	0	3273	6	187	402	2503
30	0	0	3270	5	185	402	2505
31	0	0	3268	5	185	402	2505
32	0	0	3264	6	184	402	2505
33	0	0	3261	6	183	402	2504
34	0	0	2940	4	183	402	2501
35	0	0	2395	4	181	402	2500
36	0	0	1957	4	181	402	2500
37	0	0	1824	5	180	402	2501
38	0	0	1947	6	180	402	2503
39	0	0	2318	4	182	402	2504
40	0	0	2733	5	181	403	2505
41	0	0	2968	5	181	402	2505
42	0	0	3095	5	182	402	2505
43	0	0	3164	5	185	402	2504
44	0	0	3200	5	185	402	2502
45	0	0	3217	5	186	402	2500
46	0	0	3227	5	187	402	2500
47	0	0	3230	5	188	402	2501
48	0	0	3230	5	186	402	2503
49	0	0	3229	5	187	402	2504
50	0	0	3226	6	186	402	2505
51	0	0	3224	5	185	402	2506
52	0	0	3219	5	183	402	2505
53	0	0	2651	4	183	402	2504
54	0	0	2052	4	181	402	2502
55	0	0	1470	3	180	402	2501
56	0	0	1020	4	181	402	2501
57	0	0	889	4	180	402	2502
58	0	0	1045	4	180	402	2503
59	0	0	1419	5	180	402	2505
60	0	0	1947	5	181	402	2506
61	0	0	2484	5	183	402	2506
62	0	0	2802	5	184	402	2506
63	0	0	2986	5	184	402	2505
64	0	0	3090	5	185	402	2502
65	0	0	3146	5	187	402	2501
66	0	0	3177	5	187	402	2501
67	0	0	3192	6	188	402	2502
68	0	0	3199	5	187	402	2503
69	0	0	3202	5	186	402	2505
70	0	0	3201	6	185	403	2506
71	0	0	2946	4	185	402	2507
72	0	0	2237	4	184	402	2507
73	0	0	1470	3	183	402	2506
74	0	0	740	3	181	402	2504
75	0	0	109	4	181	403	2503
76	0	0	0	4	181	402	2503
77	0	0	0	4	181	402	2503
78	0	0	0	4	180	402	2505
79	0	0	0	4	180	402	2506
80	0	0	285	4	181	402	2507
81	0	0	881	5	182	402	2508
82	0	0	1548	5	184	402	2507
83	0	0	2204	5	184	402	2506
84	0	0	2645	5	185	402	2504
85	0	0	2907	5	187	402	2503
86	0	0	3060	5	187	402	2503
87	0	0	3149	5	187	403	2504
88	0	0	3198	5	186	402	2505
89	0	0	3111	4	187	402	2507
90	0	0	2334	4	186	402	2508
91	0	0	1443	3	185	402	2508
92	0	0	568	4	183	402	2508
93	0	0	4	3	184	402	2507
94	0	0	0	4	182	402	2505
95	0	0	0	4	181	402	2505
96	0	0	0	4	180	402	2504
97	0	0	0	4	180	402	2506
98	0	0	0	4	181	402	2506
99	0	0	0	4	181	402	2508
100	0	0	0	4	183	402	2509
101	0	0	0	4	182	402	2509
102	0	0	0	5	183	402	2509
103	0	0	290	5	184	402	2509
104	0	0	873	5	186	402	2507
105	0	0	1594	5	187	402	2505
106	0	0	2248	5	187	402	2505
107	0	0	2605	5	187	402	2506
108	0	0	2644	5	187	402	2507
109	0	0	2216	4	187	402	2509
110	0	0	1414	4	187	402	2510
111	0	0	584	3	185	402	2511
112	0	0	86	4	183	402	2511
113	0	0	0	4	183	402	2510
114	0	0	0	3	182	402	2508
115	0	0	0	4	181	402	2507
116	0	0	0	4	181	402	2507
117	0	0	0	4	180	402	2508
118	0	0	0	4	181	402	2509
119	0	0	0	4	181	402	2511
120	0	0	0	4	182	402	2512
121	0	0	0	4	182	402	2512
122	0	0	927	4	183	402	2512
123	0	0	1928	5	184	402	2511
124	0	0	2589	5	185	402	2509
125	0	0	2987	5	187	403	2508
126	0	0	3225	5	187	403	2507
127	0	0	3365	6	188	402	2508
0	0	0	3441	5	187	402	2510
1	0	0	3484	5	187	401	2511
2	0	0	3507	5	185	402	2513
3	0	0	3515	5	185	401	2513
4	0	0	3101	3	184	402	2514
5	0	0	2548	4	183	402	2512
6	0	0	2124	4	181	402	2510
7	0	0	1804	4	182	402	2509
8	0	0	1828	5	180	402	2509
9	0	0	2435	5	181	402	2510
10	0	0	2909	5	181	402	2512
11	0	0	3177	4	181	401	2513
12	0	0	3326	5	182	402	2514
13	0	0	3408	5	183	402	2515
14	0	0	3451	5	184	402	2515
15	0	0	3472	4	184	402	2514
16	0	0	3483	5	185	401	2512
17	0	0	3488	5	186	402	2511
18	0	0	3486	6	187	402	2510
19	0	0	3484	5	186	402	2512
20	0	0	3483	5	187	402	2513
21	0	0	3478	5	187	402	2514
22	0	0	3474	5	184	402	2516
23	0	0	3469	5	184	403	2516
24	0	0	3465	5	183	402	2516
25	0	0	3460	5	183	402	2516
26	0	0	3457	5	184	402	2513
27	0	0	3451	5	181	402	2513
28	0	0	3449	5	181	403	2513
29	0	0	3444	5	181	402	2513
30	0	0	3439	5	182	402	2515
31	0	0	3436	5	181	402	2517
32	0	0	3430	5	183	402	2518
33	0	0	3427	5	183	402	2519
34	0	0	3422	5	185	402	2518
35	0	0	3417	5	185	402	2517
36	0	0	3414	5	186	402	2515
37	0	0	3408	5	186	402	2515
38	0	0	3404	5	187	402	2514
39	0	0	3400	5	187	402	2516
40	0	0	3397	5	186	402	2517
41	0	0	3392	5	186	401	2518
42	0	0	3387	5	185	402	2520
43	0	0	3384	5	185	402	2521
44	0	0	3379	5	184	402	2521
45	0	0	3375	5	184	402	2520
46	0	0	3372	5	184	402	2518
47	0	0	3367	5	184	402	2517
48	0	0	3363	5	183	402	2517
49	0	0	3358	5	183	402	2518
50	0	0	3355	5	184	402	2519
51	0	0	3352	5	184	401	2521
52	0	0	3348	5	184	402	2523
53	0	0	3342	5	184	402	2523
54	0	0	3340	5	185	402	2523
55	0	0	3336	5	186	403	2522
56	0	0	3332	5	187	402	2520
57	0	0	3327	5	188	402	2519
58	0	0	3324	5	188	402	2519
59	0	0	3319	5	186	402	2520
60	0	0	3315	5	186	402	2522
61	0	0	3313	6	186	402	2523
62	0	0	3307	6	184	402	2525
63	0	0	3304	5	184	402	2525
64	0	0	3300	5	184	402	2525
65	0	0	3297	5	184	402	2525
66	0	0	3293	5	182	401	2523
67	0	0	3291	5	183	402	2522
68	0	0	3286	5	183	402	2521
69	0	0	3282	5	181	402	2523
70	0	0	3279	5	184	402	2524
71	0	0	3274	5	184	402	2525
72	0	0	3272	5	184	402	2527
73	0	0	3266	5	185	402	2527
74	0	0	3263	5	186	402	2527
75	0	0	3260	5	186	402	2526
76	0	0	3256	5	187	402	2524
77	0	0	3252	5	187	402	2523
78	0	0	3250	5	187	403	2524
79	0	0	3246	5	187	402	2524
80	0	0	3241	5	186	402	2526
81	0	0	3239	6	186	402	2527
82	0	0	3234	5	186	402	2529
83	0	0	3231	5	184	402	2529
84	0	0	3228	5	182	402	2530
85	0	0	3225	5	183	401	2528
86	0	0	3222	5	182	403	2526
87	0	0	3218	5	184	403	2525
88	0	0	3216	5	183	402	2526
89	0	0	3212	5	183	402	2526
90	0	0	3208	5	182	402	2528
91	0	0	3205	5	184	402	2529
92	0	0	3200	5	185	402	2530
93	0	0	3198	5	185	402	2530
94	0	0	3194	5	185	402	2530
95	0	0	3191	5	186	402	2530
96	0	0	3189	5	187	403	2528
97	0	0	3185	6	187	402	2527
98	0	0	3182	5	187	403	2526
99	0	0	3178	5	187	402	2528
100	0	0	3176	6	187	402	2529
101	0	0	3174	6	185	403	2531
102	0	0	3171	5	185	402	2532
103	0	0	3167	5	183	402	2533
104	0	0	3164	5	183	403	2533
105	0	0	3162	5	183	403	2532
106	0	0	3158	5	181	403	2530
107	0	0	3156	5	181	402	2529
108	0	0	3151	5	181	402	2529
109	0	0	3149	5	181	402	2530
110	0	0	3147	5	182	403	2531
111	0	0	3143	5	183	402	2533
112	0	0	3141	5	183	402	2534
113	0	0	3137	5	185	402	2534
114	0	0	3135	5	185	402	2534
115	0	0	3132	5	185	402	2534
116	0	0	3130	5	186	402	2532
117	0	0	3126	5	186	402	2530
118	0	0	3123	5	187	402	2530
119	0	0	3121	5	186	402	2531
120	0	0	3117	6	186	402	2532
121	0	0	3115	5	185	403	2534
122	0	0	3111	5	185	402	2536
123	0	0	2939	4	184	402	2536
124	0	0	2875	3	183	402	2536
125	0	0	2681	4	183	402	2535
126	0	0	2462	4	184	402	2533
127	0	0	2273	4	183	402	2532
0	0	0	2220	5	183	402	2532
1	0	0	2419	5	182	402	2533
2	0	0	2717	5	183	402	2535
3	0	0	2894	5	184	402	2536
4	0	0	2987	5	184	402	2537
5	0	0	3034	5	185	402	2537
6	0	0	3059	5	183	402	2538
7	0	0	3070	5	185	402	2536
8	0	0	3076	5	185	402	2534
9	0	0	3077	5	185	402	2533
10	0	0	3077	5	186	402	2533
11	0	0	3075	5	185	402	2534
12	0	0	3073	5	185	402	2536
13	0	0	2720	4	185	403	2537
14	0	0	2043	4	183	402	2539
15	0	0	1393	4	184	402	2539
16	0	0	833	4	184	402	2539
17	0	0	386	4	184	402	2538
18	0	0	41	3	184	402	2535
19	0	0	0	3	183	402	2534
20	0	0	0	4	183	402	2534
21	0	0	0	4	183	402	2535
22	0	0	0	5	183	402	2537
23	0	0	103	4	184	402	2538
24	0	0	677	5	183	402	2539
25	0	0	1543	5	185	402	2540
26	0	0	2194	4	185	402	2539
27	0	0	2584	5	185	403	2538
28	0	0	2819	5	185	403	2536
29	0	0	2952	5	185	402	2535
30	0	0	3028	5	186	402	2535
31	0	0	3069	4	186	402	2536
32	0	0	3092	5	185	402	2537
33	0	0	3104	5	184	402	2539
34	0	0	3110	5	184	403	2540
35	0	0	3109	5	183	402	2540
36	0	0	3109	5	183	402	2540
37	0	0	3107	5	182	402	2539
38	0	0	3105	5	183	402	2537
39	0	0	3102	5	182	402	2536
40	0	0	3099	5	182	402	2535
41	0	0	3095	5	183	402	2536
42	0	0	3092	5	183	402	2538
43	0	0	3089	5	184	402	2539
44	0	0	3086	5	183	402	2540
45	0	0	3083	5	185	402	2540
46	0	0	3080	5	185	402	2540
47	0	0	3076	5	185	402	2540
48	0	0	3074	5	186	402	2537
49	0	0	3069	5	185	402	2536
50	0	0	3068	5	185	402	2537
51	0	0	3065	5	184	403	2537
52	0	0	3060	5	185	403	2539
53	0	0	3059	5	184	402	2541
54	0	0	3054	5	183	402	2541
55	0	0	3053	5	183	403	2542
56	0	0	3050	5	183	402	2542
57	0	0	3046	5	183	402	2541
58	0	0	2983	4	182	403	2539
59	0	0	2756	4	182	402	2537
60	0	0	2678	5	181	402	2537
61	0	0	2827	4	183	402	2538
62	0	0	2930	5	182	402	2539
63	0	0	2980	5	184	402	2541
64	0	0	3003	5	184	402	2542
65	0	0	3014	5	185	402	2542
66	0	0	3017	5	185	402	2542
67	0	0	3019	5	184	402	2541
68	0	0	3018	5	185	403	2539
69	0	0	3018	5	185	403	2538
70	0	0	3015	5	185	402	2538
71	0	0	3012	5	186	402	2539
72	0	0	3011	5	184	404	2540
73	0	0	3008	5	184	402	2542
74	0	0	2925	4	183	402	2543
75	0	0	2297	4	182	402	2543
76	0	0	1672	4	184	402	2543
77	0	0	1119	3	183	402	2542
78	0	0	659	4	183	402	2540
79	0	0	239	4	182	402	2539
80	0	0	0	4	183	402	2539
81	0	0	0	4	184	402	2539
82	0	0	0	4	184	402	2541
83	0	0	175	5	184	402	2542
84	0	0	776	5	184	402	2544
85	0	0	1569	5	184	402	2544
86	0	0	2180	5	184	402	2544
87	0	0	2458	4	184	402	2543
88	0	0	2400	4	185	402	2541
89	0	0	2308	4	184	402	2539
90	0	0	2022	4	185	402	2540
91	0	0	1562	4	184	403	2540
92	0	0	1065	4	184	402	2541
93	0	0	500	4	185	402	2543
94	0	0	0	4	183	402	2544
95	0	0	0	4	183	402	2544
96	0	0	0	4	184	402	2544
97	0	0	0	4	183	402	2543
98	0	0	0	4	184	403	2541
99	0	0	0	5	184	402	2540
100	0	0	0	5	183	402	2539
101	0	0	580	5	183	402	2541
102	0	0	862	5	184	402	2541
103	0	0	880	4	183	403	2543
104	0	0	789	4	183	402	2544
105	0	0	693	4	184	402	2544
106	0	0	589	4	183	402	2544
107	0	0	496	3	185	402	2543
108	0	0	369	3	185	402	2540
109	0	0	321	4	184	402	2539
110	0	0	145	4	185	402	2540
111	0	0	0	4	185	402	2540
112	0	0	0	3	184	402	2541
113	0	0	0	4	184	403	2543
114	0	0	0	4	183	402	2544
115	0	0	0	4	184	402	2544
116	0	0	0	4	183	402	2545
117	0	0	0	3	183	402	2544
118	0	0	0	4	183	402	2541
119	0	0	0	4	182	402	2540
120	0	0	0	4	182	402	2540
121	0	0	0	4	183	402	2541
122	0	0	0	4	181	402	2542
123	0	0	0	4	183	402	2543
124	0	0	0	4	183	402	2544
125	0	0	0	4	185	402	2544
126	0	0	0	4	185	402	2544
127	0	0	0	4	185	402	2543
0	0	0	0	4	186	402	2541
1	0	0	0	4	185	402	2540
2	0	0	0	4	184	402	2540
3	0	0	0	4	185	402	2541
4	0	0	0	4	185	402	2542
5	0	0	0	4	184	402	2544
6	0	0	0	4	182	402	2545
7	0	0	0	4	184	402	2545
8	0	0	0	4	183	402	2546
9	0	0	0	4	182	402	2544
10	0	0	0	4	183	403	2542
11	0	0	0	4	182	402	2541
12	0	0	0	4	183	402	2541
13	0	0	0	4	183	402	2542
14	0	0	0	4	183	402	2542
15	0	0	0	4	183	403	2544
16	0	0	0	4	184	403	2545
17	0	0	0	4	184	402	2545
18	0	0	0	4	185	402	2546
19	0	0	0	4	186	402	2544
20	0	0	0	4	186	403	2542
21	0	0	0	4	186	402	2541
22	0	0	0	4	186	402	2540
23	0	0	0	4	186	402	2541
24	0	0	0	3	184	402	2543
25	0	0	0	4	184	402	2544
26	0	0	0	4	183	402	2546
27	0	0	0	4	184	402	2546
28	0	0	0	4	183	402	2546
29	0	0	0	4	183	402	2545
30	0	0	0	4	181	402	2542
31	0	0	0	4	180	402	2541
32	0	0	0	4	181	402	2542
33	0	0	0	5	182	402	2542
34	0	0	0	4	182	402	2543
35	0	0	0	4	183	402	2544
36	0	0	0	4	183	402	2545
37	0	0	0	4	184	402	2546
38	0	0	0	4	184	402	2545
39	0	0	0	4	186	402	2545
40	0	0	0	4	185	403	2542
41	0	0	0	4	185	402	2541
42	0	0	0	4	185	402	2540
43	0	0	0	4	186	402	2541
44	0	0	0	4	186	402	2542
45	0	0	0	4	184	403	2544
46	0	0	0	4	183	402	2545
47	0	0	0	4	184	402	2546
48	0	0	0	4	183	402	2545
49	0	0	0	4	182	402	2544
50	0	0	0	4	182	403	2542
51	0	0	0	4	182	402	2541
52	0	0	0	4	182	402	2540
53	0	0	0	4	182	402	2542
54	0	0	0	3	183	404	2543
55	0	0	0	4	183	402	2544
56	0	0	0	4	183	402	2545
57	0	0	0	4	183	402	2545
58	0	0	0	4	184	403	2545
59	0	0	0	3	185	402	2544
60	0	0	0	4	185	402	2542
61	0	0	0	4	185	402	2540
62	0	0	0	4	186	402	2540
63	0	0	0	4	187	402	2540
64	0	0	0	4	186	402	2542
65	0	0	0	4	185	403	2543
66	0	0	0	4	184	402	2545
67	0	0	0	4	183	402	2545
68	0	0	0	5	183	402	2545
69	0	0	4	3	182	402	2544
70	0	0	10	4	182	402	2542
71	0	0	15	4	181	402	2540
72	0	0	21	4	181	402	2540
73	0	0	27	4	182	403	2541
74	0	0	32	4	182	402	2542
75	0	0	38	4	183	402	2543
76	0	0	43	4	182	402	2544
77	0	0	49	4	184	402	2545
78	0	0	55	4	184	402	2544
79	0	0	60	4	186	402	2544
80	0	0	66	4	185	403	2541
81	0	0	71	4	186	402	2540
82	0	0	77	4	185	402	2539
83	0	0	83	4	186	402	2540
84	0	0	89	4	186	402	2541
85	0	0	94	4	185	403	2543
86	0	0	99	4	184	402	2545
87	0	0	105	4	184	402	2545
88	0	0	110	4	182	402	2545
89	0	0	115	4	182	402	2544
90	0	0	121	4	182	403	2542
91	0	0	126	4	181	402	2540
92	0	0	131	4	181	402	2541
93	0	0	136	5	181	402	2541
94	0	0	144	4	181	402	2542
95	0	0	148	4	182	402	2543
96	0	0	153	4	182	402	2544
97	0	0	159	4	183	402	2544
98	0	0	164	4	184	402	2545
99	0	0	169	4	184	402	2543
100	0	0	174	4	185	402	2541
101	0	0	179	4	187	402	2540
102	0	0	185	4	187	402	2539
103	0	0	190	4	187	403	2540
104	0	0	195	4	186	402	2542
105	0	0	201	4	186	403	2543
106	0	0	205	4	184	403	2544
107	0	0	211	4	184	402	2544
108	0	0	216	4	183	403	2544
109	0	0	220	3	183	402	2544
110	0	0	225	4	181	402	2541
111	0	0	231	4	180	402	2540
112	0	0	236	4	179	403	2540
113	0	0	241	6	180	402	2540
114	0	0	247	4	180	402	2541
115	0	0	252	4	180	402	2542
116	0	0	256	4	181	402	2544
117	0	0	262	4	181	402	2543
118	0	0	266	4	182	403	2544
119	0	0	271	3	184	402	2542
120	0	0	276	4	185	402	2540
121	0	0	280	4	186	402	2538
122	0	0	285	4	187	402	2538
123	0	0	291	4	188	402	2539
124	0	0	296	4	187	402	2540
125	0	0	300	4	187	402	2542
126	0	0	305	4	186	402	2543
127	0	0	310	4	184	402	2543
0	0	0	317	4	184	402	2543
1	0	0	320	3	183	402	2542
2	0	0	324	4	181	403	2540
3	0	0	329	4	181	402	2539
4	0	0	333	4	180	402	2538
5	0	0	338	4	181	402	2539
6	0	0	344	4	180	403	2540
7	0	0	348	4	180	403	2541
8	0	0	353	4	181	402	2542
9	0	0	357	4	182	402	2542
10	0	0	362	4	183	402	2542
11	0	0	366	4	184	402	2541
12	0	0	371	4	185	402	2538
13	0	0	376	4	186	402	2537
14	0	0	380	4	189	402	2536
15	0	0	385	4	189	402	2537
16	0	0	390	4	187	403	2538
17	0	0	393	4	187	403	2539
18	0	0	398	4	187	403	2541
19	0	0	403	4	185	402	2541
20	0	0	408	4	184	402	2541
21	0	0	413	4	182	403	2540
22	0	0	417	4	181	402	2538
23	0	0	421	4	181	402	2537
24	0	0	425	4	180	402	2537
25	0	0	430	4	180	402	2538
26	0	0	434	4	181	402	2538
27	0	0	438	4	181	403	2539
28	0	0	443	4	181	402	2541
29	0	0	447	4	183	402	2541
30	0	0	452	4	184	402	2540
31	0	0	456	5	186	402	2539
32	0	0	460	4	186	402	2536
33	0	0	465	4	187	402	2535
34	0	0	468	4	188	402	2535
35	0	0	473	4	187	402	2535
36	0	0	478	5	188	402	2537
37	0	0	482	4	188	402	2539
38	0	0	486	4	186	403	2540
39	0	0	490	4	186	402	2540
40	0	0	493	4	184	402	2540
41	0	0	498	4	184	402	2539
42	0	0	503	4	182	402	2537
43	0	0	507	4	181	402	2536
44	0	0	512	4	180	402	2535
45	0	0	516	4	180	402	2536
46	0	0	521	4	179	402	2537
47	0	0	525	4	180	402	2538
48	0	0	528	4	181	402	2539
49	0	0	532	4	182	402	2539
50	0	0	537	5	184	402	2539
51	0	0	541	5	184	402	2537
52	0	0	545	4	186	402	2535
53	0	0	549	4	188	403	2533
54	0	0	551	4	188	402	2533
55	0	0	556	5	188	402	2533
56	0	0	560	5	187	402	2535
57	0	0	565	4	188	403	2536
58	0	0	569	4	187	402	2538
59	0	0	573	4	186	403	2538
60	0	0	577	4	184	402	2538
61	0	0	581	4	183	402	2537
62	0	0	585	4	181	402	2535
63	0	0	588	4	181	403	2534
64	0	0	592	4	180	402	2533
65	0	0	598	4	179	402	2534
66	0	0	601	4	179	402	2534
67	0	0	605	4	179	402	2536
68	0	0	609	4	181	402	2537
69	0	0	612	4	181	402	2536
70	0	0	617	4	183	402	2536
71	0	0	878	5	183	402	2535
72	0	0	1501	4	184	403	2532
73	0	0	2409	5	187	403	2531
74	0	0	3285	5	188	402	2530
75	0	0	3817	5	189	402	2531
76	0	0	3859	4	188	403	2532
77	0	0	3319	3	189	403	2534
78	0	0	2363	4	186	402	2535
79	0	0	1612	4	185	403	2536
80	0	0	1179	4	184	402	2536
81	0	0	926	4	183	402	2535
82	0	0	788	3	182	402	2533
83	0	0	712	4	181	402	2531
84	0	0	673	4	180	402	2532
85	0	0	654	5	180	402	2532
86	0	0	644	4	179	402	2533
87	0	0	641	4	179	402	2534
88	0	0	641	4	180	402	2535
89	0	0	642	4	182	402	2535
90	0	0	1182	5	183	402	2534
91	0	0	2109	5	183	402	2533
92	0	0	3047	5	185	402	2531
93	0	0	3702	5	187	402	2529
94	0	0	4091	5	188	402	2529
95	0	0	4092	6	189	402	2530
96	0	0	4091	5	189	402	2531
97	0	0	4092	4	188	402	2532
98	0	0	3683	4	187	403	2534
99	0	0	2648	4	186	402	2534
100	0	0	1785	4	184	402	2534
101	0	0	1280	3	184	402	2534
102	0	0	983	4	181	403	2531
103	0	0	818	4	180	402	2530
104	0	0	727	4	181	402	2530
105	0	0	679	4	180	402	2531
106	0	0	654	3	180	402	2532
107	0	0	642	3	180	402	2533
108	0	0	638	4	180	403	2534
109	0	0	1242	4	181	402	2534
110	0	0	2068	4	183	402	2534
111	0	0	2897	4	184	402	2533
112	0	0	3586	4	185	402	2530
113	0	0	4028	5	187	403	2529
114	0	0	4091	5	189	402	2528
115	0	0	4091	5	189	402	2529
116	0	0	4092	4	189	402	2531
117	0	0	3699	3	188	403	2532
118	0	0	2553	4	187	403	2534
119	0	0	1724	4	185	402	2534
120	0	0	1236	4	186	402	2534
121	0	0	956	4	183	402	2533
122	0	0	797	4	182	402	2531
123	0	0	712	4	181	402	2530
124	0	0	666	4	180	402	2530
125	0	0	642	4	179	402	2531
126	0	0	632	4	178	402	2531
127	0	0	629	3	180	403	2533
0	0	0	628	4	181	402	2534
1	0	0	630	4	182	402	2534
2	0	0	633	4	181	402	2534
3	0	0	636	4	184	402	2532
4	0	0	641	4	186	402	2530
5	0	0	668	5	186	403	2528
6	0	0	1106	5	188	402	2528
7	0	0	1259	4	189	402	2529
8	0	0	1110	4	189	403	2530
9	0	0	881	4	187	402	2532
10	0	0	772	4	186	402	2534
11	0	0	720	4	185	402	2534
12	0	0	696	4	185	402	2534
13	0	0	685	4	183	402	2533
14	0	0	682	4	182	402	2531
15	0	0	682	4	181	403	2530
16	0	0	684	3	181	402	2530
17	0	0	687	4	180	402	2530
18	0	0	690	4	179	401	2532
19	0	0	693	4	180	402	2533
20	0	0	697	4	181	402	2534
21	0	0	701	4	181	402	2534
22	0	0	703	4	183	402	2534
23	0	0	707	5	184	402	2533
24	0	0	711	4	185	403	2530
25	0	0	714	4	187	403	2529
26	0	0	982	5	188	402	2529
27	0	0	1121	5	190	402	2529
28	0	0	998	4	188	402	2531
29	0	0	858	4	188	402	2532
30	0	0	794	4	187	403	2534
31	0	0	765	4	186	402	2535
32	0	0	752	4	184	402	2535
33	0	0	748	4	182	402	2534
34	0	0	747	4	181	402	2532
35	0	0	749	4	180	402	2531
36	0	0	752	4	179	402	2531
37	0	0	754	4	179	402	2532
38	0	0	757	5	179	402	2533
39	0	0	761	4	179	402	2535
40	0	0	764	4	180	402	2535
41	0	0	767	4	182	402	2535
42	0	0	771	4	182	402	2535
43	0	0	774	4	184	401	2535
44	0	0	778	4	185	402	2532
45	0	0	958	5	187	402	2531
46	0	0	1578	6	188	402	2530
47	0	0	1969	5	188	402	2531
48	0	0	2118	6	189	402	2533
49	0	0	1903	4	188	402	2535
50	0	0	1423	4	187	402	2536
51	0	0	1128	4	185	402	2537
52	0	0	970	4	184	402	2537
53	0	0	888	4	183	402	2537
54	0	0	847	4	182	402	2535
55	0	0	826	4	181	402	2533
56	0	0	817	4	180	402	2533
57	0	0	814	4	180	402	2534
58	0	0	814	3	179	402	2536
59	0	0	814	4	181	402	2537
60	0	0	818	4	180	402	2538
61	0	0	1335	5	181	402	2538
62	0	0	2038	5	183	401	2539
63	0	0	2808	5	183	402	2537
64	0	0	3539	5	185	402	2535
65	0	0	4067	4	185	403	2534
66	0	0	4090	5	186	402	2534
67	0	0	4091	5	186	402	2535
68	0	0	4093	5	188	402	2536
69	0	0	4091	3	186	402	2538
70	0	0	3900	4	185	402	2539
71	0	0	3103	4	184	402	2540
72	0	0	2291	4	183	401	2540
73	0	0	1638	4	183	402	2539
74	0	0	1252	3	181	403	2537
75	0	0	1030	4	180	402	2536
76	0	0	906	4	180	402	2536
77	0	0	839	4	180	402	2536
78	0	0	805	5	180	402	2538
79	0	0	786	4	181	402	2539
80	0	0	943	5	181	401	2541
81	0	0	1464	4	182	402	2541
82	0	0	2072	5	183	401	2541
83	0	0	2691	3	184	402	2540
84	0	0	3257	5	185	402	2538
85	0	0	3849	5	186	402	2537
86	0	0	4090	5	187	402	2537
87	0	0	4091	4	187	402	2537
88	0	0	3965	5	187	402	2539
89	0	0	3173	4	185	402	2541
90	0	0	2193	4	185	402	2542
91	0	0	1573	4	186	402	2543
92	0	0	1211	4	183	402	2543
93	0	0	1001	3	182	402	2542
94	0	0	886	3	182	402	2540
95	0	0	825	4	181	402	2539
96	0	0	792	4	181	402	2539
97	0	0	776	4	181	402	2540
98	0	0	770	3	181	402	2542
99	0	0	768	4	181	403	2543
100	0	0	768	4	181	402	2545
101	0	0	771	4	182	402	2545
102	0	0	774	4	182	402	2546
103	0	0	777	4	184	403	2545
104	0	0	780	4	185	402	2543
105	0	0	784	4	185	402	2541
106	0	0	1059	5	188	402	2541
107	0	0	1129	4	187	402	2543
108	0	0	977	5	187	402	2544
109	0	0	886	4	186	403	2545
110	0	0	845	4	185	402	2547
111	0	0	827	4	185	402	2549
112	0	0	820	4	184	401	2549
113	0	0	819	5	182	402	2548
114	0	0	818	4	183	402	2546
115	0	0	822	4	181	402	2545
116	0	0	825	4	181	402	2545
117	0	0	828	4	180	402	2547
118	0	0	832	5	181	402	2548
119	0	0	835	4	181	402	2551
120	0	0	837	5	181	402	2552
121	0	0	841	4	183	402	2553
122	0	0	845	6	183	402	2553
123	0	0	848	5	184	402	2552
124	0	0	851	4	186	402	2551
125	0	0	854	4	186	402	2550
126	0	0	857	4	186	402	2550
127	0	0	860	4	186	402	2552
0	0	0	864	4	187	402	2553
1	0	0	867	4	186	403	2556
2	0	0	870	4	186	402	2557
3	0	0	874	4	185	402	2558
4	0	0	877	3	184	402	2559
5	0	0	879	5	183	402	2559
6	0	0	883	4	182	402	2558
7	0	0	886	4	182	402	2556
8	0	0	889	3	181	402	2558
9	0	0	893	4	181	402	2558
10	0	0	895	4	181	402	2561
11	0	0	897	4	181	402	2563
12	0	0	901	4	182	402	2565
13	0	0	904	4	183	402	2566
14	0	0	908	4	183	402	2567
15	0	0	911	4	184	402	2566
16	0	0	914	4	185	403	2564
17	0	0	917	4	186	401	2563
18	0	0	919	4	187	402	2564
19	0	0	922	4	187	402	2565
20	0	0	926	5	187	402	2567
21	0	0	928	4	186	402	2570
22	0	0	932	4	185	402	2572
23	0	0	935	4	185	402	2573
24	0	0	938	3	184	402	2574
25	0	0	941	5	183	402	2574
26	0	0	943	4	182	403	2572
27	0	0	946	4	182	402	2572
28	0	0	951	5	181	402	2573
29	0	0	953	4	182	402	2574
30	0	0	956	4	180	402	2576
31	0	0	959	4	181	402	2578
32	0	0	962	4	182	402	2580
33	0	0	964	4	182	402	2582
34	0	0	968	4	182	403	2582
35	0	0	970	4	184	402	2582
36	0	0	974	4	184	402	2580
37	0	0	976	4	187	401	2579
38	0	0	979	5	186	402	2580
39	0	0	982	4	187	403	2581
40	0	0	984	4	187	402	2584
41	0	0	988	4	187	402	2586
42	0	0	990	4	185	402	2589
43	0	0	993	4	184	402	2590
44	0	0	996	4	184	403	2590
45	0	0	999	4	183	402	2590
46	0	0	1001	4	182	402	2588
47	0	0	1004	4	181	402	2588
48	0	0	1007	4	181	402	2588
49	0	0	1010	4	181	403	2590
50	0	0	1013	4	181	402	2592
51	0	0	1015	4	181	402	2595
52	0	0	1018	4	181	402	2597
53	0	0	1020	4	183	402	2598
54	0	0	1026	4	183	402	2599
55	0	0	1028	5	185	402	2599
56	0	0	1029	5	185	402	2597
57	0	0	1033	4	185	402	2596
58	0	0	1036	4	187	402	2597
59	0	0	1038	3	186	402	2599
60	0	0	1041	5	187	402	2601
61	0	0	1044	4	186	402	2604
62	0	0	1047	4	186	403	2606
63	0	0	1049	4	185	402	2607
64	0	0	1052	4	184	402	2609
65	0	0	1055	4	184	402	2608
66	0	0	1056	4	182	402	2606
67	0	0	1060	4	182	402	2606
68	0	0	1063	4	181	402	2607
69	0	0	1066	4	181	402	2608
70	0	0	1068	4	181	402	2610
71	0	0	1070	4	181	402	2613
72	0	0	1074	4	183	402	2615
73	0	0	1076	4	183	402	2616
74	0	0	1078	4	183	402	2618
75	0	0	1082	5	185	402	2618
76	0	0	1084	4	185	402	2616
77	0	0	1086	5	187	402	2614
78	0	0	1089	4	187	402	2614
79	0	0	1091	4	187	402	2616
80	0	0	1094	5	187	402	2619
81	0	0	1096	4	186	402	2621
82	0	0	1099	4	186	402	2624
83	0	0	1102	4	185	402	2626
84	0	0	1104	5	185	402	2626
85	0	0	1107	5	184	402	2626
86	0	0	1109	5	182	402	2625
87	0	0	1112	4	182	401	2623
88	0	0	1115	5	181	402	2624
89	0	0	1117	4	181	402	2625
90	0	0	1120	4	181	403	2628
91	0	0	1121	4	182	402	2630
92	0	0	1124	4	182	402	2632
93	0	0	1126	4	183	402	2633
94	0	0	1129	4	185	402	2634
95	0	0	1132	4	184	402	2634
96	0	0	1134	5	186	402	2632
97	0	0	1137	4	186	402	2631
98	0	0	1139	4	186	402	2631
99	0	0	1142	4	185	402	2633
100	0	0	1144	4	186	402	2636
101	0	0	1146	4	185	402	2638
102	0	0	1149	4	185	402	2640
103	0	0	1152	4	184	402	2641
104	0	0	1154	4	183	402	2642
105	0	0	1156	4	182	402	2641
106	0	0	1158	4	183	402	2639
107	0	0	1161	4	182	401	2638
108	0	0	1163	4	183	402	2639
109	0	0	1165	4	183	402	2640
110	0	0	1168	5	183	402	2642
111	0	0	1171	4	183	402	2645
112	0	0	1173	4	183	401	2647
113	0	0	1175	5	183	402	2648
114	0	0	1177	4	184	402	2649
115	0	0	1179	4	185	402	2648
116	0	0	1182	4	185	402	2646
117	0	0	1184	4	187	402	2645
118	0	0	1187	4	186	402	2645
119	0	0	1189	4	186	402	2646
120	0	0	1192	4	185	402	2648
121	0	0	1193	4	185	402	2651
122	0	0	1196	4	184	401	2653
123	0	0	1199	3	184	402	2655
124	0	0	1201	4	182	403	2655
125	0	0	1203	5	182	402	2654
126	0	0	1205	4	184	402	2652
127	0	0	1208	4	182	402	2651
0	0	0	1210	4	183	402	2651
1	0	0	1212	4	181	403	2652
2	0	0	1214	4	182	402	2654
3	0	0	1217	4	183	402	2657
4	0	0	1219	4	183	401	2659
5	0	0	1221	3	184	403	2660
6	0	0	1224	4	184	402	2660
7	0	0	1225	5	185	403	2659
8	0	0	1228	5	185	402	2658
9	0	0	1229	4	186	402	2656
10	0	0	1231	4	186	402	2656
11	0	0	1234	4	186	402	2658
12	0	0	1236	4	185	402	2660
13	0	0	1238	4	185	402	2662
14	0	0	1241	4	184	402	2665
15	0	0	1243	3	184	402	2665
16	0	0	1245	4	183	402	2666
17	0	0	1248	5	182	402	2665
18	0	0	1250	4	183	402	2663
19	0	0	1251	4	182	402	2662
20	0	0	1254	4	182	402	2662
21	0	0	1256	4	182	403	2663
22	0	0	1258	5	182	402	2666
23	0	0	1260	5	182	402	2668
24	0	0	1262	4	183	402	2670
25	0	0	1265	4	184	402	2671
26	0	0	1267	4	184	402	2672
27	0	0	1269	4	184	402	2671
28	0	0	1271	3	185	402	2669
29	0	0	1272	4	186	402	2668
30	0	0	1275	3	186	402	2668
31	0	0	1277	4	186	402	2670
32	0	0	1279	4	185	402	2672
33	0	0	1281	4	184	402	2674
34	0	0	1284	4	184	402	2677
35	0	0	1285	4	184	402	2678
36	0	0	1287	4	184	402	2679
37	0	0	1290	4	183	402	2679
38	0	0	1292	4	183	402	2676
39	0	0	1294	4	182	402	2675
40	0	0	1295	4	182	402	2675
41	0	0	1298	4	182	402	2677
42	0	0	1299	4	182	403	2679
43	0	0	1301	4	183	402	2682
44	0	0	1304	4	183	402	2684
45	0	0	1306	4	184	402	2686
46	0	0	1308	4	184	402	2687
47	0	0	1310	5	185	402	2686
48	0	0	1313	4	186	403	2684
49	0	0	1313	4	186	402	2682
50	0	0	1315	4	186	402	2682
51	0	0	1318	4	185	403	2684
52	0	0	1320	5	186	402	2687
53	0	0	1321	4	185	402	2690
54	0	0	1324	4	185	402	2693
55	0	0	1325	5	184	402	2694
56	0	0	1328	4	183	402	2695
57	0	0	1330	4	184	402	2694
58	0	0	1331	4	182	402	2691
59	0	0	1333	4	183	402	2690
60	0	0	1336	4	182	402	2690
61	0	0	1338	4	183	402	2692
62	0	0	1339	4	182	402	2694
63	0	0	1341	4	183	402	2697
64	0	0	1342	4	182	402	2700
65	0	0	1345	4	185	402	2701
66	0	0	1347	4	184	402	2702
67	0	0	1349	4	185	402	2701
68	0	0	1350	5	186	402	2698
69	0	0	1352	4	185	402	2696
70	0	0	1354	4	186	402	2697
71	0	0	1356	4	185	402	2698
72	0	0	1358	4	185	402	2700
73	0	0	1360	3	185	402	2703
74	0	0	1361	4	184	402	2706
75	0	0	1364	4	184	402	2707
76	0	0	1366	4	183	402	2708
77	0	0	1368	6	184	402	2707
78	0	0	1369	5	182	402	2704
79	0	0	1371	4	183	402	2702
80	0	0	1373	4	183	402	2702
81	0	0	1375	4	183	402	2704
82	0	0	1377	5	183	402	2706
83	0	0	1378	4	183	402	2708
84	0	0	1380	4	183	402	2711
85	0	0	1383	3	185	402	2713
86	0	0	1384	4	185	402	2712
87	0	0	1386	6	185	402	2712
88	0	0	1387	4	185	402	2709
89	0	0	1389	4	185	402	2707
90	0	0	1391	4	185	402	2707
91	0	0	1393	4	185	402	2709
92	0	0	1394	5	184	402	2711
93	0	0	1396	5	185	402	2713
94	0	0	1398	4	184	402	2716
95	0	0	1400	4	184	402	2716
96	0	0	1401	5	184	402	2717
97	0	0	1403	4	183	401	2716
98	0	0	1404	4	184	402	2713
99	0	0	1407	4	183	402	2711
100	0	0	1409	4	183	402	2711
101	0	0	1411	4	182	402	2713
102	0	0	1412	4	183	402	2715
103	0	0	1414	4	183	402	2718
104	0	0	1416	4	184	403	2720
105	0	0	1418	4	184	402	2721
106	0	0	1419	4	184	402	2722
107	0	0	1421	4	185	402	2721
108	0	0	1423	4	185	402	2718
109	0	0	1425	4	185	402	2716
110	0	0	1426	4	185	402	2716
111	0	0	1428	4	185	402	2717
112	0	0	1430	4	185	402	2720
113	0	0	1431	5	184	402	2722
114	0	0	1433	4	184	402	2725
115	0	0	1435	4	184	402	2725
116	0	0	1436	3	183	402	2727
117	0	0	1438	4	184	402	2725
118	0	0	1439	4	183	402	2722
119	0	0	1440	4	182	402	2720
120	0	0	1443	4	183	402	2720
121	0	0	1443	5	182	402	2721
122	0	0	1446	4	181	402	2724
123	0	0	1448	4	184	402	2727
124	0	0	1449	4	184	402	2729
125	0	0	1450	5	185	402	2730
126	0	0	1452	4	184	402	2730
127	0	0	1454	5	185	402	2730
0	0	0	1455	4	185	402	2727
1	0	0	1458	4	186	402	2725
2	0	0	1459	4	184	402	2725
3	0	0	1460	4	185	402	2726
4	0	0	1462	5	181	402	2729
5	0	0	1464	4	184	402	2731
6	0	0	1465	4	184	403	2733
7	0	0	1467	4	184	404	2735
8	0	0	1469	4	183	402	2735
9	0	0	1470	5	183	402	2734
10	0	0	1471	4	183	402	2731
11	0	0	1472	4	182	402	2728
12	0	0	1475	4	183	402	2728
13	0	0	1476	4	183	402	2729
14	0	0	1478	4	184	402	2732
15	0	0	1479	4	183	402	2734
16	0	0	1480	4	185	402	2736
17	0	0	1482	4	184	402	2737
18	0	0	1484	4	185	402	2738
19	0	0	1486	4	184	402	2737
20	0	0	1487	4	186	402	2734
21	0	0	1489	4	185	402	2732
22	0	0	1490	4	186	402	2732
23	0	0	1492	4	184	402	2733
24	0	0	1493	4	183	402	2735
25	0	0	1495	4	184	402	2738
26	0	0	1496	4	183	402	2740
27	0	0	1497	4	184	402	2740
28	0	0	1499	4	183	402	2741
29	0	0	1500	4	183	403	2739
30	0	0	1502	4	183	402	2737
31	0	0	1503	4	183	402	2734
32	0	0	1505	4	182	402	2734
33	0	0	1506	4	183	402	2736
34	0	0	1509	5	183	402	2738
35	0	0	1509	4	184	402	2740
36	0	0	1511	4	184	402	2743
37	0	0	1512	5	183	402	2743
38	0	0	1514	4	185	402	2744
39	0	0	1516	4	184	402	2743
40	0	0	1516	4	185	402	2740
41	0	0	1518	4	184	402	2738
42	0	0	1519	5	185	402	2737
43	0	0	1521	4	185	402	2739
44	0	0	1524	4	184	402	2741
45	0	0	1524	4	184	402	2743
46	0	0	1525	4	183	402	2745
47	0	0	1527	5	182	402	2745
48	0	0	1528	5	184	402	2746
49	0	0	1530	4	183	403	2744
50	0	0	1531	3	183	402	2742
51	0	0	1532	4	183	402	2739
52	0	0	1534	4	183	402	2739
53	0	0	1537	4	182	402	2740
54	0	0	1537	4	184	402	2742
55	0	0	1539	4	183	402	2745
56	0	0	1541	4	184	402	2747
57	0	0	1541	5	184	402	2747
58	0	0	1543	4	185	402	2748
59	0	0	1545	4	185	402	2747
60	0	0	1545	4	185	402	2743
61	0	0	1547	4	184	402	2741
62	0	0	1548	5	185	402	2740
63	0	0	1550	4	185	402	2741
64	0	0	1552	5	184	402	2743
65	0	0	1553	4	183	402	2746
66	0	0	1554	4	184	402	2748
67	0	0	1555	4	183	402	2748
68	0	0	1556	5	184	402	2748
69	0	0	1559	4	184	402	2747
70	0	0	1558	4	183	402	2744
71	0	0	1561	4	184	402	2742
72	0	0	1561	5	183	402	2741
73	0	0	1563	5	183	402	2742
74	0	0	1565	4	184	402	2744
75	0	0	1565	3	184	402	2747
76	0	0	1567	4	183	402	2748
77	0	0	1568	4	184	402	2750
78	0	0	1571	4	186	402	2749
79	0	0	1571	4	185	402	2748
80	0	0	1572	4	185	402	2745
81	0	0	1573	4	185	402	2742
82	0	0	1575	4	184	402	2742
83	0	0	1576	4	185	402	2743
84	0	0	1578	4	184	402	2746
85	0	0	1578	3	184	402	2748
86	0	0	1579	4	183	402	2749
87	0	0	1581	5	184	402	2750
88	0	0	1582	4	183	402	2750
89	0	0	1584	4	185	402	2749
90	0	0	1585	4	183	402	2746
91	0	0	1586	4	183	402	2743
92	0	0	1587	5	184	402	2743
93	0	0	1588	4	184	402	2744
94	0	0	1590	4	184	402	2746
95	0	0	1591	4	184	402	2748
96	0	0	1593	4	184	402	2750
97	0	0	1594	4	184	402	2752
98	0	0	1596	4	185	403	2752
99	0	0	1597	4	185	402	2750
100	0	0	1598	4	185	402	2747
101	0	0	1599	4	184	402	2744
102	0	0	1600	4	184	402	2745
103	0	0	1602	4	184	402	2745
104	0	0	1603	4	183	402	2747
105	0	0	1604	4	184	402	2750
106	0	0	1605	4	184	402	2751
107	0	0	1607	4	183	402	2752
108	0	0	1607	4	183	402	2752
109	0	0	1609	4	184	402	2751
110	0	0	1611	4	184	402	2747
111	0	0	1611	4	183	402	2744
112	0	0	1612	4	184	402	2744
113	0	0	1614	4	183	402	2745
114	0	0	1615	4	184	402	2748
115	0	0	1616	4	184	402	2750
116	0	0	1617	4	184	402	2752
117	0	0	1618	4	184	402	2753
118	0	0	1620	4	184	402	2753
119	0	0	1622	4	184	402	2752
120	0	0	1621	3	185	402	2748
121	0	0	1624	4	185	402	2746
122	0	0	1623	5	185	402	2745
123	0	0	1626	4	184	402	2747
124	0	0	1628	4	185	402	2749
125	0	0	1627	4	184	402	2751
126	0	0	1629	4	184	402	2753
127	0	0	1630	4	184	402	2753
0	0	0	1631	3	183	402	2753
1	0	0	1632	4	184	402	2751
2	0	0	1633	4	182	402	2748
3	0	0	1635	4	184	402	2745
4	0	0	1635	5	183	402	2745
5	0	0	1637	5	183	402	2746
6	0	0	1638	4	184	402	2748
7	0	0	1639	4	184	402	2751
8	0	0	1641	4	184	402	2753
9	0	0	1641	4	184	402	2754
10	0	0	1643	5	184	402	2753
11	0	0	1644	4	184	402	2752
12	0	0	1645	4	184	402	2749
13	0	0	1646	4	185	402	2747
14	0	0	1647	4	183	402	2745
15	0	0	1648	4	184	402	2747
16	0	0	1650	4	185	402	2749
17	0	0	1650	3	184	402	2751
18	0	0	1652	4	183	402	2753
19	0	0	1652	5	183	402	2753
20	0	0	1654	4	183	402	2753
21	0	0	1654	4	184	402	2752
22	0	0	1656	5	183	402	2749
23	0	0	1656	5	183	402	2747
24	0	0	1657	5	183	402	2746
25	0	0	1658	4	183	402	2747
26	0	0	1661	4	184	402	2749
27	0	0	1661	4	184	402	2751
28	0	0	1662	4	184	402	2753
29	0	0	1663	3	182	402	2753
30	0	0	1664	4	184	402	2754
31	0	0	1666	4	184	402	2752
32	0	0	1666	3	184	402	2749
33	0	0	1667	4	184	402	2746
34	0	0	1668	4	184	402	2746
35	0	0	1668	4	185	402	2747
36	0	0	1671	4	185	402	2749
37	0	0	1671	3	184	402	2751
38	0	0	1672	4	183	402	2753
39	0	0	1673	4	183	402	2753
40	0	0	1674	4	183	402	2753
41	0	0	1676	4	183	402	2752
42	0	0	1677	3	184	402	2749
43	0	0	1678	4	184	402	2747
44	0	0	1677	5	184	402	2746
45	0	0	1679	4	184	402	2747
46	0	0	1681	4	184	402	2749
47	0	0	1682	3	184	402	2751
48	0	0	1682	4	184	402	2752
49	0	0	1683	4	184	402	2753
50	0	0	1685	5	184	403	2753
51	0	0	1686	4	184	402	2752
52	0	0	1686	4	183	402	2748
53	0	0	1687	4	184	402	2746
54	0	0	1688	4	184	402	2746
55	0	0	1690	4	184	401	2747
56	0	0	1690	4	185	402	2748
57	0	0	1691	3	184	402	2751
58	0	0	1693	4	183	402	2753
59	0	0	1695	4	184	402	2753
60	0	0	1694	5	184	402	2754
61	0	0	1696	5	184	402	2752
62	0	0	1696	4	184	402	2748
63	0	0	1698	4	183	402	2745
64	0	0	1698	4	183	402	2745
65	0	0	1700	4	184	403	2746
66	0	0	1700	4	184	402	2748
67	0	0	1702	4	183	402	2750
68	0	0	1703	4	183	402	2752
69	0	0	1703	4	184	402	2753
70	0	0	1705	5	184	402	2753
71	0	0	1706	4	184	402	2752
72	0	0	1705	4	185	402	2748
73	0	0	1707	4	184	402	2746
74	0	0	1709	5	184	402	2745
75	0	0	1708	4	184	402	2747
76	0	0	1710	4	184	402	2748
77	0	0	1711	3	183	402	2750
78	0	0	1712	4	184	402	2752
79	0	0	1712	5	183	402	2752
80	0	0	1714	4	184	403	2752
81	0	0	1715	5	184	402	2751
82	0	0	1716	4	183	402	2748
83	0	0	1716	4	183	402	2744
84	0	0	1717	4	184	402	2745
85	0	0	1719	4	185	402	2745
86	0	0	1719	4	185	402	2747
87	0	0	1720	4	184	402	2750
88	0	0	1720	4	183	402	2751
89	0	0	1722	4	184	402	2753
90	0	0	1723	4	184	402	2752
91	0	0	1724	4	184	402	2751
92	0	0	1724	3	183	402	2748
93	0	0	1725	4	184	403	2745
94	0	0	1726	4	184	402	2744
95	0	0	1727	5	184	402	2745
96	0	0	1728	4	184	402	2747
97	0	0	1728	4	183	402	2749
98	0	0	1730	4	184	402	2751
99	0	0	1730	4	184	402	2751
100	0	0	1731	5	184	402	2751
101	0	0	1732	4	184	403	2750
102	0	0	1732	5	184	402	2747
103	0	0	1733	4	183	402	2744
104	0	0	1735	5	184	402	2743
105	0	0	1735	4	184	403	2744
106	0	0	1737	4	184	402	2746
107	0	0	1737	4	184	402	2749
108	0	0	1738	4	185	402	2750
109	0	0	1739	4	185	402	2751
110	0	0	1740	4	184	402	2751
111	0	0	1742	4	184	402	2750
112	0	0	1742	4	184	402	2747
113	0	0	1742	4	184	402	2744
114	0	0	1742	4	184	402	2743
115	0	0	1744	4	184	402	2744
116	0	0	1745	4	184	402	2745
117	0	0	1746	4	183	402	2748
118	0	0	1747	4	183	402	2749
119	0	0	1748	5	183	402	2751
120	0	0	1749	4	183	402	2750
121	0	0	1749	4	184	402	2749
122	0	0	1750	4	183	402	2746
123	0	0	1751	4	184	402	2743
124	0	0	1752	4	184	402	2742
125	0	0	1752	4	183	402	2743
126	0	0	1754	4	183	402	2745
127	0	0	1754	4	184	402	2747
0	0	0	1755	4	184	402	2749
1	0	0	1756	4	185	402	2750
2	0	0	1756	4	184	402	2750
3	0	0	1758	4	185	402	2748
4	0	0	1758	4	183	402	2745
5	0	0	1759	4	185	402	2742
6	0	0	1760	4	184	402	2742
7	0	0	1761	5	186	402	2743
8	0	0	1762	4	185	402	2744
9	0	0	1762	4	183	402	2747
10	0	0	1763	4	184	402	2749
11	0	0	1764	5	184	402	2749
12	0	0	1765	4	183	401	2749
13	0	0	1766	4	183	402	2748
14	0	0	1766	4	183	402	2744
15	0	0	1767	4	184	402	2742
16	0	0	1768	4	184	402	2741
17	0	0	1768	4	184	402	2742
18	0	0	1770	4	183	402	2743
19	0	0	1769	4	183	402	2746
20	0	0	1771	4	183	402	2747
21	0	0	1772	4	184	402	2748
22	0	0	1772	4	184	403	2748
23	0	0	1774	4	185	402	2747
24	0	0	1775	4	184	402	2744
25	0	0	1775	4	184	402	2741
26	0	0	1775	4	183	402	2741
27	0	0	1776	4	184	401	2742
28	0	0	1777	4	185	402	2744
29	0	0	1778	4	183	402	2746
30	0	0	1778	4	185	402	2747
31	0	0	1779	4	184	402	2748
32	0	0	1780	4	184	402	2748
33	0	0	1780	4	184	402	2746
34	0	0	1781	4	184	402	2743
35	0	0	1782	4	183	402	2740
36	0	0	1783	4	184	402	2740
37	0	0	1783	4	183	402	2741
38	0	0	1784	5	184	402	2743
39	0	0	1784	4	184	402	2745
40	0	0	1785	4	183	402	2746
41	0	0	1787	4	184	402	2747
42	0	0	1787	4	183	404	2747
43	0	0	1788	4	184	402	2746
44	0	0	1788	4	184	402	2742
45	0	0	1790	4	183	402	2740
46	0	0	1790	4	184	402	2739
47	0	0	1791	5	184	402	2740
48	0	0	1791	4	183	402	2741
49	0	0	1792	4	184	402	2744
50	0	0	1792	4	184	402	2745
51	0	0	1793	4	183	402	2746
52	0	0	1795	4	183	404	2746
53	0	0	1795	4	184	402	2745
54	0	0	1795	4	184	402	2742
55	0	0	1797	4	183	402	2738
56	0	0	1796	4	183	402	2738
57	0	0	1797	4	182	402	2739
58	0	0	1798	4	184	402	2741
59	0	0	1799	4	184	403	2743
60	0	0	1800	4	184	402	2745
61	0	0	1800	4	185	402	2746
62	0	0	1802	4	186	402	2746
63	0	0	1802	4	184	402	2744
64	0	0	1803	4	184	402	2742
65	0	0	1803	4	184	402	2738
66	0	0	1804	4	185	402	2738
67	0	0	1805	4	186	402	2739
68	0	0	1805	4	184	402	2741
69	0	0	1805	4	184	402	2743
70	0	0	1806	4	183	402	2744
71	0	0	1807	4	183	402	2745
72	0	0	1807	4	184	402	2745
73	0	0	1809	4	183	402	2744
74	0	0	1809	4	183	402	2740
75	0	0	1808	4	183	402	2737
76	0	0	1810	4	183	402	2737
77	0	0	1810	4	182	402	2738
78	0	0	1812	4	184	402	2740
79	0	0	1812	4	183	402	2742
80	0	0	1813	4	184	402	2743
81	0	0	1813	4	185	402	2745
82	0	0	1815	4	184	403	2744
83	0	0	1815	4	184	402	2743
84	0	0	1816	4	185	402	2740
85	0	0	1816	4	184	402	2737
86	0	0	1816	4	184	402	2736
87	0	0	1817	5	184	402	2738
88	0	0	1818	4	184	402	2739
89	0	0	1818	4	184	402	2741
90	0	0	1819	4	184	402	2742
91	0	0	1820	4	184	402	2744
92	0	0	1821	4	183	402	2743
93	0	0	1821	4	183	402	2742
94	0	0	1821	4	183	402	2739
95	0	0	1821	4	184	402	2736
96	0	0	1823	4	183	402	2735
97	0	0	1823	5	183	402	2737
98	0	0	1824	4	184	402	2739
99	0	0	1824	4	183	402	2740
100	0	0	1825	4	184	402	2742
101	0	0	1826	5	183	402	2743
102	0	0	1827	4	183	402	2743
103	0	0	1827	4	184	402	2741
104	0	0	1828	4	184	402	2738
105	0	0	1828	4	185	402	2735
106	0	0	1828	4	183	402	2735
107	0	0	1829	4	184	402	2736
108	0	0	1830	4	184	402	2737
109	0	0	1830	4	184	402	2740
110	0	0	1831	4	184	402	2741
111	0	0	1832	4	183	402	2742
112	0	0	1833	4	184	402	2742
113	0	0	1833	4	184	402	2740
114	0	0	1833	4	183	402	2737
115	0	0	1835	4	183	402	2735
116	0	0	1836	4	184	402	2734
117	0	0	1835	4	183	402	2735
118	0	0	1837	4	184	402	2737
119	0	0	1837	4	184	402	2739
120	0	0	1838	4	183	402	2741
121	0	0	1837	5	184	402	2741
122	0	0	1838	4	184	402	2741
123	0	0	1840	4	184	402	2740
124	0	0	1840	4	185	402	2736
125	0	0	1840	4	183	402	2734
126	0	0	1841	3	184	402	2733
127	0	0	1840	4	183	402	2735
0	0	0	1842	4	184	402	2736
1	0	0	1843	4	184	402	2738
2	0	0	1843	4	184	402	2740
3	0	0	1842	5	183	402	2740
4	0	0	1843	4	184	402	2740
5	0	0	1845	4	183	402	2739
6	0	0	1845	4	184	402	2736
7	0	0	1846	4	185	403	2733
8	0	0	1847	4	183	402	2732
9	0	0	1846	4	184	402	2733
10	0	0	1848	4	184	402	2735
11	0	0	1848	4	183	402	2737
12	0	0	1849	4	184	402	2739
13	0	0	1850	4	184	402	2739
14	0	0	1849	5	184	402	2739
15	0	0	1851	4	184	402	2738
16	0	0	1850	4	184	402	2735
17	0	0	1851	4	184	402	2732
18	0	0	1851	4	184	402	2731
19	0	0	1852	4	183	402	2732
20	0	0	1853	4	184	402	2734
21	0	0	1854	4	184	402	2737
22	0	0	1854	5	184	402	2738
23	0	0	1855	4	183	402	2739
24	0	0	1855	4	183	402	2738
25	0	0	1856	4	183	402	2737
26	0	0	1856	5	184	402	2734
27	0	0	1856	4	184	402	2731
28	0	0	1857	4	184	402	2731
29	0	0	1858	5	183	402	2732
30	0	0	1859	4	183	402	2733
31	0	0	1859	4	183	402	2736
32	0	0	1859	4	183	402	2737
33	0	0	1860	4	183	402	2738
34	0	0	1860	3	183	402	2738
35	0	0	1861	4	183	401	2737
36	0	0	1862	4	184	402	2734
37	0	0	1862	4	183	402	2731
38	0	0	1862	4	184	402	2731
39	0	0	1864	4	185	402	2731
40	0	0	1864	4	184	402	2733
41	0	0	1864	4	184	402	2735
42	0	0	1864	4	184	402	2736
43	0	0	1864	4	184	402	2737
44	0	0	1865	4	184	402	2737
45	0	0	1866	4	184	402	2735
46	0	0	1866	4	183	402	2733
47	0	0	1867	4	184	402	2730
48	0	0	1868	4	184	402	2729
49	0	0	1869	4	184	402	2730
50	0	0	1869	5	184	402	2732
51	0	0	1869	4	185	402	2734
52	0	0	1870	4	183	402	2736
53	0	0	1870	4	185	402	2736
54	0	0	1870	3	183	402	2736
55	0	0	1871	4	186	402	2735
56	0	0	1871	5	183	402	2732
57	0	0	1872	7	184	402	2729
58	0	0	1872	4	184	402	2729
59	0	0	1874	4	184	403	2730
60	0	0	1874	4	183	401	2731
61	0	0	1874	4	185	402	2734
62	0	0	1874	4	183	402	2735
63	0	0	1875	4	183	402	2736
64	0	0	1875	4	183	402	2736
65	0	0	1876	4	184	402	2734
66	0	0	1876	4	182	402	2731
67	0	0	1876	4	184	402	2728
68	0	0	1877	4	183	402	2728
69	0	0	1877	4	184	402	2729
70	0	0	1878	4	185	402	2731
71	0	0	1878	5	183	402	2733
72	0	0	1880	4	184	402	2735
73	0	0	1880	4	184	403	2736
74	0	0	1880	5	184	402	2735
75	0	0	1881	4	184	402	2734
76	0	0	1882	4	184	402	2731
77	0	0	1881	4	184	402	2728
78	0	0	1881	4	184	402	2728
79	0	0	1883	4	183	402	2729
80	0	0	1883	4	184	401	2730
81	0	0	1883	4	183	402	2732
82	0	0	1883	4	184	402	2734
83	0	0	1884	3	184	402	2734
84	0	0	1884	4	184	402	2734
85	0	0	1885	4	185	403	2734
86	0	0	1885	4	183	402	2730
87	0	0	1885	4	184	402	2727
88	0	0	1886	5	184	403	2727
89	0	0	1886	4	184	402	2728
90	0	0	1887	4	185	402	2730
91	0	0	1887	4	185	402	2732
92	0	0	1887	4	183	402	2733
93	0	0	1889	3	184	403	2734
94	0	0	1889	4	184	402	2734
95	0	0	1889	4	185	403	2733
96	0	0	1890	4	185	402	2730
97	0	0	1890	4	184	402	2727
98	0	0	1891	5	183	402	2727
99	0	0	1891	4	184	402	2728
100	0	0	1891	4	185	402	2730
101	0	0	1892	4	183	402	2732
102	0	0	1892	4	184	402	2733
103	0	0	1893	5	183	403	2734
104	0	0	1893	4	184	402	2734
105	0	0	1894	4	185	403	2733
106	0	0	1894	4	185	402	2729
107	0	0	1896	4	183	402	2727
108	0	0	1895	4	184	402	2727
109	0	0	1895	4	183	402	2727
110	0	0	1895	4	184	402	2729
111	0	0	1896	4	185	402	2731
112	0	0	1897	4	184	402	2733
113	0	0	1897	5	184	402	2734
114	0	0	1898	4	183	402	2734
115	0	0	1898	4	184	402	2733
116	0	0	1899	4	184	402	2730
117	0	0	1898	4	184	402	2727
118	0	0	1899	4	183	402	2727
119	0	0	1900	4	183	403	2728
120	0	0	1900	4	184	402	2729
121	0	0	1900	4	185	402	2731
122	0	0	1900	4	183	402	2733
123	0	0	1901	5	183	403	2734
124	0	0	1901	4	184	402	2734
125	0	0	1902	4	183	402	2733
126	0	0	1902	4	184	402	2729
127	0	0	1903	4	183	402	2726
0	0	0	1903	4	183	402	2726
1	0	0	1904	4	183	404	2727
2	0	0	1904	4	184	402	2729
3	0	0	1905	4	184	402	2731
4	0	0	1905	4	184	402	2733
5	0	0	1905	4	184	402	2734
6	0	0	1905	4	183	402	2734
7	0	0	1906	4	184	402	2733
8	0	0	1906	4	184	402	2730
9	0	0	1908	4	184	402	2727
10	0	0	1908	4	185	402	2726
11	0	0	1908	4	183	402	2727
12	0	0	1908	4	184	402	2729
13	0	0	1908	4	184	402	2731
14	0	0	1908	5	183	402	2732
15	0	0	1909	4	183	402	2733
16	0	0	1909	4	185	402	2733
17	0	0	1910	4	183	403	2732
18	0	0	1911	4	184	402	2729
19	0	0	1910	4	184	402	2726
20	0	0	1911	4	183	402	2726
21	0	0	1912	4	184	402	2728
22	0	0	1912	4	184	402	2729
23	0	0	1912	4	185	402	2731
24	0	0	1912	4	183	402	2733
25	0	0	1912	4	183	402	2734
26	0	0	1913	4	184	402	2734
27	0	0	1914	4	184	402	2733
28	0	0	1914	4	184	402	2730
29	0	0	1914	4	184	402	2727
30	0	0	1914	4	184	402	2726
31	0	0	1915	4	184	402	2728
32	0	0	1915	4	184	402	2730
33	0	0	1915	4	183	402	2731
34	0	0	1916	4	184	402	2733
35	0	0	1916	5	184	403	2734
36	0	0	1918	4	183	402	2734
37	0	0	1917	4	184	402	2733
38	0	0	1917	4	184	402	2729
39	0	0	1917	4	184	402	2727
40	0	0	1917	4	184	402	2726
41	0	0	1918	4	183	402	2727
42	0	0	1919	4	184	403	2730
43	0	0	1920	4	184	402	2732
44	0	0	1919	4	184	402	2733
45	0	0	1920	4	183	402	2734
46	0	0	1920	4	184	402	2735
47	0	0	1921	4	184	402	2734
48	0	0	1921	4	185	402	2730
49	0	0	1922	4	184	402	2727
50	0	0	1922	5	184	402	2727
51	0	0	1922	4	185	402	2728
52	0	0	1922	4	184	402	2730
53	0	0	1923	4	184	402	2732
54	0	0	1922	4	183	402	2734
55	0	0	1923	4	184	402	2735
56	0	0	1923	4	185	402	2735
57	0	0	1924	4	184	402	2733
58	0	0	1924	5	183	402	2731
59	0	0	1926	4	184	402	2728
60	0	0	1926	4	183	402	2727
61	0	0	1926	4	183	402	2729
62	0	0	1926	4	183	402	2731
63	0	0	1926	5	184	402	2733
64	0	0	1927	4	184	402	2735
65	0	0	1928	4	184	402	2735
66	0	0	1927	4	184	402	2735
67	0	0	1927	4	184	402	2734
68	0	0	1928	4	183	402	2731
69	0	0	1927	4	185	403	2728
70	0	0	1928	4	184	402	2728
71	0	0	1929	4	183	402	2729
72	0	0	1929	4	184	402	2731
73	0	0	1930	4	184	402	2733
74	0	0	1929	4	184	402	2735
75	0	0	1930	4	183	402	2736
76	0	0	1931	4	184	402	2736
77	0	0	1930	4	184	402	2735
78	0	0	1931	4	183	402	2732
79	0	0	1931	4	184	402	2729
80	0	0	1931	4	183	402	2728
81	0	0	1932	4	184	402	2730
82	0	0	1933	4	183	402	2731
83	0	0	1932	4	183	402	2734
84	0	0	1932	4	185	402	2735
85	0	0	1932	4	184	402	2736
86	0	0	1932	4	184	402	2737
87	0	0	1934	4	183	402	2736
88	0	0	1934	4	183	402	2733
89	0	0	1935	4	184	402	2730
90	0	0	1935	4	184	402	2729
91	0	0	1935	4	184	402	2731
92	0	0	1936	4	185	402	2733
93	0	0	1935	4	184	402	2735
94	0	0	1936	4	183	402	2737
95	0	0	1936	4	183	402	2737
96	0	0	1937	5	185	402	2737
97	0	0	1937	4	184	403	2736
98	0	0	1936	4	184	402	2733
99	0	0	1938	4	183	403	2730
100	0	0	1937	4	184	402	2730
101	0	0	1937	4	185	402	2731
102	0	0	1938	4	184	402	2733
103	0	0	1938	4	184	402	2735
104	0	0	1939	4	184	402	2737
105	0	0	1939	4	184	402	2739
106	0	0	1940	4	184	402	2739
107	0	0	1939	4	184	403	2737
108	0	0	1939	4	183	402	2734
109	0	0	1941	4	184	402	2732
110	0	0	1942	4	184	402	2731
111	0	0	1941	4	183	402	2732
112	0	0	1941	4	184	403	2734
113	0	0	1941	4	183	402	2736
114	0	0	1941	4	184	402	2738
115	0	0	1942	4	184	402	2739
116	0	0	1943	4	184	403	2739
117	0	0	1943	4	184	402	2738
118	0	0	1943	4	183	402	2735
119	0	0	1943	4	185	402	2732
120	0	0	1943	4	184	402	2732
121	0	0	1943	4	183	402	2733
122	0	0	1945	4	184	402	2735
123	0	0	1944	4	182	402	2737
124	0	0	1945	4	185	402	2739
125	0	0	1944	4	184	402	2740
126	0	0	1945	4	183	402	2740
127	0	0	1945	4	185	402	2739
0	0	0	1946	4	184	402	2736
1	0	0	1946	4	184	402	2733
2	0	0	1946	4	184	402	2733
3	0	0	1947	4	184	402	2734
4	0	0	1947	4	184	402	2736
5	0	0	1947	4	183	402	2738
6	0	0	1947	4	184	402	2740
7	0	0	1947	4	184	402	2741
8	0	0	1948	4	183	402	2741
9	0	0	1948	4	183	402	2739
10	0	0	1948	4	182	402	2737
11	0	0	1949	4	184	402	2734
12	0	0	1948	4	184	402	2734
13	0	0	1950	4	184	402	2735
14	0	0	1950	4	184	402	2737
15	0	0	1950	4	183	402	2739
16	0	0	1951	4	184	403	2741
17	0	0	1951	3	183	402	2742
18	0	0	1950	4	184	402	2742
19	0	0	1951	4	183	402	2741
20	0	0	1950	4	184	402	2738
21	0	0	1951	4	183	402	2735
22	0	0	1951	4	184	402	2735
23	0	0	1952	4	184	402	2736
24	0	0	1952	4	184	402	2738
25	0	0	1953	4	184	402	2740
26	0	0	1952	4	184	402	2741
27	0	0	1952	5	183	402	2743
28	0	0	1953	4	184	402	2743
29	0	0	1954	4	183	402	2742
30	0	0	1953	4	182	402	2739
31	0	0	1955	4	184	402	2736
32	0	0	1955	4	183	402	2735
33	0	0	1955	4	184	402	2737
34	0	0	1956	4	183	402	2739
35	0	0	1954	4	183	402	2741
36	0	0	1955	4	184	402	2742
37	0	0	1955	4	185	402	2743
38	0	0	1955	4	184	402	2744
39	0	0	1956	4	184	402	2742
40	0	0	1956	4	184	402	2740
41	0	0	1956	4	184	402	2737
42	0	0	1957	4	184	402	2737
43	0	0	1958	4	184	403	2738
44	0	0	1957	4	183	403	2740
45	0	0	1958	4	184	402	2742
46	0	0	1957	4	184	402	2743
47	0	0	2025	5	183	403	2744
48	0	0	2086	4	184	402	2744
49	0	0	2119	5	184	402	2744
50	0	0	2167	5	184	402	2740
51	0	0	2188	5	183	402	2737
52	0	0	2203	5	184	402	2737
53	0	0	2230	5	183	402	2738
54	0	0	2285	5	184	402	2740
55	0	0	2328	5	183	402	2743
56	0	0	2377	5	184	402	2745
57	0	0	2416	4	184	402	2745
58	0	0	2442	4	183	402	2746
59	0	0	2481	5	183	402	2745
60	0	0	2529	5	183	402	2742
61	0	0	2604	5	184	402	2739
62	0	0	2670	5	184	402	2739
63	0	0	2719	4	184	402	2739
64	0	0	2736	5	184	403	2741
65	0	0	2736	5	184	402	2743
66	0	0	2757	5	184	402	2745
67	0	0	2799	5	184	402	2746
68	0	0	2832	4	183	402	2746
69	0	0	2851	5	183	402	2745
70	0	0	2864	5	183	402	2742
71	0	0	2873	5	184	402	2739
72	0	0	2905	5	184	402	2739
73	0	0	2966	5	184	403	2739
74	0	0	3022	5	184	403	2742
75	0	0	3072	5	184	402	2744
76	0	0	3121	5	184	402	2746
77	0	0	3178	5	184	402	2747
78	0	0	3248	5	183	402	2747
79	0	0	3329	5	184	403	2746
80	0	0	3401	5	183	402	2743
81	0	0	3486	5	183	402	2740
82	0	0	3567	5	184	402	2740
83	0	0	3643	5	184	402	2741
84	0	0	3770	5	183	402	2743
85	0	0	3952	5	184	402	2745
86	0	0	4092	5	184	402	2747
87	0	0	4092	6	184	402	2747
88	0	0	4091	5	184	402	2748
89	0	0	4093	5	183	402	2747
90	0	0	4091	5	182	402	2744
91	0	0	4091	5	184	402	2740
92	0	0	4091	5	184	402	2740
93	0	0	4092	5	184	403	2741
94	0	0	4091	5	184	403	2744
95	0	0	4091	5	185	402	2746
96	0	0	4091	5	184	402	2747
97	0	0	4092	5	185	403	2749
98	0	0	4092	5	184	402	2749
99	0	0	4092	5	184	402	2747
100	0	0	4091	5	184	402	2745
101	0	0	4092	5	183	403	2742
102	0	0	4092	6	184	402	2741
103	0	0	4092	5	183	402	2742
104	0	0	4092	5	184	402	2744
105	0	0	4091	5	183	402	2746
106	0	0	4091	5	184	402	2748
107	0	0	4092	5	185	402	2749
108	0	0	4091	5	184	402	2749
109	0	0	4092	5	184	403	2748
110	0	0	4091	5	184	402	2745
111	0	0	4091	5	184	402	2742
112	0	0	4091	5	184	402	2742
113	0	0	4092	5	184	402	2743
114	0	0	4092	5	184	402	2745
115	0	0	4093	5	184	403	2747
116	0	0	4092	5	183	402	2748
117	0	0	4092	5	184	403	2750
118	0	0	4093	5	184	403	2750
119	0	0	4092	5	184	403	2748
120	0	0	4091	5	182	402	2746
121	0	0	4091	5	184	402	2742
122	0	0	4091	5	183	402	2742
123	0	0	4092	5	183	402	2743
124	0	0	4092	5	184	403	2745
125	0	0	4091	5	182	403	2747
126	0	0	4091	5	184	402	2749
127	0	0	4091	5	183	402	2750
0	0	0	4092	5	184	402	2750
1	0	0	4091	4	184	403	2749
2	0	0	4091	5	183	402	2746
3	0	0	4092	5	184	402	2744
4	0	0	4092	6	184	402	2743
5	0	0	4092	4	184	402	2744
6	0	0	4093	5	184	403	2746
7	0	0	4091	5	184	402	2748
8	0	0	4093	5	183	402	2750
9	0	0	4093	6	184	402	2751
10	0	0	4092	5	184	402	2751
11	0	0	4093	5	184	402	2750
12	0	0	4091	5	184	402	2747
13	0	0	4091	5	184	402	2744
14	0	0	4091	5	183	402	2743
15	0	0	4091	5	184	402	2744
16	0	0	4092	5	184	403	2746
17	0	0	4091	5	184	402	2748
18	0	0	4091	4	183	402	2750
19	0	0	4092	4	184	402	2751
20	0	0	4007	4	184	402	2751
21	0	0	3881	4	183	403	2750
22	0	0	3814	4	184	402	2747
23	0	0	3763	5	185	402	2744
24	0	0	3761	5	184	403	2744
25	0	0	3876	5	184	402	2745
26	0	0	4091	5	184	403	2746
27	0	0	4092	5	185	402	2749
28	0	0	4092	5	184	402	2750
29	0	0	4092	5	185	402	2752
30	0	0	4093	4	184	403	2752
31	0	0	3948	4	184	402	2751
32	0	0	3781	4	184	402	2748
33	0	0	3667	4	183	402	2745
34	0	0	3560	4	183	403	2744
35	0	0	3451	3	183	402	2745
36	0	0	3363	4	184	403	2747
37	0	0	3305	5	184	402	2749
38	0	0	3294	5	183	402	2751
39	0	0	3270	5	184	402	2752
40	0	0	3239	4	184	402	2752
41	0	0	3249	5	183	402	2750
42	0	0	3369	5	184	402	2748
43	0	0	3727	5	184	402	2745
44	0	0	3986	5	184	402	2744
45	0	0	4092	5	184	403	2745
46	0	0	4093	5	184	403	2748
47	0	0	4091	5	184	403	2750
48	0	0	4093	4	184	402	2752
49	0	0	4027	3	185	402	2752
50	0	0	3951	4	184	403	2753
51	0	0	3946	5	183	402	2752
52	0	0	4001	5	184	402	2749
53	0	0	4092	5	184	402	2745
54	0	0	4091	5	184	402	2745
55	0	0	4091	5	183	403	2746
56	0	0	4092	5	184	402	2748
57	0	0	4091	5	184	402	2750
58	0	0	4091	5	183	402	2751
59	0	0	4091	5	183	402	2753
60	0	0	4093	5	184	402	2752
61	0	0	4092	5	184	402	2751
62	0	0	4093	5	184	402	2749
63	0	0	4092	5	184	402	2745
64	0	0	4092	5	184	402	2746
65	0	0	4092	5	184	402	2746
66	0	0	4092	5	184	402	2748
67	0	0	4091	5	185	402	2750
68	0	0	4091	5	184	402	2752
69	0	0	4091	5	184	402	2753
70	0	0	4092	5	185	402	2753
71	0	0	4061	5	184	403	2752
72	0	0	4047	5	184	402	2749
73	0	0	4092	5	184	402	2746
74	0	0	4092	5	184	402	2745
75	0	0	4092	4	184	402	2746
76	0	0	4092	5	184	403	2748
77	0	0	4093	5	184	403	2751
78	0	0	4091	5	184	402	2752
79	0	0	3999	4	184	402	2754
80	0	0	3885	4	184	402	2753
81	0	0	3823	5	184	402	2752
82	0	0	3835	5	184	402	2749
83	0	0	3947	5	184	402	2746
84	0	0	4012	5	184	402	2746
85	0	0	4041	6	185	402	2747
86	0	0	4055	5	184	402	2749
87	0	0	4056	5	185	402	2751
88	0	0	4055	5	184	402	2752
89	0	0	3953	4	185	402	2754
90	0	0	3768	5	184	402	2754
91	0	0	3625	4	183	402	2753
92	0	0	3517	4	184	402	2750
93	0	0	3442	4	184	402	2747
94	0	0	3369	4	184	403	2746
95	0	0	3312	5	184	402	2747
96	0	0	3268	4	183	403	2749
97	0	0	3206	4	183	402	2752
98	0	0	3125	4	183	402	2753
99	0	0	3061	5	185	402	2754
100	0	0	3042	5	184	402	2754
101	0	0	3028	5	183	403	2753
102	0	0	3009	5	183	402	2750
103	0	0	3004	5	185	402	2747
104	0	0	3036	5	184	402	2747
105	0	0	3083	5	185	402	2748
106	0	0	3146	5	184	403	2750
107	0	0	3236	5	184	402	2752
108	0	0	3399	6	184	402	2753
109	0	0	3647	5	183	402	2755
110	0	0	3801	5	184	403	2754
111	0	0	3879	5	183	403	2753
112	0	0	3920	5	183	402	2751
113	0	0	3937	5	184	402	2747
114	0	0	3948	5	184	402	2747
115	0	0	3949	6	184	402	2748
116	0	0	3949	5	184	402	2750
117	0	0	3945	5	184	402	2752
118	0	0	3942	5	184	402	2754
119	0	0	3937	5	183	402	2755
120	0	0	3932	5	184	402	2755
121	0	0	3928	5	183	402	2754
122	0	0	3923	5	183	402	2751
123	0	0	3917	4	183	402	2747
124	0	0	3912	5	184	402	2747
125	0	0	3908	5	183	402	2748
126	0	0	3904	5	184	403	2750
127	0	0	3897	5	184	402	2753
0	0	0	3892	5	184	402	2754
1	0	0	3889	5	184	402	2755
2	0	0	3883	6	184	402	2756
3	0	0	3879	5	184	402	2755
4	0	0	3872	5	183	402	2752
5	0	0	3868	5	184	402	2749
6	0	0	3864	5	183	402	2749
7	0	0	3859	5	184	402	2749
8	0	0	3854	5	184	402	2751
9	0	0	3849	5	183	402	2753
10	0	0	3843	5	184	402	2755
11	0	0	3840	6	183	402	2756
12	0	0	3835	6	183	402	2756
13	0	0	3830	5	183	404	2755
14	0	0	3825	5	184	402	2752
15	0	0	3821	5	184	402	2749
16	0	0	3817	6	183	402	2748
17	0	0	3812	5	183	402	2749
18	0	0	3806	5	184	402	2751
19	0	0	3801	5	183	402	2753
20	0	0	3796	5	184	402	2755
21	0	0	3792	5	185	402	2757
22	0	0	3789	5	185	402	2757
23	0	0	3784	5	183	402	2755
24	0	0	3779	5	183	402	2753
25	0	0	3772	5	184	402	2750
26	0	0	3769	5	184	402	2749
27	0	0	3765	5	183	402	2750
28	0	0	3761	4	184	402	2752
29	0	0	3755	5	184	403	2754
30	0	0	3751	5	184	402	2755
31	0	0	3745	5	184	402	2756
32	0	0	3742	4	184	402	2757
33	0	0	3738	5	183	402	2756
34	0	0	3734	5	183	402	2753
35	0	0	3728	5	184	402	2750
36	0	0	3653	5	183	402	2749
37	0	0	3588	5	185	402	2750
38	0	0	3534	4	184	403	2753
39	0	0	3471	4	184	403	2755
40	0	0	3399	4	184	402	2756
41	0	0	3344	4	185	402	2758
42	0	0	3298	4	184	403	2758
43	0	0	3263	5	183	402	2757
44	0	0	3225	4	183	403	2754
45	0	0	3176	4	183	402	2750
46	0	0	3104	4	184	402	2750
47	0	0	3016	4	183	402	2752
48	0	0	2919	3	183	402	2753
49	0	0	2820	4	183	402	2755
50	0	0	2703	4	183	402	2756
51	0	0	2592	4	183	402	2757
52	0	0	2525	3	184	402	2758
53	0	0	2511	5	183	402	2757
54	0	0	2496	5	183	403	2754
55	0	0	2455	4	183	402	2750
56	0	0	2415	4	183	402	2750
57	0	0	2378	3	184	403	2752
58	0	0	2318	4	185	402	2753
59	0	0	2263	4	184	402	2756
60	0	0	2225	4	184	402	2757
61	0	0	2194	4	184	402	2758
62	0	0	2160	4	183	402	2758
63	0	0	2137	4	183	403	2757
64	0	0	2113	5	184	403	2754
65	0	0	2090	4	184	402	2751
66	0	0	2049	4	182	402	2751
67	0	0	1994	3	183	402	2752
68	0	0	1941	4	184	403	2753
69	0	0	1876	4	183	403	2756
70	0	0	1812	4	184	402	2757
71	0	0	1779	4	184	402	2758
72	0	0	1761	4	184	403	2758
73	0	0	1725	4	184	402	2757
74	0	0	1681	4	184	403	2755
75	0	0	1661	4	183	402	2752
76	0	0	1658	6	183	402	2751
77	0	0	1650	5	184	402	2752
78	0	0	1635	4	184	402	2754
79	0	0	1620	4	184	403	2756
80	0	0	1613	4	184	402	2758
81	0	0	1614	5	184	402	2759
82	0	0	1602	5	183	403	2759
83	0	0	1591	4	184	402	2758
84	0	0	1590	5	183	402	2755
85	0	0	1613	5	184	402	2752
86	0	0	1612	4	183	402	2752
87	0	0	1576	4	183	403	2753
88	0	0	1533	4	184	402	2755
89	0	0	1480	4	183	402	2757
90	0	0	1432	4	183	402	2759
91	0	0	1401	4	184	402	2759
92	0	0	1377	4	184	402	2759
93	0	0	1347	4	183	402	2759
94	0	0	1336	4	184	402	2755
95	0	0	1337	4	184	402	2753
96	0	0	1305	5	183	402	2752
97	0	0	1284	5	183	402	2753
98	0	0	1276	4	184	403	2755
99	0	0	1264	4	184	403	2757
100	0	0	1253	4	184	402	2758
101	0	0	1240	4	183	401	2760
102	0	0	1233	4	184	402	2760
103	0	0	1229	4	184	402	2758
104	0	0	1230	5	184	402	2756
105	0	0	1249	5	184	402	2753
106	0	0	1273	5	183	402	2752
107	0	0	1286	5	183	402	2753
108	0	0	1292	4	184	402	2755
109	0	0	1266	4	184	402	2757
110	0	0	1224	4	184	402	2759
111	0	0	1200	4	183	402	2760
112	0	0	1203	4	184	403	2760
113	0	0	1194	3	183	402	2759
114	0	0	1167	4	184	402	2756
115	0	0	1152	4	183	402	2753
116	0	0	1147	4	183	402	2752
117	0	0	1145	5	183	402	2754
118	0	0	1152	5	185	402	2756
119	0	0	1166	5	184	402	2758
120	0	0	1187	4	184	402	2760
121	0	0	1213	5	183	403	2760
122	0	0	1230	5	184	402	2761
123	0	0	1224	4	183	402	2760
124	0	0	1214	4	184	402	2757
125	0	0	1220	5	184	402	2754
126	0	0	1197	4	184	402	2753
127	0	0	1153	3	183	402	2754
0	0	0	1117	4	183	402	2756
1	0	0	1082	4	184	402	2758
2	0	0	1041	4	183	402	2759
3	0	0	1010	4	184	402	2760
4	0	0	1003	5	184	402	2760
5	0	0	1004	4	184	402	2759
6	0	0	1004	4	183	402	2756
7	0	0	993	4	183	402	2754
8	0	0	984	6	184	402	2753
9	0	0	991	6	184	402	2754
10	0	0	987	4	185	402	2756
11	0	0	976	4	184	402	2758
12	0	0	972	4	184	402	2760
13	0	0	988	5	183	402	2761
14	0	0	1008	5	183	402	2761
15	0	0	1042	5	183	402	2760
16	0	0	1074	6	184	402	2757
17	0	0	1092	5	184	402	2754
18	0	0	1069	4	184	402	2754
19	0	0	1021	3	183	402	2754
20	0	0	994	4	183	403	2756
21	0	0	978	4	184	402	2758
22	0	0	957	4	183	402	2760
23	0	0	960	4	183	402	2761
24	0	0	942	5	183	402	2761
25	0	0	918	5	184	402	2760
26	0	0	915	4	184	402	2757
27	0	0	930	4	184	402	2755
28	0	0	935	4	182	403	2754
29	0	0	927	6	184	402	2755
30	0	0	899	4	184	402	2757
31	0	0	881	4	184	402	2759
32	0	0	897	5	184	402	2761
33	0	0	926	4	184	402	2761
34	0	0	943	5	185	402	2762
35	0	0	961	4	183	402	2761
36	0	0	975	5	184	402	2758
37	0	0	1002	4	184	402	2755
38	0	0	1015	4	185	402	2754
39	0	0	1015	4	184	402	2755
40	0	0	1009	4	184	402	2757
41	0	0	987	4	184	402	2759
42	0	0	971	5	183	402	2760
43	0	0	965	4	183	402	2761
44	0	0	943	5	184	402	2762
45	0	0	907	4	183	402	2761
46	0	0	875	4	184	402	2758
47	0	0	853	4	184	402	2754
48	0	0	848	4	184	402	2754
49	0	0	868	6	184	402	2755
50	0	0	891	4	184	403	2757
51	0	0	922	5	184	402	2759
52	0	0	949	5	184	402	2761
53	0	0	976	5	183	402	2762
54	0	0	989	5	185	402	2762
55	0	0	983	4	184	402	2761
56	0	0	983	4	184	402	2758
57	0	0	998	5	184	402	2755
58	0	0	1006	4	183	402	2755
59	0	0	1024	5	184	402	2756
60	0	0	1031	4	184	402	2757
61	0	0	1015	4	184	402	2759
62	0	0	996	5	184	402	2761
63	0	0	981	4	183	402	2762
64	0	0	966	5	184	402	2762
65	0	0	946	4	183	402	2761
66	0	0	936	4	183	402	2758
67	0	0	932	4	185	402	2755
68	0	0	946	5	183	402	2754
69	0	0	970	5	184	402	2755
70	0	0	984	4	184	402	2757
71	0	0	990	4	184	402	2759
72	0	0	992	4	184	402	2760
73	0	0	1012	5	183	402	2762
74	0	0	1052	5	184	402	2763
75	0	0	1109	5	184	402	2761
76	0	0	1156	5	183	401	2758
77	0	0	1195	5	183	402	2756
78	0	0	1203	5	184	402	2755
79	0	0	1183	4	184	402	2755
80	0	0	1157	4	183	402	2757
81	0	0	1132	4	184	402	2759
82	0	0	1106	4	184	402	2761
83	0	0	1082	4	183	402	2762
84	0	0	1054	4	184	402	2762
85	0	0	1038	4	185	402	2761
86	0	0	1012	4	184	402	2758
87	0	0	981	4	184	402	2755
88	0	0	964	4	184	402	2755
89	0	0	990	5	184	402	2756
90	0	0	1016	5	183	402	2757
91	0	0	1017	4	185	402	2760
92	0	0	1017	4	184	402	2761
93	0	0	1036	5	184	402	2762
94	0	0	1074	5	184	402	2762
95	0	0	1119	5	185	403	2761
96	0	0	1157	5	184	402	2758
97	0	0	1195	5	184	402	2755
98	0	0	1212	5	183	402	2755
99	0	0	1202	4	184	402	2756
100	0	0	1186	4	183	402	2757
101	0	0	1161	4	183	402	2760
102	0	0	1134	4	183	402	2761
103	0	0	1120	4	184	402	2762
104	0	0	1107	5	185	402	2762
105	0	0	1100	4	183	402	2761
106	0	0	1103	4	184	402	2758
107	0	0	1096	4	183	402	2755
108	0	0	1090	4	184	402	2755
109	0	0	1088	4	184	403	2755
110	0	0	1082	4	184	402	2757
111	0	0	1076	4	185	402	2760
112	0	0	1092	5	184	402	2761
113	0	0	1113	5	183	402	2763
114	0	0	1149	4	185	403	2763
115	0	0	1184	4	184	402	2761
116	0	0	1197	5	185	402	2759
117	0	0	1223	5	183	402	2756
118	0	0	1237	5	183	402	2756
119	0	0	1227	5	184	402	2756
120	0	0	1216	4	183	402	2758
121	0	0	1186	4	184	402	2760
122	0	0	1139	4	184	402	2761
123	0	0	1115	4	184	402	2762
124	0	0	1117	4	183	403	2762
125	0	0	1094	4	183	402	2761
126	0	0	1076	4	184	402	2758
127	0	0	1067	4	184	402	2755
0	0	0	1070	4	184	403	2755
1	0	0	1081	5	184	402	2756
2	0	0	1096	5	184	402	2758
3	0	0	1117	5	183	401	2760
4	0	0	1153	5	184	402	2761
5	0	0	1186	5	184	402	2763
6	0	0	1187	4	184	402	2763
7	0	0	1176	4	184	402	2761
8	0	0	1171	4	184	402	2759
9	0	0	1188	5	184	402	2756
10	0	0	1209	5	184	402	2755
11	0	0	1211	4	183	402	2756
12	0	0	1205	4	183	402	2758
13	0	0	1197	4	184	401	2760
14	0	0	1205	5	183	402	2761
15	0	0	1200	4	183	402	2763
16	0	0	1161	4	184	402	2763
17	0	0	1130	4	183	402	2761
18	0	0	1117	4	182	401	2759
19	0	0	1114	4	184	402	2756
20	0	0	1128	5	183	403	2755
21	0	0	1128	4	183	402	2756
22	0	0	1127	4	184	402	2758
23	0	0	1138	4	183	401	2760
24	0	0	1146	4	184	402	2762
25	0	0	1146	4	185	402	2763
26	0	0	1154	5	184	404	2763
27	0	0	1176	5	184	402	2762
28	0	0	1199	5	184	402	2759
29	0	0	1226	6	184	402	2756
30	0	0	1242	5	184	403	2755
31	0	0	1255	5	184	402	2756
32	0	0	1256	4	183	402	2758
33	0	0	1242	4	183	401	2760
34	0	0	1229	4	183	402	2762
35	0	0	1205	4	184	403	2763
36	0	0	1173	4	183	402	2763
37	0	0	1149	4	183	402	2761
38	0	0	1141	4	183	402	2759
39	0	0	1129	4	184	402	2756
40	0	0	1123	4	184	402	2756
41	0	0	1125	4	184	402	2757
42	0	0	1122	4	183	402	2758
43	0	0	1129	5	184	402	2760
44	0	0	1148	5	184	402	2762
45	0	0	1165	5	184	402	2763
46	0	0	1196	5	183	402	2764
47	0	0	1208	4	184	403	2762
48	0	0	1180	4	183	403	2760
49	0	0	1196	5	184	402	2756
50	0	0	1217	5	182	402	2756
51	0	0	1213	4	184	402	2757
52	0	0	1205	4	184	402	2758
53	0	0	1196	4	184	401	2760
54	0	0	1172	3	183	402	2763
55	0	0	1135	4	184	402	2763
56	0	0	1102	4	183	402	2763
57	0	0	1080	4	183	402	2762
58	0	0	1067	4	184	401	2759
59	0	0	1043	4	183	402	2756
60	0	0	1044	4	184	403	2755
61	0	0	1061	5	183	402	2756
62	0	0	1069	4	184	402	2758
63	0	0	1092	5	182	402	2760
64	0	0	1121	5	184	402	2762
65	0	0	1155	5	184	402	2764
66	0	0	1173	5	184	402	2764
67	0	0	1176	4	183	402	2762
68	0	0	1185	5	184	401	2759
69	0	0	1212	4	184	402	2757
70	0	0	1216	4	183	402	2756
71	0	0	1208	5	183	402	2757
72	0	0	1193	5	183	402	2759
73	0	0	1162	4	184	402	2760
74	0	0	1133	4	183	402	2762
75	0	0	1091	4	183	403	2763
76	0	0	1066	4	183	402	2763
77	0	0	1063	4	184	402	2762
78	0	0	1073	4	183	402	2759
79	0	0	1071	4	184	402	2756
80	0	0	1065	5	183	402	2755
81	0	0	1087	6	184	402	2756
82	0	0	1109	5	184	402	2759
83	0	0	1125	5	184	402	2761
84	0	0	1142	5	184	402	2762
85	0	0	1173	5	184	402	2764
86	0	0	1207	5	184	402	2764
87	0	0	1236	5	184	402	2763
88	0	0	1253	5	184	402	2760
89	0	0	1266	5	184	402	2757
90	0	0	1256	4	184	402	2756
91	0	0	1235	4	183	402	2757
92	0	0	1206	4	183	402	2758
93	0	0	1148	4	183	402	2761
94	0	0	1087	4	183	402	2762
95	0	0	1053	4	183	402	2764
96	0	0	1038	3	183	402	2764
97	0	0	1034	4	183	402	2762
98	0	0	1049	5	184	402	2759
99	0	0	1054	4	183	402	2756
100	0	0	1061	5	184	402	2756
101	0	0	1074	4	183	402	2757
102	0	0	1096	4	184	402	2759
103	0	0	1124	5	184	402	2761
104	0	0	1160	4	184	402	2763
105	0	0	1197	5	184	402	2763
106	0	0	1205	4	184	402	2763
107	0	0	1206	5	183	402	2763
108	0	0	1192	4	183	402	2760
109	0	0	1203	5	184	402	2756
110	0	0	1236	5	183	402	2757
111	0	0	1265	5	183	402	2757
112	0	0	1271	3	184	402	2759
113	0	0	1254	4	183	402	2761
114	0	0	1225	4	183	402	2762
115	0	0	1191	4	183	402	2764
116	0	0	1177	4	183	402	2764
117	0	0	1157	5	184	402	2763
118	0	0	1124	4	183	402	2760
119	0	0	1096	4	184	402	2756
120	0	0	1090	4	183	402	2757
121	0	0	1093	4	184	402	2757
122	0	0	1099	4	184	402	2759
123	0	0	1120	5	184	402	2761
124	0	0	1138	3	184	403	2763
125	0	0	1144	4	184	402	2764
126	0	0	1151	5	184	402	2764
127	0	0	1190	5	184	402	2763
0	0	0	1243	5	184	402	2760
1	0	0	1299	4	183	402	2757
2	0	0	1333	5	184	402	2756
3	0	0	1346	4	184	402	2757
4	0	0	1337	4	184	402	2759
5	0	0	1319	4	184	402	2761
6	0	0	1292	4	184	402	2762
7	0	0	1262	4	183	402	2764
8	0	0	1238	4	182	403	2763
9	0	0	1207	4	184	402	2763
10	0	0	1180	4	184	402	2760
11	0	0	1156	3	184	402	2756
12	0	0	1137	4	183	402	2756
13	0	0	1137	4	184	402	2757
14	0	0	1160	6	184	402	2759
15	0	0	1191	5	185	402	2760
16	0	0	1229	4	184	402	2762
17	0	0	1256	5	184	402	2763
18	0	0	1254	4	183	402	2764
19	0	0	1245	4	184	402	2763
20	0	0	1251	5	184	402	2760
21	0	0	1290	4	184	402	2757
22	0	0	1324	5	184	402	2756
23	0	0	1331	4	184	403	2757
24	0	0	1324	5	183	402	2759
25	0	0	1314	4	184	402	2761
26	0	0	1302	4	184	402	2762
27	0	0	1298	4	184	402	2763
28	0	0	1294	4	183	402	2764
29	0	0	1289	4	184	402	2763
30	0	0	1283	4	184	402	2760
31	0	0	1275	4	183	402	2756
32	0	0	1287	5	184	402	2756
33	0	0	1302	5	183	402	2757
34	0	0	1306	5	184	402	2759
35	0	0	1314	4	184	402	2761
36	0	0	1315	4	184	402	2762
37	0	0	1319	4	184	403	2764
38	0	0	1317	4	184	402	2764
39	0	0	1324	5	183	402	2763
40	0	0	1339	5	185	402	2760
41	0	0	1358	4	184	402	2757
42	0	0	1365	4	183	403	2756
43	0	0	1367	4	182	403	2757
44	0	0	1326	4	184	402	2759
45	0	0	1265	4	183	402	2761
46	0	0	1207	4	184	402	2762
47	0	0	1189	4	183	403	2763
48	0	0	1201	4	183	402	2763
49	0	0	1200	5	184	402	2763
50	0	0	1198	4	184	402	2759
51	0	0	1197	4	183	402	2756
52	0	0	1218	5	183	402	2756
53	0	0	1243	5	183	402	2757
54	0	0	1255	4	184	402	2759
55	0	0	1261	4	184	402	2760
56	0	0	1286	5	184	402	2762
57	0	0	1329	5	184	402	2763
58	0	0	1358	5	185	402	2764
59	0	0	1384	5	185	402	2763
60	0	0	1414	5	184	402	2760
61	0	0	1442	5	184	403	2757
62	0	0	1454	5	184	403	2756
63	0	0	1456	4	184	403	2758
64	0	0	1466	5	183	402	2759
65	0	0	1458	4	184	402	2761
66	0	0	1427	4	184	403	2763
67	0	0	1394	4	184	402	2763
68	0	0	1360	4	183	403	2763
69	0	0	1338	3	184	402	2762
70	0	0	1330	4	183	402	2759
71	0	0	1326	4	184	404	2756
72	0	0	1337	5	184	403	2756
73	0	0	1364	5	184	402	2757
74	0	0	1396	5	184	402	2759
75	0	0	1412	5	184	402	2760
76	0	0	1421	5	185	402	2762
77	0	0	1416	4	184	402	2763
78	0	0	1403	4	184	402	2764
79	0	0	1409	5	183	402	2762
80	0	0	1432	5	184	402	2760
81	0	0	1469	4	184	402	2756
82	0	0	1481	4	183	403	2756
83	0	0	1465	4	184	402	2757
84	0	0	1447	3	184	402	2759
85	0	0	1415	4	184	402	2760
86	0	0	1383	4	184	402	2762
87	0	0	1368	4	183	401	2763
88	0	0	1371	5	184	402	2764
89	0	0	1395	5	184	402	2762
90	0	0	1416	5	184	402	2760
91	0	0	1412	4	184	402	2756
92	0	0	1401	4	184	403	2756
93	0	0	1394	4	184	403	2757
94	0	0	1392	4	184	402	2758
95	0	0	1396	4	184	403	2760
96	0	0	1419	5	184	402	2762
97	0	0	1460	5	184	402	2763
98	0	0	1483	5	185	402	2763
99	0	0	1479	5	184	402	2763
100	0	0	1475	5	184	402	2760
101	0	0	1506	4	184	402	2757
102	0	0	1532	5	183	403	2756
103	0	0	1542	5	183	402	2756
104	0	0	1553	4	184	402	2758
105	0	0	1541	4	183	402	2760
106	0	0	1523	4	185	402	2762
107	0	0	1506	4	183	402	2763
108	0	0	1511	5	183	402	2763
109	0	0	1529	4	183	402	2762
110	0	0	1555	5	183	402	2759
111	0	0	1568	4	183	402	2756
112	0	0	1562	4	183	402	2755
113	0	0	1572	5	184	402	2756
114	0	0	1608	4	184	402	2758
115	0	0	1632	5	184	402	2760
116	0	0	1630	5	184	402	2762
117	0	0	1600	4	184	403	2763
118	0	0	1566	4	183	402	2764
119	0	0	1561	4	184	402	2762
120	0	0	1599	5	184	402	2759
121	0	0	1671	4	184	402	2757
122	0	0	1720	5	183	403	2755
123	0	0	1731	5	184	402	2757
124	0	0	1721	4	184	402	2759
125	0	0	1706	5	183	402	2760
126	0	0	1683	4	184	402	2762
127	0	0	1661	4	185	402	2763
0	0	0	1635	4	183	402	2763
1	0	0	1628	4	183	402	2762
2	0	0	1629	4	184	402	2759
3	0	0	1620	5	185	402	2756
4	0	0	1634	5	184	402	2755
5	0	0	1668	5	185	402	2756
6	0	0	1709	4	183	402	2758
7	0	0	1738	5	184	402	2760
8	0	0	1731	4	184	402	2761
9	0	0	1731	4	184	402	2763
10	0	0	1732	5	184	402	2763
11	0	0	1728	4	184	402	2762
12	0	0	1734	5	185	402	2759
13	0	0	1752	5	184	402	2756
14	0	0	1761	5	183	402	2756
15	0	0	1743	4	184	402	2757
16	0	0	1736	4	183	402	2758
17	0	0	1730	4	184	402	2760
18	0	0	1717	5	183	402	2761
19	0	0	1715	4	184	402	2763
20	0	0	1715	4	184	402	2762
21	0	0	1721	5	183	402	2762
22	0	0	1720	5	184	402	2759
23	0	0	1702	4	183	402	2755
24	0	0	1682	3	184	402	2755
25	0	0	1672	5	184	402	2756
26	0	0	1671	4	183	402	2758
27	0	0	1686	5	183	402	2759
28	0	0	1702	5	184	402	2761
29	0	0	1731	5	184	402	2763
30	0	0	1767	4	183	402	2763
31	0	0	1790	4	184	402	2762
32	0	0	1807	5	184	402	2759
33	0	0	1848	5	183	402	2755
34	0	0	1880	5	184	402	2755
35	0	0	1891	5	183	402	2756
36	0	0	1896	5	183	402	2758
37	0	0	1884	4	184	402	2759
38	0	0	1850	4	183	402	2761
39	0	0	1814	4	184	402	2762
40	0	0	1771	4	184	402	2762
41	0	0	1731	4	183	403	2762
42	0	0	1706	4	184	402	2758
43	0	0	1712	5	183	402	2756
44	0	0	1753	5	184	401	2755
45	0	0	1813	5	185	402	2755
46	0	0	1861	5	184	402	2758
47	0	0	1866	5	183	402	2759
48	0	0	1849	4	184	402	2761
49	0	0	1858	4	185	402	2762
50	0	0	1887	5	184	402	2762
51	0	0	1913	4	183	402	2761
52	0	0	1942	5	184	402	2759
53	0	0	1988	5	184	402	2755
54	0	0	2026	5	183	402	2754
55	0	0	2031	5	183	402	2755
56	0	0	2014	4	183	402	2757
57	0	0	1999	4	184	402	2759
58	0	0	1986	5	183	402	2760
59	0	0	1971	4	183	402	2762
60	0	0	1964	4	183	402	2762
61	0	0	1960	4	183	402	2761
62	0	0	1965	5	184	402	2758
63	0	0	1956	4	184	402	2755
64	0	0	1965	5	184	402	2754
65	0	0	1992	5	184	402	2755
66	0	0	2032	4	183	402	2757
67	0	0	2084	4	184	402	2759
68	0	0	2111	5	183	402	2760
69	0	0	2118	5	184	402	2761
70	0	0	2126	5	184	402	2762
71	0	0	2153	5	183	402	2760
72	0	0	2179	5	183	402	2758
73	0	0	2209	5	184	402	2755
74	0	0	2225	5	184	402	2754
75	0	0	2230	5	184	402	2755
76	0	0	2248	4	183	402	2756
77	0	0	2235	4	183	402	2759
78	0	0	2192	4	183	402	2761
79	0	0	2147	4	184	402	2762
80	0	0	2104	4	183	402	2762
81	0	0	2070	4	183	402	2761
82	0	0	2068	5	183	402	2757
83	0	0	2077	5	184	402	2754
84	0	0	2087	5	184	402	2754
85	0	0	2097	5	184	402	2755
86	0	0	2096	4	184	402	2756
87	0	0	2087	4	184	402	2759
88	0	0	2062	4	185	402	2760
89	0	0	2038	5	184	402	2761
90	0	0	2042	5	184	402	2761
91	0	0	2041	3	183	402	2760
92	0	0	2027	4	183	402	2758
93	0	0	2038	5	184	402	2755
94	0	0	2044	4	183	402	2754
95	0	0	2028	4	184	402	2755
96	0	0	1999	3	183	402	2757
97	0	0	1955	4	183	402	2759
98	0	0	1910	4	184	402	2760
99	0	0	1862	4	184	402	2761
100	0	0	1841	4	184	402	2761
101	0	0	1826	5	185	402	2760
102	0	0	1801	4	184	402	2757
103	0	0	1780	4	184	402	2754
104	0	0	1772	4	186	402	2753
105	0	0	1787	5	184	402	2754
106	0	0	1814	5	184	402	2756
107	0	0	1839	5	183	402	2757
108	0	0	1875	5	184	402	2760
109	0	0	1905	5	184	403	2761
110	0	0	1917	5	185	402	2761
111	0	0	1931	4	184	402	2760
112	0	0	1958	5	184	402	2757
113	0	0	1984	5	183	402	2754
114	0	0	1991	5	184	402	2753
115	0	0	1973	4	184	402	2754
116	0	0	1950	3	184	402	2756
117	0	0	1924	4	184	402	2758
118	0	0	1900	4	184	402	2759
119	0	0	1883	5	184	402	2760
120	0	0	1871	5	184	402	2760
121	0	0	1857	4	183	402	2759
122	0	0	1858	5	183	402	2756
123	0	0	1865	4	183	402	2753
124	0	0	1878	5	184	402	2753
125	0	0	1910	5	183	402	2753
126	0	0	1931	3	183	402	2755
127	0	0	1945	5	184	402	2757
0	0	0	1959	5	184	402	2759
1	0	0	1982	5	184	402	2761
2	0	0	2019	5	184	402	2761
3	0	0	2048	4	185	402	2759
4	0	0	2063	5	184	402	2756
5	0	0	2084	5	183	402	2754
6	0	0	2064	4	183	402	2752
7	0	0	2015	4	183	402	2754
8	0	0	1979	4	184	402	2755
9	0	0	1946	4	183	402	2757
10	0	0	1904	3	184	402	2759
11	0	0	1873	4	184	402	2760
12	0	0	1862	4	183	402	2760
13	0	0	1855	4	184	402	2759
14	0	0	1864	5	184	402	2756
15	0	0	1875	5	184	402	2753
16	0	0	1907	5	183	402	2752
17	0	0	1952	5	184	402	2753
18	0	0	1956	4	183	402	2755
19	0	0	1936	4	184	402	2757
20	0	0	1934	5	184	402	2759
21	0	0	1950	5	185	402	2759
22	0	0	1987	5	185	402	2760
23	0	0	2027	5	183	402	2759
24	0	0	2061	5	184	402	2755
25	0	0	2099	5	183	403	2752
26	0	0	2123	4	184	402	2752
27	0	0	2105	4	184	402	2753
28	0	0	2070	4	184	402	2755
29	0	0	2035	4	184	402	2756
30	0	0	2006	4	184	402	2758
31	0	0	1980	5	183	402	2759
32	0	0	1958	4	182	402	2759
33	0	0	1928	4	183	402	2759
34	0	0	1897	4	184	402	2755
35	0	0	1853	4	184	402	2753
36	0	0	1830	4	184	402	2752
37	0	0	1836	5	185	402	2753
38	0	0	1835	4	184	402	2755
39	0	0	1829	4	184	402	2756
40	0	0	1823	4	183	402	2759
41	0	0	1825	5	184	401	2759
42	0	0	1839	5	184	402	2759
43	0	0	1860	5	184	402	2758
44	0	0	1873	5	184	402	2756
45	0	0	1907	5	184	402	2752
46	0	0	1934	5	184	402	2752
47	0	0	1932	4	185	402	2752
48	0	0	1925	4	183	402	2754
49	0	0	1908	4	183	402	2756
50	0	0	1882	5	184	402	2758
51	0	0	1850	4	182	402	2759
52	0	0	1828	4	184	402	2759
53	0	0	1814	4	184	402	2758
54	0	0	1803	4	184	402	2755
55	0	0	1771	4	184	402	2752
56	0	0	1736	4	184	403	2752
57	0	0	1729	4	184	402	2752
58	0	0	1753	5	183	402	2754
59	0	0	1785	5	183	402	2756
60	0	0	1818	5	183	402	2757
61	0	0	1852	5	184	402	2759
62	0	0	1873	5	184	402	2759
63	0	0	1887	4	183	402	2758
64	0	0	1899	5	184	402	2755
65	0	0	1928	5	184	402	2752
66	0	0	1956	4	182	402	2751
67	0	0	1959	4	182	402	2752
68	0	0	1952	5	184	402	2754
69	0	0	1935	4	184	402	2756
70	0	0	1891	4	184	402	2757
71	0	0	1863	4	183	401	2759
72	0	0	1844	4	184	402	2759
73	0	0	1822	4	183	402	2758
74	0	0	1801	4	184	402	2755
75	0	0	1774	5	183	403	2752
76	0	0	1760	4	185	403	2751
77	0	0	1782	5	183	402	2752
78	0	0	1808	5	183	402	2754
79	0	0	1834	5	184	402	2755
80	0	0	1867	5	184	402	2757
81	0	0	1902	5	184	402	2758
82	0	0	1947	5	183	402	2759
83	0	0	1991	5	184	402	2758
84	0	0	2020	5	184	402	2755
85	0	0	2035	5	183	402	2752
86	0	0	2023	4	184	402	2751
87	0	0	1988	4	183	402	2752
88	0	0	1938	4	183	402	2753
89	0	0	1876	4	183	402	2756
90	0	0	1816	4	183	402	2757
91	0	0	1784	5	183	402	2758
92	0	0	1771	4	183	402	2758
93	0	0	1772	5	184	402	2757
94	0	0	1784	5	184	402	2754
95	0	0	1790	5	184	402	2751
96	0	0	1800	5	184	402	2750
97	0	0	1827	5	184	402	2751
98	0	0	1862	5	184	402	2753
99	0	0	1900	5	183	402	2755
100	0	0	1941	5	183	402	2757
101	0	0	1986	5	184	402	2758
102	0	0	2042	5	184	402	2758
103	0	0	2092	5	183	402	2757
104	0	0	2140	5	185	402	2754
105	0	0	2214	5	184	402	2751
106	0	0	2256	5	184	402	2751
107	0	0	2251	4	183	402	2752
108	0	0	2253	5	183	402	2753
109	0	0	2254	4	184	402	2755
110	0	0	2249	6	183	402	2756
111	0	0	2262	5	184	402	2758
112	0	0	2278	5	184	402	2758
113	0	0	2284	5	183	402	2757
114	0	0	2275	4	183	402	2754
115	0	0	2268	5	184	402	2751
116	0	0	2277	5	183	402	2750
117	0	0	2301	5	184	402	2751
118	0	0	2320	5	184	402	2753
119	0	0	2325	5	184	402	2755
120	0	0	2322	5	184	402	2756
121	0	0	2306	4	184	402	2758
122	0	0	2285	4	184	402	2758
123	0	0	2250	4	183	402	2757
124	0	0	2204	5	183	402	2754
125	0	0	2182	4	183	402	2751
126	0	0	2151	3	182	402	2750
127	0	0	2099	4	184	402	2751
0	0	0	2031	4	183	402	2753
1	0	0	1951	4	183	402	2754
2	0	0	1869	4	184	402	2756
3	0	0	1813	5	183	402	2757
4	0	0	1780	4	184	402	2757
5	0	0	1745	4	184	403	2756
6	0	0	1718	4	184	402	2754
7	0	0	1690	5	183	402	2750
8	0	0	1685	4	183	402	2749
9	0	0	1715	5	184	402	2750
10	0	0	1748	4	184	402	2752
11	0	0	1764	5	184	402	2754
12	0	0	1772	4	185	402	2756
13	0	0	1794	5	184	403	2757
14	0	0	1830	5	184	402	2757
15	0	0	1861	5	184	402	2756
16	0	0	1890	5	184	402	2753
17	0	0	1925	5	184	402	2750
18	0	0	1947	5	183	402	2750
19	0	0	1938	4	183	402	2751
20	0	0	1931	5	184	402	2752
21	0	0	1914	4	184	402	2753
22	0	0	1886	4	183	402	2755
23	0	0	1885	4	183	402	2756
24	0	0	1894	5	184	402	2757
25	0	0	1902	5	183	402	2756
26	0	0	1921	5	183	402	2753
27	0	0	1936	5	184	402	2750
28	0	0	1946	5	184	402	2749
29	0	0	1955	5	183	402	2750
30	0	0	1961	5	184	402	2752
31	0	0	1984	5	184	402	2753
32	0	0	2019	5	183	402	2755
33	0	0	2046	6	183	402	2757
34	0	0	2055	5	184	402	2756
35	0	0	2059	5	184	402	2756
36	0	0	2068	5	184	402	2753
37	0	0	2099	5	183	402	2750
38	0	0	2091	5	183	402	2749
39	0	0	2053	4	183	402	2750
40	0	0	2028	4	184	402	2752
41	0	0	2008	4	183	402	2753
42	0	0	1983	4	183	402	2755
43	0	0	1964	4	183	402	2756
44	0	0	1966	5	185	402	2757
45	0	0	1972	4	183	402	2756
46	0	0	1962	4	184	402	2753
47	0	0	1929	5	183	402	2749
48	0	0	1932	5	184	402	2748
49	0	0	1954	5	185	402	2749
50	0	0	1969	5	184	402	2752
51	0	0	1984	5	184	402	2753
52	0	0	2014	5	185	402	2755
53	0	0	2049	5	184	402	2756
54	0	0	2079	5	184	402	2756
55	0	0	2099	5	184	402	2755
56	0	0	2106	7	184	402	2752
57	0	0	2119	5	184	402	2749
58	0	0	2119	4	184	402	2748
59	0	0	2105	4	183	402	2749
60	0	0	2090	4	184	402	2751
61	0	0	2065	4	184	402	2753
62	0	0	2056	5	184	402	2755
63	0	0	2060	5	184	402	2756
64	0	0	2060	5	184	402	2756
65	0	0	2059	5	183	402	2755
66	0	0	2054	5	184	402	2752
67	0	0	2046	4	183	402	2749
68	0	0	2050	5	184	402	2748
69	0	0	2072	5	183	402	2749
70	0	0	2083	5	184	402	2750
71	0	0	2076	5	184	402	2753
72	0	0	2079	5	184	402	2754
73	0	0	2097	5	184	402	2756
74	0	0	2132	5	184	402	2756
75	0	0	2154	5	184	402	2755
76	0	0	2145	4	183	403	2752
77	0	0	2140	5	184	402	2749
78	0	0	2142	5	184	403	2748
79	0	0	2138	5	184	401	2749
