# bioPlux Text File Format
# Version: 1
# StartDateTime: 2011-07-19 11:41:22
# SamplingFrequency: 1000
# SampledChannels: 1 2 3 4
# SamplingResolution: 12
# AcquiringDevice: 00:07:80:42:0F:8B
# EndOfHeader
0	0	0	1786	6	2617	51
1	0	0	1782	12	2614	48
2	0	0	1805	9	2605	49
3	0	0	1805	11	2595	48
4	0	0	1816	11	2592	47
5	0	0	1849	10	2595	47
6	0	0	1912	14	2599	46
7	0	0	1982	9	2606	48
8	0	0	2037	11	2612	48
9	0	0	2087	11	2616	49
10	0	0	2119	10	2617	51
11	0	0	2108	12	2613	48
12	0	0	2084	9	2604	48
13	0	0	2078	12	2594	47
14	0	0	2068	8	2592	47
15	0	0	1990	6	2595	51
16	0	0	1878	11	2599	48
17	0	0	1808	6	2607	48
18	0	0	1784	8	2612	48
19	0	0	1759	7	2616	49
20	0	0	1750	8	2617	49
21	0	0	1768	14	2613	48
22	0	0	1783	11	2605	48
23	0	0	1786	11	2595	46
24	0	0	1811	11	2592	47
25	0	0	1854	10	2595	47
26	0	0	1875	14	2599	48
27	0	0	1924	11	2606	48
28	0	0	1991	11	2612	48
29	0	0	2025	11	2616	48
30	0	0	2049	12	2617	49
31	0	0	2085	14	2613	48
32	0	0	2095	9	2605	48
33	0	0	2063	7	2594	48
34	0	0	2009	7	2592	47
35	0	0	1957	8	2595	47
36	0	0	1929	7	2599	47
37	0	0	1892	7	2606	47
38	0	0	1871	12	2612	48
39	0	0	1860	8	2616	47
40	0	0	1850	12	2616	49
41	0	0	1846	13	2613	48
42	0	0	1825	7	2605	49
43	0	0	1798	8	2595	48
44	0	0	1808	10	2592	47
45	0	0	1827	8	2595	48
46	0	0	1842	11	2599	48
47	0	0	1849	8	2607	48
48	0	0	1874	9	2612	48
49	0	0	1913	11	2616	49
50	0	0	1951	10	2617	49
51	0	0	1980	13	2613	48
52	0	0	2007	10	2605	48
53	0	0	2015	9	2595	47
54	0	0	1986	8	2592	47
55	0	0	1942	7	2595	48
56	0	0	1904	6	2600	47
57	0	0	1850	11	2607	49
58	0	0	1807	4	2612	49
59	0	0	1790	7	2617	48
60	0	0	1778	10	2617	50
61	0	0	1790	10	2613	48
62	0	0	1801	11	2605	47
63	0	0	1793	9	2594	47
64	0	0	1813	7	2593	46
65	0	0	1861	10	2595	45
66	0	0	1892	10	2600	48
67	0	0	1912	10	2607	48
68	0	0	1953	11	2612	48
69	0	0	2033	11	2617	48
70	0	0	2072	10	2617	51
71	0	0	2059	10	2613	48
72	0	0	2055	11	2605	47
73	0	0	2071	11	2594	44
74	0	0	2065	5	2592	47
75	0	0	2018	7	2594	48
76	0	0	1968	7	2599	50
77	0	0	1922	8	2606	48
78	0	0	1862	7	2613	47
79	0	0	1802	8	2616	49
80	0	0	1799	11	2617	47
81	0	0	1816	11	2614	51
82	0	0	1762	11	2605	48
83	0	0	1697	8	2595	48
84	0	0	1709	7	2592	47
85	0	0	1778	15	2595	48
86	0	0	1821	10	2600	52
87	0	0	1864	11	2606	48
88	0	0	1923	7	2612	48
89	0	0	1965	11	2616	48
90	0	0	2014	14	2616	48
91	0	0	2057	10	2614	49
92	0	0	2086	11	2605	48
93	0	0	2135	11	2594	48
94	0	0	2227	8	2592	47
95	0	0	2255	7	2595	47
96	0	0	2159	7	2600	51
97	0	0	2016	9	2607	48
98	0	0	1868	6	2612	48
99	0	0	1768	3	2617	50
100	0	0	1714	9	2617	49
101	0	0	1703	8	2614	47
102	0	0	1706	10	2605	48
103	0	0	1707	10	2595	49
104	0	0	1761	11	2592	47
105	0	0	1808	11	2595	48
106	0	0	1855	11	2600	47
107	0	0	1914	9	2607	48
108	0	0	1983	10	2612	48
109	0	0	2023	9	2617	48
110	0	0	2051	11	2617	52
111	0	0	2077	11	2614	51
112	0	0	2088	10	2605	48
113	0	0	2083	10	2595	48
114	0	0	2067	11	2592	48
115	0	0	2077	12	2595	49
116	0	0	2062	8	2600	47
117	0	0	1987	9	2607	47
118	0	0	1904	7	2612	49
119	0	0	1874	8	2616	52
120	0	0	1848	11	2616	48
121	0	0	1825	10	2614	47
122	0	0	1806	6	2605	48
123	0	0	1773	7	2595	46
124	0	0	1761	8	2592	48
125	0	0	1798	10	2594	47
126	0	0	1874	11	2600	47
127	0	0	1940	14	2607	48
0	0	0	1974	11	2612	48
1	0	0	2011	11	2616	48
2	0	0	2061	15	2616	48
3	0	0	2098	11	2614	48
4	0	0	2101	10	2605	48
5	0	0	2089	11	2595	47
6	0	0	2097	10	2592	47
7	0	0	2091	9	2594	48
8	0	0	2057	10	2600	47
9	0	0	2036	9	2606	48
10	0	0	2018	7	2612	48
11	0	0	1982	8	2616	49
12	0	0	1942	8	2617	47
13	0	0	1900	7	2614	48
14	0	0	1854	5	2605	48
15	0	0	1802	8	2594	48
16	0	0	1805	7	2592	47
17	0	0	1831	10	2595	48
18	0	0	1863	11	2600	49
19	0	0	1909	9	2607	50
20	0	0	1972	12	2612	48
21	0	0	2010	9	2617	49
22	0	0	2036	11	2617	49
23	0	0	2056	10	2614	47
24	0	0	2063	12	2604	48
25	0	0	2086	10	2594	47
26	0	0	2105	8	2592	47
27	0	0	2101	10	2595	48
28	0	0	2088	10	2600	48
29	0	0	2078	10	2606	47
30	0	0	2058	7	2613	47
31	0	0	2004	12	2616	48
32	0	0	1957	8	2616	49
33	0	0	1912	7	2614	51
34	0	0	1874	10	2605	48
35	0	0	1831	9	2596	48
36	0	0	1820	11	2592	47
37	0	0	1832	10	2595	48
38	0	0	1839	11	2600	45
39	0	0	1876	10	2607	48
40	0	0	1940	10	2612	48
41	0	0	2007	10	2617	48
42	0	0	2079	11	2617	49
43	0	0	2115	10	2614	49
44	0	0	2113	12	2605	48
45	0	0	2110	10	2595	46
46	0	0	2095	8	2592	47
47	0	0	2056	8	2594	48
48	0	0	2008	7	2600	48
49	0	0	1972	8	2606	49
50	0	0	1972	10	2612	49
51	0	0	1958	7	2616	49
52	0	0	1919	6	2617	49
53	0	0	1873	7	2614	49
54	0	0	1826	7	2605	47
55	0	0	1782	8	2594	48
56	0	0	1793	11	2592	48
57	0	0	1848	10	2595	48
58	0	0	1890	11	2600	48
59	0	0	1930	11	2607	48
60	0	0	1958	11	2612	48
61	0	0	1971	10	2617	47
62	0	0	2012	10	2618	50
63	0	0	2050	10	2614	49
64	0	0	2060	12	2605	48
65	0	0	2104	11	2594	48
66	0	0	2183	10	2592	49
67	0	0	2230	10	2594	47
68	0	0	2188	7	2599	48
69	0	0	2075	7	2606	48
70	0	0	1930	8	2612	48
71	0	0	1835	7	2616	48
72	0	0	1773	6	2617	48
73	0	0	1763	9	2614	48
74	0	0	1784	12	2605	48
75	0	0	1790	12	2594	49
76	0	0	1814	11	2592	48
77	0	0	1852	11	2594	46
78	0	0	1899	11	2600	47
79	0	0	1966	14	2606	48
80	0	0	2027	10	2612	47
81	0	0	2050	11	2616	49
82	0	0	2044	7	2616	48
83	0	0	2026	9	2614	49
84	0	0	2021	12	2604	48
85	0	0	2050	11	2594	47
86	0	0	2062	12	2592	47
87	0	0	2049	8	2595	48
88	0	0	2012	7	2600	48
89	0	0	1981	8	2607	47
90	0	0	1972	9	2612	48
91	0	0	1939	8	2615	48
92	0	0	1896	6	2616	48
93	0	0	1857	7	2613	48
94	0	0	1843	10	2605	48
95	0	0	1827	9	2595	47
96	0	0	1840	10	2591	48
97	0	0	1881	11	2594	48
98	0	0	1911	11	2600	47
99	0	0	1952	7	2606	47
100	0	0	1994	10	2612	48
101	0	0	2037	10	2616	49
102	0	0	2071	11	2617	49
103	0	0	2104	11	2613	48
104	0	0	2124	12	2604	48
105	0	0	2145	11	2595	48
106	0	0	2140	9	2592	47
107	0	0	2091	7	2595	47
108	0	0	2045	7	2599	48
109	0	0	1984	3	2606	49
110	0	0	1886	8	2612	49
111	0	0	1810	8	2616	53
112	0	0	1798	11	2616	48
113	0	0	1826	10	2613	48
114	0	0	1852	11	2605	48
115	0	0	1839	8	2594	48
116	0	0	1809	8	2592	48
117	0	0	1803	11	2594	47
118	0	0	1819	11	2599	48
119	0	0	1866	7	2607	48
120	0	0	1938	11	2612	48
121	0	0	2008	10	2616	49
122	0	0	2057	11	2616	48
123	0	0	2095	11	2614	49
124	0	0	2116	11	2605	47
125	0	0	2119	11	2595	47
126	0	0	2120	11	2592	47
127	0	0	2113	10	2594	48
0	0	0	2077	8	2599	48
1	0	0	2019	5	2606	47
2	0	0	1961	7	2612	47
3	0	0	1896	7	2615	48
4	0	0	1853	8	2616	48
5	0	0	1854	11	2614	48
6	0	0	1846	3	2605	48
7	0	0	1793	7	2595	47
8	0	0	1779	15	2592	47
9	0	0	1828	10	2595	47
10	0	0	1871	10	2600	48
11	0	0	1928	8	2606	48
12	0	0	2005	10	2613	47
13	0	0	2062	11	2616	48
14	0	0	2073	10	2617	48
15	0	0	2046	9	2614	47
16	0	0	2032	9	2605	48
17	0	0	2033	11	2595	47
18	0	0	2013	11	2591	48
19	0	0	2021	9	2594	47
20	0	0	2025	10	2599	49
21	0	0	2000	7	2606	48
22	0	0	1980	9	2612	48
23	0	0	1938	11	2615	48
24	0	0	1866	4	2617	48
25	0	0	1812	7	2613	48
26	0	0	1781	7	2606	48
27	0	0	1733	7	2595	47
28	0	0	1715	7	2592	48
29	0	0	1747	11	2595	47
30	0	0	1821	10	2600	48
31	0	0	1924	9	2607	48
32	0	0	1993	10	2612	48
33	0	0	2035	14	2615	48
34	0	0	2069	11	2617	48
35	0	0	2073	11	2614	48
36	0	0	2042	8	2605	48
37	0	0	2037	10	2594	47
38	0	0	2018	7	2592	45
39	0	0	2005	8	2594	48
40	0	0	1997	10	2599	47
41	0	0	2000	8	2606	48
42	0	0	1985	7	2612	48
43	0	0	1932	4	2616	49
44	0	0	1878	5	2617	49
45	0	0	1847	8	2614	49
46	0	0	1844	10	2606	48
47	0	0	1830	9	2595	48
48	0	0	1821	13	2591	48
49	0	0	1817	8	2594	48
50	0	0	1828	10	2599	48
51	0	0	1903	10	2607	47
52	0	0	1988	11	2612	48
53	0	0	2051	10	2616	49
54	0	0	2113	10	2616	47
55	0	0	2176	11	2614	48
56	0	0	2217	8	2605	49
57	0	0	2237	11	2594	47
58	0	0	2211	11	2591	48
59	0	0	2161	6	2594	48
60	0	0	2102	7	2599	48
61	0	0	2044	4	2607	47
62	0	0	2009	8	2612	48
63	0	0	2004	11	2616	48
64	0	0	2036	10	2617	52
65	0	0	2054	10	2613	47
66	0	0	2006	7	2605	47
67	0	0	1899	6	2595	47
68	0	0	1805	7	2592	46
69	0	0	1778	9	2594	48
70	0	0	1803	10	2599	48
71	0	0	1878	11	2607	48
72	0	0	1943	10	2612	49
73	0	0	2002	10	2617	48
74	0	0	2046	10	2617	47
75	0	0	2059	11	2615	48
76	0	0	2052	8	2605	48
77	0	0	2085	11	2595	47
78	0	0	2139	9	2592	48
79	0	0	2178	9	2595	47
80	0	0	2161	7	2600	48
81	0	0	2096	6	2607	48
82	0	0	2007	6	2612	48
83	0	0	1940	5	2616	48
84	0	0	1866	6	2617	48
85	0	0	1807	7	2614	47
86	0	0	1810	8	2605	48
87	0	0	1836	10	2595	47
88	0	0	1884	11	2591	48
89	0	0	1928	10	2595	48
90	0	0	1949	10	2599	48
91	0	0	1980	12	2607	47
92	0	0	2015	11	2612	48
93	0	0	2028	11	2616	48
94	0	0	2022	10	2617	47
95	0	0	2003	8	2615	48
96	0	0	1999	10	2606	48
97	0	0	2002	10	2595	47
98	0	0	1991	11	2591	48
99	0	0	1987	8	2594	48
100	0	0	1961	8	2599	48
101	0	0	1945	8	2606	48
102	0	0	1921	8	2612	48
103	0	0	1879	7	2617	48
104	0	0	1862	8	2617	49
105	0	0	1846	8	2614	49
106	0	0	1852	10	2605	48
107	0	0	1857	10	2595	48
108	0	0	1865	11	2592	47
109	0	0	1875	10	2595	47
110	0	0	1888	10	2601	48
111	0	0	1898	10	2607	48
112	0	0	1907	11	2612	48
113	0	0	1933	11	2616	50
114	0	0	1972	11	2617	54
115	0	0	2017	11	2614	48
116	0	0	2028	11	2605	47
117	0	0	2036	11	2595	47
118	0	0	2041	11	2592	47
119	0	0	2043	11	2594	46
120	0	0	2018	5	2600	47
121	0	0	1978	7	2606	48
122	0	0	1943	7	2612	48
123	0	0	1891	7	2616	48
124	0	0	1836	6	2617	52
125	0	0	1797	7	2614	48
126	0	0	1788	9	2606	48
127	0	0	1774	8	2595	48
0	0	0	1772	10	2593	47
1	0	0	1788	10	2595	46
2	0	0	1818	10	2600	48
3	0	0	1864	11	2606	48
4	0	0	1938	11	2612	47
5	0	0	1974	9	2617	47
6	0	0	1984	11	2617	48
7	0	0	1991	10	2614	47
8	0	0	2009	11	2605	48
9	0	0	2037	11	2594	47
10	0	0	2061	10	2592	47
11	0	0	2055	10	2595	47
12	0	0	2044	11	2600	48
13	0	0	2035	10	2607	48
14	0	0	2007	7	2612	48
15	0	0	1953	6	2617	49
16	0	0	1906	8	2617	49
17	0	0	1900	10	2614	48
18	0	0	1875	7	2605	48
19	0	0	1814	7	2595	47
20	0	0	1799	12	2592	47
21	0	0	1826	11	2595	44
22	0	0	1849	11	2600	47
23	0	0	1879	11	2606	47
24	0	0	1918	11	2612	48
25	0	0	1954	8	2616	48
26	0	0	1965	14	2616	47
27	0	0	1977	11	2614	48
28	0	0	2013	9	2605	49
29	0	0	2088	11	2595	47
30	0	0	2180	11	2592	46
31	0	0	2220	11	2595	47
32	0	0	2201	7	2600	47
33	0	0	2130	8	2606	49
34	0	0	2064	7	2613	47
35	0	0	2030	11	2616	49
36	0	0	2020	13	2617	49
37	0	0	2017	10	2614	48
38	0	0	2017	11	2606	48
39	0	0	2014	11	2595	48
40	0	0	2016	10	2592	46
41	0	0	2030	11	2594	48
42	0	0	2095	11	2600	48
43	0	0	2184	11	2606	48
44	0	0	2268	11	2612	48
45	0	0	2338	11	2616	48
46	0	0	2435	11	2617	49
47	0	0	2541	11	2614	48
48	0	0	2578	11	2605	48
49	0	0	2552	8	2595	47
50	0	0	2483	7	2592	47
51	0	0	2397	5	2595	48
52	0	0	2309	7	2600	47
53	0	0	2248	7	2606	48
54	0	0	2233	11	2612	48
55	0	0	2215	8	2616	49
56	0	0	2183	7	2617	49
57	0	0	2142	7	2614	48
58	0	0	2101	7	2605	48
59	0	0	2066	7	2595	47
60	0	0	2075	11	2592	47
61	0	0	2092	9	2594	48
62	0	0	2101	9	2600	48
63	0	0	2107	11	2606	48
64	0	0	2094	9	2612	48
65	0	0	2083	10	2616	49
66	0	0	2070	7	2617	49
67	0	0	2054	9	2614	47
68	0	0	2042	9	2606	48
69	0	0	2041	10	2595	48
70	0	0	2038	11	2592	46
71	0	0	2002	8	2594	45
72	0	0	1948	7	2599	45
73	0	0	1916	8	2607	48
74	0	0	1908	9	2612	47
75	0	0	1893	8	2616	48
76	0	0	1889	11	2616	49
77	0	0	1887	9	2613	46
78	0	0	1859	7	2605	47
79	0	0	1785	6	2595	48
80	0	0	1726	10	2592	47
81	0	0	1739	11	2594	48
82	0	0	1836	10	2600	48
83	0	0	1973	10	2606	49
84	0	0	2077	11	2612	49
85	0	0	2120	10	2616	49
86	0	0	2126	11	2617	49
87	0	0	2114	9	2615	48
88	0	0	2113	11	2605	48
89	0	0	2110	9	2595	48
90	0	0	2077	7	2592	47
91	0	0	2040	7	2594	47
92	0	0	2010	7	2600	47
93	0	0	1966	7	2606	50
94	0	0	1919	7	2612	47
95	0	0	1848	7	2616	49
96	0	0	1775	6	2617	49
97	0	0	1741	8	2614	46
98	0	0	1765	8	2605	48
99	0	0	1769	10	2595	47
100	0	0	1815	11	2591	48
101	0	0	1885	11	2595	46
102	0	0	1953	11	2600	47
103	0	0	2089	11	2606	48
104	0	0	2227	14	2611	48
105	0	0	2266	9	2616	49
106	0	0	2191	4	2617	48
107	0	0	2091	6	2613	46
108	0	0	2044	9	2605	48
109	0	0	2079	11	2594	47
110	0	0	2104	9	2592	47
111	0	0	2085	8	2594	44
112	0	0	2073	10	2599	45
113	0	0	2035	7	2607	48
114	0	0	1970	11	2612	48
115	0	0	1886	7	2616	48
116	0	0	1815	4	2617	48
117	0	0	1796	9	2614	47
118	0	0	1805	8	2606	47
119	0	0	1805	11	2595	47
120	0	0	1838	10	2592	47
121	0	0	1880	8	2595	47
122	0	0	1913	11	2600	45
123	0	0	1967	11	2606	48
124	0	0	2013	10	2611	48
125	0	0	2036	9	2616	48
126	0	0	2042	11	2617	45
127	0	0	2068	11	2614	47
0	0	0	2094	11	2605	48
1	0	0	2120	11	2594	47
2	0	0	2117	9	2592	47
3	0	0	2090	7	2594	47
4	0	0	2065	10	2599	48
5	0	0	2012	7	2606	48
6	0	0	1938	6	2612	47
7	0	0	1859	6	2616	49
8	0	0	1806	5	2617	48
9	0	0	1797	8	2613	49
10	0	0	1794	8	2606	48
11	0	0	1790	10	2595	47
12	0	0	1845	12	2592	47
13	0	0	1917	10	2594	47
14	0	0	1968	11	2599	47
15	0	0	2024	13	2606	50
16	0	0	2074	13	2612	48
17	0	0	2094	12	2615	48
18	0	0	2092	8	2617	48
19	0	0	2094	10	2614	47
20	0	0	2112	10	2606	48
21	0	0	2128	11	2594	47
22	0	0	2092	8	2591	49
23	0	0	2041	8	2594	47
24	0	0	2009	7	2600	47
25	0	0	2002	11	2606	48
26	0	0	1993	8	2612	49
27	0	0	1961	8	2616	48
28	0	0	1923	7	2617	48
29	0	0	1895	9	2614	47
30	0	0	1889	9	2606	47
31	0	0	1864	8	2594	47
32	0	0	1842	7	2592	44
33	0	0	1810	7	2594	47
34	0	0	1801	11	2599	49
35	0	0	1856	10	2607	48
36	0	0	1973	10	2612	50
37	0	0	2068	11	2616	49
38	0	0	2114	10	2617	49
39	0	0	2148	10	2614	49
40	0	0	2151	10	2607	47
41	0	0	2145	10	2595	47
42	0	0	2124	8	2592	48
43	0	0	2086	8	2594	47
44	0	0	2082	10	2600	47
45	0	0	2104	10	2607	50
46	0	0	2096	7	2612	47
47	0	0	2045	7	2616	49
48	0	0	1988	7	2616	48
49	0	0	1949	7	2614	48
50	0	0	1931	7	2605	48
51	0	0	1900	7	2595	48
52	0	0	1904	10	2592	47
53	0	0	1935	10	2594	48
54	0	0	1955	10	2599	47
55	0	0	2002	9	2607	48
56	0	0	2048	11	2612	48
57	0	0	2075	10	2616	49
58	0	0	2128	10	2617	48
59	0	0	2172	12	2614	49
60	0	0	2209	11	2605	48
61	0	0	2225	11	2595	46
62	0	0	2203	8	2592	47
63	0	0	2154	7	2594	47
64	0	0	2101	7	2599	47
65	0	0	2054	7	2606	48
66	0	0	2010	7	2612	48
67	0	0	1964	7	2616	48
68	0	0	1915	7	2617	49
69	0	0	1900	10	2614	50
70	0	0	1900	8	2605	48
71	0	0	1863	8	2595	50
72	0	0	1847	11	2592	47
73	0	0	1867	11	2595	47
74	0	0	1912	11	2600	47
75	0	0	1976	10	2605	49
76	0	0	2032	10	2613	47
77	0	0	2075	11	2615	49
78	0	0	2106	11	2616	49
79	0	0	2130	10	2614	48
80	0	0	2138	11	2604	48
81	0	0	2147	11	2594	47
82	0	0	2159	11	2591	48
83	0	0	2162	11	2593	47
84	0	0	2132	8	2599	47
85	0	0	2103	7	2605	47
86	0	0	2064	7	2612	49
87	0	0	2024	7	2616	48
88	0	0	1983	8	2616	48
89	0	0	1964	8	2614	49
90	0	0	1973	10	2605	48
91	0	0	1969	9	2595	48
92	0	0	1962	11	2592	47
93	0	0	1964	10	2594	47
94	0	0	1992	10	2600	47
95	0	0	2060	12	2605	47
96	0	0	2121	11	2612	47
97	0	0	2124	6	2616	48
98	0	0	2111	11	2616	48
99	0	0	2139	11	2614	47
100	0	0	2197	11	2605	47
101	0	0	2259	11	2595	48
102	0	0	2267	11	2592	47
103	0	0	2254	10	2594	48
104	0	0	2212	7	2600	48
105	0	0	2142	6	2607	48
106	0	0	2007	6	2612	48
107	0	0	1897	6	2616	48
108	0	0	1868	10	2616	48
109	0	0	1898	11	2614	49
110	0	0	1948	11	2606	48
111	0	0	1968	10	2595	47
112	0	0	1983	12	2592	47
113	0	0	2027	11	2594	47
114	0	0	2070	11	2599	46
115	0	0	2103	11	2606	48
116	0	0	2142	11	2612	49
117	0	0	2164	10	2616	48
118	0	0	2183	10	2616	50
119	0	0	2223	10	2614	48
120	0	0	2238	11	2605	45
121	0	0	2220	8	2595	48
122	0	0	2182	8	2592	48
123	0	0	2147	8	2594	49
124	0	0	2137	10	2599	46
125	0	0	2131	10	2606	48
126	0	0	2105	8	2611	49
127	0	0	2073	8	2616	49
0	0	0	2039	7	2616	49
1	0	0	2019	9	2614	48
2	0	0	1997	8	2605	48
3	0	0	1966	8	2595	48
4	0	0	1958	11	2592	47
5	0	0	1984	11	2594	49
6	0	0	2024	11	2599	46
7	0	0	2061	11	2605	48
8	0	0	2082	11	2612	48
9	0	0	2106	11	2616	49
10	0	0	2145	11	2617	47
11	0	0	2190	11	2614	48
12	0	0	2217	10	2606	47
13	0	0	2239	11	2595	48
14	0	0	2238	8	2592	47
15	0	0	2225	11	2595	48
16	0	0	2230	11	2599	48
17	0	0	2247	11	2606	48
18	0	0	2225	8	2612	48
19	0	0	2169	5	2616	48
20	0	0	2106	6	2617	52
21	0	0	2060	7	2614	48
22	0	0	2033	8	2606	47
23	0	0	1990	8	2595	47
24	0	0	1981	8	2592	47
25	0	0	1998	11	2594	47
26	0	0	2045	10	2600	48
27	0	0	2127	11	2606	47
28	0	0	2214	10	2612	48
29	0	0	2261	16	2616	48
30	0	0	2241	9	2616	49
31	0	0	2212	10	2614	46
32	0	0	2203	11	2605	48
33	0	0	2235	7	2594	48
34	0	0	2242	12	2591	50
35	0	0	2193	8	2593	47
36	0	0	2165	10	2599	48
37	0	0	2169	11	2605	47
38	0	0	2164	7	2611	48
39	0	0	2104	8	2616	48
40	0	0	2010	8	2616	48
41	0	0	1957	8	2614	48
42	0	0	1942	8	2605	48
43	0	0	1922	9	2595	47
44	0	0	1955	10	2592	46
45	0	0	2030	10	2595	50
46	0	0	2077	10	2600	48
47	0	0	2119	11	2606	48
48	0	0	2148	10	2612	47
49	0	0	2140	14	2616	48
50	0	0	2132	11	2617	49
51	0	0	2157	11	2614	52
52	0	0	2200	11	2605	48
53	0	0	2231	10	2594	47
54	0	0	2202	5	2591	48
55	0	0	2125	7	2594	47
56	0	0	2065	6	2599	48
57	0	0	2032	7	2605	47
58	0	0	2002	7	2611	48
59	0	0	1958	12	2615	50
60	0	0	1939	10	2617	48
61	0	0	1965	10	2614	52
62	0	0	1996	10	2606	48
63	0	0	2001	11	2595	48
64	0	0	1966	7	2592	47
65	0	0	1921	7	2594	46
66	0	0	1900	9	2599	50
67	0	0	1915	10	2605	48
68	0	0	1924	11	2611	48
69	0	0	1955	15	2615	49
70	0	0	2014	14	2616	48
71	0	0	2080	11	2614	47
72	0	0	2119	11	2604	47
73	0	0	2146	11	2595	46
74	0	0	2136	5	2591	48
75	0	0	2101	10	2594	49
76	0	0	2086	11	2599	50
77	0	0	2073	9	2605	47
78	0	0	2040	7	2612	52
79	0	0	1971	6	2616	47
80	0	0	1907	7	2617	52
81	0	0	1874	8	2614	47
82	0	0	1862	9	2605	47
83	0	0	1846	9	2594	47
84	0	0	1843	13	2591	48
85	0	0	1855	13	2594	47
86	0	0	1870	11	2599	47
87	0	0	1897	11	2605	47
88	0	0	1951	12	2611	48
89	0	0	2014	15	2615	49
90	0	0	2085	12	2617	48
91	0	0	2138	13	2614	45
92	0	0	2165	11	2605	47
93	0	0	2170	9	2595	47
94	0	0	2130	11	2592	46
95	0	0	2092	10	2594	47
96	0	0	2056	7	2599	47
97	0	0	2017	7	2605	47
98	0	0	1966	6	2611	48
99	0	0	1909	7	2616	48
100	0	0	1856	9	2617	48
101	0	0	1842	8	2614	50
102	0	0	1832	9	2605	48
103	0	0	1816	7	2594	47
104	0	0	1845	10	2592	46
105	0	0	1890	10	2594	47
106	0	0	1921	11	2599	47
107	0	0	1951	10	2605	48
108	0	0	1961	11	2612	48
109	0	0	1986	11	2616	48
110	0	0	2049	12	2616	48
111	0	0	2120	11	2614	47
112	0	0	2155	11	2605	48
113	0	0	2180	10	2594	47
114	0	0	2183	8	2591	48
115	0	0	2128	5	2594	47
116	0	0	2033	7	2599	49
117	0	0	1942	8	2605	47
118	0	0	1899	7	2611	48
119	0	0	1906	10	2615	50
120	0	0	1921	11	2616	48
121	0	0	1929	11	2614	47
122	0	0	1948	11	2605	48
123	0	0	1928	8	2594	48
124	0	0	1928	10	2592	48
125	0	0	1968	10	2594	47
126	0	0	2000	11	2599	49
127	0	0	2037	11	2606	47
0	0	0	2067	12	2612	48
1	0	0	2083	11	2616	48
2	0	0	2109	11	2617	49
3	0	0	2147	11	2614	47
4	0	0	2180	11	2605	47
5	0	0	2181	10	2594	47
6	0	0	2131	7	2591	48
7	0	0	2070	9	2594	47
8	0	0	2042	9	2599	47
9	0	0	2027	10	2605	48
10	0	0	2020	7	2611	48
11	0	0	1995	8	2615	50
12	0	0	1971	6	2616	49
13	0	0	1937	7	2614	49
14	0	0	1897	7	2605	48
15	0	0	1844	7	2595	47
16	0	0	1835	11	2592	47
17	0	0	1846	10	2594	47
18	0	0	1850	10	2599	48
19	0	0	1860	10	2606	48
20	0	0	1886	11	2612	48
21	0	0	1949	11	2616	47
22	0	0	2033	11	2616	48
23	0	0	2097	10	2614	49
24	0	0	2148	11	2605	47
25	0	0	2205	11	2594	47
26	0	0	2209	11	2591	48
27	0	0	2191	10	2594	47
28	0	0	2170	10	2599	45
29	0	0	2156	9	2606	48
30	0	0	2125	8	2612	48
31	0	0	2068	8	2616	49
32	0	0	2022	8	2616	50
33	0	0	1995	9	2614	47
34	0	0	1957	8	2605	48
35	0	0	1898	7	2595	46
36	0	0	1887	8	2592	47
37	0	0	1894	9	2594	47
38	0	0	1886	10	2599	47
39	0	0	1933	11	2606	48
40	0	0	2014	10	2611	48
41	0	0	2068	11	2615	50
42	0	0	2083	10	2616	47
43	0	0	2087	9	2614	48
44	0	0	2120	12	2605	48
45	0	0	2156	10	2594	48
46	0	0	2179	12	2591	48
47	0	0	2178	9	2593	47
48	0	0	2151	8	2599	48
49	0	0	2094	8	2605	47
50	0	0	2009	6	2612	47
51	0	0	1946	5	2615	48
52	0	0	1910	3	2617	48
53	0	0	1892	10	2614	48
54	0	0	1903	10	2606	48
55	0	0	1886	9	2595	47
56	0	0	1895	10	2592	48
57	0	0	1936	8	2594	47
58	0	0	1967	11	2599	48
59	0	0	1989	10	2605	48
60	0	0	2034	11	2612	48
61	0	0	2074	12	2615	48
62	0	0	2101	9	2616	47
63	0	0	2134	10	2614	47
64	0	0	2187	12	2606	48
65	0	0	2259	11	2594	47
66	0	0	2274	11	2592	47
67	0	0	2228	7	2593	47
68	0	0	2185	7	2599	47
69	0	0	2149	6	2605	47
70	0	0	2107	7	2611	48
71	0	0	2062	8	2616	49
72	0	0	2033	7	2616	50
73	0	0	2003	7	2614	48
74	0	0	1961	7	2605	48
75	0	0	1898	7	2595	47
76	0	0	1866	10	2591	48
77	0	0	1904	10	2593	47
78	0	0	1965	11	2599	45
79	0	0	2002	11	2605	50
80	0	0	2035	10	2613	48
81	0	0	2079	12	2616	49
82	0	0	2123	9	2617	48
83	0	0	2160	12	2614	47
84	0	0	2179	11	2605	48
85	0	0	2192	11	2595	47
86	0	0	2192	7	2591	48
87	0	0	2200	7	2594	47
88	0	0	2219	11	2600	48
89	0	0	2225	11	2605	48
90	0	0	2228	11	2612	47
91	0	0	2191	4	2615	48
92	0	0	2143	3	2616	48
93	0	0	2064	7	2613	49
94	0	0	1965	7	2605	48
95	0	0	1868	7	2594	47
96	0	0	1823	8	2592	45
97	0	0	1839	10	2595	47
98	0	0	1891	11	2599	47
99	0	0	1950	11	2605	48
100	0	0	2000	10	2612	48
101	0	0	2069	10	2616	49
102	0	0	2120	7	2617	48
103	0	0	2143	11	2614	48
104	0	0	2153	11	2605	52
105	0	0	2157	12	2594	47
106	0	0	2161	11	2592	45
107	0	0	2131	7	2593	45
108	0	0	2081	8	2599	47
109	0	0	2038	6	2605	48
110	0	0	1986	7	2611	47
111	0	0	1938	7	2615	49
112	0	0	1901	7	2616	47
113	0	0	1899	10	2614	50
114	0	0	1940	10	2605	48
115	0	0	1988	11	2595	47
116	0	0	2032	7	2592	47
117	0	0	2064	11	2594	47
118	0	0	2078	11	2600	48
119	0	0	2086	11	2606	52
120	0	0	2081	10	2612	48
121	0	0	2064	10	2616	47
122	0	0	2061	10	2616	47
123	0	0	2082	11	2614	48
124	0	0	2142	11	2605	49
125	0	0	2251	11	2594	48
126	0	0	2332	11	2591	47
127	0	0	2352	11	2593	48
0	0	0	2294	10	2599	48
1	0	0	2229	7	2605	48
2	0	0	2151	7	2611	47
3	0	0	2073	7	2616	48
4	0	0	2015	6	2617	47
5	0	0	2002	11	2614	49
6	0	0	2024	10	2606	48
7	0	0	1989	7	2595	47
8	0	0	1974	11	2592	47
9	0	0	1996	9	2593	47
10	0	0	2035	11	2599	48
11	0	0	2087	11	2605	48
12	0	0	2139	10	2611	48
13	0	0	2159	11	2616	48
14	0	0	2162	11	2616	48
15	0	0	2160	10	2613	51
16	0	0	2177	10	2605	50
17	0	0	2225	11	2594	47
18	0	0	2259	11	2592	45
19	0	0	2255	10	2594	47
20	0	0	2212	7	2599	47
21	0	0	2151	7	2605	48
22	0	0	2114	7	2611	48
23	0	0	2088	7	2615	47
24	0	0	2073	9	2616	48
25	0	0	2067	9	2614	47
26	0	0	2035	7	2605	50
27	0	0	1969	8	2595	48
28	0	0	1957	11	2592	45
29	0	0	1987	10	2594	46
30	0	0	2023	11	2599	47
31	0	0	2086	10	2605	47
32	0	0	2132	13	2611	48
33	0	0	2190	11	2615	48
34	0	0	2232	9	2616	50
35	0	0	2234	9	2614	52
36	0	0	2198	8	2605	50
37	0	0	2193	10	2595	47
38	0	0	2203	11	2591	47
39	0	0	2173	4	2594	49
40	0	0	2129	5	2599	47
41	0	0	2088	8	2605	50
42	0	0	2090	11	2611	48
43	0	0	2099	9	2615	46
44	0	0	2067	5	2616	49
45	0	0	2041	8	2614	47
46	0	0	1995	7	2605	51
47	0	0	1933	8	2594	48
48	0	0	1917	10	2592	48
49	0	0	1926	10	2594	47
50	0	0	1946	10	2599	47
51	0	0	1998	9	2605	50
52	0	0	2079	10	2611	48
53	0	0	2177	10	2615	46
54	0	0	2257	8	2616	49
55	0	0	2290	10	2614	52
56	0	0	2278	11	2605	49
57	0	0	2268	11	2594	47
58	0	0	2257	9	2590	46
59	0	0	2232	9	2594	47
60	0	0	2217	10	2599	47
61	0	0	2215	11	2605	51
62	0	0	2191	7	2612	47
63	0	0	2148	3	2615	49
64	0	0	2086	4	2616	49
65	0	0	2032	7	2614	47
66	0	0	1988	7	2605	49
67	0	0	1939	6	2594	48
68	0	0	1944	10	2592	48
69	0	0	1990	10	2594	46
70	0	0	2044	11	2599	47
71	0	0	2154	11	2605	49
72	0	0	2269	10	2611	48
73	0	0	2339	10	2615	48
74	0	0	2347	12	2616	48
75	0	0	2299	7	2614	48
76	0	0	2253	8	2605	51
77	0	0	2244	10	2595	48
78	0	0	2240	9	2591	46
79	0	0	2227	10	2593	47
80	0	0	2197	7	2599	47
81	0	0	2156	7	2606	48
82	0	0	2133	8	2612	47
83	0	0	2107	8	2615	49
84	0	0	2069	8	2616	48
85	0	0	2035	9	2614	47
86	0	0	2010	7	2605	50
87	0	0	1971	7	2595	47
88	0	0	1954	9	2592	47
89	0	0	1961	9	2594	47
90	0	0	1994	10	2599	46
91	0	0	2048	10	2605	47
92	0	0	2098	11	2612	48
93	0	0	2148	11	2616	50
94	0	0	2192	10	2616	47
95	0	0	2213	11	2613	48
96	0	0	2224	10	2605	47
97	0	0	2262	12	2594	48
98	0	0	2293	11	2591	49
99	0	0	2280	8	2593	47
100	0	0	2256	9	2599	51
101	0	0	2241	10	2605	48
102	0	0	2211	8	2611	48
103	0	0	2157	6	2615	48
104	0	0	2105	10	2617	48
105	0	0	2058	7	2614	49
106	0	0	2018	7	2605	47
107	0	0	1975	7	2595	47
108	0	0	1969	11	2592	47
109	0	0	1997	12	2594	47
110	0	0	2025	11	2599	48
111	0	0	2087	10	2605	48
112	0	0	2171	11	2612	47
113	0	0	2229	11	2616	49
114	0	0	2251	15	2616	48
115	0	0	2249	11	2614	31
116	0	0	2259	11	2605	46
117	0	0	2276	11	2594	47
118	0	0	2262	9	2591	47
119	0	0	2229	6	2593	47
120	0	0	2192	7	2599	48
121	0	0	2164	8	2605	47
122	0	0	2135	7	2611	49
123	0	0	2095	7	2615	44
124	0	0	2072	8	2617	47
125	0	0	2056	8	2614	48
126	0	0	2044	9	2606	47
127	0	0	2026	8	2594	47
0	0	0	2055	10	2591	49
1	0	0	2121	15	2594	46
2	0	0	2174	11	2599	48
3	0	0	2211	11	2605	48
4	0	0	2243	11	2611	48
5	0	0	2259	12	2615	48
6	0	0	2265	8	2616	51
7	0	0	2270	10	2613	48
8	0	0	2280	9	2605	48
9	0	0	2295	11	2594	47
10	0	0	2311	12	2591	49
11	0	0	2288	8	2594	47
12	0	0	2255	7	2599	50
13	0	0	2223	8	2605	48
14	0	0	2180	7	2611	48
15	0	0	2148	8	2615	49
16	0	0	2139	7	2616	49
17	0	0	2105	6	2614	48
18	0	0	2066	7	2605	48
19	0	0	2014	7	2594	47
20	0	0	2008	12	2591	48
21	0	0	2037	10	2594	47
22	0	0	2074	8	2599	47
23	0	0	2125	14	2605	48
24	0	0	2194	10	2611	48
25	0	0	2227	10	2615	49
26	0	0	2252	15	2616	48
27	0	0	2267	9	2614	49
28	0	0	2266	11	2605	48
29	0	0	2257	9	2595	47
30	0	0	2242	14	2591	48
31	0	0	2213	12	2594	47
32	0	0	2175	6	2599	47
33	0	0	2148	8	2605	50
34	0	0	2126	7	2611	47
35	0	0	2110	9	2616	49
36	0	0	2092	11	2616	48
37	0	0	2080	9	2613	47
38	0	0	2059	7	2605	48
39	0	0	2007	6	2595	47
40	0	0	1972	8	2591	48
41	0	0	1972	15	2594	46
42	0	0	1973	10	2599	47
43	0	0	2005	11	2605	48
44	0	0	2089	11	2611	48
45	0	0	2179	11	2615	48
46	0	0	2198	11	2616	48
47	0	0	2192	8	2614	48
48	0	0	2205	10	2605	49
49	0	0	2204	10	2595	47
50	0	0	2183	8	2592	46
51	0	0	2153	7	2593	47
52	0	0	2119	6	2599	48
53	0	0	2095	8	2605	50
54	0	0	2084	10	2611	48
55	0	0	2086	11	2615	48
56	0	0	2100	11	2616	50
57	0	0	2078	7	2614	49
58	0	0	2042	8	2605	48
59	0	0	1990	8	2594	47
60	0	0	1974	10	2591	48
61	0	0	1987	11	2594	47
62	0	0	2018	10	2599	47
63	0	0	2082	10	2605	50
64	0	0	2163	10	2612	47
65	0	0	2190	11	2615	47
66	0	0	2214	10	2616	50
67	0	0	2225	11	2614	48
68	0	0	2202	8	2605	48
69	0	0	2197	11	2594	47
70	0	0	2190	10	2591	48
71	0	0	2171	9	2593	48
72	0	0	2151	6	2599	47
73	0	0	2109	7	2605	47
74	0	0	2035	8	2611	48
75	0	0	1965	7	2615	48
76	0	0	1929	11	2617	48
77	0	0	1930	11	2614	49
78	0	0	1944	12	2605	48
79	0	0	1944	8	2595	48
80	0	0	1961	10	2591	48
81	0	0	1984	11	2594	47
82	0	0	2008	9	2599	48
83	0	0	2056	11	2605	47
84	0	0	2113	13	2611	45
85	0	0	2165	11	2615	48
86	0	0	2207	11	2616	48
87	0	0	2244	11	2613	47
88	0	0	2253	11	2605	47
89	0	0	2234	10	2594	47
90	0	0	2251	11	2591	48
91	0	0	2274	11	2594	47
92	0	0	2228	8	2599	47
93	0	0	2110	6	2605	50
94	0	0	1972	10	2612	47
95	0	0	1885	7	2616	50
96	0	0	1855	8	2616	50
97	0	0	1866	11	2614	48
98	0	0	1893	10	2605	47
99	0	0	1887	9	2594	47
100	0	0	1900	11	2592	48
101	0	0	1983	9	2593	49
102	0	0	2108	10	2599	47
103	0	0	2254	11	2605	47
104	0	0	2375	11	2611	47
105	0	0	2476	10	2615	48
106	0	0	2532	11	2616	49
107	0	0	2521	8	2614	47
108	0	0	2472	8	2606	48
109	0	0	2432	7	2594	47
110	0	0	2397	8	2592	48
111	0	0	2370	8	2594	47
112	0	0	2369	8	2599	48
113	0	0	2385	11	2605	50
114	0	0	2394	11	2611	48
115	0	0	2400	11	2616	48
116	0	0	2431	12	2616	50
117	0	0	2467	11	2614	47
118	0	0	2485	10	2606	47
119	0	0	2478	11	2594	48
120	0	0	2467	9	2591	48
121	0	0	2458	14	2593	47
122	0	0	2457	10	2599	47
123	0	0	2453	11	2605	47
124	0	0	2492	15	2611	48
125	0	0	2525	11	2616	48
126	0	0	2514	8	2616	48
127	0	0	2490	12	2614	48
0	0	0	2436	8	2605	47
1	0	0	2380	7	2594	48
2	0	0	2321	7	2591	48
3	0	0	2248	10	2593	47
4	0	0	2168	7	2599	48
5	0	0	2089	7	2605	45
6	0	0	2035	9	2611	48
7	0	0	1975	7	2615	48
8	0	0	1940	6	2616	50
9	0	0	1933	10	2614	48
10	0	0	1912	7	2605	47
11	0	0	1867	9	2595	47
12	0	0	1860	9	2591	48
13	0	0	1883	11	2594	47
14	0	0	1905	10	2599	47
15	0	0	1957	10	2605	47
16	0	0	2054	15	2611	48
17	0	0	2140	11	2616	52
18	0	0	2201	8	2616	50
19	0	0	2256	11	2614	47
20	0	0	2279	9	2606	45
21	0	0	2206	7	2594	48
22	0	0	2119	7	2591	48
23	0	0	2067	8	2593	47
24	0	0	2068	10	2599	47
25	0	0	2080	11	2605	47
26	0	0	2053	10	2612	47
27	0	0	2012	6	2616	51
28	0	0	1968	7	2616	47
29	0	0	1951	9	2614	48
30	0	0	1937	7	2606	47
31	0	0	1908	10	2595	47
32	0	0	1892	8	2592	47
33	0	0	1880	9	2594	46
34	0	0	1878	10	2599	47
35	0	0	1928	11	2605	45
36	0	0	2015	11	2611	48
37	0	0	2074	8	2616	49
38	0	0	2124	11	2616	47
39	0	0	2167	13	2614	48
40	0	0	2182	14	2605	43
41	0	0	2186	10	2594	47
42	0	0	2151	7	2591	48
43	0	0	2102	7	2593	47
44	0	0	2055	6	2599	47
45	0	0	2022	8	2605	48
46	0	0	2034	10	2612	47
47	0	0	2055	10	2615	48
48	0	0	2036	7	2616	48
49	0	0	1991	6	2614	48
50	0	0	1956	7	2605	47
51	0	0	1906	8	2595	46
52	0	0	1890	10	2592	50
53	0	0	1914	8	2594	47
54	0	0	1953	9	2599	47
55	0	0	1993	11	2605	48
56	0	0	2033	10	2611	48
57	0	0	2082	10	2615	47
58	0	0	2116	10	2616	47
59	0	0	2126	9	2614	48
60	0	0	2119	10	2605	45
61	0	0	2107	8	2595	47
62	0	0	2092	9	2591	48
63	0	0	2083	11	2593	46
64	0	0	2075	8	2599	47
65	0	0	2032	7	2605	48
66	0	0	1990	8	2611	51
67	0	0	1956	8	2616	53
68	0	0	1936	12	2616	48
69	0	0	1957	9	2614	47
70	0	0	2010	10	2605	48
71	0	0	2046	11	2595	43
72	0	0	2104	8	2592	47
73	0	0	2137	12	2593	47
74	0	0	2113	7	2599	47
75	0	0	2068	7	2605	48
76	0	0	2010	7	2611	48
77	0	0	2009	9	2615	48
78	0	0	2032	14	2616	48
79	0	0	2070	7	2613	48
80	0	0	2103	10	2605	43
81	0	0	2136	11	2594	47
82	0	0	2148	8	2592	47
83	0	0	2114	10	2593	46
84	0	0	2079	6	2599	47
85	0	0	2057	7	2605	48
86	0	0	2012	7	2611	43
87	0	0	1956	4	2616	49
88	0	0	1920	11	2616	48
89	0	0	1916	9	2614	48
90	0	0	1926	10	2605	48
91	0	0	1913	8	2594	47
92	0	0	1917	12	2591	49
93	0	0	1947	14	2593	46
94	0	0	1990	8	2599	47
95	0	0	2041	12	2604	48
96	0	0	2112	10	2611	47
97	0	0	2157	8	2616	49
98	0	0	2189	12	2616	48
99	0	0	2230	9	2614	47
100	0	0	2252	11	2606	48
101	0	0	2262	12	2594	48
102	0	0	2246	9	2591	48
103	0	0	2224	11	2594	47
104	0	0	2179	3	2598	48
105	0	0	2126	7	2606	48
106	0	0	2092	11	2611	48
107	0	0	2075	7	2615	48
108	0	0	2045	8	2617	48
109	0	0	1984	7	2614	48
110	0	0	1902	7	2606	47
111	0	0	1823	7	2594	47
112	0	0	1819	11	2591	48
113	0	0	1851	10	2593	48
114	0	0	1907	12	2599	47
115	0	0	1990	11	2605	48
116	0	0	2089	11	2612	48
117	0	0	2141	10	2615	48
118	0	0	2165	14	2616	48
119	0	0	2196	13	2614	48
120	0	0	2214	10	2605	48
121	0	0	2210	10	2594	47
122	0	0	2172	7	2591	49
123	0	0	2136	8	2594	46
124	0	0	2102	8	2599	48
125	0	0	2065	8	2605	48
126	0	0	2051	7	2611	47
127	0	0	2048	10	2615	52
0	0	0	2018	7	2616	48
1	0	0	1990	11	2614	47
2	0	0	1961	7	2605	47
3	0	0	1911	7	2595	48
4	0	0	1894	10	2591	49
5	0	0	1917	11	2594	47
6	0	0	1958	13	2599	47
7	0	0	2019	10	2605	48
8	0	0	2068	10	2611	45
9	0	0	2110	14	2615	48
10	0	0	2135	11	2616	48
11	0	0	2149	12	2614	48
12	0	0	2166	10	2606	48
13	0	0	2200	13	2594	47
14	0	0	2223	11	2591	48
15	0	0	2200	12	2594	47
16	0	0	2157	8	2599	47
17	0	0	2108	7	2605	49
18	0	0	2069	5	2612	47
19	0	0	2053	9	2616	52
20	0	0	2056	9	2616	48
21	0	0	2061	10	2614	48
22	0	0	2031	7	2606	49
23	0	0	1976	6	2595	48
24	0	0	1949	9	2591	48
25	0	0	1959	10	2593	47
26	0	0	1980	14	2599	47
27	0	0	2027	10	2605	48
28	0	0	2095	11	2611	49
29	0	0	2167	12	2615	49
30	0	0	2219	11	2616	47
31	0	0	2229	11	2614	48
32	0	0	2244	10	2605	49
33	0	0	2260	11	2594	47
34	0	0	2228	7	2591	49
35	0	0	2183	6	2594	47
36	0	0	2160	11	2599	48
37	0	0	2141	8	2605	48
38	0	0	2109	8	2611	49
39	0	0	2080	10	2616	48
40	0	0	2061	8	2617	52
41	0	0	2036	10	2614	48
42	0	0	2000	8	2605	49
43	0	0	1951	7	2594	48
44	0	0	1944	14	2591	48
45	0	0	1985	10	2593	48
46	0	0	2030	11	2599	47
47	0	0	2071	11	2605	49
48	0	0	2114	10	2611	48
49	0	0	2141	11	2615	48
50	0	0	2172	11	2617	48
51	0	0	2218	11	2614	48
52	0	0	2247	11	2605	48
53	0	0	2245	8	2595	47
54	0	0	2217	7	2592	47
55	0	0	2186	8	2594	50
56	0	0	2173	8	2599	47
57	0	0	2162	11	2605	48
58	0	0	2160	9	2612	48
59	0	0	2138	9	2615	49
60	0	0	2095	9	2616	47
61	0	0	2086	13	2614	48
62	0	0	2083	9	2605	48
63	0	0	2042	8	2594	47
64	0	0	2030	10	2591	49
65	0	0	2042	10	2594	48
66	0	0	2065	10	2599	47
67	0	0	2116	11	2605	48
68	0	0	2194	7	2611	48
69	0	0	2257	15	2615	48
70	0	0	2307	11	2617	48
71	0	0	2322	11	2614	48
72	0	0	2305	11	2605	48
73	0	0	2304	12	2594	48
74	0	0	2271	9	2591	49
75	0	0	2240	8	2594	47
76	0	0	2221	8	2598	47
77	0	0	2178	7	2605	49
78	0	0	2125	7	2611	48
79	0	0	2077	7	2615	49
80	0	0	2055	9	2616	47
81	0	0	2046	9	2613	48
82	0	0	2045	10	2605	49
83	0	0	2024	7	2594	47
84	0	0	2019	10	2591	47
85	0	0	2019	10	2594	47
86	0	0	2051	10	2599	48
87	0	0	2134	10	2605	50
88	0	0	2277	11	2611	49
89	0	0	2416	11	2615	48
90	0	0	2460	10	2616	48
91	0	0	2440	7	2614	47
92	0	0	2349	7	2605	47
93	0	0	2276	8	2594	48
94	0	0	2243	8	2591	47
95	0	0	2199	7	2594	45
96	0	0	2128	11	2599	48
97	0	0	2076	7	2605	48
98	0	0	2042	8	2611	47
99	0	0	2006	7	2615	48
100	0	0	1993	10	2616	48
101	0	0	1996	10	2614	47
102	0	0	2001	10	2605	48
103	0	0	2010	11	2595	47
104	0	0	2038	10	2591	49
105	0	0	2091	13	2594	46
106	0	0	2140	9	2599	47
107	0	0	2206	11	2605	48
108	0	0	2247	11	2611	48
109	0	0	2228	8	2615	49
110	0	0	2208	12	2616	47
111	0	0	2201	10	2612	48
112	0	0	2183	12	2605	49
113	0	0	2181	11	2594	47
114	0	0	2181	11	2591	48
115	0	0	2181	10	2594	47
116	0	0	2163	8	2598	48
117	0	0	2139	8	2605	48
118	0	0	2099	6	2611	48
119	0	0	2050	5	2615	47
120	0	0	2012	7	2617	49
121	0	0	1976	8	2614	48
122	0	0	1947	8	2605	48
123	0	0	1919	7	2595	48
124	0	0	1935	10	2592	47
125	0	0	1985	10	2593	47
126	0	0	2018	10	2599	48
127	0	0	2059	11	2605	49
0	0	0	2100	11	2611	49
1	0	0	2129	10	2615	49
2	0	0	2127	11	2616	48
3	0	0	2106	9	2614	48
4	0	0	2115	11	2605	48
5	0	0	2142	10	2595	47
6	0	0	2151	11	2591	49
7	0	0	2131	8	2593	47
8	0	0	2102	8	2599	47
9	0	0	2068	7	2605	45
10	0	0	2018	8	2611	49
11	0	0	1980	6	2615	48
12	0	0	1960	11	2616	46
13	0	0	1945	7	2614	47
14	0	0	1905	6	2605	48
15	0	0	1838	7	2594	50
16	0	0	1806	8	2591	48
17	0	0	1825	10	2594	47
18	0	0	1880	11	2598	47
19	0	0	1963	10	2604	49
20	0	0	2031	12	2610	48
21	0	0	2083	10	2615	49
22	0	0	2130	11	2616	48
23	0	0	2184	10	2612	48
24	0	0	2194	13	2605	49
25	0	0	2170	8	2594	48
26	0	0	2132	6	2592	48
27	0	0	2106	7	2593	46
28	0	0	2090	11	2599	47
29	0	0	2082	10	2605	49
30	0	0	2072	9	2611	47
31	0	0	2034	7	2616	49
32	0	0	1979	7	2616	48
33	0	0	1917	8	2613	48
34	0	0	1887	8	2605	49
35	0	0	1885	11	2594	47
36	0	0	1904	10	2592	48
37	0	0	1928	12	2592	48
38	0	0	1946	12	2598	47
39	0	0	1993	16	2604	49
40	0	0	2052	10	2611	50
41	0	0	2058	7	2615	49
42	0	0	2012	7	2615	48
43	0	0	1985	11	2613	49
44	0	0	2013	10	2605	48
45	0	0	2082	10	2595	47
46	0	0	2139	10	2592	46
47	0	0	2172	10	2594	48
48	0	0	2156	7	2599	46
49	0	0	2093	7	2605	50
50	0	0	2031	6	2612	47
51	0	0	1976	7	2616	48
52	0	0	1915	7	2617	49
53	0	0	1899	11	2614	47
54	0	0	1915	10	2605	48
55	0	0	1923	10	2595	47
56	0	0	1947	10	2592	47
57	0	0	1988	11	2593	47
58	0	0	2051	10	2599	47
59	0	0	2091	11	2605	48
60	0	0	2088	9	2611	48
61	0	0	2049	7	2615	48
62	0	0	2015	9	2616	48
63	0	0	2029	11	2614	47
64	0	0	2075	10	2606	47
65	0	0	2141	11	2594	47
66	0	0	2173	11	2591	48
67	0	0	2167	11	2593	47
68	0	0	2165	7	2598	48
69	0	0	2132	7	2605	49
70	0	0	2090	8	2611	49
71	0	0	2052	9	2615	48
72	0	0	2020	7	2617	49
73	0	0	2004	7	2614	48
74	0	0	1998	11	2605	48
75	0	0	1989	11	2595	47
76	0	0	2005	11	2592	47
77	0	0	2026	10	2594	48
78	0	0	2007	7	2599	47
79	0	0	1998	11	2605	49
80	0	0	2026	11	2612	49
81	0	0	2067	11	2615	48
82	0	0	2088	10	2615	48
83	0	0	2105	7	2614	48
84	0	0	2147	11	2605	48
85	0	0	2206	11	2594	47
86	0	0	2214	11	2591	48
87	0	0	2190	9	2592	47
88	0	0	2187	8	2598	47
89	0	0	2211	11	2605	48
90	0	0	2191	8	2611	48
91	0	0	2101	5	2615	47
92	0	0	1953	6	2616	48
93	0	0	1859	3	2614	47
94	0	0	1835	8	2606	48
95	0	0	1841	11	2595	48
96	0	0	1880	11	2591	47
97	0	0	1920	11	2593	48
98	0	0	1946	8	2598	47
99	0	0	1981	10	2605	49
100	0	0	2024	11	2611	48
101	0	0	2062	11	2615	49
102	0	0	2095	11	2616	49
103	0	0	2109	7	2614	48
104	0	0	2143	10	2605	49
105	0	0	2200	10	2594	47
106	0	0	2237	11	2591	47
107	0	0	2225	11	2594	46
108	0	0	2205	8	2600	47
109	0	0	2157	8	2605	48
110	0	0	2090	7	2611	47
111	0	0	2016	7	2616	48
112	0	0	1971	7	2616	49
113	0	0	1959	9	2614	47
114	0	0	1959	10	2606	49
115	0	0	1926	8	2595	47
116	0	0	1922	9	2591	47
117	0	0	1935	11	2593	48
118	0	0	1953	9	2599	48
119	0	0	2009	11	2605	48
120	0	0	2077	10	2611	48
121	0	0	2130	11	2615	47
122	0	0	2174	11	2617	47
123	0	0	2179	8	2613	48
124	0	0	2144	8	2605	49
125	0	0	2117	11	2594	47
126	0	0	2098	10	2591	48
127	0	0	2086	8	2593	48
0	0	0	2054	8	2599	48
1	0	0	2038	10	2605	48
2	0	0	2043	11	2611	49
3	0	0	2057	9	2615	47
4	0	0	2054	11	2616	49
5	0	0	2018	6	2614	48
6	0	0	1973	7	2606	49
7	0	0	1938	8	2595	47
8	0	0	1933	11	2591	50
9	0	0	1957	11	2594	48
10	0	0	2002	8	2598	47
11	0	0	2065	10	2605	48
12	0	0	2133	10	2611	48
13	0	0	2184	10	2615	47
14	0	0	2215	10	2617	48
15	0	0	2216	8	2614	48
16	0	0	2196	10	2606	49
17	0	0	2214	15	2595	47
18	0	0	2245	12	2591	48
19	0	0	2226	9	2593	48
20	0	0	2188	6	2599	48
21	0	0	2152	9	2605	48
22	0	0	2152	11	2611	48
23	0	0	2130	8	2615	48
24	0	0	2070	7	2616	49
25	0	0	1999	7	2614	48
26	0	0	1938	7	2605	49
27	0	0	1855	7	2595	46
28	0	0	1825	9	2592	47
29	0	0	1858	10	2593	48
30	0	0	1904	10	2599	47
31	0	0	1957	10	2605	49
32	0	0	2026	9	2612	48
33	0	0	2109	9	2616	47
34	0	0	2148	11	2617	49
35	0	0	2164	11	2614	48
36	0	0	2167	7	2605	49
37	0	0	2184	10	2595	48
38	0	0	2196	11	2592	48
39	0	0	2203	11	2594	48
40	0	0	2201	11	2599	47
41	0	0	2190	10	2605	49
42	0	0	2151	6	2612	47
43	0	0	2080	6	2616	47
44	0	0	2009	6	2617	49
45	0	0	1966	7	2614	48
46	0	0	1940	7	2606	48
47	0	0	1905	7	2595	47
48	0	0	1892	10	2591	48
49	0	0	1900	10	2594	47
50	0	0	1926	11	2599	48
51	0	0	1977	10	2605	49
52	0	0	2025	10	2611	48
53	0	0	2061	10	2615	49
54	0	0	2096	7	2616	49
55	0	0	2138	11	2614	48
56	0	0	2178	12	2606	48
57	0	0	2196	9	2595	48
58	0	0	2153	10	2591	48
59	0	0	2102	8	2593	47
60	0	0	2082	10	2598	48
61	0	0	2078	11	2605	49
62	0	0	2053	8	2611	48
63	0	0	2013	8	2615	48
64	0	0	2015	10	2617	48
65	0	0	2004	7	2614	48
66	0	0	1971	8	2606	48
67	0	0	1928	7	2595	48
68	0	0	1908	9	2592	45
69	0	0	1929	11	2594	47
70	0	0	1966	11	2599	48
71	0	0	1991	11	2605	47
72	0	0	2017	11	2611	48
73	0	0	2062	11	2616	50
74	0	0	2124	11	2616	49
75	0	0	2172	11	2614	47
76	0	0	2195	11	2605	48
77	0	0	2211	9	2595	47
78	0	0	2182	7	2592	45
79	0	0	2110	7	2594	47
80	0	0	2052	8	2599	47
81	0	0	2020	8	2605	48
82	0	0	1990	8	2611	48
83	0	0	1963	12	2615	48
84	0	0	1972	11	2616	48
85	0	0	1984	11	2614	48
86	0	0	1981	10	2606	49
87	0	0	1964	8	2595	48
88	0	0	1937	8	2592	47
89	0	0	1910	7	2594	47
90	0	0	1901	11	2598	47
91	0	0	1934	10	2605	48
92	0	0	2016	11	2611	47
93	0	0	2098	11	2616	49
94	0	0	2135	10	2616	49
95	0	0	2169	10	2614	49
96	0	0	2183	16	2605	49
97	0	0	2168	10	2595	48
98	0	0	2160	11	2592	47
99	0	0	2151	9	2594	47
100	0	0	2156	10	2598	47
101	0	0	2126	7	2605	48
102	0	0	2067	8	2611	48
103	0	0	2035	7	2616	49
104	0	0	2032	10	2617	48
105	0	0	2019	9	2614	48
106	0	0	1999	8	2606	49
107	0	0	1912	7	2595	47
108	0	0	1838	7	2592	47
109	0	0	1846	11	2593	47
110	0	0	1873	11	2598	47
111	0	0	1945	10	2605	48
112	0	0	2045	11	2611	51
113	0	0	2144	11	2616	49
114	0	0	2217	11	2617	48
115	0	0	2237	11	2614	48
116	0	0	2216	8	2606	48
117	0	0	2192	6	2595	48
118	0	0	2170	9	2591	48
119	0	0	2142	8	2594	47
120	0	0	2120	11	2598	48
121	0	0	2097	7	2605	48
122	0	0	2043	5	2611	48
123	0	0	1995	8	2615	48
124	0	0	1972	9	2617	47
125	0	0	1956	8	2613	48
126	0	0	1939	8	2606	48
127	0	0	1903	7	2594	47
0	0	0	1884	9	2591	48
1	0	0	1889	10	2594	47
2	0	0	1913	10	2598	47
3	0	0	1968	11	2605	48
4	0	0	2022	11	2611	47
5	0	0	2082	13	2615	48
6	0	0	2118	11	2616	46
7	0	0	2133	11	2614	47
8	0	0	2132	11	2606	48
9	0	0	2137	10	2595	47
10	0	0	2156	9	2592	47
11	0	0	2151	9	2593	46
12	0	0	2112	7	2598	48
13	0	0	2060	7	2604	130
14	0	0	2022	10	2611	491
15	0	0	2000	8	2616	1066
16	0	0	1973	7	2616	1672
17	0	0	1922	7	2613	2206
18	0	0	1859	7	2606	2619
19	0	0	1783	6	2595	2922
20	0	0	1736	7	2591	3146
21	0	0	1742	11	2594	3310
22	0	0	1782	9	2598	3432
23	0	0	1844	10	2605	3521
24	0	0	1912	10	2611	3593
25	0	0	1964	9	2616	3648
26	0	0	2007	11	2616	3692
27	0	0	2051	10	2614	3728
28	0	0	2100	10	2606	3758
29	0	0	2127	7	2595	3781
30	0	0	2083	6	2591	3801
31	0	0	2001	6	2593	3820
32	0	0	1932	9	2598	3834
33	0	0	1899	8	2605	3846
34	0	0	1879	8	2611	3857
35	0	0	1891	11	2615	3867
36	0	0	1917	10	2616	3878
37	0	0	1955	10	2614	3885
38	0	0	1995	10	2606	3892
39	0	0	1975	7	2595	3896
40	0	0	1933	5	2591	3901
41	0	0	1901	7	2593	3908
42	0	0	1903	10	2599	3912
43	0	0	1948	10	2605	3916
44	0	0	2026	11	2610	3920
45	0	0	2077	11	2615	3923
46	0	0	2103	9	2616	3929
47	0	0	2129	10	2614	3930
48	0	0	2155	10	2606	3934
49	0	0	2195	9	2594	3936
50	0	0	2213	10	2591	3937
51	0	0	2194	9	2593	3940
52	0	0	2182	10	2598	3943
53	0	0	2154	8	2605	3945
54	0	0	2130	9	2611	3945
55	0	0	2110	8	2615	3947
56	0	0	2070	7	2616	3951
57	0	0	2061	10	2615	3951
58	0	0	2070	10	2606	3951
59	0	0	2025	7	2595	3952
60	0	0	1966	6	2592	3955
61	0	0	1967	10	2594	3957
62	0	0	2010	9	2598	3958
63	0	0	2073	11	2604	3957
64	0	0	2147	7	2611	3959
65	0	0	2217	10	2615	3960
66	0	0	2255	11	2616	3962
67	0	0	2243	9	2614	3963
68	0	0	2228	11	2606	3962
69	0	0	2234	11	2594	3963
70	0	0	2227	9	2592	3964
71	0	0	2209	9	2594	3966
72	0	0	2186	12	2598	3968
73	0	0	2141	10	2605	3968
74	0	0	2097	8	2611	3968
75	0	0	2067	8	2616	3969
76	0	0	2036	6	2616	3971
77	0	0	2008	7	2615	3969
78	0	0	1999	7	2606	3970
79	0	0	1955	8	2594	3970
80	0	0	1940	11	2592	3972
81	0	0	1973	10	2593	3972
82	0	0	2027	11	2599	3973
83	0	0	2083	10	2604	3972
84	0	0	2127	10	2611	3974
85	0	0	2138	10	2616	3976
86	0	0	2154	11	2616	3977
87	0	0	2163	10	2614	3974
88	0	0	2118	7	2606	3975
89	0	0	2093	7	2595	3975
90	0	0	2091	10	2592	3976
91	0	0	2085	10	2594	3977
92	0	0	2053	8	2599	3977
93	0	0	2017	8	2605	3976
94	0	0	1987	8	2611	3978
95	0	0	1963	8	2616	3979
96	0	0	1947	9	2616	3980
97	0	0	1943	10	2614	3980
98	0	0	1943	10	2606	3978
99	0	0	1939	11	2595	3978
100	0	0	1960	10	2592	3979
101	0	0	2053	10	2593	3981
102	0	0	2147	12	2599	3980
103	0	0	2178	10	2606	3981
104	0	0	2123	4	2610	3981
105	0	0	2061	7	2616	3980
106	0	0	2064	11	2617	3984
107	0	0	2108	10	2615	3982
108	0	0	2144	11	2606	3982
109	0	0	2144	10	2594	3982
110	0	0	2111	6	2592	3983
111	0	0	2048	7	2593	3983
112	0	0	2003	8	2599	3983
113	0	0	1979	9	2605	3983
114	0	0	1930	3	2611	3980
115	0	0	1894	9	2616	3984
116	0	0	1899	11	2616	3985
117	0	0	1923	10	2614	3984
118	0	0	1972	12	2606	3984
119	0	0	1987	7	2595	3981
120	0	0	1955	7	2592	3985
121	0	0	1918	8	2594	3984
122	0	0	1903	10	2599	3986
123	0	0	1920	10	2605	3984
124	0	0	1979	11	2611	3984
125	0	0	2040	11	2615	3985
126	0	0	2093	9	2616	3984
127	0	0	2148	11	2615	3985
0	0	0	2183	11	2606	3987
1	0	0	2187	9	2595	3987
2	0	0	2184	9	2591	3986
3	0	0	2139	9	2593	3988
4	0	0	2070	7	2599	3988
5	0	0	2041	10	2604	3985
6	0	0	2057	11	2611	3986
7	0	0	2059	11	2615	3986
8	0	0	2042	8	2617	3990
9	0	0	2015	8	2614	3987
10	0	0	1966	7	2606	3987
11	0	0	1900	3	2595	3984
12	0	0	1870	9	2592	3988
13	0	0	1878	11	2593	3986
14	0	0	1893	10	2598	3988
15	0	0	1940	11	2605	3988
16	0	0	2015	7	2611	3985
17	0	0	2097	11	2615	3989
18	0	0	2153	11	2616	3988
19	0	0	2173	9	2614	3989
20	0	0	2202	11	2606	3988
21	0	0	2235	11	2595	3989
22	0	0	2224	8	2591	3989
23	0	0	2197	8	2593	3987
24	0	0	2195	11	2598	3990
25	0	0	2213	11	2605	3989
26	0	0	2231	11	2611	3989
27	0	0	2246	11	2615	3990
28	0	0	2236	8	2617	3989
29	0	0	2208	9	2614	3990
30	0	0	2218	11	2607	3992
31	0	0	2228	11	2596	3989
32	0	0	2266	11	2592	3991
33	0	0	2326	12	2594	3992
34	0	0	2374	10	2598	3990
35	0	0	2456	10	2605	3992
36	0	0	2528	11	2611	3990
37	0	0	2570	11	2614	3990
38	0	0	2609	10	2616	3990
39	0	0	2642	11	2614	3990
40	0	0	2665	8	2606	3990
41	0	0	2685	11	2595	3991
42	0	0	2666	9	2591	3992
43	0	0	2613	7	2594	3990
44	0	0	2551	8	2598	3992
45	0	0	2469	7	2605	3991
46	0	0	2375	7	2611	3991
47	0	0	2280	7	2615	3992
48	0	0	2201	6	2617	3990
49	0	0	2146	8	2613	3993
50	0	0	2105	7	2606	3991
51	0	0	2042	6	2595	3992
52	0	0	1982	7	2591	3992
53	0	0	1969	9	2594	3991
54	0	0	1978	11	2597	3994
55	0	0	2020	8	2605	3992
56	0	0	2060	11	2611	3992
57	0	0	2064	10	2615	3992
58	0	0	2056	9	2616	3991
59	0	0	2032	7	2614	3993
60	0	0	2019	10	2607	3994
61	0	0	2023	12	2595	3991
62	0	0	2035	10	2592	3993
63	0	0	2038	10	2594	3993
64	0	0	2039	16	2598	3995
65	0	0	2031	8	2606	3994
66	0	0	1996	12	2611	3991
67	0	0	1933	5	2616	3993
68	0	0	1874	6	2616	3995
69	0	0	1836	8	2614	3993
70	0	0	1829	8	2606	3994
71	0	0	1803	4	2595	3993
72	0	0	1797	10	2591	3993
73	0	0	1831	11	2594	3995
74	0	0	1887	10	2599	3994
75	0	0	1953	10	2605	3993
76	0	0	2005	9	2611	3995
77	0	0	2050	11	2615	3994
78	0	0	2110	10	2616	3993
79	0	0	2177	12	2614	3995
80	0	0	2214	11	2606	3993
81	0	0	2206	9	2595	3994
82	0	0	2157	8	2591	3994
83	0	0	2090	7	2594	3994
84	0	0	2067	11	2598	3994
85	0	0	2072	10	2605	3995
86	0	0	2069	14	2611	3992
87	0	0	2043	8	2615	3994
88	0	0	2016	8	2617	3995
89	0	0	2017	11	2614	3994
90	0	0	2043	10	2606	3994
91	0	0	1983	7	2596	3994
92	0	0	1903	7	2592	3993
93	0	0	1820	7	2594	3995
94	0	0	1788	10	2599	3994
95	0	0	1840	11	2605	3993
96	0	0	1933	8	2611	3995
97	0	0	2039	11	2616	3993
98	0	0	2104	11	2617	3997
99	0	0	2132	10	2614	3995
100	0	0	2171	11	2606	3995
101	0	0	2212	10	2595	3995
102	0	0	2195	8	2591	3995
103	0	0	2126	6	2594	3996
104	0	0	2048	7	2598	3997
105	0	0	2019	10	2605	3995
106	0	0	2001	5	2611	3995
107	0	0	1962	7	2615	3996
108	0	0	1920	7	2617	3997
109	0	0	1904	10	2614	3995
110	0	0	1914	11	2606	3995
111	0	0	1896	7	2595	3995
112	0	0	1896	11	2592	3994
113	0	0	1918	10	2594	3995
114	0	0	1945	10	2599	3997
115	0	0	1998	10	2605	3995
116	0	0	2069	11	2610	3996
117	0	0	2131	11	2615	3996
118	0	0	2182	9	2616	3996
119	0	0	2212	10	2614	4000
120	0	0	2227	12	2606	3996
121	0	0	2238	9	2595	3995
122	0	0	2234	11	2592	3995
123	0	0	2204	6	2593	3995
124	0	0	2160	8	2598	3996
125	0	0	2109	7	2605	3995
126	0	0	2072	8	2611	3996
127	0	0	2053	9	2616	3995
0	0	0	2035	7	2617	3995
1	0	0	1983	7	2614	3998
2	0	0	1916	7	2606	3995
3	0	0	1860	6	2595	3996
4	0	0	1850	11	2592	3994
5	0	0	1875	10	2594	3995
6	0	0	1910	10	2599	3998
7	0	0	1960	11	2604	3996
8	0	0	2032	11	2610	3996
9	0	0	2097	12	2615	3997
10	0	0	2134	10	2616	3997
11	0	0	2158	11	2613	3997
12	0	0	2183	10	2606	3995
13	0	0	2223	8	2595	3995
14	0	0	2250	12	2592	3997
15	0	0	2211	7	2594	3997
16	0	0	2134	6	2598	3998
17	0	0	2070	7	2605	3996
18	0	0	2024	7	2611	3999
19	0	0	1977	6	2616	3998
20	0	0	1942	8	2616	3995
21	0	0	1935	10	2614	3998
22	0	0	1943	12	2606	3996
23	0	0	1944	11	2595	3996
24	0	0	1965	11	2591	3997
25	0	0	2005	11	2593	4000
26	0	0	1995	9	2598	3997
27	0	0	2010	10	2604	3997
28	0	0	2068	10	2610	3997
29	0	0	2117	12	2616	3997
30	0	0	2152	11	2616	3998
31	0	0	2187	14	2614	3996
32	0	0	2193	10	2605	3998
33	0	0	2186	10	2595	3997
34	0	0	2178	9	2592	3998
35	0	0	2146	7	2594	3999
36	0	0	2122	9	2598	3999
37	0	0	2118	10	2605	3999
38	0	0	2115	11	2611	4000
39	0	0	2056	9	2615	3998
40	0	0	2001	8	2616	3998
41	0	0	1977	9	2613	3998
42	0	0	1970	9	2606	3997
43	0	0	1964	10	2595	3997
44	0	0	1969	11	2592	3998
45	0	0	1986	11	2593	3996
46	0	0	1995	11	2598	3999
47	0	0	2020	10	2605	3998
48	0	0	2082	10	2611	3998
49	0	0	2149	12	2616	3999
50	0	0	2168	11	2616	3996
51	0	0	2161	11	2615	3999
52	0	0	2163	12	2606	3997
53	0	0	2181	11	2595	4001
54	0	0	2189	11	2592	3999
55	0	0	2189	10	2593	3996
56	0	0	2158	8	2598	3998
57	0	0	2109	7	2604	3998
58	0	0	2059	7	2611	3998
59	0	0	2016	7	2616	3997
60	0	0	2015	10	2616	4000
61	0	0	2044	11	2613	3999
62	0	0	2060	11	2606	3998
63	0	0	2023	7	2595	3998
64	0	0	1988	9	2592	3998
65	0	0	1997	10	2594	4000
66	0	0	2026	11	2598	3999
67	0	0	2083	10	2605	3999
68	0	0	2126	7	2611	3999
69	0	0	2134	9	2615	3998
70	0	0	2103	7	2617	4000
71	0	0	2067	9	2612	3996
72	0	0	2080	11	2606	3998
73	0	0	2134	11	2595	4000
74	0	0	2177	11	2591	3998
75	0	0	2204	11	2594	3996
76	0	0	2236	11	2598	3999
77	0	0	2302	11	2605	3998
78	0	0	2285	8	2611	3998
79	0	0	2204	6	2615	4000
80	0	0	2100	6	2617	3998
81	0	0	2018	6	2614	3999
82	0	0	1964	7	2606	3999
83	0	0	1935	9	2595	3998
84	0	0	1944	11	2592	4000
85	0	0	1984	11	2594	3998
86	0	0	2036	10	2599	4000
87	0	0	2112	11	2605	3998
88	0	0	2182	11	2611	3999
89	0	0	2227	12	2616	3998
90	0	0	2248	10	2616	3999
91	0	0	2260	11	2614	3999
92	0	0	2261	12	2606	3998
93	0	0	2270	12	2595	3998
94	0	0	2237	5	2592	3998
95	0	0	2176	7	2593	4002
96	0	0	2153	11	2599	3999
97	0	0	2168	8	2605	3999
98	0	0	2151	8	2611	3998
99	0	0	2095	7	2616	3998
100	0	0	2053	8	2617	3999
101	0	0	2043	11	2615	3999
102	0	0	2056	8	2607	3999
103	0	0	2040	8	2596	3999
104	0	0	2025	8	2592	3998
105	0	0	2032	12	2594	4001
106	0	0	2077	11	2598	3999
107	0	0	2162	12	2605	3999
108	0	0	2254	11	2611	3999
109	0	0	2315	9	2615	3999
110	0	0	2334	12	2616	3999
111	0	0	2327	11	2615	3999
112	0	0	2319	10	2606	3999
113	0	0	2325	11	2596	3999
114	0	0	2326	8	2592	4000
115	0	0	2309	8	2594	4002
116	0	0	2261	7	2599	3999
117	0	0	2189	8	2605	3999
118	0	0	2132	7	2612	3999
119	0	0	2099	6	2616	4000
120	0	0	2092	10	2617	3999
121	0	0	2103	11	2615	3999
122	0	0	2119	12	2607	3999
123	0	0	2120	11	2596	3999
124	0	0	2136	8	2592	4000
125	0	0	2177	11	2594	3999
126	0	0	2207	11	2599	3999
127	0	0	2248	10	2605	3999
0	0	0	2296	11	2611	3999
1	0	0	2290	5	2615	3999
2	0	0	2262	8	2617	4001
3	0	0	2247	11	2615	4000
4	0	0	2259	10	2607	4001
5	0	0	2281	11	2595	3999
6	0	0	2258	7	2592	3999
7	0	0	2225	8	2594	4000
8	0	0	2212	7	2599	4000
9	0	0	2199	12	2605	4000
10	0	0	2162	7	2611	3999
11	0	0	2114	6	2616	4000
12	0	0	2100	11	2617	4000
13	0	0	2116	11	2615	4000
14	0	0	2102	8	2607	4000
15	0	0	2052	8	2594	4000
16	0	0	2039	7	2592	3999
17	0	0	2057	11	2594	4000
18	0	0	2091	11	2598	3999
19	0	0	2139	11	2605	4000
20	0	0	2173	11	2610	4000
21	0	0	2185	14	2616	4000
22	0	0	2214	11	2617	4000
23	0	0	2255	11	2614	3999
24	0	0	2287	15	2606	3999
25	0	0	2310	11	2595	3999
26	0	0	2310	10	2592	4001
27	0	0	2276	8	2594	4001
28	0	0	2241	8	2599	4001
29	0	0	2207	7	2604	3999
30	0	0	2170	8	2611	4000
31	0	0	2126	8	2616	4001
32	0	0	2078	10	2617	4000
33	0	0	2045	7	2614	4001
34	0	0	2026	8	2606	3999
35	0	0	1992	8	2596	4000
36	0	0	1978	7	2591	3999
37	0	0	1992	10	2594	3999
38	0	0	2039	10	2598	4001
39	0	0	2104	10	2605	3999
40	0	0	2160	12	2611	3999
41	0	0	2202	7	2616	4000
42	0	0	2245	11	2617	4001
43	0	0	2306	11	2614	3999
44	0	0	2321	11	2606	4000
45	0	0	2261	7	2596	3999
46	0	0	2151	7	2592	4001
47	0	0	2053	9	2593	4000
48	0	0	2029	7	2598	4001
49	0	0	2010	7	2604	4000
50	0	0	1966	6	2611	4000
51	0	0	1923	4	2615	3999
52	0	0	1924	11	2616	4001
53	0	0	1925	11	2614	4000
54	0	0	1921	9	2606	3999
55	0	0	1894	6	2595	3999
56	0	0	1871	7	2592	3999
57	0	0	1876	11	2594	3999
58	0	0	1910	11	2598	4001
59	0	0	1971	11	2605	4001
60	0	0	2031	11	2611	4000
61	0	0	2093	7	2615	4001
62	0	0	2138	11	2617	4003
63	0	0	2155	11	2615	4000
64	0	0	2154	11	2607	4003
65	0	0	2148	15	2595	3999
66	0	0	2125	7	2591	4000
67	0	0	2099	10	2594	4000
68	0	0	2087	9	2598	4000
69	0	0	2060	8	2605	4001
70	0	0	2005	7	2612	4002
71	0	0	1936	7	2616	4001
72	0	0	1899	8	2617	4001
73	0	0	1856	7	2614	4001
74	0	0	1824	7	2607	4000
75	0	0	1797	8	2596	4002
76	0	0	1820	9	2592	4001
77	0	0	1878	10	2594	3999
78	0	0	1922	11	2598	4001
79	0	0	1958	11	2604	4000
80	0	0	2007	10	2610	4000
81	0	0	2060	11	2615	4001
82	0	0	2093	10	2617	4002
83	0	0	2101	11	2614	4003
84	0	0	2120	12	2606	4000
85	0	0	2148	11	2596	4002
86	0	0	2138	8	2592	4002
87	0	0	2101	9	2594	4001
88	0	0	2038	7	2599	4002
89	0	0	1977	7	2605	4000
90	0	0	1953	7	2611	4000
91	0	0	1937	7	2615	4001
92	0	0	1912	8	2617	3999
93	0	0	1867	7	2614	4001
94	0	0	1824	7	2607	4000
95	0	0	1809	8	2595	4000
96	0	0	1827	12	2592	3999
97	0	0	1893	10	2594	4000
98	0	0	1928	11	2598	4002
99	0	0	1939	10	2605	4001
100	0	0	1974	14	2611	3999
101	0	0	2006	8	2616	4001
102	0	0	2024	11	2617	4001
103	0	0	2057	11	2614	4000
104	0	0	2074	10	2607	4000
105	0	0	2072	11	2596	3999
106	0	0	2054	8	2592	4000
107	0	0	2049	11	2594	4001
108	0	0	2034	8	2599	4002
109	0	0	2006	8	2605	4000
110	0	0	1994	9	2611	4000
111	0	0	1971	10	2616	3999
112	0	0	1950	8	2617	4001
113	0	0	1938	9	2615	4002
114	0	0	1916	7	2607	4000
115	0	0	1887	9	2595	4001
116	0	0	1907	9	2592	4001
117	0	0	1956	11	2594	4000
118	0	0	1995	11	2598	4001
119	0	0	2029	10	2606	4003
120	0	0	2042	11	2611	4001
121	0	0	2042	8	2616	4001
122	0	0	2049	11	2617	4001
123	0	0	2057	11	2615	4003
124	0	0	2077	11	2607	4000
125	0	0	2099	11	2596	3999
126	0	0	2106	12	2592	3999
127	0	0	2085	7	2593	4001
0	0	0	2066	11	2599	4002
1	0	0	2036	8	2605	4001
2	0	0	2005	8	2611	4000
3	0	0	1992	8	2616	4000
4	0	0	2000	13	2617	4000
5	0	0	1988	8	2614	4002
6	0	0	1957	8	2607	4000
7	0	0	1907	7	2596	4001
8	0	0	1874	8	2592	4001
9	0	0	1862	9	2594	4002
10	0	0	1871	11	2599	3999
11	0	0	1920	10	2605	4000
12	0	0	1959	11	2612	4001
13	0	0	2015	10	2616	4004
14	0	0	2081	11	2617	4002
15	0	0	2153	11	2615	4002
16	0	0	2226	12	2607	4000
17	0	0	2290	11	2595	4002
18	0	0	2286	7	2592	4002
19	0	0	2202	7	2594	4001
20	0	0	2072	7	2599	3998
21	0	0	1949	7	2606	4002
22	0	0	1878	11	2612	3999
23	0	0	1841	10	2616	3999
24	0	0	1841	10	2617	4002
25	0	0	1868	11	2615	4000
26	0	0	1922	11	2607	4002
27	0	0	1938	10	2596	4002
28	0	0	1927	11	2592	4000
29	0	0	1924	11	2594	4002
30	0	0	1949	11	2599	4000
31	0	0	2004	11	2605	4004
32	0	0	2068	11	2611	4001
33	0	0	2111	12	2616	3999
34	0	0	2131	11	2617	4002
35	0	0	2122	10	2615	4003
36	0	0	2107	13	2607	4000
37	0	0	2126	11	2596	4004
38	0	0	2144	11	2592	4002
39	0	0	2118	4	2594	4001
40	0	0	2086	9	2599	4001
41	0	0	2073	9	2605	4001
42	0	0	2041	8	2611	4002
43	0	0	1984	4	2616	4001
44	0	0	1910	7	2617	4001
45	0	0	1870	8	2615	3999
46	0	0	1860	10	2607	4001
47	0	0	1843	10	2596	4001
48	0	0	1855	10	2592	4000
49	0	0	1901	12	2594	4000
50	0	0	1961	10	2599	4000
51	0	0	2028	11	2606	4003
52	0	0	2073	13	2611	4001
53	0	0	2101	12	2616	4000
54	0	0	2133	11	2617	4001
55	0	0	2167	12	2614	3998
56	0	0	2177	11	2606	4001
57	0	0	2167	10	2596	4001
58	0	0	2133	8	2592	4000
59	0	0	2110	9	2594	4002
60	0	0	2086	9	2599	4000
61	0	0	2069	9	2605	4000
62	0	0	2038	9	2612	4001
63	0	0	1987	8	2616	4000
64	0	0	1942	7	2617	4001
65	0	0	1917	8	2615	4001
66	0	0	1902	8	2607	4002
67	0	0	1869	9	2596	4001
68	0	0	1838	6	2592	4000
69	0	0	1828	8	2594	4002
70	0	0	1832	11	2598	3999
71	0	0	1863	11	2605	4001
72	0	0	1953	12	2611	4001
73	0	0	2075	10	2616	4001
74	0	0	2143	11	2617	4002
75	0	0	2158	11	2615	4002
76	0	0	2173	10	2608	4003
77	0	0	2215	11	2597	4000
78	0	0	2237	15	2592	4001
79	0	0	2212	7	2595	4003
80	0	0	2176	8	2599	3997
81	0	0	2149	6	2606	4003
82	0	0	2102	7	2612	4002
83	0	0	2039	10	2616	4001
84	0	0	1985	7	2617	4003
85	0	0	1942	8	2614	4001
86	0	0	1910	6	2607	4003
87	0	0	1873	10	2596	4002
88	0	0	1871	11	2592	4002
89	0	0	1899	9	2594	4002
90	0	0	1924	10	2599	4002
91	0	0	1963	11	2605	4001
92	0	0	2003	11	2611	4000
93	0	0	2056	9	2616	4000
94	0	0	2105	10	2617	4001
95	0	0	2133	11	2615	4002
96	0	0	2146	11	2607	4000
97	0	0	2163	12	2596	4001
98	0	0	2143	7	2592	4002
99	0	0	2093	6	2594	4000
100	0	0	2042	8	2598	4002
101	0	0	2035	11	2605	4001
102	0	0	2045	10	2611	4001
103	0	0	2042	9	2615	4000
104	0	0	2034	7	2617	4001
105	0	0	2031	10	2615	4003
106	0	0	2013	11	2607	4001
107	0	0	1935	6	2596	4003
108	0	0	1852	7	2592	4000
109	0	0	1844	9	2594	4001
110	0	0	1878	10	2599	4003
111	0	0	1962	9	2605	4001
112	0	0	2055	11	2611	4003
113	0	0	2107	11	2616	4001
114	0	0	2110	9	2617	4001
115	0	0	2126	11	2615	4003
116	0	0	2146	10	2607	4001
117	0	0	2173	12	2595	4001
118	0	0	2192	15	2592	3999
119	0	0	2180	8	2593	4000
120	0	0	2147	8	2598	4001
121	0	0	2093	7	2605	4001
122	0	0	2039	6	2611	4001
123	0	0	1992	9	2616	4001
124	0	0	1971	9	2617	4003
125	0	0	1977	11	2614	4002
126	0	0	1972	7	2608	4003
127	0	0	1911	11	2596	4001
0	0	0	1828	7	2592	4001
1	0	0	1791	8	2594	4002
2	0	0	1814	11	2599	4000
3	0	0	1887	11	2605	4001
4	0	0	1994	11	2611	4002
5	0	0	2106	11	2615	4003
6	0	0	2176	9	2617	4003
7	0	0	2208	10	2614	4002
8	0	0	2226	11	2606	3999
9	0	0	2239	10	2595	4001
10	0	0	2228	7	2591	4002
11	0	0	2186	9	2593	4003
12	0	0	2130	7	2599	4003
13	0	0	2080	7	2605	4001
14	0	0	2078	11	2611	4003
15	0	0	2149	9	2616	4002
16	0	0	2161	8	2617	4002
17	0	0	2105	7	2615	4001
18	0	0	1991	8	2608	4002
19	0	0	1843	7	2596	4003
20	0	0	1753	7	2592	4003
21	0	0	1733	9	2594	4002
22	0	0	1789	11	2598	4000
23	0	0	1906	11	2605	4001
24	0	0	2008	10	2611	4001
25	0	0	2070	9	2615	4002
26	0	0	2100	13	2617	4002
27	0	0	2101	10	2615	4003
28	0	0	2121	10	2607	4002
29	0	0	2182	11	2596	4003
30	0	0	2207	8	2592	4003
31	0	0	2186	8	2594	4002
32	0	0	2155	9	2599	4003
33	0	0	2108	6	2605	4001
34	0	0	2040	7	2611	4001
35	0	0	1988	8	2616	4002
36	0	0	1981	10	2617	4002
37	0	0	1958	8	2615	4001
38	0	0	1922	6	2607	4001
39	0	0	1872	7	2597	4001
40	0	0	1873	11	2592	4002
41	0	0	1911	10	2594	4003
42	0	0	1945	11	2598	4001
43	0	0	1985	12	2605	4001
44	0	0	2040	10	2612	3999
45	0	0	2089	11	2616	4003
46	0	0	2141	11	2617	4002
47	0	0	2179	11	2615	4003
48	0	0	2178	7	2607	4002
49	0	0	2153	8	2596	4001
50	0	0	2106	8	2592	4003
51	0	0	2076	10	2594	4002
52	0	0	2082	11	2599	4004
53	0	0	2085	11	2605	4001
54	0	0	2059	7	2612	4001
55	0	0	2017	8	2616	4002
56	0	0	1984	11	2617	4002
57	0	0	1971	8	2614	4001
58	0	0	1940	8	2606	4001
59	0	0	1893	7	2596	4002
60	0	0	1880	12	2592	4002
61	0	0	1920	10	2594	4003
62	0	0	1961	11	2598	4001
63	0	0	2018	11	2605	4003
64	0	0	2073	10	2611	4001
65	0	0	2115	12	2616	4003
66	0	0	2133	9	2617	4003
67	0	0	2147	11	2614	4001
68	0	0	2163	12	2607	4001
69	0	0	2191	12	2596	4001
70	0	0	2206	8	2593	4002
71	0	0	2176	8	2594	4002
72	0	0	2123	7	2598	4001
73	0	0	2081	8	2605	4002
74	0	0	2091	11	2611	4001
75	0	0	2091	8	2616	4003
76	0	0	2073	9	2617	4003
77	0	0	2046	7	2615	4003
78	0	0	2019	8	2607	4002
79	0	0	1978	7	2597	4002
80	0	0	1969	10	2593	4003
81	0	0	1985	12	2594	4002
82	0	0	2024	10	2599	4003
83	0	0	2080	11	2605	4002
84	0	0	2131	11	2611	4001
85	0	0	2182	12	2616	4002
86	0	0	2223	11	2617	4003
87	0	0	2220	9	2615	4004
88	0	0	2176	7	2607	4002
89	0	0	2135	7	2596	4003
90	0	0	2122	11	2592	4002
91	0	0	2123	10	2594	4003
92	0	0	2094	8	2598	4001
93	0	0	2066	13	2604	4001
94	0	0	2061	11	2611	4003
95	0	0	2060	11	2616	4003
96	0	0	2051	14	2617	4003
97	0	0	2045	11	2615	4003
98	0	0	2038	9	2607	4002
99	0	0	2012	9	2596	4002
100	0	0	2012	11	2593	4002
101	0	0	2037	11	2594	4003
102	0	0	2073	11	2599	4004
103	0	0	2101	10	2606	4003
104	0	0	2081	8	2611	4003
105	0	0	2019	10	2616	4002
106	0	0	1985	11	2617	4003
107	0	0	2019	11	2614	4004
108	0	0	2108	11	2608	4002
109	0	0	2199	12	2596	4003
110	0	0	2242	11	2592	4004
111	0	0	2225	8	2594	4003
112	0	0	2178	7	2598	4004
113	0	0	2134	7	2605	4002
114	0	0	2071	7	2611	4003
115	0	0	2010	7	2616	4002
116	0	0	1982	10	2618	4003
117	0	0	1969	8	2615	4003
118	0	0	1926	11	2607	4002
119	0	0	1865	8	2596	4001
120	0	0	1861	12	2593	4003
121	0	0	1904	9	2594	4003
122	0	0	1951	11	2599	4003
123	0	0	1991	11	2605	4002
124	0	0	2033	11	2611	4003
125	0	0	2082	10	2616	4003
126	0	0	2135	11	2617	4003
127	0	0	2173	11	2615	4003
0	0	0	2186	11	2608	4002
1	0	0	2206	11	2596	4003
2	0	0	2228	14	2592	4003
3	0	0	2227	8	2594	4003
4	0	0	2205	8	2599	4003
5	0	0	2146	7	2605	4002
6	0	0	2067	8	2612	4002
7	0	0	1993	8	2616	4001
8	0	0	1941	8	2617	4003
9	0	0	1901	7	2615	4003
10	0	0	1888	10	2607	4002
11	0	0	1882	9	2596	4002
12	0	0	1906	8	2592	4002
13	0	0	1950	8	2594	4003
14	0	0	2005	9	2598	4006
15	0	0	2055	11	2605	3999
16	0	0	2092	8	2611	4002
17	0	0	2108	14	2616	4001
18	0	0	2129	9	2617	4003
19	0	0	2153	11	2615	4002
20	0	0	2177	10	2607	4002
21	0	0	2189	11	2596	4002
22	0	0	2185	5	2593	4003
23	0	0	2148	3	2594	4003
24	0	0	2108	8	2599	4003
25	0	0	2085	11	2605	4002
26	0	0	2111	11	2611	4003
27	0	0	2134	11	2616	4003
28	0	0	2103	5	2618	4002
29	0	0	2022	7	2615	4004
30	0	0	1965	8	2607	4002
31	0	0	1886	7	2596	4002
32	0	0	1812	7	2593	4004
33	0	0	1806	11	2594	4003
34	0	0	1860	11	2598	4003
35	0	0	1942	12	2605	4002
36	0	0	2019	9	2611	4002
37	0	0	2068	10	2615	4003
38	0	0	2098	8	2617	4002
39	0	0	2112	11	2615	4003
40	0	0	2125	10	2607	4002
41	0	0	2160	12	2596	4002
42	0	0	2179	14	2592	4002
43	0	0	2159	9	2593	4003
44	0	0	2106	7	2598	4002
45	0	0	2041	8	2605	4004
46	0	0	1993	7	2611	4001
47	0	0	1980	11	2615	4003
48	0	0	1986	10	2617	4003
49	0	0	1972	9	2615	4004
50	0	0	1964	9	2607	4002
51	0	0	1947	8	2596	4003
52	0	0	1971	12	2591	4003
53	0	0	2029	9	2594	4003
54	0	0	2083	11	2599	4002
55	0	0	2135	10	2605	4002
56	0	0	2224	10	2612	4002
57	0	0	2324	11	2616	4002
58	0	0	2393	10	2617	4003
59	0	0	2459	12	2614	4003
60	0	0	2513	11	2608	4003
61	0	0	2536	10	2596	4000
62	0	0	2542	11	2591	4003
63	0	0	2535	12	2594	4002
64	0	0	2525	11	2598	4002
65	0	0	2497	7	2605	4002
66	0	0	2462	7	2611	4000
67	0	0	2440	11	2615	4002
68	0	0	2426	14	2617	4003
69	0	0	2413	10	2615	4002
70	0	0	2381	8	2608	4001
71	0	0	2318	7	2596	4003
72	0	0	2267	9	2593	4003
73	0	0	2273	10	2594	4002
74	0	0	2305	11	2599	4002
75	0	0	2338	10	2605	4002
76	0	0	2390	9	2611	4003
77	0	0	2410	11	2616	4001
78	0	0	2378	10	2617	4003
79	0	0	2347	9	2614	4002
80	0	0	2319	8	2607	4002
81	0	0	2282	12	2595	4002
82	0	0	2237	7	2591	4003
83	0	0	2164	7	2594	4003
84	0	0	2066	7	2598	4000
85	0	0	1986	7	2605	4003
86	0	0	1908	7	2612	4003
87	0	0	1852	7	2616	4000
88	0	0	1818	11	2617	4003
89	0	0	1808	10	2615	4002
90	0	0	1829	11	2607	4002
91	0	0	1854	11	2596	4003
92	0	0	1876	11	2592	4002
93	0	0	1874	11	2594	4003
94	0	0	1848	8	2598	4002
95	0	0	1854	11	2605	4002
96	0	0	1897	14	2611	4002
97	0	0	1965	11	2615	4003
98	0	0	2021	13	2617	4003
99	0	0	2063	10	2614	4001
100	0	0	2099	11	2607	4003
101	0	0	2128	15	2595	4002
102	0	0	2126	9	2591	4002
103	0	0	2111	13	2594	4002
104	0	0	2115	11	2598	3999
105	0	0	2091	7	2605	4002
106	0	0	2038	10	2611	4002
107	0	0	1988	7	2615	4002
108	0	0	1963	8	2617	4002
109	0	0	1940	8	2614	4002
110	0	0	1904	7	2607	4004
111	0	0	1867	11	2595	4002
112	0	0	1874	11	2592	4002
113	0	0	1916	15	2593	4003
114	0	0	1960	10	2599	4003
115	0	0	2013	10	2605	4004
116	0	0	2049	11	2611	4002
117	0	0	2088	11	2615	4002
118	0	0	2123	10	2617	4003
119	0	0	2131	11	2615	4000
120	0	0	2148	7	2608	4003
121	0	0	2165	11	2596	4005
122	0	0	2179	11	2592	4001
123	0	0	2165	11	2594	4003
124	0	0	2118	7	2598	4004
125	0	0	2068	8	2605	4002
126	0	0	1995	8	2611	4002
127	0	0	1914	8	2615	4002
0	0	0	1849	5	2617	4003
1	0	0	1830	8	2615	4003
2	0	0	1822	8	2607	4002
3	0	0	1820	11	2596	4003
4	0	0	1862	11	2592	4002
5	0	0	1922	11	2594	4003
6	0	0	1965	12	2598	4002
7	0	0	2022	8	2605	4004
8	0	0	2091	11	2612	4002
9	0	0	2138	10	2616	4000
10	0	0	2160	14	2617	4003
11	0	0	2161	11	2615	4002
12	0	0	2148	11	2607	4003
13	0	0	2160	12	2596	4003
14	0	0	2161	13	2592	4004
15	0	0	2141	8	2593	4003
16	0	0	2141	8	2598	4003
17	0	0	2118	7	2605	4002
18	0	0	2071	8	2611	4002
19	0	0	2024	7	2616	4000
20	0	0	1978	6	2617	4003
21	0	0	1943	8	2614	4001
22	0	0	1931	8	2608	4001
23	0	0	1911	8	2596	4002
24	0	0	1919	10	2592	4003
25	0	0	1963	10	2594	4003
26	0	0	2012	11	2599	4004
27	0	0	2067	13	2605	4002
28	0	0	2115	12	2611	4002
29	0	0	2132	11	2616	4003
30	0	0	2137	11	2617	4004
31	0	0	2141	11	2614	3999
32	0	0	2142	12	2607	4002
33	0	0	2149	12	2596	4003
34	0	0	2150	13	2592	4004
35	0	0	2159	10	2593	4003
36	0	0	2175	11	2598	4004
37	0	0	2201	11	2604	4002
38	0	0	2192	8	2610	4001
39	0	0	2125	10	2616	4004
40	0	0	2015	11	2617	4003
41	0	0	1912	7	2614	4002
42	0	0	1856	7	2607	4002
43	0	0	1834	9	2596	4001
44	0	0	1860	12	2593	3999
45	0	0	1907	10	2594	3974
46	0	0	1940	11	2599	3952
47	0	0	1959	11	2605	3930
48	0	0	1991	10	2611	3908
49	0	0	2038	11	2616	3886
50	0	0	2086	8	2617	3865
51	0	0	2140	11	2614	3843
52	0	0	2183	10	2607	3820
53	0	0	2212	12	2595	3800
54	0	0	2216	11	2591	3781
55	0	0	2200	8	2593	3758
56	0	0	2157	8	2598	3736
57	0	0	2098	7	2604	3715
58	0	0	2066	8	2611	3694
59	0	0	2012	7	2616	3674
60	0	0	1961	8	2617	3652
61	0	0	1931	8	2614	3631
62	0	0	1926	9	2608	3610
63	0	0	1906	8	2596	3590
64	0	0	1883	8	2593	3568
65	0	0	1873	12	2594	3548
66	0	0	1899	11	2598	3527
67	0	0	1943	10	2605	3507
68	0	0	2011	11	2612	3487
69	0	0	2108	13	2615	3468
70	0	0	2188	10	2617	3448
71	0	0	2209	11	2614	3427
72	0	0	2198	12	2607	3408
73	0	0	2197	11	2596	3392
74	0	0	2188	13	2592	3370
75	0	0	2159	8	2593	3352
76	0	0	2104	8	2598	3332
77	0	0	2065	9	2604	3314
78	0	0	2034	7	2611	3296
79	0	0	2008	11	2615	3278
80	0	0	1994	10	2617	3259
81	0	0	2008	11	2615	3241
82	0	0	2042	12	2607	3223
83	0	0	2025	7	2596	3206
84	0	0	1988	10	2591	3188
85	0	0	1985	11	2594	3171
86	0	0	2030	11	2598	3153
87	0	0	2086	13	2604	3136
88	0	0	2123	10	2611	3119
89	0	0	2162	10	2615	3103
90	0	0	2202	12	2616	3086
91	0	0	2244	11	2614	3068
92	0	0	2243	8	2608	3053
93	0	0	2231	10	2596	3037
94	0	0	2217	8	2592	3021
95	0	0	2188	8	2594	3005
96	0	0	2152	8	2598	2988
97	0	0	2110	6	2605	2973
98	0	0	2071	7	2612	2958
99	0	0	2020	7	2616	2942
100	0	0	1984	8	2617	2927
101	0	0	1992	11	2614	2911
102	0	0	2015	10	2608	2897
103	0	0	1988	7	2597	2882
104	0	0	1967	11	2592	2867
105	0	0	1995	12	2593	2852
106	0	0	2030	11	2598	2838
107	0	0	2064	13	2604	2824
108	0	0	2119	10	2611	2809
109	0	0	2164	11	2615	2796
110	0	0	2202	7	2617	2782
111	0	0	2234	11	2615	2768
112	0	0	2238	10	2608	2754
113	0	0	2253	11	2596	2740
114	0	0	2255	10	2591	2727
115	0	0	2211	8	2593	2714
116	0	0	2164	7	2599	2701
117	0	0	2132	8	2604	2687
118	0	0	2120	10	2611	2674
119	0	0	2091	10	2616	2662
120	0	0	2051	11	2617	2649
121	0	0	2029	9	2614	2636
122	0	0	2034	10	2608	2624
123	0	0	2022	7	2596	2610
124	0	0	1990	7	2591	2599
125	0	0	1997	11	2594	2587
126	0	0	2033	11	2598	2574
127	0	0	2078	11	2605	2562
0	0	0	2137	11	2611	2549
1	0	0	2194	10	2615	2537
2	0	0	2220	7	2617	2526
3	0	0	2232	10	2615	2514
4	0	0	2258	7	2607	2502
5	0	0	2299	11	2596	2491
6	0	0	2318	15	2592	2480
7	0	0	2286	7	2593	2468
8	0	0	2273	12	2598	2457
9	0	0	2255	9	2604	2446
10	0	0	2215	7	2611	2435
11	0	0	2156	7	2615	2424
12	0	0	2096	3	2617	2414
13	0	0	2037	7	2615	2402
14	0	0	2026	12	2608	2392
15	0	0	2028	11	2596	2381
16	0	0	2010	9	2593	2371
17	0	0	2019	11	2594	2361
18	0	0	2068	11	2599	2350
19	0	0	2136	12	2605	2340
20	0	0	2190	11	2611	2330
21	0	0	2217	8	2616	2320
22	0	0	2247	11	2617	2310
23	0	0	2283	11	2614	2301
24	0	0	2300	10	2607	2291
25	0	0	2304	11	2596	2281
26	0	0	2297	10	2592	2271
27	0	0	2284	7	2593	2261
28	0	0	2276	10	2598	2252
29	0	0	2238	7	2604	2242
30	0	0	2201	7	2611	2233
31	0	0	2153	9	2615	2223
32	0	0	2105	5	2617	2215
33	0	0	2091	11	2615	2206
34	0	0	2101	10	2608	2196
35	0	0	2063	5	2597	2187
36	0	0	2017	8	2592	2178
37	0	0	2021	7	2594	2169
38	0	0	2067	10	2598	2160
39	0	0	2148	11	2605	2152
40	0	0	2216	11	2611	2143
41	0	0	2265	11	2615	2134
42	0	0	2303	8	2617	2126
43	0	0	2326	10	2614	2117
44	0	0	2366	11	2607	2109
45	0	0	2383	9	2596	2100
46	0	0	2348	9	2591	2092
47	0	0	2246	3	2593	2084
48	0	0	2132	7	2598	2076
49	0	0	2092	10	2604	2068
50	0	0	2107	9	2611	2059
51	0	0	2124	10	2616	2052
52	0	0	2108	8	2617	2043
53	0	0	2091	9	2615	2035
54	0	0	2068	9	2608	2028
55	0	0	2033	8	2596	2020
56	0	0	2019	11	2592	2011
57	0	0	2042	8	2593	2004
58	0	0	2074	11	2598	1996
59	0	0	2114	11	2604	1989
60	0	0	2164	11	2611	1981
61	0	0	2203	11	2615	1974
62	0	0	2244	7	2617	1966
63	0	0	2268	10	2615	1959
64	0	0	2264	11	2607	1951
65	0	0	2270	11	2596	1944
66	0	0	2243	8	2592	1937
67	0	0	2204	4	2593	1930
68	0	0	2147	7	2598	1923
69	0	0	2084	9	2604	1915
70	0	0	2043	9	2610	1908
71	0	0	2018	7	2615	1901
72	0	0	2003	11	2617	1895
73	0	0	2017	10	2614	1887
74	0	0	2003	7	2607	1880
75	0	0	1942	5	2596	1874
76	0	0	1887	7	2592	1867
77	0	0	1879	8	2594	1860
78	0	0	1907	11	2598	1853
79	0	0	1972	11	2604	1847
80	0	0	2031	10	2611	1840
81	0	0	2071	10	2616	1834
82	0	0	2111	8	2617	1827
83	0	0	2140	10	2614	1821
84	0	0	2152	15	2607	1814
85	0	0	2158	11	2596	1808
86	0	0	2164	11	2592	1802
87	0	0	2188	10	2594	1796
88	0	0	2182	8	2598	1790
89	0	0	2115	7	2604	1783
90	0	0	2049	8	2610	1777
91	0	0	1985	7	2616	1771
92	0	0	1934	8	2616	1765
93	0	0	1903	8	2614	1759
94	0	0	1897	10	2607	1753
95	0	0	1889	9	2596	1747
96	0	0	1910	10	2592	1741
97	0	0	1962	12	2594	1735
98	0	0	2011	11	2598	1729
99	0	0	2040	15	2604	1723
100	0	0	2068	12	2611	1718
101	0	0	2100	11	2615	1712
102	0	0	2115	10	2617	1706
103	0	0	2101	8	2614	1700
104	0	0	2059	7	2608	1695
105	0	0	2038	10	2596	1688
106	0	0	2059	11	2592	1684
107	0	0	2076	11	2593	1678
108	0	0	2076	11	2598	1672
109	0	0	2071	11	2604	1667
110	0	0	2058	8	2611	1662
111	0	0	2015	8	2615	1656
112	0	0	1986	12	2616	1651
113	0	0	1969	8	2614	1646
114	0	0	1964	10	2607	1640
115	0	0	1937	8	2596	1634
116	0	0	1924	10	2592	1630
117	0	0	1933	11	2594	1625
118	0	0	1956	11	2598	1618
119	0	0	1990	11	2605	1614
120	0	0	2040	12	2610	1608
121	0	0	2081	11	2615	1604
122	0	0	2132	10	2617	1599
123	0	0	2173	11	2614	1593
124	0	0	2177	8	2607	1588
125	0	0	2155	9	2596	1583
126	0	0	2140	10	2592	1578
127	0	0	2105	7	2593	1573
0	0	0	2063	8	2598	1568
1	0	0	2027	6	2604	1564
2	0	0	1964	8	2610	1559
3	0	0	1926	8	2615	1554
4	0	0	1902	7	2617	1550
5	0	0	1869	8	2615	1544
6	0	0	1862	10	2608	1540
7	0	0	1863	10	2597	1536
8	0	0	1877	11	2593	1530
9	0	0	1902	11	2594	1524
10	0	0	1934	11	2598	1520
11	0	0	1974	10	2606	1516
12	0	0	2012	10	2611	1511
13	0	0	2052	11	2615	1506
14	0	0	2096	10	2617	1502
15	0	0	2141	6	2614	1498
16	0	0	2176	11	2607	1494
17	0	0	2181	11	2596	1488
18	0	0	2154	8	2592	1484
19	0	0	2103	8	2593	1479
20	0	0	2068	9	2598	1475
21	0	0	2046	8	2604	1470
22	0	0	2026	8	2611	1466
23	0	0	1988	7	2616	1462
24	0	0	1935	6	2617	1458
25	0	0	1898	7	2615	1453
26	0	0	1878	9	2608	1449
27	0	0	1871	10	2597	1446
28	0	0	1901	11	2592	1440
29	0	0	1944	10	2594	1437
30	0	0	1967	12	2597	1432
31	0	0	1977	11	2604	1430
32	0	0	2002	10	2611	1424
33	0	0	2038	10	2615	1420
34	0	0	2071	11	2617	1416
35	0	0	2105	11	2614	1413
36	0	0	2155	12	2607	1408
37	0	0	2215	10	2597	1405
38	0	0	2254	11	2592	1400
39	0	0	2298	11	2594	1395
40	0	0	2284	8	2598	1394
41	0	0	2195	6	2605	1388
42	0	0	2052	7	2611	1384
43	0	0	1918	7	2616	1380
44	0	0	1849	7	2617	1377
45	0	0	1833	11	2615	1373
46	0	0	1863	9	2608	1369
47	0	0	1899	11	2596	1364
48	0	0	1902	13	2592	1361
49	0	0	1902	11	2594	1357
50	0	0	1916	11	2598	1354
51	0	0	1960	10	2604	1350
52	0	0	2002	12	2611	1346
53	0	0	2025	11	2615	1343
54	0	0	2050	11	2616	1339
55	0	0	2076	11	2614	1335
56	0	0	2108	11	2607	1332
57	0	0	2156	11	2596	1328
58	0	0	2208	11	2592	1324
59	0	0	2214	11	2594	1321
60	0	0	2202	11	2598	1317
61	0	0	2173	10	2604	1314
62	0	0	2130	7	2611	1310
63	0	0	2061	7	2615	1307
64	0	0	2000	7	2616	1304
65	0	0	1940	7	2614	1301
66	0	0	1872	7	2607	1297
67	0	0	1809	7	2596	1293
68	0	0	1805	10	2592	1290
69	0	0	1844	10	2593	1287
70	0	0	1895	11	2598	1283
71	0	0	1926	10	2605	1280
72	0	0	1948	11	2612	1277
73	0	0	1977	11	2616	1273
74	0	0	2014	11	2617	1269
75	0	0	2066	11	2615	1266
76	0	0	2135	11	2607	1264
77	0	0	2191	11	2596	1260
78	0	0	2217	10	2592	1257
79	0	0	2192	3	2593	1252
80	0	0	2147	8	2598	1250
81	0	0	2110	8	2604	1247
82	0	0	2077	9	2610	1244
83	0	0	2036	7	2615	1239
84	0	0	2016	8	2617	1238
85	0	0	2001	7	2614	1234
86	0	0	1991	9	2607	1231
87	0	0	1954	7	2596	1228
88	0	0	1923	8	2592	1223
89	0	0	1925	11	2594	1222
90	0	0	1942	11	2598	1219
91	0	0	1982	11	2604	1217
92	0	0	2028	11	2611	1212
93	0	0	2081	10	2616	1209
94	0	0	2117	11	2616	1206
95	0	0	2144	10	2614	1203
96	0	0	2165	7	2607	1200
97	0	0	2165	11	2595	1197
98	0	0	2135	8	2592	1193
99	0	0	2086	9	2593	1191
100	0	0	2080	11	2598	1188
101	0	0	2064	9	2603	1186
102	0	0	2022	6	2611	1182
103	0	0	1987	6	2615	1179
104	0	0	1957	8	2617	1177
105	0	0	1948	11	2615	1174
106	0	0	1946	11	2608	1171
107	0	0	1901	8	2597	1168
108	0	0	1870	8	2592	1164
109	0	0	1875	10	2594	1162
110	0	0	1894	11	2598	1159
111	0	0	1925	13	2605	1157
112	0	0	1990	11	2611	1153
113	0	0	2067	10	2615	1150
114	0	0	2082	11	2616	1149
115	0	0	2073	11	2614	1146
116	0	0	2085	10	2607	1144
117	0	0	2105	10	2595	1140
118	0	0	2126	11	2592	1137
119	0	0	2126	11	2593	1135
120	0	0	2130	10	2598	1132
121	0	0	2129	12	2604	1129
122	0	0	2099	6	2611	1127
123	0	0	2024	8	2616	1123
124	0	0	1954	7	2617	1122
125	0	0	1897	7	2615	1119
126	0	0	1865	8	2607	1117
127	0	0	1847	9	2596	1114
0	0	0	1874	10	2592	1110
1	0	0	1898	10	2594	1109
2	0	0	1932	11	2598	1106
3	0	0	1985	11	2604	1103
4	0	0	2065	10	2611	1101
5	0	0	2115	10	2615	1098
6	0	0	2135	11	2616	1096
7	0	0	2158	11	2614	1093
8	0	0	2172	10	2607	1091
9	0	0	2184	11	2596	1087
10	0	0	2192	11	2592	1085
11	0	0	2177	9	2594	1083
12	0	0	2141	8	2598	1081
13	0	0	2096	6	2604	1080
14	0	0	2037	7	2611	1076
15	0	0	1961	6	2615	1075
16	0	0	1912	8	2617	1071
17	0	0	1912	10	2615	1069
18	0	0	1912	7	2607	1067
19	0	0	1910	11	2596	1064
20	0	0	1927	10	2592	1060
21	0	0	1940	11	2594	1059
22	0	0	1959	11	2598	1056
23	0	0	2014	10	2604	1054
24	0	0	2089	11	2611	1051
25	0	0	2132	11	2615	1049
26	0	0	2158	11	2617	1047
27	0	0	2176	11	2614	1045
28	0	0	2179	7	2607	1044
29	0	0	2188	11	2596	1040
30	0	0	2182	8	2591	1040
31	0	0	2145	8	2594	1036
32	0	0	2104	8	2598	1034
33	0	0	2070	5	2604	1032
34	0	0	2030	7	2611	1029
35	0	0	1958	7	2615	1028
36	0	0	1905	8	2617	1025
37	0	0	1884	9	2615	1022
38	0	0	1903	8	2607	1021
39	0	0	1918	10	2596	1017
40	0	0	1911	8	2592	1015
41	0	0	1911	11	2593	1013
42	0	0	1943	11	2597	1011
43	0	0	1986	12	2603	1008
44	0	0	2012	10	2611	1006
45	0	0	2022	11	2615	1004
46	0	0	2055	11	2617	1002
47	0	0	2091	11	2614	1000
48	0	0	2117	12	2608	997
49	0	0	2142	11	2597	998
50	0	0	2142	9	2591	993
51	0	0	2108	9	2592	992
52	0	0	2094	10	2597	989
53	0	0	2075	7	2604	990
54	0	0	2050	9	2610	986
55	0	0	2032	8	2615	983
56	0	0	1997	8	2616	982
57	0	0	1960	7	2614	979
58	0	0	1942	10	2607	978
59	0	0	1942	11	2596	975
60	0	0	1957	10	2592	973
61	0	0	1972	10	2594	971
62	0	0	1987	12	2598	969
63	0	0	2033	12	2604	967
64	0	0	2081	11	2611	965
65	0	0	2099	11	2615	963
66	0	0	2108	11	2616	961
67	0	0	2097	10	2614	959
68	0	0	2062	7	2607	957
69	0	0	2063	11	2596	953
70	0	0	2077	11	2591	952
71	0	0	2085	10	2593	952
72	0	0	2094	11	2597	950
73	0	0	2093	10	2604	947
74	0	0	2073	9	2610	945
75	0	0	2052	9	2615	942
76	0	0	2028	8	2616	941
77	0	0	1988	8	2614	940
78	0	0	1955	7	2607	940
79	0	0	1899	7	2596	936
80	0	0	1888	11	2592	933
81	0	0	1895	12	2594	933
82	0	0	1878	7	2598	930
83	0	0	1904	10	2604	929
84	0	0	1982	11	2611	926
85	0	0	2059	10	2615	925
86	0	0	2145	11	2616	923
87	0	0	2219	12	2614	921
88	0	0	2253	7	2607	922
89	0	0	2246	11	2596	917
90	0	0	2215	9	2591	915
91	0	0	2169	7	2593	913
92	0	0	2127	8	2597	911
93	0	0	2109	9	2604	910
94	0	0	2102	10	2610	909
95	0	0	2085	8	2615	907
96	0	0	2051	8	2616	905
97	0	0	2034	10	2614	903
98	0	0	2021	9	2607	901
99	0	0	1973	7	2596	901
100	0	0	1940	9	2592	897
101	0	0	1951	11	2593	895
102	0	0	2012	10	2597	894
103	0	0	2072	11	2604	892
104	0	0	2104	11	2610	891
105	0	0	2120	10	2615	889
106	0	0	2134	11	2616	886
107	0	0	2157	11	2614	883
108	0	0	2167	11	2607	884
109	0	0	2165	11	2596	882
110	0	0	2183	11	2592	880
111	0	0	2157	7	2593	876
112	0	0	2102	7	2598	876
113	0	0	2059	7	2605	875
114	0	0	2052	11	2610	874
115	0	0	2105	9	2615	867
116	0	0	2149	10	2617	870
117	0	0	2112	7	2614	869
118	0	0	2004	5	2608	867
119	0	0	1891	7	2596	864
120	0	0	1842	8	2592	863
121	0	0	1842	11	2592	862
122	0	0	1862	11	2597	860
123	0	0	1920	11	2604	859
124	0	0	1976	10	2611	857
125	0	0	2041	10	2615	856
126	0	0	2096	11	2617	854
127	0	0	2133	10	2614	852
0	0	0	2172	11	2607	851
1	0	0	2204	11	2596	850
2	0	0	2227	11	2592	846
3	0	0	2220	11	2594	845
4	0	0	2190	8	2598	845
5	0	0	2124	5	2605	843
6	0	0	2071	7	2611	840
7	0	0	2029	8	2615	839
8	0	0	2003	8	2616	839
9	0	0	1988	10	2614	837
10	0	0	1999	11	2607	836
11	0	0	1991	9	2595	833
12	0	0	1984	11	2592	832
13	0	0	1991	11	2593	829
14	0	0	2025	10	2598	829
15	0	0	2075	11	2604	828
16	0	0	2123	11	2610	827
17	0	0	2187	11	2615	824
18	0	0	2235	10	2617	823
19	0	0	2275	10	2615	821
20	0	0	2281	10	2608	821
21	0	0	2257	9	2596	818
22	0	0	2224	8	2592	816
23	0	0	2185	9	2592	813
24	0	0	2157	7	2597	814
25	0	0	2128	7	2604	813
26	0	0	2093	7	2610	811
27	0	0	2045	7	2615	809
28	0	0	2024	10	2616	809
29	0	0	2019	9	2614	807
30	0	0	2002	9	2607	806
31	0	0	1973	7	2596	803
32	0	0	1958	11	2592	804
33	0	0	1969	11	2594	801
34	0	0	1979	11	2598	799
35	0	0	2009	11	2604	799
36	0	0	2067	11	2610	796
37	0	0	2102	11	2615	795
38	0	0	2120	11	2616	794
39	0	0	2149	10	2615	794
40	0	0	2177	14	2608	790
41	0	0	2191	11	2595	789
42	0	0	2194	11	2592	788
43	0	0	2182	11	2593	787
44	0	0	2161	9	2598	786
45	0	0	2138	7	2604	784
46	0	0	2103	7	2611	783
47	0	0	2046	4	2615	784
48	0	0	1966	7	2617	780
49	0	0	1914	8	2615	779
50	0	0	1893	8	2608	777
51	0	0	1895	10	2597	779
52	0	0	1905	11	2593	776
53	0	0	1946	10	2594	773
54	0	0	2011	10	2598	773
55	0	0	2084	11	2604	773
56	0	0	2127	10	2610	770
57	0	0	2138	10	2615	769
58	0	0	2149	10	2617	767
59	0	0	2158	10	2614	766
60	0	0	2163	10	2607	765
61	0	0	2156	11	2596	763
62	0	0	2158	11	2592	762
63	0	0	2142	10	2593	760
64	0	0	2131	10	2598	760
65	0	0	2100	8	2604	759
66	0	0	2065	8	2611	756
67	0	0	2053	10	2615	756
68	0	0	2028	7	2617	754
69	0	0	1973	7	2615	753
70	0	0	1905	11	2608	750
71	0	0	1850	8	2596	751
72	0	0	1849	10	2592	748
73	0	0	1898	11	2593	747
74	0	0	1940	12	2598	747
75	0	0	1981	10	2604	746
76	0	0	2074	11	2611	742
77	0	0	2150	11	2616	744
78	0	0	2166	11	2616	741
79	0	0	2140	8	2615	741
80	0	0	2122	10	2608	739
81	0	0	2136	11	2597	739
82	0	0	2136	10	2592	736
83	0	0	2105	9	2594	735
84	0	0	2088	11	2598	734
85	0	0	2089	10	2605	733
86	0	0	2065	8	2611	732
87	0	0	2029	9	2616	734
88	0	0	1983	8	2617	729
89	0	0	1953	8	2615	729
90	0	0	1932	7	2608	727
91	0	0	1906	8	2597	727
92	0	0	1905	10	2592	726
93	0	0	1934	11	2593	723
94	0	0	1971	11	2598	723
95	0	0	2015	10	2604	722
96	0	0	2092	11	2611	720
97	0	0	2134	11	2616	719
98	0	0	2127	10	2617	718
99	0	0	2136	11	2615	717
100	0	0	2175	11	2608	715
101	0	0	2216	13	2597	714
102	0	0	2244	8	2593	713
103	0	0	2214	8	2592	711
104	0	0	2152	8	2598	711
105	0	0	2067	4	2605	709
106	0	0	1999	7	2611	707
107	0	0	1982	11	2616	710
108	0	0	1991	7	2617	707
109	0	0	2004	11	2615	706
110	0	0	2017	10	2608	703
111	0	0	2023	11	2597	700
112	0	0	2077	12	2592	702
113	0	0	2144	11	2594	700
114	0	0	2193	11	2599	699
115	0	0	2242	11	2606	698
116	0	0	2284	11	2612	701
117	0	0	2339	12	2616	695
118	0	0	2441	11	2618	695
119	0	0	2548	12	2615	694
120	0	0	2627	11	2608	691
121	0	0	2672	12	2597	692
122	0	0	2681	11	2592	690
123	0	0	2660	11	2593	689
124	0	0	2653	11	2598	688
125	0	0	2642	10	2604	688
126	0	0	2607	9	2611	684
127	0	0	2568	9	2616	686
0	0	0	2539	9	2617	684
1	0	0	2501	9	2615	684
2	0	0	2459	8	2608	683
3	0	0	2381	8	2597	680
4	0	0	2312	8	2593	681
5	0	0	2269	8	2594	678
6	0	0	2229	7	2599	678
7	0	0	2204	7	2605	678
8	0	0	2209	13	2611	676
9	0	0	2223	10	2616	676
10	0	0	2233	11	2617	674
11	0	0	2217	6	2615	673
12	0	0	2162	8	2607	672
13	0	0	2126	8	2597	671
14	0	0	2106	7	2592	669
15	0	0	2075	2	2593	667
16	0	0	2038	9	2598	668
17	0	0	2023	8	2605	668
18	0	0	1991	7	2611	666
19	0	0	1959	7	2616	667
20	0	0	1933	7	2617	664
21	0	0	1904	7	2616	663
22	0	0	1879	9	2608	663
23	0	0	1847	6	2597	661
24	0	0	1841	10	2593	659
25	0	0	1896	10	2594	658
26	0	0	1945	9	2598	658
27	0	0	1981	11	2605	658
28	0	0	2041	11	2611	656
29	0	0	2093	11	2616	653
30	0	0	2130	10	2618	654
31	0	0	2160	9	2615	653
32	0	0	2157	11	2607	652
33	0	0	2140	8	2597	651
34	0	0	2118	7	2592	648
35	0	0	2071	7	2594	648
36	0	0	2010	5	2598	648
37	0	0	1970	8	2605	648
38	0	0	1971	8	2612	646
39	0	0	1975	10	2616	643
40	0	0	1968	11	2618	644
41	0	0	1974	8	2616	644
42	0	0	1983	11	2608	642
43	0	0	1972	4	2598	641
44	0	0	1942	7	2593	640
45	0	0	1934	11	2594	638
46	0	0	1952	9	2599	639
47	0	0	1995	11	2606	638
48	0	0	2049	8	2611	637
49	0	0	2081	10	2616	632
50	0	0	2080	11	2617	635
51	0	0	2082	8	2615	634
52	0	0	2110	11	2608	634
53	0	0	2148	11	2597	631
54	0	0	2155	9	2593	632
55	0	0	2114	7	2594	629
56	0	0	2077	9	2599	629
57	0	0	2065	11	2605	628
58	0	0	2065	10	2612	629
59	0	0	2046	7	2616	626
60	0	0	2015	7	2618	626
61	0	0	1963	7	2616	625
62	0	0	1923	7	2608	623
63	0	0	1899	6	2597	623
64	0	0	1912	11	2593	622
65	0	0	1926	11	2594	620
66	0	0	1932	10	2598	620
67	0	0	1972	11	2605	619
68	0	0	2037	7	2611	618
69	0	0	2102	10	2616	616
70	0	0	2144	11	2617	616
71	0	0	2183	11	2615	617
72	0	0	2208	11	2609	616
73	0	0	2208	8	2597	614
74	0	0	2212	12	2593	612
75	0	0	2214	11	2594	611
76	0	0	2212	11	2599	612
77	0	0	2196	6	2605	611
78	0	0	2132	3	2611	610
79	0	0	2016	7	2616	610
80	0	0	1895	7	2617	608
81	0	0	1805	12	2615	608
82	0	0	1780	9	2608	606
83	0	0	1763	8	2597	605
84	0	0	1757	12	2593	605
85	0	0	1793	11	2594	603
86	0	0	1871	11	2599	602
87	0	0	1946	7	2605	602
88	0	0	2012	7	2612	601
89	0	0	2088	11	2617	602
90	0	0	2150	11	2617	599
91	0	0	2205	14	2615	599
92	0	0	2237	11	2608	597
93	0	0	2220	6	2597	597
94	0	0	2199	11	2593	596
95	0	0	2172	8	2594	595
96	0	0	2136	10	2599	595
97	0	0	2107	8	2606	594
98	0	0	2068	7	2611	593
99	0	0	2008	8	2616	593
100	0	0	1944	7	2617	591
101	0	0	1901	9	2615	591
102	0	0	1912	11	2608	590
103	0	0	1932	9	2597	589
104	0	0	1932	13	2593	589
105	0	0	1932	11	2594	587
106	0	0	1927	11	2599	587
107	0	0	1970	11	2606	586
108	0	0	2092	10	2612	585
109	0	0	2247	11	2617	587
110	0	0	2385	10	2618	584
111	0	0	2400	8	2615	584
112	0	0	2313	6	2609	581
113	0	0	2175	7	2598	581
114	0	0	2064	7	2593	582
115	0	0	1997	7	2594	578
116	0	0	1962	8	2599	579
117	0	0	1944	10	2605	579
118	0	0	1950	10	2611	578
119	0	0	1943	11	2616	576
120	0	0	1930	9	2617	575
121	0	0	1930	11	2616	575
122	0	0	1941	12	2609	575
123	0	0	1925	6	2598	573
124	0	0	1925	12	2593	574
125	0	0	1968	11	2595	571
126	0	0	1998	11	2599	571
127	0	0	2024	11	2606	569
0	0	0	2042	11	2611	570
1	0	0	2073	11	2616	570
2	0	0	2123	11	2617	568
3	0	0	2174	12	2615	568
4	0	0	2194	10	2608	567
5	0	0	2212	10	2597	566
6	0	0	2192	9	2592	564
7	0	0	2139	7	2594	564
8	0	0	2087	8	2599	564
9	0	0	2060	8	2605	563
10	0	0	2056	8	2612	562
11	0	0	2031	9	2617	561
12	0	0	1990	7	2617	560
13	0	0	1955	7	2616	560
14	0	0	1944	7	2608	559
15	0	0	1916	7	2597	559
16	0	0	1916	10	2593	557
17	0	0	1932	11	2594	558
18	0	0	1954	11	2599	556
19	0	0	1990	11	2606	555
20	0	0	2060	10	2611	555
21	0	0	2127	11	2616	554
22	0	0	2158	11	2617	555
23	0	0	2162	10	2614	554
24	0	0	2113	6	2608	552
25	0	0	2073	11	2597	550
26	0	0	2099	11	2593	551
27	0	0	2143	11	2595	549
28	0	0	2163	12	2599	550
29	0	0	2149	8	2606	548
30	0	0	2091	7	2612	549
31	0	0	2043	8	2616	548
32	0	0	2019	9	2618	547
33	0	0	2008	9	2616	547
34	0	0	1973	8	2609	546
35	0	0	1903	5	2597	545
36	0	0	1882	11	2593	543
37	0	0	1912	11	2594	542
38	0	0	1953	10	2599	542
39	0	0	1999	9	2605	542
40	0	0	2061	11	2611	542
41	0	0	2136	10	2617	543
42	0	0	2205	11	2618	542
43	0	0	2255	11	2616	539
44	0	0	2253	8	2608	538
45	0	0	2229	6	2597	538
46	0	0	2195	8	2593	537
47	0	0	2133	7	2593	535
48	0	0	2110	10	2599	535
49	0	0	2079	7	2605	538
50	0	0	2031	9	2612	533
51	0	0	2003	9	2617	535
52	0	0	1990	9	2618	534
53	0	0	1964	8	2615	533
54	0	0	1931	7	2609	530
55	0	0	1899	7	2598	531
56	0	0	1895	10	2593	530
57	0	0	1920	11	2594	530
58	0	0	1992	10	2599	529
59	0	0	2094	10	2605	529
60	0	0	2169	10	2612	525
61	0	0	2213	10	2617	527
62	0	0	2245	11	2618	527
63	0	0	2259	11	2616	525
64	0	0	2265	9	2608	525
65	0	0	2263	12	2597	526
66	0	0	2226	8	2593	523
67	0	0	2198	10	2595	523
68	0	0	2191	12	2599	523
69	0	0	2182	11	2605	522
70	0	0	2161	8	2612	521
71	0	0	2119	7	2616	520
72	0	0	2076	8	2617	519
73	0	0	2048	7	2615	520
74	0	0	2015	7	2608	519
75	0	0	1978	8	2597	519
76	0	0	1983	10	2593	519
77	0	0	2028	11	2594	518
78	0	0	2071	11	2599	516
79	0	0	2119	11	2605	516
80	0	0	2162	12	2612	516
81	0	0	2196	11	2617	517
82	0	0	2219	10	2617	515
83	0	0	2247	10	2616	513
84	0	0	2251	14	2609	512
85	0	0	2247	12	2597	512
86	0	0	2251	10	2593	512
87	0	0	2235	10	2594	512
88	0	0	2220	12	2598	509
89	0	0	2199	8	2605	508
90	0	0	2167	9	2612	506
91	0	0	2120	7	2616	507
92	0	0	2069	7	2617	507
93	0	0	2002	7	2615	506
94	0	0	1929	7	2608	506
95	0	0	1884	8	2598	507
96	0	0	1897	10	2593	503
97	0	0	1972	10	2595	502
98	0	0	2045	11	2599	503
99	0	0	2126	10	2605	503
100	0	0	2197	10	2612	502
101	0	0	2238	10	2616	503
102	0	0	2253	10	2618	499
103	0	0	2275	11	2615	501
104	0	0	2298	11	2608	499
105	0	0	2308	12	2597	500
106	0	0	2285	7	2593	499
107	0	0	2238	10	2594	498
108	0	0	2218	11	2598	498
109	0	0	2231	12	2605	497
110	0	0	2185	8	2612	498
111	0	0	2084	4	2616	495
112	0	0	1967	8	2617	497
113	0	0	1914	8	2616	495
114	0	0	1920	11	2609	493
115	0	0	1927	12	2598	496
116	0	0	1947	10	2593	492
117	0	0	1986	10	2594	491
118	0	0	2026	11	2599	492
119	0	0	2055	12	2605	491
120	0	0	2107	12	2612	493
121	0	0	2160	9	2616	489
122	0	0	2180	10	2617	490
123	0	0	2186	11	2615	489
124	0	0	2192	11	2608	487
125	0	0	2206	10	2597	487
126	0	0	2218	11	2593	486
127	0	0	2173	7	2594	485
0	0	0	2070	7	2599	486
1	0	0	1979	7	2605	485
2	0	0	1920	8	2612	485
3	0	0	1910	11	2617	483
4	0	0	1924	11	2618	483
5	0	0	1925	10	2616	483
6	0	0	1918	10	2609	480
7	0	0	1905	8	2598	481
8	0	0	1905	11	2593	481
9	0	0	1952	12	2594	480
10	0	0	2008	12	2599	480
11	0	0	2044	11	2605	480
12	0	0	2085	15	2611	477
13	0	0	2132	10	2616	478
14	0	0	2170	11	2617	477
15	0	0	2170	10	2615	478
16	0	0	2128	9	2608	477
17	0	0	2087	8	2597	479
18	0	0	2054	7	2593	475
19	0	0	2022	8	2594	473
20	0	0	1979	7	2599	474
21	0	0	1930	7	2605	475
22	0	0	1886	11	2612	473
23	0	0	1856	7	2616	471
24	0	0	1844	11	2618	470
25	0	0	1868	7	2615	472
26	0	0	1887	11	2608	471
27	0	0	1859	7	2598	470
28	0	0	1843	10	2593	470
29	0	0	1886	10	2594	468
30	0	0	1925	11	2599	469
31	0	0	1984	12	2605	469
32	0	0	2046	10	2611	468
33	0	0	2094	11	2617	469
34	0	0	2123	11	2618	467
35	0	0	2097	9	2616	467
36	0	0	2069	10	2608	467
37	0	0	2093	14	2597	465
38	0	0	2109	12	2593	464
39	0	0	2075	7	2594	465
40	0	0	2026	7	2599	464
41	0	0	1987	7	2605	463
42	0	0	1953	6	2612	463
43	0	0	1909	6	2616	463
44	0	0	1884	8	2617	461
45	0	0	1876	10	2616	461
46	0	0	1879	11	2608	459
47	0	0	1846	5	2597	459
48	0	0	1816	7	2593	460
49	0	0	1840	11	2594	460
50	0	0	1871	11	2599	459
51	0	0	1915	10	2606	456
52	0	0	1969	10	2613	457
53	0	0	1999	10	2616	457
54	0	0	2024	11	2618	457
55	0	0	2061	9	2615	457
56	0	0	2059	10	2608	456
57	0	0	2057	11	2597	454
58	0	0	2075	10	2593	454
59	0	0	2057	11	2593	454
60	0	0	2020	8	2599	454
61	0	0	1974	8	2605	454
62	0	0	1934	6	2611	453
63	0	0	1887	6	2616	455
64	0	0	1869	10	2617	452
65	0	0	1868	8	2616	452
66	0	0	1856	8	2608	450
67	0	0	1831	9	2598	450
68	0	0	1845	9	2594	450
69	0	0	1880	11	2595	449
70	0	0	1908	12	2599	449
71	0	0	1937	11	2605	448
72	0	0	1994	15	2612	448
73	0	0	2055	10	2616	449
74	0	0	2090	11	2617	446
75	0	0	2098	12	2615	447
76	0	0	2070	6	2608	446
77	0	0	2044	9	2597	444
78	0	0	2021	5	2593	447
79	0	0	1994	10	2594	442
80	0	0	1994	11	2598	448
81	0	0	2002	10	2605	444
82	0	0	1998	11	2612	443
83	0	0	1984	10	2617	442
84	0	0	1981	11	2618	444
85	0	0	1985	11	2616	442
86	0	0	1970	8	2609	441
87	0	0	1901	7	2598	440
88	0	0	1826	6	2593	440
89	0	0	1817	10	2595	439
90	0	0	1857	12	2599	439
91	0	0	1932	11	2605	439
92	0	0	2044	11	2612	438
93	0	0	2160	11	2616	438
94	0	0	2212	11	2617	438
95	0	0	2195	7	2615	437
96	0	0	2111	6	2608	437
97	0	0	2025	6	2597	436
98	0	0	1995	8	2593	435
99	0	0	1989	11	2594	436
100	0	0	1980	9	2599	434
101	0	0	1956	7	2605	435
102	0	0	1930	7	2612	434
103	0	0	1913	8	2617	434
104	0	0	1910	11	2618	431
105	0	0	1922	11	2616	432
106	0	0	1913	6	2608	432
107	0	0	1858	5	2597	433
108	0	0	1817	5	2593	430
109	0	0	1829	11	2594	430
110	0	0	1880	11	2599	431
111	0	0	1957	7	2605	430
112	0	0	2007	11	2611	430
113	0	0	2048	9	2616	431
114	0	0	2108	13	2618	430
115	0	0	2170	11	2616	429
116	0	0	2197	10	2608	428
117	0	0	2163	5	2597	429
118	0	0	2100	8	2593	426
119	0	0	2040	8	2595	426
120	0	0	2020	9	2599	426
121	0	0	2014	12	2606	425
122	0	0	2000	8	2612	425
123	0	0	1978	8	2617	425
124	0	0	1972	11	2617	423
125	0	0	1963	11	2616	424
126	0	0	1941	8	2609	424
127	0	0	1902	8	2598	423
0	0	0	1904	10	2593	424
1	0	0	1951	11	2594	423
2	0	0	1999	8	2599	422
3	0	0	2027	12	2605	424
4	0	0	2031	8	2612	423
5	0	0	1994	8	2617	420
6	0	0	1982	11	2618	419
7	0	0	2018	11	2615	419
8	0	0	2090	11	2609	419
9	0	0	2151	10	2598	418
10	0	0	2140	9	2593	418
11	0	0	2121	10	2594	415
12	0	0	2092	6	2599	418
13	0	0	2036	7	2605	417
14	0	0	1991	9	2612	420
15	0	0	1964	7	2616	416
16	0	0	1936	9	2617	415
17	0	0	1939	14	2615	415
18	0	0	1928	9	2609	416
19	0	0	1908	7	2597	415
20	0	0	1910	10	2593	414
21	0	0	1923	11	2594	411
22	0	0	1944	11	2599	412
23	0	0	1989	10	2606	415
24	0	0	2039	8	2612	413
25	0	0	2070	13	2616	412
26	0	0	2097	11	2618	413
27	0	0	2119	11	2616	412
28	0	0	2119	11	2609	411
29	0	0	2113	12	2597	410
30	0	0	2107	14	2593	410
31	0	0	2084	8	2595	409
32	0	0	2053	5	2599	409
33	0	0	2029	9	2605	408
34	0	0	2025	11	2611	407
35	0	0	2001	8	2616	409
36	0	0	1944	7	2617	407
37	0	0	1884	8	2616	408
38	0	0	1866	11	2609	407
39	0	0	1857	10	2598	406
40	0	0	1839	9	2593	405
41	0	0	1854	11	2594	401
42	0	0	1903	14	2599	405
43	0	0	1968	12	2606	408
44	0	0	2018	12	2612	404
45	0	0	2051	11	2617	404
46	0	0	2079	11	2617	403
47	0	0	2127	11	2616	404
48	0	0	2169	11	2608	403
49	0	0	2171	8	2597	403
50	0	0	2131	6	2593	401
51	0	0	2085	7	2594	400
52	0	0	2069	11	2599	401
53	0	0	2066	11	2605	401
54	0	0	2033	8	2612	401
55	0	0	1987	12	2617	401
56	0	0	1953	9	2618	399
57	0	0	1957	11	2616	400
58	0	0	1970	11	2609	399
59	0	0	1935	4	2598	399
60	0	0	1882	6	2594	397
61	0	0	1865	10	2594	396
62	0	0	1876	10	2599	395
63	0	0	1916	11	2605	397
64	0	0	1984	12	2612	396
65	0	0	2046	10	2616	396
66	0	0	2087	11	2618	395
67	0	0	2123	11	2616	395
68	0	0	2132	9	2609	395
69	0	0	2112	11	2597	394
70	0	0	2092	9	2593	394
71	0	0	2089	11	2594	389
72	0	0	2088	10	2600	393
73	0	0	2061	7	2606	394
74	0	0	2033	8	2611	393
75	0	0	2015	8	2617	392
76	0	0	1968	7	2618	392
77	0	0	1910	6	2616	392
78	0	0	1899	11	2609	392
79	0	0	1918	11	2597	391
80	0	0	1927	9	2594	388
81	0	0	1948	11	2594	386
82	0	0	1977	10	2599	389
83	0	0	2004	11	2605	392
84	0	0	2022	10	2612	389
85	0	0	2043	9	2616	389
86	0	0	2053	11	2618	388
87	0	0	2063	10	2615	389
88	0	0	2106	11	2608	387
89	0	0	2127	11	2597	385
90	0	0	2112	7	2593	386
91	0	0	2101	10	2594	386
92	0	0	2083	9	2599	387
93	0	0	2065	8	2605	386
94	0	0	2087	11	2612	384
95	0	0	2104	8	2617	386
96	0	0	2055	12	2617	384
97	0	0	1957	7	2615	385
98	0	0	1866	8	2609	384
99	0	0	1822	8	2597	384
100	0	0	1816	11	2593	383
101	0	0	1833	11	2594	384
102	0	0	1846	12	2600	382
103	0	0	1875	11	2605	384
104	0	0	1936	11	2612	384
105	0	0	2000	10	2617	382
106	0	0	2055	11	2618	380
107	0	0	2095	11	2616	382
108	0	0	2118	8	2609	380
109	0	0	2137	12	2597	380
110	0	0	2111	6	2593	379
111	0	0	2055	8	2594	376
112	0	0	2001	7	2599	379
113	0	0	1978	8	2606	379
114	0	0	1981	11	2611	378
115	0	0	1980	11	2617	378
116	0	0	1968	11	2617	378
117	0	0	1972	12	2616	377
118	0	0	1986	11	2609	375
119	0	0	1977	9	2597	376
120	0	0	1978	8	2593	375
121	0	0	1992	11	2595	374
122	0	0	1985	9	2599	375
123	0	0	1985	11	2606	376
124	0	0	2020	11	2613	374
125	0	0	2069	13	2617	375
126	0	0	2107	11	2618	375
127	0	0	2130	12	2616	374
0	0	0	2132	10	2609	374
1	0	0	2103	8	2597	376
2	0	0	2081	11	2593	372
3	0	0	2082	11	2594	372
4	0	0	2062	8	2599	372
5	0	0	2021	7	2605	372
6	0	0	1977	11	2611	370
7	0	0	1925	4	2617	371
8	0	0	1879	10	2618	371
9	0	0	1873	15	2616	371
10	0	0	1901	9	2609	369
11	0	0	1892	8	2598	372
12	0	0	1886	10	2594	369
13	0	0	1914	11	2594	368
14	0	0	1982	7	2599	368
15	0	0	2057	14	2606	369
16	0	0	2131	15	2611	368
17	0	0	2183	11	2617	368
18	0	0	2194	11	2618	368
19	0	0	2173	7	2616	367
20	0	0	2161	12	2608	368
21	0	0	2175	11	2597	366
22	0	0	2173	11	2593	363
23	0	0	2133	8	2594	366
24	0	0	2080	6	2599	366
25	0	0	2021	8	2605	366
26	0	0	1988	11	2611	365
27	0	0	1976	10	2616	365
28	0	0	1957	9	2618	364
29	0	0	1935	8	2616	365
30	0	0	1914	8	2609	364
31	0	0	1890	9	2598	363
32	0	0	1884	12	2594	362
33	0	0	1929	10	2595	363
34	0	0	1991	11	2599	362
35	0	0	2051	11	2606	364
36	0	0	2079	11	2612	361
37	0	0	2108	11	2616	362
38	0	0	2132	12	2618	361
39	0	0	2122	7	2615	361
40	0	0	2100	9	2609	361
41	0	0	2106	11	2598	359
42	0	0	2138	14	2593	359
43	0	0	2157	11	2595	358
44	0	0	2140	7	2599	359
45	0	0	2129	11	2606	361
46	0	0	2105	7	2612	358
47	0	0	2059	8	2617	359
48	0	0	2012	8	2617	358
49	0	0	1982	7	2616	358
50	0	0	1975	14	2609	357
51	0	0	1956	8	2599	359
52	0	0	1935	11	2594	356
53	0	0	1960	11	2595	356
54	0	0	1992	10	2599	356
55	0	0	2018	15	2605	356
56	0	0	2063	9	2612	355
57	0	0	2101	15	2616	355
58	0	0	2141	10	2618	355
59	0	0	2169	9	2616	354
60	0	0	2130	6	2609	355
61	0	0	2106	11	2597	354
62	0	0	2109	11	2594	353
63	0	0	2120	11	2594	352
64	0	0	2147	11	2600	353
65	0	0	2143	12	2605	354
66	0	0	2100	8	2612	351
67	0	0	2029	9	2617	352
68	0	0	1969	7	2618	352
69	0	0	1940	9	2616	351
70	0	0	1950	12	2609	351
71	0	0	1971	11	2597	351
72	0	0	1995	14	2593	349
73	0	0	2015	10	2594	350
74	0	0	2038	11	2599	350
75	0	0	2076	11	2606	350
76	0	0	2135	11	2612	349
77	0	0	2142	9	2617	349
78	0	0	2101	8	2618	349
79	0	0	2058	7	2616	349
80	0	0	2050	11	2609	349
81	0	0	2084	11	2598	347
82	0	0	2160	10	2593	347
83	0	0	2191	12	2595	347
84	0	0	2175	7	2599	347
85	0	0	2149	13	2605	347
86	0	0	2105	6	2612	347
87	0	0	2017	5	2617	345
88	0	0	1945	6	2617	347
89	0	0	1910	8	2616	345
90	0	0	1908	9	2609	345
91	0	0	1904	11	2598	347
92	0	0	1929	10	2594	344
93	0	0	1948	11	2595	344
94	0	0	1945	11	2599	344
95	0	0	1984	11	2606	345
96	0	0	2049	10	2613	343
97	0	0	2108	10	2617	343
98	0	0	2165	11	2618	344
99	0	0	2232	11	2616	343
100	0	0	2255	11	2608	342
101	0	0	2227	7	2598	343
102	0	0	2150	5	2593	342
103	0	0	2044	7	2594	344
104	0	0	1964	4	2599	341
105	0	0	1927	9	2605	341
106	0	0	1931	11	2612	341
107	0	0	1941	10	2616	341
108	0	0	1935	10	2617	341
109	0	0	1939	11	2616	341
110	0	0	1947	9	2609	339
111	0	0	1911	8	2599	339
112	0	0	1874	8	2594	338
113	0	0	1880	10	2595	338
114	0	0	1912	11	2599	338
115	0	0	1950	11	2605	338
116	0	0	1986	13	2612	336
117	0	0	2000	10	2616	337
118	0	0	2016	12	2617	338
119	0	0	2056	11	2615	336
120	0	0	2076	10	2609	337
121	0	0	2093	14	2598	335
122	0	0	2064	8	2593	336
123	0	0	2044	11	2595	335
124	0	0	2049	11	2599	336
125	0	0	2057	11	2605	336
126	0	0	2058	10	2612	335
127	0	0	2030	8	2616	335
0	0	0	2002	4	2617	335
1	0	0	1969	8	2616	334
2	0	0	1935	7	2609	334
3	0	0	1899	7	2598	331
4	0	0	1858	8	2593	333
5	0	0	1845	11	2594	333
6	0	0	1852	11	2599	335
7	0	0	1870	11	2605	333
8	0	0	1905	11	2612	331
9	0	0	1956	12	2617	332
10	0	0	2021	11	2617	332
11	0	0	2088	10	2616	332
12	0	0	2127	11	2609	332
13	0	0	2119	9	2598	331
14	0	0	2087	7	2593	330
15	0	0	2059	9	2594	328
16	0	0	2073	10	2600	330
17	0	0	2094	11	2606	331
18	0	0	2082	9	2612	330
19	0	0	2058	9	2617	330
20	0	0	2038	9	2618	329
21	0	0	2032	10	2616	329
22	0	0	2044	11	2610	329
23	0	0	2046	11	2598	328
24	0	0	2050	11	2594	328
25	0	0	2091	11	2594	328
26	0	0	2176	10	2600	327
27	0	0	2287	11	2606	328
28	0	0	2387	11	2612	327
29	0	0	2442	12	2617	327
30	0	0	2474	11	2618	326
31	0	0	2484	10	2616	327
32	0	0	2510	10	2608	326
33	0	0	2543	10	2598	326
34	0	0	2567	12	2593	325
35	0	0	2569	11	2594	325
36	0	0	2548	8	2599	325
37	0	0	2519	8	2606	325
38	0	0	2472	8	2611	325
39	0	0	2424	7	2617	324
40	0	0	2394	12	2617	325
41	0	0	2385	11	2616	324
42	0	0	2355	7	2609	324
43	0	0	2304	6	2598	323
44	0	0	2257	8	2593	322
45	0	0	2244	11	2594	325
46	0	0	2256	10	2600	322
47	0	0	2285	11	2607	323
48	0	0	2317	11	2612	322
49	0	0	2301	7	2617	322
50	0	0	2234	7	2618	322
51	0	0	2137	7	2616	322
52	0	0	2045	6	2609	320
53	0	0	2001	8	2597	320
54	0	0	1978	7	2593	320
55	0	0	1972	11	2594	319
56	0	0	1973	11	2599	320
57	0	0	1953	7	2606	320
58	0	0	1906	7	2611	320
59	0	0	1846	8	2616	319
60	0	0	1805	7	2618	319
61	0	0	1793	8	2615	319
62	0	0	1798	10	2609	317
63	0	0	1766	7	2598	318
64	0	0	1740	7	2593	317
65	0	0	1751	11	2595	317
66	0	0	1791	12	2599	317
67	0	0	1868	11	2606	317
68	0	0	1948	10	2612	317
69	0	0	1992	11	2617	317
70	0	0	2034	11	2618	316
71	0	0	2096	12	2616	316
72	0	0	2137	11	2609	316
73	0	0	2163	11	2596	314
74	0	0	2168	7	2593	314
75	0	0	2143	8	2594	315
76	0	0	2105	7	2599	314
77	0	0	2054	7	2605	314
78	0	0	2008	8	2611	314
79	0	0	1995	12	2615	314
80	0	0	1984	8	2617	314
81	0	0	1959	12	2615	314
82	0	0	1929	8	2609	312
83	0	0	1890	8	2598	312
84	0	0	1879	7	2593	312
85	0	0	1897	11	2595	312
86	0	0	1913	11	2599	312
87	0	0	1933	10	2605	312
88	0	0	1979	10	2612	312
89	0	0	2054	8	2616	311
90	0	0	2111	7	2617	312
91	0	0	2153	12	2615	312
92	0	0	2188	11	2608	311
93	0	0	2179	11	2597	311
94	0	0	2130	3	2593	309
95	0	0	2065	11	2594	310
96	0	0	2015	8	2599	312
97	0	0	2000	11	2604	309
98	0	0	1990	9	2612	310
99	0	0	1969	6	2617	309
100	0	0	1948	8	2618	310
101	0	0	1956	12	2616	308
102	0	0	1992	11	2609	308
103	0	0	2006	11	2598	308
104	0	0	2026	8	2593	307
105	0	0	2061	10	2594	308
106	0	0	2066	10	2599	307
107	0	0	2033	7	2605	307
108	0	0	1981	8	2611	308
109	0	0	1958	8	2616	307
110	0	0	1980	11	2617	307
111	0	0	2010	11	2615	308
112	0	0	2054	12	2608	306
113	0	0	2112	11	2597	306
114	0	0	2158	12	2593	305
115	0	0	2149	9	2594	305
116	0	0	2110	7	2600	306
117	0	0	2054	7	2605	306
118	0	0	2003	8	2612	305
119	0	0	1979	8	2617	305
120	0	0	1960	8	2618	305
121	0	0	1941	13	2615	304
122	0	0	1916	9	2608	304
123	0	0	1862	6	2598	304
124	0	0	1837	8	2593	302
125	0	0	1865	10	2594	303
126	0	0	1938	15	2598	302
127	0	0	2014	11	2605	303
0	0	0	2072	11	2611	303
1	0	0	2105	8	2616	303
2	0	0	2131	11	2617	302
3	0	0	2154	11	2616	302
4	0	0	2177	11	2609	302
5	0	0	2190	11	2598	301
6	0	0	2206	11	2593	300
7	0	0	2210	11	2594	301
8	0	0	2193	7	2600	301
9	0	0	2151	7	2605	302
10	0	0	2070	7	2612	300
11	0	0	2000	6	2616	300
12	0	0	1950	7	2617	301
13	0	0	1928	10	2615	300
14	0	0	1944	12	2608	299
15	0	0	1930	8	2597	299
16	0	0	1927	10	2593	298
17	0	0	1960	11	2594	297
18	0	0	1997	11	2598	299
19	0	0	2052	9	2605	299
20	0	0	2099	11	2611	298
21	0	0	2131	10	2617	298
22	0	0	2161	11	2617	298
23	0	0	2194	12	2616	297
24	0	0	2180	8	2609	298
25	0	0	2154	10	2597	297
26	0	0	2154	8	2593	296
27	0	0	2143	10	2594	296
28	0	0	2132	10	2599	297
29	0	0	2105	7	2605	297
30	0	0	2077	8	2611	297
31	0	0	2030	7	2616	295
32	0	0	1971	7	2618	296
33	0	0	1958	12	2615	296
34	0	0	1962	12	2608	295
35	0	0	1964	11	2597	295
36	0	0	1975	10	2593	293
37	0	0	2028	13	2594	294
38	0	0	2080	11	2599	294
39	0	0	2121	12	2605	294
40	0	0	2150	9	2611	294
41	0	0	2183	10	2617	293
42	0	0	2232	11	2617	294
43	0	0	2259	11	2616	294
44	0	0	2243	8	2609	293
45	0	0	2211	9	2597	293
46	0	0	2164	6	2593	292
47	0	0	2103	7	2595	291
48	0	0	2056	10	2599	293
49	0	0	2024	8	2605	293
50	0	0	1988	7	2611	292
51	0	0	1972	8	2616	291
52	0	0	1998	11	2617	293
53	0	0	2029	11	2615	291
54	0	0	2030	11	2608	290
55	0	0	1998	8	2597	292
56	0	0	1965	8	2593	290
57	0	0	1965	11	2594	288
58	0	0	1999	8	2599	289
59	0	0	2025	12	2605	289
60	0	0	2056	10	2612	291
61	0	0	2092	10	2616	289
62	0	0	2117	12	2617	290
63	0	0	2123	10	2615	290
64	0	0	2126	12	2607	289
65	0	0	2156	11	2597	289
66	0	0	2202	11	2593	288
67	0	0	2203	11	2593	289
68	0	0	2203	11	2598	287
69	0	0	2205	10	2605	287
70	0	0	2172	8	2612	289
71	0	0	2119	4	2616	289
72	0	0	2076	7	2617	288
73	0	0	2025	7	2615	287
74	0	0	1988	8	2608	287
75	0	0	1958	7	2597	287
76	0	0	1956	10	2593	285
77	0	0	1974	11	2594	286
78	0	0	2009	10	2598	286
79	0	0	2072	10	2605	287
80	0	0	2135	11	2612	286
81	0	0	2166	11	2616	285
82	0	0	2176	11	2617	286
83	0	0	2182	11	2615	285
84	0	0	2183	11	2608	284
85	0	0	2190	11	2597	283
86	0	0	2191	12	2593	284
87	0	0	2186	10	2594	283
88	0	0	2150	10	2599	285
89	0	0	2107	9	2605	284
90	0	0	2113	11	2612	284
91	0	0	2133	11	2616	283
92	0	0	2146	11	2618	283
93	0	0	2108	7	2616	284
94	0	0	2011	7	2608	282
95	0	0	1939	7	2597	282
96	0	0	1938	11	2592	282
97	0	0	1969	11	2594	282
98	0	0	2020	10	2599	283
99	0	0	2075	11	2605	283
100	0	0	2115	11	2611	282
101	0	0	2137	11	2616	282
102	0	0	2168	12	2616	282
103	0	0	2200	11	2615	281
104	0	0	2229	11	2608	281
105	0	0	2252	11	2597	281
106	0	0	2255	11	2592	279
107	0	0	2237	10	2594	280
108	0	0	2218	8	2598	280
109	0	0	2182	8	2605	281
110	0	0	2134	8	2611	280
111	0	0	2096	9	2616	280
112	0	0	2072	9	2617	279
113	0	0	2072	11	2615	279
114	0	0	2083	11	2608	278
115	0	0	2073	11	2597	268
116	0	0	2065	11	2592	278
117	0	0	2078	11	2593	278
118	0	0	2111	13	2598	277
119	0	0	2147	11	2605	279
120	0	0	2181	11	2611	278
121	0	0	2210	11	2616	278
122	0	0	2237	11	2617	278
123	0	0	2260	10	2615	277
124	0	0	2273	14	2607	275
125	0	0	2279	11	2597	276
126	0	0	2270	10	2592	276
127	0	0	2236	8	2593	276
0	0	0	2186	8	2598	277
1	0	0	2139	11	2604	276
2	0	0	2112	9	2611	276
3	0	0	2094	10	2615	276
4	0	0	2102	8	2616	277
5	0	0	2122	11	2614	276
6	0	0	2103	8	2608	275
7	0	0	2049	7	2597	274
8	0	0	2034	11	2592	275
9	0	0	2057	11	2594	274
10	0	0	2078	11	2598	274
11	0	0	2105	11	2604	275
12	0	0	2161	11	2611	272
13	0	0	2225	11	2615	274
14	0	0	2268	11	2617	273
15	0	0	2277	12	2615	274
16	0	0	2267	11	2608	274
17	0	0	2267	12	2596	273
18	0	0	2253	8	2591	273
19	0	0	2198	7	2594	272
20	0	0	2174	9	2598	273
21	0	0	2211	11	2604	273
22	0	0	2195	7	2611	271
23	0	0	2121	8	2615	273
24	0	0	2048	7	2617	272
25	0	0	2016	6	2615	272
26	0	0	2018	11	2608	271
27	0	0	2019	9	2596	270
28	0	0	2009	11	2592	271
29	0	0	2033	11	2594	270
30	0	0	2040	11	2598	271
31	0	0	2035	11	2604	271
32	0	0	2040	11	2611	268
33	0	0	2073	12	2615	270
34	0	0	2122	12	2616	271
35	0	0	2161	11	2614	270
36	0	0	2187	11	2608	271
37	0	0	2212	11	2596	268
38	0	0	2208	11	2591	269
39	0	0	2173	7	2593	269
40	0	0	2128	8	2597	267
41	0	0	2071	9	2604	271
42	0	0	2028	8	2610	267
43	0	0	2009	9	2615	267
44	0	0	1987	8	2616	269
45	0	0	1951	8	2614	270
46	0	0	1918	8	2607	269
47	0	0	1908	8	2597	268
48	0	0	1910	16	2592	268
49	0	0	1933	15	2593	265
50	0	0	1947	11	2597	267
51	0	0	1963	11	2604	267
52	0	0	2000	11	2610	265
53	0	0	2037	12	2614	267
54	0	0	2060	9	2615	267
55	0	0	2063	13	2613	266
56	0	0	2067	12	2607	266
57	0	0	2085	12	2596	265
58	0	0	2096	11	2591	266
59	0	0	2068	7	2592	265
60	0	0	1997	9	2597	265
61	0	0	1939	8	2604	263
62	0	0	1939	10	2610	265
63	0	0	1954	11	2615	267
64	0	0	1966	11	2616	265
65	0	0	1953	8	2614	263
66	0	0	1925	8	2607	265
67	0	0	1878	7	2596	263
68	0	0	1848	10	2591	264
69	0	0	1856	12	2592	264
70	0	0	1873	12	2596	263
71	0	0	1910	11	2604	264
72	0	0	1963	10	2610	262
73	0	0	2000	11	2615	263
74	0	0	2028	12	2615	264
75	0	0	2044	12	2613	265
76	0	0	2051	11	2607	263
77	0	0	2045	11	2596	262
78	0	0	2035	11	2591	263
79	0	0	2051	11	2592	262
80	0	0	2065	10	2597	264
81	0	0	2034	8	2603	262
82	0	0	1961	8	2611	262
83	0	0	1895	8	2615	262
84	0	0	1875	12	2616	262
85	0	0	1905	7	2614	261
86	0	0	1930	10	2607	262
87	0	0	1886	7	2595	259
88	0	0	1868	11	2591	261
89	0	0	1888	11	2592	261
90	0	0	1913	11	2596	259
91	0	0	1951	11	2603	261
92	0	0	2010	10	2609	260
93	0	0	2067	11	2615	260
94	0	0	2084	11	2615	260
95	0	0	2055	6	2613	260
96	0	0	2014	8	2607	260
97	0	0	2009	13	2596	258
98	0	0	2004	9	2591	259
99	0	0	1988	10	2592	259
100	0	0	2001	12	2596	258
101	0	0	2014	10	2603	258
102	0	0	2011	10	2609	257
103	0	0	2004	9	2614	257
104	0	0	1954	7	2615	259
105	0	0	1890	7	2612	259
106	0	0	1849	7	2606	259
107	0	0	1813	7	2595	257
108	0	0	1805	11	2591	258
109	0	0	1831	11	2592	257
110	0	0	1858	7	2596	258
111	0	0	1905	10	2603	257
112	0	0	1963	11	2609	258
113	0	0	2025	11	2613	257
114	0	0	2082	11	2616	257
115	0	0	2119	11	2613	256
116	0	0	2144	11	2606	257
117	0	0	2163	11	2595	255
118	0	0	2172	11	2591	255
119	0	0	2148	7	2591	256
120	0	0	2091	8	2596	255
121	0	0	2013	7	2603	255
122	0	0	1942	7	2609	254
123	0	0	1887	7	2614	255
124	0	0	1838	8	2615	256
125	0	0	1808	8	2613	256
126	0	0	1793	9	2606	255
127	0	0	1778	8	2595	254
0	0	0	1797	11	2591	255
1	0	0	1862	11	2592	254
2	0	0	1923	10	2596	254
3	0	0	1981	11	2603	254
4	0	0	2022	11	2608	255
5	0	0	2050	11	2612	254
6	0	0	2076	11	2615	254
7	0	0	2113	7	2612	255
8	0	0	2123	9	2606	253
9	0	0	2100	8	2594	254
10	0	0	2025	8	2590	252
11	0	0	1963	7	2591	252
12	0	0	1958	11	2595	252
13	0	0	1990	10	2602	252
14	0	0	2028	11	2608	253
15	0	0	2015	7	2614	252
16	0	0	1964	7	2614	252
17	0	0	1914	7	2612	252
18	0	0	1888	8	2606	252
19	0	0	1868	9	2595	251
20	0	0	1875	10	2590	251
21	0	0	1915	10	2591	251
22	0	0	1963	11	2595	250
23	0	0	2001	10	2602	251
24	0	0	2038	13	2608	251
25	0	0	2067	11	2613	250
26	0	0	2092	10	2614	250
27	0	0	2103	11	2612	250
28	0	0	2083	8	2605	250
29	0	0	2079	10	2594	247
30	0	0	2090	10	2589	250
31	0	0	2121	11	2590	250
32	0	0	2173	12	2595	248
33	0	0	2197	10	2602	249
34	0	0	2146	6	2608	248
35	0	0	2038	7	2613	248
36	0	0	1905	7	2614	249
37	0	0	1805	7	2612	248
38	0	0	1773	10	2605	248
39	0	0	1793	12	2594	246
40	0	0	1836	10	2589	247
41	0	0	1888	11	2590	248
42	0	0	1946	11	2595	246
43	0	0	1996	11	2600	247
44	0	0	2041	13	2608	248
45	0	0	2079	12	2611	247
46	0	0	2102	11	2613	248
47	0	0	2106	11	2611	247
48	0	0	2100	11	2604	249
49	0	0	2113	10	2593	247
50	0	0	2124	11	2588	246
51	0	0	2098	8	2590	247
52	0	0	2064	8	2595	246
53	0	0	2027	8	2601	246
54	0	0	1989	7	2607	246
55	0	0	1946	3	2611	244
56	0	0	1908	7	2613	246
57	0	0	1876	7	2612	246
58	0	0	1846	7	2604	245
59	0	0	1824	9	2593	243
60	0	0	1842	10	2589	244
61	0	0	1888	10	2589	245
62	0	0	1933	11	2595	244
63	0	0	1967	11	2601	244
64	0	0	1997	11	2607	243
65	0	0	2035	10	2610	244
66	0	0	2082	11	2613	244
67	0	0	2102	11	2611	244
68	0	0	2072	8	2603	244
69	0	0	2046	10	2593	243
70	0	0	2041	10	2588	243
71	0	0	2048	11	2589	244
72	0	0	2034	8	2594	243
73	0	0	1999	8	2599	245
74	0	0	1958	7	2606	242
75	0	0	1940	10	2611	242
76	0	0	1938	10	2612	242
77	0	0	1934	13	2610	242
78	0	0	1948	10	2603	243
79	0	0	1934	8	2592	241
80	0	0	1916	7	2586	240
81	0	0	1939	11	2588	241
82	0	0	1989	11	2594	242
83	0	0	2026	12	2599	243
84	0	0	2075	11	2606	240
85	0	0	2122	11	2610	241
86	0	0	2129	11	2612	243
87	0	0	2116	9	2610	241
88	0	0	2109	10	2602	243
89	0	0	2096	9	2591	240
90	0	0	2057	7	2587	240
91	0	0	1997	7	2588	241
92	0	0	1974	7	2593	240
93	0	0	1981	12	2599	243
94	0	0	1994	12	2605	240
95	0	0	1985	8	2610	240
96	0	0	1943	8	2611	240
97	0	0	1897	8	2609	239
98	0	0	1878	9	2601	240
99	0	0	1854	8	2591	240
100	0	0	1828	9	2587	238
101	0	0	1834	11	2587	239
102	0	0	1868	11	2592	239
103	0	0	1919	11	2598	239
104	0	0	1986	11	2605	239
105	0	0	2016	12	2609	238
106	0	0	2022	11	2610	239
107	0	0	2033	9	2609	238
108	0	0	2063	11	2601	239
109	0	0	2121	12	2590	238
110	0	0	2128	8	2585	238
111	0	0	2092	8	2586	239
112	0	0	2068	8	2591	238
113	0	0	2036	7	2597	239
114	0	0	2012	8	2604	237
115	0	0	1980	8	2608	237
116	0	0	1949	7	2611	236
117	0	0	1913	6	2608	237
118	0	0	1890	9	2601	237
119	0	0	1861	8	2591	237
120	0	0	1848	7	2585	234
121	0	0	1885	11	2587	236
122	0	0	1932	7	2591	236
123	0	0	1994	12	2596	236
124	0	0	2052	10	2603	238
125	0	0	2084	11	2608	235
126	0	0	2110	11	2609	236
127	0	0	2126	9	2607	236
0	0	0	2112	9	2601	235
1	0	0	2082	8	2589	236
2	0	0	2064	9	2585	234
3	0	0	2040	8	2585	235
4	0	0	2008	7	2590	235
5	0	0	1986	9	2596	234
6	0	0	1968	9	2603	233
7	0	0	1968	10	2608	233
8	0	0	1931	6	2610	235
9	0	0	1869	11	2607	233
10	0	0	1827	10	2601	235
11	0	0	1809	8	2589	236
12	0	0	1840	11	2584	234
13	0	0	1896	11	2584	236
14	0	0	1948	8	2590	234
15	0	0	1995	11	2596	232
16	0	0	2027	12	2601	232
17	0	0	2055	11	2606	233
18	0	0	2098	11	2608	233
19	0	0	2132	8	2606	233
20	0	0	2153	11	2599	237
21	0	0	2158	9	2588	237
22	0	0	2135	7	2583	231
23	0	0	2079	7	2584	233
24	0	0	2039	8	2589	231
25	0	0	2003	9	2595	233
26	0	0	1982	9	2601	232
27	0	0	1954	8	2606	232
28	0	0	1902	7	2607	233
29	0	0	1863	7	2605	232
30	0	0	1850	11	2599	232
31	0	0	1840	9	2587	232
32	0	0	1851	12	2582	233
33	0	0	1902	11	2583	231
34	0	0	1942	10	2588	231
35	0	0	1990	12	2594	230
36	0	0	2039	11	2601	231
37	0	0	2091	10	2605	231
38	0	0	2140	10	2607	231
39	0	0	2117	10	2605	232
40	0	0	2055	8	2597	231
41	0	0	2013	8	2586	231
42	0	0	2017	11	2581	230
43	0	0	2046	11	2582	232
44	0	0	2086	10	2587	230
45	0	0	2129	12	2594	228
46	0	0	2149	12	2599	230
47	0	0	2105	8	2604	230
48	0	0	2024	7	2605	230
49	0	0	1907	6	2604	229
50	0	0	1832	7	2597	228
51	0	0	1813	8	2585	231
52	0	0	1826	11	2580	228
53	0	0	1866	10	2582	227
54	0	0	1930	11	2586	229
55	0	0	2016	13	2593	229
56	0	0	2087	11	2599	231
57	0	0	2097	11	2603	228
58	0	0	2089	10	2604	228
59	0	0	2088	11	2603	226
60	0	0	2065	9	2596	225
61	0	0	2072	12	2585	227
62	0	0	2052	7	2579	226
63	0	0	2006	8	2581	227
64	0	0	1996	11	2585	227
65	0	0	2010	12	2591	226
66	0	0	2003	8	2597	230
67	0	0	1952	7	2603	225
68	0	0	1896	8	2603	227
69	0	0	1857	8	2602	227
70	0	0	1855	10	2595	228
71	0	0	1861	10	2583	227
72	0	0	1876	10	2578	225
73	0	0	1925	11	2580	225
74	0	0	1975	12	2584	226
75	0	0	2013	11	2590	226
76	0	0	2043	11	2596	227
77	0	0	2067	11	2600	225
78	0	0	2090	11	2602	225
79	0	0	2094	10	2600	225
80	0	0	2083	11	2594	224
81	0	0	2088	11	2582	223
82	0	0	2094	11	2577	224
83	0	0	2059	8	2578	225
84	0	0	2037	9	2582	224
85	0	0	2035	10	2588	223
86	0	0	2033	9	2595	223
87	0	0	2012	8	2599	223
88	0	0	1977	7	2601	224
89	0	0	1953	9	2598	224
90	0	0	1949	11	2592	222
91	0	0	1939	9	2580	223
92	0	0	1950	11	2575	223
93	0	0	1975	11	2576	222
94	0	0	2002	11	2580	223
95	0	0	2042	12	2586	223
96	0	0	2072	10	2592	223
97	0	0	2086	11	2596	224
98	0	0	2096	11	2596	222
99	0	0	2112	11	2594	223
100	0	0	2117	11	2587	223
101	0	0	2136	12	2576	221
102	0	0	2150	14	2570	224
103	0	0	2130	8	2572	222
104	0	0	2080	7	2575	223
105	0	0	2049	6	2581	222
106	0	0	2055	11	2587	221
107	0	0	2039	8	2590	222
108	0	0	2016	8	2591	221
109	0	0	1988	7	2589	223
110	0	0	1932	7	2582	221
111	0	0	1838	7	2571	220
112	0	0	1786	9	2565	218
113	0	0	1815	11	2566	220
114	0	0	1871	8	2569	221
115	0	0	1963	7	2574	220
116	0	0	2074	11	2579	220
117	0	0	2150	12	2583	220
118	0	0	2169	11	2583	220
119	0	0	2146	10	2581	220
120	0	0	2120	7	2574	220
121	0	0	2099	9	2564	219
122	0	0	2074	8	2558	219
123	0	0	2056	10	2558	221
124	0	0	2065	11	2562	220
125	0	0	2048	8	2567	220
126	0	0	2020	7	2572	220
127	0	0	1998	11	2574	217
0	0	0	1977	9	2575	220
1	0	0	1973	11	2573	219
2	0	0	1985	10	2567	218
3	0	0	1982	9	2555	220
4	0	0	1981	11	2550	218
5	0	0	1985	11	2550	218
6	0	0	1986	12	2553	219
7	0	0	2009	9	2557	219
8	0	0	2057	11	2563	217
9	0	0	2108	11	2566	217
10	0	0	2142	11	2567	218
11	0	0	2144	11	2564	219
12	0	0	2138	10	2556	219
13	0	0	2131	11	2547	218
14	0	0	2139	12	2543	218
15	0	0	2112	7	2542	218
16	0	0	2052	8	2545	217
17	0	0	1990	8	2549	219
18	0	0	1959	8	2554	216
19	0	0	1959	11	2557	216
20	0	0	1952	8	2558	218
21	0	0	1912	5	2555	219
22	0	0	1898	7	2549	216
23	0	0	1928	10	2540	217
24	0	0	1957	13	2535	216
25	0	0	1999	11	2536	215
26	0	0	2027	12	2538	216
27	0	0	2040	11	2542	219
28	0	0	2076	10	2546	218
29	0	0	2140	12	2550	215
30	0	0	2195	11	2550	216
31	0	0	2231	11	2548	216
32	0	0	2235	11	2542	215
33	0	0	2212	9	2533	216
34	0	0	2192	9	2527	214
35	0	0	2157	7	2528	215
36	0	0	2118	8	2531	215
37	0	0	2082	4	2535	214
38	0	0	2041	5	2539	213
39	0	0	2016	9	2542	213
40	0	0	2006	10	2543	215
41	0	0	1991	8	2541	213
42	0	0	1988	7	2535	214
43	0	0	1957	8	2527	215
44	0	0	1947	11	2522	213
45	0	0	1969	10	2523	215
46	0	0	1990	11	2525	213
47	0	0	2011	10	2529	213
48	0	0	2045	11	2533	215
49	0	0	2096	11	2536	213
50	0	0	2135	11	2536	214
51	0	0	2154	12	2534	213
52	0	0	2153	9	2529	213
53	0	0	2132	9	2521	212
54	0	0	2093	7	2516	211
55	0	0	2032	8	2516	213
56	0	0	1996	8	2519	213
57	0	0	2002	10	2522	211
58	0	0	2026	11	2527	210
59	0	0	2082	11	2530	212
60	0	0	2111	11	2531	211
61	0	0	2077	7	2528	214
62	0	0	1971	5	2524	212
63	0	0	1841	7	2515	211
64	0	0	1797	11	2511	212
65	0	0	1831	12	2511	212
66	0	0	1892	11	2514	209
67	0	0	1968	11	2517	209
68	0	0	2049	10	2521	212
69	0	0	2113	11	2524	212
70	0	0	2167	11	2524	213
71	0	0	2185	10	2523	210
72	0	0	2159	8	2518	210
73	0	0	2142	11	2510	212
74	0	0	2127	9	2505	209
75	0	0	2096	8	2506	211
76	0	0	2061	7	2508	210
77	0	0	2033	8	2512	209
78	0	0	2017	10	2516	211
79	0	0	1996	8	2519	211
80	0	0	1977	8	2519	209
81	0	0	1942	8	2518	210
82	0	0	1904	8	2513	210
83	0	0	1874	8	2505	209
84	0	0	1889	11	2501	208
85	0	0	1907	9	2501	208
86	0	0	1912	10	2504	208
87	0	0	1926	12	2507	208
88	0	0	1972	13	2511	209
89	0	0	2032	11	2513	210
90	0	0	2074	10	2514	208
91	0	0	2110	10	2512	208
92	0	0	2144	8	2508	208
93	0	0	2179	11	2500	210
94	0	0	2176	9	2496	208
95	0	0	2126	7	2496	207
96	0	0	2084	7	2499	208
97	0	0	2053	9	2502	208
98	0	0	2013	7	2506	208
99	0	0	1968	8	2509	208
100	0	0	1942	8	2509	208
101	0	0	1935	9	2508	208
102	0	0	1927	10	2503	205
103	0	0	1928	11	2496	207
104	0	0	1945	12	2492	208
105	0	0	1994	10	2492	207
106	0	0	2031	11	2494	207
107	0	0	2043	9	2497	207
108	0	0	2046	9	2501	206
109	0	0	2025	10	2504	208
110	0	0	2044	11	2505	206
111	0	0	2086	11	2504	204
112	0	0	2116	10	2499	204
113	0	0	2139	11	2492	206
114	0	0	2155	11	2488	205
115	0	0	2160	10	2488	206
116	0	0	2161	12	2490	207
117	0	0	2166	12	2493	204
118	0	0	2176	11	2498	205
119	0	0	2169	11	2500	206
120	0	0	2177	11	2501	204
121	0	0	2215	11	2500	204
122	0	0	2259	11	2495	206
123	0	0	2274	11	2487	204
124	0	0	2299	11	2484	207
125	0	0	2364	11	2484	205
126	0	0	2455	10	2486	205
127	0	0	2521	8	2490	205
0	0	0	2575	11	2494	204
1	0	0	2615	12	2497	205
2	0	0	2644	10	2497	204
3	0	0	2651	12	2496	201
4	0	0	2613	9	2491	204
5	0	0	2566	7	2484	203
6	0	0	2519	9	2480	205
7	0	0	2495	11	2480	203
8	0	0	2483	10	2483	202
9	0	0	2434	7	2487	204
10	0	0	2348	6	2490	203
11	0	0	2253	7	2493	206
12	0	0	2181	7	2493	204
13	0	0	2147	8	2493	204
14	0	0	2119	8	2488	201
15	0	0	2058	7	2481	202
16	0	0	1983	7	2478	203
17	0	0	1940	8	2478	203
18	0	0	1913	9	2481	200
19	0	0	1934	12	2484	202
20	0	0	1985	10	2488	203
21	0	0	2016	11	2490	205
22	0	0	2038	11	2490	202
23	0	0	2057	10	2489	200
24	0	0	2041	8	2485	202
25	0	0	2033	11	2478	204
26	0	0	2008	8	2475	202
27	0	0	1972	6	2475	202
28	0	0	1947	8	2476	199
29	0	0	1921	8	2481	200
30	0	0	1919	11	2485	201
31	0	0	1938	11	2488	203
32	0	0	1962	11	2488	201
33	0	0	1971	10	2487	200
34	0	0	1943	8	2483	201
35	0	0	1896	7	2476	203
36	0	0	1874	9	2473	199
37	0	0	1862	7	2474	201
38	0	0	1857	10	2475	198
39	0	0	1903	10	2480	200
40	0	0	1971	10	2483	199
41	0	0	2034	11	2486	199
42	0	0	2104	10	2486	201
43	0	0	2153	11	2485	199
44	0	0	2146	8	2481	199
45	0	0	2104	7	2474	199
46	0	0	2057	7	2471	199
47	0	0	2006	9	2472	199
48	0	0	1977	8	2474	199
49	0	0	1951	7	2478	199
50	0	0	1932	9	2482	199
51	0	0	1923	10	2484	199
52	0	0	1910	9	2486	198
53	0	0	1901	11	2484	199
54	0	0	1893	9	2480	199
55	0	0	1875	8	2474	198
56	0	0	1875	11	2470	197
57	0	0	1916	11	2471	197
58	0	0	1978	7	2473	198
59	0	0	2040	8	2476	199
60	0	0	2087	11	2480	198
61	0	0	2098	11	2483	197
62	0	0	2112	10	2484	198
63	0	0	2100	9	2482	199
64	0	0	2084	10	2479	198
65	0	0	2077	11	2472	197
66	0	0	2075	10	2469	197
67	0	0	2044	8	2470	197
68	0	0	2017	8	2472	195
69	0	0	1985	7	2477	196
70	0	0	1946	7	2480	197
71	0	0	1917	8	2483	196
72	0	0	1912	12	2483	197
73	0	0	1909	11	2482	197
74	0	0	1909	12	2478	196
75	0	0	1877	6	2471	196
76	0	0	1872	8	2468	197
77	0	0	1920	12	2469	196
78	0	0	2007	11	2472	196
79	0	0	2136	12	2475	196
80	0	0	2187	9	2479	197
81	0	0	2140	7	2482	195
82	0	0	2055	8	2483	196
83	0	0	2005	12	2482	196
84	0	0	2024	14	2478	194
85	0	0	2043	11	2471	195
86	0	0	2023	8	2468	195
87	0	0	1998	9	2469	195
88	0	0	1994	11	2471	193
89	0	0	1997	11	2475	195
90	0	0	1992	12	2479	195
91	0	0	1984	9	2482	195
92	0	0	1962	8	2483	196
93	0	0	1935	10	2482	195
94	0	0	1921	11	2478	195
95	0	0	1894	8	2471	194
96	0	0	1895	11	2468	193
97	0	0	1943	9	2469	194
98	0	0	1987	9	2471	195
99	0	0	2024	14	2476	193
100	0	0	2041	11	2480	193
101	0	0	2064	11	2482	193
102	0	0	2095	11	2483	195
103	0	0	2119	11	2483	192
104	0	0	2120	11	2479	194
105	0	0	2126	10	2472	194
106	0	0	2147	11	2469	192
107	0	0	2131	9	2469	194
108	0	0	2045	8	2472	194
109	0	0	1937	7	2476	192
110	0	0	1881	7	2480	193
111	0	0	1871	11	2483	192
112	0	0	1879	11	2484	193
113	0	0	1893	12	2483	193
114	0	0	1912	7	2479	193
115	0	0	1913	8	2473	192
116	0	0	1898	9	2470	192
117	0	0	1898	12	2471	193
118	0	0	1908	11	2474	192
119	0	0	1968	11	2478	192
120	0	0	2056	11	2481	192
121	0	0	2118	11	2484	191
122	0	0	2141	12	2485	192
123	0	0	2153	12	2484	193
124	0	0	2179	14	2480	192
125	0	0	2179	9	2473	191
126	0	0	2132	8	2470	192
127	0	0	2057	8	2471	192
0	0	0	2008	8	2474	192
1	0	0	1979	7	2478	192
2	0	0	1958	7	2482	191
3	0	0	1938	9	2485	192
4	0	0	1919	6	2487	191
5	0	0	1895	8	2485	192
6	0	0	1896	14	2482	191
7	0	0	1907	10	2475	192
8	0	0	1926	11	2471	192
9	0	0	1987	11	2473	191
10	0	0	2033	11	2476	192
11	0	0	2069	10	2480	190
12	0	0	2091	8	2484	191
13	0	0	2108	14	2487	192
14	0	0	2128	10	2488	191
15	0	0	2118	8	2487	191
16	0	0	2085	7	2483	189
17	0	0	2077	12	2477	191
18	0	0	2088	11	2474	190
19	0	0	2095	9	2476	190
20	0	0	2087	13	2478	188
21	0	0	2044	8	2483	190
22	0	0	1994	7	2488	191
23	0	0	1950	7	2491	191
24	0	0	1909	8	2492	191
25	0	0	1878	9	2491	192
26	0	0	1881	10	2487	189
27	0	0	1867	8	2480	189
28	0	0	1868	11	2477	190
29	0	0	1911	11	2479	190
30	0	0	1973	12	2483	192
31	0	0	2038	11	2487	190
32	0	0	2103	10	2492	190
33	0	0	2157	11	2496	188
34	0	0	2186	11	2497	188
35	0	0	2173	9	2497	188
36	0	0	2145	8	2492	189
37	0	0	2133	11	2485	188
38	0	0	2110	8	2483	188
39	0	0	2061	6	2484	189
40	0	0	2033	10	2488	188
41	0	0	2027	9	2493	190
42	0	0	2008	8	2499	188
43	0	0	1986	11	2502	188
44	0	0	1973	7	2504	188
45	0	0	1971	10	2503	188
46	0	0	1974	11	2498	188
47	0	0	1966	11	2491	187
48	0	0	1965	12	2488	189
49	0	0	1996	11	2490	187
50	0	0	2049	11	2493	192
51	0	0	2098	12	2499	189
52	0	0	2148	10	2505	187
53	0	0	2165	12	2509	187
54	0	0	2156	12	2510	188
55	0	0	2142	12	2509	186
56	0	0	2141	13	2505	187
57	0	0	2150	10	2497	187
58	0	0	2166	12	2494	187
59	0	0	2155	9	2496	186
60	0	0	2137	8	2500	187
61	0	0	2096	10	2505	187
62	0	0	2026	8	2511	187
63	0	0	1969	11	2514	188
64	0	0	1948	9	2516	192
65	0	0	1945	7	2515	186
66	0	0	1957	12	2511	187
67	0	0	1946	7	2503	186
68	0	0	1948	11	2499	183
69	0	0	1983	13	2502	185
70	0	0	2045	13	2505	187
71	0	0	2121	12	2511	187
72	0	0	2188	11	2516	186
73	0	0	2233	12	2520	183
74	0	0	2270	12	2522	183
75	0	0	2267	10	2521	188
76	0	0	2224	6	2516	187
77	0	0	2167	8	2508	187
78	0	0	2135	10	2504	183
79	0	0	2157	11	2506	185
80	0	0	2223	12	2510	185
81	0	0	2242	11	2515	186
82	0	0	2186	6	2521	186
83	0	0	2063	7	2525	183
84	0	0	1949	7	2527	187
85	0	0	1915	11	2526	186
86	0	0	1955	10	2521	185
87	0	0	1975	8	2512	184
88	0	0	2004	11	2510	184
89	0	0	2058	10	2511	185
90	0	0	2091	12	2515	185
91	0	0	2124	12	2521	186
92	0	0	2172	11	2526	185
93	0	0	2209	11	2530	183
94	0	0	2238	11	2531	184
95	0	0	2266	11	2530	184
96	0	0	2265	9	2525	186
97	0	0	2250	13	2516	183
98	0	0	2224	9	2513	183
99	0	0	2193	8	2514	184
100	0	0	2142	7	2518	184
101	0	0	2084	5	2524	186
102	0	0	2034	12	2530	184
103	0	0	2016	12	2534	183
104	0	0	2036	11	2535	184
105	0	0	2074	7	2534	184
106	0	0	2087	8	2529	185
107	0	0	2054	8	2520	184
108	0	0	2055	11	2517	183
109	0	0	2096	11	2518	183
110	0	0	2117	11	2522	183
111	0	0	2111	9	2528	185
112	0	0	2132	15	2534	183
113	0	0	2172	11	2538	179
114	0	0	2213	11	2539	184
115	0	0	2225	11	2537	183
116	0	0	2214	11	2532	183
117	0	0	2190	9	2523	182
118	0	0	2162	9	2518	183
119	0	0	2135	8	2522	182
120	0	0	2111	8	2525	184
121	0	0	2085	10	2531	182
122	0	0	2062	8	2537	182
123	0	0	2038	9	2541	180
124	0	0	2031	9	2543	183
125	0	0	2025	11	2541	183
126	0	0	2041	11	2536	182
