# bioPlux Text File Format
# Version: 1
# StartDateTime: 2011-07-19 12:33:14
# SamplingFrequency: 1000
# SampledChannels: 1 2 3 4
# SamplingResolution: 12
# AcquiringDevice: 00:07:80:42:0F:8B
# EndOfHeader
0	0	0	2019	739	3724	75
1	0	0	1992	738	3725	76
2	0	0	1972	737	3723	75
3	0	0	1944	736	3722	75
4	0	0	1909	736	3722	75
5	0	0	1882	737	3721	75
6	0	0	1852	736	3723	77
7	0	0	1840	739	3723	76
8	0	0	1865	739	3723	76
9	0	0	1917	739	3724	77
10	0	0	1974	742	3724	77
11	0	0	2024	741	3726	78
12	0	0	2043	739	3723	77
13	0	0	2065	741	3723	77
14	0	0	2081	742	3723	76
15	0	0	2084	742	3724	76
16	0	0	2097	742	3723	77
17	0	0	2101	739	3724	75
18	0	0	2104	741	3724	76
19	0	0	2107	742	3723	75
20	0	0	2108	741	3722	75
21	0	0	2068	737	3722	74
22	0	0	1974	733	3723	75
23	0	0	1891	736	3722	76
24	0	0	1847	736	3722	75
25	0	0	1839	739	3722	76
26	0	0	1839	739	3723	77
27	0	0	1841	739	3725	76
28	0	0	1852	739	3724	77
29	0	0	1920	741	3724	76
30	0	0	2005	739	3724	75
31	0	0	2062	740	3725	78
32	0	0	2078	739	3724	77
33	0	0	2079	742	3724	76
34	0	0	2090	742	3722	76
35	0	0	2114	743	3723	76
36	0	0	2109	742	3721	77
37	0	0	2066	736	3724	76
38	0	0	2014	738	3723	75
39	0	0	1976	739	3723	75
40	0	0	1950	739	3723	74
41	0	0	1918	738	3723	75
42	0	0	1909	739	3723	74
43	0	0	1912	740	3724	76
44	0	0	1908	738	3723	77
45	0	0	1891	738	3723	76
46	0	0	1905	739	3725	77
47	0	0	1936	736	3725	77
48	0	0	1961	735	3725	76
49	0	0	1972	740	3725	77
50	0	0	1970	741	3723	76
51	0	0	1989	741	3723	78
52	0	0	2017	739	3723	78
53	0	0	2045	742	3719	77
54	0	0	2056	741	3722	76
55	0	0	2056	743	3722	75
56	0	0	2074	741	3723	76
57	0	0	2106	740	3724	76
58	0	0	2102	739	3724	76
59	0	0	2053	738	3724	76
60	0	0	2002	739	3723	74
61	0	0	1989	741	3721	75
62	0	0	2004	740	3724	75
63	0	0	1956	735	3723	79
64	0	0	1870	735	3725	75
65	0	0	1824	737	3725	79
66	0	0	1838	739	3723	76
67	0	0	1884	739	3725	77
68	0	0	1906	740	3724	78
69	0	0	1920	740	3725	77
70	0	0	1947	741	3725	76
71	0	0	1976	741	3721	77
72	0	0	2013	742	3724	77
73	0	0	2067	742	3722	76
74	0	0	2101	741	3724	76
75	0	0	2103	741	3723	77
76	0	0	2097	742	3723	76
77	0	0	2082	742	3725	75
78	0	0	2081	739	3723	76
79	0	0	2055	739	3726	75
80	0	0	2011	738	3726	78
81	0	0	1970	738	3722	76
82	0	0	1925	736	3725	74
83	0	0	1891	737	3724	74
84	0	0	1887	737	3724	75
85	0	0	1913	738	3724	73
86	0	0	1921	738	3724	75
87	0	0	1934	734	3724	77
88	0	0	1975	739	3724	77
89	0	0	1972	739	3723	76
90	0	0	1963	741	3723	76
91	0	0	1956	740	3722	77
92	0	0	1942	741	3724	76
93	0	0	1958	741	3723	77
94	0	0	2020	741	3723	77
95	0	0	2077	742	3723	76
96	0	0	2113	742	3725	77
97	0	0	2126	740	3724	75
98	0	0	2077	738	3724	76
99	0	0	2019	738	3727	75
100	0	0	1977	738	3726	78
101	0	0	1935	736	3724	76
102	0	0	1898	737	3724	74
103	0	0	1878	737	3722	74
104	0	0	1866	737	3724	75
105	0	0	1870	740	3723	76
106	0	0	1883	738	3722	77
107	0	0	1914	739	3724	76
108	0	0	1954	739	3726	76
109	0	0	1990	739	3727	77
110	0	0	1988	740	3725	80
111	0	0	1985	741	3724	78
112	0	0	2027	742	3725	77
113	0	0	2095	739	3721	77
114	0	0	2092	739	3724	77
115	0	0	2075	742	3725	77
116	0	0	2091	742	3724	76
117	0	0	2080	740	3725	76
118	0	0	2045	739	3724	77
119	0	0	1984	737	3724	76
120	0	0	1920	737	3725	76
121	0	0	1890	739	3724	75
122	0	0	1896	740	3724	74
123	0	0	1905	739	3722	75
124	0	0	1933	737	3723	75
125	0	0	1959	739	3723	76
126	0	0	1969	739	3724	76
127	0	0	1971	738	3724	77
0	0	0	1960	740	3724	77
1	0	0	1960	740	3725	77
2	0	0	1941	737	3725	78
3	0	0	1926	741	3725	77
4	0	0	1951	743	3724	78
5	0	0	1971	742	3723	76
6	0	0	1969	742	3723	77
7	0	0	1963	742	3724	78
8	0	0	1982	742	3724	77
9	0	0	2014	742	3724	76
10	0	0	2008	742	3722	76
11	0	0	2014	741	3724	75
12	0	0	2034	742	3723	75
13	0	0	1986	737	3724	75
14	0	0	1931	737	3725	74
15	0	0	1889	736	3723	74
16	0	0	1862	736	3725	75
17	0	0	1844	740	3723	73
18	0	0	1854	739	3724	77
19	0	0	1866	740	3725	77
20	0	0	1873	740	3725	76
21	0	0	1886	740	3725	77
22	0	0	1914	742	3724	75
23	0	0	1947	741	3724	78
24	0	0	1981	742	3723	78
25	0	0	2021	742	3722	77
26	0	0	2048	742	3723	76
27	0	0	2028	739	3723	76
28	0	0	2011	742	3724	75
29	0	0	2021	742	3724	79
30	0	0	2025	742	3725	75
31	0	0	2013	739	3724	75
32	0	0	1976	740	3724	75
33	0	0	1949	739	3724	75
34	0	0	1934	736	3724	75
35	0	0	1913	737	3724	76
36	0	0	1877	735	3724	76
37	0	0	1854	735	3724	76
38	0	0	1864	739	3723	76
39	0	0	1875	736	3724	76
40	0	0	1897	735	3724	76
41	0	0	1912	739	3724	77
42	0	0	1930	740	3724	78
43	0	0	1947	742	3724	77
44	0	0	1983	741	3724	78
45	0	0	2024	741	3722	77
46	0	0	2042	742	3722	75
47	0	0	2052	742	3725	77
48	0	0	2060	742	3723	75
49	0	0	2054	740	3724	76
50	0	0	2012	740	3724	77
51	0	0	1963	739	3725	75
52	0	0	1937	742	3724	72
53	0	0	1937	740	3726	75
54	0	0	1914	735	3724	74
55	0	0	1879	736	3724	75
56	0	0	1866	739	3723	75
57	0	0	1879	739	3724	75
58	0	0	1874	739	3724	76
59	0	0	1866	738	3724	75
60	0	0	1879	740	3724	77
61	0	0	1929	742	3724	76
62	0	0	1993	741	3724	79
63	0	0	2030	741	3724	75
64	0	0	2027	741	3723	77
65	0	0	2001	739	3723	77
66	0	0	1984	742	3723	77
67	0	0	1989	744	3723	74
68	0	0	2008	742	3726	76
69	0	0	1984	740	3724	76
70	0	0	1971	742	3725	76
71	0	0	1959	739	3725	76
72	0	0	1935	737	3724	75
73	0	0	1911	738	3726	75
74	0	0	1897	738	3723	75
75	0	0	1882	737	3724	75
76	0	0	1873	739	3723	76
77	0	0	1859	737	3723	76
78	0	0	1854	739	3722	76
79	0	0	1869	739	3723	76
80	0	0	1918	742	3724	76
81	0	0	1979	739	3724	77
82	0	0	2026	739	3725	77
83	0	0	2033	740	3724	75
84	0	0	2015	740	3724	78
85	0	0	2000	741	3723	76
86	0	0	2014	742	3724	77
87	0	0	2037	741	3724	77
88	0	0	2049	742	3725	76
89	0	0	2026	740	3725	75
90	0	0	1999	740	3724	76
91	0	0	1975	739	3724	75
92	0	0	1941	737	3725	74
93	0	0	1901	739	3725	74
94	0	0	1865	735	3723	74
95	0	0	1820	736	3723	76
96	0	0	1804	739	3724	75
97	0	0	1817	738	3724	75
98	0	0	1850	738	3724	74
99	0	0	1888	739	3726	76
100	0	0	1927	739	3724	76
101	0	0	1974	741	3726	76
102	0	0	2001	740	3726	76
103	0	0	2027	740	3725	75
104	0	0	2057	741	3724	77
105	0	0	2110	741	3723	76
106	0	0	2196	741	3725	76
107	0	0	2269	743	3723	76
108	0	0	2325	741	3726	76
109	0	0	2378	743	3725	76
110	0	0	2426	742	3723	76
111	0	0	2481	740	3724	76
112	0	0	2515	739	3725	75
113	0	0	2478	736	3723	76
114	0	0	2437	737	3724	75
115	0	0	2421	739	3723	77
116	0	0	2414	738	3723	75
117	0	0	2430	737	3725	76
118	0	0	2463	738	3726	76
119	0	0	2484	738	3728	78
120	0	0	2502	735	3725	76
121	0	0	2505	739	3725	78
122	0	0	2498	738	3727	76
123	0	0	2487	740	3723	77
124	0	0	2489	741	3724	77
125	0	0	2508	742	3719	77
126	0	0	2525	742	3723	77
127	0	0	2488	737	3724	76
0	0	0	2423	738	3723	76
1	0	0	2369	739	3724	76
2	0	0	2339	739	3724	76
3	0	0	2303	738	3724	76
4	0	0	2255	736	3725	75
5	0	0	2189	736	3725	75
6	0	0	2095	736	3722	76
7	0	0	1993	735	3725	74
8	0	0	1924	735	3724	76
9	0	0	1911	738	3724	76
10	0	0	1908	736	3726	76
11	0	0	1852	734	3725	77
12	0	0	1791	735	3725	76
13	0	0	1778	738	3723	77
14	0	0	1779	739	3724	77
15	0	0	1796	739	3724	76
16	0	0	1827	740	3724	78
17	0	0	1888	743	3723	76
18	0	0	1948	741	3723	77
19	0	0	1998	741	3725	76
20	0	0	2019	742	3725	74
21	0	0	1999	738	3725	76
22	0	0	1972	739	3725	76
23	0	0	1946	739	3724	75
24	0	0	1934	738	3726	75
25	0	0	1918	738	3723	78
26	0	0	1886	736	3725	76
27	0	0	1831	734	3724	75
28	0	0	1785	735	3724	75
29	0	0	1796	738	3721	76
30	0	0	1814	738	3724	75
31	0	0	1831	738	3725	78
32	0	0	1865	738	3724	77
33	0	0	1895	735	3724	76
34	0	0	1925	739	3725	77
35	0	0	1944	740	3726	77
36	0	0	1974	740	3724	78
37	0	0	1992	740	3723	77
38	0	0	2004	742	3722	76
39	0	0	2023	742	3725	77
40	0	0	2035	741	3725	75
41	0	0	2009	737	3726	76
42	0	0	1955	737	3725	76
43	0	0	1940	741	3726	74
44	0	0	1963	740	3725	76
45	0	0	1968	740	3723	77
46	0	0	1958	739	3722	74
47	0	0	1958	739	3724	74
48	0	0	1921	735	3723	75
49	0	0	1875	734	3725	76
50	0	0	1838	736	3724	76
51	0	0	1823	737	3725	76
52	0	0	1802	736	3724	77
53	0	0	1796	739	3725	75
54	0	0	1807	739	3725	77
55	0	0	1821	740	3723	76
56	0	0	1844	740	3723	77
57	0	0	1895	739	3724	77
58	0	0	1933	742	3723	76
59	0	0	1945	742	3724	76
60	0	0	1943	741	3725	74
61	0	0	1947	740	3725	75
62	0	0	1950	740	3724	76
63	0	0	1934	739	3725	77
64	0	0	1921	739	3725	75
65	0	0	1879	736	3722	78
66	0	0	1845	737	3722	75
67	0	0	1855	739	3723	75
68	0	0	1877	738	3723	75
69	0	0	1871	736	3722	76
70	0	0	1842	736	3725	75
71	0	0	1817	736	3724	76
72	0	0	1823	738	3726	76
73	0	0	1848	741	3726	78
74	0	0	1868	741	3725	77
75	0	0	1901	740	3727	74
76	0	0	1921	741	3725	74
77	0	0	1956	743	3724	78
78	0	0	1998	742	3724	76
79	0	0	2010	742	3722	76
80	0	0	1998	739	3724	71
81	0	0	1968	738	3722	73
82	0	0	1947	738	3724	73
83	0	0	1919	735	3726	76
84	0	0	1894	738	3724	75
85	0	0	1878	737	3724	75
86	0	0	1856	737	3724	75
87	0	0	1856	737	3724	75
88	0	0	1853	736	3725	79
89	0	0	1842	738	3725	75
90	0	0	1865	737	3725	75
91	0	0	1892	738	3724	77
92	0	0	1890	737	3727	76
93	0	0	1871	736	3724	77
94	0	0	1857	739	3724	77
95	0	0	1864	740	3725	75
96	0	0	1877	740	3725	77
97	0	0	1892	741	3723	74
98	0	0	1915	741	3724	72
99	0	0	1958	742	3723	73
100	0	0	2006	741	3724	74
101	0	0	2025	741	3724	75
102	0	0	2010	738	3724	76
103	0	0	1980	736	3727	79
104	0	0	1942	737	3725	72
105	0	0	1875	735	3726	74
106	0	0	1823	736	3722	73
107	0	0	1807	738	3724	75
108	0	0	1828	737	3725	77
109	0	0	1865	738	3727	76
110	0	0	1872	737	3725	75
111	0	0	1864	738	3725	75
112	0	0	1868	738	3725	77
113	0	0	1859	739	3725	74
114	0	0	1883	740	3723	77
115	0	0	1930	739	3724	73
116	0	0	1951	740	3723	74
117	0	0	1959	741	3723	74
118	0	0	1968	740	3724	77
119	0	0	1996	742	3723	76
120	0	0	2016	742	3724	75
121	0	0	1997	737	3725	73
122	0	0	1956	738	3724	73
123	0	0	1969	738	3727	73
124	0	0	1986	740	3726	73
125	0	0	1984	740	3727	75
126	0	0	1968	737	3724	74
127	0	0	1941	735	3726	74
0	0	0	1894	735	3724	76
1	0	0	1868	736	3723	75
2	0	0	1874	738	3725	75
3	0	0	1896	738	3725	76
4	0	0	1909	738	3724	77
5	0	0	1916	738	3725	78
6	0	0	1942	738	3724	75
7	0	0	1974	741	3725	76
8	0	0	1991	740	3724	77
9	0	0	1977	738	3723	76
10	0	0	1948	738	3724	74
11	0	0	1939	741	3724	75
12	0	0	1969	741	3725	71
13	0	0	2000	741	3728	72
14	0	0	1992	738	3725	76
15	0	0	1975	739	3727	75
16	0	0	1980	740	3725	75
17	0	0	1965	735	3725	76
18	0	0	1943	738	3725	74
19	0	0	1910	734	3723	75
20	0	0	1836	732	3725	75
21	0	0	1783	735	3724	75
22	0	0	1802	736	3725	77
23	0	0	1843	739	3724	76
24	0	0	1855	738	3724	77
25	0	0	1874	738	3724	77
26	0	0	1921	739	3724	79
27	0	0	1962	740	3725	74
28	0	0	1957	738	3725	72
29	0	0	1926	738	3724	73
30	0	0	1924	739	3724	74
31	0	0	1924	741	3726	75
32	0	0	1932	740	3725	74
33	0	0	1915	740	3725	76
34	0	0	1912	740	3725	72
35	0	0	1937	738	3726	72
36	0	0	1959	740	3726	72
37	0	0	1935	737	3724	73
38	0	0	1875	734	3724	74
39	0	0	1825	735	3723	77
40	0	0	1810	737	3724	76
41	0	0	1825	737	3724	76
42	0	0	1821	737	3724	74
43	0	0	1833	738	3726	75
44	0	0	1868	739	3724	80
45	0	0	1899	737	3726	77
46	0	0	1897	739	3727	76
47	0	0	1899	739	3726	73
48	0	0	1919	739	3725	77
49	0	0	1963	740	3725	77
50	0	0	2003	740	3725	76
51	0	0	2024	741	3725	72
52	0	0	2030	740	3724	76
53	0	0	2022	741	3725	72
54	0	0	2019	741	3725	73
55	0	0	2019	739	3724	75
56	0	0	1981	735	3724	71
57	0	0	1924	736	3724	76
58	0	0	1884	736	3723	74
59	0	0	1852	735	3724	75
60	0	0	1827	735	3724	75
61	0	0	1838	738	3725	73
62	0	0	1866	738	3724	76
63	0	0	1885	737	3725	79
64	0	0	1895	737	3725	76
65	0	0	1924	738	3726	77
66	0	0	1961	739	3726	77
67	0	0	1982	739	3724	76
68	0	0	1972	739	3723	77
69	0	0	1977	741	3724	78
70	0	0	2018	739	3723	74
71	0	0	2064	741	3725	72
72	0	0	2093	741	3724	72
73	0	0	2089	737	3724	72
74	0	0	2015	737	3724	75
75	0	0	1961	735	3724	75
76	0	0	1942	738	3725	75
77	0	0	1948	740	3726	75
78	0	0	1954	739	3723	73
79	0	0	1919	735	3723	74
80	0	0	1883	735	3726	79
81	0	0	1860	737	3725	76
82	0	0	1867	738	3726	76
83	0	0	1886	738	3725	76
84	0	0	1920	738	3725	77
85	0	0	1954	736	3727	76
86	0	0	1982	739	3727	78
87	0	0	1989	739	3725	77
88	0	0	1993	740	3723	75
89	0	0	1995	740	3723	76
90	0	0	2013	740	3723	74
91	0	0	2022	741	3724	74
92	0	0	2015	741	3725	79
93	0	0	2005	741	3724	75
94	0	0	2011	740	3725	74
95	0	0	2023	739	3725	73
96	0	0	2049	740	3726	70
97	0	0	2044	739	3726	76
98	0	0	2025	737	3726	74
99	0	0	1989	734	3726	75
100	0	0	1922	733	3724	74
101	0	0	1868	735	3724	75
102	0	0	1856	737	3725	76
103	0	0	1893	737	3724	76
104	0	0	1938	738	3725	76
105	0	0	1957	738	3727	79
106	0	0	1977	740	3725	78
107	0	0	2015	739	3725	76
108	0	0	2046	739	3724	76
109	0	0	2052	740	3724	77
110	0	0	2056	740	3725	75
111	0	0	2019	737	3725	77
112	0	0	2000	741	3725	75
113	0	0	2040	741	3724	72
114	0	0	2098	741	3726	73
115	0	0	2088	737	3726	76
116	0	0	2016	737	3728	75
117	0	0	1953	735	3726	77
118	0	0	1927	736	3724	76
119	0	0	1902	735	3724	75
120	0	0	1883	735	3723	76
121	0	0	1871	735	3724	75
122	0	0	1853	735	3725	75
123	0	0	1852	738	3724	76
124	0	0	1874	737	3726	76
125	0	0	1919	739	3725	79
126	0	0	1977	739	3725	77
127	0	0	2025	738	3726	79
0	0	0	2053	739	3726	74
1	0	0	2060	740	3724	74
2	0	0	2060	740	3725	74
3	0	0	2040	739	3726	72
4	0	0	2035	742	3726	77
5	0	0	2038	740	3728	75
6	0	0	2048	740	3727	76
7	0	0	2050	740	3725	73
8	0	0	2053	740	3724	72
9	0	0	2010	736	3725	79
10	0	0	1929	734	3725	74
11	0	0	1859	734	3723	75
12	0	0	1795	734	3724	76
13	0	0	1749	734	3724	76
14	0	0	1749	737	3725	75
15	0	0	1770	737	3726	76
16	0	0	1799	737	3726	76
17	0	0	1821	738	3727	79
18	0	0	1842	737	3726	77
19	0	0	1866	740	3726	75
20	0	0	1902	740	3724	74
21	0	0	1945	740	3726	79
22	0	0	1952	740	3724	77
23	0	0	1932	739	3725	75
24	0	0	1926	741	3725	73
25	0	0	1935	740	3726	73
26	0	0	1973	741	3724	72
27	0	0	1998	740	3724	72
28	0	0	1947	735	3725	75
29	0	0	1884	736	3725	75
30	0	0	1833	735	3728	74
31	0	0	1797	734	3725	76
32	0	0	1765	732	3723	75
33	0	0	1748	734	3724	75
34	0	0	1726	734	3725	76
35	0	0	1731	737	3727	76
36	0	0	1765	738	3726	79
37	0	0	1810	738	3725	77
38	0	0	1843	738	3725	79
39	0	0	1865	739	3725	77
40	0	0	1876	738	3725	77
41	0	0	1899	738	3724	74
42	0	0	1915	740	3724	76
43	0	0	1913	739	3724	77
44	0	0	1907	740	3724	71
45	0	0	1907	741	3727	72
46	0	0	1903	740	3726	71
47	0	0	1889	738	3726	72
48	0	0	1850	734	3726	75
49	0	0	1820	737	3726	76
50	0	0	1819	738	3726	74
51	0	0	1812	736	3726	75
52	0	0	1782	734	3722	77
53	0	0	1763	736	3724	78
54	0	0	1771	737	3726	75
55	0	0	1784	737	3727	77
56	0	0	1779	737	3725	77
57	0	0	1777	738	3725	78
58	0	0	1793	738	3726	77
59	0	0	1817	739	3725	76
60	0	0	1834	740	3725	77
61	0	0	1877	740	3723	77
62	0	0	1941	740	3724	76
63	0	0	1990	738	3724	73
64	0	0	1991	737	3725	71
65	0	0	1949	737	3725	76
66	0	0	1902	737	3725	76
67	0	0	1863	737	3726	76
68	0	0	1829	733	3727	72
69	0	0	1800	736	3725	72
70	0	0	1797	738	3727	72
71	0	0	1814	737	3726	75
72	0	0	1825	738	3724	75
73	0	0	1807	732	3724	75
74	0	0	1775	734	3725	76
75	0	0	1760	735	3725	76
76	0	0	1760	738	3726	76
77	0	0	1792	738	3724	75
78	0	0	1858	735	3725	76
79	0	0	1908	739	3725	74
80	0	0	1884	736	3727	74
81	0	0	1878	740	3724	74
82	0	0	1902	741	3725	75
83	0	0	1898	735	3726	76
84	0	0	1869	739	3726	75
85	0	0	1871	740	3725	73
86	0	0	1887	740	3726	74
87	0	0	1888	739	3726	73
88	0	0	1876	737	3726	72
89	0	0	1863	736	3726	75
90	0	0	1839	735	3725	74
91	0	0	1834	737	3724	75
92	0	0	1814	735	3724	75
93	0	0	1807	735	3723	75
94	0	0	1809	739	3725	76
95	0	0	1822	738	3725	76
96	0	0	1836	735	3725	76
97	0	0	1831	737	3726	80
98	0	0	1830	735	3727	77
99	0	0	1834	739	3726	76
100	0	0	1859	739	3725	78
101	0	0	1914	740	3724	77
102	0	0	1957	741	3725	73
103	0	0	1984	738	3726	73
104	0	0	1999	741	3726	73
105	0	0	1992	738	3727	74
106	0	0	1955	738	3725	76
107	0	0	1914	737	3724	77
108	0	0	1888	736	3724	75
109	0	0	1875	739	3724	79
110	0	0	1876	738	3723	76
111	0	0	1876	737	3726	76
112	0	0	1867	737	3725	74
113	0	0	1854	735	3725	76
114	0	0	1833	735	3725	78
115	0	0	1834	737	3725	76
116	0	0	1844	736	3725	77
117	0	0	1873	738	3727	75
118	0	0	1913	735	3726	77
119	0	0	1935	739	3727	73
120	0	0	1947	739	3725	74
121	0	0	1965	741	3725	74
122	0	0	1993	740	3724	75
123	0	0	2020	741	3724	75
124	0	0	2027	740	3725	77
125	0	0	2008	739	3725	75
126	0	0	1994	738	3725	71
127	0	0	1972	737	3725	73
0	0	0	1952	735	3725	71
1	0	0	1927	737	3725	74
2	0	0	1914	737	3724	74
3	0	0	1893	735	3723	75
4	0	0	1878	735	3724	75
5	0	0	1889	737	3725	73
6	0	0	1865	735	3725	76
7	0	0	1862	737	3727	78
8	0	0	1879	737	3726	76
9	0	0	1840	734	3726	77
10	0	0	1825	738	3726	75
11	0	0	1854	739	3726	74
12	0	0	1918	739	3724	78
13	0	0	1979	740	3723	77
14	0	0	2010	740	3724	77
15	0	0	2006	741	3724	72
16	0	0	2006	741	3724	76
17	0	0	2012	741	3724	72
18	0	0	2008	740	3725	73
19	0	0	2022	739	3725	75
20	0	0	2029	739	3725	73
21	0	0	2002	737	3726	74
22	0	0	1963	736	3726	74
23	0	0	1910	734	3724	75
24	0	0	1870	734	3727	74
25	0	0	1869	737	3726	75
26	0	0	1865	735	3726	75
27	0	0	1852	737	3726	77
28	0	0	1860	737	3725	77
29	0	0	1897	738	3726	76
30	0	0	1956	739	3726	76
31	0	0	1995	741	3725	74
32	0	0	2011	739	3725	77
33	0	0	2020	739	3724	77
34	0	0	2023	741	3725	76
35	0	0	2032	740	3722	75
36	0	0	2028	740	3725	76
37	0	0	2018	740	3725	74
38	0	0	2012	739	3725	73
39	0	0	1995	735	3726	75
40	0	0	1983	739	3726	75
41	0	0	2004	738	3727	75
42	0	0	1992	737	3725	76
43	0	0	1968	736	3724	75
44	0	0	1917	733	3725	74
45	0	0	1836	734	3726	78
46	0	0	1797	734	3725	77
47	0	0	1807	737	3725	77
48	0	0	1872	737	3725	77
49	0	0	1919	738	3725	76
50	0	0	1944	737	3723	78
51	0	0	1976	739	3726	78
52	0	0	1995	740	3724	75
53	0	0	2013	740	3723	74
54	0	0	2042	740	3724	74
55	0	0	2080	742	3725	73
56	0	0	2075	741	3726	79
57	0	0	2075	740	3725	77
58	0	0	2080	741	3726	76
59	0	0	2083	740	3725	71
60	0	0	2082	739	3728	71
61	0	0	2056	736	3726	76
62	0	0	2026	736	3726	75
63	0	0	1989	735	3724	75
64	0	0	1960	734	3723	75
65	0	0	1939	734	3722	76
66	0	0	1932	737	3724	79
67	0	0	1938	737	3724	79
68	0	0	1965	737	3725	77
69	0	0	1998	738	3726	75
70	0	0	2020	736	3724	77
71	0	0	2035	739	3727	78
72	0	0	2081	739	3725	76
73	0	0	2132	739	3725	78
74	0	0	2142	740	3725	75
75	0	0	2125	737	3725	77
76	0	0	2097	738	3727	72
77	0	0	2077	740	3725	75
78	0	0	2082	740	3726	72
79	0	0	2085	738	3724	73
80	0	0	2094	740	3724	75
81	0	0	2078	736	3725	74
82	0	0	2027	735	3724	76
83	0	0	1960	735	3722	75
84	0	0	1923	734	3724	76
85	0	0	1917	736	3724	76
86	0	0	1926	737	3725	75
87	0	0	1941	737	3725	75
88	0	0	1975	736	3726	77
89	0	0	2016	737	3726	76
90	0	0	2040	738	3727	77
91	0	0	2056	738	3727	79
92	0	0	2078	739	3726	79
93	0	0	2105	740	3725	75
94	0	0	2145	740	3724	71
95	0	0	2173	741	3726	74
96	0	0	2158	738	3725	73
97	0	0	2123	738	3724	75
98	0	0	2098	739	3726	75
99	0	0	2096	742	3725	77
100	0	0	2095	740	3725	72
101	0	0	2069	735	3725	74
102	0	0	2043	736	3725	75
103	0	0	2015	735	3724	75
104	0	0	1966	733	3725	71
105	0	0	1934	735	3725	79
106	0	0	1938	736	3726	77
107	0	0	1964	737	3726	77
108	0	0	2007	738	3726	77
109	0	0	2013	736	3727	75
110	0	0	1982	738	3726	77
111	0	0	1990	739	3726	74
112	0	0	2034	739	3724	75
113	0	0	2070	738	3724	74
114	0	0	2093	739	3723	78
115	0	0	2140	740	3725	76
116	0	0	2177	740	3724	76
117	0	0	2195	742	3724	72
118	0	0	2189	738	3725	73
119	0	0	2148	737	3727	72
120	0	0	2114	736	3726	73
121	0	0	2086	736	3726	76
122	0	0	2072	737	3725	73
123	0	0	2062	737	3726	74
124	0	0	2025	735	3725	73
125	0	0	2003	740	3726	74
126	0	0	2013	736	3726	76
127	0	0	1993	733	3727	75
0	0	0	1968	736	3725	77
1	0	0	1978	738	3725	78
2	0	0	2004	738	3724	77
3	0	0	2035	738	3725	77
4	0	0	2081	739	3724	77
5	0	0	2122	740	3724	77
6	0	0	2167	741	3728	72
7	0	0	2196	742	3725	72
8	0	0	2181	740	3725	73
9	0	0	2158	737	3725	73
10	0	0	2123	738	3725	76
11	0	0	2109	740	3725	76
12	0	0	2126	740	3727	75
13	0	0	2108	736	3727	76
14	0	0	2060	735	3726	74
15	0	0	2025	735	3726	75
16	0	0	1977	730	3727	75
17	0	0	1946	735	3725	74
18	0	0	1946	736	3725	76
19	0	0	1972	737	3724	76
20	0	0	2000	737	3725	77
21	0	0	1992	738	3725	79
22	0	0	1985	735	3726	76
23	0	0	1996	739	3725	78
24	0	0	2048	739	3724	76
25	0	0	2109	739	3724	78
26	0	0	2138	740	3725	72
27	0	0	2155	740	3726	73
28	0	0	2166	739	3725	74
29	0	0	2156	738	3725	73
30	0	0	2128	737	3727	76
31	0	0	2104	740	3726	74
32	0	0	2069	738	3726	74
33	0	0	2023	734	3726	75
34	0	0	1985	736	3724	74
35	0	0	1966	735	3724	75
36	0	0	1950	737	3723	75
37	0	0	1966	731	3724	75
38	0	0	1987	735	3725	75
39	0	0	1985	737	3725	75
40	0	0	1993	737	3725	77
41	0	0	2011	736	3725	77
42	0	0	2019	735	3727	79
43	0	0	2011	737	3726	74
44	0	0	2007	739	3727	74
45	0	0	2033	738	3725	74
46	0	0	2049	739	3726	72
47	0	0	2062	740	3726	75
48	0	0	2086	741	3726	76
49	0	0	2109	740	3725	76
50	0	0	2146	740	3725	73
51	0	0	2165	739	3725	72
52	0	0	2135	738	3726	72
53	0	0	2096	735	3726	76
54	0	0	2070	735	3725	74
55	0	0	2036	733	3724	75
56	0	0	1994	736	3724	76
57	0	0	1969	736	3724	75
58	0	0	1965	736	3726	77
59	0	0	1976	736	3725	76
60	0	0	1978	737	3727	76
61	0	0	1998	738	3725	77
62	0	0	2033	739	3726	76
63	0	0	2055	737	3727	74
64	0	0	2058	739	3726	79
65	0	0	2073	739	3725	78
66	0	0	2078	740	3725	75
67	0	0	2097	739	3724	74
68	0	0	2131	741	3725	73
69	0	0	2141	740	3725	74
70	0	0	2124	738	3724	73
71	0	0	2105	737	3724	76
72	0	0	2094	735	3725	75
73	0	0	2082	737	3726	78
74	0	0	2068	737	3725	76
75	0	0	2051	735	3725	75
76	0	0	2033	736	3724	76
77	0	0	2015	735	3725	76
78	0	0	2001	736	3726	76
79	0	0	1993	737	3725	76
80	0	0	1993	737	3726	77
81	0	0	2010	735	3726	76
82	0	0	2037	735	3726	77
83	0	0	2054	737	3726	79
84	0	0	2069	738	3725	75
85	0	0	2070	739	3724	73
86	0	0	2075	738	3724	74
87	0	0	2111	735	3725	73
88	0	0	2163	740	3725	77
89	0	0	2193	739	3725	76
90	0	0	2164	737	3724	76
91	0	0	2118	735	3725	73
92	0	0	2079	735	3725	72
93	0	0	2054	736	3726	75
94	0	0	2040	739	3726	74
95	0	0	2027	736	3725	75
96	0	0	2011	735	3725	73
97	0	0	1998	736	3727	75
98	0	0	1981	734	3726	75
99	0	0	1965	735	3727	76
100	0	0	1981	737	3725	77
101	0	0	2043	738	3726	77
102	0	0	2084	738	3726	77
103	0	0	2104	738	3726	74
104	0	0	2129	739	3726	73
105	0	0	2130	739	3724	77
106	0	0	2135	740	3724	76
107	0	0	2151	740	3724	76
108	0	0	2143	741	3725	72
109	0	0	2141	740	3725	75
110	0	0	2153	740	3727	74
111	0	0	2146	735	3725	72
112	0	0	2098	736	3726	77
113	0	0	2054	736	3727	77
114	0	0	2032	736	3726	76
115	0	0	2008	737	3726	72
116	0	0	1982	736	3724	74
117	0	0	1972	737	3724	76
118	0	0	1972	737	3725	76
119	0	0	1978	735	3724	77
120	0	0	1993	738	3725	77
121	0	0	2012	738	3725	76
122	0	0	2030	738	3726	77
123	0	0	2056	739	3726	77
124	0	0	2087	739	3726	77
125	0	0	2117	739	3724	74
126	0	0	2152	740	3725	73
127	0	0	2168	741	3725	78
0	0	0	2161	741	3726	73
1	0	0	2141	739	3726	71
2	0	0	2108	735	3726	73
3	0	0	2098	739	3727	73
4	0	0	2093	740	3726	75
5	0	0	2063	736	3726	75
6	0	0	2030	734	3724	76
7	0	0	1989	734	3724	76
8	0	0	1974	735	3724	75
9	0	0	1980	737	3724	76
10	0	0	2010	736	3726	75
11	0	0	2039	737	3724	75
12	0	0	2068	739	3727	76
13	0	0	2104	738	3726	75
14	0	0	2131	738	3726	77
15	0	0	2095	736	3726	77
16	0	0	2065	737	3725	79
17	0	0	2067	739	3726	72
18	0	0	2093	740	3725	76
19	0	0	2131	738	3726	75
20	0	0	2102	738	3727	73
21	0	0	2099	740	3725	75
22	0	0	2115	740	3725	76
23	0	0	2144	739	3726	76
24	0	0	2167	739	3727	72
25	0	0	2152	736	3726	76
26	0	0	2101	734	3724	71
27	0	0	2042	734	3724	74
28	0	0	2001	734	3724	75
29	0	0	1994	738	3724	77
30	0	0	1989	738	3725	75
31	0	0	1994	736	3725	73
32	0	0	2019	736	3725	77
33	0	0	2046	735	3726	77
34	0	0	2052	736	3726	78
35	0	0	2062	739	3727	74
36	0	0	2101	739	3726	71
37	0	0	2134	741	3726	74
38	0	0	2133	740	3724	80
39	0	0	2133	740	3724	76
40	0	0	2150	740	3726	76
41	0	0	2155	740	3724	72
42	0	0	2158	743	3724	72
43	0	0	2146	738	3726	76
44	0	0	2127	736	3725	74
45	0	0	2114	738	3726	75
46	0	0	2100	737	3723	71
47	0	0	2090	738	3727	75
48	0	0	2079	735	3725	75
49	0	0	2056	735	3725	75
50	0	0	2050	737	3726	76
51	0	0	2064	737	3726	72
52	0	0	2071	738	3726	77
53	0	0	2046	736	3727	77
54	0	0	2040	739	3726	77
55	0	0	2066	739	3727	77
56	0	0	2113	739	3725	75
57	0	0	2161	742	3723	77
58	0	0	2197	739	3726	78
59	0	0	2214	740	3724	73
60	0	0	2223	739	3726	73
61	0	0	2220	740	3724	71
62	0	0	2209	740	3725	77
63	0	0	2186	737	3727	76
64	0	0	2149	736	3727	75
65	0	0	2145	738	3726	75
66	0	0	2152	738	3725	72
67	0	0	2147	738	3725	75
68	0	0	2131	736	3725	76
69	0	0	2135	737	3724	74
70	0	0	2113	733	3726	76
71	0	0	2055	733	3726	71
72	0	0	2025	736	3726	76
73	0	0	2048	739	3725	79
74	0	0	2081	739	3724	75
75	0	0	2108	738	3725	74
76	0	0	2155	739	3724	72
77	0	0	2197	740	3724	74
78	0	0	2203	740	3725	73
79	0	0	2197	740	3725	77
80	0	0	2192	740	3725	77
81	0	0	2192	740	3725	73
82	0	0	2194	740	3725	73
83	0	0	2200	739	3726	71
84	0	0	2163	735	3726	72
85	0	0	2106	736	3727	75
86	0	0	2054	735	3725	76
87	0	0	2021	735	3725	75
88	0	0	2004	736	3725	76
89	0	0	2007	737	3723	74
90	0	0	2028	735	3725	77
91	0	0	2049	737	3725	72
92	0	0	2060	737	3725	76
93	0	0	2070	736	3725	77
94	0	0	2091	738	3724	75
95	0	0	2137	737	3725	74
96	0	0	2177	739	3725	76
97	0	0	2189	740	3724	78
98	0	0	2177	738	3724	77
99	0	0	2187	743	3724	72
100	0	0	2214	740	3725	73
101	0	0	2224	741	3725	72
102	0	0	2191	737	3726	77
103	0	0	2165	738	3726	76
104	0	0	2160	739	3724	75
105	0	0	2141	737	3727	75
106	0	0	2123	739	3726	75
107	0	0	2126	737	3724	75
108	0	0	2124	736	3724	75
109	0	0	2107	736	3725	75
110	0	0	2101	733	3724	75
111	0	0	2104	737	3725	75
112	0	0	2090	736	3724	77
113	0	0	2085	737	3725	75
114	0	0	2095	738	3724	76
115	0	0	2127	738	3726	74
116	0	0	2158	740	3725	78
117	0	0	2159	740	3725	78
118	0	0	2151	740	3725	77
119	0	0	2157	741	3725	74
120	0	0	2169	740	3725	73
121	0	0	2186	740	3725	72
122	0	0	2200	741	3725	73
123	0	0	2177	736	3725	76
124	0	0	2144	736	3726	76
125	0	0	2099	734	3725	75
126	0	0	2063	735	3724	74
127	0	0	2052	737	3724	74
0	0	0	2054	736	3724	75
1	0	0	2045	737	3724	76
2	0	0	2048	738	3725	75
3	0	0	2061	737	3727	78
4	0	0	2089	736	3725	77
5	0	0	2113	738	3726	77
6	0	0	2088	736	3726	77
7	0	0	2078	737	3726	77
8	0	0	2088	739	3726	74
9	0	0	2107	738	3724	75
10	0	0	2129	740	3724	74
11	0	0	2139	740	3723	72
12	0	0	2124	741	3724	76
13	0	0	2117	741	3725	76
14	0	0	2115	739	3725	75
15	0	0	2080	740	3724	73
16	0	0	2059	741	3725	72
17	0	0	2067	739	3725	75
18	0	0	2069	738	3725	75
19	0	0	2058	735	3724	74
20	0	0	2029	734	3724	75
21	0	0	1992	735	3724	74
22	0	0	1963	735	3725	75
23	0	0	1959	740	3725	76
24	0	0	1969	737	3726	77
25	0	0	2015	740	3725	77
26	0	0	2069	739	3726	77
27	0	0	2095	739	3727	74
28	0	0	2108	739	3725	73
29	0	0	2117	739	3724	78
30	0	0	2111	742	3723	77
31	0	0	2121	743	3723	76
32	0	0	2136	743	3724	73
33	0	0	2123	737	3725	74
34	0	0	2100	739	3725	73
35	0	0	2095	740	3725	73
36	0	0	2090	740	3727	76
37	0	0	2079	738	3725	75
38	0	0	2056	736	3723	74
39	0	0	2037	734	3726	74
40	0	0	2009	733	3726	73
41	0	0	1976	733	3726	76
42	0	0	1970	736	3726	76
43	0	0	1983	737	3726	76
44	0	0	2008	737	3727	76
45	0	0	2025	737	3728	79
46	0	0	2040	737	3727	77
47	0	0	2049	738	3726	77
48	0	0	2050	739	3724	79
49	0	0	2049	739	3724	74
50	0	0	2059	740	3724	74
51	0	0	2086	739	3724	74
52	0	0	2105	743	3725	73
53	0	0	2101	739	3725	76
54	0	0	2051	736	3725	77
55	0	0	1979	736	3726	76
56	0	0	1965	739	3727	72
57	0	0	2022	739	3727	75
58	0	0	2100	738	3726	74
59	0	0	2140	735	3725	75
60	0	0	2096	731	3725	77
61	0	0	2046	735	3727	79
62	0	0	2061	739	3725	75
63	0	0	2064	735	3725	74
64	0	0	2028	734	3725	76
65	0	0	2000	739	3724	77
66	0	0	2017	737	3727	77
67	0	0	2050	738	3726	73
68	0	0	2082	739	3725	75
69	0	0	2100	737	3725	73
70	0	0	2052	737	3724	75
71	0	0	2055	740	3724	79
72	0	0	2082	742	3726	76
73	0	0	2075	739	3725	72
74	0	0	2075	739	3726	74
75	0	0	2114	740	3726	74
76	0	0	2127	739	3726	73
77	0	0	2089	736	3726	74
78	0	0	2057	736	3724	75
79	0	0	2029	735	3724	71
80	0	0	1995	735	3723	75
81	0	0	1968	735	3724	75
82	0	0	1964	737	3725	76
83	0	0	1970	736	3726	75
84	0	0	1967	735	3725	76
85	0	0	1976	737	3726	78
86	0	0	2007	739	3726	77
87	0	0	2031	738	3725	77
88	0	0	2033	738	3725	78
89	0	0	2011	735	3725	77
90	0	0	2000	739	3726	73
91	0	0	2013	740	3728	75
92	0	0	2054	740	3726	74
93	0	0	2080	740	3725	72
94	0	0	2073	739	3725	76
95	0	0	2053	739	3725	76
96	0	0	2034	736	3728	75
97	0	0	2005	736	3725	74
98	0	0	1981	738	3725	75
99	0	0	1993	737	3724	75
100	0	0	2004	737	3724	77
101	0	0	2024	738	3724	75
102	0	0	2053	736	3725	76
103	0	0	2079	736	3726	77
104	0	0	2108	737	3725	77
105	0	0	2168	738	3726	77
106	0	0	2249	737	3728	79
107	0	0	2311	738	3726	77
108	0	0	2366	739	3728	77
109	0	0	2431	735	3725	77
110	0	0	2483	739	3725	75
111	0	0	2524	740	3725	74
112	0	0	2554	740	3726	73
113	0	0	2587	740	3724	73
114	0	0	2629	741	3724	75
115	0	0	2649	740	3725	76
116	0	0	2642	740	3726	75
117	0	0	2635	738	3724	75
118	0	0	2621	738	3725	75
119	0	0	2599	736	3724	76
120	0	0	2555	734	3725	73
121	0	0	2512	734	3726	74
122	0	0	2479	736	3726	76
123	0	0	2452	735	3725	77
124	0	0	2422	733	3727	77
125	0	0	2400	736	3727	75
126	0	0	2398	738	3728	76
127	0	0	2415	739	3727	74
0	0	0	2417	739	3725	74
1	0	0	2383	738	3723	74
2	0	0	2359	738	3724	75
3	0	0	2332	739	3724	73
4	0	0	2297	738	3724	77
5	0	0	2263	737	3724	76
6	0	0	2214	736	3725	74
7	0	0	2176	736	3726	72
8	0	0	2128	736	3727	72
9	0	0	2054	732	3726	75
10	0	0	1985	734	3725	75
11	0	0	1927	733	3725	75
12	0	0	1871	733	3725	75
13	0	0	1830	732	3726	76
14	0	0	1792	733	3725	76
15	0	0	1763	735	3725	77
16	0	0	1767	737	3727	76
17	0	0	1795	737	3728	79
18	0	0	1844	738	3726	77
19	0	0	1908	736	3726	74
20	0	0	1952	738	3724	78
21	0	0	1996	740	3724	77
22	0	0	2057	739	3723	75
23	0	0	2081	739	3725	73
24	0	0	2054	738	3725	73
25	0	0	2027	737	3725	73
26	0	0	2000	737	3726	73
27	0	0	1980	736	3726	74
28	0	0	1972	738	3727	76
29	0	0	1987	739	3727	75
30	0	0	1971	734	3726	75
31	0	0	1901	733	3725	75
32	0	0	1831	732	3725	76
33	0	0	1799	733	3727	76
34	0	0	1814	736	3725	75
35	0	0	1845	736	3724	76
36	0	0	1886	738	3723	76
37	0	0	1940	737	3725	76
38	0	0	1941	733	3726	76
39	0	0	1910	734	3724	77
40	0	0	1911	738	3725	74
41	0	0	1931	737	3725	75
42	0	0	1968	739	3725	75
43	0	0	2011	739	3725	74
44	0	0	2031	739	3725	76
45	0	0	2027	739	3726	76
46	0	0	2007	736	3726	76
47	0	0	1996	739	3727	71
48	0	0	1995	739	3726	72
49	0	0	1983	735	3726	75
50	0	0	1964	735	3725	74
51	0	0	1937	734	3726	74
52	0	0	1900	734	3726	75
53	0	0	1873	735	3725	75
54	0	0	1849	731	3725	76
55	0	0	1833	735	3726	76
56	0	0	1836	738	3726	78
57	0	0	1845	735	3725	77
58	0	0	1857	737	3727	78
59	0	0	1882	735	3726	74
60	0	0	1907	738	3725	75
61	0	0	1925	739	3726	79
62	0	0	1972	738	3725	76
63	0	0	2018	740	3725	76
64	0	0	2043	739	3726	73
65	0	0	2060	739	3725	74
66	0	0	2080	740	3726	73
67	0	0	2056	737	3726	72
68	0	0	2020	736	3726	76
69	0	0	1978	735	3725	74
70	0	0	1935	734	3725	75
71	0	0	1870	734	3723	75
72	0	0	1821	734	3725	71
73	0	0	1818	737	3727	77
74	0	0	1843	736	3726	75
75	0	0	1873	736	3725	76
76	0	0	1896	736	3726	78
77	0	0	1915	735	3726	76
78	0	0	1938	738	3727	77
79	0	0	1956	737	3726	78
80	0	0	1979	739	3727	76
81	0	0	2013	736	3726	74
82	0	0	2027	739	3725	74
83	0	0	2032	740	3727	74
84	0	0	2048	739	3725	76
85	0	0	2073	740	3725	77
86	0	0	2081	738	3726	74
87	0	0	2061	738	3727	75
88	0	0	2034	735	3725	74
89	0	0	2016	737	3725	75
90	0	0	2006	735	3725	75
91	0	0	1954	734	3725	75
92	0	0	1911	734	3725	73
93	0	0	1903	736	3725	75
94	0	0	1897	735	3726	75
95	0	0	1860	733	3726	76
96	0	0	1856	736	3727	75
97	0	0	1894	737	3727	75
98	0	0	1947	737	3726	77
99	0	0	1988	736	3726	77
100	0	0	1992	738	3725	77
101	0	0	2006	740	3725	75
102	0	0	2033	740	3725	73
103	0	0	2051	740	3723	76
104	0	0	2038	737	3725	77
105	0	0	2028	739	3724	76
106	0	0	2054	739	3725	73
107	0	0	2061	740	3725	75
108	0	0	2054	740	3727	76
109	0	0	2052	738	3727	75
110	0	0	2022	735	3725	75
111	0	0	1980	734	3726	74
112	0	0	1936	734	3725	75
113	0	0	1916	734	3726	75
114	0	0	1923	737	3727	74
115	0	0	1948	736	3725	76
116	0	0	1983	738	3727	77
117	0	0	2012	738	3727	80
118	0	0	2033	738	3727	78
119	0	0	2043	736	3726	77
120	0	0	2069	739	3726	77
121	0	0	2100	740	3724	78
122	0	0	2095	738	3724	77
123	0	0	2080	740	3723	77
124	0	0	2078	737	3726	77
125	0	0	2090	740	3725	76
126	0	0	2102	741	3727	76
127	0	0	2103	739	3727	75
0	0	0	2064	736	3727	76
1	0	0	2008	736	3727	76
2	0	0	1998	738	3726	76
3	0	0	1996	740	3724	75
4	0	0	1989	737	3724	75
5	0	0	1966	733	3723	75
6	0	0	1925	732	3724	75
7	0	0	1917	738	3725	79
8	0	0	1937	737	3727	77
9	0	0	1954	737	3724	77
10	0	0	1970	737	3725	78
11	0	0	1987	737	3725	77
12	0	0	2026	739	3725	79
13	0	0	2039	740	3726	77
14	0	0	2055	741	3724	78
15	0	0	2092	740	3723	77
16	0	0	2097	740	3726	76
17	0	0	2088	740	3726	77
18	0	0	2100	739	3727	76
19	0	0	2112	739	3726	75
20	0	0	2103	737	3727	76
21	0	0	2068	733	3726	75
22	0	0	2053	738	3725	75
23	0	0	2054	738	3724	72
24	0	0	2041	735	3725	75
25	0	0	2010	734	3725	75
26	0	0	1991	736	3725	77
27	0	0	2028	736	3724	77
28	0	0	2033	735	3724	77
29	0	0	1996	736	3726	75
30	0	0	1997	738	3724	77
31	0	0	2004	738	3726	76
32	0	0	2012	739	3726	78
33	0	0	2045	737	3726	78
34	0	0	2083	739	3725	77
35	0	0	2104	740	3726	77
36	0	0	2121	740	3726	76
37	0	0	2139	740	3725	77
38	0	0	2148	739	3726	75
39	0	0	2145	739	3726	73
40	0	0	2117	736	3727	76
41	0	0	2075	734	3726	75
42	0	0	2057	738	3724	75
43	0	0	2041	735	3724	75
44	0	0	2000	736	3723	74
45	0	0	1989	738	3722	75
46	0	0	2011	737	3725	76
47	0	0	2042	733	3725	77
48	0	0	2065	738	3727	76
49	0	0	2050	736	3727	77
50	0	0	2050	739	3724	77
51	0	0	2084	737	3726	78
52	0	0	2133	738	3725	78
53	0	0	2171	739	3725	77
54	0	0	2199	740	3725	75
55	0	0	2190	740	3725	76
56	0	0	2187	740	3726	77
57	0	0	2199	740	3724	76
58	0	0	2203	741	3725	76
59	0	0	2174	737	3725	76
60	0	0	2136	736	3726	75
61	0	0	2108	738	3727	75
62	0	0	2115	738	3724	75
63	0	0	2118	738	3724	75
64	0	0	2120	737	3725	76
65	0	0	2134	736	3724	76
66	0	0	2166	736	3726	76
67	0	0	2153	734	3725	77
68	0	0	2107	732	3727	77
69	0	0	2077	734	3727	75
70	0	0	2074	739	3727	77
71	0	0	2094	740	3726	78
72	0	0	2125	739	3725	77
73	0	0	2162	739	3725	78
74	0	0	2147	736	3725	78
75	0	0	2113	738	3724	77
76	0	0	2120	740	3725	76
77	0	0	2157	740	3725	77
78	0	0	2177	740	3724	76
79	0	0	2173	740	3725	76
80	0	0	2172	739	3726	76
81	0	0	2166	740	3725	75
82	0	0	2158	738	3725	75
83	0	0	2150	738	3724	74
84	0	0	2146	737	3725	75
85	0	0	2126	736	3724	77
86	0	0	2088	734	3726	75
87	0	0	2043	734	3725	76
88	0	0	2038	736	3727	77
89	0	0	2052	738	3725	75
90	0	0	2069	738	3725	77
91	0	0	2110	737	3725	77
92	0	0	2189	739	3725	78
93	0	0	2237	739	3724	77
94	0	0	2264	739	3725	78
95	0	0	2289	741	3724	77
96	0	0	2299	740	3725	76
97	0	0	2303	740	3726	77
98	0	0	2269	740	3726	76
99	0	0	2232	738	3726	76
100	0	0	2205	737	3726	74
101	0	0	2200	740	3726	76
102	0	0	2200	738	3723	75
103	0	0	2182	736	3727	75
104	0	0	2159	734	3727	76
105	0	0	2132	736	3725	76
106	0	0	2119	737	3725	75
107	0	0	2118	737	3724	77
108	0	0	2112	737	3724	77
109	0	0	2106	740	3724	75
110	0	0	2137	739	3724	77
111	0	0	2168	739	3724	77
112	0	0	2188	739	3726	77
113	0	0	2201	739	3724	78
114	0	0	2233	742	3724	77
115	0	0	2263	740	3725	77
116	0	0	2277	741	3725	76
117	0	0	2297	741	3725	76
118	0	0	2284	739	3726	75
119	0	0	2254	737	3727	76
120	0	0	2219	737	3727	75
121	0	0	2211	739	3726	75
122	0	0	2209	738	3725	75
123	0	0	2168	734	3724	74
124	0	0	2131	735	3723	74
125	0	0	2108	735	3726	75
126	0	0	2092	734	3723	75
127	0	0	2083	737	3724	76
0	0	0	2103	737	3724	77
1	0	0	2123	738	3725	77
2	0	0	2140	737	3727	76
3	0	0	2150	735	3727	78
4	0	0	2172	739	3725	78
5	0	0	2187	740	3724	77
6	0	0	2219	740	3726	77
7	0	0	2248	740	3725	75
8	0	0	2256	740	3726	77
9	0	0	2261	740	3725	76
10	0	0	2233	737	3725	77
11	0	0	2208	741	3725	74
12	0	0	2200	740	3727	75
13	0	0	2193	738	3725	74
14	0	0	2161	735	3724	74
15	0	0	2099	733	3724	75
16	0	0	1991	733	3724	75
17	0	0	1942	736	3726	75
18	0	0	1952	737	3724	76
19	0	0	1972	737	3726	76
20	0	0	1985	737	3725	77
21	0	0	2009	737	3726	77
22	0	0	2040	738	3727	77
23	0	0	2070	739	3727	77
24	0	0	2083	739	3726	77
25	0	0	2072	739	3725	77
26	0	0	2100	741	3724	76
27	0	0	2135	740	3724	75
28	0	0	2143	740	3725	77
29	0	0	2142	740	3724	76
30	0	0	2138	740	3725	76
31	0	0	2110	735	3726	75
32	0	0	2085	738	3727	76
33	0	0	2084	739	3725	75
34	0	0	2074	737	3724	76
35	0	0	2052	736	3724	75
36	0	0	2017	733	3724	75
37	0	0	1975	733	3723	76
38	0	0	1944	734	3723	75
39	0	0	1926	736	3725	77
40	0	0	1928	737	3726	77
41	0	0	1940	736	3727	77
42	0	0	1955	739	3727	77
43	0	0	1952	738	3725	76
44	0	0	1950	739	3725	77
45	0	0	1962	739	3724	78
46	0	0	1995	739	3724	77
47	0	0	2049	740	3723	77
48	0	0	2080	742	3725	76
49	0	0	2098	740	3723	76
50	0	0	2118	740	3725	76
51	0	0	2105	736	3726	76
52	0	0	2056	736	3726	76
53	0	0	2004	736	3726	75
54	0	0	1976	736	3727	74
55	0	0	1955	734	3725	75
56	0	0	1905	733	3725	76
57	0	0	1878	736	3726	76
58	0	0	1902	736	3726	75
59	0	0	1936	737	3726	75
60	0	0	1915	732	3726	76
61	0	0	1892	737	3726	77
62	0	0	1914	737	3726	77
63	0	0	1939	740	3724	78
64	0	0	1960	739	3726	77
65	0	0	1987	743	3724	75
66	0	0	2032	740	3724	77
67	0	0	2076	740	3724	75
68	0	0	2092	738	3725	76
69	0	0	2089	740	3725	77
70	0	0	2086	741	3725	76
71	0	0	2063	736	3727	76
72	0	0	2038	736	3726	73
73	0	0	1991	736	3727	75
74	0	0	1969	738	3726	75
75	0	0	1966	738	3723	77
76	0	0	1951	735	3725	75
77	0	0	1936	735	3723	75
78	0	0	1923	735	3725	75
79	0	0	1916	736	3724	76
80	0	0	1941	738	3725	77
81	0	0	1969	737	3725	77
82	0	0	1963	736	3726	77
83	0	0	1949	739	3726	77
84	0	0	1950	739	3725	78
85	0	0	1955	739	3725	78
86	0	0	1988	739	3725	78
87	0	0	2048	739	3723	78
88	0	0	2103	741	3726	78
89	0	0	2106	739	3725	77
90	0	0	2081	738	3726	76
91	0	0	2067	738	3727	76
92	0	0	2043	737	3727	75
93	0	0	2016	738	3727	75
94	0	0	1985	736	3725	76
95	0	0	1983	736	3725	75
96	0	0	1972	733	3724	74
97	0	0	1920	733	3725	75
98	0	0	1903	737	3725	76
99	0	0	1916	736	3724	77
100	0	0	1939	736	3725	75
101	0	0	1946	737	3726	77
102	0	0	1933	738	3725	78
103	0	0	1951	738	3727	77
104	0	0	1983	738	3726	76
105	0	0	1987	739	3725	77
106	0	0	1997	740	3726	77
107	0	0	2027	740	3727	77
108	0	0	2058	741	3726	77
109	0	0	2056	740	3727	76
110	0	0	2050	741	3726	76
111	0	0	2067	741	3726	76
112	0	0	2091	740	3726	75
113	0	0	2076	737	3726	75
114	0	0	2063	738	3724	76
115	0	0	2049	736	3725	74
116	0	0	2004	732	3725	74
117	0	0	1948	733	3725	74
118	0	0	1923	736	3724	76
119	0	0	1925	738	3723	77
120	0	0	1931	738	3725	77
121	0	0	1938	736	3725	77
122	0	0	1958	737	3727	76
123	0	0	2001	738	3727	77
124	0	0	2034	739	3726	78
125	0	0	2051	740	3726	76
126	0	0	2054	739	3726	76
127	0	0	2022	738	3725	77
0	0	0	2021	741	3724	76
1	0	0	2042	740	3724	76
2	0	0	2086	740	3725	75
3	0	0	2089	737	3725	76
4	0	0	2043	737	3724	77
5	0	0	2030	739	3726	76
6	0	0	2007	737	3724	75
7	0	0	1974	735	3724	75
8	0	0	1945	734	3725	74
9	0	0	1918	734	3726	75
10	0	0	1895	735	3724	74
11	0	0	1905	735	3725	77
12	0	0	1945	737	3726	77
13	0	0	1983	738	3724	78
14	0	0	2005	738	3727	77
15	0	0	2030	738	3727	77
16	0	0	2040	739	3725	77
17	0	0	2042	740	3724	80
18	0	0	2055	740	3724	77
19	0	0	2083	740	3722	78
20	0	0	2097	740	3722	76
21	0	0	2104	740	3725	77
22	0	0	2106	740	3725	77
23	0	0	2080	737	3725	75
24	0	0	2038	736	3726	77
25	0	0	2007	737	3724	75
26	0	0	2010	739	3726	75
27	0	0	2023	738	3725	75
28	0	0	2033	737	3725	75
29	0	0	2004	735	3726	74
30	0	0	1965	733	3724	76
31	0	0	1939	734	3726	76
32	0	0	1931	736	3725	77
33	0	0	1939	738	3724	77
34	0	0	1947	738	3727	75
35	0	0	1968	738	3724	77
36	0	0	2010	739	3725	77
37	0	0	2048	739	3726	78
38	0	0	2062	740	3723	77
39	0	0	2069	739	3724	78
40	0	0	2072	740	3724	76
41	0	0	2072	739	3725	26
42	0	0	2035	737	3726	76
43	0	0	1996	737	3726	76
44	0	0	1989	739	3727	75
45	0	0	2019	739	3726	75
46	0	0	2066	738	3727	75
47	0	0	2090	740	3724	75
48	0	0	2058	734	3723	76
49	0	0	2002	735	3725	73
50	0	0	2007	737	3726	75
51	0	0	2016	737	3724	75
52	0	0	2007	736	3724	76
53	0	0	2000	735	3725	77
54	0	0	1995	737	3726	77
55	0	0	2014	738	3726	77
56	0	0	2050	739	3726	76
57	0	0	2086	740	3723	75
58	0	0	2103	740	3723	77
59	0	0	2091	739	3726	76
60	0	0	2074	739	3724	77
61	0	0	2067	740	3726	77
62	0	0	2076	739	3727	76
63	0	0	2104	740	3725	75
64	0	0	2111	740	3727	73
65	0	0	2081	736	3724	75
66	0	0	2035	735	3725	75
67	0	0	1992	735	3726	74
68	0	0	1966	737	3723	75
69	0	0	1977	736	3723	74
70	0	0	1984	736	3724	77
71	0	0	1966	734	3724	76
72	0	0	1942	735	3724	76
73	0	0	1951	738	3725	77
74	0	0	1991	738	3726	77
75	0	0	2019	740	3724	78
76	0	0	2028	739	3725	78
77	0	0	2028	739	3727	77
78	0	0	2045	740	3726	77
79	0	0	2072	740	3726	80
80	0	0	2085	740	3726	76
81	0	0	2092	740	3725	76
82	0	0	2090	740	3725	76
83	0	0	2078	739	3725	75
84	0	0	2063	741	3725	74
85	0	0	2077	739	3724	75
86	0	0	2101	738	3724	75
87	0	0	2090	735	3724	75
88	0	0	2048	734	3721	77
89	0	0	2003	734	3725	75
90	0	0	1971	734	3725	76
91	0	0	1954	735	3726	75
92	0	0	1945	737	3724	77
93	0	0	1951	738	3726	77
94	0	0	1987	738	3726	76
95	0	0	2018	738	3724	74
96	0	0	2050	740	3726	77
97	0	0	2073	739	3725	77
98	0	0	2100	740	3725	77
99	0	0	2122	740	3725	75
100	0	0	2118	739	3725	74
101	0	0	2101	740	3725	77
102	0	0	2096	740	3724	76
103	0	0	2089	740	3726	75
104	0	0	2094	740	3724	74
105	0	0	2076	737	3725	76
106	0	0	2061	737	3725	75
107	0	0	2048	737	3724	75
108	0	0	2019	734	3724	75
109	0	0	1975	734	3725	73
110	0	0	1940	734	3725	77
111	0	0	1929	736	3723	77
112	0	0	1940	736	3727	77
113	0	0	1970	737	3724	78
114	0	0	1998	737	3725	76
115	0	0	2041	737	3726	78
116	0	0	2098	738	3725	78
117	0	0	2117	739	3724	78
118	0	0	2112	740	3724	80
119	0	0	2131	740	3724	75
120	0	0	2140	742	3723	76
121	0	0	2127	738	3723	76
122	0	0	2074	735	3725	76
123	0	0	2029	738	3724	75
124	0	0	2040	740	3725	76
125	0	0	2062	739	3723	76
126	0	0	2068	739	3726	73
127	0	0	2043	737	3726	75
0	0	0	2007	735	3725	75
1	0	0	1973	734	3726	77
2	0	0	1947	734	3726	76
3	0	0	1922	735	3726	75
4	0	0	1932	739	3725	75
5	0	0	1951	738	3725	77
6	0	0	1980	738	3724	76
7	0	0	2015	740	3723	79
8	0	0	2024	739	3726	77
9	0	0	2028	741	3726	79
10	0	0	2068	739	3726	78
11	0	0	2115	740	3725	80
12	0	0	2150	739	3725	76
13	0	0	2151	740	3725	77
14	0	0	2131	737	3727	76
15	0	0	2107	737	3727	75
16	0	0	2082	737	3727	79
17	0	0	2071	739	3726	75
18	0	0	2079	738	3726	75
19	0	0	2080	738	3725	75
20	0	0	2060	737	3725	76
21	0	0	2046	736	3724	76
22	0	0	2024	734	3723	75
23	0	0	1998	734	3724	74
24	0	0	1981	738	3725	78
25	0	0	1994	738	3725	77
26	0	0	2029	737	3725	80
27	0	0	2043	737	3725	76
28	0	0	2067	739	3725	77
29	0	0	2089	737	3725	78
30	0	0	2097	740	3725	75
31	0	0	2074	738	3725	80
32	0	0	2060	740	3726	76
33	0	0	2080	741	3726	77
34	0	0	2083	739	3726	76
35	0	0	2088	740	3727	74
36	0	0	2090	739	3726	79
37	0	0	2057	735	3726	75
38	0	0	2021	737	3724	75
39	0	0	2004	734	3725	73
40	0	0	1976	734	3725	72
41	0	0	1963	735	3724	78
42	0	0	1965	736	3723	75
43	0	0	1965	737	3726	79
44	0	0	1963	736	3726	76
45	0	0	1957	737	3726	74
46	0	0	1970	738	3726	79
47	0	0	2018	738	3728	76
48	0	0	2067	739	3726	77
49	0	0	2086	739	3725	77
50	0	0	2077	738	3725	76
51	0	0	2057	739	3725	79
52	0	0	2048	740	3726	77
53	0	0	2048	741	3725	77
54	0	0	2068	740	3726	76
55	0	0	2094	740	3726	75
56	0	0	2105	740	3726	78
57	0	0	2101	739	3725	75
58	0	0	2091	739	3724	75
59	0	0	2082	737	3724	75
60	0	0	2066	735	3724	75
61	0	0	2036	735	3725	77
62	0	0	2018	736	3724	75
63	0	0	1993	735	3726	74
64	0	0	1984	733	3727	76
65	0	0	1992	738	3728	77
66	0	0	2018	737	3726	79
67	0	0	2049	737	3726	77
68	0	0	2064	738	3726	77
69	0	0	2067	740	3726	77
70	0	0	2075	738	3726	77
71	0	0	2084	741	3724	78
72	0	0	2111	740	3724	77
73	0	0	2137	740	3724	77
74	0	0	2157	740	3724	76
75	0	0	2205	740	3725	76
76	0	0	2187	737	3726	75
77	0	0	2119	736	3726	74
78	0	0	2090	737	3726	74
79	0	0	2098	739	3725	75
80	0	0	2113	739	3725	76
81	0	0	2075	734	3725	75
82	0	0	2032	734	3725	74
83	0	0	1994	734	3725	76
84	0	0	1968	734	3723	78
85	0	0	1950	738	3726	76
86	0	0	1989	736	3726	79
87	0	0	2052	738	3724	76
88	0	0	2099	739	3725	77
89	0	0	2143	739	3724	77
90	0	0	2172	741	3724	76
91	0	0	2173	740	3725	77
92	0	0	2159	740	3725	76
93	0	0	2153	741	3724	77
94	0	0	2126	738	3724	77
95	0	0	2098	738	3726	75
96	0	0	2084	738	3726	75
97	0	0	2072	738	3724	75
98	0	0	2045	736	3725	76
99	0	0	2017	735	3725	75
100	0	0	2012	737	3725	75
101	0	0	2027	737	3725	74
102	0	0	2036	735	3726	75
103	0	0	2012	734	3725	76
104	0	0	1998	737	3725	76
105	0	0	2015	735	3725	77
106	0	0	2044	738	3726	76
107	0	0	2070	738	3724	76
108	0	0	2107	739	3724	78
109	0	0	2134	739	3724	78
110	0	0	2142	740	3725	77
111	0	0	2128	739	3724	76
112	0	0	2124	740	3725	76
113	0	0	2102	738	3725	76
114	0	0	2067	737	3725	74
115	0	0	2058	737	3727	76
116	0	0	2087	739	3727	75
117	0	0	2126	738	3728	73
118	0	0	2135	739	3727	77
119	0	0	2127	739	3726	75
120	0	0	2106	733	3726	75
121	0	0	2069	734	3725	75
122	0	0	2025	734	3725	76
123	0	0	2001	734	3724	77
124	0	0	1988	736	3723	78
125	0	0	1988	735	3724	75
126	0	0	2005	737	3726	77
127	0	0	2033	738	3727	76
0	0	0	2054	738	3725	77
1	0	0	2061	740	3724	78
2	0	0	2086	740	3724	79
3	0	0	2122	740	3725	77
4	0	0	2128	741	3726	77
5	0	0	2128	738	3725	77
6	0	0	2134	740	3725	77
7	0	0	2137	740	3727	75
8	0	0	2137	738	3726	76
9	0	0	2108	737	3727	75
10	0	0	2099	739	3728	77
11	0	0	2093	738	3724	75
12	0	0	2077	735	3723	75
13	0	0	2056	735	3724	75
14	0	0	2020	735	3725	75
15	0	0	1999	735	3724	76
16	0	0	2008	738	3724	77
17	0	0	2021	735	3725	75
18	0	0	2041	738	3726	78
19	0	0	2061	738	3728	76
20	0	0	2077	739	3725	77
21	0	0	2096	739	3726	77
22	0	0	2117	740	3726	77
23	0	0	2157	740	3726	77
24	0	0	2202	740	3725	76
25	0	0	2220	740	3725	77
26	0	0	2237	741	3725	77
27	0	0	2240	735	3725	76
28	0	0	2165	735	3726	73
29	0	0	2088	735	3725	74
30	0	0	2024	736	3724	76
31	0	0	1992	736	3724	75
32	0	0	1989	735	3723	75
33	0	0	2010	736	3724	73
34	0	0	2044	736	3724	75
35	0	0	2015	734	3726	76
36	0	0	1978	731	3727	76
37	0	0	1979	734	3726	77
38	0	0	2025	737	3727	77
39	0	0	2075	738	3727	80
40	0	0	2091	739	3726	78
41	0	0	2053	736	3727	77
42	0	0	2036	735	3725	76
43	0	0	2062	739	3724	74
44	0	0	2106	740	3724	76
45	0	0	2125	740	3724	77
46	0	0	2103	737	3724	76
47	0	0	2068	735	3724	75
48	0	0	2030	739	3726	80
49	0	0	2035	738	3725	75
50	0	0	2057	739	3725	76
51	0	0	2054	736	3724	75
52	0	0	2019	733	3724	75
53	0	0	1970	733	3726	74
54	0	0	1963	735	3727	75
55	0	0	1977	737	3728	76
56	0	0	1993	737	3726	77
57	0	0	2010	735	3726	75
58	0	0	2031	738	3727	80
59	0	0	2038	735	3725	76
60	0	0	2064	738	3725	77
61	0	0	2099	739	3725	78
62	0	0	2129	739	3724	75
63	0	0	2151	741	3724	76
64	0	0	2158	742	3723	76
65	0	0	2131	737	3724	79
66	0	0	2115	740	3725	77
67	0	0	2108	739	3725	75
68	0	0	2096	738	3726	78
69	0	0	2069	736	3725	76
70	0	0	2038	736	3726	79
71	0	0	2030	736	3723	75
72	0	0	2040	735	3725	75
73	0	0	2016	733	3726	75
74	0	0	1981	734	3724	75
75	0	0	1968	735	3726	75
76	0	0	1975	737	3724	80
77	0	0	2009	735	3725	76
78	0	0	2045	737	3725	76
79	0	0	2076	736	3725	79
80	0	0	2124	738	3726	77
81	0	0	2156	739	3726	78
82	0	0	2173	739	3723	76
83	0	0	2199	741	3724	77
84	0	0	2183	739	3724	77
85	0	0	2183	740	3724	77
86	0	0	2195	739	3726	74
87	0	0	2133	735	3725	73
88	0	0	2083	738	3726	77
89	0	0	2086	740	3726	75
90	0	0	2097	738	3726	76
91	0	0	2107	737	3727	79
92	0	0	2100	733	3723	75
93	0	0	2061	733	3725	78
94	0	0	2028	734	3723	74
95	0	0	2017	736	3726	75
96	0	0	2019	733	3725	76
97	0	0	2019	737	3723	78
98	0	0	2031	738	3726	79
99	0	0	2060	737	3725	79
100	0	0	2058	737	3725	77
101	0	0	2038	738	3726	76
102	0	0	2044	737	3724	78
103	0	0	2078	739	3724	78
104	0	0	2093	741	3725	78
105	0	0	2113	740	3726	76
106	0	0	2123	739	3726	76
107	0	0	2121	739	3726	76
108	0	0	2091	737	3727	75
109	0	0	2061	738	3725	78
110	0	0	2062	739	3726	75
111	0	0	2041	735	3725	75
112	0	0	2002	733	3723	76
113	0	0	1964	734	3725	75
114	0	0	1958	736	3726	77
115	0	0	1973	736	3724	76
116	0	0	2000	736	3725	76
117	0	0	2044	738	3726	80
118	0	0	2086	737	3726	77
119	0	0	2102	738	3726	77
120	0	0	2103	738	3725	77
121	0	0	2092	738	3725	78
122	0	0	2116	740	3725	75
123	0	0	2140	740	3726	77
124	0	0	2149	740	3727	77
125	0	0	2153	739	3726	77
126	0	0	2131	738	3724	75
127	0	0	2116	738	3726	79
0	0	0	2118	740	3726	76
1	0	0	2102	737	3725	77
2	0	0	2077	736	3724	75
3	0	0	2070	738	3724	74
4	0	0	2053	733	3722	75
5	0	0	2017	734	3724	79
6	0	0	1989	735	3724	77
7	0	0	1991	736	3724	77
8	0	0	2011	737	3725	77
9	0	0	2046	736	3726	77
10	0	0	2074	737	3727	77
11	0	0	2081	738	3728	79
12	0	0	2100	735	3726	77
13	0	0	2132	739	3725	78
14	0	0	2149	740	3725	77
15	0	0	2154	738	3725	76
16	0	0	2157	740	3724	79
17	0	0	2150	739	3724	76
18	0	0	2127	738	3725	77
19	0	0	2099	736	3724	77
20	0	0	2098	740	3725	79
21	0	0	2087	738	3724	78
22	0	0	2065	737	3725	76
23	0	0	2052	737	3725	75
24	0	0	2032	736	3724	76
25	0	0	1979	734	3724	75
26	0	0	1929	734	3725	77
27	0	0	1963	737	3726	76
28	0	0	2018	734	3727	76
29	0	0	2028	736	3726	77
30	0	0	2038	737	3727	76
31	0	0	2043	738	3724	79
32	0	0	2052	735	3725	77
33	0	0	2060	738	3724	76
34	0	0	2075	740	3724	75
35	0	0	2089	739	3724	76
36	0	0	2102	740	3725	75
37	0	0	2110	740	3724	77
38	0	0	2113	739	3725	76
39	0	0	2129	740	3726	79
40	0	0	2129	738	3726	77
41	0	0	2100	736	3726	77
42	0	0	2059	735	3725	75
43	0	0	2021	736	3725	75
44	0	0	1976	734	3728	76
45	0	0	1923	734	3726	75
46	0	0	1906	736	3728	74
47	0	0	1901	737	3725	77
48	0	0	1902	737	3724	77
49	0	0	1910	736	3726	79
50	0	0	1954	738	3726	76
51	0	0	2011	738	3725	78
52	0	0	2041	740	3725	77
53	0	0	2044	740	3724	77
54	0	0	2035	740	3724	77
55	0	0	2037	738	3725	79
56	0	0	2032	742	3724	75
57	0	0	2039	741	3726	76
58	0	0	2067	740	3724	78
59	0	0	2094	742	3726	74
60	0	0	2080	736	3727	75
61	0	0	2065	740	3727	75
62	0	0	2068	739	3726	75
63	0	0	2054	735	3725	75
64	0	0	2009	734	3725	74
65	0	0	1968	733	3725	75
66	0	0	1946	736	3724	74
67	0	0	1950	738	3724	76
68	0	0	1982	737	3725	77
69	0	0	2022	737	3726	80
70	0	0	2056	737	3726	78
71	0	0	2055	737	3725	77
72	0	0	2046	738	3725	77
73	0	0	2044	739	3724	78
74	0	0	2036	739	3726	79
75	0	0	2037	740	3725	77
76	0	0	2045	740	3725	75
77	0	0	2059	740	3726	76
78	0	0	2071	740	3725	76
79	0	0	2059	740	3726	75
80	0	0	2041	737	3727	75
81	0	0	2041	739	3726	74
82	0	0	2057	739	3725	75
83	0	0	2045	735	3724	75
84	0	0	2006	733	3725	79
85	0	0	1967	734	3724	74
86	0	0	1962	736	3724	75
87	0	0	1988	736	3724	77
88	0	0	2017	736	3724	77
89	0	0	2023	736	3726	79
90	0	0	2003	736	3726	76
91	0	0	2024	737	3726	77
92	0	0	2051	738	3725	78
93	0	0	2055	738	3725	76
94	0	0	2070	740	3726	76
95	0	0	2057	737	3726	77
96	0	0	2049	740	3726	76
97	0	0	2063	739	3726	77
98	0	0	2085	740	3725	77
99	0	0	2116	742	3726	74
100	0	0	2103	736	3726	78
101	0	0	2087	740	3726	73
102	0	0	2101	737	3724	76
103	0	0	2110	738	3725	73
104	0	0	2070	733	3725	74
105	0	0	2008	732	3725	75
106	0	0	1949	733	3724	74
107	0	0	1920	734	3724	76
108	0	0	1919	736	3724	77
109	0	0	1930	739	3726	76
110	0	0	1955	737	3727	77
111	0	0	1988	738	3726	76
112	0	0	2009	738	3727	76
113	0	0	2007	739	3724	76
114	0	0	2007	741	3725	76
115	0	0	2014	739	3725	75
116	0	0	2063	740	3724	75
117	0	0	2113	741	3724	76
118	0	0	2107	739	3728	76
119	0	0	2080	735	3726	76
120	0	0	2052	736	3726	77
121	0	0	2031	738	3725	80
122	0	0	2010	735	3724	333
123	0	0	1959	735	3728	996
124	0	0	1937	731	3724	1742
125	0	0	1949	736	3726	2369
126	0	0	1955	735	3725	2817
127	0	0	1907	732	3724	3119
0	0	0	1880	734	3728	3326
1	0	0	1887	731	3727	3471
2	0	0	1909	735	3726	3571
3	0	0	1957	737	3726	3646
4	0	0	2016	738	3724	3701
5	0	0	2087	739	3728	3744
6	0	0	2140	736	3724	3780
7	0	0	2153	738	3725	3805
8	0	0	2188	739	3724	3828
9	0	0	2236	739	3723	3843
10	0	0	2277	739	3725	3860
11	0	0	2317	736	3725	3871
12	0	0	2361	738	3725	3883
13	0	0	2386	738	3727	3893
14	0	0	2416	735	3726	3899
15	0	0	2460	737	3725	3907
16	0	0	2513	736	3726	3913
17	0	0	2526	736	3726	3917
18	0	0	2511	736	3726	3923
19	0	0	2518	738	3724	3927
20	0	0	2566	736	3725	3932
21	0	0	2621	736	3726	3936
22	0	0	2654	735	3725	3939
23	0	0	2671	737	3725	3942
24	0	0	2713	737	3726	3947
25	0	0	2764	740	3725	3946
26	0	0	2779	740	3724	3949
27	0	0	2777	739	3725	3950
28	0	0	2789	739	3724	3951
29	0	0	2765	739	3724	3953
30	0	0	2739	739	3725	3959
31	0	0	2711	733	3726	3960
32	0	0	2657	735	3727	3961
33	0	0	2610	735	3728	3960
34	0	0	2548	733	3726	3960
35	0	0	2497	735	3726	3961
36	0	0	2465	735	3725	3963
37	0	0	2429	733	3726	3966
38	0	0	2392	733	3723	3968
39	0	0	2343	731	3724	3965
40	0	0	2265	732	3724	3967
41	0	0	2195	732	3726	3969
42	0	0	2171	735	3725	3970
43	0	0	2199	737	3725	3971
44	0	0	2206	738	3725	3971
45	0	0	2192	736	3725	3973
46	0	0	2147	732	3725	3973
47	0	0	2124	738	3725	3976
48	0	0	2113	738	3725	3976
49	0	0	2096	738	3725	3976
50	0	0	2080	740	3726	3975
51	0	0	2087	739	3726	3976
52	0	0	2086	739	3727	3976
53	0	0	2091	738	3726	3975
54	0	0	2069	735	3726	3976
55	0	0	2045	735	3724	3978
56	0	0	2035	735	3725	3979
57	0	0	2000	733	3724	3979
58	0	0	1957	732	3725	3980
59	0	0	1942	736	3724	3979
60	0	0	1967	737	3725	3979
61	0	0	1985	737	3725	3980
62	0	0	1999	736	3726	3981
63	0	0	2056	737	3728	3979
64	0	0	2113	740	3726	3983
65	0	0	2129	739	3725	3983
66	0	0	2118	739	3726	3983
67	0	0	2113	738	3726	3982
68	0	0	2107	739	3725	3984
69	0	0	2125	740	3725	3984
70	0	0	2149	738	3725	3982
71	0	0	2133	736	3725	3986
72	0	0	2118	739	3726	3986
73	0	0	2130	738	3726	3985
74	0	0	2163	738	3726	3983
75	0	0	2193	737	3724	3983
76	0	0	2213	736	3724	3984
77	0	0	2195	734	3725	3987
78	0	0	2183	737	3723	3984
79	0	0	2158	734	3725	3985
80	0	0	2108	734	3725	3987
81	0	0	2108	736	3726	3985
82	0	0	2146	738	3727	3986
83	0	0	2202	737	3726	3988
84	0	0	2240	738	3726	3985
85	0	0	2268	738	3726	3987
86	0	0	2304	736	3725	3986
87	0	0	2352	740	3725	3987
88	0	0	2377	742	3724	3992
89	0	0	2371	739	3724	3989
90	0	0	2355	739	3725	3990
91	0	0	2350	739	3726	3989
92	0	0	2311	736	3726	3988
93	0	0	2259	736	3726	3989
94	0	0	2244	739	3725	3988
95	0	0	2248	737	3725	3988
96	0	0	2239	738	3724	3988
97	0	0	2215	734	3725	3989
98	0	0	2213	737	3725	3988
99	0	0	2240	737	3726	3989
100	0	0	2250	735	3726	3989
101	0	0	2252	736	3727	3990
102	0	0	2245	737	3727	3989
103	0	0	2264	738	3726	3992
104	0	0	2289	738	3726	3990
105	0	0	2300	737	3725	3989
106	0	0	2300	737	3724	3989
107	0	0	2296	740	3725	3989
108	0	0	2300	740	3724	3992
109	0	0	2305	739	3726	3992
110	0	0	2307	740	3726	3993
111	0	0	2316	740	3726	3992
112	0	0	2308	739	3727	3992
113	0	0	2299	739	3726	3992
114	0	0	2299	740	3725	3990
115	0	0	2285	737	3726	3991
116	0	0	2252	732	3725	3990
117	0	0	2215	733	3726	3992
118	0	0	2204	736	3725	3992
119	0	0	2209	736	3724	3992
120	0	0	2248	736	3727	3992
121	0	0	2282	737	3727	3992
122	0	0	2291	737	3726	3993
123	0	0	2289	738	3725	3994
124	0	0	2297	737	3725	3992
125	0	0	2313	739	3725	3991
126	0	0	2330	741	3724	3993
127	0	0	2367	740	3725	3994
0	0	0	2390	739	3725	3996
1	0	0	2417	743	3724	3992
2	0	0	2484	739	3727	3989
3	0	0	2542	740	3727	3991
4	0	0	2546	740	3727	3993
5	0	0	2505	735	3725	3995
6	0	0	2443	735	3727	3992
7	0	0	2420	739	3726	3993
8	0	0	2457	740	3725	3991
9	0	0	2470	736	3726	3993
10	0	0	2456	734	3726	3994
11	0	0	2414	734	3725	3993
12	0	0	2403	735	3725	3993
13	0	0	2409	737	3725	3993
14	0	0	2422	738	3726	3996
15	0	0	2459	738	3726	3999
16	0	0	2531	739	3725	3994
17	0	0	2577	739	3726	3993
18	0	0	2596	741	3724	3993
19	0	0	2617	738	3725	3995
20	0	0	2598	738	3725	3995
21	0	0	2578	740	3725	3994
22	0	0	2595	739	3727	3992
23	0	0	2599	740	3726	3994
24	0	0	2569	738	3727	3995
25	0	0	2543	736	3728	3995
26	0	0	2489	735	3726	3994
27	0	0	2450	736	3726	3994
28	0	0	2429	738	3726	3995
29	0	0	2414	735	3724	3995
30	0	0	2403	736	3725	3996
31	0	0	2393	736	3724	3994
32	0	0	2397	735	3725	3996
33	0	0	2415	737	3724	3996
34	0	0	2439	737	3727	3995
35	0	0	2464	738	3726	3998
36	0	0	2490	738	3726	3995
37	0	0	2503	737	3726	3995
38	0	0	2520	740	3725	3994
39	0	0	2553	738	3726	3996
40	0	0	2590	739	3725	3997
41	0	0	2583	738	3727	3997
42	0	0	2563	740	3727	3997
43	0	0	2564	739	3724	3995
44	0	0	2552	738	3726	3996
45	0	0	2520	736	3726	3996
46	0	0	2476	735	3725	3995
47	0	0	2451	735	3724	3996
48	0	0	2435	737	3723	3996
49	0	0	2427	735	3725	3996
50	0	0	2417	736	3725	3995
51	0	0	2392	736	3725	3995
52	0	0	2385	736	3726	3996
53	0	0	2408	736	3725	3997
54	0	0	2448	735	3727	3996
55	0	0	2478	734	3726	3999
56	0	0	2493	738	3727	3996
57	0	0	2519	738	3726	3996
58	0	0	2543	739	3724	3997
59	0	0	2545	740	3727	3996
60	0	0	2538	740	3724	3996
61	0	0	2568	740	3726	3997
62	0	0	2627	741	3725	3997
63	0	0	2643	742	3725	3997
64	0	0	2585	734	3726	3998
65	0	0	2530	736	3725	3997
66	0	0	2486	735	3726	3996
67	0	0	2428	736	3726	3996
68	0	0	2375	735	3724	3995
69	0	0	2326	732	3724	3998
70	0	0	2285	732	3725	3996
71	0	0	2269	736	3724	4000
72	0	0	2269	736	3727	3996
73	0	0	2284	739	3727	3996
74	0	0	2306	737	3727	3997
75	0	0	2348	738	3726	3997
76	0	0	2420	738	3726	3996
77	0	0	2464	740	3725	3996
78	0	0	2479	742	3724	3996
79	0	0	2496	737	3724	3997
80	0	0	2525	741	3724	3998
81	0	0	2532	739	3724	3997
82	0	0	2512	738	3725	3998
83	0	0	2492	739	3726	3996
84	0	0	2477	741	3727	3998
85	0	0	2496	739	3723	3995
86	0	0	2518	738	3727	3998
87	0	0	2489	734	3728	3996
88	0	0	2432	734	3725	3997
89	0	0	2400	734	3727	3998
90	0	0	2381	736	3725	3996
91	0	0	2377	735	3727	3998
92	0	0	2368	739	3726	3996
93	0	0	2337	734	3724	3997
94	0	0	2325	737	3727	3997
95	0	0	2365	737	3723	4002
96	0	0	2423	737	3726	3997
97	0	0	2461	739	3725	3999
98	0	0	2495	739	3725	3997
99	0	0	2533	739	3725	3999
100	0	0	2577	739	3725	3997
101	0	0	2558	737	3725	3997
102	0	0	2527	740	3725	3997
103	0	0	2527	743	3726	3997
104	0	0	2515	741	3729	3998
105	0	0	2475	737	3728	3999
106	0	0	2462	738	3726	3998
107	0	0	2444	738	3726	3997
108	0	0	2404	734	3726	3995
109	0	0	2354	735	3726	3997
110	0	0	2319	734	3725	3997
111	0	0	2320	735	3726	3999
112	0	0	2317	736	3725	3998
113	0	0	2279	735	3725	3995
114	0	0	2272	737	3726	3999
115	0	0	2303	737	3725	3998
116	0	0	2331	737	3725	3998
117	0	0	2355	739	3725	3998
118	0	0	2404	739	3725	3997
119	0	0	2470	743	3725	3999
120	0	0	2504	740	3726	3998
121	0	0	2498	739	3724	3999
122	0	0	2456	738	3726	3999
123	0	0	2441	740	3728	3997
124	0	0	2469	739	3727	3999
125	0	0	2495	739	3726	3997
126	0	0	2474	735	3727	3999
127	0	0	2423	735	3725	3998
0	0	0	2390	734	3727	3996
1	0	0	2375	739	3725	3999
2	0	0	2362	735	3723	4000
3	0	0	2355	736	3725	3998
4	0	0	2372	734	3726	3998
5	0	0	2388	736	3727	3996
6	0	0	2377	739	3726	3998
7	0	0	2375	738	3726	3996
8	0	0	2400	738	3726	3998
9	0	0	2436	740	3725	3998
10	0	0	2453	738	3728	3999
11	0	0	2463	739	3726	4000
12	0	0	2487	738	3725	3999
13	0	0	2511	738	3726	3999
14	0	0	2523	739	3725	3996
15	0	0	2507	738	3727	3996
16	0	0	2458	737	3726	3999
17	0	0	2395	735	3725	3999
18	0	0	2360	737	3725	3997
19	0	0	2346	738	3725	4000
20	0	0	2342	738	3724	3999
21	0	0	2332	736	3724	3999
22	0	0	2294	734	3724	3999
23	0	0	2291	735	3725	3996
24	0	0	2313	737	3725	3999
25	0	0	2310	738	3726	4000
26	0	0	2304	738	3727	4000
27	0	0	2310	737	3727	4000
28	0	0	2324	735	3726	3999
29	0	0	2342	738	3726	4000
30	0	0	2345	736	3726	3999
31	0	0	2353	739	3724	3999
32	0	0	2372	739	3724	3999
33	0	0	2389	735	3725	3998
34	0	0	2388	739	3725	3998
35	0	0	2393	739	3728	4000
36	0	0	2390	739	3726	3999
37	0	0	2367	737	3725	3997
38	0	0	2326	735	3725	3998
39	0	0	2290	737	3725	3999
40	0	0	2250	733	3727	3999
41	0	0	2214	734	3726	4000
42	0	0	2187	734	3725	3999
43	0	0	2175	735	3725	3998
44	0	0	2179	736	3726	3998
45	0	0	2200	737	3726	3999
46	0	0	2248	736	3727	3999
47	0	0	2278	737	3725	3999
48	0	0	2270	738	3726	3999
49	0	0	2275	738	3725	3998
50	0	0	2289	738	3726	4001
51	0	0	2260	736	3724	4000
52	0	0	2220	738	3724	4000
53	0	0	2251	738	3726	4001
54	0	0	2287	739	3726	4001
55	0	0	2268	738	3728	3998
56	0	0	2243	736	3726	3999
57	0	0	2195	735	3725	3999
58	0	0	2164	738	3724	4000
59	0	0	2154	737	3726	3999
60	0	0	2116	734	3725	3999
61	0	0	2072	733	3726	3999
62	0	0	2027	732	3725	3999
63	0	0	1999	736	3723	4000
64	0	0	2036	736	3726	3999
65	0	0	2099	735	3724	4000
66	0	0	2145	736	3725	4000
67	0	0	2162	737	3726	4000
68	0	0	2164	735	3726	4000
69	0	0	2162	738	3724	4000
70	0	0	2152	738	3726	3999
71	0	0	2159	740	3726	4001
72	0	0	2172	739	3724	4000
73	0	0	2180	738	3726	3998
74	0	0	2177	738	3725	3999
75	0	0	2133	737	3724	4000
76	0	0	2082	736	3726	4000
77	0	0	2079	739	3726	3999
78	0	0	2089	739	3724	4000
79	0	0	2070	736	3726	3999
80	0	0	2035	734	3724	4001
81	0	0	1991	734	3725	4001
82	0	0	1973	736	3724	3999
83	0	0	1987	737	3722	4000
84	0	0	2003	736	3725	3999
85	0	0	1999	736	3727	4001
86	0	0	2007	736	3726	4000
87	0	0	2025	737	3725	4000
88	0	0	2044	736	3726	4000
89	0	0	2085	738	3726	4002
90	0	0	2107	739	3725	4001
91	0	0	2099	739	3726	4002
92	0	0	2092	739	3725	4000
93	0	0	2112	740	3725	3999
94	0	0	2136	740	3726	3999
95	0	0	2157	739	3725	4001
96	0	0	2188	738	3727	4001
97	0	0	2199	738	3726	3999
98	0	0	2150	736	3726	4000
99	0	0	2074	732	3725	3999
100	0	0	1985	733	3725	4000
101	0	0	1911	732	3724	4000
102	0	0	1860	732	3724	3999
103	0	0	1848	736	3724	4000
104	0	0	1874	735	3726	4001
105	0	0	1912	736	3727	4001
106	0	0	1945	737	3727	4001
107	0	0	1957	737	3726	4000
108	0	0	1949	738	3727	4000
109	0	0	1960	735	3726	3999
110	0	0	1997	739	3725	4001
111	0	0	2028	740	3726	4001
112	0	0	2050	739	3726	4000
113	0	0	2050	740	3724	4000
114	0	0	2038	739	3726	4002
115	0	0	2050	740	3727	4001
116	0	0	2083	735	3727	4000
117	0	0	2087	738	3725	4000
118	0	0	2069	736	3727	4001
119	0	0	2056	738	3727	3997
120	0	0	2017	732	3726	4001
121	0	0	1928	732	3724	4001
122	0	0	1869	733	3724	4000
123	0	0	1879	737	3726	4000
124	0	0	1905	734	3725	3999
125	0	0	1917	737	3726	4001
126	0	0	1933	735	3727	4000
127	0	0	1945	737	3726	4000
0	0	0	1965	739	3726	4000
1	0	0	1997	738	3727	4000
2	0	0	2035	739	3725	4001
3	0	0	2063	739	3725	4001
4	0	0	2061	739	3726	4001
5	0	0	2035	736	3725	4000
6	0	0	2022	739	3727	4000
7	0	0	2016	739	3724	4001
8	0	0	2021	739	3726	4002
9	0	0	2016	738	3725	4000
10	0	0	2012	738	3724	4000
11	0	0	1996	738	3727	4002
12	0	0	1992	737	3725	4000
13	0	0	1993	735	3725	4000
14	0	0	1985	734	3725	4000
15	0	0	1939	732	3725	4000
16	0	0	1882	732	3726	4000
17	0	0	1841	734	3726	4001
18	0	0	1852	736	3727	4000
19	0	0	1904	738	3726	4001
20	0	0	1957	737	3726	4001
21	0	0	1988	739	3724	3999
22	0	0	1985	738	3723	3999
23	0	0	2005	735	3725	4000
24	0	0	2023	742	3724	4001
25	0	0	2027	739	3724	4001
26	0	0	2043	740	3724	4000
27	0	0	2084	739	3725	4001
28	0	0	2097	737	3726	4001
29	0	0	2050	735	3726	4001
30	0	0	2005	736	3726	4000
31	0	0	1974	734	3726	4001
32	0	0	1926	733	3726	4001
33	0	0	1870	731	3726	4001
34	0	0	1860	736	3727	4002
35	0	0	1871	735	3724	4000
36	0	0	1885	735	3726	4000
37	0	0	1896	737	3726	4003
38	0	0	1918	735	3725	4001
39	0	0	1956	737	3726	4002
40	0	0	1983	736	3725	4000
41	0	0	2004	738	3725	4001
42	0	0	2016	739	3725	4002
43	0	0	2016	737	3725	4001
44	0	0	2033	736	3726	4001
45	0	0	2043	740	3726	4002
46	0	0	2053	739	3726	4000
47	0	0	2036	737	3727	4000
48	0	0	1999	736	3727	4001
49	0	0	1972	737	3726	4000
50	0	0	1958	737	3726	4001
51	0	0	1956	735	3726	4001
52	0	0	1961	737	3725	4000
53	0	0	1949	733	3724	4002
54	0	0	1944	736	3724	4001
55	0	0	1950	736	3724	4000
56	0	0	1933	736	3724	4000
57	0	0	1919	736	3725	4000
58	0	0	1925	735	3725	4001
59	0	0	1968	737	3725	4003
60	0	0	2014	735	3725	4001
61	0	0	2064	738	3725	4001
62	0	0	2087	738	3725	4001
63	0	0	2071	736	3728	4001
64	0	0	2038	737	3725	4000
65	0	0	2015	740	3725	4000
66	0	0	1993	739	3726	4002
67	0	0	1983	739	3725	4001
68	0	0	1974	737	3726	4002
69	0	0	1964	738	3726	4000
70	0	0	1943	736	3725	4000
71	0	0	1915	736	3724	3999
72	0	0	1882	734	3723	4001
73	0	0	1848	732	3724	4002
74	0	0	1833	735	3724	4002
75	0	0	1849	735	3724	4000
76	0	0	1877	736	3723	4000
77	0	0	1874	736	3723	4001
78	0	0	1913	736	3727	4001
79	0	0	1983	737	3726	4000
80	0	0	2013	737	3726	4000
81	0	0	1991	734	3726	4000
82	0	0	1970	739	3725	4000
83	0	0	1958	736	3726	4002
84	0	0	1940	738	3725	4001
85	0	0	1935	739	3723	4001
86	0	0	1935	738	3725	4000
87	0	0	1939	739	3726	4001
88	0	0	1938	736	3726	4001
89	0	0	1921	736	3725	4000
90	0	0	1896	735	3725	4000
91	0	0	1881	736	3725	4000
92	0	0	1863	736	3724	4001
93	0	0	1867	736	3725	4002
94	0	0	1845	732	3724	4000
95	0	0	1829	736	3724	4000
96	0	0	1839	736	3727	3999
97	0	0	1841	736	3726	4001
98	0	0	1845	736	3727	4002
99	0	0	1876	737	3726	4000
100	0	0	1909	737	3726	4001
101	0	0	1947	738	3725	4002
102	0	0	1957	738	3725	4001
103	0	0	1978	732	3726	4001
104	0	0	1998	740	3724	4001
105	0	0	1994	739	3724	4000
106	0	0	2001	739	3725	4000
107	0	0	2019	738	3726	4003
108	0	0	2038	739	3726	4003
109	0	0	2027	738	3726	4001
110	0	0	2019	737	3727	4002
111	0	0	1995	735	3726	4002
112	0	0	1952	733	3723	4001
113	0	0	1915	734	3726	4002
114	0	0	1904	736	3724	4000
115	0	0	1884	731	3726	3999
116	0	0	1866	736	3726	4001
117	0	0	1865	736	3726	4001
118	0	0	1856	736	3727	4001
119	0	0	1862	737	3727	4002
120	0	0	1903	738	3726	4001
121	0	0	1956	738	3724	4000
122	0	0	1995	739	3722	4000
123	0	0	2026	738	3725	4001
124	0	0	2013	737	3724	4002
125	0	0	2012	739	3724	4001
126	0	0	2040	740	3725	4001
127	0	0	2070	739	3724	4000
0	0	0	2089	738	3726	4002
1	0	0	2064	735	3726	4000
2	0	0	1990	733	3726	4000
3	0	0	1913	734	3725	4002
4	0	0	1853	734	3726	4001
5	0	0	1805	732	3726	4002
6	0	0	1774	734	3725	4000
7	0	0	1780	735	3725	3999
8	0	0	1801	735	3726	4003
9	0	0	1844	735	3726	4002
10	0	0	1878	736	3726	4002
11	0	0	1890	736	3725	4001
12	0	0	1920	739	3725	4000
13	0	0	1952	738	3725	4002
14	0	0	1954	738	3724	4001
15	0	0	1958	739	3725	4003
16	0	0	1976	738	3724	4001
17	0	0	2017	738	3727	3999
18	0	0	2054	740	3724	4002
19	0	0	2067	739	3726	4001
20	0	0	2050	736	3726	4003
21	0	0	2001	735	3726	4001
22	0	0	1949	734	3726	4001
23	0	0	1903	734	3728	4001
24	0	0	1881	735	3724	4001
25	0	0	1862	734	3725	4002
26	0	0	1848	735	3725	4002
27	0	0	1852	736	3724	4000
28	0	0	1865	736	3724	4001
29	0	0	1864	736	3724	4001
30	0	0	1870	736	3726	4002
31	0	0	1897	736	3724	4006
32	0	0	1941	736	3727	4001
33	0	0	1958	740	3724	4003
34	0	0	1947	738	3724	4000
35	0	0	1942	738	3725	4001
36	0	0	1964	738	3724	3999
37	0	0	2006	739	3725	4002
38	0	0	2018	741	3725	4002
39	0	0	2004	736	3726	4002
40	0	0	1957	735	3726	4002
41	0	0	1921	736	3725	4000
42	0	0	1899	737	3725	4001
43	0	0	1904	737	3725	4002
44	0	0	1915	736	3726	4002
45	0	0	1906	735	3723	4001
46	0	0	1887	734	3725	4002
47	0	0	1890	735	3724	4001
48	0	0	1911	736	3724	4000
49	0	0	1910	736	3725	4000
50	0	0	1898	736	3726	4002
51	0	0	1906	736	3724	4001
52	0	0	1930	737	3726	4001
53	0	0	1961	735	3728	4002
54	0	0	1991	739	3724	4001
55	0	0	2028	739	3724	4002
56	0	0	2043	739	3724	4001
57	0	0	2047	740	3724	4002
58	0	0	2059	739	3726	4002
59	0	0	2042	739	3724	4000
60	0	0	2022	738	3725	4002
61	0	0	2005	736	3726	4003
62	0	0	1977	734	3725	4001
63	0	0	1944	735	3724	4001
64	0	0	1908	734	3725	4000
65	0	0	1868	733	3725	4002
66	0	0	1831	733	3724	4000
67	0	0	1824	734	3725	4001
68	0	0	1853	735	3726	4002
69	0	0	1874	736	3725	4000
70	0	0	1905	736	3726	4002
71	0	0	1944	738	3726	4002
72	0	0	1954	738	3726	4002
73	0	0	1926	736	3727	4000
74	0	0	1920	739	3725	4000
75	0	0	1952	739	3726	4003
76	0	0	1983	739	3724	4001
77	0	0	2021	740	3724	4004
78	0	0	2058	741	3725	4000
79	0	0	2073	739	3727	4002
80	0	0	2066	736	3725	4001
81	0	0	2016	735	3725	4001
82	0	0	1975	736	3725	4000
83	0	0	1945	735	3726	4000
84	0	0	1916	734	3727	4001
85	0	0	1883	734	3725	4003
86	0	0	1873	734	3724	4001
87	0	0	1876	736	3725	4002
88	0	0	1852	733	3726	4000
89	0	0	1830	735	3727	4000
90	0	0	1845	736	3726	4002
91	0	0	1888	736	3726	4001
92	0	0	1926	738	3725	4000
93	0	0	1954	738	3726	4002
94	0	0	1988	738	3727	4002
95	0	0	2027	739	3724	4003
96	0	0	2063	738	3724	4001
97	0	0	2067	738	3723	4002
98	0	0	2025	736	3725	4002
99	0	0	1984	736	3725	4000
100	0	0	1972	739	3726	4003
101	0	0	1981	738	3725	4001
102	0	0	1995	739	3726	4003
103	0	0	2000	736	3727	4003
104	0	0	1976	734	3725	4001
105	0	0	1941	733	3726	4003
106	0	0	1897	732	3725	4001
107	0	0	1857	733	3726	4003
108	0	0	1840	734	3726	4002
109	0	0	1838	737	3726	4001
110	0	0	1846	736	3726	4003
111	0	0	1876	736	3725	4002
112	0	0	1909	739	3726	4004
113	0	0	1932	737	3723	4002
114	0	0	1959	738	3724	4002
115	0	0	1983	739	3727	4002
116	0	0	2025	739	3724	4000
117	0	0	2083	735	3724	4003
118	0	0	2111	739	3724	4003
119	0	0	2086	737	3725	4002
120	0	0	2084	739	3727	4003
121	0	0	2064	735	3726	4001
122	0	0	1997	734	3724	4002
123	0	0	1898	735	3725	4003
124	0	0	1858	734	3725	4004
125	0	0	1856	736	3725	4002
126	0	0	1866	735	3724	4001
127	0	0	1882	733	3724	3999
0	0	0	1877	735	3725	4001
1	0	0	1873	736	3727	4003
2	0	0	1901	736	3726	4002
3	0	0	1935	735	3725	4001
4	0	0	1948	736	3725	4003
5	0	0	1951	737	3725	4001
6	0	0	1968	739	3726	4003
7	0	0	1967	738	3727	4003
8	0	0	1971	739	3726	4003
9	0	0	1982	741	3726	4003
10	0	0	1996	739	3726	4001
11	0	0	2001	739	3726	4002
12	0	0	1992	741	3727	4001
13	0	0	1987	738	3726	4001
14	0	0	1951	736	3725	4001
15	0	0	1916	734	3726	4001
16	0	0	1914	736	3725	4002
17	0	0	1888	734	3725	4003
18	0	0	1852	733	3724	4001
19	0	0	1826	734	3722	4002
20	0	0	1826	735	3725	4001
21	0	0	1852	736	3726	4002
22	0	0	1886	736	3727	4002
23	0	0	1921	737	3727	4003
24	0	0	1971	737	3725	4002
25	0	0	2014	737	3726	4003
26	0	0	2053	739	3726	4004
27	0	0	2087	739	3725	4002
28	0	0	2074	736	3725	4003
29	0	0	2032	737	3725	4002
30	0	0	2020	738	3727	4001
31	0	0	2024	737	3726	4004
32	0	0	2012	738	3726	4003
33	0	0	2011	739	3725	4001
34	0	0	1992	735	3724	4002
35	0	0	1956	735	3725	4001
36	0	0	1951	735	3723	4002
37	0	0	1904	733	3725	4002
38	0	0	1821	732	3724	4001
39	0	0	1739	731	3724	4001
40	0	0	1723	736	3726	4002
41	0	0	1770	736	3727	4003
42	0	0	1811	735	3727	4003
43	0	0	1867	735	3726	4002
44	0	0	1926	738	3725	4003
45	0	0	1965	736	3727	4001
46	0	0	1979	739	3724	4005
47	0	0	1974	739	3725	4003
48	0	0	1973	739	3724	4001
49	0	0	1986	738	3725	4003
50	0	0	2015	739	3726	4004
51	0	0	2024	739	3725	4006
52	0	0	2017	739	3726	4003
53	0	0	2031	739	3726	4003
54	0	0	2011	734	3724	4001
55	0	0	1929	733	3725	4002
56	0	0	1852	733	3726	4004
57	0	0	1825	736	3724	4002
58	0	0	1838	735	3724	4001
59	0	0	1854	737	3725	4001
60	0	0	1871	736	3725	4001
61	0	0	1879	736	3726	4004
62	0	0	1902	736	3727	4003
63	0	0	1937	737	3726	4002
64	0	0	1970	738	3726	4001
65	0	0	1988	736	3725	4001
66	0	0	1986	738	3727	4004
67	0	0	1985	738	3726	4004
68	0	0	1989	739	3724	4003
69	0	0	1985	738	3725	4004
70	0	0	1987	739	3726	4003
71	0	0	1983	739	3725	4003
72	0	0	1967	738	3726	4002
73	0	0	1966	738	3726	4001
74	0	0	1948	736	3726	4002
75	0	0	1921	735	3726	4001
76	0	0	1902	734	3724	4002
77	0	0	1880	733	3724	4001
78	0	0	1859	733	3725	4002
79	0	0	1832	733	3725	4002
80	0	0	1815	733	3727	4001
81	0	0	1831	736	3724	4002
82	0	0	1868	736	3725	4002
83	0	0	1897	737	3727	4003
84	0	0	1927	737	3725	4003
85	0	0	1964	738	3725	4003
86	0	0	2003	739	3727	4003
87	0	0	2035	739	3723	3999
88	0	0	2056	741	3724	4004
89	0	0	2051	738	3725	4002
90	0	0	2030	736	3725	4001
91	0	0	2004	735	3727	4003
92	0	0	1954	734	3724	4003
93	0	0	1919	738	3727	4002
94	0	0	1948	738	3728	4002
95	0	0	1993	738	3725	4002
96	0	0	1993	735	3724	4002
97	0	0	1934	734	3724	4002
98	0	0	1837	732	3724	4002
99	0	0	1791	734	3724	4003
100	0	0	1810	736	3726	4000
101	0	0	1845	736	3726	4004
102	0	0	1877	736	3726	4003
103	0	0	1900	737	3725	4001
104	0	0	1930	737	3727	4003
105	0	0	1953	738	3724	4000
106	0	0	1997	739	3726	4002
107	0	0	2045	738	3724	4003
108	0	0	2058	738	3725	4002
109	0	0	2046	738	3725	4003
110	0	0	2006	736	3726	4003
111	0	0	1957	735	3727	4003
112	0	0	1901	735	3725	4002
113	0	0	1873	735	3726	4001
114	0	0	1856	735	3726	4002
115	0	0	1835	736	3727	4002
116	0	0	1835	736	3725	4002
117	0	0	1839	736	3722	4003
118	0	0	1847	736	3724	4002
119	0	0	1864	735	3724	4002
120	0	0	1870	735	3723	4002
121	0	0	1901	736	3727	4002
122	0	0	1934	736	3726	4003
123	0	0	1944	736	3726	4002
124	0	0	1940	736	3727	3999
125	0	0	1953	738	3726	4003
126	0	0	1980	739	3727	4004
127	0	0	2021	738	3723	4001
0	0	0	2049	740	3725	4002
1	0	0	2043	739	3728	4002
2	0	0	2022	737	3723	4002
3	0	0	2012	739	3726	4002
4	0	0	2006	738	3725	4003
5	0	0	1996	738	3725	4001
6	0	0	1972	735	3728	4002
7	0	0	1944	734	3724	4002
8	0	0	1907	732	3725	4001
9	0	0	1861	734	3723	4002
10	0	0	1843	736	3725	4001
11	0	0	1871	735	3727	4003
12	0	0	1899	736	3726	4005
13	0	0	1904	736	3727	4002
14	0	0	1909	736	3728	4003
15	0	0	1931	737	3726	3999
16	0	0	1957	736	3728	3999
17	0	0	1969	738	3724	4003
18	0	0	1980	738	3726	4003
19	0	0	2008	738	3724	4003
20	0	0	2033	739	3724	4002
21	0	0	2045	738	3724	4001
22	0	0	2038	739	3724	4002
23	0	0	2037	739	3726	4001
24	0	0	2032	739	3726	4002
25	0	0	2020	738	3725	4004
26	0	0	2010	738	3726	4002
27	0	0	1995	737	3726	4001
28	0	0	1977	734	3725	3999
29	0	0	1947	733	3726	4001
30	0	0	1920	731	3725	4001
31	0	0	1898	732	3725	4002
32	0	0	1862	732	3724	4002
33	0	0	1857	736	3727	4001
34	0	0	1875	735	3727	4002
35	0	0	1903	736	3726	4004
36	0	0	1947	736	3726	4002
37	0	0	2000	737	3726	4000
38	0	0	2046	738	3724	3999
39	0	0	2091	738	3722	4003
40	0	0	2135	736	3725	4002
41	0	0	2148	739	3724	4002
42	0	0	2139	738	3724	4002
43	0	0	2115	736	3725	3999
44	0	0	2081	736	3726	4003
45	0	0	2035	735	3728	3998
46	0	0	1993	733	3727	4003
47	0	0	1968	735	3727	4003
48	0	0	1952	734	3726	4003
49	0	0	1927	734	3726	4003
50	0	0	1925	736	3725	4002
51	0	0	1933	734	3727	4003
52	0	0	1926	735	3726	4002
53	0	0	1921	736	3728	4003
54	0	0	1905	735	3727	4003
55	0	0	1907	735	3725	4002
56	0	0	1922	736	3727	4002
57	0	0	1940	738	3724	4000
58	0	0	1967	738	3726	4003
59	0	0	2003	738	3726	4004
60	0	0	2037	738	3725	4003
61	0	0	2042	738	3726	4003
62	0	0	2017	736	3726	4003
63	0	0	2001	739	3726	4002
64	0	0	2003	738	3727	4002
65	0	0	1997	738	3726	4002
66	0	0	1974	734	3726	4002
67	0	0	1941	735	3725	4002
68	0	0	1935	737	3725	4002
69	0	0	1926	736	3725	4003
70	0	0	1919	736	3724	4002
71	0	0	1922	735	3724	4002
72	0	0	1910	734	3726	3999
73	0	0	1882	732	3724	4002
74	0	0	1866	735	3726	4003
75	0	0	1870	737	3727	4004
76	0	0	1872	734	3727	4002
77	0	0	1874	738	3726	4003
78	0	0	1893	738	3727	4002
79	0	0	1923	736	3723	4003
80	0	0	1948	740	3725	4002
81	0	0	1969	739	3726	4002
82	0	0	1994	739	3727	4003
83	0	0	1971	736	3727	4003
84	0	0	1933	736	3727	4003
85	0	0	1926	738	3726	4001
86	0	0	1924	736	3726	4002
87	0	0	1879	734	3727	4000
88	0	0	1839	733	3725	4003
89	0	0	1832	736	3726	4003
90	0	0	1818	733	3724	4002
91	0	0	1821	736	3724	4003
92	0	0	1836	737	3726	4002
93	0	0	1841	736	3726	4002
94	0	0	1836	735	3725	4003
95	0	0	1844	737	3727	4003
96	0	0	1860	737	3725	4002
97	0	0	1887	738	3727	4002
98	0	0	1919	738	3726	4003
99	0	0	1946	738	3725	4004
100	0	0	1962	739	3725	4001
101	0	0	1967	737	3727	4002
102	0	0	1972	740	3726	3999
103	0	0	1984	739	3726	4001
104	0	0	1983	738	3727	4003
105	0	0	1966	735	3725	4002
106	0	0	1927	734	3725	4002
107	0	0	1891	734	3728	3999
108	0	0	1860	735	3725	4001
109	0	0	1867	739	3725	4003
110	0	0	1891	736	3724	4002
111	0	0	1915	736	3726	4004
112	0	0	1919	734	3727	4004
113	0	0	1877	732	3727	4000
114	0	0	1856	735	3726	4003
115	0	0	1880	736	3727	4002
116	0	0	1906	736	3727	4003
117	0	0	1940	737	3727	4003
118	0	0	1977	738	3726	4001
119	0	0	1978	738	3724	4003
120	0	0	1965	738	3725	4002
121	0	0	1963	739	3724	4002
122	0	0	1969	739	3726	3999
123	0	0	1974	739	3726	4000
124	0	0	1958	738	3726	4004
125	0	0	1939	737	3726	4002
126	0	0	1935	738	3726	4004
127	0	0	1926	737	3727	4003
0	0	0	1920	737	3726	4000
1	0	0	1912	735	3724	4003
2	0	0	1897	735	3725	4002
3	0	0	1898	735	3726	4002
4	0	0	1889	734	3727	4002
5	0	0	1887	735	3727	4003
6	0	0	1910	736	3728	4004
7	0	0	1917	736	3727	4002
8	0	0	1910	733	3727	4002
9	0	0	1924	739	3728	4003
10	0	0	1952	737	3725	4000
11	0	0	1967	736	3726	4003
12	0	0	1979	738	3725	4002
13	0	0	1998	738	3725	4001
14	0	0	2013	740	3726	4001
15	0	0	2019	740	3726	4004
16	0	0	2003	737	3728	4004
17	0	0	1997	738	3728	4002
18	0	0	1991	736	3726	4002
19	0	0	1944	734	3726	4003
20	0	0	1911	734	3727	4000
21	0	0	1896	735	3727	4003
22	0	0	1884	736	3726	4002
23	0	0	1849	732	3726	4005
24	0	0	1812	732	3727	4004
25	0	0	1820	735	3726	4003
26	0	0	1854	737	3726	4003
27	0	0	1894	737	3726	4003
28	0	0	1930	738	3725	4002
29	0	0	1945	737	3726	4002
30	0	0	1954	738	3725	4002
31	0	0	1984	738	3724	4003
32	0	0	2009	739	3726	4004
33	0	0	2002	736	3723	4004
34	0	0	1996	739	3726	4002
35	0	0	1995	739	3727	4003
36	0	0	1987	738	3727	4002
37	0	0	1970	736	3726	4002
38	0	0	1956	736	3727	4002
39	0	0	1955	737	3726	4003
40	0	0	1938	733	3726	4002
41	0	0	1907	733	3727	4003
42	0	0	1867	733	3724	4002
43	0	0	1846	735	3724	4003
44	0	0	1874	735	3725	4001
45	0	0	1920	736	3726	4003
46	0	0	1991	736	3727	4002
47	0	0	2045	737	3726	4006
48	0	0	2068	733	3727	4001
49	0	0	2120	735	3727	4003
50	0	0	2177	738	3726	4002
51	0	0	2233	738	3726	4004
52	0	0	2292	738	3725	4001
53	0	0	2347	739	3726	4002
54	0	0	2396	738	3726	4001
55	0	0	2452	740	3727	4002
56	0	0	2495	738	3727	4003
57	0	0	2530	738	3726	4002
58	0	0	2544	738	3726	4002
59	0	0	2560	734	3726	4002
60	0	0	2577	738	3726	4003
61	0	0	2558	735	3726	4003
62	0	0	2540	735	3725	4003
63	0	0	2529	735	3723	4002
64	0	0	2503	731	3726	4002
65	0	0	2444	733	3726	4002
66	0	0	2400	735	3727	4003
67	0	0	2418	736	3726	4003
68	0	0	2464	737	3724	4003
69	0	0	2492	735	3726	4002
70	0	0	2505	739	3726	4003
71	0	0	2507	739	3727	4003
72	0	0	2518	739	3725	4002
73	0	0	2504	738	3726	4003
74	0	0	2458	735	3725	4004
75	0	0	2410	737	3726	4003
76	0	0	2383	737	3727	4003
77	0	0	2333	734	3725	4002
78	0	0	2259	734	3725	4002
79	0	0	2202	733	3726	4004
80	0	0	2118	732	3725	4001
81	0	0	2030	732	3727	4002
82	0	0	1965	732	3725	4002
83	0	0	1905	732	3725	4002
84	0	0	1839	732	3724	4002
85	0	0	1801	733	3727	4003
86	0	0	1809	735	3727	4001
87	0	0	1808	735	3726	4001
88	0	0	1808	738	3727	4002
89	0	0	1814	736	3726	4003
90	0	0	1806	737	3727	4003
91	0	0	1838	738	3727	4003
92	0	0	1879	739	3724	4003
93	0	0	1897	738	3725	4002
94	0	0	1916	738	3724	4002
95	0	0	1923	739	3726	4004
96	0	0	1931	739	3727	4002
97	0	0	1931	737	3725	4002
98	0	0	1900	736	3726	4002
99	0	0	1856	733	3725	4003
100	0	0	1821	733	3726	4005
101	0	0	1803	733	3725	4002
102	0	0	1795	735	3725	4000
103	0	0	1796	736	3726	4002
104	0	0	1807	734	3726	4002
105	0	0	1814	735	3727	4004
106	0	0	1833	734	3727	4002
107	0	0	1872	736	3726	4003
108	0	0	1910	738	3726	4003
109	0	0	1932	735	3725	4004
110	0	0	1939	738	3726	4003
111	0	0	1947	738	3724	4003
112	0	0	1964	739	3724	4002
113	0	0	1980	739	3725	4003
114	0	0	1986	737	3725	4002
115	0	0	1977	737	3726	4002
116	0	0	1962	737	3727	4003
117	0	0	1954	738	3727	4006
118	0	0	1926	734	3725	4002
119	0	0	1882	731	3727	4003
120	0	0	1885	737	3727	4004
121	0	0	1911	735	3725	4006
122	0	0	1941	736	3727	4006
123	0	0	1952	734	3727	4005
124	0	0	1912	731	3726	4003
125	0	0	1879	733	3727	4004
126	0	0	1863	736	3727	4001
127	0	0	1842	734	3727	4004
0	0	0	1839	736	3724	4003
1	0	0	1871	738	3726	4001
2	0	0	1893	738	3726	4002
3	0	0	1913	738	3724	4003
4	0	0	1924	739	3724	4003
5	0	0	1942	738	3724	4002
6	0	0	1977	739	3725	4002
7	0	0	1984	739	3727	4002
8	0	0	1959	735	3726	4003
9	0	0	1931	737	3727	4002
10	0	0	1934	737	3727	4005
11	0	0	1911	734	3727	4006
12	0	0	1882	734	3727	4004
13	0	0	1858	733	3726	4004
14	0	0	1833	731	3725	4003
15	0	0	1816	733	3726	4004
16	0	0	1815	736	3726	4003
17	0	0	1837	735	3726	4004
18	0	0	1858	736	3726	4006
19	0	0	1881	736	3726	4003
20	0	0	1918	737	3727	4000
21	0	0	1944	736	3726	4003
22	0	0	1940	736	3726	4004
23	0	0	1915	736	3725	4003
24	0	0	1891	736	3725	4002
25	0	0	1898	739	3726	4002
26	0	0	1951	738	3727	4001
27	0	0	2009	739	3727	4003
28	0	0	2056	739	3726	4003
29	0	0	2022	734	3727	4005
30	0	0	1933	733	3726	4002
31	0	0	1884	735	3725	4004
32	0	0	1889	737	3725	4002
33	0	0	1903	735	3724	4003
34	0	0	1894	733	3725	4005
35	0	0	1860	731	3724	4005
36	0	0	1813	731	3725	4006
37	0	0	1825	734	3727	4002
38	0	0	1866	736	3727	4004
39	0	0	1902	737	3726	4003
40	0	0	1924	737	3727	4004
41	0	0	1928	737	3727	4002
42	0	0	1932	738	3726	4003
43	0	0	1940	738	3726	4004
44	0	0	1935	738	3725	4002
45	0	0	1986	737	3726	4003
46	0	0	2046	738	3723	4003
47	0	0	2060	739	3726	4003
48	0	0	2059	738	3726	4004
49	0	0	2035	734	3727	4003
50	0	0	1997	735	3727	4002
51	0	0	1959	733	3724	4005
52	0	0	1928	733	3726	4006
53	0	0	1889	733	3725	4006
54	0	0	1857	732	3724	4002
55	0	0	1832	733	3724	4003
56	0	0	1822	734	3726	4001
57	0	0	1834	734	3726	4002
58	0	0	1852	736	3726	4006
59	0	0	1862	735	3726	4003
60	0	0	1888	736	3725	4002
61	0	0	1927	736	3726	4004
62	0	0	1951	737	3726	4003
63	0	0	1980	738	3724	4003
64	0	0	2023	741	3724	4002
65	0	0	2056	738	3723	4004
66	0	0	2059	739	3725	4004
67	0	0	2040	737	3726	4003
68	0	0	2004	735	3727	4004
69	0	0	1951	735	3726	4005
70	0	0	1955	738	3726	4006
71	0	0	1991	736	3726	4003
72	0	0	1970	735	3726	4004
73	0	0	1941	732	3725	4004
74	0	0	1904	732	3725	4002
75	0	0	1889	734	3726	4005
76	0	0	1883	736	3726	4007
77	0	0	1862	733	3727	4005
78	0	0	1855	735	3726	4000
79	0	0	1885	736	3726	4003
80	0	0	1920	736	3726	4003
81	0	0	1938	737	3727	4001
82	0	0	1950	737	3725	4004
83	0	0	1991	738	3724	4004
84	0	0	2027	738	3724	4003
85	0	0	2055	738	3725	4004
86	0	0	2054	736	3725	4003
87	0	0	2036	737	3727	4005
88	0	0	2019	737	3726	4003
89	0	0	2021	736	3726	4003
90	0	0	2021	738	3727	4003
91	0	0	1998	735	3725	4003
92	0	0	1968	734	3727	4005
93	0	0	1949	734	3725	4004
94	0	0	1940	734	3726	4004
95	0	0	1947	735	3727	4005
96	0	0	1942	733	3726	4003
97	0	0	1915	732	3726	4003
98	0	0	1909	736	3727	4007
99	0	0	1932	736	3725	4002
100	0	0	1972	736	3725	4003
101	0	0	1995	736	3724	4004
102	0	0	2001	737	3725	4002
103	0	0	2033	738	3724	4000
104	0	0	2042	738	3725	4003
105	0	0	2028	739	3726	4000
106	0	0	2042	738	3726	4002
107	0	0	2041	738	3726	4004
108	0	0	2032	739	3726	4003
109	0	0	2053	738	3728	4005
110	0	0	2045	735	3726	4006
111	0	0	2007	732	3727	4006
112	0	0	1963	732	3726	4003
113	0	0	1929	733	3726	4003
114	0	0	1913	732	3724	4002
115	0	0	1874	732	3724	4003
116	0	0	1832	732	3725	4005
117	0	0	1829	734	3726	4006
118	0	0	1872	735	3725	4007
119	0	0	1951	735	3725	4002
120	0	0	2026	735	3725	4003
121	0	0	2060	738	3726	4005
122	0	0	2048	735	3726	4003
123	0	0	2038	738	3725	4000
124	0	0	2063	738	3725	4003
125	0	0	2089	738	3726	4002
126	0	0	2114	735	3727	4003
127	0	0	2130	738	3727	4003
0	0	0	2117	736	3726	4000
1	0	0	2076	734	3726	4005
2	0	0	2030	735	3727	4005
3	0	0	1999	734	3726	4003
4	0	0	1989	735	3725	4003
5	0	0	1995	736	3724	4006
6	0	0	1989	734	3724	4005
7	0	0	1952	732	3724	4006
8	0	0	1918	734	3725	4003
9	0	0	1904	735	3726	4004
10	0	0	1909	735	3725	4000
11	0	0	1941	734	3726	4002
12	0	0	1973	735	3725	4004
13	0	0	2014	735	3727	4003
14	0	0	2062	737	3726	4003
15	0	0	2102	738	3725	4003
16	0	0	2131	738	3725	4002
17	0	0	2155	738	3726	4004
18	0	0	2172	739	3726	4004
19	0	0	2181	737	3727	4004
20	0	0	2178	738	3725	4002
21	0	0	2162	736	3726	4004
22	0	0	2113	734	3725	4005
23	0	0	2068	735	3726	4003
24	0	0	2042	734	3725	4006
25	0	0	2018	733	3724	4002
26	0	0	1991	733	3724	4001
27	0	0	1972	734	3726	4004
28	0	0	1964	734	3725	4002
29	0	0	1951	734	3726	4005
30	0	0	1969	735	3726	4006
31	0	0	2008	735	3727	4003
32	0	0	2036	736	3728	4002
33	0	0	2064	739	3727	4003
34	0	0	2093	737	3727	4004
35	0	0	2116	738	3724	4000
36	0	0	2125	737	3725	4003
37	0	0	2110	738	3724	4004
38	0	0	2104	735	3725	4003
39	0	0	2097	737	3725	4002
40	0	0	2103	738	3725	4003
41	0	0	2118	738	3725	4004
42	0	0	2108	736	3725	4002
43	0	0	2089	735	3727	4002
44	0	0	2083	736	3726	4003
45	0	0	2069	734	3724	4002
46	0	0	2056	734	3725	4003
47	0	0	2030	732	3725	4005
48	0	0	2015	733	3727	4002
49	0	0	2023	734	3727	4002
50	0	0	2040	737	3726	4003
51	0	0	2061	736	3726	4002
52	0	0	2093	737	3726	4002
53	0	0	2126	735	3726	4002
54	0	0	2140	736	3725	4003
55	0	0	2142	735	3724	3999
56	0	0	2127	738	3724	4002
57	0	0	2124	738	3724	4002
58	0	0	2122	738	3726	4000
59	0	0	2126	738	3726	4003
60	0	0	2154	738	3725	4003
61	0	0	2175	738	3726	4003
62	0	0	2177	738	3727	4005
63	0	0	2149	735	3727	4006
64	0	0	2119	735	3726	4005
65	0	0	2099	734	3726	4006
66	0	0	2068	732	3725	4002
67	0	0	2043	733	3725	4003
68	0	0	2051	735	3727	4003
69	0	0	2063	734	3726	4003
70	0	0	2085	735	3727	4007
71	0	0	2097	736	3725	4003
72	0	0	2096	736	3726	4005
73	0	0	2100	737	3726	4004
74	0	0	2093	736	3725	4003
75	0	0	2083	740	3723	4003
76	0	0	2083	737	3724	4002
77	0	0	2099	735	3724	4003
78	0	0	2107	739	3725	4003
79	0	0	2114	737	3726	4003
80	0	0	2089	735	3726	4001
81	0	0	2063	735	3727	4006
82	0	0	2064	738	3726	4004
83	0	0	2061	737	3726	4003
84	0	0	2068	736	3726	4006
85	0	0	2052	733	3726	4007
86	0	0	1995	731	3724	4002
87	0	0	1968	735	3724	4002
88	0	0	1970	735	3725	4003
89	0	0	1964	734	3725	4003
90	0	0	1953	735	3725	4005
91	0	0	1948	735	3725	4003
92	0	0	1948	736	3725	4003
93	0	0	1967	735	3725	4003
94	0	0	1997	737	3726	4004
95	0	0	2017	737	3724	4003
96	0	0	2026	738	3725	4002
97	0	0	2033	735	3725	4003
98	0	0	2035	739	3726	4004
99	0	0	2050	738	3727	4002
100	0	0	2078	738	3726	4002
101	0	0	2116	738	3727	4006
102	0	0	2120	734	3726	4004
103	0	0	2037	733	3726	4003
104	0	0	1959	733	3726	4004
105	0	0	1883	731	3724	4003
106	0	0	1845	736	3724	4003
107	0	0	1865	736	3723	4007
108	0	0	1876	735	3725	4006
109	0	0	1867	734	3726	4005
110	0	0	1866	735	3726	4002
111	0	0	1871	736	3726	3999
112	0	0	1880	736	3726	4003
113	0	0	1906	737	3727	4003
114	0	0	1909	737	3726	4004
115	0	0	1913	738	3725	4003
116	0	0	1944	738	3725	4003
117	0	0	1978	735	3725	4003
118	0	0	1992	737	3725	4003
119	0	0	1947	735	3726	4004
120	0	0	1891	735	3725	4003
121	0	0	1882	740	3725	4003
122	0	0	1889	738	3725	4005
123	0	0	1878	734	3726	4005
124	0	0	1846	734	3725	4006
125	0	0	1824	733	3723	4004
126	0	0	1798	732	3724	4005
127	0	0	1772	731	3724	4003
0	0	0	1760	733	3725	4003
1	0	0	1756	734	3726	4004
2	0	0	1756	736	3727	4003
3	0	0	1772	736	3726	4003
4	0	0	1796	737	3727	4003
5	0	0	1819	737	3726	4003
6	0	0	1834	737	3726	4005
7	0	0	1856	737	3724	4000
8	0	0	1888	741	3726	3996
9	0	0	1915	739	3725	3972
10	0	0	1941	740	3725	3952
11	0	0	1946	739	3726	3929
12	0	0	1916	735	3725	3906
13	0	0	1898	735	3725	3886
14	0	0	1854	733	3726	3865
15	0	0	1778	733	3727	3843
16	0	0	1761	737	3726	3820
17	0	0	1757	733	3725	3797
18	0	0	1721	731	3725	3776
19	0	0	1703	731	3725	3754
20	0	0	1689	733	3726	3734
21	0	0	1690	736	3727	3714
22	0	0	1717	736	3726	3690
23	0	0	1765	737	3727	3669
24	0	0	1803	737	3725	3647
25	0	0	1820	737	3725	3626
26	0	0	1825	737	3725	3605
27	0	0	1823	738	3724	3584
28	0	0	1854	741	3725	3564
29	0	0	1902	738	3724	3543
30	0	0	1938	736	3724	3520
31	0	0	1942	739	3726	3500
32	0	0	1911	735	3725	3480
33	0	0	1843	734	3726	3460
34	0	0	1800	735	3727	3440
35	0	0	1796	737	3726	3421
36	0	0	1800	737	3726	3401
37	0	0	1793	734	3727	3382
38	0	0	1773	732	3725	3362
39	0	0	1739	732	3726	3343
40	0	0	1740	735	3724	3324
41	0	0	1745	735	3726	3305
42	0	0	1757	735	3725	3288
43	0	0	1784	735	3725	3267
44	0	0	1809	737	3725	3250
45	0	0	1826	739	3725	3232
46	0	0	1852	738	3726	3213
47	0	0	1870	739	3724	3196
48	0	0	1856	736	3724	3176
49	0	0	1863	739	3724	3159
50	0	0	1894	740	3725	3142
51	0	0	1923	739	3727	3125
52	0	0	1928	738	3726	3108
53	0	0	1932	739	3727	3091
54	0	0	1932	740	3726	3074
55	0	0	1906	734	3726	3057
56	0	0	1867	733	3726	3040
57	0	0	1833	733	3724	3025
58	0	0	1797	731	3724	3009
59	0	0	1781	733	3725	2991
60	0	0	1772	732	3726	2976
61	0	0	1774	734	3726	2960
62	0	0	1801	736	3725	2945
63	0	0	1831	735	3726	2929
64	0	0	1873	735	3726	2912
65	0	0	1881	736	3726	2899
66	0	0	1860	736	3725	2883
67	0	0	1864	738	3724	2868
68	0	0	1877	739	3725	2854
69	0	0	1899	738	3727	2839
70	0	0	1907	738	3727	2824
71	0	0	1926	738	3727	2809
72	0	0	1941	738	3726	2795
73	0	0	1939	739	3727	2781
74	0	0	1938	737	3726	2767
75	0	0	1908	735	3724	2753
76	0	0	1849	731	3724	2738
77	0	0	1798	732	3724	2725
78	0	0	1793	735	3724	2711
79	0	0	1804	735	3725	2698
80	0	0	1810	735	3726	2685
81	0	0	1827	733	3725	2672
82	0	0	1846	735	3725	2659
83	0	0	1835	734	3726	2646
84	0	0	1840	736	3722	2634
85	0	0	1880	737	3724	2620
86	0	0	1919	737	3726	2607
87	0	0	1939	738	3725	2595
88	0	0	1967	737	3726	2583
89	0	0	2000	739	3725	2571
90	0	0	2016	739	3724	2557
91	0	0	1990	734	3724	2545
92	0	0	1946	735	3725	2532
93	0	0	1905	735	3728	2520
94	0	0	1884	737	3726	2509
95	0	0	1890	738	3726	2497
96	0	0	1884	734	3725	2485
97	0	0	1852	732	3724	2474
98	0	0	1813	733	3724	2462
99	0	0	1796	733	3721	2451
100	0	0	1793	735	3724	2440
101	0	0	1809	734	3726	2429
102	0	0	1818	735	3726	2418
103	0	0	1827	737	3726	2407
104	0	0	1851	736	3723	2397
105	0	0	1868	740	3725	2386
106	0	0	1860	735	3726	2375
107	0	0	1863	738	3724	2364
108	0	0	1898	738	3725	2353
109	0	0	1944	739	3723	2343
110	0	0	1978	740	3724	2333
111	0	0	2012	737	3726	2322
112	0	0	2025	737	3725	2312
113	0	0	2002	735	3724	2301
114	0	0	1970	734	3723	2292
115	0	0	1903	735	3725	2282
116	0	0	1827	733	3726	2272
117	0	0	1784	732	3724	2262
118	0	0	1756	730	3726	2252
119	0	0	1730	732	3724	2244
120	0	0	1734	735	3725	2234
121	0	0	1755	734	3727	2225
122	0	0	1800	734	3726	2215
123	0	0	1863	735	3726	2206
124	0	0	1920	736	3722	2198
125	0	0	1958	739	3725	2188
126	0	0	1994	738	3725	2179
127	0	0	2013	738	3724	2169
0	0	0	2005	738	3724	2160
1	0	0	1983	736	3724	2151
2	0	0	1967	739	3724	2142
3	0	0	1949	734	3726	2134
4	0	0	1926	736	3723	2125
5	0	0	1922	738	3727	2116
6	0	0	1919	737	3725	2107
7	0	0	1926	736	3727	2099
8	0	0	1909	734	3727	2090
9	0	0	1867	732	3723	2081
10	0	0	1820	732	3726	2074
11	0	0	1805	734	3726	2066
12	0	0	1811	736	3724	2057
13	0	0	1826	735	3726	2050
14	0	0	1849	736	3725	2041
15	0	0	1872	735	3727	2033
16	0	0	1900	738	3725	2024
17	0	0	1919	738	3725	2017
18	0	0	1930	737	3726	2010
19	0	0	1973	738	3724	2002
20	0	0	1998	738	3724	1994
21	0	0	2002	738	3725	1986
22	0	0	2016	739	3725	1978
23	0	0	2023	738	3726	1971
24	0	0	2009	736	3727	1963
25	0	0	1973	735	3726	1955
26	0	0	1941	735	3726	1947
27	0	0	1918	734	3725	1940
28	0	0	1887	736	3726	1933
29	0	0	1870	734	3723	1925
30	0	0	1852	734	3726	1919
31	0	0	1828	735	3724	1911
32	0	0	1790	732	3725	1906
33	0	0	1784	737	3726	1898
34	0	0	1802	736	3724	1891
35	0	0	1848	736	3725	1884
36	0	0	1906	737	3725	1877
37	0	0	1956	739	3725	1870
38	0	0	1983	739	3724	1864
39	0	0	2016	738	3723	1857
40	0	0	2036	738	3725	1850
41	0	0	2019	736	3725	1843
42	0	0	2017	739	3726	1836
43	0	0	2023	739	3726	1829
44	0	0	2022	738	3726	1823
45	0	0	2013	735	3726	1816
46	0	0	1985	735	3726	1810
47	0	0	1964	732	3726	1803
48	0	0	1949	739	3725	1796
49	0	0	1927	733	3724	1790
50	0	0	1903	732	3724	1784
51	0	0	1876	734	3724	1777
52	0	0	1873	734	3727	1773
53	0	0	1863	736	3726	1767
54	0	0	1865	736	3726	1760
55	0	0	1872	733	3727	1754
56	0	0	1845	734	3728	1749
57	0	0	1867	737	3726	1743
58	0	0	1905	738	3726	1736
59	0	0	1923	738	3725	1731
60	0	0	1960	738	3725	1724
61	0	0	2001	735	3725	1718
62	0	0	2024	738	3727	1713
63	0	0	2051	742	3725	1707
64	0	0	2062	738	3725	1700
65	0	0	2024	735	3725	1694
66	0	0	1988	735	3725	1689
67	0	0	1977	737	3726	1683
68	0	0	1980	737	3726	1676
69	0	0	1965	733	3724	1671
70	0	0	1920	731	3725	1666
71	0	0	1894	733	3727	1661
72	0	0	1886	734	3728	1655
73	0	0	1869	735	3726	1650
74	0	0	1854	734	3726	1645
75	0	0	1862	735	3726	1640
76	0	0	1878	737	3726	1635
77	0	0	1900	737	3726	1629
78	0	0	1925	739	3726	1624
79	0	0	1944	738	3724	1618
80	0	0	1965	738	3724	1613
81	0	0	1978	741	3723	1607
82	0	0	1985	740	3724	1602
83	0	0	1992	738	3725	1597
84	0	0	2024	738	3725	1592
85	0	0	2071	738	3725	1587
86	0	0	2064	735	3725	1581
87	0	0	1985	734	3726	1577
88	0	0	1918	735	3725	1571
89	0	0	1887	733	3725	1567
90	0	0	1875	733	3724	1562
91	0	0	1871	735	3725	1558
92	0	0	1864	733	3727	1552
93	0	0	1855	736	3726	1548
94	0	0	1868	735	3726	1543
95	0	0	1899	734	3726	1538
96	0	0	1913	737	3725	1533
97	0	0	1921	736	3726	1528
98	0	0	1958	737	3725	1523
99	0	0	2022	738	3724	1518
100	0	0	2084	739	3723	1513
101	0	0	2096	738	3724	1509
102	0	0	2077	736	3725	1503
103	0	0	2048	736	3725	1500
104	0	0	2019	735	3726	1495
105	0	0	1984	734	3724	1490
106	0	0	1950	734	3726	1485
107	0	0	1927	735	3728	1482
108	0	0	1926	737	3726	1476
109	0	0	1935	735	3725	1472
110	0	0	1951	734	3726	1468
111	0	0	1947	735	3725	1463
112	0	0	1912	730	3727	1461
113	0	0	1863	732	3725	1455
114	0	0	1850	735	3724	1451
115	0	0	1869	736	3725	1448
116	0	0	1886	736	3725	1443
117	0	0	1916	738	3725	1439
118	0	0	1965	736	3725	1435
119	0	0	1994	738	3724	1429
120	0	0	2002	738	3724	1427
121	0	0	2032	739	3724	1422
122	0	0	2054	740	3725	1418
123	0	0	2079	738	3726	1414
124	0	0	2112	738	3727	1409
125	0	0	2079	733	3727	1405
126	0	0	2037	734	3727	1400
127	0	0	1986	731	3727	1397
0	0	0	1944	736	3726	1393
1	0	0	1940	737	3725	1389
2	0	0	1922	731	3724	1385
3	0	0	1893	733	3724	1382
4	0	0	1888	734	3726	1378
5	0	0	1864	732	3725	1374
6	0	0	1853	735	3725	1370
7	0	0	1882	735	3725	1367
8	0	0	1925	737	3725	1363
9	0	0	1963	737	3725	1358
10	0	0	2004	735	3725	1355
11	0	0	2018	738	3724	1351
12	0	0	2019	738	3726	1348
13	0	0	2031	737	3725	1344
14	0	0	2043	738	3728	1340
15	0	0	2033	736	3727	1336
16	0	0	2004	736	3726	1333
17	0	0	1989	736	3725	1328
18	0	0	1961	736	3725	1326
19	0	0	1946	737	3724	1320
20	0	0	1950	736	3724	1317
21	0	0	1940	733	3724	1314
22	0	0	1911	732	3724	1309
23	0	0	1886	732	3724	1306
24	0	0	1862	732	3725	1303
25	0	0	1846	733	3725	1300
26	0	0	1858	735	3725	1297
27	0	0	1866	736	3726	1295
28	0	0	1882	736	3726	1291
29	0	0	1921	735	3727	1287
30	0	0	1987	735	3726	1283
31	0	0	2037	737	3725	1281
32	0	0	2073	738	3725	1277
33	0	0	2096	738	3726	1275
34	0	0	2105	739	3724	1269
35	0	0	2114	738	3726	1267
36	0	0	2110	738	3726	1262
37	0	0	2082	736	3725	1260
38	0	0	2036	734	3726	1256
39	0	0	1991	734	3727	1253
40	0	0	1956	732	3725	1249
41	0	0	1939	735	3724	1231
42	0	0	1944	736	3724	1243
43	0	0	1933	734	3725	1241
44	0	0	1939	734	3727	1238
45	0	0	1923	732	3726	1234
46	0	0	1903	734	3726	1231
47	0	0	1924	734	3727	1228
48	0	0	1946	736	3725	1226
49	0	0	1969	736	3727	1223
50	0	0	1999	735	3726	1219
51	0	0	2029	737	3724	1216
52	0	0	2056	738	3724	1213
53	0	0	2074	735	3724	1209
54	0	0	2057	735	3724	1205
55	0	0	2027	735	3725	1203
56	0	0	2002	735	3725	1200
57	0	0	1994	737	3725	1197
58	0	0	1999	738	3725	1194
59	0	0	2002	735	3724	1190
60	0	0	1972	734	3726	1187
61	0	0	1956	734	3723	1185
62	0	0	1959	736	3725	1183
63	0	0	1977	734	3726	1180
64	0	0	2002	735	3725	1175
65	0	0	1994	733	3727	1174
66	0	0	1974	734	3726	1171
67	0	0	1975	736	3726	1169
68	0	0	1975	735	3724	1165
69	0	0	1981	736	3724	1162
70	0	0	1998	735	3725	1160
71	0	0	2037	740	3723	1157
72	0	0	2080	737	3724	1155
73	0	0	2127	738	3724	1151
74	0	0	2147	738	3724	1147
75	0	0	2114	735	3725	1146
76	0	0	2064	735	3724	1142
77	0	0	2060	738	3725	1140
78	0	0	2069	738	3726	1138
79	0	0	2056	734	3727	1134
80	0	0	2010	734	3726	1131
81	0	0	1951	733	3726	1128
82	0	0	1915	735	3724	1126
83	0	0	1915	735	3725	1124
84	0	0	1924	735	3726	1121
85	0	0	1923	731	3726	1119
86	0	0	1925	736	3726	1117
87	0	0	1942	735	3725	1114
88	0	0	1963	737	3725	1112
89	0	0	1999	737	3726	1110
90	0	0	2054	735	3724	1106
91	0	0	2105	738	3724	1104
92	0	0	2142	740	3724	1102
93	0	0	2151	739	3723	1099
94	0	0	2125	736	3725	1094
95	0	0	2085	735	3726	1093
96	0	0	2087	738	3727	1090
97	0	0	2099	737	3728	1088
98	0	0	2071	733	3726	1085
99	0	0	2036	735	3727	1082
100	0	0	2005	731	3726	1080
101	0	0	1969	733	3724	1077
102	0	0	1939	735	3724	1074
103	0	0	1938	736	3723	1072
104	0	0	1931	733	3723	1070
105	0	0	1903	732	3726	1068
106	0	0	1884	734	3725	1067
107	0	0	1903	735	3726	1064
108	0	0	1970	735	3725	1061
109	0	0	2044	736	3725	1059
110	0	0	2096	736	3726	1059
111	0	0	2088	735	3725	1054
112	0	0	2080	737	3724	1052
113	0	0	2095	737	3725	1050
114	0	0	2124	739	3727	1048
115	0	0	2134	737	3726	1045
116	0	0	2114	735	3726	1041
117	0	0	2067	736	3725	1040
118	0	0	2041	737	3724	1038
119	0	0	2044	737	3725	1035
120	0	0	2082	736	3726	1032
121	0	0	2093	735	3724	1031
122	0	0	2060	732	3724	1028
123	0	0	2005	732	3723	1026
124	0	0	1953	732	3725	1025
125	0	0	1911	730	3726	1022
126	0	0	1908	735	3725	1020
127	0	0	1941	737	3727	1017
0	0	0	1975	736	3726	1016
1	0	0	2004	736	3727	1014
2	0	0	2049	736	3727	1012
3	0	0	2095	738	3725	1010
4	0	0	2117	738	3725	1007
5	0	0	2129	737	3725	1005
6	0	0	2126	739	3725	1003
7	0	0	2126	737	3725	1000
8	0	0	2130	738	3725	997
9	0	0	2122	737	3725	996
10	0	0	2084	735	3724	993
11	0	0	2038	734	3725	991
12	0	0	2013	732	3726	989
13	0	0	2005	735	3726	986
14	0	0	1977	735	3724	985
15	0	0	1958	732	3725	983
16	0	0	1934	732	3726	980
17	0	0	1911	732	3726	979
18	0	0	1927	736	3726	978
19	0	0	1977	739	3725	976
20	0	0	2021	736	3727	972
21	0	0	2042	737	3725	972
22	0	0	2080	736	3725	970
23	0	0	2123	735	3724	968
24	0	0	2145	739	3725	966
25	0	0	2152	738	3724	965
26	0	0	2163	738	3722	962
27	0	0	2175	739	3725	959
28	0	0	2171	739	3725	957
29	0	0	2166	735	3725	954
30	0	0	2149	735	3726	951
31	0	0	2115	734	3727	950
32	0	0	2084	732	3726	948
33	0	0	2060	733	3725	947
34	0	0	2054	739	3724	945
35	0	0	2039	732	3726	944
36	0	0	2007	732	3724	942
37	0	0	1995	736	3727	939
38	0	0	2015	735	3726	938
39	0	0	2078	737	3726	937
40	0	0	2133	736	3726	936
41	0	0	2138	737	3728	932
42	0	0	2133	737	3726	931
43	0	0	2139	737	3724	930
44	0	0	2160	739	3725	927
45	0	0	2204	740	3726	926
46	0	0	2225	738	3724	924
47	0	0	2206	736	3726	921
48	0	0	2173	735	3725	919
49	0	0	2136	733	3727	917
50	0	0	2119	736	3726	915
51	0	0	2106	735	3728	912
52	0	0	2069	733	3726	911
53	0	0	2013	732	3726	910
54	0	0	1967	731	3725	908
55	0	0	1944	736	3725	907
56	0	0	1961	735	3728	905
57	0	0	1998	735	3726	903
58	0	0	2032	735	3725	902
59	0	0	2070	737	3725	901
60	0	0	2115	736	3725	897
61	0	0	2148	736	3726	897
62	0	0	2175	736	3726	895
63	0	0	2184	738	3725	894
64	0	0	2172	735	3724	891
65	0	0	2194	738	3724	890
66	0	0	2216	739	3725	887
67	0	0	2206	737	3726	885
68	0	0	2170	736	3726	884
69	0	0	2154	735	3727	882
70	0	0	2166	738	3726	879
71	0	0	2191	737	3728	878
72	0	0	2196	736	3727	876
73	0	0	2179	733	3724	875
74	0	0	2127	733	3724	875
75	0	0	2101	733	3725	871
76	0	0	2097	735	3726	870
77	0	0	2067	732	3725	870
78	0	0	2039	733	3725	868
79	0	0	2046	737	3725	867
80	0	0	2072	737	3726	868
81	0	0	2094	736	3724	864
82	0	0	2108	735	3726	862
83	0	0	2106	737	3725	860
84	0	0	2108	736	3727	858
85	0	0	2128	738	3724	855
86	0	0	2151	739	3728	854
87	0	0	2167	739	3726	853
88	0	0	2197	738	3727	851
89	0	0	2188	733	3726	850
90	0	0	2153	735	3725	848
91	0	0	2132	736	3724	847
92	0	0	2109	734	3726	845
93	0	0	2086	736	3724	843
94	0	0	2081	735	3725	841
95	0	0	2091	735	3726	840
96	0	0	2079	735	3724	840
97	0	0	2043	732	3725	838
98	0	0	2027	735	3725	836
99	0	0	2050	736	3725	837
100	0	0	2082	738	3725	832
101	0	0	2079	734	3727	833
102	0	0	2056	736	3727	831
103	0	0	2078	738	3725	829
104	0	0	2131	740	3725	827
105	0	0	2178	739	3726	830
106	0	0	2179	738	3727	825
107	0	0	2173	739	3725	823
108	0	0	2164	737	3727	820
109	0	0	2130	735	3725	819
110	0	0	2079	734	3725	818
111	0	0	2034	735	3727	815
112	0	0	2026	737	3725	814
113	0	0	2012	733	3724	813
114	0	0	1968	731	3724	813
115	0	0	1926	733	3725	815
116	0	0	1907	735	3726	809
117	0	0	1922	734	3726	808
118	0	0	1950	736	3726	808
119	0	0	1968	735	3728	806
120	0	0	2002	736	3727	803
121	0	0	2044	736	3727	803
122	0	0	2081	737	3726	801
123	0	0	2087	737	3725	801
124	0	0	2086	739	3724	799
125	0	0	2107	738	3727	799
126	0	0	2137	738	3724	796
127	0	0	2129	736	3726	795
0	0	0	2088	738	3725	792
1	0	0	2046	735	3725	791
2	0	0	2019	735	3728	790
3	0	0	2014	737	3727	788
4	0	0	2042	737	3726	787
5	0	0	2083	732	3723	785
6	0	0	2055	732	3725	785
7	0	0	2001	732	3725	783
8	0	0	1985	734	3727	781
9	0	0	1967	732	3726	781
10	0	0	1942	732	3726	780
11	0	0	1950	735	3726	779
12	0	0	1974	735	3728	777
13	0	0	2015	736	3727	776
14	0	0	2053	736	3725	774
15	0	0	2075	738	3723	775
16	0	0	2085	738	3724	772
17	0	0	2098	739	3724	771
18	0	0	2092	736	3726	769
19	0	0	2062	736	3725	768
20	0	0	2071	738	3726	767
21	0	0	2117	739	3725	764
22	0	0	2135	738	3728	763
23	0	0	2118	735	3727	760
24	0	0	2097	734	3727	760
25	0	0	2077	733	3725	759
26	0	0	2066	737	3726	758
27	0	0	2063	733	3727	757
28	0	0	2022	732	3726	756
29	0	0	1987	733	3726	755
30	0	0	1987	734	3725	754
31	0	0	1990	737	3725	753
32	0	0	1985	736	3726	754
33	0	0	1991	735	3724	749
34	0	0	2026	737	3726	749
35	0	0	2089	738	3724	748
36	0	0	2153	738	3723	747
37	0	0	2203	738	3723	746
38	0	0	2201	738	3726	744
39	0	0	2191	738	3725	743
40	0	0	2180	736	3726	741
41	0	0	2141	735	3726	740
42	0	0	2103	734	3728	739
43	0	0	2062	735	3726	735
44	0	0	2045	737	3726	736
45	0	0	2050	736	3725	734
46	0	0	2036	733	3724	733
47	0	0	2025	734	3725	732
48	0	0	2045	734	3727	732
49	0	0	2027	732	3725	731
50	0	0	1980	731	3725	730
51	0	0	1980	737	3726	728
52	0	0	2016	735	3726	727
53	0	0	2041	734	3726	725
54	0	0	2068	738	3726	726
55	0	0	2078	737	3725	727
56	0	0	2074	738	3723	724
57	0	0	2076	738	3725	722
58	0	0	2108	739	3727	721
59	0	0	2118	739	3726	719
60	0	0	2125	738	3726	718
61	0	0	2142	738	3726	717
62	0	0	2158	737	3726	716
63	0	0	2146	735	3727	714
64	0	0	2108	733	3726	713
65	0	0	2063	733	3726	711
66	0	0	2016	735	3724	709
67	0	0	1965	731	3724	710
68	0	0	1917	731	3724	707
69	0	0	1873	733	3727	707
70	0	0	1865	735	3724	707
71	0	0	1905	736	3724	707
72	0	0	1961	735	3726	706
73	0	0	2034	736	3727	704
74	0	0	2068	737	3727	704
75	0	0	2039	735	3726	702
76	0	0	2043	738	3725	701
77	0	0	2064	739	3725	698
78	0	0	2084	739	3725	699
79	0	0	2104	738	3726	698
80	0	0	2158	736	3726	696
81	0	0	2185	738	3725	695
82	0	0	2207	738	3726	693
83	0	0	2251	738	3726	692
84	0	0	2291	737	3726	692
85	0	0	2331	736	3725	690
86	0	0	2357	735	3725	689
87	0	0	2392	735	3725	688
88	0	0	2423	735	3726	686
89	0	0	2450	735	3727	686
90	0	0	2490	739	3726	685
91	0	0	2521	737	3726	685
92	0	0	2554	736	3727	684
93	0	0	2593	735	3727	683
94	0	0	2629	737	3727	682
95	0	0	2666	739	3725	681
96	0	0	2726	740	3723	680
97	0	0	2766	737	3726	678
98	0	0	2731	735	3723	679
99	0	0	2692	738	3723	676
100	0	0	2675	739	3725	675
101	0	0	2665	739	3727	674
102	0	0	2650	738	3726	672
103	0	0	2626	735	3726	670
104	0	0	2582	734	3726	670
105	0	0	2528	733	3725	669
106	0	0	2447	731	3724	669
107	0	0	2364	731	3726	669
108	0	0	2309	732	3724	668
109	0	0	2286	733	3727	666
110	0	0	2254	732	3726	667
111	0	0	2226	732	3726	665
112	0	0	2190	733	3726	664
113	0	0	2159	734	3727	663
114	0	0	2139	735	3726	662
115	0	0	2119	735	3724	662
116	0	0	2101	736	3723	660
117	0	0	2053	733	3726	658
118	0	0	1994	735	3724	656
119	0	0	1970	739	3726	657
120	0	0	1987	739	3725	656
121	0	0	1993	738	3724	655
122	0	0	1994	738	3726	654
123	0	0	1997	737	3726	652
124	0	0	1995	737	3727	651
125	0	0	1999	736	3726	650
126	0	0	2005	736	3725	649
127	0	0	2017	736	3725	649
0	0	0	2011	735	3725	648
1	0	0	1990	732	3725	647
2	0	0	1974	736	3727	646
3	0	0	1996	736	3726	643
4	0	0	2013	736	3726	643
5	0	0	2007	737	3726	644
6	0	0	2032	737	3727	643
7	0	0	2091	738	3724	642
8	0	0	2139	738	3725	636
9	0	0	2149	739	3725	637
10	0	0	2137	738	3724	637
11	0	0	2114	736	3727	636
12	0	0	2069	735	3726	638
13	0	0	2044	739	3727	636
14	0	0	2073	737	3728	635
15	0	0	2103	737	3726	635
16	0	0	2104	735	3726	633
17	0	0	2085	733	3725	631
18	0	0	2021	732	3724	630
19	0	0	1954	732	3725	630
20	0	0	1930	734	3726	629
21	0	0	1901	732	3728	630
22	0	0	1869	732	3727	629
23	0	0	1867	736	3725	628
24	0	0	1888	735	3726	628
25	0	0	1940	736	3727	622
26	0	0	1990	739	3725	622
27	0	0	2022	740	3726	622
28	0	0	2036	738	3725	620
29	0	0	2073	738	3723	623
30	0	0	2121	739	3724	623
31	0	0	2124	739	3727	620
32	0	0	2119	738	3726	616
33	0	0	2086	735	3728	617
34	0	0	2045	734	3727	617
35	0	0	2004	734	3726	615
36	0	0	1990	736	3724	615
37	0	0	1981	734	3726	613
38	0	0	1949	730	3724	614
39	0	0	1914	733	3724	613
40	0	0	1909	734	3726	610
41	0	0	1889	732	3724	612
42	0	0	1887	735	3726	612
43	0	0	1921	735	3727	609
44	0	0	1978	736	3725	607
45	0	0	2001	736	3727	606
46	0	0	2012	737	3724	608
47	0	0	2044	737	3726	609
48	0	0	2080	737	3726	607
49	0	0	2112	739	3724	604
50	0	0	2128	738	3729	601
51	0	0	2145	738	3727	601
52	0	0	2176	739	3726	600
53	0	0	2156	735	3727	601
54	0	0	2112	735	3726	600
55	0	0	2072	734	3726	599
56	0	0	2035	733	3725	599
57	0	0	1986	732	3725	598
58	0	0	1941	733	3725	597
59	0	0	1954	735	3726	596
60	0	0	1975	735	3726	595
61	0	0	1970	735	3724	595
62	0	0	1968	735	3726	595
63	0	0	1972	736	3727	595
64	0	0	1967	736	3725	595
65	0	0	1978	737	3727	593
66	0	0	2009	736	3727	590
67	0	0	2015	738	3725	589
68	0	0	2018	738	3725	587
69	0	0	2038	739	3725	587
70	0	0	2090	740	3726	589
71	0	0	2154	738	3721	586
72	0	0	2150	735	3725	587
73	0	0	2119	736	3726	587
74	0	0	2097	736	3724	587
75	0	0	2070	734	3726	585
76	0	0	2021	734	3727	583
77	0	0	1995	734	3725	581
78	0	0	1997	736	3725	582
79	0	0	2014	735	3723	582
80	0	0	2033	734	3726	580
81	0	0	2046	735	3726	580
82	0	0	2065	735	3726	580
83	0	0	2086	736	3726	577
84	0	0	2088	736	3724	578
85	0	0	2106	737	3727	576
86	0	0	2122	737	3724	573
87	0	0	2125	738	3725	577
88	0	0	2121	739	3724	576
89	0	0	2127	738	3722	575
90	0	0	2116	737	3724	569
91	0	0	2075	735	3726	569
92	0	0	2037	736	3726	569
93	0	0	2031	739	3726	571
94	0	0	2026	737	3727	570
95	0	0	2000	735	3727	569
96	0	0	1968	735	3726	568
97	0	0	1963	736	3726	568
98	0	0	1970	735	3725	567
99	0	0	1980	735	3724	567
100	0	0	1992	735	3726	566
101	0	0	1990	736	3727	566
102	0	0	1995	735	3726	565
103	0	0	2005	735	3727	561
104	0	0	2016	736	3727	564
105	0	0	2050	739	3726	565
106	0	0	2078	735	3726	563
107	0	0	2107	737	3726	559
108	0	0	2157	739	3724	559
109	0	0	2165	738	3726	557
110	0	0	2137	736	3727	557
111	0	0	2111	737	3727	558
112	0	0	2106	738	3726	558
113	0	0	2100	738	3728	557
114	0	0	2100	738	3727	555
115	0	0	2105	737	3727	554
116	0	0	2089	732	3727	554
117	0	0	2056	733	3725	553
118	0	0	2023	731	3726	552
119	0	0	2004	734	3724	553
120	0	0	2001	733	3725	550
121	0	0	1997	735	3727	551
122	0	0	1990	735	3725	552
123	0	0	2015	736	3727	551
124	0	0	2063	736	3727	547
125	0	0	2098	737	3726	548
126	0	0	2135	737	3727	546
127	0	0	2162	738	3725	548
0	0	0	2168	738	3724	547
1	0	0	2179	740	3725	546
2	0	0	2185	738	3726	545
3	0	0	2172	738	3726	542
4	0	0	2152	736	3726	541
5	0	0	2128	736	3726	544
6	0	0	2094	735	3727	541
7	0	0	2061	735	3726	540
8	0	0	2045	738	3725	540
9	0	0	2057	736	3726	539
10	0	0	2057	736	3725	540
11	0	0	2041	734	3725	540
12	0	0	2012	732	3726	540
13	0	0	1983	732	3726	539
14	0	0	1952	733	3726	535
15	0	0	1962	736	3726	535
16	0	0	1992	737	3725	534
17	0	0	2024	736	3726	536
18	0	0	2059	737	3727	536
19	0	0	2092	737	3726	536
20	0	0	2110	737	3725	531
21	0	0	2114	739	3726	531
22	0	0	2118	738	3725	529
23	0	0	2142	738	3727	528
24	0	0	2152	739	3725	532
25	0	0	2148	737	3725	531
26	0	0	2138	738	3725	530
27	0	0	2127	736	3726	528
28	0	0	2090	733	3725	527
29	0	0	2045	733	3725	527
30	0	0	2011	733	3724	527
31	0	0	1982	733	3725	527
32	0	0	1953	732	3726	526
33	0	0	1955	735	3726	526
34	0	0	1981	736	3727	525
35	0	0	2006	735	3727	525
36	0	0	2047	737	3727	525
37	0	0	2104	736	3728	521
38	0	0	2156	735	3725	523
39	0	0	2155	738	3724	520
40	0	0	2131	735	3726	520
41	0	0	2128	739	3725	520
42	0	0	2138	739	3725	524
43	0	0	2138	739	3725	519
44	0	0	2163	738	3725	517
45	0	0	2189	737	3727	518
46	0	0	2190	738	3727	516
47	0	0	2196	737	3726	518
48	0	0	2182	734	3725	515
49	0	0	2148	733	3726	515
50	0	0	2136	736	3726	514
51	0	0	2166	735	3727	514
52	0	0	2184	733	3727	517
53	0	0	2108	730	3727	513
54	0	0	2034	732	3726	512
55	0	0	2030	736	3726	512
56	0	0	2036	737	3727	509
57	0	0	2049	736	3726	508
58	0	0	2095	737	3725	512
59	0	0	2145	738	3725	512
60	0	0	2167	738	3724	509
61	0	0	2177	739	3725	506
62	0	0	2175	739	3726	507
63	0	0	2180	739	3723	503
64	0	0	2191	739	3725	502
65	0	0	2195	739	3726	505
66	0	0	2211	739	3727	504
67	0	0	2196	735	3727	503
68	0	0	2156	734	3728	502
69	0	0	2101	732	3727	501
70	0	0	2061	733	3726	502
71	0	0	2063	736	3727	503
72	0	0	2060	734	3726	501
73	0	0	2040	733	3726	501
74	0	0	2037	735	3725	500
75	0	0	2053	736	3725	499
76	0	0	2058	737	3728	501
77	0	0	2079	736	3726	500
78	0	0	2127	737	3726	496
79	0	0	2181	739	3725	496
80	0	0	2224	738	3725	495
81	0	0	2248	739	3725	494
82	0	0	2232	738	3727	496
83	0	0	2218	739	3728	495
84	0	0	2213	739	3727	495
85	0	0	2203	739	3727	495
86	0	0	2192	739	3728	493
87	0	0	2170	735	3727	495
88	0	0	2147	735	3727	492
89	0	0	2126	734	3725	491
90	0	0	2100	732	3725	491
91	0	0	2090	736	3725	488
92	0	0	2102	736	3726	491
93	0	0	2087	732	3728	489
94	0	0	2060	732	3728	490
95	0	0	2046	736	3726	487
96	0	0	2066	736	3726	486
97	0	0	2116	735	3727	487
98	0	0	2145	739	3727	485
99	0	0	2174	738	3725	485
100	0	0	2205	738	3725	483
101	0	0	2216	739	3726	484
102	0	0	2212	738	3727	485
103	0	0	2202	738	3726	483
104	0	0	2192	738	3727	487
105	0	0	2167	736	3725	485
106	0	0	2148	738	3726	482
107	0	0	2139	735	3727	483
108	0	0	2103	734	3727	481
109	0	0	2054	732	3725	481
110	0	0	2000	732	3723	480
111	0	0	1978	734	3724	478
112	0	0	1988	734	3726	479
113	0	0	2018	734	3726	479
114	0	0	2059	734	3726	480
115	0	0	2125	735	3727	476
116	0	0	2184	736	3728	475
117	0	0	2179	732	3727	475
118	0	0	2136	735	3728	474
119	0	0	2106	735	3726	479
120	0	0	2081	736	3726	477
121	0	0	2082	739	3726	476
122	0	0	2099	739	3726	471
123	0	0	2103	738	3726	472
124	0	0	2110	738	3726	471
125	0	0	2138	738	3727	473
126	0	0	2169	738	3727	472
127	0	0	2170	737	3726	471
0	0	0	2136	733	3726	471
1	0	0	2044	732	3725	470
2	0	0	1997	734	3725	470
3	0	0	1985	732	3724	469
4	0	0	1948	731	3726	470
5	0	0	1889	731	3727	469
6	0	0	1850	733	3727	468
7	0	0	1876	736	3727	467
8	0	0	1922	736	3726	471
9	0	0	1944	736	3727	468
10	0	0	1959	736	3728	467
11	0	0	1975	737	3726	465
12	0	0	2003	738	3725	464
13	0	0	2025	737	3725	463
14	0	0	2009	736	3725	462
15	0	0	1972	736	3727	464
16	0	0	1964	738	3725	464
17	0	0	1967	739	3726	463
18	0	0	1966	736	3725	463
19	0	0	1943	735	3727	459
20	0	0	1921	734	3727	461
21	0	0	1896	734	3723	461
22	0	0	1883	736	3725	460
23	0	0	1872	732	3725	462
24	0	0	1855	731	3727	459
25	0	0	1854	734	3727	459
26	0	0	1882	735	3726	460
27	0	0	1914	736	3726	460
28	0	0	1942	735	3726	455
29	0	0	1947	735	3727	455
30	0	0	1922	734	3727	456
31	0	0	1924	738	3725	456
32	0	0	1950	739	3725	457
33	0	0	1976	738	3724	459
34	0	0	2006	738	3726	455
35	0	0	2024	740	3725	452
36	0	0	2030	737	3726	452
37	0	0	2038	738	3726	454
38	0	0	1997	732	3727	453
39	0	0	1958	735	3728	453
40	0	0	1956	735	3727	452
41	0	0	1936	733	3727	451
42	0	0	1886	730	3724	452
43	0	0	1861	730	3726	451
44	0	0	1868	734	3727	450
45	0	0	1890	735	3726	451
46	0	0	1909	735	3727	450
47	0	0	1943	735	3726	447
48	0	0	1960	733	3727	446
49	0	0	1926	733	3726	451
50	0	0	1897	735	3726	448
51	0	0	1903	737	3725	448
52	0	0	1923	738	3726	445
53	0	0	1943	738	3725	445
54	0	0	1963	738	3727	446
55	0	0	2002	738	3727	442
56	0	0	2042	738	3726	446
57	0	0	2090	738	3727	445
58	0	0	2110	736	3726	446
59	0	0	2042	734	3727	445
60	0	0	1938	734	3728	442
61	0	0	1889	732	3725	442
62	0	0	1891	735	3727	441
63	0	0	1922	735	3726	440
64	0	0	1935	734	3726	443
65	0	0	1935	733	3725	441
66	0	0	1900	731	3725	441
67	0	0	1872	734	3726	441
68	0	0	1881	735	3726	441
69	0	0	1921	736	3727	439
70	0	0	1971	737	3726	437
71	0	0	2019	737	3725	437
72	0	0	2051	739	3726	436
73	0	0	2077	737	3726	437
74	0	0	2094	738	3727	439
75	0	0	2093	738	3728	437
76	0	0	2093	738	3727	434
77	0	0	2098	738	3727	435
78	0	0	2063	732	3727	435
79	0	0	2015	736	3726	434
80	0	0	1973	733	3726	434
81	0	0	1922	732	3725	433
82	0	0	1858	732	3725	434
83	0	0	1836	733	3723	433
84	0	0	1839	735	3726	432
85	0	0	1847	734	3725	433
86	0	0	1848	734	3726	433
87	0	0	1838	734	3726	433
88	0	0	1860	735	3727	431
89	0	0	1914	735	3727	432
90	0	0	1969	737	3726	429
91	0	0	1997	738	3727	429
92	0	0	2000	735	3727	428
93	0	0	2022	738	3726	430
94	0	0	2060	739	3725	428
95	0	0	2077	738	3725	430
96	0	0	2060	737	3725	426
97	0	0	2051	739	3727	426
98	0	0	2052	737	3726	427
99	0	0	2036	735	3726	426
100	0	0	1994	731	3725	426
101	0	0	1946	733	3724	425
102	0	0	1950	735	3724	425
103	0	0	1958	736	3726	428
104	0	0	1971	734	3726	426
105	0	0	1980	734	3725	424
106	0	0	1982	734	3727	424
107	0	0	1964	736	3726	422
108	0	0	1963	735	3727	421
109	0	0	1987	736	3728	420
110	0	0	2024	735	3727	423
111	0	0	2067	738	3725	424
112	0	0	2106	738	3726	422
113	0	0	2139	739	3724	418
114	0	0	2124	735	3725	418
115	0	0	2066	735	3725	418
116	0	0	2058	738	3725	416
117	0	0	2072	738	3726	418
118	0	0	2079	737	3726	417
119	0	0	2060	738	3726	420
120	0	0	2050	735	3726	419
121	0	0	2033	734	3724	417
122	0	0	2025	735	3727	416
123	0	0	2033	734	3727	416
124	0	0	2042	734	3727	417
125	0	0	2052	735	3728	415
126	0	0	2053	733	3726	417
127	0	0	2024	733	3727	417
0	0	0	2026	735	3725	417
1	0	0	2069	737	3726	416
2	0	0	2100	736	3726	414
3	0	0	2145	737	3725	413
4	0	0	2193	735	3724	411
5	0	0	2185	737	3725	409
6	0	0	2162	736	3725	415
7	0	0	2143	738	3725	414
8	0	0	2140	738	3726	413
9	0	0	2146	737	3726	412
10	0	0	2119	736	3728	412
11	0	0	2091	734	3727	412
12	0	0	2049	734	3727	411
13	0	0	2038	736	3727	409
14	0	0	2028	735	3725	409
15	0	0	2014	733	3726	409
16	0	0	1988	732	3727	408
17	0	0	1962	733	3727	411
18	0	0	1976	736	3725	410
19	0	0	2023	735	3726	405
20	0	0	2059	736	3726	408
21	0	0	2086	736	3726	407
22	0	0	2102	737	3725	406
23	0	0	2117	738	3723	409
24	0	0	2125	738	3725	408
25	0	0	2121	738	3726	407
26	0	0	2115	738	3725	402
27	0	0	2134	739	3726	405
28	0	0	2142	738	3726	402
29	0	0	2122	734	3726	404
30	0	0	2097	736	3727	404
31	0	0	2083	735	3728	402
32	0	0	2043	734	3726	405
33	0	0	2021	732	3725	402
34	0	0	1988	731	3725	400
35	0	0	1937	732	3725	404
36	0	0	1922	734	3725	402
37	0	0	1969	732	3725	403
38	0	0	2021	735	3725	402
39	0	0	2068	735	3726	398
40	0	0	2080	736	3726	404
41	0	0	2084	736	3726	403
42	0	0	2092	737	3726	404
43	0	0	2109	738	3727	398
44	0	0	2146	736	3723	398
45	0	0	2198	736	3726	397
46	0	0	2224	739	3727	396
47	0	0	2185	735	3727	396
48	0	0	2146	734	3726	398
49	0	0	2105	735	3727	396
50	0	0	2089	738	3727	399
51	0	0	2077	736	3727	397
52	0	0	2068	737	3726	398
53	0	0	2071	736	3725	394
54	0	0	2066	734	3724	395
55	0	0	2040	733	3725	396
56	0	0	2031	732	3725	397
57	0	0	2019	734	3726	395
58	0	0	2012	734	3725	395
59	0	0	2013	735	3725	394
60	0	0	2052	737	3728	390
61	0	0	2104	736	3726	391
62	0	0	2115	737	3728	390
63	0	0	2097	735	3726	391
64	0	0	2083	737	3726	395
65	0	0	2104	736	3726	393
66	0	0	2141	737	3726	392
67	0	0	2164	740	3725	387
68	0	0	2160	738	3726	388
69	0	0	2137	735	3726	390
70	0	0	2091	734	3727	391
71	0	0	2052	735	3726	389
72	0	0	2034	735	3725	389
73	0	0	2012	733	3726	387
74	0	0	1976	733	3724	388
75	0	0	1943	732	3725	388
76	0	0	1925	733	3726	387
77	0	0	1954	735	3727	388
78	0	0	2021	735	3726	388
79	0	0	2057	734	3726	389
80	0	0	2088	736	3727	384
81	0	0	2135	735	3727	385
82	0	0	2166	736	3726	385
83	0	0	2179	737	3725	384
84	0	0	2208	738	3725	387
85	0	0	2222	740	3725	385
86	0	0	2243	739	3725	384
87	0	0	2278	740	3724	384
88	0	0	2298	738	3725	381
89	0	0	2303	739	3726	384
90	0	0	2307	735	3727	383
91	0	0	2298	734	3726	382
92	0	0	2243	733	3725	382
93	0	0	2174	732	3726	382
94	0	0	2119	732	3725	381
95	0	0	2106	734	3727	383
96	0	0	2116	732	3727	381
97	0	0	2145	734	3726	380
98	0	0	2158	734	3726	381
99	0	0	2173	736	3727	378
100	0	0	2202	736	3728	380
101	0	0	2239	735	3726	382
102	0	0	2261	736	3725	382
103	0	0	2258	737	3724	381
104	0	0	2238	736	3724	377
105	0	0	2224	735	3726	379
106	0	0	2230	738	3725	376
107	0	0	2235	738	3725	374
108	0	0	2251	738	3726	378
109	0	0	2240	737	3726	377
110	0	0	2217	736	3727	376
111	0	0	2205	737	3727	376
112	0	0	2181	734	3726	374
113	0	0	2162	734	3727	374
114	0	0	2157	732	3727	374
115	0	0	2153	735	3726	374
116	0	0	2143	733	3727	373
117	0	0	2108	731	3725	374
118	0	0	2073	731	3727	374
119	0	0	2068	734	3725	374
120	0	0	2087	735	3726	375
121	0	0	2128	736	3727	372
122	0	0	2177	736	3725	370
123	0	0	2215	735	3725	371
124	0	0	2235	737	3724	371
125	0	0	2225	733	3725	373
126	0	0	2195	736	3726	373
127	0	0	2197	738	3724	374
0	0	0	2227	738	3726	369
1	0	0	2255	738	3727	368
2	0	0	2262	738	3728	369
3	0	0	2255	736	3727	370
4	0	0	2230	733	3727	369
5	0	0	2166	732	3725	369
6	0	0	2090	731	3725	370
7	0	0	2043	732	3725	368
8	0	0	2031	733	3725	367
9	0	0	2040	734	3725	368
10	0	0	2041	734	3726	368
11	0	0	2061	735	3726	365
12	0	0	2104	734	3727	365
13	0	0	2130	735	3726	366
14	0	0	2157	735	3726	368
15	0	0	2196	737	3725	367
16	0	0	2235	738	3725	367
17	0	0	2267	737	3725	364
18	0	0	2271	738	3726	365
19	0	0	2267	738	3726	362
20	0	0	2247	736	3726	363
21	0	0	2216	735	3727	364
22	0	0	2182	735	3727	363
23	0	0	2164	735	3726	363
24	0	0	2170	737	3727	363
25	0	0	2140	731	3725	363
26	0	0	2083	731	3724	363
27	0	0	2072	735	3725	362
28	0	0	2087	734	3726	363
29	0	0	2072	732	3725	362
30	0	0	2054	733	3726	363
31	0	0	2058	734	3726	363
32	0	0	2082	736	3727	363
33	0	0	2124	736	3728	362
34	0	0	2147	737	3727	360
35	0	0	2181	736	3726	360
36	0	0	2237	738	3726	359
37	0	0	2245	735	3727	359
38	0	0	2214	736	3726	360
39	0	0	2210	738	3727	360
40	0	0	2218	740	3725	360
41	0	0	2205	736	3726	358
42	0	0	2181	736	3726	358
43	0	0	2141	733	3726	359
44	0	0	2085	734	3725	358
45	0	0	2086	735	3725	357
46	0	0	2091	733	3724	357
47	0	0	2108	735	3725	356
48	0	0	2118	732	3726	357
49	0	0	2079	733	3725	358
50	0	0	2063	734	3726	357
51	0	0	2064	734	3727	354
52	0	0	2053	736	3727	355
53	0	0	2052	736	3727	354
54	0	0	2067	736	3725	355
55	0	0	2095	739	3727	356
56	0	0	2149	736	3723	354
57	0	0	2195	737	3725	351
58	0	0	2215	738	3725	351
59	0	0	2216	738	3725	352
60	0	0	2192	736	3725	354
61	0	0	2182	738	3725	352
62	0	0	2167	735	3726	352
63	0	0	2142	735	3727	352
64	0	0	2129	733	3727	351
65	0	0	2094	733	3726	351
66	0	0	2080	734	3725	351
67	0	0	2073	734	3726	351
68	0	0	2064	734	3726	351
69	0	0	2048	735	3726	351
70	0	0	2030	734	3727	351
71	0	0	2012	732	3725	351
72	0	0	2011	736	3726	351
73	0	0	2021	737	3726	348
74	0	0	2097	736	3724	351
75	0	0	2190	737	3725	348
76	0	0	2245	738	3724	345
77	0	0	2264	736	3724	351
78	0	0	2254	737	3725	350
79	0	0	2218	735	3725	350
80	0	0	2193	735	3725	345
81	0	0	2160	734	3726	348
82	0	0	2133	735	3726	348
83	0	0	2125	737	3727	347
84	0	0	2135	736	3727	347
85	0	0	2124	733	3727	346
86	0	0	2090	732	3726	346
87	0	0	2067	735	3726	347
88	0	0	2088	734	3726	346
89	0	0	2112	734	3725	347
90	0	0	2091	733	3727	346
91	0	0	2089	732	3724	345
92	0	0	2089	735	3726	343
93	0	0	2072	736	3726	343
94	0	0	2117	736	3725	343
95	0	0	2170	737	3725	346
96	0	0	2161	736	3724	344
97	0	0	2132	736	3727	342
98	0	0	2137	738	3726	341
99	0	0	2190	738	3726	342
100	0	0	2234	739	3726	340
101	0	0	2226	734	3727	342
102	0	0	2155	732	3730	342
103	0	0	2104	735	3728	340
104	0	0	2095	736	3726	339
105	0	0	2070	734	3726	342
106	0	0	2052	733	3727	340
107	0	0	2027	730	3726	341
108	0	0	1987	731	3725	339
109	0	0	1968	733	3725	341
110	0	0	1982	735	3725	341
111	0	0	2044	735	3723	341
112	0	0	2118	736	3727	341
113	0	0	2168	736	3727	341
114	0	0	2184	736	3726	337
115	0	0	2177	736	3726	339
