# bioPlux Text File Format
# Version: 1
# StartDateTime: 2011-07-18 09:48:59
# SamplingFrequency: 1000
# SampledChannels: 1 2 3 4
# SamplingResolution: 12
# AcquiringDevice: 00:07:80:42:0F:95
# EndOfHeader
0	0	0	2061	4	185	0
1	0	0	2019	4	184	0
2	0	0	1978	4	185	0
3	0	0	1943	4	184	0
4	0	0	1930	4	185	0
5	0	0	1890	4	183	0
6	0	0	1839	4	183	0
7	0	0	1841	5	184	0
8	0	0	1874	5	183	0
9	0	0	1937	5	184	0
10	0	0	1978	5	183	0
11	0	0	1988	5	183	0
12	0	0	1980	4	182	0
13	0	0	2013	5	184	0
14	0	0	2081	4	183	0
15	0	0	2144	5	184	0
16	0	0	2208	5	183	0
17	0	0	2256	5	184	0
18	0	0	2242	5	185	0
19	0	0	2204	4	184	0
20	0	0	2151	4	183	0
21	0	0	2088	4	184	0
22	0	0	2022	4	184	0
23	0	0	1947	4	184	0
24	0	0	1886	4	185	0
25	0	0	1858	4	185	0
26	0	0	1845	4	184	0
27	0	0	1839	4	183	0
28	0	0	1859	5	184	0
29	0	0	1923	5	184	0
30	0	0	1971	5	185	0
31	0	0	1985	5	184	0
32	0	0	2012	5	184	0
33	0	0	2037	5	184	0
34	0	0	2064	5	185	0
35	0	0	2124	5	184	0
36	0	0	2196	5	184	0
37	0	0	2246	4	185	0
38	0	0	2269	5	185	0
39	0	0	2281	4	183	0
40	0	0	2278	4	183	0
41	0	0	2204	4	183	0
42	0	0	2111	4	184	0
43	0	0	2058	4	185	0
44	0	0	2012	4	184	0
45	0	0	1967	4	183	0
46	0	0	1917	5	185	0
47	0	0	1925	4	184	0
48	0	0	1979	5	184	0
49	0	0	2012	5	184	0
50	0	0	2019	5	184	0
51	0	0	2019	5	185	0
52	0	0	2002	4	185	0
53	0	0	2015	5	184	0
54	0	0	2087	5	184	0
55	0	0	2186	5	184	0
56	0	0	2279	5	184	0
57	0	0	2318	5	185	0
58	0	0	2300	5	185	0
59	0	0	2271	4	184	0
60	0	0	2266	5	184	0
61	0	0	2283	5	185	0
62	0	0	2279	4	183	0
63	0	0	2206	4	184	0
64	0	0	2090	4	185	0
65	0	0	1969	4	182	0
66	0	0	1896	5	186	0
67	0	0	1890	5	183	0
68	0	0	1930	5	183	0
69	0	0	1974	5	183	0
70	0	0	2040	5	185	0
71	0	0	2130	5	186	0
72	0	0	2185	5	185	0
73	0	0	2158	4	184	0
74	0	0	2129	5	184	0
75	0	0	2166	5	184	0
76	0	0	2244	5	184	0
77	0	0	2311	5	184	0
78	0	0	2324	5	185	0
79	0	0	2280	4	184	0
80	0	0	2217	4	185	0
81	0	0	2148	4	184	0
82	0	0	2125	3	184	0
83	0	0	2088	4	185	0
84	0	0	2044	4	184	0
85	0	0	2026	5	183	0
86	0	0	2016	4	184	0
87	0	0	1989	4	184	0
88	0	0	1968	5	184	0
89	0	0	1995	5	184	0
90	0	0	2034	5	183	0
91	0	0	2078	5	183	0
92	0	0	2158	4	183	0
93	0	0	2218	5	183	0
94	0	0	2268	5	183	0
95	0	0	2292	4	185	0
96	0	0	2324	5	184	0
97	0	0	2327	4	184	0
98	0	0	2296	4	184	0
99	0	0	2296	5	184	0
100	0	0	2294	5	184	0
101	0	0	2266	4	183	0
102	0	0	2250	4	184	0
103	0	0	2214	3	184	0
104	0	0	2143	4	183	0
105	0	0	2080	4	184	0
106	0	0	2020	4	184	0
107	0	0	1961	3	183	0
108	0	0	1944	4	183	0
109	0	0	1938	5	184	0
110	0	0	1936	5	183	0
111	0	0	1960	5	184	0
112	0	0	2012	5	184	0
113	0	0	2082	5	185	0
114	0	0	2141	5	185	0
115	0	0	2188	5	184	0
116	0	0	2225	5	184	0
117	0	0	2258	5	184	0
118	0	0	2259	5	185	0
119	0	0	2235	5	184	0
120	0	0	2220	4	184	0
121	0	0	2180	5	185	0
122	0	0	2118	4	183	0
123	0	0	2048	4	183	0
124	0	0	1983	4	184	0
125	0	0	1932	4	183	0
126	0	0	1901	4	182	0
127	0	0	1893	4	183	0
0	0	0	1912	5	183	0
1	0	0	1945	5	184	0
2	0	0	1972	5	184	0
3	0	0	1999	5	183	0
4	0	0	2014	4	184	0
5	0	0	2013	5	184	0
6	0	0	2028	5	183	0
7	0	0	2050	5	184	0
8	0	0	2076	5	184	0
9	0	0	2127	4	185	0
10	0	0	2170	5	184	0
11	0	0	2189	5	185	0
12	0	0	2157	4	184	0
13	0	0	2064	4	183	0
14	0	0	1979	3	183	0
15	0	0	1901	4	185	0
16	0	0	1819	4	184	0
17	0	0	1776	4	184	0
18	0	0	1755	4	184	0
19	0	0	1742	4	183	0
20	0	0	1741	5	184	0
21	0	0	1761	5	184	0
22	0	0	1816	5	183	0
23	0	0	1865	5	185	0
24	0	0	1905	4	184	0
25	0	0	1973	5	184	0
26	0	0	2045	5	184	0
27	0	0	2105	4	184	0
28	0	0	2151	5	184	0
29	0	0	2204	5	184	0
30	0	0	2200	4	184	0
31	0	0	2159	4	184	0
32	0	0	2144	5	185	0
33	0	0	2118	4	184	0
34	0	0	2065	4	184	0
35	0	0	1968	4	184	0
36	0	0	1830	4	183	0
37	0	0	1726	4	184	0
38	0	0	1699	4	185	0
39	0	0	1707	3	184	0
40	0	0	1745	5	184	0
41	0	0	1807	5	184	0
42	0	0	1857	6	184	0
43	0	0	1860	5	184	0
44	0	0	1860	4	184	0
45	0	0	1896	5	184	0
46	0	0	1945	5	184	0
47	0	0	1985	5	184	0
48	0	0	2052	5	185	0
49	0	0	2106	5	185	0
50	0	0	2117	5	184	0
51	0	0	2076	4	184	0
52	0	0	2020	4	185	0
53	0	0	1973	4	184	0
54	0	0	1952	3	185	0
55	0	0	1934	4	184	0
56	0	0	1892	4	185	0
57	0	0	1824	4	183	0
58	0	0	1765	4	183	0
59	0	0	1730	4	184	0
60	0	0	1760	5	184	0
61	0	0	1830	5	183	0
62	0	0	1908	4	184	0
63	0	0	1993	5	184	0
64	0	0	2054	5	184	0
65	0	0	2078	5	184	0
66	0	0	2036	4	184	0
67	0	0	2022	5	184	0
68	0	0	2063	5	185	0
69	0	0	2116	4	184	0
70	0	0	2140	5	184	0
71	0	0	2143	5	184	0
72	0	0	2141	5	184	0
73	0	0	2092	4	184	0
74	0	0	2021	3	184	0
75	0	0	1952	4	184	0
76	0	0	1881	4	183	0
77	0	0	1825	6	183	0
78	0	0	1775	4	184	0
79	0	0	1734	4	184	0
80	0	0	1717	5	184	0
81	0	0	1747	4	182	0
82	0	0	1798	5	184	0
83	0	0	1843	5	184	0
84	0	0	1882	4	184	0
85	0	0	1938	5	185	0
86	0	0	2006	5	185	0
87	0	0	2050	5	184	0
88	0	0	2088	4	184	0
89	0	0	2123	5	184	0
90	0	0	2123	5	185	0
91	0	0	2111	5	183	0
92	0	0	2059	4	184	0
93	0	0	1978	4	186	0
94	0	0	1944	4	183	0
95	0	0	1947	5	184	0
96	0	0	1926	4	183	0
97	0	0	1867	4	184	0
98	0	0	1793	4	184	0
99	0	0	1748	4	185	0
100	0	0	1766	5	182	0
101	0	0	1819	5	182	0
102	0	0	1866	5	183	0
103	0	0	1910	5	185	0
104	0	0	1973	4	183	0
105	0	0	2017	5	184	0
106	0	0	2039	5	183	0
107	0	0	2051	5	184	0
108	0	0	2052	5	183	0
109	0	0	2056	4	184	0
110	0	0	2056	5	184	0
111	0	0	2077	5	184	0
112	0	0	2109	5	184	0
113	0	0	2070	4	184	0
114	0	0	2022	4	183	0
115	0	0	2009	5	184	0
116	0	0	1976	5	184	0
117	0	0	1916	4	185	0
118	0	0	1850	4	185	0
119	0	0	1811	4	183	0
120	0	0	1836	4	183	0
121	0	0	1872	5	183	0
122	0	0	1870	5	184	0
123	0	0	1879	5	184	0
124	0	0	1918	5	183	0
125	0	0	1945	5	184	0
126	0	0	1976	4	184	0
127	0	0	1988	5	185	0
0	0	0	2032	5	184	0
1	0	0	2081	4	185	0
2	0	0	2088	5	184	0
3	0	0	2080	5	184	0
4	0	0	2057	5	183	0
5	0	0	2024	4	183	0
6	0	0	1993	4	184	0
7	0	0	1952	4	184	0
8	0	0	1913	4	184	0
9	0	0	1880	4	184	0
10	0	0	1847	4	184	0
11	0	0	1818	4	182	0
12	0	0	1836	5	184	0
13	0	0	1899	5	182	0
14	0	0	1963	5	184	0
15	0	0	1986	5	185	0
16	0	0	1989	5	184	0
17	0	0	1998	5	184	0
18	0	0	2020	5	183	0
19	0	0	2044	5	184	0
20	0	0	2058	5	184	0
21	0	0	2087	5	183	0
22	0	0	2106	5	185	0
23	0	0	2117	5	184	0
24	0	0	2114	4	184	0
25	0	0	2096	5	182	0
26	0	0	2077	4	184	0
27	0	0	2029	4	183	0
28	0	0	1974	4	183	0
29	0	0	1918	4	183	0
30	0	0	1833	4	184	0
31	0	0	1751	4	185	0
32	0	0	1709	4	184	0
33	0	0	1719	5	184	0
34	0	0	1765	4	184	0
35	0	0	1834	5	186	0
36	0	0	1876	5	184	0
37	0	0	1914	5	185	0
38	0	0	1966	5	184	0
39	0	0	2010	5	185	0
40	0	0	2081	5	185	0
41	0	0	2160	5	185	0
42	0	0	2224	5	184	0
43	0	0	2262	5	185	0
44	0	0	2260	4	184	0
45	0	0	2199	4	183	0
46	0	0	2104	4	183	0
47	0	0	1996	5	184	0
48	0	0	1899	4	183	0
49	0	0	1833	4	183	0
50	0	0	1795	4	184	0
51	0	0	1793	5	184	0
52	0	0	1811	5	184	0
53	0	0	1835	6	183	0
54	0	0	1863	5	184	0
55	0	0	1887	5	183	0
56	0	0	1902	5	184	0
57	0	0	1925	5	185	0
58	0	0	1951	5	185	0
59	0	0	1974	5	184	0
60	0	0	2028	5	185	0
61	0	0	2121	5	184	0
62	0	0	2177	5	184	0
63	0	0	2195	5	184	0
64	0	0	2155	4	184	0
65	0	0	2065	5	184	0
66	0	0	1981	4	184	0
67	0	0	1920	4	184	0
68	0	0	1882	4	184	0
69	0	0	1857	4	184	0
70	0	0	1804	4	184	0
71	0	0	1765	4	183	0
72	0	0	1782	4	185	0
73	0	0	1806	4	184	0
74	0	0	1813	5	183	0
75	0	0	1855	5	185	0
76	0	0	1951	5	185	0
77	0	0	2060	5	185	0
78	0	0	2118	5	185	0
79	0	0	2135	5	184	0
80	0	0	2186	5	184	0
81	0	0	2236	5	185	0
82	0	0	2242	5	185	0
83	0	0	2239	5	184	0
84	0	0	2185	4	185	0
85	0	0	2075	4	184	0
86	0	0	1932	4	185	0
87	0	0	1839	4	183	0
88	0	0	1799	4	183	0
89	0	0	1793	5	184	0
90	0	0	1772	4	184	0
91	0	0	1729	4	184	0
92	0	0	1715	5	184	0
93	0	0	1777	5	184	0
94	0	0	1840	5	184	0
95	0	0	1886	5	185	0
96	0	0	1948	5	183	0
97	0	0	2006	5	184	0
98	0	0	2051	5	183	0
99	0	0	2098	5	184	0
100	0	0	2168	5	185	0
101	0	0	2212	5	183	0
102	0	0	2169	4	184	0
103	0	0	2092	4	185	0
104	0	0	2026	3	184	0
105	0	0	1972	4	184	0
106	0	0	1910	4	184	0
107	0	0	1879	4	185	0
108	0	0	1866	5	183	0
109	0	0	1861	6	182	0
110	0	0	1855	4	184	0
111	0	0	1838	4	183	0
112	0	0	1825	5	183	0
113	0	0	1821	5	183	0
114	0	0	1840	5	184	0
115	0	0	1871	4	183	0
116	0	0	1937	4	183	0
117	0	0	2000	5	185	0
118	0	0	2018	5	184	0
119	0	0	2028	5	184	0
120	0	0	2079	5	184	0
121	0	0	2146	5	183	0
122	0	0	2183	5	184	0
123	0	0	2175	5	183	0
124	0	0	2128	4	185	0
125	0	0	2059	4	184	0
126	0	0	1980	4	185	0
127	0	0	1921	4	184	0
0	0	0	1878	4	184	0
1	0	0	1855	5	184	0
2	0	0	1834	4	184	0
3	0	0	1801	4	183	0
4	0	0	1774	4	184	0
5	0	0	1758	5	185	0
6	0	0	1759	5	185	0
7	0	0	1780	5	185	0
8	0	0	1828	5	185	0
9	0	0	1889	5	184	0
10	0	0	1951	5	184	0
11	0	0	2008	5	183	0
12	0	0	2043	5	184	0
13	0	0	2084	5	185	0
14	0	0	2136	5	183	0
15	0	0	2142	5	185	0
16	0	0	2121	4	184	0
17	0	0	2081	4	184	0
18	0	0	2011	4	185	0
19	0	0	1944	4	183	0
20	0	0	1888	4	183	0
21	0	0	1843	5	183	0
22	0	0	1823	3	183	0
23	0	0	1805	4	184	0
24	0	0	1789	4	183	0
25	0	0	1777	5	184	0
26	0	0	1792	5	183	0
27	0	0	1851	5	184	0
28	0	0	1917	5	185	0
29	0	0	1980	5	183	0
30	0	0	2039	5	183	0
31	0	0	2087	5	185	0
32	0	0	2129	5	185	0
33	0	0	2176	5	184	0
34	0	0	2175	5	184	0
35	0	0	2153	4	185	0
36	0	0	2114	4	183	0
37	0	0	2042	4	183	0
38	0	0	1970	4	184	0
39	0	0	1921	4	183	0
40	0	0	1899	4	184	0
41	0	0	1875	4	184	0
42	0	0	1857	5	183	0
43	0	0	1897	4	184	0
44	0	0	1919	4	185	0
45	0	0	1865	4	184	0
46	0	0	1804	4	183	0
47	0	0	1799	5	185	0
48	0	0	1829	5	184	0
49	0	0	1889	5	184	0
50	0	0	1954	5	184	0
51	0	0	1998	5	185	0
52	0	0	2016	5	184	0
53	0	0	2039	5	184	0
54	0	0	2066	5	183	0
55	0	0	2080	4	183	0
56	0	0	2084	5	184	0
57	0	0	2053	4	184	0
58	0	0	2014	4	183	0
59	0	0	1984	4	184	0
60	0	0	1942	4	185	0
61	0	0	1900	4	183	0
62	0	0	1829	4	183	0
63	0	0	1759	4	185	0
64	0	0	1750	5	185	0
65	0	0	1763	5	185	0
66	0	0	1809	5	184	0
67	0	0	1872	5	183	0
68	0	0	1929	5	183	0
69	0	0	1975	5	184	0
70	0	0	1995	5	183	0
71	0	0	2013	4	186	0
72	0	0	2070	5	186	0
73	0	0	2140	5	184	0
74	0	0	2159	5	185	0
75	0	0	2120	4	183	0
76	0	0	2058	4	185	0
77	0	0	1995	5	185	0
78	0	0	1941	4	185	0
79	0	0	1896	4	184	0
80	0	0	1880	4	185	0
81	0	0	1883	5	184	0
82	0	0	1859	4	185	0
83	0	0	1811	4	184	0
84	0	0	1772	4	184	0
85	0	0	1729	4	184	0
86	0	0	1708	4	184	0
87	0	0	1751	5	185	0
88	0	0	1833	5	185	0
89	0	0	1901	5	184	0
90	0	0	1975	6	185	0
91	0	0	2052	5	183	0
92	0	0	2125	5	184	0
93	0	0	2192	5	184	0
94	0	0	2232	5	183	0
95	0	0	2231	5	185	0
96	0	0	2187	4	183	0
97	0	0	2112	4	186	0
98	0	0	2033	4	183	0
99	0	0	1954	4	183	0
100	0	0	1886	4	184	0
101	0	0	1828	4	183	0
102	0	0	1790	4	184	0
103	0	0	1788	5	184	0
104	0	0	1796	5	183	0
105	0	0	1807	4	184	0
106	0	0	1825	5	185	0
107	0	0	1852	5	184	0
108	0	0	1858	5	184	0
109	0	0	1861	5	185	0
110	0	0	1895	5	184	0
111	0	0	1956	5	183	0
112	0	0	2025	5	184	0
113	0	0	2094	5	185	0
114	0	0	2110	5	184	0
115	0	0	2099	4	183	0
116	0	0	2054	4	186	0
117	0	0	1991	4	184	0
118	0	0	1979	5	183	0
119	0	0	1979	5	183	0
120	0	0	1973	5	184	0
121	0	0	1934	4	184	0
122	0	0	1841	3	185	0
123	0	0	1757	4	186	0
124	0	0	1749	5	183	0
125	0	0	1794	5	182	0
126	0	0	1855	4	184	0
127	0	0	1904	5	184	0
0	0	0	1937	5	184	0
1	0	0	1967	5	185	0
2	0	0	2018	5	183	0
3	0	0	2055	5	185	0
4	0	0	2103	5	186	0
5	0	0	2151	5	184	0
6	0	0	2162	5	185	0
7	0	0	2127	4	184	0
8	0	0	2070	4	185	0
9	0	0	2007	4	184	0
10	0	0	1945	4	184	0
11	0	0	1907	4	184	0
12	0	0	1862	3	183	0
13	0	0	1813	4	184	0
14	0	0	1794	4	182	0
15	0	0	1803	5	183	0
16	0	0	1824	5	183	0
17	0	0	1852	5	184	0
18	0	0	1875	5	184	0
19	0	0	1905	5	184	0
20	0	0	1947	5	185	0
21	0	0	2026	6	184	0
22	0	0	2100	5	185	0
23	0	0	2136	5	185	0
24	0	0	2153	5	185	0
25	0	0	2130	4	185	0
26	0	0	2064	4	184	0
27	0	0	2048	4	183	0
28	0	0	2017	4	184	0
29	0	0	1975	4	183	0
30	0	0	1943	4	183	0
31	0	0	1900	4	183	0
32	0	0	1861	4	184	0
33	0	0	1841	4	184	0
34	0	0	1825	4	185	0
35	0	0	1816	5	182	0
36	0	0	1829	5	183	0
37	0	0	1847	5	183	0
38	0	0	1859	5	184	0
39	0	0	1886	5	184	0
40	0	0	1916	4	184	0
41	0	0	1958	5	183	0
42	0	0	1998	5	184	0
43	0	0	2050	5	183	0
44	0	0	2107	5	185	0
45	0	0	2156	5	185	0
46	0	0	2171	5	184	0
47	0	0	2152	4	184	0
48	0	0	2109	4	183	0
49	0	0	2050	4	183	0
50	0	0	1974	4	183	0
51	0	0	1904	4	184	0
52	0	0	1850	3	184	0
53	0	0	1811	4	183	0
54	0	0	1783	4	184	0
55	0	0	1780	4	183	0
56	0	0	1789	5	184	0
57	0	0	1820	5	184	0
58	0	0	1892	5	184	0
59	0	0	1972	5	184	0
60	0	0	2021	5	183	0
61	0	0	2021	5	185	0
62	0	0	2019	5	185	0
63	0	0	2034	5	185	0
64	0	0	2067	5	184	0
65	0	0	2134	5	183	0
66	0	0	2202	5	184	0
67	0	0	2235	5	184	0
68	0	0	2196	4	183	0
69	0	0	2115	4	184	0
70	0	0	2015	4	182	0
71	0	0	1945	4	183	0
72	0	0	1891	4	183	0
73	0	0	1862	4	185	0
74	0	0	1848	4	183	0
75	0	0	1815	4	184	0
76	0	0	1804	5	182	0
77	0	0	1821	4	184	0
78	0	0	1833	5	183	0
79	0	0	1836	5	185	0
80	0	0	1857	5	183	0
81	0	0	1915	5	184	0
82	0	0	1987	5	184	0
83	0	0	2032	5	184	0
84	0	0	2051	5	184	0
85	0	0	2080	5	184	0
86	0	0	2096	5	184	0
87	0	0	2099	5	184	0
88	0	0	2086	5	184	0
89	0	0	2062	4	184	0
90	0	0	2011	4	183	0
91	0	0	1937	4	183	0
92	0	0	1840	3	184	0
93	0	0	1759	4	183	0
94	0	0	1721	4	183	0
95	0	0	1702	4	184	0
96	0	0	1689	4	183	0
97	0	0	1692	5	183	0
98	0	0	1709	5	185	0
99	0	0	1732	5	184	0
100	0	0	1798	5	184	0
101	0	0	1886	5	184	0
102	0	0	1950	5	184	0
103	0	0	2015	5	185	0
104	0	0	2058	5	185	0
105	0	0	2074	5	183	0
106	0	0	2079	5	185	0
107	0	0	2087	5	185	0
108	0	0	2099	5	184	0
109	0	0	2088	4	185	0
110	0	0	2052	4	184	0
111	0	0	2002	3	184	0
112	0	0	1918	4	183	0
113	0	0	1827	4	185	0
114	0	0	1787	4	183	0
115	0	0	1785	4	184	0
116	0	0	1755	4	183	0
117	0	0	1737	4	185	0
118	0	0	1749	4	184	0
119	0	0	1783	5	184	0
120	0	0	1835	5	183	0
121	0	0	1877	5	184	0
122	0	0	1902	5	184	0
123	0	0	1920	5	184	0
124	0	0	1957	5	185	0
125	0	0	2012	5	185	0
126	0	0	2042	5	184	0
127	0	0	2039	4	185	0
0	0	0	2022	4	184	0
1	0	0	1991	4	185	0
2	0	0	1934	4	184	0
3	0	0	1873	3	183	0
4	0	0	1828	4	184	0
5	0	0	1794	3	184	0
6	0	0	1743	4	184	0
7	0	0	1702	4	184	0
8	0	0	1699	5	184	0
9	0	0	1721	5	185	0
10	0	0	1757	4	183	0
11	0	0	1807	5	185	0
12	0	0	1835	5	184	0
13	0	0	1841	5	184	0
14	0	0	1867	6	184	0
15	0	0	1905	5	183	0
16	0	0	1959	5	185	0
17	0	0	2042	5	184	0
18	0	0	2099	5	185	0
19	0	0	2087	5	184	0
20	0	0	2077	4	183	0
21	0	0	2071	4	185	0
22	0	0	2011	4	182	0
23	0	0	1931	4	184	0
24	0	0	1840	4	183	0
25	0	0	1796	4	183	0
26	0	0	1760	4	183	0
27	0	0	1710	4	184	0
28	0	0	1708	5	185	0
29	0	0	1755	5	184	0
30	0	0	1800	5	184	0
31	0	0	1828	5	184	0
32	0	0	1885	5	184	0
33	0	0	1965	5	184	0
34	0	0	2019	7	184	0
35	0	0	2050	5	184	0
36	0	0	2082	5	184	0
37	0	0	2091	5	184	0
38	0	0	2056	4	183	0
39	0	0	2031	4	185	0
40	0	0	2006	4	183	0
41	0	0	1972	4	183	0
42	0	0	1971	5	183	0
43	0	0	1989	5	183	0
44	0	0	1971	4	183	0
45	0	0	1930	3	182	0
46	0	0	1877	4	183	0
47	0	0	1836	4	184	0
48	0	0	1820	4	183	0
49	0	0	1842	5	183	0
50	0	0	1887	5	184	0
51	0	0	1943	5	184	0
52	0	0	1998	5	184	0
53	0	0	2020	5	184	0
54	0	0	2040	5	185	0
55	0	0	2082	5	184	0
56	0	0	2140	5	184	0
57	0	0	2199	5	185	0
58	0	0	2232	5	183	0
59	0	0	2258	7	184	0
60	0	0	2276	5	184	0
61	0	0	2280	5	183	0
62	0	0	2300	5	183	0
63	0	0	2256	4	184	0
64	0	0	2164	4	184	0
65	0	0	2103	4	183	0
66	0	0	2093	5	184	0
67	0	0	2074	4	183	0
68	0	0	2035	4	185	0
69	0	0	2005	4	184	0
70	0	0	2007	4	183	0
71	0	0	2037	5	184	0
72	0	0	2096	5	183	0
73	0	0	2152	5	185	0
74	0	0	2189	5	184	0
75	0	0	2215	5	186	0
76	0	0	2247	5	185	0
77	0	0	2284	5	184	0
78	0	0	2307	5	183	0
79	0	0	2292	4	184	0
80	0	0	2225	4	183	0
81	0	0	2111	4	184	0
82	0	0	1997	4	183	0
83	0	0	1924	4	183	0
84	0	0	1900	4	184	0
85	0	0	1860	4	184	0
86	0	0	1796	4	183	0
87	0	0	1748	4	183	0
88	0	0	1720	4	184	0
89	0	0	1703	4	184	0
90	0	0	1726	5	184	0
91	0	0	1770	5	184	0
92	0	0	1797	5	183	0
93	0	0	1820	5	184	0
94	0	0	1858	5	184	0
95	0	0	1871	5	183	0
96	0	0	1891	5	185	0
97	0	0	1932	5	183	0
98	0	0	1932	4	184	0
99	0	0	1888	4	184	0
100	0	0	1836	4	184	0
101	0	0	1822	5	185	0
102	0	0	1846	5	184	0
103	0	0	1838	4	183	0
104	0	0	1804	4	184	0
105	0	0	1783	4	183	0
106	0	0	1745	4	183	0
107	0	0	1693	4	183	0
108	0	0	1706	5	183	0
109	0	0	1765	5	184	0
110	0	0	1809	5	182	0
111	0	0	1841	5	185	0
112	0	0	1855	5	184	0
113	0	0	1852	5	184	0
114	0	0	1850	5	185	0
115	0	0	1888	5	185	0
116	0	0	1960	5	183	0
117	0	0	2053	5	184	0
118	0	0	2095	5	183	0
119	0	0	2062	4	182	0
120	0	0	2003	4	184	0
121	0	0	1932	4	184	0
122	0	0	1867	4	183	0
123	0	0	1819	4	183	0
124	0	0	1776	4	184	0
125	0	0	1742	3	183	0
126	0	0	1739	4	185	0
127	0	0	1711	4	184	0
0	0	0	1675	4	183	0
1	0	0	1688	5	186	0
2	0	0	1740	5	186	0
3	0	0	1787	5	185	0
4	0	0	1842	5	184	0
5	0	0	1896	5	184	0
6	0	0	1934	5	186	0
7	0	0	1989	5	184	0
8	0	0	2051	5	184	0
9	0	0	2080	5	184	0
10	0	0	2082	5	183	0
11	0	0	2052	4	183	0
12	0	0	2013	4	183	0
13	0	0	1967	4	185	0
14	0	0	1933	4	183	0
15	0	0	1910	4	184	0
16	0	0	1867	4	182	0
17	0	0	1790	2	184	0
18	0	0	1715	4	184	0
19	0	0	1676	4	184	0
20	0	0	1688	5	183	0
21	0	0	1729	5	183	0
22	0	0	1794	5	185	0
23	0	0	1852	5	183	0
24	0	0	1886	5	185	0
25	0	0	1874	4	185	0
26	0	0	1871	5	185	0
27	0	0	1916	5	184	0
28	0	0	1991	5	184	0
29	0	0	2062	5	184	0
30	0	0	2081	5	183	0
31	0	0	2067	4	183	0
32	0	0	2021	3	184	0
33	0	0	1959	4	184	0
34	0	0	1902	4	184	0
35	0	0	1869	4	183	0
36	0	0	1844	4	184	0
37	0	0	1831	4	184	0
38	0	0	1824	4	182	0
39	0	0	1782	4	184	0
40	0	0	1756	5	183	0
41	0	0	1752	4	184	0
42	0	0	1758	3	184	0
43	0	0	1815	5	185	0
44	0	0	1898	5	182	0
45	0	0	1962	5	183	0
46	0	0	1999	5	185	0
47	0	0	2044	4	185	0
48	0	0	2099	5	183	0
49	0	0	2100	4	184	0
50	0	0	2050	4	183	0
51	0	0	1995	4	183	0
52	0	0	1927	4	184	0
53	0	0	1864	4	184	0
54	0	0	1856	5	184	0
55	0	0	1854	4	184	0
56	0	0	1834	4	184	0
57	0	0	1815	3	185	0
58	0	0	1806	4	184	0
59	0	0	1809	5	183	0
60	0	0	1791	4	184	0
61	0	0	1761	4	184	0
62	0	0	1766	5	183	0
63	0	0	1805	5	184	0
64	0	0	1839	5	184	0
65	0	0	1882	5	185	0
66	0	0	1958	5	185	0
67	0	0	2043	4	185	0
68	0	0	2071	4	184	0
69	0	0	2072	5	185	0
70	0	0	2078	5	184	0
71	0	0	2094	5	183	0
72	0	0	2095	5	183	0
73	0	0	2039	4	183	0
74	0	0	1966	4	185	0
75	0	0	1933	4	184	0
76	0	0	1928	5	185	0
77	0	0	1910	4	183	0
78	0	0	1881	4	184	0
79	0	0	1844	4	183	0
80	0	0	1804	4	184	0
81	0	0	1725	4	184	0
82	0	0	1707	4	184	0
83	0	0	1775	5	184	0
84	0	0	1861	5	184	0
85	0	0	1916	5	184	0
86	0	0	1959	5	185	0
87	0	0	2009	5	184	0
88	0	0	2075	5	184	0
89	0	0	2111	5	184	0
90	0	0	2113	5	183	0
91	0	0	2116	5	184	0
92	0	0	2134	5	185	0
93	0	0	2085	4	185	0
94	0	0	2012	4	184	0
95	0	0	1956	4	184	0
96	0	0	1935	4	183	0
97	0	0	1965	5	184	0
98	0	0	1973	4	184	0
99	0	0	1923	4	185	0
100	0	0	1897	4	184	0
101	0	0	1878	4	184	0
102	0	0	1879	5	183	0
103	0	0	1874	5	185	0
104	0	0	1889	5	183	0
105	0	0	1959	5	185	0
106	0	0	2049	5	184	0
107	0	0	2127	5	186	0
108	0	0	2191	5	185	0
109	0	0	2228	5	183	0
110	0	0	2219	4	184	0
111	0	0	2159	3	184	0
112	0	0	2092	5	184	0
113	0	0	2035	4	184	0
114	0	0	1995	4	184	0
115	0	0	1997	5	184	0
116	0	0	2007	5	183	0
117	0	0	1982	4	184	0
118	0	0	1942	4	184	0
119	0	0	1911	4	185	0
120	0	0	1908	5	184	0
121	0	0	1917	5	184	0
122	0	0	1934	5	183	0
123	0	0	1951	5	184	0
124	0	0	1942	5	184	0
125	0	0	1978	5	185	0
126	0	0	2063	4	183	0
127	0	0	2140	5	184	0
0	0	0	2195	5	183	0
1	0	0	2236	5	185	0
2	0	0	2235	5	183	0
3	0	0	2210	4	183	0
4	0	0	2179	4	183	0
5	0	0	2135	4	184	0
6	0	0	2073	4	184	0
7	0	0	2002	4	184	0
8	0	0	1987	5	184	0
9	0	0	1969	4	183	0
10	0	0	1924	4	183	0
11	0	0	1863	4	184	0
12	0	0	1837	5	183	0
13	0	0	1860	5	183	0
14	0	0	1897	5	184	0
15	0	0	1940	5	184	0
16	0	0	1980	5	185	0
17	0	0	2002	5	183	0
18	0	0	1997	5	184	0
19	0	0	2021	5	185	0
20	0	0	2088	5	184	0
21	0	0	2140	5	183	0
22	0	0	2138	5	186	0
23	0	0	2122	5	185	0
24	0	0	2102	4	183	0
25	0	0	2045	3	185	0
26	0	0	1970	4	184	0
27	0	0	1927	4	183	0
28	0	0	1901	4	185	0
29	0	0	1869	4	184	0
30	0	0	1820	4	183	0
31	0	0	1790	4	184	0
32	0	0	1798	4	185	0
33	0	0	1845	5	186	0
34	0	0	1875	5	184	0
35	0	0	1899	5	184	0
36	0	0	1917	5	183	0
37	0	0	1929	5	184	0
38	0	0	1953	5	184	0
39	0	0	1996	5	185	0
40	0	0	2045	5	184	0
41	0	0	2096	5	185	0
42	0	0	2107	5	184	0
43	0	0	2095	4	184	0
44	0	0	2064	5	185	0
45	0	0	2018	4	184	0
46	0	0	1972	4	184	0
47	0	0	1901	4	184	0
48	0	0	1836	5	184	0
49	0	0	1773	4	184	0
50	0	0	1705	4	184	0
51	0	0	1634	4	183	0
52	0	0	1631	5	183	0
53	0	0	1663	5	184	0
54	0	0	1717	5	183	0
55	0	0	1769	4	183	0
56	0	0	1805	5	183	0
57	0	0	1853	5	184	0
58	0	0	1902	5	184	0
59	0	0	1941	5	184	0
60	0	0	1988	5	184	0
61	0	0	2025	5	183	0
62	0	0	2014	4	183	0
63	0	0	1971	4	184	0
64	0	0	1946	4	184	0
65	0	0	1913	4	184	0
66	0	0	1857	4	184	0
67	0	0	1801	4	183	0
68	0	0	1749	4	184	0
69	0	0	1706	4	183	0
70	0	0	1709	4	184	0
71	0	0	1728	5	183	0
72	0	0	1704	4	184	0
73	0	0	1677	4	184	0
74	0	0	1636	4	185	0
75	0	0	1598	4	184	0
76	0	0	1640	5	185	0
77	0	0	1739	5	184	0
78	0	0	1810	5	184	0
79	0	0	1832	6	184	0
80	0	0	1849	4	184	0
81	0	0	1894	5	185	0
82	0	0	1940	5	183	0
83	0	0	1964	5	184	0
84	0	0	1988	5	183	0
85	0	0	1988	4	183	0
86	0	0	1931	4	184	0
87	0	0	1828	4	184	0
88	0	0	1731	4	183	0
89	0	0	1673	5	183	0
90	0	0	1653	4	185	0
91	0	0	1657	5	184	0
92	0	0	1674	4	185	0
93	0	0	1689	5	185	0
94	0	0	1693	5	183	0
95	0	0	1699	4	185	0
96	0	0	1707	5	183	0
97	0	0	1724	5	185	0
98	0	0	1782	5	185	0
99	0	0	1860	4	184	0
100	0	0	1932	5	185	0
101	0	0	1985	5	184	0
102	0	0	1996	5	185	0
103	0	0	1962	4	185	0
104	0	0	1907	4	184	0
105	0	0	1871	4	183	0
106	0	0	1854	4	185	0
107	0	0	1838	4	184	0
108	0	0	1792	4	183	0
109	0	0	1721	4	184	0
110	0	0	1681	4	184	0
111	0	0	1651	4	182	0
112	0	0	1639	4	184	0
113	0	0	1662	5	183	0
114	0	0	1721	4	184	0
115	0	0	1757	5	184	0
116	0	0	1776	5	184	0
117	0	0	1798	5	185	0
118	0	0	1814	5	184	0
119	0	0	1841	5	183	0
120	0	0	1896	5	184	0
121	0	0	1947	5	184	0
122	0	0	1944	5	185	0
123	0	0	1916	4	184	0
124	0	0	1886	4	184	0
125	0	0	1844	4	184	0
126	0	0	1815	4	183	0
127	0	0	1778	4	183	0
0	0	0	1720	4	182	0
1	0	0	1665	6	184	0
2	0	0	1633	4	183	0
3	0	0	1632	5	184	0
4	0	0	1650	5	183	0
5	0	0	1675	5	183	0
6	0	0	1691	6	184	0
7	0	0	1699	4	184	0
8	0	0	1730	5	184	0
9	0	0	1785	5	184	0
10	0	0	1848	5	184	0
11	0	0	1891	6	184	0
12	0	0	1928	5	185	0
13	0	0	1989	5	185	0
14	0	0	2029	5	184	0
15	0	0	2040	4	183	0
16	0	0	2015	5	184	0
17	0	0	1958	4	183	0
18	0	0	1880	4	184	0
19	0	0	1808	3	184	0
20	0	0	1764	4	184	0
21	0	0	1727	3	184	0
22	0	0	1677	4	184	0
23	0	0	1642	4	184	0
24	0	0	1646	4	184	0
25	0	0	1659	5	183	0
26	0	0	1692	4	184	0
27	0	0	1745	4	185	0
28	0	0	1766	5	184	0
29	0	0	1766	5	185	0
30	0	0	1824	5	185	0
31	0	0	1870	5	184	0
32	0	0	1909	5	185	0
33	0	0	1981	5	185	0
34	0	0	2036	5	185	0
35	0	0	2041	4	184	0
36	0	0	1980	4	184	0
37	0	0	1892	4	183	0
38	0	0	1826	4	184	0
39	0	0	1784	4	184	0
40	0	0	1781	5	185	0
41	0	0	1765	3	183	0
42	0	0	1728	3	183	0
43	0	0	1703	4	184	0
44	0	0	1698	4	183	0
45	0	0	1710	5	184	0
46	0	0	1737	6	183	0
47	0	0	1777	5	183	0
48	0	0	1803	5	183	0
49	0	0	1832	5	185	0
50	0	0	1878	5	185	0
51	0	0	1925	5	183	0
52	0	0	1954	5	185	0
53	0	0	1991	5	184	0
54	0	0	1988	5	185	0
55	0	0	1972	4	183	0
56	0	0	1932	3	183	0
57	0	0	1861	4	185	0
58	0	0	1809	4	184	0
59	0	0	1784	4	185	0
60	0	0	1759	4	183	0
61	0	0	1721	4	184	0
62	0	0	1688	4	183	0
63	0	0	1651	4	184	0
64	0	0	1653	5	183	0
65	0	0	1679	5	184	0
66	0	0	1716	3	185	0
67	0	0	1733	5	183	0
68	0	0	1765	5	184	0
69	0	0	1845	5	185	0
70	0	0	1908	5	183	0
71	0	0	1956	5	183	0
72	0	0	2020	5	184	0
73	0	0	2081	5	186	0
74	0	0	2079	4	184	0
75	0	0	2025	4	185	0
76	0	0	1977	4	185	0
77	0	0	1922	4	184	0
78	0	0	1863	4	184	0
79	0	0	1805	4	184	0
80	0	0	1759	4	185	0
81	0	0	1728	4	183	0
82	0	0	1708	4	183	0
83	0	0	1699	4	185	0
84	0	0	1729	5	184	0
85	0	0	1778	5	183	0
86	0	0	1786	4	183	0
87	0	0	1770	4	185	0
88	0	0	1789	5	185	0
89	0	0	1835	5	185	0
90	0	0	1869	5	184	0
91	0	0	1898	6	185	0
92	0	0	1950	5	185	0
93	0	0	2045	5	184	0
94	0	0	2125	5	183	0
95	0	0	2121	4	185	0
96	0	0	2071	4	185	0
97	0	0	2021	4	184	0
98	0	0	1982	4	185	0
99	0	0	1945	5	184	0
100	0	0	1896	4	184	0
101	0	0	1838	4	184	0
102	0	0	1778	4	184	0
103	0	0	1733	4	184	0
104	0	0	1728	6	184	0
105	0	0	1747	5	183	0
106	0	0	1749	5	185	0
107	0	0	1773	5	183	0
108	0	0	1830	5	184	0
109	0	0	1880	5	185	0
110	0	0	1909	4	184	0
111	0	0	1921	5	184	0
112	0	0	1905	5	185	0
113	0	0	1922	5	184	0
114	0	0	1934	5	184	0
115	0	0	1944	5	184	0
116	0	0	1973	5	184	0
117	0	0	2006	5	184	0
118	0	0	1994	4	183	0
119	0	0	1978	4	184	0
120	0	0	1937	4	185	0
121	0	0	1839	4	184	0
122	0	0	1731	4	184	0
123	0	0	1660	4	183	0
124	0	0	1652	5	183	0
125	0	0	1653	4	182	0
126	0	0	1669	5	184	0
127	0	0	1717	5	184	0
0	0	0	1774	5	183	0
1	0	0	1823	5	184	0
2	0	0	1895	5	184	0
3	0	0	1970	5	184	0
4	0	0	2023	5	184	0
5	0	0	2044	5	185	0
6	0	0	2057	5	184	0
7	0	0	2046	5	185	0
8	0	0	1993	5	184	0
9	0	0	1894	4	184	0
10	0	0	1808	4	184	0
11	0	0	1754	4	182	0
12	0	0	1753	5	183	0
13	0	0	1749	5	183	0
14	0	0	1754	5	184	0
15	0	0	1741	4	184	0
16	0	0	1739	5	184	0
17	0	0	1754	4	184	0
18	0	0	1778	5	183	0
19	0	0	1815	5	185	0
20	0	0	1860	5	185	0
21	0	0	1895	5	183	0
22	0	0	1899	5	184	0
23	0	0	1930	5	184	0
24	0	0	1966	5	184	0
25	0	0	1991	5	184	0
26	0	0	2011	5	184	0
27	0	0	2024	5	184	0
28	0	0	1971	5	183	0
29	0	0	1901	4	184	0
30	0	0	1856	4	184	0
31	0	0	1844	4	185	0
32	0	0	1828	4	184	0
33	0	0	1816	5	182	0
34	0	0	1820	4	183	0
35	0	0	1812	4	184	0
36	0	0	1797	4	184	0
37	0	0	1766	4	184	0
38	0	0	1758	4	184	0
39	0	0	1760	6	183	0
40	0	0	1794	5	183	0
41	0	0	1871	5	183	0
42	0	0	1920	6	184	0
43	0	0	1956	5	183	0
44	0	0	2004	5	184	0
45	0	0	2061	5	185	0
46	0	0	2099	5	185	0
47	0	0	2130	6	184	0
48	0	0	2121	4	184	0
49	0	0	2077	4	182	0
50	0	0	1984	4	183	0
51	0	0	1880	3	184	0
52	0	0	1830	5	185	0
53	0	0	1796	3	184	0
54	0	0	1779	4	183	0
55	0	0	1756	4	182	0
56	0	0	1743	5	183	0
57	0	0	1737	4	183	0
58	0	0	1745	5	185	0
59	0	0	1792	5	185	0
60	0	0	1866	5	184	0
61	0	0	1904	5	185	0
62	0	0	1914	5	184	0
63	0	0	1927	5	184	0
64	0	0	1938	5	185	0
65	0	0	1964	5	186	0
66	0	0	1980	5	185	0
67	0	0	1985	5	185	0
68	0	0	2007	5	184	0
69	0	0	1995	4	184	0
70	0	0	1930	4	184	0
71	0	0	1851	5	183	0
72	0	0	1782	4	184	0
73	0	0	1728	4	184	0
74	0	0	1707	4	184	0
75	0	0	1680	4	182	0
76	0	0	1654	4	184	0
77	0	0	1661	5	183	0
78	0	0	1714	5	184	0
79	0	0	1797	5	184	0
80	0	0	1879	5	184	0
81	0	0	1933	5	184	0
82	0	0	1964	5	185	0
83	0	0	1989	5	185	0
84	0	0	2011	5	183	0
85	0	0	2068	5	183	0
86	0	0	2079	5	184	0
87	0	0	2050	4	184	0
88	0	0	2015	4	184	0
89	0	0	1987	3	185	0
90	0	0	1970	4	183	0
91	0	0	1940	4	183	0
92	0	0	1884	4	182	0
93	0	0	1835	5	184	0
94	0	0	1805	3	183	0
95	0	0	1770	4	183	0
96	0	0	1757	5	184	0
97	0	0	1773	5	183	0
98	0	0	1797	5	184	0
99	0	0	1809	4	183	0
100	0	0	1815	5	185	0
101	0	0	1834	4	184	0
102	0	0	1879	5	184	0
103	0	0	1934	5	184	0
104	0	0	1964	5	185	0
105	0	0	2006	5	185	0
106	0	0	2038	5	184	0
107	0	0	2018	5	184	0
108	0	0	1984	5	184	0
109	0	0	1954	5	184	0
110	0	0	1902	4	184	0
111	0	0	1856	4	185	0
112	0	0	1843	4	185	0
113	0	0	1827	4	184	0
114	0	0	1801	3	184	0
115	0	0	1766	4	184	0
116	0	0	1769	4	184	0
117	0	0	1812	5	184	0
118	0	0	1855	5	183	0
119	0	0	1854	4	184	0
120	0	0	1881	5	184	0
121	0	0	1920	5	184	0
122	0	0	1945	5	184	0
123	0	0	1971	5	184	0
124	0	0	2014	5	185	0
125	0	0	2077	5	185	0
126	0	0	2094	5	184	0
127	0	0	2041	5	184	0
0	0	0	1969	5	184	0
1	0	0	1911	4	183	0
2	0	0	1883	4	184	0
3	0	0	1863	5	185	0
4	0	0	1847	4	184	0
5	0	0	1847	5	183	0
6	0	0	1839	4	185	0
7	0	0	1798	4	184	0
8	0	0	1782	4	184	0
9	0	0	1802	5	184	0
10	0	0	1828	6	184	0
11	0	0	1878	4	183	0
12	0	0	1920	5	184	0
13	0	0	1939	5	185	0
14	0	0	1968	5	184	0
15	0	0	2003	5	184	0
16	0	0	2025	6	185	0
17	0	0	2056	5	185	0
18	0	0	2076	5	184	0
19	0	0	2094	6	184	0
20	0	0	2081	5	184	0
21	0	0	2044	4	184	0
22	0	0	2005	4	184	0
23	0	0	1953	4	183	0
24	0	0	1901	4	183	0
25	0	0	1859	5	185	0
26	0	0	1830	5	183	0
27	0	0	1795	4	184	0
28	0	0	1787	4	185	0
29	0	0	1796	5	185	0
30	0	0	1821	5	184	0
31	0	0	1866	5	183	0
32	0	0	1918	5	185	0
33	0	0	1961	4	184	0
34	0	0	1995	5	185	0
35	0	0	2024	5	185	0
36	0	0	2073	5	183	0
37	0	0	2148	5	184	0
38	0	0	2162	4	184	0
39	0	0	2104	4	185	0
40	0	0	2045	4	184	0
41	0	0	1999	5	184	0
42	0	0	1960	4	184	0
43	0	0	1918	3	183	0
44	0	0	1894	5	184	0
45	0	0	1871	4	185	0
46	0	0	1856	4	183	0
47	0	0	1834	4	184	0
48	0	0	1837	5	184	0
49	0	0	1861	5	183	0
50	0	0	1893	5	183	0
51	0	0	1936	4	184	0
52	0	0	1970	5	183	0
53	0	0	1975	4	184	0
54	0	0	1985	5	186	0
55	0	0	2011	5	184	0
56	0	0	2058	5	184	0
57	0	0	2123	5	184	0
58	0	0	2121	4	185	0
59	0	0	2071	4	183	0
60	0	0	2029	5	183	0
61	0	0	1992	4	183	0
62	0	0	1946	4	184	0
63	0	0	1919	4	184	0
64	0	0	1912	5	184	0
65	0	0	1879	4	182	0
66	0	0	1835	4	184	0
67	0	0	1796	4	184	0
68	0	0	1779	4	184	0
69	0	0	1780	5	185	0
70	0	0	1809	5	185	0
71	0	0	1841	6	184	0
72	0	0	1851	5	185	0
73	0	0	1871	5	184	0
74	0	0	1916	5	184	0
75	0	0	1957	5	183	0
76	0	0	1997	5	184	0
77	0	0	2043	5	185	0
78	0	0	2061	5	184	0
79	0	0	2071	6	184	0
80	0	0	2079	5	184	0
81	0	0	1996	4	183	0
82	0	0	1888	4	183	0
83	0	0	1826	4	184	0
84	0	0	1794	4	183	0
85	0	0	1780	4	182	0
86	0	0	1771	4	183	0
87	0	0	1749	4	184	0
88	0	0	1766	5	184	0
89	0	0	1796	5	183	0
90	0	0	1804	5	183	0
91	0	0	1827	4	183	0
92	0	0	1862	5	184	0
93	0	0	1894	5	183	0
94	0	0	1927	5	185	0
95	0	0	1956	5	184	0
96	0	0	1996	5	184	0
97	0	0	2054	5	184	0
98	0	0	2071	5	184	0
99	0	0	2076	5	184	0
100	0	0	2080	5	185	0
101	0	0	2041	4	183	0
102	0	0	1989	4	183	0
103	0	0	1934	4	184	0
104	0	0	1882	4	183	0
105	0	0	1834	4	182	0
106	0	0	1799	4	185	0
107	0	0	1773	4	184	0
108	0	0	1780	5	184	0
109	0	0	1813	5	184	0
110	0	0	1840	5	183	0
111	0	0	1863	4	184	0
112	0	0	1865	4	184	0
113	0	0	1876	5	184	0
114	0	0	1908	5	183	0
115	0	0	1968	5	184	0
116	0	0	2027	5	184	0
117	0	0	2072	5	184	0
118	0	0	2094	5	184	0
119	0	0	2110	5	184	0
120	0	0	2108	4	182	0
121	0	0	2059	3	184	0
122	0	0	1980	4	185	0
123	0	0	1893	4	183	0
124	0	0	1821	4	184	0
125	0	0	1788	4	185	0
126	0	0	1762	3	184	0
127	0	0	1744	4	184	0
0	0	0	1750	5	183	0
1	0	0	1763	5	184	0
2	0	0	1783	5	184	0
3	0	0	1808	4	184	0
4	0	0	1825	5	184	0
5	0	0	1885	5	185	0
6	0	0	1967	5	185	0
7	0	0	2062	5	184	0
8	0	0	2111	5	184	0
9	0	0	2104	4	185	0
10	0	0	2098	5	184	0
11	0	0	2105	5	185	0
12	0	0	2096	5	184	0
13	0	0	2083	4	184	0
14	0	0	2060	4	185	0
15	0	0	2018	4	183	0
16	0	0	1944	4	183	0
17	0	0	1891	4	184	0
18	0	0	1841	3	183	0
19	0	0	1792	4	183	0
20	0	0	1800	5	182	0
21	0	0	1846	5	184	0
22	0	0	1893	4	184	0
23	0	0	1900	4	184	0
24	0	0	1893	5	184	0
25	0	0	1924	5	184	0
26	0	0	1993	4	185	0
27	0	0	2057	5	184	0
28	0	0	2130	5	183	0
29	0	0	2224	5	184	0
30	0	0	2278	5	185	0
31	0	0	2268	4	183	0
32	0	0	2241	5	184	0
33	0	0	2209	4	183	0
34	0	0	2153	4	184	0
35	0	0	2082	4	184	0
36	0	0	2029	4	184	0
37	0	0	1996	4	184	0
38	0	0	1953	4	183	0
39	0	0	1930	5	184	0
40	0	0	1979	5	185	0
41	0	0	2015	4	183	0
42	0	0	2021	5	183	0
43	0	0	2071	4	185	0
44	0	0	2131	5	185	0
45	0	0	2168	5	183	0
46	0	0	2202	5	184	0
47	0	0	2240	5	185	0
48	0	0	2275	3	184	0
49	0	0	2330	5	184	0
50	0	0	2356	5	184	0
51	0	0	2305	4	184	0
52	0	0	2260	4	185	0
53	0	0	2232	3	185	0
54	0	0	2227	5	184	0
55	0	0	2193	4	184	0
56	0	0	2099	3	184	0
57	0	0	2002	4	184	0
58	0	0	1942	4	183	0
59	0	0	1877	4	185	0
60	0	0	1828	5	184	0
61	0	0	1802	4	183	0
62	0	0	1805	5	184	0
63	0	0	1841	4	183	0
64	0	0	1881	5	184	0
65	0	0	1898	5	183	0
66	0	0	1919	5	184	0
67	0	0	1930	5	185	0
68	0	0	1952	5	183	0
69	0	0	2012	5	184	0
70	0	0	2042	5	185	0
71	0	0	2025	4	184	0
72	0	0	2033	5	185	0
73	0	0	2012	4	184	0
74	0	0	1981	4	184	0
75	0	0	1957	4	184	0
76	0	0	1914	4	183	0
77	0	0	1853	4	184	0
78	0	0	1794	3	182	0
79	0	0	1746	5	184	0
80	0	0	1754	5	184	0
81	0	0	1810	4	184	0
82	0	0	1844	5	184	0
83	0	0	1849	5	185	0
84	0	0	1857	5	184	0
85	0	0	1874	5	184	0
86	0	0	1876	5	185	0
87	0	0	1895	5	184	0
88	0	0	1929	4	185	0
89	0	0	1998	5	184	0
90	0	0	2048	5	185	0
91	0	0	2043	4	184	0
92	0	0	2019	4	185	0
93	0	0	1969	3	183	0
94	0	0	1916	4	183	0
95	0	0	1897	4	185	0
96	0	0	1903	5	183	0
97	0	0	1901	4	184	0
98	0	0	1854	2	184	0
99	0	0	1772	4	183	0
100	0	0	1746	4	183	0
101	0	0	1787	5	183	0
102	0	0	1848	5	184	0
103	0	0	1891	3	183	0
104	0	0	1901	5	185	0
105	0	0	1891	4	185	0
106	0	0	1923	6	184	0
107	0	0	1983	5	184	0
108	0	0	2031	4	184	0
109	0	0	2078	5	184	0
110	0	0	2115	6	184	0
111	0	0	2127	5	183	0
112	0	0	2089	4	185	0
113	0	0	2019	4	185	0
114	0	0	1959	4	184	0
115	0	0	1896	3	184	0
116	0	0	1856	4	184	0
117	0	0	1837	4	184	0
118	0	0	1781	3	182	0
119	0	0	1708	4	183	0
120	0	0	1686	5	184	0
121	0	0	1727	5	183	0
122	0	0	1781	5	185	0
123	0	0	1845	4	183	0
124	0	0	1907	5	184	0
125	0	0	1958	6	184	0
126	0	0	2010	5	184	0
127	0	0	2065	5	185	0
0	0	0	2102	5	185	0
1	0	0	2130	5	185	0
2	0	0	2108	4	184	0
3	0	0	2068	4	184	0
4	0	0	2031	4	185	0
5	0	0	1968	4	184	0
6	0	0	1937	5	183	0
7	0	0	1926	4	183	0
8	0	0	1894	4	185	0
9	0	0	1866	4	184	0
10	0	0	1875	3	183	0
11	0	0	1884	5	183	0
12	0	0	1872	4	184	0
13	0	0	1862	4	184	0
14	0	0	1870	4	184	0
15	0	0	1895	4	184	0
16	0	0	1922	5	185	0
17	0	0	1977	5	184	0
18	0	0	2058	5	185	0
19	0	0	2134	4	184	0
20	0	0	2160	4	183	0
21	0	0	2166	5	185	0
22	0	0	2160	5	185	0
23	0	0	2130	4	184	0
24	0	0	2069	4	183	0
25	0	0	1989	4	184	0
26	0	0	1947	4	184	0
27	0	0	1937	4	183	0
28	0	0	1946	5	187	0
29	0	0	1946	5	184	0
30	0	0	1899	4	183	0
31	0	0	1822	4	184	0
32	0	0	1788	3	183	0
33	0	0	1783	5	184	0
34	0	0	1809	5	185	0
35	0	0	1880	5	184	0
36	0	0	1959	5	183	0
37	0	0	2019	5	184	0
38	0	0	2077	4	183	0
39	0	0	2107	4	183	0
40	0	0	2131	4	184	0
41	0	0	2179	5	185	0
42	0	0	2209	5	185	0
43	0	0	2220	5	184	0
44	0	0	2178	4	184	0
45	0	0	2115	4	183	0
46	0	0	2020	4	183	0
47	0	0	1963	4	183	0
48	0	0	1928	3	184	0
49	0	0	1865	4	186	0
50	0	0	1829	4	184	0
51	0	0	1832	5	184	0
52	0	0	1867	5	185	0
53	0	0	1919	5	183	0
54	0	0	1956	5	184	0
55	0	0	1965	4	183	0
56	0	0	1958	5	183	0
57	0	0	1961	6	184	0
58	0	0	1982	5	185	0
59	0	0	2042	5	185	0
60	0	0	2125	5	184	0
61	0	0	2188	5	184	0
62	0	0	2234	5	184	0
63	0	0	2258	5	184	0
64	0	0	2241	4	186	0
65	0	0	2183	4	183	0
66	0	0	2110	4	183	0
67	0	0	2064	4	184	0
68	0	0	2019	5	184	0
69	0	0	1979	4	184	0
70	0	0	1949	4	184	0
71	0	0	1933	4	183	0
72	0	0	1926	4	183	0
73	0	0	1942	4	184	0
74	0	0	1975	5	185	0
75	0	0	2012	5	183	0
76	0	0	2055	5	185	0
77	0	0	2082	5	183	0
78	0	0	2109	5	185	0
79	0	0	2136	5	184	0
80	0	0	2171	5	186	0
81	0	0	2231	5	184	0
82	0	0	2272	5	185	0
83	0	0	2285	5	184	0
84	0	0	2296	5	184	0
85	0	0	2274	4	184	0
86	0	0	2240	4	184	0
87	0	0	2196	4	185	0
88	0	0	2129	4	183	0
89	0	0	2079	4	184	0
90	0	0	2050	4	183	0
91	0	0	2011	4	184	0
92	0	0	1974	5	185	0
93	0	0	1969	5	183	0
94	0	0	1987	5	184	0
95	0	0	2011	4	185	0
96	0	0	2063	5	185	0
97	0	0	2143	5	184	0
98	0	0	2219	5	185	0
99	0	0	2272	5	185	0
100	0	0	2308	5	184	0
101	0	0	2369	5	185	0
102	0	0	2381	5	184	0
103	0	0	2340	3	183	0
104	0	0	2321	5	184	0
105	0	0	2271	4	184	0
106	0	0	2232	4	183	0
107	0	0	2215	4	183	0
108	0	0	2181	4	184	0
109	0	0	2141	4	185	0
110	0	0	2113	4	184	0
111	0	0	2080	4	183	0
112	0	0	2041	4	185	0
113	0	0	2028	4	183	0
114	0	0	2063	5	185	0
115	0	0	2128	4	184	0
116	0	0	2177	5	184	0
117	0	0	2195	5	184	0
118	0	0	2201	4	183	0
119	0	0	2244	5	185	0
120	0	0	2308	5	184	0
121	0	0	2375	5	184	0
122	0	0	2406	5	185	0
123	0	0	2379	4	185	0
124	0	0	2322	4	186	0
125	0	0	2248	4	184	0
126	0	0	2185	4	184	0
127	0	0	2137	4	184	0
0	0	0	2081	4	184	0
1	0	0	2078	5	183	0
2	0	0	2090	4	184	0
3	0	0	2033	4	184	0
4	0	0	1970	4	183	0
5	0	0	1958	4	184	0
6	0	0	1994	4	184	0
7	0	0	2039	5	184	0
8	0	0	2086	5	183	0
9	0	0	2151	5	184	0
10	0	0	2187	4	184	0
11	0	0	2205	5	185	0
12	0	0	2218	5	183	0
13	0	0	2242	5	184	0
14	0	0	2255	5	184	0
15	0	0	2272	5	184	0
16	0	0	2281	4	184	0
17	0	0	2213	4	184	0
18	0	0	2112	4	184	0
19	0	0	2053	4	183	0
20	0	0	2045	4	184	0
21	0	0	2024	4	185	0
22	0	0	1971	4	184	0
23	0	0	1903	5	183	0
24	0	0	1871	4	184	0
25	0	0	1900	5	185	0
26	0	0	1951	5	183	0
27	0	0	1976	4	184	0
28	0	0	2008	5	184	0
29	0	0	2053	5	184	0
30	0	0	2104	5	184	0
31	0	0	2156	5	183	0
32	0	0	2175	5	185	0
33	0	0	2193	5	184	0
34	0	0	2211	5	185	0
35	0	0	2202	4	184	0
36	0	0	2167	4	183	0
37	0	0	2115	4	184	0
38	0	0	2052	5	184	0
39	0	0	1990	4	184	0
40	0	0	1931	4	184	0
41	0	0	1894	4	183	0
42	0	0	1843	4	184	0
43	0	0	1800	4	184	0
44	0	0	1832	5	183	0
45	0	0	1889	5	184	0
46	0	0	1931	5	182	0
47	0	0	1931	4	183	0
48	0	0	1922	4	184	0
49	0	0	1938	6	183	0
50	0	0	2008	5	185	0
51	0	0	2088	5	184	0
52	0	0	2137	5	184	0
53	0	0	2193	5	185	0
54	0	0	2231	5	183	0
55	0	0	2245	4	184	0
56	0	0	2219	4	185	0
57	0	0	2143	4	183	0
58	0	0	2043	4	184	0
59	0	0	1953	4	184	0
60	0	0	1884	4	184	0
61	0	0	1857	5	184	0
62	0	0	1832	4	184	0
63	0	0	1791	4	183	0
64	0	0	1777	4	185	0
65	0	0	1802	5	184	0
66	0	0	1857	5	183	0
67	0	0	1908	5	185	0
68	0	0	1954	7	184	0
69	0	0	2004	5	183	0
70	0	0	2051	5	184	0
71	0	0	2070	5	184	0
72	0	0	2089	5	185	0
73	0	0	2108	5	185	0
74	0	0	2110	4	183	0
75	0	0	2109	4	184	0
76	0	0	2064	4	184	0
77	0	0	2012	4	184	0
78	0	0	1975	4	183	0
79	0	0	1928	4	186	0
80	0	0	1882	4	184	0
81	0	0	1859	4	184	0
82	0	0	1846	4	184	0
83	0	0	1811	4	183	0
84	0	0	1798	4	184	0
85	0	0	1788	5	183	0
86	0	0	1831	5	184	0
87	0	0	1910	5	183	0
88	0	0	1985	5	183	0
89	0	0	2041	5	184	0
90	0	0	2057	5	184	0
91	0	0	2060	5	184	0
92	0	0	2091	5	185	0
93	0	0	2151	5	184	0
94	0	0	2158	5	185	0
95	0	0	2112	4	184	0
96	0	0	2043	4	183	0
97	0	0	1984	4	183	0
98	0	0	1960	5	184	0
99	0	0	1968	5	184	0
100	0	0	1989	4	184	0
101	0	0	1952	4	184	0
102	0	0	1915	4	183	0
103	0	0	1874	4	184	0
104	0	0	1841	4	185	0
105	0	0	1840	4	184	0
106	0	0	1856	5	184	0
107	0	0	1893	5	183	0
108	0	0	1956	5	183	0
109	0	0	2008	5	184	0
110	0	0	2044	5	183	0
111	0	0	2076	5	184	0
112	0	0	2119	5	184	0
113	0	0	2185	5	184	0
114	0	0	2216	5	184	0
115	0	0	2187	4	183	0
116	0	0	2119	3	184	0
117	0	0	2041	4	185	0
118	0	0	1989	4	184	0
119	0	0	1969	3	183	0
120	0	0	1957	4	183	0
121	0	0	1920	4	184	0
122	0	0	1880	4	182	0
123	0	0	1859	5	183	0
124	0	0	1889	5	183	0
125	0	0	1911	4	184	0
126	0	0	1890	4	184	0
127	0	0	1879	4	185	0
0	0	0	1882	5	184	0
1	0	0	1915	5	185	0
2	0	0	1935	5	185	0
3	0	0	1966	5	184	0
4	0	0	2036	5	184	0
5	0	0	2133	5	185	0
6	0	0	2186	5	183	0
7	0	0	2176	4	184	0
8	0	0	2125	4	186	0
9	0	0	2048	4	184	0
10	0	0	1989	4	184	0
11	0	0	1956	4	183	0
12	0	0	1928	4	184	0
13	0	0	1887	5	183	0
14	0	0	1867	4	183	0
15	0	0	1863	5	185	0
16	0	0	1875	4	185	0
17	0	0	1883	5	184	0
18	0	0	1880	5	184	0
19	0	0	1898	5	184	0
20	0	0	1957	5	185	0
21	0	0	2044	5	184	0
22	0	0	2124	5	184	0
23	0	0	2155	5	185	0
24	0	0	2155	5	185	0
25	0	0	2202	4	184	0
26	0	0	2216	5	185	0
27	0	0	2175	4	184	0
28	0	0	2139	4	183	0
29	0	0	2091	4	183	0
30	0	0	2042	4	183	0
31	0	0	1985	4	183	0
32	0	0	1947	4	184	0
33	0	0	1926	4	184	0
34	0	0	1919	4	185	0
35	0	0	1893	4	184	0
36	0	0	1879	4	182	0
37	0	0	1877	4	185	0
38	0	0	1881	4	184	0
39	0	0	1908	4	184	0
40	0	0	1955	5	184	0
41	0	0	2014	5	185	0
42	0	0	2071	5	183	0
43	0	0	2127	5	183	0
44	0	0	2163	5	185	0
45	0	0	2183	5	184	0
46	0	0	2181	4	184	0
47	0	0	2187	5	184	0
48	0	0	2190	4	183	0
49	0	0	2146	4	185	0
50	0	0	2081	4	183	0
51	0	0	2013	4	183	0
52	0	0	1964	4	184	0
53	0	0	1931	4	184	0
54	0	0	1916	4	184	0
55	0	0	1897	4	184	0
56	0	0	1888	5	184	0
57	0	0	1895	4	185	0
58	0	1	1916	5	185	0
59	0	1	1972	5	185	0
60	0	1	2038	5	183	0
61	0	1	2072	5	184	0
62	0	1	2073	5	184	0
63	0	1	2050	4	185	0
64	0	1	2032	5	184	0
65	0	1	2078	5	185	0
66	0	1	2131	5	184	0
67	0	1	2173	5	183	0
68	0	1	2191	5	183	0
69	0	1	2152	4	183	0
70	0	1	2107	4	185	0
71	0	1	2058	4	183	0
72	0	1	1977	4	185	0
73	0	1	1926	4	185	0
74	0	1	1930	4	183	0
75	0	1	1891	4	183	0
76	0	1	1859	5	184	0
77	0	1	1865	5	182	0
78	0	1	1909	5	184	0
79	0	1	1975	5	183	0
80	0	1	2020	5	183	0
81	0	1	2074	5	182	0
82	0	1	2123	5	184	0
83	0	1	2152	5	184	0
84	0	1	2172	5	185	0
85	0	1	2224	5	184	0
86	0	1	2248	4	185	0
87	0	1	2194	4	184	0
88	0	1	2108	4	184	0
89	0	1	2033	4	184	0
90	0	1	1981	4	183	0
91	0	1	1934	4	185	0
92	0	1	1921	4	183	0
93	0	1	1918	5	184	0
94	0	1	1923	5	182	0
95	0	1	1899	5	182	0
96	0	1	1876	5	184	0
97	0	1	1893	5	184	0
98	0	1	1932	5	184	0
99	0	1	1989	4	185	0
100	0	1	2058	5	183	0
101	0	1	2103	5	184	0
102	0	1	2119	5	184	0
103	0	1	2132	5	184	0
104	0	1	2150	5	183	0
105	0	1	2188	5	184	0
106	0	1	2203	5	185	0
107	0	1	2192	4	184	0
108	0	1	2157	4	185	0
109	0	1	2136	4	184	0
110	0	1	2123	5	184	0
111	0	1	2106	4	184	0
112	0	1	2080	4	183	0
113	0	1	2042	4	184	0
114	0	1	2010	4	183	0
115	0	1	1978	4	184	0
116	0	1	1980	5	184	0
117	0	1	1985	5	185	0
118	0	1	1991	5	185	0
119	0	1	2014	4	184	0
120	0	1	2037	5	184	0
121	0	1	2074	5	185	0
122	0	1	2106	5	185	0
123	0	1	2132	5	186	0
124	0	1	2161	5	185	0
125	0	1	2212	5	184	0
126	0	1	2242	5	185	0
127	0	1	2252	5	184	0
0	0	1	2223	4	183	0
1	0	1	2145	4	184	0
2	0	1	2061	4	183	0
3	0	1	2009	3	183	0
4	0	1	1960	4	184	0
5	0	1	1903	4	184	0
6	0	1	1855	4	184	0
7	0	1	1862	5	183	0
8	0	1	1914	5	184	0
9	0	1	1965	5	185	0
10	0	1	2007	4	184	0
11	0	1	2042	5	184	0
12	0	1	2056	5	184	0
13	0	1	2088	5	184	0
14	0	1	2149	5	184	0
15	0	1	2200	5	184	0
16	0	1	2231	5	184	0
17	0	1	2273	4	185	0
18	0	1	2307	5	184	0
19	0	1	2308	5	184	0
20	0	1	2282	4	184	0
21	0	1	2220	4	184	0
22	0	1	2115	4	183	0
23	0	1	2026	4	184	0
24	0	1	1962	4	184	0
25	0	1	1899	4	184	0
26	0	1	1871	4	183	0
27	1	1	1869	5	184	0
28	1	1	1902	5	183	0
29	1	1	1962	5	184	0
30	1	1	2013	5	185	0
31	1	1	2066	5	183	0
32	1	1	2091	5	184	0
33	1	1	2101	5	184	0
34	1	1	2106	5	183	0
35	1	1	2120	5	183	0
36	1	1	2140	5	183	0
37	1	1	2192	5	184	0
38	1	1	2235	4	185	0
39	1	1	2262	5	184	0
40	1	1	2262	4	184	0
41	1	1	2215	4	184	0
42	1	1	2140	4	184	0
43	1	1	2078	4	185	0
44	1	1	2043	4	184	0
45	1	1	2034	5	184	0
46	1	1	2023	4	184	0
47	1	1	1989	4	183	0
48	1	1	1961	3	184	0
49	1	1	1945	4	183	0
50	1	1	1951	5	185	0
51	1	1	1996	5	183	0
52	1	1	2046	5	185	0
53	1	1	2084	4	184	0
54	1	1	2120	5	184	0
55	1	1	2134	5	184	0
56	1	1	2156	5	184	0
57	1	1	2217	5	185	0
58	1	1	2245	5	184	0
59	1	1	2214	4	185	0
60	1	1	2159	4	184	0
61	1	1	2141	4	184	0
62	1	1	2109	4	183	0
63	1	1	2038	4	184	0
64	1	1	1968	4	183	0
65	1	1	1943	4	184	0
66	1	1	1932	4	184	0
67	1	1	1914	4	183	0
68	1	1	1919	5	184	0
69	1	1	1961	5	183	0
70	1	1	2012	4	184	0
71	1	1	2021	4	183	0
72	1	1	2014	5	185	0
73	1	1	2025	5	183	0
74	1	1	2062	5	184	0
75	1	1	2125	5	184	0
76	1	1	2194	5	184	0
77	1	1	2280	5	184	0
78	1	1	2327	5	183	0
79	1	1	2294	4	185	0
80	1	1	2260	4	184	0
81	1	1	2240	4	183	0
82	1	1	2186	4	184	0
83	1	1	2115	4	183	0
84	1	1	2051	4	185	0
85	1	1	2012	4	185	0
86	1	1	1997	4	183	0
87	1	1	1978	4	183	0
88	1	1	1979	5	185	0
89	1	1	1988	5	183	0
90	1	1	2009	5	184	0
91	1	1	2066	5	183	0
92	1	1	2114	5	185	0
93	1	1	2103	4	185	0
94	1	1	2125	4	185	0
95	1	1	2182	5	183	0
96	1	1	2242	5	184	0
97	1	1	2303	5	183	0
98	1	1	2336	4	185	0
99	1	1	2324	5	184	0
100	1	1	2307	4	185	0
101	1	1	2293	4	183	0
102	1	1	2236	4	184	0
103	1	1	2136	4	184	0
104	1	1	2045	4	183	0
105	1	1	1964	4	183	0
106	1	1	1896	4	184	0
107	1	1	1835	4	184	0
108	1	1	1813	4	184	0
109	1	1	1839	5	185	0
110	1	1	1889	5	184	0
111	1	1	1906	5	183	0
112	1	1	1915	5	184	0
113	1	1	1933	5	185	0
114	1	1	1982	5	184	0
115	1	1	2064	5	185	0
116	1	1	2160	5	184	0
117	1	1	2264	5	185	0
118	1	1	2312	5	184	0
119	1	1	2301	4	183	0
120	1	1	2251	4	185	0
121	1	1	2199	4	185	0
122	1	1	2164	4	184	0
123	1	1	2131	4	185	0
124	1	1	2081	4	184	0
125	1	1	2031	4	184	0
126	1	1	1986	4	183	0
127	1	1	1921	4	185	0
0	1	1	1879	3	184	0
1	1	1	1899	5	183	0
2	1	1	1946	5	183	0
3	1	1	1990	5	182	0
4	1	1	2034	5	184	0
5	1	1	2082	4	185	0
6	1	1	2144	5	185	0
7	1	1	2207	5	183	0
8	1	1	2224	5	185	0
9	1	1	2259	5	184	0
10	1	1	2277	5	184	0
11	1	1	2262	5	184	0
12	1	1	2253	5	183	0
13	1	1	2224	4	183	0
14	1	1	2185	4	184	0
15	1	1	2148	4	184	0
16	1	1	2097	4	184	0
17	1	1	2034	4	185	0
18	1	1	1972	4	183	0
19	1	1	1911	4	183	0
20	1	1	1881	4	184	0
21	1	1	1896	5	184	0
22	1	1	1953	5	184	0
23	1	1	2030	5	183	0
24	1	1	2060	5	184	0
25	1	1	2078	5	184	0
26	1	1	2099	5	183	0
27	1	1	2123	4	184	0
28	1	1	2181	5	184	0
29	1	1	2295	5	183	0
30	1	1	2345	5	184	0
31	1	1	2301	4	183	0
32	1	1	2273	4	184	0
33	1	1	2246	4	184	0
34	1	1	2206	4	183	0
35	1	1	2169	4	184	0
36	1	1	2110	4	184	0
37	1	1	2037	4	184	0
38	1	1	1980	4	182	0
39	1	1	1936	4	184	0
40	1	1	1938	5	184	0
41	1	1	1954	4	184	0
42	1	1	1978	5	183	0
43	1	1	2021	5	183	0
44	1	1	2076	5	185	0
45	1	1	2124	4	184	0
46	1	1	2151	5	186	0
47	1	1	2194	5	184	0
48	1	1	2254	5	184	0
49	1	1	2317	5	184	0
50	1	1	2343	5	184	0
51	1	1	2320	4	185	0
52	1	1	2263	4	184	0
53	1	1	2202	4	184	0
54	1	1	2163	4	184	0
55	1	1	2130	4	185	0
56	1	1	2097	4	183	0
57	1	1	2061	4	184	0
58	1	1	2054	5	184	0
59	1	1	2048	5	184	0
60	1	1	2033	4	183	0
61	1	1	1999	3	184	0
62	1	1	1984	5	184	0
63	1	1	1999	4	181	0
64	1	1	2016	5	184	0
65	1	1	2055	5	183	0
66	1	1	2119	4	185	0
67	1	1	2199	5	184	0
68	1	1	2252	5	184	0
69	1	1	2278	5	184	0
70	1	1	2282	5	185	0
71	1	1	2272	5	184	0
72	1	1	2265	4	184	0
73	1	1	2234	4	184	0
74	1	1	2159	4	185	0
75	1	1	2073	4	183	0
76	1	1	2018	3	184	0
77	1	1	1989	4	183	0
78	1	1	1968	3	184	0
79	1	1	1941	4	184	0
80	1	1	1931	4	183	0
81	1	1	1953	4	183	0
82	1	1	1973	5	184	0
83	1	1	1987	5	184	0
84	1	1	2016	5	184	0
85	1	1	2068	5	184	0
86	1	1	2130	4	185	0
87	1	1	2181	5	183	0
88	1	1	2207	5	184	0
89	1	1	2209	5	184	0
90	1	1	2196	5	184	0
91	1	1	2198	6	184	0
92	1	1	2199	5	184	0
93	1	1	2177	4	184	0
94	1	1	2135	4	185	0
95	1	1	2089	4	183	0
96	1	1	2028	4	183	0
97	1	1	1947	4	184	0
98	1	1	1900	4	185	0
99	1	1	1886	4	184	0
100	1	1	1876	4	184	0
101	1	1	1893	4	185	0
102	1	1	1953	5	184	0
103	1	1	2036	5	184	0
104	1	1	2098	5	185	0
105	1	1	2146	5	185	0
106	1	1	2165	4	185	0
107	1	1	2179	4	183	0
108	1	1	2173	5	184	0
109	1	1	2186	5	185	0
110	1	1	2209	5	185	0
111	1	1	2224	5	185	0
112	1	1	2232	5	183	0
113	1	1	2210	4	185	0
114	1	1	2181	4	183	0
115	1	1	2131	4	183	0
116	1	1	2056	4	185	0
117	1	1	1993	4	183	0
118	1	1	1952	4	184	0
119	1	1	1899	4	183	0
120	1	1	1847	4	184	0
121	1	1	1840	4	184	0
122	1	1	1854	5	184	0
123	1	1	1909	5	184	0
124	1	1	2002	5	184	0
125	1	1	2094	5	184	0
126	1	1	2153	5	185	0
127	1	1	2201	5	183	0
0	1	1	2247	5	184	0
1	1	1	2268	6	185	0
2	1	1	2222	4	184	0
3	1	1	2178	5	184	0
4	1	1	2164	5	183	0
5	1	1	2164	5	185	0
6	1	1	2134	3	185	0
7	1	1	2103	4	184	0
8	1	1	2072	4	185	0
9	1	1	2027	4	184	0
10	1	1	1986	4	183	0
11	1	1	1936	4	185	0
12	1	1	1891	4	184	0
13	1	1	1856	4	184	0
14	1	1	1871	5	184	0
15	1	1	1950	5	184	0
16	1	1	2033	6	183	0
17	1	1	2083	5	183	0
18	1	1	2124	4	185	0
19	1	1	2174	5	184	0
20	1	1	2204	5	184	0
21	1	1	2259	5	183	0
22	1	1	2271	5	183	0
23	1	1	2274	6	183	0
24	1	1	2301	5	184	0
25	1	1	2300	4	184	0
26	1	1	2238	4	184	0
27	1	1	2162	4	184	0
28	1	1	2102	3	184	0
29	1	1	2065	4	184	0
30	1	1	2061	5	185	0
31	1	1	2046	5	184	0
32	1	1	2025	4	183	0
33	1	1	2040	5	183	0
34	1	1	2089	5	184	0
35	1	1	2143	5	184	0
36	1	1	2201	5	183	0
37	1	1	2267	5	187	0
38	1	1	2338	5	185	0
39	1	1	2364	5	184	0
40	1	1	2347	5	185	0
41	1	1	2395	5	185	0
42	1	1	2445	5	186	0
43	1	1	2437	5	186	0
44	1	1	2394	4	185	0
45	1	1	2372	5	184	0
46	1	1	2365	5	184	0
47	1	1	2353	4	183	0
48	1	1	2325	4	184	0
49	1	1	2294	4	184	0
50	1	1	2277	5	184	0
51	1	1	2252	4	183	0
52	1	1	2236	4	185	0
53	1	1	2242	5	186	0
54	1	1	2290	5	184	0
55	1	1	2358	5	185	0
56	1	1	2392	5	184	0
57	1	1	2385	4	184	0
58	1	1	2365	5	184	0
59	1	1	2400	5	185	0
60	1	1	2467	5	184	0
61	1	1	2544	5	185	0
62	1	1	2594	5	184	0
63	1	1	2577	5	184	0
64	1	1	2520	4	184	0
65	1	1	2473	4	183	0
66	1	1	2418	4	184	0
67	1	1	2326	5	185	0
68	1	1	2249	5	184	0
69	1	1	2203	4	183	0
70	1	1	2177	4	183	0
71	1	1	2127	4	184	0
72	1	1	2096	5	183	0
73	1	1	2098	5	184	0
74	1	1	2103	5	183	0
75	1	1	2114	5	183	0
76	1	1	2109	5	185	0
77	1	1	2112	5	183	0
78	1	1	2137	5	183	0
79	1	1	2160	4	184	0
80	1	1	2185	5	185	0
81	1	1	2244	5	185	0
82	1	1	2299	5	185	0
83	1	1	2315	5	184	0
84	1	1	2282	3	184	0
85	1	1	2226	4	184	0
86	1	1	2151	4	184	0
87	1	1	2095	4	183	0
88	1	1	2050	4	184	0
89	1	1	2016	4	184	0
90	1	1	1997	4	184	0
91	1	1	1967	4	185	0
92	1	1	1983	5	184	0
93	1	1	2006	5	184	0
94	1	1	2015	5	184	0
95	1	1	2004	4	184	0
96	1	1	1982	4	185	0
97	1	1	1991	6	184	0
98	1	1	2049	5	184	0
99	1	1	2147	4	184	0
100	1	1	2231	5	185	0
101	1	1	2300	5	185	0
102	1	1	2348	5	185	0
103	1	1	2356	5	184	0
104	1	1	2314	4	184	0
105	1	1	2247	4	184	0
106	1	1	2193	4	185	0
107	1	1	2173	4	183	0
108	1	1	2147	4	183	0
109	1	1	2133	4	183	0
110	1	1	2095	4	184	0
111	1	1	2015	4	183	0
112	1	1	1957	4	184	0
113	1	1	1952	5	183	0
114	1	1	1976	5	183	0
115	1	1	2014	4	184	0
116	1	1	2072	5	184	0
117	1	1	2142	5	184	0
118	1	1	2185	5	184	0
119	1	1	2186	5	183	0
120	1	1	2197	5	184	0
121	1	1	2252	5	184	0
122	1	1	2292	5	184	0
123	1	1	2314	4	184	0
124	1	1	2350	5	184	0
125	1	1	2354	4	184	0
126	1	1	2307	4	184	0
127	1	1	2253	4	183	0
0	1	1	2204	4	183	0
1	1	1	2144	3	183	0
2	1	1	2076	4	184	0
3	1	1	2034	4	184	0
4	1	1	2018	4	184	0
5	1	1	1993	4	184	0
6	1	1	1983	4	184	0
7	1	1	2029	5	183	0
8	1	1	2097	5	184	0
9	1	1	2166	5	184	0
10	1	1	2215	5	184	0
11	1	1	2232	5	184	0
12	1	1	2234	5	184	0
13	1	1	2261	5	185	0
14	1	1	2309	5	184	0
15	1	1	2324	5	184	0
16	1	1	2276	4	184	0
17	1	1	2229	4	184	0
18	1	1	2221	5	183	0
19	1	1	2210	5	183	0
20	1	1	2192	5	182	0
21	1	1	2170	4	184	0
22	1	1	2164	5	184	0
23	1	1	2143	4	184	0
24	1	1	2147	5	183	0
25	1	1	2139	5	185	0
26	1	1	2108	4	184	0
27	1	1	2112	5	184	0
28	1	1	2178	5	183	0
29	1	1	2249	5	183	0
30	1	1	2323	6	183	0
31	1	1	2402	5	185	0
32	1	1	2445	5	183	0
33	1	1	2464	5	183	0
34	1	1	2415	4	183	0
35	1	1	2317	4	183	0
36	1	1	2228	4	183	0
37	1	1	2137	4	185	0
38	1	1	2078	4	184	0
39	1	1	2082	3	184	0
40	1	1	2090	6	184	0
41	1	1	2080	5	183	0
42	1	1	2079	5	184	0
43	1	1	2077	5	185	0
44	1	1	2091	5	183	0
45	1	1	2128	5	183	0
46	1	1	2150	5	185	0
47	1	1	2168	5	184	0
48	1	1	2189	5	184	0
49	1	1	2197	5	184	0
50	1	1	2217	5	184	0
51	1	1	2241	5	183	0
52	1	1	2290	5	184	0
53	1	1	2352	4	184	0
54	1	1	2397	3	185	0
55	1	1	2427	6	184	0
56	1	1	2449	4	185	0
57	1	1	2436	4	184	0
58	1	1	2409	4	184	0
59	1	1	2380	4	184	0
60	1	1	2306	3	184	0
61	1	1	2212	4	184	0
62	1	1	2120	4	184	0
63	1	1	2025	4	185	0
64	1	1	1968	4	184	0
65	1	1	1975	4	184	0
66	1	1	2022	5	184	0
67	1	1	2085	5	184	0
68	1	1	2136	5	184	0
69	1	1	2200	5	185	0
70	1	1	2264	5	185	0
71	1	1	2332	6	184	0
72	1	1	2387	5	184	0
73	1	1	2451	5	184	0
74	1	1	2467	5	184	0
75	1	1	2415	5	184	0
76	1	1	2388	5	184	0
77	1	1	2395	6	183	0
78	1	1	2354	4	184	0
79	1	1	2283	4	184	0
80	1	1	2197	4	183	0
81	1	1	2127	4	184	0
82	1	1	2100	4	184	0
83	1	1	2088	5	184	0
84	1	1	2095	6	183	0
85	1	1	2101	5	184	0
86	1	1	2096	5	183	0
87	1	1	2100	5	184	0
88	1	1	2131	5	184	0
89	1	1	2194	5	185	0
90	1	1	2295	4	184	0
91	1	1	2381	5	185	0
92	1	1	2432	5	184	0
93	1	1	2482	5	184	0
94	1	1	2505	5	184	0
95	1	1	2506	4	185	0
96	1	1	2501	4	184	0
97	1	1	2462	4	184	0
98	1	1	2392	4	185	0
99	1	1	2322	4	183	0
100	1	1	2272	4	183	0
101	1	1	2232	4	184	0
102	1	1	2207	4	183	0
103	1	1	2183	4	184	0
104	1	1	2173	6	183	0
105	1	1	2185	5	183	0
106	1	1	2208	5	185	0
107	1	1	2229	5	184	0
108	1	1	2254	5	183	0
109	1	1	2293	5	183	0
110	1	1	2357	3	183	0
111	1	1	2436	5	183	0
112	1	1	2504	5	184	0
113	1	1	2571	5	184	0
114	1	1	2616	5	183	0
115	1	1	2583	4	184	0
116	1	1	2514	4	184	0
117	1	1	2477	4	184	0
118	1	1	2422	4	183	0
119	1	1	2366	4	185	0
120	1	1	2311	5	184	0
121	1	1	2247	4	185	0
122	1	1	2184	4	184	0
123	1	1	2141	5	184	0
124	1	1	2152	5	183	0
125	1	1	2149	5	184	0
126	1	1	2150	5	184	0
127	1	1	2182	5	183	0
0	1	1	2248	5	185	0
1	1	1	2321	5	183	0
2	1	1	2374	5	183	0
3	1	1	2423	5	184	0
4	1	1	2471	5	184	0
5	1	1	2514	5	184	0
6	1	1	2529	5	184	0
7	1	1	2512	5	184	0
8	1	1	2513	5	183	0
9	1	1	2497	4	184	0
10	1	1	2395	4	184	0
11	1	1	2261	4	183	0
12	1	1	2175	4	185	0
13	1	1	2145	4	184	0
14	1	1	2129	4	183	0
15	1	1	2084	4	185	0
16	1	1	2054	4	184	0
17	1	1	2034	4	183	0
18	1	1	2043	5	184	0
19	1	1	2079	5	183	0
20	1	1	2111	4	183	0
21	1	1	2167	5	183	0
22	1	1	2247	5	184	0
23	1	1	2318	4	184	0
24	1	1	2366	5	184	0
25	1	1	2417	5	185	0
26	1	1	2436	5	184	0
27	1	1	2392	5	184	0
28	1	1	2328	4	184	0
29	1	1	2268	4	184	0
30	1	1	2227	4	183	0
31	1	1	2171	4	185	0
32	1	1	2135	4	184	0
33	1	1	2110	3	183	0
34	1	1	2081	4	185	0
35	1	1	2039	4	183	0
36	1	1	2015	4	183	0
37	1	1	2025	5	184	0
38	1	1	2039	5	185	0
39	1	1	2052	4	184	0
40	1	1	2080	4	185	0
41	1	1	2102	5	184	0
42	1	1	2124	5	184	0
43	1	0	2178	5	183	0
44	1	0	2240	5	184	0
45	1	0	2309	4	184	0
46	1	0	2345	5	184	0
47	1	0	2350	5	185	0
48	1	0	2317	4	185	0
49	1	0	2259	4	184	0
50	1	0	2203	4	183	0
51	1	0	2135	4	183	0
52	1	0	2062	4	184	0
53	1	0	1994	4	184	0
54	1	0	1945	4	183	0
55	1	0	1909	4	182	0
56	1	0	1888	4	185	0
57	1	0	1892	5	183	0
58	1	0	1953	5	185	0
59	1	0	2044	5	183	0
60	1	0	2117	4	183	0
61	1	0	2180	5	186	0
62	1	0	2251	5	185	0
63	1	0	2294	5	184	0
64	1	0	2251	4	185	0
65	1	0	2207	4	184	0
66	1	0	2195	5	184	0
67	1	0	2196	5	184	0
68	1	0	2168	4	185	0
69	1	0	2127	4	184	0
70	1	0	2101	4	184	0
71	1	0	2069	4	184	0
72	1	0	2023	4	185	0
73	1	0	1983	4	185	0
74	1	0	1962	4	183	0
75	1	0	1928	4	182	0
76	1	0	1903	5	184	0
77	1	0	1902	5	184	0
78	1	0	1889	4	184	0
79	1	0	1884	4	184	0
80	1	0	1915	4	184	0
81	1	0	1965	5	184	0
82	1	0	2065	5	183	0
83	1	0	2193	4	185	0
84	1	0	2265	4	185	0
85	1	0	2305	4	184	0
86	1	0	2340	5	185	0
87	1	0	2365	5	184	0
88	1	0	2359	5	184	0
89	1	0	2281	4	183	0
90	1	0	2169	5	185	0
91	1	0	2081	4	184	0
92	1	0	2040	5	183	0
93	1	0	2008	4	184	0
94	1	0	1950	4	183	0
95	1	0	1926	4	184	0
96	1	0	1959	6	184	0
97	1	0	1968	5	184	0
98	1	0	1939	4	185	0
99	1	0	1937	5	184	0
100	1	0	1977	5	183	0
101	1	0	2012	5	183	0
102	1	0	2048	6	185	0
103	1	0	2103	5	185	0
104	1	0	2172	5	184	0
105	1	0	2244	5	185	0
106	1	0	2267	5	184	0
107	1	0	2254	4	184	0
108	1	0	2229	4	183	0
109	1	0	2193	4	183	0
110	1	0	2139	3	184	0
111	1	0	2080	5	184	0
112	1	0	2037	4	183	0
113	1	0	2027	5	183	0
114	1	0	2016	4	185	0
115	1	0	1986	4	183	0
116	1	0	1966	4	184	0
117	1	0	1955	5	183	0
118	1	0	1953	5	183	0
119	1	0	1980	5	183	0
120	1	0	2053	5	183	0
121	1	0	2121	5	184	0
122	1	0	2166	5	183	0
123	1	0	2154	4	183	0
124	1	0	2125	4	184	0
125	1	0	2143	4	185	0
126	1	0	2177	6	184	0
127	1	0	2200	5	184	0
0	1	0	2237	5	184	0
1	1	0	2252	5	183	0
2	1	0	2210	4	183	0
3	1	0	2128	4	184	0
4	1	0	2060	4	183	0
5	1	0	2032	4	184	0
6	1	0	2014	4	184	0
7	1	0	1983	4	184	0
8	1	0	1967	5	183	0
9	1	0	1964	6	184	0
10	1	0	1973	5	185	0
11	1	0	1989	5	183	0
12	1	0	2005	5	185	0
13	1	0	2051	5	184	0
14	1	0	2135	4	184	0
15	1	0	2220	4	184	0
16	1	0	2275	5	185	0
17	1	0	2311	5	184	0
18	1	0	2336	5	184	0
19	1	0	2304	4	185	0
20	1	0	2254	4	184	0
21	1	0	2226	4	183	0
22	1	0	2188	4	184	0
23	1	0	2133	4	183	0
24	1	0	2101	5	184	0
25	1	0	2078	4	184	0
26	1	0	2061	4	184	0
27	1	0	2016	4	185	0
28	1	0	1959	4	183	0
29	1	0	1927	4	183	0
30	1	0	1934	5	184	0
31	1	0	1951	5	184	0
32	1	0	1970	4	184	0
33	1	0	2028	5	184	0
34	1	0	2086	6	184	0
35	1	0	2127	5	185	0
36	1	0	2164	5	185	0
37	1	0	2242	5	184	0
38	0	0	2336	5	184	0
39	0	0	2373	6	184	0
40	0	0	2353	5	184	0
41	0	0	2323	4	185	0
42	0	0	2266	4	184	0
43	0	0	2197	4	184	0
44	0	0	2140	5	183	0
45	0	0	2079	3	185	0
46	0	0	2010	4	184	0
47	0	0	1926	4	183	0
48	0	0	1866	4	184	0
49	0	0	1852	6	183	0
50	0	0	1895	6	184	0
51	0	0	1960	5	183	0
52	0	0	2012	4	183	0
53	0	0	2079	5	184	0
54	0	0	2148	5	184	0
55	0	0	2190	5	185	0
56	0	0	2212	5	185	0
57	0	0	2247	5	184	0
58	0	0	2271	5	185	0
59	0	0	2282	4	184	0
60	0	0	2275	5	185	0
61	0	0	2254	4	183	0
62	0	0	2180	4	183	0
63	0	0	2116	4	184	0
64	0	0	2080	4	183	0
65	0	0	2036	4	184	0
66	0	0	1994	4	183	0
67	0	0	1969	4	184	0
68	0	0	1977	5	184	0
69	0	0	1962	4	184	0
70	0	0	1943	4	184	0
71	0	0	1961	6	185	0
72	0	0	2026	3	183	0
73	0	0	2083	5	184	0
74	0	0	2104	5	183	0
75	0	0	2119	6	185	0
76	0	0	2168	5	185	0
77	0	0	2269	5	185	0
78	0	0	2345	5	184	0
79	0	0	2365	5	184	0
80	0	0	2352	5	184	0
81	0	0	2325	4	185	0
82	0	0	2274	4	185	0
83	0	0	2186	4	184	0
84	0	0	2076	4	184	0
85	0	0	1995	5	185	0
86	0	0	1956	4	184	0
87	0	0	1959	5	184	0
88	0	0	1979	6	185	0
89	0	0	1981	5	184	0
90	0	0	1952	5	184	0
91	0	0	1966	5	184	0
92	0	0	2024	5	184	0
93	0	0	2092	5	183	0
94	0	0	2151	5	185	0
95	0	0	2227	6	184	0
96	0	0	2292	5	183	0
97	0	0	2349	5	184	0
98	0	0	2384	6	184	0
99	0	0	2369	4	182	0
100	0	0	2298	5	184	0
101	0	0	2225	4	183	0
102	0	0	2172	4	185	0
103	0	0	2145	4	183	0
104	0	0	2108	4	184	0
105	0	0	2057	3	185	0
106	0	0	2006	4	184	0
107	0	0	1947	3	183	0
108	0	0	1902	4	183	0
109	0	0	1915	4	183	0
110	0	0	1943	5	184	0
111	0	0	1975	5	185	0
112	0	0	2046	5	184	0
113	0	0	2137	5	184	0
114	0	0	2196	5	185	0
115	0	0	2228	4	184	0
116	0	0	2245	5	185	0
117	0	0	2270	4	185	0
118	0	0	2286	5	184	0
119	0	0	2292	5	185	0
120	0	0	2267	4	185	0
121	0	0	2249	4	183	0
122	0	0	2208	4	184	0
123	0	0	2153	4	184	0
124	0	0	2101	4	184	0
125	0	0	2062	4	184	0
126	0	0	1998	4	184	0
127	0	0	1922	4	183	0
0	0	0	1867	4	183	0
1	0	0	1852	5	184	0
2	0	0	1887	4	184	0
3	0	0	1966	5	184	0
4	0	0	2033	5	185	0
5	0	0	2061	5	182	0
6	0	0	2103	5	184	0
7	0	0	2162	5	184	0
8	0	0	2240	5	184	0
9	0	0	2330	5	184	0
10	0	0	2360	5	184	0
11	0	0	2347	5	183	0
12	0	0	2326	4	184	0
13	0	0	2286	4	183	0
14	0	0	2227	4	183	0
15	0	0	2166	5	183	0
16	0	0	2114	4	183	0
17	0	0	2067	3	184	0
18	0	0	2011	4	184	0
19	0	0	1963	4	184	0
20	0	0	1937	4	184	0
21	0	0	1973	6	184	0
22	0	0	2051	5	185	0
23	0	0	2091	5	185	0
24	0	0	2095	5	183	0
25	0	0	2078	4	184	0
26	0	0	2082	5	184	0
27	0	0	2134	4	185	0
28	0	0	2184	4	184	0
29	0	0	2232	5	184	0
30	0	0	2271	5	185	0
31	0	0	2291	5	183	0
32	0	0	2292	5	185	0
33	0	0	2264	4	184	0
34	0	0	2199	5	184	0
35	0	0	2141	4	184	0
36	0	0	2091	4	185	0
37	0	0	2052	4	183	0
38	0	0	2020	4	183	0
39	0	0	1992	4	184	0
40	0	0	1996	4	184	0
41	0	0	1970	4	184	0
42	0	0	1941	4	184	0
43	0	0	1982	5	184	0
44	0	0	2054	5	185	0
45	0	0	2104	4	184	0
46	0	0	2154	5	184	0
47	0	0	2209	5	184	0
48	0	0	2246	5	185	0
49	0	0	2257	5	182	0
50	0	0	2274	5	183	0
51	0	0	2302	5	184	0
52	0	0	2308	4	184	0
53	0	0	2276	3	183	0
54	0	0	2223	4	183	0
55	0	0	2150	4	184	0
56	0	0	2070	4	185	0
57	0	0	2014	4	184	0
58	0	0	1983	4	182	0
59	0	0	1975	5	183	0
60	0	0	1999	5	184	0
61	0	0	2062	5	184	0
62	0	0	2109	4	184	0
63	0	0	2094	4	185	0
64	0	0	2042	4	184	0
65	0	0	2025	4	184	0
66	0	0	2038	5	185	0
67	0	0	2098	4	184	0
68	0	0	2176	4	183	0
69	0	0	2254	5	183	0
70	0	0	2292	4	184	0
71	0	0	2314	5	184	0
72	0	0	2304	4	184	0
73	0	0	2248	4	185	0
74	0	0	2185	4	183	0
75	0	0	2145	4	183	0
76	0	0	2136	4	183	0
77	0	0	2094	4	183	0
78	0	0	2032	4	184	0
79	0	0	1959	4	184	0
80	0	0	1894	4	184	0
81	0	0	1891	5	183	0
82	0	0	1922	4	184	0
83	0	0	1965	5	183	0
84	0	0	2002	5	184	0
85	0	0	2043	5	185	0
86	0	0	2129	5	184	0
87	0	0	2241	5	184	0
88	0	0	2316	5	185	0
89	0	0	2371	4	183	0
90	0	0	2442	4	183	0
91	0	0	2474	5	183	0
92	0	0	2422	3	184	0
93	0	0	2326	4	184	0
94	0	0	2222	4	185	0
95	0	0	2142	4	184	0
96	0	0	2064	4	183	0
97	0	0	1993	4	184	0
98	0	0	1936	4	183	0
99	0	0	1877	4	184	0
100	0	0	1844	4	183	0
101	0	0	1847	5	184	0
102	0	0	1875	3	184	0
103	0	0	1917	4	185	0
104	0	0	1996	5	184	0
105	0	0	2075	4	183	0
106	0	0	2115	5	183	0
107	0	0	2162	4	184	0
108	0	0	2206	5	185	0
109	0	0	2276	5	184	0
110	0	0	2359	5	185	0
111	0	0	2391	5	185	0
112	0	0	2352	4	184	0
113	0	0	2290	4	184	0
114	0	0	2216	4	184	0
115	0	0	2140	3	185	0
116	0	0	2069	4	184	0
117	0	0	2005	4	184	0
118	0	0	1945	3	185	0
119	0	0	1882	4	184	0
120	0	0	1838	4	184	0
121	0	0	1880	5	184	0
122	0	0	1967	4	183	0
123	0	0	2045	5	185	0
124	0	0	2098	5	183	0
125	0	0	2145	4	185	0
126	0	0	2191	5	182	0
127	0	0	2229	3	185	0
0	0	0	2257	5	184	0
1	0	0	2290	5	185	0
2	0	0	2311	5	185	0
3	0	0	2315	4	183	0
4	0	0	2299	4	185	0
5	0	0	2277	4	185	0
6	0	0	2246	4	184	0
7	0	0	2200	4	184	0
8	0	0	2143	4	184	0
9	0	0	2087	3	184	0
10	0	0	2029	4	183	0
11	0	0	1970	4	183	0
12	0	0	1940	5	182	0
13	0	0	1956	5	184	0
14	0	0	1963	3	184	0
15	0	0	1949	5	184	0
16	0	0	1948	5	184	0
17	0	0	2010	5	184	0
18	0	0	2121	5	184	0
19	0	0	2212	4	185	0
20	0	0	2253	5	183	0
21	0	0	2298	5	184	0
22	0	0	2366	5	184	0
23	0	0	2395	5	185	0
24	0	0	2359	5	183	0
25	0	0	2312	3	184	0
26	0	0	2259	5	185	0
27	0	0	2210	4	184	0
28	0	0	2134	4	183	0
29	0	0	2059	4	183	0
30	0	0	2019	4	184	0
31	0	0	1973	4	183	0
32	0	0	1945	5	183	0
33	0	0	1956	5	183	0
34	0	0	1982	4	184	0
35	0	0	2014	5	184	0
36	0	0	2059	5	185	0
37	0	0	2106	5	185	0
38	0	0	2163	5	184	0
39	0	0	2208	5	184	0
40	0	0	2231	5	184	0
41	0	0	2275	4	184	0
42	0	0	2315	5	185	0
43	0	0	2323	5	183	0
44	0	0	2300	4	184	0
45	0	0	2259	4	185	0
46	0	0	2203	4	183	0
47	0	0	2157	4	183	0
48	0	0	2143	5	184	0
49	0	0	2129	3	183	0
50	0	0	2075	4	184	0
51	0	0	1995	5	184	0
52	0	0	1944	4	184	0
53	0	0	1940	5	183	0
54	0	0	1977	4	184	0
55	0	0	1995	5	183	0
56	0	0	2027	5	184	0
57	0	0	2078	5	185	0
58	0	0	2140	5	183	0
59	0	0	2195	4	184	0
60	0	0	2235	5	184	0
61	0	0	2297	5	184	0
62	0	0	2358	5	183	0
63	0	0	2353	4	184	0
64	0	0	2315	4	184	0
65	0	0	2264	4	184	0
66	0	0	2191	3	182	0
67	0	0	2107	4	185	0
68	0	0	2048	4	184	0
69	0	0	2038	4	184	0
70	0	0	2026	4	184	0
71	0	0	2000	4	184	0
72	0	0	1989	4	183	0
73	0	0	1998	5	185	0
74	0	0	2020	5	184	0
75	0	0	2034	5	184	0
76	0	0	2054	6	183	0
77	0	0	2106	5	184	0
78	0	0	2159	5	184	0
79	0	0	2166	5	184	0
80	0	0	2152	5	183	0
81	0	0	2194	5	185	0
82	0	0	2252	5	184	0
83	0	0	2292	5	183	0
84	0	0	2289	5	184	0
85	0	0	2248	4	183	0
86	0	0	2192	4	184	0
87	0	0	2144	4	184	0
88	0	0	2100	4	183	0
89	0	0	2076	4	185	0
90	0	0	2028	4	185	0
91	0	0	1975	4	183	0
92	0	0	1956	5	183	0
93	0	0	1971	5	184	0
94	0	0	1994	5	184	0
95	0	0	2018	5	184	0
96	0	0	2072	5	183	0
97	0	0	2121	5	185	0
98	0	0	2169	5	186	0
99	0	0	2197	5	184	0
100	0	0	2188	5	184	0
101	0	0	2203	5	184	0
102	0	0	2203	5	184	0
103	0	0	2198	5	184	0
104	0	0	2218	5	185	0
105	0	0	2228	5	184	0
106	0	0	2197	3	185	0
107	0	0	2142	4	184	0
108	0	0	2075	4	183	0
109	0	0	1998	4	183	0
110	0	0	1924	4	184	0
111	0	0	1882	3	185	0
112	0	0	1883	5	183	0
113	0	0	1912	5	184	0
114	0	0	1974	5	183	0
115	0	0	2037	5	183	0
116	0	0	2092	5	185	0
117	0	0	2148	5	185	0
118	0	0	2199	5	184	0
119	0	0	2217	5	184	0
120	0	0	2197	4	184	0
121	0	0	2174	4	184	0
122	0	0	2163	5	185	0
123	0	0	2172	5	183	0
124	0	0	2188	5	182	0
125	0	0	2195	4	184	0
126	0	0	2155	4	184	0
127	0	0	2111	5	185	0
0	0	0	2091	4	183	0
1	0	0	2071	4	184	0
2	0	0	2069	5	183	0
3	0	0	2058	4	184	0
4	0	0	2030	4	184	0
5	0	0	2019	5	181	0
6	0	0	1994	4	184	0
7	0	0	1968	4	183	0
8	0	0	1949	5	184	0
9	0	0	1976	4	185	0
10	0	0	2014	5	184	0
11	0	0	2065	5	183	0
12	0	0	2138	5	183	0
13	0	0	2211	4	185	0
14	0	0	2255	5	184	0
15	0	0	2264	5	185	0
16	0	0	2237	4	183	0
17	0	0	2175	4	183	0
18	0	0	2101	4	183	0
19	0	0	2037	5	184	0
20	0	0	2040	5	185	0
21	0	0	2081	5	183	0
22	0	0	2106	5	184	0
23	0	0	2055	4	185	0
24	0	0	1993	4	183	0
25	0	0	1985	4	185	0
26	0	0	2031	5	185	0
27	0	0	2124	5	184	0
28	0	0	2211	5	185	0
29	0	0	2260	5	184	0
30	0	0	2283	4	185	0
31	0	0	2280	4	184	0
32	0	0	2246	5	184	0
33	0	0	2280	5	184	0
34	0	0	2359	5	184	0
35	0	0	2398	5	184	0
36	0	0	2405	5	183	0
37	0	0	2407	5	185	0
38	0	0	2365	5	184	0
39	0	0	2290	4	184	0
40	0	0	2238	4	185	0
41	0	0	2240	5	184	0
42	0	0	2246	5	185	0
43	0	0	2218	4	183	0
44	0	0	2175	3	184	0
45	0	0	2166	5	184	0
46	0	0	2159	5	184	0
47	0	0	2158	5	184	0
48	0	0	2185	5	184	0
49	0	0	2248	4	184	0
50	0	0	2334	5	185	0
51	0	0	2422	5	184	0
52	0	0	2492	5	184	0
53	0	0	2541	4	183	0
54	0	0	2556	6	184	0
55	0	0	2535	4	183	0
56	0	0	2511	5	184	0
57	0	0	2477	4	184	0
58	0	0	2405	4	183	0
59	0	0	2338	4	182	0
60	0	0	2322	5	184	0
61	0	0	2301	4	184	0
62	0	0	2242	4	183	0
63	0	0	2182	4	183	0
64	0	0	2161	4	184	0
65	0	0	2160	4	184	0
66	0	0	2143	4	184	0
67	0	0	2124	4	183	0
68	0	0	2116	5	184	0
69	0	0	2150	4	184	0
70	0	0	2199	5	185	0
71	0	0	2236	5	185	0
72	0	0	2253	5	185	0
73	0	0	2231	4	184	0
74	0	0	2182	4	185	0
75	0	0	2121	4	184	0
76	0	0	2076	5	185	0
77	0	0	2071	5	184	0
78	0	0	2046	4	183	0
79	0	0	2014	4	183	0
80	0	0	2002	4	183	0
81	0	0	1995	4	184	0
82	0	0	1958	4	185	0
83	0	0	1908	3	184	0
84	0	0	1892	4	184	0
85	0	0	1895	5	185	0
86	0	0	1904	5	185	0
87	0	0	1946	5	185	0
88	0	0	1978	5	185	0
89	0	0	1988	6	184	0
90	0	0	1995	5	184	0
91	0	0	2042	5	185	0
92	0	0	2112	5	185	0
93	0	0	2191	5	185	0
94	0	0	2260	5	184	0
95	0	0	2296	5	183	0
96	0	0	2287	5	183	0
97	0	0	2248	4	184	0
98	0	0	2193	5	184	0
99	0	0	2143	4	183	0
100	0	0	2075	4	184	0
101	0	0	1967	4	184	0
102	0	0	1879	4	184	0
103	0	0	1864	5	184	0
104	0	0	1884	5	184	0
105	0	0	1930	5	185	0
106	0	0	1991	5	184	0
107	0	0	2036	5	184	0
108	0	0	2061	5	183	0
109	0	0	2090	5	183	0
110	0	0	2124	5	183	0
111	0	0	2168	5	185	0
112	0	0	2234	4	185	0
113	0	0	2307	5	185	0
114	0	0	2342	5	185	0
115	0	0	2299	4	184	0
116	0	0	2234	4	184	0
117	0	0	2153	4	184	0
118	0	0	2069	5	185	0
119	0	0	2023	4	184	0
120	0	0	2002	4	183	0
121	0	0	1992	4	184	0
122	0	0	2000	7	184	0
123	0	0	1988	4	183	0
124	0	0	1954	4	184	0
125	0	0	1929	4	186	0
126	0	0	1934	5	185	0
127	0	0	1984	5	184	0
0	0	0	2026	5	185	0
1	0	0	2058	4	184	0
2	0	0	2115	5	184	0
3	0	0	2177	5	185	0
4	0	0	2216	5	184	0
5	0	0	2249	5	182	0
6	0	0	2278	5	184	0
7	0	0	2285	5	184	0
8	0	0	2262	5	185	0
9	0	0	2202	4	183	0
10	0	0	2162	4	183	0
11	0	0	2139	4	184	0
12	0	0	2130	5	184	0
13	0	0	2134	5	184	0
14	0	0	2111	4	184	0
15	0	0	2061	4	184	0
16	0	0	2010	4	183	0
17	0	0	1965	3	184	0
18	0	0	1922	4	183	0
19	0	0	1911	5	184	0
20	0	0	1964	5	184	0
21	0	0	2041	4	185	0
22	0	0	2112	5	184	0
23	0	0	2169	5	185	0
24	0	0	2214	4	185	0
25	0	0	2257	5	185	0
26	0	0	2318	5	185	0
27	0	0	2344	5	185	0
28	0	0	2320	5	183	0
29	0	0	2271	4	184	0
30	0	0	2192	4	183	0
31	0	0	2088	4	185	0
32	0	0	2019	4	184	0
33	0	0	2030	5	184	0
34	0	0	2054	5	184	0
35	0	0	2032	4	184	0
36	0	0	2004	4	184	0
37	0	0	1996	5	184	0
38	0	0	2029	5	183	0
39	0	0	2067	5	184	0
40	0	0	2079	4	184	0
41	0	0	2099	5	184	0
42	0	0	2137	4	184	0
43	0	0	2180	4	184	0
44	0	0	2214	5	185	0
45	0	0	2266	5	184	0
46	0	0	2294	5	185	0
47	0	0	2261	4	185	0
48	0	0	2247	5	184	0
49	0	0	2237	5	184	0
50	0	0	2190	4	183	0
51	0	0	2111	4	183	0
52	0	0	2026	4	184	0
53	0	0	1947	4	182	0
54	0	0	1911	4	184	0
55	0	0	1932	5	184	0
56	0	0	1962	4	184	0
57	0	0	1999	5	184	0
58	0	0	2040	5	185	0
59	0	0	2044	5	185	0
60	0	0	2063	5	183	0
61	0	0	2130	5	183	0
62	0	0	2203	5	185	0
63	0	0	2264	5	183	0
64	0	0	2312	6	184	0
65	0	0	2366	5	183	0
66	0	0	2426	4	185	0
67	0	0	2441	5	185	0
68	0	0	2395	4	184	0
69	0	0	2334	4	184	0
70	0	0	2278	4	182	0
71	0	0	2223	4	185	0
72	0	0	2165	4	185	0
73	0	0	2140	5	185	0
74	0	0	2134	5	184	0
75	0	0	2080	4	184	0
76	0	0	2020	4	183	0
77	0	0	1996	4	185	0
78	0	0	1996	5	185	0
79	0	0	2024	5	185	0
80	0	0	2069	5	184	0
81	0	0	2117	5	184	0
82	0	0	2157	5	184	0
83	0	0	2231	5	184	0
84	0	0	2306	5	185	0
85	0	0	2352	5	184	0
86	0	0	2374	5	184	0
87	0	0	2353	4	186	0
88	0	0	2325	5	183	0
89	0	0	2296	4	183	0
90	0	0	2269	5	184	0
91	0	0	2230	4	184	0
92	0	0	2191	4	185	0
93	0	0	2167	4	185	0
94	0	0	2163	6	184	0
95	0	0	2168	4	182	0
96	0	0	2147	4	184	0
97	0	0	2124	5	184	0
98	0	0	2137	5	184	0
99	0	0	2171	5	184	0
100	0	0	2205	5	184	0
101	0	0	2228	5	184	0
102	0	0	2245	5	184	0
103	0	0	2274	5	185	0
104	0	0	2311	5	183	0
105	0	0	2357	6	183	0
106	0	0	2396	5	185	0
107	0	0	2430	5	185	0
108	0	0	2473	5	185	0
109	0	0	2487	5	184	0
110	0	0	2437	4	185	0
111	0	0	2379	4	184	0
112	0	0	2330	4	183	0
113	0	0	2264	4	184	0
114	0	0	2193	4	184	0
115	0	0	2133	4	184	0
116	0	0	2072	4	183	0
117	0	0	2065	5	186	0
118	0	0	2103	5	184	0
119	0	0	2137	5	184	0
120	0	0	2163	5	182	0
121	0	0	2179	5	183	0
122	0	0	2195	5	184	0
123	0	0	2243	5	185	0
124	0	0	2334	5	185	0
125	0	0	2428	4	185	0
126	0	0	2477	5	184	0
127	0	0	2460	4	184	0
0	0	0	2406	4	185	0
1	0	0	2357	4	184	0
2	0	0	2302	3	183	0
3	0	0	2225	4	184	0
4	0	0	2164	4	185	0
5	0	0	2156	5	183	0
6	0	0	2143	4	184	0
7	0	0	2113	3	183	0
8	0	0	2096	4	182	0
9	0	0	2105	5	184	0
10	0	0	2113	5	185	0
11	0	0	2109	5	184	0
12	0	0	2135	5	184	0
13	0	0	2173	5	184	0
14	0	0	2208	5	183	0
15	0	0	2231	5	184	0
16	0	0	2266	5	185	0
17	0	0	2296	5	184	0
18	0	0	2314	5	183	0
19	0	0	2303	4	184	0
20	0	0	2280	4	185	0
21	0	0	2252	4	184	0
22	0	0	2194	5	185	0
23	0	0	2109	4	184	0
24	0	0	2065	4	185	0
25	0	0	2094	5	183	0
26	0	0	2113	5	184	0
27	0	0	2073	5	183	0
28	0	0	2034	4	183	0
29	0	0	2006	4	185	0
30	0	0	2005	5	182	0
31	0	0	2024	5	184	0
32	0	0	2048	6	185	0
33	0	0	2088	5	185	0
34	0	0	2137	5	185	0
35	0	0	2187	5	184	0
36	0	0	2192	5	183	0
37	0	0	2188	5	183	0
38	0	0	2196	5	184	0
39	0	0	2201	5	184	0
40	0	0	2186	5	184	0
41	0	0	2136	4	184	0
42	0	0	2060	4	184	0
43	0	0	1994	4	183	0
44	0	0	1960	4	184	0
45	0	0	1948	5	184	0
46	0	0	1965	5	183	0
47	0	0	1993	4	185	0
48	0	0	2020	5	184	0
49	0	0	2021	5	185	0
50	0	0	1993	4	184	0
51	0	0	1971	5	185	0
52	0	0	1955	4	184	0
53	0	0	1934	4	185	0
54	0	0	1941	5	183	0
55	0	0	1974	5	185	0
56	0	0	2027	5	183	0
57	0	0	2121	5	184	0
58	0	0	2215	5	184	0
59	0	0	2251	5	185	0
60	0	0	2225	4	184	0
61	0	0	2174	4	184	0
62	0	0	2112	4	183	0
63	0	0	2058	4	183	0
64	0	0	1986	4	185	0
65	0	0	1916	4	184	0
66	0	0	1869	4	183	0
67	0	0	1842	4	183	0
68	0	0	1846	5	184	0
69	0	0	1876	5	185	0
70	0	0	1925	5	183	0
71	0	0	1968	5	184	0
72	0	0	2017	5	182	0
73	0	0	2059	5	183	0
74	0	0	2110	4	184	0
75	0	0	2166	5	183	0
76	0	0	2163	4	183	0
77	0	0	2161	5	184	0
78	0	0	2203	5	184	0
79	0	0	2225	5	184	0
80	0	0	2192	4	184	0
81	0	0	2143	4	184	0
82	0	0	2113	4	184	0
83	0	0	2064	3	183	0
84	0	0	1991	4	184	0
85	0	0	1899	4	183	0
86	0	0	1860	5	184	0
87	0	0	1881	5	184	0
88	0	0	1908	4	185	0
89	0	0	1921	5	185	0
90	0	0	1923	5	184	0
91	0	0	1927	4	184	0
92	0	0	1913	4	183	0
93	0	0	1949	5	183	0
94	0	0	2019	5	185	0
95	0	0	2072	5	184	0
96	0	0	2121	5	184	0
97	0	0	2189	5	183	0
98	0	0	2247	5	184	0
99	0	0	2276	5	183	0
100	0	0	2280	5	182	0
101	0	0	2259	4	184	0
102	0	0	2192	4	183	0
103	0	0	2095	4	184	0
104	0	0	2004	4	184	0
105	0	0	1928	4	183	0
106	0	0	1848	4	183	0
107	0	0	1788	4	185	0
108	0	0	1780	5	183	0
109	0	0	1816	5	183	0
110	0	0	1861	5	184	0
111	0	0	1892	5	185	0
112	0	0	1923	4	184	0
113	0	0	1964	4	184	0
114	0	0	2025	5	185	0
115	0	0	2079	5	183	0
116	0	0	2130	5	185	0
117	0	0	2187	5	184	0
118	0	0	2255	5	185	0
119	0	0	2298	5	184	0
120	0	0	2283	4	185	0
121	0	0	2230	4	184	0
122	0	0	2170	4	184	0
123	0	0	2127	5	183	0
124	0	0	2070	4	183	0
125	0	0	1993	4	184	0
126	0	0	1913	4	183	0
127	0	0	1849	4	183	0
0	0	0	1790	4	184	0
1	0	0	1795	5	184	0
2	0	0	1857	5	183	0
3	0	0	1926	5	185	0
4	0	0	1988	5	183	0
5	0	0	2066	5	184	0
6	0	0	2155	5	184	0
7	0	0	2192	5	184	0
8	0	0	2158	4	184	0
9	0	0	2133	5	183	0
10	0	0	2164	5	184	0
11	0	0	2199	5	183	0
12	0	0	2180	4	182	0
13	0	0	2134	4	184	0
14	0	0	2081	4	183	0
15	0	0	2029	4	183	0
16	0	0	1973	4	184	0
17	0	0	1928	5	183	0
18	0	0	1903	4	184	0
19	0	0	1862	3	183	0
20	0	0	1826	4	184	0
21	0	0	1835	5	185	0
22	0	0	1865	6	183	0
23	0	0	1910	5	183	0
24	0	0	1992	4	184	0
25	0	0	2080	5	184	0
26	0	0	2125	5	184	0
27	0	0	2129	5	185	0
28	0	0	2133	5	184	0
29	0	0	2159	5	184	0
30	0	0	2194	5	185	0
31	0	0	2205	5	183	0
32	0	0	2195	5	184	0
33	0	0	2200	5	185	0
34	0	0	2145	4	181	0
35	0	0	2064	3	184	0
36	0	0	1979	4	183	0
37	0	0	1904	4	183	0
38	0	0	1871	4	184	0
39	0	0	1852	4	184	0
40	0	0	1837	4	183	0
41	0	0	1819	4	184	0
42	0	0	1839	5	183	0
43	0	0	1899	5	184	0
44	0	0	1952	5	184	0
45	0	0	2003	5	183	0
46	0	0	2035	5	184	0
47	0	0	2049	5	184	0
48	0	0	2076	5	183	0
49	0	0	2145	5	186	0
50	0	0	2205	5	184	0
51	0	0	2179	4	184	0
52	0	0	2140	5	185	0
53	0	0	2139	5	184	0
54	0	0	2102	4	183	0
55	0	0	2028	4	184	0
56	0	0	1957	4	184	0
57	0	0	1923	4	184	0
58	0	0	1925	5	184	0
59	0	0	1905	4	183	0
60	0	0	1874	4	184	0
61	0	0	1864	5	184	0
62	0	0	1876	5	183	0
63	0	0	1904	5	184	0
64	0	0	1932	5	185	0
65	0	0	1939	5	184	0
66	0	0	1940	5	184	0
67	0	0	1944	5	184	0
68	0	0	1971	5	184	0
69	0	0	2033	5	185	0
70	0	0	2098	5	184	0
71	0	0	2119	5	185	0
72	0	0	2115	4	185	0
73	0	0	2084	4	184	0
74	0	0	2048	4	183	0
75	0	0	2045	5	184	0
76	0	0	2063	5	184	0
77	0	0	2018	4	182	0
78	0	0	1946	4	183	0
79	0	0	1878	4	183	0
80	0	0	1819	4	184	0
81	0	0	1778	4	184	0
82	0	0	1749	4	182	0
83	0	0	1737	5	184	0
84	0	0	1781	5	186	0
85	0	0	1868	5	185	0
86	0	0	1957	5	184	0
87	0	0	2029	5	185	0
88	0	0	2089	5	185	0
89	0	0	2172	5	184	0
90	0	0	2250	5	185	0
91	0	0	2252	4	182	0
92	0	0	2213	4	183	0
93	0	0	2178	4	184	0
94	0	0	2107	4	184	0
95	0	0	2004	4	185	0
96	0	0	1919	4	183	0
97	0	0	1890	5	181	0
98	0	0	1896	5	185	0
99	0	0	1861	4	183	0
100	0	0	1787	4	184	0
101	0	0	1755	5	183	0
102	0	0	1805	5	183	0
103	0	0	1875	5	184	0
104	0	0	1933	5	183	0
105	0	0	1967	5	185	0
106	0	0	1956	4	184	0
107	0	0	1941	4	184	0
108	0	0	1933	5	185	0
109	0	0	1975	5	184	0
110	0	0	2064	4	183	0
111	0	0	2135	5	185	0
112	0	0	2179	5	184	0
113	0	0	2192	5	184	0
114	0	0	2152	4	184	0
115	0	0	2074	4	184	0
116	0	0	1998	4	183	0
117	0	0	1952	4	184	0
118	0	0	1925	4	184	0
119	0	0	1880	4	184	0
120	0	0	1831	4	184	0
121	0	0	1808	4	185	0
122	0	0	1812	5	184	0
123	0	0	1830	5	184	0
124	0	0	1856	5	184	0
125	0	0	1883	5	184	0
126	0	0	1919	5	185	0
127	0	0	1994	4	183	0
0	0	0	2089	5	184	0
1	0	0	2163	5	184	0
2	0	0	2213	3	184	0
3	0	0	2203	4	185	0
4	0	0	2173	4	184	0
5	0	0	2145	4	184	0
6	0	0	2105	4	184	0
7	0	0	2056	5	185	0
8	0	0	1997	4	184	0
9	0	0	1944	4	185	0
10	0	0	1890	4	184	0
11	0	0	1847	4	183	0
12	0	0	1842	5	184	0
13	0	0	1901	5	184	0
14	0	0	1982	5	185	0
15	0	0	2003	5	183	0
16	0	0	1984	5	184	0
17	0	0	2006	3	185	0
18	0	0	2035	5	185	0
19	0	0	2059	5	184	0
20	0	0	2077	5	184	0
21	0	0	2113	5	184	0
22	0	0	2191	5	184	0
23	0	0	2196	4	184	0
24	0	0	2156	4	184	0
25	0	0	2124	5	184	0
26	0	0	2075	4	184	0
27	0	0	2040	4	183	0
28	0	0	2048	5	184	0
29	0	0	2067	4	184	0
30	0	0	2007	4	185	0
31	0	0	1921	4	182	0
32	0	0	1831	4	185	0
33	0	0	1773	4	184	0
34	0	0	1798	5	184	0
35	0	0	1839	6	184	0
36	0	0	1889	5	185	0
37	0	0	1949	5	183	0
38	0	0	1986	5	183	0
39	0	0	1991	5	184	0
40	0	0	2009	5	183	0
41	0	0	2057	4	184	0
42	0	0	2144	6	185	0
43	0	0	2198	5	184	0
44	0	0	2198	5	183	0
45	0	0	2162	5	184	0
46	0	0	2092	4	184	0
47	0	0	2007	4	184	0
48	0	0	1988	5	185	0
49	0	0	1977	4	183	0
50	0	0	1917	4	183	0
51	0	0	1870	4	184	0
52	0	0	1857	4	183	0
53	0	0	1842	4	184	0
54	0	0	1839	5	184	0
55	0	0	1825	5	184	0
56	0	0	1836	5	183	0
57	0	0	1873	5	184	0
58	0	0	1940	5	185	0
59	0	0	2025	5	184	0
60	0	0	2123	5	184	0
61	0	0	2188	5	183	0
62	0	0	2229	5	184	0
63	0	0	2232	4	184	0
64	0	0	2187	4	184	0
65	0	0	2139	4	184	0
66	0	0	2090	4	184	0
67	0	0	2036	4	184	0
68	0	0	2007	4	184	0
69	0	0	1991	4	185	0
70	0	0	1964	4	183	0
71	0	0	1935	4	184	0
72	0	0	1902	4	183	0
73	0	0	1902	5	184	0
74	0	0	1947	5	183	0
75	0	0	1979	5	182	0
76	0	0	1962	4	184	0
77	0	0	1981	5	184	0
78	0	0	2027	5	185	0
79	0	0	2076	5	185	0
80	0	0	2113	5	184	0
81	0	0	2171	5	185	0
82	0	0	2226	5	185	0
83	0	0	2238	5	183	0
84	0	0	2213	4	184	0
85	0	0	2177	4	185	0
86	0	0	2136	4	182	0
87	0	0	2082	4	184	0
88	0	0	2020	4	184	0
89	0	0	1967	4	183	0
90	0	0	1930	4	184	0
91	0	0	1899	4	184	0
92	0	0	1885	5	183	0
93	0	0	1874	4	184	0
94	0	0	1832	4	185	0
95	0	0	1811	4	183	0
96	0	0	1827	5	184	0
97	0	0	1897	5	184	0
98	0	0	1989	5	184	0
99	0	0	2061	5	185	0
100	0	0	2131	5	183	0
101	0	0	2166	5	184	0
102	0	0	2184	5	184	0
103	0	0	2184	5	184	0
104	0	0	2190	5	184	0
105	0	0	2175	4	184	0
106	0	0	2144	4	185	0
107	0	0	2106	4	183	0
108	0	0	2056	4	183	0
109	0	0	1980	4	183	0
110	0	0	1924	4	184	0
111	0	0	1908	4	183	0
112	0	0	1892	5	183	0
113	0	0	1889	5	184	0
114	0	0	1919	5	183	0
115	0	0	1977	5	184	0
116	0	0	2012	5	184	0
117	0	0	2034	5	183	0
118	0	0	2091	5	183	0
119	0	0	2153	5	184	0
120	0	0	2155	5	184	0
121	0	0	2136	5	184	0
122	0	0	2114	4	185	0
123	0	0	2108	5	185	0
124	0	0	2131	5	184	0
125	0	0	2140	5	184	0
126	0	0	2127	4	183	0
127	0	0	2079	4	183	0
0	0	0	2026	4	183	0
1	0	0	1998	4	183	0
2	0	0	2008	4	183	0
3	0	0	1986	4	184	0
4	0	0	1933	4	183	0
5	0	0	1912	4	184	0
6	0	0	1941	5	183	0
7	0	0	2001	5	184	0
8	0	0	2052	5	184	0
9	0	0	2069	5	184	0
10	0	0	2076	5	184	0
11	0	0	2111	5	184	0
12	0	0	2134	5	184	0
13	0	0	2176	5	184	0
14	0	0	2224	5	185	0
15	0	0	2234	4	184	0
16	0	0	2244	5	184	0
17	0	0	2235	4	185	0
18	0	0	2162	4	184	0
19	0	0	2079	4	184	0
20	0	0	2037	4	183	0
21	0	0	2011	4	184	0
22	0	0	1989	4	183	0
23	0	0	1948	4	184	0
24	0	0	1897	4	185	0
25	0	0	1894	5	183	0
26	0	0	1908	5	184	0
27	0	0	1944	5	184	0
28	0	0	2019	5	183	0
29	0	0	2081	5	184	0
30	0	0	2124	4	183	0
31	0	0	2145	5	183	0
32	0	0	2146	5	184	0
33	0	0	2155	5	185	0
34	0	0	2202	5	183	0
35	0	0	2250	5	183	0
36	0	0	2265	5	185	0
37	0	0	2266	5	185	0
38	0	0	2215	4	185	0
39	0	0	2135	4	185	0
40	0	0	2056	3	183	0
41	0	0	1978	4	184	0
42	0	0	1922	4	183	0
43	0	0	1897	4	184	0
44	0	0	1888	5	184	0
45	0	0	1879	4	184	0
46	0	0	1878	5	184	0
47	0	0	1907	5	184	0
48	0	0	1977	5	183	0
49	0	0	2049	6	184	0
50	0	0	2112	5	184	0
51	0	0	2143	5	184	0
52	0	0	2177	4	184	0
53	0	0	2229	5	184	0
54	0	0	2271	5	184	0
55	0	0	2291	4	184	0
56	0	0	2291	5	184	0
57	0	0	2266	4	183	0
58	0	0	2208	4	183	0
59	0	0	2148	5	184	0
60	0	0	2098	4	184	0
61	0	0	2044	4	184	0
62	0	0	1983	4	183	0
63	0	0	1922	4	183	0
64	0	0	1871	4	183	0
65	0	0	1873	4	184	0
66	0	0	1907	5	183	0
67	0	0	1921	5	184	0
68	0	0	1965	5	186	0
69	0	0	2069	5	184	0
70	0	0	2152	5	184	0
71	0	0	2162	5	184	0
72	0	0	2168	5	183	0
73	0	0	2192	5	184	0
74	0	0	2226	5	184	0
75	0	0	2243	4	185	0
76	0	0	2272	5	183	0
77	0	0	2288	5	183	0
78	0	0	2254	4	184	0
79	0	0	2210	4	182	0
80	0	0	2172	4	184	0
81	0	0	2134	4	185	0
82	0	0	2076	4	183	0
83	0	0	2003	5	183	0
84	0	0	1967	5	184	0
85	0	0	1942	4	184	0
86	0	0	1901	5	184	0
87	0	0	1890	5	185	0
88	0	0	1933	5	183	0
89	0	0	1992	5	184	0
90	0	0	2056	5	184	0
91	0	0	2124	5	184	0
92	0	0	2176	5	185	0
93	0	0	2217	5	183	0
94	0	0	2251	4	185	0
95	0	0	2261	4	184	0
96	0	0	2244	4	183	0
97	0	0	2212	4	183	0
98	0	0	2152	4	182	0
99	0	0	2066	4	184	0
100	0	0	1999	4	183	0
101	0	0	1915	4	183	0
102	0	0	1835	4	184	0
103	0	0	1799	4	184	0
104	0	0	1799	5	185	0
105	0	0	1827	4	185	0
106	0	0	1867	5	185	0
107	0	0	1887	5	184	0
108	0	0	1931	5	185	0
109	0	0	1976	4	184	0
110	0	0	1999	5	184	0
111	0	0	2037	5	184	0
112	0	0	2112	5	183	0
113	0	0	2191	5	185	0
114	0	0	2263	5	184	0
115	0	0	2303	5	184	0
116	0	0	2295	4	184	0
117	0	0	2259	4	183	0
118	0	0	2205	4	185	0
119	0	0	2111	3	184	0
120	0	0	1984	4	183	0
121	0	0	1883	4	183	0
122	0	0	1833	4	184	0
123	0	0	1827	5	183	0
124	0	0	1826	4	184	0
125	0	0	1860	5	183	0
126	0	0	1934	5	185	0
127	0	0	1990	6	184	0
0	0	0	2024	5	184	0
1	0	0	2063	5	185	0
2	0	0	2115	5	184	0
3	0	0	2158	5	185	0
4	0	0	2191	5	185	0
5	0	0	2216	5	185	0
6	0	0	2239	5	184	0
7	0	0	2198	4	184	0
8	0	0	2148	4	184	0
9	0	0	2122	5	185	0
10	0	0	2113	4	184	0
11	0	0	2081	4	184	0
12	0	0	2035	4	184	0
13	0	0	2011	4	184	0
14	0	0	1981	4	184	0
15	0	0	1961	5	184	0
16	0	0	1941	3	183	0
17	0	0	1936	4	183	0
18	0	0	1941	5	183	0
19	0	0	1931	5	184	0
20	0	0	1935	5	184	0
21	0	0	1969	5	185	0
22	0	0	2028	5	184	0
23	0	0	2088	5	185	0
24	0	0	2134	5	183	0
25	0	0	2183	5	183	0
26	0	0	2221	5	184	0
27	0	0	2241	5	183	0
28	0	0	2276	5	184	0
29	0	0	2300	5	184	0
30	0	0	2246	4	184	0
31	0	0	2144	4	184	0
32	0	0	2059	4	184	0
33	0	0	2014	5	184	0
34	0	0	1988	4	184	0
35	0	0	1967	4	184	0
36	0	0	1944	4	184	0
37	0	0	1952	4	184	0
38	0	0	1998	5	185	0
39	0	0	2052	5	185	0
40	0	0	2130	5	184	0
41	0	0	2203	5	184	0
42	0	0	2255	4	184	0
43	0	0	2275	5	185	0
44	0	0	2287	5	184	0
45	0	0	2310	5	184	0
46	0	0	2331	5	184	0
47	0	0	2347	5	183	0
48	0	0	2348	5	184	0
49	0	0	2320	5	184	0
50	0	0	2267	4	183	0
51	0	0	2200	4	185	0
52	0	0	2122	4	183	0
53	0	0	2079	4	184	0
54	0	0	2098	5	183	0
55	0	0	2126	5	183	0
56	0	0	2122	5	185	0
57	0	0	2119	5	184	0
58	0	0	2113	4	185	0
59	0	0	2121	5	184	0
60	0	0	2170	4	184	0
61	0	0	2240	6	185	0
62	0	0	2287	5	185	0
63	0	0	2338	5	184	0
64	0	0	2403	5	183	0
65	0	0	2451	5	185	0
66	0	0	2504	6	186	0
67	0	0	2539	5	184	0
68	0	0	2503	4	184	0
69	0	0	2455	4	185	0
70	0	0	2410	4	184	0
71	0	0	2358	4	185	0
72	0	0	2286	4	185	0
73	0	0	2220	4	183	0
74	0	0	2175	4	184	0
75	0	0	2149	3	182	0
76	0	0	2119	4	185	0
77	0	0	2071	4	184	0
78	0	0	2051	5	185	0
79	0	0	2070	5	184	0
80	0	0	2109	4	182	0
81	0	0	2135	5	183	0
82	0	0	2167	5	184	0
83	0	0	2225	5	185	0
84	0	0	2267	5	184	0
85	0	0	2255	4	184	0
86	0	0	2234	5	185	0
87	0	0	2230	5	185	0
88	0	0	2215	4	184	0
89	0	0	2164	4	183	0
90	0	0	2102	4	184	0
91	0	0	2051	4	185	0
92	0	0	2008	4	183	0
93	0	0	1969	4	184	0
94	0	0	1925	4	184	0
95	0	0	1869	3	184	0
96	0	0	1842	5	183	0
97	0	0	1846	5	183	0
98	0	0	1842	5	184	0
99	0	0	1878	4	184	0
100	0	0	1969	6	184	0
101	0	0	2074	4	184	0
102	0	0	2161	5	185	0
103	0	0	2202	5	184	0
104	0	0	2210	6	184	0
105	0	0	2224	5	184	0
106	0	0	2258	5	185	0
107	0	0	2270	5	184	0
108	0	0	2260	5	184	0
109	0	0	2230	4	184	0
110	0	0	2167	4	184	0
111	0	0	2096	4	184	0
112	0	0	2013	4	184	0
113	0	0	1943	4	185	0
114	0	0	1929	4	184	0
115	0	0	1907	4	182	0
116	0	0	1877	4	185	0
117	0	0	1892	5	184	0
118	0	0	1913	5	183	0
119	0	0	1936	5	183	0
120	0	0	1985	5	183	0
121	0	0	2040	4	185	0
122	0	0	2061	5	184	0
123	0	0	2064	5	185	0
124	0	0	2085	5	184	0
125	0	0	2140	5	183	0
126	0	0	2195	5	183	0
127	0	0	2190	4	185	0
0	0	0	2168	4	185	0
1	0	0	2168	6	185	0
2	0	0	2154	4	183	0
3	0	0	2122	4	183	0
4	0	0	2084	4	183	0
5	0	0	2032	4	184	0
6	0	0	1982	4	183	0
7	0	0	1942	4	182	0
8	0	0	1921	4	183	0
9	0	0	1943	5	185	0
10	0	0	1975	5	185	0
11	0	0	1998	5	184	0
12	0	0	2029	5	184	0
13	0	0	2072	5	184	0
14	0	0	2119	5	184	0
15	0	0	2146	5	184	0
16	0	0	2165	5	184	0
17	0	0	2203	5	184	0
18	0	0	2254	5	184	0
19	0	0	2233	4	185	0
20	0	0	2214	5	183	0
21	0	0	2228	4	184	0
22	0	0	2215	4	186	0
23	0	0	2162	4	182	0
24	0	0	2077	4	184	0
25	0	0	1991	4	184	0
26	0	0	1933	4	183	0
27	0	0	1886	4	184	0
28	0	0	1864	4	183	0
29	0	0	1855	4	184	0
30	0	0	1858	5	184	0
31	0	0	1881	5	183	0
32	0	0	1935	5	183	0
33	0	0	1999	6	183	0
34	0	0	2043	5	183	0
35	0	0	2094	5	183	0
36	0	0	2126	5	185	0
37	0	0	2158	5	185	0
38	0	0	2224	4	183	0
39	0	0	2277	4	184	0
40	0	0	2312	5	183	0
41	0	0	2316	4	185	0
42	0	0	2243	4	184	0
43	0	0	2146	4	184	0
44	0	0	2070	4	184	0
45	0	0	2024	4	183	0
46	0	0	1985	4	185	0
47	0	0	1951	4	183	0
48	0	0	1912	4	183	0
49	0	0	1894	5	184	0
50	0	0	1930	5	184	0
51	0	0	1994	5	184	0
52	0	0	2037	5	184	0
53	0	0	2061	5	183	0
54	0	0	2086	4	185	0
55	0	0	2117	5	185	0
56	0	0	2145	5	184	0
57	0	0	2156	5	184	0
58	0	0	2190	6	185	0
59	0	0	2216	5	184	0
60	0	0	2230	5	184	0
61	0	0	2212	4	185	0
62	0	0	2157	4	184	0
63	0	0	2058	5	183	0
64	0	0	1977	3	183	0
65	0	0	1946	5	183	0
66	0	0	1964	5	184	0
67	0	0	2001	5	183	0
68	0	0	2004	5	184	0
69	0	0	2014	5	184	0
70	0	0	2029	5	185	0
71	0	0	2029	4	184	0
72	0	0	2065	7	184	0
73	0	0	2115	4	184	0
74	0	0	2143	5	184	0
75	0	0	2161	5	184	0
76	0	0	2192	4	183	0
77	0	0	2234	5	185	0
78	0	0	2294	6	185	0
79	0	0	2324	4	184	0
80	0	0	2305	4	184	0
81	0	0	2242	4	185	0
82	0	0	2173	4	184	0
83	0	0	2133	4	184	0
84	0	0	2116	5	183	0
85	0	0	2092	4	184	0
86	0	0	2051	4	183	0
87	0	0	1997	4	184	0
88	0	0	1959	4	184	0
89	0	0	1966	4	183	0
90	0	0	1997	5	183	0
91	0	0	2032	5	183	0
92	0	0	2093	5	183	0
93	0	0	2154	5	184	0
94	0	0	2222	5	184	0
95	0	0	2266	4	183	0
96	0	0	2282	5	183	0
97	0	0	2286	5	185	0
98	0	0	2298	5	184	0
99	0	0	2286	4	184	0
100	0	0	2258	4	184	0
101	0	0	2228	4	184	0
102	0	0	2196	4	185	0
103	0	0	2155	4	184	0
104	0	0	2120	5	183	0
105	0	0	2091	4	183	0
106	0	0	2078	3	184	0
107	0	0	2070	4	184	0
108	0	0	2055	5	185	0
109	0	0	2036	4	183	0
110	0	0	2024	4	184	0
111	0	0	2042	5	184	0
112	0	0	2096	5	183	0
113	0	0	2130	5	184	0
114	0	0	2156	5	185	0
115	0	0	2218	5	184	0
116	0	0	2294	4	185	0
117	0	0	2354	5	184	0
118	0	0	2390	5	184	0
119	0	0	2393	5	185	0
120	0	0	2370	5	184	0
121	0	0	2326	4	184	0
122	0	0	2250	4	184	0
123	0	0	2178	4	184	0
124	0	0	2142	5	184	0
125	0	0	2147	5	184	0
126	0	0	2124	4	183	0
127	0	0	2096	4	184	0
0	0	0	2068	4	184	0
1	0	0	2067	5	184	0
2	0	0	2109	5	183	0
3	0	0	2142	5	184	0
4	0	0	2154	5	185	0
5	0	0	2141	5	183	0
6	0	0	2145	6	185	0
7	0	0	2189	5	185	0
8	0	0	2217	5	183	0
9	0	0	2248	4	183	0
10	0	0	2309	5	183	0
11	0	0	2381	6	183	0
12	0	0	2422	5	185	0
13	0	0	2429	5	185	0
14	0	0	2386	4	183	0
15	0	0	2324	4	183	0
16	0	0	2245	4	183	0
17	0	0	2160	3	184	0
18	0	0	2085	4	184	0
19	0	0	2021	5	184	0
20	0	0	1968	4	183	0
21	0	0	1976	4	184	0
22	0	0	2038	4	184	0
23	0	0	2090	4	185	0
24	0	0	2117	5	184	0
25	0	0	2118	5	184	0
26	0	0	2116	4	184	0
27	0	0	2113	5	185	0
28	0	0	2149	5	184	0
29	0	0	2222	5	184	0
30	0	0	2309	5	183	0
31	0	0	2337	5	185	0
32	0	0	2314	4	184	0
33	0	0	2258	4	185	0
34	0	0	2179	4	183	0
35	0	0	2131	4	183	0
36	0	0	2100	4	184	0
37	0	0	2059	4	183	0
38	0	0	2014	3	184	0
39	0	0	1953	4	184	0
40	0	0	1887	3	182	0
41	0	0	1865	4	183	0
42	0	0	1880	5	183	0
43	0	0	1918	4	184	0
44	0	0	1975	5	183	0
45	0	0	2037	5	184	0
46	0	0	2106	4	185	0
47	0	0	2150	4	185	0
48	0	0	2151	5	183	0
49	0	0	2157	5	184	0
50	0	0	2190	5	183	0
51	0	0	2201	4	183	0
52	0	0	2188	5	184	0
53	0	0	2190	4	184	0
54	0	0	2205	5	184	0
55	0	0	2181	4	183	0
56	0	0	2110	3	184	0
57	0	0	2013	4	184	0
58	0	0	1908	4	184	0
59	0	0	1820	5	183	0
60	0	0	1744	4	184	0
61	0	0	1697	4	185	0
62	0	0	1728	5	183	0
63	0	0	1806	5	184	0
64	0	0	1874	4	184	0
65	0	0	1926	5	183	0
66	0	0	1979	4	185	0
67	0	0	2036	5	184	0
68	0	0	2097	5	183	0
69	0	0	2162	5	185	0
70	0	0	2224	5	183	0
71	0	0	2236	5	184	0
72	0	0	2218	4	184	0
73	0	0	2192	4	184	0
74	0	0	2138	4	185	0
75	0	0	2062	4	182	0
76	0	0	1975	4	184	0
77	0	0	1895	4	183	0
78	0	0	1846	4	184	0
79	0	0	1804	3	183	0
80	0	0	1765	4	184	0
81	0	0	1747	3	184	0
82	0	0	1762	4	183	0
83	0	0	1791	5	183	0
84	0	0	1838	5	184	0
85	0	0	1928	5	184	0
86	0	0	2048	4	183	0
87	0	0	2124	5	184	0
88	0	0	2129	5	184	0
89	0	0	2133	5	185	0
90	0	0	2183	5	185	0
91	0	0	2212	4	184	0
92	0	0	2191	5	184	0
93	0	0	2162	4	183	0
94	0	0	2082	4	184	0
95	0	0	1997	4	184	0
96	0	0	1943	3	185	0
97	0	0	1886	4	185	0
98	0	0	1846	4	184	0
99	0	0	1849	5	183	0
100	0	0	1849	5	183	0
101	0	0	1839	4	183	0
102	0	0	1834	5	184	0
103	0	0	1843	5	184	0
104	0	0	1858	4	184	0
105	0	0	1898	5	185	0
106	0	0	1956	4	185	0
107	0	0	2023	5	183	0
108	0	0	2061	5	185	0
109	0	0	2094	5	184	0
110	0	0	2131	5	184	0
111	0	0	2151	4	184	0
112	0	0	2165	4	184	0
113	0	0	2141	5	184	0
114	0	0	2077	4	184	0
115	0	0	1996	4	184	0
116	0	0	1927	3	184	0
117	0	0	1872	4	184	0
118	0	0	1862	5	183	0
119	0	0	1854	4	184	0
120	0	0	1840	5	184	0
121	0	0	1853	4	183	0
122	0	0	1875	5	184	0
123	0	0	1878	4	184	0
124	0	0	1912	5	184	0
125	0	0	1961	5	184	0
126	0	0	2006	5	183	0
127	0	0	2037	5	183	0
0	0	0	2058	5	185	0
1	0	0	2082	5	184	0
2	0	0	2110	5	185	0
3	0	0	2124	4	185	0
4	0	0	2138	5	184	0
5	0	0	2139	5	184	0
6	0	0	2086	4	184	0
7	0	0	2030	4	184	0
8	0	0	1998	3	184	0
9	0	0	1974	4	184	0
10	0	0	1927	4	184	0
11	0	0	1885	4	183	0
12	0	0	1862	4	184	0
13	0	0	1863	5	183	0
14	0	0	1845	4	183	0
15	0	0	1806	4	184	0
16	0	0	1831	5	184	0
17	0	0	1904	5	183	0
18	0	0	1967	4	183	0
19	0	0	2014	5	184	0
20	0	0	2048	5	184	0
21	0	0	2088	5	185	0
22	0	0	2130	5	185	0
23	0	0	2131	3	184	0
24	0	0	2118	5	184	0
25	0	0	2134	5	184	0
26	0	0	2129	4	183	0
27	0	0	2073	4	184	0
28	0	0	2013	4	183	0
29	0	0	1956	4	184	0
30	0	0	1929	4	184	0
31	0	0	1916	4	184	0
32	0	0	1879	4	183	0
33	0	0	1864	4	184	0
34	0	0	1852	4	185	0
35	0	0	1834	5	184	0
36	0	0	1840	5	182	0
37	0	0	1860	5	184	0
38	0	0	1931	4	184	0
39	0	0	2002	5	184	0
40	0	0	2049	5	185	0
41	0	0	2099	5	186	0
42	0	0	2124	5	183	0
43	0	0	2134	4	183	0
44	0	0	2156	5	185	0
45	0	0	2160	5	184	0
46	0	0	2133	4	183	0
47	0	0	2104	4	184	0
48	0	0	2078	3	183	0
49	0	0	2041	4	183	0
50	0	0	1983	4	184	0
51	0	0	1937	4	183	0
52	0	0	1890	4	184	0
53	0	0	1869	4	184	0
54	0	0	1881	5	183	0
55	0	0	1888	5	185	0
56	0	0	1888	4	186	0
57	0	0	1906	4	184	0
58	0	0	1966	3	184	0
59	0	0	2045	5	185	0
60	0	0	2107	5	185	0
61	0	0	2151	5	185	0
62	0	0	2169	5	184	0
63	0	0	2186	4	184	0
64	0	0	2215	5	183	0
65	0	0	2203	5	184	0
66	0	0	2158	4	183	0
67	0	0	2096	4	184	0
68	0	0	2034	3	184	0
69	0	0	1993	4	184	0
70	0	0	1955	4	185	0
71	0	0	1937	4	183	0
72	0	0	1923	4	184	0
73	0	0	1914	5	184	0
74	0	0	1931	5	184	0
75	0	0	1955	5	184	0
76	0	0	1944	5	184	0
77	0	0	1918	4	183	0
78	0	0	1932	4	184	0
79	0	0	1994	4	184	0
80	0	0	2054	5	184	0
81	0	0	2126	5	184	0
82	0	0	2206	5	185	0
83	0	0	2188	3	184	0
84	0	0	2146	4	185	0
85	0	0	2156	5	185	0
86	0	0	2167	4	184	0
87	0	0	2106	4	184	0
88	0	0	2027	4	184	0
89	0	0	1975	4	184	0
90	0	0	1942	4	184	0
91	0	0	1903	4	184	0
92	0	0	1865	4	185	0
93	0	0	1841	3	184	0
94	0	0	1862	5	185	0
95	0	0	1940	5	184	0
96	0	0	2014	5	184	0
97	0	0	2041	5	185	0
98	0	0	2062	4	184	0
99	0	0	2076	5	183	0
100	0	0	2096	5	183	0
101	0	0	2127	5	184	0
102	0	0	2186	5	183	0
103	0	0	2211	4	183	0
104	0	0	2211	5	183	0
105	0	0	2193	5	183	0
106	0	0	2144	5	184	0
107	0	0	2089	4	183	0
108	0	0	2044	4	183	0
109	0	0	1987	4	183	0
110	0	0	1938	4	183	0
111	0	0	1878	4	184	0
112	0	0	1815	4	183	0
113	0	0	1820	4	184	0
114	0	0	1882	5	184	0
115	0	0	1936	5	184	0
116	0	0	1972	5	185	0
117	0	0	1991	5	185	0
118	0	0	1995	5	184	0
119	0	0	2029	5	185	0
120	0	0	2093	5	184	0
121	0	0	2147	5	184	0
122	0	0	2179	5	186	0
123	0	0	2189	4	184	0
124	0	0	2222	5	184	0
125	0	0	2269	5	184	0
126	0	0	2233	4	184	0
127	0	0	2146	4	184	0
0	0	0	2051	4	184	0
1	0	0	1982	4	183	0
2	0	0	1948	5	185	0
3	0	0	1951	5	185	0
4	0	0	1941	5	183	0
5	0	0	1912	4	183	0
6	0	0	1893	4	184	0
7	0	0	1899	6	183	0
8	0	0	1947	5	184	0
9	0	0	1990	4	181	0
10	0	0	2014	4	183	0
11	0	0	2050	5	184	0
12	0	0	2086	5	183	0
13	0	0	2120	5	186	0
14	0	0	2188	5	185	0
15	0	0	2230	5	184	0
16	0	0	2218	4	185	0
17	0	0	2187	4	184	0
18	0	0	2150	4	183	0
19	0	0	2111	4	181	0
20	0	0	2039	4	184	0
21	0	0	1971	4	183	0
22	0	0	1904	4	183	0
23	0	0	1842	4	184	0
24	0	0	1815	4	182	0
25	0	0	1833	5	184	0
26	0	0	1889	5	184	0
27	0	0	1947	5	184	0
28	0	0	1982	5	184	0
29	0	0	1999	4	185	0
30	0	0	2039	4	184	0
31	0	0	2097	5	183	0
32	0	0	2153	5	183	0
33	0	0	2197	5	183	0
34	0	0	2238	5	185	0
35	0	0	2264	5	184	0
36	0	0	2247	4	184	0
37	0	0	2188	3	185	0
38	0	0	2106	4	184	0
39	0	0	2052	4	183	0
40	0	0	2017	4	183	0
41	0	0	1973	4	184	0
42	0	0	1899	4	183	0
43	0	0	1834	4	183	0
44	0	0	1806	4	184	0
45	0	0	1837	5	184	0
46	0	0	1902	5	184	0
47	0	0	1960	5	184	0
48	0	0	2015	5	183	0
49	0	0	2081	5	184	0
50	0	0	2105	5	184	0
51	0	0	2086	4	184	0
52	0	0	2071	5	184	0
53	0	0	2075	5	185	0
54	0	0	2141	5	185	0
55	0	0	2185	5	185	0
56	0	0	2203	5	184	0
57	0	0	2179	5	184	0
58	0	0	2123	4	184	0
59	0	0	2059	4	183	0
60	0	0	2015	4	184	0
61	0	0	1992	4	184	0
62	0	0	1970	4	184	0
63	0	0	1935	4	183	0
64	0	0	1911	4	184	0
65	0	0	1909	5	184	0
66	0	0	1925	5	184	0
67	0	0	1952	5	184	0
68	0	0	2015	5	184	0
69	0	0	2076	5	184	0
70	0	0	2102	5	184	0
71	0	0	2123	5	184	0
72	0	0	2137	4	184	0
73	0	0	2144	5	184	0
74	0	0	2199	5	184	0
75	0	0	2237	5	185	0
76	0	0	2240	5	183	0
77	0	0	2233	4	183	0
78	0	0	2168	4	182	0
79	0	0	2079	4	183	0
80	0	0	2000	4	184	0
81	0	0	1959	4	185	0
82	0	0	1941	4	185	0
83	0	0	1896	3	183	0
84	0	0	1817	4	185	0
85	0	0	1777	4	183	0
86	0	0	1795	5	184	0
87	0	0	1841	4	184	0
88	0	0	1893	5	185	0
89	0	0	1959	5	183	0
90	0	0	2044	5	184	0
91	0	0	2115	5	183	0
92	0	0	2137	5	184	0
93	0	0	2139	5	185	0
94	0	0	2172	5	184	0
95	0	0	2198	5	184	0
96	0	0	2179	4	183	0
97	0	0	2165	5	184	0
98	0	0	2142	4	184	0
99	0	0	2083	4	183	0
100	0	0	2033	4	183	0
101	0	0	1997	4	184	0
102	0	0	1971	4	184	0
103	0	0	1930	5	184	0
104	0	0	1870	4	184	0
105	0	0	1850	5	184	0
106	0	0	1859	6	184	0
107	0	0	1873	5	183	0
108	0	0	1905	4	183	0
109	0	0	1948	5	185	0
110	0	0	2018	5	184	0
111	0	0	2094	5	184	0
112	0	0	2135	4	185	0
113	0	0	2164	5	185	0
114	0	0	2190	5	185	0
115	0	0	2200	5	184	0
116	0	0	2226	5	183	0
117	0	0	2243	5	185	0
118	0	0	2184	4	183	0
119	0	0	2127	4	185	0
120	0	0	2049	4	184	0
121	0	0	1958	4	183	0
122	0	0	1913	4	183	0
123	0	0	1888	4	185	0
124	0	0	1845	4	184	0
125	0	0	1810	4	184	0
126	0	0	1820	5	184	0
127	0	0	1843	5	182	0
0	0	0	1882	5	185	0
1	0	0	1928	5	184	0
2	0	0	1990	5	183	0
3	0	0	2052	5	185	0
4	0	0	2094	5	183	0
5	0	0	2131	5	184	0
6	0	0	2194	5	184	0
7	0	0	2220	5	183	0
8	0	0	2196	4	184	0
9	0	0	2173	4	184	0
10	0	0	2118	4	184	0
11	0	0	2051	4	185	0
12	0	0	2005	4	185	0
13	0	0	1975	4	183	0
14	0	0	1951	5	183	0
15	0	0	1929	4	184	0
16	0	0	1875	4	184	0
17	0	0	1854	5	184	0
18	0	0	1879	5	184	0
19	0	0	1915	5	183	0
20	0	0	1953	5	183	0
21	0	0	1990	5	183	0
22	0	0	2045	5	186	0
23	0	0	2104	5	185	0
24	0	0	2141	5	184	0
25	0	0	2134	4	184	0
26	0	0	2158	5	184	0
27	0	0	2198	5	184	0
28	0	0	2236	5	184	0
29	0	0	2230	4	184	0
30	0	0	2177	4	184	0
31	0	0	2105	4	184	0
32	0	0	2035	4	183	0
33	0	0	1977	4	184	0
34	0	0	1930	4	183	0
35	0	0	1888	4	183	0
36	0	0	1849	4	183	0
37	0	0	1851	4	185	0
38	0	0	1912	5	184	0
39	0	0	1968	4	182	0
40	0	0	2001	5	183	0
41	0	0	2049	5	185	0
42	0	0	2083	5	184	0
43	0	0	2082	5	184	0
44	0	0	2095	5	183	0
45	0	0	2149	5	185	0
46	0	0	2232	5	185	0
47	0	0	2280	5	185	0
48	0	0	2274	4	183	0
49	0	0	2243	4	184	0
50	0	0	2220	4	184	0
51	0	0	2173	4	183	0
52	0	0	2083	4	183	0
53	0	0	1984	4	183	0
54	0	0	1927	4	182	0
55	0	0	1925	4	184	0
56	0	0	1897	4	184	0
57	0	0	1879	4	184	0
58	0	0	1898	5	185	0
59	0	0	1924	5	185	0
60	0	0	1956	5	184	0
61	0	0	2027	5	185	0
62	0	0	2092	5	184	0
63	0	0	2131	5	184	0
64	0	0	2151	5	184	0
65	0	0	2154	5	184	0
66	0	0	2185	5	186	0
67	0	0	2219	5	183	0
68	0	0	2233	5	184	0
69	0	0	2210	4	184	0
70	0	0	2158	4	184	0
71	0	0	2117	4	185	0
72	0	0	2052	4	183	0
73	0	0	1992	4	185	0
74	0	0	1959	5	185	0
75	0	0	1937	4	185	0
76	0	0	1914	4	184	0
77	0	0	1908	4	182	0
78	0	0	1893	4	183	0
79	0	0	1902	5	183	0
80	0	0	1962	4	184	0
81	0	0	2046	5	185	0
82	0	0	2133	5	184	0
83	0	0	2199	4	185	0
84	0	0	2221	5	184	0
85	0	0	2244	5	183	0
86	0	0	2286	5	184	0
87	0	0	2291	5	184	0
88	0	0	2243	4	184	0
89	0	0	2167	4	184	0
90	0	0	2121	4	184	0
91	0	0	2093	4	184	0
92	0	0	2044	4	184	0
93	0	0	2003	4	184	0
94	0	0	1999	5	184	0
95	0	0	1976	4	183	0
96	0	0	1924	4	184	0
97	0	0	1889	4	185	0
98	0	0	1886	4	183	0
99	0	0	1897	4	182	0
100	0	0	1935	5	184	0
101	0	0	1991	4	183	0
102	0	0	2023	5	184	0
103	0	0	2044	5	184	0
104	0	0	2084	5	184	0
105	0	0	2130	5	184	0
106	0	0	2193	5	186	0
107	0	0	2223	5	186	0
108	0	0	2187	6	185	0
109	0	0	2131	4	184	0
110	0	0	2110	4	184	0
111	0	0	2115	5	185	0
112	0	0	2101	4	185	0
113	0	0	2035	4	183	0
114	0	0	1968	4	183	0
115	0	0	1916	4	184	0
116	0	0	1884	4	183	0
117	0	0	1900	5	183	0
118	0	0	1936	5	184	0
119	0	0	1965	5	184	0
120	0	0	1951	4	184	0
121	0	0	1925	5	184	0
122	0	0	1938	5	185	0
123	0	0	2023	5	185	0
124	0	0	2123	5	185	0
125	0	0	2174	5	184	0
126	0	0	2185	5	185	0
127	0	0	2157	4	183	0
0	0	0	2157	5	185	0
1	0	0	2163	4	184	0
2	0	0	2070	4	183	0
3	0	0	1974	4	183	0
4	0	0	1947	5	185	0
5	0	0	1930	4	183	0
6	0	0	1909	5	184	0
7	0	0	1904	5	184	0
8	0	0	1900	5	183	0
9	0	0	1899	5	186	0
10	0	0	1901	5	183	0
11	0	0	1909	4	182	0
12	0	0	1932	5	184	0
13	0	0	1989	4	184	0
14	0	0	2075	5	183	0
15	0	0	2130	5	185	0
16	0	0	2147	5	185	0
17	0	0	2153	5	185	0
18	0	0	2171	5	183	0
19	0	0	2155	5	184	0
20	0	0	2148	5	184	0
21	0	0	2126	5	184	0
22	0	0	2090	4	184	0
23	0	0	2045	4	184	0
24	0	0	2035	5	183	0
25	0	0	2010	4	185	0
26	0	0	1912	4	184	0
27	0	0	1815	4	184	0
28	0	0	1772	4	185	0
29	0	0	1778	5	185	0
30	0	0	1807	4	185	0
31	0	0	1869	4	184	0
32	0	0	1940	5	184	0
33	0	0	2002	5	184	0
34	0	0	2057	5	185	0
35	0	0	2134	5	185	0
36	0	0	2199	5	184	0
37	0	0	2221	5	184	0
38	0	0	2243	5	183	0
39	0	0	2241	5	184	0
40	0	0	2240	4	183	0
41	0	0	2199	3	184	0
42	0	0	2126	4	183	0
43	0	0	2040	4	184	0
44	0	0	1948	4	185	0
45	0	0	1855	4	184	0
46	0	0	1806	5	184	0
47	0	0	1825	5	183	0
48	0	0	1867	4	185	0
49	0	0	1902	4	184	0
50	0	0	1935	5	184	0
51	0	0	1966	5	184	0
52	0	0	2001	5	184	0
53	0	0	2059	5	185	0
54	0	0	2120	5	184	0
55	0	0	2152	5	183	0
56	0	0	2189	5	185	0
57	0	0	2221	5	183	0
58	0	0	2256	5	184	0
59	0	0	2287	5	183	0
60	0	0	2293	5	184	0
61	0	0	2287	5	184	0
62	0	0	2262	5	183	0
63	0	0	2224	4	184	0
64	0	0	2205	5	183	0
65	0	0	2185	4	184	0
66	0	0	2149	4	185	0
67	0	0	2111	4	183	0
68	0	0	2072	4	184	0
69	0	0	2076	5	183	0
70	0	0	2121	5	183	0
71	0	0	2182	5	184	0
72	0	0	2226	5	184	0
73	0	0	2251	4	184	0
74	0	0	2277	5	184	0
75	0	0	2308	5	184	0
76	0	0	2320	5	183	0
77	0	0	2344	5	184	0
78	0	0	2408	5	185	0
79	0	0	2441	5	184	0
80	0	0	2430	5	183	0
81	0	0	2380	4	185	0
82	0	0	2306	4	183	0
83	0	0	2230	4	183	0
84	0	0	2170	4	184	0
85	0	0	2136	4	185	0
86	0	0	2108	4	185	0
87	0	0	2122	5	184	0
88	0	0	2156	4	183	0
89	0	0	2182	5	184	0
90	0	0	2174	4	185	0
91	0	0	2137	3	183	0
92	0	0	2102	4	184	0
93	0	0	2073	5	184	0
94	0	0	2097	5	185	0
95	0	0	2173	5	183	0
96	0	0	2238	5	184	0
97	0	0	2295	5	183	0
98	0	0	2364	5	184	0
99	0	0	2364	5	183	0
100	0	0	2304	4	184	0
101	0	0	2215	3	184	0
102	0	0	2103	4	184	0
103	0	0	2018	4	183	0
104	0	0	1956	4	184	0
105	0	0	1884	4	183	0
106	0	0	1825	4	184	0
107	0	0	1786	4	184	0
108	0	0	1787	5	184	0
109	0	0	1828	5	185	0
110	0	0	1854	5	184	0
111	0	0	1889	4	182	0
112	0	0	1943	4	184	0
113	0	0	2012	5	183	0
114	0	0	2099	5	183	0
115	0	0	2156	5	184	0
116	0	0	2138	4	184	0
117	0	0	2108	4	184	0
118	0	0	2140	5	184	0
119	0	0	2164	5	184	0
120	0	0	2167	5	183	0
121	0	0	2114	3	184	0
122	0	0	2036	3	183	0
123	0	0	1955	4	184	0
124	0	0	1885	4	183	0
125	0	0	1862	5	184	0
126	0	0	1880	5	184	0
127	0	0	1883	4	184	0
0	0	0	1877	4	184	0
1	0	0	1906	5	184	0
2	0	0	1948	5	183	0
3	0	0	1979	5	185	0
4	0	0	1970	4	183	0
5	0	0	1937	4	184	0
6	0	0	1948	5	183	0
7	0	0	1983	5	183	0
8	0	0	2010	6	184	0
9	0	0	2082	5	184	0
10	0	0	2177	5	185	0
11	0	0	2225	5	183	0
12	0	0	2246	5	185	0
13	0	0	2231	3	185	0
14	0	0	2153	4	183	0
15	0	0	2063	4	184	0
16	0	0	2010	4	184	0
17	0	0	1991	4	183	0
18	0	0	1968	4	184	0
19	0	0	1938	4	183	0
20	0	0	1879	3	184	0
21	0	0	1815	4	184	0
22	0	0	1782	5	183	0
23	0	0	1799	4	184	0
24	0	0	1873	5	183	0
25	0	0	1972	5	185	0
26	0	0	2068	5	182	0
27	0	0	2122	5	184	0
28	0	0	2155	4	184	0
29	0	0	2220	5	184	0
30	0	0	2274	5	184	0
31	0	0	2227	4	183	0
32	0	0	2170	4	185	0
33	0	0	2134	6	183	0
34	0	0	2076	4	185	0
35	0	0	2025	4	183	0
36	0	0	1979	4	184	0
37	0	0	1949	4	183	0
38	0	0	1919	3	183	0
39	0	0	1887	4	184	0
40	0	0	1879	5	183	0
41	0	0	1894	5	185	0
42	0	0	1940	5	185	0
43	0	0	2007	5	183	0
44	0	0	2054	4	183	0
45	0	0	2045	5	184	0
46	0	0	2071	5	182	0
47	0	0	2143	5	184	0
48	0	0	2197	4	184	0
49	0	0	2179	4	183	0
50	0	0	2170	5	185	0
51	0	0	2143	4	184	0
52	0	0	2105	5	183	0
53	0	0	2081	4	185	0
54	0	0	2030	4	183	0
55	0	0	1996	4	183	0
56	0	0	1978	4	183	0
57	0	0	1978	5	184	0
58	0	0	1974	4	184	0
59	0	0	1923	4	184	0
60	0	0	1864	4	184	0
61	0	0	1846	5	183	0
62	0	0	1876	5	184	0
63	0	0	1929	5	183	0
64	0	0	1993	5	184	0
65	0	0	2068	5	184	0
66	0	0	2112	5	183	0
67	0	0	2116	5	184	0
68	0	0	2136	5	183	0
69	0	0	2185	4	184	0
70	0	0	2236	5	185	0
71	0	0	2257	5	184	0
72	0	0	2241	4	184	0
73	0	0	2229	5	184	0
74	0	0	2191	4	185	0
75	0	0	2125	4	185	0
76	0	0	2043	4	184	0
77	0	0	1992	4	184	0
78	0	0	1947	5	184	0
79	0	0	1920	4	184	0
80	0	0	1881	4	184	0
81	0	0	1871	5	183	0
82	0	0	1923	5	184	0
83	0	0	2008	5	184	0
84	0	0	2067	5	184	0
85	0	0	2058	4	183	0
86	0	0	2031	4	183	0
87	0	0	2036	5	183	0
88	0	0	2070	5	184	0
89	0	0	2132	5	184	0
90	0	0	2228	5	183	0
91	0	0	2282	5	184	0
92	0	0	2282	5	184	0
93	0	0	2248	4	183	0
94	0	0	2147	4	185	0
95	0	0	2042	4	184	0
96	0	0	1997	5	183	0
97	0	0	2018	4	184	0
98	0	0	2044	5	184	0
99	0	0	2038	4	184	0
100	0	0	1999	4	184	0
101	0	0	1970	4	184	0
102	0	0	1955	4	185	0
103	0	0	1941	5	184	0
104	0	0	1959	5	185	0
105	0	0	2001	4	184	0
106	0	0	2076	5	183	0
107	0	0	2139	5	184	0
108	0	0	2193	5	184	0
109	0	0	2245	4	185	0
110	0	0	2266	5	184	0
111	0	0	2257	5	182	0
112	0	0	2248	4	183	0
113	0	0	2238	5	185	0
114	0	0	2219	4	184	0
115	0	0	2193	4	184	0
116	0	0	2152	4	185	0
117	0	0	2101	4	184	0
118	0	0	2059	4	184	0
119	0	0	2028	4	184	0
120	0	0	2005	4	184	0
121	0	0	2010	5	184	0
122	0	0	2043	5	184	0
123	0	0	2079	5	185	0
124	0	0	2083	4	183	0
125	0	0	2078	5	184	0
126	0	0	2073	5	184	0
127	0	0	2093	5	185	0
0	0	0	2155	5	184	0
1	0	0	2234	4	185	0
2	0	0	2296	5	184	0
3	0	0	2308	5	184	0
4	0	0	2316	5	183	0
5	0	0	2324	5	184	0
6	0	0	2250	4	184	0
7	0	0	2151	3	184	0
8	0	0	2077	4	184	0
9	0	0	2020	5	184	0
10	0	0	2010	5	184	0
11	0	0	2036	4	184	0
12	0	0	2032	5	184	0
13	0	0	2038	5	181	0
14	0	0	2053	4	183	0
15	0	0	2078	4	184	0
16	0	0	2165	4	185	0
17	0	0	2257	5	184	0
18	0	0	2316	5	184	0
19	0	0	2360	5	184	0
20	0	0	2391	5	183	0
21	0	0	2380	5	184	0
22	0	0	2386	5	183	0
23	0	0	2352	4	184	0
24	0	0	2307	4	184	0
25	0	0	2268	4	184	0
26	0	0	2241	4	185	0
27	0	0	2181	4	184	0
28	0	0	2101	4	183	0
29	0	0	2064	5	183	0
30	0	0	2044	4	183	0
31	0	0	2004	4	184	0
32	0	0	1942	4	183	0
33	0	0	1922	5	184	0
34	0	0	1950	5	184	0
35	0	0	1956	5	185	0
36	0	0	1942	3	183	0
37	0	0	1962	5	184	0
38	0	0	2058	5	183	0
39	0	0	2151	5	185	0
40	0	0	2185	5	184	0
41	0	0	2179	4	183	0
42	0	0	2188	5	185	0
43	0	0	2193	4	182	0
44	0	0	2154	4	185	0
45	0	0	2140	4	183	0
46	0	0	2106	4	185	0
47	0	0	2072	4	184	0
48	0	0	2082	4	185	0
49	0	0	2080	4	183	0
50	0	0	2020	4	184	0
51	0	0	1947	4	184	0
52	0	0	1854	4	183	0
53	0	0	1790	4	184	0
54	0	0	1758	4	184	0
55	0	0	1768	5	184	0
56	0	0	1799	5	183	0
57	0	0	1861	5	184	0
58	0	0	1993	4	184	0
59	0	0	2119	5	185	0
60	0	0	2186	6	185	0
61	0	0	2208	4	184	0
62	0	0	2241	5	185	0
63	0	0	2240	4	183	0
64	0	0	2185	4	184	0
65	0	0	2146	4	183	0
66	0	0	2098	4	184	0
67	0	0	2028	4	184	0
68	0	0	1939	4	183	0
69	0	0	1869	4	184	0
70	0	0	1803	4	183	0
71	0	0	1732	4	184	0
72	0	0	1687	4	185	0
73	0	0	1698	5	185	0
74	0	0	1760	5	185	0
75	0	0	1813	5	185	0
76	0	0	1875	5	183	0
77	0	0	1961	6	184	0
78	0	0	2006	5	183	0
79	0	0	1993	4	185	0
80	0	0	1960	4	183	0
81	0	0	1958	5	183	0
82	0	0	2019	5	185	0
83	0	0	2068	5	185	0
84	0	0	2075	5	185	0
85	0	0	2057	4	183	0
86	0	0	1994	4	184	0
87	0	0	1948	4	184	0
88	0	0	1890	4	183	0
89	0	0	1813	4	184	0
90	0	0	1779	4	184	0
91	0	0	1787	4	183	0
92	0	0	1749	4	184	0
93	0	0	1705	4	183	0
94	0	0	1688	4	184	0
95	0	0	1717	5	186	0
96	0	0	1787	5	185	0
97	0	0	1847	5	184	0
98	0	0	1894	5	184	0
99	0	0	1932	5	184	0
100	0	0	1967	5	184	0
101	0	0	1993	5	183	0
102	0	0	2040	5	185	0
103	0	0	2058	5	184	0
104	0	0	2071	5	185	0
105	0	0	2064	4	183	0
106	0	0	2006	4	184	0
107	0	0	1921	4	185	0
108	0	0	1851	4	184	0
109	0	0	1808	4	183	0
110	0	0	1805	5	183	0
111	0	0	1828	5	184	0
112	0	0	1836	5	184	0
113	0	0	1820	4	184	0
114	0	0	1793	4	183	0
115	0	0	1800	5	184	0
116	0	0	1830	5	185	0
117	0	0	1883	5	184	0
118	0	0	1949	5	184	0
119	0	0	2014	5	183	0
120	0	0	2072	5	184	0
121	0	0	2110	5	185	0
122	0	0	2140	4	185	0
123	0	0	2128	4	184	0
124	0	0	2095	4	183	0
125	0	0	2066	4	181	0
126	0	0	2032	5	184	0
127	0	0	1985	4	185	0
0	0	0	1911	4	184	0
1	0	0	1857	4	183	0
2	0	0	1818	4	185	0
3	0	0	1795	4	185	0
4	0	0	1780	5	184	0
5	0	0	1803	5	184	0
6	0	0	1841	5	185	0
7	0	0	1873	5	184	0
8	0	0	1889	5	184	0
9	0	0	1886	5	184	0
10	0	0	1901	5	185	0
11	0	0	1919	5	184	0
12	0	0	1960	5	183	0
13	0	0	2030	5	184	0
14	0	0	2100	5	185	0
15	0	0	2144	5	185	0
16	0	0	2163	5	185	0
17	0	0	2156	5	184	0
18	0	0	2103	4	184	0
19	0	0	2009	4	183	0
20	0	0	1945	4	184	0
21	0	0	1914	4	183	0
22	0	0	1893	4	183	0
23	0	0	1847	4	184	0
24	0	0	1814	4	184	0
25	0	0	1806	5	185	0
26	0	0	1836	5	183	0
27	0	0	1861	5	183	0
28	0	0	1870	5	184	0
29	0	0	1922	5	182	0
30	0	0	2011	5	184	0
31	0	0	2090	5	184	0
32	0	0	2106	5	183	0
33	0	0	2092	5	185	0
34	0	0	2134	5	185	0
35	0	0	2187	5	184	0
36	0	0	2210	5	183	0
37	0	0	2174	4	184	0
38	0	0	2090	4	184	0
39	0	0	2010	4	183	0
40	0	0	1969	4	185	0
41	0	0	1933	4	183	0
42	0	0	1891	4	184	0
43	0	0	1854	4	184	0
44	0	0	1819	4	184	0
45	0	0	1817	4	183	0
46	0	0	1830	4	185	0
47	0	0	1847	5	185	0
48	0	0	1877	5	183	0
49	0	0	1933	5	183	0
50	0	0	2003	5	185	0
51	0	0	2088	5	186	0
52	0	0	2176	4	185	0
53	0	0	2255	5	183	0
54	0	0	2304	4	184	0
55	0	0	2293	4	185	0
56	0	0	2254	4	184	0
57	0	0	2208	4	184	0
58	0	0	2139	4	184	0
59	0	0	2066	4	183	0
60	0	0	2000	4	184	0
61	0	0	1970	4	185	0
62	0	0	1953	4	184	0
63	0	0	1921	5	184	0
64	0	0	1851	4	183	0
65	0	0	1803	4	183	0
66	0	0	1791	4	183	0
67	0	0	1790	5	185	0
68	0	0	1832	5	182	0
69	0	0	1915	4	184	0
70	0	0	2009	5	185	0
71	0	0	2089	5	184	0
72	0	0	2143	5	185	0
73	0	0	2190	5	184	0
74	0	0	2247	5	184	0
75	0	0	2259	5	184	0
76	0	0	2223	4	184	0
77	0	0	2178	4	183	0
78	0	0	2147	4	185	0
79	0	0	2103	4	183	0
80	0	0	2036	4	185	0
81	0	0	1976	4	183	0
82	0	0	1935	4	184	0
83	0	0	1901	4	183	0
84	0	0	1829	4	183	0
85	0	0	1772	4	184	0
86	0	0	1788	5	184	0
87	0	0	1867	5	184	0
88	0	0	1959	5	183	0
89	0	0	2006	5	184	0
90	0	0	2018	5	185	0
91	0	0	2065	5	184	0
92	0	0	2147	5	183	0
93	0	0	2205	5	184	0
94	0	0	2263	5	185	0
95	0	0	2297	5	183	0
96	0	0	2289	4	184	0
97	0	0	2241	5	184	0
98	0	0	2129	5	184	0
99	0	0	2003	4	184	0
100	0	0	1925	4	183	0
101	0	0	1897	5	183	0
102	0	0	1899	5	184	0
103	0	0	1872	4	185	0
104	0	0	1826	3	184	0
105	0	0	1793	4	184	0
106	0	0	1822	5	184	0
107	0	0	1895	5	185	0
108	0	0	1962	6	183	0
109	0	0	1992	5	183	0
110	0	0	2017	5	184	0
111	0	0	2077	5	184	0
112	0	0	2159	5	183	0
113	0	0	2221	5	185	0
114	0	0	2266	5	184	0
115	0	0	2253	4	185	0
116	0	0	2201	4	185	0
117	0	0	2148	4	185	0
118	0	0	2095	4	184	0
119	0	0	2058	4	184	0
120	0	0	2047	4	184	0
121	0	0	2012	4	184	0
122	0	0	1958	4	184	0
123	0	0	1910	4	184	0
124	0	0	1869	4	183	0
125	0	0	1858	4	183	0
126	0	0	1861	4	183	0
127	0	0	1863	3	184	0
0	0	0	1883	5	184	0
1	0	0	1916	5	185	0
2	0	0	1972	5	184	0
3	0	0	2036	5	184	0
4	0	0	2102	5	183	0
5	0	0	2158	3	184	0
6	0	0	2203	5	184	0
7	0	0	2213	5	185	0
8	0	0	2173	4	183	0
9	0	0	2127	4	184	0
10	0	0	2059	3	184	0
11	0	0	1980	3	183	0
12	0	0	1946	4	184	0
13	0	0	1918	5	184	0
14	0	0	1878	4	184	0
15	0	0	1834	4	184	0
16	0	0	1795	4	185	0
17	0	0	1810	5	183	0
18	0	0	1858	4	185	0
19	0	0	1916	5	184	0
20	0	0	1954	4	184	0
21	0	0	1981	5	183	0
22	0	0	2019	5	185	0
23	0	0	2081	5	184	0
24	0	0	2128	5	184	0
25	0	0	2166	3	185	0
26	0	0	2209	4	184	0
27	0	0	2241	5	185	0
28	0	0	2247	5	185	0
29	0	0	2195	4	184	0
30	0	0	2089	5	183	0
31	0	0	2017	4	185	0
32	0	0	1995	4	185	0
33	0	0	1973	4	183	0
34	0	0	1957	4	185	0
35	0	0	1955	5	184	0
36	0	0	1922	4	183	0
37	0	0	1914	5	183	0
38	0	0	1914	5	183	0
39	0	0	1888	4	184	0
40	0	0	1894	4	185	0
41	0	0	1912	4	184	0
42	0	0	1931	5	184	0
43	0	0	1981	5	184	0
44	0	0	2026	5	184	0
45	0	0	2089	5	185	0
46	0	0	2182	5	184	0
47	0	0	2211	5	184	0
48	0	0	2192	4	184	0
49	0	0	2184	5	184	0
50	0	0	2136	5	184	0
51	0	0	2065	4	185	0
52	0	0	2028	4	184	0
53	0	0	2003	4	184	0
54	0	0	1953	4	183	0
55	0	0	1908	3	183	0
56	0	0	1893	5	184	0
57	0	0	1914	5	184	0
58	0	0	1935	5	185	0
59	0	0	1927	4	183	0
60	0	0	1917	4	184	0
61	0	0	1933	5	184	0
62	0	0	1999	5	184	0
63	0	0	2057	5	185	0
64	0	0	2083	5	183	0
65	0	0	2112	4	184	0
66	0	0	2149	5	184	0
67	0	0	2163	5	184	0
68	0	0	2160	4	183	0
69	0	0	2152	5	183	0
70	0	0	2122	4	183	0
71	0	0	2070	4	183	0
72	0	0	2023	4	183	0
73	0	0	2015	5	184	0
74	0	0	2017	4	183	0
75	0	0	2018	5	183	0
76	0	0	1984	4	185	0
77	0	0	1936	4	185	0
78	0	0	1895	4	184	0
79	0	0	1871	4	184	0
80	0	0	1879	5	183	0
81	0	0	1907	5	185	0
82	0	0	1958	5	183	0
83	0	0	2003	5	184	0
84	0	0	2059	5	184	0
85	0	0	2130	5	185	0
86	0	0	2227	5	185	0
87	0	0	2291	5	184	0
88	0	0	2285	4	185	0
89	0	0	2234	4	184	0
90	0	0	2184	4	183	0
91	0	0	2112	4	185	0
92	0	0	2031	4	185	0
93	0	0	1989	5	184	0
94	0	0	1943	5	184	0
95	0	0	1858	4	185	0
96	0	0	1736	4	184	0
97	0	0	1664	4	184	0
98	0	0	1691	5	184	0
99	0	0	1802	6	184	0
100	0	0	1911	5	184	0
101	0	0	1980	5	185	0
102	0	0	2012	5	184	0
103	0	0	2060	5	183	0
104	0	0	2127	5	182	0
105	0	0	2169	6	185	0
106	0	0	2209	5	184	0
107	0	0	2242	5	184	0
108	0	0	2239	4	184	0
109	0	0	2207	3	183	0
110	0	0	2198	5	183	0
111	0	0	2184	4	184	0
112	0	0	2126	4	185	0
113	0	0	2043	4	184	0
114	0	0	1973	4	184	0
115	0	0	1898	5	184	0
116	0	0	1801	4	184	0
117	0	0	1772	5	185	0
118	0	0	1824	5	184	0
119	0	0	1868	5	185	0
120	0	0	1877	5	183	0
121	0	0	1896	5	183	0
122	0	0	1954	5	184	0
123	0	0	2035	4	185	0
124	0	0	2123	6	185	0
125	0	0	2178	5	185	0
126	0	0	2235	5	185	0
127	0	0	2253	5	184	0
0	0	0	2211	4	184	0
1	0	0	2160	4	184	0
2	0	0	2107	4	183	0
3	0	0	2042	4	183	0
4	0	0	2000	4	183	0
5	0	0	1981	4	183	0
6	0	0	1942	4	185	0
7	0	0	1903	4	184	0
8	0	0	1891	4	184	0
9	0	0	1895	5	185	0
10	0	0	1917	5	185	0
11	0	0	1928	5	184	0
12	0	0	1911	4	184	0
13	0	0	1913	5	184	0
14	0	0	1956	5	184	0
15	0	0	2025	5	183	0
16	0	0	2071	4	184	0
17	0	0	2112	5	184	0
18	0	0	2189	5	183	0
19	0	0	2237	5	184	0
20	0	0	2279	4	185	0
21	0	0	2285	4	184	0
22	0	0	2212	5	184	0
23	0	0	2111	4	185	0
24	0	0	2014	4	185	0
25	0	0	1966	4	183	0
26	0	0	1948	4	184	0
27	0	0	1911	5	183	0
28	0	0	1853	4	184	0
29	0	0	1850	5	183	0
30	0	0	1882	5	184	0
31	0	0	1907	5	183	0
32	0	0	1942	5	184	0
33	0	0	1976	5	183	0
34	0	0	1992	5	185	0
35	0	0	2001	5	184	0
36	0	0	2041	5	183	0
37	0	0	2092	5	184	0
38	0	0	2155	5	184	0
39	0	0	2180	5	185	0
40	0	0	2182	5	183	0
41	0	0	2175	5	185	0
42	0	0	2129	5	184	0
43	0	0	2060	4	184	0
44	0	0	2019	4	184	0
45	0	0	1980	4	184	0
46	0	0	1935	6	184	0
47	0	0	1905	4	182	0
48	0	0	1870	4	184	0
49	0	0	1873	5	184	0
50	0	0	1921	4	184	0
51	0	0	1962	5	183	0
52	0	0	1992	5	184	0
53	0	0	2032	5	183	0
54	0	0	2083	5	183	0
55	0	0	2129	5	185	0
56	0	0	2150	5	184	0
57	0	0	2140	5	183	0
58	0	0	2177	5	184	0
59	0	0	2194	5	185	0
60	0	0	2157	4	184	0
61	0	0	2109	4	185	0
62	0	0	2099	6	184	0
63	0	0	2120	5	184	0
64	0	0	2126	5	183	0
65	0	0	2116	4	183	0
66	0	0	2066	4	184	0
67	0	0	1993	4	183	0
68	0	0	1931	4	184	0
69	0	0	1877	4	183	0
70	0	0	1859	4	185	0
71	0	0	1880	5	183	0
72	0	0	1916	5	183	0
73	0	0	1971	4	184	0
74	0	0	2043	5	184	0
75	0	0	2126	5	184	0
76	0	0	2177	5	184	0
77	0	0	2196	6	184	0
78	0	0	2232	5	183	0
79	0	0	2274	5	185	0
80	0	0	2277	5	183	0
81	0	0	2254	5	183	0
82	0	0	2221	4	183	0
83	0	0	2168	4	184	0
84	0	0	2099	4	185	0
85	0	0	2019	4	185	0
86	0	0	1957	4	184	0
87	0	0	1924	4	183	0
88	0	0	1876	4	185	0
89	0	0	1861	5	184	0
90	0	0	1901	4	183	0
91	0	0	1961	5	184	0
92	0	0	2000	6	184	0
93	0	0	2022	5	184	0
94	0	0	2074	5	184	0
95	0	0	2139	5	185	0
96	0	0	2190	5	185	0
97	0	0	2213	5	184	0
98	0	0	2256	4	185	0
99	0	0	2278	5	184	0
100	0	0	2242	4	185	0
101	0	0	2207	4	184	0
102	0	0	2175	4	184	0
103	0	0	2099	5	184	0
104	0	0	2010	5	183	0
105	0	0	1975	4	185	0
106	0	0	1964	4	185	0
107	0	0	1955	4	183	0
108	0	0	1912	3	185	0
109	0	0	1884	4	184	0
110	0	0	1885	5	184	0
111	0	0	1899	5	184	0
112	0	0	1923	5	184	0
113	0	0	1952	5	184	0
114	0	0	2006	5	185	0
115	0	0	2070	5	184	0
116	0	0	2118	5	184	0
117	0	0	2162	5	185	0
118	0	0	2225	5	185	0
119	0	0	2255	5	184	0
120	0	0	2227	4	184	0
121	0	0	2196	4	183	0
122	0	0	2144	4	184	0
123	0	0	2075	4	183	0
124	0	0	2009	4	184	0
125	0	0	1970	3	183	0
126	0	0	1960	5	185	0
127	0	0	1936	4	184	0
0	0	0	1888	5	184	0
1	0	0	1846	4	185	0
2	0	0	1822	4	185	0
3	0	0	1860	5	183	0
4	0	0	1907	5	184	0
5	0	0	1942	4	184	0
6	0	0	1959	5	184	0
7	0	0	1953	5	185	0
8	0	0	1997	5	183	0
9	0	0	2069	6	183	0
10	0	0	2149	6	184	0
11	0	0	2216	5	183	0
12	0	0	2253	5	185	0
13	0	0	2259	5	183	0
14	0	0	2217	5	184	0
15	0	0	2134	4	183	0
16	0	0	2012	4	183	0
17	0	0	1937	3	184	0
18	0	0	1899	3	183	0
19	0	0	1881	4	185	0
20	0	0	1845	3	185	0
21	0	0	1818	5	183	0
22	0	0	1841	5	184	0
23	0	0	1896	5	183	0
24	0	0	1941	5	183	0
25	0	0	1979	5	183	0
26	0	0	1996	5	185	0
27	0	0	2011	5	184	0
28	0	0	2051	5	185	0
29	0	0	2099	5	184	0
30	0	0	2170	5	185	0
31	0	0	2219	5	184	0
32	0	0	2219	5	184	0
33	0	0	2200	4	184	0
34	0	0	2140	4	183	0
35	0	0	2073	4	184	0
36	0	0	2016	4	183	0
37	0	0	1954	4	184	0
38	0	0	1892	5	183	0
39	0	0	1852	4	183	0
40	0	0	1809	4	183	0
41	0	0	1816	5	183	0
42	0	0	1858	5	184	0
43	0	0	1882	5	184	0
44	0	0	1922	5	184	0
45	0	0	1967	5	183	0
46	0	0	2000	5	185	0
47	0	0	2037	5	185	0
48	0	0	2071	5	185	0
49	0	0	2112	5	184	0
50	0	0	2169	6	183	0
51	0	0	2210	5	185	0
52	0	0	2223	5	183	0
53	0	0	2215	5	183	0
54	0	0	2160	4	183	0
55	0	0	2095	5	183	0
56	0	0	2066	4	183	0
57	0	0	2069	5	183	0
58	0	0	2025	5	184	0
59	0	0	1955	4	183	0
60	0	0	1871	5	183	0
61	0	0	1794	4	183	0
62	0	0	1781	4	184	0
63	0	0	1818	5	184	0
64	0	0	1892	5	183	0
65	0	0	1974	5	184	0
66	0	0	2042	5	184	0
67	0	0	2116	5	183	0
68	0	0	2154	5	183	0
69	0	0	2173	5	184	0
70	0	0	2233	4	184	0
71	0	0	2298	5	184	0
72	0	0	2328	5	184	0
73	0	0	2321	5	183	0
74	0	0	2287	4	185	0
75	0	0	2225	4	183	0
76	0	0	2155	4	184	0
77	0	0	2098	5	183	0
78	0	0	2058	4	184	0
79	0	0	2020	4	183	0
80	0	0	1995	5	183	0
81	0	0	2020	5	183	0
82	0	0	2081	4	183	0
83	0	0	2130	5	184	0
84	0	0	2172	5	183	0
85	0	0	2212	5	185	0
86	0	0	2278	5	184	0
87	0	0	2346	5	184	0
88	0	0	2381	5	183	0
89	0	0	2402	5	184	0
90	0	0	2424	4	185	0
91	0	0	2452	5	184	0
92	0	0	2469	6	183	0
93	0	0	2461	5	185	0
94	0	0	2390	4	182	0
95	0	0	2269	4	184	0
96	0	0	2166	4	183	0
97	0	0	2101	4	182	0
98	0	0	2101	5	183	0
99	0	0	2140	5	184	0
100	0	0	2127	4	184	0
101	0	0	2074	4	184	0
102	0	0	2018	4	185	0
103	0	0	1996	5	184	0
104	0	0	2025	5	185	0
105	0	0	2086	4	184	0
106	0	0	2135	5	185	0
107	0	0	2163	5	184	0
108	0	0	2153	5	185	0
109	0	0	2124	4	185	0
110	0	0	2126	4	184	0
111	0	0	2130	4	184	0
112	0	0	2153	4	184	0
113	0	0	2162	4	183	0
114	0	0	2085	4	184	0
115	0	0	1988	4	184	0
116	0	0	1909	4	184	0
117	0	0	1876	4	183	0
118	0	0	1887	5	184	0
119	0	0	1861	4	184	0
120	0	0	1796	3	184	0
121	0	0	1759	4	183	0
122	0	0	1792	5	184	0
123	0	0	1864	5	183	0
124	0	0	1932	4	185	0
125	0	0	1965	5	184	0
126	0	0	1980	5	183	0
127	0	0	2003	4	185	0
0	0	0	2035	4	184	0
1	0	0	2064	5	185	0
2	0	0	2112	4	184	0
3	0	0	2147	5	185	0
4	0	0	2159	5	184	0
5	0	0	2148	4	185	0
6	0	0	2086	5	183	0
7	0	0	2018	4	184	0
8	0	0	1965	4	184	0
9	0	0	1905	5	184	0
10	0	0	1854	4	184	0
11	0	0	1815	4	182	0
12	0	0	1783	4	184	0
13	0	0	1794	5	183	0
14	0	0	1828	4	184	0
15	0	0	1872	5	183	0
16	0	0	1910	5	184	0
17	0	0	1947	4	184	0
18	0	0	1992	5	185	0
19	0	0	2057	5	184	0
20	0	0	2107	5	185	0
21	0	0	2125	5	185	0
22	0	0	2165	4	185	0
23	0	0	2214	5	184	0
24	0	0	2217	5	184	0
25	0	0	2148	4	185	0
26	0	0	2030	3	184	0
27	0	0	1926	3	183	0
28	0	0	1845	4	183	0
29	0	0	1814	4	183	0
30	0	0	1813	5	184	0
31	0	0	1814	5	184	0
32	0	0	1789	3	185	0
33	0	0	1777	4	183	0
34	0	0	1799	5	185	0
35	0	0	1840	4	183	0
36	0	0	1871	5	183	0
37	0	0	1893	4	184	0
38	0	0	1949	5	183	0
39	0	0	2016	5	185	0
40	0	0	2034	5	184	0
41	0	0	2034	5	183	0
42	0	0	2077	4	184	0
43	0	0	2112	4	183	0
44	0	0	2106	5	184	0
45	0	0	2086	4	184	0
46	0	0	2072	4	184	0
47	0	0	2050	3	183	0
48	0	0	2005	4	183	0
49	0	0	1950	5	183	0
50	0	0	1922	4	184	0
51	0	0	1901	4	184	0
52	0	0	1860	4	184	0
53	0	0	1834	4	184	0
54	0	0	1857	5	184	0
55	0	0	1898	4	184	0
56	0	0	1932	5	184	0
57	0	0	1935	4	185	0
58	0	0	1935	5	184	0
59	0	0	1959	5	183	0
60	0	0	1992	5	184	0
61	0	0	2011	5	184	0
62	0	0	2052	5	184	0
63	0	0	2111	5	184	0
64	0	0	2170	5	183	0
65	0	0	2184	4	184	0
66	0	0	2130	4	183	0
67	0	0	2068	4	184	0
68	0	0	2008	4	184	0
69	0	0	1983	4	184	0
70	0	0	1971	4	184	0
71	0	0	1955	4	183	0
72	0	0	1917	4	184	0
73	0	0	1878	4	183	0
74	0	0	1883	4	184	0
75	0	0	1906	4	183	0
76	0	0	1937	5	182	0
77	0	0	1966	5	183	0
78	0	0	1963	5	184	0
79	0	0	1972	5	184	0
80	0	0	1998	5	185	0
81	0	0	2027	5	183	0
82	0	0	2096	4	185	0
83	0	0	2163	5	183	0
84	0	0	2173	5	183	0
85	0	0	2148	5	184	0
86	0	0	2098	4	184	0
87	0	0	2040	4	184	0
88	0	0	1988	4	183	0
89	0	0	1923	4	183	0
90	0	0	1877	5	184	0
91	0	0	1859	4	183	0
92	0	0	1840	3	184	0
93	0	0	1853	5	184	0
94	0	0	1908	5	184	0
95	0	0	1956	5	185	0
96	0	0	1962	4	184	0
97	0	0	1943	3	184	0
98	0	0	1966	5	184	0
99	0	0	2018	5	184	0
100	0	0	2049	5	183	0
101	0	0	2076	5	185	0
102	0	0	2124	5	184	0
103	0	0	2166	5	183	0
104	0	0	2153	4	184	0
105	0	0	2144	5	184	0
106	0	0	2128	4	183	0
107	0	0	2107	4	183	0
108	0	0	2062	4	183	0
109	0	0	1990	4	184	0
110	0	0	1959	4	184	0
111	0	0	1944	4	184	0
112	0	0	1909	3	183	0
113	0	0	1908	5	184	0
114	0	0	1915	5	184	0
115	0	0	1928	5	183	0
116	0	0	1969	5	183	0
117	0	0	2017	5	184	0
118	0	0	2028	5	184	0
119	0	0	2018	5	184	0
120	0	0	2036	4	182	0
121	0	0	2079	5	185	0
122	0	0	2124	3	184	0
123	0	0	2164	5	183	0
124	0	0	2223	5	185	0
125	0	0	2243	4	185	0
126	0	0	2204	4	183	0
127	0	0	2147	4	185	0
0	0	0	2093	4	183	0
1	0	0	2051	4	183	0
2	0	0	2017	4	183	0
3	0	0	2002	5	183	0
4	0	0	1989	4	183	0
5	0	0	1997	5	183	0
6	0	0	2028	5	184	0
7	0	0	2095	5	185	0
8	0	0	2180	5	184	0
9	0	0	2199	5	184	0
10	0	0	2204	5	184	0
11	0	0	2198	4	183	0
12	0	0	2163	5	185	0
13	0	0	2142	5	183	0
14	0	0	2174	4	184	0
15	0	0	2201	5	183	0
16	0	0	2191	5	183	0
17	0	0	2179	4	184	0
18	0	0	2142	5	184	0
19	0	0	2100	4	184	0
20	0	0	2060	4	184	0
21	0	0	2040	4	184	0
22	0	0	2027	4	184	0
23	0	0	2016	4	185	0
24	0	0	1975	4	184	0
25	0	0	1976	5	183	0
26	0	0	1997	5	185	0
27	0	0	1992	5	184	0
28	0	0	2035	5	184	0
29	0	0	2089	4	183	0
30	0	0	2117	5	184	0
31	0	0	2132	5	184	0
32	0	0	2135	5	184	0
33	0	0	2183	5	184	0
34	0	0	2257	5	185	0
35	0	0	2294	5	184	0
36	0	0	2264	3	183	0
37	0	0	2211	4	184	0
38	0	0	2163	4	184	0
39	0	0	2141	3	184	0
40	0	0	2135	5	185	0
41	0	0	2088	5	184	0
42	0	0	2027	4	185	0
43	0	0	1966	4	184	0
44	0	0	1899	4	184	0
45	0	0	1868	5	184	0
46	0	0	1897	5	185	0
47	0	0	1936	5	184	0
48	0	0	1978	4	185	0
49	0	0	2004	4	184	0
50	0	0	2019	5	184	0
51	0	0	2065	5	184	0
52	0	0	2131	5	185	0
53	0	0	2172	5	184	0
54	0	0	2214	5	183	0
55	0	0	2243	5	184	0
56	0	0	2226	4	184	0
57	0	0	2202	4	185	0
58	0	0	2157	4	184	0
59	0	0	2074	4	183	0
60	0	0	2004	4	184	0
61	0	0	1940	4	184	0
62	0	0	1905	4	185	0
63	0	0	1891	4	186	0
64	0	0	1865	4	184	0
65	0	0	1868	5	184	0
66	0	0	1881	5	184	0
67	0	0	1898	5	185	0
68	0	0	1909	5	184	0
69	0	0	1947	5	184	0
70	0	0	2008	5	184	0
71	0	0	2057	5	184	0
72	0	0	2083	5	185	0
73	0	0	2093	4	183	0
74	0	0	2131	5	183	0
75	0	0	2180	5	185	0
76	0	0	2156	4	184	0
77	0	0	2085	4	185	0
78	0	0	1992	4	184	0
79	0	0	1915	4	184	0
80	0	0	1867	4	184	0
81	0	0	1875	5	184	0
82	0	0	1904	5	182	0
83	0	0	1894	4	183	0
84	0	0	1843	4	183	0
85	0	0	1796	4	185	0
86	0	0	1766	4	184	0
87	0	0	1768	5	184	0
88	0	0	1824	5	184	0
89	0	0	1899	5	184	0
90	0	0	1955	5	184	0
91	0	0	1962	4	186	0
92	0	0	1972	5	183	0
93	0	0	1994	5	185	0
94	0	0	2043	4	184	0
95	0	0	2090	4	184	0
96	0	0	2072	5	185	0
97	0	0	2027	4	184	0
98	0	0	1966	4	184	0
99	0	0	1910	4	184	0
100	0	0	1866	4	184	0
101	0	0	1854	5	184	0
102	0	0	1866	5	183	0
103	0	0	1874	5	184	0
104	0	0	1838	4	184	0
105	0	0	1779	4	184	0
106	0	0	1732	4	184	0
107	0	0	1712	4	184	0
108	0	0	1737	4	184	0
109	0	0	1760	5	184	0
110	0	0	1811	5	185	0
111	0	0	1874	5	184	0
112	0	0	1915	5	184	0
113	0	0	1951	5	184	0
114	0	0	2017	5	185	0
115	0	0	2073	4	184	0
116	0	0	2073	4	183	0
117	0	0	2057	4	184	0
118	0	0	2032	3	184	0
119	0	0	1983	4	183	0
120	0	0	1922	4	183	0
121	0	0	1833	4	183	0
122	0	0	1749	5	184	0
123	0	0	1681	4	184	0
124	0	0	1654	4	184	0
125	0	0	1671	6	185	0
126	0	0	1712	5	185	0
127	0	0	1772	5	184	0
0	0	0	1834	5	184	0
1	0	0	1856	5	185	0
2	0	0	1884	5	183	0
3	0	0	1941	4	185	0
4	0	0	1987	5	185	0
5	0	0	2029	4	184	0
6	0	0	2089	5	185	0
7	0	0	2131	5	185	0
8	0	0	2134	5	185	0
9	0	0	2126	6	184	0
10	0	0	2132	5	185	0
11	0	0	2090	4	184	0
12	0	0	2012	4	184	0
13	0	0	1928	4	184	0
14	0	0	1839	5	183	0
15	0	0	1755	4	184	0
16	0	0	1693	4	183	0
17	0	0	1671	4	185	0
18	0	0	1682	5	184	0
19	0	0	1715	5	183	0
20	0	0	1794	4	184	0
21	0	0	1874	5	183	0
22	0	0	1947	5	183	0
23	0	0	2012	4	183	0
24	0	0	2044	6	185	0
25	0	0	2033	4	185	0
26	0	0	2043	5	184	0
27	0	0	2067	5	185	0
28	0	0	2075	4	185	0
29	0	0	2096	5	184	0
30	0	0	2108	5	185	0
31	0	0	2072	4	184	0
32	0	0	1995	4	185	0
33	0	0	1920	4	184	0
