# bioPlux Text File Format
# Version: 1
# StartDateTime: 2011-07-18 16:03:09
# SamplingFrequency: 1000
# SampledChannels: 1 2 3 4 5
# SamplingResolution: 12
# AcquiringDevice: 00:07:80:42:0F:95
# EndOfHeader
0	0	0	1066	675	185	809	3649
1	0	0	909	677	185	809	3649
2	0	0	1035	681	184	809	3649
3	0	0	1309	681	184	809	3650
4	0	0	1612	681	184	809	3650
5	0	0	2068	682	184	808	3650
6	0	0	2494	682	183	808	3651
7	0	0	2783	682	184	808	3650
8	0	0	2979	682	183	809	3651
9	0	0	3079	682	183	808	3650
10	0	0	3074	679	183	808	3649
11	0	0	2968	677	183	809	3649
12	0	0	2748	676	184	809	3649
13	0	0	2508	677	183	809	3650
14	0	0	2303	676	183	809	3650
15	0	0	2082	676	183	809	3650
16	0	0	1851	676	185	809	3650
17	0	0	1573	675	183	810	3651
18	0	0	1327	675	184	810	3651
19	0	0	1170	676	184	809	3650
20	0	0	1067	675	184	809	3650
21	0	0	909	677	185	808	3649
22	0	0	1040	681	184	809	3649
23	0	0	1316	681	184	808	3650
24	0	0	1616	681	183	808	3650
25	0	0	2079	681	184	808	3651
26	0	0	2498	682	183	808	3651
27	0	0	2789	682	182	809	3652
28	0	0	2982	683	183	808	3651
29	0	0	3083	681	183	809	3650
30	0	0	3078	678	183	809	3650
31	0	0	2969	677	182	810	3650
32	0	0	2747	676	184	809	3650
33	0	0	2505	677	183	808	3651
34	0	0	2302	676	183	808	3650
35	0	0	2080	676	183	809	3652
36	0	0	1844	676	184	809	3651
37	0	0	1568	675	183	809	3651
38	0	0	1318	676	184	808	3651
39	0	0	1158	676	184	808	3652
40	0	0	1067	675	185	808	3650
41	0	0	912	678	185	808	3650
42	0	0	1037	681	184	808	3651
43	0	0	1316	681	184	809	3651
44	0	0	1617	681	184	808	3650
45	0	0	2072	682	183	808	3652
46	0	0	2500	682	183	809	3651
47	0	0	2794	682	183	809	3652
48	0	0	2985	682	183	809	3652
49	0	0	3083	682	183	809	3651
50	0	0	3068	678	183	808	3650
51	0	0	2961	677	182	809	3650
52	0	0	2743	676	183	808	3651
53	0	0	2505	676	183	808	3651
54	0	0	2301	676	182	808	3651
55	0	0	2082	676	183	808	3652
56	0	0	1848	676	183	809	3652
57	0	0	1568	675	184	808	3651
58	0	0	1320	675	184	808	3652
59	0	0	1164	676	184	808	3652
60	0	0	1060	676	184	808	3650
61	0	0	907	677	185	808	3650
62	0	0	1037	681	183	808	3651
63	0	0	1316	681	184	808	3651
64	0	0	1623	681	185	808	3651
65	0	0	2085	681	183	808	3652
66	0	0	2505	682	183	809	3651
67	0	0	2794	682	183	809	3652
68	0	0	2992	682	183	808	3652
69	0	0	3088	682	182	808	3651
70	0	0	3075	678	182	808	3651
71	0	0	2965	677	183	808	3650
72	0	0	2744	676	184	808	3651
73	0	0	2504	676	183	809	3651
74	0	0	2302	676	183	809	3652
75	0	0	2079	676	183	809	3651
76	0	0	1842	676	184	808	3652
77	0	0	1565	675	184	809	3653
78	0	0	1318	675	184	809	3652
79	0	0	1158	676	184	808	3651
80	0	0	1059	675	184	808	3651
81	0	0	907	677	184	809	3651
82	0	0	1040	681	184	809	3651
83	0	0	1318	681	184	809	3651
84	0	0	1615	681	184	809	3651
85	0	0	2074	682	184	809	3653
86	0	0	2499	682	183	808	3652
87	0	0	2786	682	183	808	3653
88	0	0	2978	682	183	808	3653
89	0	0	3076	682	182	808	3652
90	0	0	3061	678	183	808	3652
91	0	0	2956	677	183	808	3651
92	0	0	2742	676	183	809	3651
93	0	0	2502	676	182	809	3652
94	0	0	2301	676	184	809	3652
95	0	0	2087	676	183	809	3652
96	0	0	1851	676	184	809	3652
97	0	0	1569	675	185	809	3652
98	0	0	1321	675	184	808	3653
99	0	0	1164	675	184	808	3652
100	0	0	1059	675	184	809	3651
101	0	0	908	678	184	809	3651
102	0	0	1039	681	184	809	3652
103	0	0	1318	681	184	808	3652
104	0	0	1625	681	184	808	3653
105	0	0	2081	682	184	808	3652
106	0	0	2502	682	184	808	3652
107	0	0	2792	681	182	808	3652
108	0	0	2987	681	183	808	3653
109	0	0	3088	681	183	808	3652
110	0	0	3079	677	183	808	3651
111	0	0	2964	676	183	808	3651
112	0	0	2743	676	183	810	3651
113	0	0	2503	675	183	809	3652
114	0	0	2300	676	183	809	3651
115	0	0	2080	675	183	808	3652
116	0	0	1841	675	184	808	3652
117	0	0	1566	675	183	808	3653
118	0	0	1319	675	184	808	3653
119	0	0	1163	675	184	808	3652
120	0	0	1061	675	184	809	3653
121	0	0	911	677	184	809	3652
122	0	0	1048	680	185	808	3652
123	0	0	1326	681	184	808	3653
124	0	0	1626	681	184	808	3652
125	0	0	2086	682	183	809	3654
126	0	0	2509	681	184	809	3653
127	0	0	2792	681	183	808	3653
0	0	0	2984	681	183	808	3653
1	0	0	3081	681	182	809	3654
2	0	0	3062	677	182	809	3652
3	0	0	2953	676	182	808	3652
4	0	0	2735	676	183	808	3651
5	0	0	2497	675	183	808	3652
6	0	0	2296	676	184	808	3652
7	0	0	2080	676	183	808	3654
8	0	0	1847	675	183	809	3654
9	0	0	1567	675	184	808	3653
10	0	0	1317	675	184	808	3653
11	0	0	1157	675	184	808	3652
12	0	0	1053	674	185	808	3652
13	0	0	899	677	184	808	3652
14	0	0	1033	680	183	808	3652
15	0	0	1312	680	183	808	3652
16	0	0	1625	681	183	809	3654
17	0	0	2086	681	184	809	3653
18	0	0	2503	681	183	809	3653
19	0	0	2794	681	183	809	3654
20	0	0	2988	681	183	808	3653
21	0	0	3083	682	183	808	3653
22	0	0	3067	678	182	808	3652
23	0	0	2963	677	183	808	3652
24	0	0	2745	676	183	809	3652
25	0	0	2507	675	184	808	3652
26	0	0	2308	675	184	809	3652
27	0	0	2091	675	182	809	3653
28	0	0	1855	674	183	808	3654
29	0	0	1577	675	184	809	3654
30	0	0	1328	674	184	809	3653
31	0	0	1169	675	184	808	3653
32	0	0	1066	674	183	808	3653
33	0	0	913	677	185	809	3652
34	0	0	1045	680	184	809	3652
35	0	0	1324	681	183	808	3653
36	0	0	1630	680	184	809	3653
37	0	0	2088	681	183	809	3653
38	0	0	2508	681	183	808	3653
39	0	0	2791	681	182	808	3654
40	0	0	2979	682	184	807	3654
41	0	0	3076	682	183	808	3654
42	0	0	3067	678	183	809	3653
43	0	0	2956	676	183	808	3652
44	0	0	2734	675	183	809	3652
45	0	0	2488	675	183	809	3654
46	0	0	2283	675	183	809	3653
47	0	0	2070	675	183	809	3653
48	0	0	1840	675	183	809	3653
49	0	0	1561	674	184	808	3654
50	0	0	1319	675	184	808	3654
51	0	0	1169	675	184	808	3653
52	0	0	1064	674	185	809	3654
53	0	0	913	677	185	809	3653
54	0	0	1048	680	184	808	3652
55	0	0	1326	680	184	807	3653
56	0	0	1631	680	183	808	3653
57	0	0	2088	681	184	808	3654
58	0	0	2501	682	183	808	3654
59	0	0	2789	681	183	808	3655
60	0	0	2983	681	182	808	3654
61	0	0	3081	681	182	808	3653
62	0	0	3066	678	182	808	3653
63	0	0	2958	676	183	809	3653
64	0	0	2737	676	182	809	3652
65	0	0	2497	675	183	809	3653
66	0	0	2296	675	182	809	3653
67	0	0	2079	675	183	809	3655
68	0	0	1839	675	183	808	3655
69	0	0	1562	674	184	808	3654
70	0	0	1319	675	183	808	3655
71	0	0	1159	675	184	808	3653
72	0	0	1062	674	184	808	3653
73	0	0	911	677	184	809	3652
74	0	0	1048	679	184	808	3653
75	0	0	1325	680	185	807	3653
76	0	0	1627	680	183	807	3653
77	0	0	2084	681	182	809	3655
78	0	0	2507	680	184	808	3654
79	0	0	2788	680	183	808	3654
80	0	0	2977	681	183	808	3654
81	0	0	3077	681	183	809	3654
82	0	0	3069	677	184	809	3653
83	0	0	2964	675	183	809	3653
84	0	0	2746	675	183	809	3654
85	0	0	2500	675	183	807	3654
86	0	0	2296	676	183	808	3653
87	0	0	2077	675	183	808	3654
88	0	0	1840	674	184	808	3655
89	0	0	1563	674	183	809	3654
90	0	0	1322	674	184	808	3655
91	0	0	1173	675	184	809	3654
92	0	0	1073	674	184	808	3654
93	0	0	927	677	184	809	3654
94	0	0	1061	680	184	809	3653
95	0	0	1332	680	185	809	3654
96	0	0	1636	680	183	808	3653
97	0	0	2093	680	184	808	3654
98	0	0	2503	681	183	809	3654
99	0	0	2785	680	183	809	3654
100	0	0	2970	681	184	809	3654
101	0	0	3064	681	183	808	3654
102	0	0	3052	677	183	808	3654
103	0	0	2949	675	183	808	3653
104	0	0	2736	675	183	808	3654
105	0	0	2499	675	183	808	3654
106	0	0	2300	675	183	808	3654
107	0	0	2080	674	184	808	3654
108	0	0	1845	675	183	809	3654
109	0	0	1579	674	184	809	3655
110	0	0	1337	674	184	809	3654
111	0	0	1186	676	185	809	3654
112	0	0	1084	674	184	810	3653
113	0	0	933	677	184	809	3654
114	0	0	1069	679	184	808	3653
115	0	0	1341	679	184	808	3654
116	0	0	1637	680	183	808	3654
117	0	0	2087	681	184	809	3655
118	0	0	2493	681	183	808	3655
119	0	0	2765	681	183	808	3655
120	0	0	2953	681	183	809	3655
121	0	0	3046	680	183	808	3654
122	0	0	3034	677	183	808	3654
123	0	0	2939	675	184	808	3653
124	0	0	2729	675	183	809	3654
125	0	0	2491	675	183	809	3654
126	0	0	2296	675	183	809	3654
127	0	0	2085	675	184	809	3654
0	0	0	1852	674	185	809	3655
1	0	0	1580	674	184	808	3655
2	0	0	1344	674	184	808	3655
3	0	0	1190	674	184	808	3654
4	0	0	1086	674	184	809	3655
5	0	0	935	676	183	809	3654
6	0	0	1070	680	184	809	3653
7	0	0	1335	679	184	808	3654
8	0	0	1638	680	183	808	3654
9	0	0	2087	680	185	808	3654
10	0	0	2494	680	183	809	3654
11	0	0	2772	680	183	808	3655
12	0	0	2957	681	183	808	3655
13	0	0	3049	680	183	809	3655
14	0	0	3037	677	182	809	3654
15	0	0	2929	675	183	809	3653
16	0	0	2715	675	183	809	3653
17	0	0	2481	674	182	808	3654
18	0	0	2287	675	183	809	3654
19	0	0	2070	675	183	809	3654
20	0	0	1840	674	183	809	3654
21	0	0	1573	674	184	808	3654
22	0	0	1335	674	184	808	3655
23	0	0	1183	675	183	808	3654
24	0	0	1078	674	185	809	3655
25	0	0	931	676	184	809	3653
26	0	0	1066	680	184	808	3654
27	0	0	1343	680	185	808	3654
28	0	0	1642	680	183	808	3655
29	0	0	2098	680	184	809	3654
30	0	0	2516	680	183	809	3654
31	0	0	2791	680	182	808	3654
32	0	0	2972	680	182	808	3655
33	0	0	3067	680	182	809	3654
34	0	0	3048	676	183	809	3653
35	0	0	2944	676	183	809	3653
36	0	0	2731	674	183	809	3653
37	0	0	2496	675	184	808	3655
38	0	0	2299	674	183	808	3654
39	0	0	2082	674	183	808	3654
40	0	0	1847	674	183	808	3655
41	0	0	1571	673	184	809	3656
42	0	0	1325	673	184	808	3655
43	0	0	1174	674	184	808	3654
44	0	0	1072	674	184	809	3654
45	0	0	919	676	184	809	3654
46	0	0	1058	679	183	809	3653
47	0	0	1333	679	184	809	3655
48	0	0	1641	679	184	808	3654
49	0	0	2100	679	184	808	3654
50	0	0	2512	680	183	808	3654
51	0	0	2792	681	183	809	3655
52	0	0	2977	680	183	809	3655
53	0	0	3073	680	183	808	3654
54	0	0	3057	677	182	808	3653
55	0	0	2949	676	183	808	3653
56	0	0	2731	674	183	808	3654
57	0	0	2492	674	183	808	3654
58	0	0	2290	674	183	808	3654
59	0	0	2074	674	184	808	3654
60	0	0	1838	675	183	808	3654
61	0	0	1564	674	183	809	3655
62	0	0	1319	674	183	809	3655
63	0	0	1167	674	184	809	3654
64	0	0	1062	673	185	809	3655
65	0	0	917	676	184	809	3655
66	0	0	1062	679	184	808	3653
67	0	0	1341	679	184	808	3655
68	0	0	1645	679	184	808	3654
69	0	0	2106	680	183	808	3655
70	0	0	2531	680	183	809	3655
71	0	0	2810	680	182	808	3655
72	0	0	2993	680	183	809	3655
73	0	0	3085	680	182	808	3654
74	0	0	3059	675	183	808	3655
75	0	0	2942	675	183	808	3654
76	0	0	2727	674	184	808	3655
77	0	0	2486	674	183	808	3654
78	0	0	2288	674	183	808	3654
79	0	0	2072	674	183	808	3654
80	0	0	1832	674	184	809	3654
81	0	0	1559	674	184	809	3654
82	0	0	1318	673	184	809	3655
83	0	0	1164	674	184	809	3654
84	0	0	1059	674	185	808	3653
85	0	0	905	677	184	808	3653
86	0	0	1042	680	184	808	3654
87	0	0	1321	679	185	808	3654
88	0	0	1633	679	184	808	3654
89	0	0	2103	679	183	809	3656
90	0	0	2521	679	183	809	3656
91	0	0	2804	679	184	808	3654
92	0	0	2992	680	183	808	3655
93	0	0	3086	680	183	809	3654
94	0	0	3066	676	182	809	3654
95	0	0	2954	675	183	808	3654
96	0	0	2734	675	184	808	3655
97	0	0	2493	674	183	808	3654
98	0	0	2291	674	183	810	3654
99	0	0	2074	674	183	809	3654
100	0	0	1833	674	184	809	3655
101	0	0	1557	673	184	809	3655
102	0	0	1307	673	184	808	3655
103	0	0	1152	674	184	809	3654
104	0	0	1044	673	184	808	3655
105	0	0	899	676	185	809	3654
106	0	0	1044	679	185	808	3654
107	0	0	1326	679	185	808	3654
108	0	0	1637	678	184	808	3654
109	0	0	2109	679	182	809	3654
110	0	0	2536	679	183	808	3655
111	0	0	2819	680	183	809	3656
112	0	0	3009	679	183	808	3655
113	0	0	3101	680	183	809	3654
114	0	0	3079	676	182	809	3655
115	0	0	2959	675	182	809	3654
116	0	0	2731	674	182	809	3654
117	0	0	2489	674	183	808	3654
118	0	0	2292	674	183	808	3654
119	0	0	2073	673	183	808	3655
120	0	0	1834	674	183	809	3654
121	0	0	1553	674	185	809	3654
122	0	0	1304	673	184	808	3655
123	0	0	1148	674	184	809	3654
124	0	0	1043	673	184	808	3653
125	0	0	897	676	183	809	3654
126	0	0	1051	679	184	809	3654
127	0	0	1331	678	185	809	3654
0	0	0	1644	679	184	808	3655
1	0	0	2121	679	182	809	3654
2	0	0	2541	679	181	809	3654
3	0	0	2825	680	183	809	3655
4	0	0	3011	679	183	809	3655
5	0	0	3106	680	183	808	3654
6	0	0	3083	676	183	808	3653
7	0	0	2963	675	183	808	3653
8	0	0	2737	674	183	808	3654
9	0	0	2493	674	183	808	3655
10	0	0	2289	674	183	808	3654
11	0	0	2066	673	183	808	3655
12	0	0	1821	673	184	809	3655
13	0	0	1538	674	184	808	3655
14	0	0	1287	673	185	809	3655
15	0	0	1137	673	184	809	3654
16	0	0	1031	673	185	810	3654
17	0	0	886	676	184	809	3653
18	0	0	1038	679	184	808	3653
19	0	0	1323	679	183	808	3654
20	0	0	1634	678	183	808	3654
21	0	0	2110	679	184	808	3654
22	0	0	2539	679	182	808	3655
23	0	0	2824	679	183	808	3655
24	0	0	3014	679	182	808	3655
25	0	0	3112	679	183	808	3654
26	0	0	3094	675	183	808	3654
27	0	0	2971	674	183	808	3654
28	0	0	2737	674	183	808	3653
29	0	0	2487	673	183	808	3654
30	0	0	2284	673	183	808	3654
31	0	0	2065	673	184	808	3654
32	0	0	1819	672	182	809	3654
33	0	0	1539	673	185	810	3655
34	0	0	1291	673	184	809	3654
35	0	0	1133	674	184	809	3654
36	0	0	1028	673	184	808	3653
37	0	0	883	676	184	808	3653
38	0	0	1031	678	184	808	3653
39	0	0	1319	679	184	808	3654
40	0	0	1640	679	184	808	3654
41	0	0	2121	679	183	808	3653
42	0	0	2546	679	183	808	3654
43	0	0	2833	679	184	808	3654
44	0	0	3021	680	183	808	3654
45	0	0	3115	679	183	809	3655
46	0	0	3086	675	184	809	3653
47	0	0	2957	674	181	808	3653
48	0	0	2730	673	183	808	3653
49	0	0	2485	674	183	808	3654
50	0	0	2278	673	184	809	3653
51	0	0	2055	673	183	809	3654
52	0	0	1808	673	184	809	3654
53	0	0	1525	672	184	809	3655
54	0	0	1278	673	184	808	3654
55	0	0	1129	673	184	808	3653
56	0	0	1026	673	184	808	3653
57	0	0	880	675	184	808	3653
58	0	0	1035	678	184	809	3653
59	0	0	1322	679	184	809	3654
60	0	0	1633	679	184	808	3653
61	0	0	2113	678	183	809	3655
62	0	0	2540	678	183	809	3654
63	0	0	2828	678	183	809	3654
64	0	0	3021	680	183	809	3655
65	0	0	3105	678	183	808	3653
66	0	0	3081	675	183	808	3652
67	0	0	2963	674	184	808	3652
68	0	0	2730	673	183	809	3653
69	0	0	2487	673	183	808	3653
70	0	0	2283	674	183	810	3654
71	0	0	2067	673	183	809	3654
72	0	0	1824	673	184	808	3654
73	0	0	1552	672	184	808	3654
74	0	0	1309	672	184	808	3654
75	0	0	1159	674	184	808	3653
76	0	0	1049	672	184	808	3652
77	0	0	906	676	184	808	3652
78	0	0	1057	677	184	808	3653
79	0	0	1344	678	184	809	3653
80	0	0	1651	678	184	809	3653
81	0	0	2112	678	184	809	3653
82	0	0	2522	679	183	809	3654
83	0	0	2801	678	184	808	3654
84	0	0	2984	678	183	808	3654
85	0	0	3075	679	183	808	3653
86	0	0	3051	675	183	808	3652
87	0	0	2934	674	182	808	3652
88	0	0	2712	673	182	808	3653
89	0	0	2478	673	183	808	3653
90	0	0	2282	673	183	808	3653
91	0	0	2067	673	183	808	3654
92	0	0	1832	673	184	809	3655
93	0	0	1563	671	183	808	3654
94	0	0	1328	673	184	809	3654
95	0	0	1188	673	185	809	3653
96	0	0	1085	672	185	809	3653
97	0	0	952	675	183	809	3653
98	0	0	1097	678	184	808	3653
99	0	0	1364	678	185	808	3652
100	0	0	1655	678	184	808	3653
101	0	0	2098	678	183	808	3653
102	0	0	2489	679	183	809	3653
103	0	0	2751	678	184	809	3653
104	0	0	2925	679	183	808	3654
105	0	0	3012	679	183	808	3654
106	0	0	3001	675	183	808	3653
107	0	0	2900	674	183	808	3652
108	0	0	2698	673	183	808	3653
109	0	0	2469	673	182	808	3652
110	0	0	2283	673	182	809	3653
111	0	0	2076	673	183	808	3653
112	0	0	1848	673	183	809	3653
113	0	0	1599	671	183	809	3654
114	0	0	1381	673	183	809	3653
115	0	0	1252	673	184	809	3652
116	0	0	1160	672	184	808	3652
117	0	0	1037	675	184	808	3652
118	0	0	1170	678	184	808	3652
119	0	0	1420	678	184	808	3653
120	0	0	1696	678	184	808	3652
121	0	0	2101	678	182	808	3654
122	0	0	2452	679	183	808	3654
123	0	0	2681	678	182	808	3653
124	0	0	2830	679	183	808	3654
125	0	0	2897	679	183	809	3652
126	0	0	2878	676	183	809	3652
127	0	0	2794	674	183	808	3652
0	0	0	2613	672	183	809	3651
1	0	0	2416	673	183	808	3652
2	0	0	2246	672	184	809	3652
3	0	0	2066	673	183	809	3652
4	0	0	1874	673	185	809	3653
5	0	0	1674	673	183	808	3652
6	0	0	1509	673	184	808	3652
7	0	0	1420	674	183	808	3652
8	0	0	1358	673	184	808	3652
9	0	0	1273	677	183	808	3652
10	0	0	1398	678	184	809	3652
11	0	0	1596	678	183	809	3653
12	0	0	1798	678	183	808	3652
13	0	0	2081	679	183	809	3653
14	0	0	2302	679	183	809	3654
15	0	0	2435	678	182	809	3653
16	0	0	2519	678	183	809	3653
17	0	0	2562	679	183	808	3652
18	0	0	2562	679	183	808	3651
19	0	0	2542	674	183	808	3651
20	0	0	2435	673	183	809	3651
21	0	0	2307	673	184	808	3652
22	0	0	2198	674	184	808	3652
23	0	0	2069	673	182	808	3652
24	0	0	1934	672	183	808	3652
25	0	0	1797	673	183	808	3652
26	0	0	1685	674	183	808	3652
27	0	0	1622	674	184	808	3653
28	0	0	1565	673	184	809	3651
29	0	0	1479	676	183	808	3651
30	0	0	1565	679	184	808	3652
31	0	0	1711	678	182	809	3652
32	0	0	1866	678	184	809	3653
33	0	0	2105	679	185	809	3652
34	0	0	2296	678	183	809	3653
35	0	0	2415	678	183	808	3653
36	0	0	2493	679	184	808	3652
37	0	0	2531	678	183	808	3651
38	0	0	2520	679	182	807	3651
39	0	0	2503	674	184	808	3651
40	0	0	2396	673	182	809	3651
41	0	0	2269	673	183	809	3652
42	0	0	2156	673	183	808	3651
43	0	0	2029	674	184	808	3652
44	0	0	1898	673	183	808	3653
45	0	0	1769	672	183	809	3652
46	0	0	1666	673	183	808	3652
47	0	0	1613	675	184	808	3651
48	0	0	1567	673	183	808	3651
49	0	0	1497	678	184	809	3651
50	0	0	1592	679	184	809	3651
51	0	0	1739	678	184	809	3651
52	0	0	1893	679	183	808	3651
53	0	0	2123	678	184	808	3651
54	0	0	2303	678	184	808	3651
55	0	0	2416	677	183	808	3652
56	0	0	2493	678	184	808	3652
57	0	0	2526	679	183	809	3652
58	0	0	2512	679	183	808	3651
59	0	0	2490	674	184	809	3651
60	0	0	2390	673	183	808	3651
61	0	0	2267	673	184	809	3651
62	0	0	2162	673	184	809	3651
63	0	0	2040	674	184	809	3652
64	0	0	1913	673	183	809	3652
65	0	0	1784	672	182	808	3652
66	0	0	1682	674	183	809	3652
67	0	0	1626	675	184	809	3651
68	0	0	1578	673	183	809	3651
69	0	0	1500	677	183	809	3651
70	0	0	1593	678	184	808	3651
71	0	0	1745	678	183	808	3652
72	0	0	1894	679	183	808	3651
73	0	0	2124	679	183	808	3651
74	0	0	2302	678	183	804	3651
75	0	0	2411	677	184	804	3652
76	0	0	2480	678	184	805	3651
77	0	0	2515	679	184	809	3651
78	0	0	2510	678	183	808	3650
79	0	0	2495	674	184	808	3650
80	0	0	2392	674	184	808	3651
81	0	0	2263	673	184	809	3650
82	0	0	2162	673	184	809	3651
83	0	0	2041	673	184	808	3651
84	0	0	1915	673	184	809	3651
85	0	0	1785	673	183	804	3651
86	0	0	1680	674	184	804	3651
87	0	0	1630	675	184	804	3650
88	0	0	1579	673	183	805	3650
89	0	0	1505	678	184	808	3650
90	0	0	1602	678	184	808	3650
91	0	0	1749	678	183	808	3650
92	0	0	1901	678	184	804	3650
93	0	0	2126	678	184	809	3651
94	0	0	2303	678	185	809	3651
95	0	0	2410	679	184	809	3652
96	0	0	2481	678	184	808	3650
97	0	0	2512	678	184	808	3650
98	0	0	2506	679	183	808	3650
99	0	0	2487	674	184	808	3650
100	0	0	2385	673	183	809	3650
101	0	0	2266	674	184	809	3650
102	0	0	2164	673	184	808	3650
103	0	0	2042	674	182	803	3651
104	0	0	1917	673	182	804	3651
105	0	0	1790	672	183	805	3651
106	0	0	1690	673	183	804	3650
107	0	0	1638	674	183	809	3650
108	0	0	1587	673	184	808	3650
109	0	0	1517	678	185	808	3650
110	0	0	1610	678	184	808	3650
111	0	0	1754	678	184	808	3649
112	0	0	1903	678	184	808	3649
113	0	0	2125	678	183	808	3651
114	0	0	2302	679	183	808	3651
115	0	0	2408	678	183	808	3651
116	0	0	2479	678	184	808	3651
117	0	0	2508	679	183	804	3649
118	0	0	2502	678	183	808	3650
119	0	0	2483	674	183	808	3650
120	0	0	2381	673	183	808	3649
121	0	0	2260	673	184	805	3650
122	0	0	2154	673	183	805	3649
123	0	0	2038	673	184	804	3650
124	0	0	1916	673	185	804	3650
125	0	0	1791	673	184	809	3651
126	0	0	1692	673	184	808	3650
127	0	0	1640	674	184	808	3649
0	0	0	1589	673	184	808	3649
1	0	0	1515	678	183	809	3649
2	0	0	1609	678	184	809	3649
3	0	0	1755	678	183	809	3649
4	0	0	1902	678	183	808	3649
5	0	0	2121	678	184	804	3649
6	0	0	2293	678	183	804	3650
7	0	0	2399	678	182	804	3650
8	0	0	2472	678	183	808	3650
9	0	0	2500	678	184	808	3649
10	0	0	2492	678	183	808	3649
11	0	0	2480	674	183	805	3649
12	0	0	2381	673	183	804	3649
13	0	0	2263	673	183	809	3649
14	0	0	2158	673	183	809	3650
15	0	0	2032	673	184	808	3649
16	0	0	1910	673	183	808	3649
17	0	0	1788	673	183	808	3650
18	0	0	1687	673	183	809	3650
19	0	0	1636	675	183	808	3648
20	0	0	1590	673	183	808	3648
21	0	0	1519	678	185	808	3647
22	0	0	1613	678	184	804	3648
23	0	0	1756	678	185	804	3648
24	0	0	1902	678	184	804	3648
25	0	0	2125	679	184	806	3648
26	0	0	2300	678	183	808	3649
27	0	0	2402	678	183	808	3649
28	0	0	2474	678	184	808	3649
29	0	0	2504	678	183	808	3648
30	0	0	2492	678	183	809	3648
31	0	0	2472	674	183	808	3648
32	0	0	2376	673	183	809	3649
33	0	0	2253	673	183	808	3648
34	0	0	2150	673	183	809	3649
35	0	0	2029	673	183	808	3648
36	0	0	1902	673	185	809	3649
37	0	0	1781	673	183	809	3650
38	0	0	1688	674	183	808	3648
39	0	0	1641	674	184	809	3649
40	0	0	1593	673	183	803	3647
41	0	0	1517	677	184	805	3647
42	0	0	1609	678	184	804	3648
43	0	0	1753	678	183	804	3648
44	0	0	1900	677	183	808	3648
45	0	0	2115	678	183	808	3649
46	0	0	2289	677	184	809	3649
47	0	0	2396	678	184	809	3649
48	0	0	2464	678	183	808	3649
49	0	0	2491	678	184	808	3648
50	0	0	2481	678	183	808	3647
51	0	0	2470	673	184	809	3648
52	0	0	2373	673	183	808	3647
53	0	0	2259	673	184	804	3648
54	0	0	2157	673	184	804	3647
55	0	0	2040	673	183	809	3647
56	0	0	1914	672	184	808	3648
57	0	0	1791	673	183	808	3648
58	0	0	1693	673	184	804	3648
59	0	0	1643	674	184	804	3647
60	0	0	1595	673	183	809	3646
61	0	0	1523	678	184	808	3647
62	0	0	1616	677	183	808	3647
63	0	0	1762	678	184	808	3647
64	0	0	1910	678	184	809	3648
65	0	0	2127	677	184	808	3647
66	0	0	2292	677	183	808	3648
67	0	0	2397	678	184	808	3648
68	0	0	2469	677	182	808	3648
69	0	0	2503	678	184	804	3647
70	0	0	2496	677	184	804	3646
71	0	0	2475	674	184	808	3646
72	0	0	2374	673	183	808	3646
73	0	0	2256	673	184	808	3646
74	0	0	2152	673	184	804	3647
75	0	0	2031	672	182	804	3647
76	0	0	1906	672	184	804	3647
77	0	0	1784	673	184	809	3648
78	0	0	1685	673	184	808	3648
79	0	0	1636	674	185	808	3648
80	0	0	1584	673	185	808	3646
81	0	0	1517	678	184	808	3646
82	0	0	1614	678	183	809	3646
83	0	0	1758	678	183	809	3646
84	0	0	1905	678	184	809	3647
85	0	0	2128	678	185	804	3646
86	0	0	2297	677	184	804	3647
87	0	0	2402	678	184	804	3648
88	0	0	2471	678	183	804	3647
89	0	0	2501	677	184	808	3647
90	0	0	2497	677	184	809	3646
91	0	0	2480	674	185	808	3646
92	0	0	2377	673	183	804	3646
93	0	0	2258	673	185	809	3645
94	0	0	2160	673	184	809	3646
95	0	0	2040	673	183	809	3647
96	0	0	1916	672	183	808	3647
97	0	0	1790	672	183	808	3647
98	0	0	1690	673	183	808	3647
99	0	0	1635	674	183	808	3646
100	0	0	1580	673	183	809	3645
101	0	0	1508	677	184	808	3645
102	0	0	1603	677	183	808	3646
103	0	0	1750	677	183	804	3645
104	0	0	1902	678	184	804	3646
105	0	0	2125	677	184	804	3645
106	0	0	2293	677	183	804	3646
107	0	0	2397	677	184	808	3646
108	0	0	2470	678	183	808	3647
109	0	0	2499	677	183	808	3645
110	0	0	2490	678	184	809	3645
111	0	0	2474	674	183	809	3646
112	0	0	2376	673	183	809	3645
113	0	0	2254	672	184	808	3645
114	0	0	2147	672	184	808	3646
115	0	0	2025	673	183	808	3645
116	0	0	1904	672	184	808	3646
117	0	0	1785	672	184	805	3646
118	0	0	1686	674	184	808	3645
119	0	0	1636	674	183	809	3646
120	0	0	1584	672	184	808	3644
121	0	0	1516	677	184	804	3644
122	0	0	1614	678	184	804	3645
123	0	0	1757	677	183	804	3644
124	0	0	1906	677	183	804	3645
125	0	0	2129	677	184	808	3645
126	0	0	2296	678	184	808	3646
127	0	0	2400	677	184	808	3646
0	0	0	2469	677	183	808	3645
1	0	0	2499	677	184	809	3646
2	0	0	2495	677	184	808	3644
3	0	0	2485	673	183	808	3644
4	0	0	2388	672	182	808	3644
5	0	0	2266	673	183	804	3644
6	0	0	2160	673	185	804	3644
7	0	0	2033	672	183	804	3644
8	0	0	1905	671	183	808	3645
9	0	0	1783	672	184	809	3645
10	0	0	1689	673	183	809	3645
11	0	0	1638	674	184	804	3644
12	0	0	1585	672	184	804	3644
13	0	0	1515	678	184	809	3644
14	0	0	1612	677	185	809	3644
15	0	0	1755	677	184	808	3645
16	0	0	1900	678	184	808	3644
17	0	0	2119	677	183	808	3645
18	0	0	2290	677	183	809	3645
19	0	0	2396	677	184	809	3645
20	0	0	2469	677	183	808	3645
21	0	0	2499	677	184	808	3644
22	0	0	2493	677	183	804	3644
23	0	0	2484	673	183	804	3643
24	0	0	2382	672	184	805	3643
25	0	0	2259	673	184	804	3643
26	0	0	2154	672	184	808	3643
27	0	0	2032	672	185	808	3644
28	0	0	1913	672	184	807	3644
29	0	0	1790	672	184	809	3645
30	0	0	1694	673	183	809	3644
31	0	0	1640	673	184	809	3644
32	0	0	1586	672	183	809	3644
33	0	0	1514	676	185	808	3643
34	0	0	1608	676	184	808	3644
35	0	0	1753	677	183	808	3643
36	0	0	1906	677	183	808	3643
37	0	0	2127	677	183	808	3643
38	0	0	2297	677	183	808	3644
39	0	0	2405	677	183	808	3644
40	0	0	2480	678	183	804	3644
41	0	0	2511	677	183	804	3643
42	0	0	2503	677	184	804	3643
43	0	0	2490	673	183	803	3642
44	0	0	2386	673	184	808	3643
45	0	0	2261	672	183	810	3643
46	0	0	2151	672	184	808	3643
47	0	0	2028	672	184	808	3643
48	0	0	1905	672	184	807	3644
49	0	0	1786	672	183	809	3644
50	0	0	1691	672	183	808	3643
51	0	0	1641	673	184	809	3644
52	0	0	1588	672	183	808	3642
53	0	0	1513	677	184	804	3642
54	0	0	1608	676	184	805	3643
55	0	0	1751	676	185	804	3642
56	0	0	1896	676	184	805	3643
57	0	0	2117	677	184	809	3643
58	0	0	2289	677	184	808	3643
59	0	0	2397	677	183	808	3644
60	0	0	2468	677	183	804	3643
61	0	0	2496	677	183	808	3642
62	0	0	2494	676	184	808	3642
63	0	0	2488	673	184	809	3642
64	0	0	2385	672	184	808	3642
65	0	0	2260	672	184	809	3643
66	0	0	2155	671	183	808	3642
67	0	0	2029	672	183	809	3642
68	0	0	1903	672	184	808	3642
69	0	0	1780	672	183	808	3643
70	0	0	1687	672	183	808	3642
71	0	0	1641	674	183	804	3642
72	0	0	1588	672	184	804	3641
73	0	0	1521	678	183	804	3641
74	0	0	1617	677	183	805	3642
75	0	0	1764	677	184	808	3641
76	0	0	1911	677	183	809	3643
77	0	0	2128	677	184	809	3641
78	0	0	2293	677	184	808	3642
79	0	0	2397	677	183	808	3642
80	0	0	2469	677	183	808	3642
81	0	0	2502	677	184	808	3641
82	0	0	2502	677	184	808	3640
83	0	0	2489	673	184	808	3640
84	0	0	2387	672	183	808	3641
85	0	0	2263	672	183	804	3642
86	0	0	2156	673	183	808	3641
87	0	0	2035	671	183	808	3642
88	0	0	1910	671	184	808	3643
89	0	0	1784	672	183	805	3642
90	0	0	1691	672	184	804	3641
91	0	0	1643	673	183	804	3641
92	0	0	1589	671	183	804	3641
93	0	0	1518	677	185	808	3640
94	0	0	1616	676	182	808	3641
95	0	0	1759	677	184	808	3640
96	0	0	1905	677	183	809	3640
97	0	0	2124	676	184	809	3641
98	0	0	2290	677	183	808	3641
99	0	0	2394	677	185	808	3641
100	0	0	2467	677	184	808	3642
101	0	0	2496	676	184	804	3640
102	0	0	2494	676	183	804	3640
103	0	0	2484	673	184	805	3641
104	0	0	2382	671	183	809	3640
105	0	0	2260	671	184	808	3640
106	0	0	2153	671	182	808	3640
107	0	0	2028	672	183	804	3640
108	0	0	1898	671	183	804	3641
109	0	0	1776	671	184	809	3641
110	0	0	1682	672	184	809	3640
111	0	0	1634	673	184	809	3641
112	0	0	1584	671	184	809	3640
113	0	0	1516	677	184	809	3640
114	0	0	1616	677	184	809	3640
115	0	0	1762	677	183	808	3639
116	0	0	1917	677	183	809	3640
117	0	0	2140	676	184	808	3640
118	0	0	2308	676	183	804	3640
119	0	0	2408	676	184	805	3641
120	0	0	2475	676	183	804	3640
121	0	0	2503	677	184	804	3640
122	0	0	2498	677	183	808	3639
123	0	0	2486	673	185	808	3639
124	0	0	2387	672	184	808	3639
125	0	0	2260	672	183	809	3639
126	0	0	2154	672	184	808	3639
127	0	0	2033	672	183	808	3640
0	0	0	1908	671	184	809	3641
1	0	0	1783	671	184	809	3640
2	0	0	1687	672	183	809	3641
3	0	0	1642	673	184	809	3639
4	0	0	1585	672	184	809	3639
5	0	0	1519	678	183	808	3638
6	0	0	1616	677	185	809	3639
7	0	0	1758	677	184	808	3638
8	0	0	1911	676	184	804	3639
9	0	0	2131	677	184	804	3639
10	0	0	2303	677	183	805	3640
11	0	0	2407	676	184	804	3640
12	0	0	2473	676	183	808	3639
13	0	0	2500	677	183	808	3639
14	0	0	2494	677	184	808	3638
15	0	0	2485	673	183	808	3638
16	0	0	2385	672	184	808	3638
17	0	0	2260	671	184	808	3638
18	0	0	2155	671	183	808	3638
19	0	0	2029	671	184	808	3639
20	0	0	1902	671	183	808	3639
21	0	0	1780	671	183	804	3639
22	0	0	1687	672	184	805	3639
23	0	0	1631	673	184	808	3638
24	0	0	1572	671	184	808	3638
25	0	0	1504	677	184	808	3638
26	0	0	1605	676	185	804	3638
27	0	0	1752	677	184	805	3639
28	0	0	1903	675	183	804	3638
29	0	0	2126	676	183	808	3639
30	0	0	2294	676	183	808	3640
31	0	0	2398	676	184	809	3638
32	0	0	2471	677	184	809	3639
33	0	0	2504	677	184	808	3637
34	0	0	2502	676	184	808	3637
35	0	0	2492	673	183	809	3637
36	0	0	2391	671	182	808	3637
37	0	0	2265	671	184	804	3637
38	0	0	2159	671	183	809	3638
39	0	0	2033	671	184	808	3638
40	0	0	1903	671	183	808	3639
41	0	0	1773	671	184	804	3638
42	0	0	1676	672	184	804	3637
43	0	0	1627	672	184	804	3637
44	0	0	1573	671	185	804	3636
45	0	0	1508	677	184	809	3636
46	0	0	1608	676	183	808	3636
47	0	0	1757	676	184	808	3636
48	0	0	1909	676	183	808	3638
49	0	0	2129	676	184	809	3637
50	0	0	2291	676	183	809	3638
51	0	0	2394	676	184	809	3638
52	0	0	2469	676	183	808	3637
53	0	0	2501	677	182	804	3638
54	0	0	2498	677	183	805	3636
55	0	0	2481	672	184	804	3636
56	0	0	2382	671	183	808	3637
57	0	0	2263	671	184	808	3636
58	0	0	2157	671	184	808	3636
59	0	0	2027	671	184	804	3637
60	0	0	1897	670	184	804	3637
61	0	0	1774	671	182	809	3637
62	0	0	1676	672	184	809	3636
63	0	0	1625	672	183	808	3636
64	0	0	1570	671	183	808	3635
65	0	0	1503	677	184	808	3635
66	0	0	1606	676	184	809	3636
67	0	0	1754	677	183	808	3635
68	0	0	1911	676	184	808	3636
69	0	0	2135	676	183	808	3636
70	0	0	2307	676	184	804	3636
71	0	0	2410	676	184	804	3637
72	0	0	2478	676	183	804	3636
73	0	0	2510	676	183	804	3636
74	0	0	2508	676	183	808	3635
75	0	0	2496	672	183	808	3635
76	0	0	2390	671	183	808	3635
77	0	0	2262	671	184	808	3635
78	0	0	2156	671	183	808	3635
79	0	0	2028	671	183	808	3635
80	0	0	1899	671	184	809	3636
81	0	0	1774	670	183	808	3636
82	0	0	1678	672	183	809	3636
83	0	0	1630	673	184	809	3636
84	0	0	1573	671	184	808	3635
85	0	0	1508	676	185	808	3634
86	0	0	1611	676	184	809	3635
87	0	0	1751	676	184	808	3634
88	0	0	1907	675	184	804	3636
89	0	0	2127	677	183	805	3635
90	0	0	2297	676	183	805	3636
91	0	0	2403	676	183	804	3636
92	0	0	2472	676	184	808	3635
93	0	0	2507	676	183	808	3635
94	0	0	2506	675	184	808	3634
95	0	0	2493	672	183	809	3634
96	0	0	2388	671	183	808	3634
97	0	0	2263	671	183	809	3635
98	0	0	2156	670	184	808	3634
99	0	0	2030	671	184	808	3635
100	0	0	1902	671	183	808	3635
101	0	0	1776	670	183	804	3635
102	0	0	1677	671	184	804	3635
103	0	0	1629	672	184	808	3634
104	0	0	1572	670	184	808	3633
105	0	0	1504	677	184	809	3634
106	0	0	1606	676	183	805	3634
107	0	0	1754	676	184	804	3633
108	0	0	1910	676	183	804	3635
109	0	0	2135	676	184	809	3634
110	0	0	2311	676	184	808	3635
111	0	0	2415	676	183	808	3635
112	0	0	2479	676	183	808	3634
113	0	0	2507	675	184	809	3633
114	0	0	2502	676	184	808	3633
115	0	0	2489	671	184	809	3633
116	0	0	2387	671	183	808	3633
117	0	0	2263	671	184	805	3634
118	0	0	2156	671	183	805	3633
119	0	0	2029	670	183	804	3634
120	0	0	1898	670	183	804	3635
121	0	0	1770	670	183	808	3634
122	0	0	1671	671	184	809	3635
123	0	0	1624	673	184	808	3633
124	0	0	1559	670	184	804	3632
125	0	0	1494	677	184	808	3633
126	0	0	1595	676	184	809	3633
127	0	0	1742	675	184	808	3632
0	0	0	1905	676	184	808	3634
1	0	0	2134	675	183	809	3633
2	0	0	2302	676	183	809	3634
3	0	0	2408	676	183	808	3634
4	0	0	2478	675	183	808	3633
5	0	0	2509	676	183	808	3633
6	0	0	2508	676	182	808	3632
7	0	0	2498	671	183	804	3632
8	0	0	2398	671	183	804	3632
9	0	0	2275	671	184	804	3633
10	0	0	2167	671	183	804	3632
11	0	0	2036	670	184	808	3633
12	0	0	1901	670	183	808	3634
13	0	0	1776	670	182	808	3633
14	0	0	1677	671	184	808	3632
15	0	0	1629	672	184	809	3632
16	0	0	1564	670	184	809	3632
17	0	0	1490	676	184	809	3632
18	0	0	1594	676	183	808	3632
19	0	0	1746	675	184	808	3632
20	0	0	1905	677	184	809	3632
21	0	0	2131	676	184	808	3633
22	0	0	2302	676	184	805	3632
23	0	0	2408	676	184	804	3633
24	0	0	2482	676	184	804	3632
25	0	0	2516	677	183	804	3632
26	0	0	2521	676	183	809	3631
27	0	0	2517	671	184	809	3631
28	0	0	2416	671	183	808	3632
29	0	0	2284	670	183	809	3631
30	0	0	2169	671	183	809	3631
31	0	0	2038	670	183	809	3632
32	0	0	1900	670	183	807	3632
33	0	0	1767	670	183	808	3632
34	0	0	1666	671	184	808	3632
35	0	0	1610	672	183	808	3632
36	0	0	1542	670	184	808	3630
37	0	0	1471	676	184	808	3630
38	0	0	1567	675	184	808	3631
39	0	0	1713	675	184	808	3631
40	0	0	1873	675	183	805	3631
41	0	0	2102	675	184	804	3631
42	0	0	2278	676	183	803	3632
43	0	0	2392	675	183	804	3632
44	0	0	2476	676	183	808	3631
45	0	0	2518	677	183	808	3631
46	0	0	2529	675	183	808	3631
47	0	0	2527	671	183	809	3631
48	0	0	2428	670	182	808	3630
49	0	0	2304	670	182	808	3630
50	0	0	2195	670	183	808	3632
51	0	0	2063	670	184	808	3631
52	0	0	1921	670	184	808	3631
53	0	0	1786	670	183	804	3632
54	0	0	1680	671	184	804	3630
55	0	0	1620	673	183	808	3630
56	0	0	1548	670	183	808	3630
57	0	0	1463	675	184	808	3630
58	0	0	1554	675	182	804	3630
59	0	0	1700	675	184	804	3630
60	0	0	1855	675	184	804	3630
61	0	0	2086	676	184	809	3630
62	0	0	2275	675	183	807	3631
63	0	0	2390	675	183	808	3631
64	0	0	2477	675	183	809	3631
65	0	0	2524	675	183	808	3630
66	0	0	2542	675	183	809	3629
67	0	0	2550	672	183	809	3629
68	0	0	2455	670	183	808	3630
69	0	0	2333	671	183	804	3629
70	0	0	2221	670	184	804	3629
71	0	0	2084	670	184	804	3630
72	0	0	1933	670	184	805	3630
73	0	0	1789	670	185	808	3631
74	0	0	1678	670	184	809	3631
75	0	0	1610	671	184	808	3629
76	0	0	1531	669	184	804	3629
77	0	0	1453	675	184	809	3629
78	0	0	1546	675	183	808	3629
79	0	0	1692	675	184	808	3629
80	0	0	1857	675	184	808	3629
81	0	0	2093	675	185	808	3630
82	0	0	2276	675	184	809	3630
83	0	0	2397	675	183	808	3630
84	0	0	2481	675	183	808	3629
85	0	0	2524	675	183	809	3628
86	0	0	2534	676	184	809	3628
87	0	0	2537	671	184	803	3628
88	0	0	2437	670	182	804	3628
89	0	0	2315	670	183	804	3628
90	0	0	2200	670	183	804	3628
91	0	0	2064	670	184	809	3629
92	0	0	1920	670	183	808	3629
93	0	0	1784	670	184	808	3630
94	0	0	1672	670	184	808	3629
95	0	0	1611	671	184	809	3628
96	0	0	1538	669	184	809	3628
97	0	0	1454	675	184	809	3628
98	0	0	1548	675	183	808	3628
99	0	0	1694	675	185	808	3629
100	0	0	1856	675	186	809	3628
101	0	0	2089	674	183	804	3628
102	0	0	2272	675	184	809	3630
103	0	0	2392	675	183	810	3629
104	0	0	2470	675	183	808	3628
105	0	0	2515	675	183	804	3627
106	0	0	2529	675	183	804	3627
107	0	0	2531	671	183	804	3628
108	0	0	2437	670	182	804	3627
109	0	0	2314	670	184	808	3627
110	0	0	2204	669	184	808	3627
111	0	0	2072	670	185	808	3628
112	0	0	1926	670	184	809	3628
113	0	0	1785	670	183	808	3628
114	0	0	1677	670	184	809	3628
115	0	0	1619	671	184	809	3627
116	0	0	1543	669	183	808	3626
117	0	0	1462	675	183	804	3627
118	0	0	1557	675	184	805	3628
119	0	0	1700	674	183	804	3627
120	0	0	1856	674	183	809	3627
121	0	0	2089	674	184	808	3628
122	0	0	2265	675	183	808	3628
123	0	0	2384	675	183	804	3628
124	0	0	2471	675	184	804	3627
125	0	0	2515	675	183	808	3627
126	0	0	2530	675	183	808	3626
127	0	0	2540	672	183	808	3626
0	0	0	2441	670	182	808	3627
1	0	0	2319	670	185	808	3626
2	0	0	2205	670	184	809	3627
3	0	0	2067	669	184	808	3627
4	0	0	1919	669	183	808	3627
5	0	0	1782	669	183	804	3628
6	0	0	1668	670	183	804	3627
7	0	0	1607	670	183	808	3626
8	0	0	1535	668	184	808	3626
9	0	0	1453	673	183	809	3626
10	0	0	1547	675	182	804	3626
11	0	0	1690	674	184	804	3626
12	0	0	1844	674	183	804	3626
13	0	0	2076	674	183	809	3626
14	0	0	2267	674	183	808	3627
15	0	0	2396	674	184	808	3627
16	0	0	2490	675	184	808	3627
17	0	0	2540	676	183	808	3626
18	0	0	2564	675	183	808	3625
19	0	0	2581	672	184	809	3626
20	0	0	2484	670	183	808	3626
21	0	0	2350	669	183	804	3625
22	0	0	2226	669	185	804	3625
23	0	0	2082	670	183	804	3626
24	0	0	1923	669	183	805	3626
25	0	0	1775	669	182	808	3627
26	0	0	1660	670	184	808	3626
27	0	0	1597	670	184	808	3626
28	0	0	1514	669	185	805	3625
29	0	0	1431	675	184	809	3624
30	0	0	1533	675	184	808	3625
31	0	0	1687	674	184	808	3624
32	0	0	1856	675	183	808	3625
33	0	0	2099	673	184	808	3626
34	0	0	2290	675	183	808	3627
35	0	0	2420	674	184	808	3626
36	0	0	2514	674	183	809	3625
37	0	0	2566	674	183	808	3626
38	0	0	2591	674	184	808	3624
39	0	0	2602	671	184	804	3624
40	0	0	2501	669	184	804	3624
41	0	0	2370	670	183	804	3624
42	0	0	2241	669	183	804	3625
43	0	0	2089	669	183	808	3625
44	0	0	1934	669	184	809	3625
45	0	0	1785	669	183	808	3626
46	0	0	1665	669	183	809	3625
47	0	0	1598	670	184	809	3624
48	0	0	1510	669	183	809	3623
49	0	0	1420	674	184	809	3623
50	0	0	1523	674	184	808	3625
51	0	0	1679	674	184	808	3624
52	0	0	1852	674	183	808	3625
53	0	0	2103	674	184	805	3625
54	0	0	2300	674	184	809	3624
55	0	0	2427	675	183	808	3625
56	0	0	2522	674	183	808	3624
57	0	0	2568	675	184	804	3624
58	0	0	2591	675	185	804	3623
59	0	0	2599	671	184	804	3623
60	0	0	2495	669	183	805	3624
61	0	0	2360	670	183	808	3624
62	0	0	2231	670	184	808	3623
63	0	0	2077	669	184	808	3624
64	0	0	1919	669	184	809	3625
65	0	0	1773	669	182	809	3624
66	0	0	1656	669	184	808	3624
67	0	0	1590	670	183	808	3624
68	0	0	1496	668	184	808	3623
69	0	0	1407	674	183	804	3622
70	0	0	1505	674	184	805	3623
71	0	0	1663	674	184	804	3623
72	0	0	1843	674	184	808	3623
73	0	0	2096	674	184	809	3623
74	0	0	2290	674	183	809	3623
75	0	0	2418	674	184	804	3624
76	0	0	2513	674	184	805	3624
77	0	0	2566	675	183	808	3623
78	0	0	2591	674	184	809	3623
79	0	0	2607	671	183	808	3623
80	0	0	2501	669	183	808	3622
81	0	0	2360	669	183	808	3622
82	0	0	2228	669	184	809	3624
83	0	0	2083	669	185	809	3623
84	0	0	1925	669	183	808	3623
85	0	0	1773	669	183	809	3624
86	0	0	1653	669	184	804	3623
87	0	0	1588	670	183	804	3623
88	0	0	1502	669	184	804	3622
89	0	0	1412	673	184	805	3621
90	0	0	1510	674	183	808	3622
91	0	0	1667	674	183	808	3622
92	0	0	1842	674	184	808	3622
93	0	0	2094	673	183	808	3623
94	0	0	2291	674	184	809	3624
95	0	0	2419	674	183	809	3623
96	0	0	2514	674	183	809	3624
97	0	0	2569	675	184	808	3622
98	0	0	2595	674	184	808	3621
99	0	0	2607	670	183	808	3621
100	0	0	2502	669	183	808	3622
101	0	0	2361	669	183	808	3621
102	0	0	2232	669	183	808	3622
103	0	0	2081	668	183	808	3622
104	0	0	1915	669	183	804	3623
105	0	0	1764	669	183	804	3623
106	0	0	1643	669	184	804	3622
107	0	0	1580	669	184	804	3623
108	0	0	1483	668	184	809	3622
109	0	0	1387	673	183	808	3621
110	0	0	1486	673	185	808	3622
111	0	0	1649	674	185	809	3621
112	0	0	1832	673	183	808	3623
113	0	0	2095	674	184	808	3622
114	0	0	2296	674	184	809	3622
115	0	0	2436	674	183	809	3622
116	0	0	2533	673	184	808	3622
117	0	0	2586	674	183	808	3621
118	0	0	2614	674	183	808	3621
119	0	0	2628	670	184	804	3622
120	0	0	2515	669	183	804	3621
121	0	0	2364	669	184	804	3621
122	0	0	2220	669	184	804	3622
123	0	0	2057	669	183	809	3622
124	0	0	1895	668	183	808	3622
125	0	0	1745	668	184	808	3622
126	0	0	1627	668	183	808	3621
127	0	0	1564	669	184	808	3621
0	0	0	1469	668	183	809	3620
1	0	0	1376	673	183	810	3620
2	0	0	1484	673	184	809	3620
3	0	0	1649	674	184	808	3622
4	0	0	1837	674	183	808	3620
5	0	0	2095	674	183	804	3621
6	0	0	2301	674	184	809	3622
7	0	0	2435	674	184	808	3622
8	0	0	2531	674	184	808	3621
9	0	0	2583	674	183	804	3620
10	0	0	2619	674	183	804	3620
11	0	0	2637	670	183	804	3620
12	0	0	2525	669	183	804	3620
13	0	0	2372	669	183	808	3620
14	0	0	2234	668	184	808	3620
15	0	0	2075	669	183	808	3620
16	0	0	1906	668	182	809	3621
17	0	0	1752	668	183	808	3622
18	0	0	1627	669	184	809	3620
19	0	0	1562	670	184	808	3621
20	0	0	1464	667	184	808	3620
21	0	0	1372	672	184	805	3619
22	0	0	1479	674	184	804	3620
23	0	0	1649	674	184	804	3619
24	0	0	1833	673	183	808	3620
25	0	0	2095	673	183	808	3620
26	0	0	2298	674	183	809	3620
27	0	0	2435	673	184	804	3621
28	0	0	2524	673	183	804	3620
29	0	0	2575	674	184	809	3619
30	0	0	2606	674	183	809	3619
31	0	0	2627	670	183	809	3619
32	0	0	2514	668	184	808	3619
33	0	0	2366	668	183	808	3619
34	0	0	2227	668	183	809	3619
35	0	0	2065	668	183	809	3620
36	0	0	1896	668	185	809	3620
37	0	0	1740	668	184	809	3620
38	0	0	1622	669	184	804	3619
39	0	0	1561	669	185	804	3620
40	0	0	1463	668	184	805	3619
41	0	0	1369	672	184	804	3618
42	0	0	1478	674	184	809	3619
43	0	0	1648	673	184	808	3619
44	0	0	1835	674	183	808	3620
45	0	0	2097	674	184	808	3619
46	0	0	2295	673	184	809	3620
47	0	0	2430	674	183	809	3620
48	0	0	2523	674	183	808	3619
49	0	0	2578	674	184	808	3619
50	0	0	2617	674	184	808	3618
51	0	0	2640	670	183	809	3618
52	0	0	2525	668	183	808	3618
53	0	0	2367	668	184	808	3618
54	0	0	2224	668	183	808	3619
55	0	0	2064	669	184	808	3619
56	0	0	1902	668	183	804	3620
57	0	0	1753	668	184	805	3619
58	0	0	1639	669	183	805	3620
59	0	0	1576	669	182	805	3618
60	0	0	1470	667	184	808	3618
61	0	0	1385	674	184	808	3619
62	0	0	1492	673	184	809	3618
63	0	0	1671	673	184	809	3619
64	0	0	1860	673	183	809	3618
65	0	0	2113	674	184	808	3619
66	0	0	2309	673	183	809	3619
67	0	0	2444	673	184	808	3619
68	0	0	2535	674	183	808	3618
69	0	0	2584	673	184	804	3618
70	0	0	2614	673	182	805	3617
71	0	0	2630	669	184	808	3617
72	0	0	2517	668	183	809	3618
73	0	0	2368	668	184	809	3617
74	0	0	2227	668	183	804	3618
75	0	0	2065	668	183	805	3618
76	0	0	1895	668	183	804	3618
77	0	0	1739	668	183	809	3619
78	0	0	1618	668	184	808	3618
79	0	0	1554	669	184	808	3619
80	0	0	1457	668	184	808	3617
81	0	0	1367	673	185	809	3617
82	0	0	1476	673	184	809	3618
83	0	0	1649	673	184	809	3617
84	0	0	1841	673	183	808	3617
85	0	0	2108	673	184	804	3618
86	0	0	2309	674	183	804	3618
87	0	0	2449	673	183	804	3619
88	0	0	2546	673	184	804	3618
89	0	0	2596	674	182	808	3617
90	0	0	2629	673	183	808	3617
91	0	0	2644	669	184	808	3617
92	0	0	2524	669	184	805	3617
93	0	0	2367	668	184	809	3617
94	0	0	2216	668	183	808	3617
95	0	0	2048	667	183	808	3618
96	0	0	1875	668	184	809	3618
97	0	0	1723	668	183	808	3618
98	0	0	1610	669	184	808	3619
99	0	0	1549	669	185	808	3617
100	0	0	1448	668	184	809	3616
101	0	0	1362	673	184	808	3616
102	0	0	1474	673	184	804	3617
103	0	0	1645	673	184	804	3616
104	0	0	1838	673	184	808	3618
105	0	0	2099	673	184	809	3618
106	0	0	2303	674	184	809	3618
107	0	0	2440	673	184	805	3618
108	0	0	2533	673	184	805	3618
109	0	0	2585	674	183	809	3616
110	0	0	2622	674	184	809	3616
111	0	0	2642	669	183	808	3616
112	0	0	2529	668	183	808	3616
113	0	0	2373	668	183	808	3616
114	0	0	2226	668	183	808	3616
115	0	0	2059	667	184	809	3617
116	0	0	1888	667	184	809	3618
117	0	0	1733	668	183	808	3617
118	0	0	1614	668	184	804	3617
119	0	0	1553	670	184	804	3616
120	0	0	1456	666	184	804	3616
121	0	0	1371	674	185	804	3615
122	0	0	1484	672	183	809	3616
123	0	0	1653	673	183	808	3616
124	0	0	1843	673	183	808	3617
125	0	0	2108	673	183	809	3617
126	0	0	2309	673	183	809	3617
127	0	0	2451	674	183	808	3617
0	0	0	2543	673	183	809	3617
1	0	0	2588	674	183	808	3616
2	0	0	2618	674	182	808	3615
3	0	0	2634	669	183	808	3615
4	0	0	2518	668	184	808	3616
5	0	0	2374	668	183	808	3615
6	0	0	2234	668	183	809	3616
7	0	0	2072	665	184	809	3616
8	0	0	1896	667	183	804	3617
9	0	0	1741	667	184	804	3617
10	0	0	1625	668	185	804	3616
11	0	0	1563	669	183	804	3616
12	0	0	1457	666	183	808	3615
13	0	0	1370	673	184	808	3615
14	0	0	1478	673	184	809	3616
15	0	0	1649	673	183	808	3615
16	0	0	1838	673	183	808	3616
17	0	0	2098	673	184	809	3617
18	0	0	2300	672	183	809	3616
19	0	0	2440	673	183	808	3616
20	0	0	2532	673	184	808	3616
21	0	0	2579	673	183	804	3616
22	0	0	2613	673	184	804	3615
23	0	0	2625	669	183	809	3615
24	0	0	2506	668	183	808	3615
25	0	0	2375	668	183	808	3615
26	0	0	2279	668	184	804	3615
27	0	0	2137	669	185	804	3616
28	0	0	1976	667	184	805	3617
29	0	0	1807	667	183	808	3616
30	0	0	1678	668	184	808	3615
31	0	0	1600	669	183	808	3615
32	0	0	1492	666	183	808	3615
33	0	0	1410	672	184	809	3615
34	0	0	1530	673	185	808	3615
35	0	0	1708	672	184	808	3614
36	0	0	1890	673	184	809	3616
37	0	0	2129	673	184	805	3616
38	0	0	2297	673	184	805	3615
39	0	0	2420	673	183	805	3617
40	0	0	2515	673	183	804	3615
41	0	0	2581	673	184	809	3614
42	0	0	2632	673	183	808	3614
43	0	0	2654	669	183	808	3614
44	0	0	2533	667	183	804	3614
45	0	0	2371	668	183	808	3614
46	0	0	2220	667	185	808	3614
47	0	0	2050	668	184	809	3615
48	0	0	1881	667	183	808	3616
49	0	0	1735	668	183	808	3616
50	0	0	1651	669	184	808	3616
51	0	0	1644	673	184	809	3614
52	0	0	1553	667	184	809	3614
53	0	0	1468	672	184	809	3613
54	0	0	1562	673	184	809	3615
55	0	0	1715	673	183	804	3614
56	0	0	1902	672	183	805	3614
57	0	0	2161	673	184	804	3615
58	0	0	2365	672	184	805	3615
59	0	0	2507	672	184	808	3615
60	0	0	2603	672	184	808	3615
61	0	0	2654	673	184	808	3614
62	0	0	2687	673	183	809	3613
63	0	0	2698	669	183	809	3613
64	0	0	2585	667	183	808	3614
65	0	0	2438	668	184	808	3614
66	0	0	2296	667	183	808	3614
67	0	0	2135	667	183	808	3615
68	0	0	1959	667	184	808	3616
69	0	0	1793	667	183	804	3615
70	0	0	1677	668	183	808	3614
71	0	0	1616	668	183	808	3614
72	0	0	1515	667	185	809	3613
73	0	0	1445	672	184	805	3613
74	0	0	1564	672	184	804	3614
75	0	0	1736	672	183	804	3613
76	0	0	1920	672	184	805	3615
77	0	0	2178	673	183	808	3615
78	0	0	2373	672	183	808	3614
79	0	0	2505	672	183	808	3615
80	0	0	2594	673	184	809	3614
81	0	0	2639	673	183	809	3613
82	0	0	2664	673	184	809	3613
83	0	0	2671	669	184	809	3613
84	0	0	2552	667	183	808	3613
85	0	0	2399	667	184	804	3613
86	0	0	2253	667	184	804	3614
87	0	0	2086	667	183	804	3614
88	0	0	1909	667	184	809	3614
89	0	0	1750	668	183	809	3615
90	0	0	1637	667	184	809	3614
91	0	0	1572	667	184	808	3614
92	0	0	1460	667	184	809	3613
93	0	0	1376	672	184	808	3613
94	0	0	1481	673	183	809	3614
95	0	0	1655	672	183	809	3614
96	0	0	1852	672	184	809	3613
97	0	0	2122	673	184	809	3614
98	0	0	2334	673	184	809	3615
99	0	0	2478	672	183	808	3614
100	0	0	2577	673	183	809	3615
101	0	0	2626	673	183	809	3613
102	0	0	2657	673	184	808	3613
103	0	0	2665	669	183	808	3612
104	0	0	2560	667	183	807	3613
105	0	0	2400	667	183	809	3613
106	0	0	2238	666	183	809	3613
107	0	0	2051	667	183	809	3614
108	0	0	1867	666	183	809	3614
109	0	0	1706	667	183	808	3614
110	0	0	1592	667	184	808	3613
111	0	0	1524	669	183	808	3613
112	0	0	1429	667	183	808	3612
113	0	0	1378	673	184	809	3613
114	0	0	1502	672	184	808	3613
115	0	0	1667	672	184	809	3614
116	0	0	1851	672	182	809	3613
117	0	0	2102	672	184	810	3614
118	0	0	2289	672	184	809	3615
119	0	0	2411	671	182	809	3614
120	0	0	2500	673	183	809	3614
121	0	0	2551	672	183	809	3612
122	0	0	2596	673	183	809	3612
123	0	0	2617	668	183	809	3612
124	0	0	2507	667	184	809	3612
125	0	0	2358	667	183	809	3612
126	0	0	2217	667	183	809	3613
127	0	0	2052	667	183	808	3613
0	0	0	1885	667	183	808	3614
1	0	0	1735	666	183	808	3614
2	0	0	1630	667	184	808	3613
3	0	0	1574	668	184	808	3612
4	0	0	1459	666	183	809	3612
5	0	0	1379	672	184	809	3612
6	0	0	1501	672	184	809	3613
7	0	0	1679	672	183	809	3612
8	0	0	1876	672	182	809	3614
9	0	0	2139	672	183	809	3614
10	0	0	2351	672	185	809	3614
11	0	0	2500	672	183	808	3614
12	0	0	2597	672	183	809	3614
13	0	0	2654	673	182	808	3612
14	0	0	2694	673	184	809	3612
15	0	0	2713	669	183	808	3612
16	0	0	2601	667	183	808	3612
17	0	0	2446	666	184	808	3612
18	0	0	2302	666	183	808	3612
19	0	0	2139	667	184	808	3613
20	0	0	1968	667	183	808	3613
21	0	0	1815	667	183	808	3614
22	0	0	1706	667	184	808	3612
23	0	0	1656	668	184	808	3613
24	0	0	1537	666	184	810	3612
25	0	0	1447	671	183	809	3611
26	0	0	1544	671	184	808	3612
27	0	0	1697	672	183	809	3612
28	0	0	1879	671	184	809	3613
29	0	0	2128	672	183	809	3612
30	0	0	2318	672	184	809	3612
31	0	0	2442	672	184	808	3613
32	0	0	2526	672	183	808	3612
33	0	0	2575	671	184	808	3612
34	0	0	2605	672	182	809	3612
35	0	0	2607	667	184	808	3612
36	0	0	2477	667	184	808	3612
37	0	0	2317	667	183	809	3612
38	0	0	2169	666	183	809	3613
39	0	0	2007	667	184	809	3612
40	0	0	1843	667	183	808	3613
41	0	0	1700	666	183	808	3613
42	0	0	1591	667	184	809	3612
43	0	0	1531	667	183	809	3612
44	0	0	1425	666	183	809	3611
45	0	0	1344	673	184	809	3611
46	0	0	1458	672	184	808	3611
47	0	0	1620	671	184	808	3612
48	0	0	1807	671	185	808	3612
49	0	0	2064	672	183	808	3612
50	0	0	2269	671	183	809	3613
51	0	0	2402	671	184	808	3613
52	0	0	2492	672	184	809	3612
53	0	0	2543	672	182	810	3611
54	0	0	2580	672	183	810	3611
55	0	0	2599	668	184	809	3611
56	0	0	2486	667	183	809	3611
57	0	0	2330	666	184	808	3611
58	0	0	2184	667	184	808	3611
59	0	0	2019	667	183	808	3612
60	0	0	1852	666	184	809	3612
61	0	0	1708	666	183	809	3613
62	0	0	1602	666	184	809	3612
63	0	0	1545	667	183	808	3612
64	0	0	1432	666	183	808	3611
65	0	0	1353	671	184	809	3612
66	0	0	1470	671	183	808	3611
67	0	0	1640	671	185	808	3611
68	0	0	1841	671	183	809	3611
69	0	0	2105	671	184	808	3612
70	0	0	2310	671	184	808	3612
71	0	0	2444	672	184	809	3613
72	0	0	2529	672	183	809	3612
73	0	0	2578	672	183	809	3611
74	0	0	2606	672	183	809	3610
75	0	0	2616	668	183	808	3610
76	0	0	2496	666	182	808	3611
77	0	0	2345	666	183	808	3612
78	0	0	2200	666	182	808	3611
79	0	0	2036	666	183	809	3611
80	0	0	1865	666	183	809	3611
81	0	0	1718	666	184	808	3612
82	0	0	1607	667	183	808	3611
83	0	0	1549	667	183	808	3612
84	0	0	1438	666	184	808	3610
85	0	0	1362	671	184	809	3610
86	0	0	1482	671	184	808	3610
87	0	0	1656	671	183	808	3610
88	0	0	1847	672	184	808	3611
89	0	0	2107	671	184	809	3611
90	0	0	2306	671	184	809	3612
91	0	0	2433	672	183	809	3612
92	0	0	2528	671	182	809	3612
93	0	0	2583	672	184	808	3610
94	0	0	2622	672	183	808	3610
95	0	0	2638	667	183	808	3609
96	0	0	2512	667	183	808	3610
97	0	0	2353	666	184	808	3610
98	0	0	2213	666	183	809	3612
99	0	0	2061	666	184	809	3611
100	0	0	1892	666	184	808	3611
101	0	0	1733	666	184	809	3612
102	0	0	1615	666	183	809	3612
103	0	0	1548	667	185	809	3610
104	0	0	1435	666	183	809	3610
105	0	0	1370	671	183	808	3609
106	0	0	1488	671	184	808	3610
107	0	0	1651	671	184	809	3610
108	0	0	1832	671	184	809	3612
109	0	0	2083	671	184	808	3611
110	0	0	2289	672	184	809	3612
111	0	0	2427	671	183	808	3611
112	0	0	2517	671	183	808	3611
113	0	0	2567	672	183	808	3610
114	0	0	2599	673	183	808	3610
115	0	0	2607	667	183	809	3609
116	0	0	2489	666	183	809	3610
117	0	0	2335	666	183	808	3610
118	0	0	2185	666	183	809	3611
119	0	0	2020	667	183	809	3612
120	0	0	1846	666	183	809	3611
121	0	0	1696	666	183	809	3612
122	0	0	1586	666	184	808	3611
123	0	0	1523	667	184	808	3610
124	0	0	1411	666	184	809	3609
125	0	0	1339	672	183	809	3609
126	0	0	1461	671	184	808	3610
127	0	0	1635	671	184	808	3609
0	0	0	1828	671	184	808	3610
1	0	0	2090	672	183	808	3610
2	0	0	2291	671	183	808	3611
3	0	0	2420	671	184	808	3611
4	0	0	2511	672	183	808	3610
5	0	0	2557	672	183	808	3610
6	0	0	2590	672	183	808	3609
7	0	0	2603	668	183	809	3610
8	0	0	2480	666	183	809	3610
9	0	0	2323	666	183	809	3611
10	0	0	2178	666	183	809	3610
11	0	0	2014	666	183	810	3610
12	0	0	1846	666	183	809	3612
13	0	0	1693	666	184	808	3611
14	0	0	1574	667	183	808	3610
15	0	0	1505	667	183	808	3609
16	0	0	1384	667	184	808	3609
17	0	0	1312	672	184	809	3609
18	0	0	1430	671	184	809	3609
19	0	0	1611	672	184	808	3609
20	0	0	1814	671	183	808	3609
21	0	0	2080	672	183	809	3610
22	0	0	2287	672	183	809	3610
23	0	0	2416	671	184	808	3611
24	0	0	2502	671	184	808	3610
25	0	0	2550	671	184	808	3610
26	0	0	2587	671	183	809	3610
27	0	0	2590	668	182	809	3609
28	0	0	2466	666	184	809	3610
29	0	0	2314	666	183	809	3609
30	0	0	2166	666	183	808	3610
31	0	0	2008	667	183	808	3610
32	0	0	1840	666	184	808	3611
33	0	0	1691	666	183	808	3611
34	0	0	1580	666	185	810	3610
35	0	0	1512	666	185	809	3609
36	0	0	1391	666	183	808	3609
37	0	0	1318	673	184	809	3609
38	0	0	1442	671	184	809	3609
39	0	0	1617	671	184	809	3609
40	0	0	1818	672	184	810	3610
41	0	0	2080	671	184	808	3611
42	0	0	2282	672	182	809	3610
43	0	0	2415	671	183	808	3610
44	0	0	2510	670	183	809	3609
45	0	0	2557	672	184	809	3609
46	0	0	2595	672	183	808	3609
47	0	0	2596	667	183	809	3608
48	0	0	2471	666	183	808	3609
49	0	0	2316	666	183	808	3609
50	0	0	2170	666	183	808	3609
51	0	0	2007	666	184	808	3610
52	0	0	1834	666	184	809	3610
53	0	0	1685	666	183	808	3610
54	0	0	1574	667	184	808	3610
55	0	0	1514	667	183	809	3609
56	0	0	1405	665	183	809	3608
57	0	0	1337	671	184	809	3609
58	0	0	1459	671	184	809	3609
59	0	0	1631	670	185	809	3610
60	0	0	1827	672	185	809	3609
61	0	0	2085	671	183	808	3610
62	0	0	2284	672	183	808	3611
63	0	0	2415	671	183	808	3610
64	0	0	2505	671	184	808	3611
65	0	0	2555	672	185	809	3609
66	0	0	2593	671	183	809	3609
67	0	0	2594	667	184	809	3608
68	0	0	2466	666	184	808	3609
69	0	0	2313	666	184	809	3609
70	0	0	2164	666	183	809	3609
71	0	0	2001	666	184	809	3609
72	0	0	1825	665	184	808	3610
73	0	0	1677	666	184	809	3611
74	0	0	1569	666	184	808	3609
75	0	0	1509	667	184	809	3609
76	0	0	1398	665	184	810	3609
77	0	0	1335	670	184	809	3608
78	0	0	1454	671	183	809	3609
79	0	0	1632	670	184	808	3608
80	0	0	1833	671	183	809	3610
81	0	0	2089	671	182	809	3609
82	0	0	2286	670	183	808	3610
83	0	0	2418	671	184	808	3610
84	0	0	2505	671	183	808	3609
85	0	0	2552	671	183	808	3609
86	0	0	2590	671	181	809	3608
87	0	0	2591	667	184	809	3609
88	0	0	2466	666	183	809	3608
89	0	0	2314	666	183	809	3608
90	0	0	2167	666	183	809	3610
91	0	0	2006	666	183	809	3610
92	0	0	1835	665	183	808	3610
93	0	0	1684	666	183	808	3609
94	0	0	1573	666	184	809	3609
95	0	0	1512	667	184	809	3609
96	0	0	1404	666	184	809	3608
97	0	0	1339	671	184	808	3609
98	0	0	1465	671	184	808	3608
99	0	0	1639	671	184	808	3609
100	0	0	1842	671	184	808	3609
101	0	0	2103	671	184	808	3609
102	0	0	2297	671	184	809	3610
103	0	0	2425	671	183	808	3610
104	0	0	2513	672	184	809	3609
105	0	0	2557	671	184	809	3608
106	0	0	2591	671	184	809	3608
107	0	0	2593	667	183	809	3608
108	0	0	2470	666	183	808	3608
109	0	0	2319	666	183	809	3609
110	0	0	2173	666	185	808	3609
111	0	0	2011	666	184	808	3609
112	0	0	1839	666	183	809	3609
113	0	0	1690	666	183	808	3610
114	0	0	1582	666	183	809	3609
115	0	0	1524	667	184	808	3608
116	0	0	1409	666	184	808	3608
117	0	0	1345	671	184	809	3608
118	0	0	1468	671	183	809	3609
119	0	0	1648	670	184	808	3608
120	0	0	1852	671	184	808	3609
121	0	0	2116	671	183	809	3610
122	0	0	2315	671	184	809	3609
123	0	0	2442	671	183	809	3609
124	0	0	2528	671	183	809	3609
125	0	0	2574	671	183	808	3608
126	0	0	2612	671	182	808	3608
127	0	0	2610	666	183	808	3608
0	0	0	2485	666	184	808	3608
1	0	0	2332	666	183	808	3608
2	0	0	2182	665	184	809	3608
3	0	0	2015	666	182	808	3609
4	0	0	1840	665	184	809	3609
5	0	0	1689	665	184	809	3609
6	0	0	1579	666	184	809	3610
7	0	0	1519	667	185	809	3608
8	0	0	1407	665	184	809	3608
9	0	0	1345	671	183	809	3608
10	0	0	1473	671	184	808	3608
11	0	0	1645	671	184	809	3609
12	0	0	1847	671	185	809	3608
13	0	0	2104	671	183	808	3609
14	0	0	2303	670	184	809	3609
15	0	0	2437	671	184	808	3609
16	0	0	2528	671	183	808	3609
17	0	0	2574	671	183	808	3608
18	0	0	2613	671	183	808	3608
19	0	0	2610	666	182	808	3608
20	0	0	2481	666	183	808	3608
21	0	0	2327	666	183	808	3608
22	0	0	2179	665	183	808	3608
23	0	0	2016	666	183	809	3609
24	0	0	1844	665	184	809	3609
25	0	0	1694	666	184	809	3610
26	0	0	1584	666	183	809	3608
27	0	0	1520	666	185	808	3609
28	0	0	1405	665	184	809	3609
29	0	0	1344	670	184	809	3608
30	0	0	1468	671	184	808	3608
31	0	0	1647	670	184	809	3608
32	0	0	1851	670	183	808	3609
33	0	0	2107	671	183	809	3609
34	0	0	2306	671	183	808	3610
35	0	0	2437	670	183	808	3609
36	0	0	2528	671	185	808	3608
37	0	0	2576	670	184	809	3608
38	0	0	2617	671	183	808	3608
39	0	0	2616	666	183	809	3608
40	0	0	2482	666	183	808	3608
41	0	0	2325	665	183	809	3608
42	0	0	2174	665	183	809	3609
43	0	0	2009	666	184	809	3609
44	0	0	1838	665	183	809	3609
45	0	0	1688	665	183	810	3610
46	0	0	1581	666	184	809	3608
47	0	0	1520	666	183	808	3608
48	0	0	1404	666	184	808	3607
49	0	0	1340	670	183	808	3607
50	0	0	1466	670	184	808	3608
51	0	0	1644	671	184	808	3608
52	0	0	1850	671	183	808	3608
53	0	0	2114	670	183	808	3608
54	0	0	2315	670	184	809	3610
55	0	0	2442	671	183	809	3609
56	0	0	2528	670	184	809	3609
57	0	0	2575	671	185	809	3608
58	0	0	2618	671	182	808	3607
59	0	0	2618	666	182	809	3608
60	0	0	2496	666	183	808	3608
61	0	0	2340	666	183	808	3607
62	0	0	2192	665	183	809	3608
63	0	0	2033	666	184	808	3608
64	0	0	1860	665	184	809	3609
65	0	0	1704	665	183	808	3609
66	0	0	1592	666	183	808	3608
67	0	0	1534	666	184	808	3608
68	0	0	1415	665	184	808	3607
69	0	0	1354	670	183	808	3608
70	0	0	1479	671	184	809	3608
71	0	0	1651	671	184	808	3608
72	0	0	1861	670	184	809	3609
73	0	0	2123	670	183	809	3609
74	0	0	2319	670	183	809	3609
75	0	0	2449	671	183	809	3609
76	0	0	2535	671	183	808	3608
77	0	0	2583	671	183	808	3608
78	0	0	2625	671	184	808	3607
79	0	0	2622	665	183	808	3608
80	0	0	2492	665	184	808	3608
81	0	0	2342	666	183	809	3608
82	0	0	2196	665	183	809	3608
83	0	0	2033	665	183	808	3608
84	0	0	1862	665	182	808	3608
85	0	0	1712	665	183	809	3608
86	0	0	1602	665	183	809	3609
87	0	0	1539	666	184	809	3608
88	0	0	1419	665	184	808	3607
89	0	0	1359	670	184	809	3607
90	0	0	1489	671	184	809	3608
91	0	0	1662	670	184	809	3607
92	0	0	1863	670	183	809	3608
93	0	0	2119	670	184	809	3608
94	0	0	2319	671	183	808	3608
95	0	0	2449	670	184	808	3608
96	0	0	2539	671	183	808	3608
97	0	0	2585	671	183	808	3608
98	0	0	2626	671	184	809	3607
99	0	0	2623	666	183	808	3608
100	0	0	2491	665	183	809	3607
101	0	0	2337	665	184	809	3608
102	0	0	2192	665	184	809	3608
103	0	0	2031	665	184	809	3608
104	0	0	1856	664	183	809	3609
105	0	0	1706	665	183	808	3609
106	0	0	1595	665	183	808	3608
107	0	0	1536	667	184	809	3608
108	0	0	1415	665	184	809	3607
109	0	0	1360	669	183	808	3607
110	0	0	1489	670	184	808	3607
111	0	0	1665	670	183	808	3607
112	0	0	1873	671	183	808	3608
113	0	0	2132	670	183	808	3608
114	0	0	2331	670	183	808	3610
115	0	0	2455	671	183	808	3608
116	0	0	2543	671	183	809	3609
117	0	0	2592	670	183	808	3608
118	0	0	2635	670	183	808	3607
119	0	0	2630	665	182	809	3607
120	0	0	2500	665	182	809	3607
121	0	0	2345	665	184	809	3607
122	0	0	2197	665	183	809	3608
123	0	0	2026	665	185	808	3608
124	0	0	1854	664	183	808	3608
125	0	0	1710	665	184	808	3608
126	0	0	1601	665	183	808	3608
127	0	0	1537	665	183	809	3607
0	0	0	1411	664	184	809	3607
1	0	0	1353	670	184	809	3608
2	0	0	1482	670	183	808	3607
3	0	0	1654	670	184	808	3608
4	0	0	1864	670	184	808	3608
5	0	0	2130	671	183	809	3608
6	0	0	2335	670	184	809	3609
7	0	0	2464	670	184	809	3608
8	0	0	2547	670	184	808	3608
9	0	0	2589	671	183	809	3608
10	0	0	2627	670	184	809	3607
11	0	0	2617	666	183	809	3607
12	0	0	2490	665	183	809	3607
13	0	0	2337	666	183	808	3607
14	0	0	2191	665	183	808	3608
15	0	0	2028	664	182	808	3608
16	0	0	1856	665	183	808	3608
17	0	0	1705	665	183	809	3608
18	0	0	1596	665	183	809	3609
19	0	0	1533	665	185	809	3607
20	0	0	1410	664	184	808	3607
21	0	0	1358	670	183	809	3608
22	0	0	1491	670	184	809	3607
23	0	0	1667	670	184	809	3607
24	0	0	1876	670	183	808	3608
25	0	0	2137	670	182	808	3608
26	0	0	2336	670	184	808	3609
27	0	0	2470	670	183	809	3609
28	0	0	2552	671	183	809	3608
29	0	0	2595	671	184	808	3608
30	0	0	2638	671	185	809	3607
31	0	0	2632	665	183	809	3608
32	0	0	2495	665	183	809	3607
33	0	0	2338	665	183	809	3608
34	0	0	2184	665	184	808	3608
35	0	0	2017	665	182	808	3608
36	0	0	1843	665	182	808	3609
37	0	0	1694	664	184	809	3608
38	0	0	1589	665	184	809	3608
39	0	0	1526	666	183	808	3608
40	0	0	1405	664	183	809	3607
41	0	0	1356	669	184	809	3607
42	0	0	1493	670	183	809	3607
43	0	0	1672	670	184	809	3607
44	0	0	1882	670	184	808	3608
45	0	0	2140	670	183	809	3609
46	0	0	2336	669	183	808	3609
47	0	0	2466	670	183	808	3608
48	0	0	2551	670	183	808	3608
49	0	0	2597	670	183	809	3607
50	0	0	2641	670	185	809	3607
51	0	0	2635	666	183	809	3608
52	0	0	2504	665	183	808	3607
53	0	0	2345	664	184	809	3607
54	0	0	2194	665	183	809	3608
55	0	0	2031	664	183	809	3609
56	0	0	1855	664	182	809	3609
57	0	0	1707	665	183	809	3609
58	0	0	1601	665	184	808	3608
59	0	0	1541	665	184	808	3607
60	0	0	1414	664	186	809	3607
61	0	0	1364	670	183	809	3608
62	0	0	1498	670	184	808	3607
63	0	0	1667	669	184	809	3607
64	0	0	1876	670	183	808	3608
65	0	0	2137	670	183	809	3608
66	0	0	2335	669	184	809	3609
67	0	0	2463	669	183	808	3608
68	0	0	2552	670	184	808	3608
69	0	0	2595	669	183	808	3608
70	0	0	2641	670	183	809	3608
71	0	0	2635	665	182	809	3607
72	0	0	2504	665	183	809	3607
73	0	0	2347	665	182	809	3607
74	0	0	2195	665	183	810	3608
75	0	0	2026	665	185	808	3608
76	0	0	1850	665	182	808	3608
77	0	0	1699	665	184	808	3608
78	0	0	1594	665	184	808	3608
79	0	0	1533	665	184	809	3607
80	0	0	1407	664	184	808	3607
81	0	0	1353	669	184	809	3607
82	0	0	1485	670	184	808	3607
83	0	0	1664	670	183	808	3607
84	0	0	1876	670	183	809	3608
85	0	0	2134	670	184	809	3609
86	0	0	2331	670	183	808	3608
87	0	0	2463	670	184	808	3608
88	0	0	2549	670	184	809	3609
89	0	0	2597	670	184	809	3608
90	0	0	2642	670	184	809	3607
91	0	0	2637	665	183	809	3607
92	0	0	2500	664	183	809	3607
93	0	0	2339	664	183	808	3607
94	0	0	2184	665	183	810	3607
95	0	0	2022	664	184	808	3608
96	0	0	1852	664	184	808	3609
97	0	0	1704	664	183	809	3608
98	0	0	1595	664	184	808	3608
99	0	0	1534	665	184	809	3607
100	0	0	1406	664	182	808	3607
101	0	0	1356	669	184	810	3607
102	0	0	1488	669	183	809	3607
103	0	0	1666	669	184	809	3608
104	0	0	1884	670	184	808	3609
105	0	0	2146	669	184	809	3609
106	0	0	2343	669	184	808	3609
107	0	0	2476	670	183	809	3609
108	0	0	2558	670	184	809	3609
109	0	0	2600	670	184	809	3608
110	0	0	2645	669	184	809	3607
111	0	0	2640	665	183	808	3607
112	0	0	2507	664	183	808	3607
113	0	0	2354	664	183	809	3607
114	0	0	2203	665	184	808	3608
115	0	0	2037	664	184	809	3608
116	0	0	1860	664	183	809	3608
117	0	0	1713	664	184	809	3608
118	0	0	1606	664	184	809	3608
119	0	0	1546	665	184	810	3607
120	0	0	1420	664	184	809	3607
121	0	0	1368	669	184	809	3607
122	0	0	1500	670	184	808	3608
123	0	0	1674	669	183	808	3607
124	0	0	1885	670	184	808	3608
125	0	0	2148	670	184	808	3608
126	0	0	2351	670	183	809	3609
127	0	0	2479	669	183	809	3608
0	0	0	2564	670	184	809	3608
1	0	0	2602	670	183	808	3608
2	0	0	2645	670	183	808	3608
3	0	0	2635	665	183	808	3607
4	0	0	2503	664	183	808	3608
5	0	0	2347	664	184	808	3607
6	0	0	2197	665	182	809	3608
7	0	0	2030	664	184	808	3608
8	0	0	1854	664	182	809	3609
9	0	0	1712	663	184	809	3609
10	0	0	1608	664	183	809	3608
11	0	0	1546	664	184	809	3607
12	0	0	1420	664	184	808	3607
13	0	0	1373	669	184	809	3608
14	0	0	1511	669	183	808	3608
15	0	0	1689	670	184	809	3608
16	0	0	1902	670	183	809	3608
17	0	0	2155	669	183	808	3608
18	0	0	2348	669	183	808	3609
19	0	0	2478	670	183	808	3609
20	0	0	2560	669	183	809	3608
21	0	0	2600	669	183	808	3608
22	0	0	2643	670	183	809	3608
23	0	0	2633	665	184	809	3607
24	0	0	2503	664	183	809	3608
25	0	0	2347	664	183	809	3607
26	0	0	2196	664	184	809	3608
27	0	0	2029	664	184	808	3608
28	0	0	1855	664	184	809	3609
29	0	0	1706	665	183	808	3608
30	0	0	1603	664	184	808	3608
31	0	0	1544	663	185	808	3607
32	0	0	1417	664	184	809	3607
33	0	0	1373	669	184	809	3607
34	0	0	1507	669	184	808	3607
35	0	0	1682	670	184	808	3608
36	0	0	1897	669	184	808	3608
37	0	0	2152	669	183	809	3608
38	0	0	2348	669	183	809	3609
39	0	0	2475	669	184	808	3608
40	0	0	2560	669	184	808	3608
41	0	0	2605	669	184	809	3608
42	0	0	2647	669	183	809	3608
43	0	0	2635	665	183	809	3607
44	0	0	2502	664	183	809	3607
45	0	0	2344	664	183	809	3608
46	0	0	2192	664	183	809	3608
47	0	0	2029	664	184	808	3608
48	0	0	1855	664	184	809	3609
49	0	0	1702	663	185	809	3608
50	0	0	1595	664	183	809	3609
51	0	0	1538	664	184	809	3607
52	0	0	1408	663	185	808	3607
53	0	0	1366	669	184	809	3608
54	0	0	1502	669	184	809	3607
55	0	0	1676	669	184	809	3607
56	0	0	1890	669	183	808	3608
57	0	0	2148	669	185	808	3608
58	0	0	2347	669	184	808	3609
59	0	0	2481	669	183	809	3608
60	0	0	2566	669	183	809	3608
61	0	0	2607	669	183	808	3607
62	0	0	2649	669	184	808	3607
63	0	0	2634	664	183	808	3607
64	0	0	2502	664	183	808	3607
65	0	0	2347	664	184	808	3607
66	0	0	2191	663	183	808	3608
67	0	0	2022	664	183	809	3608
68	0	0	1847	663	184	809	3609
69	0	0	1702	664	183	808	3609
70	0	0	1601	664	183	809	3607
71	0	0	1547	664	183	809	3608
72	0	0	1418	663	185	809	3608
73	0	0	1372	669	184	809	3607
74	0	0	1509	669	184	809	3608
75	0	0	1687	669	184	808	3607
76	0	0	1902	669	183	808	3608
77	0	0	2159	669	183	808	3609
78	0	0	2352	669	185	809	3609
79	0	0	2480	669	183	809	3609
80	0	0	2565	670	182	808	3608
81	0	0	2607	669	183	808	3608
82	0	0	2648	669	183	808	3607
83	0	0	2631	665	184	808	3608
84	0	0	2492	663	185	808	3607
85	0	0	2335	664	183	809	3608
86	0	0	2185	664	183	809	3608
87	0	0	2017	663	183	808	3608
88	0	0	1840	663	184	809	3609
89	0	0	1694	663	184	809	3609
90	0	0	1591	664	184	809	3608
91	0	0	1537	664	183	809	3607
92	0	0	1410	663	184	808	3607
93	0	0	1372	669	184	808	3607
94	0	0	1515	668	184	808	3607
95	0	0	1691	668	182	808	3608
96	0	0	1906	669	184	809	3607
97	0	0	2157	668	184	808	3608
98	0	0	2355	669	184	809	3609
99	0	0	2483	669	183	808	3609
100	0	0	2563	669	183	808	3608
101	0	0	2602	669	183	809	3608
102	0	0	2649	669	184	810	3608
103	0	0	2637	664	184	809	3607
104	0	0	2504	663	183	808	3607
105	0	0	2348	664	183	808	3607
106	0	0	2193	664	183	809	3608
107	0	0	2028	663	184	809	3608
108	0	0	1851	663	182	809	3608
109	0	0	1704	663	184	808	3608
110	0	0	1599	663	184	808	3608
111	0	0	1542	664	184	808	3607
112	0	0	1410	663	184	807	3607
113	0	0	1364	668	183	808	3608
114	0	0	1501	668	185	808	3607
115	0	0	1678	668	184	809	3608
116	0	0	1897	669	184	810	3608
117	0	0	2156	669	184	809	3608
118	0	0	2349	668	183	809	3609
119	0	0	2476	669	183	809	3608
120	0	0	2563	669	183	809	3608
121	0	0	2605	669	183	808	3608
122	0	0	2654	668	184	808	3607
123	0	0	2642	664	183	808	3607
124	0	0	2503	664	182	809	3608
125	0	0	2345	663	184	809	3607
126	0	0	2188	663	183	809	3608
127	0	0	2023	663	183	809	3609
0	0	0	1847	663	183	808	3609
1	0	0	1703	663	183	808	3608
2	0	0	1598	664	184	808	3608
3	0	0	1541	664	183	809	3608
4	0	0	1411	663	184	807	3607
5	0	0	1371	669	183	809	3607
6	0	0	1508	669	184	809	3607
7	0	0	1681	668	184	809	3607
8	0	0	1895	668	184	808	3608
9	0	0	2151	668	183	808	3608
10	0	0	2346	669	183	808	3609
11	0	0	2473	668	183	809	3608
12	0	0	2557	668	183	809	3609
13	0	0	2604	668	183	809	3608
14	0	0	2655	669	183	808	3607
15	0	0	2640	664	184	808	3608
16	0	0	2498	664	184	808	3607
17	0	0	2341	663	183	808	3607
18	0	0	2186	663	183	808	3608
19	0	0	2018	663	184	809	3608
20	0	0	1846	663	184	809	3609
21	0	0	1703	663	183	808	3608
22	0	0	1600	664	183	809	3608
23	0	0	1542	663	184	809	3608
24	0	0	1407	663	183	809	3608
25	0	0	1367	668	185	809	3608
26	0	0	1511	668	184	809	3608
27	0	0	1682	668	184	809	3607
28	0	0	1896	668	184	809	3608
29	0	0	2156	668	184	809	3609
30	0	0	2353	668	183	808	3608
31	0	0	2482	669	183	809	3609
32	0	0	2565	668	184	809	3608
33	0	0	2608	669	183	808	3608
34	0	0	2648	668	184	808	3607
35	0	0	2632	664	184	808	3607
36	0	0	2496	663	183	808	3607
37	0	0	2339	663	184	808	3607
38	0	0	2185	663	184	808	3607
39	0	0	2024	663	183	809	3608
40	0	0	1846	663	183	809	3608
41	0	0	1696	663	183	809	3608
42	0	0	1594	664	183	809	3608
43	0	0	1537	663	184	809	3607
44	0	0	1398	662	184	808	3607
45	0	0	1360	668	185	808	3608
46	0	0	1501	668	184	808	3607
47	0	0	1677	668	183	808	3608
48	0	0	1896	668	184	808	3608
49	0	0	2148	668	183	809	3608
50	0	0	2343	668	184	809	3609
51	0	0	2471	668	184	808	3608
52	0	0	2555	668	183	808	3608
53	0	0	2598	668	184	809	3608
54	0	0	2646	669	183	809	3607
55	0	0	2625	663	184	809	3607
56	0	0	2486	663	183	808	3607
57	0	0	2333	663	184	808	3607
58	0	0	2181	663	184	809	3608
59	0	0	2019	663	183	809	3608
60	0	0	1842	663	184	809	3609
61	0	0	1700	663	183	809	3609
62	0	0	1595	663	184	808	3608
63	0	0	1536	663	183	808	3607
64	0	0	1406	662	184	809	3607
65	0	0	1375	668	184	808	3608
66	0	0	1520	668	184	808	3607
67	0	0	1695	668	183	809	3607
68	0	0	1910	668	183	808	3608
69	0	0	2169	668	185	809	3608
70	0	0	2360	668	184	809	3608
71	0	0	2481	668	183	809	3608
72	0	0	2563	668	183	809	3608
73	0	0	2602	669	183	809	3608
74	0	0	2645	668	183	809	3607
75	0	0	2629	664	183	808	3607
76	0	0	2491	663	183	809	3608
77	0	0	2338	662	184	808	3607
78	0	0	2183	663	183	809	3608
79	0	0	2020	663	183	809	3608
80	0	0	1840	663	184	808	3608
81	0	0	1692	663	183	809	3608
82	0	0	1588	663	184	808	3608
83	0	0	1533	663	183	808	3607
84	0	0	1397	663	183	809	3607
85	0	0	1363	668	184	808	3607
86	0	0	1510	668	184	808	3607
87	0	0	1688	668	183	809	3608
88	0	0	1906	667	184	810	3607
89	0	0	2162	668	183	809	3608
90	0	0	2356	668	183	809	3609
91	0	0	2481	668	183	808	3608
92	0	0	2564	668	183	808	3608
93	0	0	2606	669	184	808	3607
94	0	0	2646	668	184	808	3607
95	0	0	2628	664	183	809	3607
96	0	0	2492	663	182	808	3607
97	0	0	2334	663	183	809	3607
98	0	0	2181	663	183	808	3608
99	0	0	2018	663	184	808	3609
100	0	0	1844	663	183	808	3608
101	0	0	1703	663	183	809	3609
102	0	0	1598	663	184	808	3608
103	0	0	1539	663	184	808	3607
104	0	0	1404	663	184	808	3606
105	0	0	1371	668	184	809	3607
106	0	0	1514	668	183	809	3607
107	0	0	1692	667	184	809	3607
108	0	0	1908	668	184	809	3607
109	0	0	2165	668	183	808	3608
110	0	0	2359	668	183	808	3608
111	0	0	2482	669	183	808	3608
112	0	0	2561	668	184	809	3609
113	0	0	2600	668	183	809	3607
114	0	0	2640	669	183	808	3607
115	0	0	2619	664	183	809	3608
116	0	0	2482	662	184	808	3607
117	0	0	2331	663	184	808	3607
118	0	0	2180	663	184	808	3608
119	0	0	2018	663	183	808	3608
120	0	0	1851	662	184	809	3608
121	0	0	1708	662	184	809	3608
122	0	0	1603	663	184	809	3608
123	0	0	1545	663	184	809	3608
124	0	0	1417	662	184	808	3608
125	0	0	1389	668	183	808	3607
126	0	0	1526	668	184	808	3606
127	0	0	1698	667	184	808	3608
0	0	0	1914	668	183	809	3608
1	0	0	2165	668	183	808	3608
2	0	0	2352	668	183	808	3608
3	0	0	2475	668	184	808	3608
4	0	0	2551	668	183	808	3608
5	0	0	2586	668	183	809	3607
6	0	0	2628	668	183	809	3606
7	0	0	2606	663	183	808	3607
8	0	0	2475	663	184	808	3607
9	0	0	2330	662	183	808	3607
10	0	0	2183	663	184	809	3608
11	0	0	2027	663	183	809	3608
12	0	0	1858	662	183	809	3608
13	0	0	1713	663	183	809	3608
14	0	0	1608	663	184	808	3608
15	0	0	1553	663	184	808	3607
16	0	0	1428	662	184	808	3607
17	0	0	1396	668	185	808	3608
18	0	0	1532	667	184	809	3607
19	0	0	1703	668	183	809	3608
20	0	0	1917	668	184	809	3608
21	0	0	2168	667	183	809	3608
22	0	0	2353	668	184	809	3609
23	0	0	2471	668	183	809	3608
24	0	0	2551	668	183	809	3609
25	0	0	2590	667	183	808	3607
26	0	0	2627	668	183	809	3607
27	0	0	2604	663	182	809	3608
28	0	0	2472	663	183	809	3606
29	0	0	2330	663	184	808	3607
30	0	0	2186	662	184	809	3608
31	0	0	2026	662	183	809	3608
32	0	0	1855	663	183	808	3608
33	0	0	1712	663	183	808	3609
34	0	0	1610	662	184	808	3608
35	0	0	1553	662	182	808	3607
36	0	0	1427	662	185	809	3607
37	0	0	1397	668	184	808	3607
38	0	0	1534	668	183	808	3606
39	0	0	1706	667	184	809	3607
40	0	0	1914	667	183	809	3607
41	0	0	2162	667	184	810	3608
42	0	0	2350	668	183	809	3609
43	0	0	2472	668	183	808	3608
44	0	0	2546	668	183	809	3609
45	0	0	2581	668	183	809	3607
46	0	0	2616	668	183	809	3607
47	0	0	2593	663	183	809	3607
48	0	0	2465	663	183	808	3606
49	0	0	2322	663	183	809	3607
50	0	0	2177	662	184	808	3608
51	0	0	2023	662	183	808	3608
52	0	0	1853	662	184	808	3608
53	0	0	1713	662	183	809	3608
54	0	0	1611	663	184	808	3608
55	0	0	1554	663	184	808	3608
56	0	0	1429	662	184	809	3607
57	0	0	1406	667	183	809	3607
58	0	0	1542	668	184	809	3607
59	0	0	1708	667	184	809	3607
60	0	0	1917	668	184	809	3607
61	0	0	2167	668	184	808	3608
62	0	0	2354	668	185	809	3609
63	0	0	2471	667	184	808	3608
64	0	0	2547	668	182	808	3608
65	0	0	2578	667	183	809	3607
66	0	0	2611	668	184	809	3607
67	0	0	2584	663	182	809	3607
68	0	0	2454	663	184	808	3607
69	0	0	2316	663	183	809	3607
70	0	0	2177	662	183	809	3607
71	0	0	2025	662	183	807	3608
72	0	0	1855	662	184	808	3608
73	0	0	1713	663	184	809	3609
74	0	0	1610	663	184	808	3608
75	0	0	1555	662	183	809	3607
76	0	0	1432	662	183	810	3607
77	0	0	1407	667	184	809	3607
78	0	0	1543	667	184	809	3606
79	0	0	1711	667	183	808	3607
80	0	0	1924	667	183	808	3607
81	0	0	2169	667	183	809	3608
82	0	0	2350	667	183	808	3608
83	0	0	2465	667	183	809	3608
84	0	0	2542	667	183	809	3608
85	0	0	2577	668	183	809	3607
86	0	0	2615	668	183	809	3607
87	0	0	2587	663	182	809	3607
88	0	0	2461	663	183	809	3608
89	0	0	2318	663	184	809	3607
90	0	0	2171	662	182	808	3607
91	0	0	2018	663	183	809	3608
92	0	0	1851	662	183	809	3609
93	0	0	1711	662	183	808	3608
94	0	0	1613	663	184	809	3608
95	0	0	1555	663	184	810	3607
96	0	0	1429	662	184	809	3607
97	0	0	1407	668	183	808	3608
98	0	0	1542	668	184	808	3606
99	0	0	1707	667	183	809	3607
100	0	0	1920	667	185	808	3607
101	0	0	2166	667	183	807	3608
102	0	0	2344	667	183	809	3608
103	0	0	2461	667	183	808	3608
104	0	0	2542	669	183	808	3607
105	0	0	2583	667	183	808	3607
106	0	0	2620	669	183	808	3607
107	0	0	2593	663	184	809	3607
108	0	0	2460	662	184	809	3607
109	0	0	2318	662	183	808	3608
110	0	0	2173	662	184	809	3608
111	0	0	2014	662	183	804	3608
112	0	0	1849	662	183	804	3608
113	0	0	1713	662	184	804	3608
114	0	0	1618	663	183	805	3607
115	0	0	1559	662	183	808	3607
116	0	0	1433	662	184	809	3607
117	0	0	1408	667	183	808	3607
118	0	0	1542	668	184	809	3606
119	0	0	1707	667	184	808	3607
120	0	0	1916	668	183	809	3608
121	0	0	2163	668	184	809	3608
122	0	0	2345	668	183	808	3608
123	0	0	2465	667	184	808	3608
124	0	0	2541	668	185	808	3609
125	0	0	2577	668	183	805	3607
126	0	0	2616	668	183	809	3607
127	0	0	2591	663	183	808	3607
0	0	0	2464	663	184	808	3606
1	0	0	2321	663	183	805	3607
2	0	0	2177	662	183	805	3608
3	0	0	2022	662	183	805	3609
4	0	0	1855	662	184	804	3608
5	0	0	1713	662	184	808	3608
6	0	0	1612	662	184	808	3608
7	0	0	1559	663	184	808	3607
8	0	0	1431	662	184	810	3607
9	0	0	1411	667	184	809	3607
10	0	0	1548	667	183	808	3606
11	0	0	1710	667	184	809	3608
12	0	0	1928	667	184	809	3608
13	0	0	2171	667	183	805	3608
14	0	0	2352	667	183	805	3609
15	0	0	2465	667	183	805	3608
16	0	0	2543	667	183	808	3608
17	0	0	2585	668	184	809	3607
18	0	0	2621	668	183	809	3607
19	0	0	2592	663	183	805	3607
20	0	0	2460	662	183	804	3607
21	0	0	2317	663	183	809	3608
22	0	0	2172	662	183	809	3608
23	0	0	2015	662	183	809	3608
24	0	0	1853	662	183	808	3609
25	0	0	1712	662	183	809	3607
26	0	0	1612	662	183	809	3608
27	0	0	1557	662	184	809	3607
28	0	0	1433	662	184	809	3607
29	0	0	1418	667	184	809	3607
30	0	0	1556	667	184	805	3607
31	0	0	1720	667	184	805	3607
32	0	0	1929	667	184	805	3608
33	0	0	2170	667	183	805	3608
34	0	0	2352	667	183	808	3608
35	0	0	2467	667	184	808	3608
36	0	0	2541	667	183	808	3607
37	0	0	2577	668	184	809	3607
38	0	0	2611	668	183	808	3607
39	0	0	2582	663	182	809	3607
40	0	0	2455	662	184	809	3608
41	0	0	2316	663	185	808	3607
42	0	0	2171	662	183	808	3607
43	0	0	2017	662	184	809	3608
44	0	0	1846	661	183	808	3608
45	0	0	1704	663	184	808	3608
46	0	0	1604	662	183	808	3608
47	0	0	1550	662	183	809	3607
48	0	0	1425	662	184	805	3607
49	0	0	1410	667	185	805	3608
50	0	0	1547	667	184	804	3606
51	0	0	1713	667	184	804	3607
52	0	0	1928	667	183	809	3608
53	0	0	2173	667	184	809	3608
54	0	0	2353	667	184	809	3608
55	0	0	2472	667	184	809	3608
56	0	0	2547	667	183	808	3608
57	0	0	2580	667	184	808	3607
58	0	0	2614	667	184	809	3606
59	0	0	2584	663	184	808	3607
60	0	0	2453	662	183	808	3606
61	0	0	2316	662	184	805	3608
62	0	0	2172	662	183	805	3607
63	0	0	2014	662	183	809	3608
64	0	0	1847	662	184	809	3609
65	0	0	1708	662	184	808	3608
66	0	0	1607	663	184	805	3609
67	0	0	1550	663	184	805	3607
68	0	0	1425	662	184	805	3607
69	0	0	1409	667	184	809	3607
70	0	0	1548	667	184	809	3608
71	0	0	1712	668	183	808	3607
72	0	0	1925	665	184	808	3607
73	0	0	2169	667	184	809	3608
74	0	0	2348	667	182	809	3608
75	0	0	2467	667	184	809	3608
76	0	0	2545	667	184	809	3607
77	0	0	2582	667	184	804	3607
78	0	0	2620	668	183	805	3607
79	0	0	2588	662	183	805	3607
80	0	0	2456	663	184	804	3606
81	0	0	2315	662	183	808	3607
82	0	0	2169	662	183	809	3607
83	0	0	2008	662	183	808	3608
84	0	0	1840	662	184	804	3608
85	0	0	1703	662	184	809	3608
86	0	0	1610	662	184	809	3607
87	0	0	1556	662	183	809	3607
88	0	0	1428	661	183	809	3606
89	0	0	1414	667	184	808	3607
90	0	0	1553	667	184	808	3608
91	0	0	1717	667	183	809	3607
92	0	0	1929	666	184	809	3607
93	0	0	2174	667	183	809	3608
94	0	0	2350	667	183	808	3608
95	0	0	2468	667	184	804	3608
96	0	0	2543	667	183	804	3607
97	0	0	2579	667	183	805	3607
98	0	0	2617	667	184	805	3606
99	0	0	2586	662	183	809	3607
100	0	0	2455	662	183	808	3606
101	0	0	2315	662	183	808	3607
102	0	0	2164	661	184	809	3607
103	0	0	2011	662	184	809	3608
104	0	0	1846	661	184	809	3608
105	0	0	1711	662	184	808	3608
106	0	0	1616	663	184	808	3608
107	0	0	1559	662	184	808	3608
108	0	0	1429	662	185	808	3607
109	0	0	1414	667	185	805	3607
110	0	0	1554	667	184	809	3607
111	0	0	1718	666	184	808	3607
112	0	0	1937	667	183	808	3608
113	0	0	2185	667	184	804	3609
114	0	0	2360	667	183	804	3608
115	0	0	2479	667	184	805	3609
116	0	0	2552	666	183	804	3607
117	0	0	2585	666	184	808	3607
118	0	0	2621	667	183	808	3606
119	0	0	2584	663	183	808	3607
120	0	0	2451	662	183	809	3606
121	0	0	2314	662	183	809	3608
122	0	0	2173	662	183	809	3608
123	0	0	2018	661	183	809	3608
124	0	0	1842	661	183	808	3608
125	0	0	1702	662	183	805	3609
126	0	0	1605	663	183	804	3607
127	0	0	1553	663	184	805	3607
0	0	0	1426	662	183	809	3607
1	0	0	1415	667	184	809	3607
2	0	0	1552	666	184	808	3607
3	0	0	1717	667	184	804	3607
4	0	0	1931	667	184	805	3607
5	0	0	2171	667	184	809	3608
6	0	0	2355	666	183	809	3609
7	0	0	2472	667	183	808	3608
8	0	0	2547	667	183	808	3608
9	0	0	2583	667	183	809	3608
10	0	0	2622	668	182	809	3606
11	0	0	2588	662	183	809	3607
12	0	0	2458	662	183	809	3608
13	0	0	2316	662	181	808	3607
14	0	0	2165	662	184	804	3608
15	0	0	2009	661	184	804	3608
16	0	0	1847	662	183	805	3608
17	0	0	1707	661	183	805	3608
18	0	0	1609	662	183	808	3608
19	0	0	1556	662	183	809	3607
20	0	0	1425	661	184	808	3607
21	0	0	1411	667	184	809	3607
22	0	0	1555	667	184	808	3607
23	0	0	1722	667	185	809	3607
24	0	0	1939	667	183	808	3607
25	0	0	2185	667	184	809	3608
26	0	0	2366	667	184	809	3609
27	0	0	2478	666	184	808	3608
28	0	0	2549	667	183	808	3609
29	0	0	2582	667	183	809	3607
30	0	0	2621	667	183	809	3607
31	0	0	2588	662	183	809	3608
32	0	0	2448	661	183	804	3607
33	0	0	2307	662	182	805	3607
34	0	0	2167	661	184	804	3607
35	0	0	2011	661	183	805	3608
36	0	0	1841	661	184	809	3609
37	0	0	1701	662	184	808	3608
38	0	0	1605	662	184	808	3608
39	0	0	1554	662	183	809	3607
40	0	0	1427	661	184	809	3607
41	0	0	1416	666	184	808	3607
42	0	0	1556	667	184	809	3608
43	0	0	1721	667	184	809	3607
44	0	0	1937	667	185	808	3608
45	0	0	2176	666	184	805	3608
46	0	0	2352	667	184	805	3609
47	0	0	2470	667	184	808	3608
48	0	0	2544	667	184	808	3608
49	0	0	2586	667	183	808	3607
50	0	0	2632	667	183	805	3607
51	0	0	2594	662	183	804	3607
52	0	0	2453	662	184	805	3608
53	0	0	2312	662	183	808	3607
54	0	0	2163	662	183	808	3608
55	0	0	2008	661	183	808	3608
56	0	0	1839	661	183	808	3609
57	0	0	1701	661	184	808	3608
58	0	0	1605	662	184	808	3609
59	0	0	1552	662	183	809	3608
60	0	0	1425	661	184	809	3607
61	0	0	1414	666	184	804	3607
62	0	0	1558	666	183	804	3607
63	0	0	1725	666	185	804	3607
64	0	0	1940	667	184	803	3608
65	0	0	2183	667	183	809	3609
66	0	0	2362	667	183	808	3609
67	0	0	2481	666	183	809	3608
68	0	0	2558	667	183	805	3608
69	0	0	2592	666	183	809	3607
70	0	0	2632	667	184	809	3607
71	0	0	2596	662	183	809	3607
72	0	0	2457	661	183	808	3607
73	0	0	2315	662	184	808	3607
74	0	0	2168	661	183	809	3608
75	0	0	2014	661	182	809	3608
76	0	0	1844	661	184	808	3609
77	0	0	1701	662	184	804	3608
78	0	0	1600	662	184	804	3609
79	0	0	1550	662	184	805	3608
80	0	0	1422	661	183	808	3607
81	0	0	1416	667	183	809	3608
82	0	0	1551	666	184	808	3607
83	0	0	1719	667	185	804	3609
84	0	0	1937	666	184	805	3609
85	0	0	2176	667	184	809	3608
86	0	0	2349	667	183	809	3609
87	0	0	2463	667	183	808	3608
88	0	0	2536	667	183	808	3608
89	0	0	2574	667	184	808	3608
90	0	0	2614	666	182	809	3607
91	0	0	2576	662	183	809	3608
92	0	0	2444	661	184	809	3607
93	0	0	2303	662	183	809	3607
94	0	0	2153	661	183	804	3608
95	0	0	1999	661	184	805	3608
96	0	0	1835	661	184	805	3609
97	0	0	1698	661	183	804	3608
98	0	0	1602	662	183	808	3608
99	0	0	1549	661	184	808	3608
100	0	0	1423	661	184	809	3608
101	0	0	1419	666	184	808	3608
102	0	0	1561	667	184	809	3608
103	0	0	1726	668	184	808	3607
104	0	0	1947	667	183	808	3608
105	0	0	2189	666	184	809	3608
106	0	0	2363	666	184	809	3609
107	0	0	2481	666	183	808	3608
108	0	0	2558	666	184	809	3608
109	0	0	2590	666	183	809	3608
110	0	0	2632	666	183	809	3607
111	0	0	2595	662	184	809	3608
112	0	0	2452	661	183	804	3607
113	0	0	2309	661	184	804	3609
114	0	0	2160	661	183	804	3609
115	0	0	2003	661	184	805	3609
116	0	0	1837	661	184	809	3609
117	0	0	1702	661	182	808	3609
118	0	0	1606	661	184	808	3608
119	0	0	1547	661	183	809	3608
120	0	0	1413	661	184	809	3607
121	0	0	1412	666	184	809	3608
122	0	0	1556	666	184	808	3607
123	0	0	1721	667	183	808	3608
124	0	0	1939	667	183	809	3608
125	0	0	2183	666	184	805	3608
126	0	0	2355	666	183	804	3609
127	0	0	2470	667	184	809	3609
0	0	0	2543	666	184	809	3608
1	0	0	2581	668	184	809	3608
2	0	0	2626	666	184	805	3608
3	0	0	2585	662	183	805	3608
4	0	0	2452	661	183	804	3607
5	0	0	2311	661	183	808	3609
6	0	0	2160	661	183	808	3608
7	0	0	2006	660	183	809	3609
8	0	0	1842	661	184	808	3609
9	0	0	1704	661	183	809	3608
10	0	0	1606	662	184	809	3608
11	0	0	1549	661	184	808	3608
12	0	0	1419	661	184	809	3608
13	0	0	1419	666	184	805	3608
14	0	0	1562	666	184	804	3607
15	0	0	1729	666	183	804	3608
16	0	0	1946	666	184	805	3608
17	0	0	2188	666	184	809	3609
18	0	0	2365	666	184	809	3610
19	0	0	2478	667	183	808	3609
20	0	0	2554	666	183	803	3610
21	0	0	2589	667	183	809	3608
22	0	0	2627	665	182	809	3607
23	0	0	2586	662	184	808	3608
24	0	0	2449	661	184	808	3608
25	0	0	2309	661	183	808	3608
26	0	0	2159	660	184	809	3608
27	0	0	2006	660	184	809	3609
28	0	0	1839	661	183	809	3609
29	0	0	1699	661	184	808	3609
30	0	0	1606	661	184	808	3609
31	0	0	1552	662	183	805	3608
32	0	0	1419	661	183	804	3608
33	0	0	1420	666	183	805	3608
34	0	0	1563	666	183	804	3608
35	0	0	1726	666	184	808	3609
36	0	0	1943	666	184	809	3610
37	0	0	2183	666	183	809	3610
38	0	0	2361	666	184	809	3610
39	0	0	2479	667	183	808	3609
40	0	0	2550	666	184	809	3609
41	0	0	2584	666	184	809	3608
42	0	0	2620	666	183	809	3608
43	0	0	2581	662	183	808	3608
44	0	0	2448	661	182	808	3608
45	0	0	2305	661	183	805	3608
46	0	0	2157	661	183	809	3608
47	0	0	2005	660	183	809	3609
48	0	0	1843	660	183	808	3609
49	0	0	1705	661	183	804	3609
50	0	0	1609	661	183	804	3610
51	0	0	1550	661	184	805	3608
52	0	0	1415	661	183	805	3608
53	0	0	1416	666	185	809	3609
54	0	0	1558	666	184	808	3608
55	0	0	1721	666	183	809	3608
56	0	0	1949	667	184	809	3609
57	0	0	2192	666	185	809	3610
58	0	0	2365	666	183	808	3610
59	0	0	2478	667	184	809	3609
60	0	0	2548	666	183	809	3609
61	0	0	2583	667	182	809	3608
62	0	0	2623	666	183	804	3608
63	0	0	2580	661	184	804	3608
64	0	0	2446	661	183	804	3608
65	0	0	2309	661	184	804	3608
66	0	0	2160	660	184	809	3608
67	0	0	2006	661	183	809	3609
68	0	0	1843	661	184	809	3610
69	0	0	1708	661	183	809	3609
70	0	0	1616	661	183	809	3610
71	0	0	1558	661	183	809	3609
72	0	0	1423	661	184	809	3608
73	0	0	1422	666	183	808	3608
74	0	0	1568	666	183	808	3608
75	0	0	1726	666	184	808	3608
76	0	0	1945	667	184	809	3609
77	0	0	2184	666	184	809	3609
78	0	0	2361	666	184	808	3610
79	0	0	2477	666	183	809	3610
80	0	0	2552	666	184	805	3609
81	0	0	2584	667	183	804	3609
82	0	0	2624	666	184	805	3609
83	0	0	2581	661	184	804	3608
84	0	0	2442	661	183	808	3608
85	0	0	2301	661	183	809	3609
86	0	0	2155	661	184	808	3609
87	0	0	2002	660	184	809	3610
88	0	0	1838	660	184	808	3610
89	0	0	1700	661	183	809	3609
90	0	0	1607	661	183	808	3609
91	0	0	1545	661	184	808	3608
92	0	0	1409	661	184	808	3608
93	0	0	1411	667	184	804	3609
94	0	0	1555	666	184	804	3608
95	0	0	1728	666	183	809	3608
96	0	0	1953	667	184	809	3609
97	0	0	2194	666	184	808	3610
98	0	0	2369	666	184	804	3610
99	0	0	2480	667	183	804	3609
100	0	0	2555	666	183	804	3609
101	0	0	2587	666	184	809	3608
102	0	0	2626	666	182	808	3608
103	0	0	2583	661	183	808	3609
104	0	0	2448	661	183	808	3608
105	0	0	2311	661	183	808	3610
106	0	0	2163	661	183	809	3610
107	0	0	2004	661	183	809	3609
108	0	0	1842	661	184	809	3611
109	0	0	1704	661	184	804	3610
110	0	0	1616	661	184	805	3609
111	0	0	1558	661	184	804	3609
112	0	0	1422	661	185	805	3609
113	0	0	1417	667	184	808	3609
114	0	0	1562	666	184	808	3608
115	0	0	1727	665	184	808	3609
116	0	0	1958	665	184	804	3609
117	0	0	2194	665	184	809	3610
118	0	0	2366	666	184	808	3610
119	0	0	2480	667	184	809	3611
120	0	0	2554	666	183	809	3609
121	0	0	2586	666	184	808	3609
122	0	0	2626	666	184	809	3610
123	0	0	2579	661	184	809	3609
124	0	0	2439	661	184	809	3608
125	0	0	2300	661	183	809	3609
126	0	0	2154	661	183	809	3609
127	0	0	1999	660	184	804	3610
0	0	0	1832	660	183	804	3610
1	0	0	1698	661	183	804	3610
2	0	0	1604	661	183	805	3611
3	0	0	1541	661	184	809	3609
4	0	0	1406	661	183	809	3609
5	0	0	1409	666	184	809	3610
6	0	0	1557	666	184	808	3609
7	0	0	1722	666	184	808	3609
8	0	0	1949	666	184	808	3609
9	0	0	2189	666	183	809	3611
10	0	0	2366	666	183	808	3611
11	0	0	2482	666	183	808	3610
12	0	0	2555	666	184	808	3610
13	0	0	2583	666	183	805	3609
14	0	0	2622	666	184	809	3609
15	0	0	2580	661	183	808	3609
16	0	0	2446	661	183	809	3610
17	0	0	2306	661	182	805	3609
18	0	0	2158	661	184	804	3610
19	0	0	2004	661	183	805	3610
20	0	0	1837	661	183	805	3611
21	0	0	1697	662	183	808	3610
22	0	0	1605	661	184	808	3610
23	0	0	1547	661	184	808	3609
24	0	0	1412	661	184	808	3609
25	0	0	1417	665	184	809	3609
26	0	0	1566	666	184	809	3609
27	0	0	1729	666	184	809	3610
28	0	0	1953	666	185	808	3610
29	0	0	2194	666	184	805	3611
30	0	0	2367	666	184	804	3611
31	0	0	2480	666	182	804	3610
32	0	0	2552	666	183	809	3611
33	0	0	2581	666	184	809	3611
34	0	0	2629	666	184	809	3609
35	0	0	2580	661	184	804	3609
36	0	0	2438	661	184	804	3609
37	0	0	2298	661	184	809	3610
38	0	0	2149	660	184	810	3610
39	0	0	1996	660	183	809	3611
40	0	0	1831	661	184	808	3612
41	0	0	1694	661	184	808	3611
42	0	0	1601	661	184	808	3610
43	0	0	1541	661	184	809	3609
44	0	0	1403	660	184	809	3609
45	0	0	1408	665	183	810	3609
46	0	0	1559	665	184	808	3609
47	0	0	1727	666	184	808	3610
48	0	0	1958	666	184	804	3610
49	0	0	2197	665	184	804	3611
50	0	0	2371	666	183	804	3611
51	0	0	2486	665	183	804	3611
52	0	0	2555	666	185	808	3611
53	0	0	2577	666	183	809	3610
54	0	0	2614	666	182	809	3611
55	0	0	2569	661	183	808	3610
56	0	0	2434	661	184	808	3610
57	0	0	2295	661	182	809	3611
58	0	0	2145	661	183	809	3611
59	0	0	1988	661	183	809	3611
60	0	0	1829	660	183	809	3611
61	0	0	1694	660	183	804	3611
62	0	0	1601	661	184	804	3611
63	0	0	1546	661	184	809	3610
64	0	0	1416	661	184	809	3610
65	0	0	1426	665	184	808	3610
66	0	0	1571	666	183	805	3611
67	0	0	1735	665	184	805	3610
68	0	0	1960	665	184	806	3611
69	0	0	2198	666	184	809	3611
70	0	0	2371	666	183	807	3612
71	0	0	2486	665	183	808	3611
72	0	0	2559	666	183	809	3611
73	0	0	2584	666	184	809	3611
74	0	0	2626	666	183	809	3610
75	0	0	2581	661	183	809	3611
76	0	0	2443	660	183	809	3610
77	0	0	2301	660	183	804	3610
78	0	0	2150	661	183	805	3611
79	0	0	1994	660	183	805	3611
80	0	0	1825	660	183	804	3612
81	0	0	1687	660	182	809	3611
82	0	0	1595	660	184	808	3611
83	0	0	1540	661	183	809	3611
84	0	0	1404	660	184	805	3611
85	0	0	1418	666	184	808	3611
86	0	0	1568	666	184	809	3610
87	0	0	1736	665	183	809	3610
88	0	0	1964	665	184	808	3612
89	0	0	2198	665	184	808	3611
90	0	0	2370	666	184	809	3612
91	0	0	2483	666	184	809	3612
92	0	0	2554	665	183	809	3611
93	0	0	2587	666	184	809	3610
94	0	0	2622	665	183	808	3610
95	0	0	2577	661	183	804	3610
96	0	0	2440	660	183	804	3610
97	0	0	2300	660	183	805	3611
98	0	0	2149	661	184	805	3611
99	0	0	1995	660	184	809	3611
100	0	0	1832	660	184	808	3612
101	0	0	1696	660	185	808	3612
102	0	0	1599	661	184	809	3612
103	0	0	1540	660	183	809	3611
104	0	0	1407	660	183	809	3610
105	0	0	1416	665	184	809	3611
106	0	0	1563	665	183	809	3612
107	0	0	1730	665	183	809	3611
108	0	0	1956	666	184	808	3612
109	0	0	2198	665	184	805	3612
110	0	0	2372	666	184	808	3612
111	0	0	2484	666	183	808	3612
112	0	0	2552	665	183	809	3612
113	0	0	2584	666	183	805	3611
114	0	0	2628	666	184	805	3610
115	0	0	2580	661	183	804	3611
116	0	0	2443	660	184	805	3610
117	0	0	2300	661	186	808	3611
118	0	0	2150	660	183	809	3611
119	0	0	2002	660	183	809	3612
120	0	0	1833	660	183	808	3612
121	0	0	1694	660	184	809	3613
122	0	0	1600	660	183	809	3611
123	0	0	1539	661	183	809	3611
124	0	0	1404	661	183	809	3611
125	0	0	1420	665	184	805	3612
126	0	0	1566	665	183	804	3611
127	0	0	1731	665	184	805	3612
0	0	0	1956	665	183	809	3611
1	0	0	2192	665	183	809	3613
2	0	0	2365	665	183	808	3612
3	0	0	2484	666	183	804	3612
4	0	0	2556	666	184	804	3612
5	0	0	2588	665	183	809	3611
6	0	0	2629	666	183	809	3612
7	0	0	2575	661	183	808	3611
8	0	0	2438	660	183	808	3611
9	0	0	2296	660	184	809	3612
10	0	0	2143	660	184	809	3613
11	0	0	1985	660	183	809	3612
12	0	0	1821	660	183	808	3613
13	0	0	1688	660	183	808	3612
14	0	0	1598	661	185	805	3612
15	0	0	1543	660	184	805	3611
16	0	0	1410	659	184	805	3611
17	0	0	1422	665	184	804	3611
18	0	0	1569	664	184	809	3612
19	0	0	1736	665	184	809	3611
20	0	0	1965	665	184	808	3612
21	0	0	2201	665	184	809	3613
22	0	0	2361	665	184	809	3613
23	0	0	2473	665	183	809	3612
24	0	0	2543	665	183	809	3613
25	0	0	2579	665	183	809	3612
26	0	0	2621	665	183	808	3612
27	0	0	2575	661	183	809	3612
28	0	0	2434	660	183	809	3611
29	0	0	2297	660	184	808	3612
30	0	0	2143	659	184	809	3612
31	0	0	1987	660	183	805	3613
32	0	0	1822	660	184	804	3613
33	0	0	1685	660	183	808	3612
34	0	0	1594	660	184	808	3612
35	0	0	1538	661	184	808	3612
36	0	0	1403	660	184	805	3612
37	0	0	1419	665	184	809	3612
38	0	0	1571	664	184	809	3612
39	0	0	1736	665	185	809	3612
40	0	0	1966	665	182	808	3612
41	0	0	2205	665	184	809	3613
42	0	0	2374	665	184	808	3613
43	0	0	2484	665	184	809	3613
44	0	0	2551	665	184	808	3612
45	0	0	2580	666	183	808	3612
46	0	0	2623	666	183	809	3611
47	0	0	2571	660	183	804	3612
48	0	0	2429	660	183	804	3611
49	0	0	2291	660	183	804	3613
50	0	0	2142	659	182	805	3614
51	0	0	1988	659	184	809	3613
52	0	0	1825	660	184	809	3614
53	0	0	1686	659	184	808	3613
54	0	0	1593	660	183	808	3613
55	0	0	1532	660	184	809	3612
56	0	0	1402	661	184	809	3612
57	0	0	1419	665	184	809	3612
58	0	0	1569	665	185	808	3612
59	0	0	1732	665	183	808	3612
60	0	0	1963	665	183	808	3613
61	0	0	2196	665	185	805	3614
62	0	0	2367	665	185	809	3614
63	0	0	2481	665	182	809	3614
64	0	0	2552	665	185	809	3612
65	0	0	2585	665	183	805	3612
66	0	0	2626	666	183	804	3612
67	0	0	2571	660	183	804	3612
68	0	0	2433	659	184	806	3612
69	0	0	2290	659	183	808	3612
70	0	0	2137	660	183	808	3613
71	0	0	1985	660	183	808	3613
72	0	0	1820	659	184	809	3614
73	0	0	1686	660	183	809	3613
74	0	0	1598	660	184	808	3614
75	0	0	1540	660	184	809	3614
76	0	0	1405	661	184	808	3612
77	0	0	1427	665	183	805	3613
78	0	0	1571	665	184	804	3612
79	0	0	1736	665	184	805	3614
80	0	0	1968	664	183	809	3613
81	0	0	2205	665	184	809	3614
82	0	0	2375	665	183	809	3615
83	0	0	2486	664	184	804	3614
84	0	0	2550	665	183	804	3613
85	0	0	2570	666	182	809	3612
86	0	0	2610	665	182	808	3612
87	0	0	2558	660	184	808	3613
88	0	0	2421	659	183	808	3612
89	0	0	2288	661	183	808	3613
90	0	0	2140	659	183	809	3613
91	0	0	1991	660	184	809	3614
92	0	0	1827	659	184	808	3614
93	0	0	1688	660	184	808	3614
94	0	0	1599	661	184	805	3613
95	0	0	1543	659	183	805	3613
96	0	0	1409	659	183	804	3612
97	0	0	1423	665	184	805	3613
98	0	0	1573	665	184	808	3612
99	0	0	1738	666	184	808	3613
100	0	0	1967	664	182	808	3614
101	0	0	2203	664	183	809	3615
102	0	0	2373	665	184	809	3614
103	0	0	2485	664	183	809	3615
104	0	0	2555	665	184	808	3613
105	0	0	2579	665	184	809	3613
106	0	0	2617	665	183	808	3613
107	0	0	2567	660	183	809	3614
108	0	0	2432	660	183	808	3613
109	0	0	2295	659	184	808	3614
110	0	0	2146	660	181	809	3614
111	0	0	1989	659	184	808	3614
112	0	0	1817	659	184	804	3615
113	0	0	1680	658	185	805	3615
114	0	0	1592	660	183	805	3614
115	0	0	1538	660	184	805	3613
116	0	0	1398	659	183	809	3613
117	0	0	1416	665	184	808	3613
118	0	0	1564	664	184	808	3613
119	0	0	1733	665	184	808	3614
120	0	0	1966	664	184	809	3615
121	0	0	2200	665	184	809	3614
122	0	0	2371	665	183	809	3616
123	0	0	2484	665	184	808	3614
124	0	0	2554	665	183	808	3614
125	0	0	2578	665	184	805	3614
126	0	0	2628	665	183	804	3614
127	0	0	2574	660	183	808	3613
0	0	0	2436	660	184	808	3613
1	0	0	2295	660	183	808	3615
2	0	0	2141	659	183	805	3615
3	0	0	1987	659	183	805	3615
4	0	0	1819	659	183	804	3615
5	0	0	1680	660	184	808	3614
6	0	0	1588	661	183	808	3614
7	0	0	1529	660	183	808	3614
8	0	0	1392	659	184	809	3615
9	0	0	1406	664	184	808	3614
10	0	0	1556	665	185	808	3614
11	0	0	1731	664	183	809	3615
12	0	0	1968	665	184	809	3615
13	0	0	2206	665	183	804	3615
14	0	0	2379	665	184	804	3615
15	0	0	2490	665	184	804	3615
16	0	0	2561	664	182	804	3615
17	0	0	2595	665	184	805	3614
18	0	0	2639	665	183	804	3614
19	0	0	2586	660	183	804	3614
20	0	0	2443	659	183	804	3614
21	0	0	2300	659	183	808	3614
22	0	0	2144	659	183	808	3615
23	0	0	1982	659	184	808	3615
24	0	0	1809	659	184	809	3616
25	0	0	1675	659	184	809	3615
26	0	0	1588	660	184	809	3615
27	0	0	1530	659	184	809	3615
28	0	0	1390	659	184	808	3614
29	0	0	1410	665	183	804	3614
30	0	0	1561	665	185	805	3614
31	0	0	1728	665	184	804	3614
32	0	0	1961	664	183	809	3615
33	0	0	2195	664	184	808	3615
34	0	0	2370	664	184	808	3616
35	0	0	2489	664	183	805	3616
36	0	0	2560	664	183	805	3615
37	0	0	2591	665	183	808	3614
38	0	0	2641	664	183	809	3614
39	0	0	2583	659	183	808	3615
40	0	0	2441	659	183	808	3614
41	0	0	2300	660	183	808	3615
42	0	0	2140	659	183	808	3615
43	0	0	1979	659	183	809	3615
44	0	0	1813	659	183	809	3616
45	0	0	1676	659	184	808	3615
46	0	0	1588	660	183	804	3615
47	0	0	1532	659	184	804	3615
48	0	0	1396	659	183	805	3615
49	0	0	1418	664	184	805	3615
50	0	0	1570	665	183	808	3614
51	0	0	1738	664	183	808	3616
52	0	0	1968	664	184	809	3616
53	0	0	2205	664	184	809	3616
54	0	0	2376	664	184	809	3617
55	0	0	2491	664	183	809	3615
56	0	0	2562	665	183	809	3616
57	0	0	2596	664	183	809	3616
58	0	0	2645	664	182	808	3615
59	0	0	2590	660	183	809	3616
60	0	0	2445	660	183	809	3615
61	0	0	2299	658	183	808	3615
62	0	0	2141	659	183	808	3616
63	0	0	1987	658	183	809	3616
64	0	0	1818	659	184	804	3617
65	0	0	1680	659	183	805	3617
66	0	0	1590	660	185	804	3616
67	0	0	1528	659	184	804	3615
68	0	0	1389	659	184	809	3615
69	0	0	1414	664	184	809	3616
70	0	0	1571	664	184	808	3615
71	0	0	1744	664	184	808	3616
72	0	0	1980	664	185	809	3616
73	0	0	2211	664	183	809	3616
74	0	0	2377	665	183	809	3617
75	0	0	2488	664	184	809	3616
76	0	0	2557	664	183	808	3616
77	0	0	2589	664	183	804	3615
78	0	0	2634	664	183	805	3615
79	0	0	2578	660	182	808	3615
80	0	0	2435	659	183	808	3615
81	0	0	2296	659	183	808	3615
82	0	0	2141	659	185	805	3616
83	0	0	1980	659	183	804	3617
84	0	0	1812	659	184	804	3617
85	0	0	1677	659	184	809	3617
86	0	0	1590	659	184	810	3617
87	0	0	1532	659	184	808	3615
88	0	0	1395	659	184	809	3616
89	0	0	1416	664	184	809	3616
90	0	0	1565	664	184	809	3615
91	0	0	1733	664	183	809	3616
92	0	0	1971	664	183	808	3616
93	0	0	2208	664	183	805	3617
94	0	0	2379	664	184	805	3617
95	0	0	2491	664	184	804	3617
96	0	0	2563	665	183	804	3616
97	0	0	2596	664	182	808	3615
98	0	0	2647	664	182	809	3616
99	0	0	2588	659	183	808	3616
100	0	0	2440	659	184	805	3617
101	0	0	2299	659	183	810	3616
102	0	0	2143	659	183	809	3617
103	0	0	1984	659	184	809	3618
104	0	0	1809	659	183	808	3617
105	0	0	1671	659	184	808	3617
106	0	0	1583	659	184	808	3617
107	0	0	1520	659	183	808	3616
108	0	0	1388	659	183	809	3616
109	0	0	1420	664	184	808	3616
110	0	0	1568	664	184	809	3616
111	0	0	1740	663	184	804	3617
112	0	0	1979	664	183	804	3618
113	0	0	2211	663	184	805	3618
114	0	0	2379	665	184	805	3618
115	0	0	2492	664	183	808	3617
116	0	0	2562	664	183	809	3617
117	0	0	2589	664	183	808	3616
118	0	0	2635	664	182	809	3616
119	0	0	2575	659	183	809	3617
120	0	0	2428	660	183	809	3616
121	0	0	2290	659	183	808	3616
122	0	0	2133	659	183	808	3617
123	0	0	1977	659	183	808	3617
124	0	0	1811	659	183	808	3618
125	0	0	1673	658	184	805	3619
126	0	0	1583	659	184	808	3617
127	0	0	1528	659	185	809	3617
0	0	0	1391	659	184	809	3617
1	0	0	1417	664	183	804	3617
2	0	0	1570	664	183	805	3616
3	0	0	1737	664	183	808	3617
4	0	0	1973	664	185	808	3617
5	0	0	2211	663	183	809	3618
6	0	0	2380	664	183	809	3618
7	0	0	2495	664	184	809	3618
8	0	0	2565	664	183	808	3618
9	0	0	2592	664	183	809	3617
10	0	0	2635	663	183	808	3617
11	0	0	2579	659	183	808	3616
12	0	0	2434	659	183	809	3618
13	0	0	2291	659	184	808	3617
14	0	0	2138	659	184	809	3618
15	0	0	1980	657	183	808	3618
16	0	0	1809	659	183	804	3619
17	0	0	1675	659	184	805	3618
18	0	0	1588	660	184	804	3618
19	0	0	1525	659	184	804	3617
20	0	0	1385	658	184	809	3617
21	0	0	1414	663	184	808	3616
22	0	0	1572	663	183	808	3617
23	0	0	1746	664	184	808	3618
24	0	0	1982	664	184	809	3619
25	0	0	2219	664	184	809	3618
26	0	0	2383	664	182	809	3619
27	0	0	2495	663	184	808	3618
28	0	0	2563	664	183	808	3618
29	0	0	2589	664	184	804	3617
30	0	0	2634	663	183	804	3618
31	0	0	2577	659	183	808	3617
32	0	0	2433	659	183	808	3617
33	0	0	2295	659	183	808	3618
34	0	0	2136	658	184	805	3618
35	0	0	1980	659	183	805	3620
36	0	0	1813	658	184	804	3618
37	0	0	1677	658	183	809	3620
38	0	0	1588	659	183	808	3618
39	0	0	1525	659	184	808	3617
40	0	0	1384	658	183	808	3618
41	0	0	1411	664	183	809	3617
42	0	0	1566	663	184	809	3617
43	0	0	1732	664	184	808	3618
44	0	0	1972	664	183	809	3618
45	0	0	2212	663	183	805	3619
46	0	0	2383	664	184	805	3619
47	0	0	2497	664	183	804	3619
48	0	0	2567	664	183	804	3619
49	0	0	2599	664	184	809	3619
50	0	0	2644	664	182	808	3618
51	0	0	2582	659	183	808	3618
52	0	0	2440	660	183	804	3618
53	0	0	2306	659	184	809	3618
54	0	0	2149	658	184	809	3618
55	0	0	1987	658	185	809	3619
56	0	0	1810	658	183	808	3619
57	0	0	1672	659	184	808	3620
58	0	0	1583	660	183	808	3619
59	0	0	1516	658	184	809	3618
60	0	0	1376	658	183	809	3618
61	0	0	1406	664	184	809	3619
62	0	0	1560	664	183	808	3618
63	0	0	1734	663	184	804	3619
64	0	0	1981	664	185	804	3619
65	0	0	2215	664	183	805	3619
66	0	0	2387	664	184	804	3619
67	0	0	2501	664	184	809	3620
68	0	0	2571	664	183	808	3619
69	0	0	2592	664	185	809	3618
70	0	0	2635	664	183	809	3618
71	0	0	2577	660	183	809	3618
72	0	0	2438	659	184	809	3618
73	0	0	2296	658	183	808	3619
74	0	0	2138	658	183	809	3620
75	0	0	1978	658	183	808	3620
76	0	0	1808	659	184	808	3620
77	0	0	1675	658	184	804	3619
78	0	0	1585	659	184	809	3619
79	0	0	1518	658	185	808	3619
80	0	0	1374	658	185	809	3619
81	0	0	1405	664	185	804	3618
82	0	0	1561	663	184	804	3619
83	0	0	1734	663	184	804	3619
84	0	0	1977	663	181	804	3620
85	0	0	2214	663	183	808	3620
86	0	0	2384	664	184	808	3620
87	0	0	2497	663	184	808	3620
88	0	0	2563	664	183	809	3620
89	0	0	2591	663	183	808	3620
90	0	0	2641	664	183	809	3619
91	0	0	2582	659	183	809	3620
92	0	0	2434	660	183	808	3619
93	0	0	2290	659	184	804	3619
94	0	0	2131	658	185	805	3619
95	0	0	1975	658	183	804	3621
96	0	0	1807	658	184	808	3620
97	0	0	1671	659	183	809	3620
98	0	0	1585	659	183	808	3620
99	0	0	1520	658	185	805	3620
100	0	0	1377	659	184	805	3619
101	0	0	1409	663	185	809	3619
102	0	0	1563	663	183	808	3619
103	0	0	1734	663	183	809	3619
104	0	0	1972	663	185	808	3620
105	0	0	2208	663	184	808	3620
106	0	0	2379	663	183	809	3620
107	0	0	2489	663	183	809	3621
108	0	0	2560	664	184	810	3620
109	0	0	2592	664	182	808	3620
110	0	0	2641	663	183	804	3619
111	0	0	2583	659	182	804	3619
112	0	0	2439	658	184	804	3619
113	0	0	2298	659	183	806	3619
114	0	0	2139	659	181	808	3621
115	0	0	1981	658	184	809	3621
116	0	0	1817	658	184	808	3621
117	0	0	1679	658	184	808	3621
118	0	0	1588	659	183	809	3620
119	0	0	1519	658	184	808	3620
120	0	0	1380	658	184	809	3620
121	0	0	1416	663	184	809	3621
122	0	0	1570	663	183	809	3620
123	0	0	1742	663	184	808	3621
124	0	0	1988	664	184	808	3622
125	0	0	2221	664	183	809	3621
126	0	0	2390	663	184	809	3622
127	0	0	2500	665	184	809	3621
0	0	0	2569	663	184	808	3621
1	0	0	2598	663	183	809	3621
2	0	0	2642	664	184	808	3620
3	0	0	2578	659	184	809	3620
4	0	0	2430	659	182	809	3621
5	0	0	2290	659	184	808	3620
6	0	0	2131	658	184	808	3621
7	0	0	1972	658	184	808	3622
8	0	0	1806	658	182	808	3622
9	0	0	1669	658	184	808	3621
10	0	0	1581	660	184	808	3621
11	0	0	1518	658	184	809	3621
12	0	0	1375	658	184	809	3620
13	0	0	1411	663	184	809	3621
14	0	0	1568	663	184	809	3620
15	0	0	1738	664	183	809	3621
16	0	0	1977	663	184	809	3621
17	0	0	2210	663	183	809	3622
18	0	0	2380	663	184	808	3622
19	0	0	2493	664	183	809	3622
20	0	0	2563	664	183	810	3621
21	0	0	2591	664	183	808	3621
22	0	0	2638	664	184	809	3621
23	0	0	2572	658	183	808	3621
24	0	0	2427	658	184	809	3620
25	0	0	2285	659	183	808	3622
26	0	0	2127	658	184	809	3622
27	0	0	1967	658	184	808	3622
28	0	0	1800	658	184	808	3622
29	0	0	1662	658	183	808	3622
30	0	0	1576	659	184	810	3621
31	0	0	1513	658	184	808	3621
32	0	0	1377	658	184	809	3621
33	0	0	1414	663	184	809	3621
34	0	0	1568	663	184	809	3622
35	0	0	1736	663	184	811	3622
36	0	0	1980	663	184	808	3622
37	0	0	2215	664	183	808	3623
38	0	0	2384	664	184	808	3623
39	0	0	2495	665	183	808	3622
40	0	0	2566	664	183	809	3622
41	0	0	2597	663	184	808	3621
42	0	0	2642	663	184	809	3621
43	0	0	2572	658	183	808	3621
44	0	0	2425	659	184	808	3621
45	0	0	2287	658	184	811	3621
46	0	0	2127	658	184	809	3622
47	0	0	1967	657	183	809	3623
48	0	0	1802	658	183	808	3623
49	0	0	1666	658	184	809	3622
50	0	0	1577	658	184	809	3623
51	0	0	1518	658	184	809	3622
52	0	0	1384	658	184	810	3622
53	0	0	1420	664	184	809	3621
54	0	0	1575	663	185	809	3622
55	0	0	1743	663	184	808	3622
56	0	0	1983	663	184	808	3622
57	0	0	2216	663	183	808	3623
58	0	0	2383	663	183	808	3623
59	0	0	2494	663	183	809	3623
60	0	0	2563	665	183	808	3622
61	0	0	2597	664	184	809	3622
62	0	0	2646	663	182	809	3622
63	0	0	2584	659	183	809	3621
64	0	0	2439	658	183	809	3622
65	0	0	2294	658	183	808	3622
66	0	0	2130	658	183	808	3623
67	0	0	1970	658	183	809	3623
68	0	0	1801	658	184	809	3624
69	0	0	1664	658	184	809	3623
70	0	0	1575	658	184	809	3623
71	0	0	1516	658	183	809	3623
72	0	1	1386	658	183	808	3622
73	0	1	1424	663	183	808	3621
74	0	1	1580	663	185	808	3622
75	0	1	1752	663	183	808	3623
76	0	1	1993	663	184	809	3623
77	0	1	2224	663	183	809	3623
78	0	1	2388	665	183	809	3623
79	0	1	2498	663	183	809	3623
80	0	1	2563	663	184	809	3623
81	0	1	2593	664	183	809	3622
82	0	1	2636	663	183	809	3622
83	0	1	2564	658	184	809	3622
84	0	1	2418	658	183	808	3622
85	0	1	2281	658	183	808	3623
86	0	1	2125	658	184	808	3623
87	0	1	1967	658	183	809	3624
88	0	1	1808	657	184	809	3623
89	0	1	1679	658	183	809	3624
90	0	1	1595	658	183	809	3623
91	0	1	1539	657	183	808	3623
92	0	1	1406	658	184	809	3623
93	0	1	1440	662	184	809	3622
94	0	1	1594	663	184	808	3622
95	0	1	1756	663	183	808	3623
96	0	1	1991	663	184	808	3624
97	0	1	2218	662	183	809	3624
98	0	1	2378	663	182	809	3624
99	0	1	2488	663	183	809	3624
100	0	1	2557	663	183	809	3623
101	0	1	2589	663	182	808	3623
102	0	1	2634	663	184	809	3623
103	0	1	2564	658	183	808	3623
104	0	1	2420	658	184	808	3623
105	0	1	2279	658	184	809	3623
106	0	1	2129	657	184	809	3623
107	0	1	1974	657	184	809	3624
108	0	1	1810	658	184	809	3625
109	0	1	1676	658	185	809	3624
110	0	1	1589	658	183	809	3624
111	0	1	1526	658	183	809	3624
112	0	1	1387	658	183	809	3623
113	0	1	1426	663	183	808	3623
114	0	1	1581	663	183	808	3623
115	0	1	1753	662	184	809	3623
116	0	1	1991	663	183	809	3624
117	0	1	2213	662	184	809	3624
118	0	1	2371	663	184	809	3624
119	0	1	2485	664	183	809	3625
120	1	1	2553	663	184	809	3624
121	1	1	2592	663	183	807	3623
122	1	1	2633	663	183	808	3623
123	1	1	2559	658	183	809	3623
124	1	1	2410	658	183	809	3623
125	1	1	2268	658	183	809	3623
126	1	1	2118	658	183	809	3624
127	1	1	1969	658	183	809	3625
0	1	1	1813	658	183	809	3625
1	1	1	1675	658	184	808	3624
2	1	1	1588	658	184	808	3625
3	1	1	1527	658	183	809	3624
4	1	1	1390	658	184	809	3623
5	1	1	1431	663	184	809	3624
6	1	1	1588	663	184	809	3623
7	1	1	1752	663	183	808	3624
8	1	1	1993	663	183	808	3624
9	1	1	2222	663	184	808	3625
10	1	1	2385	663	183	808	3625
11	1	1	2496	663	184	808	3625
12	1	1	2557	663	183	809	3625
13	1	1	2582	664	183	809	3625
14	1	1	2625	664	183	809	3624
15	1	1	2557	658	183	809	3624
16	1	1	2416	658	182	810	3623
17	1	1	2280	658	183	809	3625
18	1	1	2125	658	183	809	3625
19	1	1	1967	657	183	809	3625
20	1	1	1809	658	183	808	3625
21	1	1	1681	658	183	808	3626
22	1	1	1596	659	184	810	3625
23	1	1	1537	658	184	808	3624
24	1	1	1401	659	184	809	3625
25	1	1	1436	663	184	809	3623
26	1	1	1586	662	183	808	3625
27	1	1	1750	663	184	808	3625
28	1	1	1985	663	183	809	3625
29	1	1	2213	663	183	809	3626
30	1	1	2376	663	184	809	3625
31	1	1	2488	663	184	809	3625
32	1	1	2556	663	184	808	3625
33	1	1	2588	664	184	809	3624
34	1	1	2629	663	183	809	3624
35	1	1	2561	658	183	810	3625
36	1	1	2417	658	184	809	3624
37	1	1	2280	658	183	808	3625
38	1	1	2130	658	183	808	3626
39	1	1	1974	657	183	808	3626
40	1	1	1811	657	183	808	3626
41	1	1	1679	658	183	809	3625
42	1	1	1590	658	184	808	3625
43	1	1	1525	657	184	808	3624
44	1	1	1389	658	184	808	3625
45	1	1	1432	662	183	809	3624
46	1	1	1587	663	183	809	3625
47	1	1	1754	663	184	810	3625
48	1	1	1996	663	184	808	3625
49	1	1	2223	663	182	808	3626
50	1	1	2383	663	183	809	3627
51	1	1	2490	663	184	809	3625
52	1	1	2553	663	183	809	3626
53	1	1	2582	664	184	809	3625
54	1	1	2629	663	183	809	3625
55	1	1	2555	658	183	808	3624
56	1	1	2411	658	183	808	3625
57	1	1	2277	658	184	808	3625
58	1	1	2123	657	183	808	3625
59	1	1	1962	657	183	809	3626
60	1	1	1799	658	184	809	3626
61	1	1	1669	657	184	808	3626
62	1	1	1582	657	184	809	3625
63	1	1	1519	657	184	809	3625
64	1	1	1389	658	184	809	3625
65	1	1	1438	663	184	809	3626
66	1	1	1599	662	184	808	3625
67	1	1	1762	662	183	808	3625
68	1	1	2004	662	183	809	3627
69	1	1	2227	662	184	809	3627
70	1	1	2386	663	184	809	3627
71	1	1	2490	662	182	808	3626
72	1	1	2553	663	183	809	3626
73	1	1	2583	663	183	807	3625
74	1	1	2626	662	184	808	3625
75	1	1	2554	658	183	808	3625
76	1	1	2414	657	184	808	3625
77	1	1	2280	658	183	809	3625
78	1	1	2131	658	183	809	3627
79	1	1	1972	657	183	809	3627
80	1	1	1806	657	183	809	3626
81	1	1	1669	657	183	809	3627
82	1	1	1585	658	183	810	3626
83	1	1	1524	657	184	810	3625
84	1	1	1401	658	184	809	3626
85	1	1	1450	662	184	808	3625
86	1	1	1599	663	183	809	3625
87	1	1	1760	662	184	808	3626
88	1	1	1999	662	185	809	3627
89	1	1	2225	662	185	809	3627
90	1	1	2387	663	183	808	3626
91	1	1	2494	663	184	809	3626
92	1	1	2557	662	184	809	3626
93	1	1	2583	662	183	809	3626
94	1	1	2623	663	184	809	3626
95	1	1	2550	658	183	809	3625
96	1	1	2408	658	182	810	3626
97	1	1	2272	657	183	809	3626
98	1	1	2116	657	184	809	3627
99	1	1	1956	657	185	809	3627
100	1	1	1795	657	183	808	3627
101	1	1	1662	658	184	809	3627
102	1	1	1583	658	184	809	3627
103	1	1	1528	657	185	809	3627
104	1	1	1397	657	184	809	3626
105	1	1	1437	662	184	809	3626
106	1	1	1592	662	183	809	3626
107	1	1	1753	662	183	808	3626
108	1	1	1994	663	184	808	3627
109	1	1	2227	662	183	809	3628
110	1	1	2390	662	184	809	3628
111	1	1	2496	662	183	808	3628
112	1	1	2559	662	183	809	3628
113	1	1	2585	662	183	809	3626
114	1	1	2630	662	184	809	3626
115	1	1	2558	657	183	809	3626
116	1	1	2415	658	183	809	3626
117	1	1	2272	658	182	808	3627
118	1	1	2121	657	184	808	3627
119	1	1	1966	656	184	808	3628
120	1	1	1804	657	183	809	3628
121	1	1	1673	658	184	809	3628
122	1	1	1590	657	183	809	3628
123	1	1	1521	657	184	809	3627
124	1	1	1389	657	184	809	3627
125	1	1	1431	662	184	809	3626
126	1	1	1585	662	184	809	3626
127	1	1	1753	662	184	809	3627
0	1	1	1999	662	183	809	3628
1	1	1	2224	662	184	809	3628
2	1	1	2383	662	183	809	3628
3	1	1	2492	662	183	809	3628
4	1	1	2559	662	183	809	3627
5	1	1	2587	662	184	809	3626
6	1	1	2631	662	183	808	3627
7	1	1	2557	657	183	808	3626
8	1	1	2410	657	183	808	3627
9	1	1	2273	657	183	808	3628
10	1	1	2119	657	184	808	3628
11	1	1	1962	657	183	809	3628
12	1	1	1802	656	185	809	3628
13	1	1	1670	657	184	809	3629
14	1	1	1587	658	183	811	3628
15	1	1	1528	657	184	810	3627
16	1	1	1398	657	184	809	3627
17	1	1	1443	662	184	809	3627
18	1	1	1597	663	184	809	3627
19	1	1	1762	662	184	809	3628
20	1	1	1999	662	184	808	3628
21	1	1	2223	662	183	808	3628
22	1	1	2387	662	183	809	3629
23	1	1	2499	662	183	809	3629
24	1	1	2561	662	184	809	3628
25	1	1	2586	662	183	809	3627
26	1	1	2626	662	182	808	3628
27	1	1	2552	657	183	808	3627
28	1	1	2412	657	184	808	3627
29	1	1	2275	657	183	808	3628
30	1	1	2123	657	183	809	3628
31	1	1	1970	657	183	808	3629
32	1	1	1804	657	184	809	3628
33	1	1	1671	657	183	809	3628
34	1	1	1588	657	183	809	3628
35	1	1	1524	657	184	809	3628
36	1	1	1392	658	183	808	3628
37	1	1	1438	662	184	809	3628
38	1	1	1592	662	184	809	3627
39	1	1	1760	661	184	809	3628
40	1	1	2004	662	183	809	3629
41	1	1	2223	662	183	808	3629
42	1	1	2382	662	184	809	3628
43	1	1	2491	661	184	808	3628
44	1	1	2552	662	184	808	3628
45	1	1	2580	662	183	809	3628
46	1	1	2625	662	184	809	3628
47	1	1	2552	657	183	808	3627
48	1	1	2411	657	183	808	3628
49	1	1	2279	657	184	809	3628
50	1	1	2122	657	184	809	3629
51	1	1	1963	656	183	809	3629
52	1	1	1801	657	184	810	3630
53	1	1	1669	657	184	809	3629
54	1	1	1587	658	184	809	3628
55	1	1	1525	656	183	808	3628
56	1	1	1392	657	183	808	3628
57	1	1	1438	662	184	808	3628
58	1	1	1593	661	184	809	3629
59	1	1	1757	662	183	810	3628
60	1	1	1998	662	184	809	3629
61	1	1	2222	662	184	809	3630
62	1	1	2377	662	184	809	3629
63	1	1	2486	662	183	809	3629
64	1	1	2550	662	183	809	3629
65	1	1	2579	662	184	809	3628
66	1	1	2620	662	183	808	3628
67	1	1	2551	657	184	809	3629
68	1	1	2409	657	184	809	3628
69	1	1	2271	657	183	809	3629
70	1	1	2117	657	183	809	3630
71	1	1	1964	656	183	809	3630
72	1	1	1801	656	183	808	3629
73	1	1	1671	656	184	809	3629
74	1	1	1590	657	183	809	3629
75	1	1	1527	656	183	809	3628
76	1	1	1394	657	183	808	3628
77	1	1	1444	661	183	809	3628
78	1	1	1600	661	184	809	3629
79	1	1	1764	661	185	811	3629
80	1	1	2001	662	183	808	3629
81	1	1	2220	661	183	808	3630
82	1	1	2377	661	183	809	3630
83	1	1	2486	662	183	809	3629
84	1	1	2552	661	184	809	3630
85	1	1	2582	662	184	809	3629
86	1	1	2627	662	184	808	3628
87	1	1	2553	657	184	808	3628
88	1	1	2409	656	183	808	3628
89	1	1	2271	656	183	809	3629
90	1	1	2116	657	183	809	3629
91	1	1	1960	656	183	809	3630
92	1	1	1798	656	184	809	3630
93	1	1	1668	657	184	808	3629
94	1	1	1583	657	184	809	3629
95	1	1	1517	656	184	810	3629
96	1	1	1389	657	184	809	3629
97	1	1	1442	661	184	809	3628
98	1	1	1596	661	183	809	3630
99	1	1	1761	661	184	810	3629
100	1	1	2001	661	184	810	3630
101	1	1	2228	662	183	808	3631
102	1	1	2388	661	182	809	3629
103	1	1	2498	662	183	808	3630
104	1	1	2561	662	182	809	3630
105	1	1	2589	662	183	808	3630
106	1	1	2628	662	184	808	3629
107	1	1	2553	656	182	808	3628
108	1	1	2407	657	183	808	3629
109	1	1	2269	656	182	808	3629
110	1	1	2114	656	183	808	3630
111	1	1	1955	656	184	808	3630
112	1	1	1790	656	183	809	3631
113	1	1	1660	657	183	809	3630
114	1	1	1580	657	183	809	3630
115	1	1	1518	656	184	810	3630
116	1	1	1389	657	184	809	3630
117	1	1	1443	661	184	808	3629
118	1	1	1598	661	184	809	3629
119	1	1	1764	661	184	808	3630
120	1	1	2011	661	184	809	3630
121	1	1	2234	662	183	808	3631
122	1	1	2391	661	183	808	3630
123	1	1	2500	661	183	808	3630
124	1	1	2562	662	184	808	3630
125	1	1	2587	661	183	809	3629
126	1	1	2626	661	183	809	3629
127	1	1	2550	657	184	809	3629
0	1	1	2405	656	182	808	3629
1	1	1	2270	656	183	809	3630
2	1	1	2112	656	183	809	3630
3	1	1	1951	655	183	809	3631
4	1	1	1790	656	183	809	3630
5	1	1	1660	656	183	809	3630
6	1	1	1578	657	184	808	3630
7	1	1	1518	656	184	809	3630
8	1	1	1392	657	184	809	3630
9	1	1	1442	661	183	808	3629
10	1	1	1601	661	184	809	3631
11	1	1	1768	661	183	809	3630
12	1	1	2007	661	184	809	3631
13	1	1	2234	661	183	809	3632
14	1	1	2386	661	184	809	3631
15	1	1	2490	662	183	809	3632
16	1	1	2551	662	183	809	3631
17	1	1	2574	661	183	810	3630
18	1	1	2618	661	182	808	3630
19	1	1	2548	657	183	809	3630
20	1	1	2405	656	184	809	3630
21	1	1	2273	656	184	809	3630
22	1	1	2117	656	183	810	3631
23	1	1	1956	656	183	809	3631
24	1	1	1794	656	182	808	3631
25	1	1	1667	656	185	808	3631
26	1	1	1584	657	183	808	3630
27	1	1	1524	656	184	809	3630
28	1	1	1389	657	184	809	3631
29	1	1	1440	661	184	809	3630
30	1	1	1597	661	183	809	3630
31	1	1	1770	661	183	809	3631
32	1	1	2011	662	184	809	3632
33	1	1	2232	661	183	809	3631
34	1	1	2390	661	182	810	3631
35	1	1	2496	661	184	809	3631
36	1	1	2561	661	184	808	3630
37	1	1	2590	662	183	809	3630
38	1	1	2634	661	184	808	3630
39	1	1	2553	656	183	809	3630
40	1	1	2411	656	184	809	3631
41	1	1	2277	656	183	808	3631
42	1	1	2118	656	183	809	3631
43	1	1	1958	656	183	808	3632
44	1	1	1795	656	184	808	3631
45	1	1	1666	656	184	809	3631
46	1	1	1582	656	183	809	3631
47	1	1	1516	656	183	809	3631
48	1	1	1383	657	183	809	3630
49	1	1	1443	661	183	809	3630
50	1	1	1604	661	184	809	3632
51	1	1	1768	661	184	809	3631
52	1	1	2013	662	183	809	3631
53	1	1	2240	661	183	808	3632
54	1	1	2390	661	183	808	3631
55	1	1	2494	661	184	809	3632
56	1	1	2557	660	184	808	3631
57	1	1	2584	661	183	808	3630
58	1	1	2624	662	183	809	3631
59	1	1	2549	656	183	809	3630
60	1	1	2402	656	183	809	3631
61	1	1	2264	655	183	809	3632
62	1	1	2105	656	184	810	3632
63	1	1	1949	656	183	809	3632
64	1	1	1794	656	183	809	3633
65	1	1	1667	655	184	809	3632
66	1	1	1586	657	184	809	3631
67	1	1	1526	656	184	809	3631
68	1	1	1396	656	182	809	3631
69	1	1	1449	661	184	808	3631
70	1	1	1607	661	185	809	3631
71	1	1	1771	661	184	808	3631
72	1	1	2009	662	184	809	3632
73	1	1	2237	661	184	809	3633
74	1	1	2395	661	184	808	3632
75	1	1	2499	661	183	809	3633
76	1	1	2562	661	183	808	3632
77	1	1	2589	662	183	809	3631
78	1	1	2628	661	182	808	3631
79	1	1	2553	656	184	808	3631
80	1	1	2409	656	183	809	3632
81	1	1	2274	656	184	809	3632
82	1	1	2121	656	183	810	3632
83	1	1	1966	656	184	809	3633
84	1	1	1804	656	184	808	3632
85	1	1	1676	656	184	808	3632
86	1	1	1596	656	184	808	3632
87	1	1	1529	656	183	808	3632
88	1	1	1400	656	184	809	3631
89	1	1	1451	661	183	809	3631
90	1	1	1603	661	184	809	3632
91	1	1	1770	661	183	810	3632
92	1	1	2013	661	183	808	3632
93	1	1	2238	661	184	809	3633
94	1	1	2390	661	184	809	3632
95	1	1	2493	661	184	809	3632
96	1	1	2554	660	183	808	3632
97	1	1	2573	661	184	809	3631
98	1	1	2611	661	182	809	3632
99	1	1	2537	656	183	809	3632
100	1	1	2397	657	184	809	3631
101	1	1	2264	655	183	809	3632
102	1	1	2112	656	183	808	3633
103	1	1	1958	656	182	808	3633
104	1	1	1797	655	183	808	3632
105	1	1	1669	656	184	808	3632
106	1	1	1586	656	184	808	3632
107	1	1	1526	656	184	809	3632
108	1	1	1394	656	183	809	3632
109	1	1	1449	660	184	809	3631
110	1	1	1606	660	183	809	3631
111	1	1	1770	660	184	809	3632
112	1	1	2010	661	183	809	3633
113	1	1	2235	661	184	809	3633
114	1	1	2393	661	184	809	3634
115	1	1	2500	661	185	809	3632
116	1	1	2565	661	183	809	3632
117	1	1	2592	662	183	809	3633
118	1	1	2632	661	182	809	3632
119	1	1	2553	656	184	809	3632
120	1	1	2404	656	185	809	3632
121	1	1	2271	655	182	809	3632
122	1	1	2116	656	183	809	3632
123	1	1	1958	655	183	809	3634
124	1	1	1791	655	183	809	3633
125	1	1	1662	656	183	809	3633
126	1	1	1579	656	184	809	3633
127	1	1	1512	655	183	810	3632
0	1	1	1387	656	184	809	3632
1	1	1	1444	661	184	809	3632
2	1	1	1607	661	185	809	3632
3	1	1	1781	659	184	808	3632
4	1	1	2023	661	185	809	3632
5	1	1	2239	661	183	808	3633
6	1	1	2390	661	185	808	3633
7	1	1	2493	661	184	809	3634
8	1	1	2553	661	183	809	3633
9	1	1	2582	661	184	809	3632
10	1	1	2623	661	183	808	3632
11	1	1	2547	656	183	808	3632
12	1	1	2405	656	182	808	3632
13	1	1	2268	656	184	809	3633
14	1	1	2107	656	185	809	3633
15	1	1	1949	655	183	808	3633
16	1	1	1784	655	184	809	3633
17	1	1	1655	655	184	809	3633
18	1	1	1578	656	183	809	3633
19	1	1	1514	655	184	809	3633
20	1	1	1388	656	184	810	3632
21	1	1	1450	661	183	808	3633
22	1	1	1606	661	184	808	3632
23	1	1	1773	661	184	808	3633
24	1	1	2016	661	183	809	3634
25	1	1	2238	661	184	809	3634
26	1	1	2391	661	183	808	3633
27	1	1	2496	661	183	808	3633
28	1	1	2563	661	183	808	3633
29	1	1	2585	661	183	809	3632
30	1	1	2630	661	184	809	3633
31	1	1	2548	656	183	809	3632
32	1	1	2404	655	182	809	3632
33	1	1	2270	656	183	809	3633
34	1	1	2114	656	184	809	3634
35	1	1	1953	655	183	809	3634
36	1	1	1796	655	183	809	3633
37	1	1	1669	655	184	809	3633
38	1	1	1585	656	184	809	3633
39	1	1	1512	655	183	809	3632
40	1	1	1385	656	184	808	3633
41	1	1	1444	661	184	808	3632
42	1	1	1603	660	183	808	3634
43	1	1	1770	661	184	809	3633
44	1	1	2014	661	184	809	3634
45	1	1	2241	661	184	810	3634
46	1	1	2401	661	184	808	3633
47	1	1	2507	661	184	809	3633
48	1	1	2568	660	184	809	3633
49	1	1	2586	660	184	809	3633
50	1	1	2623	660	183	809	3633
51	1	1	2546	656	183	809	3633
52	1	1	2400	656	184	808	3632
53	1	1	2268	656	184	808	3633
54	1	1	2113	655	183	808	3634
55	1	1	1958	655	184	809	3634
56	1	1	1798	655	183	809	3634
57	1	1	1668	656	184	809	3634
58	1	1	1589	655	183	809	3633
59	1	1	1518	655	183	809	3633
60	1	1	1389	657	184	809	3634
61	1	1	1450	660	183	809	3632
62	1	1	1608	660	184	809	3634
63	1	1	1775	661	184	809	3633
64	1	1	2021	660	183	809	3634
65	1	1	2248	661	183	808	3634
66	1	1	2402	661	184	809	3635
67	1	1	2504	661	185	809	3634
68	1	1	2560	661	183	809	3633
69	1	1	2575	660	184	809	3633
70	1	1	2618	661	183	808	3633
71	1	1	2542	656	183	808	3633
72	1	1	2403	656	183	808	3633
73	1	1	2267	655	184	809	3634
74	1	1	2109	655	184	809	3634
75	1	1	1953	655	183	808	3635
76	1	1	1795	655	184	809	3634
77	1	1	1665	655	184	809	3635
78	1	1	1587	655	184	809	3633
79	1	1	1523	655	184	810	3634
80	1	1	1394	656	184	809	3633
81	1	1	1457	661	183	809	3634
82	1	1	1612	661	184	808	3633
83	1	1	1776	660	183	808	3633
84	1	1	2022	660	184	809	3634
85	1	1	2244	660	184	809	3634
86	1	1	2397	661	184	809	3634
87	1	1	2503	661	184	808	3635
88	1	1	2563	661	183	808	3635
89	1	1	2582	660	183	808	3634
90	1	1	2619	660	184	808	3633
91	1	1	2537	656	184	809	3634
92	1	1	2392	655	183	809	3635
93	1	1	2258	655	184	809	3634
94	1	1	2109	655	183	809	3634
95	1	1	1958	655	184	810	3635
96	1	1	1799	655	184	809	3634
97	1	1	1672	655	184	809	3635
98	1	1	1594	656	183	809	3634
99	1	1	1522	655	183	809	3634
100	1	1	1392	656	184	809	3633
101	1	1	1455	660	184	808	3633
102	1	1	1611	660	184	808	3634
103	1	1	1779	661	184	809	3634
104	1	1	2027	660	183	809	3635
105	1	1	2250	660	184	809	3635
106	1	1	2406	660	183	808	3635
107	1	1	2507	661	185	808	3635
108	1	1	2565	660	184	808	3635
109	1	1	2587	660	184	809	3634
110	1	1	2626	660	183	808	3634
111	1	1	2542	655	184	809	3633
112	1	1	2398	655	184	808	3635
113	1	1	2267	655	184	810	3635
114	1	1	2112	655	183	809	3635
115	1	1	1960	655	183	810	3636
116	1	1	1800	655	184	809	3635
117	1	1	1667	655	184	808	3636
118	1	1	1587	656	185	808	3635
119	1	1	1518	655	184	809	3634
120	1	1	1391	656	184	809	3634
121	1	1	1454	660	185	808	3633
122	1	1	1611	660	184	809	3634
123	1	1	1780	661	184	809	3634
124	1	1	2025	660	184	809	3636
125	1	1	2243	660	183	809	3635
126	1	1	2397	660	183	809	3635
127	1	1	2501	660	183	809	3635
0	1	1	2559	660	182	809	3634
1	1	1	2584	661	184	809	3634
2	1	1	2621	660	184	809	3635
3	1	1	2537	656	183	809	3634
4	1	1	2396	655	183	809	3634
5	1	1	2264	655	184	809	3635
6	1	1	2111	655	184	809	3635
