# bioPlux Text File Format
# Version: 1
# StartDateTime: 2011-07-18 14:57:20
# SamplingFrequency: 1000
# SampledChannels: 1 2 3 4
# SamplingResolution: 12
# AcquiringDevice: 00:07:80:42:0F:8B
# EndOfHeader
0	0	0	2412	9	2789	53
1	0	0	2492	10	2786	54
2	0	0	2386	7	2785	53
3	0	0	2199	7	2785	53
4	0	0	2059	4	2788	54
5	0	0	1886	5	2790	54
6	0	0	1751	7	2791	52
7	0	0	1698	9	2793	54
8	0	0	1695	10	2793	54
9	0	0	1722	10	2792	54
10	0	0	1766	7	2790	52
11	0	0	1777	11	2785	51
12	0	0	1872	7	2784	53
13	0	0	2015	10	2785	53
14	0	0	2108	10	2787	53
15	0	0	2204	9	2790	54
16	0	0	2284	10	2791	52
17	0	0	2360	12	2796	53
18	0	0	2407	11	2793	54
19	0	0	2408	10	2792	54
20	0	0	2371	10	2790	54
21	0	0	2451	11	2786	50
22	0	0	2348	7	2786	54
23	0	0	2167	7	2786	53
24	0	0	2034	6	2788	53
25	0	0	1868	5	2791	55
26	0	0	1737	7	2791	55
27	0	0	1686	7	2794	54
28	0	0	1692	10	2794	54
29	0	0	1717	11	2793	52
30	0	0	1769	11	2791	51
31	0	0	1780	9	2787	54
32	0	0	1880	13	2786	53
33	0	0	2023	10	2787	56
34	0	0	2119	10	2789	53
35	0	0	2218	11	2791	54
36	0	0	2297	11	2794	54
37	0	0	2380	10	2795	54
38	0	0	2420	10	2795	54
39	0	0	2422	9	2795	54
40	0	0	2397	10	2791	55
41	0	0	2474	13	2788	54
42	0	0	2375	7	2787	53
43	0	0	2193	6	2786	54
44	0	0	2062	6	2788	54
45	0	0	1892	7	2790	54
46	0	0	1752	6	2792	53
47	0	0	1698	3	2794	53
48	0	0	1690	7	2795	53
49	0	0	1707	10	2793	54
50	0	0	1749	11	2790	49
51	0	0	1758	10	2787	54
52	0	0	1857	7	2785	53
53	0	0	2000	10	2786	53
54	0	0	2087	14	2788	53
55	0	0	2179	11	2791	51
56	0	0	2263	10	2791	55
57	0	0	2338	8	2793	53
58	0	0	2378	10	2793	54
59	0	0	2382	12	2792	54
60	0	0	2356	11	2789	51
61	0	0	2434	11	2785	52
62	0	0	2332	3	2784	53
63	0	0	2146	6	2784	54
64	0	0	2014	7	2787	53
65	0	0	1853	7	2789	54
66	0	0	1711	7	2791	54
67	0	0	1654	4	2792	49
68	0	0	1652	10	2791	55
69	0	0	1672	9	2791	51
70	0	0	1716	10	2788	54
71	0	0	1723	8	2785	52
72	0	0	1815	9	2783	55
73	0	0	1953	10	2785	53
74	0	0	2043	7	2786	53
75	0	0	2132	9	2788	53
76	0	0	2204	10	2791	54
77	0	0	2278	7	2791	54
78	0	0	2320	11	2791	54
79	0	0	2325	11	2791	55
80	0	0	2296	11	2787	54
81	0	0	2374	10	2785	54
82	0	0	2286	3	2783	56
83	0	0	2115	7	2784	53
84	0	0	1985	8	2786	54
85	0	0	1826	6	2788	49
86	0	0	1692	8	2791	54
87	0	0	1636	3	2792	54
88	0	0	1627	10	2792	54
89	0	0	1649	15	2791	53
90	0	0	1689	11	2789	51
91	0	0	1699	11	2785	52
92	0	0	1791	8	2784	54
93	0	0	1926	10	2784	53
94	0	0	2029	10	2787	53
95	0	0	2130	12	2790	55
96	0	0	2223	11	2791	54
97	0	0	2318	10	2793	54
98	0	0	2377	11	2792	54
99	0	0	2378	11	2792	55
100	0	0	2338	11	2789	53
101	0	0	2404	11	2785	53
102	0	0	2312	4	2785	53
103	0	0	2145	6	2786	53
104	0	0	2023	8	2788	54
105	0	0	1862	4	2790	54
106	0	0	1717	6	2792	54
107	0	0	1661	4	2794	54
108	0	0	1664	10	2793	54
109	0	0	1690	11	2793	53
110	0	0	1734	9	2789	54
111	0	0	1741	11	2785	53
112	0	0	1828	8	2785	53
113	0	0	1972	12	2786	53
114	0	0	2073	10	2788	50
115	0	0	2168	10	2790	51
116	0	0	2247	10	2793	53
117	0	0	2325	8	2794	54
118	0	0	2369	11	2793	54
119	0	0	2368	13	2792	54
120	0	0	2341	10	2790	52
121	0	0	2420	10	2786	54
122	0	0	2339	7	2786	53
123	0	0	2164	7	2786	52
124	0	0	2033	7	2788	53
125	0	0	1872	5	2790	54
126	0	0	1740	7	2792	53
127	0	0	1682	6	2793	54
0	0	0	1676	10	2793	54
1	0	0	1707	7	2792	54
2	0	0	1754	10	2789	51
3	0	0	1765	10	2786	53
4	0	0	1857	10	2785	51
5	0	0	1994	10	2785	53
6	0	0	2094	11	2787	53
7	0	0	2184	11	2790	54
8	0	0	2265	10	2788	54
9	0	0	2341	10	2793	54
10	0	0	2386	10	2792	54
11	0	0	2391	9	2793	54
12	0	0	2364	12	2788	51
13	0	0	2439	10	2785	54
14	0	0	2351	4	2784	52
15	0	0	2182	7	2784	53
16	0	0	2058	6	2785	54
17	0	0	1903	6	2788	51
18	0	0	1771	6	2791	53
19	0	0	1715	7	2792	53
20	0	0	1708	10	2791	53
21	0	0	1721	8	2792	54
22	0	0	1759	10	2788	58
23	0	0	1765	11	2784	54
24	0	0	1845	10	2784	53
25	0	0	1972	11	2784	53
26	0	0	2060	10	2786	53
27	0	0	2151	8	2788	54
28	0	0	2221	11	2791	53
29	0	0	2293	10	2793	53
30	0	0	2332	10	2792	53
31	0	0	2333	10	2791	53
32	0	0	2312	10	2788	54
33	0	0	2384	10	2785	54
34	0	0	2308	6	2784	53
35	0	0	2143	6	2785	53
36	0	0	2011	7	2786	52
37	0	0	1868	6	2789	52
38	0	0	1739	6	2791	53
39	0	0	1687	8	2793	55
40	0	0	1684	10	2792	54
41	0	0	1708	11	2791	54
42	0	0	1744	12	2789	52
43	0	0	1753	10	2786	54
44	0	0	1839	10	2786	55
45	0	0	1976	10	2786	54
46	0	0	2078	10	2787	54
47	0	0	2169	10	2790	54
48	0	0	2246	10	2792	54
49	0	0	2317	10	2794	53
50	0	0	2356	10	2793	54
51	0	0	2361	9	2793	52
52	0	0	2343	12	2789	51
53	0	0	2419	11	2786	53
54	0	0	2341	7	2786	53
55	0	0	2181	7	2787	54
56	0	0	2060	4	2788	54
57	0	0	1911	8	2790	53
58	0	0	1783	6	2792	55
59	0	0	1730	7	2794	55
60	0	0	1721	11	2794	52
61	0	0	1738	10	2793	54
62	0	0	1774	11	2792	55
63	0	0	1787	10	2787	54
64	0	0	1869	9	2787	53
65	0	0	1996	10	2786	52
66	0	0	2084	8	2788	54
67	0	0	2175	12	2790	51
68	0	0	2250	9	2792	54
69	0	0	2321	11	2794	55
70	0	0	2367	11	2794	54
71	0	0	2373	11	2793	53
72	0	0	2349	11	2790	52
73	0	0	2413	11	2787	53
74	0	0	2340	7	2786	53
75	0	0	2180	6	2786	53
76	0	0	2060	7	2788	53
77	0	0	1911	7	2790	54
78	0	0	1785	7	2793	54
79	0	0	1730	7	2794	54
80	0	0	1717	8	2793	54
81	0	0	1733	11	2792	54
82	0	0	1771	10	2789	55
83	0	0	1785	10	2787	52
84	0	0	1861	11	2784	54
85	0	0	1988	10	2785	53
86	0	0	2078	10	2787	53
87	0	0	2168	11	2790	54
88	0	0	2245	9	2792	53
89	0	0	2322	12	2793	54
90	0	0	2365	10	2793	53
91	0	0	2371	11	2792	54
92	0	0	2339	10	2790	55
93	0	0	2407	8	2786	52
94	0	0	2332	7	2785	52
95	0	0	2171	8	2785	54
96	0	0	2048	7	2787	53
97	0	0	1901	7	2790	55
98	0	0	1775	5	2792	53
99	0	0	1717	8	2793	54
100	0	0	1705	10	2793	55
101	0	0	1722	10	2792	54
102	0	0	1756	11	2789	53
103	0	0	1774	10	2787	53
104	0	0	1847	7	2784	53
105	0	0	1973	10	2786	53
106	0	0	2070	7	2787	53
107	0	0	2152	10	2790	53
108	0	0	2230	9	2793	54
109	0	0	2304	11	2793	54
110	0	0	2348	10	2795	53
111	0	0	2351	10	2794	54
112	0	0	2322	11	2790	53
113	0	0	2387	11	2787	52
114	0	0	2324	7	2786	53
115	0	0	2168	7	2787	53
116	0	0	2042	6	2789	54
117	0	0	1895	5	2791	53
118	0	0	1769	6	2793	52
119	0	0	1714	8	2794	54
120	0	0	1708	11	2795	54
121	0	0	1731	10	2793	54
122	0	0	1768	11	2792	53
123	0	0	1787	10	2788	51
124	0	0	1859	10	2788	54
125	0	0	1990	11	2788	53
126	0	0	2088	13	2790	53
127	0	0	2176	10	2795	55
0	0	0	2257	9	2794	51
1	0	0	2333	10	2796	55
2	0	0	2382	11	2796	54
3	0	0	2387	10	2795	54
4	0	0	2352	11	2791	52
5	0	0	2414	11	2789	53
6	0	0	2341	8	2788	54
7	0	0	2182	7	2788	51
8	0	0	2063	6	2790	54
9	0	0	1916	6	2793	50
10	0	0	1793	6	2795	53
11	0	0	1734	5	2796	53
12	0	0	1722	9	2797	54
13	0	0	1740	10	2794	53
14	0	0	1772	10	2793	54
15	0	0	1797	10	2789	54
16	0	0	1876	11	2788	53
17	0	0	2005	11	2788	53
18	0	0	2092	13	2791	54
19	0	0	2169	11	2792	52
20	0	0	2245	11	2795	54
21	0	0	2318	11	2795	54
22	0	0	2364	10	2796	54
23	0	0	2371	10	2795	54
24	0	0	2337	7	2792	52
25	0	0	2400	12	2789	52
26	0	0	2327	7	2787	53
27	0	0	2177	6	2788	53
28	0	0	2052	10	2789	53
29	0	0	1904	6	2792	54
30	0	0	1784	6	2794	54
31	0	0	1729	7	2795	56
32	0	0	1721	10	2796	54
33	0	0	1735	12	2794	53
34	0	0	1775	9	2792	53
35	0	0	1795	10	2788	51
36	0	0	1865	9	2787	53
37	0	0	1990	11	2787	53
38	0	0	2080	12	2788	52
39	0	0	2161	9	2792	53
40	0	0	2245	10	2793	54
41	0	0	2306	10	2796	55
42	0	0	2345	10	2795	54
43	0	0	2351	13	2795	54
44	0	0	2326	10	2792	52
45	0	0	2393	12	2789	50
46	0	0	2326	7	2787	53
47	0	0	2166	7	2787	55
48	0	0	2044	5	2790	54
49	0	0	1901	6	2792	54
50	0	0	1774	7	2794	55
51	0	0	1716	7	2796	55
52	0	0	1710	10	2795	55
53	0	0	1725	10	2794	54
54	0	0	1763	11	2792	54
55	0	0	1786	10	2788	54
56	0	0	1862	11	2787	54
57	0	0	1984	11	2788	53
58	0	0	2073	10	2790	54
59	0	0	2159	10	2792	53
60	0	0	2236	11	2795	54
61	0	0	2308	11	2796	53
62	0	0	2352	10	2797	53
63	0	0	2355	11	2796	54
64	0	0	2328	10	2793	55
65	0	0	2392	11	2790	53
66	0	0	2333	8	2789	54
67	0	0	2185	6	2789	54
68	0	0	2070	8	2791	53
69	0	0	1929	4	2794	53
70	0	0	1802	7	2796	52
71	0	0	1745	7	2798	55
72	0	0	1736	12	2796	53
73	0	0	1758	10	2796	55
74	0	0	1802	10	2794	53
75	0	0	1817	10	2790	53
76	0	0	1894	10	2790	53
77	0	0	2015	11	2790	53
78	0	0	2106	10	2792	51
79	0	0	2190	10	2793	53
80	0	0	2270	10	2796	53
81	0	0	2335	10	2798	54
82	0	0	2381	12	2798	54
83	0	0	2392	12	2796	53
84	0	0	2356	7	2795	53
85	0	0	2412	10	2791	53
86	0	0	2349	7	2789	54
87	0	0	2199	6	2789	54
88	0	0	2081	7	2791	53
89	0	0	1947	6	2794	53
90	0	0	1817	7	2796	53
91	0	0	1758	7	2798	53
92	0	0	1745	10	2797	54
93	0	0	1760	10	2796	53
94	0	0	1797	10	2794	54
95	0	0	1810	11	2790	54
96	0	0	1889	10	2789	53
97	0	0	2008	10	2789	53
98	0	0	2096	11	2791	53
99	0	0	2171	11	2794	54
100	0	0	2249	10	2796	55
101	0	0	2323	9	2798	55
102	0	0	2368	10	2797	54
103	0	0	2371	11	2796	54
104	0	0	2344	8	2794	52
105	0	0	2407	11	2789	55
106	0	0	2339	7	2788	53
107	0	0	2183	6	2790	54
108	0	0	2059	7	2790	53
109	0	0	1918	7	2793	53
110	0	0	1795	7	2797	54
111	0	0	1741	8	2797	57
112	0	0	1738	9	2796	54
113	0	0	1757	12	2796	54
114	0	0	1792	11	2793	55
115	0	0	1806	8	2790	37
116	0	0	1875	10	2788	54
117	0	0	2000	11	2788	53
118	0	0	2088	11	2790	54
119	0	0	2172	10	2793	54
120	0	0	2242	11	2795	54
121	0	0	2308	11	2795	52
122	0	0	2352	11	2797	53
123	0	0	2351	10	2796	54
124	0	0	2321	9	2793	54
125	0	0	2387	11	2790	53
126	0	0	2325	3	2790	55
127	0	0	2169	6	2788	54
0	0	0	2054	8	2791	55
1	0	0	1916	8	2793	54
2	0	0	1790	6	2795	50
3	0	0	1731	7	2796	54
4	0	0	1720	10	2797	54
5	0	0	1739	10	2796	54
6	0	0	1773	10	2794	53
7	0	0	1794	9	2790	53
8	0	0	1872	12	2788	54
9	0	0	1994	11	2789	54
10	0	0	2085	11	2792	53
11	0	0	2171	11	2794	54
12	0	0	2243	11	2796	53
13	0	0	2314	11	2798	54
14	0	0	2359	11	2797	56
15	0	0	2367	12	2797	53
16	0	0	2340	10	2793	53
17	0	0	2409	10	2791	53
18	0	0	2345	7	2788	53
19	0	0	2191	7	2790	53
20	0	0	2071	8	2792	54
21	0	0	1930	6	2794	54
22	0	0	1808	7	2796	55
23	0	0	1749	8	2798	55
24	0	0	1746	10	2798	54
25	0	0	1764	11	2797	54
26	0	0	1795	10	2794	55
27	0	0	1812	8	2791	52
28	0	0	1890	10	2788	53
29	0	0	2015	10	2790	54
30	0	0	2099	10	2792	54
31	0	0	2175	10	2793	55
32	0	0	2246	9	2797	53
33	0	0	2323	11	2798	52
34	0	0	2367	11	2798	55
35	0	0	2378	11	2797	54
36	0	0	2345	9	2794	55
37	0	0	2409	10	2791	52
38	0	0	2344	7	2789	50
39	0	0	2196	7	2790	54
40	0	0	2079	8	2792	54
41	0	0	1931	6	2793	55
42	0	0	1798	7	2796	53
43	0	0	1741	5	2797	52
44	0	0	1732	10	2797	53
45	0	0	1745	10	2796	54
46	0	0	1784	11	2794	54
47	0	0	1797	10	2791	53
48	0	0	1868	10	2789	53
49	0	0	1996	10	2790	53
50	0	0	2081	11	2791	54
51	0	0	2165	10	2793	54
52	0	0	2240	10	2796	53
53	0	0	2314	10	2796	54
54	0	0	2363	11	2798	54
55	0	0	2373	12	2797	52
56	0	0	2342	8	2794	54
57	0	0	2404	10	2791	54
58	0	0	2337	5	2789	51
59	0	0	2179	7	2789	53
60	0	0	2054	7	2791	55
61	0	0	1911	6	2792	55
62	0	0	1787	7	2795	52
63	0	0	1730	7	2796	55
64	0	0	1719	9	2796	54
65	0	0	1731	11	2796	54
66	0	0	1760	10	2792	55
67	0	0	1776	10	2789	52
68	0	0	1850	10	2788	53
69	0	0	1977	11	2789	52
70	0	0	2066	11	2792	55
71	0	0	2142	11	2793	53
72	0	0	2222	10	2795	52
73	0	0	2297	11	2797	54
74	0	0	2341	10	2797	54
75	0	0	2347	8	2796	55
76	0	0	2316	8	2794	55
77	0	0	2380	11	2790	52
78	0	0	2320	6	2788	53
79	0	0	2165	6	2790	53
80	0	0	2043	4	2791	53
81	0	0	1903	8	2793	55
82	0	0	1772	7	2796	56
83	0	0	1715	8	2797	54
84	0	0	1710	11	2797	54
85	0	0	1728	8	2797	54
86	0	0	1770	10	2795	58
87	0	0	1783	11	2791	52
88	0	0	1856	10	2789	52
89	0	0	1978	10	2791	53
90	0	0	2073	10	2791	52
91	0	0	2158	13	2794	55
92	0	0	2231	10	2796	56
93	0	0	2307	11	2797	54
94	0	0	2354	11	2797	55
95	0	0	2360	9	2798	53
96	0	0	2327	9	2795	52
97	0	0	2392	10	2791	56
98	0	0	2332	8	2791	54
99	0	0	2178	7	2790	53
100	0	0	2056	6	2792	55
101	0	0	1915	7	2795	54
102	0	0	1782	4	2797	54
103	0	0	1722	7	2798	53
104	0	0	1712	10	2799	55
105	0	0	1729	9	2799	53
106	0	0	1765	11	2796	55
107	0	0	1777	10	2791	56
108	0	0	1854	10	2789	53
109	0	0	1985	7	2790	53
110	0	0	2080	14	2791	55
111	0	0	2166	12	2794	53
112	0	0	2241	11	2797	56
113	0	0	2312	11	2797	53
114	0	0	2358	10	2798	54
115	0	0	2366	15	2796	55
116	0	0	2337	9	2795	54
117	0	0	2404	9	2791	56
118	0	0	2340	8	2791	54
119	0	0	2174	6	2790	54
120	0	0	2043	7	2791	55
121	0	0	1897	7	2794	54
122	0	0	1763	7	2797	54
123	0	0	1697	8	2797	54
124	0	0	1690	11	2798	54
125	0	0	1710	8	2797	54
126	0	0	1743	12	2794	54
127	0	0	1759	10	2790	56
0	0	0	1830	11	2789	53
1	0	0	1961	12	2789	53
2	0	0	2060	11	2791	51
3	0	0	2147	12	2793	54
4	0	0	2226	10	2796	55
5	0	0	2304	10	2796	53
6	0	0	2352	10	2797	54
7	0	0	2361	15	2795	52
8	0	0	2334	13	2794	54
9	0	0	2403	12	2791	53
10	0	0	2333	6	2789	53
11	0	0	2165	8	2789	54
12	0	0	2032	4	2791	53
13	0	0	1879	6	2794	55
14	0	0	1743	7	2796	55
15	0	0	1679	7	2797	55
16	0	0	1669	11	2797	55
17	0	0	1688	11	2796	51
18	0	0	1728	13	2794	55
19	0	0	1746	10	2790	55
20	0	0	1816	11	2788	54
21	0	0	1947	11	2789	53
22	0	0	2045	15	2790	54
23	0	0	2134	13	2793	55
24	0	0	2216	10	2796	51
25	0	0	2296	11	2797	55
26	0	0	2343	11	2797	54
27	0	0	2350	15	2796	55
28	0	0	2319	11	2794	54
29	0	0	2387	9	2791	52
30	0	0	2327	7	2789	54
31	0	0	2167	5	2790	54
32	0	0	2034	7	2792	54
33	0	0	1886	9	2794	55
34	0	0	1747	7	2796	55
35	0	0	1682	8	2797	55
36	0	0	1672	7	2797	54
37	0	0	1694	8	2798	54
38	0	0	1732	9	2795	54
39	0	0	1751	9	2791	55
40	0	0	1826	10	2791	54
41	0	0	1960	12	2790	53
42	0	0	2064	10	2792	51
43	0	0	2158	12	2795	55
44	0	0	2239	8	2797	55
45	0	0	2319	10	2798	54
46	0	0	2375	10	2799	58
47	0	0	2382	10	2798	53
48	0	0	2352	9	2796	51
49	0	0	2414	11	2791	53
50	0	0	2352	6	2790	53
51	0	0	2187	7	2790	53
52	0	0	2056	7	2792	54
53	0	0	1899	7	2795	55
54	0	0	1755	5	2797	51
55	0	0	1687	7	2798	55
56	0	0	1664	9	2799	54
57	0	0	1680	11	2797	55
58	0	0	1722	8	2796	54
59	0	0	1746	11	2792	49
60	0	0	1820	10	2796	55
61	0	0	1957	10	2791	54
62	0	0	2057	8	2792	55
63	0	0	2150	11	2794	54
64	0	0	2228	10	2797	55
65	0	0	2306	10	2798	55
66	0	0	2359	9	2798	54
67	0	0	2370	10	2797	54
68	0	0	2338	11	2795	53
69	0	0	2404	11	2791	52
70	0	0	2345	6	2790	56
71	0	0	2180	3	2790	54
72	0	0	2045	7	2792	55
73	0	0	1890	6	2794	58
74	0	0	1744	6	2797	55
75	0	0	1675	7	2798	54
76	0	0	1666	10	2797	55
77	0	0	1687	11	2797	56
78	0	0	1722	11	2794	54
79	0	0	1743	8	2791	53
80	0	0	1817	10	2789	54
81	0	0	1951	9	2789	53
82	0	0	2047	10	2790	55
83	0	0	2140	8	2793	53
84	0	0	2224	10	2796	55
85	0	0	2304	10	2796	54
86	0	0	2354	12	2796	54
87	0	0	2368	10	2795	55
88	0	0	2337	9	2794	54
89	0	0	2401	10	2790	51
90	0	0	2347	4	2790	54
91	0	0	2174	7	2789	53
92	0	0	2034	7	2791	54
93	0	0	1876	7	2794	57
94	0	0	1730	7	2796	55
95	0	0	1657	8	2798	56
96	0	0	1645	9	2797	54
97	0	0	1660	11	2796	54
98	0	0	1704	10	2794	55
99	0	0	1735	9	2790	51
100	0	0	1812	11	2789	53
101	0	0	1953	10	2789	54
102	0	0	2057	12	2791	53
103	0	0	2149	10	2793	55
104	0	0	2232	8	2796	51
105	0	0	2317	10	2797	54
106	0	0	2373	11	2798	54
107	0	0	2387	12	2797	54
108	0	0	2355	8	2794	55
109	0	0	2420	11	2791	52
110	0	0	2366	5	2791	56
111	0	0	2193	7	2792	54
112	0	0	2052	8	2792	54
113	0	0	1894	6	2794	55
114	0	0	1743	7	2796	51
115	0	0	1672	8	2798	55
116	0	0	1660	9	2798	54
117	0	0	1678	10	2797	55
118	0	0	1721	10	2795	58
119	0	0	1737	13	2791	54
120	0	0	1811	10	2791	53
121	0	0	1954	10	2790	53
122	0	0	2064	10	2792	55
123	0	0	2164	11	2795	54
124	0	0	2250	9	2797	56
125	0	0	2342	11	2799	53
126	0	0	2396	11	2798	55
127	0	0	2410	11	2798	53
0	0	0	2383	7	2796	54
1	0	0	2441	8	2792	54
2	0	0	2387	6	2791	53
3	0	0	2213	6	2790	53
4	0	0	2071	7	2792	55
5	0	0	1916	7	2795	56
6	0	0	1758	6	2797	55
7	0	0	1685	7	2798	55
8	0	0	1670	9	2798	54
9	0	0	1687	10	2797	55
10	0	0	1730	7	2795	53
11	0	0	1750	10	2791	49
12	0	0	1819	10	2790	53
13	0	0	1957	11	2791	54
14	0	0	2065	11	2792	53
15	0	0	2165	11	2794	51
16	0	0	2252	10	2797	52
17	0	0	2344	11	2798	53
18	0	0	2402	11	2798	54
19	0	0	2414	10	2797	53
20	0	0	2380	8	2795	54
21	0	0	2438	11	2790	54
22	0	0	2384	9	2789	54
23	0	0	2214	5	2789	54
24	0	0	2065	7	2791	53
25	0	0	1900	7	2794	57
26	0	0	1748	7	2796	55
27	0	0	1675	7	2796	53
28	0	0	1664	10	2797	55
29	0	0	1684	10	2796	54
30	0	0	1728	9	2793	55
31	0	0	1746	10	2790	52
32	0	0	1825	14	2788	54
33	0	0	1965	11	2790	53
34	0	0	2074	11	2792	55
35	0	0	2169	7	2793	53
36	0	0	2254	11	2796	55
37	0	0	2340	11	2797	54
38	0	0	2392	10	2796	55
39	0	0	2405	11	2796	55
40	0	0	2369	6	2793	54
41	0	0	2424	12	2790	52
42	0	0	2371	6	2788	52
43	0	0	2196	6	2789	53
44	0	0	2054	6	2791	54
45	0	0	1895	5	2793	51
46	0	0	1745	7	2796	56
47	0	0	1666	8	2797	54
48	0	0	1646	8	2797	55
49	0	0	1666	9	2797	54
50	0	0	1705	11	2794	51
51	0	0	1729	12	2791	56
52	0	0	1806	10	2789	53
53	0	0	1949	9	2790	53
54	0	0	2060	11	2791	53
55	0	0	2153	7	2793	53
56	0	0	2241	11	2796	54
57	0	0	2331	11	2797	54
58	0	0	2392	12	2798	55
59	0	0	2406	11	2797	53
60	0	0	2382	9	2794	52
61	0	0	2451	11	2791	53
62	0	0	2392	6	2790	53
63	0	0	2216	6	2789	54
64	0	0	2075	7	2793	52
65	0	0	1920	7	2795	55
66	0	0	1777	6	2797	55
67	0	0	1698	8	2798	57
68	0	0	1682	9	2798	54
69	0	0	1698	10	2797	54
70	0	0	1739	8	2795	54
71	0	0	1768	10	2791	53
72	0	0	1841	10	2789	54
73	0	0	1979	10	2791	53
74	0	0	2089	11	2791	53
75	0	0	2181	10	2793	55
76	0	0	2266	9	2797	55
77	0	0	2349	11	2798	56
78	0	0	2409	10	2798	55
79	0	0	2420	11	2798	53
80	0	0	2394	8	2796	53
81	0	0	2460	11	2792	53
82	0	0	2401	7	2791	54
83	0	0	2232	6	2790	53
84	0	0	2082	7	2792	53
85	0	0	1917	5	2793	55
86	0	0	1760	7	2796	55
87	0	0	1676	7	2797	56
88	0	0	1661	8	2798	54
89	0	0	1679	7	2798	53
90	0	0	1721	8	2794	55
91	0	0	1752	9	2791	53
92	0	0	1822	11	2788	54
93	0	0	1960	11	2789	53
94	0	0	2068	10	2791	54
95	0	0	2167	10	2794	54
96	0	0	2261	14	2796	54
97	0	0	2342	11	2797	56
98	0	0	2396	9	2797	54
99	0	0	2410	10	2796	54
100	0	0	2376	4	2794	55
101	0	0	2446	11	2790	55
102	0	0	2395	8	2789	56
103	0	0	2216	5	2790	56
104	0	0	2071	8	2790	55
105	0	0	1909	3	2792	55
106	0	0	1754	7	2795	55
107	0	0	1671	7	2796	58
108	0	0	1654	9	2796	55
109	0	0	1667	10	2796	54
110	0	0	1708	8	2793	54
111	0	0	1735	11	2790	55
112	0	0	1806	10	2788	56
113	0	0	1948	10	2789	53
114	0	0	2065	11	2791	54
115	0	0	2162	8	2793	54
116	0	0	2253	10	2796	54
117	0	0	2342	11	2797	55
118	0	0	2404	11	2798	54
119	0	0	2414	13	2796	55
120	0	0	2384	5	2793	55
121	0	0	2450	11	2790	53
122	0	0	2400	6	2789	55
123	0	0	2220	7	2788	54
124	0	0	2074	6	2791	54
125	0	0	1911	8	2793	56
126	0	0	1754	6	2796	54
127	0	0	1669	7	2797	53
0	0	0	1655	10	2797	54
1	0	0	1679	10	2797	54
2	0	0	1720	11	2795	56
3	0	0	1748	11	2791	53
4	0	0	1826	11	2790	53
5	0	0	1976	8	2790	54
6	0	0	2089	10	2792	51
7	0	0	2188	11	2794	53
8	0	0	2282	8	2796	54
9	0	0	2378	10	2798	53
10	0	0	2438	11	2797	54
11	0	0	2453	10	2797	55
12	0	0	2417	4	2794	55
13	0	0	2475	10	2791	53
14	0	0	2427	8	2789	54
15	0	0	2252	8	2791	54
16	0	0	2103	10	2792	52
17	0	0	1939	8	2794	53
18	0	0	1774	7	2796	54
19	0	0	1690	7	2798	58
20	0	0	1674	9	2798	55
21	0	0	1690	10	2798	54
22	0	0	1733	12	2795	56
23	0	0	1762	11	2791	54
24	0	0	1833	12	2790	54
25	0	0	1981	8	2790	53
26	0	0	2096	10	2791	54
27	0	0	2191	12	2794	53
28	0	0	2284	11	2796	55
29	0	0	2384	9	2797	55
30	0	0	2448	11	2798	51
31	0	0	2463	9	2797	54
32	0	0	2430	8	2795	53
33	0	0	2492	11	2791	53
34	0	0	2443	7	2789	52
35	0	0	2263	7	2789	54
36	0	0	2106	6	2792	54
37	0	0	1942	6	2794	55
38	0	0	1776	6	2797	55
39	0	0	1692	0	2797	55
40	0	0	1672	9	2797	55
41	0	0	1685	11	2796	54
42	0	0	1729	10	2794	58
43	0	0	1756	8	2790	55
44	0	0	1824	11	2788	50
45	0	0	1970	10	2788	56
46	0	0	2087	11	2790	53
47	0	0	2183	9	2793	55
48	0	0	2275	8	2795	54
49	0	0	2372	11	2796	53
50	0	0	2433	11	2796	55
51	0	0	2443	12	2796	55
52	0	0	2413	8	2794	55
53	0	0	2475	11	2790	53
54	0	0	2427	8	2788	53
55	0	0	2243	7	2788	51
56	0	0	2087	8	2791	54
57	0	0	1917	8	2792	56
58	0	0	1747	6	2795	56
59	0	0	1654	8	2796	53
60	0	0	1628	8	2796	54
61	0	0	1643	10	2796	52
62	0	0	1682	10	2793	54
63	0	0	1706	7	2789	53
64	0	0	1782	10	2789	54
65	0	0	1922	10	2788	54
66	0	0	2040	11	2791	51
67	0	0	2151	10	2793	54
68	0	0	2241	9	2795	54
69	0	0	2336	10	2797	53
70	0	0	2404	9	2797	54
71	0	0	2423	10	2797	52
72	0	0	2389	10	2795	54
73	0	0	2450	10	2791	54
74	0	0	2403	7	2788	52
75	0	0	2220	8	2789	54
76	0	0	2064	7	2791	51
77	0	0	1894	8	2793	52
78	0	0	1726	5	2795	56
79	0	0	1642	9	2796	54
80	0	0	1626	9	2797	53
81	0	0	1645	10	2796	54
82	0	0	1685	14	2794	54
83	0	0	1716	10	2791	54
84	0	0	1783	10	2789	54
85	0	0	1928	8	2790	54
86	0	0	2048	10	2790	56
87	0	0	2152	14	2794	52
88	0	0	2245	8	2796	54
89	0	0	2343	11	2797	52
90	0	0	2409	10	2798	55
91	0	0	2421	11	2797	51
92	0	0	2394	7	2794	53
93	0	0	2459	9	2791	54
94	0	0	2414	7	2789	51
95	0	0	2230	6	2789	55
96	0	0	2072	8	2791	54
97	0	0	1903	5	2793	55
98	0	0	1735	5	2796	53
99	0	0	1647	7	2798	54
100	0	0	1625	9	2797	54
101	0	0	1640	11	2796	53
102	0	0	1685	8	2795	54
103	0	0	1707	11	2790	54
104	0	0	1783	11	2789	52
105	0	0	1933	10	2789	53
106	0	0	2059	10	2791	52
107	0	0	2171	13	2793	52
108	0	0	2271	10	2795	55
109	0	0	2371	11	2796	56
110	0	0	2434	11	2796	54
111	0	0	2449	10	2796	54
112	0	0	2417	7	2793	54
113	0	0	2473	11	2790	53
114	0	0	2419	6	2788	52
115	0	0	2235	7	2789	54
116	0	0	2076	4	2790	55
117	0	0	1911	7	2792	54
118	0	0	1741	6	2795	56
119	0	0	1652	7	2796	56
120	0	0	1636	6	2797	55
121	0	0	1651	11	2801	53
122	0	0	1695	11	2793	54
123	0	0	1729	9	2790	54
124	0	0	1800	10	2787	52
125	0	0	1946	10	2787	53
126	0	0	2068	11	2789	51
127	0	0	2173	7	2791	53
0	0	0	2272	11	2794	55
1	0	0	2372	10	2796	55
2	0	0	2434	10	2796	54
3	0	0	2453	11	2795	52
4	0	0	2425	6	2793	53
5	0	0	2487	11	2789	54
6	0	0	2452	7	2788	52
7	0	0	2271	6	2788	54
8	0	0	2113	7	2790	52
9	0	0	1947	7	2792	54
10	0	0	1779	7	2795	54
11	0	0	1679	7	2795	55
12	0	0	1652	7	2796	54
13	0	0	1665	10	2795	54
14	0	0	1702	8	2793	55
15	0	0	1723	11	2789	54
16	0	0	1784	10	2787	54
17	0	0	1927	9	2787	53
18	0	0	2046	10	2791	52
19	0	0	2147	8	2792	54
20	0	0	2247	10	2794	55
21	0	0	2348	11	2796	55
22	0	0	2427	12	2797	54
23	0	0	2451	10	2797	51
24	0	0	2427	9	2794	54
25	0	0	2496	12	2790	54
26	0	0	2467	7	2788	56
27	0	0	2288	7	2788	53
28	0	0	2131	8	2790	56
29	0	0	1958	4	2793	54
30	0	0	1777	6	2795	55
31	0	0	1680	7	2796	55
32	0	0	1640	8	2796	54
33	0	0	1653	10	2797	52
34	0	0	1683	8	2793	54
35	0	0	1702	12	2790	53
36	0	0	1773	10	2789	54
37	0	0	1919	9	2790	53
38	0	0	2033	11	2790	51
39	0	0	2141	10	2793	54
40	0	0	2243	11	2796	54
41	0	0	2344	11	2796	54
42	0	0	2416	12	2797	54
43	0	0	2446	12	2796	52
44	0	0	2424	5	2794	54
45	0	0	2494	12	2791	54
46	0	0	2463	7	2788	55
47	0	0	2285	6	2788	52
48	0	0	2128	7	2790	54
49	0	0	1962	7	2793	54
50	0	0	1784	7	2795	54
51	0	0	1682	7	2796	55
52	0	0	1651	7	2796	54
53	0	0	1659	11	2796	54
54	0	0	1686	12	2793	54
55	0	0	1705	10	2790	54
56	0	0	1764	10	2788	55
57	0	0	1908	12	2788	53
58	0	0	2032	11	2790	52
59	0	0	2139	8	2793	54
60	0	0	2239	10	2795	54
61	0	0	2348	10	2796	55
62	0	0	2422	11	2796	55
63	0	0	2447	12	2796	56
64	0	0	2426	4	2793	54
65	0	0	2492	11	2789	53
66	0	0	2468	7	2787	49
67	0	0	2289	6	2787	54
68	0	0	2132	8	2789	56
69	0	0	1960	4	2792	53
70	0	0	1780	7	2794	54
71	0	0	1677	7	2795	55
72	0	0	1640	8	2795	56
73	0	0	1648	10	2795	54
74	0	0	1677	10	2793	54
75	0	0	1696	11	2789	53
76	0	0	1762	10	2787	49
77	0	0	1911	11	2787	53
78	0	0	2034	10	2790	52
79	0	0	2143	12	2791	55
80	0	0	2243	10	2794	54
81	0	0	2354	11	2795	51
82	0	0	2430	10	2795	54
83	0	0	2455	11	2795	54
84	0	0	2433	8	2793	53
85	0	0	2494	11	2789	53
86	0	0	2468	7	2787	52
87	0	0	2290	7	2787	53
88	0	0	2133	7	2789	53
89	0	0	1968	4	2792	54
90	0	0	1785	4	2794	54
91	0	0	1676	7	2795	51
92	0	0	1643	7	2796	54
93	0	0	1649	8	2795	54
94	0	0	1681	8	2793	55
95	0	0	1700	10	2789	53
96	0	0	1764	11	2787	51
97	0	0	1914	10	2787	53
98	0	0	2051	9	2789	54
99	0	0	2162	8	2791	55
100	0	0	2265	8	2794	54
101	0	0	2371	11	2795	51
102	0	0	2451	10	2796	54
103	0	0	2483	10	2796	54
104	0	0	2467	8	2794	54
105	0	0	2532	10	2790	54
106	0	0	2509	6	2788	53
107	0	0	2336	7	2788	53
108	0	0	2176	6	2790	54
109	0	0	2003	6	2793	53
110	0	0	1820	7	2794	54
111	0	0	1715	7	2797	54
112	0	0	1682	9	2793	54
113	0	0	1682	11	2795	54
114	0	0	1708	12	2793	53
115	0	0	1731	9	2790	53
116	0	0	1791	10	2787	49
117	0	0	1936	10	2787	54
118	0	0	2067	8	2789	54
119	0	0	2177	8	2792	55
120	0	0	2280	8	2794	54
121	0	0	2392	12	2795	52
122	0	0	2475	11	2796	54
123	0	0	2509	9	2795	54
124	0	0	2490	10	2793	53
125	0	0	2551	9	2790	55
126	0	0	2524	8	2787	51
127	0	0	2351	7	2788	56
0	0	0	2185	4	2790	54
1	0	0	2014	8	2791	53
2	0	0	1827	5	2794	53
3	0	0	1726	4	2795	52
4	0	0	1690	8	2795	55
5	0	0	1695	9	2794	54
6	0	0	1716	14	2791	52
7	0	0	1732	7	2788	54
8	0	0	1460	5	2787	53
9	0	0	1035	9	2787	53
10	0	0	1691	10	2789	52
11	0	0	2197	10	2791	54
12	0	0	2472	8	2793	53
13	0	0	2613	10	2795	54
14	0	0	2664	11	2795	54
15	0	0	2653	9	2795	54
16	0	0	2600	7	2793	54
17	0	0	2640	8	2789	53
18	0	0	2590	6	2787	53
19	0	0	2419	7	2786	53
20	0	0	2265	6	2788	51
21	0	0	2107	6	2789	52
22	0	0	1933	4	2793	53
23	0	0	1829	6	2794	55
24	0	0	1784	8	2795	54
25	0	0	1780	11	2794	55
26	0	0	1793	11	2791	54
27	0	0	1806	8	2788	54
28	0	0	1843	10	2786	52
29	0	0	1958	10	2787	53
30	0	0	2064	10	2788	51
31	0	0	2152	10	2789	56
32	0	0	2235	10	2793	55
33	0	0	2319	10	2794	55
34	0	0	2383	10	2794	53
35	0	0	2409	10	2794	53
36	0	0	2395	8	2790	52
37	0	0	2453	11	2788	53
38	0	0	2438	7	2785	53
39	0	0	2291	6	2786	54
40	0	0	2152	10	2787	53
41	0	0	2012	7	2789	53
42	0	0	1857	6	2793	53
43	0	0	1763	7	2793	54
44	0	0	1728	6	2795	55
45	0	0	1727	10	2794	53
46	0	0	1746	10	2792	54
47	0	0	1761	9	2788	53
48	0	0	1807	11	2786	53
49	0	0	1922	10	2787	53
50	0	0	2026	8	2788	54
51	0	0	2115	10	2790	56
52	0	0	2200	8	2793	53
53	0	0	2290	10	2794	54
54	0	0	2357	8	2794	54
55	0	0	2384	12	2794	54
56	0	0	2370	11	2791	52
57	0	0	2417	15	2788	54
58	0	0	2404	6	2786	53
59	0	0	2262	7	2787	53
60	0	0	2124	7	2788	51
61	0	0	1987	6	2790	54
62	0	0	1832	5	2793	54
63	0	0	1738	7	2794	54
64	0	0	1702	6	2795	55
65	0	0	1692	9	2794	54
66	0	0	1707	11	2792	54
67	0	0	1714	7	2788	53
68	0	0	1758	10	2786	53
69	0	0	1874	10	2786	53
70	0	0	1983	12	2787	53
71	0	0	2069	11	2790	54
72	0	0	2156	13	2792	55
73	0	0	2243	10	2794	54
74	0	0	2307	7	2794	54
75	0	0	2326	11	2793	52
76	0	0	2314	8	2791	54
77	0	0	2358	11	2788	53
78	0	0	2350	7	2786	53
79	0	0	2218	6	2786	54
80	0	0	2088	6	2787	53
81	0	0	1950	8	2790	55
82	0	0	1801	10	2793	54
83	0	0	1712	7	2793	55
84	0	0	1680	7	2794	53
85	0	0	1680	11	2793	54
86	0	0	1697	9	2790	55
87	0	0	1711	8	2787	53
88	0	0	1747	14	2784	53
89	0	0	1858	10	2785	53
90	0	0	1967	11	2787	54
91	0	0	2057	11	2790	53
92	0	0	2142	12	2791	54
93	0	0	2224	11	2793	54
94	0	0	2281	11	2793	54
95	0	0	2312	12	2793	52
96	0	0	2304	8	2791	56
97	0	0	2353	13	2787	53
98	0	0	2348	9	2785	54
99	0	0	2216	5	2785	53
100	0	0	2080	6	2787	55
101	0	0	1946	7	2788	54
102	0	0	1802	8	2791	55
103	0	0	1715	7	2792	54
104	0	0	1683	7	2792	54
105	0	0	1680	11	2791	53
106	0	0	1697	10	2790	55
107	0	0	1708	11	2787	54
108	0	0	1749	10	2784	54
109	0	0	1862	8	2785	53
110	0	0	1967	10	2787	53
111	0	0	2051	10	2789	54
112	0	0	2138	10	2792	53
113	0	0	2222	10	2792	53
114	0	0	2288	10	2794	55
115	0	0	2316	12	2793	55
116	0	0	2308	8	2791	55
117	0	0	2355	11	2787	53
118	0	0	2341	7	2784	52
119	0	0	2218	7	2785	52
120	0	0	2098	6	2787	55
121	0	0	1971	6	2790	54
122	0	0	1829	8	2791	54
123	0	0	1743	7	2792	54
124	0	0	1710	7	2793	54
125	0	0	1712	15	2792	53
126	0	0	1731	11	2792	54
127	0	0	1744	8	2787	54
0	0	0	1787	10	2785	54
1	0	0	1899	11	2785	52
2	0	0	2004	12	2787	55
3	0	0	2091	10	2790	55
4	0	0	2178	10	2792	54
5	0	0	2262	11	2793	52
6	0	0	2325	11	2793	54
7	0	0	2354	15	2792	53
8	0	0	2343	10	2790	51
9	0	0	2390	9	2787	53
10	0	0	2385	7	2786	53
11	0	0	2257	5	2785	53
12	0	0	2129	8	2787	54
13	0	0	2000	6	2790	54
14	0	0	1854	7	2792	55
15	0	0	1761	7	2792	55
16	0	0	1725	7	2793	53
17	0	0	1721	11	2792	55
18	0	0	1737	12	2791	53
19	0	0	1749	8	2787	53
20	0	0	1789	10	2785	53
21	0	0	1897	10	2785	53
22	0	0	2001	10	2787	53
23	0	0	2087	10	2789	54
24	0	0	2169	8	2791	54
25	0	0	2256	10	2792	54
26	0	0	2320	10	2793	54
27	0	0	2348	10	2792	55
28	0	0	2344	8	2791	53
29	0	0	2382	10	2787	53
30	0	0	2374	7	2785	53
31	0	0	2251	7	2784	53
32	0	0	2128	8	2786	54
33	0	0	1999	6	2789	55
34	0	0	1855	4	2791	54
35	0	0	1770	7	2792	55
36	0	0	1730	7	2792	54
37	0	0	1724	11	2791	54
38	0	0	1741	11	2790	51
39	0	0	1751	8	2786	53
40	0	0	1784	11	2784	53
41	0	0	1891	8	2784	53
42	0	0	1994	10	2786	56
43	0	0	2079	8	2787	53
44	0	0	2165	9	2790	53
45	0	0	2250	11	2792	54
46	0	0	2312	11	2792	54
47	0	0	2338	10	2791	54
48	0	0	2333	9	2789	54
49	0	0	2373	12	2786	54
50	0	0	2373	7	2784	52
51	0	0	2246	7	2784	53
52	0	0	2120	6	2786	53
53	0	0	1994	7	2788	54
54	0	0	1846	8	2786	55
55	0	0	1756	10	2791	54
56	0	0	1722	8	2792	54
57	0	0	1716	9	2791	54
58	0	0	1731	11	2789	53
59	0	0	1739	8	2785	53
60	0	0	1774	11	2784	53
61	0	0	1882	11	2784	53
62	0	0	1988	10	2786	54
63	0	0	2078	10	2788	51
64	0	0	2172	10	2790	54
65	0	0	2260	10	2792	55
66	0	0	2328	10	2792	53
67	0	0	2358	10	2792	54
68	0	0	2351	9	2790	51
69	0	0	2391	12	2787	56
70	0	0	2392	7	2784	54
71	0	0	2270	7	2785	58
72	0	0	2143	7	2786	55
73	0	0	2018	5	2788	51
74	0	0	1869	6	2791	53
75	0	0	1773	7	2792	52
76	0	0	1735	7	2792	54
77	0	0	1734	9	2792	54
78	0	0	1754	11	2790	54
79	0	0	1763	8	2786	53
80	0	0	1799	10	2784	54
81	0	0	1909	9	2786	53
82	0	0	2010	10	2787	52
83	0	0	2099	11	2789	54
84	0	0	2186	11	2792	54
85	0	0	2270	10	2792	54
86	0	0	2333	9	2794	54
87	0	0	2360	10	2793	58
88	0	0	2350	8	2791	54
89	0	0	2392	10	2787	53
90	0	0	2387	7	2784	53
91	0	0	2261	8	2785	53
92	0	0	2134	6	2786	53
93	0	0	2007	7	2787	52
94	0	0	1859	7	2791	54
95	0	0	1772	7	2792	54
96	0	0	1736	8	2792	54
97	0	0	1732	10	2792	52
98	0	0	1749	10	2790	52
99	0	0	1762	10	2786	53
100	0	0	1798	10	2785	53
101	0	0	1907	11	2784	53
102	0	0	2004	8	2786	52
103	0	0	2086	10	2789	54
104	0	0	2171	7	2790	54
105	0	0	2263	10	2792	54
106	0	0	2328	12	2792	54
107	0	0	2355	11	2792	54
108	0	0	2352	10	2790	54
109	0	0	2394	12	2786	54
110	0	0	2393	7	2784	53
111	0	0	2267	7	2784	53
112	0	0	2134	6	2786	54
113	0	0	2004	6	2788	54
114	0	0	1852	7	2790	53
115	0	0	1758	7	2791	54
116	0	0	1725	6	2793	54
117	0	0	1724	14	2792	57
118	0	0	1744	10	2790	55
119	0	0	1758	7	2785	53
120	0	0	1795	10	2784	53
121	0	0	1902	10	2784	50
122	0	0	2004	9	2785	52
123	0	0	2089	9	2787	52
124	0	0	2172	7	2790	53
125	0	0	2260	10	2791	53
126	0	0	2323	11	2791	54
127	0	0	2346	11	2791	53
0	0	0	2339	8	2788	52
1	0	0	2384	7	2786	53
2	0	0	2378	7	2784	53
3	0	0	2252	8	2784	54
4	0	0	2121	7	2785	54
5	0	0	1992	6	2788	56
6	0	0	1848	3	2791	53
7	0	0	1758	7	2791	54
8	0	0	1725	7	2793	55
9	0	0	1730	8	2792	55
10	0	0	1751	10	2789	54
11	0	0	1770	7	2785	54
12	0	0	1806	10	2784	53
13	0	0	1911	10	2784	54
14	0	0	2015	11	2785	53
15	0	0	2104	11	2787	52
16	0	0	2194	8	2790	54
17	0	0	2278	11	2791	53
18	0	0	2343	10	2792	53
19	0	0	2373	13	2791	52
20	0	0	2366	9	2789	54
21	0	0	2405	7	2786	53
22	0	0	2400	7	2785	53
23	0	0	2275	8	2784	53
24	0	0	2147	7	2786	55
25	0	0	2024	7	2789	53
26	0	0	1876	4	2790	54
27	0	0	1787	8	2792	54
28	0	0	1749	10	2792	53
29	0	0	1746	11	2792	54
30	0	0	1763	10	2789	54
31	0	0	1775	1	2786	53
32	0	0	1812	14	2783	53
33	0	0	1923	11	2784	53
34	0	0	2027	11	2787	55
35	0	0	2108	11	2788	54
36	0	0	2194	10	2791	53
37	0	0	2275	11	2792	54
38	0	0	2339	11	2793	55
39	0	0	2368	14	2792	55
40	0	0	2358	9	2790	54
41	0	0	2397	8	2786	52
42	0	0	2393	6	2784	52
43	0	0	2269	7	2784	53
44	0	0	2139	9	2785	52
45	0	0	2014	6	2785	54
46	0	0	1869	3	2790	52
47	0	0	1777	7	2791	54
48	0	0	1739	11	2791	53
49	0	0	1738	11	2791	53
50	0	0	1760	10	2789	55
51	0	0	1777	8	2785	53
52	0	0	1814	11	2783	54
53	0	0	1921	11	2784	53
54	0	0	2019	10	2786	53
55	0	0	2100	10	2787	54
56	0	0	2184	9	2790	54
57	0	0	2268	10	2791	54
58	0	0	2337	11	2792	54
59	0	0	2364	9	2791	54
60	0	0	2355	9	2790	55
61	0	0	2392	10	2786	53
62	0	0	2391	7	2783	54
63	0	0	2264	6	2783	54
64	0	0	2137	6	2785	51
65	0	0	2013	6	2788	53
66	0	0	1867	4	2789	54
67	0	0	1778	7	2790	54
68	0	0	1742	11	2790	53
69	0	0	1740	11	2791	51
70	0	0	1753	10	2788	54
71	0	0	1769	10	2785	52
72	0	0	1802	10	2783	54
73	0	0	1905	10	2783	55
74	0	0	2008	10	2784	53
75	0	0	2092	9	2786	54
76	0	0	2183	10	2790	53
77	0	0	2268	11	2791	54
78	0	0	2329	10	2793	54
79	0	0	2360	11	2791	55
80	0	0	2360	8	2788	54
81	0	0	2390	10	2786	54
82	0	0	2390	7	2783	54
83	0	0	2266	7	2783	55
84	0	0	2139	8	2784	51
85	0	0	2013	6	2787	54
86	0	0	1870	6	2789	53
87	0	0	1780	7	2791	52
88	0	0	1742	7	2791	54
89	0	0	1739	12	2791	54
90	0	0	1757	9	2789	55
91	0	0	1778	8	2786	53
92	0	0	1813	10	2784	54
93	0	0	1917	10	2784	53
94	0	0	2026	10	2785	51
95	0	0	2107	12	2788	53
96	0	0	2191	10	2790	53
97	0	0	2273	10	2791	54
98	0	0	2335	11	2792	54
99	0	0	2363	12	2791	52
100	0	0	2356	9	2788	54
101	0	0	2390	10	2786	54
102	0	0	2392	3	2784	55
103	0	0	2268	7	2784	52
104	0	0	2139	8	2785	52
105	0	0	2015	7	2788	54
106	0	0	1870	7	2791	53
107	0	0	1775	7	2791	52
108	0	0	1740	5	2793	53
109	0	0	1740	10	2792	52
110	0	0	1754	14	2790	53
111	0	0	1774	8	2786	54
112	0	0	1802	10	2784	54
113	0	0	1907	7	2783	54
114	0	0	2014	10	2785	53
115	0	0	2098	10	2787	36
116	0	0	2183	10	2789	54
117	0	0	2268	10	2791	54
118	0	0	2331	9	2793	54
119	0	0	2360	10	2792	55
120	0	0	2351	8	2790	54
121	0	0	2380	10	2786	54
122	0	0	2380	7	2783	54
123	0	0	2257	7	2783	54
124	0	0	2125	10	2785	52
125	0	0	2006	6	2787	54
126	0	0	1861	8	2789	53
127	0	0	1767	7	2791	54
0	0	0	1733	8	2791	54
1	0	0	1732	10	2790	54
2	0	0	1752	9	2788	53
3	0	0	1769	9	2785	54
4	0	0	1797	10	2782	54
5	0	0	1902	10	2782	54
6	0	0	2009	10	2784	54
7	0	0	2087	11	2786	53
8	0	0	2170	13	2788	54
9	0	0	2256	10	2789	54
10	0	0	2324	11	2791	53
11	0	0	2351	10	2790	55
12	0	0	2343	8	2788	53
13	0	0	2372	11	2784	52
14	0	0	2376	12	2782	54
15	0	0	2249	7	2782	54
16	0	0	2118	7	2784	55
17	0	0	1996	6	2786	53
18	0	0	1848	6	2789	54
19	0	0	1753	7	2789	53
20	0	0	1709	8	2790	54
21	0	0	1708	10	2790	52
22	0	0	1724	10	2788	53
23	0	0	1738	7	2783	53
24	0	0	1772	10	2783	54
25	0	0	1882	11	2782	54
26	0	0	1988	11	2784	53
27	0	0	2079	11	2787	53
28	0	0	2168	11	2788	54
29	0	0	2252	10	2791	54
30	0	0	2314	10	2791	54
31	0	0	2347	10	2791	53
32	0	0	2339	8	2789	53
33	0	0	2375	11	2784	53
34	0	0	2382	7	2783	54
35	0	0	2255	6	2782	54
36	0	0	2119	7	2783	54
37	0	0	2003	7	2786	52
38	0	0	1851	8	2788	55
39	0	0	1756	8	2789	53
40	0	0	1717	10	2790	53
41	0	0	1714	11	2790	53
42	0	0	1737	10	2789	53
43	0	0	1755	9	2784	53
44	0	0	1790	10	2784	53
45	0	0	1895	10	2783	54
46	0	0	2008	14	2784	53
47	0	0	2093	10	2786	51
48	0	0	2177	11	2790	54
49	0	0	2256	11	2790	53
50	0	0	2323	10	2791	55
51	0	0	2353	14	2790	52
52	0	0	2353	9	2789	52
53	0	0	2386	10	2784	54
54	0	0	2388	7	2782	55
55	0	0	2264	7	2782	55
56	0	0	2127	7	2784	53
57	0	0	2005	7	2787	53
58	0	0	1850	6	2788	54
59	0	0	1749	7	2790	54
60	0	0	1713	8	2791	53
61	0	0	1710	7	2790	53
62	0	0	1728	11	2789	54
63	0	0	1743	9	2785	53
64	0	0	1771	11	2782	54
65	0	0	1886	10	2783	55
66	0	0	1993	14	2783	52
67	0	0	2078	10	2786	53
68	0	0	2166	10	2788	53
69	0	0	2258	11	2790	54
70	0	0	2319	10	2790	54
71	0	0	2349	10	2790	50
72	0	0	2340	8	2789	52
73	0	0	2372	11	2783	54
74	0	0	2384	7	2782	54
75	0	0	2263	6	2782	54
76	0	0	2130	7	2784	53
77	0	0	2011	7	2786	53
78	0	0	1855	5	2787	52
79	0	0	1753	6	2789	54
80	0	0	1716	8	2790	54
81	0	0	1713	7	2790	53
82	0	0	1733	10	2789	52
83	0	0	1757	10	2783	54
84	0	0	1792	10	2781	54
85	0	0	1902	10	2781	54
86	0	0	2006	7	2784	53
87	0	0	2093	10	2785	52
88	0	0	2175	11	2787	54
89	0	0	2267	10	2790	54
90	0	0	2329	11	2790	54
91	0	0	2358	10	2790	54
92	0	0	2355	8	2788	53
93	0	0	2384	12	2783	53
94	0	0	2391	7	2782	54
95	0	0	2266	3	2782	54
96	0	0	2124	6	2783	55
97	0	0	2001	7	2786	54
98	0	0	1845	7	2788	54
99	0	0	1752	8	2789	54
100	0	0	1714	7	2790	53
101	0	0	1715	11	2789	54
102	0	0	1731	10	2787	51
103	0	0	1743	8	2783	55
104	0	0	1775	10	2781	55
105	0	0	1880	10	2781	54
106	0	0	1987	9	2783	53
107	0	0	2075	11	2785	51
108	0	0	2170	10	2788	53
109	0	0	2263	11	2789	53
110	0	0	2341	11	2791	54
111	0	0	2371	11	2790	53
112	0	0	2355	8	2788	53
113	0	0	2387	11	2784	54
114	0	0	2399	7	2782	55
115	0	0	2276	6	2787	52
116	0	0	2138	7	2784	54
117	0	0	2010	4	2786	53
118	0	0	1854	7	2788	54
119	0	0	1758	7	2789	54
120	0	0	1719	7	2790	54
121	0	0	1716	8	2790	52
122	0	0	1734	10	2787	55
123	0	0	1746	10	2783	55
124	0	0	1778	10	2782	54
125	0	0	1889	12	2781	54
126	0	0	2000	10	2784	53
127	0	0	2091	11	2787	53
0	0	0	2184	10	2789	53
1	0	0	2279	10	2790	54
2	0	0	2346	11	2790	52
3	0	0	2379	11	2790	53
4	0	0	2376	10	2788	53
5	0	0	2401	10	2785	53
6	0	0	2411	7	2781	54
7	0	0	2286	8	2782	54
8	0	0	2144	4	2783	53
9	0	0	2015	7	2785	52
10	0	0	1861	7	2788	53
11	0	0	1751	7	2789	54
12	0	0	1708	8	2789	55
13	0	0	1704	9	2790	53
14	0	0	1724	8	2788	53
15	0	0	1746	9	2784	56
16	0	0	1777	10	2781	54
17	0	0	1884	11	2781	53
18	0	0	1999	8	2783	53
19	0	0	2085	10	2785	52
20	0	0	2170	9	2787	53
21	0	0	2264	10	2789	55
22	0	0	2335	10	2790	55
23	0	0	2366	9	2790	52
24	0	0	2363	10	2787	55
25	0	0	2397	13	2783	55
26	0	0	2412	7	2781	53
27	0	0	2284	8	2781	54
28	0	0	2146	6	2783	53
29	0	0	2015	4	2784	53
30	0	0	1858	5	2787	53
31	0	0	1757	7	2788	51
32	0	0	1714	8	2789	53
33	0	0	1709	9	2789	55
34	0	0	1726	10	2787	53
35	0	0	1747	10	2784	53
36	0	0	1776	10	2780	54
37	0	0	1886	11	2781	54
38	0	0	2001	10	2782	54
39	0	0	2085	11	2784	55
40	0	0	2174	10	2787	53
41	0	0	2262	10	2789	53
42	0	0	2327	11	2789	55
43	0	0	2356	11	2788	54
44	0	0	2355	8	2787	51
45	0	0	2375	11	2783	53
46	0	0	2389	8	2780	52
47	0	0	2265	7	2780	55
48	0	0	2128	7	2782	54
49	0	0	2002	7	2784	55
50	0	0	1846	7	2787	54
51	0	0	1746	7	2788	54
52	0	0	1708	8	2789	53
53	0	0	1700	10	2789	54
54	0	0	1717	10	2786	55
55	0	0	1735	10	2784	51
56	0	0	1772	11	2780	53
57	0	0	1882	11	2780	53
58	0	0	1996	10	2782	54
59	0	0	2090	10	2785	53
60	0	0	2178	11	2787	54
61	0	0	2269	10	2789	53
62	0	0	2337	12	2789	53
63	0	0	2359	11	2789	54
64	0	0	2355	10	2787	53
65	0	0	2387	10	2782	54
66	0	0	2399	7	2781	55
67	0	0	2276	8	2781	55
68	0	0	2141	7	2782	55
69	0	0	2019	6	2785	53
70	0	0	1858	6	2787	52
71	0	0	1755	6	2788	54
72	0	0	1719	8	2789	54
73	0	0	1716	10	2789	55
74	0	0	1727	12	2786	55
75	0	0	1747	8	2782	55
76	0	0	1779	10	2780	52
77	0	0	1887	11	2780	53
78	0	0	2003	10	2782	54
79	0	0	2080	9	2784	53
80	0	0	2172	14	2785	54
81	0	0	2259	10	2787	53
82	0	0	2322	10	2789	53
83	0	0	2340	10	2788	55
84	0	0	2334	9	2786	54
85	0	0	2357	11	2783	54
86	0	0	2373	7	2779	54
87	0	0	2251	7	2781	54
88	0	0	2112	6	2781	55
89	0	0	1988	6	2784	53
90	0	0	1834	6	2786	54
91	0	0	1731	7	2787	54
92	0	0	1691	7	2790	54
93	0	0	1693	12	2788	57
94	0	0	1708	10	2786	51
95	0	0	1728	8	2782	53
96	0	0	1749	10	2780	54
97	0	0	1848	11	2780	53
98	0	0	1956	9	2782	51
99	0	0	2032	10	2783	52
100	0	0	2118	11	2786	53
101	0	0	2198	10	2787	53
102	0	0	2259	7	2789	54
103	0	0	2284	11	2789	51
104	0	0	2281	8	2787	53
105	0	0	2309	10	2782	53
106	0	0	2325	7	2783	55
107	0	0	2204	8	2779	54
108	0	0	2066	7	2781	53
109	0	0	1950	6	2783	52
110	0	0	1803	7	2784	53
111	0	0	1710	7	2787	54
112	0	0	1675	8	2787	54
113	0	0	1674	11	2786	55
114	0	0	1696	10	2785	53
115	0	0	1720	12	2781	55
116	0	0	1751	10	2780	53
117	0	0	1850	11	2780	54
118	0	0	1952	10	2781	54
119	0	0	2036	11	2783	54
120	0	0	2125	11	2785	53
121	0	0	2206	9	2787	53
122	0	0	2272	11	2788	53
123	0	0	2301	10	2787	55
124	0	0	2299	10	2786	51
125	0	0	2323	10	2780	53
126	0	0	2341	7	2779	54
127	0	0	2231	5	2780	54
0	0	0	2103	6	2781	52
1	0	0	1991	7	2783	56
2	0	0	1847	7	2785	53
3	0	0	1757	7	2787	54
4	0	0	1724	8	2788	54
5	0	0	1730	11	2788	54
6	0	0	1751	10	2786	52
7	0	0	1780	11	2781	53
8	0	0	1807	11	2779	54
9	0	0	1908	10	2780	54
10	0	0	2010	10	2780	55
11	0	0	2093	9	2783	51
12	0	0	2165	9	2786	54
13	0	0	2239	11	2787	53
14	0	0	2291	7	2789	54
15	0	0	2317	10	2788	55
16	0	0	2315	8	2786	52
17	0	0	2335	11	2782	54
18	0	0	2348	7	2779	53
19	0	0	2241	6	2779	54
20	0	0	2115	7	2780	53
21	0	0	2007	5	2783	50
22	0	0	1873	6	2785	52
23	0	0	1782	6	2787	54
24	0	0	1752	8	2789	54
25	0	0	1752	10	2788	54
26	0	0	1773	11	2786	52
27	0	0	1800	10	2782	53
28	0	0	1826	10	2780	54
29	0	0	1923	7	2780	53
30	0	0	2023	12	2780	54
31	0	0	2100	11	2783	52
32	0	0	2185	12	2786	53
33	0	0	2265	9	2786	54
34	0	0	2326	10	2787	55
35	0	0	2355	12	2787	54
36	0	0	2349	9	2786	53
37	0	0	2375	10	2781	53
38	0	0	2387	7	2779	54
39	0	0	2275	12	2778	55
40	0	0	2142	5	2781	54
41	0	0	2035	6	2783	52
42	0	0	1895	7	2784	53
43	0	0	1803	7	2787	54
44	0	0	1773	11	2786	54
45	0	0	1778	10	2786	53
46	0	0	1789	11	2785	56
47	0	0	1817	10	2780	53
48	0	0	1842	10	2777	53
49	0	0	1934	10	2778	53
50	0	0	2036	11	2780	54
51	0	0	2118	10	2782	56
52	0	0	2206	10	2784	53
53	0	0	2290	11	2786	53
54	0	0	2352	7	2787	52
55	0	0	2378	10	2785	53
56	0	0	2373	9	2785	55
57	0	0	2391	11	2780	52
58	0	0	2412	7	2778	53
59	0	0	2298	4	2779	52
60	0	0	2164	8	2780	54
61	0	0	2048	6	2782	56
62	0	0	1904	6	2783	55
63	0	0	1812	7	2785	53
64	0	0	1775	14	2785	55
65	0	0	1769	9	2786	54
66	0	0	1787	10	2784	55
67	0	0	1811	10	2780	53
68	0	0	1835	10	2773	55
69	0	0	1933	10	2777	54
70	0	0	2039	13	2779	53
71	0	0	2120	10	2781	54
72	0	0	2201	10	2783	53
73	0	0	2281	10	2785	56
74	0	0	2346	8	2787	52
75	0	0	2373	9	2786	54
76	0	0	2371	10	2784	55
77	0	0	2389	11	2779	53
78	0	0	2408	7	2777	53
79	0	0	2296	4	2778	53
80	0	0	2171	10	2779	54
81	0	0	2059	7	2781	55
82	0	0	1914	6	2782	53
83	0	0	1824	7	2784	53
84	0	0	1786	8	2786	53
85	0	0	1786	10	2786	51
86	0	0	1801	10	2784	55
87	0	0	1823	10	2779	53
88	0	0	1846	11	2777	53
89	0	0	1949	14	2776	55
90	0	0	2052	13	2779	54
91	0	0	2127	11	2781	54
92	0	0	2208	11	2782	54
93	0	0	2290	10	2784	53
94	0	0	2351	10	2786	53
95	0	0	2381	8	2785	57
96	0	0	2378	8	2783	55
97	0	0	2394	10	2774	53
98	0	0	2410	7	2776	53
99	0	0	2296	13	2775	55
100	0	0	2162	6	2777	54
101	0	0	2049	7	2780	55
102	0	0	1902	5	2781	54
103	0	0	1814	4	2784	53
104	0	0	1776	11	2783	54
105	0	0	1774	13	2785	53
106	0	0	1786	10	2782	58
107	0	0	1812	9	2779	53
108	0	0	1838	10	2776	54
109	0	0	1940	11	2776	51
110	0	0	2046	11	2777	54
111	0	0	2124	10	2780	51
112	0	0	2205	11	2781	54
113	0	0	2290	10	2784	53
114	0	0	2351	11	2784	55
115	0	0	2382	12	2784	54
116	0	0	2377	7	2781	58
117	0	0	2391	11	2777	53
118	0	0	2414	7	2775	54
119	0	0	2301	7	2776	53
120	0	0	2177	5	2777	58
121	0	0	2066	6	2779	55
122	0	0	1918	7	2780	53
123	0	0	1824	7	2782	54
124	0	0	1795	9	2783	53
125	0	0	1796	11	2784	54
126	0	0	1811	10	2781	51
127	0	0	1833	10	2777	53
0	0	0	1851	10	2775	53
1	0	0	1941	11	2774	53
2	0	0	2045	13	2776	54
3	0	0	2128	8	2777	53
4	0	0	2208	11	2779	53
5	0	0	2283	10	2781	53
6	0	0	2342	10	2782	55
7	0	0	2369	12	2782	54
8	0	0	2361	9	2780	55
9	0	0	2368	11	2776	53
10	0	0	2388	9	2774	53
11	0	0	2266	7	2773	53
12	0	0	2139	6	2776	53
13	0	0	2037	5	2777	51
14	0	0	1892	8	2780	53
15	0	0	1796	7	2782	55
16	0	0	1761	8	2781	54
17	0	0	1760	10	2781	55
18	0	0	1779	10	2780	55
19	0	0	1803	11	2776	53
20	0	0	1829	11	2773	54
21	0	0	1930	11	2773	53
22	0	0	2036	12	2775	52
23	0	0	2112	8	2776	51
24	0	0	2198	12	2778	54
25	0	0	2278	11	2779	53
26	0	0	2339	12	2781	54
27	0	0	2367	10	2781	55
28	0	0	2366	8	2780	53
29	0	0	2380	12	2775	52
30	0	0	2404	8	2772	54
31	0	0	2294	8	2773	53
32	0	0	2164	8	2775	52
33	0	0	2053	6	2777	51
34	0	0	1909	7	2779	52
35	0	0	1815	7	2780	55
36	0	0	1782	7	2781	54
37	0	0	1784	6	2781	54
38	0	0	1803	10	2780	52
39	0	0	1831	8	2774	51
40	0	0	1854	11	2774	53
41	0	0	1951	11	2773	51
42	0	0	2061	9	2774	53
43	0	0	2138	10	2777	53
44	0	0	2213	10	2779	54
45	0	0	2284	10	2781	54
46	0	0	2344	10	2782	55
47	0	0	2375	11	2780	55
48	0	0	2378	11	2780	53
49	0	0	2399	11	2775	53
50	0	0	2425	9	2773	53
51	0	0	2311	7	2772	55
52	0	0	2182	6	2773	55
53	0	0	2078	6	2776	53
54	0	0	1940	7	2779	53
55	0	0	1847	7	2779	54
56	0	0	1814	8	2780	55
57	0	0	1821	9	2779	55
58	0	0	1831	8	2778	51
59	0	0	1862	10	2775	55
60	0	0	1883	11	2772	53
61	0	0	1971	10	2773	53
62	0	0	2072	10	2774	55
63	0	0	2143	8	2776	53
64	0	0	2221	10	2779	54
65	0	0	2294	9	2779	54
66	0	0	2355	10	2780	56
67	0	0	2383	8	2780	53
68	0	0	2376	8	2778	53
69	0	0	2386	10	2775	53
70	0	0	2402	8	2772	53
71	0	0	2284	8	2772	53
72	0	0	2153	6	2772	53
73	0	0	2037	7	2775	50
74	0	0	1886	7	2777	53
75	0	0	1781	7	2780	54
76	0	0	1736	6	2779	53
77	0	0	1714	5	2779	54
78	0	0	1717	11	2778	53
79	0	0	1727	9	2774	56
80	0	0	1743	11	2772	53
81	0	0	1827	11	2771	55
82	0	0	1930	10	2773	51
83	0	0	2002	9	2775	54
84	0	0	2094	8	2777	53
85	0	0	2174	11	2778	53
86	0	0	2241	11	2779	55
87	0	0	2278	10	2778	55
88	0	0	2282	12	2781	56
89	0	0	2303	11	2773	51
90	0	0	2327	8	2771	53
91	0	0	2229	7	2772	54
92	0	0	2109	7	2774	53
93	0	0	2008	7	2775	55
94	0	0	1874	6	2778	54
95	0	0	1783	8	2779	54
96	0	0	1748	7	2780	58
97	0	0	1751	7	2780	53
98	0	0	1770	10	2778	53
99	0	0	1801	7	2774	52
100	0	0	1826	10	2772	53
101	0	0	1917	12	2772	53
102	0	0	2021	10	2773	51
103	0	0	2095	11	2775	52
104	0	0	2181	10	2777	53
105	0	0	2257	11	2780	53
106	0	0	2320	12	2781	54
107	0	0	2353	7	2780	53
108	0	0	2356	10	2778	54
109	0	0	2378	11	2775	53
110	0	0	2408	9	2772	55
111	0	0	2311	7	2773	56
112	0	0	2185	6	2774	53
113	0	0	2071	7	2776	56
114	0	0	1923	7	2778	54
115	0	0	1825	8	2780	54
116	0	0	1781	8	2780	54
117	0	0	1775	9	2781	53
118	0	0	1784	12	2779	56
119	0	0	1801	11	2774	52
120	0	0	1820	10	2772	53
121	0	0	1901	10	2772	53
122	0	0	1996	7	2774	53
123	0	0	2065	12	2777	53
124	0	0	2141	10	2778	52
125	0	0	2213	11	2781	54
126	0	0	2271	12	2781	54
127	0	0	2295	7	2780	54
0	0	0	2290	9	2779	55
1	0	0	2297	10	2775	56
2	0	0	2315	8	2773	52
3	0	0	2213	7	2774	51
4	0	0	2095	5	2775	52
5	0	0	1993	6	2776	56
6	0	0	1858	7	2777	54
7	0	0	1773	7	2779	55
8	0	0	1740	6	2780	54
9	0	0	1738	11	2780	54
10	0	0	1750	10	2779	54
11	0	0	1772	10	2774	52
12	0	0	1787	12	2772	53
13	0	0	1878	11	2773	52
14	0	0	1979	11	2774	53
15	0	0	2050	11	2776	53
16	0	0	2129	11	2778	54
17	0	0	2198	10	2780	54
18	0	0	2258	10	2780	54
19	0	0	2284	9	2780	55
20	0	0	2282	11	2779	56
21	0	0	2290	11	2774	53
22	0	0	2311	7	2772	53
23	0	0	2212	6	2772	53
24	0	0	2090	7	2773	51
25	0	0	1994	7	2776	55
26	0	0	1856	7	2777	54
27	0	0	1770	6	2780	54
28	0	0	1735	4	2781	52
29	0	0	1733	8	2780	54
30	0	0	1743	11	2778	51
31	0	0	1763	9	2774	55
32	0	0	1775	10	2772	53
33	0	0	1861	11	2773	50
34	0	0	1957	10	2774	51
35	0	0	2027	11	2776	55
36	0	0	2100	10	2778	56
37	0	0	2178	10	2780	53
38	0	0	2235	10	2781	54
39	0	0	2257	12	2780	56
40	0	0	2256	10	2779	55
41	0	0	2261	10	2776	53
42	0	0	2276	7	2772	53
43	0	0	2176	7	2772	53
44	0	0	2049	5	2774	54
45	0	0	1947	7	2777	53
46	0	0	1820	7	2778	55
47	0	0	1735	8	2780	54
48	0	0	1701	8	2781	52
49	0	0	1690	10	2781	56
50	0	0	1699	9	2779	54
51	0	0	1720	9	2776	55
52	0	0	1735	10	2773	52
53	0	0	1821	10	2774	52
54	0	0	1913	12	2775	56
55	0	0	1983	9	2777	56
56	0	0	2045	14	2778	55
57	0	0	2120	11	2780	54
58	0	0	2172	11	2782	56
59	0	0	2194	10	2782	53
60	0	0	2186	8	2780	55
61	0	0	2190	11	2776	53
62	0	0	2219	8	2773	53
63	0	0	2130	6	2773	54
64	0	0	2013	4	2774	55
65	0	0	1927	7	2777	53
66	0	0	1803	4	2779	55
67	0	0	1711	7	2781	54
68	0	0	1679	7	2782	54
69	0	0	1681	11	2782	52
70	0	0	1699	10	2780	55
71	0	0	1734	10	2776	55
72	0	0	1753	9	2773	53
73	0	0	1849	11	2774	53
74	0	0	1948	12	2775	56
75	0	0	2018	11	2777	55
76	0	0	2087	11	2779	54
77	0	0	2157	11	2781	54
78	0	0	2218	11	2782	54
79	0	0	2242	12	2781	56
80	0	0	2247	12	2780	55
81	0	0	2262	10	2776	55
82	0	0	2303	10	2774	53
83	0	0	2224	8	2774	53
84	0	0	2112	8	2776	56
85	0	0	2019	7	2778	55
86	0	0	1892	8	2779	55
87	0	0	1810	7	2781	54
88	0	0	1779	7	2782	54
89	0	0	1774	12	2781	56
90	0	0	1787	11	2780	55
91	0	0	1810	8	2776	53
92	0	0	1828	11	2773	52
93	0	0	1915	11	2773	53
94	0	0	2007	12	2775	56
95	0	0	2081	8	2777	55
96	0	0	2148	13	2779	55
97	0	0	2213	10	2781	53
98	0	0	2271	11	2782	54
99	0	0	2303	12	2782	56
100	0	0	2302	8	2780	54
101	0	0	2308	11	2776	51
102	0	0	2345	10	2775	54
103	0	0	2257	7	2774	53
104	0	0	2152	3	2775	53
105	0	0	2064	7	2777	53
106	0	0	1944	6	2779	55
107	0	0	1867	7	2781	54
108	0	0	1845	9	2782	53
109	0	0	1859	11	2782	53
110	0	0	1883	11	2780	53
111	0	0	1908	9	2777	53
112	0	0	1918	7	2773	53
113	0	0	1996	11	2773	53
114	0	0	2089	10	2776	54
115	0	0	2148	10	2778	53
116	0	0	2220	10	2781	53
117	0	0	2289	14	2781	53
118	0	0	2350	10	2783	51
119	0	0	2389	8	2783	54
120	0	0	2403	8	2781	54
121	0	0	2410	12	2776	52
122	0	0	2430	9	2774	53
123	0	0	2327	8	2774	54
124	0	0	2199	10	2775	52
125	0	0	2090	5	2777	52
126	0	0	1952	8	2779	53
127	0	0	1857	8	2781	54
0	0	0	1821	8	2782	54
1	0	0	1821	10	2782	55
2	0	0	1836	10	2781	53
3	0	0	1865	11	2777	52
4	0	0	1880	11	2775	53
5	0	0	1962	8	2775	53
6	0	0	2056	12	2776	53
7	0	0	2121	11	2779	55
8	0	0	2196	10	2780	53
9	0	0	2267	7	2782	54
10	0	0	2318	11	2783	55
11	0	0	2353	11	2783	53
12	0	0	2349	9	2781	54
13	0	0	2352	11	2777	52
14	0	0	2380	9	2774	53
15	0	0	2288	8	2774	54
16	0	0	2174	6	2776	55
17	0	0	2081	5	2778	55
18	0	0	1956	7	2781	55
19	0	0	1871	8	2782	54
20	0	0	1843	9	2783	54
21	0	0	1850	14	2783	54
22	0	0	1868	11	2781	51
23	0	0	1896	10	2777	50
24	0	0	1913	9	2775	53
25	0	0	1990	10	2774	55
26	0	0	2089	10	2776	55
27	0	0	2157	11	2778	53
28	0	0	2234	11	2780	52
29	0	0	2300	11	2782	54
30	0	0	2348	11	2782	51
31	0	0	2370	10	2782	55
32	0	0	2362	9	2781	56
33	0	0	2362	11	2777	52
34	0	0	2388	9	2774	53
35	0	0	2299	6	2775	52
36	0	0	2191	7	2777	53
37	0	0	2101	5	2777	50
38	0	0	1978	7	2781	54
39	0	0	1896	6	2782	54
40	0	0	1865	7	2782	53
41	0	0	1863	11	2783	52
42	0	0	1885	10	2781	54
43	0	0	1908	12	2776	52
44	0	0	1922	10	2774	54
45	0	0	2004	10	2774	53
46	0	0	2105	9	2775	55
47	0	0	2170	8	2778	55
48	0	0	2248	11	2779	52
49	0	0	2322	9	2782	54
50	0	0	2381	12	2783	51
51	0	0	2408	11	2782	52
52	0	0	2402	8	2781	54
53	0	0	2403	10	2778	53
54	0	0	2430	10	2774	53
55	0	0	2342	7	2774	53
56	0	0	2229	7	2776	52
57	0	0	2136	6	2778	55
58	0	0	2013	7	2780	52
59	0	0	1936	8	2782	54
60	0	0	1907	8	2782	55
61	0	0	1908	11	2782	52
62	0	0	1921	8	2781	55
63	0	0	1948	9	2776	50
64	0	0	1963	11	2774	53
65	0	0	2044	8	2774	53
66	0	0	2143	11	2776	54
67	0	0	2210	11	2778	53
68	0	0	2283	10	2780	54
69	0	0	2349	8	2782	54
70	0	0	2404	7	2783	53
71	0	0	2430	11	2782	54
72	0	0	2436	9	2781	54
73	0	0	2442	11	2777	52
74	0	0	2471	10	2774	52
75	0	0	2385	7	2775	53
76	0	0	2270	7	2776	52
77	0	0	2183	5	2779	55
78	0	0	2066	6	2780	55
79	0	0	1974	8	2781	53
80	0	0	1936	8	2784	54
81	0	0	1926	12	2783	54
82	0	0	1936	10	2782	53
83	0	0	1955	10	2777	52
84	0	0	1960	9	2774	53
85	0	0	2040	11	2774	51
86	0	0	2137	8	2776	53
87	0	0	2203	10	2778	54
88	0	0	2273	11	2780	54
89	0	0	2339	11	2781	53
90	0	0	2400	11	2783	51
91	0	0	2430	8	2783	54
92	0	0	2440	12	2782	53
93	0	0	2456	11	2777	54
94	0	0	2494	10	2774	52
95	0	0	2405	7	2775	53
96	0	0	2287	7	2777	53
97	0	0	2189	6	2778	54
98	0	0	2062	7	2781	54
99	0	0	1967	7	2782	54
100	0	0	1932	8	2783	53
101	0	0	1938	9	2783	54
102	0	0	1964	10	2782	54
103	0	0	1990	10	2776	56
104	0	0	1985	8	2775	54
105	0	0	2044	11	2774	52
106	0	0	2119	11	2776	56
107	0	0	2168	10	2778	54
108	0	0	2226	11	2780	55
109	0	0	2284	10	2782	54
110	0	0	2336	10	2783	52
111	0	0	2361	8	2782	54
112	0	0	2357	11	2781	53
113	0	0	2363	11	2777	55
114	0	0	2394	8	2773	52
115	0	0	2298	7	2775	52
116	0	0	2176	5	2776	54
117	0	0	2078	8	2778	54
118	0	0	1944	6	2780	53
119	0	0	1845	7	2782	55
120	0	0	1803	7	2782	54
121	0	0	1790	8	2783	54
122	0	0	1792	11	2781	54
123	0	0	1806	9	2777	55
124	0	0	1816	9	2774	53
125	0	0	1896	11	2775	52
126	0	0	1986	12	2776	55
127	0	0	2054	11	2778	55
0	0	0	2127	11	2779	55
1	0	0	2192	11	2782	54
2	0	0	2242	11	2783	52
3	0	0	2267	12	2782	55
4	0	0	2269	10	2781	54
5	0	0	2276	11	2778	54
6	0	0	2312	9	2774	53
7	0	0	2222	7	2774	52
8	0	0	2103	9	2775	53
9	0	0	2012	8	2777	54
10	0	0	1885	7	2779	54
11	0	0	1797	7	2782	54
12	0	0	1755	7	2783	52
13	0	0	1746	7	2783	54
14	0	0	1756	11	2781	55
15	0	0	1782	11	2777	51
16	0	0	1792	11	2774	53
17	0	0	1876	10	2775	52
18	0	0	1970	8	2776	53
19	0	0	2042	11	2777	54
20	0	0	2113	11	2779	55
21	0	0	2180	11	2787	52
22	0	0	2243	10	2782	54
23	0	0	2272	12	2782	55
24	0	0	2273	9	2781	55
25	0	0	2274	10	2777	51
26	0	0	2309	10	2774	54
27	0	0	2224	7	2774	54
28	0	0	2106	7	2776	53
29	0	0	2010	7	2779	53
30	0	0	1877	7	2780	55
31	0	0	1788	5	2783	54
32	0	0	1751	8	2782	55
33	0	0	1743	8	2783	55
34	0	0	1750	10	2781	54
35	0	0	1780	11	2777	52
36	0	0	1789	11	2774	55
37	0	0	1869	7	2774	53
38	0	0	1966	12	2775	53
39	0	0	2034	8	2778	54
40	0	0	2118	7	2779	51
41	0	0	2190	11	2782	54
42	0	0	2249	9	2783	54
43	0	0	2281	8	2783	55
44	0	0	2280	10	2781	54
45	0	0	2278	12	2775	49
46	0	0	2318	11	2774	56
47	0	0	2236	7	2774	53
48	0	0	2119	8	2775	53
49	0	0	2018	6	2778	54
50	0	0	1886	6	2779	51
51	0	0	1789	7	2781	54
52	0	0	1751	5	2782	55
53	0	0	1745	12	2782	53
54	0	0	1754	11	2781	54
55	0	0	1781	10	2777	53
56	0	0	1788	11	2774	53
57	0	0	1864	10	2774	54
58	0	0	1965	10	2776	53
59	0	0	2037	8	2777	53
60	0	0	2118	11	2780	53
61	0	0	2182	11	2782	55
62	0	0	2244	10	2783	53
63	0	0	2275	11	2783	54
64	0	0	2278	10	2781	53
65	0	0	2279	11	2777	52
66	0	0	2313	11	2774	53
67	0	0	2219	4	2774	54
68	0	0	2105	7	2775	51
69	0	0	2012	6	2777	54
70	0	0	1882	8	2779	52
71	0	0	1788	6	2782	54
72	0	0	1751	9	2782	52
73	0	0	1746	13	2781	52
74	0	0	1754	8	2781	54
75	0	0	1778	10	2777	51
76	0	0	1780	10	2774	52
77	0	0	1858	12	2774	53
78	0	0	1960	11	2775	51
79	0	0	2030	10	2778	53
80	0	0	2102	11	2779	52
81	0	0	2167	11	2781	54
82	0	0	2224	8	2783	54
83	0	0	2258	11	2781	53
84	0	0	2261	10	2781	54
85	0	0	2270	10	2776	49
86	0	0	2312	12	2775	53
87	0	0	2225	10	2774	52
88	0	0	2103	7	2775	51
89	0	0	2011	7	2777	54
90	0	0	1886	7	2779	55
91	0	0	1798	7	2781	53
92	0	0	1758	7	2783	58
93	0	0	1753	14	2782	52
94	0	0	1764	8	2781	54
95	0	0	1785	10	2776	48
96	0	0	1790	10	2775	53
97	0	0	1866	8	2775	53
98	0	0	1969	14	2775	52
99	0	0	2038	8	2778	54
100	0	0	2119	10	2781	56
101	0	0	2191	10	2781	53
102	0	0	2252	11	2783	53
103	0	0	2285	11	2783	54
104	0	0	2286	9	2781	54
105	0	0	2281	10	2778	52
106	0	0	2316	9	2774	53
107	0	0	2231	7	2774	51
108	0	0	2118	7	2775	52
109	0	0	2020	5	2778	53
110	0	0	1890	6	2779	53
111	0	0	1790	8	2783	54
112	0	0	1747	7	2782	56
113	0	0	1743	12	2782	56
114	0	0	1755	10	2782	54
115	0	0	1781	10	2777	54
116	0	0	1787	10	2775	53
117	0	0	1871	9	2774	53
118	0	0	1976	14	2775	52
119	0	0	2045	11	2778	53
120	0	0	2126	10	2781	54
121	0	0	2191	11	2781	53
122	0	0	2240	9	2782	53
123	0	0	2266	9	2782	56
124	0	0	2270	12	2782	53
125	0	0	2274	10	2778	54
126	0	0	2338	10	2775	53
127	0	0	2256	11	2774	52
0	0	0	2123	6	2775	56
1	0	0	2014	7	2778	54
2	0	0	1868	6	2780	55
3	0	0	1760	7	2782	53
4	0	0	1716	7	2783	55
5	0	0	1708	14	2782	52
6	0	0	1722	15	2781	54
7	0	0	1748	10	2777	48
8	0	0	1756	10	2774	53
9	0	0	1839	14	2774	53
10	0	0	1955	11	2775	52
11	0	0	2037	10	2777	54
12	0	0	2129	11	2782	53
13	0	0	2211	11	2781	53
14	0	0	2281	11	2783	54
15	0	0	2318	10	2783	54
16	0	0	2316	15	2781	53
17	0	0	2306	10	2778	52
18	0	0	2351	11	2775	53
19	0	0	2253	8	2774	52
20	0	0	2115	7	2776	55
21	0	0	2003	7	2778	54
22	0	0	1858	6	2779	53
23	0	0	1753	7	2781	55
24	0	0	1708	7	2782	54
25	0	0	1696	9	2783	54
26	0	0	1704	13	2781	54
27	0	0	1739	10	2777	53
28	0	0	1749	10	2774	53
29	0	0	1843	12	2774	53
30	0	0	1959	11	2776	55
31	0	0	2041	15	2777	50
32	0	0	2133	11	2779	53
33	0	0	2210	9	2783	54
34	0	0	2282	11	2784	51
35	0	0	2317	11	2782	54
36	0	0	2323	10	2782	53
37	0	0	2319	10	2775	53
38	0	0	2368	9	2776	55
39	0	0	2271	7	2774	53
40	0	0	2136	5	2776	55
41	0	0	2026	9	2778	54
42	0	0	1874	6	2780	52
43	0	0	1766	7	2781	54
44	0	0	1720	11	2782	53
45	0	0	1713	11	2782	54
46	0	0	1728	11	2781	54
47	0	0	1762	10	2777	55
48	0	0	1770	10	2775	53
49	0	0	1860	14	2774	53
50	0	0	1970	10	2776	54
51	0	0	2051	12	2779	53
52	0	0	2140	10	2781	53
53	0	0	2218	7	2782	54
54	0	0	2287	10	2784	55
55	0	0	2325	15	2784	53
56	0	0	2320	15	2782	54
57	0	0	2320	11	2777	53
58	0	0	2372	7	2774	53
59	0	0	2270	11	2774	52
60	0	0	2132	7	2776	55
61	0	0	2017	6	2778	54
62	0	0	1864	8	2780	54
63	0	0	1753	7	2783	54
64	0	0	1703	6	2785	54
65	0	0	1695	10	2784	55
66	0	0	1707	13	2782	54
67	0	0	1742	10	2778	54
68	0	0	1754	11	2775	53
69	0	0	1841	11	2775	55
70	0	0	1959	11	2776	54
71	0	0	2038	8	2778	54
72	0	0	2125	10	2781	54
73	0	0	2211	10	2782	54
74	0	0	2282	12	2783	54
75	0	0	2320	10	2784	55
76	0	0	2323	10	2781	54
77	0	0	2316	13	2778	54
78	0	0	2367	8	2775	53
79	0	0	2271	6	2775	53
80	0	0	2131	6	2777	55
81	0	0	2021	5	2778	54
82	0	0	1869	7	2780	54
83	0	0	1761	7	2782	54
84	0	0	1715	8	2783	55
85	0	0	1709	12	2784	53
86	0	0	1720	10	2782	53
87	0	0	1751	10	2777	53
88	0	0	1757	11	2775	53
89	0	0	1847	11	2774	53
90	0	0	1963	10	2776	55
91	0	0	2043	12	2776	52
92	0	0	2131	11	2780	54
93	0	0	2212	8	2782	53
94	0	0	2282	11	2783	53
95	0	0	2319	8	2783	54
96	0	0	2321	10	2781	54
97	0	0	2313	11	2778	53
98	0	0	2358	10	2775	53
99	0	0	2264	8	2774	54
100	0	0	2129	6	2776	53
101	0	0	2024	6	2779	54
102	0	0	1871	7	2780	53
103	0	0	1761	7	2782	56
104	0	0	1717	11	2782	54
105	0	0	1710	11	2783	51
106	0	0	1723	10	2781	55
107	0	0	1752	10	2778	53
108	0	0	1768	11	2774	54
109	0	0	1860	9	2774	54
110	0	0	1974	10	2776	53
111	0	0	2053	13	2778	53
112	0	0	2135	15	2780	53
113	0	0	2222	11	2782	54
114	0	0	2296	11	2782	54
115	0	0	2336	11	2783	35
116	0	0	2345	12	2782	54
117	0	0	2334	8	2777	53
118	0	0	2381	10	2775	48
119	0	0	2282	7	2775	53
120	0	0	2138	7	2776	51
121	0	0	2027	8	2779	53
122	0	0	1879	7	2780	54
123	0	0	1769	7	2782	54
124	0	0	1718	8	2783	54
125	0	0	1710	7	2783	54
126	0	0	1720	10	2782	54
127	0	0	1753	10	2778	54
0	0	0	1765	10	2776	54
1	0	0	1858	11	2775	53
2	0	0	1973	9	2776	53
3	0	0	2055	11	2779	53
4	0	0	2142	10	2780	54
5	0	0	2219	9	2784	53
6	0	0	2287	12	2784	55
7	0	0	2324	11	2784	53
8	0	0	2322	10	2783	54
9	0	0	2309	11	2778	53
10	0	0	2357	11	2775	52
11	0	0	2264	8	2775	54
12	0	0	2128	6	2776	55
13	0	0	2018	8	2778	54
14	0	0	1872	7	2780	55
15	0	0	1765	7	2782	53
16	0	0	1720	6	2784	54
17	0	0	1710	11	2783	51
18	0	0	1720	10	2782	54
19	0	0	1755	10	2779	54
20	0	0	1773	10	2775	53
21	0	0	1863	10	2775	52
22	0	0	1978	8	2776	53
23	0	0	2060	11	2777	53
24	0	0	2146	11	2780	54
25	0	0	2232	9	2782	54
26	0	0	2298	10	2784	53
27	0	0	2335	11	2783	54
28	0	0	2338	12	2781	53
29	0	0	2321	10	2777	53
30	0	0	2369	8	2775	53
31	0	0	2275	6	2775	54
32	0	0	2137	8	2776	51
33	0	0	2029	7	2777	54
34	0	0	1879	7	2780	54
35	0	0	1770	6	2783	54
36	0	0	1721	8	2784	55
37	0	0	1712	11	2783	55
38	0	0	1726	10	2782	54
39	0	0	1759	10	2778	56
40	0	0	1771	10	2775	54
41	0	0	1859	9	2775	52
42	0	0	1975	10	2777	53
43	0	0	2057	7	2778	54
44	0	0	2150	10	2780	54
45	0	0	2227	10	2782	55
46	0	0	2289	11	2783	54
47	0	0	2328	10	2782	52
48	0	0	2337	13	2781	54
49	0	0	2334	11	2779	54
50	0	0	2380	12	2774	53
51	0	0	2289	5	2774	53
52	0	0	2149	6	2776	54
53	0	0	2041	7	2778	52
54	0	0	1891	6	2780	54
55	0	0	1780	8	2782	55
56	0	0	1735	6	2783	53
57	0	0	1727	11	2783	52
58	0	0	1740	11	2782	54
59	0	0	1780	10	2778	54
60	0	0	1790	11	2775	52
61	0	0	1878	7	2774	52
62	0	0	1996	10	2775	52
63	0	0	2072	12	2778	54
64	0	0	2152	11	2780	53
65	0	0	2230	10	2782	54
66	0	0	2304	10	2783	52
67	0	0	2342	11	2784	53
68	0	0	2344	7	2782	54
69	0	0	2336	11	2778	53
70	0	0	2385	14	2775	53
71	0	0	2292	7	2775	53
72	0	0	2155	6	2777	54
73	0	0	2043	7	2778	54
74	0	0	1891	7	2780	55
75	0	0	1779	6	2784	53
76	0	0	1732	7	2783	52
77	0	0	1718	9	2783	55
78	0	0	1734	7	2782	54
79	0	0	1768	10	2778	54
80	0	0	1780	10	2775	53
81	0	0	1862	14	2775	54
82	0	0	1972	10	2773	54
83	0	0	2053	7	2778	53
84	0	0	2142	10	2780	53
85	0	0	2225	10	2782	54
86	0	0	2294	11	2784	53
87	0	0	2336	10	2783	55
88	0	0	2342	9	2782	54
89	0	0	2330	11	2778	51
90	0	0	2380	10	2776	53
91	0	0	2284	7	2775	53
92	0	0	2141	5	2777	54
93	0	0	2030	7	2778	53
94	0	0	1883	6	2779	52
95	0	0	1774	7	2782	54
96	0	0	1727	9	2782	53
97	0	0	1719	10	2782	52
98	0	0	1729	8	2781	54
99	0	0	1760	11	2778	54
100	0	0	1772	10	2775	53
101	0	0	1857	10	2775	54
102	0	0	1973	10	2775	54
103	0	0	2055	11	2778	54
104	0	0	2145	10	2781	54
105	0	0	2222	11	2782	53
106	0	0	2288	10	2784	54
107	0	0	2323	11	2784	53
108	0	0	2328	8	2782	54
109	0	0	2315	10	2779	53
110	0	0	2362	10	2776	53
111	0	0	2272	7	2775	51
112	0	0	2138	6	2776	53
113	0	0	2031	3	2777	53
114	0	0	1884	6	2779	54
115	0	0	1779	10	2781	53
116	0	0	1731	9	2782	53
117	0	0	1722	11	2783	53
118	0	0	1736	8	2782	54
119	0	0	1771	10	2778	54
120	0	0	1784	11	2775	53
121	0	0	1874	12	2774	52
122	0	0	1986	11	2776	54
123	0	0	2069	8	2778	53
124	0	0	2155	10	2781	53
125	0	0	2231	11	2782	54
126	0	0	2306	11	2783	55
127	0	0	2347	7	2784	53
0	0	0	2350	12	2782	53
1	0	0	2338	10	2778	54
2	0	0	2387	14	2774	52
3	0	0	2299	8	2774	52
4	0	0	2156	7	2775	54
5	0	0	2043	4	2777	53
6	0	0	1891	6	2779	54
7	0	0	1784	7	2781	54
8	0	0	1737	6	2783	56
9	0	0	1727	9	2784	52
10	0	0	1740	10	2782	54
11	0	0	1774	10	2778	53
12	0	0	1790	11	2776	53
13	0	0	1877	10	2775	54
14	0	0	1991	11	2776	54
15	0	0	2070	10	2778	52
16	0	0	2157	10	2780	54
17	0	0	2235	9	2782	53
18	0	0	2305	8	2783	55
19	0	0	2348	11	2783	55
20	0	0	2355	11	2782	54
21	0	0	2340	11	2778	53
22	0	0	2395	7	2775	52
23	0	0	2302	6	2775	50
24	0	0	2159	7	2776	53
25	0	0	2050	6	2778	53
26	0	0	1900	6	2781	55
27	0	0	1786	8	2782	54
28	0	0	1735	8	2784	53
29	0	0	1719	9	2784	54
30	0	0	1732	8	2782	55
31	0	0	1773	12	2778	54
32	0	0	1784	11	2774	53
33	0	0	1871	9	2775	52
34	0	0	1983	11	2776	54
35	0	0	2070	10	2778	55
36	0	0	2153	11	2779	54
37	0	0	2227	8	2783	54
38	0	0	2301	11	2783	53
39	0	0	2348	11	2782	55
40	0	0	2356	10	2782	53
41	0	0	2346	10	2778	53
42	0	0	2396	9	2775	52
43	0	0	2309	4	2775	55
44	0	0	2168	7	2776	54
45	0	0	2054	6	2778	54
46	0	0	1903	7	2780	54
47	0	0	1791	5	2782	52
48	0	0	1741	7	2783	60
49	0	0	1730	10	2784	53
50	0	0	1741	8	2781	55
51	0	0	1778	12	2777	53
52	0	0	1791	11	2774	54
53	0	0	1874	10	2774	56
54	0	0	1989	8	2776	53
55	0	0	2070	11	2777	54
56	0	0	2157	11	2779	54
57	0	0	2235	7	2781	52
58	0	0	2308	11	2783	60
59	0	0	2351	12	2784	54
60	0	0	2358	10	2782	52
61	0	0	2344	12	2778	53
62	0	0	2401	13	2775	55
63	0	0	2310	6	2775	56
64	0	0	2164	7	2776	53
65	0	0	2060	7	2777	54
66	0	0	1909	8	2779	54
67	0	0	1791	7	2781	55
68	0	0	1736	8	2782	55
69	0	0	1725	10	2782	54
70	0	0	1734	10	2781	52
71	0	0	1770	10	2778	54
72	0	0	1789	9	2774	53
73	0	0	1876	10	2773	52
74	0	0	1991	10	2776	53
75	0	0	2070	11	2777	53
76	0	0	2158	11	2780	54
77	0	0	2236	13	2781	54
78	0	0	2309	11	2783	54
79	0	0	2355	11	2784	53
80	0	0	2363	11	2782	54
81	0	0	2351	11	2779	53
82	0	0	2410	6	2774	55
83	0	0	2323	10	2774	53
84	0	0	2181	6	2775	54
85	0	0	2071	7	2777	54
86	0	0	1918	8	2780	55
87	0	0	1801	5	2783	54
88	0	0	1748	7	2783	54
89	0	0	1736	10	2783	54
90	0	0	1743	10	2782	54
91	0	0	1771	11	2777	53
92	0	0	1780	11	2775	53
93	0	0	1867	12	2774	51
94	0	0	1987	11	2776	53
95	0	0	2072	4	2777	53
96	0	0	2164	10	2780	54
97	0	0	2240	11	2781	54
98	0	0	2314	15	2782	53
99	0	0	2358	11	2783	51
100	0	0	2365	10	2781	54
101	0	0	2347	10	2778	52
102	0	0	2402	11	2775	53
103	0	0	2316	7	2775	52
104	0	0	2168	6	2775	53
105	0	0	2056	7	2777	53
106	0	0	1900	7	2779	54
107	0	0	1786	7	2781	53
108	0	0	1733	8	2782	51
109	0	0	1718	9	2783	53
110	0	0	1728	11	2781	54
111	0	0	1763	10	2778	56
112	0	0	1786	10	2775	53
113	0	0	1873	11	2775	54
114	0	0	2002	10	2776	53
115	0	0	2084	11	2777	53
116	0	0	2170	10	2780	53
117	0	0	2246	10	2781	54
118	0	0	2321	11	2782	53
119	0	0	2359	11	2784	53
120	0	0	2358	11	2781	54
121	0	0	2346	11	2778	53
122	0	0	2406	7	2775	52
123	0	0	2309	7	2774	53
124	0	0	2166	7	2775	52
125	0	0	2050	7	2777	53
126	0	0	1898	6	2779	54
127	0	0	1781	7	2781	53
0	0	0	1733	6	2783	53
1	0	0	1717	9	2783	52
2	0	0	1732	10	2781	54
3	0	0	1774	10	2777	53
4	0	0	1792	11	2774	53
5	0	0	1872	11	2773	52
6	0	0	1990	8	2775	52
7	0	0	2071	7	2776	52
8	0	0	2155	10	2780	53
9	0	0	2229	10	2781	54
10	0	0	2304	15	2782	54
11	0	0	2352	10	2782	51
12	0	0	2357	11	2781	54
13	0	0	2345	12	2777	52
14	0	0	2401	10	2774	53
15	0	0	2314	7	2775	56
16	0	0	2167	5	2775	51
17	0	0	2053	6	2776	54
18	0	0	1900	6	2779	54
19	0	0	1788	7	2781	54
20	0	0	1739	11	2782	54
21	0	0	1727	10	2783	53
22	0	0	1746	11	2781	54
23	0	0	1789	11	2777	55
24	0	0	1805	10	2774	52
25	0	0	1881	7	2774	52
26	0	0	1995	9	2774	51
27	0	0	2072	10	2777	53
28	0	0	2162	10	2779	53
29	0	0	2244	11	2782	54
30	0	0	2316	11	2783	55
31	0	0	2354	10	2783	51
32	0	0	2364	11	2781	53
33	0	0	2349	11	2778	53
34	0	0	2406	10	2774	53
35	0	0	2321	7	2774	54
36	0	0	2180	5	2775	54
37	0	0	2064	8	2777	54
38	0	0	1913	7	2779	53
39	0	0	1794	6	2781	54
40	0	0	1735	7	2782	53
41	0	0	1725	10	2783	53
42	0	0	1738	11	2781	54
43	0	0	1779	10	2778	55
44	0	0	1790	14	2774	53
45	0	0	1872	11	2774	54
46	0	0	1993	11	2777	53
47	0	0	2077	10	2777	54
48	0	0	2162	11	2779	54
49	0	0	2238	13	2781	53
50	0	0	2308	9	2783	52
51	0	0	2346	10	2783	54
52	0	0	2349	11	2782	54
53	0	0	2337	11	2778	54
54	0	0	2394	10	2774	53
55	0	0	2311	5	2774	53
56	0	0	2173	7	2775	54
57	0	0	2060	6	2777	51
58	0	0	1911	6	2780	55
59	0	0	1792	7	2781	54
60	0	0	1739	7	2782	55
61	0	0	1728	11	2782	52
62	0	0	1743	10	2781	53
63	0	0	1776	11	2777	55
64	0	0	1786	9	2771	53
65	0	0	1876	11	2774	51
66	0	0	1994	9	2775	52
67	0	0	2077	11	2777	53
68	0	0	2162	10	2779	54
69	0	0	2233	11	2781	54
70	0	0	2302	10	2783	54
71	0	0	2349	11	2783	54
72	0	0	2358	11	2781	54
73	0	0	2338	10	2777	54
74	0	0	2391	11	2774	53
75	0	0	2307	5	2774	52
76	0	0	2164	6	2774	51
77	0	0	2055	6	2777	55
78	0	0	1907	7	2778	51
79	0	0	1795	7	2781	54
80	0	0	1747	6	2782	52
81	0	0	1740	9	2782	53
82	0	0	1752	11	2781	54
83	0	0	1779	10	2777	53
84	0	0	1790	11	2774	53
85	0	0	1867	9	2773	53
86	0	0	1980	10	2774	51
87	0	0	2060	10	2777	55
88	0	0	2149	11	2778	53
89	0	0	2227	10	2780	54
90	0	0	2306	8	2782	53
91	0	0	2344	11	2782	53
92	0	0	2351	10	2781	53
93	0	0	2335	11	2777	54
94	0	0	2387	10	2774	53
95	0	0	2305	7	2774	56
96	0	0	2167	8	2775	52
97	0	0	2056	7	2777	54
98	0	0	1909	7	2778	53
99	0	0	1800	7	2781	54
100	0	0	1746	7	2782	54
101	0	0	1736	11	2782	55
102	0	0	1755	11	2781	55
103	0	0	1789	10	2777	54
104	0	0	1801	11	2774	53
105	0	0	1883	8	2774	52
106	0	0	1991	10	2774	54
107	0	0	2071	9	2776	52
108	0	0	2161	10	2779	54
109	0	0	2241	11	2780	53
110	0	0	2309	10	2782	54
111	0	0	2345	10	2783	53
112	0	0	2352	11	2781	54
113	0	0	2338	11	2777	54
114	0	0	2389	10	2774	53
115	0	0	2310	6	2774	52
116	0	0	2169	6	2775	54
117	0	0	2061	7	2778	54
118	0	0	1920	7	2779	54
119	0	0	1802	7	2781	54
120	0	0	1752	5	2783	53
121	0	0	1740	10	2782	55
122	0	0	1754	11	2781	54
123	0	0	1792	11	2777	54
124	0	0	1805	11	2774	53
125	0	0	1878	10	2773	53
126	0	0	1989	11	2774	55
127	0	0	2077	11	2778	55
0	0	0	2160	11	2778	53
1	0	0	2233	11	2781	54
2	0	0	2304	8	2783	53
3	0	0	2341	11	2782	55
4	0	0	2348	10	2781	53
5	0	0	2327	10	2778	54
6	0	0	2377	11	2774	53
7	0	0	2302	8	2774	54
8	0	0	2162	8	2775	55
9	0	0	2054	7	2778	55
10	0	0	1910	7	2778	54
11	0	0	1798	7	2781	54
12	0	0	1744	8	2782	54
13	0	0	1734	10	2782	54
14	0	0	1746	10	2781	53
15	0	0	1786	11	2779	54
16	0	0	1795	10	2773	53
17	0	0	1876	11	2773	53
18	0	0	1992	11	2775	53
19	0	0	2071	11	2776	54
20	0	0	2151	10	2779	54
21	0	0	2224	12	2780	54
22	0	0	2299	11	2782	54
23	0	0	2345	11	2782	51
24	0	0	2351	11	2780	54
25	0	0	2333	11	2778	52
26	0	0	2388	13	2774	55
27	0	0	2308	7	2774	53
28	0	0	2166	7	2774	51
29	0	0	2054	7	2777	53
30	0	0	1908	7	2778	55
31	0	0	1796	7	2781	52
32	0	0	1742	7	2781	53
33	0	0	1731	8	2781	55
34	0	0	1742	10	2780	54
35	0	0	1776	11	2776	53
36	0	0	1788	7	2774	55
37	0	0	1868	10	2772	53
38	0	0	1986	11	2775	51
39	0	0	2068	10	2776	53
40	0	0	2151	12	2779	54
41	0	0	2228	8	2781	53
42	0	0	2296	11	2782	54
43	0	0	2344	11	2783	54
44	0	0	2352	11	2780	53
45	0	0	2335	11	2777	53
46	0	0	2395	11	2774	53
47	0	0	2314	7	2774	57
48	0	0	2173	4	2774	52
49	0	0	2066	6	2775	54
50	0	0	1920	7	2778	53
51	0	0	1808	8	2781	53
52	0	0	1755	7	2782	54
53	0	0	1742	9	2782	51
54	0	0	1751	11	2781	55
55	0	0	1781	10	2777	53
56	0	0	1795	8	2775	55
57	0	0	1878	11	2774	53
58	0	0	1989	12	2775	52
59	0	0	2072	10	2777	54
60	0	0	2154	11	2778	53
61	0	0	2231	10	2780	52
62	0	0	2307	10	2781	53
63	0	0	2349	11	2782	51
64	0	0	2357	11	2780	54
65	0	0	2340	10	2778	53
66	0	0	2393	10	2773	51
67	0	0	2308	7	2773	53
68	0	0	2165	7	2775	52
69	0	0	2054	7	2777	53
70	0	0	1910	6	2778	54
71	0	0	1792	4	2781	55
72	0	0	1738	8	2783	52
73	0	0	1727	8	2782	52
74	0	0	1739	10	2780	53
75	0	0	1776	10	2777	54
76	0	0	1786	8	2774	53
77	0	0	1865	11	2772	52
78	0	0	1983	10	2775	52
79	0	0	2070	10	2776	54
80	0	0	2161	10	2779	53
81	0	0	2241	13	2780	54
82	0	0	2315	11	2781	53
83	0	0	2355	10	2782	52
84	0	0	2362	9	2780	53
85	0	0	2339	11	2776	52
86	0	0	2399	9	2775	54
87	0	0	2322	7	2774	53
88	0	0	2180	7	2775	50
89	0	0	2062	7	2776	53
90	0	0	1909	6	2778	54
91	0	0	1784	4	2781	55
92	0	0	1728	8	2781	54
93	0	0	1712	10	2782	52
94	0	0	1729	10	2780	52
95	0	0	1768	10	2776	54
96	0	0	1783	10	2773	51
97	0	0	1857	8	2773	53
98	0	0	1981	11	2774	49
99	0	0	2066	11	2775	52
100	0	0	2154	10	2779	54
101	0	0	2235	13	2781	55
102	0	0	2313	12	2782	54
103	0	0	2358	10	2783	54
104	0	0	2361	11	2781	53
105	0	0	2339	12	2777	54
106	0	0	2397	9	2775	52
107	0	0	2314	6	2774	54
108	0	0	2171	7	2775	52
109	0	0	2060	7	2775	54
110	0	0	1908	6	2778	53
111	0	0	1782	5	2780	53
112	0	0	1726	8	2782	54
113	0	0	1720	10	2782	52
114	0	0	1730	11	2780	53
115	0	0	1772	10	2776	54
116	0	0	1785	10	2774	53
117	0	0	1868	10	2774	51
118	0	0	1990	10	2774	54
119	0	0	2077	10	2777	54
120	0	0	2170	11	2778	53
121	0	0	2255	11	2780	55
122	0	0	2331	10	2782	54
123	0	0	2374	10	2783	56
124	0	0	2381	11	2781	54
125	0	0	2361	10	2777	53
126	0	0	2424	9	2775	52
127	0	0	2340	6	2774	53
0	0	0	2193	7	2774	52
1	0	0	2076	7	2775	52
2	0	0	1918	7	2778	54
3	0	0	1785	4	2781	54
4	0	0	1730	7	2782	57
5	0	0	1715	10	2782	55
6	0	0	1730	10	2785	54
7	0	0	1767	11	2777	54
8	0	0	1779	11	2775	53
9	0	0	1862	12	2774	56
10	0	0	1988	11	2775	56
11	0	0	2080	10	2777	53
12	0	0	2169	11	2779	54
13	0	0	2250	10	2781	54
14	0	0	2328	11	2783	50
15	0	0	2375	13	2782	58
16	0	0	2383	10	2781	54
17	0	0	2364	10	2777	54
18	0	0	2421	11	2774	55
19	0	0	2337	9	2773	55
20	0	0	2186	7	2775	53
21	0	0	2069	7	2776	53
22	0	0	1911	7	2778	53
23	0	0	1781	6	2780	54
24	0	0	1726	7	2783	51
25	0	0	1713	9	2782	55
26	0	0	1723	10	2780	54
27	0	0	1762	11	2778	53
28	0	0	1769	11	2774	54
29	0	0	1852	14	2774	53
30	0	0	1976	11	2775	53
31	0	0	2071	11	2776	55
32	0	0	2166	10	2778	53
33	0	0	2255	8	2781	52
34	0	0	2330	11	2782	50
35	0	0	2375	10	2782	56
36	0	0	2380	7	2780	55
37	0	0	2358	11	2777	53
38	0	0	2425	8	2775	52
39	0	0	2341	8	2774	52
40	0	0	2185	8	2775	51
41	0	0	2068	7	2776	52
42	0	0	1909	7	2778	55
43	0	0	1779	7	2781	53
44	0	0	1721	5	2783	58
45	0	0	1709	9	2782	59
46	0	0	1719	10	2782	53
47	0	0	1758	10	2777	55
48	0	0	1771	11	2774	55
49	0	0	1849	13	2773	54
50	0	0	1978	11	2775	53
51	0	0	2069	12	2776	53
52	0	0	2162	11	2778	53
53	0	0	2241	10	2780	53
54	0	0	2325	11	2782	52
55	0	0	2372	10	2782	54
56	0	0	2387	11	2780	54
57	0	0	2374	11	2778	54
58	0	0	2440	10	2775	56
59	0	0	2364	7	2774	53
60	0	0	2206	6	2775	55
61	0	0	2083	7	2777	53
62	0	0	1921	6	2779	56
63	0	0	1787	6	2780	54
64	0	0	1729	8	2782	52
65	0	0	1719	8	2782	55
66	0	0	1729	10	2780	54
67	0	0	1761	10	2777	55
68	0	0	1771	11	2774	53
69	0	0	1850	11	2773	52
70	0	0	1980	10	2774	55
71	0	0	2071	10	2776	51
72	0	0	2164	10	2778	53
73	0	0	2245	11	2780	53
74	0	0	2329	11	2782	52
75	0	0	2381	11	2782	55
76	0	0	2391	9	2782	53
77	0	0	2372	10	2778	53
78	0	0	2430	10	2774	53
79	0	0	2352	8	2774	50
80	0	0	2204	7	2775	53
81	0	0	2079	6	2776	54
82	0	0	1913	6	2779	54
83	0	0	1779	7	2781	54
84	0	0	1713	8	2782	52
85	0	0	1701	9	2782	55
86	0	0	1714	11	2781	54
87	0	0	1760	10	2777	54
88	0	0	1770	10	2775	54
89	0	0	1850	10	2774	52
90	0	0	1977	10	2775	53
91	0	0	2070	10	2777	54
92	0	0	2165	11	2779	53
93	0	0	2248	10	2781	54
94	0	0	2328	11	2782	54
95	0	0	2379	11	2783	55
96	0	0	2391	11	2781	53
97	0	0	2372	11	2778	53
98	0	0	2437	11	2774	53
99	0	0	2361	8	2774	52
100	0	0	2206	7	2775	53
101	0	0	2081	6	2777	54
102	0	0	1918	6	2779	53
103	0	0	1789	8	2780	54
104	0	0	1726	8	2782	55
105	0	0	1710	9	2782	53
106	0	0	1719	10	2782	53
107	0	0	1748	10	2779	54
108	0	0	1762	10	2775	53
109	0	0	1836	10	2774	53
110	0	0	1969	10	2775	54
111	0	0	2064	11	2777	52
112	0	0	2166	10	2779	53
113	0	0	2254	10	2781	53
114	0	0	2332	10	2782	55
115	0	0	2380	9	2783	56
116	0	0	2386	7	2781	55
117	0	0	2364	11	2777	53
118	0	0	2429	11	2773	55
119	0	0	2349	8	2773	54
120	0	0	2192	5	2775	51
121	0	0	2071	7	2777	53
122	0	0	1906	6	2778	54
123	0	0	1772	7	2781	56
124	0	0	1709	7	2783	53
125	0	0	1693	10	2786	53
126	0	0	1713	10	2782	54
127	0	0	1750	10	2777	54
0	0	0	1757	10	2774	56
1	0	0	1839	8	2774	53
2	0	0	1971	10	2775	55
3	0	0	2064	10	2776	52
4	0	0	2161	10	2778	54
5	0	0	2247	11	2780	54
6	0	0	2329	10	2781	55
7	0	0	2380	11	2782	51
8	0	0	2394	11	2781	54
9	0	0	2373	10	2778	53
10	0	0	2436	11	2775	54
11	0	0	2361	3	2774	52
12	0	0	2206	6	2775	52
13	0	0	2086	6	2776	54
14	0	0	1923	6	2778	55
15	0	0	1786	6	2780	56
16	0	0	1717	5	2783	53
17	0	0	1696	9	2783	52
18	0	0	1705	10	2781	54
19	0	0	1745	11	2777	54
20	0	0	1756	12	2774	53
21	0	0	1840	7	2774	52
22	0	0	1968	9	2774	51
23	0	0	2066	5	2776	51
24	0	0	2162	11	2778	53
25	0	0	2250	12	2780	54
26	0	0	2332	8	2782	54
27	0	0	2384	10	2783	55
28	0	0	2395	10	2781	54
29	0	0	2376	11	2778	53
30	0	0	2443	10	2773	52
31	0	0	2368	3	2774	52
32	0	0	2207	7	2775	54
33	0	0	2082	6	2776	52
34	0	0	1921	7	2780	55
35	0	0	1783	3	2782	52
36	0	0	1721	11	2783	54
37	0	0	1702	9	2782	52
38	0	0	1711	10	2780	52
39	0	0	1747	12	2777	53
40	0	0	1757	11	2774	52
41	0	0	1837	14	2774	53
42	0	0	1962	10	2774	50
43	0	0	2058	10	2776	56
44	0	0	2155	14	2777	53
45	0	0	2247	10	2780	53
46	0	0	2333	10	2782	53
47	0	0	2386	12	2782	55
48	0	0	2400	11	2781	53
49	0	0	2370	12	2778	53
50	0	0	2430	12	2775	53
51	0	0	2356	5	2773	54
52	0	0	2199	7	2774	55
53	0	0	2079	7	2776	53
54	0	0	1920	11	2777	53
55	0	0	1777	6	2780	53
56	0	0	1707	6	2782	58
57	0	0	1686	7	2781	55
58	0	0	1695	11	2780	53
59	0	0	1738	10	2777	54
60	0	0	1755	10	2772	51
61	0	0	1829	10	2773	54
62	0	0	1958	11	2775	52
63	0	0	2057	10	2775	51
64	0	0	2157	10	2779	54
65	0	0	2243	8	2780	55
66	0	0	2323	7	2781	54
67	0	0	2380	11	2782	55
68	0	0	2392	11	2780	54
69	0	0	2372	11	2779	54
70	0	0	2438	11	2774	53
71	0	0	2371	11	2773	53
72	0	0	2209	7	2774	56
73	0	0	2073	6	2775	52
74	0	0	1910	7	2777	53
75	0	0	1775	6	2780	52
76	0	0	1708	7	2782	53
77	0	0	1693	9	2781	54
78	0	0	1699	10	2780	56
79	0	0	1732	10	2776	54
80	0	0	1750	11	2773	54
81	0	0	1828	9	2772	55
82	0	0	1960	10	2774	56
83	0	0	2056	11	2775	52
84	0	0	2155	9	2778	54
85	0	0	2241	7	2781	53
86	0	0	2326	10	2781	55
87	0	0	2380	11	2781	55
88	0	0	2397	11	2781	54
89	0	0	2381	11	2776	54
90	0	0	2446	11	2774	55
91	0	0	2369	5	2771	55
92	0	0	2211	7	2773	56
93	0	0	2082	7	2775	53
94	0	0	1918	5	2777	54
95	0	0	1784	6	2778	51
96	0	0	1710	7	2781	54
97	0	0	1688	9	2781	54
98	0	0	1701	11	2779	56
99	0	0	1737	12	2776	54
100	0	0	1750	11	2774	52
101	0	0	1828	10	2773	52
102	0	0	1964	10	2774	54
103	0	0	2059	10	2776	53
104	0	0	2154	7	2777	54
105	0	0	2242	11	2779	53
106	0	0	2324	9	2780	55
107	0	0	2382	11	2781	56
108	0	0	2396	10	2779	55
109	0	0	2376	9	2776	53
110	0	0	2448	10	2771	51
111	0	0	2376	6	2772	54
112	0	0	2216	7	2774	55
113	0	0	2081	7	2775	56
114	0	0	1917	7	2777	53
115	0	0	1786	5	2779	51
116	0	0	1715	4	2781	54
117	0	0	1693	8	2782	53
118	0	0	1701	11	2779	55
119	0	0	1732	10	2777	54
120	0	0	1741	13	2773	54
121	0	0	1817	9	2771	55
122	0	0	1952	10	2773	53
123	0	0	2054	10	2774	55
124	0	0	2153	11	2776	53
125	0	0	2248	10	2779	52
126	0	0	2335	10	2780	54
127	0	0	2393	9	2780	54
0	0	0	2405	11	2779	54
1	0	0	2381	10	2776	54
2	0	0	2448	10	2771	51
3	0	0	2372	7	2772	52
4	0	0	2210	7	2773	54
5	0	0	2079	6	2775	53
6	0	0	1918	3	2777	54
7	0	0	1777	7	2779	54
8	0	0	1700	8	2780	56
9	0	0	1682	8	2781	55
10	0	0	1695	10	2779	56
11	0	0	1735	10	2776	55
12	0	0	1746	10	2772	53
13	0	0	1824	12	2772	56
14	0	0	1958	8	2772	55
15	0	0	2053	12	2773	56
16	0	0	2158	11	2776	53
17	0	0	2249	11	2778	54
18	0	0	2337	12	2780	56
19	0	0	2397	10	2780	55
20	0	0	2405	11	2779	55
21	0	0	2384	11	2775	54
22	0	0	2450	11	2772	53
23	0	0	2375	8	2772	56
24	0	0	2216	4	2773	53
25	0	0	2086	7	2774	55
26	0	0	1925	7	2776	53
27	0	0	1783	7	2778	54
28	0	0	1707	8	2780	56
29	0	0	1685	10	2780	54
30	0	0	1694	11	2779	54
31	0	0	1728	12	2775	53
32	0	0	1739	11	2772	54
33	0	0	1823	9	2772	55
34	0	0	1957	10	2772	53
35	0	0	2060	10	2774	53
36	0	0	2159	7	2776	54
37	0	0	2248	10	2778	54
38	0	0	2335	10	2780	56
39	0	0	2395	9	2780	54
40	0	0	2413	10	2779	53
41	0	0	2389	11	2775	53
42	0	0	2461	11	2772	51
43	0	0	2393	6	2771	53
44	0	0	2229	7	2772	53
45	0	0	2098	8	2773	53
46	0	0	1929	8	2776	53
47	0	0	1783	8	2778	55
48	0	0	1709	10	2779	52
49	0	0	1686	8	2780	54
50	0	0	1694	10	2778	55
51	0	0	1736	10	2775	53
52	0	0	1749	10	2771	55
53	0	0	1819	12	2771	56
54	0	0	1951	10	2772	53
55	0	0	2049	10	2773	52
56	0	0	2148	11	2776	54
57	0	0	2239	11	2778	54
58	0	0	2333	10	2779	55
59	0	0	2393	11	2780	53
60	0	0	2411	11	2779	53
61	0	0	2395	7	2775	53
62	0	0	2460	10	2771	51
63	0	0	2383	7	2771	55
64	0	0	2219	4	2772	53
65	0	0	2087	7	2772	51
66	0	0	1923	8	2775	54
67	0	0	1776	8	2780	53
68	0	0	1702	7	2779	51
69	0	0	1678	7	2779	54
70	0	0	1685	11	2777	52
71	0	0	1718	11	2774	53
72	0	0	1732	12	2771	53
73	0	0	1815	10	2770	55
74	0	0	1950	11	2771	53
75	0	0	2052	11	2773	53
76	0	0	2149	11	2775	53
77	0	0	2243	11	2777	51
78	0	0	2337	10	2778	53
79	0	0	2393	7	2778	53
80	0	0	2410	10	2778	54
81	0	0	2392	7	2774	53
82	0	0	2455	11	2770	54
83	0	0	2391	10	2770	51
84	0	0	2228	4	2771	53
85	0	0	2097	7	2772	54
86	0	0	1928	8	2774	53
87	0	0	1778	8	2776	54
88	0	0	1708	8	2778	54
89	0	0	1689	8	2779	54
90	0	0	1696	11	2777	52
91	0	0	1731	7	2773	53
92	0	0	1740	11	2770	51
93	0	0	1818	9	2769	53
94	0	0	1951	9	2769	53
95	0	0	2052	10	2772	49
96	0	0	2154	11	2773	53
97	0	0	2250	10	2776	50
98	0	0	2345	10	2778	53
99	0	0	2403	9	2777	53
100	0	0	2424	11	2777	54
101	0	0	2399	11	2773	53
102	0	0	2467	10	2770	51
103	0	0	2397	7	2770	51
104	0	0	2238	7	2770	53
105	0	0	2105	8	2771	52
106	0	0	1934	6	2774	53
107	0	0	1783	8	2776	54
108	0	0	1703	11	2777	52
109	0	0	1675	6	2776	55
110	0	0	1678	11	2775	52
111	0	0	1710	12	2772	53
112	0	0	1722	12	2769	53
113	0	0	1802	7	2767	53
114	0	0	1944	9	2769	54
115	0	0	2051	7	2770	52
116	0	0	2150	8	2773	53
117	0	0	2246	11	2775	55
118	0	0	2344	14	2776	53
119	0	0	2407	10	2777	55
120	0	0	2418	11	2775	52
121	0	0	2397	9	2772	53
122	0	0	2461	10	2768	55
123	0	0	2399	7	2767	53
124	0	0	2231	5	2768	54
125	0	0	2092	7	2770	52
126	0	0	1923	6	2772	53
127	0	0	1772	7	2774	52
0	0	0	1694	6	2776	54
1	0	0	1669	8	2775	53
2	0	0	1674	10	2774	54
3	0	0	1705	12	2771	53
4	0	0	1723	10	2767	53
5	0	0	1804	12	2767	52
6	0	0	1944	9	2767	54
7	0	0	2051	10	2769	52
8	0	0	2156	10	2771	53
9	0	0	2251	9	2773	53
10	0	0	2342	7	2774	53
11	0	0	2407	8	2775	54
12	0	0	2428	10	2774	53
13	0	0	2400	11	2770	53
14	0	0	2474	11	2767	52
15	0	0	2398	6	2766	54
16	0	0	2226	5	2766	53
17	0	0	2094	7	2767	54
18	0	0	1922	8	2769	55
19	0	0	1770	6	2771	53
20	0	0	1688	5	2773	55
21	0	0	1665	9	2773	55
22	0	0	1676	10	2771	55
23	0	0	1712	10	2769	54
24	0	0	1729	11	2764	51
25	0	0	1809	11	2764	52
26	0	0	1947	11	2765	54
27	0	0	2055	10	2766	54
28	0	0	2157	10	2768	52
29	0	0	2244	12	2770	52
30	0	0	2340	11	2771	54
31	0	0	2409	9	2771	53
32	0	0	2435	8	2771	53
33	0	0	2418	10	2767	54
34	0	0	2491	11	2763	52
35	0	0	2420	7	2762	52
36	0	0	2247	7	2763	53
37	0	0	2102	7	2764	54
38	0	0	1927	5	2767	54
39	0	0	1770	2	2768	55
40	0	0	1686	8	2770	55
41	0	0	1657	8	2770	54
42	0	0	1664	10	2768	58
43	0	0	1698	10	2766	53
44	0	0	1715	11	2762	50
45	0	0	1796	11	2761	54
46	0	0	1942	11	2762	53
47	0	0	2052	11	2763	47
48	0	0	2158	11	2765	53
49	0	0	2259	10	2767	54
50	0	0	2356	9	2768	55
51	0	0	2419	11	2768	52
52	0	0	2440	9	2768	52
53	0	0	2418	11	2765	53
54	0	0	2490	11	2762	52
55	0	0	2424	4	2761	53
56	0	0	2249	5	2761	53
57	0	0	2110	6	2762	55
58	0	0	1938	5	2764	53
59	0	0	1774	6	2766	53
60	0	0	1683	8	2768	55
61	0	0	1650	9	2769	52
62	0	0	1657	11	2768	54
63	0	0	1690	11	2765	54
64	0	0	1700	9	2760	51
65	0	0	1780	12	2760	54
66	0	0	1923	10	2761	53
67	0	0	2033	11	2762	51
68	0	0	2147	14	2766	49
69	0	0	2242	12	2763	52
70	0	0	2346	8	2768	55
71	0	0	2415	11	2768	53
72	0	0	2437	10	2767	55
73	0	0	2413	12	2764	55
74	0	0	2488	11	2762	54
75	0	0	2422	7	2761	51
76	0	0	2247	7	2762	53
77	0	0	2107	6	2764	54
78	0	0	1931	7	2765	53
79	0	0	1765	8	2767	53
80	0	0	1679	4	2768	55
81	0	0	1644	8	2768	53
82	0	0	1649	9	2767	55
83	0	0	1682	10	2764	53
84	0	0	1698	7	2761	53
85	0	0	1776	8	2760	55
86	0	0	1922	13	2761	53
87	0	0	2038	1	2762	47
88	0	0	2146	10	2765	54
89	0	0	2249	7	2767	54
90	0	0	2346	9	2768	54
91	0	0	2415	11	2769	53
92	0	0	2433	12	2767	54
93	0	0	2408	10	2765	56
94	0	0	2481	11	2762	53
95	0	0	2416	4	2761	55
96	0	0	2244	8	2762	53
97	0	0	2103	7	2763	54
98	0	0	1926	7	2765	54
99	0	0	1769	7	2767	54
100	0	0	1682	4	2768	55
101	0	0	1650	7	2769	51
102	0	0	1650	12	2767	47
103	0	0	1686	10	2765	53
104	0	0	1703	10	2762	53
105	0	0	1782	10	2761	52
106	0	0	1929	11	2761	54
107	0	0	2043	11	2764	52
108	0	0	2149	10	2765	53
109	0	0	2245	10	2767	54
110	0	0	2348	15	2769	52
111	0	0	2419	13	2769	53
112	0	0	2443	11	2769	53
113	0	0	2418	11	2766	53
114	0	0	2493	10	2762	54
115	0	0	2423	9	2760	35
116	0	0	2247	4	2762	53
117	0	0	2100	7	2763	49
118	0	0	1924	7	2765	53
119	0	0	1758	6	2766	55
120	0	0	1664	7	2768	51
121	0	0	1633	8	2768	54
122	0	0	1636	11	2767	51
123	0	0	1676	11	2765	54
124	0	0	1698	11	2761	55
125	0	0	1780	12	2760	53
126	0	0	1922	10	2762	53
127	0	0	2031	10	2763	52
0	0	0	2141	15	2764	52
1	0	0	2244	10	2767	56
2	0	0	2348	12	2768	52
3	0	0	2418	9	2768	53
4	0	0	2440	10	2768	52
5	0	0	2420	12	2764	53
6	0	0	2490	10	2761	53
7	0	0	2421	7	2760	53
8	0	0	2240	5	2761	53
9	0	0	2093	6	2762	52
10	0	0	1909	5	2765	51
11	0	0	1744	6	2766	58
12	0	0	1651	8	2768	52
13	0	0	1619	6	2768	53
14	0	0	1627	10	2767	49
15	0	0	1668	10	2764	53
16	0	0	1683	10	2761	53
17	0	0	1764	10	2761	54
18	0	0	1909	9	2761	53
19	0	0	2027	11	2762	52
20	0	0	2139	12	2764	54
21	0	0	2246	10	2766	55
22	0	0	2351	10	2766	52
23	0	0	2421	8	2768	54
24	0	0	2448	11	2766	49
25	0	0	2426	9	2765	53
26	0	0	2504	10	2761	51
27	0	0	2435	7	2759	50
28	0	0	2252	4	2761	53
29	0	0	2102	6	2763	53
30	0	0	1913	5	2764	54
31	0	0	1743	6	2766	54
32	0	0	1652	7	2767	56
33	0	0	1622	7	2768	53
34	0	0	1628	10	2767	52
35	0	0	1660	8	2764	54
36	0	0	1679	9	2760	55
37	0	0	1759	14	2759	52
38	0	0	1911	8	2760	54
39	0	0	2028	10	2761	53
40	0	0	2141	12	2763	53
41	0	0	2254	9	2765	55
42	0	0	2361	12	2767	53
43	0	0	2434	9	2767	54
44	0	0	2459	10	2766	52
45	0	0	2428	8	2764	53
46	0	0	2505	11	2760	51
47	0	0	2444	7	2758	52
48	0	0	2267	4	2760	52
49	0	0	2111	7	2758	52
50	0	0	1924	5	2764	52
51	0	0	1747	6	2765	53
52	0	0	1655	5	2767	54
53	0	0	1623	7	2767	51
54	0	0	1633	10	2765	53
55	0	0	1668	10	2763	53
56	0	0	1689	11	2759	51
57	0	0	1767	10	2757	52
58	0	0	1922	10	2759	52
59	0	0	2043	10	2760	52
60	0	0	2161	8	2763	52
61	0	0	2268	9	2765	53
62	0	0	2376	14	2766	52
63	0	0	2447	13	2767	54
64	0	0	2469	10	2765	53
65	0	0	2447	8	2763	52
66	0	0	2520	9	2760	55
67	0	0	2458	7	2758	53
68	0	0	2276	7	2759	53
69	0	0	2122	7	2761	53
70	0	0	1934	7	2761	52
71	0	0	1759	6	2764	53
72	0	0	1664	9	2766	53
73	0	0	1631	7	2766	53
74	0	0	1634	9	2763	53
75	0	0	1664	10	2761	53
76	0	0	1679	9	2758	55
77	0	0	1762	10	2757	56
78	0	0	1917	11	2758	54
79	0	0	2039	11	2759	52
80	0	0	2151	7	2761	53
81	0	0	2259	10	2764	51
82	0	0	2368	13	2764	53
83	0	0	2443	10	2765	53
84	0	0	2466	11	2764	53
85	0	0	2451	11	2762	53
86	0	0	2526	10	2759	55
87	0	0	2466	6	2757	55
88	0	0	2282	10	2758	53
89	0	0	2124	6	2759	53
90	0	0	1941	6	2760	53
91	0	0	1760	7	2762	53
92	0	0	1660	7	2763	52
93	0	0	1627	5	2764	53
94	0	0	1634	10	2763	52
95	0	0	1672	10	2760	53
96	0	0	1691	12	2757	53
97	0	0	1769	9	2756	54
98	0	0	1920	14	2757	52
99	0	0	2038	10	2759	53
100	0	0	2153	11	2761	53
101	0	0	2260	10	2762	51
102	0	0	2369	11	2763	56
103	0	0	2443	11	2764	54
104	0	0	2471	11	2762	53
105	0	0	2451	10	2759	53
106	0	0	2528	12	2756	52
107	0	0	2469	6	2756	52
108	0	0	2284	6	2757	52
109	0	0	2124	6	2758	53
110	0	0	1934	1	2759	53
111	0	0	1752	6	2761	55
112	0	0	1650	10	2763	53
113	0	0	1614	7	2763	53
114	0	0	1621	11	2761	53
115	0	0	1661	7	2759	53
116	0	0	1679	14	2755	52
117	0	0	1760	8	2756	55
118	0	0	1913	13	2756	52
119	0	0	2036	10	2756	53
120	0	0	2153	11	2759	53
121	0	0	2256	12	2761	53
122	0	0	2367	9	2761	55
123	0	0	2446	14	2761	54
124	0	0	2481	10	2760	53
125	0	0	2465	11	2758	53
126	0	0	2546	11	2754	54
127	0	0	2479	7	2754	52
0	0	0	2288	8	2754	52
1	0	0	2125	7	2755	52
2	0	0	1929	6	2757	53
3	0	0	1747	7	2758	52
4	0	0	1641	7	2761	55
5	0	0	1601	8	2761	53
6	0	0	1606	11	2759	52
7	0	0	1642	8	2757	52
8	0	0	1661	9	2753	55
9	0	0	1746	10	2752	52
10	0	0	1906	12	2753	52
11	0	0	2032	10	2754	50
12	0	0	2149	10	2756	53
13	0	0	2256	10	2757	53
14	0	0	2374	10	2759	53
15	0	0	2455	14	2760	52
16	0	0	2485	11	2757	52
17	0	0	2465	7	2755	52
18	0	0	2546	15	2751	53
19	0	0	2489	6	2752	55
20	0	0	2296	4	2752	53
21	0	0	2130	6	2753	52
22	0	0	1934	6	2755	52
23	0	0	1746	7	2756	53
24	0	0	1639	8	2758	53
25	0	0	1600	8	2758	53
26	0	0	1602	11	2756	52
27	0	0	1634	10	2754	52
28	0	0	1653	11	2750	54
29	0	0	1732	12	2749	55
30	0	0	1894	10	2750	54
31	0	0	2029	1	2751	54
32	0	0	2152	10	2753	52
33	0	0	2266	15	2755	52
34	0	0	2383	13	2757	51
35	0	0	2466	10	2757	53
36	0	0	2494	11	2756	52
37	0	0	2474	10	2754	52
38	0	0	2550	11	2750	53
39	0	0	2486	6	2749	55
40	0	0	2293	9	2749	53
41	0	0	2127	7	2750	53
42	0	0	1925	7	2752	52
43	0	0	1736	7	2753	52
44	0	0	1632	10	2756	51
45	0	0	1593	8	2756	54
46	0	0	1595	14	2754	52
47	0	0	1621	10	2753	52
48	0	0	1647	9	2749	55
49	0	0	1729	10	2748	54
50	0	0	1891	11	2748	53
51	0	0	2020	11	2749	53
52	0	0	2145	10	2752	52
53	0	0	2268	11	2753	52
54	0	0	2388	11	2755	53
55	0	0	2468	11	2755	52
56	0	0	2499	10	2754	52
57	0	0	2478	8	2752	52
58	0	0	2562	10	2748	55
59	0	0	2507	7	2746	53
60	0	0	2312	6	2747	53
61	0	0	2145	7	2747	52
62	0	0	1944	6	2750	54
63	0	0	1747	6	2753	53
64	0	0	1636	7	2753	53
65	0	0	1593	7	2754	52
66	0	0	1597	11	2752	53
67	0	0	1639	11	2748	52
68	0	0	1663	10	2745	53
69	0	0	1742	11	2745	50
70	0	0	1901	8	2745	53
71	0	0	2029	10	2746	50
72	0	0	2151	10	2748	53
73	0	0	2260	10	2750	53
74	0	0	2377	11	2752	52
75	0	0	2461	12	2752	53
76	0	0	2496	11	2751	54
77	0	0	2482	11	2748	53
78	0	0	2569	9	2744	53
79	0	0	2511	7	2745	52
80	0	0	2315	8	2743	53
81	0	0	2143	6	2744	53
82	0	0	1945	6	2746	53
83	0	0	1746	6	2748	53
84	0	0	1626	7	2750	51
85	0	0	1581	10	2750	55
86	0	0	1587	10	2749	55
87	0	0	1622	11	2746	53
88	0	0	1646	9	2743	52
89	0	0	1726	11	2742	50
90	0	0	1886	12	2743	53
91	0	0	2017	10	2743	52
92	0	0	2142	10	2745	54
93	0	0	2261	10	2747	52
94	0	0	2381	10	2748	53
95	0	0	2464	16	2747	53
96	0	0	2503	10	2747	53
97	0	0	2485	11	2745	53
98	0	0	2570	10	2741	53
99	0	0	2514	8	2740	53
100	0	0	2319	8	2740	53
101	0	0	2146	6	2741	51
102	0	0	1942	8	2743	53
103	0	0	1739	6	2745	54
104	0	0	1622	6	2746	53
105	0	0	1580	7	2747	53
106	0	0	1576	10	2744	53
107	0	0	1605	11	2742	52
108	0	0	1630	9	2738	52
109	0	0	1714	11	2736	50
110	0	0	1882	11	2737	52
111	0	0	2015	10	2739	52
112	0	0	2142	7	2739	52
113	0	0	2263	10	2741	52
114	0	0	2389	10	2743	53
115	0	0	2476	12	2743	52
116	0	0	2509	11	2741	52
117	0	0	2492	8	2739	52
118	0	0	2576	10	2736	53
119	0	0	2521	7	2735	54
120	0	0	2323	5	2735	53
121	0	0	2148	7	2735	53
122	0	0	1942	8	2735	52
123	0	0	1737	5	2737	52
124	0	0	1612	7	2738	50
125	0	0	1564	8	2739	51
126	0	0	1563	10	2737	53
127	0	0	1600	11	2734	54
0	0	0	1623	10	2730	52
1	0	0	1705	9	2729	52
2	0	0	1872	7	2728	52
3	0	0	2007	11	2729	51
4	0	0	2136	8	2731	53
5	0	0	2259	11	2732	53
6	0	0	2384	11	2734	53
7	0	0	2475	11	2733	53
8	0	0	2513	10	2731	54
9	0	0	2494	12	2728	52
10	0	0	2578	10	2725	53
11	0	0	2524	7	2723	49
12	0	0	2327	3	2723	51
13	0	0	2153	6	2723	52
14	0	0	1942	6	2726	52
15	0	0	1732	6	2726	52
16	0	0	1610	8	2727	53
17	0	0	1564	8	2726	52
18	0	0	1566	10	2724	53
19	0	0	1597	11	2722	53
20	0	0	1620	12	2718	52
21	0	0	1702	10	2717	53
22	0	0	1866	7	2716	52
23	0	0	2003	10	2716	53
24	0	0	2135	10	2719	52
25	0	0	2257	9	2719	54
26	0	0	2384	9	2721	53
27	0	0	2477	7	2720	51
28	0	0	2514	10	2718	54
29	0	0	2491	9	2715	52
30	0	0	2579	11	2712	52
31	0	0	2525	6	2709	50
32	0	0	2325	7	2710	51
33	0	0	2152	6	2711	53
34	0	0	1940	8	2710	51
35	0	0	1727	6	2712	52
36	0	0	1604	7	2713	52
37	0	0	1554	3	2713	52
38	0	0	1556	9	2712	53
39	0	0	1589	11	2709	51
40	0	0	1613	10	2706	52
41	0	0	1698	9	2705	52
42	0	0	1868	7	2704	51
43	0	0	2005	10	2704	51
44	0	0	2137	11	2706	54
45	0	0	2263	11	2707	52
46	0	0	2392	11	2707	52
47	0	0	2479	8	2707	50
48	0	0	2522	11	2705	51
49	0	0	2506	10	2703	52
50	0	0	2595	10	2700	53
51	0	0	2548	6	2698	52
52	0	0	2341	3	2698	52
53	0	0	2164	6	2699	52
54	0	0	1951	11	2699	52
55	0	0	1738	7	2700	51
56	0	0	1611	7	2701	52
57	0	0	1557	4	2701	52
58	0	0	1549	9	2700	53
59	0	0	1581	12	2697	51
60	0	0	1604	12	2693	51
61	0	0	1687	10	2693	51
62	0	0	1859	7	2692	51
63	0	0	2001	12	2692	51
64	0	0	2129	10	2694	51
65	0	0	2256	11	2694	51
66	0	0	2390	10	2697	52
67	0	0	2486	11	2696	51
68	0	0	2523	10	2694	51
69	0	0	2512	13	2692	51
70	0	0	2603	10	2689	52
71	0	0	2553	6	2687	52
72	0	0	2357	4	2687	52
73	0	0	2172	6	2688	51
74	0	0	1961	7	2689	51
75	0	0	1741	5	2690	52
76	0	0	1608	6	2690	51
77	0	0	1556	4	2691	49
78	0	0	1545	9	2689	52
79	0	0	1572	11	2686	53
80	0	0	1596	10	2683	49
81	0	0	1671	9	2682	52
82	0	0	1839	8	2681	52
83	0	0	1991	11	2682	51
84	0	0	2124	15	2682	52
85	0	0	2257	12	2683	51
86	0	0	2393	10	2686	54
87	0	0	2493	10	2685	52
88	0	0	2536	10	2684	52
89	0	0	2522	7	2682	51
90	0	0	2608	9	2678	52
91	0	0	2564	6	2677	53
92	0	0	2362	4	2677	50
93	0	0	2178	6	2677	51
94	0	0	1961	6	2678	51
95	0	0	1738	8	2679	50
96	0	0	1602	5	2680	53
97	0	0	1542	7	2681	53
98	0	0	1529	8	2679	52
99	0	0	1559	10	2676	51
100	0	0	1581	11	2672	50
101	0	0	1659	10	2672	51
102	0	0	1831	8	2672	52
103	0	0	1978	3	2672	51
104	0	0	2112	11	2673	50
105	0	0	2249	12	2674	51
106	0	0	2389	9	2675	52
107	0	0	2493	8	2675	51
108	0	0	2539	10	2674	52
109	0	0	2529	9	2672	50
110	0	0	2619	12	2665	48
111	0	0	2578	7	2668	53
112	0	0	2371	8	2668	51
113	0	0	2181	6	2667	51
114	0	0	1961	6	2668	51
115	0	0	1736	8	2669	52
116	0	0	1597	5	2670	53
117	0	0	1536	8	2670	49
118	0	0	1518	8	2668	52
119	0	0	1544	8	2666	51
120	0	0	1560	10	2663	49
121	0	0	1638	10	2663	51
122	0	0	1811	11	2662	50
123	0	0	1954	10	2663	51
124	0	0	2098	12	2663	51
125	0	0	2244	10	2665	48
126	0	0	2391	14	2667	51
127	0	0	2498	8	2666	52
0	0	0	2557	10	2666	51
1	0	0	2548	7	2663	50
2	0	0	2641	12	2659	50
3	0	0	2596	7	2658	51
4	0	0	2390	6	2658	50
5	0	0	2200	7	2658	50
6	0	0	1971	7	2659	50
7	0	0	1734	6	2660	51
8	0	0	1588	7	2661	51
9	0	0	1519	6	2661	51
10	0	0	1498	4	2659	51
11	0	0	1519	10	2657	50
12	0	0	1530	10	2654	52
13	0	0	1612	10	2653	52
14	0	0	1790	11	2654	51
15	0	0	1945	10	2653	55
16	0	0	2090	9	2656	51
17	0	0	2235	10	2656	51
18	0	0	2390	10	2656	50
19	0	0	2512	10	2656	50
20	0	0	2567	10	2654	49
21	0	0	2568	10	2652	51
22	0	0	2671	12	2648	48
23	0	0	2644	7	2648	51
24	0	0	2434	7	2647	51
25	0	0	2228	7	2648	50
26	0	0	1990	8	2648	51
27	0	0	1731	10	2649	50
28	0	0	1569	7	2651	51
29	0	0	1488	7	2650	51
30	0	0	1460	7	2649	50
31	0	0	1476	8	2648	51
32	0	0	1481	8	2645	51
33	0	0	1565	11	2643	51
34	0	0	1749	10	2643	49
35	0	0	1913	10	2643	50
36	0	0	2067	11	2644	50
37	0	0	2223	12	2645	47
38	0	0	2388	10	2645	49
39	0	0	2518	16	2646	49
40	0	0	2591	10	2645	51
41	0	0	2592	11	2642	50
42	0	0	2699	14	2639	50
43	0	0	2679	7	2638	51
44	0	0	2459	6	2639	50
45	0	0	2253	8	2639	51
46	0	0	1998	4	2641	50
47	0	0	1722	7	2642	48
48	0	0	1545	4	2642	49
49	0	0	1448	6	2641	50
50	0	0	1413	8	2640	50
51	0	0	1425	10	2638	51
52	0	0	1432	12	2635	48
53	0	0	1504	11	2634	49
54	0	0	1697	10	2635	51
55	0	0	1866	10	2635	53
56	0	0	2036	10	2636	50
57	0	0	2204	10	2637	51
58	0	0	2380	9	2638	49
59	0	0	2531	10	2638	50
60	0	0	2615	11	2638	50
61	0	0	2634	11	2635	50
62	0	0	2761	11	2632	50
63	0	0	2751	7	2633	50
64	0	0	2524	7	2632	50
65	0	0	2307	7	2632	50
66	0	0	2040	5	2634	51
67	0	0	1740	6	2635	51
68	0	0	1542	7	2635	49
69	0	0	1429	7	2634	51
70	0	0	1378	7	2633	51
71	0	0	1376	14	2632	50
72	0	0	1366	7	2630	47
73	0	0	1442	8	2628	49
74	0	0	1644	10	2628	50
75	0	0	1824	10	2629	49
76	0	0	2000	11	2630	50
77	0	0	2186	11	2631	48
78	0	0	2388	11	2633	49
79	0	0	2549	10	2632	50
80	0	0	2648	10	2631	50
81	0	0	2676	11	2630	49
82	0	0	2810	11	2628	50
83	0	0	2814	5	2627	49
84	0	0	2582	7	2627	50
85	0	0	2351	6	2628	50
86	0	0	2068	7	2628	50
87	0	0	1740	7	2629	50
88	0	0	1518	6	2630	48
89	0	0	1383	7	2629	50
90	0	0	1315	6	2629	51
91	0	0	1304	8	2628	51
92	0	0	1286	7	2625	50
93	0	0	1361	11	2624	47
94	0	0	1576	11	2624	50
95	0	0	1770	12	2624	49
96	0	0	1959	10	2626	50
97	0	0	2162	10	2628	51
98	0	0	2391	11	2629	49
99	0	0	2581	11	2630	50
100	0	0	2701	10	2628	50
101	0	0	2742	12	2630	49
102	0	0	2897	11	2624	49
103	0	0	2910	6	2623	48
104	0	0	2668	6	2622	51
105	0	0	2410	7	2624	50
106	0	0	2099	7	2625	49
107	0	0	1741	7	2625	48
108	0	0	1494	5	2627	48
109	0	0	1343	7	2627	50
110	0	0	1260	5	2626	50
111	0	0	1236	9	2624	49
112	0	0	1211	7	2622	51
113	0	0	1282	10	2622	50
114	0	0	1508	9	2621	51
115	0	0	1718	10	2622	51
116	0	0	1927	10	2624	50
117	0	0	2152	10	2625	50
118	0	0	2407	10	2627	49
119	0	0	2614	13	2625	50
120	0	0	2750	10	2626	49
121	0	0	2806	11	2624	48
122	0	0	2978	11	2621	50
123	0	0	3008	6	2620	48
124	0	0	2757	4	2621	50
125	0	0	2481	6	2621	51
126	0	0	2150	8	2622	50
127	0	0	1758	3	2624	49
0	0	0	1477	4	2625	48
1	0	0	1302	7	2626	49
2	0	0	1201	6	2625	49
3	0	0	1164	7	2622	53
4	0	0	1129	7	2620	50
5	0	0	1197	10	2620	50
6	0	0	1435	10	2620	54
7	0	0	1668	10	2621	51
8	0	0	1895	10	2622	51
9	0	0	2143	9	2624	50
10	0	0	2419	10	2625	47
11	0	0	2658	9	2625	50
12	0	0	2812	13	2624	48
13	0	0	2881	11	2622	50
14	0	0	3072	7	2620	50
15	0	0	3105	7	2619	51
16	0	0	2838	6	2620	51
17	0	0	2550	6	2620	50
18	0	0	2192	5	2623	51
19	0	0	1769	6	2624	49
20	0	0	1456	6	2625	48
21	0	0	1263	7	2625	50
22	0	0	1144	6	2624	48
23	0	0	1098	7	2622	51
24	0	0	1067	7	2619	50
25	0	0	1136	11	2619	52
26	0	0	1383	10	2620	52
27	0	0	1631	10	2620	51
28	0	0	1878	10	2621	51
29	0	0	2140	10	2624	50
30	0	0	2434	9	2624	50
31	0	0	2695	10	2624	50
32	0	0	2866	11	2624	49
33	0	0	2942	10	2622	50
34	0	0	3156	10	2620	50
35	0	0	3200	7	2620	50
36	0	0	2929	7	2621	51
37	0	0	2621	6	2621	50
38	0	0	2239	5	2622	50
39	0	0	1792	6	2624	51
40	0	0	1448	7	2625	50
41	0	0	1237	6	2626	50
42	0	0	1105	6	2624	50
43	0	0	1045	7	2622	50
44	0	0	1017	5	2620	50
45	0	0	1080	9	2618	53
46	0	0	1337	10	2620	53
47	0	0	1596	11	2620	51
48	0	0	1848	9	2622	51
49	0	0	2128	8	2624	49
50	0	0	2446	9	2624	51
51	0	0	2724	9	2626	50
52	0	0	2910	10	2625	47
53	0	0	2996	11	2622	50
54	0	0	3217	8	2621	50
55	0	0	3274	7	2620	51
56	0	0	2987	10	2620	51
57	0	0	2668	6	2621	48
58	0	0	2275	6	2622	51
59	0	0	1804	4	2624	49
60	0	0	1431	4	2624	51
61	0	0	1199	6	2624	48
62	0	0	1057	3	2624	50
63	0	0	991	7	2622	51
64	0	0	953	6	2619	51
65	0	0	1015	9	2620	51
66	0	0	1282	10	2620	51
67	0	0	1555	10	2621	50
68	0	0	1824	7	2622	51
69	0	0	2110	10	2624	49
70	0	0	2450	11	2625	49
71	0	0	2743	11	2626	49
72	0	0	2945	10	2625	49
73	0	0	3037	13	2624	50
74	0	0	3263	10	2620	50
75	0	0	3329	7	2620	50
76	0	0	3041	6	2619	51
77	0	0	2709	7	2621	52
78	0	0	2296	8	2621	51
79	0	0	1806	6	2623	52
80	0	0	1420	5	2624	51
81	0	0	1170	6	2625	50
82	0	0	1012	5	2624	48
83	0	0	935	7	2622	51
84	0	0	887	7	2621	50
85	0	0	953	10	2619	51
86	0	0	1226	9	2619	51
87	0	0	1509	10	2621	51
88	0	0	1785	5	2622	52
89	0	0	2091	10	2624	49
90	0	0	2440	9	2625	49
91	0	0	2751	10	2625	49
92	0	0	2965	9	2623	51
93	0	0	3077	11	2622	51
94	0	0	3323	10	2619	52
95	0	0	3399	7	2619	47
96	0	0	3099	7	2620	51
97	0	0	2755	6	2620	50
98	0	0	2329	6	2621	51
99	0	0	1808	4	2623	52
100	0	0	1397	6	2624	49
101	0	0	1123	6	2624	49
102	0	0	948	6	2624	50
103	0	0	862	7	2622	51
104	0	0	804	6	2619	51
105	0	0	866	11	2619	51
106	0	0	1157	9	2619	51
107	0	0	1447	10	2620	51
108	0	0	1744	10	2621	50
109	0	0	2071	9	2623	51
110	0	0	2441	12	2624	48
111	0	0	2778	9	2624	50
112	0	0	3013	10	2623	51
113	0	0	3138	10	2622	50
114	0	0	3399	9	2620	50
115	0	0	3491	7	2619	48
116	0	0	3183	6	2618	50
117	0	0	2827	6	2620	50
118	0	0	2377	7	2622	51
119	0	0	1825	6	2622	50
120	0	0	1390	6	2624	48
121	0	0	1095	6	2623	51
122	0	0	903	6	2623	51
123	0	0	801	6	2621	51
124	0	0	735	6	2619	47
125	0	0	800	11	2618	48
126	0	0	1103	9	2617	51
127	0	0	1415	8	2617	50
0	0	0	1730	10	2620	51
1	0	0	2080	10	2621	53
2	0	0	2483	10	2623	49
3	0	0	2841	8	2624	49
4	0	0	3090	9	2622	51
5	0	0	3227	11	2621	50
6	0	0	3490	10	2619	50
7	0	0	3600	5	2618	48
8	0	0	3287	6	2617	51
9	0	0	2909	6	2619	50
10	0	0	2447	6	2620	51
11	0	0	1861	5	2622	51
12	0	0	1394	6	2623	48
13	0	0	1092	6	2622	51
14	0	0	898	5	2621	49
15	0	0	807	8	2620	51
16	0	0	759	6	2617	51
17	0	0	822	10	2616	48
18	0	0	1128	11	2617	50
19	0	0	1446	10	2617	50
20	0	0	1767	9	2619	52
21	0	0	2118	10	2620	51
22	0	0	2522	9	2622	50
23	0	0	2887	10	2621	48
24	0	0	3152	10	2621	50
25	0	0	3290	11	2620	51
26	0	0	3553	10	2617	51
27	0	0	3688	6	2617	48
28	0	0	3354	8	2617	51
29	0	0	2963	6	2617	50
30	0	0	2499	5	2619	51
31	0	0	1916	6	2619	51
32	0	0	1444	4	2621	49
33	0	0	1148	6	2621	49
34	0	0	956	6	2620	51
35	0	0	871	7	2619	50
36	0	0	834	7	2616	52
37	0	0	902	11	2616	48
38	0	0	1212	10	2616	50
39	0	0	1531	9	2616	52
40	0	0	1846	10	2618	52
41	0	0	2198	10	2619	50
42	0	0	2588	10	2621	48
43	0	0	2937	10	2621	48
44	0	0	3186	9	2619	48
45	0	0	3312	7	2618	49
46	0	0	3548	10	2616	51
47	0	0	3645	6	2615	50
48	0	0	3328	6	2615	49
49	0	0	2951	4	2615	50
50	0	0	2501	4	2617	50
51	0	0	1959	6	2619	50
52	0	0	1531	6	2619	48
53	0	0	1263	6	2620	51
54	0	0	1094	6	2618	50
55	0	0	1010	4	2617	51
56	0	0	969	5	2615	48
57	0	0	1039	10	2614	52
58	0	0	1331	10	2614	48
59	0	0	1640	9	2615	50
60	0	0	1930	14	2616	51
61	0	0	2251	10	2617	50
62	0	0	2603	10	2619	48
63	0	0	2905	10	2619	51
64	0	0	3113	11	2618	50
65	0	0	3214	7	2617	49
66	0	0	3424	11	2613	50
67	0	0	3484	7	2614	52
68	0	0	3185	4	2613	49
69	0	0	2844	5	2613	50
70	0	0	2447	4	2615	49
71	0	0	1961	6	2617	50
72	0	0	1579	4	2617	52
73	0	0	1341	7	2618	50
74	0	0	1203	7	2617	50
75	0	0	1155	8	2615	51
76	0	0	1131	8	2612	50
77	0	0	1197	11	2612	47
78	0	0	1455	10	2612	50
79	0	0	1719	10	2613	49
80	0	0	1978	11	2613	50
81	0	0	2250	12	2615	51
82	0	0	2541	9	2616	52
83	0	0	2803	10	2615	49
84	0	0	2982	7	2615	50
85	0	0	3065	8	2614	48
86	0	0	3244	9	2612	50
87	0	0	3283	5	2610	50
88	0	0	3012	7	2610	49
89	0	0	2707	6	2611	50
90	0	0	2348	10	2612	52
91	0	0	1927	7	2614	50
92	0	0	1602	5	2615	52
93	0	0	1406	6	2615	50
94	0	0	1292	8	2614	50
95	0	0	1247	7	2613	49
96	0	0	1229	6	2610	47
97	0	0	1297	8	2608	52
98	0	0	1532	10	2608	50
99	0	0	1769	10	2609	50
100	0	0	1995	14	2609	51
101	0	0	2229	13	2612	51
102	0	0	2489	10	2612	47
103	0	0	2706	10	2612	48
104	0	0	2844	10	2612	49
105	0	0	2903	7	2610	49
106	0	0	3048	13	2608	50
107	0	0	3072	7	2607	52
108	0	0	2826	6	2606	50
109	0	0	2555	7	2607	52
110	0	0	2238	6	2609	49
111	0	0	1870	4	2610	49
112	0	0	1593	6	2610	47
113	0	0	1428	6	2609	50
114	0	0	1339	7	2608	50
115	0	0	1309	11	2606	51
116	0	0	1300	11	2605	50
117	0	0	1370	10	2603	47
118	0	0	1587	10	2604	51
119	0	0	1797	7	2604	50
120	0	0	1994	15	2604	51
121	0	0	2202	13	2607	50
122	0	0	2423	10	2607	47
123	0	0	2613	10	2606	51
124	0	0	2741	7	2606	50
125	0	0	2782	11	2604	49
126	0	0	2915	13	2603	49
127	0	0	2934	7	2601	47
0	0	0	2702	6	2601	49
1	0	0	2454	3	2601	50
2	0	0	2162	5	2602	50
3	0	0	1826	7	2603	48
4	0	0	1578	6	2603	51
5	0	0	1437	7	2603	50
6	0	0	1365	7	2602	50
7	0	0	1354	11	2601	50
8	0	0	1358	10	2599	53
9	0	0	1419	8	2597	51
10	0	0	1611	10	2598	49
11	0	0	1799	12	2597	49
12	0	0	1981	10	2599	49
13	0	0	2171	9	2600	47
14	0	0	2379	10	2600	51
15	0	0	2556	11	2601	50
16	0	0	2664	10	2599	49
17	0	0	2701	10	2598	50
18	0	0	2811	11	2595	49
19	0	0	2826	6	2593	47
20	0	0	2610	7	2593	49
21	0	0	2375	8	2593	50
22	0	0	2102	7	2594	49
23	0	0	1792	5	2595	48
24	0	0	1574	6	2595	47
25	0	0	1444	6	2595	50
26	0	0	1378	6	2594	49
27	0	0	1367	11	2592	49
28	0	0	1359	7	2590	50
29	0	0	1423	9	2589	50
30	0	0	1617	10	2588	47
31	0	0	1798	10	2590	49
32	0	0	1971	13	2589	50
33	0	0	2158	12	2591	50
34	0	0	2356	9	2597	47
35	0	0	2515	13	2590	50
36	0	0	2613	9	2589	49
37	0	0	2643	10	2588	49
38	0	0	2754	10	2585	49
39	0	0	2771	5	2583	51
40	0	0	2563	6	2582	49
41	0	0	2342	7	2583	49
42	0	0	2083	7	2584	49
43	0	0	1775	4	2584	50
44	0	0	1557	6	2585	49
45	0	0	1425	6	2584	50
46	0	0	1349	7	2583	48
47	0	0	1323	7	2581	49
48	0	0	1312	6	2579	47
49	0	0	1368	8	2578	49
50	0	0	1556	9	2578	48
51	0	0	1734	10	2577	49
52	0	0	1904	10	2577	48
53	0	0	2092	10	2578	49
54	0	0	2295	14	2579	48
55	0	0	2463	10	2578	47
56	0	0	2574	10	2576	49
57	0	0	2619	10	2575	50
58	0	0	2739	10	2572	47
59	0	0	2777	8	2571	48
60	0	0	2567	8	2571	50
61	0	0	2332	6	2571	49
62	0	0	2063	6	2571	51
63	0	0	1728	6	2572	51
64	0	0	1481	5	2572	47
65	0	0	1328	6	2571	47
66	0	0	1244	7	2570	49
67	0	0	1221	8	2569	50
68	0	0	1206	7	2567	49
69	0	0	1256	9	2564	48
70	0	0	1461	10	2564	48
71	0	0	1665	10	2564	51
72	0	0	1863	10	2564	48
73	0	0	2085	8	2565	48
74	0	0	2329	11	2565	47
75	0	0	2539	10	2565	48
76	0	0	2678	11	2564	49
77	0	0	2735	10	2562	47
78	0	0	2883	10	2560	47
79	0	0	2929	7	2558	48
80	0	0	2705	6	2557	49
81	0	0	2451	6	2557	51
82	0	0	2161	6	2558	50
83	0	0	1806	7	2561	48
84	0	0	1544	6	2560	48
85	0	0	1390	6	2560	47
86	0	0	1308	7	2557	53
87	0	0	1294	9	2555	52
88	0	0	1285	5	2553	49
89	0	0	1354	10	2552	48
90	0	0	1575	9	2551	48
91	0	0	1801	10	2551	49
92	0	0	2004	10	2552	49
93	0	0	2223	7	2553	48
94	0	0	2449	9	2553	48
95	0	0	2640	11	2553	48
96	0	0	2756	10	2552	49
97	0	0	2799	12	2551	49
98	0	0	2920	7	2549	49
99	0	0	2945	7	2548	48
100	0	0	2710	6	2547	48
101	0	0	2456	7	2548	49
102	0	0	2180	6	2546	48
103	0	0	1836	2	2548	48
104	0	0	1588	7	2548	52
105	0	0	1458	7	2547	47
106	0	0	1394	7	2548	50
107	0	0	1390	10	2544	51
108	0	0	1404	6	2542	47
109	0	0	1465	10	2542	48
110	0	0	1658	10	2542	48
111	0	0	1855	10	2542	49
112	0	0	2040	10	2542	51
113	0	0	2219	7	2543	47
114	0	0	2414	10	2544	48
115	0	0	2585	10	2543	48
116	0	0	2678	10	2543	50
117	0	0	2705	10	2542	49
118	0	0	2815	10	2540	49
119	0	0	2817	6	2538	49
120	0	0	2600	4	2538	49
121	0	0	2359	7	2538	49
122	0	0	2095	6	2539	47
123	0	0	1790	7	2540	49
124	0	0	1575	7	2540	50
125	0	0	1468	6	2540	49
126	0	0	1421	7	2539	51
127	0	0	1427	10	2537	53
0	0	0	1444	5	2535	48
1	0	0	1508	9	2534	48
2	0	0	1697	10	2534	48
3	0	0	1885	10	2534	49
4	0	0	2053	10	2535	49
5	0	0	2222	10	2536	49
6	0	0	2393	11	2537	52
7	0	0	2540	9	2536	50
8	0	0	2620	10	2535	49
9	0	0	2628	9	2534	49
10	0	0	2719	9	2532	48
11	0	0	2718	5	2531	48
12	0	0	2507	7	2530	48
13	0	0	2282	6	2532	50
14	0	0	2040	6	2533	49
15	0	0	1767	3	2532	48
16	0	0	1580	7	2534	49
17	0	0	1485	7	2532	48
18	0	0	1448	7	2533	49
19	0	0	1459	11	2531	48
20	0	0	1475	7	2528	45
21	0	0	1547	10	2528	50
22	0	0	1726	10	2527	50
23	0	0	1905	10	2528	47
24	0	0	2061	10	2529	48
25	0	0	2217	10	2527	49
26	0	0	2385	11	2530	49
27	0	0	2512	10	2529	48
28	0	0	2579	9	2529	48
29	0	0	2588	9	2527	49
30	0	0	2673	10	2526	49
31	0	0	2669	7	2525	49
32	0	0	2453	6	2524	48
33	0	0	2242	5	2526	49
34	0	0	2017	6	2526	49
35	0	0	1751	3	2527	50
36	0	0	1577	7	2528	48
37	0	0	1486	7	2528	48
38	0	0	1457	7	2526	49
39	0	0	1477	11	2525	49
40	0	0	1499	7	2522	50
41	0	0	1571	11	2521	50
42	0	0	1750	11	2521	49
43	0	0	1913	9	2522	49
44	0	0	2064	11	2523	48
45	0	0	2218	9	2523	48
46	0	0	2378	11	2524	51
47	0	0	2495	9	2523	49
48	0	0	2561	10	2523	49
49	0	0	2564	9	2523	48
50	0	0	2643	10	2521	49
51	0	0	2638	5	2520	49
52	0	0	2417	6	2519	48
53	0	0	2211	5	2520	49
54	0	0	1988	9	2520	49
55	0	0	1733	7	2521	48
56	0	0	1571	4	2521	47
57	0	0	1491	7	2521	50
58	0	0	1470	8	2520	48
59	0	0	1490	10	2518	48
60	0	0	1512	10	2516	48
61	0	0	1584	10	2517	52
62	0	0	1761	11	2515	47
63	0	0	1928	10	2514	49
64	0	0	2072	7	2517	48
65	0	0	2216	11	2517	48
66	0	0	2374	11	2519	50
67	0	0	2487	9	2518	52
68	0	0	2542	10	2518	48
69	0	0	2538	7	2516	47
70	0	0	2610	12	2515	48
71	0	0	2609	8	2514	51
72	0	0	2398	10	2513	50
73	0	0	2189	6	2514	48
74	0	0	1971	5	2514	48
75	0	0	1723	8	2515	48
76	0	0	1566	6	2515	52
77	0	0	1490	8	2514	54
78	0	0	1472	8	2515	48
79	0	0	1497	12	2514	46
80	0	0	1522	8	2511	49
81	0	0	1588	10	2511	48
82	0	0	1765	10	2510	51
83	0	0	1928	10	2511	48
84	0	0	2073	7	2512	48
85	0	0	2217	8	2512	49
86	0	0	2369	11	2514	48
87	0	0	2483	10	2514	48
88	0	0	2538	8	2513	48
89	0	0	2529	8	2512	48
90	0	0	2604	8	2509	50
91	0	0	2599	5	2508	51
92	0	0	2395	6	2508	51
93	0	0	2182	5	2508	48
94	0	0	1967	7	2509	49
95	0	0	1714	4	2510	49
96	0	0	1557	7	2511	51
97	0	0	1484	7	2512	47
98	0	0	1470	8	2510	49
99	0	0	1499	10	2509	48
100	0	0	1531	8	2508	49
101	0	0	1594	11	2507	47
102	0	0	1770	10	2507	48
103	0	0	1936	11	2508	48
104	0	0	2080	10	2509	47
105	0	0	2218	8	2509	48
106	0	0	2367	10	2510	47
107	0	0	2481	10	2510	51
108	0	0	2538	12	2510	49
109	0	0	2534	8	2508	47
110	0	0	2609	12	2506	50
111	0	0	2603	7	2506	49
112	0	0	2396	7	2505	47
113	0	0	2186	7	2506	48
114	0	0	1970	6	2507	47
115	0	0	1720	5	2508	32
116	0	0	1560	6	2509	47
117	0	0	1491	6	2510	48
118	0	0	1479	9	2509	48
119	0	0	1502	10	2508	50
120	0	0	1532	12	2506	48
121	0	0	1600	10	2505	49
122	0	0	1778	10	2505	49
123	0	0	1938	12	2506	48
124	0	0	2080	11	2507	48
125	0	0	2223	8	2508	49
126	0	0	2368	10	2509	48
127	0	0	2491	7	2508	50
0	0	0	2544	11	2508	48
1	0	0	2544	9	2507	48
2	0	0	2618	12	2506	48
3	0	0	2607	6	2505	48
4	0	0	2399	7	2505	47
5	0	0	2194	7	2506	48
6	0	0	1984	4	2507	48
7	0	0	1735	8	2508	48
8	0	0	1577	5	2509	48
9	0	0	1504	7	2509	46
10	0	0	1486	10	2510	49
11	0	0	1508	10	2508	50
12	0	0	1531	7	2507	48
13	0	0	1598	8	2505	48
14	0	0	1780	10	2505	47
15	0	0	1947	11	2506	48
16	0	0	2083	10	2506	47
17	0	0	2232	12	2508	48
18	0	0	2377	10	2509	49
19	0	0	2489	10	2509	48
20	0	0	2550	11	2510	49
21	0	0	2544	8	2509	47
22	0	0	2613	11	2508	48
23	0	0	2606	7	2506	48
24	0	0	2407	6	2506	48
25	0	0	2200	8	2508	48
26	0	0	1983	7	2509	47
27	0	0	1738	8	2510	48
28	0	0	1583	6	2510	50
29	0	0	1513	8	2511	48
30	0	0	1499	9	2510	49
31	0	0	1521	10	2509	47
32	0	0	1556	9	2507	48
33	0	0	1618	8	2507	48
34	0	0	1785	10	2506	45
35	0	0	1949	12	2507	48
36	0	0	2090	11	2509	49
37	0	0	2236	14	2510	48
38	0	0	2377	10	2511	48
39	0	0	2489	10	2511	48
40	0	0	2548	9	2512	48
41	0	0	2546	12	2510	48
42	0	0	2613	12	2509	48
43	0	0	2607	7	2508	48
44	0	0	2411	6	2508	48
45	0	0	2208	7	2509	49
46	0	0	2004	6	2510	48
47	0	0	1761	7	2511	48
48	0	0	1604	6	2512	48
49	0	0	1532	7	2511	48
50	0	0	1514	8	2511	49
51	0	0	1532	11	2512	49
52	0	0	1555	12	2509	46
53	0	0	1619	7	2508	50
54	0	0	1791	10	2508	48
55	0	0	1954	11	2509	48
56	0	0	2089	11	2511	49
57	0	0	2232	3	2512	48
58	0	0	2373	9	2513	48
59	0	0	2486	10	2513	48
60	0	0	2539	8	2514	48
61	0	0	2542	13	2513	45
62	0	0	2609	15	2511	48
63	0	0	2600	6	2510	49
64	0	0	2399	6	2510	48
65	0	0	2199	5	2511	49
66	0	0	1994	7	2512	45
67	0	0	1755	7	2513	48
68	0	0	1597	6	2515	48
69	0	0	1532	7	2515	48
70	0	0	1521	9	2514	48
71	0	0	1549	10	2514	48
72	0	0	1578	11	2512	48
73	0	0	1639	10	2512	48
74	0	0	1806	10	2511	48
75	0	0	1962	12	2512	47
76	0	0	2096	10	2514	44
77	0	0	2230	11	2516	48
78	0	0	2364	8	2517	50
79	0	0	2475	10	2517	48
80	0	0	2525	11	2516	48
81	0	0	2522	9	2516	47
82	0	0	2590	11	2514	48
83	0	0	2584	7	2514	48
84	0	0	2391	6	2513	48
85	0	0	2190	3	2515	48
86	0	0	1984	6	2515	47
87	0	0	1763	2	2518	48
88	0	0	1617	7	2519	47
89	0	0	1561	8	2519	48
90	0	0	1551	8	2519	49
91	0	0	1577	11	2519	48
92	0	0	1610	5	2517	48
93	0	0	1671	9	2517	48
94	0	0	1833	10	2516	50
95	0	0	1988	11	2513	48
96	0	0	2117	11	2518	47
97	0	0	2241	7	2520	48
98	0	0	2365	10	2522	49
99	0	0	2467	10	2522	48
100	0	0	2514	11	2522	48
101	0	0	2498	9	2521	47
102	0	0	2558	8	2520	48
103	0	0	2544	6	2519	51
104	0	0	2358	7	2519	47
105	0	0	2167	6	2520	48
106	0	0	1975	4	2522	49
107	0	0	1761	5	2523	49
108	0	0	1625	7	2526	49
109	0	0	1574	7	2526	48
110	0	0	1570	10	2526	48
111	0	0	1600	10	2525	49
112	0	0	1635	11	2523	49
113	0	0	1694	11	2522	47
114	0	0	1852	10	2521	48
115	0	0	2003	14	2523	48
116	0	0	2129	8	2524	50
117	0	0	2247	9	2525	49
118	0	0	2361	10	2528	48
119	0	0	2449	12	2527	52
120	0	0	2484	10	2528	48
121	0	0	2472	9	2526	52
122	0	0	2525	12	2525	50
123	0	0	2508	7	2524	48
124	0	0	2327	6	2524	47
125	0	0	2148	10	2526	47
126	0	0	1963	7	2526	48
127	0	0	1755	7	2528	48
0	0	0	1632	7	2529	48
1	0	0	1587	7	2529	47
2	0	0	1588	10	2529	50
3	0	0	1621	8	2527	49
4	0	0	1662	8	2525	51
5	0	0	1725	12	2525	51
6	0	0	1876	10	2524	52
7	0	0	2016	10	2526	48
8	0	0	2138	7	2527	49
9	0	0	2253	11	2529	49
10	0	0	2361	11	2531	48
11	0	0	2437	7	2531	47
12	0	0	2472	10	2531	49
13	0	0	2453	6	2530	48
14	0	0	2494	8	2528	50
15	0	0	2474	8	2527	49
16	0	0	2293	10	2527	47
17	0	0	2123	7	2528	49
18	0	0	1951	6	2529	48
19	0	0	1752	4	2531	51
20	0	0	1637	7	2533	48
21	0	0	1598	7	2533	47
22	0	0	1607	10	2532	48
23	0	0	1643	11	2531	49
24	0	0	1686	9	2529	48
25	0	0	1742	10	2528	48
26	0	0	1887	11	2529	48
27	0	0	2023	10	2529	48
28	0	0	2137	10	2532	49
29	0	0	2248	11	2534	48
30	0	0	2352	8	2535	49
31	0	0	2425	10	2537	49
32	0	0	2451	11	2536	49
33	0	0	2422	7	2536	48
34	0	0	2466	10	2533	48
35	0	0	2449	7	2531	47
36	0	0	2274	6	2531	47
37	0	0	2102	10	2533	48
38	0	0	1938	7	2535	48
39	0	0	1754	10	2536	47
40	0	0	1644	8	2538	49
41	0	0	1620	8	2538	48
42	0	0	1633	10	2538	49
43	0	0	1666	11	2536	48
44	0	0	1712	8	2534	51
45	0	0	1769	10	2533	49
46	0	0	1907	11	2533	47
47	0	0	2037	10	2533	50
48	0	0	2144	9	2535	49
49	0	0	2241	8	2537	50
50	0	0	2335	11	2538	48
51	0	0	2405	10	2539	49
52	0	0	2428	11	2537	49
53	0	0	2404	7	2536	50
54	0	0	2439	9	2533	49
55	0	0	2416	10	2531	48
56	0	0	2250	6	2531	45
57	0	0	2087	7	2531	48
58	0	0	1936	5	2533	49
59	0	0	1765	7	2535	52
60	0	0	1666	7	2536	49
61	0	0	1638	8	2536	47
62	0	0	1649	10	2536	48
63	0	0	1689	9	2534	49
64	0	0	1738	8	2531	51
65	0	0	1793	8	2530	48
66	0	0	1929	10	2530	48
67	0	0	2057	11	2530	48
68	0	0	2151	10	2532	47
69	0	0	2244	11	2533	48
70	0	0	2329	11	2535	49
71	0	0	2393	11	2535	47
72	0	0	2409	11	2534	48
73	0	0	2383	8	2533	52
74	0	0	2415	8	2530	49
75	0	0	2392	4	2528	48
76	0	0	2227	7	2528	48
77	0	0	2068	6	2529	49
78	0	0	1924	6	2531	52
79	0	0	1766	10	2533	48
80	0	0	1677	8	2535	49
81	0	0	1658	9	2535	48
82	0	0	1674	10	2536	49
83	0	0	1712	10	2535	48
84	0	0	1755	11	2532	48
85	0	0	1810	9	2530	49
86	0	0	1944	10	2528	48
87	0	0	2067	10	2532	48
88	0	0	2156	10	2535	47
89	0	0	2240	10	2538	48
90	0	0	2320	8	2542	50
91	0	0	2378	11	2544	48
92	0	0	2394	12	2544	49
93	0	0	2367	4	2545	49
94	0	0	2390	12	2543	49
95	0	0	2363	7	2543	50
96	0	0	2210	7	2545	48
97	0	0	2061	4	2548	49
98	0	0	1918	7	2552	47
99	0	0	1769	7	2553	48
100	0	0	1684	6	2557	50
101	0	0	1671	9	2560	47
102	0	0	1694	10	2560	48
103	0	0	1736	11	2560	47
104	0	0	1784	9	2557	50
105	0	0	1839	10	2557	50
106	0	0	1962	11	2557	50
107	0	0	2072	12	2562	48
108	0	0	2158	8	2565	49
109	0	0	2242	10	2568	48
110	0	0	2316	8	2572	50
111	0	0	2370	1	2575	44
112	0	0	2381	9	2577	48
113	0	0	2354	6	2577	49
114	0	0	2375	11	2574	48
115	0	0	2349	5	2575	50
116	0	0	2194	6	2577	49
117	0	0	2046	7	2580	48
118	0	0	1916	6	2583	49
119	0	0	1773	7	2587	50
120	0	0	1701	7	2590	50
121	0	0	1691	10	2592	48
122	0	0	1704	12	2593	49
123	0	0	1743	14	2593	48
124	0	0	1792	11	2592	49
125	0	0	1853	8	2592	49
126	0	0	1976	10	2593	48
127	0	0	2085	11	2596	49
0	0	0	2164	8	2600	50
1	0	0	2245	12	2603	49
2	0	0	2319	11	2607	50
3	0	0	2369	11	2610	50
4	0	0	2371	10	2610	50
5	0	0	2334	7	2611	50
6	0	0	2352	11	2610	49
7	0	0	2326	3	2609	50
8	0	0	2181	7	2612	48
9	0	0	2042	8	2615	50
10	0	0	1916	8	2619	51
11	0	0	1781	6	2622	48
12	0	0	1710	6	2628	50
13	0	0	1700	10	2631	51
14	0	0	1720	10	2633	50
15	0	0	1764	8	2634	51
16	0	0	1810	11	2633	50
17	0	0	1869	10	2635	50
18	0	0	1991	10	2637	50
19	0	0	2099	11	2642	50
20	0	0	2173	10	2645	49
21	0	0	2250	13	2649	50
22	0	0	2320	10	2654	51
23	0	0	2363	11	2656	52
24	0	0	2359	9	2658	51
25	0	0	2320	7	2659	51
26	0	0	2335	11	2657	50
27	0	0	2307	10	2658	51
28	0	0	2164	6	2659	50
29	0	0	2031	6	2663	51
30	0	0	1906	8	2667	51
31	0	0	1779	7	2670	52
32	0	0	1718	7	2674	51
33	0	0	1716	10	2676	50
34	0	0	1742	11	2679	51
35	0	0	1788	10	2679	52
36	0	0	1835	11	2677	52
37	0	0	1891	10	2676	52
38	0	0	2011	10	2680	48
39	0	0	2114	10	2680	52
40	0	0	2186	11	2683	52
41	0	0	2256	11	2687	53
42	0	0	2316	11	2689	51
43	0	0	2358	11	2691	50
44	0	0	2353	7	2693	49
45	0	0	2314	7	2691	51
46	0	0	2323	11	2691	51
47	0	0	2288	11	2690	51
48	0	0	2144	6	2690	51
49	0	0	2015	3	2694	50
50	0	0	1905	7	2696	52
51	0	0	1790	7	2699	52
52	0	0	1738	7	2701	52
53	0	0	1742	10	2703	52
54	0	0	1774	11	2703	52
55	0	0	1821	10	2703	52
56	0	0	1867	10	2701	52
57	0	0	1922	15	2700	51
58	0	0	2033	11	2701	52
59	0	0	2126	11	2701	51
60	0	0	2191	10	2705	53
61	0	0	2254	10	2708	48
62	0	0	2306	12	2710	51
63	0	0	2335	11	2712	52
64	0	0	2327	7	2711	52
65	0	0	2287	3	2711	53
66	0	0	2290	11	2708	54
67	0	0	2254	8	2708	53
68	0	0	2122	7	2708	51
69	0	0	2007	6	2710	52
70	0	0	1906	7	2713	48
71	0	0	1799	8	2717	53
72	0	0	1756	11	2718	53
73	0	0	1765	11	2718	52
74	0	0	1797	8	2719	52
75	0	0	1851	11	2718	48
76	0	0	1897	11	2716	53
77	0	0	1947	10	2714	53
78	0	0	2050	11	2715	52
79	0	0	2137	8	2717	52
80	0	0	2198	11	2720	48
81	0	0	2246	10	2723	52
82	0	0	2286	13	2724	52
83	0	0	2306	11	2725	52
84	0	0	2283	7	2725	52
85	0	0	2247	8	2724	48
86	0	0	2247	11	2723	52
87	0	0	2215	5	2721	52
88	0	0	2095	7	2721	52
89	0	0	1988	4	2723	52
90	0	0	1902	7	2725	48
91	0	0	1819	8	2728	53
92	0	0	1788	10	2729	52
93	0	0	1802	10	2729	53
94	0	0	1841	8	2730	53
95	0	0	1887	10	2729	51
96	0	0	1934	11	2726	52
97	0	0	1982	11	2725	52
98	0	0	2077	10	2724	53
99	0	0	2153	8	2727	52
100	0	0	2208	10	2729	54
101	0	0	2251	10	2730	52
102	0	0	2285	15	2733	52
103	0	0	2296	10	2734	53
104	0	0	2273	8	2733	53
105	0	0	2228	7	2732	53
106	0	0	2220	11	2729	55
107	0	0	2181	8	2727	52
108	0	0	2070	7	2727	52
109	0	0	1978	7	2728	52
110	0	0	1901	7	2731	48
111	0	0	1830	7	2733	55
112	0	0	1814	8	2734	53
113	0	0	1831	10	2735	52
114	0	0	1873	11	2734	52
115	0	0	1926	11	2733	52
116	0	0	1976	9	2731	53
117	0	0	2026	11	2730	52
118	0	0	2110	11	2729	52
119	0	0	2179	10	2732	53
120	0	0	2228	13	2733	54
121	0	0	2260	10	2736	52
122	0	0	2284	9	2737	52
123	0	0	2287	11	2737	53
124	0	0	2260	8	2737	53
125	0	0	2210	8	2735	55
126	0	0	2197	14	2732	51
127	0	0	2145	9	2731	53
0	0	0	2046	6	2732	53
1	0	0	1959	8	2732	52
2	0	0	1890	7	2735	53
3	0	0	1832	7	2738	52
4	0	0	1826	10	2739	53
5	0	0	1858	10	2740	53
6	0	0	1904	11	2739	53
7	0	0	1962	10	2737	53
8	0	0	2015	11	2735	53
9	0	0	2072	9	2733	53
10	0	0	2152	11	2733	52
11	0	0	2212	11	2735	53
12	0	0	2246	12	2736	54
13	0	0	2273	11	2738	51
14	0	0	2285	12	2740	53
15	0	0	2272	8	2740	52
16	0	0	2235	8	2740	53
17	0	0	2187	6	2738	51
18	0	0	2166	11	2736	51
19	0	0	2117	8	2734	52
20	0	0	2018	7	2734	54
21	0	0	1937	7	2736	53
22	0	0	1879	7	2738	51
23	0	0	1829	7	2740	52
24	0	0	1830	12	2742	53
25	0	0	1872	11	2743	52
26	0	0	1924	11	2741	53
27	0	0	1988	9	2740	52
28	0	0	2042	11	2742	52
29	0	0	2094	12	2736	52
30	0	0	2170	10	2736	52
31	0	0	2227	10	2738	53
32	0	0	2263	10	2739	53
33	0	0	2277	9	2740	53
34	0	0	2280	11	2743	52
35	0	0	2260	8	2743	54
36	0	0	2216	9	2742	52
37	0	0	2160	7	2741	52
38	0	0	2128	5	2738	52
39	0	0	2069	8	2736	53
40	0	0	1970	9	2737	53
41	0	0	1900	8	2738	53
42	0	0	1851	6	2740	53
43	0	0	1824	9	2742	53
44	0	0	1846	11	2743	54
45	0	0	1896	10	2743	53
46	0	0	1961	8	2743	53
47	0	0	2028	10	2741	53
48	0	0	2085	10	2738	50
49	0	0	2140	12	2737	52
50	0	0	2211	9	2737	52
51	0	0	2254	10	2739	52
52	0	0	2280	10	2741	55
53	0	0	2284	13	2742	53
54	0	0	2274	10	2744	53
55	0	0	2239	8	2744	53
56	0	0	2190	6	2745	53
57	0	0	2129	7	2742	53
58	0	0	2084	8	2740	53
59	0	0	2018	7	2737	53
60	0	0	1926	7	2737	53
61	0	0	1864	7	2739	52
62	0	0	1834	7	2740	52
63	0	0	1828	11	2742	50
64	0	0	1865	11	2744	52
65	0	0	1928	10	2744	53
66	0	0	2000	7	2743	53
67	0	0	2067	9	2742	53
68	0	0	2128	11	2739	53
69	0	0	2186	10	2738	53
70	0	0	2249	10	2737	52
71	0	0	2286	10	2739	55
72	0	0	2299	7	2740	52
73	0	0	2294	11	2742	50
74	0	0	2265	7	2744	53
75	0	0	2219	7	2745	53
76	0	0	2153	7	2744	53
77	0	0	2084	6	2742	51
78	0	0	2029	7	2739	52
79	0	0	1957	7	2737	51
80	0	0	1874	7	2737	52
81	0	0	1828	8	2738	53
82	0	0	1810	8	2740	52
83	0	0	1823	10	2743	52
84	0	0	1881	11	2744	51
85	0	0	1956	11	2745	53
86	0	0	2034	9	2744	53
87	0	0	2103	7	2742	53
88	0	0	2166	10	2739	53
89	0	0	2220	7	2738	53
90	0	0	2279	10	2738	53
91	0	0	2305	8	2740	53
92	0	0	2307	11	2741	53
93	0	0	2284	9	2743	53
94	0	0	2243	7	2745	52
95	0	0	2181	7	2743	53
96	0	0	2110	7	2744	53
97	0	0	2031	7	2743	53
98	0	0	1968	6	2739	53
99	0	0	1892	6	2739	52
100	0	0	1814	7	2738	52
101	0	0	1780	8	2739	55
102	0	0	1781	10	2741	54
103	0	0	1816	10	2744	53
104	0	0	1881	14	2745	53
105	0	0	1970	10	2746	55
106	0	0	2054	11	2744	52
107	0	0	2130	12	2744	54
108	0	0	2195	10	2741	53
109	0	0	2255	10	2739	53
110	0	0	2307	11	2739	51
111	0	0	2322	10	2740	54
112	0	0	2313	7	2742	54
113	0	0	2278	9	2743	52
114	0	0	2224	7	2745	53
115	0	0	2154	7	2745	53
116	0	0	2071	7	2745	53
117	0	0	1993	7	2743	52
118	0	0	1923	4	2739	52
119	0	0	1837	1	2740	52
120	0	0	1764	8	2739	51
121	0	0	1740	8	2740	53
122	0	0	1751	10	2743	54
123	0	0	1797	10	2745	53
124	0	0	1880	9	2746	54
125	0	0	1977	10	2748	53
126	0	0	2067	11	2746	53
127	0	0	2151	9	2745	53
0	0	0	2218	10	2741	54
1	0	0	2273	8	2740	52
2	0	0	2320	11	2739	53
3	0	0	2331	11	2741	51
4	0	0	2313	6	2743	54
5	0	0	2272	7	2744	54
6	0	0	2212	3	2746	54
7	0	0	2134	7	2746	52
8	0	0	2046	7	2746	53
9	0	0	1963	7	2745	54
10	0	0	1883	7	2743	53
11	0	0	1795	8	2740	54
12	0	0	1727	8	2740	53
13	0	0	1704	9	2742	52
14	0	0	1720	10	2744	52
15	0	0	1776	10	2745	54
16	0	0	1863	9	2747	53
17	0	0	1968	10	2747	54
18	0	0	2067	10	2747	53
19	0	0	2157	12	2747	53
20	0	0	2226	11	2741	53
21	0	0	2290	10	2741	55
22	0	0	2333	3	2740	53
23	0	0	2338	10	2741	49
24	0	0	2319	10	2743	52
25	0	0	2275	8	2745	54
26	0	0	2207	4	2747	54
27	0	0	2121	7	2747	54
28	0	0	2024	7	2747	53
29	0	0	1933	9	2745	52
30	0	0	1859	7	2742	53
31	0	0	1772	1	2741	52
32	0	0	1711	7	2740	51
33	0	0	1692	8	2742	53
34	0	0	1714	11	2743	52
35	0	0	1778	10	2746	54
36	0	0	1870	8	2747	53
37	0	0	1978	8	2745	53
38	0	0	2081	11	2747	53
39	0	0	2168	10	2745	51
40	0	0	2240	10	2742	53
41	0	0	2304	9	2741	52
42	0	0	2347	10	2740	53
43	0	0	2350	10	2743	53
44	0	0	2325	7	2744	55
45	0	0	2276	7	2746	54
46	0	0	2207	7	2748	53
47	0	0	2119	6	2748	53
48	0	0	2025	5	2749	54
49	0	0	1933	7	2747	55
50	0	0	1847	7	2742	53
51	0	0	1753	7	2741	53
52	0	0	1688	7	2740	52
53	0	0	1677	9	2743	52
54	0	0	1698	10	2745	53
55	0	0	1770	10	2745	54
56	0	0	1877	10	2748	53
57	0	0	1986	10	2748	53
58	0	0	2096	7	2748	52
59	0	0	2192	10	2746	51
60	0	0	2260	9	2744	52
61	0	0	2318	10	2741	53
62	0	0	2356	10	2741	51
63	0	0	2360	11	2742	54
64	0	0	2332	6	2744	56
65	0	0	2282	7	2747	54
66	0	0	2205	7	2748	53
67	0	0	2114	7	2749	53
68	0	0	2017	6	2747	53
69	0	0	1921	8	2745	54
70	0	0	1834	6	2742	53
71	0	0	1738	6	2741	52
72	0	0	1676	4	2740	55
