# bioPlux Text File Format
# Version: 1
# StartDateTime: 2011-07-18 12:51:23
# SamplingFrequency: 1000
# SampledChannels: 1 2 3 4
# SamplingResolution: 12
# AcquiringDevice: 00:07:80:42:0F:8B
# EndOfHeader
0	0	0	1443	1883	2030	46
1	0	0	869	1879	2031	48
2	0	0	510	1887	2032	46
3	0	0	306	1887	2031	47
4	0	0	195	1888	2029	47
5	0	0	137	1891	2026	43
6	0	0	209	1895	2025	46
7	0	0	778	1896	2026	46
8	0	0	1315	1897	2027	45
9	0	0	1871	1896	2029	45
10	0	0	2428	1895	2029	44
11	0	0	2981	1897	2028	43
12	0	0	3439	1894	2030	44
13	0	0	3719	1894	2028	41
14	0	0	3877	1892	2025	43
15	0	0	3966	1890	2021	41
16	0	0	4016	1890	2020	43
17	0	0	3652	1883	2021	42
18	0	0	3029	1882	2022	43
19	0	0	2224	1884	2024	44
20	0	0	1432	1883	2025	45
21	0	0	858	1885	2027	47
22	0	0	499	1886	2027	47
23	0	0	302	1887	2026	45
24	0	0	193	1889	2024	47
25	0	0	135	1891	2021	45
26	0	0	215	1897	2020	45
27	0	0	776	1896	2021	44
28	0	0	1308	1898	2022	44
29	0	0	1870	1896	2022	44
30	0	0	2424	1895	2024	43
31	0	0	2980	1896	2023	42
32	0	0	3443	1895	2024	42
33	0	0	3719	1893	2022	39
34	0	0	3877	1893	2019	41
35	0	0	3967	1890	2016	43
36	0	0	4014	1890	2015	44
37	0	0	3673	1883	2016	43
38	0	0	3066	1881	2017	43
39	0	0	2243	1883	2019	45
40	0	0	1457	1883	2020	45
41	0	0	878	1885	2021	44
42	0	0	513	1886	2022	46
43	0	0	307	1888	2020	43
44	0	0	196	1890	2017	47
45	0	0	138	1891	2015	47
46	0	0	192	1896	2014	46
47	0	0	759	1896	2015	45
48	0	0	1293	1897	2016	43
49	0	0	1861	1896	2018	43
50	0	0	2423	1896	2019	43
51	0	0	2987	1896	2019	43
52	0	0	3449	1894	2019	43
53	0	0	3722	1894	2017	41
54	0	0	3879	1892	2013	41
55	0	0	3968	1891	2011	43
56	0	0	4016	1891	2009	41
57	0	0	3701	1882	2011	45
58	0	0	3093	1883	2012	45
59	0	0	2260	1884	2012	46
60	0	0	1453	1883	2014	45
61	0	0	860	1885	2016	45
62	0	0	500	1886	2017	46
63	0	0	298	1889	2015	47
64	0	0	192	1890	2011	47
65	0	0	136	1891	2008	45
66	0	0	159	1897	2009	45
67	0	0	712	1895	2010	47
68	0	0	1257	1897	2011	43
69	0	0	1841	1897	2011	44
70	0	0	2420	1896	2013	44
71	0	0	2998	1895	2014	43
72	0	0	3457	1895	2014	41
73	0	0	3731	1894	2012	39
74	0	0	3885	1891	2009	42
75	0	0	3971	1890	2005	42
76	0	0	4016	1890	2005	42
77	0	0	3720	1884	2006	42
78	0	0	3099	1883	2006	42
79	0	0	2247	1882	2009	43
80	0	0	1433	1882	2010	45
81	0	0	839	1884	2011	46
82	0	0	490	1887	2012	49
83	0	0	295	1889	2011	46
84	0	0	191	1888	2007	45
85	0	0	135	1891	2006	44
86	0	0	132	1896	2005	46
87	0	0	694	1896	2004	44
88	0	0	1243	1897	2007	41
89	0	0	1837	1896	2007	45
90	0	0	2428	1895	2009	44
91	0	0	3018	1895	2010	43
92	0	0	3471	1893	2009	43
93	0	0	3739	1892	2008	39
94	0	0	3889	1891	2004	40
95	0	0	3973	1889	2001	41
96	0	0	4022	1889	2000	42
97	0	0	3750	1882	2000	43
98	0	0	3132	1882	2003	41
99	0	0	2268	1882	2004	43
100	0	0	1432	1882	2006	45
101	0	0	840	1883	2007	46
102	0	0	491	1885	2007	45
103	0	0	292	1887	2006	43
104	0	0	190	1888	2004	46
105	0	0	136	1890	2001	45
106	0	0	111	1892	2001	45
107	0	0	668	1895	2001	44
108	0	0	1227	1896	2003	44
109	0	0	1827	1895	2003	43
110	0	0	2432	1895	2005	43
111	0	0	3020	1894	2006	43
112	0	0	3467	1892	2005	43
113	0	0	3738	1893	2004	40
114	0	0	3890	1892	2000	42
115	0	0	3973	1889	1997	43
116	0	0	4017	1888	1997	42
117	0	0	3757	1882	1997	43
118	0	0	3145	1881	1999	44
119	0	0	2279	1881	1999	44
120	0	0	1439	1882	2002	44
121	0	0	846	1883	2003	45
122	0	0	492	1884	2003	45
123	0	0	295	1886	2003	44
124	0	0	190	1889	2000	46
125	0	0	135	1889	1998	45
126	0	0	107	1894	1997	45
127	0	0	655	1894	1998	47
0	0	0	1216	1895	1999	44
1	0	0	1823	1895	1999	43
2	0	0	2426	1894	2001	42
3	0	0	3012	1894	2002	42
4	0	0	3469	1894	2002	44
5	0	0	3736	1893	2001	40
6	0	0	3890	1890	1997	40
7	0	0	3972	1888	1993	43
8	0	0	4018	1887	1993	42
9	0	0	3757	1882	1992	42
10	0	0	3145	1880	1995	43
11	0	0	2279	1879	1996	44
12	0	0	1447	1882	1998	46
13	0	0	844	1883	1999	45
14	0	0	494	1884	2000	43
15	0	0	296	1886	1999	44
16	0	0	192	1888	1996	45
17	0	0	134	1890	1994	46
18	0	0	107	1894	1992	48
19	0	0	671	1894	1993	44
20	0	0	1212	1895	1995	46
21	0	0	1810	1895	1996	43
22	0	0	2404	1894	1997	43
23	0	0	2993	1893	1998	44
24	0	0	3450	1893	1997	42
25	0	0	3727	1891	1997	40
26	0	0	3883	1890	1992	41
27	0	0	3968	1888	1989	41
28	0	0	4015	1886	1989	42
29	0	0	3758	1881	1988	42
30	0	0	3141	1881	1992	41
31	0	0	2292	1876	1992	43
32	0	0	1464	1881	1994	44
33	0	0	858	1882	1996	45
34	0	0	504	1885	1996	45
35	0	0	303	1886	1995	45
36	0	0	194	1887	1992	43
37	0	0	136	1890	1990	44
38	0	0	107	1893	1989	44
39	0	0	655	1895	1990	44
40	0	0	1206	1896	1991	46
41	0	0	1797	1895	1992	42
42	0	0	2375	1894	1993	42
43	0	0	2960	1894	1994	42
44	0	0	3431	1895	1994	43
45	0	0	3714	1891	1992	42
46	0	0	3876	1890	1988	39
47	0	0	3968	1889	1985	41
48	0	0	4010	1886	1985	41
49	0	0	3762	1883	1985	41
50	0	0	3150	1881	1987	43
51	0	0	2306	1880	1988	43
52	0	0	1476	1882	1990	44
53	0	0	868	1882	1992	45
54	0	0	506	1885	1992	45
55	0	0	304	1887	1991	47
56	0	0	197	1887	1988	44
57	0	0	138	1888	1986	44
58	0	0	110	1893	1985	43
59	0	0	664	1897	1986	45
60	0	0	1219	1894	1987	42
61	0	0	1808	1894	1987	43
62	0	0	2391	1894	1989	42
63	0	0	2969	1892	1990	42
64	0	0	3440	1893	1990	39
65	0	0	3720	1891	1988	43
66	0	0	3879	1891	1984	39
67	0	0	3970	1890	1981	42
68	0	0	4016	1889	1981	43
69	0	0	3755	1883	1981	43
70	0	0	3148	1881	1983	44
71	0	0	2313	1880	1985	43
72	0	0	1496	1880	1986	43
73	0	0	886	1882	1987	42
74	0	0	519	1884	1988	45
75	0	0	313	1886	1987	43
76	0	0	200	1887	1984	44
77	0	0	140	1888	1981	45
78	0	0	111	1895	1981	45
79	0	0	648	1895	1981	47
80	0	0	1196	1895	1983	47
81	0	0	1775	1895	1984	43
82	0	0	2358	1893	1985	42
83	0	0	2945	1894	1985	39
84	0	0	3423	1895	1986	42
85	0	0	3710	1892	1984	39
86	0	0	3873	1890	1979	41
87	0	0	3970	1889	1977	42
88	0	0	4015	1888	1975	42
89	0	0	3781	1882	1977	43
90	0	0	3172	1880	1978	47
91	0	0	2323	1880	1980	44
92	0	0	1512	1881	1982	47
93	0	0	901	1882	1984	44
94	0	0	527	1885	1985	42
95	0	0	319	1886	1983	47
96	0	0	203	1887	1981	46
97	0	0	142	1890	1978	46
98	0	0	112	1899	1977	44
99	0	0	642	1895	1978	45
100	0	0	1187	1895	1979	43
101	0	0	1779	1894	1979	43
102	0	0	2359	1894	1981	43
103	0	0	2944	1894	1982	43
104	0	0	3425	1895	1982	42
105	0	0	3711	1892	1981	43
106	0	0	3874	1890	1977	41
107	0	0	3968	1886	1974	40
108	0	0	4018	1888	1973	42
109	0	0	3792	1882	1974	43
110	0	0	3193	1881	1976	43
111	0	0	2353	1880	1977	43
112	0	0	1539	1880	1979	44
113	0	0	916	1882	1980	44
114	0	0	536	1884	1981	46
115	0	0	323	1885	1980	47
116	0	0	205	1887	1976	45
117	0	0	143	1890	1975	46
118	0	0	113	1895	1973	43
119	0	0	634	1892	1974	45
120	0	0	1171	1895	1976	40
121	0	0	1753	1894	1977	44
122	0	0	2327	1893	1979	43
123	0	0	2912	1894	1980	42
124	0	0	3402	1892	1979	42
125	0	0	3701	1892	1978	39
126	0	0	3868	1890	1974	40
127	0	0	3964	1888	1972	41
0	0	0	4016	1887	1971	40
1	0	0	3799	1880	1971	42
2	0	0	3209	1881	1973	40
3	0	0	2376	1881	1974	45
4	0	0	1567	1881	1976	45
5	0	0	953	1883	1979	44
6	0	0	556	1883	1978	45
7	0	0	333	1887	1978	40
8	0	0	212	1888	1974	44
9	0	0	149	1889	1973	45
10	0	0	115	1891	1972	44
11	0	0	608	1893	1973	44
12	0	0	1137	1895	1974	40
13	0	0	1724	1895	1974	42
14	0	0	2312	1895	1977	43
15	0	0	2894	1895	1977	43
16	0	0	3390	1891	1977	42
17	0	0	3693	1893	1976	42
18	0	0	3863	1891	1972	39
19	0	0	3963	1891	1970	40
20	0	0	4015	1888	1968	43
21	0	0	3811	1881	1969	42
22	0	0	3233	1882	1971	43
23	0	0	2402	1881	1972	44
24	0	0	1584	1884	1974	43
25	0	0	965	1885	1975	43
26	0	0	564	1885	1976	45
27	0	0	336	1887	1975	44
28	0	0	213	1888	1971	44
29	0	0	149	1891	1970	43
30	0	0	115	1891	1970	47
31	0	0	596	1893	1970	42
32	0	0	1119	1896	1972	44
33	0	0	1698	1896	1973	43
34	0	0	2273	1895	1974	42
35	0	0	2851	1895	1974	44
36	0	0	3362	1891	1974	40
37	0	0	3673	1893	1974	37
38	0	0	3856	1891	1969	40
39	0	0	3957	1891	1967	42
40	0	0	4012	1890	1966	42
41	0	0	3848	1880	1966	41
42	0	0	3281	1883	1968	44
43	0	0	2459	1882	1970	43
44	0	0	1650	1882	1972	44
45	0	0	1021	1884	1973	46
46	0	0	599	1883	1974	44
47	0	0	356	1888	1973	42
48	0	0	224	1889	1970	45
49	0	0	153	1891	1968	44
50	0	0	117	1892	1969	44
51	0	0	525	1893	1968	43
52	0	0	1046	1896	1970	43
53	0	0	1621	1897	1971	43
54	0	0	2197	1896	1973	43
55	0	0	2786	1895	1973	41
56	0	0	3315	1896	1973	41
57	0	0	3646	1894	1972	44
58	0	0	3842	1894	1968	39
59	0	0	3946	1891	1965	41
60	0	0	4004	1890	1964	46
61	0	0	4036	1881	1965	42
62	0	0	3558	1884	1967	44
63	0	0	2763	1883	1968	41
64	0	0	1970	1883	1971	44
65	0	0	1316	1886	1972	44
66	0	0	805	1886	1972	45
67	0	0	472	1889	1972	44
68	0	0	286	1890	1969	45
69	0	0	187	1892	1967	46
70	0	0	134	1891	1966	44
71	0	0	378	1893	1968	42
72	0	0	846	1897	1968	43
73	0	0	1384	1898	1969	40
74	0	0	1946	1897	1971	42
75	0	0	2552	1896	1971	42
76	0	0	3110	1895	1972	42
77	0	0	3521	1895	1970	40
78	0	0	3767	1893	1966	39
79	0	0	3906	1892	1964	41
80	0	0	3983	1890	1963	42
81	0	0	4027	1888	1964	42
82	0	0	3584	1885	1966	43
83	0	0	2797	1885	1967	44
84	0	0	1998	1888	1969	44
85	0	0	1338	1886	1970	43
86	0	0	810	1888	1971	45
87	0	0	475	1891	1970	45
88	0	0	288	1891	1968	43
89	0	0	188	1892	1965	46
90	0	0	136	1892	1964	45
91	0	0	298	1898	1966	44
92	0	0	757	1900	1966	44
93	0	0	1290	1897	1968	44
94	0	0	1850	1897	1969	42
95	0	0	2462	1896	1970	42
96	0	0	3034	1898	1970	40
97	0	0	3473	1895	1969	44
98	0	0	3740	1895	1965	41
99	0	0	3891	1894	1963	42
100	0	0	3978	1889	1963	42
101	0	0	4023	1892	1963	41
102	0	0	3662	1886	1965	44
103	0	0	2892	1885	1966	47
104	0	0	2095	1886	1969	43
105	0	0	1427	1887	1969	43
106	0	0	886	1889	1970	44
107	0	0	527	1891	1969	44
108	0	0	314	1891	1967	45
109	0	0	202	1893	1964	44
110	0	0	147	1894	1964	44
111	0	0	239	1899	1965	41
112	0	0	684	1899	1966	45
113	0	0	1208	1899	1968	43
114	0	0	1757	1899	1969	42
115	0	0	2370	1898	1969	43
116	0	0	2953	1897	1970	42
117	0	0	3417	1897	1969	44
118	0	0	3707	1894	1965	42
119	0	0	3873	1894	1963	39
120	0	0	3968	1895	1962	42
121	0	0	4017	1892	1962	43
122	0	0	3795	1887	1964	43
123	0	0	3027	1885	1965	43
124	0	0	2241	1886	1967	44
125	0	0	1568	1888	1969	41
126	0	0	999	1890	1969	41
127	0	0	593	1891	1969	46
0	0	0	353	1892	1967	46
1	0	0	225	1893	1964	45
2	0	0	156	1895	1963	44
3	0	0	168	1898	1965	45
4	0	0	585	1900	1966	46
5	0	0	1101	1900	1967	44
6	0	0	1646	1899	1969	44
7	0	0	2260	1901	1969	42
8	0	0	2868	1898	1969	43
9	0	0	3359	1897	1968	41
10	0	0	3673	1895	1964	43
11	0	0	3856	1894	1961	42
12	0	0	3955	1894	1961	40
13	0	0	4013	1891	1961	43
14	0	0	3873	1887	1963	46
15	0	0	3103	1886	1964	44
16	0	0	2316	1887	1966	44
17	0	0	1630	1887	1968	44
18	0	0	1039	1888	1968	45
19	0	0	611	1891	1968	44
20	0	0	367	1892	1965	47
21	0	0	229	1894	1964	45
22	0	0	159	1897	1963	45
23	0	0	123	1900	1963	43
24	0	0	515	1901	1965	43
25	0	0	1036	1900	1966	45
26	0	0	1583	1900	1967	43
27	0	0	2209	1899	1968	43
28	0	0	2835	1901	1968	40
29	0	0	3352	1898	1967	42
30	0	0	3666	1896	1964	42
31	0	0	3852	1894	1960	39
32	0	0	3956	1892	1960	41
33	0	0	4013	1894	1960	44
34	0	0	3979	1888	1962	43
35	0	0	3216	1887	1965	43
36	0	0	2388	1887	1966	44
37	0	0	1677	1889	1967	46
38	0	0	1057	1889	1968	45
39	0	0	620	1891	1967	45
40	0	0	372	1893	1965	47
41	0	0	231	1895	1963	44
42	0	0	165	1895	1962	43
43	0	0	125	1896	1963	42
44	0	0	429	1902	1964	43
45	0	0	960	1901	1965	45
46	0	0	1532	1900	1967	43
47	0	0	2179	1901	1968	41
48	0	0	2827	1900	1967	44
49	0	0	3350	1898	1967	42
50	0	0	3667	1898	1964	40
51	0	0	3854	1896	1961	41
52	0	0	3961	1894	1960	40
53	0	0	4016	1894	1961	41
54	0	0	3991	1888	1963	43
55	0	0	3236	1887	1964	46
56	0	0	2412	1887	1966	44
57	0	0	1701	1891	1968	44
58	0	0	1079	1889	1968	45
59	0	0	633	1892	1967	47
60	0	0	380	1893	1965	43
61	0	0	239	1896	1963	45
62	0	0	167	1896	1962	44
63	0	0	151	1900	1962	47
64	0	0	560	1902	1965	43
65	0	0	1083	1901	1966	43
66	0	0	1629	1901	1967	43
67	0	0	2206	1903	1968	42
68	0	0	2768	1900	1968	44
69	0	0	3215	1899	1967	43
70	0	0	3520	1897	1963	39
71	0	0	3771	1896	1961	41
72	0	0	3912	1897	1960	42
73	0	0	3897	1890	1961	44
74	0	0	3435	1888	1963	42
75	0	0	2725	1888	1965	45
76	0	0	1981	1889	1966	46
77	0	0	1374	1890	1968	43
78	0	0	893	1890	1968	47
79	0	0	544	1890	1968	45
80	0	0	323	1894	1965	47
81	0	0	217	1896	1963	44
82	0	0	157	1898	1963	44
83	0	0	410	1901	1963	43
84	0	0	826	1903	1965	43
85	0	0	1293	1901	1966	43
86	0	0	1778	1900	1967	43
87	0	0	2292	1900	1968	40
88	0	0	2783	1903	1969	41
89	0	0	3166	1897	1968	41
90	0	0	3447	1898	1964	40
91	0	0	3729	1896	1961	42
92	0	0	3888	1895	1960	39
93	0	0	3782	1890	1962	44
94	0	0	3367	1889	1962	44
95	0	0	2746	1889	1965	44
96	0	0	2074	1890	1966	44
97	0	0	1521	1889	1967	46
98	0	0	1091	1892	1968	42
99	0	0	772	1892	1968	44
100	0	0	585	1894	1965	45
101	0	0	368	1896	1963	44
102	0	0	368	1904	1962	44
103	0	0	666	1903	1963	42
104	0	0	1012	1901	1964	44
105	0	0	1416	1900	1965	41
106	0	0	1842	1901	1967	42
107	0	0	2299	1903	1968	41
108	0	0	2728	1901	1968	41
109	0	0	3066	1900	1967	42
110	0	0	3305	1898	1964	42
111	0	0	3641	1896	1961	41
112	0	0	3841	1896	1960	41
113	0	0	3607	1890	1961	41
114	0	0	3222	1890	1962	42
115	0	0	2671	1889	1964	42
116	0	0	2086	1890	1966	43
117	0	0	1600	1891	1967	43
118	0	0	1224	1893	1968	42
119	0	0	946	1893	1968	46
120	0	0	779	1895	1965	44
121	0	0	592	1896	1963	46
122	0	0	611	1902	1962	44
123	0	0	865	1903	1963	43
124	0	0	1176	1902	1964	43
125	0	0	1533	1902	1965	42
126	0	0	1904	1902	1967	43
127	0	0	2302	1899	1968	41
0	0	0	2667	1900	1967	42
1	0	0	2960	1899	1966	42
2	0	0	3164	1898	1963	40
3	0	0	3520	1897	1960	41
4	0	0	3620	1893	1958	39
5	0	0	3407	1888	1959	43
6	0	0	3091	1890	1961	42
7	0	0	2622	1890	1963	44
8	0	0	2117	1891	1965	44
9	0	0	1692	1892	1967	45
10	0	0	1367	1891	1966	47
11	0	0	1131	1893	1967	46
12	0	0	989	1896	1964	43
13	0	0	823	1896	1961	45
14	0	0	837	1902	1961	42
15	0	0	1047	1900	1962	43
16	0	0	1304	1903	1963	43
17	0	0	1604	1903	1964	44
18	0	0	1923	1902	1965	43
19	0	0	2270	1902	1966	42
20	0	0	2597	1902	1966	39
21	0	0	2849	1900	1965	42
22	0	0	3028	1899	1961	40
23	0	0	3339	1898	1958	39
24	0	0	3444	1894	1957	40
25	0	0	3264	1891	1958	41
26	0	0	2989	1890	1960	44
27	0	0	2575	1891	1962	44
28	0	0	2132	1891	1964	44
29	0	0	1759	1893	1965	43
30	0	0	1471	1894	1966	44
31	0	0	1259	1896	1964	45
32	0	0	1136	1896	1962	44
33	0	0	1000	1897	1960	43
34	0	0	1004	1900	1959	44
35	0	0	1186	1904	1960	42
36	0	0	1413	1903	1961	45
37	0	0	1685	1903	1962	42
38	0	0	1967	1901	1963	42
39	0	0	2263	1901	1964	42
40	0	0	2543	1899	1964	41
41	0	0	2758	1902	1964	41
42	0	0	2902	1899	1960	40
43	0	0	3158	1897	1958	41
44	0	0	3245	1898	1957	41
45	0	0	3087	1892	1957	41
46	0	0	1964	1890	1959	44
47	0	0	1126	1891	1960	41
48	0	0	669	1892	1962	43
49	0	0	407	1895	1963	41
50	0	0	263	1896	1964	42
51	0	0	187	1896	1963	45
52	0	0	148	1900	1961	46
53	0	0	128	1900	1958	44
54	0	0	121	1900	1957	43
55	0	0	121	1901	1958	44
56	0	0	119	1902	1960	43
57	0	0	126	1902	1960	44
58	0	0	127	1903	1961	41
59	0	0	137	1902	1962	40
60	0	0	142	1901	1963	41
61	0	0	147	1902	1962	42
62	0	0	154	1899	1959	42
63	0	0	163	1900	1955	41
64	0	0	166	1903	1955	41
65	0	0	172	1903	1956	41
66	0	0	176	1903	1957	42
67	0	0	183	1902	1958	44
68	0	0	188	1902	1960	43
69	0	0	194	1905	1962	42
70	0	0	199	1903	1963	46
71	0	0	203	1903	1962	45
72	0	0	211	1908	1959	43
73	0	0	215	1908	1957	44
74	0	0	220	1906	1957	40
75	0	0	228	1907	1957	43
76	0	0	232	1907	1958	43
77	0	0	239	1908	1959	42
78	0	0	243	1907	1961	42
79	0	0	248	1906	1961	42
80	0	0	256	1906	1961	43
81	0	0	259	1906	1961	43
82	0	0	263	1903	1957	39
83	0	0	278	1901	1953	40
84	0	0	279	1905	1953	40
85	0	0	283	1904	1953	41
86	0	0	288	1906	1955	42
87	0	0	293	1906	1957	45
88	0	0	302	1905	1958	43
89	0	0	302	1907	1960	44
90	0	0	307	1906	1960	45
91	0	0	309	1907	1960	43
92	0	0	319	1909	1957	47
93	0	0	323	1910	1956	44
94	0	0	328	1909	1955	43
95	0	0	334	1909	1956	43
96	0	0	336	1911	1957	43
97	0	0	345	1909	1958	39
98	0	0	348	1909	1958	42
99	0	0	354	1908	1959	42
100	0	0	361	1908	1960	41
101	0	0	362	1909	1958	42
102	0	0	368	1906	1955	39
103	0	0	379	1907	1952	40
104	0	0	382	1908	1952	40
105	0	0	386	1908	1952	42
106	0	0	390	1908	1954	42
107	0	0	394	1908	1955	39
108	0	0	399	1909	1957	43
109	0	0	403	1910	1958	40
110	0	0	408	1909	1960	43
111	0	0	412	1913	1959	43
112	0	0	418	1913	1957	44
113	0	0	420	1914	1954	44
114	0	0	424	1913	1953	44
115	0	0	431	1914	1954	45
116	0	0	436	1913	1955	43
117	0	0	437	1913	1957	39
118	0	0	446	1915	1958	41
119	0	0	451	1911	1959	43
120	0	0	457	1912	1958	40
121	0	0	460	1912	1957	42
122	0	0	465	1911	1953	39
123	0	0	469	1911	1951	41
124	0	0	472	1910	1950	44
125	0	0	478	1908	1951	43
126	0	0	482	1911	1952	41
127	0	0	488	1910	1954	41
0	0	0	931	1913	1956	44
1	0	0	1758	1915	1957	42
2	0	0	2526	1914	1958	43
3	0	0	3286	1916	1957	43
4	0	0	3800	1918	1955	43
5	0	0	4094	1918	1953	43
6	0	0	4091	1919	1951	43
7	0	0	4093	1921	1952	41
8	0	0	4095	1921	1954	27
9	0	0	4091	1921	1955	39
10	0	0	4090	1921	1957	43
11	0	0	4093	1920	1958	44
12	0	0	4092	1918	1958	41
13	0	0	4091	1919	1956	42
14	0	0	4091	1918	1953	36
15	0	0	4090	1918	1951	42
16	0	0	4093	1916	1950	42
17	0	0	4092	1916	1949	41
18	0	0	4092	1915	1951	43
19	0	0	4091	1916	1953	39
20	0	0	4092	1916	1954	42
21	0	0	4091	1917	1956	43
22	0	0	4092	1918	1957	43
23	0	0	4095	1921	1956	44
24	0	0	4090	1919	1953	40
25	0	0	4091	1922	1951	45
26	0	0	4091	1922	1950	44
27	0	0	4092	1924	1951	43
28	0	0	4091	1922	1953	42
29	0	0	4091	1923	1953	37
30	0	0	4091	1923	1955	44
31	0	0	4091	1923	1956	41
32	0	0	4093	1924	1956	41
33	0	0	4091	1921	1955	41
34	0	0	4092	1920	1952	39
35	0	0	4091	1920	1949	42
36	0	0	4091	1918	1948	42
37	0	0	4092	1919	1949	42
38	0	0	4093	1916	1949	43
39	0	0	4093	1919	1952	42
40	0	0	4091	1920	1954	43
41	0	0	4089	1919	1955	43
42	0	0	4092	1920	1955	42
43	0	0	4093	1920	1955	44
44	0	0	4090	1922	1952	41
45	0	0	4093	1924	1950	45
46	0	0	4091	1924	1950	45
47	0	0	4092	1924	1950	41
48	0	0	4093	1923	1951	43
49	0	0	4091	1924	1952	40
50	0	0	4091	1924	1954	42
51	0	0	4092	1924	1955	41
52	0	0	4093	1924	1954	41
53	0	0	4093	1923	1955	40
54	0	0	4091	1921	1950	33
55	0	0	4092	1921	1948	40
56	0	0	4092	1920	1947	40
57	0	0	4092	1921	1947	43
58	0	0	4091	1918	1949	43
59	0	0	4091	1919	1950	42
60	0	0	4091	1919	1952	43
61	0	0	4091	1919	1953	46
62	0	0	4093	1922	1954	42
63	0	0	4091	1920	1954	44
64	0	0	4091	1923	1951	40
65	0	0	4091	1923	1949	45
66	0	0	4091	1925	1949	44
67	0	0	4093	1926	1949	42
68	0	0	4080	1926	1951	44
69	0	0	4076	1926	1953	43
70	0	0	4068	1926	1954	42
71	0	0	4062	1924	1954	41
72	0	0	4057	1923	1954	40
73	0	0	4049	1922	1953	41
74	0	0	4044	1922	1949	40
75	0	0	4036	1919	1946	40
76	0	0	4032	1920	1946	42
77	0	0	4025	1919	1946	40
78	0	0	4020	1918	1948	42
79	0	0	4010	1921	1949	40
80	0	0	4006	1920	1952	43
81	0	0	4001	1921	1953	47
82	0	0	3995	1922	1953	44
83	0	0	3988	1922	1954	43
84	0	0	3982	1923	1951	44
85	0	0	3977	1924	1949	45
86	0	0	3970	1923	1948	44
87	0	0	3965	1926	1950	44
88	0	0	3959	1924	1951	44
89	0	0	3955	1926	1951	43
90	0	0	3946	1924	1953	41
91	0	0	3940	1924	1954	41
92	0	0	3936	1923	1953	44
93	0	0	3934	1924	1953	41
94	0	0	3925	1921	1949	40
95	0	0	3920	1920	1946	41
96	0	0	3913	1921	1946	41
97	0	0	3910	1921	1946	40
98	0	0	3902	1919	1948	42
99	0	0	3896	1920	1949	43
100	0	0	3895	1921	1952	43
101	0	0	3888	1922	1953	43
102	0	0	3884	1921	1953	43
103	0	0	3878	1923	1954	43
104	0	0	3871	1923	1951	45
105	0	0	3867	1924	1948	44
106	0	0	3860	1925	1948	44
107	0	0	3858	1925	1948	44
108	0	0	3852	1926	1950	43
109	0	0	3846	1926	1951	43
110	0	0	3840	1925	1952	43
111	0	0	3837	1925	1953	41
112	0	0	3833	1924	1953	41
113	0	0	3826	1926	1952	41
114	0	0	3823	1922	1949	41
115	0	0	3816	1919	1946	41
116	0	0	3812	1922	1945	42
117	0	0	3809	1920	1946	44
118	0	0	3800	1920	1948	43
119	0	0	3796	1919	1949	42
120	0	0	3791	1919	1951	43
121	0	0	3788	1922	1952	43
122	0	0	3784	1922	1953	43
123	0	0	3778	1922	1952	43
124	0	0	3775	1924	1951	44
125	0	0	3767	1923	1947	44
126	0	0	3764	1925	1947	42
127	0	0	3760	1926	1948	43
0	0	0	3752	1930	1949	43
1	0	0	3750	1925	1950	43
2	0	0	3747	1922	1951	42
3	0	0	3742	1926	1951	41
4	0	0	3735	1924	1951	44
5	0	0	3730	1925	1951	40
6	0	0	3727	1921	1948	41
7	0	0	3724	1921	1945	41
8	0	0	3717	1920	1944	43
9	0	0	3713	1918	1945	43
10	0	0	3707	1923	1946	42
11	0	0	3703	1919	1948	42
12	0	0	3698	1920	1950	44
13	0	0	3693	1922	1951	46
14	0	0	3690	1921	1951	45
15	0	0	3683	1924	1952	42
16	0	0	3681	1923	1949	46
17	0	0	3677	1923	1946	45
18	0	0	3672	1926	1946	42
19	0	0	3667	1926	1947	47
20	0	0	3662	1926	1948	42
21	0	0	3657	1926	1948	42
22	0	0	3656	1925	1951	42
23	0	0	3650	1925	1952	41
24	0	0	3645	1921	1951	45
25	0	0	3641	1926	1950	42
26	0	0	3637	1921	1947	39
27	0	0	3632	1921	1944	39
28	0	0	3628	1921	1943	42
29	0	0	3624	1920	1943	42
30	0	0	3620	1921	1946	42
31	0	0	3615	1919	1947	43
32	0	0	3611	1919	1949	43
33	0	0	3609	1921	1950	44
34	0	0	3603	1921	1951	45
35	0	0	3598	1925	1951	44
36	0	0	3596	1924	1950	45
37	0	0	3590	1924	1946	44
38	0	0	3585	1925	1945	46
39	0	0	3582	1926	1947	43
40	0	0	3578	1928	1947	43
41	0	0	3573	1925	1949	43
42	0	0	3571	1922	1950	42
43	0	0	3566	1924	1951	42
44	0	0	3562	1924	1951	43
45	0	0	3557	1923	1950	41
46	0	0	3552	1921	1946	42
47	0	0	3549	1920	1945	41
48	0	0	3545	1920	1944	42
49	0	0	3540	1921	1945	43
50	0	0	3537	1918	1946	42
51	0	0	3532	1919	1947	43
52	0	0	3528	1920	1949	44
53	0	0	3525	1918	1951	46
54	0	0	3521	1921	1952	45
55	0	0	3516	1922	1951	45
56	0	0	3512	1923	1949	43
57	0	0	3508	1923	1946	44
58	0	0	3506	1924	1945	44
59	0	0	3501	1924	1946	43
60	0	0	3499	1925	1948	42
61	0	0	3492	1924	1949	43
62	0	0	3491	1924	1951	42
63	0	0	3487	1924	1952	41
64	0	0	3483	1923	1951	43
65	0	0	3479	1922	1950	42
66	0	0	3474	1921	1947	43
67	0	0	3472	1920	1944	40
68	0	0	3466	1920	1943	43
69	0	0	3463	1919	1944	39
70	0	0	3460	1921	1946	43
71	0	0	3456	1919	1948	43
72	0	0	3451	1919	1949	43
73	0	0	3450	1921	1950	44
74	0	0	3444	1921	1952	43
75	0	0	3442	1921	1951	44
76	0	0	3438	1923	1949	43
77	0	0	3433	1923	1946	44
78	0	0	3431	1924	1945	43
79	0	0	3427	1923	1946	42
80	0	0	3421	1924	1947	43
81	0	0	3418	1924	1948	43
82	0	0	3414	1924	1950	42
83	0	0	3413	1923	1950	42
84	0	0	3408	1922	1951	39
85	0	0	3404	1922	1950	42
86	0	0	3395	1921	1947	41
87	0	0	3397	1920	1944	40
88	0	0	3395	1918	1943	41
89	0	0	3390	1919	1945	39
90	0	0	3386	1918	1945	42
91	0	0	3382	1918	1948	41
92	0	0	3380	1919	1949	43
93	0	0	3377	1920	1950	44
94	0	0	3373	1920	1951	45
95	0	0	3368	1921	1950	44
96	0	0	3361	1923	1948	45
97	0	0	3361	1922	1946	44
98	0	0	3358	1922	1946	44
99	0	0	3356	1924	1947	43
100	0	0	3352	1924	1947	43
101	0	0	3348	1924	1948	43
102	0	0	3345	1924	1951	42
103	0	0	3342	1924	1952	41
104	0	0	3338	1922	1951	41
105	0	0	3335	1923	1951	42
106	0	0	3332	1921	1947	41
107	0	0	3328	1921	1945	41
108	0	0	3325	1921	1943	39
109	0	0	3321	1919	1944	42
110	0	0	3319	1919	1947	42
111	0	0	3314	1919	1948	40
112	0	0	3309	1921	1948	44
113	0	0	3308	1918	1951	43
114	0	0	3304	1921	1952	43
115	0	0	3300	1922	1951	45
116	0	0	3298	1923	1949	46
117	0	0	3295	1924	1947	45
118	0	0	3290	1924	1947	44
119	0	0	3289	1924	1947	41
120	0	0	3285	1925	1949	43
121	0	0	3282	1926	1951	43
122	0	0	3279	1922	1952	41
123	0	0	3276	1921	1952	41
124	0	0	3271	1924	1952	42
125	0	0	3268	1923	1952	40
126	0	0	3265	1922	1949	41
127	0	0	3261	1920	1946	40
0	0	0	3260	1920	1945	39
1	0	0	3256	1919	1945	41
2	0	0	3252	1919	1947	42
3	0	0	3250	1919	1948	43
4	0	0	3247	1920	1951	44
5	0	0	3244	1917	1952	42
6	0	0	3241	1922	1953	41
7	0	0	3237	1922	1953	43
8	0	0	3235	1923	1951	45
9	0	0	3232	1925	1949	45
10	0	0	3228	1922	1947	43
11	0	0	3225	1926	1948	44
12	0	0	3221	1925	1949	43
13	0	0	3221	1925	1951	43
14	0	0	3216	1924	1953	42
15	0	0	3213	1925	1952	40
16	0	0	3209	1924	1952	41
17	0	0	3206	1922	1952	41
18	0	0	3203	1921	1949	41
19	0	0	3199	1922	1946	41
20	0	0	3197	1918	1945	40
21	0	0	3195	1919	1946	42
22	0	0	3190	1921	1947	44
23	0	0	3189	1918	1949	43
24	0	0	3188	1922	1951	47
25	0	0	3182	1920	1953	39
26	0	0	3180	1921	1953	44
27	0	0	3177	1922	1953	43
28	0	0	3173	1922	1951	46
29	0	0	3170	1922	1948	45
30	0	0	3169	1919	1947	41
31	0	0	3166	1924	1946	43
32	0	0	3161	1923	1949	44
33	0	0	3159	1923	1951	43
34	0	0	3158	1926	1952	43
35	0	0	3154	1923	1953	42
36	0	0	3151	1922	1954	41
37	0	0	3147	1922	1952	41
38	0	0	3147	1920	1949	40
39	0	0	3141	1919	1946	40
40	0	0	3140	1918	1945	39
41	0	0	3136	1918	1945	41
42	0	0	3134	1918	1948	43
43	0	0	3129	1917	1949	44
44	0	0	3127	1918	1951	44
45	0	0	3126	1918	1953	44
46	0	0	3122	1920	1952	45
47	0	0	3119	1919	1953	44
48	0	0	3116	1920	1951	45
49	0	0	3113	1921	1949	42
50	0	0	3112	1921	1948	44
51	0	0	3109	1922	1948	44
52	0	0	3105	1921	1949	43
53	0	0	3101	1921	1951	44
54	0	0	3101	1923	1953	41
55	0	0	3098	1921	1954	43
56	0	0	3095	1920	1955	41
57	0	0	3091	1919	1953	39
58	0	0	3090	1918	1950	40
59	0	0	3088	1918	1947	40
60	0	0	3083	1917	1947	37
61	0	0	3082	1916	1947	42
62	0	0	3076	1915	1949	42
63	0	0	3075	1915	1951	43
64	0	0	3075	1916	1953	40
65	0	0	3070	1917	1955	39
66	0	0	3068	1918	1954	43
67	0	0	3064	1917	1954	43
68	0	0	3062	1918	1952	47
69	0	0	3059	1918	1951	41
70	0	0	3055	1921	1950	43
71	0	0	3054	1920	1949	43
72	0	0	3052	1920	1951	43
73	0	0	3050	1921	1953	42
74	0	0	3047	1921	1955	42
75	0	0	3043	1919	1955	41
76	0	0	3041	1918	1956	41
77	0	0	3039	1917	1954	40
78	0	0	3036	1916	1952	38
79	0	0	3032	1912	1949	40
80	0	0	3032	1914	1948	39
81	0	0	3029	1914	1949	41
82	0	0	3025	1914	1950	44
83	0	0	3023	1913	1952	42
84	0	0	3022	1915	1954	42
85	0	0	3019	1915	1954	44
86	0	0	3016	1916	1957	44
87	0	0	3013	1916	1955	44
88	0	0	3012	1918	1954	43
89	0	0	3009	1917	1951	45
90	0	0	3007	1920	1950	45
91	0	0	3003	1921	1951	44
92	0	0	3000	1918	1952	41
93	0	0	2999	1918	1954	42
94	0	0	2996	1920	1955	42
95	0	0	2994	1918	1955	42
96	0	0	2991	1917	1957	41
97	0	0	2988	1916	1955	40
98	0	0	2985	1916	1952	39
99	0	0	2982	1911	1949	40
100	0	0	2982	1914	1948	41
101	0	0	2979	1914	1948	41
102	0	0	2976	1913	1950	41
103	0	0	2973	1914	1952	42
104	0	0	2970	1912	1955	40
105	0	0	2967	1915	1956	40
106	0	0	2968	1915	1956	42
107	0	0	2963	1916	1955	42
108	0	0	2963	1918	1954	43
109	0	0	2961	1919	1951	43
110	0	0	2959	1919	1950	41
111	0	0	2956	1920	1951	45
112	0	0	2952	1918	1952	41
113	0	0	2951	1919	1953	42
114	0	0	2948	1920	1954	41
115	0	0	2946	1919	1956	40
116	0	0	2944	1919	1956	41
117	0	0	2940	1920	1955	42
118	0	0	2938	1917	1952	40
119	0	0	2937	1916	1948	40
120	0	0	2934	1916	1946	40
121	0	0	2931	1916	1949	41
122	0	0	2929	1914	1950	42
123	0	0	2927	1915	1952	43
124	0	0	2925	1916	1954	43
125	0	0	2922	1919	1955	46
126	0	0	2921	1919	1957	44
127	0	0	2918	1920	1956	44
0	0	0	2913	1920	1954	44
1	0	0	2913	1921	1951	45
2	0	0	2912	1922	1951	42
3	0	0	2909	1923	1952	44
4	0	0	2906	1924	1953	43
5	0	0	2903	1924	1954	43
6	0	0	2903	1924	1955	42
7	0	0	2900	1924	1955	40
8	0	0	2897	1923	1956	42
9	0	0	2896	1923	1956	39
10	0	0	2893	1921	1953	39
11	0	0	2891	1922	1950	41
12	0	0	2890	1922	1950	39
13	0	0	2888	1921	1949	43
14	0	0	2885	1921	1952	42
15	0	0	2881	1920	1954	43
16	0	0	2880	1921	1955	42
17	0	0	2880	1922	1957	43
18	0	0	2876	1923	1958	45
19	0	0	2873	1924	1958	45
20	0	0	2871	1925	1955	46
21	0	0	2869	1926	1953	43
22	0	0	2868	1927	1952	41
23	0	0	2863	1928	1953	44
24	0	0	2862	1927	1955	42
25	0	0	2860	1927	1955	41
26	0	0	2858	1927	1957	42
27	0	0	2859	1928	1956	40
28	0	0	2854	1926	1959	42
29	0	0	2852	1927	1957	40
30	0	0	2849	1926	1954	40
31	0	0	2846	1924	1951	44
32	0	0	2847	1925	1949	41
33	0	0	2843	1923	1951	43
34	0	0	2841	1923	1953	42
35	0	0	2838	1923	1954	45
36	0	0	2838	1924	1956	43
37	0	0	2837	1925	1957	44
38	0	0	2833	1926	1959	45
39	0	0	2831	1926	1957	45
40	0	0	2829	1927	1955	45
41	0	0	2826	1929	1953	44
42	0	0	2826	1930	1951	44
43	0	0	2823	1930	1952	43
44	0	0	2820	1929	1954	42
45	0	0	2818	1929	1955	39
46	0	0	2818	1930	1957	42
47	0	0	2816	1930	1958	40
48	0	0	2814	1929	1958	41
49	0	0	2811	1928	1957	42
50	0	0	2810	1928	1954	39
51	0	0	2807	1925	1951	40
52	0	0	2806	1926	1950	40
53	0	0	2804	1925	1951	43
54	0	0	2801	1925	1952	43
55	0	0	2799	1926	1954	43
56	0	0	2797	1925	1956	43
57	0	0	2794	1927	1957	43
58	0	0	2794	1928	1958	44
59	0	0	2791	1928	1957	44
60	0	0	2791	1929	1955	44
61	0	0	2787	1929	1953	45
62	0	0	2787	1930	1951	44
63	0	0	2784	1930	1952	44
64	0	0	2783	1931	1954	43
65	0	0	2780	1932	1955	42
66	0	0	2779	1929	1957	42
67	0	0	2774	1932	1957	41
68	0	0	2775	1931	1957	41
69	0	0	2772	1929	1957	41
70	0	0	2771	1928	1954	39
71	0	0	2768	1927	1951	41
72	0	0	2767	1927	1950	43
73	0	0	2766	1927	1950	42
74	0	0	2763	1927	1952	42
75	0	0	2760	1927	1954	42
76	0	0	2759	1927	1956	42
77	0	0	2755	1928	1957	44
78	0	0	2752	1929	1958	44
79	0	0	2752	1928	1958	45
80	0	0	2752	1931	1955	44
81	0	0	2748	1931	1954	45
82	0	0	2748	1931	1953	43
83	0	0	2746	1933	1953	41
84	0	0	2743	1933	1954	43
85	0	0	2742	1932	1956	42
86	0	0	2739	1932	1958	42
87	0	0	2738	1931	1959	43
88	0	0	2735	1932	1958	41
89	0	0	2734	1931	1958	42
90	0	0	2733	1929	1955	40
91	0	0	2731	1930	1952	40
92	0	0	2730	1929	1952	39
93	0	0	2730	1928	1952	42
94	0	0	2727	1928	1954	42
95	0	0	2724	1928	1956	44
96	0	0	2722	1928	1958	44
97	0	0	2721	1929	1959	45
98	0	0	2719	1930	1961	43
99	0	0	2717	1931	1960	44
100	0	0	2715	1931	1958	43
101	0	0	2713	1933	1957	44
102	0	0	2711	1932	1956	43
103	0	0	2710	1935	1955	42
104	0	0	2709	1933	1957	43
105	0	0	2707	1934	1959	43
106	0	0	2705	1933	1961	42
107	0	0	2703	1933	1962	42
108	0	0	2701	1932	1962	39
109	0	0	2701	1932	1961	41
110	0	0	2697	1930	1959	39
111	0	0	2696	1930	1956	43
112	0	0	2691	1929	1954	40
113	0	0	2693	1929	1955	40
114	0	0	2690	1928	1957	42
115	0	0	2689	1928	1959	43
116	0	0	2690	1929	1961	44
117	0	0	2684	1931	1962	41
118	0	0	2686	1930	1964	44
119	0	0	2684	1931	1963	45
120	0	0	2680	1932	1962	45
121	0	0	2679	1932	1959	45
122	0	0	2674	1934	1959	44
123	0	0	2676	1935	1960	43
124	0	0	2674	1934	1960	43
125	0	0	2674	1934	1963	42
126	0	0	2671	1932	1963	42
127	0	0	2666	1934	1964	42
0	0	0	2670	1933	1966	42
1	0	0	2662	1931	1964	42
2	0	0	2664	1931	1962	37
3	0	0	2661	1931	1959	41
4	0	0	2659	1930	1958	42
5	0	0	2660	1929	1960	42
6	0	0	2658	1929	1960	43
7	0	0	2656	1929	1963	42
8	0	0	2655	1929	1965	44
9	0	0	2651	1931	1967	45
10	0	0	2652	1932	1969	44
11	0	0	2650	1932	1968	43
12	0	0	2650	1933	1966	46
13	0	0	2646	1936	1963	45
14	0	0	2645	1935	1963	43
15	0	0	2645	1934	1964	41
16	0	0	2642	1935	1965	43
17	0	0	2639	1935	1967	43
18	0	0	2640	1934	1969	42
19	0	0	2635	1934	1969	40
20	0	0	2637	1934	1971	42
21	0	0	2635	1932	1970	42
22	0	0	2631	1932	1967	41
23	0	0	2632	1931	1964	41
24	0	0	2629	1931	1964	40
25	0	0	2630	1932	1966	42
26	0	0	2627	1930	1966	44
27	0	0	2626	1931	1969	43
28	0	0	2620	1932	1970	43
29	0	0	2620	1932	1973	45
30	0	0	2621	1933	1973	45
31	0	0	2619	1933	1975	47
32	0	0	2618	1935	1972	42
33	0	0	2616	1936	1969	43
34	0	0	2615	1936	1969	42
35	0	0	2612	1935	1970	42
36	0	0	2611	1935	1971	43
37	0	0	2610	1935	1973	43
38	0	0	2609	1937	1974	41
39	0	0	2607	1935	1976	40
40	0	0	2606	1935	1978	42
41	0	0	2604	1933	1978	43
42	0	0	2603	1933	1974	41
43	0	0	2602	1934	1971	40
44	0	0	2602	1932	1972	41
45	0	0	2598	1932	1972	43
46	0	0	2597	1932	1972	46
47	0	0	2595	1931	1976	44
48	0	0	2594	1932	1979	45
49	0	0	2593	1933	1981	45
50	0	0	2593	1933	1981	45
51	0	0	2589	1933	1982	45
52	0	0	2589	1935	1980	45
53	0	0	2588	1935	1977	44
54	0	0	2586	1936	1977	43
55	0	0	2583	1935	1978	42
56	0	0	2581	1933	1978	43
57	0	0	2581	1935	1979	42
58	0	0	2580	1936	1981	43
59	0	0	2579	1934	1984	40
60	0	0	2577	1934	1984	40
61	0	0	2575	1933	1985	42
62	0	0	2575	1933	1984	39
63	0	0	2571	1932	1979	43
64	0	0	2570	1932	1978	42
65	0	0	2569	1933	1980	43
66	0	0	2569	1933	1982	44
67	0	0	2567	1933	1983	43
68	0	0	2566	1933	1986	42
69	0	0	2565	1934	1987	43
70	0	0	2563	1934	1988	43
71	0	0	2562	1934	1989	45
72	0	0	2560	1935	1986	44
73	0	0	2560	1936	1982	44
74	0	0	2560	1934	1983	44
75	0	0	2556	1935	1983	43
76	0	0	2554	1935	1986	43
77	0	0	2552	1934	1987	42
78	0	0	2551	1934	1988	42
79	0	0	2552	1934	1990	43
80	0	0	2549	1934	1992	44
81	0	0	2547	1933	1991	43
82	0	0	2546	1934	1989	43
83	0	0	2544	1934	1986	43
84	0	0	2543	1936	1986	44
85	0	0	2542	1932	1986	43
86	0	0	2541	1935	1989	43
87	0	0	2539	1934	1990	42
88	0	0	2538	1934	1992	40
89	0	0	2536	1935	1994	44
90	0	0	2535	1935	1995	45
91	0	0	2533	1935	1995	45
92	0	0	2533	1935	1992	44
93	0	0	2530	1935	1989	43
94	0	0	2531	1935	1989	43
95	0	0	2530	1934	1990	43
96	0	0	2527	1935	1992	43
97	0	0	2527	1934	1992	42
98	0	0	2526	1935	1995	43
99	0	0	2525	1934	1997	44
100	0	0	2523	1935	1998	45
101	0	0	2521	1934	1997	45
102	0	0	2520	1934	1994	43
103	0	0	2518	1935	1992	42
104	0	0	2520	1934	1992	43
105	0	0	2518	1934	1993	43
106	0	0	2515	1934	1995	44
107	0	0	2514	1934	1996	47
108	0	0	2510	1934	1998	44
109	0	0	2507	1933	2000	43
110	0	0	2511	1935	2001	45
111	0	0	2509	1934	2002	45
112	0	0	2508	1935	1998	44
113	0	0	2506	1936	1996	44
114	0	0	2507	1934	1996	44
115	0	0	2504	1936	1996	43
116	0	0	2503	1935	1997	46
117	0	0	2501	1935	1999	39
118	0	0	2498	1935	2001	43
119	0	0	2499	1936	2003	44
120	0	0	2499	1935	2004	43
121	0	0	2496	1934	2004	44
122	0	0	2497	1935	2002	43
123	0	0	2495	1935	1999	44
124	0	0	2491	1934	1998	43
125	0	0	2493	1935	2000	43
126	0	0	2490	1935	2000	41
127	0	0	2491	1936	2003	43
0	0	0	2491	1936	2005	44
1	0	0	2486	1935	2006	44
2	0	0	2487	1935	2007	44
3	0	0	2484	1935	2006	43
4	0	0	2480	1934	2004	43
5	0	0	2482	1935	2002	45
6	0	0	2483	1934	2001	45
7	0	0	2481	1935	2001	44
8	0	0	2479	1935	2002	43
9	0	0	2480	1935	2005	43
10	0	0	2478	1936	2007	43
11	0	0	2475	1936	2007	43
12	0	0	2475	1936	2009	41
13	0	0	2473	1934	2007	44
14	0	0	2473	1935	2006	46
15	0	0	2470	1935	2004	43
16	0	0	2469	1934	2003	45
17	0	0	2470	1935	2003	41
18	0	0	2468	1936	2005	44
19	0	0	2467	1936	2006	44
20	0	0	2465	1935	2009	42
21	0	0	2463	1936	2010	44
22	0	0	2464	1934	2010	44
23	0	0	2462	1936	2011	42
24	0	0	2458	1935	2007	44
25	0	0	2459	1935	2005	43
26	0	0	2459	1934	2004	45
27	0	0	2458	1937	2005	41
28	0	0	2457	1935	2006	43
29	0	0	2456	1935	2008	43
30	0	0	2454	1935	2010	45
31	0	0	2455	1935	2012	46
32	0	0	2450	1934	2012	42
33	0	0	2451	1936	2009	45
34	0	0	2450	1935	2008	44
35	0	0	2450	1935	2005	44
36	0	0	2449	1936	2005	42
37	0	0	2449	1935	2005	41
38	0	0	2447	1936	2007	43
39	0	0	2444	1935	2008	44
40	0	0	2443	1935	2011	44
41	0	0	2444	1935	2012	44
42	0	0	2442	1936	2012	44
43	0	0	2442	1935	2010	44
44	0	0	2440	1935	2009	45
45	0	0	2438	1935	2007	45
46	0	0	2434	1935	2005	43
47	0	0	2437	1935	2006	41
48	0	0	2435	1936	2007	43
49	0	0	2435	1935	2008	43
50	0	0	2434	1935	2010	44
51	0	0	2432	1936	2012	45
52	0	0	2431	1935	2012	44
53	0	0	2432	1936	2012	43
54	0	0	2430	1934	2009	46
55	0	0	2430	1934	2006	43
56	0	0	2427	1934	2004	43
57	0	0	2427	1934	2006	42
58	0	0	2425	1934	2007	43
59	0	0	2425	1934	2009	44
60	0	0	2426	1934	2011	45
61	0	0	2423	1935	2011	43
62	0	0	2421	1933	2013	44
63	0	0	2420	1933	2011	44
64	0	0	2420	1934	2009	45
65	0	0	2420	1934	2006	45
66	0	0	2418	1935	2005	43
67	0	0	2418	1934	2006	43
68	0	0	2415	1934	2007	42
69	0	0	2413	1935	2009	44
70	0	0	2409	1933	2009	44
71	0	0	2412	1933	2011	45
72	0	0	2412	1933	2012	44
73	0	0	2411	1933	2010	43
74	0	0	2410	1932	2009	43
75	0	0	2408	1932	2006	43
76	0	0	2405	1932	2004	41
77	0	0	2406	1933	2005	44
78	0	0	2406	1933	2007	43
79	0	0	2405	1933	2009	45
80	0	0	2403	1931	2010	45
81	0	0	2400	1932	2011	43
82	0	0	2402	1932	2011	44
83	0	0	2402	1933	2011	43
84	0	0	2399	1933	2008	44
85	0	0	2349	1929	2005	44
86	0	0	2278	1933	2004	44
87	0	0	2249	1933	2005	48
88	0	0	2263	1933	2006	43
89	0	0	2316	1931	2007	43
90	0	0	2356	1930	2009	44
91	0	0	2378	1933	2009	43
92	0	0	2386	1933	2011	42
93	0	0	2389	1932	2009	43
94	0	0	2390	1932	2007	44
95	0	0	2390	1931	2004	44
96	0	0	2389	1933	2003	40
97	0	0	2390	1934	2003	42
98	0	0	2361	1927	2004	44
99	0	0	2200	1928	2006	44
100	0	0	2090	1929	2007	45
101	0	0	2019	1929	2008	43
102	0	0	1938	1929	2008	44
103	0	0	1860	1928	2008	47
104	0	0	1800	1929	2005	46
105	0	0	1752	1929	2002	42
106	0	0	1743	1932	2002	40
107	0	0	1766	1932	2002	46
108	0	0	1787	1931	2002	42
109	0	0	1798	1931	2004	44
110	0	0	1847	1931	2005	42
111	0	0	1917	1932	2007	42
112	0	0	1956	1933	2007	42
113	0	0	1958	1931	2006	45
114	0	0	1964	1931	2003	43
115	0	0	2019	1931	2000	43
116	0	0	2026	1932	2000	43
117	0	0	1976	1928	2000	46
118	0	0	1914	1928	2001	44
119	0	0	1818	1927	2001	44
120	0	0	1724	1927	2003	43
121	0	0	1641	1928	2004	45
122	0	0	1561	1927	2005	44
123	0	0	1495	1927	2004	42
124	0	0	1449	1927	2001	43
125	0	0	1407	1929	1998	44
126	0	0	1419	1932	1997	44
127	0	0	1467	1931	1998	45
0	0	0	1526	1931	1998	43
1	0	0	1566	1931	2000	43
2	0	0	1607	1931	2001	43
3	0	0	1666	1933	2002	43
4	0	0	1718	1932	2003	43
5	0	0	1761	1931	2002	46
6	0	0	1778	1932	1999	44
7	0	0	1803	1931	1996	44
8	0	0	1817	1931	1995	44
9	0	0	1808	1932	1995	47
10	0	0	1793	1931	1996	43
11	0	0	1752	1928	1997	44
12	0	0	1714	1929	1999	43
13	0	0	1695	1931	2001	40
14	0	0	1673	1932	2001	46
15	0	0	1672	1931	1999	44
16	0	0	1687	1931	1996	44
17	0	0	1675	1931	1993	44
18	0	0	1679	1932	1993	40
19	0	0	1696	1932	1993	43
20	0	0	1733	1932	1994	43
21	0	0	1802	1932	1995	43
22	0	0	1871	1932	1996	43
23	0	0	1937	1932	1998	44
24	0	0	2000	1932	1998	47
25	0	0	2046	1931	1996	44
26	0	0	2091	1932	1994	43
27	0	0	2140	1932	1990	43
28	0	0	2143	1932	1990	44
29	0	0	2076	1928	1990	44
30	0	0	1993	1928	1991	43
31	0	0	1906	1928	1993	41
32	0	0	1849	1928	1993	43
33	0	0	1849	1932	1995	43
34	0	0	1872	1932	1995	43
35	0	0	1874	1931	1993	43
36	0	0	1880	1932	1990	44
37	0	0	1884	1931	1988	44
38	0	0	1939	1932	1988	41
39	0	0	2006	1932	1987	43
40	0	0	2069	1930	1987	43
41	0	0	2131	1931	1990	43
42	0	0	2192	1931	1991	43
43	0	0	2276	1932	1993	41
44	0	0	2355	1932	1992	43
45	0	0	2398	1932	1991	42
46	0	0	2418	1931	1988	43
47	0	0	2429	1931	1985	43
48	0	0	2436	1932	1985	40
49	0	0	2439	1932	1985	44
50	0	0	2439	1931	1985	43
51	0	0	2438	1930	1987	43
52	0	0	2433	1931	1988	43
53	0	0	2435	1930	1990	44
54	0	0	2437	1931	1989	43
55	0	0	2435	1931	1989	43
56	0	0	2433	1931	1986	41
57	0	0	2432	1931	1982	44
58	0	0	2430	1932	1982	44
59	0	0	2431	1931	1982	45
60	0	0	2428	1931	1984	43
61	0	0	2427	1931	1984	42
62	0	0	2424	1931	1986	43
63	0	0	2423	1929	1987	44
64	0	0	2425	1930	1987	41
65	0	0	2422	1931	1985	43
66	0	0	2421	1930	1984	42
67	0	0	2418	1931	1981	45
68	0	0	2419	1930	1980	42
69	0	0	2417	1931	1980	47
70	0	0	2416	1931	1981	44
71	0	0	2416	1930	1982	44
72	0	0	2413	1930	1984	44
73	0	0	2412	1931	1986	41
74	0	0	2410	1931	1985	42
75	0	0	2410	1931	1985	43
76	0	0	2407	1930	1981	44
77	0	0	2407	1931	1978	45
78	0	0	2407	1930	1977	43
79	0	0	2404	1930	1977	43
80	0	0	2404	1930	1978	43
81	0	0	2405	1930	1980	44
82	0	0	2401	1931	1982	44
83	0	0	2401	1930	1983	43
84	0	0	2398	1930	1984	39
85	0	0	2397	1929	1982	44
86	0	0	2397	1931	1980	44
87	0	0	2395	1930	1976	44
88	0	0	2394	1930	1975	46
89	0	0	2395	1930	1976	43
90	0	0	2392	1929	1976	43
91	0	0	2392	1929	1979	43
92	0	0	2391	1929	1980	46
93	0	0	2388	1928	1981	44
94	0	0	2389	1930	1982	45
95	0	0	2387	1930	1979	44
96	0	0	2386	1928	1977	43
97	0	0	2385	1929	1976	45
98	0	0	2383	1929	1973	45
99	0	0	2381	1929	1974	44
100	0	0	2382	1928	1975	44
101	0	0	2382	1929	1977	43
102	0	0	2380	1930	1978	44
103	0	0	2378	1929	1979	46
104	0	0	2376	1930	1980	41
105	0	0	2377	1929	1979	42
106	0	0	2377	1929	1977	43
107	0	0	2375	1928	1974	45
108	0	0	2374	1926	1972	43
109	0	0	2374	1930	1973	43
110	0	0	2373	1930	1972	40
111	0	0	2372	1930	1975	44
112	0	0	2369	1928	1977	46
113	0	0	2368	1927	1977	47
114	0	0	2368	1929	1979	44
115	0	0	2368	1929	1978	43
116	0	0	2366	1929	1976	45
117	0	0	2365	1928	1973	45
118	0	0	2366	1927	1970	43
119	0	0	2360	1930	1972	40
120	0	0	2364	1929	1972	43
121	0	0	2362	1928	1974	43
122	0	0	2362	1928	1976	43
123	0	0	2362	1928	1978	43
124	0	0	2359	1928	1978	44
125	0	0	2360	1929	1978	43
126	0	0	2357	1928	1974	46
127	0	0	2356	1927	1971	44
0	0	0	2357	1925	1970	44
1	0	0	2354	1928	1971	43
2	0	0	2355	1926	1972	43
3	0	0	2356	1928	1974	44
4	0	0	2353	1928	1976	43
5	0	0	2351	1927	1976	43
6	0	0	2351	1927	1978	41
7	0	0	2351	1927	1977	42
8	0	0	2348	1926	1974	44
9	0	0	2349	1928	1971	43
10	0	0	2349	1927	1970	39
11	0	0	2347	1927	1971	41
12	0	0	2346	1927	1972	43
13	0	0	2346	1929	1974	43
14	0	0	2345	1928	1976	43
15	0	0	2345	1923	1977	43
16	0	0	2344	1928	1978	44
17	0	0	2342	1927	1977	44
18	0	0	2340	1928	1975	43
19	0	0	2339	1926	1971	43
20	0	0	2340	1925	1969	43
21	0	0	2340	1927	1971	46
22	0	0	2339	1927	1972	41
23	0	0	2338	1927	1975	43
24	0	0	2337	1927	1977	41
25	0	0	2337	1927	1978	46
26	0	0	2334	1927	1978	46
27	0	0	2334	1926	1977	44
28	0	0	2332	1925	1975	43
29	0	0	2332	1926	1972	43
30	0	0	2334	1925	1971	42
31	0	0	2332	1927	1972	43
32	0	0	2331	1926	1973	42
33	0	0	2329	1928	1975	44
34	0	0	2329	1926	1977	41
35	0	0	2328	1926	1978	41
36	0	0	2327	1926	1979	43
37	0	0	2329	1923	1978	43
38	0	0	2322	1925	1976	43
39	0	0	2326	1925	1972	43
40	0	0	2325	1925	1971	41
41	0	0	2326	1926	1972	44
42	0	0	2322	1925	1974	42
43	0	0	2323	1927	1976	43
44	0	0	2322	1924	1977	43
45	0	0	2322	1926	1980	44
46	0	0	2321	1926	1981	46
47	0	0	2319	1925	1980	46
48	0	0	2318	1925	1977	44
49	0	0	2318	1925	1975	40
50	0	0	2318	1925	1972	41
51	0	0	2321	1925	1973	43
52	0	0	2316	1926	1974	46
53	0	0	2315	1924	1976	44
54	0	0	2314	1925	1979	43
55	0	0	2314	1926	1981	41
56	0	0	2313	1927	1982	44
57	0	0	2313	1925	1980	42
58	0	0	2312	1925	1978	44
59	0	0	2311	1925	1976	42
60	0	0	2311	1925	1974	43
61	0	0	2308	1925	1976	43
62	0	0	2310	1925	1976	43
63	0	0	2310	1926	1978	43
64	0	0	2308	1925	1980	47
65	0	0	2307	1923	1983	46
66	0	0	2310	1925	1983	45
67	0	0	2307	1923	1982	44
68	0	0	2304	1923	1979	44
69	0	0	2305	1923	1976	43
70	0	0	2303	1925	1975	41
71	0	0	2304	1925	1977	44
72	0	0	2301	1924	1978	46
73	0	0	2302	1924	1980	44
74	0	0	2300	1925	1983	44
75	0	0	2299	1923	1985	43
76	0	0	2303	1925	1985	42
77	0	0	2299	1925	1985	43
78	0	0	2299	1924	1982	45
79	0	0	2299	1924	1978	43
80	0	0	2297	1923	1978	45
81	0	0	2298	1924	1978	46
82	0	0	2295	1924	1979	46
83	0	0	2292	1923	1982	44
84	0	0	2275	1918	1984	42
85	0	0	2194	1922	1986	44
86	0	0	2154	1923	1987	46
87	0	0	2108	1922	1986	43
88	0	0	2046	1921	1983	44
89	0	0	1967	1920	1978	42
90	0	0	1940	1922	1979	44
91	0	0	1966	1923	1980	44
92	0	0	2019	1922	1981	47
93	0	0	2064	1919	1984	42
94	0	0	2097	1923	1988	44
95	0	0	2116	1924	1990	44
96	0	0	2121	1923	1991	44
97	0	0	2105	1923	1990	46
98	0	0	2087	1922	1987	43
99	0	0	2095	1924	1982	42
100	0	0	2058	1921	1983	42
101	0	0	2001	1922	1984	44
102	0	0	1949	1920	1985	46
103	0	0	1865	1919	1988	43
104	0	0	1776	1920	1988	41
105	0	0	1712	1922	1993	43
106	0	0	1688	1924	1993	44
107	0	0	1681	1924	1993	43
108	0	0	1677	1923	1990	43
109	0	0	1649	1921	1986	43
110	0	0	1628	1921	1985	43
111	0	0	1647	1923	1986	46
112	0	0	1667	1923	1988	46
113	0	0	1677	1922	1991	44
114	0	0	1699	1923	1992	41
115	0	0	1722	1924	1996	44
116	0	0	1744	1925	1997	43
117	0	0	1761	1924	1997	46
118	0	0	1786	1923	1994	44
119	0	0	1826	1924	1988	41
120	0	0	1820	1924	1990	44
121	0	0	1778	1922	1991	47
122	0	0	1715	1920	1993	46
123	0	0	1627	1919	1995	43
124	0	0	1555	1920	1997	42
125	0	0	1502	1922	2000	43
126	0	0	1457	1921	2002	47
127	0	0	1425	1921	2001	43
0	0	0	1396	1920	1998	45
1	0	0	1371	1922	1992	41
2	0	0	1372	1924	1993	44
3	0	0	1389	1924	1994	43
4	0	0	1418	1924	1996	45
5	0	0	1472	1923	2000	44
6	0	0	1515	1924	2002	42
7	0	0	1546	1922	2005	44
8	0	0	1561	1924	2008	36
9	0	0	1560	1924	2007	45
10	0	0	1540	1927	2005	44
11	0	0	1530	1923	2000	45
12	0	0	1491	1921	1999	44
13	0	0	1436	1922	2001	43
14	0	0	1395	1923	2002	41
15	0	0	1378	1926	2006	43
16	0	0	1369	1926	2009	46
17	0	0	1366	1926	2011	42
18	0	0	1346	1923	2013	44
19	0	0	1316	1921	2012	45
20	0	0	1298	1921	2008	44
21	0	0	1276	1922	2004	46
22	0	0	1277	1924	2003	44
23	0	0	1290	1924	2004	45
24	0	0	1306	1924	2007	46
25	0	0	1322	1925	2012	45
26	0	0	1342	1925	2015	43
27	0	0	1363	1925	2018	44
28	0	0	1388	1924	2020	44
29	0	0	1410	1924	2019	43
30	0	0	1449	1927	2016	44
31	0	0	1513	1926	2012	45
32	0	0	1523	1926	2011	44
33	0	0	1497	1924	2012	44
34	0	0	1462	1923	2015	46
35	0	0	1415	1921	2017	44
36	0	0	1366	1922	2021	47
37	0	0	1342	1925	2024	47
38	0	0	1332	1925	2026	41
39	0	0	1297	1922	2025	45
40	0	0	1251	1921	2022	44
41	0	0	1202	1922	2017	45
42	0	0	1171	1924	2016	42
43	0	0	1170	1926	2017	44
44	0	0	1193	1926	2019	45
45	0	0	1236	1927	2023	45
46	0	0	1268	1928	2027	45
47	0	0	1288	1928	2030	44
48	0	0	1328	1924	2032	45
49	0	0	1376	1927	2031	44
50	0	0	1414	1927	2027	45
51	0	0	1463	1929	2023	44
52	0	0	1474	1929	2021	44
53	0	0	1442	1926	2023	43
54	0	0	1413	1925	2023	44
55	0	0	1366	1924	2028	45
56	0	0	1307	1922	2031	44
57	0	0	1267	1926	2034	42
58	0	0	1234	1926	2035	44
59	0	0	1205	1925	2033	44
60	0	0	1176	1926	2030	45
61	0	0	1144	1926	2025	47
62	0	0	1155	1927	2023	43
63	0	0	1196	1930	2025	45
64	0	0	1242	1931	2028	45
65	0	0	1285	1932	2030	45
66	0	0	1307	1930	2034	45
67	0	0	1337	1934	2037	43
68	0	0	1362	1932	2038	45
69	0	0	1381	1934	2037	44
70	0	0	1396	1934	2033	45
71	0	0	1404	1936	2029	45
72	0	0	1362	1930	2026	44
73	0	0	1315	1931	2028	46
74	0	0	1281	1933	2030	44
75	0	0	1249	1934	2033	44
76	0	0	1212	1931	2036	43
77	0	0	1177	1935	2039	44
78	0	0	1155	1935	2040	43
79	0	0	1132	1935	2038	45
80	0	0	1115	1934	2035	44
81	0	0	1092	1935	2028	45
82	0	0	1105	1936	2027	47
83	0	0	1111	1938	2029	44
84	0	0	1114	1938	2032	44
85	0	0	1123	1938	2034	45
86	0	0	1121	1939	2037	43
87	0	0	1106	1935	2040	45
88	0	0	1100	1941	2042	46
89	0	0	1100	1939	2039	43
90	0	0	1104	1941	2037	45
91	0	0	1123	1940	2032	42
92	0	0	1116	1939	2030	45
93	0	0	1087	1937	2031	46
94	0	0	1054	1939	2033	43
95	0	0	1008	1938	2035	45
96	0	0	961	1938	2039	44
97	0	0	917	1939	2041	44
98	0	0	883	1938	2042	45
99	0	0	853	1941	2040	43
100	0	0	844	1939	2036	44
101	0	0	840	1940	2031	45
102	0	0	842	1941	2029	45
103	0	0	855	1942	2030	45
104	0	0	891	1942	2032	44
105	0	0	925	1942	2036	44
106	0	0	944	1944	2040	43
107	0	0	974	1944	2042	46
108	0	0	1005	1943	2043	44
109	0	0	1031	1945	2042	45
110	0	0	1057	1944	2038	45
111	0	0	1095	1945	2032	43
112	0	0	1110	1945	2031	44
113	0	0	1095	1943	2031	45
114	0	0	1067	1941	2033	44
115	0	0	1012	1941	2036	44
116	0	0	957	1942	2040	45
117	0	0	920	1943	2042	44
118	0	0	887	1942	2043	47
119	0	0	872	1942	2041	42
120	0	0	858	1943	2037	44
121	0	0	835	1940	2031	45
122	0	0	828	1945	2029	44
123	0	0	857	1945	2031	45
124	0	0	890	1946	2032	44
125	0	0	932	1946	2036	44
126	0	0	968	1943	2040	44
127	0	0	997	1946	2042	47
0	0	0	1029	1947	2043	46
1	0	0	1059	1946	2042	44
2	0	0	1076	1946	2039	43
3	0	0	1101	1948	2033	48
4	0	0	1094	1945	2030	45
5	0	0	1063	1944	2032	45
6	0	0	1025	1944	2033	46
7	0	0	986	1945	2036	45
8	0	0	980	1948	2039	44
9	0	0	972	1946	2042	45
10	0	0	923	1944	2042	45
11	0	0	848	1943	2041	46
12	0	0	786	1942	2036	44
13	0	0	737	1941	2030	45
14	0	0	719	1945	2029	45
15	0	0	744	1948	2030	45
16	0	0	810	1948	2032	46
17	0	0	895	1947	2036	45
18	0	0	943	1949	2039	41
19	0	0	968	1949	2041	46
20	0	0	984	1948	2043	44
21	0	0	992	1948	2041	46
22	0	0	989	1948	2037	47
23	0	0	995	1949	2031	46
24	0	0	973	1946	2030	45
25	0	0	945	1946	2030	45
26	0	0	926	1946	2031	47
27	0	0	894	1946	2035	45
28	0	0	873	1944	2037	44
29	0	0	859	1947	2040	44
30	0	0	840	1947	2040	44
31	0	0	815	1945	2038	46
32	0	0	787	1947	2035	43
33	0	0	749	1946	2028	44
34	0	0	744	1948	2026	46
35	0	0	768	1949	2026	46
36	0	0	800	1948	2028	46
37	0	0	843	1951	2032	42
38	0	0	897	1949	2035	45
39	0	0	955	1949	2037	45
40	0	0	1000	1949	2038	45
41	0	0	1029	1949	2036	43
42	0	0	1047	1947	2031	45
43	0	0	1051	1945	2025	45
44	0	0	1005	1947	2024	45
45	0	0	936	1947	2024	43
46	0	0	877	1946	2025	46
47	0	0	826	1948	2029	45
48	0	0	778	1947	2031	44
49	0	0	743	1948	2033	45
50	0	0	724	1948	2033	43
51	0	0	722	1948	2031	43
52	0	0	721	1947	2027	43
53	0	0	717	1948	2021	42
54	0	0	727	1948	2018	45
55	0	0	743	1951	2019	43
56	0	0	760	1947	2020	45
57	0	0	772	1949	2024	44
58	0	0	803	1950	2027	45
59	0	0	843	1949	2029	47
60	0	0	896	1951	2030	44
61	0	0	931	1951	2028	39
62	0	0	947	1950	2024	48
63	0	0	990	1949	2018	43
64	0	0	999	1949	2016	45
65	0	0	974	1949	2016	44
66	0	0	957	1947	2018	43
67	0	0	926	1947	2020	43
68	0	0	896	1947	2023	44
69	0	0	853	1945	2025	46
70	0	0	787	1949	2026	44
71	0	0	744	1941	2023	39
72	0	0	708	1946	2018	44
73	0	0	676	1945	2012	44
74	0	0	651	1946	2009	45
75	0	0	650	1950	2010	44
76	0	0	670	1950	2011	39
77	0	0	713	1950	2014	45
78	0	0	761	1951	2017	43
79	0	0	798	1951	2019	43
80	0	0	826	1949	2019	44
81	0	0	857	1951	2017	42
82	0	0	880	1950	2012	44
83	0	0	926	1950	2005	44
84	0	0	935	1949	2003	43
85	0	0	897	1947	2002	42
86	0	0	857	1948	2004	43
87	0	0	800	1947	2005	43
88	0	0	748	1947	2007	43
89	0	0	715	1948	2009	44
90	0	0	684	1947	2008	44
91	0	0	653	1947	2006	40
92	0	0	659	1952	2000	43
93	0	0	652	1947	1993	43
94	0	0	639	1949	1990	43
95	0	0	651	1948	1989	43
96	0	0	663	1952	1991	41
97	0	0	686	1951	1994	43
98	0	0	705	1951	1997	41
99	0	0	712	1951	1998	43
100	0	0	727	1951	1999	45
101	0	0	748	1950	1998	39
102	0	0	752	1951	1991	43
103	0	0	780	1953	1986	43
104	0	0	810	1951	1983	43
105	0	0	791	1946	1984	42
106	0	0	760	1947	1985	40
107	0	0	719	1948	1988	43
108	0	0	671	1946	1992	43
109	0	0	629	1946	1994	43
110	0	0	578	1946	1994	43
111	0	0	530	1947	1992	42
112	0	0	482	1948	1989	43
113	0	0	436	1946	1982	44
114	0	0	421	1946	1980	45
115	0	0	422	1946	1980	44
116	0	0	417	1947	1983	40
117	0	0	419	1949	1987	42
118	0	0	427	1949	1990	43
119	0	0	437	1948	1993	43
120	0	0	429	1948	1994	44
121	0	0	416	1948	1992	41
122	0	0	420	1951	1987	42
123	0	0	442	1947	1981	47
124	0	0	411	1946	1979	43
125	0	0	373	1946	1980	43
126	0	0	332	1947	1982	42
127	0	0	267	1947	1986	43
0	0	0	201	1947	1989	42
1	0	0	155	1948	1992	43
2	0	0	130	1946	1993	42
3	0	0	112	1947	1991	40
4	0	0	92	1948	1987	43
5	0	0	58	1945	1981	44
6	0	0	29	1946	1980	47
7	0	0	23	1948	1981	43
8	0	0	48	1950	1983	44
9	0	0	96	1951	1987	42
10	0	0	152	1950	1991	47
11	0	0	201	1951	1994	42
12	0	0	244	1949	1997	43
13	0	0	291	1950	1996	42
14	0	0	294	1948	1992	44
15	0	0	315	1950	1987	43
16	0	0	320	1949	1986	42
17	0	0	324	1948	1987	43
18	0	0	297	1946	1990	42
19	0	0	222	1946	1994	43
20	0	0	148	1947	1999	43
21	0	0	99	1947	2003	43
22	0	0	76	1944	2004	44
23	0	0	68	1947	2004	43
24	0	0	56	1947	2000	43
25	0	0	39	1945	1995	42
26	0	0	29	1947	1993	41
27	0	0	48	1949	1996	43
28	0	0	82	1949	1999	43
29	0	0	122	1950	2003	43
30	0	0	181	1948	2008	44
31	0	0	245	1950	2009	44
32	0	0	279	1950	2013	44
33	0	0	286	1946	2012	44
34	0	0	284	1949	2008	44
35	0	0	323	1949	2003	43
36	0	0	349	1951	2002	42
37	0	0	348	1946	2003	43
38	0	0	335	1947	2006	43
39	0	0	313	1947	2011	43
40	0	0	289	1947	2015	42
41	0	0	270	1947	2017	46
42	0	0	255	1947	2020	44
43	0	0	227	1946	2019	44
44	0	0	185	1946	2016	43
45	0	0	143	1945	2010	44
46	0	0	136	1948	2009	44
47	0	0	162	1949	2012	44
48	0	0	178	1946	2015	44
49	0	0	192	1946	2020	43
50	0	0	207	1948	2025	45
51	0	0	210	1947	2028	44
52	0	0	212	1948	2031	45
53	0	0	215	1947	2031	45
54	0	0	244	1949	2029	44
55	0	0	311	1951	2025	41
56	0	0	324	1947	2024	44
57	0	0	292	1946	2027	45
58	0	0	261	1946	2030	44
59	0	0	232	1945	2035	43
60	0	0	212	1946	2040	43
61	0	0	199	1947	2043	45
62	0	0	212	1951	2048	43
63	0	0	236	1948	2048	43
64	0	0	244	1945	2044	44
65	0	0	225	1946	2041	41
66	0	0	213	1945	2040	46
67	0	0	208	1947	2043	44
68	0	0	212	1946	2048	43
69	0	0	220	1944	2054	42
70	0	0	221	1946	2060	43
71	0	0	227	1947	2063	44
72	0	0	252	1951	2067	44
73	0	0	286	1948	2067	43
74	0	0	328	1948	2065	43
75	0	0	401	1949	2062	47
76	0	0	459	1949	2062	45
77	0	0	462	1947	2064	43
78	0	0	429	1946	2069	44
79	0	0	386	1946	2074	43
80	0	0	329	1945	2079	44
81	0	0	271	1945	2081	44
82	0	0	215	1945	2085	44
83	0	0	161	1944	2085	44
84	0	0	111	1944	2083	45
85	0	0	79	1943	2078	44
86	0	0	77	1945	2080	44
87	0	0	95	1950	2081	43
88	0	0	132	1947	2085	44
89	0	0	168	1946	2090	44
90	0	0	200	1948	2095	46
91	0	0	230	1948	2099	44
92	0	0	263	1949	2102	45
93	0	0	280	1946	2102	45
94	0	0	296	1947	2099	45
95	0	0	339	1948	2095	42
96	0	0	388	1948	2095	47
97	0	0	411	1949	2097	44
98	0	0	413	1945	2100	47
99	0	0	404	1943	2105	46
100	0	0	395	1945	2109	47
101	0	0	352	1944	2113	46
102	0	0	316	1944	2115	44
103	0	0	311	1945	2115	45
104	0	0	308	1944	2112	44
105	0	0	303	1945	2108	46
106	0	0	301	1945	2108	47
107	0	0	320	1949	2110	44
108	0	0	356	1947	2113	44
109	0	0	394	1947	2118	45
110	0	0	425	1946	2123	47
111	0	0	466	1946	2127	46
112	0	0	504	1948	2129	45
113	0	0	554	1946	2130	45
114	0	0	620	1947	2126	45
115	0	0	679	1947	2123	44
116	0	0	719	1946	2123	47
117	0	0	759	1947	2124	45
118	0	0	792	1947	2128	45
119	0	0	820	1946	2133	45
120	0	0	842	1946	2137	47
121	0	0	852	1946	2141	47
122	0	0	853	1947	2143	46
123	0	0	843	1943	2142	47
124	0	0	806	1943	2140	48
125	0	0	752	1944	2136	47
126	0	0	716	1943	2135	45
127	0	0	692	1942	2137	45
0	0	0	669	1942	2140	47
1	0	0	633	1942	2145	45
2	0	0	597	1943	2148	46
3	0	0	584	1943	2153	47
4	0	0	565	1943	2155	47
5	0	0	529	1941	2154	44
6	0	0	487	1941	2152	48
7	0	0	465	1943	2147	46
8	0	0	442	1942	2147	42
9	0	0	398	1941	2150	46
10	0	0	353	1941	2152	46
11	0	0	306	1941	2157	47
12	0	0	276	1942	2160	46
13	0	0	251	1942	2165	47
14	0	0	233	1945	2167	47
15	0	0	247	1945	2165	47
16	0	0	265	1942	2163	47
17	0	0	256	1943	2158	47
18	0	0	266	1945	2158	47
19	0	0	305	1946	2160	45
20	0	0	348	1945	2163	47
21	0	0	381	1946	2168	46
22	0	0	404	1945	2172	47
23	0	0	429	1944	2176	45
24	0	0	458	1945	2178	45
25	0	0	482	1944	2177	46
26	0	0	508	1945	2175	46
27	0	0	554	1945	2171	49
28	0	0	610	1945	2170	47
29	0	0	659	1944	2172	47
30	0	0	688	1943	2175	48
31	0	0	696	1943	2179	46
32	0	0	722	1944	2183	47
33	0	0	741	1944	2186	47
34	0	0	720	1940	2188	47
35	0	0	675	1940	2187	47
36	0	0	628	1940	2185	47
37	0	0	578	1940	2180	47
38	0	0	544	1941	2180	45
39	0	0	532	1942	2181	47
40	0	0	546	1943	2184	47
41	0	0	582	1943	2188	47
42	0	0	625	1945	2192	46
43	0	0	655	1943	2196	43
44	0	0	656	1940	2198	45
45	0	0	663	1942	2198	46
46	0	0	676	1942	2195	45
47	0	0	692	1942	2190	46
48	0	0	690	1939	2190	47
49	0	0	674	1941	2190	46
50	0	0	658	1939	2193	46
51	0	0	636	1939	2197	47
52	0	0	612	1940	2201	48
53	0	0	599	1940	2203	48
54	0	0	582	1939	2205	48
55	0	0	573	1942	2204	48
56	0	0	575	1940	2202	48
57	0	0	577	1940	2197	46
58	0	0	581	1943	2196	45
59	0	0	608	1942	2197	46
60	0	0	645	1942	2199	48
61	0	0	684	1942	2204	46
62	0	0	706	1942	2207	47
63	0	0	718	1942	2209	47
64	0	0	737	1942	2211	46
65	0	0	743	1939	2210	47
66	0	0	754	1941	2207	51
67	0	0	772	1939	2202	45
68	0	0	786	1942	2201	44
69	0	0	803	1942	2202	47
70	0	0	818	1940	2204	48
71	0	0	823	1939	2208	47
72	0	0	817	1938	2211	47
73	0	0	794	1940	2214	47
74	0	0	783	1939	2215	47
75	0	0	783	1940	2213	47
76	0	0	779	1939	2211	47
77	0	0	765	1939	2206	49
78	0	0	781	1943	2203	48
79	0	0	803	1943	2205	48
80	0	0	798	1939	2207	48
81	0	0	777	1940	2209	46
82	0	0	755	1938	2213	47
83	0	0	740	1939	2215	44
84	0	0	732	1939	2217	46
85	0	0	724	1938	2216	47
86	0	0	718	1938	2212	45
87	0	0	716	1937	2207	48
88	0	0	713	1937	2205	44
89	0	0	709	1936	2206	48
90	0	0	716	1937	2208	46
91	0	0	739	1939	2211	48
92	0	0	773	1939	2214	48
93	0	0	804	1940	2217	47
94	0	0	834	1939	2217	47
95	0	0	841	1939	2217	48
96	0	0	852	1940	2213	47
97	0	0	864	1939	2207	47
98	0	0	870	1939	2205	48
99	0	0	863	1938	2206	48
100	0	0	840	1937	2208	47
101	0	0	832	1938	2211	46
102	0	0	838	1935	2214	45
103	0	0	835	1937	2216	44
104	0	0	825	1936	2217	47
105	0	0	811	1936	2217	47
106	0	0	798	1936	2212	46
107	0	0	798	1937	2207	47
108	0	0	824	1939	2205	47
109	0	0	879	1938	2206	47
110	0	0	923	1938	2208	46
111	0	0	946	1936	2210	47
112	0	0	944	1934	2213	47
113	0	0	937	1936	2215	48
114	0	0	936	1936	2216	48
115	0	0	955	1938	2214	48
116	0	0	979	1938	2211	49
117	0	0	982	1939	2204	48
118	0	0	980	1936	2203	49
119	0	0	970	1935	2203	47
120	0	0	967	1940	2205	47
121	0	0	982	1939	2208	46
122	0	0	999	1938	2211	47
123	0	0	996	1936	2213	47
124	0	0	979	1936	2214	46
125	0	0	957	1935	2212	46
126	0	0	931	1934	2209	45
127	0	0	903	1934	2201	48
0	0	0	886	1933	2200	47
1	0	0	899	1935	2200	47
2	0	0	906	1934	2202	47
3	0	0	923	1936	2205	48
4	0	0	954	1935	2207	48
5	0	0	972	1937	2208	48
6	0	0	993	1936	2209	47
7	0	0	1018	1937	2208	47
8	0	0	1026	1935	2204	48
9	0	0	1020	1935	2199	47
10	0	0	1021	1936	2195	48
11	0	0	1031	1935	2196	46
12	0	0	1049	1938	2198	47
13	0	0	1069	1937	2200	47
14	0	0	1074	1935	2203	47
15	0	0	1061	1935	2206	47
16	0	0	1047	1937	2205	46
17	0	0	1066	1936	2204	47
18	0	0	1071	1934	2199	45
19	0	0	1061	1933	2194	45
20	0	0	1056	1933	2191	47
21	0	0	1059	1933	2191	47
22	0	0	1062	1933	2192	47
23	0	0	1088	1936	2195	47
24	0	0	1117	1936	2198	47
25	0	0	1135	1935	2200	48
26	0	0	1128	1933	2199	47
27	0	0	1113	1933	2197	48
28	0	0	1114	1935	2193	47
29	0	0	1128	1936	2186	47
30	0	0	1145	1936	2183	47
31	0	0	1168	1936	2184	46
32	0	0	1181	1936	2185	47
33	0	0	1188	1935	2188	46
34	0	0	1193	1934	2191	47
35	0	0	1197	1936	2193	45
36	0	0	1205	1933	2192	46
37	0	0	1194	1932	2190	46
38	0	0	1166	1932	2186	46
39	0	0	1130	1931	2180	43
40	0	0	1111	1931	2178	46
41	0	0	1123	1934	2178	46
42	0	0	1146	1934	2180	47
43	0	0	1187	1934	2182	47
44	0	0	1234	1934	2185	47
45	0	0	1261	1934	2186	47
46	0	0	1272	1934	2186	48
47	0	0	1278	1935	2184	48
48	0	0	1289	1935	2179	47
49	0	0	1288	1934	2171	46
50	0	0	1285	1933	2169	46
51	0	0	1290	1933	2170	48
52	0	0	1288	1933	2172	47
53	0	0	1276	1931	2174	47
54	0	0	1254	1931	2179	43
55	0	0	1227	1932	2181	46
56	0	0	1217	1930	2182	46
57	0	0	1219	1931	2180	46
58	0	0	1228	1934	2176	45
59	0	0	1237	1935	2170	45
60	0	0	1263	1933	2169	47
61	0	0	1303	1933	2170	46
62	0	0	1327	1933	2172	47
63	0	0	1330	1930	2174	47
64	0	0	1326	1932	2176	46
65	0	0	1318	1931	2179	47
66	0	0	1309	1930	2179	46
67	0	0	1310	1933	2178	46
68	0	0	1323	1933	2173	48
69	0	0	1331	1933	2166	45
70	0	0	1335	1933	2163	46
71	0	0	1343	1932	2164	47
72	0	0	1350	1932	2166	47
73	0	0	1341	1931	2169	47
74	0	0	1336	1931	2173	47
75	0	0	1340	1932	2177	46
76	0	0	1362	1932	2178	44
77	0	0	1374	1932	2177	45
78	0	0	1373	1930	2174	47
79	0	0	1357	1931	2168	46
80	0	0	1332	1929	2167	47
81	0	0	1318	1930	2168	47
82	0	0	1307	1929	2170	47
83	0	0	1311	1932	2173	47
84	0	0	1328	1932	2175	47
85	0	0	1347	1933	2178	47
86	0	0	1368	1931	2179	47
87	0	0	1382	1930	2177	46
88	0	0	1384	1932	2172	48
89	0	0	1393	1933	2165	47
90	0	0	1392	1930	2164	47
91	0	0	1394	1930	2165	47
92	0	0	1378	1929	2167	45
93	0	0	1375	1931	2171	47
94	0	0	1388	1933	2174	46
95	0	0	1378	1930	2179	47
96	0	0	1373	1930	2181	45
97	0	0	1390	1933	2181	45
98	0	0	1408	1932	2177	45
99	0	0	1407	1929	2172	44
100	0	0	1412	1932	2171	48
101	0	0	1424	1930	2171	46
102	0	0	1430	1932	2174	47
103	0	0	1438	1933	2177	47
104	0	0	1459	1933	2178	46
105	0	0	1483	1932	2181	47
106	0	0	1489	1931	2182	47
107	0	0	1495	1931	2180	47
108	0	0	1500	1930	2177	47
109	0	0	1493	1930	2170	45
110	0	0	1486	1929	2168	48
111	0	0	1486	1932	2169	47
112	0	0	1488	1931	2171	47
113	0	0	1484	1928	2176	44
114	0	0	1465	1928	2180	45
115	0	0	1442	1928	2182	46
116	0	0	1423	1928	2184	47
117	0	0	1415	1930	2184	47
118	0	0	1428	1931	2181	46
119	0	0	1445	1931	2177	44
120	0	0	1455	1931	2175	46
121	0	0	1472	1929	2176	46
122	0	0	1498	1930	2178	46
123	0	0	1524	1930	2181	47
124	0	0	1534	1930	2184	47
125	0	0	1534	1930	2187	46
126	0	0	1527	1928	2187	47
127	0	0	1517	1930	2186	47
0	0	0	1543	1931	2182	47
1	0	0	1564	1930	2177	47
2	0	0	1571	1931	2174	47
3	0	0	1575	1931	2176	45
4	0	0	1578	1932	2180	46
5	0	0	1589	1931	2183	46
6	0	0	1600	1931	2188	46
7	0	0	1603	1931	2193	46
8	0	0	1587	1927	2193	46
9	0	0	1561	1928	2193	46
10	0	0	1554	1928	2191	47
11	0	0	1552	1930	2187	47
12	0	0	1558	1930	2186	45
13	0	0	1569	1930	2187	47
14	0	0	1590	1931	2189	47
15	0	0	1635	1930	2193	47
16	0	0	1673	1931	2196	52
17	0	0	1703	1931	2198	48
18	0	0	1721	1931	2199	49
19	0	0	1716	1930	2198	47
20	0	0	1721	1929	2196	47
21	0	0	1712	1929	2190	45
22	0	0	1706	1930	2188	45
23	0	0	1712	1931	2189	47
24	0	0	1720	1932	2193	46
25	0	0	1715	1928	2197	47
26	0	0	1694	1929	2200	47
27	0	0	1666	1927	2205	47
28	0	0	1632	1927	2206	47
29	0	0	1630	1932	2207	47
30	0	0	1646	1930	2205	47
31	0	0	1665	1931	2199	47
32	0	0	1671	1931	2199	45
33	0	0	1690	1931	2199	47
34	0	0	1705	1930	2202	47
35	0	0	1724	1930	2205	47
36	0	0	1742	1932	2208	44
37	0	0	1752	1932	2210	47
38	0	0	1752	1930	2211	47
39	0	0	1744	1929	2210	47
40	0	0	1737	1932	2206	47
41	0	0	1721	1929	2200	47
42	0	0	1716	1928	2198	46
43	0	0	1712	1928	2199	47
44	0	0	1705	1929	2203	47
45	0	0	1705	1930	2207	47
46	0	0	1716	1931	2211	47
47	0	0	1746	1931	2213	47
48	0	0	1786	1931	2216	48
49	0	0	1819	1931	2216	48
50	0	0	1847	1932	2214	47
51	0	0	1888	1933	2210	47
52	0	0	1938	1933	2208	45
53	0	0	1963	1932	2208	47
54	0	0	1953	1931	2211	47
55	0	0	1916	1930	2213	46
56	0	0	1852	1929	2216	47
57	0	0	1788	1929	2217	47
58	0	0	1749	1929	2218	48
59	0	0	1722	1928	2216	47
60	0	0	1702	1930	2213	46
61	0	0	1687	1929	2207	48
62	0	0	1674	1930	2205	45
63	0	0	1678	1931	2206	48
64	0	0	1675	1929	2208	47
65	0	0	1672	1932	2212	47
66	0	0	1677	1932	2216	48
67	0	0	1701	1932	2220	47
68	0	0	1736	1932	2221	49
69	0	0	1785	1932	2222	48
70	0	0	1834	1932	2219	45
71	0	0	1883	1935	2214	48
72	0	0	1911	1935	2214	48
73	0	0	1902	1932	2213	47
74	0	0	1887	1931	2215	47
75	0	0	1872	1930	2217	48
76	0	0	1846	1931	2220	47
77	0	0	1815	1932	2223	47
78	0	0	1777	1930	2222	48
79	0	0	1748	1930	2221	48
80	0	0	1713	1930	2217	47
81	0	0	1668	1930	2211	47
82	0	0	1635	1930	2209	45
83	0	0	1630	1931	2210	46
84	0	0	1638	1932	2212	47
85	0	0	1650	1933	2216	47
86	0	0	1659	1933	2220	48
87	0	0	1684	1933	2224	46
88	0	0	1719	1933	2225	47
89	0	0	1760	1934	2225	47
90	0	0	1796	1936	2223	48
91	0	0	1818	1934	2218	48
92	0	0	1832	1935	2216	46
93	0	0	1819	1933	2216	48
94	0	0	1803	1933	2219	45
95	0	0	1755	1933	2221	48
96	0	0	1703	1933	2224	47
97	0	0	1677	1933	2225	46
98	0	0	1667	1932	2224	47
99	0	0	1662	1932	2223	48
100	0	0	1673	1930	2219	48
101	0	0	1662	1930	2213	47
102	0	0	1638	1931	2211	45
103	0	0	1626	1931	2212	47
104	0	0	1622	1931	2214	47
105	0	0	1639	1931	2218	48
106	0	0	1675	1933	2223	48
107	0	0	1716	1933	2227	48
108	0	0	1747	1934	2228	48
109	0	0	1769	1935	2228	47
110	0	0	1789	1936	2225	48
111	0	0	1814	1937	2220	49
112	0	0	1808	1934	2219	48
113	0	0	1801	1937	2220	48
114	0	0	1817	1936	2221	48
115	0	0	1824	1937	2223	48
116	0	0	1827	1935	2226	48
117	0	0	1791	1933	2227	46
118	0	0	1725	1932	2228	47
119	0	0	1670	1931	2225	47
120	0	0	1625	1932	2222	48
121	0	0	1590	1931	2216	45
122	0	0	1568	1932	2214	45
123	0	0	1572	1934	2216	47
124	0	0	1595	1933	2217	47
125	0	0	1634	1934	2222	48
126	0	0	1670	1935	2226	49
127	0	0	1709	1935	2229	47
0	0	0	1754	1936	2232	48
1	0	0	1798	1936	2230	48
2	0	0	1821	1937	2228	48
3	0	0	1846	1937	2224	48
4	0	0	1859	1939	2222	48
5	0	0	1841	1935	2223	49
6	0	0	1812	1935	2224	47
7	0	0	1760	1933	2226	47
8	0	0	1699	1934	2229	47
9	0	0	1671	1935	2231	47
10	0	0	1658	1935	2231	48
11	0	0	1662	1936	2229	48
12	0	0	1667	1937	2225	47
13	0	0	1660	1933	2219	46
14	0	0	1657	1935	2217	46
15	0	0	1671	1931	2217	48
16	0	0	1677	1935	2220	48
17	0	0	1674	1935	2224	47
18	0	0	1682	1936	2228	48
19	0	0	1697	1936	2232	49
20	0	0	1716	1937	2235	48
21	0	0	1751	1938	2232	48
22	0	0	1801	1937	2230	48
23	0	0	1879	1940	2226	48
24	0	0	1922	1940	2224	47
25	0	0	1912	1938	2224	48
26	0	0	1890	1936	2226	47
27	0	0	1855	1937	2228	47
28	0	0	1825	1936	2231	48
29	0	0	1811	1937	2233	47
30	0	0	1790	1936	2235	47
31	0	0	1777	1936	2230	48
32	0	0	1771	1935	2227	47
33	0	0	1745	1934	2221	48
34	0	0	1715	1935	2219	47
35	0	0	1714	1939	2221	48
36	0	0	1737	1937	2222	47
37	0	0	1761	1938	2226	47
38	0	0	1793	1938	2231	48
39	0	0	1828	1939	2234	47
40	0	0	1869	1940	2236	49
41	0	0	1899	1940	2235	49
42	0	0	1907	1940	2232	47
43	0	0	1929	1941	2228	48
44	0	0	1956	1942	2226	47
45	0	0	1959	1940	2227	47
46	0	0	1923	1938	2228	47
47	0	0	1877	1938	2230	47
48	0	0	1849	1940	2233	47
49	0	0	1847	1940	2234	44
50	0	0	1824	1938	2234	47
51	0	0	1808	1937	2232	48
52	0	0	1784	1936	2228	45
53	0	0	1766	1938	2222	47
54	0	0	1780	1939	2219	47
55	0	0	1798	1939	2221	47
56	0	0	1813	1939	2222	48
57	0	0	1831	1940	2226	48
58	0	0	1856	1939	2231	48
59	0	0	1899	1940	2234	50
60	0	0	1940	1940	2235	49
61	0	0	1984	1941	2234	49
62	0	0	2015	1942	2231	48
63	0	0	2056	1943	2227	48
64	0	0	2075	1943	2225	47
65	0	0	2054	1940	2225	48
66	0	0	2020	1940	2226	47
67	0	0	1990	1941	2228	47
68	0	0	1955	1939	2230	47
69	0	0	1912	1940	2232	47
70	0	0	1893	1940	2231	47
71	0	0	1877	1938	2230	47
72	0	0	1843	1939	2225	47
73	0	0	1808	1937	2219	47
74	0	0	1790	1939	2216	47
75	0	0	1789	1941	2217	48
76	0	0	1800	1941	2219	47
77	0	0	1829	1941	2223	48
78	0	0	1870	1942	2227	47
79	0	0	1924	1942	2230	48
80	0	0	1975	1942	2231	48
81	0	0	2023	1943	2231	48
82	0	0	2054	1942	2228	48
83	0	0	2109	1943	2223	48
84	0	0	2144	1945	2221	48
85	0	0	2123	1941	2219	47
86	0	0	2085	1942	2223	47
87	0	0	2032	1941	2224	47
88	0	0	1978	1940	2225	46
89	0	0	1942	1941	2228	45
90	0	0	1922	1940	2227	45
91	0	0	1899	1940	2226	47
92	0	0	1883	1941	2221	47
93	0	0	1881	1940	2215	47
94	0	0	1858	1940	2212	44
95	0	0	1855	1942	2212	46
96	0	0	1876	1942	2215	46
97	0	0	1907	1942	2219	48
98	0	0	1939	1941	2223	51
99	0	0	1982	1944	2227	45
100	0	0	2007	1945	2229	48
101	0	0	2020	1943	2227	48
102	0	0	2031	1945	2225	48
103	0	0	2052	1946	2220	49
104	0	0	2065	1945	2217	47
105	0	0	2058	1944	2217	47
106	0	0	2056	1945	2219	47
107	0	0	2035	1942	2221	47
108	0	0	1998	1942	2223	47
109	0	0	1949	1942	2225	46
110	0	0	1911	1942	2224	47
111	0	0	1883	1941	2223	47
112	0	0	1856	1941	2219	48
113	0	0	1823	1940	2213	47
114	0	0	1823	1944	2210	44
115	0	0	1844	1942	2211	47
116	0	0	1864	1944	2214	47
117	0	0	1901	1944	2218	49
118	0	0	1951	1944	2221	48
119	0	0	2000	1945	2224	47
120	0	0	2034	1944	2225	47
121	0	0	2059	1947	2225	47
122	0	0	2077	1945	2223	49
123	0	0	2110	1945	2217	47
124	0	0	2118	1947	2216	48
125	0	0	2113	1946	2215	47
126	0	0	2098	1944	2217	47
127	0	0	2060	1943	2220	48
0	0	0	2006	1943	2222	48
1	0	0	1957	1942	2224	48
2	0	0	1931	1943	2223	48
3	0	0	1922	1943	2222	47
4	0	0	1922	1945	2217	47
5	0	0	1911	1943	2210	46
6	0	0	1916	1944	2209	45
7	0	0	1949	1943	2209	46
8	0	0	1993	1944	2211	47
9	0	0	2021	1944	2215	47
10	0	0	2040	1946	2219	48
11	0	0	2080	1946	2223	48
12	0	0	2123	1945	2224	47
13	0	0	2155	1947	2225	48
14	0	0	2166	1944	2221	48
15	0	0	2188	1948	2216	48
16	0	0	2205	1948	2215	48
17	0	0	2186	1945	2214	47
18	0	0	2150	1945	2216	47
19	0	0	2107	1944	2219	47
20	0	0	2059	1944	2221	45
21	0	0	2018	1945	2223	48
22	0	0	1989	1944	2223	46
23	0	0	1950	1943	2221	47
24	0	0	1914	1944	2217	47
25	0	0	1900	1945	2210	45
26	0	0	1922	1946	2209	48
27	0	0	1967	1947	2210	45
28	0	0	2003	1945	2212	47
29	0	0	2016	1946	2216	47
30	0	0	2013	1947	2221	48
31	0	0	2028	1946	2224	45
32	0	0	2064	1947	2225	47
33	0	0	2108	1949	2226	48
34	0	0	2147	1949	2223	47
35	0	0	2176	1950	2218	48
36	0	0	2211	1950	2216	48
37	0	0	2223	1950	2216	47
38	0	0	2203	1945	2217	47
39	0	0	2151	1947	2220	49
40	0	0	2098	1946	2223	48
41	0	0	2075	1947	2225	46
42	0	0	2059	1947	2225	46
43	0	0	2040	1947	2224	46
44	0	0	2024	1946	2219	47
45	0	0	1986	1946	2213	46
46	0	0	1958	1947	2212	46
47	0	0	1966	1948	2211	46
48	0	0	1991	1949	2214	48
49	0	0	2033	1948	2219	46
50	0	0	2071	1948	2223	48
51	0	0	2110	1949	2227	48
52	0	0	2155	1949	2228	47
53	0	0	2209	1947	2228	48
54	0	0	2237	1950	2225	48
55	0	0	2265	1950	2221	48
56	0	0	2282	1951	2219	47
57	0	0	2268	1950	2219	47
58	0	0	2252	1947	2221	47
59	0	0	2217	1948	2224	46
60	0	0	2179	1948	2227	47
61	0	0	2150	1949	2228	46
62	0	0	2117	1947	2228	47
63	0	0	2092	1947	2227	46
64	0	0	2081	1948	2223	47
65	0	0	2065	1947	2217	47
66	0	0	2046	1948	2215	47
67	0	0	2037	1948	2216	46
68	0	0	2049	1950	2220	47
69	0	0	2097	1949	2223	48
70	0	0	2165	1951	2228	47
71	0	0	2229	1951	2232	48
72	0	0	2272	1951	2233	47
73	0	0	2295	1952	2234	49
74	0	0	2318	1952	2230	52
75	0	0	2356	1953	2226	48
76	0	0	2368	1953	2224	47
77	0	0	2336	1950	2224	47
78	0	0	2289	1949	2226	47
79	0	0	2245	1951	2228	47
80	0	0	2208	1951	2232	47
81	0	0	2183	1950	2234	47
82	0	0	2152	1948	2234	47
83	0	0	2113	1948	2232	47
84	0	0	2086	1949	2228	46
85	0	0	2070	1949	2223	47
86	0	0	2066	1951	2221	47
87	0	0	2089	1950	2221	47
88	0	0	2131	1950	2224	47
89	0	0	2159	1951	2228	49
90	0	0	2184	1953	2233	49
91	0	0	2205	1951	2236	47
92	0	0	2242	1952	2238	47
93	0	0	2294	1952	2238	49
94	0	0	2335	1955	2234	50
95	0	0	2366	1955	2231	48
96	0	0	2365	1954	2229	43
97	0	0	2337	1951	2228	48
98	0	0	2290	1950	2230	48
99	0	0	2216	1951	2232	49
100	0	0	2175	1952	2237	48
101	0	0	2152	1950	2238	47
102	0	0	2106	1949	2238	48
103	0	0	2072	1950	2237	47
104	0	0	2078	1953	2232	47
105	0	0	2062	1951	2227	46
106	0	0	2041	1950	2225	47
107	0	0	2055	1952	2225	47
108	0	0	2082	1951	2228	47
109	0	0	2098	1951	2232	47
110	0	0	2106	1952	2238	48
111	0	0	2145	1953	2241	51
112	0	0	2175	1953	2243	49
113	0	0	2236	1955	2242	48
114	0	0	2308	1953	2240	48
115	0	0	2342	1954	2235	47
116	0	0	2326	1952	2233	49
117	0	0	2278	1951	2232	48
118	0	0	2242	1952	2236	48
119	0	0	2196	1950	2238	48
120	0	0	2148	1951	2241	47
121	0	0	2092	1951	2243	47
122	0	0	2033	1950	2242	47
123	0	0	2007	1952	2242	47
124	0	0	2023	1953	2237	49
125	0	0	2043	1953	2231	47
126	0	0	2055	1953	2229	47
127	0	0	2044	1949	2229	48
0	0	0	2012	1949	2233	48
1	0	0	1992	1952	2237	51
2	0	0	2004	1954	2242	47
3	0	0	2039	1952	2245	49
4	0	0	2088	1952	2247	47
5	0	0	2139	1954	2246	50
6	0	0	2159	1954	2244	50
7	0	0	2191	1955	2240	48
8	0	0	2212	1955	2238	39
9	0	0	2193	1953	2237	49
10	0	0	2178	1953	2240	48
11	0	0	2152	1952	2242	48
12	0	0	2118	1952	2245	49
13	0	0	2087	1952	2246	43
14	0	0	2061	1952	2247	47
15	0	0	2038	1951	2245	47
16	0	0	2021	1951	2241	48
17	0	0	2014	1952	2235	49
18	0	0	2011	1953	2232	45
19	0	0	2015	1953	2233	47
20	0	0	2030	1953	2236	48
21	0	0	2051	1953	2240	47
22	0	0	2081	1951	2244	46
23	0	0	2121	1954	2248	47
24	0	0	2165	1951	2248	47
25	0	0	2198	1954	2249	48
26	0	0	2222	1956	2246	49
27	0	0	2264	1955	2241	48
28	0	0	2302	1957	2240	47
29	0	0	2308	1955	2239	48
30	0	0	2285	1953	2242	47
31	0	0	2227	1953	2244	47
32	0	0	2167	1950	2246	46
33	0	0	2120	1952	2248	48
34	0	0	2081	1951	2247	46
35	0	0	2060	1953	2246	48
36	0	0	2060	1954	2242	47
37	0	0	2048	1950	2236	47
38	0	0	2049	1954	2233	47
39	0	0	2083	1953	2234	47
40	0	0	2136	1953	2237	48
41	0	0	2190	1953	2241	48
42	0	0	2222	1953	2245	48
43	0	0	2255	1953	2247	48
44	0	0	2274	1953	2248	47
45	0	0	2276	1954	2248	48
46	0	0	2263	1954	2244	47
47	0	0	2278	1952	2238	48
48	0	0	2274	1954	2236	48
49	0	0	2269	1954	2236	47
50	0	0	2258	1952	2238	49
51	0	0	2217	1951	2241	47
52	0	0	2202	1953	2243	47
53	0	0	2197	1953	2247	48
54	0	0	2175	1952	2247	46
55	0	0	2170	1954	2246	47
56	0	0	2160	1953	2243	47
57	0	0	2132	1949	2236	47
58	0	0	2090	1950	2235	48
59	0	0	2075	1953	2235	48
60	0	0	2079	1954	2237	48
61	0	0	2094	1954	2241	47
62	0	0	2129	1954	2245	48
63	0	0	2169	1953	2247	48
64	0	0	2213	1954	2248	47
65	0	0	2237	1954	2247	48
66	0	0	2260	1954	2244	48
67	0	0	2319	1956	2238	50
68	0	0	2361	1955	2236	48
69	0	0	2368	1954	2236	48
70	0	0	2345	1952	2238	48
71	0	0	2307	1952	2241	47
72	0	0	2254	1950	2243	47
73	0	0	2217	1952	2246	47
74	0	0	2199	1953	2247	48
75	0	0	2198	1954	2245	47
76	0	0	2207	1954	2241	47
77	0	0	2189	1949	2235	47
78	0	0	2160	1950	2232	48
79	0	0	2137	1951	2232	48
80	0	0	2126	1956	2234	49
81	0	0	2142	1953	2237	47
82	0	0	2188	1953	2240	47
83	0	0	2240	1955	2243	47
84	0	0	2292	1955	2242	48
85	0	0	2326	1954	2241	47
86	0	0	2339	1954	2237	51
87	0	0	2369	1954	2231	47
88	0	0	2386	1954	2229	48
89	0	0	2378	1955	2228	46
90	0	0	2359	1953	2230	48
91	0	0	2335	1952	2232	47
92	0	0	2292	1951	2235	48
93	0	0	2246	1951	2237	48
94	0	0	2206	1952	2237	48
95	0	0	2179	1951	2235	47
96	0	0	2161	1953	2231	52
97	0	0	2155	1952	2225	47
98	0	0	2141	1953	2222	48
99	0	0	2152	1954	2221	47
100	0	0	2205	1954	2224	47
101	0	0	2265	1954	2226	45
102	0	0	2306	1953	2228	47
103	0	0	2328	1955	2231	46
104	0	0	2345	1954	2231	48
105	0	0	2361	1954	2230	49
106	0	0	2380	1955	2226	47
107	0	0	2404	1955	2221	47
108	0	0	2413	1956	2218	47
109	0	0	2395	1952	2217	47
110	0	0	2352	1952	2218	47
111	0	0	2299	1951	2221	47
112	0	0	2249	1949	2224	46
113	0	0	2223	1954	2226	48
114	0	0	2231	1954	2225	49
115	0	0	2234	1953	2224	47
116	0	0	2246	1954	2220	48
117	0	0	2246	1954	2214	47
118	0	0	2249	1955	2211	48
119	0	0	2279	1953	2211	47
120	0	0	2321	1954	2213	47
121	0	0	2360	1953	2216	47
122	0	0	2389	1951	2219	47
123	0	0	2426	1954	2222	48
124	0	0	2451	1954	2222	48
125	0	0	2466	1955	2222	48
126	0	0	2479	1954	2216	48
127	0	0	2516	1955	2211	47
0	0	0	2527	1955	2209	47
1	0	0	2496	1953	2208	47
2	0	0	2479	1955	2211	47
3	0	0	2456	1952	2213	44
4	0	0	2433	1953	2215	45
5	0	0	2407	1952	2218	48
6	0	0	2385	1952	2218	48
7	0	0	2375	1954	2217	48
8	0	0	2369	1954	2213	45
9	0	0	2357	1954	2207	47
10	0	0	2358	1954	2204	47
11	0	0	2374	1953	2204	49
12	0	0	2396	1952	2206	47
13	0	0	2427	1953	2208	47
14	0	0	2475	1955	2212	47
15	0	0	2520	1954	2214	47
16	0	0	2557	1954	2214	50
17	0	0	2599	1954	2213	47
18	0	0	2624	1954	2209	45
19	0	0	2636	1954	2202	45
20	0	0	2644	1954	2199	47
21	0	0	2611	1951	2199	48
22	0	0	2564	1951	2199	47
23	0	0	2520	1951	2202	47
24	0	0	2462	1951	2204	48
25	0	0	2442	1954	2206	48
26	0	0	2437	1953	2206	50
27	0	0	2427	1954	2204	47
28	0	0	2422	1954	2201	48
29	0	0	2421	1955	2194	47
30	0	0	2423	1953	2190	47
31	0	0	2451	1954	2190	47
32	0	0	2478	1952	2191	47
33	0	0	2478	1952	2193	46
34	0	0	2484	1955	2196	48
35	0	0	2506	1953	2198	50
36	0	0	2520	1954	2199	48
37	0	0	2545	1954	2197	46
38	0	0	2574	1953	2193	46
39	0	0	2621	1955	2187	48
40	0	0	2667	1953	2184	47
41	0	0	2668	1954	2183	47
42	0	0	2637	1952	2185	46
43	0	0	2597	1951	2187	46
44	0	0	2553	1952	2190	48
45	0	0	2514	1951	2193	47
46	0	0	2453	1950	2193	47
47	0	0	2389	1950	2190	47
48	0	0	2356	1950	2188	46
49	0	0	2338	1953	2182	48
50	0	0	2331	1954	2179	47
51	0	0	2348	1952	2179	48
52	0	0	2361	1953	2181	45
53	0	0	2362	1952	2184	46
54	0	0	2383	1954	2188	44
55	0	0	2421	1953	2192	47
56	0	0	2443	1953	2192	48
57	0	0	2470	1955	2193	46
58	0	0	2488	1955	2189	47
59	0	0	2512	1953	2183	47
60	0	0	2525	1955	2182	46
61	0	0	2506	1953	2182	47
62	0	0	2492	1954	2185	46
63	0	0	2454	1948	2188	46
64	0	0	2403	1950	2192	47
65	0	0	2353	1951	2195	45
66	0	0	2322	1952	2197	49
67	0	0	2317	1955	2197	48
68	0	0	2318	1953	2194	44
69	0	0	2319	1954	2188	46
70	0	0	2324	1954	2187	47
71	0	0	2327	1953	2188	47
72	0	0	2335	1952	2191	47
73	0	0	2345	1953	2196	44
74	0	0	2360	1954	2199	47
75	0	0	2395	1954	2203	47
76	0	0	2431	1953	2205	50
77	0	0	2463	1953	2204	47
78	0	0	2491	1954	2202	47
79	0	0	2531	1956	2198	47
80	0	0	2546	1954	2196	46
81	0	0	2512	1951	2197	47
82	0	0	2453	1951	2199	47
83	0	0	2398	1950	2202	44
84	0	0	2350	1951	2207	47
85	0	0	2324	1953	2211	47
86	0	0	2324	1953	2212	47
87	0	0	2339	1951	2211	46
88	0	0	2330	1953	2208	45
89	0	0	2302	1950	2204	49
90	0	0	2269	1952	2202	47
91	0	0	2258	1954	2202	47
92	0	0	2258	1954	2205	47
93	0	0	2280	1953	2208	44
94	0	0	2315	1952	2213	47
95	0	0	2338	1955	2216	47
96	0	0	2360	1954	2218	47
97	0	0	2390	1954	2218	48
98	0	0	2415	1953	2215	47
99	0	0	2459	1954	2209	46
100	0	0	2494	1954	2207	47
101	0	0	2484	1951	2208	46
102	0	0	2438	1950	2210	46
103	0	0	2390	1950	2213	47
104	0	0	2346	1949	2217	47
105	0	0	2318	1951	2219	48
106	0	0	2297	1952	2220	47
107	0	0	2300	1954	2220	48
108	0	0	2315	1954	2217	47
109	0	0	2322	1953	2211	45
110	0	0	2316	1954	2209	47
111	0	0	2316	1953	2209	45
112	0	0	2327	1953	2212	47
113	0	0	2340	1954	2214	46
114	0	0	2366	1953	2218	47
115	0	0	2405	1953	2221	48
116	0	0	2444	1953	2222	47
117	0	0	2473	1952	2222	49
118	0	0	2492	1955	2219	47
119	0	0	2521	1954	2213	47
120	0	0	2547	1954	2211	47
121	0	0	2552	1954	2210	45
122	0	0	2530	1950	2212	47
123	0	0	2478	1950	2215	45
124	0	0	2423	1950	2219	45
125	0	0	2371	1950	2221	47
126	0	0	2328	1950	2222	47
127	0	0	2318	1954	2221	47
0	0	0	2328	1953	2219	47
1	0	0	2345	1953	2212	46
2	0	0	2365	1953	2210	47
3	0	0	2379	1952	2210	47
4	0	0	2380	1952	2212	47
5	0	0	2378	1951	2215	47
6	0	0	2396	1951	2219	47
7	0	0	2414	1953	2221	48
8	0	0	2438	1953	2223	48
9	0	0	2466	1953	2221	48
10	0	0	2472	1952	2218	49
11	0	0	2488	1953	2213	45
12	0	0	2502	1953	2211	48
13	0	0	2507	1953	2210	45
14	0	0	2511	1953	2212	47
15	0	0	2499	1952	2216	47
16	0	0	2467	1951	2219	44
17	0	0	2426	1949	2221	47
18	0	0	2372	1948	2222	48
19	0	0	2332	1951	2222	47
20	0	0	2324	1953	2219	47
21	0	0	2325	1953	2212	47
22	0	0	2342	1953	2209	47
23	0	0	2366	1952	2210	45
24	0	0	2378	1951	2213	47
25	0	0	2379	1953	2216	48
26	0	0	2386	1951	2219	45
27	0	0	2423	1953	2222	47
28	0	0	2473	1952	2222	48
29	0	0	2508	1954	2222	47
30	0	0	2516	1952	2218	45
31	0	0	2529	1953	2213	47
32	0	0	2533	1954	2211	47
33	0	0	2522	1952	2210	48
34	0	0	2511	1951	2212	47
35	0	0	2500	1952	2215	46
36	0	0	2473	1951	2218	44
37	0	0	2442	1949	2220	48
38	0	0	2401	1949	2221	48
39	0	0	2388	1953	2220	47
40	0	0	2387	1952	2217	47
41	0	0	2390	1952	2211	47
42	0	0	2390	1952	2209	47
43	0	0	2383	1951	2208	48
44	0	0	2390	1951	2210	47
45	0	0	2406	1952	2213	45
46	0	0	2429	1949	2215	47
47	0	0	2458	1951	2218	47
48	0	0	2488	1951	2219	48
49	0	0	2511	1951	2218	47
50	0	0	2515	1952	2214	47
51	0	0	2530	1949	2209	47
52	0	0	2532	1952	2207	47
53	0	0	2508	1949	2206	48
54	0	0	2469	1949	2208	47
55	0	0	2435	1950	2210	43
56	0	0	2411	1949	2212	46
57	0	0	2393	1951	2215	47
58	0	0	2388	1952	2215	47
59	0	0	2379	1951	2214	47
60	0	0	2366	1951	2210	44
61	0	0	2342	1950	2205	46
62	0	0	2325	1952	2202	47
63	0	0	2317	1951	2202	48
64	0	0	2324	1950	2204	47
65	0	0	2370	1951	2207	47
66	0	0	2413	1952	2209	46
67	0	0	2462	1951	2211	47
68	0	0	2504	1952	2211	48
69	0	0	2511	1951	2210	46
70	0	0	2511	1952	2207	48
71	0	0	2535	1949	2201	46
72	0	0	2544	1952	2199	47
73	0	0	2513	1949	2200	47
74	0	0	2459	1949	2200	47
75	0	0	2413	1949	2202	46
76	0	0	2355	1948	2205	47
77	0	0	2321	1951	2207	47
78	0	0	2311	1950	2206	48
79	0	0	2305	1953	2206	44
80	0	0	2309	1951	2202	46
81	0	0	2321	1951	2197	43
82	0	0	2324	1951	2194	46
83	0	0	2331	1950	2194	47
84	0	0	2339	1951	2195	46
85	0	0	2351	1951	2197	46
86	0	0	2376	1951	2200	47
87	0	0	2409	1951	2202	47
88	0	0	2443	1951	2202	48
89	0	0	2472	1951	2202	47
90	0	0	2488	1948	2198	47
91	0	0	2503	1951	2193	46
92	0	0	2512	1952	2192	45
93	0	0	2504	1952	2192	46
94	0	0	2478	1947	2192	46
95	0	0	2433	1948	2195	46
96	0	0	2374	1948	2198	46
97	0	0	2328	1949	2199	46
98	0	0	2320	1950	2200	48
99	0	0	2324	1950	2198	46
100	0	0	2315	1947	2195	46
101	0	0	2298	1950	2191	47
102	0	0	2288	1951	2189	45
103	0	0	2293	1950	2188	47
104	0	0	2323	1950	2190	47
105	0	0	2352	1948	2192	46
106	0	0	2380	1949	2195	47
107	0	0	2413	1951	2198	47
108	0	0	2437	1950	2198	46
109	0	0	2446	1951	2198	47
110	0	0	2457	1948	2194	47
111	0	0	2481	1951	2190	48
112	0	0	2478	1951	2188	46
113	0	0	2448	1949	2187	47
114	0	0	2421	1948	2190	47
115	0	0	2389	1945	2192	46
116	0	0	2346	1945	2195	47
117	0	0	2292	1948	2197	43
118	0	0	2237	1947	2197	47
119	0	0	2207	1948	2197	47
120	0	0	2213	1949	2194	46
121	0	0	2243	1950	2190	47
122	0	0	2286	1951	2188	48
123	0	0	2319	1949	2189	47
124	0	0	2326	1949	2190	47
125	0	0	2340	1947	2192	46
126	0	0	2367	1950	2196	46
127	0	0	2415	1950	2198	47
0	0	0	2464	1950	2198	47
1	0	0	2510	1952	2199	47
2	0	0	2539	1950	2195	47
3	0	0	2572	1950	2191	47
4	0	0	2575	1951	2189	46
5	0	0	2533	1947	2188	43
6	0	0	2487	1949	2191	47
7	0	0	2437	1948	2193	44
8	0	0	2395	1948	2195	46
9	0	0	2382	1951	2197	46
10	0	0	2377	1949	2197	47
11	0	0	2365	1950	2196	46
12	0	0	2356	1950	2193	46
13	0	0	2347	1950	2188	46
14	0	0	2348	1954	2186	46
15	0	0	2380	1950	2187	47
16	0	0	2394	1949	2187	47
17	0	0	2406	1950	2190	47
18	0	0	2430	1950	2193	47
19	0	0	2470	1949	2195	46
20	0	0	2523	1948	2195	47
21	0	0	2570	1950	2194	46
22	0	0	2606	1949	2192	46
23	0	0	2646	1951	2188	45
24	0	0	2654	1950	2185	45
25	0	0	2609	1946	2185	41
26	0	0	2560	1946	2186	47
27	0	0	2516	1947	2188	47
28	0	0	2491	1950	2191	47
29	0	0	2477	1949	2193	47
30	0	0	2435	1946	2193	43
31	0	0	2401	1948	2193	46
32	0	0	2391	1950	2189	45
33	0	0	2403	1948	2184	47
34	0	0	2432	1949	2182	46
35	0	0	2475	1949	2183	46
36	0	0	2502	1948	2183	46
37	0	0	2523	1949	2186	47
38	0	0	2547	1950	2189	47
39	0	0	2568	1949	2191	47
40	0	0	2593	1950	2192	46
41	0	0	2614	1949	2191	47
42	0	0	2641	1949	2188	47
43	0	0	2666	1951	2183	43
44	0	0	2657	1949	2180	45
45	0	0	2627	1947	2180	43
46	0	0	2608	1950	2182	44
47	0	0	2572	1946	2184	46
48	0	0	2526	1947	2187	46
49	0	0	2493	1946	2188	47
50	0	0	2476	1948	2188	44
51	0	0	2470	1949	2187	46
52	0	0	2450	1947	2184	46
53	0	0	2426	1947	2179	43
54	0	0	2419	1948	2178	45
55	0	0	2434	1948	2177	42
56	0	0	2459	1948	2179	46
57	0	0	2490	1949	2180	48
58	0	0	2518	1949	2184	45
59	0	0	2554	1948	2186	47
60	0	0	2586	1949	2186	44
61	0	0	2598	1948	2185	46
62	0	0	2596	1949	2183	46
63	0	0	2618	1949	2179	46
64	0	0	2640	1946	2176	46
65	0	0	2636	1948	2176	41
66	0	0	2608	1948	2177	46
67	0	0	2565	1944	2179	46
68	0	0	2496	1946	2181	43
69	0	0	2431	1944	2183	46
70	0	0	2391	1945	2183	46
71	0	0	2383	1948	2183	46
72	0	0	2421	1949	2179	43
73	0	0	2489	1948	2174	48
74	0	0	2563	1946	2173	47
75	0	0	2635	1948	2172	44
76	0	0	2679	1948	2175	45
77	0	0	2703	1947	2176	47
78	0	0	2731	1948	2178	45
79	0	0	2772	1946	2181	47
80	0	0	2810	1948	2181	46
81	0	0	2855	1948	2180	46
82	0	0	2895	1948	2178	45
83	0	0	2938	1949	2173	47
84	0	0	2971	1947	2171	47
85	0	0	2972	1949	2171	47
86	0	0	2948	1948	2171	46
87	0	0	2937	1947	2173	45
88	0	0	2921	1948	2175	45
89	0	0	2900	1947	2177	46
90	0	0	2875	1947	2177	46
91	0	0	2851	1948	2176	45
92	0	0	2839	1946	2174	47
93	0	0	2827	1948	2168	48
94	0	0	2821	1946	2167	47
95	0	0	2819	1942	2166	41
96	0	0	2800	1947	2167	47
97	0	0	2770	1944	2170	47
98	0	0	2726	1945	2171	46
99	0	0	2702	1948	2174	47
100	0	0	2685	1947	2174	47
101	0	0	2660	1947	2173	47
102	0	0	2630	1946	2170	46
103	0	0	2612	1947	2166	44
104	0	0	2572	1944	2164	47
105	0	0	2522	1944	2163	46
106	0	0	2474	1945	2165	43
107	0	0	2418	1943	2166	45
108	0	0	2376	1945	2167	44
109	0	0	2344	1944	2170	47
110	0	0	2306	1944	2170	47
111	0	0	2274	1944	2168	46
112	0	0	2248	1944	2166	45
113	0	0	2210	1945	2162	47
114	0	0	2194	1947	2159	45
115	0	0	2222	1947	2159	46
116	0	0	2263	1946	2160	46
117	0	0	2308	1948	2162	46
118	0	0	2349	1944	2163	46
119	0	0	2389	1947	2166	46
120	0	0	2409	1947	2166	46
121	0	0	2441	1946	2166	47
122	0	0	2470	1947	2163	47
123	0	0	2518	1948	2159	45
124	0	0	2546	1950	2158	45
125	0	0	2552	1946	2157	46
126	0	0	2553	1947	2158	47
127	0	0	2529	1944	2160	46
0	0	0	2489	1944	2162	46
1	0	0	2451	1942	2163	46
2	0	0	2423	1944	2163	45
3	0	0	2399	1943	2162	45
4	0	0	2383	1946	2160	45
5	0	0	2354	1944	2155	48
6	0	0	2327	1947	2154	46
7	0	0	2317	1943	2154	44
8	0	0	2332	1947	2156	46
9	0	0	2359	1946	2158	45
10	0	0	2396	1946	2159	48
11	0	0	2446	1948	2162	46
12	0	0	2506	1946	2162	46
13	0	0	2540	1946	2162	48
14	0	0	2525	1947	2160	48
15	0	0	2528	1947	2156	46
16	0	0	2541	1950	2154	46
17	0	0	2532	1947	2153	46
18	0	0	2515	1945	2154	46
19	0	0	2502	1946	2156	46
20	0	0	2503	1946	2158	48
21	0	0	2503	1949	2160	46
22	0	0	2502	1945	2159	46
23	0	0	2495	1946	2160	45
24	0	0	2470	1944	2156	50
25	0	0	2418	1944	2151	48
26	0	0	2370	1943	2151	45
27	0	0	2343	1945	2151	45
28	0	0	2334	1945	2152	45
29	0	0	2330	1946	2154	46
30	0	0	2343	1946	2156	47
31	0	0	2370	1949	2159	47
32	0	0	2405	1946	2159	46
33	0	0	2438	1946	2158	47
34	0	0	2455	1948	2156	44
35	0	0	2482	1946	2152	48
36	0	0	2492	1947	2150	47
37	0	0	2479	1946	2151	46
38	0	0	2457	1944	2152	46
39	0	0	2415	1944	2154	43
40	0	0	2373	1945	2156	46
41	0	0	2337	1943	2158	46
42	0	0	2297	1943	2158	47
43	0	0	2272	1943	2158	47
44	0	0	2263	1947	2155	47
45	0	0	2268	1946	2152	47
46	0	0	2280	1949	2150	45
47	0	0	2311	1946	2149	46
48	0	0	2344	1945	2152	46
49	0	0	2375	1946	2153	47
50	0	0	2400	1945	2156	47
51	0	0	2425	1945	2158	46
52	0	0	2442	1945	2158	46
53	0	0	2444	1946	2158	47
54	0	0	2455	1947	2156	44
55	0	0	2478	1946	2154	46
56	0	0	2503	1949	2151	47
57	0	0	2507	1946	2151	46
58	0	0	2491	1945	2152	46
59	0	0	2464	1943	2154	41
60	0	0	2424	1945	2157	47
61	0	0	2394	1943	2158	46
62	0	0	2365	1944	2158	46
63	0	0	2358	1944	2158	46
64	0	0	2363	1945	2156	44
65	0	0	2357	1945	2154	46
66	0	0	2349	1947	2152	46
67	0	0	2327	1943	2151	45
68	0	0	2292	1942	2153	46
69	0	0	2287	1945	2155	42
70	0	0	2296	1945	2158	47
71	0	0	2329	1945	2159	47
72	0	0	2373	1945	2159	47
73	0	0	2407	1943	2160	44
74	0	0	2444	1945	2157	47
75	0	0	2452	1944	2155	46
76	0	0	2427	1942	2152	46
77	0	0	2401	1944	2153	46
78	0	0	2392	1941	2154	46
79	0	0	2374	1942	2156	47
80	0	0	2338	1942	2160	46
81	0	0	2299	1941	2160	45
82	0	0	2276	1943	2161	46
83	0	0	2265	1946	2160	46
84	0	0	2266	1944	2159	46
85	0	0	2271	1944	2156	46
86	0	0	2272	1944	2155	46
87	0	0	2281	1944	2155	47
88	0	0	2313	1944	2156	46
89	0	0	2359	1944	2159	48
90	0	0	2398	1944	2160	46
91	0	0	2415	1945	2163	47
92	0	0	2410	1943	2163	46
93	0	0	2409	1944	2163	45
94	0	0	2407	1944	2160	43
95	0	0	2420	1944	2157	47
96	0	0	2428	1944	2156	46
97	0	0	2424	1943	2156	46
98	0	0	2388	1942	2157	45
99	0	0	2341	1941	2160	47
100	0	0	2305	1941	2163	46
101	0	0	2270	1941	2163	46
102	0	0	2250	1943	2163	47
103	0	0	2245	1944	2163	47
104	0	0	2252	1943	2161	47
105	0	0	2250	1943	2158	46
106	0	0	2252	1944	2161	46
107	0	0	2276	1943	2168	47
108	0	0	2299	1943	2175	47
109	0	0	2306	1942	2182	45
110	0	0	2312	1943	2188	46
111	0	0	2326	1945	2193	46
112	0	0	2344	1943	2196	46
113	0	0	2360	1943	2199	47
114	0	0	2365	1943	2198	47
115	0	0	2383	1944	2197	46
116	0	0	2407	1942	2197	47
117	0	0	2403	1943	2200	47
118	0	0	2377	1939	2202	47
119	0	0	2337	1937	2204	47
120	0	0	2298	1940	2208	47
121	0	0	2267	1940	2211	47
122	0	0	2254	1943	2212	46
123	0	0	2250	1941	2213	47
124	0	0	2248	1942	2211	47
125	0	0	2253	1941	2208	47
126	0	0	2260	1942	2209	46
127	0	0	2280	1942	2210	47
0	0	0	2299	1942	2212	47
1	0	0	2314	1941	2217	47
2	0	0	2326	1942	2217	47
3	0	0	2339	1942	2220	47
4	0	0	2339	1942	2220	47
5	0	0	2345	1941	2221	47
6	0	0	2355	1942	2219	47
7	0	0	2369	1941	2217	47
8	0	0	2386	1941	2216	47
9	0	0	2390	1941	2216	47
10	0	0	2372	1942	2217	47
11	0	0	2355	1938	2219	47
12	0	0	2330	1939	2221	48
13	0	0	2312	1942	2224	47
14	0	0	2298	1940	2224	48
15	0	0	2279	1939	2225	49
16	0	0	2258	1938	2222	48
17	0	0	2250	1941	2226	45
18	0	0	2255	1940	2220	47
19	0	0	2273	1940	2220	47
20	0	0	2284	1940	2222	48
21	0	0	2296	1938	2223	48
22	0	0	2300	1939	2225	44
23	0	0	2297	1940	2227	48
24	0	0	2305	1940	2227	47
25	0	0	2324	1940	2227	43
26	0	0	2340	1940	2226	48
27	0	0	2354	1940	2224	47
28	0	0	2352	1940	2222	47
29	0	0	2342	1941	2223	48
30	0	0	2340	1939	2224	47
31	0	0	2330	1938	2225	47
32	0	0	2323	1939	2228	47
33	0	0	2306	1939	2226	47
34	0	0	2290	1939	2230	47
35	0	0	2282	1939	2230	47
36	0	0	2272	1939	2229	48
37	0	0	2258	1940	2225	48
38	0	0	2243	1939	2224	48
39	0	0	2230	1939	2224	47
40	0	0	2228	1939	2226	47
41	0	0	2252	1938	2228	48
42	0	0	2292	1939	2229	48
43	0	0	2328	1939	2231	47
44	0	0	2350	1939	2231	47
45	0	0	2357	1939	2231	47
46	0	0	2358	1939	2230	45
47	0	0	2365	1939	2226	47
48	0	0	2385	1938	2225	47
49	0	0	2387	1936	2223	48
50	0	0	2370	1938	2227	47
51	0	0	2360	1939	2229	47
52	0	0	2354	1939	2231	48
53	0	0	2330	1939	2232	48
54	0	0	2315	1938	2232	48
55	0	0	2306	1938	2232	48
56	0	0	2292	1937	2231	47
57	0	0	2268	1937	2227	48
58	0	0	2255	1939	2228	47
59	0	0	2249	1938	2239	47
60	0	0	2263	1938	2266	49
61	0	0	2289	1936	2303	54
62	0	0	2312	1938	2347	51
63	0	0	2338	1937	2396	51
64	0	0	2350	1938	2446	52
65	0	0	2348	1938	2491	56
66	0	0	2351	1937	2540	54
67	0	0	2369	1938	2585	52
68	0	0	2390	1937	2629	55
69	0	0	2392	1937	2670	56
70	0	0	2366	1935	2710	57
71	0	0	2332	1934	2748	60
72	0	0	2299	1935	2782	60
73	0	0	2268	1935	2814	61
74	0	0	2259	1938	2846	60
75	0	0	2263	1937	2870	61
76	0	0	2259	1937	2892	62
77	0	0	2247	1938	2913	62
78	0	0	2240	1938	2933	63
79	0	0	2241	1937	2952	64
80	0	0	2242	1937	2972	63
81	0	0	2243	1936	2994	64
82	0	0	2209	1934	3010	63
83	0	0	2143	1933	3028	65
84	0	0	2113	1937	3046	65
85	0	0	2124	1937	3061	66
86	0	0	2155	1937	3077	63
87	0	0	2198	1938	3090	64
88	0	0	2240	1937	3103	66
89	0	0	2253	1937	3117	67
90	0	0	2249	1937	3129	66
91	0	0	2247	1937	3142	63
92	0	0	2247	1937	3151	67
93	0	0	2223	1933	3158	67
94	0	0	2182	1935	3166	68
95	0	0	2173	1935	3171	67
96	0	0	2150	1935	3179	67
97	0	0	2133	1937	3185	68
98	0	0	2135	1937	3192	68
99	0	0	2162	1937	3199	69
100	0	0	2205	1938	3205	67
101	0	0	2236	1938	3212	68
102	0	0	2260	1937	3221	69
103	0	0	2295	1937	3227	69
104	0	0	2335	1937	3232	67
105	0	0	2336	1936	3237	69
106	0	0	2309	1936	3242	68
107	0	0	2289	1936	3247	70
108	0	0	2283	1937	3253	69
109	0	0	2275	1936	3254	69
110	0	0	2268	1938	3258	69
111	0	0	2260	1937	3259	72
112	0	0	2247	1936	3263	70
113	0	0	2191	1932	3266	69
114	0	0	2109	1931	3269	68
115	0	0	2034	1934	3271	69
116	0	0	2004	1938	3273	70
117	0	0	2018	1936	3275	71
118	0	0	2062	1936	3279	71
119	0	0	2134	1935	3282	70
120	0	0	2189	1936	3285	70
121	0	0	2232	1938	3287	69
122	0	0	2258	1937	3291	70
123	0	0	2281	1936	3295	71
124	0	0	2318	1936	3298	70
125	0	0	2360	1935	3299	69
126	0	0	2388	1937	3299	69
127	0	0	2411	1936	3299	71
0	0	0	2414	1936	3305	70
1	0	0	2412	1936	3299	70
2	0	0	2415	1936	3302	70
3	0	0	2404	1937	3303	70
4	0	0	2360	1932	3305	71
5	0	0	2251	1932	3308	70
6	0	0	2144	1930	3307	71
7	0	0	2094	1932	3310	72
8	0	0	2050	1935	3311	70
9	0	0	2020	1934	3313	71
10	0	0	2037	1936	3315	70
11	0	0	2086	1936	3317	71
12	0	0	2125	1936	3318	71
13	0	0	2123	1937	3319	70
14	0	0	2091	1934	3321	72
15	0	0	2074	1936	3321	71
16	0	0	2091	1935	3325	72
17	0	0	2116	1936	3321	71
18	0	0	2133	1937	3321	72
19	0	0	2165	1936	3320	72
20	0	0	2172	1936	3321	71
21	0	0	2147	1934	3321	71
22	0	0	2145	1935	3324	71
23	0	0	2171	1936	3325	71
24	0	0	2216	1935	3324	72
25	0	0	2251	1936	3328	70
26	0	0	2260	1936	3329	71
27	0	0	2274	1936	3331	70
28	0	0	2294	1936	3331	71
29	0	0	2303	1936	3332	70
30	0	0	2304	1935	3333	70
31	0	0	2322	1936	3332	70
32	0	0	2341	1935	3335	71
33	0	0	2354	1936	3331	68
34	0	0	2347	1936	3332	70
35	0	0	2340	1934	3332	71
36	0	0	2335	1936	3331	70
37	0	0	2331	1936	3334	70
38	0	0	2323	1936	3333	74
39	0	0	2325	1936	3332	71
40	0	0	2332	1935	3334	70
41	0	0	2344	1936	3334	70
42	0	0	2352	1936	3337	70
43	0	0	2354	1936	3336	69
44	0	0	2340	1936	3338	71
45	0	0	2306	1933	3340	71
46	0	0	2268	1933	3341	70
47	0	0	2234	1933	3341	71
48	0	0	2223	1936	3344	71
49	0	0	2217	1936	3339	71
50	0	0	2215	1934	3338	71
51	0	0	2216	1935	3337	70
52	0	0	2219	1936	3337	71
53	0	0	2234	1936	3338	70
54	0	0	2255	1937	3340	71
55	0	0	2263	1935	3340	71
56	0	0	2256	1936	3340	71
57	0	0	2266	1935	3340	71
58	0	0	2286	1936	3341	71
59	0	0	2306	1936	3342	71
60	0	0	2317	1936	3343	72
61	0	0	2305	1935	3343	71
62	0	0	2269	1933	3344	71
63	0	0	2228	1932	3345	68
64	0	0	2193	1934	3343	71
65	0	0	2164	1934	3345	70
66	0	0	2151	1935	3343	71
67	0	0	2148	1936	3344	71
68	0	0	2151	1935	3343	72
69	0	0	2156	1935	3342	72
70	0	0	2159	1936	3342	71
71	0	0	2151	1935	3342	71
72	0	0	2122	1932	3344	70
73	0	0	2116	1936	3344	71
74	0	0	2138	1936	3343	71
75	0	0	2157	1934	3346	70
76	0	0	2168	1937	3348	70
77	0	0	2152	1935	3348	71
78	0	0	2135	1936	3348	70
79	0	0	2139	1936	3349	71
80	0	0	2147	1935	3349	71
81	0	0	2143	1936	3348	71
82	0	0	2138	1936	3347	71
83	0	0	2131	1936	3347	71
84	0	0	2109	1933	3346	70
85	0	0	2084	1934	3346	71
86	0	0	2076	1936	3346	71
87	0	0	2076	1935	3346	71
88	0	0	2080	1935	3346	71
89	0	0	2081	1937	3346	71
90	0	0	2078	1935	3347	71
91	0	0	2064	1935	3348	70
92	0	0	2051	1936	3348	71
93	0	0	2052	1936	3350	70
94	0	0	2071	1936	3351	71
95	0	0	2091	1936	3351	71
96	0	0	2100	1935	3352	71
97	0	0	2107	1936	3353	72
98	0	0	2113	1935	3352	71
99	0	0	2133	1935	3350	71
100	0	0	2137	1936	3348	72
101	0	0	2117	1934	3347	69
102	0	0	2090	1934	3347	70
103	0	0	2049	1932	3348	71
104	0	0	2020	1934	3348	71
105	0	0	2009	1936	3349	71
106	0	0	2007	1935	3349	71
107	0	0	2001	1934	3351	71
108	0	0	1974	1934	3351	69
109	0	0	1952	1935	3351	70
110	0	0	1961	1936	3353	70
111	0	0	1987	1936	3355	72
112	0	0	2012	1935	3353	72
113	0	0	2038	1936	3354	69
114	0	0	2068	1935	3354	71
115	0	0	2096	1936	3354	71
116	0	0	2123	1936	3353	71
117	0	0	2140	1935	3352	71
118	0	0	2141	1935	3350	71
119	0	0	2157	1936	3351	70
120	0	0	2163	1936	3349	70
121	0	0	2146	1935	3349	71
122	0	0	2113	1934	3350	71
123	0	0	2059	1932	3352	71
124	0	0	2002	1934	3351	70
125	0	0	1970	1934	3354	71
126	0	0	1955	1935	3352	71
127	0	0	1950	1935	3359	72
0	0	0	1949	1937	3355	69
1	0	0	1945	1934	3357	70
2	0	0	1877	1931	3355	71
3	0	0	1794	1932	3354	71
4	0	0	1730	1932	3353	71
5	0	0	1703	1935	3352	71
6	0	0	1719	1936	3354	71
7	0	0	1746	1936	3352	72
8	0	0	1774	1935	3352	70
9	0	0	1791	1935	3352	71
10	0	0	1773	1933	3352	71
11	0	0	1759	1934	3353	71
12	0	0	1754	1935	3352	70
13	0	0	1758	1935	3354	71
14	0	0	1760	1935	3354	71
15	0	0	1751	1935	3359	72
16	0	0	1743	1934	3356	69
17	0	0	1738	1936	3356	72
18	0	0	1746	1937	3358	69
19	0	0	1749	1935	3357	71
20	0	0	1752	1935	3356	71
21	0	0	1751	1936	3355	72
22	0	0	1756	1935	3354	71
23	0	0	1769	1935	3352	71
24	0	0	1796	1935	3352	71
25	0	0	1855	1936	3354	70
26	0	0	1924	1937	3355	70
27	0	0	1982	1936	3354	71
28	0	0	2020	1935	3354	71
29	0	0	2040	1937	3356	71
30	0	0	2051	1936	3356	69
31	0	0	2064	1936	3351	69
32	0	0	2070	1936	3357	71
33	0	0	2066	1935	3356	71
34	0	0	2067	1936	3357	73
35	0	0	2051	1934	3358	72
36	0	0	2031	1933	3359	72
37	0	0	2019	1935	3357	71
38	0	0	2007	1935	3356	71
39	0	0	1998	1935	3355	71
40	0	0	1989	1935	3355	71
41	0	0	1994	1937	3354	72
42	0	0	2013	1935	3354	71
43	0	0	2027	1935	3355	70
44	0	0	2019	1935	3354	71
45	0	0	2015	1935	3355	71
46	0	0	2019	1936	3356	71
47	0	0	2033	1934	3351	70
48	0	0	2062	1936	3358	72
49	0	0	2082	1935	3358	72
50	0	0	2085	1936	3359	72
51	0	0	2080	1936	3358	69
52	0	0	2063	1935	3359	71
53	0	0	2053	1936	3358	72
54	0	0	2056	1937	3358	72
55	0	0	2043	1934	3355	72
56	0	0	2027	1934	3356	71
57	0	0	2007	1934	3356	72
58	0	0	1985	1935	3355	69
59	0	0	1961	1935	3355	70
60	0	0	1951	1935	3356	70
61	0	0	1949	1936	3354	70
62	0	0	1951	1935	3356	72
63	0	0	1954	1935	3358	72
64	0	0	1969	1935	3356	71
65	0	0	2000	1935	3358	70
66	0	0	2035	1935	3357	72
67	0	0	2072	1934	3361	71
68	0	0	2110	1935	3360	71
69	0	0	2133	1936	3360	71
70	0	0	2148	1935	3359	70
71	0	0	2149	1935	3355	72
72	0	0	2131	1934	3356	71
73	0	0	2098	1932	3354	72
74	0	0	2057	1932	3354	71
75	0	0	2024	1932	3357	70
76	0	0	2001	1933	3354	71
77	0	0	1992	1935	3356	71
78	0	0	1994	1935	3354	71
79	0	0	1994	1934	3353	71
80	0	0	2005	1936	3358	72
81	0	0	1991	1933	3356	72
82	0	0	1968	1932	3359	71
83	0	0	1958	1935	3358	73
84	0	0	1967	1935	3359	71
85	0	0	1987	1935	3359	70
86	0	0	1976	1932	3360	71
87	0	0	1926	1932	3359	71
88	0	0	1879	1932	3357	71
89	0	0	1862	1934	3357	72
90	0	0	1856	1936	3356	71
91	0	0	1862	1935	3355	71
92	0	0	1854	1933	3355	71
93	0	0	1833	1933	3354	70
94	0	0	1820	1933	3355	71
95	0	0	1806	1933	3361	71
96	0	0	1797	1934	3357	70
97	0	0	1790	1935	3358	72
98	0	0	1770	1932	3358	71
99	0	0	1754	1933	3359	71
100	0	0	1745	1934	3359	72
101	0	0	1747	1935	3358	73
102	0	0	1746	1934	3360	70
103	0	0	1744	1935	3358	70
104	0	0	1731	1934	3357	71
105	0	0	1733	1935	3356	71
106	0	0	1744	1935	3356	71
107	0	0	1756	1934	3355	72
108	0	0	1778	1933	3355	72
109	0	0	1817	1935	3355	71
110	0	0	1857	1935	3356	71
111	0	0	1882	1936	3360	71
112	0	0	1886	1934	3355	71
113	0	0	1876	1934	3355	71
114	0	0	1867	1934	3356	71
115	0	0	1851	1932	3358	72
116	0	0	1831	1932	3357	73
117	0	0	1815	1931	3358	72
118	0	0	1804	1933	3359	73
119	0	0	1791	1934	3359	72
120	0	0	1789	1934	3358	71
121	0	0	1778	1933	3357	71
122	0	0	1768	1934	3355	72
123	0	0	1772	1934	3354	71
124	0	0	1785	1934	3355	72
125	0	0	1800	1934	3353	72
126	0	0	1811	1934	3353	71
127	0	0	1829	1934	3361	70
0	0	0	1849	1935	3355	71
1	0	0	1873	1934	3356	68
2	0	0	1892	1934	3356	71
3	0	0	1912	1934	3356	71
4	0	0	1909	1933	3356	72
5	0	0	1883	1931	3357	72
6	0	0	1858	1932	3358	72
7	0	0	1834	1932	3359	72
8	0	0	1805	1931	3360	49
9	0	0	1778	1932	3357	71
10	0	0	1776	1933	3356	71
11	0	0	1784	1933	3356	73
12	0	0	1784	1934	3353	72
13	0	0	1782	1934	3355	70
14	0	0	1794	1933	3353	71
15	0	0	1807	1933	3350	71
16	0	0	1826	1934	3354	71
17	0	0	1848	1934	3356	72
18	0	0	1867	1934	3357	69
19	0	0	1896	1933	3356	71
20	0	0	1922	1933	3357	72
21	0	0	1946	1934	3359	72
22	0	0	1954	1934	3359	72
23	0	0	1955	1934	3359	71
24	0	0	1947	1933	3359	72
25	0	0	1937	1933	3358	71
26	0	0	1954	1933	3357	72
27	0	0	1987	1934	3355	72
28	0	0	2007	1933	3356	69
29	0	0	2006	1934	3354	71
30	0	0	1997	1933	3355	72
31	0	0	1981	1930	3352	71
32	0	0	1931	1930	3356	70
33	0	0	1884	1932	3355	69
34	0	0	1890	1933	3354	71
35	0	0	1905	1933	3356	72
36	0	0	1957	1933	3356	71
37	0	0	1994	1934	3357	71
38	0	0	1989	1933	3358	70
39	0	0	2004	1933	3359	74
40	0	0	2033	1934	3361	70
41	0	0	2058	1934	3359	72
42	0	0	2069	1934	3357	71
43	0	0	2105	1932	3357	69
44	0	0	2146	1933	3354	72
45	0	0	2161	1932	3354	72
46	0	0	2161	1933	3356	72
47	0	0	2137	1931	3350	71
48	0	0	2113	1931	3355	70
49	0	0	2095	1931	3355	71
50	0	0	2088	1933	3356	71
51	0	0	2086	1933	3356	71
52	0	0	2080	1933	3356	72
53	0	0	2074	1932	3357	69
54	0	0	2083	1932	3356	73
55	0	0	2084	1932	3358	72
56	0	0	2088	1932	3359	72
57	0	0	2097	1932	3360	73
58	0	0	2103	1933	3360	69
59	0	0	2100	1933	3359	71
60	0	0	2086	1933	3357	72
61	0	0	2078	1932	3358	72
62	0	0	2057	1930	3356	71
63	0	0	2031	1931	3359	69
64	0	0	2021	1931	3354	71
65	0	0	2013	1932	3354	71
66	0	0	2002	1930	3355	71
67	0	0	1968	1929	3355	71
68	0	0	1938	1930	3357	71
69	0	0	1890	1927	3357	70
70	0	0	1836	1928	3357	72
71	0	0	1797	1929	3358	72
72	0	0	1780	1930	3357	73
73	0	0	1776	1933	3359	69
74	0	0	1792	1931	3359	72
75	0	0	1837	1932	3359	71
76	0	0	1896	1933	3357	72
77	0	0	1931	1933	3356	71
78	0	0	1932	1932	3356	70
79	0	0	1931	1932	3351	70
80	0	0	1935	1932	3355	71
81	0	0	1958	1931	3356	71
82	0	0	1989	1930	3353	73
83	0	0	2010	1931	3356	72
84	0	0	2026	1930	3355	71
85	0	0	2019	1931	3356	72
86	0	0	2020	1930	3356	72
87	0	0	2028	1930	3358	71
88	0	0	2042	1931	3359	70
89	0	0	2045	1931	3359	71
90	0	0	2029	1931	3361	71
91	0	0	2014	1930	3359	72
92	0	0	2008	1931	3359	72
93	0	0	2025	1932	3358	72
94	0	0	2049	1930	3354	72
95	0	0	2061	1931	3351	71
96	0	0	2031	1928	3356	71
97	0	0	1992	1927	3355	71
98	0	0	1959	1928	3355	72
99	0	0	1951	1931	3356	71
100	0	0	1978	1931	3356	71
101	0	0	2013	1930	3356	71
102	0	0	2052	1930	3356	71
103	0	0	2103	1931	3357	70
104	0	0	2133	1930	3357	71
105	0	0	2135	1930	3357	71
106	0	0	2129	1931	3359	72
107	0	0	2115	1930	3360	71
108	0	0	2094	1929	3360	72
109	0	0	2083	1931	3359	72
110	0	0	2077	1930	3357	71
111	0	0	2075	1930	3352	74
112	0	0	2070	1930	3355	71
113	0	0	2061	1929	3354	70
114	0	0	2048	1930	3353	71
115	0	0	2055	1931	3353	69
116	0	0	2087	1929	3356	71
117	0	0	2128	1930	3356	69
118	0	0	2159	1930	3356	70
119	0	0	2186	1930	3357	71
120	0	0	2212	1930	3357	72
121	0	0	2221	1930	3359	71
122	0	0	2208	1930	3360	69
123	0	0	2217	1930	3359	75
124	0	0	2231	1930	3359	71
125	0	0	2241	1930	3359	72
126	0	0	2232	1930	3357	72
127	0	0	2212	1929	3352	73
0	0	0	2169	1926	3356	72
1	0	0	2112	1926	3355	70
2	0	0	2060	1926	3355	72
3	0	0	2029	1927	3356	70
4	0	0	2005	1927	3355	70
5	0	0	1984	1926	3355	72
6	0	0	1959	1927	3355	70
7	0	0	1933	1926	3356	71
8	0	0	1914	1928	3356	71
9	0	0	1935	1930	3358	68
10	0	0	1972	1929	3359	72
11	0	0	2019	1927	3359	69
12	0	0	2058	1929	3360	72
13	0	0	2066	1929	3359	72
14	0	0	2080	1929	3359	69
15	0	0	2085	1929	3353	69
16	0	0	2074	1929	3354	71
17	0	0	2074	1929	3356	71
18	0	0	2080	1928	3354	71
19	0	0	2096	1929	3355	68
20	0	0	2119	1929	3356	72
21	0	0	2126	1928	3354	70
22	0	0	2130	1928	3354	71
23	0	0	2146	1927	3356	71
24	0	0	2154	1929	3357	69
25	0	0	2148	1927	3356	72
26	0	0	2113	1925	3356	71
27	0	0	2097	1928	3358	72
28	0	0	2108	1927	3359	72
29	0	0	2151	1929	3360	68
30	0	0	2207	1928	3360	74
31	0	0	2251	1929	3364	71
32	0	0	2283	1928	3357	72
33	0	0	2288	1927	3357	72
34	0	0	2267	1927	3356	71
35	0	0	2258	1929	3355	74
36	0	0	2254	1928	3355	72
37	0	0	2241	1928	3355	72
38	0	0	2222	1928	3356	71
39	0	0	2207	1927	3357	72
40	0	0	2182	1926	3357	71
41	0	0	2154	1926	3358	71
42	0	0	2119	1925	3358	71
43	0	0	2075	1925	3358	69
44	0	0	2056	1930	3360	71
45	0	0	2059	1928	3360	71
46	0	0	2048	1927	3360	70
47	0	0	2040	1928	3354	71
48	0	0	2050	1927	3357	72
49	0	0	2080	1929	3357	71
50	0	0	2120	1928	3356	71
51	0	0	2158	1926	3355	71
52	0	0	2195	1927	3356	71
53	0	0	2216	1928	3355	71
54	0	0	2234	1927	3355	72
55	0	0	2260	1927	3355	71
56	0	0	2266	1927	3354	71
57	0	0	2250	1926	3356	71
58	0	0	2225	1925	3357	72
59	0	0	2196	1925	3358	68
60	0	0	2165	1924	3359	71
61	0	0	2131	1924	3360	71
62	0	0	2102	1925	3360	71
63	0	0	2092	1926	3355	72
64	0	0	2096	1927	3358	72
65	0	0	2097	1927	3358	71
66	0	0	2117	1927	3356	71
67	0	0	2157	1926	3355	71
68	0	0	2194	1926	3355	69
69	0	0	2214	1928	3355	72
70	0	0	2230	1924	3356	72
71	0	0	2260	1926	3356	67
72	0	0	2288	1925	3355	71
73	0	0	2302	1926	3357	72
74	0	0	2304	1926	3356	72
75	0	0	2316	1927	3357	71
76	0	0	2313	1925	3358	72
77	0	0	2295	1925	3358	72
78	0	0	2269	1924	3357	73
79	0	0	2242	1925	3364	72
80	0	0	2214	1924	3360	71
81	0	0	2189	1924	3360	70
82	0	0	2155	1923	3357	72
83	0	0	2119	1923	3356	72
84	0	0	2098	1924	3355	74
85	0	0	2086	1925	3355	71
86	0	0	2087	1925	3352	69
87	0	0	2105	1925	3353	72
88	0	0	2119	1926	3356	72
89	0	0	2130	1926	3356	71
90	0	0	2144	1926	3357	71
91	0	0	2163	1925	3358	73
92	0	0	2174	1925	3358	71
93	0	0	2175	1925	3359	73
94	0	0	2181	1926	3360	70
95	0	0	2204	1925	3365	71
96	0	0	2212	1925	3360	70
97	0	0	2194	1926	3359	72
98	0	0	2174	1924	3357	72
99	0	0	2162	1924	3357	71
100	0	0	2138	1923	3357	71
101	0	0	2115	1925	3357	71
102	0	0	2113	1926	3355	72
103	0	0	2107	1926	3355	72
104	0	0	2120	1925	3355	72
105	0	0	2139	1925	3356	72
106	0	0	2135	1924	3356	72
107	0	0	2126	1924	3356	72
108	0	0	2124	1925	3357	71
109	0	0	2119	1923	3358	71
110	0	0	2110	1924	3359	72
111	0	0	2121	1924	3367	72
112	0	0	2149	1925	3361	71
113	0	0	2153	1924	3361	74
114	0	0	2151	1921	3359	70
115	0	0	2157	1925	3358	74
116	0	0	2167	1924	3356	73
117	0	0	2156	1922	3356	75
118	0	0	2123	1921	3354	71
119	0	0	2081	1920	3354	71
120	0	0	2044	1921	3356	71
121	0	0	2020	1921	3355	73
122	0	0	2013	1924	3356	71
123	0	0	2017	1925	3356	72
124	0	0	2019	1923	3356	72
125	0	0	2020	1924	3358	69
126	0	0	2032	1923	3359	72
127	0	0	2045	1923	3356	72
0	0	0	2076	1924	3359	71
1	0	0	2105	1924	3361	71
2	0	0	2119	1923	3361	72
3	0	0	2126	1923	3359	72
4	0	0	2124	1923	3357	72
5	0	0	2123	1924	3356	71
6	0	0	2132	1924	3356	75
7	0	0	2147	1923	3355	72
8	0	0	2161	1923	3356	72
9	0	0	2148	1922	3355	71
10	0	0	2119	1920	3356	75
11	0	0	2082	1917	3357	70
12	0	0	2034	1919	3357	69
13	0	0	1999	1920	3359	72
14	0	0	1979	1922	3358	72
15	0	0	1987	1924	3355	71
16	0	0	2009	1919	3359	71
17	0	0	2025	1923	3360	71
18	0	0	2038	1922	3359	71
19	0	0	2073	1922	3359	72
20	0	0	2104	1922	3357	72
21	0	0	2117	1920	3357	72
22	0	0	2109	1923	3357	71
23	0	0	2103	1921	3357	72
24	0	0	2110	1923	3356	72
25	0	0	2129	1923	3358	73
26	0	0	2146	1922	3356	72
27	0	0	2160	1923	3356	71
28	0	0	2168	1922	3356	71
29	0	0	2156	1922	3356	72
30	0	0	2139	1921	3356	71
31	0	0	2119	1918	3359	71
32	0	0	2090	1920	3359	74
33	0	0	2075	1922	3360	71
34	0	0	2066	1922	3360	71
35	0	0	2062	1922	3361	75
36	0	0	2065	1919	3359	70
37	0	0	2065	1921	3358	69
38	0	0	2064	1922	3356	70
39	0	0	2063	1922	3356	72
40	0	0	2066	1921	3356	71
41	0	0	2076	1920	3355	72
42	0	0	2090	1922	3356	73
43	0	0	2106	1921	3355	71
44	0	0	2127	1921	3356	71
45	0	0	2147	1921	3357	71
46	0	0	2162	1920	3357	71
47	0	0	2172	1922	3361	72
48	0	0	2175	1920	3358	72
49	0	0	2156	1917	3358	71
50	0	0	2137	1921	3360	74
51	0	0	2128	1921	3359	72
52	0	0	2107	1919	3360	72
53	0	0	2075	1918	3358	70
54	0	0	2044	1919	3359	72
55	0	0	2021	1919	3357	68
56	0	0	1999	1918	3355	69
57	0	0	1997	1921	3356	69
58	0	0	2005	1920	3354	72
59	0	0	2032	1921	3354	71
60	0	0	2082	1920	3356	71
61	0	0	2120	1921	3356	74
62	0	0	2134	1921	3356	73
63	0	0	2129	1920	3362	71
64	0	0	2130	1919	3358	71
65	0	0	2140	1920	3357	71
66	0	0	2159	1920	3359	72
67	0	0	2166	1921	3360	72
68	0	0	2148	1917	3359	72
69	0	0	2112	1915	3359	71
70	0	0	2082	1917	3356	71
71	0	0	2063	1919	3358	71
72	0	0	2052	1920	3356	72
73	0	0	2027	1917	3355	70
74	0	0	1997	1916	3355	71
75	0	0	1976	1917	3353	69
76	0	0	1968	1922	3355	71
77	0	0	1973	1919	3355	72
78	0	0	1995	1919	3355	72
79	0	0	2019	1919	3352	70
80	0	0	2033	1920	3358	72
81	0	0	2041	1917	3358	71
82	0	0	2049	1919	3359	74
83	0	0	2045	1919	3359	72
84	0	0	2058	1919	3359	71
85	0	0	2078	1919	3360	70
86	0	0	2093	1921	3359	71
87	0	0	2112	1919	3357	72
88	0	0	2113	1918	3356	70
89	0	0	2096	1918	3355	71
90	0	0	2079	1917	3354	71
91	0	0	2055	1920	3355	71
92	0	0	2044	1919	3355	72
93	0	0	2036	1918	3355	72
94	0	0	2020	1918	3355	70
95	0	0	2006	1917	3359	69
96	0	0	2008	1920	3356	72
97	0	0	2038	1919	3358	74
98	0	0	2071	1917	3357	72
99	0	0	2109	1919	3358	71
100	0	0	2151	1918	3357	71
101	0	0	2183	1921	3361	71
102	0	0	2219	1919	3360	71
103	0	0	2260	1917	3358	73
104	0	0	2302	1918	3358	71
105	0	0	2337	1916	3355	71
106	0	0	2362	1916	3356	71
107	0	0	2396	1918	3356	71
108	0	0	2424	1917	3354	72
109	0	0	2446	1918	3356	71
110	0	0	2457	1917	3354	68
111	0	0	2456	1917	3352	69
112	0	0	2460	1917	3357	71
113	0	0	2474	1917	3356	71
114	0	0	2484	1917	3358	71
115	0	0	2483	1914	3357	73
116	0	0	2476	1915	3358	71
117	0	0	2467	1917	3360	70
118	0	0	2459	1917	3360	69
119	0	0	2455	1916	3358	71
120	0	0	2457	1916	3357	71
121	0	0	2473	1916	3355	71
122	0	0	2469	1915	3357	71
123	0	0	2426	1913	3355	71
124	0	0	2373	1913	3355	71
125	0	0	2323	1914	3356	68
126	0	0	2298	1916	3356	72
127	0	0	2271	1913	3357	71
0	0	0	2220	1912	3355	74
1	0	0	2146	1912	3356	70
2	0	0	2068	1912	3356	72
3	0	0	2013	1914	3358	72
4	0	0	1983	1913	3358	71
5	0	0	1951	1913	3360	70
6	0	0	1907	1912	3360	71
7	0	0	1844	1910	3360	70
8	0	0	1780	1912	3359	72
9	0	0	1734	1912	3358	72
10	0	0	1710	1913	3356	74
11	0	0	1712	1912	3355	71
12	0	0	1724	1915	3355	70
13	0	0	1752	1916	3354	72
14	0	0	1799	1915	3356	72
15	0	0	1844	1917	3360	70
16	0	0	1887	1914	3356	71
17	0	0	1919	1914	3356	72
18	0	0	1939	1914	3356	71
19	0	0	1964	1915	3357	71
20	0	0	1992	1915	3357	74
21	0	0	1999	1914	3358	71
22	0	0	2006	1915	3359	71
23	0	0	2003	1914	3360	70
24	0	0	1999	1915	3360	70
25	0	0	1994	1914	3358	71
26	0	0	1984	1912	3357	71
27	0	0	1981	1915	3356	68
28	0	0	1989	1915	3355	69
29	0	0	2004	1915	3355	71
30	0	0	2028	1914	3354	71
31	0	0	2057	1913	3358	71
32	0	0	2078	1915	3355	71
33	0	0	2099	1914	3356	74
34	0	0	2100	1914	3357	71
35	0	0	2086	1915	3358	70
36	0	0	2077	1913	3357	71
37	0	0	2073	1914	3358	71
38	0	0	2074	1913	3359	71
39	0	0	2089	1911	3359	71
40	0	0	2109	1913	3359	71
41	0	0	2120	1914	3358	71
42	0	0	2129	1914	3357	72
43	0	0	2131	1913	3356	71
44	0	0	2107	1911	3357	71
45	0	0	2095	1913	3355	73
46	0	0	2075	1912	3355	71
47	0	0	2043	1912	3358	71
48	0	0	2018	1912	3356	74
49	0	0	2002	1911	3355	72
50	0	0	1999	1912	3355	71
51	0	0	2013	1914	3357	71
52	0	0	2040	1912	3356	71
53	0	0	2061	1910	3357	71
54	0	0	2079	1913	3359	72
55	0	0	2091	1913	3358	72
56	0	0	2099	1911	3359	71
57	0	0	2097	1911	3359	73
58	0	0	2088	1912	3358	76
59	0	0	2069	1911	3357	71
60	0	0	2051	1911	3355	70
61	0	0	2041	1913	3354	71
62	0	0	2044	1913	3354	71
63	0	0	2037	1910	3351	71
64	0	0	2022	1912	3355	72
65	0	0	2003	1908	3355	71
66	0	0	1972	1910	3356	71
67	0	0	1972	1913	3356	70
68	0	0	1984	1912	3356	71
69	0	0	1991	1912	3357	74
70	0	0	1990	1911	3357	71
71	0	0	1997	1909	3357	71
72	0	0	2010	1910	3358	72
73	0	0	2030	1909	3359	71
74	0	0	2053	1911	3360	70
75	0	0	2063	1911	3358	69
76	0	0	2079	1910	3356	71
77	0	0	2085	1910	3355	71
78	0	0	2087	1908	3355	71
79	0	0	2098	1909	3352	71
80	0	0	2091	1910	3354	69
81	0	0	2062	1908	3354	71
82	0	0	2040	1909	3355	71
83	0	0	2016	1908	3356	71
84	0	0	1999	1910	3356	72
85	0	0	2000	1911	3357	71
86	0	0	2007	1909	3357	71
87	0	0	2007	1910	3358	71
88	0	0	1979	1908	3359	72
89	0	0	1959	1911	3359	71
90	0	0	1965	1911	3359	69
91	0	0	1986	1909	3358	71
92	0	0	2004	1908	3357	72
93	0	0	2036	1910	3356	69
94	0	0	2063	1909	3356	71
95	0	0	2085	1910	3353	71
96	0	0	2093	1911	3354	71
97	0	0	2103	1910	3354	71
98	0	0	2119	1911	3355	69
99	0	0	2133	1910	3355	72
100	0	0	2144	1909	3354	72
101	0	0	2144	1909	3355	71
102	0	0	2136	1910	3356	71
103	0	0	2134	1911	3357	71
104	0	0	2120	1909	3359	72
105	0	0	2097	1907	3359	70
106	0	0	2092	1909	3359	72
107	0	0	2086	1909	3359	69
108	0	0	2078	1907	3359	71
109	0	0	2057	1906	3357	71
110	0	0	2042	1908	3355	72
111	0	0	2048	1909	3352	72
112	0	0	2066	1909	3355	68
113	0	0	2089	1909	3355	72
114	0	0	2113	1909	3355	71
115	0	0	2134	1909	3354	72
116	0	0	2151	1909	3355	71
117	0	0	2159	1907	3355	71
118	0	0	2165	1907	3356	71
119	0	0	2185	1909	3357	71
120	0	0	2195	1908	3357	72
121	0	0	2192	1908	3358	71
122	0	0	2173	1907	3358	71
123	0	0	2148	1903	3359	71
124	0	0	2135	1907	3359	71
125	0	0	2134	1910	3357	72
126	0	0	2135	1908	3356	71
127	0	0	2133	1905	3353	71
0	0	0	2129	1907	3355	70
1	0	0	2106	1904	3355	74
2	0	0	2084	1906	3353	72
3	0	0	2077	1907	3355	70
4	0	0	2075	1909	3354	68
5	0	0	2092	1909	3355	70
6	0	0	2118	1909	3357	71
7	0	0	2126	1907	3356	74
8	0	0	2124	1906	3357	71
9	0	0	2137	1908	3357	68
10	0	0	2149	1907	3358	72
11	0	0	2155	1907	3359	72
12	0	0	2151	1907	3358	72
13	0	0	2132	1905	3358	71
14	0	0	2101	1906	3357	73
15	0	0	2079	1903	3359	71
16	0	0	2048	1903	3356	71
17	0	0	2023	1905	3355	72
18	0	0	2017	1906	3355	71
19	0	0	2025	1906	3355	70
20	0	0	2024	1907	3356	72
21	0	0	2014	1907	3355	71
22	0	0	2024	1907	3356	70
23	0	0	2031	1906	3355	71
24	0	0	2037	1906	3356	70
25	0	0	2052	1906	3357	72
26	0	0	2088	1907	3359	71
27	0	0	2144	1906	3359	71
28	0	0	2190	1906	3360	68
29	0	0	2216	1903	3359	71
30	0	0	2206	1906	3358	73
31	0	0	2201	1905	3360	70
32	0	0	2194	1906	3355	72
33	0	0	2173	1904	3355	71
34	0	0	2154	1902	3354	71
35	0	0	2126	1903	3354	72
36	0	0	2098	1903	3355	71
37	0	0	2079	1904	3354	74
38	0	0	2057	1903	3355	71
39	0	0	2049	1903	3355	71
40	0	0	2056	1904	3356	74
41	0	0	2048	1906	3356	71
42	0	0	2034	1904	3357	72
43	0	0	2038	1905	3358	71
44	0	0	2060	1902	3358	72
45	0	0	2076	1905	3360	72
46	0	0	2099	1903	3359	71
47	0	0	2125	1907	3359	74
48	0	0	2145	1907	3358	72
49	0	0	2144	1905	3357	68
50	0	0	2137	1905	3355	71
51	0	0	2141	1905	3356	71
52	0	0	2144	1905	3354	71
53	0	0	2147	1905	3356	71
54	0	0	2141	1905	3355	69
55	0	0	2121	1902	3355	71
56	0	0	2102	1904	3357	72
57	0	0	2093	1904	3356	71
58	0	0	2079	1903	3358	71
59	0	0	2049	1902	3357	72
60	0	0	2026	1903	3359	69
61	0	0	2022	1905	3359	71
62	0	0	2036	1903	3358	74
63	0	0	2052	1905	3362	71
64	0	0	2064	1903	3357	71
65	0	0	2080	1902	3356	69
66	0	0	2108	1905	3356	71
67	0	0	2145	1904	3356	72
68	0	0	2164	1904	3355	71
69	0	0	2166	1903	3356	72
70	0	0	2165	1903	3356	71
71	0	0	2170	1905	3355	71
72	0	0	2180	1903	3355	71
73	0	0	2171	1901	3355	71
74	0	0	2144	1901	3356	71
75	0	0	2108	1902	3357	71
76	0	0	2088	1903	3358	72
77	0	0	2068	1902	3358	67
78	0	0	2063	1903	3359	71
79	0	0	2067	1902	3355	71
80	0	0	2067	1903	3358	73
81	0	0	2058	1903	3357	71
82	0	0	2055	1902	3355	71
83	0	0	2069	1905	3356	71
84	0	0	2076	1903	3355	72
85	0	0	2079	1903	3354	71
86	0	0	2089	1903	3355	71
87	0	0	2120	1902	3355	71
88	0	0	2158	1903	3354	70
89	0	0	2159	1902	3356	72
90	0	0	2145	1901	3356	73
91	0	0	2148	1901	3357	71
92	0	0	2156	1902	3357	71
93	0	0	2155	1902	3358	71
94	0	0	2142	1902	3359	72
95	0	0	2121	1898	3357	73
96	0	0	2077	1899	3359	71
97	0	0	2032	1900	3357	71
98	0	0	1997	1900	3358	71
99	0	0	1988	1902	3356	74
100	0	0	1996	1900	3355	73
101	0	0	2006	1901	3355	71
102	0	0	2009	1902	3353	67
103	0	0	2024	1902	3355	68
104	0	0	2041	1902	3356	71
105	0	0	2060	1902	3355	71
106	0	0	2078	1902	3356	71
107	0	0	2109	1901	3356	71
108	0	0	2144	1901	3356	71
109	0	0	2166	1901	3358	72
110	0	0	2177	1900	3358	73
111	0	0	2193	1901	3354	72
112	0	0	2191	1901	3358	67
113	0	0	2161	1899	3359	71
114	0	0	2128	1900	3358	74
115	0	0	2118	1901	3355	71
116	0	0	2132	1901	3356	71
117	0	0	2155	1900	3355	69
118	0	0	2173	1901	3356	71
119	0	0	2161	1899	3356	71
120	0	0	2126	1898	3353	71
121	0	0	2100	1899	3356	71
122	0	0	2079	1899	3354	68
123	0	0	2079	1902	3355	70
124	0	0	2092	1901	3356	72
125	0	0	2104	1900	3357	71
126	0	0	2127	1900	3358	72
127	0	0	2156	1899	3362	67
0	0	0	2189	1900	3359	72
1	0	0	2207	1899	3360	71
2	0	0	2210	1900	3358	71
3	0	0	2221	1900	3357	71
4	0	0	2235	1900	3356	71
5	0	0	2233	1900	3354	71
6	0	0	2209	1898	3355	71
7	0	0	2186	1897	3355	71
8	0	0	2158	1898	3355	71
9	0	0	2136	1898	3354	68
10	0	0	2116	1898	3355	71
11	0	0	2092	1897	3356	71
12	0	0	2078	1899	3355	69
13	0	0	2070	1898	3357	70
14	0	0	2077	1900	3356	70
15	0	0	2102	1900	3360	70
16	0	0	2132	1899	3358	72
17	0	0	2152	1898	3358	72
18	0	0	2168	1898	3359	72
19	0	0	2186	1899	3358	68
20	0	0	2207	1899	3356	70
21	0	0	2235	1899	3355	71
22	0	0	2251	1900	3354	70
23	0	0	2250	1898	3354	71
24	0	0	2235	1898	3354	71
25	0	0	2213	1898	3353	71
26	0	0	2197	1897	3354	71
27	0	0	2188	1899	3354	69
28	0	0	2177	1897	3356	72
29	0	0	2178	1899	3356	68
30	0	0	2181	1899	3358	71
31	0	0	2171	1898	3362	71
32	0	0	2152	1899	3358	73
33	0	0	2150	1899	3359	70
34	0	0	2149	1898	3359	70
35	0	0	2148	1898	3358	72
36	0	0	2143	1897	3358	71
37	0	0	2132	1898	3355	70
38	0	0	2149	1896	3356	71
39	0	0	2196	1898	3357	71
40	0	0	2237	1898	3354	71
41	0	0	2255	1897	3354	69
42	0	0	2253	1898	3353	72
43	0	0	2261	1895	3355	71
44	0	0	2264	1897	3355	70
45	0	0	2232	1895	3355	71
46	0	0	2200	1894	3356	71
47	0	0	2176	1896	3358	71
48	0	0	2160	1897	3358	72
49	0	0	2151	1897	3358	71
50	0	0	2136	1897	3359	72
51	0	0	2125	1895	3359	71
52	0	0	2114	1898	3358	72
53	0	0	2100	1896	3357	70
54	0	0	2097	1897	3355	72
55	0	0	2119	1897	3354	71
56	0	0	2145	1897	3355	71
57	0	0	2168	1897	3355	71
58	0	0	2186	1896	3355	72
59	0	0	2191	1896	3355	71
60	0	0	2177	1896	3355	71
61	0	0	2150	1894	3356	71
62	0	0	2122	1894	3357	71
63	0	0	2109	1897	3354	71
64	0	0	2100	1897	3356	70
65	0	0	2094	1897	3357	71
66	0	0	2095	1895	3358	72
67	0	0	2086	1897	3359	72
68	0	0	2065	1894	3359	72
69	0	0	2038	1893	3359	70
70	0	0	2009	1893	3358	71
71	0	0	1987	1895	3355	71
72	0	0	1983	1897	3354	72
73	0	0	1978	1897	3355	71
74	0	0	1979	1895	3353	71
75	0	0	1990	1896	3354	71
76	0	0	1993	1895	3354	72
77	0	0	2003	1896	3356	72
78	0	0	2029	1895	3356	72
79	0	0	2061	1896	3353	71
80	0	0	2081	1895	3357	71
81	0	0	2087	1894	3357	69
82	0	0	2060	1894	3357	72
83	0	0	2061	1898	3359	72
84	0	0	2041	1892	3359	71
85	0	0	1990	1892	3358	71
86	0	0	1949	1893	3358	68
87	0	0	1902	1893	3356	74
88	0	0	1853	1892	3356	71
89	0	0	1810	1891	3355	71
90	0	0	1788	1892	3356	70
91	0	0	1793	1895	3355	69
92	0	0	1797	1895	3355	71
93	0	0	1805	1896	3356	71
94	0	0	1821	1894	3355	71
95	0	0	1849	1895	3360	71
96	0	0	1881	1895	3357	72
97	0	0	1897	1896	3359	72
98	0	0	1914	1897	3358	72
99	0	0	1934	1894	3359	71
100	0	0	1943	1893	3359	72
101	0	0	1961	1895	3360	71
102	0	0	1961	1894	3359	72
103	0	0	1964	1895	3357	72
104	0	0	1964	1894	3356	71
105	0	0	1942	1891	3357	71
106	0	0	1920	1892	3355	70
107	0	0	1893	1892	3357	72
108	0	0	1864	1894	3356	71
109	0	0	1845	1891	3355	71
110	0	0	1823	1890	3355	72
111	0	0	1806	1893	3357	68
112	0	0	1794	1894	3358	72
113	0	0	1796	1895	3357	71
114	0	0	1802	1893	3357	71
115	0	0	1818	1893	3359	70
116	0	0	1842	1894	3358	71
117	0	0	1854	1894	3362	71
118	0	0	1871	1896	3359	71
119	0	0	1885	1894	3359	71
120	0	0	1894	1894	3358	72
121	0	0	1905	1894	3356	73
122	0	0	1915	1893	3356	71
123	0	0	1924	1895	3356	71
124	0	0	1924	1894	3356	72
125	0	0	1909	1892	3355	71
126	0	0	1891	1892	3355	69
127	0	0	1868	1891	3359	75
0	0	0	1839	1891	3357	71
1	0	0	1807	1891	3357	71
2	0	0	1791	1890	3359	72
3	0	0	1776	1893	3358	73
4	0	0	1779	1893	3359	71
5	0	0	1775	1896	3360	71
6	0	0	1764	1891	3359	71
7	0	0	1759	1892	3359	72
8	0	0	1771	1893	3358	73
9	0	0	1793	1893	3358	71
10	0	0	1808	1893	3357	71
11	0	0	1820	1892	3357	71
12	0	0	1838	1892	3356	71
13	0	0	1873	1892	3356	71
14	0	0	1903	1892	3357	71
15	0	0	1941	1893	3353	70
16	0	0	1984	1892	3356	72
17	0	0	2022	1893	3358	71
18	0	0	2038	1893	3361	72
19	0	0	2022	1889	3363	71
20	0	0	1976	1888	3365	70
21	0	0	1923	1888	3366	71
22	0	0	1876	1888	3367	71
23	0	0	1831	1888	3368	71
24	0	0	1767	1888	3368	72
25	0	0	1719	1888	3367	71
26	0	0	1703	1891	3365	71
27	0	0	1728	1891	3365	71
28	0	0	1762	1891	3365	71
29	0	0	1797	1891	3367	71
30	0	0	1833	1891	3366	71
31	0	0	1873	1891	3364	69
32	0	0	1905	1890	3367	71
33	0	0	1926	1891	3367	71
34	0	0	1935	1891	3372	71
35	0	0	1945	1891	3374	72
36	0	0	1952	1891	3375	72
37	0	0	1945	1891	3378	71
38	0	0	1930	1890	3380	69
39	0	0	1908	1888	3382	75
40	0	0	1886	1888	3381	72
41	0	0	1869	1889	3380	68
42	0	0	1859	1889	3380	73
43	0	0	1848	1891	3380	73
44	0	0	1834	1890	3380	71
45	0	0	1826	1888	3379	71
46	0	0	1828	1890	3378	67
47	0	0	1833	1890	3377	71
48	0	0	1840	1890	3379	72
49	0	0	1865	1891	3381	71
50	0	0	1886	1890	3383	71
51	0	0	1907	1890	3388	73
52	0	0	1921	1887	3389	72
53	0	0	1934	1890	3391	74
54	0	0	1946	1890	3394	71
55	0	0	1965	1890	3394	71
56	0	0	1980	1890	3395	71
57	0	0	1972	1888	3396	71
58	0	0	1948	1886	3395	71
59	0	0	1924	1887	3395	71
60	0	0	1898	1887	3395	71
61	0	0	1890	1890	3394	71
62	0	0	1889	1889	3395	71
63	0	0	1890	1890	3397	72
64	0	0	1894	1889	3396	72
65	0	0	1895	1889	3396	72
66	0	0	1902	1888	3396	72
67	0	0	1910	1888	3399	71
68	0	0	1918	1888	3402	73
69	0	0	1922	1888	3405	73
70	0	0	1917	1888	3406	72
71	0	0	1921	1888	3408	71
72	0	0	1934	1889	3410	72
73	0	0	1926	1887	3411	72
74	0	0	1893	1887	3410	69
75	0	0	1882	1887	3409	71
76	0	0	1893	1888	3408	73
77	0	0	1919	1889	3408	72
78	0	0	1934	1888	3409	73
79	0	0	1920	1886	3407	73
80	0	0	1888	1885	3411	72
81	0	0	1864	1886	3410	72
82	0	0	1850	1886	3413	72
83	0	0	1841	1888	3414	73
84	0	0	1836	1889	3416	73
85	0	0	1836	1889	3420	73
86	0	0	1849	1887	3420	72
87	0	0	1882	1888	3423	73
88	0	0	1912	1888	3427	73
89	0	0	1932	1888	3426	73
90	0	0	1953	1887	3427	72
91	0	0	1978	1887	3426	73
92	0	0	1991	1887	3427	75
93	0	0	1987	1886	3425	72
94	0	0	1981	1888	3425	71
95	0	0	1991	1887	3421	72
96	0	0	2010	1887	3424	71
97	0	0	2009	1887	3425	72
98	0	0	1996	1887	3426	72
99	0	0	1976	1885	3428	73
100	0	0	1944	1884	3430	73
101	0	0	1918	1885	3433	72
102	0	0	1905	1887	3434	73
103	0	0	1906	1884	3437	73
104	0	0	1911	1887	3439	73
105	0	0	1909	1887	3440	72
106	0	0	1910	1888	3441	73
107	0	0	1927	1886	3441	73
108	0	0	1943	1886	3441	73
109	0	0	1960	1887	3444	73
110	0	0	1990	1887	3444	73
111	0	0	2023	1883	3451	74
112	0	0	2034	1886	3449	73
113	0	0	2045	1885	3454	72
114	0	0	2058	1886	3455	74
115	0	0	2068	1887	3459	73
116	0	0	2073	1886	3462	72
117	0	0	2051	1883	3469	73
118	0	0	2027	1884	3474	71
119	0	0	2008	1885	3479	74
120	0	0	2004	1885	3483	75
121	0	0	2000	1886	3487	76
122	0	0	1991	1886	3491	73
123	0	0	1992	1885	3494	74
124	0	0	1990	1885	3495	74
125	0	0	1976	1886	3494	74
126	0	0	1990	1885	3494	74
127	0	0	1999	1884	3494	74
