# bioPlux Text File Format
# Version: 1
# StartDateTime: 2011-07-18 14:43:29
# SamplingFrequency: 1000
# SampledChannels: 1 2 3 4
# SamplingResolution: 12
# AcquiringDevice: 00:07:80:42:0F:8B
# EndOfHeader
0	0	0	2602	1155	2792	56
1	0	0	2710	1155	2794	56
2	0	0	2795	1157	2796	57
3	0	0	2832	1156	2799	59
4	0	0	2850	1156	2801	57
5	0	0	2843	1156	2802	58
6	0	0	2810	1155	2802	58
7	0	0	2767	1156	2801	59
8	0	0	2697	1156	2797	58
9	0	0	2607	1156	2794	57
10	0	0	2513	1157	2794	58
11	0	0	2467	1159	2795	58
12	0	0	2465	1162	2797	57
13	0	0	2476	1161	2800	58
14	0	0	2498	1161	2801	55
15	0	0	2521	1160	2803	53
16	0	0	2541	1159	2801	55
17	0	0	2575	1160	2800	55
18	0	0	2604	1158	2796	54
19	0	0	2640	1155	2792	56
20	0	0	2674	1155	2792	56
21	0	0	2683	1154	2794	55
22	0	0	2642	1151	2797	58
23	0	0	2561	1150	2799	59
24	0	0	2441	1151	2800	56
25	0	0	2308	1152	2803	58
26	0	0	2174	1151	2802	59
27	0	0	2043	1154	2801	59
28	0	0	1941	1155	2797	63
29	0	0	1857	1156	2794	58
30	0	0	1798	1157	2794	58
31	0	0	1766	1156	2795	57
32	0	0	1721	1158	2798	56
33	0	0	1698	1159	2800	57
34	0	0	1693	1160	2802	55
35	0	0	1705	1160	2802	55
36	0	0	1735	1159	2802	56
37	0	0	1806	1158	2800	55
38	0	0	1896	1158	2796	55
39	0	0	1995	1156	2792	54
40	0	0	2107	1156	2792	55
41	0	0	2190	1155	2794	56
42	0	0	2231	1156	2796	59
43	0	0	2216	1151	2799	55
44	0	0	2150	1151	2801	57
45	0	0	2067	1152	2802	58
46	0	0	1964	1153	2802	59
47	0	0	1856	1154	2801	60
48	0	0	1746	1154	2797	59
49	0	0	1633	1155	2793	59
50	0	0	1557	1156	2795	58
51	0	0	1537	1160	2796	58
52	0	0	1567	1162	2797	58
53	0	0	1623	1161	2800	56
54	0	0	1692	1159	2802	56
55	0	0	1760	1160	2802	55
56	0	0	1835	1159	2801	53
57	0	0	1907	1157	2800	55
58	0	0	1980	1158	2796	55
59	0	0	2074	1155	2793	54
60	0	0	2168	1156	2793	55
61	0	0	2224	1155	2794	56
62	0	0	2229	1154	2796	56
63	0	0	2212	1152	2799	59
64	0	0	2176	1151	2801	57
65	0	0	2104	1151	2801	57
66	0	0	1999	1152	2802	58
67	0	0	1888	1151	2800	59
68	0	0	1790	1154	2797	59
69	0	0	1690	1156	2792	58
70	0	0	1614	1157	2794	55
71	0	0	1565	1158	2795	57
72	0	0	1552	1160	2797	58
73	0	0	1575	1162	2800	55
74	0	0	1631	1160	2802	55
75	0	0	1703	1160	2802	57
76	0	0	1771	1160	2802	55
77	0	0	1844	1158	2799	53
78	0	0	1923	1157	2796	51
79	0	0	2004	1156	2792	52
80	0	0	2108	1155	2792	55
81	0	0	2173	1155	2794	55
82	0	0	2199	1154	2796	58
83	0	0	2167	1150	2799	55
84	0	0	2100	1152	2802	56
85	0	0	2035	1152	2803	56
86	0	0	1956	1152	2803	59
87	0	0	1869	1153	2801	58
88	0	0	1789	1155	2798	59
89	0	0	1713	1155	2795	59
90	0	0	1652	1157	2795	58
91	0	0	1600	1157	2796	58
92	0	0	1555	1158	2797	58
93	0	0	1563	1162	2800	57
94	0	0	1594	1160	2802	56
95	0	0	1670	1160	2803	55
96	0	0	1795	1159	2802	56
97	0	0	1900	1159	2800	55
98	0	0	1985	1157	2796	54
99	0	0	2072	1155	2794	55
100	0	0	2133	1155	2793	55
101	0	0	2171	1153	2794	56
102	0	0	2201	1151	2797	56
103	0	0	2196	1153	2799	58
104	0	0	2137	1150	2801	55
105	0	0	2044	1151	2803	57
106	0	0	1942	1152	2803	59
107	0	0	1841	1151	2801	57
108	0	0	1751	1154	2798	60
109	0	0	1668	1155	2795	58
110	0	0	1602	1155	2794	59
111	0	0	1566	1157	2794	59
112	0	0	1562	1160	2797	59
113	0	0	1588	1162	2800	56
114	0	0	1631	1161	2802	56
115	0	0	1693	1158	2802	55
116	0	0	1785	1159	2802	55
117	0	0	1887	1157	2800	54
118	0	0	1984	1158	2796	54
119	0	0	2094	1155	2793	55
120	0	0	2197	1155	2793	56
121	0	0	2266	1153	2794	56
122	0	0	2301	1151	2797	56
123	0	0	2275	1150	2799	55
124	0	0	2202	1150	2801	56
125	0	0	2104	1150	2802	57
126	0	0	1993	1151	2802	58
127	0	0	1892	1151	2800	59
0	0	0	1810	1154	2797	60
1	0	0	1726	1156	2794	58
2	0	0	1648	1156	2795	58
3	0	0	1606	1155	2795	58
4	0	0	1611	1158	2797	57
5	0	0	1648	1160	2800	55
6	0	0	1704	1159	2803	56
7	0	0	1781	1159	2804	56
8	0	0	1858	1158	2802	55
9	0	0	1932	1156	2801	55
10	0	0	2014	1157	2796	55
11	0	0	2100	1154	2793	54
12	0	0	2163	1156	2792	55
13	0	0	2207	1153	2793	57
14	0	0	2244	1157	2797	57
15	0	0	2245	1154	2799	56
16	0	0	2195	1150	2801	56
17	0	0	2103	1151	2802	56
18	0	0	1999	1151	2802	57
19	0	0	1890	1154	2801	58
20	0	0	1799	1155	2797	60
21	0	0	1737	1155	2794	57
22	0	0	1701	1158	2794	58
23	0	0	1680	1158	2795	58
24	0	0	1680	1160	2798	57
25	0	0	1686	1161	2800	58
26	0	0	1707	1160	2802	55
27	0	0	1756	1158	2802	55
28	0	0	1836	1158	2802	58
29	0	0	1950	1155	2801	54
30	0	0	2063	1154	2796	52
31	0	0	2157	1155	2793	54
32	0	0	2236	1153	2792	55
33	0	0	2281	1153	2795	56
34	0	0	2294	1153	2796	56
35	0	0	2280	1153	2799	58
36	0	0	2224	1150	2801	56
37	0	0	2129	1152	2802	59
38	0	0	2021	1151	2803	56
39	0	0	1925	1153	2801	59
40	0	0	1839	1154	2797	59
41	0	0	1762	1153	2794	58
42	0	0	1711	1155	2793	58
43	0	0	1706	1160	2795	58
44	0	0	1703	1159	2797	59
45	0	0	1711	1161	2800	56
46	0	0	1733	1159	2801	56
47	0	0	1777	1158	2802	55
48	0	0	1855	1158	2801	55
49	0	0	1965	1161	2800	55
50	0	0	2050	1156	2796	56
51	0	0	2125	1154	2793	57
52	0	0	2198	1154	2793	56
53	0	0	2257	1150	2795	54
54	0	0	2291	1152	2796	58
55	0	0	2287	1152	2799	60
56	0	0	2247	1151	2801	57
57	0	0	2186	1153	2801	58
58	0	0	2103	1151	2803	56
59	0	0	1997	1152	2801	58
60	0	0	1897	1154	2797	60
61	0	0	1820	1154	2794	60
62	0	0	1756	1154	2793	58
63	0	0	1708	1157	2794	55
64	0	0	1684	1156	2797	58
65	0	0	1693	1160	2800	57
66	0	0	1723	1159	2801	56
67	0	0	1786	1160	2802	55
68	0	0	1882	1158	2802	52
69	0	0	1979	1159	2800	55
70	0	0	2081	1155	2796	54
71	0	0	2189	1155	2793	55
72	0	0	2285	1151	2792	55
73	0	0	2350	1154	2794	55
74	0	0	2367	1152	2795	57
75	0	0	2341	1150	2799	60
76	0	0	2262	1149	2800	60
77	0	0	2161	1149	2802	57
78	0	0	2061	1150	2801	56
79	0	0	1965	1152	2800	59
80	0	0	1903	1153	2797	60
81	0	0	1846	1154	2794	61
82	0	0	1789	1155	2793	57
83	0	0	1745	1155	2794	55
84	0	0	1722	1158	2797	57
85	0	0	1735	1159	2800	56
86	0	0	1785	1159	2801	58
87	0	0	1856	1158	2803	55
88	0	0	1943	1159	2802	55
89	0	0	2025	1154	2800	55
90	0	0	2120	1155	2796	55
91	0	0	2208	1153	2793	56
92	0	0	2289	1154	2792	55
93	0	0	2328	1152	2794	52
94	0	0	2312	1152	2796	57
95	0	0	2276	1151	2799	58
96	0	0	2240	1150	2800	60
97	0	0	2199	1151	2801	57
98	0	0	2153	1151	2801	55
99	0	0	2065	1152	2800	60
100	0	0	1940	1153	2797	59
101	0	0	1802	1154	2795	59
102	0	0	1705	1153	2794	58
103	0	0	1675	1158	2794	58
104	0	0	1691	1158	2798	61
105	0	0	1731	1159	2799	56
106	0	0	1781	1157	2801	58
107	0	0	1831	1158	2801	55
108	0	0	1900	1157	2801	55
109	0	0	1974	1154	2800	55
110	0	0	2054	1156	2796	55
111	0	0	2145	1155	2792	58
112	0	0	2237	1154	2793	55
113	0	0	2303	1154	2794	54
114	0	0	2334	1152	2796	59
115	0	0	2310	1149	2798	58
116	0	0	2246	1149	2800	59
117	0	0	2170	1149	2802	57
118	0	0	2074	1150	2802	58
119	0	0	1953	1152	2801	59
120	0	0	1841	1149	2797	59
121	0	0	1758	1153	2794	62
122	0	0	1697	1156	2793	58
123	0	0	1671	1157	2795	58
124	0	0	1677	1156	2796	58
125	0	0	1702	1159	2799	59
126	0	0	1732	1160	2801	55
127	0	0	1776	1159	2802	55
0	0	0	1848	1157	2801	55
1	0	0	1940	1158	2800	53
2	0	0	2037	1156	2796	54
3	0	0	2136	1153	2793	58
4	0	0	2222	1153	2792	56
5	0	0	2278	1151	2794	58
6	0	0	2282	1152	2796	60
7	0	0	2225	1148	2799	59
8	0	0	2155	1149	2800	55
9	0	0	2072	1150	2802	56
10	0	0	1973	1152	2802	59
11	0	0	1858	1152	2800	60
12	0	0	1774	1152	2797	59
13	0	0	1703	1153	2793	59
14	0	0	1643	1155	2793	58
15	0	0	1609	1157	2794	57
16	0	0	1599	1158	2797	62
17	0	0	1610	1159	2799	59
18	0	0	1643	1158	2800	55
19	0	0	1699	1158	2801	55
20	0	0	1769	1159	2801	55
21	0	0	1852	1151	2799	55
22	0	0	1940	1155	2796	54
23	0	0	2035	1151	2792	56
24	0	0	2126	1153	2792	55
25	0	0	2176	1153	2793	55
26	0	0	2196	1151	2796	60
27	0	0	2157	1148	2798	57
28	0	0	2085	1148	2800	59
29	0	0	1998	1150	2802	57
30	0	0	1902	1150	2801	59
31	0	0	1819	1150	2800	57
32	0	0	1744	1153	2797	59
33	0	0	1654	1153	2794	57
34	0	0	1574	1155	2794	58
35	0	0	1527	1156	2795	57
36	0	0	1505	1158	2797	56
37	0	0	1505	1159	2800	55
38	0	0	1552	1157	2801	58
39	0	0	1668	1157	2802	55
40	0	0	1776	1157	2802	56
41	0	0	1856	1156	2800	54
42	0	0	1942	1153	2796	53
43	0	0	2036	1154	2792	53
44	0	0	2104	1153	2792	55
45	0	0	2144	1153	2794	56
46	0	0	2157	1154	2796	56
47	0	0	2138	1149	2799	58
48	0	0	2083	1149	2800	57
49	0	0	2001	1149	2801	57
50	0	0	1899	1152	2802	59
51	0	0	1782	1151	2801	57
52	0	0	1661	1152	2798	60
53	0	0	1569	1152	2794	57
54	0	0	1505	1155	2795	58
55	0	0	1493	1156	2796	57
56	0	0	1524	1159	2797	56
57	0	0	1566	1158	2800	56
58	0	0	1613	1158	2800	59
59	0	0	1671	1157	2802	55
60	0	0	1741	1156	2801	55
61	0	0	1812	1154	2800	59
62	0	0	1877	1154	2796	53
63	0	0	1971	1153	2792	52
64	0	0	2086	1152	2792	55
65	0	0	2168	1153	2794	56
66	0	0	2199	1149	2796	55
67	0	0	2166	1148	2799	57
68	0	0	2093	1148	2802	58
69	0	0	2011	1151	2802	57
70	0	0	1930	1149	2802	56
71	0	0	1836	1151	2801	59
72	0	0	1727	1151	2798	58
73	0	0	1618	1154	2794	57
74	0	0	1532	1153	2794	58
75	0	0	1480	1155	2795	58
76	0	0	1458	1158	2797	56
77	0	0	1481	1158	2800	58
78	0	0	1523	1157	2801	54
79	0	0	1593	1156	2802	55
80	0	0	1682	1154	2801	55
81	0	0	1763	1151	2800	55
82	0	0	1857	1153	2797	56
83	0	0	1968	1153	2793	56
84	0	0	2075	1150	2793	54
85	0	0	2159	1151	2793	53
86	0	0	2195	1151	2796	56
87	0	0	2146	1148	2799	55
88	0	0	2042	1147	2801	56
89	0	0	1927	1147	2802	57
90	0	0	1829	1149	2802	55
91	0	0	1768	1149	2801	57
92	0	0	1722	1152	2797	60
93	0	0	1666	1153	2794	58
94	0	0	1616	1154	2793	57
95	0	0	1592	1155	2795	56
96	0	0	1589	1157	2798	58
97	0	0	1593	1156	2800	57
98	0	0	1631	1157	2801	56
99	0	0	1696	1157	2802	55
100	0	0	1774	1156	2801	54
101	0	0	1852	1155	2800	56
102	0	0	1930	1153	2796	58
103	0	0	2018	1153	2793	56
104	0	0	2092	1151	2792	54
105	0	0	2135	1150	2793	55
106	0	0	2127	1151	2796	56
107	0	0	2077	1148	2799	57
108	0	0	1999	1147	2800	56
109	0	0	1915	1147	2803	58
110	0	0	1842	1150	2802	61
111	0	0	1776	1151	2801	57
112	0	0	1706	1150	2797	60
113	0	0	1612	1152	2794	60
114	0	0	1533	1153	2793	58
115	0	0	1500	1155	2795	55
116	0	0	1499	1155	2797	57
117	0	0	1509	1158	2800	56
118	0	0	1544	1157	2801	56
119	0	0	1612	1156	2801	54
120	0	0	1703	1151	2801	54
121	0	0	1801	1155	2800	56
122	0	0	1899	1153	2796	54
123	0	0	1996	1152	2794	55
124	0	0	2070	1150	2792	55
125	0	0	2118	1151	2794	54
126	0	0	2131	1148	2797	56
127	0	0	2104	1148	2799	57
0	0	0	2056	1147	2801	58
1	0	0	1994	1148	2802	57
2	0	0	1923	1148	2802	58
3	0	0	1834	1150	2801	56
4	0	0	1737	1150	2797	59
5	0	0	1650	1152	2794	58
6	0	0	1566	1152	2794	59
7	0	0	1512	1151	2795	57
8	0	0	1510	1157	2797	57
9	0	0	1536	1158	2799	56
10	0	0	1589	1158	2802	56
11	0	0	1646	1156	2802	56
12	0	0	1731	1156	2802	55
13	0	0	1823	1154	2800	55
14	0	0	1921	1153	2797	55
15	0	0	2039	1152	2793	53
16	0	0	2131	1151	2792	54
17	0	0	2195	1152	2793	56
18	0	0	2227	1149	2796	58
19	0	0	2199	1146	2799	58
20	0	0	2099	1147	2800	55
21	0	0	1984	1147	2802	58
22	0	0	1894	1149	2802	56
23	0	0	1829	1148	2801	60
24	0	0	1765	1150	2798	59
25	0	0	1703	1152	2794	60
26	0	0	1634	1152	2794	59
27	0	0	1571	1153	2796	57
28	0	0	1525	1155	2798	56
29	0	0	1507	1156	2801	56
30	0	0	1545	1156	2802	56
31	0	0	1640	1156	2802	55
32	0	0	1733	1156	2802	54
33	0	0	1822	1155	2800	55
34	0	0	1912	1153	2797	54
35	0	0	2008	1151	2793	54
36	0	0	2104	1151	2792	54
37	0	0	2181	1149	2793	55
38	0	0	2200	1152	2796	59
39	0	0	2181	1148	2799	57
40	0	0	2132	1147	2800	55
41	0	0	2044	1150	2803	57
42	0	0	1946	1148	2803	55
43	0	0	1856	1150	2801	55
44	0	0	1774	1150	2798	59
45	0	0	1694	1153	2795	59
46	0	0	1630	1152	2793	58
47	0	0	1580	1153	2795	57
48	0	0	1554	1156	2797	59
49	0	0	1561	1158	2800	57
50	0	0	1599	1157	2801	51
51	0	0	1666	1157	2802	55
52	0	0	1744	1151	2801	54
53	0	0	1837	1155	2800	55
54	0	0	1932	1153	2796	54
55	0	0	2030	1147	2793	55
56	0	0	2113	1150	2792	55
57	0	0	2158	1149	2793	55
58	0	0	2175	1150	2796	57
59	0	0	2172	1149	2799	58
60	0	0	2129	1147	2800	53
61	0	0	2055	1147	2803	57
62	0	0	1962	1145	2801	59
63	0	0	1856	1148	2801	59
64	0	0	1748	1150	2798	59
65	0	0	1655	1151	2794	55
66	0	0	1596	1155	2795	55
67	0	0	1552	1152	2795	62
68	0	0	1524	1152	2798	58
69	0	0	1526	1157	2800	56
70	0	0	1569	1156	2801	52
71	0	0	1628	1157	2802	55
72	0	0	1717	1154	2802	56
73	0	0	1831	1152	2801	55
74	0	0	1923	1150	2796	54
75	0	0	1998	1152	2793	51
76	0	0	2081	1150	2793	55
77	0	0	2188	1149	2793	57
78	0	0	2234	1148	2797	57
79	0	0	2221	1147	2799	57
80	0	0	2173	1147	2801	55
81	0	0	2127	1148	2802	59
82	0	0	2053	1148	2802	58
83	0	0	1949	1146	2802	58
84	0	0	1821	1148	2797	59
85	0	0	1685	1150	2794	57
86	0	0	1567	1151	2794	58
87	0	0	1530	1154	2794	61
88	0	0	1544	1156	2798	57
89	0	0	1564	1155	2799	57
90	0	0	1587	1156	2801	55
91	0	0	1631	1155	2802	55
92	0	0	1683	1155	2801	56
93	0	0	1756	1152	2801	55
94	0	0	1839	1150	2796	54
95	0	0	1957	1151	2793	51
96	0	0	2069	1151	2793	55
97	0	0	2130	1150	2794	56
98	0	0	2143	1149	2796	56
99	0	0	2113	1146	2799	56
100	0	0	2080	1147	2800	51
101	0	0	2057	1147	2802	57
102	0	0	2012	1148	2802	58
103	0	0	1953	1149	2801	57
104	0	0	1881	1150	2797	59
105	0	0	1801	1150	2794	56
106	0	0	1719	1152	2795	58
107	0	0	1669	1153	2794	56
108	0	0	1646	1154	2796	56
109	0	0	1647	1156	2799	57
110	0	0	1662	1156	2802	56
111	0	0	1690	1154	2802	56
112	0	0	1744	1154	2801	55
113	0	0	1815	1153	2800	53
114	0	0	1891	1151	2796	52
115	0	0	1979	1150	2793	52
116	0	0	2082	1152	2792	55
117	0	0	2183	1148	2793	56
118	0	0	2251	1150	2795	56
119	0	0	2279	1149	2799	57
120	0	0	2251	1146	2800	56
121	0	0	2169	1147	2802	58
122	0	0	2076	1146	2801	59
123	0	0	1983	1150	2800	56
124	0	0	1897	1148	2798	59
125	0	0	1811	1150	2794	56
126	0	0	1738	1150	2794	57
127	0	0	1688	1152	2796	56
0	0	0	1661	1154	2796	58
1	0	0	1674	1156	2800	56
2	0	0	1717	1155	2801	52
3	0	0	1791	1157	2801	54
4	0	0	1878	1153	2802	55
5	0	0	1957	1154	2800	54
6	0	0	2040	1150	2796	54
7	0	0	2141	1149	2793	47
8	0	0	2231	1149	2792	54
9	0	0	2290	1148	2794	54
10	0	0	2319	1149	2796	56
11	0	0	2314	1149	2799	57
12	0	0	2277	1146	2801	57
13	0	0	2182	1146	2802	58
14	0	0	2061	1145	2802	58
15	0	0	1959	1148	2800	58
16	0	0	1892	1144	2798	59
17	0	0	1825	1150	2793	57
18	0	0	1743	1150	2793	57
19	0	0	1678	1152	2795	58
20	0	0	1649	1156	2796	56
21	0	0	1679	1156	2799	57
22	0	0	1742	1155	2801	56
23	0	0	1816	1154	2801	56
24	0	0	1908	1152	2802	55
25	0	0	2005	1155	2800	54
26	0	0	2080	1150	2796	55
27	0	0	2156	1150	2792	52
28	0	0	2238	1150	2793	54
29	0	0	2298	1149	2794	55
30	0	0	2328	1149	2795	56
31	0	0	2302	1145	2799	56
32	0	0	2252	1145	2801	57
33	0	0	2166	1145	2802	58
34	0	0	2071	1146	2803	59
35	0	0	1987	1149	2800	56
36	0	0	1907	1147	2797	60
37	0	0	1838	1150	2794	56
38	0	0	1796	1151	2793	56
39	0	0	1783	1153	2795	57
40	0	0	1772	1154	2797	57
41	0	0	1784	1154	2799	57
42	0	0	1824	1155	2801	56
43	0	0	1884	1153	2802	55
44	0	0	1978	1152	2802	55
45	0	0	2074	1151	2800	56
46	0	0	2158	1152	2796	55
47	0	0	2249	1149	2792	52
48	0	0	2338	1148	2793	56
49	0	0	2411	1148	2793	53
50	0	0	2432	1147	2795	56
51	0	0	2374	1144	2799	57
52	0	0	2277	1144	2801	56
53	0	0	2174	1145	2803	56
54	0	0	2066	1146	2802	57
55	0	0	1973	1147	2801	58
56	0	0	1881	1151	2798	59
57	0	0	1777	1149	2794	58
58	0	0	1689	1150	2793	58
59	0	0	1643	1154	2794	57
60	0	0	1638	1154	2796	58
61	0	0	1672	1155	2799	58
62	0	0	1735	1154	2800	56
63	0	0	1820	1155	2803	55
64	0	0	1900	1152	2801	53
65	0	0	1967	1153	2799	56
66	0	0	2031	1154	2797	55
67	0	0	2114	1149	2793	54
68	0	0	2202	1149	2792	54
69	0	0	2264	1149	2793	56
70	0	0	2291	1149	2795	56
71	0	0	2267	1145	2799	57
72	0	0	2213	1145	2801	57
73	0	0	2140	1146	2801	56
74	0	0	2050	1146	2802	56
75	0	0	1938	1147	2800	56
76	0	0	1824	1150	2797	58
77	0	0	1720	1149	2794	57
78	0	0	1655	1149	2794	58
79	0	0	1633	1155	2795	58
80	0	0	1656	1154	2797	60
81	0	0	1713	1157	2799	56
82	0	0	1762	1154	2800	56
83	0	0	1823	1153	2803	56
84	0	0	1892	1154	2801	55
85	0	0	1969	1153	2799	56
86	0	0	2058	1152	2796	54
87	0	0	2149	1149	2792	54
88	0	0	2203	1148	2792	53
89	0	0	2213	1148	2793	56
90	0	0	2202	1148	2796	57
91	0	0	2201	1152	2799	57
92	0	0	2180	1145	2800	57
93	0	0	2110	1144	2802	57
94	0	0	2007	1146	2802	58
95	0	0	1904	1146	2800	60
96	0	0	1809	1147	2797	59
97	0	0	1708	1149	2794	55
98	0	0	1633	1149	2793	58
99	0	0	1586	1150	2794	58
100	0	0	1576	1156	2796	58
101	0	0	1598	1156	2799	58
102	0	0	1630	1153	2800	56
103	0	0	1683	1153	2801	52
104	0	0	1775	1155	2801	54
105	0	0	1880	1151	2800	54
106	0	0	1976	1153	2796	55
107	0	0	2071	1150	2793	54
108	0	0	2158	1146	2792	54
109	0	0	2222	1148	2793	56
110	0	0	2262	1149	2796	56
111	0	0	2262	1152	2799	58
112	0	0	2212	1144	2800	57
113	0	0	2126	1143	2801	57
114	0	0	2027	1145	2802	58
115	0	0	1925	1147	2800	59
116	0	0	1840	1149	2797	58
117	0	0	1769	1148	2794	58
118	0	0	1720	1150	2793	57
119	0	0	1684	1151	2794	55
120	0	0	1650	1151	2796	55
121	0	0	1636	1152	2799	58
122	0	0	1656	1154	2801	55
123	0	0	1727	1151	2801	55
124	0	0	1812	1151	2801	54
125	0	0	1889	1151	2800	54
126	0	0	1970	1150	2796	51
127	0	0	2065	1148	2792	49
0	0	0	2171	1149	2792	55
1	0	0	2253	1149	2793	56
2	0	0	2292	1146	2795	57
3	0	0	2278	1144	2798	56
4	0	0	2203	1143	2800	56
5	0	0	2092	1144	2801	58
6	0	0	1987	1144	2801	59
7	0	0	1886	1146	2800	59
8	0	0	1794	1152	2797	60
9	0	0	1716	1147	2793	57
10	0	0	1629	1148	2793	56
11	0	0	1549	1148	2794	58
12	0	0	1502	1149	2797	57
13	0	0	1518	1154	2799	56
14	0	0	1598	1154	2801	56
15	0	0	1681	1152	2801	55
16	0	0	1738	1151	2801	54
17	0	0	1779	1150	2800	55
18	0	0	1836	1146	2796	53
19	0	0	1917	1150	2792	55
20	0	0	1989	1147	2792	55
21	0	0	2033	1146	2793	55
22	0	0	2036	1146	2796	55
23	0	0	2003	1144	2798	56
24	0	0	1963	1143	2800	57
25	0	0	1907	1144	2801	58
26	0	0	1834	1147	2801	57
27	0	0	1760	1147	2800	55
28	0	0	1705	1146	2796	57
29	0	0	1664	1148	2793	60
30	0	0	1651	1151	2793	56
31	0	0	1660	1152	2793	59
32	0	0	1698	1154	2796	56
33	0	0	1757	1151	2798	57
34	0	0	1846	1151	2800	55
35	0	0	1957	1152	2801	55
36	0	0	2081	1153	2800	55
37	0	0	2223	1151	2800	54
38	0	0	2365	1149	2796	52
39	0	0	2521	1150	2792	53
40	0	0	2662	1148	2791	54
41	0	0	2762	1145	2793	56
42	0	0	2838	1149	2795	55
43	0	0	2879	1147	2798	57
44	0	0	2868	1147	2800	55
45	0	0	2835	1146	2802	57
46	0	0	2788	1146	2802	60
47	0	0	2722	1146	2800	58
48	0	0	2651	1147	2797	58
49	0	0	2584	1147	2793	58
50	0	0	2508	1147	2793	58
51	0	0	2445	1149	2793	55
52	0	0	2399	1151	2796	57
53	0	0	2396	1153	2799	57
54	0	0	2410	1153	2800	56
55	0	0	2449	1152	2802	55
56	0	0	2510	1150	2801	58
57	0	0	2560	1149	2799	55
58	0	0	2586	1149	2796	53
59	0	0	2607	1147	2792	53
60	0	0	2635	1146	2792	58
61	0	0	2640	1146	2793	53
62	0	0	2597	1143	2795	56
63	0	0	2529	1142	2797	56
64	0	0	2415	1142	2799	58
65	0	0	2283	1141	2801	58
66	0	0	2162	1143	2801	58
67	0	0	2040	1145	2800	59
68	0	0	1930	1144	2796	57
69	0	0	1815	1146	2793	58
70	0	0	1710	1145	2792	57
71	0	0	1645	1148	2794	59
72	0	0	1620	1151	2795	53
73	0	0	1640	1151	2798	56
74	0	0	1695	1151	2799	56
75	0	0	1766	1151	2802	55
76	0	0	1842	1150	2801	51
77	0	0	1913	1152	2800	56
78	0	0	1976	1149	2796	53
79	0	0	2046	1147	2791	56
80	0	0	2126	1146	2792	54
81	0	0	2179	1147	2793	53
82	0	0	2205	1145	2795	57
83	0	0	2194	1144	2797	56
84	0	0	2156	1143	2799	57
85	0	0	2107	1143	2802	60
86	0	0	2017	1143	2801	56
87	0	0	1890	1144	2800	57
88	0	0	1757	1143	2796	58
89	0	0	1672	1146	2793	58
90	0	0	1636	1147	2792	57
91	0	0	1630	1151	2793	57
92	0	0	1644	1152	2796	58
93	0	0	1673	1153	2798	58
94	0	0	1720	1152	2800	56
95	0	0	1775	1151	2800	54
96	0	0	1846	1150	2800	55
97	0	0	1952	1149	2798	52
98	0	0	2059	1147	2795	54
99	0	0	2150	1147	2791	52
100	0	0	2223	1146	2792	55
101	0	0	2277	1146	2794	57
102	0	0	2297	1145	2795	56
103	0	0	2268	1142	2798	57
104	0	0	2196	1142	2799	58
105	0	0	2108	1142	2801	59
106	0	0	2021	1142	2800	56
107	0	0	1937	1144	2799	56
108	0	0	1857	1143	2797	58
109	0	0	1780	1146	2793	57
110	0	0	1720	1147	2792	56
111	0	0	1696	1150	2793	56
112	0	0	1702	1152	2796	58
113	0	0	1722	1151	2798	57
114	0	0	1759	1152	2800	56
115	0	0	1804	1150	2800	54
116	0	0	1870	1149	2800	54
117	0	0	1957	1148	2799	55
118	0	0	2049	1148	2796	55
119	0	0	2156	1146	2791	53
120	0	0	2283	1145	2792	55
121	0	0	2376	1143	2792	56
122	0	0	2428	1145	2794	56
123	0	0	2404	1139	2797	57
124	0	0	2314	1141	2799	58
125	0	0	2212	1142	2800	58
126	0	0	2106	1143	2800	58
127	0	0	1987	1144	2799	58
0	0	0	1884	1143	2796	58
1	0	0	1809	1145	2793	58
2	0	0	1760	1147	2792	57
3	0	0	1740	1149	2793	56
4	0	0	1725	1149	2796	56
5	0	0	1715	1149	2798	56
6	0	0	1717	1152	2800	56
7	0	0	1750	1149	2800	55
8	0	0	1841	1149	2800	54
9	0	0	1943	1148	2799	55
10	0	0	2020	1147	2795	54
11	0	0	2113	1145	2791	54
12	0	0	2174	1147	2791	53
13	0	0	2190	1145	2792	55
14	0	0	2192	1145	2795	57
15	0	0	2188	1144	2797	57
16	0	0	2157	1142	2799	57
17	0	0	2090	1142	2800	58
18	0	0	1998	1144	2799	57
19	0	0	1907	1143	2799	59
20	0	0	1837	1145	2797	59
21	0	0	1769	1145	2792	58
22	0	0	1694	1147	2792	56
23	0	0	1653	1149	2792	58
24	0	0	1667	1150	2795	57
25	0	0	1716	1151	2798	56
26	0	0	1785	1151	2799	56
27	0	0	1850	1151	2801	55
28	0	0	1924	1148	2800	55
29	0	0	2007	1149	2799	55
30	0	0	2088	1147	2795	54
31	0	0	2176	1146	2791	53
32	0	0	2265	1147	2790	53
33	0	0	2325	1146	2791	53
34	0	0	2337	1144	2795	57
35	0	0	2322	1144	2797	57
36	0	0	2280	1142	2799	58
37	0	0	2201	1142	2800	58
38	0	0	2106	1143	2800	57
39	0	0	2016	1143	2799	58
40	0	0	1923	1144	2796	57
41	0	0	1833	1145	2792	57
42	0	0	1757	1147	2793	57
43	0	0	1708	1148	2794	57
44	0	0	1686	1149	2795	57
45	0	0	1693	1151	2798	56
46	0	0	1728	1151	2799	55
47	0	0	1812	1151	2801	54
48	0	0	1903	1148	2800	56
49	0	0	1991	1148	2798	55
50	0	0	2089	1148	2796	53
51	0	0	2198	1145	2792	53
52	0	0	2279	1143	2791	54
53	0	0	2336	1144	2792	55
54	0	0	2356	1143	2794	56
55	0	0	2323	1139	2797	56
56	0	0	2275	1141	2800	57
57	0	0	2206	1144	2800	58
58	0	0	2119	1141	2800	57
59	0	0	2021	1143	2800	59
60	0	0	1932	1142	2796	60
61	0	0	1859	1145	2792	56
62	0	0	1813	1146	2792	57
63	0	0	1779	1148	2792	56
64	0	0	1759	1148	2795	57
65	0	0	1755	1148	2797	57
66	0	0	1756	1149	2799	55
67	0	0	1785	1149	2800	55
68	0	0	1854	1150	2799	54
69	0	0	1962	1148	2798	55
70	0	0	2080	1145	2795	53
71	0	0	2175	1145	2791	55
72	0	0	2254	1145	2791	55
73	0	0	2291	1144	2792	54
74	0	0	2290	1144	2794	57
75	0	0	2286	1144	2797	57
76	0	0	2260	1141	2799	56
77	0	0	2181	1141	2800	58
78	0	0	2054	1140	2800	58
79	0	0	1927	1143	2799	59
80	0	0	1830	1144	2796	58
81	0	0	1756	1145	2793	57
82	0	0	1683	1143	2791	58
83	0	0	1635	1148	2793	58
84	0	0	1605	1147	2794	57
85	0	0	1607	1151	2798	56
86	0	0	1659	1150	2799	55
87	0	0	1731	1148	2801	55
88	0	0	1830	1148	2800	55
89	0	0	1933	1147	2798	55
90	0	0	2015	1146	2795	53
91	0	0	2101	1145	2791	54
92	0	0	2188	1143	2790	54
93	0	0	2245	1144	2791	55
94	0	0	2268	1143	2794	57
95	0	0	2273	1143	2797	58
96	0	0	2253	1141	2799	58
97	0	0	2198	1141	2800	57
98	0	0	2118	1142	2799	58
99	0	0	2014	1142	2800	58
100	0	0	1917	1144	2796	59
101	0	0	1831	1144	2791	58
102	0	0	1755	1144	2791	57
103	0	0	1685	1146	2793	58
104	0	0	1640	1147	2795	57
105	0	0	1649	1150	2797	56
106	0	0	1701	1149	2799	37
107	0	0	1810	1149	2800	55
108	0	0	1934	1148	2800	55
109	0	0	2035	1147	2798	55
110	0	0	2140	1144	2794	54
111	0	0	2240	1143	2791	53
112	0	0	2322	1144	2790	54
113	0	0	2375	1144	2791	54
114	0	0	2383	1142	2794	57
115	0	0	2331	1141	2796	58
116	0	0	2248	1139	2799	57
117	0	0	2168	1138	2799	58
118	0	0	2082	1140	2800	56
119	0	0	1982	1142	2799	58
120	0	0	1893	1144	2796	59
121	0	0	1824	1144	2793	60
122	0	0	1732	1145	2792	57
123	0	0	1674	1146	2792	56
124	0	0	1666	1151	2795	55
125	0	0	1709	1150	2796	56
126	0	0	1794	1150	2799	55
127	0	0	1899	1150	2800	55
0	0	0	2018	1148	2800	52
1	0	0	2113	1147	2799	55
2	0	0	2190	1145	2795	54
3	0	0	2270	1141	2790	55
4	0	0	2351	1142	2791	55
5	0	0	2425	1144	2792	60
6	0	0	2456	1143	2794	56
7	0	0	2450	1142	2797	57
8	0	0	2406	1140	2798	58
9	0	0	2314	1138	2801	57
10	0	0	2218	1141	2800	58
11	0	0	2111	1141	2799	58
12	0	0	1991	1142	2795	59
13	0	0	1892	1144	2792	56
14	0	0	1818	1146	2791	55
15	0	0	1757	1145	2792	58
16	0	0	1733	1147	2795	57
17	0	0	1737	1148	2797	57
18	0	0	1776	1149	2798	56
19	0	0	1838	1146	2800	55
20	0	0	1909	1149	2800	60
21	0	0	1985	1146	2798	55
22	0	0	2062	1145	2794	55
23	0	0	2168	1144	2790	55
24	0	0	2284	1146	2790	55
25	0	0	2356	1144	2791	55
26	0	0	2396	1141	2793	55
27	0	0	2395	1142	2796	57
28	0	0	2340	1139	2799	57
29	0	0	2257	1138	2799	58
30	0	0	2140	1142	2799	58
31	0	0	2006	1141	2799	59
32	0	0	1864	1141	2796	59
33	0	0	1744	1142	2791	57
34	0	0	1698	1144	2792	57
35	0	0	1692	1147	2793	57
36	0	0	1706	1148	2794	56
37	0	0	1742	1149	2797	57
38	0	0	1786	1148	2798	55
39	0	0	1839	1148	2799	56
40	0	0	1910	1148	2799	52
41	0	0	2008	1147	2798	55
42	0	0	2109	1145	2794	53
43	0	0	2206	1144	2790	54
44	0	0	2307	1146	2790	55
45	0	0	2388	1143	2790	52
46	0	0	2430	1141	2794	55
47	0	0	2404	1139	2796	57
48	0	0	2325	1140	2798	58
49	0	0	2224	1140	2799	57
50	0	0	2115	1140	2800	57
51	0	0	2018	1141	2799	58
52	0	0	1939	1142	2795	57
53	0	0	1890	1144	2792	58
54	0	0	1835	1145	2791	57
55	0	0	1781	1146	2793	55
56	0	0	1770	1146	2795	56
57	0	0	1764	1146	2796	56
58	0	0	1768	1148	2798	58
59	0	0	1815	1146	2799	53
60	0	0	1896	1149	2799	54
61	0	0	1991	1146	2799	55
62	0	0	2066	1145	2794	54
63	0	0	2146	1143	2790	54
64	0	0	2228	1144	2790	53
65	0	0	2298	1143	2791	55
66	0	0	2356	1141	2794	54
67	0	0	2361	1141	2796	57
68	0	0	2296	1138	2799	57
69	0	0	2182	1138	2799	58
70	0	0	2058	1139	2800	57
71	0	0	1954	1141	2799	59
72	0	0	1876	1141	2795	58
73	0	0	1799	1144	2792	58
74	0	0	1737	1144	2791	57
75	0	0	1702	1146	2792	59
76	0	0	1704	1148	2794	54
77	0	0	1717	1148	2796	56
78	0	0	1757	1147	2798	55
79	0	0	1832	1149	2798	54
80	0	0	1928	1146	2800	54
81	0	0	2022	1146	2799	53
82	0	0	2112	1144	2794	53
83	0	0	2192	1142	2790	54
84	0	0	2261	1143	2790	54
85	0	0	2316	1141	2791	55
86	0	0	2344	1142	2793	60
87	0	0	2314	1138	2796	57
88	0	0	2242	1138	2797	58
89	0	0	2174	1141	2800	57
90	0	0	2096	1140	2800	57
91	0	0	2001	1140	2798	59
92	0	0	1900	1141	2795	60
93	0	0	1822	1144	2792	58
94	0	0	1766	1144	2791	57
95	0	0	1726	1145	2791	55
96	0	0	1699	1145	2794	55
97	0	0	1700	1148	2797	57
98	0	0	1731	1148	2798	56
99	0	0	1793	1146	2799	55
100	0	0	1878	1146	2800	56
101	0	0	1977	1146	2797	53
102	0	0	2077	1144	2794	53
103	0	0	2177	1143	2790	52
104	0	0	2288	1142	2790	54
105	0	0	2363	1141	2790	55
106	0	0	2396	1142	2793	58
107	0	0	2349	1137	2796	57
108	0	0	2243	1137	2797	57
109	0	0	2136	1137	2798	56
110	0	0	2045	1139	2799	59
111	0	0	1962	1140	2798	58
112	0	0	1889	1142	2794	58
113	0	0	1835	1143	2791	59
114	0	0	1780	1143	2790	56
115	0	0	1720	1144	2792	58
116	0	0	1684	1145	2793	58
117	0	0	1683	1148	2796	57
118	0	0	1722	1147	2798	56
119	0	0	1790	1146	2799	55
120	0	0	1866	1146	2799	55
121	0	0	1947	1145	2798	55
122	0	0	2036	1144	2794	53
123	0	0	2145	1143	2791	54
124	0	0	2257	1139	2789	55
125	0	0	2330	1141	2791	55
126	0	0	2350	1141	2793	56
127	0	0	2331	1138	2796	60
0	0	0	2270	1139	2798	56
1	0	0	2186	1139	2798	57
2	0	0	2106	1138	2799	58
3	0	0	2020	1139	2798	58
4	0	0	1918	1140	2795	57
5	0	0	1804	1141	2791	58
6	0	0	1712	1144	2790	56
7	0	0	1670	1144	2792	57
8	0	0	1677	1148	2793	58
9	0	0	1719	1147	2797	58
10	0	0	1772	1147	2798	56
11	0	0	1845	1145	2799	56
12	0	0	1913	1146	2800	58
13	0	0	2004	1145	2798	54
14	0	0	2119	1143	2794	52
15	0	0	2221	1142	2790	52
16	0	0	2313	1141	2790	52
17	0	0	2372	1140	2791	55
18	0	0	2376	1140	2793	57
19	0	0	2337	1137	2796	58
20	0	0	2269	1137	2797	58
21	0	0	2188	1137	2799	58
22	0	0	2074	1137	2800	58
23	0	0	1955	1139	2798	59
24	0	0	1872	1142	2795	59
25	0	0	1817	1142	2790	58
26	0	0	1767	1143	2790	57
27	0	0	1723	1144	2792	58
28	0	0	1707	1146	2794	56
29	0	0	1704	1146	2796	55
30	0	0	1711	1147	2798	56
31	0	0	1753	1144	2799	55
32	0	0	1835	1145	2799	55
33	0	0	1938	1145	2798	55
34	0	0	2046	1144	2794	52
35	0	0	2167	1141	2790	53
36	0	0	2279	1141	2789	53
37	0	0	2349	1140	2791	56
38	0	0	2365	1140	2792	58
39	0	0	2329	1137	2796	56
40	0	0	2260	1136	2797	57
41	0	0	2157	1138	2798	58
42	0	0	2042	1137	2799	57
43	0	0	1942	1139	2798	59
44	0	0	1874	1140	2795	60
45	0	0	1814	1141	2790	55
46	0	0	1754	1143	2790	57
47	0	0	1694	1142	2791	57
48	0	0	1651	1144	2792	58
49	0	0	1674	1148	2796	57
50	0	0	1747	1146	2797	55
51	0	0	1826	1147	2798	56
52	0	0	1909	1144	2799	56
53	0	0	2010	1144	2796	55
54	0	0	2118	1142	2795	53
55	0	0	2193	1139	2790	54
56	0	0	2260	1140	2789	53
57	0	0	2333	1140	2790	54
58	0	0	2377	1139	2792	55
59	0	0	2362	1138	2796	56
60	0	0	2297	1136	2797	57
61	0	0	2199	1137	2800	57
62	0	0	2076	1138	2799	58
63	0	0	1941	1139	2798	59
64	0	0	1831	1140	2795	58
65	0	0	1753	1141	2791	57
66	0	0	1692	1142	2791	57
67	0	0	1645	1144	2792	61
68	0	0	1615	1143	2793	55
69	0	0	1618	1147	2796	56
70	0	0	1660	1145	2797	56
71	0	0	1719	1145	2799	55
72	0	0	1790	1146	2799	53
73	0	0	1889	1144	2797	55
74	0	0	1991	1142	2793	53
75	0	0	2082	1142	2790	54
76	0	0	2154	1140	2789	54
77	0	0	2200	1137	2790	54
78	0	0	2210	1139	2792	53
79	0	0	2206	1138	2794	58
80	0	0	2150	1136	2797	58
81	0	0	2068	1135	2799	58
82	0	0	1982	1137	2800	61
83	0	0	1892	1138	2798	57
84	0	0	1794	1139	2794	58
85	0	0	1699	1141	2791	58
86	0	0	1634	1141	2790	57
87	0	0	1607	1143	2790	57
88	0	0	1614	1145	2793	55
89	0	0	1632	1146	2794	58
90	0	0	1677	1146	2798	56
91	0	0	1754	1145	2798	55
92	0	0	1848	1144	2798	55
93	0	0	1933	1143	2798	55
94	0	0	1999	1141	2792	50
95	0	0	2069	1141	2789	51
96	0	0	2156	1139	2789	55
97	0	0	2236	1138	2789	55
98	0	0	2284	1139	2792	53
99	0	0	2299	1139	2794	57
100	0	0	2262	1135	2797	57
101	0	0	2174	1135	2798	59
102	0	0	2072	1137	2798	61
103	0	0	1976	1138	2798	59
104	0	0	1895	1140	2794	59
105	0	0	1818	1138	2791	59
106	0	0	1744	1142	2791	57
107	0	0	1684	1142	2792	56
108	0	0	1656	1144	2793	53
109	0	0	1668	1146	2796	55
110	0	0	1704	1145	2797	58
111	0	0	1765	1145	2798	55
112	0	0	1853	1144	2797	55
113	0	0	1936	1142	2797	53
114	0	0	2010	1142	2793	55
115	0	0	2108	1140	2789	55
116	0	0	2224	1140	2788	55
117	0	0	2319	1139	2789	54
118	0	0	2376	1138	2792	54
119	0	0	2373	1136	2793	53
120	0	0	2316	1133	2796	56
121	0	0	2217	1135	2798	58
122	0	0	2090	1137	2798	58
123	0	0	1960	1137	2798	59
124	0	0	1841	1138	2794	59
125	0	0	1752	1140	2791	58
126	0	0	1689	1143	2789	57
127	0	0	1657	1142	2790	56
0	0	0	1643	1144	2793	57
1	0	0	1652	1144	2795	56
2	0	0	1692	1145	2796	56
3	0	0	1787	1144	2798	56
4	0	0	1899	1144	2797	54
5	0	0	1997	1143	2796	52
6	0	0	2081	1141	2793	52
7	0	0	2147	1138	2789	54
8	0	0	2206	1140	2788	54
9	0	0	2281	1138	2789	54
10	0	0	2341	1138	2792	56
11	0	0	2348	1137	2794	57
12	0	0	2283	1135	2796	57
13	0	0	2193	1136	2799	59
14	0	0	2092	1137	2798	58
15	0	0	1997	1137	2798	58
16	0	0	1907	1138	2794	57
17	0	0	1831	1140	2790	58
18	0	0	1780	1140	2790	58
19	0	0	1751	1143	2791	56
20	0	0	1756	1144	2792	58
21	0	0	1781	1145	2795	56
22	0	0	1814	1145	2796	55
23	0	0	1847	1144	2798	56
24	0	0	1911	1145	2798	55
25	0	0	1975	1144	2797	55
26	0	0	2033	1141	2793	52
27	0	0	2110	1140	2789	53
28	0	0	2202	1139	2788	53
29	0	0	2286	1138	2789	55
30	0	0	2326	1137	2792	56
31	0	0	2313	1135	2795	56
32	0	0	2241	1135	2796	57
33	0	0	2144	1135	2798	61
34	0	0	2047	1137	2798	59
35	0	0	1943	1138	2797	56
36	0	0	1838	1138	2794	57
37	0	0	1753	1139	2790	58
38	0	0	1696	1142	2789	59
39	0	0	1659	1142	2790	57
40	0	0	1653	1144	2792	56
41	0	0	1681	1145	2794	55
42	0	0	1727	1143	2796	55
43	0	0	1788	1144	2798	56
44	0	0	1864	1145	2798	55
45	0	0	1950	1143	2797	55
46	0	0	2035	1140	2793	52
47	0	0	2129	1140	2790	53
48	0	0	2211	1138	2788	54
49	0	0	2279	1139	2789	55
50	0	0	2309	1138	2791	56
51	0	0	2306	1137	2793	56
52	0	0	2267	1134	2796	58
53	0	0	2186	1134	2798	57
54	0	0	2081	1134	2798	58
55	0	0	1974	1136	2797	62
56	0	0	1874	1137	2793	58
57	0	0	1771	1136	2789	58
58	0	0	1667	1142	2788	58
59	0	0	1605	1143	2791	57
60	0	0	1617	1144	2792	56
61	0	0	1658	1145	2795	57
62	0	0	1702	1145	2796	56
63	0	0	1746	1142	2798	55
64	0	0	1810	1143	2798	52
65	0	0	1905	1140	2796	58
66	0	0	2023	1141	2792	52
67	0	0	2147	1140	2788	56
68	0	0	2268	1136	2789	54
69	0	0	2332	1138	2789	55
70	0	0	2347	1137	2791	60
71	0	0	2331	1134	2793	56
72	0	0	2270	1133	2795	57
73	0	0	2171	1138	2796	59
74	0	0	2060	1134	2798	58
75	0	0	1961	1136	2796	62
76	0	0	1861	1137	2794	59
77	0	0	1759	1138	2790	58
78	0	0	1692	1139	2789	55
79	0	0	1652	1142	2790	58
80	0	0	1653	1144	2793	57
81	0	0	1687	1144	2793	56
82	0	0	1748	1144	2796	56
83	0	0	1831	1142	2797	56
84	0	0	1923	1143	2798	55
85	0	0	2021	1141	2796	55
86	0	0	2105	1140	2792	50
87	0	0	2211	1135	2788	52
88	0	0	2325	1136	2788	53
89	0	0	2395	1137	2789	52
90	0	0	2399	1137	2791	58
91	0	0	2361	1134	2793	57
92	0	0	2284	1133	2796	57
93	0	0	2180	1134	2798	58
94	0	0	2078	1136	2798	58
95	0	0	2008	1136	2797	58
96	0	0	1943	1137	2793	59
97	0	0	1872	1138	2790	58
98	0	0	1809	1138	2789	58
99	0	0	1770	1141	2790	57
100	0	0	1757	1142	2792	59
101	0	0	1776	1143	2794	55
102	0	0	1827	1142	2796	55
103	0	0	1892	1142	2797	56
104	0	0	1954	1143	2798	55
105	0	0	2027	1141	2796	55
106	0	0	2107	1139	2792	53
107	0	0	2205	1138	2788	53
108	0	0	2294	1137	2788	53
109	0	0	2355	1137	2790	53
110	0	0	2387	1136	2791	55
111	0	0	2372	1134	2793	54
112	0	0	2298	1132	2796	58
113	0	0	2189	1133	2797	58
114	0	0	2087	1135	2798	56
115	0	0	1979	1135	2797	60
116	0	0	1873	1136	2793	57
117	0	0	1775	1137	2792	58
118	0	0	1708	1138	2789	56
119	0	0	1682	1141	2790	57
120	0	0	1676	1142	2792	55
121	0	0	1686	1145	2793	55
122	0	0	1702	1142	2796	56
123	0	0	1747	1143	2797	55
124	0	0	1839	1142	2798	52
125	0	0	1956	1142	2796	56
126	0	0	2076	1138	2792	51
127	0	0	2188	1138	2788	54
0	0	0	2277	1137	2787	53
1	0	0	2344	1136	2788	54
2	0	0	2383	1136	2791	55
3	0	0	2375	1136	2793	56
4	0	0	2332	1133	2795	57
5	0	0	2262	1133	2797	60
6	0	0	2166	1134	2798	58
7	0	0	2070	1136	2796	59
8	0	0	1980	1136	2794	58
9	0	0	1894	1137	2789	58
10	0	0	1828	1138	2789	58
11	0	0	1755	1139	2790	57
12	0	0	1694	1139	2792	56
13	0	0	1682	1144	2795	56
14	0	0	1707	1143	2796	55
15	0	0	1775	1141	2797	56
16	0	0	1871	1141	2798	55
17	0	0	1987	1140	2796	55
18	0	0	2104	1139	2792	53
19	0	0	2228	1137	2788	54
20	0	0	2344	1137	2787	54
21	0	0	2445	1135	2789	57
22	0	0	2511	1135	2790	56
23	0	0	2535	1136	2793	57
24	0	0	2503	1133	2795	57
25	0	0	2445	1133	2796	60
26	0	0	2344	1132	2797	57
27	0	0	2232	1135	2796	59
28	0	0	2148	1136	2793	58
29	0	0	2076	1138	2790	59
30	0	0	2008	1138	2788	58
31	0	0	1968	1140	2789	58
32	0	0	1956	1143	2791	54
33	0	0	1986	1142	2794	56
34	0	0	2039	1142	2795	55
35	0	0	2088	1142	2797	55
36	0	0	2149	1141	2797	55
37	0	0	2229	1140	2796	56
38	0	0	2322	1139	2792	53
39	0	0	2424	1138	2788	54
40	0	0	2532	1135	2787	56
41	0	0	2636	1134	2788	55
42	0	0	2687	1135	2790	52
43	0	0	2670	1133	2793	56
44	0	0	2584	1132	2795	58
45	0	0	2451	1133	2797	59
46	0	0	2331	1131	2797	57
47	0	0	2222	1135	2796	55
48	0	0	2112	1135	2793	59
49	0	0	2027	1137	2789	58
50	0	0	1968	1138	2788	57
51	0	0	1939	1138	2789	57
52	0	0	1932	1144	2792	56
53	0	0	1941	1142	2794	56
54	0	0	1964	1142	2796	53
55	0	0	2041	1141	2798	55
56	0	0	2147	1138	2797	55
57	0	0	2240	1139	2796	56
58	0	0	2306	1138	2792	55
59	0	0	2354	1139	2788	54
60	0	0	2415	1136	2787	53
61	0	0	2475	1136	2788	55
62	0	0	2513	1136	2790	58
63	0	0	2517	1134	2793	56
64	0	0	2459	1132	2795	57
65	0	0	2384	1133	2796	58
66	0	0	2312	1133	2797	55
67	0	0	2240	1135	2797	60
68	0	0	2189	1135	2793	58
69	0	0	2156	1135	2789	58
70	0	0	2127	1139	2788	55
71	0	0	2123	1142	2790	55
72	0	0	2142	1144	2791	58
73	0	0	2207	1142	2793	55
74	0	0	2299	1141	2795	55
75	0	0	2417	1142	2796	55
76	0	0	2558	1138	2797	54
77	0	0	2701	1139	2795	52
78	0	0	2836	1139	2791	53
79	0	0	2965	1137	2788	51
80	0	0	3103	1134	2786	55
81	0	0	3228	1131	2789	53
82	0	0	3327	1135	2790	56
83	0	0	3382	1135	2793	56
84	0	0	3376	1135	2795	58
85	0	0	3287	1132	2796	59
86	0	0	3160	1132	2796	55
87	0	0	3018	1133	2796	60
88	0	0	2883	1135	2793	58
89	0	0	2759	1135	2789	57
90	0	0	2665	1137	2788	59
91	0	0	2617	1135	2789	56
92	0	0	2588	1140	2791	53
93	0	0	2569	1142	2793	56
94	0	0	2563	1141	2796	56
95	0	0	2566	1140	2795	54
96	0	0	2585	1139	2796	55
97	0	0	2595	1139	2795	55
98	0	0	2589	1138	2791	52
99	0	0	2605	1136	2788	54
100	0	0	2642	1135	2787	53
101	0	0	2659	1134	2787	51
102	0	0	2631	1132	2790	58
103	0	0	2569	1131	2792	60
104	0	0	2467	1131	2794	57
105	0	0	2345	1131	2796	58
106	0	0	2232	1131	2796	59
107	0	0	2156	1135	2796	59
108	0	0	2082	1135	2792	58
109	0	0	1986	1133	2788	58
110	0	0	1889	1136	2789	56
111	0	0	1812	1138	2789	58
112	0	0	1767	1139	2791	58
113	0	0	1752	1140	2793	56
114	0	0	1774	1140	2795	56
115	0	0	1838	1139	2796	55
116	0	0	1935	1137	2797	54
117	0	0	2027	1139	2795	56
118	0	0	2096	1138	2792	52
119	0	0	2180	1137	2788	55
120	0	0	2271	1136	2787	55
121	0	0	2357	1134	2787	55
122	0	0	2410	1134	2790	58
123	0	0	2416	1133	2792	56
124	0	0	2345	1131	2795	57
125	0	0	2238	1131	2797	56
126	0	0	2100	1131	2796	55
127	0	0	1981	1133	2796	60
0	0	0	1876	1134	2792	60
1	0	0	1784	1135	2789	57
2	0	0	1721	1137	2789	56
3	0	0	1665	1136	2790	55
4	0	0	1625	1139	2791	57
5	0	0	1630	1141	2794	56
6	0	0	1667	1140	2795	55
7	0	0	1753	1140	2797	55
8	0	0	1860	1139	2796	55
9	0	0	1966	1138	2795	58
10	0	0	2071	1137	2791	54
11	0	0	2182	1135	2787	53
12	0	0	2276	1134	2786	54
13	0	0	2338	1133	2787	55
14	0	0	2360	1135	2790	56
15	0	0	2337	1131	2791	56
16	0	0	2278	1130	2794	58
17	0	0	2205	1130	2796	58
18	0	0	2123	1131	2796	58
19	0	0	2020	1133	2796	58
20	0	0	1929	1133	2792	60
21	0	0	1833	1134	2789	58
22	0	0	1741	1136	2787	57
23	0	0	1684	1136	2788	57
24	0	0	1678	1141	2791	57
25	0	0	1693	1140	2792	58
26	0	0	1746	1141	2795	56
27	0	0	1836	1140	2796	52
28	0	0	1923	1141	2796	52
29	0	0	2021	1139	2795	56
30	0	0	2118	1136	2791	55
31	0	0	2222	1136	2787	54
32	0	0	2324	1134	2787	52
33	0	0	2377	1136	2787	56
34	0	0	2393	1133	2789	59
35	0	0	2369	1132	2791	58
36	0	0	2319	1130	2794	57
37	0	0	2232	1131	2796	58
38	0	0	2119	1131	2797	58
39	0	0	2006	1133	2795	58
40	0	0	1891	1133	2792	58
41	0	0	1789	1133	2788	57
42	0	0	1705	1136	2787	57
43	0	0	1675	1138	2787	58
44	0	0	1680	1140	2790	59
45	0	0	1690	1139	2791	58
46	0	0	1723	1139	2794	56
47	0	0	1777	1140	2795	55
48	0	0	1849	1137	2795	55
49	0	0	1953	1138	2795	55
50	0	0	2051	1137	2790	55
51	0	0	2151	1134	2787	53
52	0	0	2252	1134	2786	52
53	0	0	2328	1135	2787	52
54	0	0	2374	1134	2789	55
55	0	0	2354	1130	2791	59
56	0	0	2292	1130	2794	57
57	0	0	2215	1131	2795	57
58	0	0	2112	1132	2796	60
59	0	0	1999	1132	2795	62
60	0	0	1891	1132	2791	59
61	0	0	1790	1134	2787	55
62	0	0	1691	1135	2787	57
63	0	0	1633	1137	2788	56
64	0	0	1634	1140	2790	57
65	0	0	1657	1140	2792	58
66	0	0	1693	1139	2794	56
67	0	0	1763	1138	2795	55
68	0	0	1852	1138	2796	58
69	0	0	1929	1137	2794	55
70	0	0	1997	1137	2790	55
71	0	0	2079	1135	2787	52
72	0	0	2152	1135	2786	54
73	0	0	2180	1134	2787	56
74	0	0	2179	1133	2789	56
75	0	0	2135	1129	2791	58
76	0	0	2061	1129	2793	53
77	0	0	1989	1131	2795	58
78	0	0	1920	1130	2796	58
79	0	0	1829	1133	2795	58
80	0	0	1728	1133	2792	59
81	0	0	1636	1134	2788	57
82	0	0	1570	1135	2787	55
83	0	0	1530	1136	2788	57
84	0	0	1508	1138	2790	55
85	0	0	1507	1139	2793	56
86	0	0	1532	1136	2793	56
87	0	0	1580	1138	2795	56
88	0	0	1648	1138	2795	55
89	0	0	1754	1137	2795	55
90	0	0	1872	1136	2790	55
91	0	0	2000	1133	2786	54
92	0	0	2119	1133	2785	55
93	0	0	2197	1133	2787	58
94	0	0	2213	1132	2789	55
95	0	0	2181	1128	2791	57
96	0	0	2111	1131	2794	58
97	0	0	2020	1130	2795	58
98	0	0	1918	1132	2795	56
99	0	0	1825	1131	2795	58
100	0	0	1747	1132	2791	59
101	0	0	1687	1134	2787	59
102	0	0	1644	1135	2786	59
103	0	0	1623	1136	2788	62
104	0	0	1604	1137	2790	55
105	0	0	1595	1137	2792	57
106	0	0	1604	1138	2793	55
107	0	0	1672	1137	2794	57
108	0	0	1782	1136	2795	55
109	0	0	1894	1137	2794	54
110	0	0	1995	1135	2789	54
111	0	0	2095	1132	2786	53
112	0	0	2175	1132	2785	55
113	0	0	2242	1131	2786	59
114	0	0	2282	1132	2788	57
115	0	0	2292	1132	2790	55
116	0	0	2246	1129	2793	59
117	0	0	2165	1128	2794	59
118	0	0	2042	1129	2795	60
119	0	0	1916	1131	2794	60
120	0	0	1824	1132	2790	59
121	0	0	1758	1133	2787	58
122	0	0	1705	1134	2786	53
123	0	0	1683	1136	2788	55
124	0	0	1676	1138	2789	57
125	0	0	1698	1139	2792	56
126	0	0	1760	1138	2793	56
127	0	0	1847	1138	2795	53
0	0	0	1919	1138	2794	54
1	0	0	1971	1135	2793	56
2	0	0	2020	1134	2790	52
3	0	0	2091	1136	2786	54
4	0	0	2181	1132	2784	54
5	0	0	2269	1133	2786	52
6	0	0	2308	1131	2788	56
7	0	0	2299	1132	2790	55
8	0	0	2249	1129	2793	58
9	0	0	2180	1129	2794	58
10	0	0	2093	1132	2795	57
11	0	0	1993	1130	2794	57
12	0	0	1905	1132	2790	57
13	0	0	1829	1133	2788	57
14	0	0	1766	1132	2786	57
15	0	0	1734	1135	2787	56
16	0	0	1726	1138	2789	56
17	0	0	1745	1138	2791	54
18	0	0	1784	1138	2793	55
19	0	0	1834	1137	2794	55
20	0	0	1897	1135	2794	55
21	0	0	1981	1135	2793	54
22	0	0	2082	1134	2789	48
23	0	0	2183	1132	2785	51
24	0	0	2280	1134	2785	53
25	0	0	2370	1130	2785	53
26	0	0	2427	1130	2788	56
27	0	0	2431	1131	2791	56
28	0	0	2359	1128	2792	57
29	0	0	2251	1128	2794	56
30	0	0	2137	1130	2795	58
31	0	0	2037	1127	2793	58
32	0	0	1972	1132	2790	56
33	0	0	1920	1132	2787	57
34	0	0	1876	1133	2785	55
35	0	0	1860	1134	2786	56
36	0	0	1845	1135	2789	57
37	0	0	1851	1138	2790	53
38	0	0	1893	1137	2792	56
39	0	0	1957	1136	2793	55
40	0	0	2038	1134	2794	55
41	0	0	2142	1133	2793	54
42	0	0	2231	1134	2790	52
43	0	0	2288	1133	2785	54
44	0	0	2360	1132	2785	52
45	0	0	2416	1131	2786	54
46	0	0	2438	1131	2787	55
47	0	0	2430	1129	2790	56
48	0	0	2383	1129	2792	57
49	0	0	2334	1128	2793	57
50	0	0	2254	1131	2794	56
51	0	0	2153	1129	2793	58
52	0	0	2048	1130	2790	60
53	0	0	1952	1131	2786	57
54	0	0	1883	1132	2785	56
55	0	0	1861	1134	2786	57
56	0	0	1853	1136	2788	59
57	0	0	1847	1138	2790	56
58	0	0	1872	1136	2793	55
59	0	0	1932	1138	2794	56
60	0	0	2023	1137	2794	55
61	0	0	2120	1134	2793	56
62	0	0	2213	1134	2790	56
63	0	0	2298	1132	2786	51
64	0	0	2367	1132	2784	51
65	0	0	2428	1129	2785	54
66	0	0	2473	1131	2787	55
67	0	0	2490	1131	2789	56
68	0	0	2442	1127	2792	57
69	0	0	2337	1128	2793	56
70	0	0	2221	1127	2793	58
71	0	0	2117	1128	2793	61
72	0	0	2033	1131	2789	58
73	0	0	1970	1132	2785	60
74	0	0	1886	1133	2785	57
75	0	0	1810	1135	2787	57
76	0	0	1768	1135	2787	56
77	0	0	1771	1138	2791	56
78	0	0	1820	1137	2792	56
79	0	0	1892	1137	2793	55
80	0	0	1971	1136	2793	55
81	0	0	2051	1135	2792	55
82	0	0	2120	1132	2788	52
83	0	0	2188	1131	2785	52
84	0	0	2263	1129	2783	54
85	0	0	2321	1130	2785	54
86	0	0	2355	1131	2787	55
87	0	0	2364	1127	2789	60
88	0	0	2319	1127	2791	57
89	0	0	2254	1126	2793	57
90	0	0	2176	1128	2794	59
91	0	0	2097	1130	2793	58
92	0	0	1989	1130	2789	58
93	0	0	1882	1132	2787	58
94	0	0	1797	1130	2784	58
95	0	0	1744	1133	2786	57
96	0	0	1727	1135	2788	56
97	0	0	1728	1137	2790	55
98	0	0	1769	1134	2792	56
99	0	0	1871	1134	2793	55
100	0	0	1947	1136	2793	55
101	0	0	2007	1136	2792	55
102	0	0	2082	1133	2788	53
103	0	0	2169	1132	2784	52
104	0	0	2271	1129	2783	55
105	0	0	2347	1130	2784	55
106	0	0	2374	1130	2787	55
107	0	0	2346	1127	2789	55
108	0	0	2304	1130	2792	57
109	0	0	2259	1128	2793	55
110	0	0	2190	1128	2794	59
111	0	0	2091	1129	2793	58
112	0	0	1984	1129	2789	59
113	0	0	1880	1130	2785	59
114	0	0	1782	1132	2784	56
115	0	0	1719	1131	2785	59
116	0	0	1688	1134	2787	55
117	0	0	1671	1134	2789	51
118	0	0	1688	1136	2791	51
119	0	0	1755	1134	2793	54
120	0	0	1814	1135	2792	56
121	0	0	1888	1135	2792	54
122	0	0	1972	1132	2788	53
123	0	0	2058	1130	2784	53
124	0	0	2156	1130	2783	55
125	0	0	2237	1131	2784	55
126	0	0	2262	1130	2787	55
127	0	0	2234	1127	2788	51
0	0	0	2181	1126	2791	57
1	0	0	2107	1127	2792	58
2	0	0	2021	1127	2793	60
3	0	0	1946	1129	2792	58
4	0	0	1868	1128	2789	55
5	0	0	1782	1130	2785	56
6	0	0	1691	1131	2784	57
7	0	0	1628	1131	2785	59
8	0	0	1614	1136	2787	58
9	0	0	1637	1136	2789	53
10	0	0	1689	1136	2791	55
11	0	0	1754	1135	2792	54
12	0	0	1816	1133	2793	56
13	0	0	1898	1134	2793	54
14	0	0	2014	1134	2788	47
15	0	0	2132	1131	2785	54
16	0	0	2195	1130	2783	55
17	0	0	2223	1128	2784	57
18	0	0	2233	1130	2786	55
19	0	0	2227	1127	2788	53
20	0	0	2188	1126	2791	57
21	0	0	2122	1127	2793	58
22	0	0	2030	1128	2794	58
23	0	0	1922	1128	2792	59
24	0	0	1822	1129	2790	59
25	0	0	1757	1130	2785	58
26	0	0	1707	1132	2785	57
27	0	0	1681	1135	2786	56
28	0	0	1678	1137	2787	56
29	0	0	1699	1136	2790	56
30	0	0	1743	1135	2791	55
31	0	0	1803	1137	2793	55
32	0	0	1863	1135	2793	55
33	0	0	1932	1132	2792	54
34	0	0	2010	1132	2788	49
35	0	0	2101	1130	2784	54
36	0	0	2199	1128	2784	54
37	0	0	2284	1130	2784	53
38	0	0	2321	1128	2786	55
39	0	0	2281	1125	2788	55
40	0	0	2186	1125	2791	58
41	0	0	2078	1126	2792	57
42	0	0	1973	1127	2793	58
43	0	0	1890	1128	2793	58
44	0	0	1826	1129	2789	56
45	0	0	1758	1130	2786	58
46	0	0	1692	1131	2784	59
47	0	0	1656	1132	2785	55
48	0	0	1640	1133	2787	56
49	0	0	1659	1135	2789	53
50	0	0	1715	1135	2791	54
51	0	0	1805	1134	2793	59
52	0	0	1907	1132	2793	55
53	0	0	1998	1133	2792	53
54	0	0	2076	1132	2788	52
55	0	0	2131	1130	2784	56
56	0	0	2195	1129	2783	54
57	0	0	2255	1130	2784	55
58	0	0	2302	1128	2786	57
59	0	0	2333	1129	2789	56
60	0	0	2299	1126	2791	57
61	0	0	2195	1126	2793	57
62	0	0	2083	1129	2793	58
63	0	0	1970	1128	2792	58
64	0	0	1874	1129	2789	56
65	0	0	1795	1130	2786	55
66	0	0	1738	1131	2784	60
67	0	0	1722	1135	2785	56
68	0	0	1730	1135	2787	56
69	0	0	1755	1135	2788	56
70	0	0	1791	1135	2791	55
71	0	0	1846	1133	2792	55
72	0	0	1920	1136	2792	54
73	0	0	1987	1133	2792	54
74	0	0	2053	1133	2789	53
75	0	0	2117	1131	2784	53
76	0	0	2206	1128	2782	55
77	0	0	2293	1128	2783	55
78	0	0	2341	1129	2787	54
79	0	0	2331	1127	2788	55
80	0	0	2274	1127	2790	56
81	0	0	2183	1125	2793	59
82	0	0	2089	1128	2792	58
83	0	0	1982	1126	2792	59
84	0	0	1880	1128	2789	58
85	0	0	1794	1130	2785	58
86	0	0	1727	1130	2784	59
87	0	0	1696	1132	2785	56
88	0	0	1679	1133	2787	57
89	0	0	1691	1136	2788	56
90	0	0	1731	1135	2791	55
91	0	0	1787	1135	2792	54
92	0	0	1844	1134	2793	55
93	0	0	1921	1131	2791	55
94	0	0	2005	1131	2787	54
95	0	0	2087	1130	2784	53
96	0	0	2173	1130	2783	52
97	0	0	2227	1131	2784	55
98	0	0	2262	1129	2786	55
99	0	0	2268	1127	2788	56
100	0	0	2211	1125	2790	58
101	0	0	2137	1126	2792	58
102	0	0	2083	1129	2792	58
103	0	0	2011	1127	2792	57
104	0	0	1941	1128	2788	56
105	0	0	1854	1128	2785	57
106	0	0	1771	1130	2784	59
107	0	0	1704	1132	2784	56
108	0	0	1661	1134	2787	56
109	0	0	1664	1135	2789	56
110	0	0	1702	1135	2791	55
111	0	0	1780	1133	2792	55
112	0	0	1859	1134	2791	54
113	0	0	1921	1133	2792	54
114	0	0	1977	1131	2787	52
115	0	0	2064	1129	2784	54
116	0	0	2171	1129	2783	55
117	0	0	2243	1130	2783	56
118	0	0	2262	1131	2786	55
119	0	0	2234	1125	2788	57
120	0	0	2178	1124	2791	57
121	0	0	2099	1125	2792	57
122	0	0	2019	1127	2793	58
123	0	0	1933	1127	2792	57
124	0	0	1854	1128	2788	57
125	0	0	1779	1127	2785	57
126	0	0	1704	1131	2784	56
127	0	0	1657	1131	2784	56
0	0	0	1646	1134	2786	56
1	0	0	1663	1134	2788	56
2	0	0	1700	1132	2791	55
3	0	0	1762	1133	2791	55
4	0	0	1848	1133	2793	55
5	0	0	1946	1135	2791	54
6	0	0	2035	1131	2787	53
7	0	0	2106	1128	2783	53
8	0	0	2174	1130	2783	52
9	0	0	2220	1129	2783	55
10	0	0	2236	1129	2785	56
11	0	0	2232	1128	2788	55
12	0	0	2206	1124	2791	56
13	0	0	2147	1125	2792	57
14	0	0	2061	1126	2793	58
15	0	0	1972	1129	2791	58
16	0	0	1888	1128	2789	58
17	0	0	1813	1129	2784	58
18	0	0	1741	1131	2783	56
19	0	0	1687	1131	2784	60
20	0	0	1663	1135	2786	56
21	0	0	1669	1135	2788	55
22	0	0	1687	1135	2791	55
23	0	0	1732	1134	2792	53
24	0	0	1824	1133	2791	56
25	0	0	1938	1135	2791	54
26	0	0	2040	1131	2787	53
27	0	0	2117	1127	2783	52
28	0	0	2203	1130	2782	56
29	0	0	2270	1129	2783	56
30	0	0	2303	1130	2785	56
31	0	0	2301	1126	2787	56
32	0	0	2241	1122	2791	56
33	0	0	2160	1125	2792	53
34	0	0	2066	1127	2792	58
35	0	0	1972	1127	2791	57
36	0	0	1879	1128	2789	58
37	0	0	1795	1129	2784	58
38	0	0	1728	1130	2783	58
39	0	0	1668	1130	2784	56
40	0	0	1621	1131	2787	56
41	0	0	1596	1131	2788	55
42	0	0	1616	1133	2791	58
43	0	0	1676	1133	2791	57
44	0	0	1762	1132	2792	55
45	0	0	1849	1132	2791	55
46	0	0	1944	1130	2787	53
47	0	0	2050	1131	2783	54
48	0	0	2148	1129	2782	52
49	0	0	2209	1128	2784	55
50	0	0	2248	1128	2785	55
51	0	0	2252	1127	2787	55
52	0	0	2216	1124	2790	57
53	0	0	2154	1126	2792	59
54	0	0	2067	1124	2792	62
55	0	0	1972	1125	2791	57
56	0	0	1886	1127	2788	58
57	0	0	1803	1128	2784	57
58	0	0	1723	1129	2783	60
59	0	0	1644	1130	2785	58
60	0	0	1625	1134	2786	56
61	0	0	1653	1134	2789	56
62	0	0	1740	1132	2790	55
63	0	0	1834	1131	2791	55
64	0	0	1907	1132	2792	55
65	0	0	1974	1135	2791	55
66	0	0	2045	1130	2787	55
67	0	0	2139	1127	2783	54
68	0	0	2217	1131	2781	55
69	0	0	2287	1128	2784	53
70	0	0	2334	1128	2785	54
71	0	0	2321	1125	2787	55
72	0	0	2263	1124	2790	57
73	0	0	2181	1125	2791	57
74	0	0	2107	1126	2792	59
75	0	0	2035	1127	2791	57
76	0	0	1959	1127	2788	58
77	0	0	1873	1129	2784	58
78	0	0	1783	1131	2782	57
79	0	0	1721	1130	2784	55
80	0	0	1699	1132	2786	56
81	0	0	1710	1134	2788	56
82	0	0	1758	1133	2790	55
83	0	0	1832	1133	2791	55
84	0	0	1898	1134	2792	55
85	0	0	1978	1131	2790	52
86	0	0	2075	1133	2787	53
87	0	0	2158	1129	2783	56
88	0	0	2219	1131	2781	55
89	0	0	2266	1127	2783	55
90	0	0	2295	1128	2785	55
91	0	0	2299	1127	2787	57
92	0	0	2283	1124	2790	57
93	0	0	2216	1125	2791	58
94	0	0	2122	1125	2792	58
95	0	0	2022	1126	2791	58
96	0	0	1923	1127	2787	59
97	0	0	1839	1128	2784	58
98	0	0	1782	1130	2784	58
99	0	0	1745	1130	2784	57
100	0	0	1744	1134	2786	55
101	0	0	1763	1134	2787	56
102	0	0	1801	1132	2790	55
103	0	0	1860	1133	2792	59
104	0	0	1920	1133	2792	55
105	0	0	1976	1131	2791	55
106	0	0	2046	1131	2787	35
107	0	0	2146	1129	2783	55
108	0	0	2239	1128	2782	55
109	0	0	2312	1129	2783	55
110	0	0	2364	1126	2784	56
111	0	0	2391	1127	2787	55
112	0	0	2352	1124	2789	57
113	0	0	2280	1124	2791	58
114	0	0	2190	1126	2792	57
115	0	0	2075	1126	2790	58
116	0	0	1958	1127	2788	57
117	0	0	1861	1128	2784	58
118	0	0	1780	1129	2783	56
119	0	0	1721	1128	2784	57
120	0	0	1724	1136	2786	56
121	0	0	1751	1133	2787	56
122	0	0	1800	1132	2790	55
123	0	0	1880	1131	2791	54
124	0	0	1981	1132	2792	55
125	0	0	2088	1132	2791	56
126	0	0	2179	1130	2787	53
127	0	0	2254	1129	2783	54
0	0	0	2321	1127	2782	55
1	0	0	2378	1127	2783	56
2	0	0	2401	1127	2785	55
3	0	0	2401	1127	2787	55
4	0	0	2364	1124	2789	57
5	0	0	2275	1124	2791	57
6	0	0	2159	1124	2792	58
7	0	0	2048	1119	2790	58
8	0	0	1961	1127	2787	58
9	0	0	1880	1127	2784	58
10	0	0	1794	1128	2783	59
11	0	0	1737	1130	2784	57
12	0	0	1720	1133	2785	56
13	0	0	1734	1134	2788	56
14	0	0	1769	1132	2790	55
15	0	0	1829	1132	2792	55
16	0	0	1918	1132	2791	53
17	0	0	1988	1132	2790	54
18	0	0	2041	1131	2787	53
19	0	0	2118	1128	2784	53
20	0	0	2216	1128	2782	58
21	0	0	2310	1127	2783	55
22	0	0	2377	1127	2785	55
23	0	0	2382	1125	2787	56
24	0	0	2320	1123	2789	58
25	0	0	2215	1122	2791	56
26	0	0	2095	1125	2791	56
27	0	0	1985	1126	2790	58
28	0	0	1899	1124	2788	58
29	0	0	1835	1128	2784	57
30	0	0	1791	1128	2784	58
31	0	0	1757	1130	2783	56
32	0	0	1740	1131	2785	57
33	0	0	1747	1132	2787	55
34	0	0	1775	1133	2791	55
35	0	0	1829	1133	2791	55
36	0	0	1893	1131	2791	55
37	0	0	1970	1131	2790	54
38	0	0	2053	1130	2786	54
39	0	0	2142	1128	2783	56
40	0	0	2232	1126	2781	54
41	0	0	2301	1127	2781	54
42	0	0	2339	1126	2784	55
43	0	0	2335	1124	2787	57
44	0	0	2266	1123	2789	57
45	0	0	2179	1122	2791	56
46	0	0	2088	1124	2791	56
47	0	0	1999	1126	2790	58
48	0	0	1900	1126	2787	57
49	0	0	1805	1127	2784	58
50	0	0	1740	1128	2783	57
51	0	0	1693	1129	2784	57
52	0	0	1650	1127	2785	56
53	0	0	1644	1133	2788	56
54	0	0	1674	1132	2789	55
55	0	0	1729	1131	2791	55
56	0	0	1820	1131	2791	54
57	0	0	1923	1131	2790	54
58	0	0	2001	1128	2787	52
59	0	0	2078	1128	2784	55
60	0	0	2180	1125	2781	56
61	0	0	2265	1125	2782	52
62	0	0	2316	1123	2784	54
63	0	0	2322	1124	2787	56
64	0	0	2262	1123	2789	56
65	0	0	2182	1123	2791	56
66	0	0	2084	1123	2791	58
67	0	0	1969	1123	2790	58
68	0	0	1855	1125	2787	58
69	0	0	1757	1126	2784	58
70	0	0	1679	1126	2782	57
71	0	0	1633	1129	2783	56
72	0	0	1647	1131	2785	56
73	0	0	1694	1132	2787	55
74	0	0	1747	1132	2789	57
75	0	0	1799	1131	2791	55
76	0	0	1868	1130	2791	55
77	0	0	1951	1129	2790	54
78	0	0	2049	1128	2787	53
79	0	0	2133	1127	2782	55
80	0	0	2229	1126	2782	55
81	0	0	2323	1125	2783	55
82	0	0	2354	1125	2785	58
83	0	0	2313	1122	2786	55
84	0	0	2224	1123	2790	56
85	0	0	2132	1123	2791	58
86	0	0	2053	1123	2791	58
87	0	0	1962	1125	2791	57
88	0	0	1888	1126	2787	58
89	0	0	1840	1127	2784	59
90	0	0	1784	1127	2783	60
91	0	0	1721	1128	2783	58
92	0	0	1694	1128	2785	55
93	0	0	1693	1132	2787	56
94	0	0	1715	1131	2789	56
95	0	0	1758	1131	2791	56
96	0	0	1814	1130	2792	55
97	0	0	1884	1127	2790	54
98	0	0	1963	1129	2787	53
99	0	0	2042	1130	2782	53
100	0	0	2124	1127	2782	55
101	0	0	2199	1125	2783	55
102	0	0	2231	1124	2784	55
103	0	0	2239	1125	2786	55
104	0	0	2212	1122	2789	57
105	0	0	2147	1123	2790	57
106	0	0	2060	1122	2791	58
107	0	0	1979	1124	2791	58
108	0	0	1920	1125	2787	58
109	0	0	1879	1127	2784	57
110	0	0	1844	1128	2783	60
111	0	0	1842	1131	2783	58
112	0	0	1888	1131	2785	56
113	0	0	1969	1131	2787	56
114	0	0	2071	1131	2789	55
115	0	0	2190	1129	2791	55
116	0	0	2305	1130	2791	55
117	0	0	2429	1128	2790	53
118	0	0	2546	1128	2786	56
119	0	0	2678	1126	2782	54
120	0	0	2830	1128	2780	53
121	0	0	2955	1125	2782	55
122	0	0	3035	1123	2784	55
123	0	0	3083	1125	2787	55
124	0	0	3080	1126	2789	57
125	0	0	3020	1122	2791	59
126	0	0	2919	1123	2792	57
127	0	0	2825	1120	2792	58
0	0	0	2735	1124	2787	59
1	0	0	2640	1127	2783	58
2	0	0	2545	1127	2782	57
3	0	0	2460	1127	2783	58
4	0	0	2407	1125	2785	56
5	0	0	2352	1127	2786	52
6	0	0	2295	1127	2789	56
7	0	0	2273	1131	2789	54
8	0	0	2280	1130	2791	55
9	0	0	2298	1128	2790	55
10	0	0	2320	1127	2786	54
11	0	0	2365	1126	2782	55
12	0	0	2439	1124	2781	55
13	0	0	2493	1125	2782	57
14	0	0	2506	1124	2784	53
15	0	0	2466	1120	2785	55
16	0	0	2374	1119	2789	56
17	0	0	2244	1120	2791	64
18	0	0	2107	1121	2791	57
19	0	0	1976	1122	2791	58
20	0	0	1883	1123	2787	58
21	0	0	1820	1123	2784	56
22	0	0	1745	1126	2782	60
23	0	0	1666	1126	2784	56
24	0	0	1629	1128	2785	57
25	0	0	1627	1131	2787	56
26	0	0	1661	1131	2789	56
27	0	0	1719	1129	2791	56
28	0	0	1804	1130	2790	53
29	0	0	1905	1128	2790	55
30	0	0	1993	1128	2786	53
31	0	0	2074	1127	2782	52
32	0	0	2153	1125	2781	60
33	0	0	2211	1125	2782	54
34	0	0	2229	1123	2784	55
35	0	0	2202	1120	2786	56
36	0	0	2157	1121	2789	58
37	0	0	2089	1121	2791	56
38	0	0	2004	1122	2792	58
39	0	0	1923	1123	2790	57
40	0	0	1841	1123	2788	58
41	0	0	1747	1122	2782	61
42	0	0	1665	1125	2782	55
43	0	0	1604	1127	2783	56
44	0	0	1580	1128	2785	56
45	0	0	1591	1131	2787	55
46	0	0	1627	1127	2788	56
47	0	0	1692	1128	2790	52
48	0	0	1794	1129	2791	55
49	0	0	1900	1126	2790	54
50	0	0	1999	1126	2786	53
51	0	0	2089	1125	2782	54
52	0	0	2168	1123	2781	56
53	0	0	2218	1124	2782	56
54	0	0	2254	1123	2784	55
55	0	0	2262	1123	2786	57
56	0	0	2218	1119	2789	57
57	0	0	2140	1120	2791	62
58	0	0	2042	1120	2792	58
59	0	0	1939	1122	2790	58
60	0	0	1834	1124	2787	59
61	0	0	1726	1123	2785	57
62	0	0	1642	1126	2782	55
63	0	0	1595	1127	2783	58
64	0	0	1585	1129	2785	56
65	0	0	1606	1129	2786	56
66	0	0	1642	1128	2789	54
67	0	0	1689	1130	2790	52
68	0	0	1765	1129	2791	56
69	0	0	1878	1127	2790	54
70	0	0	2006	1128	2786	55
71	0	0	2118	1124	2783	54
72	0	0	2232	1124	2781	57
73	0	0	2298	1124	2781	54
74	0	0	2313	1123	2783	56
75	0	0	2274	1119	2786	56
76	0	0	2205	1121	2788	59
77	0	0	2127	1122	2790	56
78	0	0	2049	1120	2791	60
79	0	0	1944	1122	2790	58
80	0	0	1846	1123	2787	58
81	0	0	1774	1126	2783	59
82	0	0	1730	1126	2782	62
83	0	0	1698	1127	2783	58
84	0	0	1673	1127	2784	56
85	0	0	1675	1130	2788	55
86	0	0	1717	1130	2789	56
87	0	0	1787	1129	2790	55
88	0	0	1877	1128	2791	55
89	0	0	1973	1126	2790	55
90	0	0	2049	1127	2786	53
91	0	0	2110	1124	2782	55
92	0	0	2188	1124	2781	55
93	0	0	2260	1124	2781	52
94	0	0	2294	1123	2783	56
95	0	0	2292	1120	2785	55
96	0	0	2248	1118	2789	56
97	0	0	2169	1120	2790	55
98	0	0	2076	1120	2791	57
99	0	0	1980	1121	2790	58
100	0	0	1899	1122	2787	59
101	0	0	1832	1125	2784	57
102	0	0	1795	1127	2781	56
103	0	0	1759	1125	2782	57
104	0	0	1725	1127	2784	56
105	0	0	1724	1129	2786	56
106	0	0	1765	1129	2788	55
107	0	0	1833	1129	2790	56
108	0	0	1926	1128	2791	55
109	0	0	2004	1127	2790	54
110	0	0	2074	1126	2787	52
111	0	0	2157	1123	2782	55
112	0	0	2247	1126	2780	54
113	0	0	2300	1123	2782	55
114	0	0	2311	1120	2783	57
115	0	0	2289	1121	2785	57
116	0	0	2252	1119	2789	58
117	0	0	2194	1119	2790	57
118	0	0	2146	1120	2791	55
119	0	0	2098	1122	2789	57
120	0	0	2022	1122	2787	59
121	0	0	1929	1123	2783	59
122	0	0	1845	1123	2782	59
123	0	0	1781	1125	2783	57
124	0	0	1737	1125	2784	56
125	0	0	1721	1127	2786	56
126	0	0	1727	1130	2788	55
127	0	0	1774	1129	2792	56
0	0	0	1874	1126	2790	53
1	0	0	1980	1126	2789	55
2	0	0	2067	1125	2786	53
3	0	0	2153	1127	2782	53
4	0	0	2250	1125	2780	52
5	0	0	2322	1123	2782	54
6	0	0	2346	1122	2783	56
7	0	0	2340	1121	2786	56
8	0	0	2298	1119	2788	56
9	0	0	2223	1119	2790	57
10	0	0	2142	1120	2791	58
11	0	0	2051	1120	2790	58
12	0	0	1962	1122	2787	59
13	0	0	1875	1123	2783	58
14	0	0	1779	1124	2782	59
15	0	0	1694	1124	2782	55
16	0	0	1666	1127	2785	56
17	0	0	1685	1129	2786	56
18	0	0	1749	1129	2788	57
19	0	0	1836	1130	2789	52
20	0	0	1943	1128	2791	54
21	0	0	2058	1127	2789	55
22	0	0	2176	1125	2786	56
23	0	0	2275	1123	2782	54
24	0	0	2376	1123	2781	54
25	0	0	2451	1122	2782	55
26	0	0	2484	1122	2783	57
27	0	0	2460	1119	2785	56
28	0	0	2402	1120	2787	56
29	0	0	2336	1119	2790	57
30	0	0	2256	1119	2790	56
31	0	0	2171	1120	2790	58
32	0	0	2073	1121	2786	58
33	0	0	1989	1123	2782	61
34	0	0	1926	1124	2781	58
35	0	0	1890	1125	2783	58
36	0	0	1860	1125	2783	58
37	0	0	1853	1130	2786	54
38	0	0	1882	1130	2787	54
39	0	0	1947	1127	2790	54
40	0	0	2029	1127	2790	55
41	0	0	2106	1125	2789	55
42	0	0	2191	1125	2786	53
43	0	0	2262	1125	2782	53
44	0	0	2313	1123	2781	53
45	0	0	2350	1123	2781	53
46	0	0	2391	1122	2784	55
47	0	0	2417	1121	2785	56
48	0	0	2382	1118	2787	59
49	0	0	2295	1119	2789	58
50	0	0	2195	1119	2791	56
51	0	0	2095	1119	2790	57
52	0	0	2019	1121	2786	56
53	0	0	1954	1122	2783	58
54	0	0	1899	1124	2782	58
55	0	0	1887	1128	2782	58
56	0	0	1893	1129	2784	56
57	0	0	1909	1128	2785	56
58	0	0	1929	1128	2788	55
59	0	0	1981	1127	2790	55
60	0	0	2077	1128	2791	54
61	0	0	2163	1126	2789	58
62	0	0	2250	1125	2787	54
63	0	0	2336	1123	2782	55
64	0	0	2425	1123	2780	55
65	0	0	2503	1121	2781	53
66	0	0	2570	1120	2784	55
67	0	0	2584	1121	2785	56
68	0	0	2516	1117	2788	56
69	0	0	2420	1118	2790	58
70	0	0	2323	1120	2791	58
71	0	0	2234	1120	2790	58
72	0	0	2146	1121	2786	59
73	0	0	2067	1122	2783	59
74	0	0	2006	1124	2782	59
75	0	0	1962	1126	2783	58
76	0	0	1934	1125	2784	56
77	0	0	1919	1126	2787	55
78	0	0	1918	1126	2788	55
79	0	0	1949	1127	2790	55
80	0	0	2023	1126	2790	53
81	0	0	2125	1125	2790	55
82	0	0	2223	1124	2785	53
83	0	0	2305	1124	2781	52
84	0	0	2392	1122	2781	54
85	0	0	2463	1122	2781	57
86	0	0	2525	1122	2783	57
87	0	0	2548	1121	2787	55
88	0	0	2505	1118	2788	56
89	0	0	2419	1116	2791	56
90	0	0	2321	1118	2790	58
91	0	0	2226	1120	2790	60
92	0	0	2136	1120	2786	60
93	0	0	2054	1122	2782	59
94	0	0	1972	1121	2782	57
95	0	0	1908	1124	2781	59
96	0	0	1883	1127	2784	56
97	0	0	1885	1128	2785	56
98	0	0	1899	1129	2788	56
99	0	0	1967	1128	2790	56
100	0	0	2059	1125	2789	55
101	0	0	2148	1126	2789	54
102	0	0	2220	1124	2784	53
103	0	0	2307	1123	2781	53
104	0	0	2411	1121	2781	53
105	0	0	2465	1121	2780	55
106	0	0	2473	1120	2784	56
107	0	0	2441	1117	2785	58
108	0	0	2381	1118	2788	56
109	0	0	2319	1116	2790	60
110	0	0	2255	1119	2789	59
111	0	0	2182	1120	2790	60
112	0	0	2112	1121	2787	58
113	0	0	2049	1123	2782	59
114	0	0	1972	1123	2781	58
115	0	0	1897	1124	2782	58
116	0	0	1841	1124	2784	58
117	0	0	1825	1128	2786	56
118	0	0	1851	1127	2787	55
119	0	0	1921	1126	2790	54
120	0	0	2000	1127	2790	54
121	0	0	2073	1124	2789	54
122	0	0	2158	1124	2787	52
123	0	0	2247	1122	2781	53
124	0	0	2311	1121	2780	55
125	0	0	2347	1120	2781	51
126	0	0	2348	1119	2782	56
127	0	0	2317	1117	2785	57
0	0	0	2264	1116	2787	58
1	0	0	2186	1117	2789	59
2	0	0	2073	1118	2790	55
3	0	0	1971	1119	2790	57
4	0	0	1876	1120	2786	57
5	0	0	1790	1122	2783	58
6	0	0	1727	1122	2781	56
7	0	0	1673	1123	2782	57
8	0	0	1647	1124	2784	56
9	0	0	1663	1126	2785	56
10	0	0	1718	1126	2788	55
11	0	0	1801	1125	2790	55
12	0	0	1885	1124	2790	51
13	0	0	1956	1125	2790	54
14	0	0	2034	1123	2785	56
15	0	0	2116	1119	2782	54
16	0	0	2192	1121	2780	54
17	0	0	2268	1120	2780	55
18	0	0	2322	1120	2782	55
19	0	0	2330	1121	2785	56
20	0	0	2291	1115	2788	61
21	0	0	2223	1117	2789	57
22	0	0	2151	1118	2790	55
23	0	0	2081	1119	2788	58
24	0	0	2016	1121	2786	59
25	0	0	1952	1120	2783	59
26	0	0	1844	1122	2781	57
27	0	0	1765	1123	2782	59
28	0	0	1730	1123	2783	57
29	0	0	1733	1126	2785	56
30	0	0	1758	1125	2788	59
31	0	0	1784	1125	2789	55
32	0	0	1830	1125	2790	54
33	0	0	1895	1124	2788	53
34	0	0	1972	1123	2785	53
35	0	0	2062	1121	2782	55
36	0	0	2153	1122	2781	58
37	0	0	2235	1118	2781	53
38	0	0	2278	1119	2781	56
39	0	0	2273	1118	2785	55
40	0	0	2230	1117	2788	56
41	0	0	2159	1117	2789	58
42	0	0	2061	1118	2790	57
43	0	0	1957	1118	2789	57
44	0	0	1847	1118	2786	58
45	0	0	1747	1119	2784	59
46	0	0	1658	1120	2781	58
47	0	0	1622	1124	2782	55
48	0	0	1622	1126	2782	55
49	0	0	1635	1126	2785	56
50	0	0	1659	1125	2788	55
51	0	0	1713	1125	2789	55
52	0	0	1793	1124	2790	55
53	0	0	1887	1123	2788	54
54	0	0	1981	1124	2785	53
55	0	0	2086	1119	2782	53
56	0	0	2192	1121	2781	54
57	0	0	2264	1119	2781	52
58	0	0	2286	1119	2783	56
59	0	0	2256	1115	2785	56
60	0	0	2191	1115	2788	56
61	0	0	2105	1115	2788	56
62	0	0	2013	1117	2790	55
63	0	0	1921	1117	2789	58
64	0	0	1816	1118	2787	57
65	0	0	1713	1120	2784	59
66	0	0	1654	1122	2780	57
67	0	0	1617	1123	2781	56
68	0	0	1600	1124	2783	57
69	0	0	1619	1125	2785	56
70	0	0	1666	1125	2788	55
71	0	0	1751	1125	2790	55
72	0	0	1836	1125	2790	52
73	0	0	1907	1122	2789	55
74	0	0	1977	1122	2785	53
75	0	0	2068	1121	2782	52
76	0	0	2157	1120	2779	54
77	0	0	2217	1119	2781	52
78	0	0	2253	1119	2782	55
79	0	0	2251	1118	2786	56
80	0	0	2197	1117	2788	58
81	0	0	2106	1115	2789	56
82	0	0	2008	1116	2790	56
83	0	0	1936	1118	2789	57
84	0	0	1862	1117	2786	57
85	0	0	1777	1119	2784	58
86	0	0	1701	1120	2781	57
87	0	0	1651	1122	2782	56
88	0	0	1647	1125	2783	56
89	0	0	1673	1124	2785	55
90	0	0	1709	1128	2787	56
91	0	0	1749	1124	2790	55
92	0	0	1817	1124	2790	53
93	0	0	1893	1123	2790	54
94	0	0	1980	1121	2785	53
95	0	0	2077	1120	2782	54
96	0	0	2175	1120	2780	53
97	0	0	2251	1118	2781	56
98	0	0	2308	1118	2782	56
99	0	0	2345	1118	2785	56
100	0	0	2299	1114	2788	56
101	0	0	2201	1116	2789	57
102	0	0	2112	1117	2790	56
103	0	0	2028	1117	2789	58
104	0	0	1930	1117	2786	57
105	0	0	1833	1120	2782	60
106	0	0	1768	1121	2781	58
107	0	0	1728	1122	2782	57
108	0	0	1687	1122	2783	57
109	0	0	1677	1125	2785	56
110	0	0	1682	1123	2788	57
111	0	0	1707	1124	2790	55
112	0	0	1774	1124	2790	56
113	0	0	1877	1122	2789	54
114	0	0	1991	1123	2785	54
115	0	0	2094	1120	2781	55
116	0	0	2205	1119	2779	53
117	0	0	2293	1119	2781	55
118	0	0	2321	1118	2782	55
119	0	0	2302	1116	2785	56
120	0	0	2238	1115	2787	56
121	0	0	2147	1116	2789	58
122	0	0	2038	1116	2790	60
123	0	0	1935	1117	2789	57
124	0	0	1847	1117	2786	58
125	0	0	1764	1118	2783	57
126	0	0	1699	1119	2781	57
127	0	0	1663	1122	2783	56
0	0	0	1642	1119	2782	57
1	0	0	1652	1126	2785	56
2	0	0	1710	1124	2788	55
3	0	0	1787	1125	2790	52
4	0	0	1866	1124	2790	56
5	0	0	1943	1123	2790	55
6	0	0	2024	1123	2785	52
7	0	0	2121	1120	2782	53
8	0	0	2216	1120	2780	53
9	0	0	2291	1118	2781	56
10	0	0	2337	1118	2782	55
11	0	0	2326	1116	2784	56
12	0	0	2267	1113	2788	56
13	0	0	2190	1115	2790	56
14	0	0	2077	1116	2790	60
15	0	0	1952	1116	2789	57
16	0	0	1873	1118	2786	58
17	0	0	1811	1118	2782	58
18	0	0	1753	1120	2781	55
19	0	0	1713	1121	2782	60
20	0	0	1698	1123	2784	56
21	0	0	1707	1124	2785	56
22	0	0	1729	1124	2788	55
23	0	0	1765	1124	2790	55
24	0	0	1825	1124	2790	55
25	0	0	1927	1122	2788	55
26	0	0	2061	1120	2785	53
27	0	0	2170	1119	2781	53
28	0	0	2223	1119	2780	55
29	0	0	2242	1118	2781	56
30	0	0	2259	1117	2782	57
31	0	0	2278	1118	2784	57
32	0	0	2261	1114	2787	56
33	0	0	2219	1115	2790	55
34	0	0	2159	1116	2790	59
35	0	0	2080	1117	2789	59
36	0	0	1954	1117	2786	58
37	0	0	1845	1120	2782	59
38	0	0	1766	1120	2782	56
39	0	0	1698	1121	2782	60
40	0	0	1655	1119	2783	58
41	0	0	1644	1123	2786	54
42	0	0	1662	1123	2787	55
43	0	0	1725	1124	2790	52
44	0	0	1809	1122	2790	55
45	0	0	1883	1121	2788	55
46	0	0	1958	1120	2783	55
47	0	0	2057	1120	2781	53
48	0	0	2169	1120	2780	52
49	0	0	2278	1116	2781	55
50	0	0	2329	1117	2782	55
51	0	0	2343	1117	2785	58
52	0	0	2334	1115	2787	56
53	0	0	2282	1116	2789	57
54	0	0	2185	1115	2791	57
55	0	0	2077	1116	2789	58
56	0	0	1980	1117	2787	57
57	0	0	1898	1119	2782	58
58	0	0	1823	1119	2781	58
59	0	0	1762	1120	2782	57
60	0	0	1742	1122	2784	57
61	0	0	1745	1124	2786	55
62	0	0	1755	1125	2788	59
63	0	0	1775	1124	2789	55
64	0	0	1821	1122	2790	58
65	0	0	1889	1122	2788	54
66	0	0	1985	1120	2785	54
67	0	0	2103	1120	2782	54
68	0	0	2219	1117	2780	54
69	0	0	2310	1117	2781	55
70	0	0	2356	1116	2782	55
71	0	0	2348	1115	2785	56
72	0	0	2290	1114	2787	57
73	0	0	2188	1114	2790	56
74	0	0	2077	1114	2790	59
75	0	0	1964	1115	2790	57
76	0	0	1862	1115	2787	58
77	0	0	1793	1118	2782	58
78	0	0	1753	1118	2781	57
79	0	0	1724	1121	2782	57
80	0	0	1716	1122	2784	54
81	0	0	1726	1122	2785	57
82	0	0	1770	1123	2788	57
83	0	0	1849	1124	2790	54
84	0	0	1937	1123	2790	56
85	0	0	2016	1121	2789	55
86	0	0	2078	1120	2785	53
87	0	0	2136	1118	2781	52
88	0	0	2201	1113	2780	54
89	0	0	2273	1117	2781	53
90	0	0	2331	1116	2782	56
91	0	0	2338	1117	2785	56
92	0	0	2298	1114	2787	57
93	0	0	2214	1112	2790	57
94	0	0	2114	1115	2790	55
95	0	0	2029	1116	2790	59
96	0	0	1948	1116	2786	57
97	0	0	1861	1118	2782	58
98	0	0	1798	1119	2781	58
99	0	0	1752	1120	2782	58
100	0	0	1732	1121	2783	57
101	0	0	1739	1123	2786	55
102	0	0	1780	1122	2787	55
103	0	0	1879	1120	2790	54
104	0	0	2009	1122	2790	55
105	0	0	2129	1121	2788	55
106	0	0	2201	1119	2785	53
107	0	0	2244	1119	2782	55
108	0	0	2312	1117	2780	54
109	0	0	2387	1116	2781	51
110	0	0	2438	1116	2783	55
111	0	0	2445	1115	2785	55
112	0	0	2376	1113	2787	57
113	0	0	2279	1111	2789	57
114	0	0	2176	1113	2791	57
115	0	0	2106	1117	2789	57
116	0	0	2048	1115	2786	58
117	0	0	1954	1117	2783	60
118	0	0	1860	1118	2782	58
119	0	0	1803	1118	2782	58
120	0	0	1800	1123	2784	56
121	0	0	1834	1124	2786	56
122	0	0	1882	1122	2788	56
123	0	0	1946	1119	2790	54
124	0	0	2046	1122	2790	51
125	0	0	2152	1120	2789	53
126	0	0	2242	1121	2786	54
127	0	0	2338	1120	2782	54
0	0	0	2423	1116	2780	53
1	0	0	2478	1116	2781	58
2	0	0	2503	1116	2782	56
3	0	0	2492	1114	2785	56
4	0	0	2440	1113	2787	59
5	0	0	2369	1113	2789	55
6	0	0	2274	1115	2790	58
7	0	0	2169	1115	2790	59
8	0	0	2068	1116	2787	58
9	0	0	1976	1118	2783	59
10	0	0	1888	1117	2781	59
11	0	0	1809	1118	2782	58
12	0	0	1769	1122	2784	55
13	0	0	1783	1122	2785	56
14	0	0	1811	1123	2788	55
15	0	0	1846	1122	2790	56
16	0	0	1901	1122	2790	56
17	0	0	1987	1120	2789	55
18	0	0	2080	1120	2787	53
19	0	0	2168	1118	2782	55
20	0	0	2266	1115	2780	55
21	0	0	2337	1117	2781	55
22	0	0	2376	1115	2783	55
23	0	0	2371	1114	2785	57
24	0	0	2317	1113	2787	56
25	0	0	2225	1111	2789	55
26	0	0	2118	1114	2791	59
27	0	0	2019	1115	2790	58
28	0	0	1941	1116	2787	58
29	0	0	1874	1117	2783	59
30	0	0	1804	1118	2782	57
31	0	0	1738	1117	2782	58
32	0	0	1686	1119	2784	55
33	0	0	1676	1122	2786	56
34	0	0	1700	1122	2788	56
35	0	0	1756	1121	2790	54
36	0	0	1833	1122	2790	56
37	0	0	1922	1121	2789	55
38	0	0	1996	1118	2786	54
39	0	0	2099	1118	2782	54
40	0	0	2218	1113	2780	54
41	0	0	2315	1116	2782	55
42	0	0	2344	1115	2782	55
43	0	0	2304	1113	2785	56
44	0	0	2233	1111	2788	57
45	0	0	2162	1112	2790	56
46	0	0	2073	1113	2791	59
47	0	0	2005	1116	2790	58
48	0	0	1963	1114	2787	58
49	0	0	1919	1117	2783	61
50	0	0	1857	1115	2782	56
51	0	0	1793	1118	2783	56
52	0	0	1739	1118	2784	56
53	0	0	1726	1122	2786	57
54	0	0	1765	1122	2788	57
55	0	0	1827	1119	2790	54
56	0	0	1898	1121	2791	56
57	0	0	1979	1119	2789	53
58	0	0	2063	1120	2786	53
59	0	0	2145	1117	2781	55
60	0	0	2248	1116	2780	55
61	0	0	2348	1115	2782	55
62	0	0	2389	1115	2783	56
63	0	0	2355	1111	2786	55
64	0	0	2291	1112	2787	56
65	0	0	2220	1110	2790	56
66	0	0	2131	1113	2791	59
67	0	0	2017	1113	2789	57
68	0	0	1915	1117	2787	58
69	0	0	1839	1115	2784	55
70	0	0	1787	1121	2782	57
71	0	0	1797	1122	2783	59
72	0	0	1845	1122	2784	55
73	0	0	1890	1123	2785	56
74	0	0	1944	1121	2787	55
75	0	0	2028	1125	2790	55
76	0	0	2143	1120	2791	55
77	0	0	2248	1119	2790	55
78	0	0	2340	1117	2786	53
79	0	0	2436	1116	2782	54
80	0	0	2517	1115	2781	58
81	0	0	2567	1114	2781	55
82	0	0	2598	1114	2782	54
83	0	0	2609	1114	2786	55
84	0	0	2600	1115	2788	54
85	0	0	2545	1115	2790	57
86	0	0	2475	1113	2790	56
87	0	0	2393	1113	2789	58
88	0	0	2306	1117	2787	57
89	0	0	2203	1115	2783	59
90	0	0	2105	1117	2782	57
91	0	0	2045	1118	2783	59
92	0	0	2024	1121	2785	56
93	0	0	2031	1121	2786	56
94	0	0	2065	1121	2789	55
95	0	0	2124	1121	2789	55
96	0	0	2201	1121	2790	56
97	0	0	2283	1119	2789	57
98	0	0	2362	1117	2787	52
99	0	0	2447	1117	2783	53
100	0	0	2532	1114	2780	55
101	0	0	2616	1115	2781	55
102	0	0	2665	1114	2783	56
103	0	0	2663	1113	2785	56
104	0	0	2631	1111	2787	55
105	0	0	2554	1113	2790	57
106	0	0	2448	1112	2791	60
107	0	0	2344	1113	2790	60
108	0	0	2240	1115	2786	57
109	0	0	2138	1115	2782	55
110	0	0	2045	1117	2782	58
111	0	0	1988	1117	2782	62
112	0	0	1952	1119	2783	58
113	0	0	1944	1123	2785	55
114	0	0	1977	1121	2787	53
115	0	0	2021	1121	2790	55
116	0	0	2096	1120	2790	58
117	0	0	2188	1118	2789	55
118	0	0	2297	1118	2786	53
119	0	0	2389	1114	2782	53
120	0	0	2467	1116	2780	56
121	0	0	2543	1115	2781	55
122	0	0	2570	1114	2782	59
123	0	0	2550	1111	2785	55
124	0	0	2490	1111	2788	56
125	0	0	2425	1109	2790	58
126	0	0	2372	1114	2791	58
127	0	0	2313	1113	2789	60
0	0	0	2241	1114	2788	58
1	0	0	2185	1116	2783	59
2	0	0	2152	1118	2782	57
3	0	0	2149	1121	2783	58
4	0	0	2169	1121	2784	58
5	0	0	2235	1121	2787	56
6	0	0	2327	1121	2789	55
7	0	0	2434	1120	2790	55
8	0	0	2551	1119	2791	54
9	0	0	2662	1118	2789	55
10	0	0	2774	1116	2786	53
11	0	0	2897	1116	2782	52
12	0	0	3038	1115	2781	53
13	0	0	3160	1114	2781	55
14	0	0	3248	1113	2782	59
15	0	0	3279	1114	2785	57
16	0	0	3226	1111	2788	57
17	0	0	3129	1112	2790	60
18	0	0	3015	1111	2791	57
19	0	0	2896	1112	2791	57
20	0	0	2788	1113	2787	58
21	0	0	2683	1115	2783	59
22	0	0	2584	1115	2782	57
23	0	0	2496	1114	2782	58
24	0	0	2424	1117	2783	59
25	0	0	2385	1119	2786	55
26	0	0	2395	1121	2788	55
27	0	0	2398	1120	2790	55
28	0	0	2384	1120	2790	55
29	0	0	2390	1119	2789	55
30	0	0	2400	1118	2786	54
31	0	0	2426	1116	2782	55
32	0	0	2473	1116	2780	56
33	0	0	2511	1113	2781	56
34	0	0	2515	1112	2782	55
35	0	0	2486	1111	2786	56
36	0	0	2424	1107	2787	59
37	0	0	2357	1108	2790	58
38	0	0	2292	1111	2791	59
39	0	0	2194	1111	2789	61
40	0	0	2081	1111	2787	58
41	0	0	1960	1113	2783	60
42	0	0	1853	1115	2782	56
43	0	0	1789	1116	2782	58
44	0	0	1757	1117	2783	55
45	0	0	1751	1120	2785	56
46	0	0	1781	1120	2788	56
47	0	0	1848	1118	2790	59
48	0	0	1944	1119	2790	54
49	0	0	2052	1118	2790	54
50	0	0	2151	1117	2786	52
51	0	0	2265	1114	2782	54
52	0	0	2373	1112	2780	55
53	0	0	2453	1114	2782	55
54	0	0	2478	1111	2783	58
55	0	0	2466	1111	2785	56
56	0	0	2412	1109	2788	58
57	0	0	2319	1109	2790	59
58	0	0	2246	1110	2791	58
59	0	0	2152	1111	2790	57
60	0	0	2023	1112	2787	59
61	0	0	1913	1113	2783	62
62	0	0	1853	1114	2782	62
63	0	0	1816	1118	2783	57
64	0	0	1814	1119	2784	54
65	0	0	1843	1120	2785	58
66	0	0	1889	1119	2788	55
67	0	0	1958	1119	2791	55
68	0	0	2033	1117	2790	55
69	0	0	2129	1117	2790	54
70	0	0	2219	1116	2786	53
71	0	0	2309	1113	2782	55
72	0	0	2400	1116	2781	52
73	0	0	2462	1113	2781	55
74	0	0	2482	1113	2782	55
75	0	0	2483	1113	2786	57
76	0	0	2453	1109	2788	59
77	0	0	2382	1107	2790	57
78	0	0	2265	1109	2790	58
79	0	0	2155	1112	2789	57
80	0	0	2072	1112	2787	59
81	0	0	1992	1113	2783	56
82	0	0	1909	1114	2782	58
83	0	0	1829	1114	2783	58
84	0	0	1812	1119	2784	56
85	0	0	1830	1118	2787	55
86	0	0	1871	1116	2789	54
87	0	0	1932	1120	2790	54
88	0	0	2007	1116	2790	56
89	0	0	2102	1117	2789	52
90	0	0	2205	1116	2786	55
91	0	0	2286	1115	2782	53
92	0	0	2363	1111	2781	55
93	0	0	2416	1111	2781	55
94	0	0	2455	1112	2782	56
95	0	0	2457	1112	2784	56
96	0	0	2408	1110	2788	57
97	0	0	2329	1108	2790	61
98	0	0	2222	1109	2791	57
99	0	0	2109	1111	2790	58
100	0	0	2005	1111	2787	58
101	0	0	1915	1113	2783	56
102	0	0	1834	1115	2782	57
103	0	0	1790	1115	2782	58
104	0	0	1771	1117	2783	55
105	0	0	1782	1120	2786	56
106	0	0	1832	1119	2788	52
107	0	0	1900	1119	2790	52
108	0	0	1965	1117	2790	55
109	0	0	2025	1116	2789	52
110	0	0	2085	1115	2786	53
111	0	0	2174	1112	2782	55
112	0	0	2281	1115	2780	54
113	0	0	2371	1113	2782	54
114	0	0	2427	1111	2783	54
115	0	0	2436	1110	2785	55
116	0	0	2375	1109	2787	55
117	0	0	2272	1107	2789	57
118	0	0	2163	1109	2790	58
119	0	0	2059	1108	2790	57
120	0	0	1950	1112	2787	58
121	0	0	1843	1112	2783	61
122	0	0	1768	1115	2782	56
123	0	0	1727	1114	2782	59
124	0	0	1722	1119	2783	58
125	0	0	1732	1117	2786	56
126	0	0	1764	1116	2787	55
127	0	0	1832	1119	2790	54
0	0	0	1933	1117	2791	55
1	0	0	2025	1116	2789	56
2	0	0	2094	1113	2786	53
3	0	0	2152	1113	2782	55
4	0	0	2249	1111	2780	56
5	0	0	2352	1112	2781	55
6	0	0	2420	1112	2782	56
7	0	0	2420	1110	2785	56
8	0	0	2353	1108	2788	56
9	0	0	2263	1109	2790	57
10	0	0	2178	1109	2791	58
11	0	0	2108	1111	2789	58
12	0	0	2034	1110	2787	58
13	0	0	1940	1113	2784	56
14	0	0	1799	1113	2782	58
15	0	0	1706	1113	2783	58
16	0	0	1683	1118	2784	56
17	0	0	1700	1120	2786	57
18	0	0	1747	1120	2788	52
19	0	0	1834	1117	2789	54
20	0	0	1914	1117	2791	54
21	0	0	1997	1115	2789	51
22	0	0	2092	1115	2786	51
23	0	0	2191	1114	2782	52
24	0	0	2293	1112	2781	54
25	0	0	2383	1112	2781	55
26	0	0	2422	1111	2782	56
27	0	0	2412	1108	2785	56
28	0	0	2355	1106	2787	57
29	0	0	2283	1109	2790	58
30	0	0	2221	1109	2790	59
31	0	0	2140	1110	2791	62
32	0	0	2033	1112	2788	58
33	0	0	1912	1114	2784	56
34	0	0	1791	1113	2782	58
35	0	0	1696	1115	2783	57
36	0	0	1651	1115	2783	58
37	0	0	1645	1118	2786	55
38	0	0	1689	1118	2788	55
39	0	0	1769	1117	2790	55
40	0	0	1869	1118	2790	54
41	0	0	1939	1116	2789	56
42	0	0	2004	1111	2786	53
43	0	0	2110	1114	2782	53
44	0	0	2223	1112	2780	54
45	0	0	2307	1113	2781	54
46	0	0	2361	1111	2782	55
47	0	0	2366	1111	2785	58
48	0	0	2320	1107	2787	57
49	0	0	2232	1107	2789	59
50	0	0	2129	1109	2791	58
51	0	0	2021	1110	2789	56
52	0	0	1925	1110	2787	58
53	0	0	1857	1111	2783	58
54	0	0	1793	1113	2781	59
55	0	0	1728	1114	2782	58
56	0	0	1675	1116	2783	55
57	0	0	1663	1117	2785	56
58	0	0	1691	1115	2787	55
59	0	0	1781	1114	2790	57
60	0	0	1897	1117	2791	55
61	0	0	2004	1116	2789	56
62	0	0	2105	1115	2786	56
63	0	0	2210	1111	2782	54
64	0	0	2313	1111	2780	56
65	0	0	2390	1111	2781	54
66	0	0	2447	1110	2782	55
67	0	0	2457	1111	2785	56
68	0	0	2414	1106	2787	57
69	0	0	2347	1108	2790	58
70	0	0	2266	1109	2791	57
71	0	0	2163	1109	2791	60
72	0	0	2055	1110	2788	58
73	0	0	1956	1112	2784	54
74	0	0	1872	1113	2782	58
75	0	0	1813	1114	2783	56
76	0	0	1772	1114	2783	55
77	0	0	1762	1120	2787	56
78	0	0	1811	1114	2787	55
79	0	0	1921	1116	2790	55
80	0	0	2019	1116	2791	54
81	0	0	2126	1115	2789	55
82	0	0	2201	1114	2787	54
83	0	0	2236	1113	2782	56
84	0	0	2305	1111	2781	55
85	0	0	2393	1111	2782	58
86	0	0	2461	1111	2784	51
87	0	0	2508	1111	2786	54
88	0	0	2518	1110	2788	58
89	0	0	2445	1106	2790	58
90	0	0	2329	1108	2790	58
91	0	0	2200	1109	2790	55
92	0	0	2085	1110	2787	59
93	0	0	1992	1112	2784	60
94	0	0	1927	1112	2782	59
95	0	0	1882	1115	2783	57
96	0	0	1868	1118	2784	53
97	0	0	1892	1117	2786	55
98	0	0	1953	1117	2789	55
99	0	0	2066	1116	2791	55
100	0	0	2172	1115	2791	53
101	0	0	2248	1115	2790	54
102	0	0	2341	1114	2786	52
103	0	0	2439	1111	2782	55
104	0	0	2543	1111	2780	53
105	0	0	2632	1110	2781	56
106	0	0	2679	1111	2782	35
107	0	0	2654	1109	2786	54
108	0	0	2589	1107	2788	60
109	0	0	2518	1106	2790	58
110	0	0	2446	1109	2791	57
111	0	0	2368	1109	2789	56
112	0	0	2316	1111	2787	58
113	0	0	2261	1112	2783	60
114	0	0	2156	1112	2783	58
115	0	0	2045	1112	2782	58
116	0	0	1995	1115	2784	52
117	0	0	1997	1117	2787	56
118	0	0	2027	1118	2789	55
119	0	0	2106	1116	2789	55
120	0	0	2219	1115	2791	55
121	0	0	2333	1114	2789	51
122	0	0	2411	1115	2786	52
123	0	0	2475	1112	2782	56
124	0	0	2537	1108	2780	55
125	0	0	2599	1108	2782	55
126	0	0	2646	1110	2783	52
127	0	0	2659	1110	2785	56
0	0	0	2599	1106	2788	56
1	0	0	2504	1107	2790	55
2	0	0	2394	1107	2791	58
3	0	0	2279	1108	2790	55
4	0	0	2192	1112	2787	57
5	0	0	2142	1110	2784	58
6	0	0	2091	1113	2782	57
7	0	0	2010	1112	2783	58
8	0	0	1948	1113	2783	56
9	0	0	1937	1119	2785	54
10	0	0	1960	1117	2788	58
11	0	0	2021	1116	2790	55
12	0	0	2092	1114	2791	54
13	0	0	2161	1114	2789	51
14	0	0	2252	1113	2786	53
15	0	0	2356	1111	2781	55
16	0	0	2463	1112	2781	53
17	0	0	2546	1110	2781	55
18	0	0	2575	1109	2782	56
19	0	0	2565	1110	2786	57
20	0	0	2509	1107	2787	59
21	0	0	2425	1109	2789	58
22	0	0	2309	1106	2791	58
23	0	0	2199	1109	2791	58
24	0	0	2104	1108	2787	58
25	0	0	2013	1110	2783	57
26	0	0	1931	1112	2781	58
27	0	0	1879	1113	2783	58
28	0	0	1853	1115	2784	56
29	0	0	1857	1117	2785	56
30	0	0	1902	1115	2788	59
31	0	0	1976	1118	2789	54
32	0	0	2045	1115	2790	54
33	0	0	2107	1115	2790	54
34	0	0	2156	1112	2786	52
35	0	0	2209	1111	2782	53
36	0	0	2293	1111	2780	54
37	0	0	2372	1110	2782	56
38	0	0	2423	1110	2782	56
39	0	0	2448	1110	2785	56
40	0	0	2413	1106	2788	59
41	0	0	2348	1108	2790	56
42	0	0	2266	1107	2791	58
43	0	0	2187	1108	2790	56
44	0	0	2083	1109	2788	59
45	0	0	1964	1110	2784	59
46	0	0	1873	1114	2781	56
47	0	0	1819	1112	2783	55
48	0	0	1774	1113	2783	57
49	0	0	1760	1114	2786	55
50	0	0	1777	1116	2788	55
51	0	0	1837	1116	2790	54
52	0	0	1930	1118	2790	54
53	0	0	2030	1115	2790	54
54	0	0	2126	1113	2786	53
55	0	0	2212	1113	2782	53
56	0	0	2305	1110	2780	56
57	0	0	2379	1109	2781	55
58	0	0	2439	1110	2783	55
59	0	0	2462	1108	2785	56
60	0	0	2416	1106	2788	57
61	0	0	2329	1107	2789	56
62	0	0	2237	1109	2790	58
63	0	0	2130	1107	2789	58
64	0	0	2003	1108	2788	57
65	0	0	1886	1110	2784	56
66	0	0	1799	1112	2781	56
67	0	0	1740	1112	2782	57
68	0	0	1714	1113	2783	56
69	0	0	1732	1113	2787	54
70	0	0	1788	1116	2788	55
71	0	0	1847	1116	2788	52
72	0	0	1935	1119	2790	55
73	0	0	2034	1113	2789	54
74	0	0	2117	1111	2787	51
75	0	0	2169	1113	2783	50
76	0	0	2242	1111	2781	56
77	0	0	2331	1111	2781	55
78	0	0	2386	1109	2782	56
79	0	0	2378	1106	2786	56
80	0	0	2327	1108	2787	56
81	0	0	2234	1106	2789	57
82	0	0	2135	1107	2791	57
83	0	0	2044	1109	2790	58
84	0	0	1956	1109	2787	57
85	0	0	1897	1111	2784	57
86	0	0	1851	1113	2782	57
87	0	0	1815	1115	2782	57
88	0	0	1810	1116	2784	55
89	0	0	1806	1115	2786	56
90	0	0	1797	1116	2788	56
91	0	0	1805	1116	2790	54
92	0	0	1841	1117	2791	53
93	0	0	1924	1114	2790	55
94	0	0	2034	1113	2787	52
95	0	0	2134	1108	2782	55
96	0	0	2227	1110	2781	53
97	0	0	2293	1111	2781	54
98	0	0	2329	1109	2782	56
99	0	0	2346	1107	2785	56
100	0	0	2330	1106	2788	57
101	0	0	2264	1107	2789	60
102	0	0	2173	1107	2791	59
103	0	0	2071	1108	2789	58
104	0	0	1960	1106	2787	58
105	0	0	1851	1112	2783	58
106	0	0	1767	1112	2782	59
107	0	0	1724	1115	2782	60
108	0	0	1728	1115	2784	56
109	0	0	1739	1115	2787	55
110	0	0	1774	1116	2789	55
111	0	0	1836	1116	2790	55
112	0	0	1919	1114	2791	54
113	0	0	1989	1113	2789	54
114	0	0	2036	1113	2787	55
115	0	0	2079	1111	2782	54
116	0	0	2146	1111	2781	55
117	0	0	2218	1111	2781	55
118	0	0	2252	1108	2783	58
119	0	0	2242	1107	2785	56
120	0	0	2203	1107	2787	57
121	0	0	2135	1105	2789	58
122	0	0	2027	1109	2791	57
123	0	0	1926	1108	2789	57
124	0	0	1837	1109	2787	57
125	0	0	1742	1111	2783	57
126	0	0	1658	1110	2782	59
127	0	0	1592	1115	2783	57
0	0	0	1549	1114	2783	57
1	0	0	1519	1113	2786	56
2	0	0	1532	1117	2787	55
3	0	0	1575	1115	2790	55
4	0	0	1647	1117	2790	53
5	0	0	1740	1114	2787	55
6	0	0	1820	1111	2786	48
7	0	0	1906	1114	2782	53
8	0	0	2014	1110	2780	51
9	0	0	2108	1108	2781	56
10	0	0	2175	1108	2782	54
11	0	0	2169	1105	2785	55
12	0	0	2114	1107	2787	56
13	0	0	2048	1106	2791	58
14	0	0	1961	1107	2791	58
15	0	0	1849	1107	2788	57
16	0	0	1724	1107	2787	59
17	0	0	1630	1109	2784	61
18	0	0	1582	1111	2782	60
19	0	0	1552	1112	2782	57
20	0	0	1566	1115	2784	55
21	0	0	1582	1116	2786	56
22	0	0	1600	1115	2788	55
23	0	0	1638	1116	2790	55
24	0	0	1696	1116	2790	54
25	0	0	1774	1113	2790	56
26	0	0	1857	1114	2787	53
27	0	0	1941	1110	2782	55
28	0	0	2028	1110	2781	54
29	0	0	2077	1108	2781	55
30	0	0	2090	1109	2783	57
31	0	0	2083	1106	2785	56
32	0	0	2050	1104	2787	55
33	0	0	1998	1106	2790	57
34	0	0	1934	1105	2790	57
35	0	0	1840	1106	2790	59
36	0	0	1736	1107	2787	58
37	0	0	1636	1109	2783	59
38	0	0	1558	1109	2782	59
39	0	0	1504	1112	2782	57
40	0	0	1509	1115	2783	58
41	0	0	1549	1115	2785	56
42	0	0	1607	1117	2787	55
43	0	0	1653	1115	2790	55
44	0	0	1681	1114	2791	54
45	0	0	1734	1113	2789	54
46	0	0	1810	1112	2787	52
47	0	0	1881	1112	2782	52
48	0	0	1978	1108	2781	55
49	0	0	2075	1108	2781	55
50	0	0	2140	1108	2782	59
51	0	0	2159	1107	2785	56
52	0	0	2118	1105	2788	57
53	0	0	2051	1105	2790	57
54	0	0	1973	1105	2790	58
55	0	0	1889	1107	2790	58
56	0	0	1806	1108	2787	59
57	0	0	1715	1108	2783	59
58	0	0	1624	1109	2782	58
59	0	0	1566	1111	2783	58
60	0	0	1533	1112	2783	58
61	0	0	1534	1115	2787	55
62	0	0	1573	1115	2789	54
63	0	0	1638	1114	2790	55
64	0	0	1717	1114	2790	55
65	0	0	1789	1112	2789	52
66	0	0	1853	1111	2787	52
67	0	0	1931	1109	2782	53
68	0	0	2035	1110	2781	51
69	0	0	2135	1108	2781	54
70	0	0	2172	1108	2782	56
71	0	0	2182	1108	2785	56
72	0	0	2144	1104	2788	58
73	0	0	2068	1104	2789	56
74	0	0	1986	1106	2790	58
75	0	0	1901	1106	2791	57
76	0	0	1796	1103	2787	58
77	0	0	1667	1108	2784	56
78	0	0	1570	1109	2782	57
79	0	0	1525	1112	2782	58
80	0	0	1515	1114	2783	58
81	0	0	1531	1113	2786	55
82	0	0	1554	1112	2788	55
83	0	0	1601	1114	2790	55
84	0	0	1690	1114	2790	55
85	0	0	1802	1112	2789	55
86	0	0	1904	1111	2786	54
87	0	0	1992	1108	2783	55
88	0	0	2085	1109	2780	51
89	0	0	2151	1108	2781	56
90	0	0	2180	1107	2783	55
91	0	0	2187	1108	2785	57
92	0	0	2155	1103	2787	57
93	0	0	2096	1105	2791	58
94	0	0	2030	1106	2791	57
95	0	0	1944	1106	2790	58
96	0	0	1857	1108	2787	57
97	0	0	1779	1107	2783	57
98	0	0	1707	1110	2781	56
99	0	0	1674	1111	2782	57
100	0	0	1668	1112	2784	58
101	0	0	1660	1112	2785	56
102	0	0	1665	1111	2787	55
103	0	0	1684	1115	2790	53
104	0	0	1730	1114	2790	55
105	0	0	1817	1112	2788	54
106	0	0	1929	1110	2786	53
107	0	0	2037	1109	2782	54
108	0	0	2146	1110	2781	54
109	0	0	2225	1109	2781	55
110	0	0	2286	1107	2783	56
111	0	0	2308	1106	2785	56
112	0	0	2279	1103	2787	57
113	0	0	2205	1104	2790	58
114	0	0	2083	1105	2790	58
115	0	0	1951	1104	2790	58
116	0	0	1828	1106	2789	61
117	0	0	1738	1107	2783	60
118	0	0	1673	1109	2781	56
119	0	0	1629	1110	2782	55
120	0	0	1628	1114	2784	55
121	0	0	1657	1114	2785	55
122	0	0	1693	1113	2788	56
123	0	0	1753	1113	2790	55
124	0	0	1840	1111	2790	54
125	0	0	1948	1112	2790	55
126	0	0	2053	1109	2786	54
127	0	0	2158	1109	2782	55
0	0	0	2266	1108	2781	56
1	0	0	2342	1109	2781	55
2	0	0	2382	1107	2782	56
3	0	0	2391	1108	2785	55
4	0	0	2356	1103	2788	56
5	0	0	2279	1104	2790	57
6	0	0	2158	1103	2790	59
7	0	0	2030	1108	2789	58
8	0	0	1928	1106	2787	58
9	0	0	1838	1107	2784	59
10	0	0	1769	1109	2783	58
11	0	0	1714	1110	2783	58
12	0	0	1688	1111	2783	57
13	0	0	1688	1114	2786	55
14	0	0	1734	1113	2789	54
15	0	0	1816	1112	2790	55
16	0	0	1887	1111	2790	55
17	0	0	1928	1111	2789	55
18	0	0	1991	1110	2786	53
19	0	0	2066	1108	2783	54
20	0	0	2152	1107	2781	55
21	0	0	2227	1105	2781	55
22	0	0	2269	1106	2782	56
23	0	0	2288	1106	2785	56
24	0	0	2259	1105	2787	57
25	0	0	2214	1104	2791	58
26	0	0	2139	1105	2791	58
27	0	0	2034	1105	2790	58
28	0	0	1923	1106	2788	59
29	0	0	1833	1107	2783	60
30	0	0	1757	1108	2782	58
31	0	0	1666	1105	2782	57
32	0	0	1587	1109	2783	56
33	0	0	1584	1112	2786	56
34	0	0	1623	1114	2787	54
35	0	0	1673	1113	2790	55
36	0	0	1712	1111	2790	55
37	0	0	1753	1111	2789	55
38	0	0	1820	1112	2786	53
39	0	0	1907	1109	2782	54
40	0	0	2001	1106	2780	54
41	0	0	2074	1104	2780	54
42	0	0	2112	1106	2782	56
43	0	0	2117	1106	2785	56
44	0	0	2094	1104	2789	58
45	0	0	2043	1103	2789	58
46	0	0	1963	1104	2791	58
47	0	0	1856	1104	2789	56
48	0	0	1776	1105	2788	57
49	0	0	1727	1107	2783	58
50	0	0	1682	1108	2782	58
51	0	0	1639	1106	2782	58
52	0	0	1585	1108	2783	58
53	0	0	1563	1113	2785	55
54	0	0	1611	1114	2787	54
55	0	0	1689	1112	2789	55
56	0	0	1766	1109	2790	55
57	0	0	1831	1111	2790	55
58	0	0	1907	1107	2786	53
59	0	0	1991	1107	2782	54
60	0	0	2087	1107	2781	55
61	0	0	2191	1104	2781	55
62	0	0	2252	1105	2783	56
63	0	0	2228	1101	2785	56
64	0	0	2144	1103	2787	56
65	0	0	2082	1103	2789	58
66	0	0	2007	1102	2790	58
67	0	0	1916	1104	2789	58
68	0	0	1796	1105	2787	59
69	0	0	1675	1106	2783	58
70	0	0	1593	1107	2781	58
71	0	0	1568	1106	2782	58
72	0	0	1547	1110	2783	57
73	0	0	1560	1112	2785	55
74	0	0	1594	1114	2788	55
75	0	0	1635	1112	2790	56
76	0	0	1695	1112	2790	56
77	0	0	1764	1110	2789	55
78	0	0	1829	1108	2787	53
79	0	0	1927	1109	2782	52
80	0	0	2037	1106	2780	55
81	0	0	2128	1104	2780	55
82	0	0	2182	1106	2782	56
83	0	0	2205	1105	2785	57
84	0	0	2188	1103	2788	56
85	0	0	2124	1103	2789	58
86	0	0	2039	1104	2791	57
87	0	0	1942	1104	2790	57
88	0	0	1839	1104	2789	59
89	0	0	1740	1106	2784	59
90	0	0	1656	1107	2781	59
91	0	0	1610	1110	2783	58
92	0	0	1602	1110	2783	59
93	0	0	1601	1111	2787	56
94	0	0	1625	1111	2789	52
95	0	0	1684	1112	2790	55
96	0	0	1750	1111	2791	55
97	0	0	1817	1110	2789	54
98	0	0	1882	1109	2786	53
99	0	0	1953	1108	2782	51
100	0	0	2034	1107	2781	53
101	0	0	2129	1104	2781	56
102	0	0	2184	1105	2782	55
103	0	0	2160	1101	2785	56
104	0	0	2106	1101	2787	55
105	0	0	2031	1102	2789	56
106	0	0	1930	1102	2791	59
107	0	0	1814	1104	2789	58
108	0	0	1702	1103	2787	56
109	0	0	1614	1106	2784	56
110	0	0	1568	1108	2782	58
111	0	0	1543	1107	2782	57
112	0	0	1521	1110	2784	56
113	0	0	1526	1113	2786	57
114	0	0	1559	1112	2788	56
115	0	0	1619	1111	2789	56
116	0	0	1725	1111	2791	53
117	0	0	1853	1110	2789	55
118	0	0	1965	1108	2788	53
119	0	0	2071	1107	2782	52
120	0	0	2194	1106	2781	54
121	0	0	2312	1105	2781	55
122	0	0	2399	1105	2783	55
123	0	0	2463	1103	2784	56
124	0	0	2513	1105	2787	56
125	0	0	2527	1107	2789	57
126	0	0	2528	1106	2791	58
127	0	0	2541	1108	2789	62
0	0	0	2539	1107	2788	57
1	0	0	2503	1108	2783	56
2	0	0	2456	1107	2782	60
3	0	0	2424	1110	2783	58
4	0	0	2428	1111	2783	57
5	0	0	2460	1113	2785	55
6	0	0	2506	1112	2788	55
7	0	0	2562	1111	2790	56
8	0	0	2624	1110	2790	55
9	0	0	2682	1110	2789	55
10	0	0	2737	1109	2787	55
11	0	0	2766	1107	2783	53
12	0	0	2762	1106	2781	55
13	0	0	2743	1106	2781	55
14	0	0	2722	1106	2783	56
15	0	0	2689	1102	2785	56
16	0	0	2624	1103	2787	57
17	0	0	2524	1103	2790	58
18	0	0	2421	1103	2791	57
19	0	0	2336	1105	2790	58
20	0	0	2263	1104	2788	57
21	0	0	2196	1105	2783	55
22	0	0	2142	1107	2782	59
23	0	0	2087	1106	2782	56
24	0	0	2001	1107	2783	57
25	0	0	1922	1106	2785	53
26	0	0	1883	1108	2787	53
27	0	0	1877	1110	2790	56
28	0	0	1852	1105	2791	55
29	0	0	1827	1106	2789	56
30	0	0	1815	1107	2786	55
31	0	0	1778	1103	2783	56
32	0	0	1735	1103	2782	56
33	0	0	1731	1106	2781	56
34	0	0	1747	1105	2783	57
35	0	0	1768	1106	2787	56
36	0	0	1779	1107	2789	54
37	0	0	1782	1106	2790	57
38	0	0	1774	1107	2791	57
39	0	0	1801	1108	2789	57
40	0	0	1794	1108	2787	55
41	0	0	1779	1108	2783	56
42	0	0	1787	1109	2782	56
43	0	0	1784	1108	2781	56
44	0	0	1775	1108	2784	56
45	0	0	1761	1106	2785	55
46	0	0	1725	1105	2787	56
47	0	0	1697	1106	2790	56
48	0	0	1677	1105	2790	55
49	0	0	1665	1105	2789	56
50	0	0	1650	1104	2787	55
51	0	0	1624	1103	2783	56
52	0	0	1596	1103	2781	57
53	0	0	1605	1108	2781	58
54	0	0	1641	1106	2782	57
55	0	0	1668	1108	2785	55
56	0	0	1667	1107	2788	59
57	0	0	1681	1107	2789	55
58	0	0	1699	1108	2791	57
59	0	0	1727	1108	2789	57
60	0	0	1774	1110	2787	56
61	0	0	1807	1109	2784	58
62	0	0	1790	1105	2781	56
63	0	0	1748	1105	2782	57
64	0	0	1710	1105	2782	56
65	0	0	1666	1104	2785	56
66	0	0	1638	1107	2787	54
67	0	0	1631	1106	2790	55
68	0	0	1636	1107	2789	55
69	0	0	1650	1107	2789	55
70	0	0	1645	1104	2786	53
71	0	0	1616	1103	2782	56
72	0	0	1612	1106	2781	55
73	0	0	1637	1106	2781	56
74	0	0	1680	1106	2782	57
75	0	0	1722	1105	2785	56
76	0	0	1752	1107	2787	56
77	0	0	1773	1108	2790	56
78	0	0	1789	1108	2789	57
79	0	0	1807	1108	2790	56
80	0	0	1789	1104	2787	57
81	0	0	1770	1109	2782	58
82	0	0	1785	1109	2781	55
83	0	0	1797	1108	2781	57
84	0	0	1810	1108	2782	57
85	0	0	1800	1107	2785	56
86	0	0	1761	1106	2787	54
87	0	0	1706	1104	2790	56
88	0	0	1701	1107	2790	55
89	0	0	1692	1104	2789	55
90	0	0	1664	1103	2786	55
91	0	0	1630	1103	2783	56
92	0	0	1604	1103	2781	55
93	0	0	1597	1106	2781	57
94	0	0	1625	1106	2784	57
95	0	0	1675	1103	2785	56
96	0	0	1745	1107	2787	56
97	0	0	1811	1107	2789	55
98	0	0	1852	1106	2790	57
99	0	0	1858	1107	2789	56
100	0	0	1854	1109	2786	54
101	0	0	1891	1107	2783	56
102	0	0	1921	1107	2780	55
103	0	0	1921	1104	2781	56
104	0	0	1888	1105	2783	57
105	0	0	1864	1105	2785	55
106	0	0	1846	1103	2788	55
107	0	0	1815	1105	2789	54
108	0	0	1779	1105	2791	55
109	0	0	1740	1103	2789	56
110	0	0	1719	1106	2787	55
111	0	0	1677	1102	2783	56
112	0	0	1631	1104	2780	55
113	0	0	1640	1105	2781	58
114	0	0	1678	1106	2782	57
115	0	0	1720	1106	2784	57
116	0	0	1763	1107	2786	55
117	0	0	1800	1107	2789	54
118	0	0	1834	1106	2790	57
119	0	0	1837	1106	2789	56
120	0	0	1868	1107	2786	57
121	0	0	1939	1107	2783	56
122	0	0	1955	1106	2781	55
123	0	0	1920	1105	2782	56
124	0	0	1896	1107	2782	56
125	0	0	1884	1104	2785	56
126	0	0	1844	1104	2788	55
127	0	0	1807	1103	2789	53
0	0	0	1788	1106	2790	56
1	0	0	1788	1106	2789	56
2	0	0	1766	1103	2786	55
3	0	0	1723	1102	2782	57
4	0	0	1699	1104	2780	56
5	0	0	1722	1106	2781	57
6	0	0	1769	1105	2782	57
7	0	0	1800	1106	2784	56
8	0	0	1837	1105	2788	56
9	0	0	1868	1107	2790	56
10	0	0	1881	1107	2790	56
11	0	0	1891	1106	2789	58
12	0	0	1921	1106	2786	57
13	0	0	1973	1106	2783	56
14	0	0	2041	1108	2780	58
15	0	0	2063	1107	2780	58
16	0	0	2053	1103	2782	55
17	0	0	2021	1104	2784	55
18	0	0	2000	1104	2788	56
19	0	0	1956	1103	2789	56
20	0	0	1883	1102	2790	55
21	0	0	1822	1103	2787	56
22	0	0	1783	1102	2786	54
23	0	0	1731	1101	2782	54
24	0	0	1682	1102	2780	57
25	0	0	1682	1107	2781	56
26	0	0	1724	1105	2782	57
27	0	0	1795	1106	2784	56
28	0	0	1863	1106	2787	56
29	0	0	1908	1106	2789	56
30	0	0	1955	1108	2789	58
31	0	0	1993	1107	2790	56
32	0	0	2009	1108	2787	58
33	0	0	2016	1107	2783	57
34	0	0	2031	1107	2781	57
35	0	0	2050	1107	2782	57
36	0	0	2097	1107	2783	57
37	0	0	2164	1109	2785	56
38	0	0	2174	1105	2787	56
39	0	0	2099	1102	2790	56
40	0	0	1988	1102	2790	55
41	0	0	1900	1102	2789	56
42	0	0	1865	1104	2786	54
43	0	0	1819	1101	2783	54
44	0	0	1777	1102	2781	55
45	0	0	1766	1105	2782	58
46	0	0	1784	1105	2783	56
47	0	0	1823	1106	2785	56
48	0	0	1891	1106	2787	56
49	0	0	1950	1106	2789	58
50	0	0	2023	1106	2790	56
51	0	0	2073	1106	2789	56
52	0	0	2093	1106	2787	57
53	0	0	2109	1106	2783	56
54	0	0	2152	1107	2781	55
55	0	0	2149	1104	2782	56
56	0	0	2095	1103	2782	57
57	0	0	2070	1103	2785	55
58	0	0	2051	1104	2787	57
59	0	0	2039	1105	2789	58
60	0	0	2017	1103	2790	56
61	0	0	1979	1102	2789	56
62	0	0	1921	1102	2786	56
63	0	0	1856	1101	2783	57
64	0	0	1807	1103	2781	57
65	0	0	1827	1105	2781	56
66	0	0	1878	1105	2782	57
67	0	0	1929	1105	2785	56
68	0	0	1986	1106	2787	57
69	0	0	2045	1106	2789	58
70	0	0	2092	1106	2790	57
71	0	0	2136	1106	2789	57
72	0	0	2183	1107	2786	56
73	0	0	2223	1106	2783	57
74	0	0	2259	1107	2781	55
75	0	0	2240	1103	2780	56
76	0	0	2193	1102	2782	57
77	0	0	2170	1106	2784	56
78	0	0	2180	1106	2787	56
79	0	0	2165	1104	2789	55
80	0	0	2127	1103	2790	56
81	0	0	2084	1102	2789	56
82	0	0	2031	1102	2786	55
83	0	0	1937	1101	2783	57
84	0	0	1848	1102	2781	57
85	0	0	1818	1104	2781	53
86	0	0	1832	1105	2782	57
87	0	0	1869	1105	2785	56
88	0	0	1944	1105	2787	56
89	0	0	2025	1104	2789	55
90	0	0	2111	1105	2790	56
91	0	0	2182	1106	2789	57
92	0	0	2220	1105	2787	53
93	0	0	2251	1106	2783	56
94	0	0	2300	1106	2781	55
95	0	0	2315	1103	2780	53
96	0	0	2302	1103	2782	55
97	0	0	2231	1101	2785	57
98	0	0	2130	1101	2786	58
99	0	0	2048	1101	2789	53
100	0	0	1966	1101	2789	56
101	0	0	1900	1101	2789	55
102	0	0	1875	1103	2787	57
103	0	0	1844	1102	2782	59
104	0	0	1811	1103	2780	58
105	0	0	1805	1103	2780	57
106	0	0	1814	1105	2782	56
107	0	0	1908	1106	2785	55
108	0	0	2043	1106	2788	55
109	0	0	2119	1106	2789	53
110	0	0	2136	1105	2790	57
111	0	0	2146	1104	2789	56
112	0	0	2170	1105	2787	56
113	0	0	2212	1105	2782	57
114	0	0	2265	1105	2781	57
115	0	0	2279	1104	2781	55
116	0	0	2280	1105	2782	58
117	0	0	2261	1102	2784	55
118	0	0	2198	1102	2787	55
119	0	0	2127	1101	2789	54
120	0	0	2041	1101	2789	55
121	0	0	1930	1100	2788	55
122	0	0	1809	1100	2786	56
123	0	0	1691	1101	2783	56
124	0	0	1632	1104	2781	56
125	0	0	1673	1105	2780	55
126	0	0	1715	1105	2783	57
127	0	0	1756	1106	2784	56
0	0	0	1838	1104	2788	56
1	0	0	1889	1105	2789	56
2	0	0	1941	1105	2790	56
3	0	0	1995	1105	2789	56
4	0	0	2041	1103	2786	57
5	0	0	2103	1103	2782	59
6	0	0	2150	1105	2781	55
7	0	0	2121	1102	2780	56
8	0	0	2079	1101	2782	56
9	0	0	2029	1101	2784	56
10	0	0	1982	1101	2786	57
11	0	0	1921	1101	2789	56
12	0	0	1838	1101	2790	56
13	0	0	1756	1100	2789	56
14	0	0	1686	1099	2787	56
15	0	0	1589	1100	2783	56
16	0	0	1468	1098	2781	56
17	0	0	1387	1100	2780	57
18	0	0	1336	1100	2782	57
19	0	0	1324	1104	2784	57
20	0	0	1352	1104	2786	56
21	0	0	1413	1104	2788	54
22	0	0	1453	1105	2789	56
23	0	0	1504	1104	2789	56
24	0	0	1577	1106	2787	57
25	0	0	1657	1104	2781	56
26	0	0	1729	1104	2780	56
27	0	0	1753	1104	2780	55
28	0	0	1710	1100	2782	57
29	0	0	1609	1098	2785	57
30	0	0	1471	1100	2786	56
31	0	0	1356	1100	2788	54
32	0	0	1275	1100	2789	56
33	0	0	1222	1100	2788	56
34	0	0	1176	1100	2786	56
35	0	0	1090	1100	2782	57
36	0	0	987	1101	2781	57
37	0	0	971	1103	2780	56
38	0	0	1036	1104	2783	57
39	0	0	1145	1105	2784	56
40	0	0	1292	1103	2786	56
41	0	0	1436	1104	2789	53
42	0	0	1572	1104	2789	56
43	0	0	1625	1103	2788	55
44	0	0	1618	1101	2786	55
45	0	0	1598	1103	2782	55
46	0	0	1630	1103	2780	56
47	0	0	1669	1104	2779	58
48	0	0	1670	1100	2782	57
49	0	0	1612	1098	2784	56
50	0	0	1532	1099	2786	55
51	0	0	1506	1101	2789	56
52	0	0	1481	1100	2789	56
53	0	0	1444	1099	2788	56
54	0	0	1403	1099	2787	55
55	0	0	1346	1099	2783	54
56	0	0	1297	1100	2780	58
57	0	0	1292	1101	2780	57
58	0	0	1289	1100	2782	57
59	0	0	1308	1102	2784	56
60	0	0	1403	1104	2787	56
61	0	0	1510	1103	2789	56
62	0	0	1596	1103	2788	56
63	0	0	1654	1103	2788	57
64	0	0	1688	1103	2786	56
65	0	0	1723	1104	2782	53
66	0	0	1778	1102	2780	60
67	0	0	1798	1103	2781	56
68	0	0	1790	1101	2782	57
69	0	0	1757	1099	2784	55
70	0	0	1717	1099	2787	53
71	0	0	1680	1099	2788	56
72	0	0	1633	1098	2790	56
73	0	0	1553	1099	2788	56
74	0	0	1500	1098	2786	55
75	0	0	1436	1099	2783	56
76	0	0	1359	1098	2780	60
77	0	0	1319	1100	2781	56
78	0	0	1346	1103	2781	59
79	0	0	1429	1101	2784	56
80	0	0	1517	1103	2787	53
81	0	0	1584	1102	2788	56
82	0	0	1627	1102	2789	55
83	0	0	1669	1102	2788	56
84	0	0	1715	1101	2785	55
85	0	0	1787	1102	2782	55
86	0	0	1828	1103	2780	58
87	0	0	1815	1100	2779	55
88	0	0	1812	1103	2781	56
89	0	0	1794	1099	2784	55
90	0	0	1754	1099	2787	52
91	0	0	1682	1098	2788	56
92	0	0	1583	1098	2789	55
93	0	0	1494	1098	2787	55
94	0	0	1426	1098	2786	56
95	0	0	1365	1098	2782	54
96	0	0	1316	1100	2780	55
97	0	0	1307	1102	2779	55
98	0	0	1344	1101	2781	56
99	0	0	1429	1102	2783	57
100	0	0	1561	1103	2787	53
101	0	0	1679	1102	2787	60
102	0	0	1759	1102	2789	56
103	0	0	1842	1104	2788	56
104	0	0	1929	1102	2786	55
105	0	0	1976	1103	2782	54
106	0	0	1996	1102	2780	55
107	0	0	1989	1102	2780	57
108	0	0	1978	1101	2781	56
109	0	0	1938	1098	2784	55
110	0	0	1872	1099	2787	57
111	0	0	1816	1097	2788	59
112	0	0	1737	1097	2788	56
113	0	0	1645	1098	2788	56
114	0	0	1554	1097	2785	56
115	0	0	1496	1100	2782	58
116	0	0	1438	1099	2780	56
117	0	0	1432	1102	2780	58
118	0	0	1471	1103	2781	56
119	0	0	1551	1101	2784	56
120	0	0	1670	1102	2786	56
121	0	0	1784	1103	2788	55
122	0	0	1859	1101	2788	55
123	0	0	1920	1101	2789	56
124	0	0	1982	1102	2786	56
125	0	0	2032	1103	2782	56
126	0	0	2062	1102	2780	57
127	0	0	2059	1101	2780	57
0	0	0	2044	1099	2782	56
1	0	0	1983	1098	2784	56
2	0	0	1900	1097	2786	56
3	0	0	1797	1097	2788	56
4	0	0	1697	1097	2788	56
5	0	0	1630	1097	2789	56
6	0	0	1568	1098	2786	56
7	0	0	1503	1098	2782	57
8	0	0	1467	1100	2780	60
9	0	0	1518	1102	2780	57
10	0	0	1584	1101	2781	56
11	0	0	1634	1100	2783	56
12	0	0	1684	1100	2786	58
13	0	0	1751	1102	2788	57
14	0	0	1829	1100	2788	55
15	0	0	1924	1100	2788	56
16	0	0	2019	1102	2786	56
17	0	0	2066	1100	2782	56
18	0	0	2082	1102	2780	59
19	0	0	2082	1101	2781	57
20	0	0	2060	1098	2781	57
21	0	0	2028	1098	2784	56
22	0	0	2014	1101	2787	56
23	0	0	1978	1096	2788	57
24	0	0	1902	1097	2788	56
25	0	0	1806	1097	2788	56
26	0	0	1707	1097	2786	56
27	0	0	1613	1096	2782	58
28	0	0	1560	1099	2780	59
29	0	0	1591	1101	2780	57
30	0	0	1665	1101	2781	56
31	0	0	1733	1102	2784	56
32	0	0	1806	1102	2786	56
33	0	0	1880	1100	2788	56
34	0	0	1943	1100	2789	56
35	0	0	1983	1101	2788	56
36	0	0	2012	1100	2785	56
37	0	0	2053	1099	2781	57
38	0	0	2091	1101	2781	56
39	0	0	2103	1101	2781	56
40	0	0	2103	1099	2781	56
41	0	0	2080	1097	2784	58
42	0	0	2038	1097	2786	56
43	0	0	1992	1097	2788	56
44	0	0	1916	1095	2789	55
45	0	0	1836	1096	2788	56
46	0	0	1779	1097	2786	55
47	0	0	1714	1096	2781	58
48	0	0	1652	1096	2780	53
49	0	0	1679	1102	2780	57
50	0	0	1762	1101	2781	57
51	0	0	1848	1101	2784	56
52	0	0	1952	1101	2787	57
53	0	0	2030	1100	2788	57
54	0	0	2081	1101	2789	55
55	0	0	2087	1098	2788	59
56	0	0	2045	1097	2786	60
57	0	0	2043	1097	2782	56
58	0	0	2085	1100	2780	55
59	0	0	2079	1098	2780	57
60	0	0	2040	1097	2781	57
61	0	0	2017	1098	2783	57
62	0	0	1988	1097	2786	58
63	0	0	1961	1097	2788	54
64	0	0	1905	1096	2789	55
65	0	0	1835	1096	2789	56
66	0	0	1803	1098	2786	57
67	0	0	1777	1094	2782	56
68	0	0	1753	1099	2780	56
69	0	0	1787	1100	2780	56
70	0	0	1858	1100	2781	59
71	0	0	1931	1099	2784	58
72	0	0	2003	1097	2786	55
73	0	0	2037	1100	2788	55
74	0	0	2050	1099	2788	56
75	0	0	2079	1100	2788	56
76	0	0	2103	1101	2785	56
77	0	0	2135	1097	2782	56
78	0	0	2168	1100	2780	52
79	0	0	2141	1098	2780	58
80	0	0	2125	1099	2781	57
81	0	0	2115	1098	2783	57
82	0	0	2091	1094	2786	55
83	0	0	2054	1097	2788	56
84	0	0	1997	1096	2788	55
85	0	0	1931	1096	2788	58
86	0	0	1890	1097	2787	57
87	0	0	1855	1093	2782	57
88	0	0	1833	1099	2780	56
89	0	0	1864	1099	2779	55
90	0	0	1916	1100	2781	56
91	0	0	1962	1100	2784	55
92	0	0	2017	1100	2787	56
93	0	0	2052	1101	2788	55
94	0	0	2084	1100	2789	56
95	0	0	2164	1100	2787	56
96	0	0	2277	1099	2785	55
97	0	0	2358	1098	2781	56
98	0	0	2383	1099	2779	56
99	0	0	2324	1095	2779	55
100	0	0	2227	1096	2781	57
101	0	0	2130	1095	2783	57
102	0	0	2075	1094	2786	56
103	0	0	2050	1096	2788	53
104	0	0	2026	1097	2788	56
105	0	0	1992	1096	2787	55
106	0	0	1968	1099	2785	56
107	0	0	1945	1093	2782	57
108	0	0	1904	1097	2780	55
109	0	0	1911	1099	2779	55
110	0	0	1949	1100	2782	57
111	0	0	1994	1100	2783	56
112	0	0	2044	1097	2785	56
113	0	0	2105	1100	2788	58
114	0	0	2162	1099	2788	56
115	0	0	2189	1099	2787	56
116	0	0	2194	1099	2785	55
117	0	0	2228	1098	2781	55
118	0	0	2257	1098	2780	57
119	0	0	2234	1096	2780	55
120	0	0	2207	1096	2780	57
121	0	0	2160	1094	2783	57
122	0	0	2109	1095	2785	53
123	0	0	2046	1095	2788	58
124	0	0	1987	1096	2788	56
125	0	0	1943	1095	2787	56
126	0	0	1893	1094	2786	55
127	0	0	1826	1096	2782	56
0	0	0	1778	1099	2779	57
1	0	0	1813	1099	2779	56
2	0	0	1877	1099	2782	57
3	0	0	1959	1099	2783	55
4	0	0	2058	1100	2785	53
5	0	0	2144	1099	2787	56
6	0	0	2224	1099	2788	54
7	0	0	2257	1099	2787	55
8	0	0	2265	1099	2785	55
9	0	0	2289	1097	2781	55
10	0	0	2302	1099	2779	57
11	0	0	2257	1096	2780	57
12	0	0	2214	1096	2781	57
13	0	0	2189	1095	2783	55
14	0	0	2161	1095	2786	56
15	0	0	2113	1099	2787	56
16	0	0	2068	1096	2788	56
17	0	0	2002	1094	2787	56
18	0	0	1941	1094	2785	56
19	0	0	1878	1094	2781	57
20	0	0	1832	1096	2779	56
21	0	0	1846	1098	2779	60
22	0	0	1876	1099	2781	56
23	0	0	1912	1098	2783	57
24	0	0	1985	1101	2785	56
25	0	0	2091	1099	2788	58
26	0	0	2189	1099	2788	56
27	0	0	2277	1098	2787	56
28	0	0	2328	1098	2785	56
29	0	0	2351	1100	2781	56
30	0	0	2361	1098	2779	56
31	0	0	2348	1099	2779	55
32	0	0	2340	1099	2781	56
33	0	0	2317	1094	2783	57
34	0	0	2267	1096	2785	56
35	0	0	2181	1095	2788	60
36	0	0	2094	1094	2788	56
37	0	0	2037	1095	2788	56
38	0	0	2019	1097	2785	56
39	0	0	1991	1095	2781	56
40	0	0	1941	1098	2780	58
41	0	0	1964	1099	2779	58
42	0	0	2067	1099	2780	57
43	0	0	2194	1098	2783	57
44	0	0	2333	1099	2785	56
45	0	0	2476	1098	2789	57
46	0	0	2615	1100	2787	55
47	0	0	2774	1098	2788	56
48	0	0	2929	1099	2786	57
49	0	0	3036	1099	2781	55
50	0	0	3090	1099	2780	56
51	0	0	3101	1098	2779	59
52	0	0	3088	1099	2781	57
53	0	0	3073	1100	2783	56
54	0	0	3036	1095	2785	57
55	0	0	2966	1095	2787	56
56	0	0	2889	1095	2788	58
57	0	0	2823	1095	2787	56
58	0	0	2768	1096	2786	56
59	0	0	2699	1096	2781	56
60	0	0	2643	1097	2779	57
61	0	0	2646	1100	2780	57
62	0	0	2689	1099	2781	56
63	0	0	2771	1099	2784	56
64	0	0	2893	1098	2786	56
65	0	0	3007	1099	2787	56
66	0	0	3094	1098	2788	59
67	0	0	3136	1099	2787	56
68	0	0	3164	1099	2785	56
69	0	0	3187	1096	2780	57
70	0	0	3212	1099	2779	59
71	0	0	3190	1098	2779	58
72	0	0	3171	1100	2781	56
73	0	0	3128	1098	2783	56
74	0	0	3044	1093	2785	57
75	0	0	2931	1094	2787	56
76	0	0	2827	1095	2788	58
77	0	0	2741	1095	2787	57
78	0	0	2657	1095	2786	56
79	0	0	2586	1095	2782	57
80	0	0	2538	1096	2780	57
81	0	0	2534	1099	2779	59
82	0	0	2545	1099	2781	57
83	0	0	2588	1101	2783	57
84	0	0	2683	1096	2785	57
85	0	0	2797	1100	2788	60
86	0	0	2885	1099	2788	59
87	0	0	2989	1100	2788	55
88	0	0	3095	1098	2784	57
89	0	0	3203	1100	2781	55
90	0	0	3311	1100	2779	57
91	0	0	3343	1100	2779	60
92	0	0	3347	1099	2781	56
93	0	0	3346	1099	2783	55
94	0	0	3340	1097	2786	55
95	0	0	3335	1099	2788	59
96	0	0	3316	1099	2788	55
97	0	0	3309	1099	2788	56
98	0	0	3342	1101	2785	56
99	0	0	3360	1100	2782	57
100	0	0	3368	1100	2780	55
101	0	0	3415	1100	2779	59
102	0	0	3491	1100	2782	57
103	0	0	3574	1099	2784	55
104	0	0	3691	1100	2786	55
105	0	0	3791	1100	2788	55
106	0	0	3853	1100	2787	37
107	0	0	3906	1100	2787	56
108	0	0	3941	1098	2785	58
109	0	0	3979	1100	2781	60
110	0	0	4031	1099	2779	58
111	0	0	4002	1097	2779	56
112	0	0	3904	1096	2780	57
113	0	0	3812	1097	2783	57
114	0	0	3722	1096	2786	59
115	0	0	3623	1095	2788	56
116	0	0	3515	1096	2788	56
117	0	0	3414	1096	2788	56
118	0	0	3308	1095	2786	55
119	0	0	3151	1095	2782	59
120	0	0	3005	1092	2780	56
121	0	0	2973	1099	2779	55
122	0	0	2998	1100	2781	57
123	0	0	3016	1101	2783	58
124	0	0	3070	1101	2786	55
125	0	0	3113	1100	2787	56
126	0	0	3118	1099	2788	55
127	0	0	3136	1100	2787	56
0	0	0	3153	1100	2785	56
1	0	0	3208	1097	2781	59
2	0	0	3271	1100	2779	58
3	0	0	3252	1098	2780	57
4	0	0	3186	1097	2781	57
5	0	0	3126	1096	2783	55
6	0	0	3042	1096	2786	56
7	0	0	2945	1095	2788	56
8	0	0	2838	1096	2789	56
9	0	0	2741	1094	2787	56
10	0	0	2683	1096	2785	57
11	0	0	2633	1098	2781	54
12	0	0	2573	1097	2779	56
13	0	0	2579	1099	2779	55
14	0	0	2625	1100	2781	57
15	0	0	2686	1101	2783	57
16	0	0	2766	1100	2786	56
17	0	0	2816	1101	2788	56
18	0	0	2848	1100	2788	55
19	0	0	2911	1099	2787	56
20	0	0	2971	1099	2785	55
21	0	0	3014	1098	2782	59
22	0	0	3043	1099	2779	55
23	0	0	3057	1102	2780	56
24	0	0	3062	1102	2780	56
25	0	0	3062	1100	2783	58
26	0	0	3049	1102	2786	54
27	0	0	3011	1096	2788	58
28	0	0	2957	1096	2788	56
29	0	0	2912	1099	2788	57
30	0	0	2897	1099	2785	57
31	0	0	2871	1095	2782	57
32	0	0	2812	1096	2780	56
33	0	0	2820	1100	2779	55
34	0	0	2885	1099	2781	56
35	0	0	2972	1099	2783	56
36	0	0	3083	1099	2787	56
37	0	0	3171	1100	2788	55
38	0	0	3225	1101	2789	56
39	0	0	3261	1100	2787	56
40	0	0	3298	1099	2785	58
41	0	0	3329	1102	2782	56
42	0	0	3332	1099	2780	58
43	0	0	3280	1098	2779	56
44	0	0	3239	1100	2781	56
45	0	0	3194	1097	2783	57
46	0	0	3125	1098	2786	54
47	0	0	3053	1095	2788	56
48	0	0	2992	1099	2787	56
49	0	0	2919	1096	2788	57
50	0	0	2858	1098	2786	55
51	0	0	2794	1097	2782	56
52	0	0	2713	1097	2780	58
53	0	0	2698	1099	2779	56
54	0	0	2719	1099	2782	57
55	0	0	2758	1097	2783	56
56	0	0	2841	1101	2786	56
57	0	0	2928	1099	2788	56
58	0	0	3002	1100	2788	58
59	0	0	3053	1100	2788	57
60	0	0	3066	1101	2786	56
61	0	0	3072	1101	2782	56
62	0	0	3100	1100	2780	58
63	0	0	3132	1101	2780	56
64	0	0	3128	1101	2781	57
65	0	0	3088	1096	2783	57
66	0	0	3013	1099	2786	54
67	0	0	2950	1096	2788	58
68	0	0	2898	1097	2788	56
69	0	0	2835	1096	2788	55
70	0	0	2752	1096	2785	55
71	0	0	2651	1099	2782	53
72	0	0	2568	1096	2780	55
73	0	0	2548	1100	2779	56
74	0	0	2553	1100	2781	56
75	0	0	2590	1098	2783	57
76	0	0	2656	1099	2785	56
77	0	0	2733	1099	2788	55
78	0	0	2821	1101	2788	52
79	0	0	2913	1100	2787	56
80	0	0	2975	1103	2785	55
81	0	0	3006	1101	2782	56
82	0	0	3010	1101	2780	58
83	0	0	2962	1098	2780	56
84	0	0	2925	1101	2780	56
85	0	0	2924	1101	2784	56
86	0	0	2920	1100	2786	55
87	0	0	2900	1099	2788	55
88	0	0	2814	1096	2789	55
89	0	0	2726	1097	2788	56
90	0	0	2682	1098	2786	55
91	0	0	2614	1097	2782	56
92	0	0	2532	1096	2780	57
93	0	0	2495	1099	2779	56
94	0	0	2486	1100	2781	53
95	0	0	2499	1099	2783	57
96	0	0	2551	1101	2786	56
97	0	0	2629	1100	2788	59
98	0	0	2702	1101	2788	56
99	0	0	2777	1100	2788	57
100	0	0	2849	1099	2786	56
101	0	0	2873	1101	2782	56
102	0	0	2894	1100	2780	56
103	0	0	2909	1100	2780	56
104	0	0	2896	1101	2781	57
105	0	0	2874	1098	2783	57
106	0	0	2800	1097	2786	56
107	0	0	2728	1098	2788	55
108	0	0	2672	1097	2789	56
109	0	0	2616	1097	2788	60
110	0	0	2576	1097	2785	56
111	0	0	2520	1095	2781	56
112	0	0	2455	1097	2780	56
113	0	0	2424	1099	2780	58
114	0	0	2423	1101	2781	56
115	0	0	2448	1100	2784	55
116	0	0	2490	1100	2786	57
117	0	0	2553	1099	2789	57
118	0	0	2604	1101	2789	58
119	0	0	2597	1101	2789	55
120	0	0	2534	1095	2786	58
121	0	0	2446	1100	2783	58
122	0	0	2368	1100	2781	58
123	0	0	2318	1101	2780	55
124	0	0	2287	1103	2783	57
125	0	0	2275	1103	2784	56
126	0	0	2285	1104	2787	56
127	0	0	2341	1104	2789	55
0	0	0	2413	1103	2789	56
1	0	0	2486	1104	2789	54
2	0	0	2573	1102	2787	51
3	0	0	2656	1101	2782	55
4	0	0	2759	1100	2780	56
5	0	0	2833	1099	2779	51
6	0	0	2849	1096	2782	56
7	0	0	2834	1098	2784	56
8	0	0	2784	1096	2786	57
9	0	0	2699	1095	2788	57
10	0	0	2579	1095	2789	59
11	0	0	2459	1096	2789	58
12	0	0	2363	1098	2786	60
13	0	0	2295	1098	2783	59
14	0	0	2244	1101	2781	57
15	0	0	2219	1104	2780	55
16	0	0	2226	1105	2782	58
17	0	0	2261	1104	2784	56
18	0	0	2303	1104	2787	55
19	0	0	2337	1104	2789	55
20	0	0	2373	1103	2789	55
21	0	0	2426	1102	2787	54
22	0	0	2501	1102	2786	55
23	0	0	2569	1100	2782	55
24	0	0	2647	1100	2780	55
25	0	0	2720	1098	2780	55
26	0	0	2786	1100	2781	55
27	0	0	2828	1098	2784	56
28	0	0	2804	1096	2786	59
29	0	0	2724	1095	2788	57
30	0	0	2601	1095	2789	55
31	0	0	2470	1099	2790	57
32	0	0	2351	1098	2786	58
33	0	0	2245	1098	2783	59
34	0	0	2153	1100	2781	57
35	0	0	2119	1102	2780	56
36	0	0	2110	1105	2782	59
37	0	0	2138	1107	2785	57
38	0	0	2192	1104	2787	55
39	0	0	2258	1104	2789	56
40	0	0	2337	1104	2789	51
41	0	0	2419	1102	2788	55
42	0	0	2519	1102	2785	55
43	0	0	2607	1101	2781	55
44	0	0	2685	1099	2780	55
45	0	0	2724	1098	2779	55
46	0	0	2712	1099	2780	57
47	0	0	2672	1095	2784	56
48	0	0	2619	1096	2787	57
49	0	0	2545	1094	2788	58
50	0	0	2470	1095	2789	56
51	0	0	2404	1097	2789	58
52	0	0	2342	1098	2786	60
53	0	0	2292	1099	2782	57
54	0	0	2266	1102	2781	58
55	0	0	2253	1104	2781	55
56	0	0	2235	1104	2783	58
57	0	0	2215	1105	2785	57
58	0	0	2214	1105	2787	55
59	0	0	2245	1102	2789	55
60	0	0	2308	1103	2789	52
61	0	0	2393	1103	2788	55
62	0	0	2493	1101	2787	55
63	0	0	2587	1100	2782	54
64	0	0	2665	1096	2780	54
65	0	0	2724	1099	2779	51
66	0	0	2738	1099	2781	56
67	0	0	2724	1097	2784	59
68	0	0	2657	1095	2787	59
69	0	0	2578	1096	2789	57
70	0	0	2510	1095	2789	56
71	0	0	2426	1097	2789	59
72	0	0	2318	1097	2787	58
73	0	0	2231	1100	2783	58
74	0	0	2151	1098	2781	59
75	0	0	2108	1101	2782	57
76	0	0	2085	1103	2782	56
77	0	0	2089	1103	2784	55
78	0	0	2137	1105	2787	55
79	0	0	2191	1103	2789	54
80	0	0	2247	1103	2789	54
81	0	0	2312	1104	2789	55
82	0	0	2388	1102	2787	54
83	0	0	2468	1101	2782	53
84	0	0	2549	1099	2781	55
85	0	0	2605	1098	2780	52
86	0	0	2631	1101	2781	56
87	0	0	2637	1098	2784	55
88	0	0	2595	1095	2787	57
89	0	0	2515	1094	2789	57
90	0	0	2422	1096	2789	56
91	0	0	2335	1097	2789	58
92	0	0	2252	1098	2787	58
93	0	0	2176	1099	2782	57
94	0	0	2082	1099	2782	59
95	0	0	1990	1100	2781	56
96	0	0	1949	1101	2783	58
97	0	0	1944	1106	2784	55
98	0	0	1966	1103	2786	52
99	0	0	2050	1102	2789	55
100	0	0	2156	1103	2789	52
101	0	0	2250	1103	2788	55
102	0	0	2308	1102	2786	53
103	0	0	2363	1100	2783	53
104	0	0	2433	1099	2780	55
105	0	0	2513	1098	2780	54
106	0	0	2562	1098	2781	55
107	0	0	2567	1098	2784	58
108	0	0	2511	1095	2785	56
109	0	0	2423	1094	2789	57
110	0	0	2340	1095	2789	56
111	0	0	2241	1096	2789	58
112	0	0	2145	1096	2787	59
113	0	0	2057	1100	2783	59
114	0	0	1980	1101	2781	57
115	0	0	1952	1102	2780	56
116	0	0	1922	1100	2783	58
117	0	0	1909	1105	2785	55
118	0	0	1926	1104	2786	56
119	0	0	1989	1104	2789	56
120	0	0	2076	1103	2789	52
121	0	0	2155	1101	2789	55
122	0	0	2221	1101	2787	53
123	0	0	2282	1102	2782	52
124	0	0	2380	1096	2780	56
125	0	0	2487	1098	2780	55
126	0	0	2511	1098	2781	55
127	0	0	2445	1094	2784	55
0	0	0	2360	1095	2787	56
1	0	0	2315	1096	2789	57
2	0	0	2278	1096	2789	57
3	0	0	2189	1097	2789	58
4	0	0	2071	1096	2787	58
5	0	0	1967	1098	2783	59
6	0	0	1887	1098	2781	58
7	0	0	1827	1100	2781	56
8	0	0	1792	1102	2782	58
9	0	0	1793	1104	2785	56
10	0	0	1816	1105	2787	56
11	0	0	1881	1106	2789	55
12	0	0	1979	1103	2791	55
13	0	0	2074	1102	2789	54
14	0	0	2160	1102	2787	53
15	0	0	2240	1097	2783	53
16	0	0	2297	1099	2780	55
17	0	0	2341	1098	2780	55
18	0	0	2347	1096	2781	56
19	0	0	2327	1098	2784	55
20	0	0	2285	1096	2786	56
21	0	0	2227	1097	2789	57
22	0	0	2158	1096	2790	59
23	0	0	2078	1096	2790	58
24	0	0	1990	1097	2787	60
25	0	0	1924	1098	2783	60
26	0	0	1850	1099	2781	58
27	0	0	1777	1100	2781	58
28	0	0	1747	1103	2783	58
29	0	0	1763	1103	2785	56
30	0	0	1789	1103	2787	54
31	0	0	1833	1107	2789	55
32	0	0	1887	1104	2790	55
33	0	0	1939	1101	2789	55
34	0	0	2002	1104	2787	52
35	0	0	2077	1101	2782	56
36	0	0	2150	1103	2780	54
37	0	0	2204	1098	2779	55
38	0	0	2234	1099	2782	55
39	0	0	2234	1098	2785	57
40	0	0	2193	1095	2786	56
41	0	0	2130	1097	2788	57
42	0	0	2034	1096	2789	57
43	0	0	1929	1096	2789	57
44	0	0	1827	1099	2787	57
45	0	0	1729	1099	2783	59
46	0	0	1658	1102	2782	58
47	0	0	1602	1102	2780	56
48	0	0	1588	1104	2782	58
49	0	0	1601	1106	2784	56
50	0	0	1616	1105	2787	55
51	0	0	1638	1104	2789	55
52	0	0	1694	1103	2790	55
53	0	0	1783	1103	2789	51
54	0	0	1889	1104	2787	55
55	0	0	2010	1100	2782	55
56	0	0	2138	1103	2780	55
57	0	0	2219	1099	2780	55
58	0	0	2222	1098	2781	55
59	0	0	2204	1098	2783	57
60	0	0	2141	1095	2786	56
61	0	0	2029	1097	2789	57
62	0	0	1915	1096	2790	57
63	0	0	1827	1097	2789	58
64	0	0	1741	1098	2787	58
65	0	0	1665	1099	2784	57
66	0	0	1580	1101	2781	58
67	0	0	1517	1101	2782	58
68	0	0	1486	1100	2782	56
69	0	0	1480	1105	2784	58
70	0	0	1525	1104	2787	55
71	0	0	1591	1109	2789	54
72	0	0	1672	1105	2789	55
73	0	0	1770	1102	2788	54
74	0	0	1856	1103	2786	53
75	0	0	1944	1101	2783	55
76	0	0	2042	1100	2780	56
77	0	0	2100	1099	2780	56
78	0	0	2122	1099	2781	57
79	0	0	2091	1097	2783	57
80	0	0	1988	1094	2787	55
81	0	0	1844	1097	2789	57
82	0	0	1754	1096	2789	57
83	0	0	1720	1097	2790	58
84	0	0	1665	1097	2788	58
85	0	0	1567	1100	2785	58
86	0	0	1465	1101	2782	59
87	0	0	1397	1100	2781	56
88	0	0	1379	1103	2783	57
89	0	0	1387	1105	2784	58
90	0	0	1413	1105	2787	55
91	0	0	1482	1104	2790	55
92	0	0	1578	1104	2789	55
93	0	0	1674	1103	2789	55
94	0	0	1766	1104	2787	55
95	0	0	1851	1101	2782	55
96	0	0	1939	1101	2780	55
97	0	0	2025	1099	2781	55
98	0	0	2076	1099	2781	55
99	0	0	2064	1095	2784	55
100	0	0	1973	1095	2787	56
101	0	0	1855	1096	2789	57
102	0	0	1760	1096	2790	58
103	0	0	1664	1095	2789	58
104	0	0	1541	1098	2787	58
105	0	0	1420	1099	2784	57
106	0	0	1334	1100	2781	58
107	0	0	1313	1105	2781	59
108	0	0	1334	1103	2782	56
109	0	0	1370	1104	2784	55
110	0	0	1429	1106	2787	55
111	0	0	1494	1104	2789	56
112	0	0	1555	1104	2789	55
113	0	0	1636	1104	2789	55
114	0	0	1727	1103	2787	56
115	0	0	1811	1100	2784	55
116	0	0	1900	1102	2780	54
117	0	0	1967	1099	2780	55
118	0	0	2012	1099	2781	56
119	0	0	2024	1099	2784	58
120	0	0	1988	1096	2787	57
121	0	0	1927	1094	2789	57
122	0	0	1846	1096	2789	57
123	0	0	1759	1096	2789	58
124	0	0	1680	1098	2787	58
125	0	0	1610	1100	2784	59
126	0	0	1551	1101	2781	57
127	0	0	1510	1103	2781	57
0	0	0	1500	1104	2783	57
1	0	0	1506	1106	2785	56
2	0	0	1521	1106	2787	55
3	0	0	1576	1104	2789	56
4	0	0	1666	1105	2789	53
5	0	0	1754	1104	2788	55
6	0	0	1839	1102	2787	53
7	0	0	1914	1102	2783	55
8	0	0	1984	1100	2780	55
9	0	0	2039	1100	2780	55
10	0	0	2084	1099	2781	55
11	0	0	2090	1099	2784	57
12	0	0	2049	1097	2787	58
13	0	0	1979	1098	2788	57
14	0	0	1883	1096	2790	57
15	0	0	1761	1097	2789	58
16	0	0	1661	1098	2787	58
17	0	0	1600	1101	2784	55
18	0	0	1538	1100	2781	58
19	0	0	1501	1103	2781	57
20	0	0	1520	1106	2783	57
21	0	0	1577	1106	2783	56
22	0	0	1624	1106	2788	55
23	0	0	1671	1106	2789	55
24	0	0	1742	1104	2789	55
25	0	0	1818	1105	2788	54
26	0	0	1894	1102	2787	52
27	0	0	1970	1103	2782	51
28	0	0	2039	1100	2780	54
29	0	0	2096	1100	2780	54
30	0	0	2136	1100	2782	55
31	0	0	2150	1100	2784	55
32	0	0	2112	1097	2787	57
33	0	0	2046	1099	2789	57
34	0	0	1961	1097	2790	57
35	0	0	1880	1098	2789	58
36	0	0	1794	1099	2788	58
37	0	0	1710	1100	2784	59
38	0	0	1649	1102	2782	57
39	0	0	1613	1103	2781	58
40	0	0	1615	1106	2783	57
41	0	0	1615	1106	2785	57
42	0	0	1624	1107	2787	53
43	0	0	1664	1103	2789	56
44	0	0	1732	1106	2790	54
45	0	0	1826	1106	2789	55
46	0	0	1938	1104	2787	54
47	0	0	2052	1102	2783	54
48	0	0	2159	1103	2780	55
49	0	0	2222	1101	2780	55
50	0	0	2243	1100	2782	55
51	0	0	2226	1097	2785	57
52	0	0	2169	1097	2787	57
53	0	0	2102	1099	2789	58
54	0	0	2021	1098	2790	57
55	0	0	1930	1098	2790	58
56	0	0	1830	1100	2787	58
57	0	0	1744	1101	2783	60
58	0	0	1685	1102	2782	58
59	0	0	1640	1103	2781	57
60	0	0	1618	1105	2782	57
61	0	0	1618	1105	2784	55
62	0	0	1642	1107	2787	53
63	0	0	1698	1108	2789	54
64	0	0	1786	1106	2790	55
65	0	0	1888	1103	2789	54
66	0	0	1980	1103	2787	52
67	0	0	2078	1103	2783	54
68	0	0	2184	1103	2780	55
69	0	0	2269	1101	2780	55
70	0	0	2289	1100	2783	56
71	0	0	2243	1097	2784	53
72	0	0	2166	1096	2787	57
73	0	0	2070	1095	2789	57
74	0	0	1966	1098	2790	58
75	0	0	1889	1099	2789	57
76	0	0	1807	1099	2787	56
77	0	0	1701	1101	2783	59
78	0	0	1590	1103	2781	57
79	0	0	1555	1104	2781	58
80	0	0	1548	1105	2783	56
81	0	0	1541	1107	2786	55
82	0	0	1571	1107	2787	56
83	0	0	1650	1104	2789	54
84	0	0	1745	1106	2790	55
85	0	0	1856	1104	2789	55
86	0	0	1967	1104	2787	52
87	0	0	2066	1103	2784	54
88	0	0	2172	1100	2780	54
89	0	0	2254	1101	2780	55
90	0	0	2305	1102	2782	55
91	0	0	2334	1101	2785	53
92	0	0	2315	1099	2788	58
93	0	0	2255	1098	2789	57
94	0	0	2160	1098	2789	58
95	0	0	2045	1100	2790	58
96	0	0	1932	1100	2788	55
97	0	0	1828	1101	2783	59
98	0	0	1733	1103	2781	59
99	0	0	1666	1103	2781	58
100	0	0	1638	1107	2783	57
101	0	0	1657	1108	2784	56
102	0	0	1700	1107	2788	55
103	0	0	1756	1107	2789	55
104	0	0	1833	1106	2790	55
105	0	0	1916	1104	2790	55
106	0	0	2000	1104	2787	56
107	0	0	2076	1104	2782	55
108	0	0	2148	1103	2781	54
109	0	0	2202	1102	2780	54
110	0	0	2243	1101	2782	56
111	0	0	2257	1102	2785	52
112	0	0	2219	1097	2786	55
113	0	0	2140	1097	2789	57
114	0	0	2058	1099	2790	57
115	0	0	1970	1099	2790	56
116	0	0	1863	1101	2788	55
117	0	0	1760	1102	2784	56
118	0	0	1646	1100	2782	56
119	0	0	1580	1103	2781	58
120	0	0	1578	1108	2783	55
121	0	0	1601	1108	2785	52
122	0	0	1657	1108	2787	55
123	0	0	1699	1107	2789	55
124	0	0	1775	1107	2789	54
125	0	0	1898	1103	2789	52
126	0	0	1995	1106	2787	51
127	0	0	2073	1103	2782	55
0	0	0	2139	1101	2780	54
1	0	0	2188	1102	2780	56
2	0	0	2211	1102	2782	53
3	0	0	2208	1102	2784	56
4	0	0	2168	1099	2786	55
5	0	0	2097	1097	2789	56
6	0	0	2012	1100	2791	57
7	0	0	1935	1102	2789	57
8	0	0	1866	1102	2788	55
9	0	0	1798	1103	2784	59
10	0	0	1704	1102	2781	57
11	0	0	1616	1104	2781	59
12	0	0	1568	1108	2782	57
13	0	0	1566	1110	2784	55
14	0	0	1592	1109	2788	57
15	0	0	1667	1108	2789	55
16	0	0	1768	1107	2789	54
17	0	0	1868	1107	2790	54
18	0	0	1968	1106	2788	55
19	0	0	2068	1104	2783	55
20	0	0	2145	1102	2780	55
21	0	0	2221	1102	2780	56
22	0	0	2297	1102	2782	57
23	0	0	2313	1099	2784	57
24	0	0	2234	1098	2787	57
25	0	0	2104	1096	2789	57
26	0	0	1959	1099	2791	58
27	0	0	1811	1102	2789	57
28	0	0	1705	1100	2787	58
29	0	0	1630	1102	2784	58
30	0	0	1552	1103	2781	57
31	0	0	1490	1104	2781	60
32	0	0	1472	1107	2782	57
33	0	0	1506	1107	2785	55
34	0	0	1584	1109	2787	55
35	0	0	1665	1108	2789	55
36	0	0	1726	1107	2789	66
37	0	0	1802	1106	2789	466
38	0	0	1879	1107	2786	1298
39	0	0	1930	1105	2782	2097
40	0	0	2016	1104	2781	2669
41	0	0	2121	1103	2781	3051
42	0	0	2199	1099	2781	3298
43	0	0	2223	1101	2784	3462
44	0	0	2203	1099	2786	3571
45	0	0	2151	1099	2790	3654
46	0	0	2098	1100	2790	3707
47	0	0	2058	1099	2790	3751
48	0	0	2016	1104	2787	3788
49	0	0	1990	1105	2784	3813
50	0	0	1987	1107	2782	3834
51	0	0	1994	1108	2781	3850
52	0	0	2005	1109	2782	3865
53	0	0	2049	1107	2785	3876
54	0	0	2093	1108	2788	3887
55	0	0	2183	1107	2790	3896
56	0	0	2309	1107	2790	3903
57	0	0	2444	1107	2789	3911
58	0	0	2598	1105	2787	3916
59	0	0	2749	1105	2784	3921
60	0	0	2894	1102	2780	3927
61	0	0	3036	1103	2780	3928
62	0	0	3119	1102	2781	3934
63	0	0	3133	1104	2784	3936
64	0	0	3061	1099	2786	3940
65	0	0	2962	1100	2789	3943
66	0	0	2851	1099	2790	3945
67	0	0	2730	1101	2789	3947
68	0	0	2600	1101	2787	3950
69	0	0	2468	1103	2784	3952
70	0	0	2349	1100	2782	3953
71	0	0	2237	1099	2781	3954
72	0	0	2158	1105	2783	3957
73	0	0	2109	1106	2785	3959
74	0	0	2095	1108	2788	3962
75	0	0	2117	1109	2789	3964
76	0	0	2163	1110	2789	3961
77	0	0	2215	1106	2790	3964
78	0	0	2269	1106	2787	3968
79	0	0	2332	1105	2782	3964
80	0	0	2403	1103	2781	3968
81	0	0	2450	1103	2780	3967
82	0	0	2459	1101	2782	3967
83	0	0	2416	1100	2784	3971
84	0	0	2311	1099	2786	3969
85	0	0	2157	1099	2789	3971
86	0	0	2012	1100	2789	3971
87	0	0	1890	1101	2791	3973
88	0	0	1789	1101	2787	3972
89	0	0	1712	1104	2783	3972
90	0	0	1646	1104	2782	3974
91	0	0	1596	1105	2781	3974
92	0	0	1560	1107	2782	3974
93	0	0	1563	1112	2784	3976
94	0	0	1601	1111	2787	3976
95	0	0	1644	1109	2789	3975
96	0	0	1734	1109	2790	3977
97	0	0	1857	1107	2789	3977
