# bioPlux Text File Format
# Version: 1
# StartDateTime: 2011-07-19 08:30:22
# SamplingFrequency: 1000
# SampledChannels: 1 2 3 4 5
# SamplingResolution: 12
# AcquiringDevice: 00:07:80:42:0F:95
# EndOfHeader
0	0	0	2134	4	185	1897	3166
1	0	0	2148	5	185	1898	3165
2	0	0	2161	5	183	1898	3166
3	0	0	2140	4	184	1897	3168
4	0	0	2102	4	183	1897	3169
5	0	0	2040	4	183	1897	3171
6	0	0	1941	4	184	1897	3173
7	0	0	1865	4	183	1898	3173
8	0	0	1812	4	183	1897	3172
9	0	0	1780	4	184	1897	3169
10	0	0	1712	5	183	1898	3166
11	0	0	1660	5	184	1897	3165
12	0	0	1692	4	182	1898	3166
13	0	0	1774	5	183	1897	3168
14	0	0	1857	4	184	1897	3169
15	0	0	1938	5	183	1897	3171
16	0	0	2031	5	184	1897	3172
17	0	0	2103	4	183	1898	3173
18	0	0	2123	5	183	1898	3173
19	0	0	2099	4	183	1897	3169
20	0	0	2105	5	184	1898	3166
21	0	0	2092	4	182	1898	3165
22	0	0	2039	4	182	1898	3166
23	0	0	1989	4	183	1897	3167
24	0	0	1936	4	184	1897	3169
25	0	0	1885	4	183	1898	3171
26	0	0	1864	5	184	1898	3172
27	0	0	1860	4	182	1898	3173
28	0	0	1844	4	183	1897	3172
29	0	0	1825	4	183	1897	3169
30	0	0	1756	4	183	1897	3166
31	0	0	1694	4	183	1898	3165
32	0	0	1692	5	184	1898	3166
33	0	0	1724	5	183	1897	3168
34	0	0	1789	5	185	1897	3169
35	0	0	1870	5	182	1898	3171
36	0	0	1936	5	184	1897	3173
37	0	0	1997	5	184	1898	3174
38	0	0	2054	5	183	1898	3172
39	0	0	2094	5	183	1898	3170
40	0	0	2120	5	184	1897	3166
41	0	0	2109	4	183	1898	3164
42	0	0	2071	3	185	1898	3166
43	0	0	2026	4	185	1898	3168
44	0	0	1976	5	183	1897	3169
45	0	0	1929	3	184	1897	3172
46	0	0	1886	4	184	1898	3172
47	0	0	1849	3	183	1898	3173
48	0	0	1819	4	183	1898	3172
49	0	0	1783	4	183	1898	3171
50	0	0	1734	4	184	1898	3166
51	0	0	1710	4	183	1898	3165
52	0	0	1721	4	183	1898	3166
53	0	0	1762	5	183	1898	3168
54	0	0	1832	5	185	1898	3169
55	0	0	1920	4	184	1898	3171
56	0	0	1999	5	183	1898	3173
57	0	0	2060	5	184	1898	3173
58	0	0	2084	5	184	1898	3173
59	0	0	2077	5	183	1897	3169
60	0	0	2096	5	183	1897	3166
61	0	0	2116	5	184	1898	3165
62	0	0	2100	3	183	1898	3166
63	0	0	2051	4	184	1897	3168
64	0	0	1993	4	183	1897	3169
65	0	0	1931	4	183	1897	3172
66	0	0	1870	4	183	1898	3173
67	0	0	1832	4	184	1898	3174
68	0	0	1831	5	183	1897	3172
69	0	0	1841	5	182	1898	3171
70	0	0	1820	4	185	1898	3166
71	0	0	1784	4	183	1898	3165
72	0	0	1772	4	182	1898	3166
73	0	0	1783	5	183	1897	3168
74	0	0	1823	5	184	1898	3170
75	0	0	1904	4	182	1898	3171
76	0	0	1968	5	182	1898	3173
77	0	0	2022	4	183	1898	3173
78	0	0	2073	4	183	1898	3172
79	0	0	2097	5	183	1897	3169
80	0	0	2118	5	184	1898	3167
81	0	0	2128	5	182	1898	3166
82	0	0	2132	4	184	1898	3166
83	0	0	2086	4	184	1897	3168
84	0	0	1999	4	182	1898	3170
85	0	0	1933	4	185	1898	3171
86	0	0	1875	4	185	1898	3172
87	0	0	1816	4	183	1898	3173
88	0	0	1759	4	182	1897	3173
89	0	0	1729	4	183	1897	3170
90	0	0	1718	4	184	1897	3166
91	0	0	1744	5	183	1898	3165
92	0	0	1804	5	183	1898	3166
93	0	0	1882	5	184	1898	3168
94	0	0	1941	5	183	1897	3169
95	0	0	1990	5	183	1897	3171
96	0	0	2036	5	184	1898	3173
97	0	0	2076	5	183	1898	3174
98	0	0	2094	5	183	1897	3172
99	0	0	2100	5	183	1898	3170
100	0	0	2121	4	183	1898	3166
101	0	0	2118	4	183	1898	3166
102	0	0	2084	3	183	1898	3166
103	0	0	2036	4	183	1898	3168
104	0	0	1990	5	183	1897	3169
105	0	0	1963	4	183	1897	3171
106	0	0	1961	5	184	1898	3172
107	0	0	1951	3	184	1898	3173
108	0	0	1903	4	183	1897	3172
109	0	0	1889	5	184	1897	3170
110	0	0	1854	4	182	1898	3166
111	0	0	1810	4	182	1898	3165
112	0	0	1810	5	183	1898	3167
113	0	0	1830	5	183	1897	3168
114	0	0	1878	4	182	1897	3169
115	0	0	1968	5	183	1897	3172
116	0	0	2069	5	183	1898	3173
117	0	0	2142	4	184	1898	3173
118	0	0	2180	5	183	1897	3172
119	0	0	2195	5	184	1897	3170
120	0	0	2219	5	183	1898	3166
121	0	0	2242	4	182	1898	3165
122	0	0	2232	4	183	1898	3166
123	0	0	2201	4	183	1898	3168
124	0	0	2172	4	184	1897	3169
125	0	0	2127	4	183	1897	3171
126	0	0	2054	4	184	1898	3173
127	0	0	1959	4	184	1898	3174
0	0	0	1882	4	183	1897	3172
1	0	0	1853	4	184	1898	3171
2	0	0	1821	4	183	1898	3167
3	0	0	1807	5	183	1898	3165
4	0	0	1842	5	183	1898	3167
5	0	0	1876	5	182	1897	3168
6	0	0	1918	5	184	1898	3171
7	0	0	1998	5	184	1897	3171
8	0	0	2069	5	183	1898	3173
9	0	0	2126	3	183	1898	3173
10	0	0	2171	5	183	1897	3172
11	0	0	2190	5	183	1898	3170
12	0	0	2221	5	183	1897	3166
13	0	0	2251	5	184	1897	3165
14	0	0	2224	3	183	1898	3166
15	0	0	2175	5	182	1898	3168
16	0	0	2125	4	183	1898	3169
17	0	0	2077	4	185	1897	3172
18	0	0	2028	4	184	1898	3173
19	0	0	1981	4	183	1898	3174
20	0	0	1941	4	182	1898	3173
21	0	0	1904	4	183	1898	3170
22	0	0	1845	4	182	1898	3167
23	0	0	1797	4	182	1898	3166
24	0	0	1792	4	183	1898	3166
25	0	0	1819	5	183	1897	3168
26	0	0	1862	5	183	1898	3170
27	0	0	1955	5	184	1898	3172
28	0	0	2042	5	183	1898	3173
29	0	0	2106	4	183	1898	3174
30	0	0	2173	5	183	1897	3173
31	0	0	2250	5	183	1897	3170
32	0	0	2331	5	183	1897	3167
33	0	0	2368	5	182	1897	3165
34	0	0	2342	3	184	1898	3166
35	0	0	2277	4	183	1898	3169
36	0	0	2196	4	184	1897	3170
37	0	0	2118	4	184	1897	3172
38	0	0	2032	4	184	1898	3173
39	0	0	1962	4	183	1898	3174
40	0	0	1918	4	183	1897	3172
41	0	0	1900	3	182	1898	3170
42	0	0	1870	4	183	1897	3167
43	0	0	1861	5	182	1897	3165
44	0	0	1864	4	182	1898	3166
45	0	0	1861	5	184	1897	3168
46	0	0	1886	5	184	1898	3170
47	0	0	1957	5	183	1897	3172
48	0	0	2040	5	184	1898	3174
49	0	0	2110	4	184	1898	3174
50	0	0	2169	5	184	1898	3173
51	0	0	2212	6	182	1898	3170
52	0	0	2249	5	183	1898	3167
53	0	0	2262	5	182	1898	3166
54	0	0	2240	4	183	1898	3167
55	0	0	2202	4	182	1897	3168
56	0	0	2156	4	183	1897	3170
57	0	0	2098	4	184	1897	3172
58	0	0	2016	4	181	1897	3173
59	0	0	1936	4	183	1898	3173
60	0	0	1883	5	183	1897	3172
61	0	0	1845	4	183	1897	3170
62	0	0	1794	4	184	1898	3167
63	0	0	1761	4	183	1898	3166
64	0	0	1783	4	183	1898	3166
65	0	0	1822	5	184	1898	3168
66	0	0	1880	6	183	1897	3169
67	0	0	1969	5	182	1897	3172
68	0	0	2060	4	185	1898	3173
69	0	0	2147	5	182	1898	3174
70	0	0	2220	5	183	1897	3172
71	0	0	2262	5	183	1898	3171
72	0	0	2287	5	185	1897	3167
73	0	0	2299	5	185	1898	3165
74	0	0	2240	4	183	1898	3166
75	0	0	2132	4	184	1898	3168
76	0	0	2038	5	184	1897	3170
77	0	0	1994	4	185	1898	3172
78	0	0	1958	4	185	1898	3173
79	0	0	1909	4	183	1898	3174
80	0	0	1880	4	184	1898	3173
81	0	0	1868	5	183	1898	3170
82	0	0	1832	4	183	1897	3167
83	0	0	1784	4	183	1898	3165
84	0	0	1782	5	182	1898	3166
85	0	0	1817	5	184	1898	3168
86	0	0	1879	5	183	1897	3170
87	0	0	1969	4	184	1897	3172
88	0	0	2059	5	183	1897	3173
89	0	0	2117	5	182	1898	3174
90	0	0	2148	5	184	1898	3173
91	0	0	2169	5	183	1898	3171
92	0	0	2195	5	184	1898	3167
93	0	0	2200	5	185	1898	3165
94	0	0	2158	4	184	1898	3167
95	0	0	2123	4	184	1898	3168
96	0	0	2102	4	183	1898	3170
97	0	0	2070	4	183	1898	3172
98	0	0	2023	4	183	1898	3173
99	0	0	1958	4	184	1898	3174
100	0	0	1893	4	185	1897	3173
101	0	0	1842	4	184	1897	3171
102	0	0	1782	3	182	1897	3167
103	0	0	1731	4	183	1898	3166
104	0	0	1725	5	183	1898	3166
105	0	0	1755	5	182	1897	3168
106	0	0	1801	4	183	1898	3171
107	0	0	1885	4	184	1898	3172
108	0	0	1978	4	183	1898	3173
109	0	0	2053	5	184	1898	3174
110	0	0	2110	5	183	1898	3173
111	0	0	2157	4	183	1897	3171
112	0	0	2181	5	182	1897	3167
113	0	0	2185	5	184	1897	3166
114	0	0	2164	4	183	1898	3166
115	0	0	2137	4	184	1897	3168
116	0	0	2097	4	184	1897	3169
117	0	0	2046	4	183	1898	3172
118	0	0	1995	4	183	1898	3174
119	0	0	1926	4	184	1898	3174
120	0	0	1875	4	184	1898	3174
121	0	0	1842	4	184	1897	3171
122	0	0	1791	4	183	1897	3167
123	0	0	1766	4	182	1897	3166
124	0	0	1804	5	182	1898	3167
125	0	0	1880	5	183	1897	3168
126	0	0	1949	5	183	1897	3170
127	0	0	2017	4	182	1898	3172
0	0	0	2091	5	184	1897	3173
1	0	0	2167	5	184	1897	3174
2	0	0	2220	5	183	1897	3173
3	0	0	2243	4	184	1898	3172
4	0	0	2236	5	183	1897	3167
5	0	0	2220	5	183	1897	3166
6	0	0	2182	4	184	1898	3167
7	0	0	2134	4	183	1897	3168
8	0	0	2075	4	185	1897	3170
9	0	0	2013	4	183	1897	3172
10	0	0	2003	5	183	1897	3173
11	0	0	1992	4	184	1898	3174
12	0	0	1956	4	184	1897	3173
13	0	0	1923	4	183	1897	3171
14	0	0	1876	4	183	1898	3168
15	0	0	1814	4	184	1898	3167
16	0	0	1775	4	182	1898	3167
17	0	0	1786	5	183	1898	3169
18	0	0	1829	4	182	1897	3170
19	0	0	1898	5	184	1897	3172
20	0	0	1978	5	184	1897	3173
21	0	0	2056	5	184	1898	3174
22	0	0	2148	6	185	1897	3173
23	0	0	2249	5	183	1897	3171
24	0	0	2331	5	184	1897	3167
25	0	0	2370	5	184	1897	3166
26	0	0	2358	5	183	1898	3167
27	0	0	2291	4	183	1897	3168
28	0	0	2205	4	183	1897	3170
29	0	0	2142	4	181	1897	3172
30	0	0	2086	5	183	1897	3174
31	0	0	2020	4	184	1898	3174
32	0	0	1953	4	183	1897	3173
33	0	0	1891	4	184	1898	3172
34	0	0	1817	4	182	1898	3168
35	0	0	1758	4	184	1897	3166
36	0	0	1753	5	183	1898	3167
37	0	0	1785	5	183	1897	3168
38	0	0	1850	5	183	1898	3171
39	0	0	1952	5	183	1897	3172
40	0	0	2064	5	184	1897	3173
41	0	0	2155	5	183	1898	3174
42	0	0	2184	5	183	1897	3173
43	0	0	2151	4	184	1897	3171
44	0	0	2121	5	184	1897	3167
45	0	0	2109	4	185	1898	3166
46	0	0	2085	4	183	1898	3167
47	0	0	2083	5	184	1898	3169
48	0	0	2058	4	182	1897	3170
49	0	0	2015	4	183	1898	3172
50	0	0	1977	4	183	1898	3174
51	0	0	1950	4	183	1898	3174
52	0	0	1931	5	184	1897	3173
53	0	0	1910	4	183	1897	3171
54	0	0	1866	4	184	1898	3167
55	0	0	1822	4	182	1897	3166
56	0	0	1821	4	183	1898	3167
57	0	0	1867	5	183	1897	3168
58	0	0	1952	5	182	1898	3170
59	0	0	2053	5	183	1897	3172
60	0	0	2137	5	183	1897	3174
61	0	0	2178	5	183	1898	3174
62	0	0	2188	5	183	1897	3173
63	0	0	2190	5	182	1897	3171
64	0	0	2226	4	184	1897	3168
65	0	0	2266	5	183	1897	3166
66	0	0	2246	4	182	1898	3167
67	0	0	2197	4	182	1898	3168
68	0	0	2142	4	183	1897	3170
69	0	0	2061	3	183	1897	3172
70	0	0	1976	4	183	1897	3174
71	0	0	1908	4	182	1898	3174
72	0	0	1857	4	183	1898	3174
73	0	0	1844	5	182	1897	3171
74	0	0	1806	4	183	1898	3168
75	0	0	1777	4	183	1898	3167
76	0	0	1822	5	183	1898	3167
77	0	0	1904	5	183	1898	3169
78	0	0	1945	6	183	1897	3170
79	0	0	1970	5	184	1898	3172
80	0	0	2012	4	184	1898	3174
81	0	0	2059	5	183	1898	3174
82	0	0	2119	5	184	1898	3174
83	0	0	2175	5	182	1898	3171
84	0	0	2217	5	183	1898	3168
85	0	0	2246	5	184	1898	3167
86	0	0	2239	5	183	1898	3167
87	0	0	2191	4	183	1898	3169
88	0	0	2125	4	184	1897	3170
89	0	0	2056	4	182	1897	3172
90	0	0	1991	4	184	1898	3174
91	0	0	1925	4	183	1898	3174
92	0	0	1877	4	182	1897	3174
93	0	0	1850	4	184	1897	3171
94	0	0	1831	4	184	1898	3168
95	0	0	1840	5	183	1898	3166
96	0	0	1885	5	184	1898	3167
97	0	0	1916	5	183	1897	3169
98	0	0	1943	5	183	1898	3171
99	0	0	2004	4	183	1897	3172
100	0	0	2060	5	183	1897	3174
101	0	0	2096	5	184	1898	3174
102	0	0	2119	5	183	1898	3174
103	0	0	2126	5	184	1897	3171
104	0	0	2158	5	182	1898	3168
105	0	0	2200	5	183	1897	3166
106	0	0	2193	5	184	1898	3167
107	0	0	2161	4	184	1897	3168
108	0	0	2119	5	185	1897	3170
109	0	0	2059	4	184	1898	3172
110	0	0	2007	4	183	1898	3174
111	0	0	1977	4	184	1898	3175
112	0	0	1950	4	183	1897	3174
113	0	0	1929	4	184	1897	3172
114	0	0	1887	4	184	1898	3168
115	0	0	1834	4	184	1898	3167
116	0	0	1814	5	183	1898	3167
117	0	0	1839	5	183	1898	3169
118	0	0	1909	4	182	1897	3170
119	0	0	2003	5	183	1898	3172
120	0	0	2089	5	183	1897	3174
121	0	0	2151	5	185	1898	3174
122	0	0	2185	5	183	1898	3173
123	0	0	2187	5	184	1898	3172
124	0	0	2201	5	184	1898	3168
125	0	0	2191	4	183	1898	3166
126	0	0	2123	4	184	1898	3168
127	0	0	2034	4	184	1897	3168
0	0	0	1922	4	185	1897	3170
1	0	0	1838	4	183	1898	3173
2	0	0	1815	4	182	1898	3175
3	0	0	1805	5	183	1898	3175
4	0	0	1802	7	184	1898	3174
5	0	0	1801	4	182	1897	3172
6	0	0	1766	4	183	1898	3168
7	0	0	1725	4	184	1898	3166
8	0	0	1747	5	183	1898	3167
9	0	0	1817	5	184	1897	3168
10	0	0	1901	4	182	1898	3171
11	0	0	1995	5	184	1898	3172
12	0	0	2075	5	184	1897	3174
13	0	0	2127	5	183	1898	3175
14	0	0	2156	5	183	1897	3174
15	0	0	2179	3	182	1898	3172
16	0	0	2210	5	184	1897	3168
17	0	0	2245	5	184	1898	3167
18	0	0	2235	4	183	1898	3167
19	0	0	2180	4	183	1898	3169
20	0	0	2108	4	183	1897	3170
21	0	0	2029	4	183	1897	3172
22	0	0	1977	4	183	1897	3174
23	0	0	1941	4	181	1898	3175
24	0	0	1910	4	183	1897	3174
25	0	0	1885	4	183	1897	3172
26	0	0	1837	4	184	1898	3168
27	0	0	1765	4	184	1897	3167
28	0	0	1749	5	183	1898	3168
29	0	0	1772	5	184	1898	3168
30	0	0	1803	4	182	1898	3171
31	0	0	1856	5	184	1898	3173
32	0	0	1907	5	184	1898	3174
33	0	0	1961	5	182	1898	3175
34	0	0	1998	5	183	1898	3175
35	0	0	2044	5	184	1898	3172
36	0	0	2128	5	184	1897	3168
37	0	0	2210	5	184	1897	3167
38	0	0	2246	5	183	1898	3168
39	0	0	2241	5	182	1898	3168
40	0	0	2201	4	184	1898	3170
41	0	0	2135	4	183	1898	3172
42	0	0	2071	4	182	1897	3174
43	0	0	2011	4	181	1898	3175
44	0	0	1961	4	182	1898	3174
45	0	0	1919	5	183	1898	3172
46	0	0	1864	4	184	1898	3168
47	0	0	1807	4	183	1897	3167
48	0	0	1796	5	183	1898	3168
49	0	0	1840	5	183	1897	3169
50	0	0	1907	5	183	1897	3170
51	0	0	1974	5	183	1898	3173
52	0	0	2032	5	183	1898	3175
53	0	0	2083	5	182	1898	3175
54	0	0	2111	5	183	1898	3174
55	0	0	2122	5	184	1897	3172
56	0	0	2134	5	184	1898	3168
57	0	0	2163	5	183	1898	3167
58	0	0	2172	5	183	1898	3168
59	0	0	2144	4	184	1898	3168
60	0	0	2098	4	184	1897	3170
61	0	0	2039	4	183	1897	3172
62	0	0	1983	4	185	1898	3175
63	0	0	1915	4	186	1898	3175
64	0	0	1844	4	183	1898	3174
65	0	0	1788	5	183	1898	3172
66	0	0	1741	4	182	1898	3169
67	0	0	1699	4	183	1898	3167
68	0	0	1731	5	184	1898	3168
69	0	0	1812	5	183	1897	3169
70	0	0	1905	5	181	1898	3170
71	0	0	2000	4	184	1898	3172
72	0	0	2071	4	183	1898	3175
73	0	0	2113	5	183	1898	3175
74	0	0	2137	5	183	1897	3174
75	0	0	2155	6	183	1898	3172
76	0	0	2189	5	183	1898	3169
77	0	0	2236	5	183	1898	3167
78	0	0	2246	5	182	1898	3168
79	0	0	2211	4	184	1898	3168
80	0	0	2161	4	182	1897	3170
81	0	0	2099	4	184	1897	3172
82	0	0	2044	4	183	1897	3174
83	0	0	1968	4	184	1898	3175
84	0	0	1894	4	184	1898	3174
85	0	0	1864	4	183	1897	3172
86	0	0	1868	5	183	1897	3168
87	0	0	1866	5	183	1898	3167
88	0	0	1875	5	184	1898	3168
89	0	0	1885	5	182	1898	3168
90	0	0	1903	4	183	1898	3171
91	0	0	1930	5	183	1898	3173
92	0	0	1953	5	184	1898	3174
93	0	0	2013	4	184	1898	3175
94	0	0	2058	5	184	1898	3174
95	0	0	2072	5	184	1898	3172
96	0	0	2090	5	184	1898	3169
97	0	0	2144	5	183	1898	3167
98	0	0	2180	5	184	1898	3168
99	0	0	2192	5	183	1898	3169
100	0	0	2170	4	184	1897	3170
101	0	0	2108	4	183	1898	3173
102	0	0	2023	4	184	1898	3174
103	0	0	1946	4	182	1898	3175
104	0	0	1911	4	184	1897	3174
105	0	0	1885	4	183	1897	3172
106	0	0	1842	4	185	1897	3169
107	0	0	1766	4	183	1898	3167
108	0	0	1752	5	184	1898	3168
109	0	0	1783	5	184	1897	3168
110	0	0	1832	5	182	1898	3171
111	0	0	1898	5	183	1898	3172
112	0	0	1968	4	184	1898	3174
113	0	0	2019	5	183	1898	3175
114	0	0	2063	5	184	1898	3175
115	0	0	2099	5	183	1898	3172
116	0	0	2154	5	183	1898	3169
117	0	0	2210	5	183	1898	3166
118	0	0	2206	5	184	1898	3168
119	0	0	2200	5	184	1898	3168
120	0	0	2167	3	183	1897	3170
121	0	0	2092	4	183	1897	3172
122	0	0	2011	4	183	1897	3174
123	0	0	1908	4	183	1898	3175
124	0	0	1816	4	183	1897	3174
125	0	0	1751	4	183	1898	3173
126	0	0	1713	4	183	1898	3169
127	0	0	1696	5	183	1898	3167
0	0	0	1730	5	183	1898	3168
1	0	0	1793	5	184	1898	3168
2	0	0	1855	5	183	1898	3170
3	0	0	1941	5	183	1898	3172
4	0	0	2016	5	183	1898	3174
5	0	0	2059	4	184	1898	3175
6	0	0	2066	5	183	1897	3174
7	0	0	2039	4	184	1898	3172
8	0	0	2055	5	184	1898	3169
9	0	0	2105	5	184	1898	3167
10	0	0	2123	5	184	1898	3168
11	0	0	2123	5	183	1897	3168
12	0	0	2097	4	184	1897	3170
13	0	0	2045	4	183	1897	3172
14	0	0	2001	4	184	1898	3174
15	0	0	1971	4	183	1898	3175
16	0	0	1910	4	183	1897	3174
17	0	0	1828	4	181	1898	3174
18	0	0	1754	3	183	1898	3169
19	0	0	1693	4	183	1897	3167
20	0	0	1695	5	183	1898	3168
21	0	0	1726	5	183	1898	3168
22	0	0	1781	4	182	1898	3171
23	0	0	1869	5	183	1898	3172
24	0	0	1944	4	184	1898	3174
25	0	0	1990	5	183	1898	3175
26	0	0	2044	5	183	1897	3174
27	0	0	2127	5	183	1898	3172
28	0	0	2254	5	183	1897	3169
29	0	0	2360	5	184	1898	3168
30	0	0	2381	5	183	1898	3167
31	0	0	2321	4	184	1898	3169
32	0	0	2225	4	183	1897	3170
33	0	0	2122	4	183	1897	3172
34	0	0	2029	4	184	1898	3174
35	0	0	1933	4	182	1898	3175
36	0	0	1842	4	182	1898	3174
37	0	0	1786	4	184	1898	3173
38	0	0	1759	4	183	1897	3169
39	0	0	1728	4	183	1898	3167
40	0	0	1740	5	182	1898	3168
41	0	0	1783	5	184	1897	3168
42	0	0	1839	5	183	1898	3170
43	0	0	1906	5	184	1897	3172
44	0	0	1965	5	184	1898	3175
45	0	0	2019	5	182	1898	3175
46	0	0	2070	5	182	1898	3174
47	0	0	2117	4	184	1898	3172
48	0	0	2168	5	184	1897	3169
49	0	0	2215	5	184	1897	3167
50	0	0	2223	5	184	1898	3168
51	0	0	2207	5	183	1898	3168
52	0	0	2185	3	183	1897	3170
53	0	0	2130	4	182	1898	3172
54	0	0	2052	4	183	1898	3174
55	0	0	1963	4	183	1897	3175
56	0	0	1903	4	182	1898	3174
57	0	0	1866	4	183	1898	3174
58	0	0	1828	4	182	1898	3169
59	0	0	1793	4	183	1898	3167
60	0	0	1806	5	183	1898	3168
61	0	0	1843	5	183	1898	3168
62	0	0	1885	4	183	1898	3171
63	0	0	1943	4	184	1898	3173
64	0	0	2007	5	183	1898	3174
65	0	0	2065	5	183	1898	3175
66	0	0	2100	5	184	1898	3174
67	0	0	2147	4	183	1898	3173
68	0	0	2182	5	185	1897	3169
69	0	0	2199	5	183	1898	3167
70	0	0	2171	4	183	1897	3168
71	0	0	2120	4	184	1897	3168
72	0	0	2078	4	184	1897	3171
73	0	0	2019	4	183	1898	3173
74	0	0	1960	4	183	1898	3175
75	0	0	1917	4	183	1898	3175
76	0	0	1866	4	182	1897	3174
77	0	0	1830	4	182	1898	3174
78	0	0	1812	4	184	1898	3170
79	0	0	1777	4	182	1898	3167
80	0	0	1776	5	184	1897	3168
81	0	0	1840	4	184	1897	3169
82	0	0	1938	5	184	1897	3170
83	0	0	2036	5	184	1897	3172
84	0	0	2122	5	183	1897	3174
85	0	0	2199	5	182	1898	3175
86	0	0	2257	5	183	1898	3175
87	0	0	2299	5	184	1897	3173
88	0	0	2339	4	184	1897	3169
89	0	0	2390	5	183	1898	3168
90	0	0	2417	5	183	1898	3168
91	0	0	2410	5	183	1897	3168
92	0	0	2382	4	183	1897	3170
93	0	0	2344	4	183	1897	3172
94	0	0	2316	4	184	1898	3175
95	0	0	2283	4	182	1898	3175
96	0	0	2254	4	182	1897	3174
97	0	0	2245	5	184	1897	3173
98	0	0	2240	5	183	1897	3169
99	0	0	2235	5	184	1897	3167
100	0	0	2283	5	181	1898	3168
101	0	0	2375	5	183	1898	3170
102	0	0	2461	5	184	1897	3171
103	0	0	2558	5	183	1898	3173
104	0	0	2644	5	184	1898	3175
105	0	0	2688	5	184	1898	3175
106	0	0	2709	5	184	1897	3174
107	0	0	2719	5	183	1898	3174
108	0	0	2754	5	183	1898	3170
109	0	0	2799	5	183	1898	3167
110	0	0	2792	4	183	1898	3168
111	0	0	2727	4	182	1897	3168
112	0	0	2652	4	184	1898	3170
113	0	0	2575	4	182	1897	3172
114	0	0	2487	3	184	1897	3174
115	0	0	2398	4	182	1898	3175
116	0	0	2320	4	184	1898	3175
117	0	0	2256	3	183	1897	3173
118	0	0	2191	3	181	1898	3170
119	0	0	2081	4	184	1898	3168
120	0	0	2000	4	184	1898	3168
121	0	0	1970	4	184	1897	3168
122	0	0	1977	4	184	1898	3171
123	0	0	2040	4	184	1897	3172
124	0	0	2120	5	183	1898	3174
125	0	0	2166	5	182	1898	3175
126	0	0	2176	5	183	1898	3175
127	0	0	2175	5	183	1897	3173
0	0	0	2161	4	183	1898	3170
1	0	0	2140	5	184	1897	3167
2	0	0	2109	4	183	1898	3168
3	0	0	2065	4	183	1898	3169
4	0	0	2005	4	183	1898	3170
5	0	0	1964	4	183	1898	3173
6	0	0	1957	5	185	1898	3175
7	0	0	1960	5	182	1898	3175
8	0	0	1932	4	183	1898	3176
9	0	0	1883	3	183	1898	3173
10	0	0	1829	4	182	1897	3170
11	0	0	1775	4	181	1898	3168
12	0	0	1773	5	183	1898	3168
13	0	0	1793	5	183	1898	3169
14	0	0	1827	5	183	1898	3171
15	0	0	1888	4	184	1898	3173
16	0	0	1952	5	183	1897	3174
17	0	0	2006	4	182	1897	3176
18	0	0	2061	5	182	1898	3175
19	0	0	2100	5	184	1897	3173
20	0	0	2126	5	184	1897	3170
21	0	0	2157	5	184	1897	3167
22	0	0	2172	5	183	1898	3168
23	0	0	2132	4	185	1898	3169
24	0	0	2050	4	183	1898	3172
25	0	0	1970	4	183	1898	3173
26	0	0	1905	4	184	1898	3175
27	0	0	1850	4	183	1898	3176
28	0	0	1829	4	182	1898	3175
29	0	0	1827	5	182	1898	3173
30	0	0	1804	4	183	1897	3170
31	0	0	1746	4	182	1898	3168
32	0	0	1716	4	183	1898	3168
33	0	0	1712	4	183	1898	3170
34	0	0	1736	4	182	1897	3171
35	0	0	1807	4	184	1898	3172
36	0	0	1889	5	184	1898	3175
37	0	0	1972	5	183	1898	3176
38	0	0	2029	5	183	1897	3175
39	0	0	2069	5	183	1898	3173
40	0	0	2107	5	183	1897	3170
41	0	0	2144	5	184	1898	3167
42	0	0	2158	5	183	1898	3168
43	0	0	2143	4	182	1898	3169
44	0	0	2110	4	185	1897	3171
45	0	0	2057	4	184	1897	3173
46	0	0	1983	4	183	1897	3175
47	0	0	1899	4	183	1898	3176
48	0	0	1828	4	182	1897	3175
49	0	0	1791	4	182	1898	3174
50	0	0	1759	4	184	1898	3170
51	0	0	1710	4	184	1898	3168
52	0	0	1724	5	182	1898	3168
53	0	0	1763	5	183	1897	3169
54	0	0	1794	5	183	1898	3171
55	0	0	1875	5	183	1898	3172
56	0	0	1947	5	183	1898	3174
57	0	0	1994	5	183	1898	3176
58	0	0	2003	5	183	1897	3175
59	0	0	1991	5	183	1897	3173
60	0	0	1996	4	183	1898	3170
61	0	0	2046	5	183	1898	3168
62	0	0	2071	5	183	1898	3168
63	0	0	2044	4	182	1898	3170
64	0	0	2009	4	183	1897	3171
65	0	0	1975	4	183	1898	3173
66	0	0	1963	4	184	1898	3175
67	0	0	1931	4	182	1898	3176
68	0	0	1911	4	182	1898	3175
69	0	0	1893	4	184	1898	3174
70	0	0	1847	4	183	1897	3170
71	0	0	1775	4	182	1898	3168
72	0	0	1757	5	181	1898	3168
73	0	0	1786	5	182	1897	3169
74	0	0	1832	5	183	1897	3171
75	0	0	1905	5	184	1898	3173
76	0	0	1995	5	184	1898	3174
77	0	0	2064	5	184	1898	3176
78	0	0	2095	5	184	1897	3175
79	0	0	2102	5	185	1897	3174
80	0	0	2113	5	185	1897	3170
81	0	0	2149	5	183	1898	3168
82	0	0	2153	5	181	1898	3168
83	0	0	2127	4	184	1897	3169
84	0	0	2086	4	183	1898	3171
85	0	0	2035	3	183	1898	3173
86	0	0	1980	4	184	1898	3175
87	0	0	1914	4	182	1898	3176
88	0	0	1849	4	183	1898	3176
89	0	0	1796	4	183	1897	3174
90	0	0	1760	4	182	1898	3170
91	0	0	1722	4	183	1898	3168
92	0	0	1726	5	183	1898	3168
93	0	0	1768	5	182	1898	3170
94	0	0	1819	6	185	1897	3171
95	0	0	1902	4	183	1898	3173
96	0	0	2001	5	182	1898	3175
97	0	0	2059	5	181	1898	3176
98	0	0	2086	5	184	1898	3175
99	0	0	2118	5	183	1897	3174
100	0	0	2156	4	183	1897	3170
101	0	0	2192	4	184	1898	3168
102	0	0	2182	4	182	1898	3168
103	0	0	2143	4	184	1898	3169
104	0	0	2097	4	183	1898	3172
105	0	0	2057	4	183	1898	3173
106	0	0	2014	4	182	1898	3175
107	0	0	1971	4	184	1898	3176
108	0	0	1923	4	183	1898	3176
109	0	0	1852	5	183	1897	3174
110	0	0	1777	3	183	1897	3170
111	0	0	1713	4	183	1898	3168
112	0	0	1732	5	182	1898	3168
113	0	0	1814	5	183	1897	3169
114	0	0	1900	5	183	1897	3171
115	0	0	1966	5	184	1898	3173
116	0	0	2022	4	183	1898	3175
117	0	0	2087	5	184	1898	3176
118	0	0	2125	5	183	1897	3175
119	0	0	2169	5	182	1898	3174
120	0	0	2223	4	184	1897	3170
121	0	0	2273	5	184	1898	3168
122	0	0	2293	5	183	1898	3168
123	0	0	2256	4	182	1898	3169
124	0	0	2195	4	183	1898	3171
125	0	0	2135	4	184	1897	3173
126	0	0	2083	4	183	1898	3175
127	0	0	2030	4	183	1897	3176
0	0	0	1971	4	182	1897	3175
1	0	0	1916	4	182	1898	3175
2	0	0	1862	4	183	1898	3170
3	0	0	1802	4	183	1898	3168
4	0	0	1778	5	183	1898	3168
5	0	0	1808	5	183	1898	3169
6	0	0	1859	5	184	1897	3170
7	0	0	1918	4	183	1897	3173
8	0	0	1962	5	183	1897	3175
9	0	0	2003	5	182	1897	3176
10	0	0	2044	5	184	1898	3176
11	0	0	2086	6	182	1897	3174
12	0	0	2124	5	184	1897	3170
13	0	0	2172	5	184	1898	3168
14	0	0	2200	5	185	1898	3168
15	0	0	2194	4	184	1897	3169
16	0	0	2153	4	183	1898	3171
17	0	0	2079	2	184	1897	3173
18	0	0	2019	4	184	1898	3175
19	0	0	1994	4	183	1898	3176
20	0	0	1971	4	183	1898	3176
21	0	0	1945	4	184	1897	3174
22	0	0	1908	4	184	1897	3171
23	0	0	1849	4	182	1898	3168
24	0	0	1826	4	182	1898	3168
25	0	0	1848	6	182	1897	3169
26	0	0	1907	5	184	1898	3171
27	0	0	1986	5	183	1898	3173
28	0	0	2066	5	184	1898	3175
29	0	0	2136	5	182	1898	3176
30	0	0	2181	6	183	1897	3175
31	0	0	2211	5	182	1897	3174
32	0	0	2222	6	183	1898	3171
33	0	0	2262	5	183	1898	3168
34	0	0	2283	4	183	1898	3169
35	0	0	2254	4	184	1897	3169
36	0	0	2214	4	184	1898	3171
37	0	0	2170	5	184	1898	3173
38	0	0	2127	4	183	1898	3175
39	0	0	2050	4	183	1898	3176
40	0	0	1972	4	184	1898	3175
41	0	0	1945	4	183	1898	3174
42	0	0	1913	5	183	1898	3171
43	0	0	1862	4	183	1898	3168
44	0	0	1853	5	182	1898	3168
45	0	0	1884	5	183	1897	3169
46	0	0	1956	5	182	1898	3172
47	0	0	2045	5	183	1898	3174
48	0	0	2129	5	184	1898	3175
49	0	0	2191	5	184	1898	3176
50	0	0	2249	5	183	1898	3175
51	0	0	2294	5	182	1898	3174
52	0	0	2319	5	184	1897	3171
53	0	0	2345	5	184	1898	3169
54	0	0	2347	5	183	1898	3168
55	0	0	2313	4	182	1897	3169
56	0	0	2258	4	183	1897	3171
57	0	0	2199	4	184	1898	3173
58	0	0	2153	4	183	1898	3175
59	0	0	2137	5	183	1898	3176
60	0	0	2144	6	183	1897	3175
61	0	0	2100	4	182	1898	3174
62	0	0	2030	3	184	1898	3171
63	0	0	1963	4	183	1898	3168
64	0	0	1952	5	184	1898	3168
65	0	0	1969	5	182	1897	3169
66	0	0	1999	5	184	1897	3172
67	0	0	2050	5	184	1898	3173
68	0	0	2120	5	184	1898	3175
69	0	0	2167	5	184	1898	3176
70	0	0	2153	4	183	1898	3176
71	0	0	2127	3	184	1897	3174
72	0	0	2134	5	185	1897	3171
73	0	0	2200	5	183	1898	3168
74	0	0	2261	5	183	1898	3168
75	0	0	2284	5	185	1898	3169
76	0	0	2277	5	184	1897	3171
77	0	0	2243	3	184	1898	3173
78	0	0	2212	4	184	1898	3175
79	0	0	2159	4	184	1898	3176
80	0	0	2088	4	183	1898	3175
81	0	0	2030	4	184	1898	3175
82	0	0	2001	4	184	1898	3171
83	0	0	1964	4	184	1898	3168
84	0	0	1966	5	183	1898	3169
85	0	0	2003	5	182	1898	3169
86	0	0	2062	5	182	1898	3171
87	0	0	2135	5	183	1897	3173
88	0	0	2201	4	184	1898	3175
89	0	0	2253	5	184	1898	3176
90	0	0	2302	5	183	1897	3175
91	0	0	2329	4	183	1897	3174
92	0	0	2330	5	183	1898	3171
93	0	0	2338	5	182	1898	3169
94	0	0	2336	5	183	1897	3168
95	0	0	2309	4	183	1898	3169
96	0	0	2265	4	183	1898	3172
97	0	0	2204	4	183	1898	3173
98	0	0	2135	4	184	1898	3175
99	0	0	2070	4	183	1898	3176
100	0	0	2006	4	183	1897	3175
101	0	0	1959	4	185	1898	3175
102	0	0	1935	4	183	1898	3171
103	0	0	1894	4	184	1898	3169
104	0	0	1862	4	183	1898	3168
105	0	0	1882	4	184	1897	3169
106	0	0	1940	5	184	1897	3171
107	0	0	2026	4	183	1898	3173
108	0	0	2105	5	183	1898	3175
109	0	0	2157	5	184	1898	3176
110	0	0	2182	5	184	1898	3175
111	0	0	2212	5	184	1898	3174
112	0	0	2240	5	183	1898	3171
113	0	0	2264	4	185	1898	3169
114	0	0	2243	4	183	1898	3168
115	0	0	2182	4	183	1897	3169
116	0	0	2111	4	184	1897	3171
117	0	0	2057	4	183	1898	3173
118	0	0	2033	5	183	1898	3176
119	0	0	2033	5	182	1897	3176
120	0	0	1999	3	183	1897	3175
121	0	0	1956	4	183	1898	3175
122	0	0	1911	4	183	1898	3171
123	0	0	1849	4	183	1898	3168
124	0	0	1836	5	183	1898	3168
125	0	0	1864	5	183	1897	3169
126	0	0	1910	5	184	1898	3172
127	0	0	1969	5	184	1897	3173
0	0	0	2020	5	183	1898	3175
1	0	0	2054	5	183	1897	3176
2	0	0	2069	5	183	1898	3175
3	0	0	2090	5	184	1897	3174
4	0	0	2114	5	183	1897	3171
5	0	0	2141	5	185	1898	3169
6	0	0	2146	5	183	1898	3168
7	0	0	2113	4	183	1898	3170
8	0	0	2079	5	184	1897	3171
9	0	0	2044	4	183	1898	3173
10	0	0	2031	5	182	1898	3175
11	0	0	2032	5	184	1898	3176
12	0	0	2011	4	182	1897	3175
13	0	0	1984	4	183	1898	3175
14	0	0	1929	4	184	1898	3172
15	0	0	1822	3	183	1898	3168
16	0	0	1766	4	183	1898	3168
17	0	0	1791	5	184	1897	3169
18	0	0	1841	5	184	1898	3172
19	0	0	1890	5	184	1898	3173
20	0	0	1937	5	182	1898	3175
21	0	0	1988	5	184	1898	3176
22	0	0	2040	5	182	1897	3175
23	0	0	2091	5	183	1897	3174
24	0	0	2128	5	183	1898	3171
25	0	0	2155	4	182	1898	3168
26	0	0	2177	5	182	1898	3168
27	0	0	2151	4	183	1897	3169
28	0	0	2091	5	184	1897	3171
29	0	0	2010	4	183	1898	3173
30	0	0	1910	4	183	1898	3175
31	0	0	1805	4	183	1898	3176
32	0	0	1722	4	182	1897	3176
33	0	0	1696	4	184	1898	3175
34	0	0	1716	5	183	1898	3172
35	0	0	1729	4	183	1898	3168
36	0	0	1754	5	183	1898	3169
37	0	0	1796	5	184	1898	3169
38	0	0	1851	5	182	1898	3172
39	0	0	1915	5	183	1898	3174
40	0	0	1970	5	184	1898	3175
41	0	0	2017	5	184	1898	3176
42	0	0	2059	5	184	1898	3175
43	0	0	2117	5	184	1898	3175
44	0	0	2171	5	184	1897	3171
45	0	0	2228	5	184	1898	3168
46	0	0	2249	5	183	1897	3168
47	0	0	2204	4	183	1897	3169
48	0	0	2146	4	183	1898	3171
49	0	0	2085	4	184	1898	3173
50	0	0	2023	4	184	1898	3176
51	0	0	1952	4	184	1898	3176
52	0	0	1890	4	184	1898	3177
53	0	0	1847	5	185	1897	3175
54	0	0	1813	6	182	1897	3172
55	0	0	1767	4	183	1898	3169
56	0	0	1750	5	183	1898	3169
57	0	0	1767	5	183	1897	3169
58	0	0	1796	5	183	1898	3172
59	0	0	1848	5	184	1898	3173
60	0	0	1918	5	183	1898	3175
61	0	0	1974	5	184	1897	3176
62	0	0	2011	5	184	1898	3176
63	0	0	2059	6	183	1897	3174
64	0	0	2107	6	183	1898	3171
65	0	0	2155	5	183	1898	3169
66	0	0	2161	4	184	1898	3168
67	0	0	2103	4	184	1898	3169
68	0	0	2029	4	184	1898	3171
69	0	0	1962	4	182	1898	3173
70	0	0	1897	4	183	1898	3175
71	0	0	1855	4	183	1897	3176
72	0	0	1842	4	184	1897	3176
73	0	0	1818	4	184	1897	3175
74	0	0	1781	4	184	1898	3172
75	0	0	1709	3	184	1898	3169
76	0	0	1679	5	183	1897	3169
77	0	0	1718	5	183	1898	3169
78	0	0	1787	5	183	1898	3172
79	0	0	1866	5	183	1898	3174
80	0	0	1937	5	183	1898	3175
81	0	0	1977	5	183	1897	3176
82	0	0	2013	5	184	1898	3176
83	0	0	2048	5	184	1898	3175
84	0	0	2081	6	184	1898	3171
85	0	0	2127	5	184	1898	3168
86	0	0	2143	5	184	1898	3168
87	0	0	2105	5	183	1897	3169
88	0	0	2043	4	183	1897	3171
89	0	0	1995	4	183	1898	3173
90	0	0	1973	4	182	1898	3175
91	0	0	1934	4	183	1897	3176
92	0	0	1868	4	182	1897	3176
93	0	0	1794	4	184	1898	3175
94	0	0	1754	4	183	1898	3172
95	0	0	1715	4	184	1898	3169
96	0	0	1700	4	183	1897	3169
97	0	0	1727	4	184	1898	3170
98	0	0	1789	5	184	1898	3171
99	0	0	1879	6	183	1898	3173
100	0	0	1972	5	182	1898	3176
101	0	0	2030	4	183	1898	3176
102	0	0	2050	5	183	1898	3177
103	0	0	2044	5	184	1898	3175
104	0	0	2048	6	182	1898	3172
105	0	0	2069	5	183	1898	3169
106	0	0	2060	4	184	1897	3168
107	0	0	2038	4	185	1897	3169
108	0	0	2024	5	183	1898	3171
109	0	0	2004	3	182	1898	3173
110	0	0	1967	4	184	1898	3175
111	0	0	1934	4	184	1897	3176
112	0	0	1891	4	182	1897	3176
113	0	0	1846	4	183	1898	3176
114	0	0	1805	4	183	1898	3172
115	0	0	1746	4	183	1898	3169
116	0	0	1734	5	182	1898	3169
117	0	0	1766	4	183	1897	3169
118	0	0	1814	5	182	1898	3171
119	0	0	1890	5	183	1898	3173
120	0	0	1977	5	183	1898	3175
121	0	0	2050	5	183	1897	3176
122	0	0	2089	5	183	1898	3177
123	0	0	2101	5	184	1898	3175
124	0	0	2113	6	184	1897	3172
125	0	0	2132	5	183	1898	3169
126	0	0	2123	4	184	1898	3169
127	0	0	2078	4	184	1898	3169
0	0	0	2029	4	183	1898	3172
1	0	0	1984	4	182	1898	3174
2	0	0	1916	4	184	1898	3175
3	0	0	1814	4	183	1898	3176
4	0	0	1731	4	183	1898	3176
5	0	0	1696	5	182	1898	3176
6	0	0	1718	5	183	1898	3172
7	0	0	1727	5	183	1898	3170
8	0	0	1749	5	183	1897	3169
9	0	0	1797	5	184	1897	3169
10	0	0	1847	5	182	1898	3171
11	0	0	1897	5	183	1898	3173
12	0	0	1921	5	183	1898	3175
13	0	0	1925	5	183	1898	3176
14	0	0	1948	5	184	1898	3176
15	0	0	1990	5	183	1898	3176
16	0	0	2089	5	184	1898	3173
17	0	0	2205	4	184	1898	3169
18	0	0	2276	5	183	1898	3169
19	0	0	2276	4	184	1897	3169
20	0	0	2223	4	183	1897	3171
21	0	0	2146	5	183	1898	3173
22	0	0	2042	4	183	1898	3175
23	0	0	1939	4	182	1897	3176
24	0	0	1857	4	182	1898	3176
25	0	0	1802	4	183	1897	3175
26	0	0	1773	4	184	1898	3173
27	0	0	1735	4	184	1898	3170
28	0	0	1717	4	182	1897	3169
29	0	0	1745	5	183	1898	3170
30	0	0	1786	5	183	1898	3172
31	0	0	1834	5	183	1898	3174
32	0	0	1907	5	183	1898	3175
33	0	0	1987	5	184	1897	3176
34	0	0	2070	5	182	1898	3176
35	0	0	2130	5	183	1897	3175
36	0	0	2147	5	183	1897	3172
37	0	0	2143	5	184	1898	3169
38	0	0	2123	4	183	1898	3169
39	0	0	2086	4	183	1898	3169
40	0	0	2046	3	184	1897	3171
41	0	0	2005	5	184	1898	3173
42	0	0	1974	4	183	1898	3175
43	0	0	1937	4	183	1897	3177
44	0	0	1882	5	183	1898	3177
45	0	0	1825	4	183	1898	3175
46	0	0	1786	4	182	1898	3172
47	0	0	1731	4	183	1898	3170
48	0	0	1716	5	182	1897	3169
49	0	0	1760	5	183	1898	3170
50	0	0	1815	5	183	1898	3171
51	0	0	1884	5	184	1897	3173
52	0	0	1967	5	183	1898	3175
53	0	0	2021	5	184	1897	3176
54	0	0	2073	5	183	1898	3176
55	0	0	2111	5	182	1898	3175
56	0	0	2133	5	184	1898	3172
57	0	0	2162	4	183	1898	3169
58	0	0	2171	5	183	1897	3169
59	0	0	2134	4	184	1898	3169
60	0	0	2076	4	184	1898	3172
61	0	0	2018	4	183	1898	3174
62	0	0	1979	4	184	1898	3175
63	0	0	1948	4	183	1898	3177
64	0	0	1903	5	183	1898	3177
65	0	0	1866	4	184	1898	3175
66	0	0	1846	5	183	1898	3173
67	0	0	1823	4	182	1898	3170
68	0	0	1821	5	184	1897	3169
69	0	0	1846	4	183	1898	3169
70	0	0	1886	5	182	1898	3171
71	0	0	1938	5	183	1898	3174
72	0	0	2003	5	183	1898	3175
73	0	0	2063	5	183	1898	3177
74	0	0	2108	5	183	1898	3176
75	0	0	2139	5	184	1897	3176
76	0	0	2156	5	184	1898	3172
77	0	0	2184	5	183	1898	3170
78	0	0	2193	5	184	1897	3169
79	0	0	2165	5	184	1898	3169
80	0	0	2120	4	182	1898	3171
81	0	0	2065	4	183	1898	3174
82	0	0	1977	4	183	1898	3175
83	0	0	1859	4	184	1898	3177
84	0	0	1740	4	182	1897	3176
85	0	0	1688	4	182	1897	3176
86	0	0	1675	4	183	1897	3172
87	0	0	1650	4	183	1898	3170
88	0	0	1664	5	183	1897	3169
89	0	0	1731	5	182	1897	3169
90	0	0	1838	5	184	1898	3172
91	0	0	1967	5	184	1898	3174
92	0	0	2089	5	184	1898	3175
93	0	0	2185	5	184	1897	3177
94	0	0	2245	4	184	1898	3176
95	0	0	2255	4	184	1898	3176
96	0	0	2244	5	183	1898	3174
97	0	0	2247	5	184	1898	3170
98	0	0	2248	5	184	1897	3169
99	0	0	2207	4	182	1898	3169
100	0	0	2164	4	184	1898	3172
101	0	0	2107	4	184	1898	3174
102	0	0	2043	4	182	1898	3175
103	0	0	1983	4	183	1898	3177
104	0	0	1922	4	183	1897	3176
105	0	0	1878	4	182	1898	3176
106	0	0	1852	4	182	1898	3173
107	0	0	1800	4	183	1898	3170
108	0	0	1773	4	183	1897	3169
109	0	0	1802	4	184	1898	3170
110	0	0	1865	4	184	1899	3172
111	0	0	1932	4	182	1898	3173
112	0	0	1990	5	183	1898	3176
113	0	0	2042	5	183	1898	3177
114	0	0	2089	4	183	1898	3177
115	0	0	2135	5	184	1898	3175
116	0	0	2188	5	184	1898	3173
117	0	0	2238	5	183	1898	3169
118	0	0	2242	4	184	1897	3169
119	0	0	2198	4	182	1898	3169
120	0	0	2161	4	182	1898	3171
121	0	0	2118	4	183	1898	3174
122	0	0	2066	5	183	1898	3175
123	0	0	2029	4	185	1897	3176
124	0	0	2026	4	183	1897	3176
125	0	0	2003	4	183	1898	3176
126	0	0	1959	4	182	1898	3174
127	0	0	1880	4	183	1898	3170
0	0	0	1841	4	183	1897	3169
1	0	0	1852	5	183	1897	3170
2	0	0	1873	5	184	1898	3172
3	0	0	1909	5	184	1898	3174
4	0	0	1965	5	184	1898	3176
5	0	0	2022	5	184	1897	3177
6	0	0	2082	4	184	1898	3177
7	0	0	2115	5	184	1898	3176
8	0	0	2126	4	183	1897	3173
9	0	0	2144	5	183	1898	3170
10	0	0	2147	5	183	1897	3169
11	0	0	2144	4	184	1898	3170
12	0	0	2147	5	183	1898	3171
13	0	0	2127	4	182	1898	3174
14	0	0	2091	4	183	1898	3176
15	0	0	2056	4	183	1897	3177
16	0	0	2020	3	184	1897	3177
17	0	0	1980	4	183	1898	3177
18	0	0	1932	4	184	1898	3174
19	0	0	1867	4	183	1898	3170
20	0	0	1818	4	183	1897	3169
21	0	0	1842	5	182	1897	3170
22	0	0	1898	5	183	1898	3171
23	0	0	1970	5	182	1898	3173
24	0	0	2042	5	183	1898	3175
25	0	0	2076	5	184	1897	3177
26	0	0	2095	5	184	1897	3176
27	0	0	2102	5	186	1898	3176
28	0	0	2093	5	184	1898	3173
29	0	0	2113	5	183	1898	3170
30	0	0	2153	5	184	1897	3169
31	0	0	2181	4	184	1898	3171
32	0	0	2183	5	183	1898	3171
33	0	0	2144	4	183	1898	3174
34	0	0	2086	4	182	1898	3175
35	0	0	2025	4	182	1898	3177
36	0	0	1960	4	182	1898	3177
37	0	0	1904	4	183	1898	3176
38	0	0	1875	5	182	1898	3173
39	0	0	1831	3	183	1898	3170
40	0	0	1805	4	183	1897	3169
41	0	0	1830	4	183	1898	3171
42	0	0	1870	5	184	1898	3171
43	0	0	1927	5	183	1898	3173
44	0	0	2025	5	183	1898	3176
45	0	0	2132	5	184	1897	3177
46	0	0	2212	5	185	1898	3177
47	0	0	2248	5	184	1898	3176
48	0	0	2229	5	183	1898	3173
49	0	0	2241	4	183	1898	3170
50	0	0	2265	5	182	1898	3169
51	0	0	2210	4	183	1898	3170
52	0	0	2125	4	183	1898	3172
53	0	0	2054	5	183	1898	3173
54	0	0	2011	3	183	1898	3176
55	0	0	1980	4	183	1898	3177
56	0	0	1948	4	183	1898	3177
57	0	0	1928	4	183	1898	3176
58	0	0	1908	4	184	1898	3174
59	0	0	1843	4	183	1898	3170
60	0	0	1798	4	182	1898	3170
61	0	0	1812	5	183	1898	3170
62	0	0	1842	5	183	1898	3172
63	0	0	1885	6	185	1898	3174
64	0	0	1958	5	184	1898	3176
65	0	0	2045	5	184	1897	3177
66	0	0	2113	4	183	1897	3177
67	0	0	2156	5	184	1897	3176
68	0	0	2166	5	184	1898	3173
69	0	0	2176	5	184	1898	3170
70	0	0	2173	5	184	1897	3169
71	0	0	2139	4	183	1898	3169
72	0	0	2095	4	184	1898	3171
73	0	0	2055	5	183	1897	3173
74	0	0	2013	5	183	1898	3175
75	0	0	1956	4	184	1897	3177
76	0	0	1910	3	183	1898	3178
77	0	0	1851	4	182	1898	3176
78	0	0	1796	4	184	1898	3174
79	0	0	1753	4	183	1898	3171
80	0	0	1744	5	182	1897	3169
81	0	0	1773	3	182	1898	3171
82	0	0	1815	5	185	1898	3171
83	0	0	1856	5	183	1898	3173
84	0	0	1892	5	183	1898	3176
85	0	0	1923	5	183	1897	3177
86	0	0	1967	4	183	1898	3176
87	0	0	2001	5	185	1898	3176
88	0	0	2018	5	183	1897	3173
89	0	0	2049	4	184	1898	3170
90	0	0	2071	5	184	1897	3169
91	0	0	2041	4	183	1897	3170
92	0	0	2012	4	184	1898	3172
93	0	0	2000	5	184	1898	3174
94	0	0	2000	6	184	1898	3176
95	0	0	1995	4	184	1898	3177
96	0	0	1961	3	184	1898	3178
97	0	0	1907	4	182	1898	3176
98	0	0	1843	4	183	1898	3174
99	0	0	1752	4	184	1898	3171
100	0	0	1689	4	183	1898	3169
101	0	0	1704	5	183	1898	3170
102	0	0	1764	5	183	1898	3171
103	0	0	1839	5	184	1898	3174
104	0	0	1931	5	184	1898	3176
105	0	0	1999	5	183	1898	3177
106	0	0	2040	5	184	1897	3177
107	0	0	2061	5	183	1898	3177
108	0	0	2071	5	184	1898	3174
109	0	0	2094	4	184	1898	3170
110	0	0	2101	5	183	1898	3169
111	0	0	2088	4	185	1898	3170
112	0	0	2065	3	183	1898	3172
113	0	0	2049	4	181	1898	3173
114	0	0	2021	5	183	1898	3175
115	0	0	1977	4	183	1898	3177
116	0	0	1935	4	183	1898	3177
117	0	0	1907	5	182	1898	3176
118	0	0	1891	4	183	1898	3174
119	0	0	1847	4	183	1898	3171
120	0	0	1800	4	182	1898	3169
121	0	0	1802	4	183	1898	3171
122	0	0	1816	5	185	1898	3171
123	0	0	1843	5	183	1898	3173
124	0	0	1891	4	184	1898	3176
125	0	0	1941	5	183	1897	3177
126	0	0	2001	5	183	1897	3177
127	0	0	2069	5	184	1898	3176
0	0	0	2129	5	183	1897	3174
1	0	0	2207	6	184	1898	3170
2	0	0	2251	5	184	1898	3170
3	0	0	2196	3	184	1897	3170
4	0	0	2106	4	184	1898	3173
5	0	0	2043	4	183	1898	3174
6	0	0	2002	4	183	1898	3176
7	0	0	1976	4	183	1897	3177
8	0	0	1956	4	183	1897	3177
9	0	0	1951	6	183	1897	3176
10	0	0	1946	4	183	1898	3174
11	0	0	1894	4	183	1898	3170
12	0	0	1822	4	183	1897	3169
13	0	0	1805	5	183	1897	3170
14	0	0	1839	5	184	1898	3171
15	0	0	1879	5	183	1898	3174
16	0	0	1934	5	183	1898	3176
17	0	0	2006	5	184	1898	3177
18	0	0	2101	5	183	1897	3177
19	0	0	2161	5	183	1898	3177
20	0	0	2162	5	183	1898	3175
21	0	0	2165	5	183	1898	3171
22	0	0	2150	4	184	1897	3169
23	0	0	2096	3	183	1897	3170
24	0	0	2024	5	183	1897	3171
25	0	0	1966	4	184	1897	3174
26	0	0	1921	4	183	1898	3176
27	0	0	1886	4	183	1898	3177
28	0	0	1860	4	183	1898	3178
29	0	0	1840	4	182	1897	3176
30	0	0	1829	4	182	1898	3174
31	0	0	1789	4	183	1898	3171
32	0	0	1761	4	182	1897	3169
33	0	0	1792	5	184	1897	3170
34	0	0	1848	5	183	1898	3171
35	0	0	1928	6	183	1897	3174
36	0	0	2026	4	182	1898	3176
37	0	0	2130	5	184	1897	3177
38	0	0	2230	5	184	1898	3177
39	0	0	2325	5	184	1897	3176
40	0	0	2388	5	183	1897	3174
41	0	0	2432	4	183	1898	3170
42	0	0	2460	5	184	1897	3169
43	0	0	2455	5	184	1898	3169
44	0	0	2430	5	184	1898	3172
45	0	0	2423	5	183	1897	3174
46	0	0	2444	5	183	1898	3176
47	0	0	2458	5	184	1897	3177
48	0	0	2450	4	184	1898	3178
49	0	0	2410	4	184	1898	3176
50	0	0	2369	4	184	1898	3174
51	0	0	2328	4	182	1898	3171
52	0	0	2321	5	183	1898	3170
53	0	0	2369	5	183	1898	3171
54	0	0	2433	5	183	1897	3172
55	0	0	2492	5	181	1898	3174
56	0	0	2568	5	184	1898	3177
57	0	0	2656	5	184	1898	3177
58	0	0	2733	5	183	1897	3177
59	0	0	2806	5	183	1898	3176
60	0	0	2847	5	184	1897	3174
61	0	0	2852	5	183	1898	3171
62	0	0	2810	4	183	1898	3170
63	0	0	2731	5	183	1897	3170
64	0	0	2663	4	184	1897	3172
65	0	0	2600	4	183	1897	3174
66	0	0	2512	3	183	1898	3176
67	0	0	2408	4	183	1897	3177
68	0	0	2298	4	182	1898	3178
69	0	0	2211	4	184	1898	3176
70	0	0	2158	4	183	1898	3175
71	0	0	2089	4	182	1898	3172
72	0	0	1999	4	183	1898	3170
73	0	0	1944	4	183	1897	3170
74	0	0	1935	5	183	1898	3172
75	0	0	1962	5	183	1897	3174
76	0	0	1999	5	182	1898	3176
77	0	0	2033	5	183	1898	3177
78	0	0	2064	5	183	1898	3177
79	0	0	2101	5	184	1898	3177
80	0	0	2118	5	184	1898	3175
81	0	0	2116	4	183	1898	3171
82	0	0	2121	5	184	1898	3170
83	0	0	2130	5	184	1897	3170
84	0	0	2104	4	184	1897	3172
85	0	0	2055	4	184	1898	3174
86	0	0	1991	4	184	1898	3176
87	0	0	1932	4	183	1897	3177
88	0	0	1882	4	183	1899	3178
89	0	0	1860	4	183	1898	3177
90	0	0	1863	5	183	1897	3175
91	0	0	1836	3	182	1898	3171
92	0	0	1824	4	183	1897	3170
93	0	0	1853	5	183	1897	3170
94	0	0	1888	5	183	1898	3172
95	0	0	1932	4	182	1898	3175
96	0	0	1989	4	183	1898	3176
97	0	0	2036	5	183	1898	3178
98	0	0	2072	5	182	1897	3177
99	0	0	2108	4	183	1897	3177
100	0	0	2134	4	183	1898	3174
101	0	0	2166	5	183	1898	3171
102	0	0	2196	5	183	1897	3169
103	0	0	2181	4	183	1898	3171
104	0	0	2121	4	184	1898	3172
105	0	0	2051	4	184	1898	3174
106	0	0	1994	4	182	1898	3176
107	0	0	1954	4	184	1897	3177
108	0	0	1914	4	183	1898	3177
109	0	0	1895	4	184	1898	3177
110	0	0	1891	5	184	1898	3175
111	0	0	1857	4	183	1898	3171
112	0	0	1834	4	183	1898	3170
113	0	0	1850	5	184	1898	3171
114	0	0	1881	5	183	1897	3172
115	0	0	1920	5	183	1898	3174
116	0	0	1966	4	182	1898	3176
117	0	0	2006	5	182	1898	3177
118	0	0	2059	5	183	1897	3177
119	0	0	2123	5	183	1897	3176
120	0	0	2200	5	185	1897	3175
121	0	0	2267	4	183	1898	3171
122	0	0	2271	4	184	1898	3170
123	0	0	2224	4	184	1897	3170
124	0	0	2175	4	182	1897	3172
125	0	0	2127	4	182	1897	3174
126	0	0	2054	4	184	1898	3176
127	0	0	1982	4	184	1898	3178
0	0	0	1915	4	183	1898	3177
1	0	0	1873	4	184	1897	3177
2	0	0	1843	4	184	1898	3174
3	0	0	1774	4	183	1898	3171
4	0	0	1710	4	182	1898	3170
5	0	0	1726	5	183	1897	3170
6	0	0	1783	5	184	1898	3172
7	0	0	1862	5	183	1898	3174
8	0	0	1961	4	183	1898	3176
9	0	0	2032	5	183	1897	3177
10	0	0	2085	5	183	1898	3177
11	0	0	2102	5	183	1898	3177
12	0	0	2124	5	184	1898	3175
13	0	0	2177	5	183	1898	3172
14	0	0	2204	5	184	1897	3170
15	0	0	2177	4	183	1898	3171
16	0	0	2136	4	183	1898	3172
17	0	0	2096	4	183	1898	3174
18	0	0	2082	5	183	1898	3176
19	0	0	2055	4	184	1897	3177
20	0	0	2016	4	183	1898	3178
21	0	0	1957	4	185	1898	3176
22	0	0	1894	4	182	1898	3175
23	0	0	1831	3	182	1898	3171
24	0	0	1791	4	183	1898	3170
25	0	0	1806	5	183	1898	3170
26	0	0	1860	5	182	1897	3172
27	0	0	1933	5	184	1897	3174
28	0	0	2010	4	184	1898	3176
29	0	0	2069	5	183	1898	3178
30	0	0	2120	6	183	1897	3177
31	0	0	2181	5	183	1898	3178
32	0	0	2220	5	184	1898	3175
33	0	0	2239	5	182	1898	3171
34	0	0	2242	5	182	1897	3169
35	0	0	2205	4	183	1897	3170
36	0	0	2127	4	184	1898	3172
37	0	0	2039	4	184	1898	3174
38	0	0	1954	3	183	1898	3176
39	0	0	1895	4	183	1898	3178
40	0	0	1880	4	182	1897	3177
41	0	0	1874	5	183	1898	3177
42	0	0	1872	5	183	1898	3175
43	0	0	1844	4	184	1898	3172
44	0	0	1806	4	183	1897	3170
45	0	0	1805	5	183	1898	3171
46	0	0	1836	5	184	1897	3172
47	0	0	1875	5	184	1898	3174
48	0	0	1939	3	183	1898	3176
49	0	0	2006	5	182	1897	3177
50	0	0	2063	5	183	1897	3177
51	0	0	2092	5	183	1897	3177
52	0	0	2109	5	183	1898	3175
53	0	0	2135	5	184	1898	3171
54	0	0	2150	5	183	1897	3170
55	0	0	2132	5	183	1897	3170
56	0	0	2098	4	183	1897	3171
57	0	0	2062	4	183	1898	3174
58	0	0	2021	4	183	1898	3176
59	0	0	1963	4	183	1897	3177
60	0	0	1895	4	183	1897	3177
61	0	0	1835	4	182	1897	3177
62	0	0	1824	5	183	1897	3175
63	0	0	1811	4	182	1898	3171
64	0	0	1795	4	183	1898	3171
65	0	0	1818	4	182	1897	3170
66	0	0	1865	5	183	1897	3172
67	0	0	1920	5	185	1898	3174
68	0	0	2012	3	184	1898	3176
69	0	0	2116	5	183	1898	3177
70	0	0	2170	6	183	1897	3177
71	0	0	2174	5	184	1897	3177
72	0	0	2154	4	184	1898	3175
73	0	0	2172	4	183	1898	3171
74	0	0	2198	5	183	1897	3169
75	0	0	2183	4	184	1897	3170
76	0	0	2141	4	183	1897	3172
77	0	0	2093	4	185	1897	3174
78	0	0	2040	4	184	1898	3177
79	0	0	1988	4	184	1897	3177
80	0	0	1948	4	184	1897	3178
81	0	0	1923	5	183	1897	3177
82	0	0	1921	5	183	1897	3175
83	0	0	1899	4	183	1898	3171
84	0	0	1864	4	184	1897	3170
85	0	0	1854	4	183	1897	3170
86	0	0	1873	5	183	1897	3172
87	0	0	1914	5	183	1898	3175
88	0	0	1975	5	185	1897	3176
89	0	0	2040	5	183	1897	3177
90	0	0	2099	4	183	1898	3177
91	0	0	2134	5	184	1897	3178
92	0	0	2149	5	184	1898	3176
93	0	0	2181	4	184	1897	3171
94	0	0	2235	5	184	1897	3169
95	0	0	2246	5	183	1898	3171
96	0	0	2213	4	185	1897	3172
97	0	0	2175	4	183	1898	3174
98	0	0	2143	4	182	1898	3176
99	0	0	2091	4	184	1897	3177
100	0	0	2029	4	183	1897	3177
101	0	0	1976	4	182	1897	3177
102	0	0	1939	4	183	1897	3175
103	0	0	1877	4	183	1898	3172
104	0	0	1830	4	184	1898	3170
105	0	0	1833	5	184	1897	3170
106	0	0	1869	5	183	1897	3171
107	0	0	1925	5	183	1897	3174
108	0	0	1988	4	184	1898	3176
109	0	0	2057	5	183	1897	3177
110	0	0	2127	5	182	1898	3177
111	0	0	2185	5	184	1897	3177
112	0	0	2204	5	183	1897	3175
113	0	0	2236	5	184	1898	3171
114	0	0	2252	5	182	1897	3169
115	0	0	2225	4	184	1898	3170
116	0	0	2185	4	185	1897	3171
117	0	0	2155	5	185	1898	3174
118	0	0	2159	4	183	1898	3177
119	0	0	2135	4	184	1897	3177
120	0	0	2080	4	183	1898	3179
121	0	0	2025	4	182	1898	3177
122	0	0	2014	5	185	1898	3175
123	0	0	1997	4	184	1898	3172
124	0	0	1962	4	184	1897	3170
125	0	0	1947	4	183	1898	3171
126	0	0	1942	5	183	1897	3172
127	0	0	1976	5	183	1898	3174
0	0	0	2048	5	182	1898	3176
1	0	0	2144	5	184	1897	3177
2	0	0	2245	5	183	1898	3178
3	0	0	2319	5	183	1897	3177
4	0	0	2340	5	184	1897	3175
5	0	0	2337	5	183	1898	3172
6	0	0	2289	4	184	1898	3169
7	0	0	2227	4	183	1898	3170
8	0	0	2198	4	184	1897	3173
9	0	0	2185	4	184	1898	3174
10	0	0	2152	4	183	1898	3176
11	0	0	2119	4	183	1897	3177
12	0	0	2069	4	182	1898	3179
13	0	0	2015	4	183	1897	3177
14	0	0	1978	4	183	1898	3175
15	0	0	1915	4	183	1898	3172
16	0	0	1850	4	182	1897	3170
17	0	0	1845	5	184	1898	3170
18	0	0	1882	5	183	1897	3172
19	0	0	1951	5	184	1897	3174
20	0	0	2046	5	183	1898	3176
21	0	0	2132	5	183	1897	3177
22	0	0	2192	5	184	1897	3178
23	0	0	2241	5	183	1898	3177
24	0	0	2275	5	183	1898	3176
25	0	0	2306	5	183	1898	3172
26	0	0	2328	5	184	1898	3171
27	0	0	2294	4	184	1898	3170
28	0	0	2221	5	183	1898	3172
29	0	0	2176	4	183	1897	3174
30	0	0	2133	4	185	1898	3176
31	0	0	2082	4	184	1897	3177
32	0	0	2009	4	182	1898	3178
33	0	0	1957	4	183	1898	3177
34	0	0	1966	5	183	1897	3176
35	0	0	1970	4	182	1898	3173
36	0	0	1957	5	182	1897	3170
37	0	0	1983	5	183	1898	3171
38	0	0	2027	5	183	1898	3172
39	0	0	2070	5	184	1898	3174
40	0	0	2130	4	183	1898	3176
41	0	0	2194	5	185	1897	3177
42	0	0	2270	4	184	1898	3178
43	0	0	2331	5	183	1897	3177
44	0	0	2355	4	184	1898	3176
45	0	0	2364	5	183	1898	3172
46	0	0	2376	4	183	1897	3170
47	0	0	2358	4	183	1897	3170
48	0	0	2329	4	183	1898	3172
49	0	0	2315	5	184	1898	3175
50	0	0	2277	4	184	1898	3176
51	0	0	2227	4	184	1898	3178
52	0	0	2172	4	183	1898	3178
53	0	0	2129	5	184	1897	3177
54	0	0	2097	4	183	1897	3175
55	0	0	2039	4	184	1898	3172
56	0	0	1975	4	183	1897	3170
57	0	0	1965	5	183	1897	3170
58	0	0	1977	4	182	1897	3172
59	0	0	2000	5	182	1897	3174
60	0	0	2054	4	184	1898	3177
61	0	0	2135	5	184	1897	3177
62	0	0	2196	5	184	1898	3179
63	0	0	2225	5	184	1898	3177
64	0	0	2247	4	184	1897	3176
65	0	0	2255	5	184	1898	3172
66	0	0	2257	5	183	1897	3170
67	0	0	2261	5	184	1898	3170
68	0	0	2261	5	183	1897	3172
69	0	0	2222	4	184	1897	3174
70	0	0	2152	4	184	1898	3176
71	0	0	2076	4	184	1898	3177
72	0	0	2009	4	183	1897	3178
73	0	0	1951	4	183	1898	3178
74	0	0	1912	4	183	1898	3176
75	0	0	1879	4	183	1898	3172
76	0	0	1862	4	183	1897	3170
77	0	0	1880	5	183	1898	3171
78	0	0	1918	5	183	1898	3172
79	0	0	1965	5	183	1897	3174
80	0	0	2006	5	183	1898	3176
81	0	0	2050	5	184	1897	3177
82	0	0	2094	5	183	1897	3178
83	0	0	2143	5	185	1898	3178
84	0	0	2158	5	184	1898	3176
85	0	0	2175	5	184	1898	3172
86	0	0	2206	5	184	1897	3170
87	0	0	2202	4	184	1897	3170
88	0	0	2165	4	184	1897	3172
89	0	0	2122	4	184	1897	3174
90	0	0	2067	4	183	1898	3177
91	0	0	1996	4	183	1897	3177
92	0	0	1926	4	184	1897	3178
93	0	0	1875	5	184	1897	3177
94	0	0	1862	4	184	1897	3176
95	0	0	1840	5	183	1898	3172
96	0	0	1810	4	183	1898	3171
97	0	0	1818	5	184	1897	3171
98	0	0	1869	6	183	1898	3172
99	0	0	1944	5	183	1897	3174
100	0	0	2049	5	183	1898	3176
101	0	0	2136	5	184	1897	3177
102	0	0	2173	5	183	1897	3178
103	0	0	2168	4	184	1898	3177
104	0	0	2134	4	184	1897	3176
105	0	0	2121	4	184	1898	3172
106	0	0	2106	5	183	1897	3170
107	0	0	2077	4	184	1898	3170
108	0	0	2033	3	183	1897	3172
109	0	0	1981	4	184	1897	3174
110	0	0	1943	4	184	1898	3177
111	0	0	1943	5	184	1897	3178
112	0	0	1918	4	184	1898	3179
113	0	0	1923	5	185	1897	3178
114	0	0	1916	4	182	1897	3176
115	0	0	1880	4	183	1898	3173
116	0	0	1832	4	183	1898	3170
117	0	0	1838	5	183	1898	3171
118	0	0	1891	5	184	1898	3172
119	0	0	1941	5	184	1897	3174
120	0	0	2011	5	183	1898	3177
121	0	0	2090	7	184	1897	3178
122	0	0	2155	5	184	1898	3179
123	0	0	2193	5	184	1898	3177
124	0	0	2220	5	185	1898	3176
125	0	0	2249	5	184	1898	3172
126	0	0	2256	4	184	1897	3170
127	0	0	2230	4	183	1898	3170
0	0	0	2185	5	184	1897	3172
1	0	0	2135	4	183	1898	3174
2	0	0	2074	4	184	1898	3176
3	0	0	2022	4	183	1898	3178
4	0	0	1983	4	183	1897	3178
5	0	0	1967	4	183	1898	3178
6	0	0	1941	4	183	1898	3177
7	0	0	1882	4	183	1898	3172
8	0	0	1822	4	183	1897	3170
9	0	0	1826	5	184	1897	3170
10	0	0	1846	4	183	1897	3172
11	0	0	1870	5	183	1897	3174
12	0	0	1924	5	184	1898	3176
13	0	0	1984	5	184	1897	3178
14	0	0	2025	6	183	1898	3179
15	0	0	2045	5	182	1898	3177
16	0	0	2070	5	184	1897	3176
17	0	0	2125	5	184	1898	3172
18	0	0	2183	5	184	1898	3171
19	0	0	2208	5	183	1897	3170
20	0	0	2201	5	183	1898	3172
21	0	0	2180	4	184	1897	3174
22	0	0	2124	4	183	1898	3176
23	0	0	2048	4	183	1897	3178
24	0	0	1977	4	184	1897	3178
25	0	0	1934	4	184	1897	3178
26	0	0	1931	5	183	1897	3176
27	0	0	1895	4	183	1898	3173
28	0	0	1830	4	184	1897	3170
29	0	0	1804	4	184	1897	3171
30	0	0	1829	4	184	1897	3172
31	0	0	1888	5	183	1898	3174
32	0	0	1968	5	184	1898	3177
33	0	0	2033	4	184	1897	3178
34	0	0	2083	5	182	1898	3179
35	0	0	2156	5	183	1898	3177
36	0	0	2224	5	185	1897	3176
37	0	0	2268	4	184	1898	3173
38	0	0	2277	5	183	1897	3171
39	0	0	2212	4	183	1897	3170
40	0	0	2108	4	182	1897	3172
41	0	0	2036	4	184	1897	3174
42	0	0	1991	4	182	1898	3176
43	0	0	1965	6	183	1898	3178
44	0	0	1925	4	184	1897	3178
45	0	0	1904	4	184	1897	3177
46	0	0	1904	4	185	1897	3176
47	0	0	1851	4	184	1898	3173
48	0	0	1777	4	182	1898	3171
49	0	0	1763	5	183	1898	3171
50	0	0	1798	5	183	1898	3172
51	0	0	1861	5	183	1898	3174
52	0	0	1954	5	183	1898	3177
53	0	0	2038	5	183	1897	3177
54	0	0	2074	5	184	1897	3178
55	0	0	2088	5	183	1897	3178
56	0	0	2098	5	184	1897	3176
57	0	0	2128	5	182	1898	3173
58	0	0	2158	5	184	1897	3171
59	0	0	2136	4	182	1897	3171
60	0	0	2103	4	183	1897	3172
61	0	0	2079	4	183	1897	3174
62	0	0	2045	4	183	1898	3176
63	0	0	2006	5	182	1897	3177
64	0	0	1957	4	184	1898	3179
65	0	0	1911	4	184	1898	3178
66	0	0	1891	4	183	1897	3176
67	0	0	1873	5	183	1898	3173
68	0	0	1851	4	183	1897	3170
69	0	0	1869	5	182	1898	3171
70	0	0	1914	5	184	1898	3172
71	0	0	1968	5	183	1897	3174
72	0	0	2035	5	184	1898	3176
73	0	0	2093	6	181	1898	3178
74	0	0	2120	5	184	1897	3178
75	0	0	2129	4	183	1898	3178
76	0	0	2135	5	183	1897	3176
77	0	0	2139	5	183	1898	3173
78	0	0	2138	5	183	1897	3170
79	0	0	2097	4	184	1897	3170
80	0	0	2038	3	183	1897	3172
81	0	0	1985	4	183	1897	3174
82	0	0	1927	4	184	1898	3177
83	0	0	1861	4	183	1898	3177
84	0	0	1812	4	183	1898	3179
85	0	0	1818	5	183	1898	3178
86	0	0	1856	5	183	1898	3176
87	0	0	1854	4	182	1898	3173
88	0	0	1821	4	183	1897	3171
89	0	0	1818	5	183	1897	3171
90	0	0	1837	5	183	1897	3173
91	0	0	1881	4	184	1898	3175
92	0	0	1961	5	182	1898	3176
93	0	0	2056	5	182	1897	3177
94	0	0	2114	5	182	1898	3179
95	0	0	2140	4	184	1898	3178
96	0	0	2164	4	183	1898	3177
97	0	0	2191	5	185	1898	3173
98	0	0	2229	5	183	1897	3170
99	0	0	2224	4	184	1897	3171
100	0	0	2170	4	184	1897	3172
101	0	0	2107	4	184	1897	3174
102	0	0	2035	4	183	1898	3176
103	0	0	1973	4	183	1897	3178
104	0	0	1900	4	183	1897	3178
105	0	0	1833	4	183	1897	3178
106	0	0	1783	4	183	1897	3176
107	0	0	1758	4	184	1898	3173
108	0	0	1748	4	184	1898	3171
109	0	0	1761	4	182	1897	3171
110	0	0	1803	5	183	1898	3173
111	0	0	1878	5	183	1898	3175
112	0	0	1973	5	184	1898	3177
113	0	0	2049	5	184	1897	3178
114	0	0	2078	5	183	1898	3179
115	0	0	2100	5	183	1898	3178
116	0	0	2132	5	183	1897	3176
117	0	0	2166	4	184	1898	3173
118	0	0	2185	5	183	1897	3170
119	0	0	2161	4	183	1898	3171
120	0	0	2106	4	183	1897	3172
121	0	0	2049	4	183	1898	3175
122	0	0	2008	4	185	1898	3177
123	0	0	1964	4	183	1897	3178
124	0	0	1935	5	183	1898	3179
125	0	0	1917	4	184	1897	3179
126	0	0	1892	4	183	1898	3177
127	0	0	1861	4	183	1898	3174
0	0	0	1808	4	184	1897	3171
1	0	0	1796	4	182	1897	3171
2	0	0	1832	4	182	1898	3172
3	0	0	1899	5	182	1897	3174
4	0	0	1983	5	184	1898	3176
5	0	0	2043	5	184	1898	3177
6	0	0	2084	5	182	1898	3179
7	0	0	2117	5	183	1898	3178
8	0	0	2150	5	184	1898	3176
9	0	0	2178	5	183	1898	3173
10	0	0	2203	5	184	1898	3170
11	0	0	2212	6	182	1898	3171
12	0	0	2207	5	184	1898	3173
13	0	0	2173	4	183	1898	3175
14	0	0	2116	4	184	1898	3176
15	0	0	2044	4	183	1897	3178
16	0	0	1978	4	184	1897	3178
17	0	0	1916	4	184	1898	3179
18	0	0	1864	4	183	1898	3177
19	0	0	1820	4	184	1898	3174
20	0	0	1775	4	182	1897	3171
21	0	0	1771	4	182	1897	3171
22	0	0	1812	5	182	1898	3173
23	0	0	1866	5	182	1898	3174
24	0	0	1951	5	184	1898	3177
25	0	0	2039	5	183	1897	3178
26	0	0	2121	5	182	1898	3178
27	0	0	2191	5	184	1898	3178
28	0	0	2238	5	184	1898	3177
29	0	0	2258	5	184	1898	3174
30	0	0	2262	5	183	1897	3171
31	0	0	2237	4	184	1898	3171
32	0	0	2192	4	182	1897	3172
33	0	0	2133	4	184	1897	3175
34	0	0	2064	4	183	1898	3176
35	0	0	2006	4	183	1897	3178
36	0	0	1959	5	183	1898	3178
37	0	0	1916	4	183	1898	3179
38	0	0	1882	4	183	1898	3178
39	0	0	1858	4	183	1898	3173
40	0	0	1815	4	182	1897	3171
41	0	0	1822	5	182	1898	3172
42	0	0	1866	5	182	1898	3172
43	0	0	1946	4	183	1898	3174
44	0	0	2054	4	183	1898	3177
45	0	0	2126	5	184	1897	3178
46	0	0	2153	5	182	1898	3179
47	0	0	2151	4	183	1897	3178
48	0	0	2131	5	184	1897	3177
49	0	0	2161	5	182	1897	3174
50	0	0	2215	5	185	1898	3171
51	0	0	2216	5	185	1897	3171
52	0	0	2174	4	183	1898	3172
53	0	0	2133	4	182	1898	3175
54	0	0	2090	4	183	1897	3176
55	0	0	2048	4	182	1898	3178
56	0	0	1999	4	184	1897	3179
57	0	0	1952	4	183	1898	3178
58	0	0	1918	4	183	1898	3177
59	0	0	1887	4	182	1898	3174
60	0	0	1845	4	184	1897	3171
61	0	0	1846	5	184	1898	3172
62	0	0	1888	5	182	1898	3173
63	0	0	1940	5	184	1897	3174
64	0	0	2010	5	184	1898	3177
65	0	0	2079	5	182	1898	3178
66	0	0	2129	5	183	1898	3179
67	0	0	2165	5	183	1898	3178
68	0	0	2194	5	183	1897	3177
69	0	0	2213	5	182	1898	3174
70	0	0	2232	5	183	1898	3172
71	0	0	2228	4	184	1897	3171
72	0	0	2198	4	183	1898	3172
73	0	0	2166	5	183	1897	3174
74	0	0	2132	4	182	1898	3177
75	0	0	2087	4	182	1897	3178
76	0	0	2040	4	184	1897	3179
77	0	0	1994	4	182	1898	3178
78	0	0	1954	4	183	1898	3177
79	0	0	1912	4	183	1898	3174
80	0	0	1856	4	182	1897	3171
81	0	0	1829	4	184	1898	3172
82	0	0	1833	5	183	1898	3173
83	0	0	1853	5	184	1898	3174
84	0	0	1940	5	183	1898	3176
85	0	0	2048	5	184	1898	3179
86	0	0	2129	4	185	1897	3179
87	0	0	2186	5	184	1898	3178
88	0	0	2240	5	184	1898	3177
89	0	0	2267	5	183	1898	3174
90	0	0	2304	5	184	1898	3171
91	0	0	2306	4	183	1898	3171
92	0	0	2251	4	185	1898	3172
93	0	0	2202	4	183	1898	3174
94	0	0	2181	5	183	1898	3177
95	0	0	2171	3	183	1898	3178
96	0	0	2136	5	183	1898	3179
97	0	0	2088	4	183	1898	3178
98	0	0	2057	4	184	1898	3177
99	0	0	2027	4	183	1898	3175
100	0	0	1983	4	182	1898	3171
101	0	0	1981	5	184	1897	3171
102	0	0	1980	4	184	1898	3173
103	0	0	1967	5	184	1898	3175
104	0	0	1990	5	182	1898	3177
105	0	0	2038	4	183	1898	3179
106	0	0	2088	5	182	1897	3179
107	0	0	2136	5	183	1897	3178
108	0	0	2178	5	183	1898	3177
109	0	0	2204	5	183	1898	3174
110	0	0	2235	4	182	1897	3171
111	0	0	2244	5	184	1898	3172
112	0	0	2237	5	184	1899	3173
113	0	0	2203	4	184	1898	3175
114	0	0	2148	4	183	1898	3176
115	0	0	2091	4	184	1898	3178
116	0	0	2036	5	182	1898	3179
117	0	0	1985	3	183	1898	3179
118	0	0	1949	4	183	1898	3178
119	0	0	1921	4	182	1898	3174
120	0	0	1898	4	183	1898	3171
121	0	0	1900	4	183	1897	3171
122	0	0	1918	5	182	1897	3172
123	0	0	1964	5	183	1898	3174
124	0	0	2035	5	182	1897	3176
125	0	0	2101	5	183	1898	3178
126	0	0	2134	5	183	1897	3179
127	0	0	2177	5	184	1897	3178
0	0	0	2227	5	184	1898	3177
1	0	0	2261	5	184	1898	3174
2	0	0	2299	5	183	1898	3171
3	0	0	2291	4	183	1897	3171
4	0	0	2207	4	184	1897	3172
5	0	0	2119	4	183	1898	3174
6	0	0	2084	4	183	1898	3177
7	0	0	2078	5	183	1898	3179
8	0	0	2054	3	183	1897	3179
9	0	0	2006	4	184	1898	3179
10	0	0	1950	3	183	1898	3178
11	0	0	1890	4	182	1898	3174
12	0	0	1834	4	183	1898	3172
13	0	0	1833	5	183	1897	3171
14	0	0	1876	5	183	1898	3173
15	0	0	1920	5	183	1898	3175
16	0	0	1968	5	182	1898	3177
17	0	0	2011	5	183	1898	3179
18	0	0	2068	5	184	1897	3179
19	0	0	2138	4	184	1898	3179
20	0	0	2170	5	184	1898	3178
21	0	0	2174	5	184	1898	3174
22	0	0	2189	5	184	1897	3171
23	0	0	2195	5	184	1897	3171
24	0	0	2177	4	184	1897	3173
25	0	0	2138	4	183	1898	3174
26	0	0	2087	4	183	1898	3177
27	0	0	2036	4	183	1897	3178
28	0	0	1979	4	184	1897	3179
29	0	0	1947	4	183	1898	3178
30	0	0	1935	4	184	1898	3177
31	0	0	1919	4	184	1898	3175
32	0	0	1862	4	184	1897	3171
33	0	0	1835	5	183	1898	3172
34	0	0	1856	5	182	1898	3173
35	0	0	1887	4	183	1898	3174
36	0	0	1938	5	183	1898	3176
37	0	0	1999	5	183	1898	3178
38	0	0	2052	5	183	1898	3179
39	0	0	2095	4	183	1898	3179
40	0	0	2130	5	183	1898	3178
41	0	0	2151	5	182	1898	3174
42	0	0	2173	5	184	1898	3172
43	0	0	2166	4	184	1897	3171
44	0	0	2127	3	183	1897	3172
45	0	0	2079	4	184	1898	3174
46	0	0	2028	4	183	1898	3176
47	0	0	1975	4	182	1898	3178
48	0	0	1919	4	184	1897	3179
49	0	0	1880	4	183	1897	3179
50	0	0	1845	4	182	1897	3177
51	0	0	1799	4	183	1898	3174
52	0	0	1738	3	183	1898	3171
53	0	0	1724	4	183	1898	3172
54	0	0	1737	4	183	1898	3172
55	0	0	1755	4	182	1898	3175
56	0	0	1842	5	183	1898	3177
57	0	0	1979	5	184	1898	3179
58	0	0	2092	5	184	1897	3179
59	0	0	2170	4	184	1897	3179
60	0	0	2188	5	183	1898	3177
61	0	0	2179	5	183	1898	3174
62	0	0	2216	5	184	1897	3171
63	0	0	2238	4	185	1898	3171
64	0	0	2195	4	184	1898	3172
65	0	0	2108	4	183	1898	3174
66	0	0	1996	4	182	1898	3177
67	0	0	1903	4	184	1897	3178
68	0	0	1853	4	183	1898	3179
69	0	0	1831	4	184	1897	3179
70	0	0	1807	4	183	1897	3177
71	0	0	1790	4	183	1898	3174
72	0	0	1758	5	183	1897	3171
73	0	0	1760	5	183	1898	3171
74	0	0	1788	4	182	1898	3172
75	0	0	1812	5	182	1897	3174
76	0	0	1879	5	183	1898	3177
77	0	0	1969	5	183	1897	3178
78	0	0	2051	5	183	1897	3179
79	0	0	2132	5	184	1898	3179
80	0	0	2206	5	183	1898	3178
81	0	0	2240	5	182	1898	3175
82	0	0	2271	4	183	1898	3171
83	0	0	2267	4	184	1897	3171
84	0	0	2195	4	183	1897	3172
85	0	0	2091	4	184	1898	3174
86	0	0	1997	4	183	1898	3177
87	0	0	1931	4	184	1897	3178
88	0	0	1884	4	184	1898	3179
89	0	0	1861	4	183	1898	3178
90	0	0	1855	5	183	1898	3177
91	0	0	1857	4	182	1898	3175
92	0	0	1812	4	183	1898	3172
93	0	0	1802	5	182	1898	3172
94	0	0	1828	5	182	1898	3172
95	0	0	1870	5	183	1898	3174
96	0	0	1931	5	184	1898	3177
97	0	0	1992	5	184	1897	3178
98	0	0	2055	5	184	1898	3180
99	0	0	2114	5	183	1898	3179
100	0	0	2180	5	183	1898	3177
101	0	0	2223	5	184	1898	3174
102	0	0	2225	5	185	1898	3171
103	0	0	2198	4	184	1897	3171
104	0	0	2136	4	184	1898	3173
105	0	0	2068	4	185	1898	3175
106	0	0	2019	4	183	1898	3177
107	0	0	1981	4	183	1897	3178
108	0	0	1918	4	182	1898	3180
109	0	0	1857	4	183	1898	3179
110	0	0	1822	4	183	1898	3178
111	0	0	1809	4	182	1898	3175
112	0	0	1777	4	183	1897	3171
113	0	0	1792	5	183	1897	3171
114	0	0	1835	4	183	1898	3172
115	0	0	1867	5	183	1898	3174
116	0	0	1922	5	182	1898	3176
117	0	0	1989	5	183	1898	3179
118	0	0	2063	7	183	1897	3179
119	0	0	2137	4	184	1897	3179
120	0	0	2193	5	184	1898	3178
121	0	0	2242	5	184	1898	3175
122	0	0	2310	5	184	1897	3171
123	0	0	2352	5	183	1898	3171
124	0	0	2367	5	184	1897	3172
125	0	0	2361	5	183	1898	3174
126	0	0	2324	4	182	1898	3176
127	0	0	2286	4	183	1897	3178
0	0	0	2280	5	183	1897	3179
1	0	0	2290	4	183	1898	3179
2	0	0	2315	5	183	1898	3179
3	0	0	2344	5	184	1898	3175
4	0	0	2296	4	183	1897	3171
5	0	0	2254	5	182	1898	3172
6	0	0	2297	5	183	1898	3173
7	0	0	2379	5	182	1898	3175
8	0	0	2485	5	182	1898	3177
9	0	0	2584	5	184	1897	3178
10	0	0	2647	5	182	1897	3179
11	0	0	2694	5	184	1897	3179
12	0	0	2727	5	184	1898	3177
13	0	0	2743	5	182	1898	3175
14	0	0	2755	5	185	1897	3171
15	0	0	2761	5	183	1898	3171
16	0	0	2746	5	183	1897	3172
17	0	0	2703	4	183	1897	3174
18	0	0	2655	4	181	1898	3177
19	0	0	2591	4	184	1898	3179
20	0	0	2527	5	184	1898	3179
21	0	0	2480	4	183	1897	3179
22	0	0	2440	4	183	1898	3179
23	0	0	2379	4	183	1898	3175
24	0	0	2282	4	182	1898	3172
25	0	0	2205	5	183	1897	3171
26	0	0	2167	3	183	1897	3172
27	0	0	2151	5	184	1898	3174
28	0	0	2164	5	182	1898	3177
29	0	0	2193	5	183	1898	3178
30	0	0	2201	5	183	1897	3179
31	0	0	2203	4	184	1898	3179
32	0	0	2195	5	183	1898	3177
33	0	0	2174	5	182	1898	3175
34	0	0	2177	5	184	1897	3171
35	0	0	2171	4	184	1898	3172
36	0	0	2130	4	184	1898	3173
37	0	0	2074	4	183	1898	3174
38	0	0	2018	4	184	1898	3177
39	0	0	1965	4	183	1898	3178
40	0	0	1923	4	182	1898	3179
41	0	0	1888	2	183	1898	3179
42	0	0	1858	4	183	1898	3178
43	0	0	1819	4	184	1898	3175
44	0	0	1751	4	182	1898	3171
45	0	0	1745	5	183	1897	3171
46	0	0	1823	4	183	1898	3173
47	0	0	1909	4	183	1898	3175
48	0	0	1998	5	183	1898	3177
49	0	0	2098	5	184	1898	3179
50	0	0	2191	6	184	1897	3179
51	0	0	2253	3	184	1897	3179
52	0	0	2267	5	183	1898	3178
53	0	0	2245	4	183	1898	3175
54	0	0	2244	5	184	1898	3171
55	0	0	2223	5	184	1897	3171
56	0	0	2182	4	183	1898	3172
57	0	0	2136	4	183	1898	3174
58	0	0	2074	4	183	1898	3177
59	0	0	2000	4	183	1897	3178
60	0	0	1936	4	182	1898	3179
61	0	0	1887	4	183	1897	3179
62	0	0	1846	4	183	1898	3178
63	0	0	1807	3	182	1898	3175
64	0	0	1759	4	184	1897	3171
65	0	0	1753	5	184	1898	3172
66	0	0	1781	5	184	1898	3173
67	0	0	1828	5	184	1898	3174
68	0	0	1886	5	183	1898	3177
69	0	0	1952	5	183	1898	3178
70	0	0	2009	5	182	1898	3179
71	0	0	2056	5	184	1898	3179
72	0	0	2089	5	184	1898	3178
73	0	0	2109	4	182	1898	3175
74	0	0	2133	5	184	1897	3172
75	0	0	2143	5	183	1898	3171
76	0	0	2121	4	183	1898	3172
77	0	0	2089	4	183	1897	3174
78	0	0	2066	4	184	1898	3177
79	0	0	2036	4	184	1897	3178
80	0	0	1958	4	184	1898	3180
81	0	0	1843	4	184	1898	3179
82	0	0	1760	4	184	1897	3178
83	0	0	1719	4	184	1898	3176
84	0	0	1677	4	182	1897	3172
85	0	0	1669	5	182	1898	3172
86	0	0	1710	4	183	1898	3173
87	0	0	1783	5	183	1898	3174
88	0	0	1876	5	183	1898	3177
89	0	0	1961	5	183	1897	3178
90	0	0	2039	5	183	1898	3180
91	0	0	2088	4	184	1897	3179
92	0	0	2101	5	183	1898	3178
93	0	0	2095	5	182	1898	3175
94	0	0	2112	5	185	1898	3171
95	0	0	2136	5	184	1897	3171
96	0	0	2140	5	183	1897	3172
97	0	0	2132	4	184	1898	3174
98	0	0	2084	4	184	1897	3177
99	0	0	2033	4	184	1897	3178
100	0	0	1981	4	183	1897	3179
101	0	0	1935	4	183	1897	3179
102	0	0	1912	4	183	1898	3179
103	0	0	1880	4	183	1898	3175
104	0	0	1794	4	183	1898	3173
105	0	0	1745	5	183	1898	3171
106	0	0	1783	5	184	1897	3172
107	0	0	1850	5	182	1898	3175
108	0	0	1914	5	184	1898	3177
109	0	0	1979	5	183	1898	3178
110	0	0	2030	5	183	1898	3180
111	0	0	2084	5	183	1897	3179
112	0	0	2120	5	183	1898	3178
113	0	0	2141	5	183	1898	3175
114	0	0	2175	5	183	1897	3171
115	0	0	2173	4	183	1897	3171
116	0	0	2129	4	184	1898	3172
117	0	0	2098	4	184	1898	3175
118	0	0	2067	4	183	1898	3176
119	0	0	2020	4	182	1897	3178
120	0	0	1959	4	183	1897	3179
121	0	0	1892	4	181	1897	3179
122	0	0	1843	4	184	1898	3178
123	0	0	1823	4	182	1898	3176
124	0	0	1772	4	182	1898	3172
125	0	0	1739	4	183	1898	3172
126	0	0	1755	5	183	1898	3173
127	0	0	1794	5	182	1898	3174
0	0	0	1862	4	183	1898	3177
1	0	0	1948	5	184	1897	3178
2	0	0	2026	5	184	1898	3180
3	0	0	2084	5	184	1898	3179
4	0	0	2126	5	183	1898	3178
5	0	0	2143	5	184	1897	3175
6	0	0	2155	5	184	1897	3172
7	0	0	2166	5	184	1897	3171
8	0	0	2159	5	183	1898	3173
9	0	0	2119	4	184	1898	3175
10	0	0	2045	4	183	1898	3177
11	0	0	1983	4	182	1897	3178
12	0	0	1928	4	184	1898	3180
13	0	0	1874	4	183	1898	3179
14	0	0	1820	4	182	1898	3178
15	0	0	1780	4	183	1897	3175
16	0	0	1727	4	183	1897	3172
17	0	0	1705	5	183	1897	3171
18	0	0	1743	5	183	1897	3173
19	0	0	1807	4	183	1898	3175
20	0	0	1885	5	183	1898	3176
21	0	0	1958	5	184	1898	3179
22	0	0	2029	5	183	1898	3179
23	0	0	2092	5	183	1897	3179
24	0	0	2150	4	184	1898	3178
25	0	0	2202	5	183	1897	3175
26	0	0	2218	5	183	1897	3172
27	0	0	2195	4	183	1898	3172
28	0	0	2150	4	183	1898	3173
29	0	0	2094	4	182	1898	3174
30	0	0	2023	4	183	1898	3177
31	0	0	1935	4	184	1897	3178
32	0	0	1859	4	184	1898	3180
33	0	0	1806	4	184	1898	3179
34	0	0	1777	4	184	1898	3179
35	0	0	1747	4	182	1897	3176
36	0	0	1691	4	182	1897	3172
37	0	0	1648	4	183	1897	3171
38	0	0	1648	4	182	1898	3173
39	0	0	1694	4	183	1898	3174
40	0	0	1791	5	183	1897	3176
41	0	0	1895	5	183	1897	3178
42	0	0	1975	5	184	1898	3179
43	0	0	2032	4	183	1898	3180
44	0	0	2072	4	184	1898	3178
45	0	0	2113	5	183	1898	3175
46	0	0	2168	5	183	1898	3172
47	0	0	2194	5	183	1898	3172
48	0	0	2157	4	184	1898	3173
49	0	0	2104	4	184	1898	3174
50	0	0	2072	4	184	1898	3176
51	0	0	2040	4	184	1898	3179
52	0	0	2004	4	183	1898	3179
53	0	0	1939	4	183	1898	3179
54	0	0	1882	3	183	1898	3178
55	0	0	1832	4	182	1898	3176
56	0	0	1745	4	183	1897	3172
57	0	0	1683	4	183	1898	3172
58	0	0	1687	5	182	1898	3173
59	0	0	1753	4	183	1898	3174
60	0	0	1842	5	183	1898	3177
61	0	0	1927	5	184	1898	3178
62	0	0	2011	5	184	1898	3180
63	0	0	2076	6	183	1898	3180
64	0	0	2126	5	183	1898	3179
65	0	0	2139	5	184	1898	3176
66	0	0	2151	5	183	1898	3172
67	0	0	2158	5	183	1898	3171
68	0	0	2124	3	182	1898	3173
69	0	0	2087	4	183	1898	3174
70	0	0	2052	4	183	1898	3177
71	0	0	2028	4	183	1897	3178
72	0	0	2000	4	182	1898	3179
73	0	0	1951	5	183	1897	3179
74	0	0	1903	3	182	1898	3179
75	0	0	1887	4	183	1898	3176
76	0	0	1865	4	183	1897	3172
77	0	0	1867	5	181	1898	3172
78	0	0	1892	5	183	1898	3173
79	0	0	1933	5	184	1898	3175
80	0	0	1996	5	184	1898	3177
81	0	0	2059	5	184	1898	3179
82	0	0	2107	5	184	1897	3179
83	0	0	2151	5	184	1898	3179
84	0	0	2189	5	184	1898	3178
85	0	0	2212	5	184	1898	3176
86	0	0	2239	5	183	1897	3172
87	0	0	2255	5	183	1898	3172
88	0	0	2237	5	184	1898	3173
89	0	0	2190	4	184	1898	3175
90	0	0	2135	4	183	1898	3177
91	0	0	2078	4	182	1898	3178
92	0	0	2029	4	183	1897	3180
93	0	0	1991	4	183	1898	3180
94	0	0	1960	4	184	1898	3179
95	0	0	1942	4	183	1898	3176
96	0	0	1894	4	184	1897	3172
97	0	0	1890	5	183	1897	3172
98	0	0	1953	4	183	1898	3173
99	0	0	2037	4	184	1898	3175
100	0	0	2138	5	183	1898	3177
101	0	0	2200	5	184	1898	3178
102	0	0	2249	5	183	1897	3180
103	0	0	2278	5	184	1898	3180
104	0	0	2267	4	183	1898	3178
105	0	0	2244	5	184	1897	3176
106	0	0	2233	5	184	1897	3172
107	0	0	2195	4	182	1897	3172
108	0	0	2151	5	182	1898	3172
109	0	0	2124	4	183	1898	3175
110	0	0	2115	5	183	1898	3177
111	0	0	2128	4	184	1898	3179
112	0	0	2104	5	183	1897	3179
113	0	0	2045	5	183	1898	3179
114	0	0	1994	4	182	1898	3178
115	0	0	1981	4	182	1898	3177
116	0	0	1945	4	182	1897	3172
117	0	0	1918	4	183	1898	3173
118	0	0	1909	5	182	1898	3173
119	0	0	1914	5	183	1898	3175
120	0	0	1966	5	183	1897	3177
121	0	0	2067	5	184	1897	3178
122	0	0	2173	5	183	1897	3179
123	0	0	2266	3	184	1898	3180
124	0	0	2331	4	183	1898	3179
125	0	0	2345	5	184	1898	3176
126	0	0	2324	5	184	1897	3172
127	0	0	2286	4	182	1898	3172
0	0	0	2229	2	183	1898	3173
1	0	0	2177	4	183	1898	3175
2	0	0	2147	4	183	1898	3177
3	0	0	2131	4	182	1898	3178
4	0	0	2108	4	183	1897	3180
5	0	0	2081	4	183	1898	3180
6	0	0	2044	4	183	1898	3179
7	0	0	2001	4	182	1897	3176
8	0	0	1924	4	183	1898	3172
9	0	0	1880	4	183	1898	3171
10	0	0	1901	5	184	1898	3173
11	0	0	1945	5	184	1898	3175
12	0	0	1997	5	183	1897	3177
13	0	0	2061	5	184	1898	3178
14	0	0	2116	5	185	1898	3179
15	0	0	2173	4	183	1898	3180
16	0	0	2224	4	184	1898	3178
17	0	0	2246	4	184	1898	3176
18	0	0	2273	5	184	1897	3172
19	0	0	2285	5	182	1898	3171
20	0	0	2253	4	182	1898	3173
21	0	0	2212	4	184	1898	3174
22	0	0	2159	4	182	1898	3177
23	0	0	2100	4	184	1898	3178
24	0	0	2050	4	183	1898	3180
25	0	0	1982	4	184	1898	3180
26	0	0	1916	4	183	1898	3179
27	0	0	1908	5	183	1898	3177
28	0	0	1882	4	183	1897	3172
29	0	0	1866	5	183	1898	3173
30	0	0	1878	5	183	1898	3174
31	0	0	1862	4	184	1898	3175
32	0	0	1902	5	182	1898	3177
33	0	0	1977	5	184	1897	3178
34	0	0	2010	5	182	1898	3180
35	0	0	2064	5	184	1898	3180
36	0	0	2122	4	183	1898	3179
37	0	0	2157	5	183	1897	3176
38	0	0	2198	4	185	1897	3173
39	0	0	2227	5	182	1898	3171
40	0	0	2193	3	184	1898	3172
41	0	0	2124	4	184	1898	3175
42	0	0	2060	4	183	1898	3177
43	0	0	1996	4	183	1897	3178
44	0	0	1942	4	182	1898	3179
45	0	0	1914	5	182	1898	3180
46	0	0	1890	4	184	1898	3180
47	0	0	1859	4	183	1897	3176
48	0	0	1813	4	183	1897	3172
49	0	0	1786	4	183	1897	3172
50	0	0	1798	5	183	1897	3173
51	0	0	1835	4	183	1898	3175
52	0	0	1896	5	183	1897	3176
53	0	0	1978	5	184	1897	3178
54	0	0	2059	5	183	1898	3180
55	0	0	2140	5	185	1897	3180
56	0	0	2214	4	184	1898	3179
57	0	0	2270	5	184	1898	3177
58	0	0	2289	5	184	1897	3172
59	0	0	2279	5	184	1898	3172
60	0	0	2235	4	184	1897	3172
61	0	0	2184	4	184	1898	3174
62	0	0	2125	4	184	1897	3177
63	0	0	2043	4	183	1897	3178
64	0	0	1957	3	183	1898	3179
65	0	0	1897	4	184	1897	3180
66	0	0	1868	4	182	1898	3179
67	0	0	1851	4	182	1897	3176
68	0	0	1800	5	183	1897	3173
69	0	0	1762	4	183	1898	3172
70	0	0	1798	5	183	1898	3172
71	0	0	1877	4	184	1898	3174
72	0	0	1961	4	183	1898	3177
73	0	0	2040	5	182	1898	3178
74	0	0	2087	5	183	1898	3180
75	0	0	2119	5	184	1898	3180
76	0	0	2139	5	183	1898	3179
77	0	0	2142	5	183	1897	3176
78	0	0	2156	5	184	1897	3172
79	0	0	2182	5	183	1898	3172
80	0	0	2168	5	182	1897	3173
81	0	0	2136	4	183	1898	3174
82	0	0	2101	4	182	1897	3177
83	0	0	2044	4	182	1897	3178
84	0	0	1986	4	184	1897	3179
85	0	0	1931	4	184	1898	3180
86	0	0	1876	4	183	1898	3180
87	0	0	1833	4	184	1897	3176
88	0	0	1788	4	184	1897	3173
89	0	0	1778	5	182	1898	3173
90	0	0	1818	5	184	1898	3173
91	0	0	1871	4	184	1898	3174
92	0	0	1915	5	182	1897	3177
93	0	0	1968	5	184	1898	3178
94	0	0	2011	4	184	1897	3179
95	0	0	2060	5	183	1897	3179
96	0	0	2109	4	184	1898	3179
97	0	0	2154	5	184	1897	3177
98	0	0	2172	5	184	1898	3174
99	0	0	2165	4	184	1898	3172
100	0	0	2127	5	184	1898	3173
101	0	0	2077	4	183	1898	3175
102	0	0	2041	4	183	1897	3177
103	0	0	2036	5	182	1897	3179
104	0	0	2001	4	183	1898	3180
105	0	0	1926	4	183	1898	3180
106	0	0	1844	4	182	1898	3179
107	0	0	1785	4	184	1897	3177
108	0	0	1729	4	181	1897	3173
109	0	0	1714	4	184	1897	3172
110	0	0	1761	5	182	1898	3172
111	0	0	1824	5	184	1898	3175
112	0	0	1899	5	183	1898	3177
113	0	0	1990	5	182	1897	3178
114	0	0	2063	5	182	1898	3180
115	0	0	2112	5	184	1898	3180
116	0	0	2141	5	184	1898	3179
117	0	0	2167	5	184	1897	3177
118	0	0	2186	5	183	1897	3173
119	0	0	2199	5	185	1897	3172
120	0	0	2178	4	184	1897	3173
121	0	0	2114	4	184	1898	3174
122	0	0	2036	4	182	1897	3177
123	0	0	1965	5	183	1898	3179
124	0	0	1936	4	182	1898	3179
125	0	0	1964	6	182	1898	3180
126	0	0	1995	5	183	1898	3179
127	0	0	2004	5	182	1898	3177
0	0	0	2009	4	183	1897	3173
1	0	0	2010	4	184	1897	3172
2	0	0	1971	4	182	1898	3173
3	0	0	1912	4	183	1898	3174
4	0	0	1878	4	183	1897	3177
5	0	0	1908	4	183	1897	3178
6	0	0	2001	5	183	1898	3180
7	0	0	2070	5	183	1898	3180
8	0	0	2112	5	183	1898	3179
9	0	0	2163	5	183	1897	3177
10	0	0	2231	5	183	1898	3173
11	0	0	2290	5	182	1898	3173
12	0	0	2304	5	184	1898	3174
13	0	0	2256	4	184	1897	3175
14	0	0	2163	4	184	1898	3177
15	0	0	2038	4	183	1897	3178
16	0	0	1943	4	184	1897	3180
17	0	0	1891	5	182	1898	3180
18	0	0	1880	5	183	1898	3179
19	0	0	1888	5	183	1897	3177
20	0	0	1852	3	183	1898	3174
21	0	0	1806	5	183	1897	3172
22	0	0	1794	5	183	1898	3173
23	0	0	1813	5	183	1898	3175
24	0	0	1880	5	184	1898	3177
25	0	0	1976	5	182	1897	3178
26	0	0	2043	4	184	1897	3180
27	0	0	2093	5	182	1898	3180
28	0	0	2134	5	184	1898	3179
29	0	0	2157	5	184	1897	3177
30	0	0	2160	4	184	1897	3173
31	0	0	2164	5	184	1898	3172
32	0	0	2140	4	184	1898	3173
33	0	0	2102	5	183	1898	3174
34	0	0	2043	4	183	1897	3177
35	0	0	1996	4	185	1898	3178
36	0	0	1964	4	182	1898	3181
37	0	0	1938	4	182	1898	3180
38	0	0	1901	5	184	1897	3179
39	0	0	1860	4	184	1898	3178
40	0	0	1806	4	183	1898	3173
41	0	0	1774	5	182	1897	3172
42	0	0	1796	5	183	1898	3173
43	0	0	1843	5	184	1898	3175
44	0	0	1923	5	183	1898	3177
45	0	0	2028	4	184	1898	3179
46	0	0	2114	5	183	1898	3180
47	0	0	2171	5	183	1898	3180
48	0	0	2192	5	183	1898	3179
49	0	0	2218	5	182	1897	3177
50	0	0	2261	5	183	1898	3173
51	0	0	2287	5	183	1898	3173
52	0	0	2265	4	182	1898	3173
53	0	0	2214	4	183	1898	3174
54	0	0	2154	4	182	1897	3177
55	0	0	2092	4	183	1898	3179
56	0	0	2029	4	183	1898	3181
57	0	0	1979	5	182	1898	3180
58	0	0	1956	4	184	1898	3180
59	0	0	1928	4	183	1898	3177
60	0	0	1871	4	183	1898	3174
61	0	0	1810	4	184	1898	3172
62	0	0	1799	5	184	1898	3173
63	0	0	1842	5	182	1898	3175
64	0	0	1922	5	183	1897	3177
65	0	0	1999	5	183	1898	3178
66	0	0	2046	5	182	1898	3181
67	0	0	2087	4	184	1898	3180
68	0	0	2158	5	184	1898	3179
69	0	0	2246	5	184	1898	3178
70	0	0	2323	5	183	1897	3173
71	0	0	2353	5	185	1898	3172
72	0	0	2303	4	182	1898	3173
73	0	0	2239	4	183	1898	3175
74	0	0	2184	4	184	1898	3177
75	0	0	2121	4	182	1897	3179
76	0	0	2053	4	182	1897	3180
77	0	0	1993	4	183	1898	3180
78	0	0	1934	3	183	1898	3180
79	0	0	1898	4	182	1898	3177
80	0	0	1848	4	183	1897	3173
81	0	0	1795	4	184	1897	3172
82	0	0	1802	6	183	1897	3173
83	0	0	1872	5	183	1898	3174
84	0	0	1978	5	183	1898	3177
85	0	0	2096	5	183	1897	3178
86	0	0	2186	5	183	1898	3180
87	0	0	2240	6	185	1897	3180
88	0	0	2259	4	184	1898	3180
89	0	0	2262	5	182	1897	3177
90	0	0	2258	5	183	1897	3174
91	0	0	2237	4	183	1898	3172
92	0	0	2225	6	183	1898	3173
93	0	0	2220	5	183	1898	3175
94	0	0	2195	4	184	1898	3177
95	0	0	2143	5	184	1897	3178
96	0	0	2089	4	184	1898	3181
97	0	0	2023	4	184	1898	3181
98	0	0	1963	4	182	1898	3180
99	0	0	1943	4	184	1898	3178
100	0	0	1900	4	183	1898	3174
101	0	0	1859	4	182	1898	3173
102	0	0	1850	4	183	1898	3174
103	0	0	1865	5	184	1898	3175
104	0	0	1911	5	184	1898	3178
105	0	0	1983	5	183	1898	3179
106	0	0	2057	5	182	1898	3181
107	0	0	2141	5	183	1898	3181
108	0	0	2194	4	183	1898	3180
109	0	0	2219	5	184	1898	3178
110	0	0	2255	5	184	1897	3173
111	0	0	2280	3	183	1898	3173
112	0	0	2246	4	183	1898	3173
113	0	0	2173	4	183	1898	3175
114	0	0	2108	4	183	1897	3177
115	0	0	2053	4	183	1898	3178
116	0	0	1999	4	185	1897	3180
117	0	0	1931	4	183	1898	3180
118	0	0	1893	4	184	1898	3180
119	0	0	1895	5	183	1897	3178
120	0	0	1884	4	183	1898	3174
121	0	0	1867	4	183	1897	3173
122	0	0	1869	5	183	1898	3173
123	0	0	1888	5	182	1898	3176
124	0	0	1921	5	183	1898	3177
125	0	0	1981	5	184	1898	3179
126	0	0	2042	5	183	1898	3180
127	0	0	2111	5	184	1898	3181
0	0	0	2168	6	182	1898	3180
1	0	0	2199	5	183	1898	3177
2	0	0	2205	5	183	1898	3173
3	0	0	2207	5	184	1898	3173
4	0	0	2200	5	184	1898	3174
5	0	0	2156	3	183	1898	3175
6	0	0	2102	4	183	1898	3177
7	0	0	2038	4	184	1898	3179
8	0	0	1975	4	183	1897	3180
9	0	0	1911	4	183	1898	3180
10	0	0	1854	5	184	1898	3180
11	0	0	1828	4	183	1897	3178
12	0	0	1789	3	183	1898	3174
13	0	0	1780	5	183	1898	3173
14	0	0	1815	5	184	1898	3174
15	0	0	1851	5	183	1898	3175
16	0	0	1912	5	184	1897	3177
17	0	0	2017	4	184	1897	3179
18	0	0	2129	5	184	1897	3180
19	0	0	2217	5	184	1898	3180
20	0	0	2274	5	183	1898	3180
21	0	0	2303	5	183	1897	3177
22	0	0	2317	5	184	1897	3174
23	0	0	2322	5	184	1898	3172
24	0	0	2288	4	184	1898	3174
25	0	0	2242	4	183	1898	3175
26	0	0	2199	4	182	1898	3177
27	0	0	2142	4	183	1898	3179
28	0	0	2071	4	183	1898	3180
29	0	0	1996	4	184	1898	3181
30	0	0	1942	4	183	1898	3180
31	0	0	1914	4	184	1898	3178
32	0	0	1898	4	183	1897	3174
33	0	0	1894	4	184	1898	3172
34	0	0	1914	5	183	1898	3173
35	0	0	1950	4	183	1898	3175
36	0	0	2004	5	184	1898	3177
37	0	0	2062	3	182	1898	3180
38	0	0	2104	5	184	1898	3180
39	0	0	2127	5	181	1898	3180
40	0	0	2143	6	184	1898	3180
41	0	0	2162	5	183	1897	3178
42	0	0	2162	5	184	1898	3174
43	0	0	2168	5	184	1898	3174
44	0	0	2169	5	184	1898	3174
45	0	0	2181	5	183	1898	3175
46	0	0	2202	5	184	1897	3177
47	0	0	2190	4	183	1897	3179
48	0	0	2121	4	183	1897	3180
49	0	0	2034	4	182	1898	3180
50	0	0	1971	4	183	1898	3180
51	0	0	1933	4	184	1897	3178
52	0	0	1877	2	183	1898	3175
53	0	0	1826	4	182	1898	3172
54	0	0	1823	5	182	1898	3173
55	0	0	1839	5	184	1898	3175
56	0	0	1913	6	184	1897	3177
57	0	0	2010	4	184	1898	3179
58	0	0	2074	5	183	1898	3181
59	0	0	2095	5	184	1897	3181
60	0	0	2122	5	183	1898	3180
61	0	0	2157	5	184	1897	3178
62	0	0	2191	5	183	1897	3174
63	0	0	2238	5	182	1898	3172
64	0	0	2254	5	185	1898	3174
65	0	0	2215	5	183	1898	3175
66	0	0	2165	3	182	1897	3177
67	0	0	2114	4	182	1897	3179
68	0	0	2065	4	182	1898	3180
69	0	0	2012	4	183	1898	3181
70	0	0	1962	3	182	1898	3180
71	0	0	1913	4	183	1897	3178
72	0	0	1859	3	183	1898	3175
73	0	0	1824	4	183	1899	3173
74	0	0	1845	5	182	1897	3173
75	0	0	1900	4	183	1898	3175
76	0	0	1972	5	183	1897	3177
77	0	0	2041	4	184	1897	3179
78	0	0	2101	5	183	1898	3180
79	0	0	2151	5	183	1898	3181
80	0	0	2197	4	184	1898	3180
81	0	0	2232	5	183	1898	3178
82	0	0	2225	5	185	1898	3175
83	0	0	2225	5	183	1897	3172
84	0	0	2212	4	182	1898	3173
85	0	0	2185	4	183	1898	3175
86	0	0	2143	4	184	1898	3177
87	0	0	2085	4	183	1898	3180
88	0	0	2028	6	184	1897	3180
89	0	0	1981	4	182	1897	3180
90	0	0	1930	4	183	1898	3180
91	0	0	1885	4	184	1898	3178
92	0	0	1841	4	184	1897	3174
93	0	0	1805	5	183	1898	3173
94	0	0	1818	5	181	1898	3173
95	0	0	1868	4	183	1898	3175
96	0	0	1949	5	183	1898	3177
97	0	0	2018	5	183	1898	3179
98	0	0	2065	4	184	1898	3180
99	0	0	2126	5	182	1898	3181
100	0	0	2200	5	183	1898	3181
101	0	0	2246	5	184	1897	3178
102	0	0	2288	5	183	1898	3174
103	0	0	2326	5	184	1898	3172
104	0	0	2310	4	183	1898	3174
105	0	0	2252	4	185	1898	3175
106	0	0	2197	4	183	1897	3177
107	0	0	2136	4	183	1898	3179
108	0	0	2067	4	183	1898	3181
109	0	0	1983	4	183	1898	3182
110	0	0	1909	3	184	1898	3180
111	0	0	1873	4	183	1897	3178
112	0	0	1831	4	183	1897	3174
113	0	0	1797	4	184	1897	3173
114	0	0	1809	4	184	1898	3173
115	0	0	1818	4	182	1898	3175
116	0	0	1843	5	183	1897	3177
117	0	0	1920	5	182	1898	3180
118	0	0	2013	5	185	1898	3180
119	0	0	2089	4	183	1898	3181
120	0	0	2149	5	184	1898	3181
121	0	0	2184	5	183	1897	3178
122	0	0	2204	5	183	1898	3175
123	0	0	2239	5	184	1898	3172
124	0	0	2248	5	183	1899	3173
125	0	0	2210	4	184	1898	3175
126	0	0	2154	4	183	1897	3177
127	0	0	2079	4	183	1897	3179
0	0	0	1985	3	183	1897	3180
1	0	0	1918	5	183	1897	3180
2	0	0	1891	3	183	1898	3180
3	0	0	1894	5	184	1898	3179
4	0	0	1879	4	183	1898	3174
5	0	0	1844	4	182	1897	3174
6	0	0	1853	5	183	1898	3174
7	0	0	1909	4	184	1898	3175
8	0	0	1968	5	182	1898	3177
9	0	0	2018	5	184	1898	3179
10	0	0	2061	5	183	1898	3180
11	0	0	2091	5	184	1898	3180
12	0	0	2122	4	184	1898	3180
13	0	0	2165	5	184	1897	3178
14	0	0	2215	5	183	1898	3175
15	0	0	2265	7	183	1897	3173
16	0	0	2243	4	184	1898	3173
17	0	0	2175	4	183	1898	3175
18	0	0	2097	4	183	1898	3178
19	0	0	2015	5	183	1897	3179
20	0	0	1954	4	182	1898	3181
21	0	0	1894	4	184	1897	3181
22	0	0	1849	4	183	1898	3180
23	0	0	1832	4	183	1897	3178
24	0	0	1805	4	182	1897	3174
25	0	0	1767	4	183	1897	3173
26	0	0	1783	4	185	1898	3173
27	0	0	1827	4	183	1898	3175
28	0	0	1874	5	183	1897	3177
29	0	0	1954	5	183	1897	3179
30	0	0	2037	5	182	1897	3180
31	0	0	2102	5	182	1897	3181
32	0	0	2141	5	182	1898	3180
33	0	0	2144	5	183	1897	3179
34	0	0	2154	5	183	1897	3174
35	0	0	2194	5	184	1897	3173
36	0	0	2209	5	184	1897	3174
37	0	0	2184	4	183	1898	3175
38	0	0	2154	4	183	1897	3177
39	0	0	2116	4	182	1898	3179
40	0	0	2080	4	184	1898	3181
41	0	0	2019	3	182	1898	3182
42	0	0	1945	4	183	1898	3181
43	0	0	1877	4	184	1898	3179
44	0	0	1825	4	184	1897	3174
45	0	0	1790	4	183	1898	3174
46	0	0	1793	5	183	1898	3174
47	0	0	1824	5	183	1898	3175
48	0	0	1868	5	183	1898	3178
49	0	0	1930	5	183	1897	3179
50	0	0	1983	5	183	1897	3181
51	0	0	2010	5	183	1898	3182
52	0	0	2034	4	183	1898	3181
53	0	0	2060	5	184	1897	3179
54	0	0	2093	5	184	1898	3174
55	0	0	2149	5	184	1897	3173
56	0	0	2172	5	183	1898	3173
57	0	0	2161	3	183	1898	3175
58	0	0	2119	4	184	1897	3177
59	0	0	2060	5	183	1897	3179
60	0	0	1999	4	184	1897	3180
61	0	0	1927	4	184	1898	3181
62	0	0	1868	4	183	1898	3180
63	0	0	1838	4	182	1898	3179
64	0	0	1813	4	184	1898	3175
65	0	0	1789	4	183	1897	3173
66	0	0	1801	5	183	1898	3174
67	0	0	1846	5	184	1898	3176
68	0	0	1928	5	183	1897	3177
69	0	0	2032	5	184	1898	3180
70	0	0	2116	5	183	1897	3180
71	0	0	2202	5	184	1897	3181
72	0	0	2291	5	184	1898	3181
73	0	0	2354	5	184	1898	3179
74	0	0	2383	5	183	1897	3175
75	0	0	2411	5	183	1898	3173
76	0	0	2429	5	184	1898	3174
77	0	0	2428	5	183	1898	3176
78	0	0	2396	4	184	1897	3177
79	0	0	2364	4	183	1897	3179
80	0	0	2328	3	183	1898	3180
81	0	0	2290	4	184	1897	3181
82	0	0	2258	3	184	1898	3181
83	0	0	2258	5	183	1897	3178
84	0	0	2265	5	183	1897	3175
85	0	0	2265	5	182	1898	3174
86	0	0	2305	5	184	1898	3174
87	0	0	2361	4	183	1898	3175
88	0	0	2416	5	183	1898	3178
89	0	0	2490	6	183	1897	3179
90	0	0	2568	5	182	1897	3181
91	0	0	2629	5	183	1897	3181
92	0	0	2670	5	183	1898	3180
93	0	0	2699	5	183	1897	3178
94	0	0	2707	5	183	1898	3175
95	0	0	2724	5	183	1897	3173
96	0	0	2717	5	183	1898	3173
97	0	0	2656	3	184	1898	3175
98	0	0	2594	4	183	1898	3177
99	0	0	2535	4	182	1897	3179
100	0	0	2480	4	184	1898	3181
101	0	0	2414	4	183	1898	3182
102	0	0	2339	3	183	1898	3181
103	0	0	2292	4	183	1898	3180
104	0	0	2244	4	184	1897	3175
105	0	0	2168	4	183	1898	3173
106	0	0	2118	4	183	1898	3173
107	0	0	2081	3	184	1898	3175
108	0	0	2053	4	184	1897	3177
109	0	0	2058	5	184	1898	3180
110	0	0	2095	5	183	1898	3180
111	0	0	2140	5	183	1897	3181
112	0	0	2124	4	183	1898	3181
113	0	0	2101	5	184	1898	3179
114	0	0	2094	5	184	1898	3175
115	0	0	2101	5	184	1898	3174
116	0	0	2086	4	184	1898	3174
117	0	0	2069	4	184	1898	3175
118	0	0	2055	4	183	1898	3177
119	0	0	2031	4	183	1898	3179
120	0	0	1977	4	183	1898	3181
121	0	0	1894	4	185	1898	3181
122	0	0	1815	4	183	1898	3181
123	0	0	1759	4	184	1897	3179
124	0	0	1716	3	184	1897	3175
125	0	0	1674	5	183	1897	3173
126	0	0	1694	5	184	1898	3173
127	0	0	1756	4	183	1898	3175
0	0	0	1825	5	182	1898	3176
1	0	0	1922	5	183	1897	3179
2	0	0	2015	5	184	1897	3181
3	0	0	2094	5	183	1898	3182
4	0	0	2138	4	182	1898	3181
5	0	0	2149	5	183	1898	3180
6	0	0	2141	5	184	1897	3175
7	0	0	2110	5	184	1897	3173
8	0	0	2079	4	184	1898	3174
9	0	0	2062	4	183	1898	3175
10	0	0	2042	4	183	1898	3177
11	0	0	2003	5	184	1897	3179
12	0	0	1935	4	182	1897	3180
13	0	0	1866	4	184	1898	3181
14	0	0	1827	4	183	1898	3181
15	0	0	1821	5	183	1897	3179
16	0	0	1800	3	183	1898	3175
17	0	0	1748	4	183	1898	3173
18	0	0	1731	5	183	1898	3174
19	0	0	1746	4	184	1898	3175
20	0	0	1773	5	184	1897	3177
21	0	0	1823	6	183	1897	3179
22	0	0	1894	5	183	1897	3180
23	0	0	1949	5	183	1898	3181
24	0	0	1991	5	183	1898	3181
25	0	0	2046	5	183	1897	3179
26	0	0	2093	5	183	1897	3175
27	0	0	2125	5	183	1897	3173
28	0	0	2102	4	184	1897	3173
29	0	0	2019	4	182	1898	3175
30	0	0	1935	4	183	1897	3177
31	0	0	1862	4	183	1898	3180
32	0	0	1791	4	183	1897	3180
33	0	0	1725	4	184	1898	3181
34	0	0	1686	4	184	1898	3181
35	0	0	1674	4	182	1898	3179
36	0	0	1669	4	183	1898	3175
37	0	0	1644	4	183	1897	3174
38	0	0	1658	5	184	1898	3175
39	0	0	1688	4	183	1898	3175
40	0	0	1721	5	183	1897	3177
41	0	0	1793	5	184	1898	3179
42	0	0	1873	5	184	1898	3181
43	0	0	1952	5	185	1898	3181
44	0	0	2013	5	183	1898	3181
45	0	0	2069	5	183	1897	3179
46	0	0	2109	5	184	1897	3175
47	0	0	2135	5	184	1897	3173
48	0	0	2121	4	183	1898	3174
49	0	0	2077	4	183	1898	3176
50	0	0	2016	4	184	1897	3177
51	0	0	1947	4	184	1898	3180
52	0	0	1881	4	184	1898	3181
53	0	0	1815	4	183	1897	3181
54	0	0	1768	4	183	1898	3181
55	0	0	1749	4	184	1897	3179
56	0	0	1732	4	183	1897	3175
57	0	0	1697	4	183	1897	3174
58	0	0	1701	5	181	1898	3174
59	0	0	1742	5	183	1898	3175
60	0	0	1797	5	183	1898	3178
61	0	0	1885	4	183	1897	3179
62	0	0	1970	5	183	1898	3181
63	0	0	2033	5	184	1898	3182
64	0	0	2093	4	183	1898	3181
65	0	0	2137	5	184	1897	3179
66	0	0	2133	5	183	1897	3175
67	0	0	2127	5	183	1897	3173
68	0	0	2085	4	185	1898	3173
69	0	0	2023	4	183	1898	3175
70	0	0	1970	4	183	1897	3177
71	0	0	1928	4	183	1897	3179
72	0	0	1887	4	184	1897	3181
73	0	0	1852	4	185	1897	3181
74	0	0	1833	4	184	1898	3182
75	0	0	1827	4	184	1897	3179
76	0	0	1810	4	183	1898	3176
77	0	0	1767	4	184	1897	3173
78	0	0	1755	5	183	1897	3174
79	0	0	1790	5	184	1898	3175
80	0	0	1856	5	183	1897	3177
81	0	0	1952	5	183	1897	3179
82	0	0	2044	6	184	1897	3180
83	0	0	2102	5	182	1897	3181
84	0	0	2131	5	183	1897	3181
85	0	0	2132	5	183	1898	3180
86	0	0	2128	5	183	1898	3175
87	0	0	2141	5	183	1898	3174
88	0	0	2115	4	184	1898	3175
89	0	0	2073	5	184	1897	3175
90	0	0	2027	4	183	1897	3177
91	0	0	1969	4	184	1897	3179
92	0	0	1919	4	184	1898	3181
93	0	0	1883	4	185	1897	3181
94	0	0	1858	4	184	1898	3181
95	0	0	1825	4	183	1897	3179
96	0	0	1787	4	183	1897	3175
97	0	0	1738	4	183	1898	3173
98	0	0	1744	4	183	1897	3173
99	0	0	1784	5	182	1898	3175
100	0	0	1831	4	182	1897	3177
101	0	0	1909	5	184	1897	3179
102	0	0	1995	5	183	1898	3180
103	0	0	2060	5	184	1898	3182
104	0	0	2116	5	183	1898	3181
105	0	0	2170	5	183	1897	3179
106	0	0	2185	5	183	1897	3175
107	0	0	2190	5	184	1898	3173
108	0	0	2190	5	184	1898	3174
109	0	0	2157	4	184	1898	3175
110	0	0	2104	4	183	1898	3177
111	0	0	2042	4	184	1898	3179
112	0	0	1982	4	183	1898	3181
113	0	0	1912	4	183	1898	3182
114	0	0	1838	4	184	1898	3181
115	0	0	1803	4	184	1898	3180
116	0	0	1786	4	183	1898	3176
117	0	0	1784	5	184	1897	3173
118	0	0	1842	5	184	1897	3174
119	0	0	1915	5	183	1898	3175
120	0	0	1955	5	182	1898	3178
121	0	0	1998	5	183	1897	3179
122	0	0	2046	5	182	1898	3181
123	0	0	2093	5	184	1898	3182
124	0	0	2130	5	184	1898	3181
125	0	0	2151	5	184	1898	3179
126	0	0	2158	5	184	1898	3176
127	0	0	2168	5	183	1898	3173
0	0	0	2156	4	183	1898	3174
1	0	0	2132	4	184	1898	3175
2	0	0	2118	5	184	1898	3177
3	0	0	2100	4	182	1897	3179
4	0	0	2074	5	183	1897	3181
5	0	0	2017	4	183	1898	3182
6	0	0	1942	4	184	1898	3181
7	0	0	1887	4	183	1897	3179
8	0	0	1845	4	181	1898	3175
9	0	0	1803	4	183	1898	3173
10	0	0	1788	4	183	1898	3174
11	0	0	1798	5	183	1898	3175
12	0	0	1863	5	184	1898	3178
13	0	0	1983	5	183	1897	3179
14	0	0	2099	5	184	1897	3181
15	0	0	2181	5	183	1897	3182
16	0	0	2220	5	184	1898	3181
17	0	0	2216	5	183	1897	3179
18	0	0	2231	5	183	1897	3175
19	0	0	2277	5	182	1898	3173
20	0	0	2285	5	183	1897	3174
21	0	0	2232	4	183	1898	3176
22	0	0	2168	4	184	1897	3176
23	0	0	2118	4	184	1897	3179
24	0	0	2068	5	183	1897	3181
25	0	0	2022	4	184	1898	3182
26	0	0	1994	4	182	1898	3182
27	0	0	1968	4	183	1898	3180
28	0	0	1941	4	184	1897	3176
29	0	0	1894	5	183	1897	3174
30	0	0	1891	5	183	1897	3174
31	0	0	1908	5	182	1898	3176
32	0	0	1928	5	182	1897	3177
33	0	0	1975	5	182	1898	3179
34	0	0	2044	5	183	1898	3181
35	0	0	2118	5	183	1898	3182
36	0	0	2191	5	183	1898	3181
37	0	0	2257	5	184	1897	3179
38	0	0	2318	5	183	1897	3175
39	0	0	2360	5	184	1898	3173
40	0	0	2339	4	183	1897	3174
41	0	0	2282	4	183	1898	3175
42	0	0	2215	4	183	1897	3177
43	0	0	2164	4	184	1897	3179
44	0	0	2139	5	183	1898	3181
45	0	0	2105	4	184	1898	3182
46	0	0	2052	4	184	1898	3181
47	0	0	2017	5	183	1897	3179
48	0	0	2035	4	183	1898	3177
49	0	0	2019	4	183	1898	3174
50	0	0	2011	5	184	1897	3174
51	0	0	2027	5	183	1898	3175
52	0	0	2075	5	183	1898	3178
53	0	0	2146	5	184	1898	3180
54	0	0	2224	5	183	1897	3180
55	0	0	2289	5	184	1898	3181
56	0	0	2345	5	184	1898	3182
57	0	0	2383	5	184	1897	3179
58	0	0	2386	5	183	1898	3176
59	0	0	2386	5	183	1897	3173
60	0	0	2352	4	183	1898	3174
61	0	0	2266	4	183	1898	3175
62	0	0	2185	4	184	1897	3177
63	0	0	2113	4	183	1897	3179
64	0	0	2057	4	182	1897	3181
65	0	0	1976	4	183	1897	3182
66	0	0	1915	4	184	1898	3181
67	0	0	1905	5	184	1897	3180
68	0	0	1909	5	182	1897	3176
69	0	0	1898	5	183	1897	3174
70	0	0	1936	5	183	1898	3175
71	0	0	2022	5	184	1898	3175
72	0	0	2104	5	182	1898	3178
73	0	0	2165	5	183	1898	3179
74	0	0	2216	5	184	1897	3181
75	0	0	2254	5	184	1898	3181
76	0	0	2286	5	183	1898	3181
77	0	0	2323	5	183	1897	3179
78	0	0	2357	5	184	1897	3176
79	0	0	2399	5	185	1897	3173
80	0	0	2413	5	183	1897	3174
81	0	0	2384	4	183	1898	3175
82	0	0	2353	4	184	1897	3177
83	0	0	2314	4	183	1897	3179
84	0	0	2259	4	184	1897	3180
85	0	0	2187	4	184	1897	3181
86	0	0	2093	4	184	1898	3182
87	0	0	2017	4	184	1897	3180
88	0	0	1982	4	183	1897	3176
89	0	0	1932	4	183	1897	3174
90	0	0	1940	5	184	1897	3174
91	0	0	1988	5	184	1898	3176
92	0	0	2044	5	184	1898	3178
93	0	0	2112	5	183	1897	3179
94	0	0	2183	5	183	1898	3181
95	0	0	2233	5	183	1898	3182
96	0	0	2282	5	184	1898	3181
97	0	0	2328	5	184	1898	3180
98	0	0	2335	4	183	1897	3176
99	0	0	2330	5	183	1897	3174
100	0	0	2291	4	183	1897	3174
101	0	0	2234	4	183	1898	3175
102	0	0	2187	4	183	1897	3177
103	0	0	2158	4	183	1897	3179
104	0	0	2141	4	183	1897	3180
105	0	0	2103	4	184	1897	3182
106	0	0	2034	3	182	1898	3182
107	0	0	1963	4	183	1897	3179
108	0	0	1913	4	183	1897	3176
109	0	0	1851	4	183	1898	3174
110	0	0	1842	5	183	1898	3175
111	0	0	1895	5	183	1898	3175
112	0	0	1973	4	184	1898	3177
113	0	0	2061	5	184	1897	3179
114	0	0	2115	5	182	1898	3181
115	0	0	2128	5	183	1897	3182
116	0	0	2130	5	184	1898	3182
117	0	0	2148	5	184	1897	3179
118	0	0	2190	5	184	1897	3176
119	0	0	2258	5	183	1897	3174
120	0	0	2306	5	184	1897	3174
121	0	0	2315	5	185	1898	3176
122	0	0	2283	4	184	1897	3177
123	0	0	2207	4	184	1897	3179
124	0	0	2120	4	184	1898	3181
125	0	0	2040	4	184	1898	3182
126	0	0	1967	4	183	1898	3182
127	0	0	1916	4	183	1898	3180
0	0	0	1891	4	183	1897	3176
1	0	0	1853	4	183	1897	3174
2	0	0	1821	4	183	1897	3174
3	0	0	1817	4	184	1898	3175
4	0	0	1845	5	183	1897	3177
5	0	0	1916	5	183	1897	3179
6	0	0	2009	4	184	1897	3181
7	0	0	2090	5	183	1897	3182
8	0	0	2145	5	184	1898	3182
9	0	0	2180	5	183	1897	3180
10	0	0	2203	5	183	1898	3176
11	0	0	2218	5	183	1898	3174
12	0	0	2192	4	183	1898	3174
13	0	0	2144	4	183	1898	3175
14	0	0	2093	5	184	1897	3177
15	0	0	2037	4	185	1897	3179
16	0	0	1985	4	184	1897	3181
17	0	0	1930	4	183	1897	3182
18	0	0	1882	4	185	1898	3182
19	0	0	1844	4	184	1897	3179
20	0	0	1814	4	183	1897	3176
21	0	0	1780	4	184	1897	3174
22	0	0	1781	5	185	1897	3174
23	0	0	1805	5	184	1897	3176
24	0	0	1846	5	182	1897	3177
25	0	0	1923	4	183	1898	3180
26	0	0	2030	5	183	1898	3181
27	0	0	2122	5	184	1897	3182
28	0	0	2191	5	183	1898	3182
29	0	0	2230	5	183	1897	3180
30	0	0	2244	5	183	1898	3177
31	0	0	2257	5	184	1898	3174
32	0	0	2239	4	183	1898	3174
33	0	0	2181	4	182	1898	3175
34	0	0	2126	4	184	1897	3177
35	0	0	2056	4	184	1897	3179
36	0	0	1955	4	182	1897	3181
37	0	0	1874	4	184	1897	3182
38	0	0	1831	4	183	1898	3182
39	0	0	1794	4	184	1897	3180
40	0	0	1770	4	184	1897	3176
41	0	0	1724	4	184	1897	3174
42	0	0	1719	5	183	1897	3174
43	0	0	1763	5	183	1898	3175
44	0	0	1831	5	183	1897	3177
45	0	0	1934	5	183	1897	3179
46	0	0	2038	5	184	1898	3181
47	0	0	2097	5	184	1898	3182
48	0	0	2145	4	184	1898	3182
49	0	0	2205	5	182	1897	3180
50	0	0	2238	5	184	1897	3176
51	0	0	2286	4	184	1898	3174
52	0	0	2288	4	183	1897	3174
53	0	0	2220	4	184	1898	3175
54	0	0	2143	4	184	1898	3178
55	0	0	2074	3	183	1897	3179
56	0	0	2028	4	184	1898	3181
57	0	0	1983	4	183	1898	3182
58	0	0	1909	4	185	1898	3182
59	0	0	1864	4	183	1898	3181
60	0	0	1879	3	185	1897	3176
61	0	0	1866	4	183	1898	3175
62	0	0	1868	5	183	1898	3175
63	0	0	1901	5	185	1898	3175
64	0	0	1912	5	184	1898	3178
65	0	0	1939	6	183	1897	3179
66	0	0	2011	5	182	1898	3181
67	0	0	2069	5	183	1898	3181
68	0	0	2095	4	183	1898	3182
69	0	0	2148	5	184	1898	3180
70	0	0	2199	4	183	1897	3176
71	0	0	2231	5	182	1898	3174
72	0	0	2212	4	183	1898	3174
73	0	0	2147	4	183	1898	3176
74	0	0	2090	4	184	1898	3177
75	0	0	2046	4	183	1898	3179
76	0	0	2008	4	184	1898	3181
77	0	0	1957	3	184	1898	3182
78	0	0	1917	4	183	1898	3182
79	0	0	1890	4	183	1898	3180
80	0	0	1863	4	183	1898	3177
81	0	0	1836	4	183	1897	3174
82	0	0	1818	5	183	1898	3174
83	0	0	1821	5	184	1898	3176
84	0	0	1840	4	183	1897	3177
85	0	0	1905	5	182	1898	3180
86	0	0	1974	4	184	1898	3180
87	0	0	2030	5	183	1898	3182
88	0	0	2075	5	183	1898	3182
89	0	0	2102	5	183	1897	3180
90	0	0	2126	5	182	1898	3177
91	0	0	2175	5	184	1898	3174
92	0	0	2209	5	184	1897	3174
93	0	0	2182	4	184	1898	3175
94	0	0	2138	4	183	1898	3177
95	0	0	2078	4	183	1897	3179
96	0	0	2002	4	184	1897	3181
97	0	0	1938	4	184	1897	3182
98	0	0	1903	4	184	1898	3182
99	0	0	1873	4	184	1897	3180
100	0	0	1836	4	184	1897	3177
101	0	0	1773	4	183	1898	3175
102	0	0	1743	4	182	1898	3175
103	0	0	1767	5	183	1898	3176
104	0	0	1817	5	183	1898	3178
105	0	0	1897	4	183	1898	3179
106	0	0	1973	5	183	1898	3181
107	0	0	2031	4	182	1898	3182
108	0	0	2076	5	183	1898	3182
109	0	0	2106	5	184	1898	3180
110	0	0	2134	5	183	1898	3177
111	0	0	2168	5	182	1897	3174
112	0	0	2189	5	183	1898	3174
113	0	0	2167	4	183	1898	3176
114	0	0	2117	4	183	1898	3177
115	0	0	2061	4	183	1898	3179
116	0	0	1999	4	183	1898	3181
117	0	0	1933	4	184	1898	3182
118	0	0	1888	4	183	1898	3182
119	0	0	1851	4	183	1898	3181
120	0	0	1810	4	184	1897	3177
121	0	0	1771	5	183	1898	3174
122	0	0	1793	5	184	1898	3175
123	0	0	1848	5	184	1898	3176
124	0	0	1882	5	182	1897	3177
125	0	0	1915	4	183	1898	3179
126	0	0	1966	5	183	1897	3180
127	0	0	2027	5	183	1898	3182
0	0	0	2104	5	183	1898	3182
1	0	0	2172	5	182	1898	3180
2	0	0	2217	5	182	1898	3178
3	0	0	2250	5	184	1898	3174
4	0	0	2252	5	184	1898	3174
5	0	0	2207	4	183	1898	3176
6	0	0	2142	4	184	1898	3177
7	0	0	2074	4	184	1897	3179
8	0	0	2026	4	184	1898	3181
9	0	0	1988	4	182	1898	3182
10	0	0	1960	4	183	1898	3182
11	0	0	1958	5	184	1897	3180
12	0	0	1957	4	183	1898	3177
13	0	0	1920	4	185	1897	3174
14	0	0	1900	4	183	1898	3174
15	0	0	1896	5	183	1898	3176
16	0	0	1901	5	182	1898	3178
17	0	0	1952	4	184	1898	3179
18	0	0	2018	5	183	1898	3181
19	0	0	2085	5	182	1898	3183
20	0	0	2155	5	182	1898	3182
21	0	0	2203	5	183	1898	3180
22	0	0	2218	4	185	1897	3177
23	0	0	2230	5	183	1897	3174
24	0	0	2224	4	184	1898	3174
25	0	0	2173	4	182	1898	3176
26	0	0	2129	4	183	1898	3177
27	0	0	2095	4	183	1898	3180
28	0	0	2051	4	184	1898	3181
29	0	0	1982	4	183	1898	3182
30	0	0	1913	4	183	1898	3182
31	0	0	1866	4	184	1897	3180
32	0	0	1838	4	183	1897	3177
33	0	0	1801	4	183	1898	3175
34	0	0	1803	5	183	1898	3175
35	0	0	1840	5	183	1898	3176
36	0	0	1870	5	183	1898	3177
37	0	0	1900	5	183	1898	3180
38	0	0	1962	4	184	1898	3181
39	0	0	2044	5	182	1898	3182
40	0	0	2108	5	183	1898	3182
41	0	0	2150	5	183	1897	3180
42	0	0	2171	5	182	1898	3177
43	0	0	2188	4	184	1897	3175
44	0	0	2183	4	183	1898	3174
45	0	0	2143	4	182	1898	3176
46	0	0	2088	4	184	1898	3177
47	0	0	2026	4	183	1897	3179
48	0	0	1963	4	184	1898	3181
49	0	0	1908	4	185	1898	3182
50	0	0	1869	4	183	1898	3182
51	0	0	1855	4	183	1898	3181
52	0	0	1857	5	185	1897	3177
53	0	0	1824	4	183	1898	3174
54	0	0	1815	5	184	1898	3175
55	0	0	1851	5	184	1898	3176
56	0	0	1925	5	183	1898	3178
57	0	0	2010	4	184	1897	3179
58	0	0	2087	5	182	1897	3181
59	0	0	2163	4	183	1898	3182
60	0	0	2201	5	182	1898	3182
61	0	0	2191	4	182	1897	3180
62	0	0	2167	4	183	1898	3178
63	0	0	2165	4	184	1898	3174
64	0	0	2169	5	185	1898	3174
65	0	0	2155	4	184	1898	3176
66	0	0	2104	4	182	1897	3177
67	0	0	2048	4	184	1897	3179
68	0	0	1999	4	184	1898	3181
69	0	0	1954	4	184	1898	3183
70	0	0	1894	4	182	1898	3182
71	0	0	1843	4	183	1898	3181
72	0	0	1838	4	182	1897	3177
73	0	0	1820	4	183	1897	3175
74	0	0	1825	5	183	1898	3175
75	0	0	1863	5	182	1898	3176
76	0	0	1922	5	184	1897	3177
77	0	0	2020	5	183	1898	3180
78	0	0	2099	5	184	1898	3181
79	0	0	2147	4	182	1898	3182
80	0	0	2183	4	183	1898	3182
81	0	0	2214	5	183	1897	3180
82	0	0	2242	5	183	1897	3177
83	0	0	2285	4	183	1898	3175
84	0	0	2316	5	183	1898	3175
85	0	0	2300	4	181	1898	3176
86	0	0	2260	4	183	1897	3177
87	0	0	2193	4	183	1897	3179
88	0	0	2110	4	184	1898	3181
89	0	0	2020	4	183	1898	3182
90	0	0	1947	4	184	1898	3183
91	0	0	1879	4	183	1898	3181
92	0	0	1844	4	184	1898	3178
93	0	0	1803	4	183	1897	3175
94	0	0	1783	4	184	1897	3175
95	0	0	1800	5	183	1897	3176
96	0	0	1863	5	184	1897	3177
97	0	0	1963	7	183	1898	3179
98	0	0	2070	4	184	1898	3181
99	0	0	2153	5	183	1897	3182
100	0	0	2215	5	182	1898	3182
101	0	0	2260	5	182	1897	3180
102	0	0	2307	5	183	1898	3177
103	0	0	2361	4	183	1898	3174
104	0	0	2396	5	183	1897	3175
105	0	0	2379	4	182	1898	3176
106	0	0	2318	4	184	1897	3177
107	0	0	2213	6	183	1898	3179
108	0	0	2103	3	183	1898	3181
109	0	0	2010	4	183	1898	3183
110	0	0	1928	3	183	1897	3182
111	0	0	1865	4	183	1898	3181
112	0	0	1838	4	184	1898	3179
113	0	0	1808	4	183	1898	3175
114	0	0	1801	5	182	1898	3175
115	0	0	1838	5	183	1898	3176
116	0	0	1905	5	183	1897	3177
117	0	0	2003	5	183	1898	3179
118	0	0	2102	5	183	1898	3181
119	0	0	2187	5	183	1897	3182
120	0	0	2257	5	181	1898	3182
121	0	0	2304	5	184	1897	3181
122	0	0	2321	5	183	1898	3178
123	0	0	2338	5	185	1898	3175
124	0	0	2315	4	182	1898	3175
125	0	0	2253	4	183	1898	3176
126	0	0	2198	4	183	1897	3177
127	0	0	2148	4	183	1898	3180
0	0	0	2091	4	184	1898	3181
1	0	0	2050	4	184	1898	3182
2	0	0	2025	4	183	1898	3183
3	0	0	1999	4	182	1897	3181
4	0	0	1974	4	183	1898	3179
5	0	0	1926	4	183	1898	3175
6	0	0	1890	5	182	1897	3174
7	0	0	1887	5	182	1898	3176
8	0	0	1902	5	183	1898	3178
9	0	0	1944	4	184	1897	3179
10	0	0	2021	5	182	1897	3181
11	0	0	2098	5	183	1898	3182
12	0	0	2160	5	183	1898	3182
13	0	0	2208	5	183	1898	3181
14	0	0	2250	5	184	1899	3179
15	0	0	2291	5	184	1898	3175
16	0	0	2312	5	183	1898	3175
17	0	0	2283	4	184	1897	3176
18	0	0	2231	4	183	1897	3177
19	0	0	2178	4	183	1898	3179
20	0	0	2130	4	184	1898	3181
21	0	0	2069	4	182	1898	3183
22	0	0	1995	4	183	1898	3182
23	0	0	1925	4	184	1897	3181
24	0	0	1888	4	184	1897	3178
25	0	0	1866	4	183	1898	3175
26	0	0	1851	4	183	1898	3175
27	0	0	1866	5	184	1898	3176
28	0	0	1914	5	182	1897	3177
29	0	0	2003	5	182	1898	3180
30	0	0	2131	5	183	1898	3181
31	0	0	2240	5	184	1898	3182
32	0	0	2322	5	184	1898	3183
33	0	0	2386	5	182	1898	3182
34	0	0	2415	4	182	1897	3178
35	0	0	2390	4	184	1897	3175
36	0	0	2339	4	183	1898	3174
37	0	0	2290	4	183	1898	3176
38	0	0	2248	5	183	1897	3177
39	0	0	2209	4	183	1897	3179
40	0	0	2166	4	182	1898	3181
41	0	0	2121	4	184	1898	3182
42	0	0	2075	4	182	1898	3183
43	0	0	2023	4	183	1897	3181
44	0	0	1964	4	183	1898	3178
45	0	0	1892	4	182	1898	3176
46	0	0	1821	4	184	1898	3176
47	0	0	1796	4	183	1898	3176
48	0	0	1833	5	183	1898	3177
49	0	0	1934	5	183	1899	3180
50	0	0	2064	5	183	1898	3181
51	0	0	2191	5	183	1898	3182
52	0	0	2323	5	182	1898	3183
53	0	0	2427	5	183	1897	3181
54	0	0	2500	5	183	1898	3178
55	0	0	2509	3	184	1897	3175
56	0	0	2441	4	184	1898	3175
57	0	0	2350	4	182	1898	3176
58	0	0	2269	4	183	1898	3177
59	0	0	2225	4	183	1897	3179
60	0	0	2197	4	183	1898	3182
61	0	0	2133	4	184	1898	3182
62	0	0	2054	4	184	1898	3183
63	0	0	1997	4	184	1898	3182
64	0	0	1967	5	183	1897	3179
65	0	0	1923	3	183	1898	3175
66	0	0	1914	5	184	1898	3176
67	0	0	1945	5	182	1898	3176
68	0	0	1982	5	183	1897	3177
69	0	0	2022	4	183	1898	3179
70	0	0	2073	5	183	1898	3181
71	0	0	2128	5	184	1898	3182
72	0	0	2185	5	182	1898	3183
73	0	0	2241	5	184	1898	3181
74	0	0	2276	5	183	1897	3178
75	0	0	2295	5	183	1897	3175
76	0	0	2286	4	184	1898	3175
77	0	0	2240	4	183	1898	3177
78	0	0	2192	4	183	1898	3177
79	0	0	2137	4	183	1898	3181
80	0	0	2073	4	184	1898	3182
81	0	0	2003	4	184	1898	3183
82	0	0	1939	4	183	1898	3183
83	0	0	1893	4	184	1898	3183
84	0	0	1880	4	183	1898	3179
85	0	0	1848	3	183	1897	3175
86	0	0	1836	5	184	1898	3175
87	0	0	1862	5	184	1898	3176
88	0	0	1914	5	183	1898	3177
89	0	0	1989	5	183	1898	3180
90	0	0	2071	4	183	1898	3182
91	0	0	2141	5	183	1898	3182
92	0	0	2193	5	183	1898	3183
93	0	0	2213	5	183	1898	3181
94	0	0	2218	5	183	1897	3178
95	0	0	2238	5	183	1897	3176
96	0	0	2247	5	184	1898	3176
97	0	0	2202	4	183	1898	3176
98	0	0	2144	4	184	1898	3177
99	0	0	2081	4	183	1897	3180
100	0	0	2049	4	182	1898	3181
101	0	0	2031	4	184	1898	3182
102	0	0	2026	5	183	1897	3183
103	0	0	2033	5	183	1898	3181
104	0	0	2038	4	182	1897	3178
105	0	0	1983	4	182	1898	3175
106	0	0	1908	4	183	1898	3175
107	0	0	1857	4	183	1898	3176
108	0	0	1862	5	183	1898	3178
109	0	0	1919	5	182	1898	3180
110	0	0	1998	5	183	1898	3182
111	0	0	2062	5	183	1898	3183
112	0	0	2107	5	183	1898	3184
113	0	0	2139	5	184	1898	3181
114	0	0	2145	5	182	1898	3180
115	0	0	2161	5	184	1898	3176
116	0	0	2189	5	183	1898	3175
117	0	0	2201	5	185	1898	3176
118	0	0	2194	5	183	1897	3177
119	0	0	2162	5	182	1898	3179
120	0	0	2122	4	183	1898	3182
121	0	0	2069	4	184	1898	3182
122	0	0	2016	4	183	1898	3183
123	0	0	1954	4	183	1898	3181
124	0	0	1899	4	182	1898	3179
125	0	0	1846	4	183	1898	3175
126	0	0	1821	4	183	1898	3175
127	0	0	1849	5	183	1898	3177
0	0	0	1910	4	183	1897	3178
1	0	0	1976	5	183	1898	3180
2	0	0	2051	5	183	1898	3182
3	0	0	2103	4	184	1898	3182
4	0	0	2153	5	183	1898	3183
5	0	0	2207	5	184	1898	3182
6	0	0	2258	6	184	1898	3178
7	0	0	2299	4	184	1898	3175
8	0	0	2333	5	184	1898	3175
9	0	0	2341	4	184	1898	3176
10	0	0	2283	4	183	1898	3177
11	0	0	2186	4	184	1898	3179
12	0	0	2087	4	182	1898	3181
13	0	0	1997	4	184	1898	3182
14	0	0	1921	4	183	1898	3184
15	0	0	1874	4	184	1897	3182
16	0	0	1869	5	182	1898	3179
17	0	0	1842	5	183	1898	3176
18	0	0	1828	4	182	1898	3176
19	0	0	1864	4	182	1898	3176
20	0	0	1927	5	184	1898	3178
21	0	0	2015	4	182	1897	3180
22	0	0	2133	5	182	1898	3181
23	0	0	2247	5	184	1898	3182
24	0	0	2334	5	183	1898	3183
25	0	0	2398	5	183	1897	3181
26	0	0	2443	5	184	1898	3178
27	0	0	2482	5	183	1898	3175
28	0	0	2515	5	182	1898	3174
29	0	0	2524	5	184	1898	3176
30	0	0	2519	5	184	1897	3177
31	0	0	2495	4	183	1898	3180
32	0	0	2462	4	184	1898	3181
33	0	0	2435	4	183	1898	3182
34	0	0	2428	5	184	1898	3184
35	0	0	2428	5	184	1897	3182
36	0	0	2440	5	181	1898	3179
37	0	0	2429	5	183	1898	3176
38	0	0	2426	5	183	1898	3176
39	0	0	2457	5	184	1897	3176
40	0	0	2503	5	184	1897	3177
41	0	0	2570	5	183	1897	3179
42	0	0	2656	5	183	1898	3181
43	0	0	2741	4	183	1898	3182
44	0	0	2800	5	184	1898	3183
45	0	0	2820	5	183	1897	3181
46	0	0	2815	5	184	1898	3179
47	0	0	2816	5	183	1898	3175
48	0	0	2810	4	183	1898	3175
49	0	0	2763	4	185	1898	3177
50	0	0	2708	4	183	1898	3177
51	0	0	2643	4	183	1898	3180
52	0	0	2592	4	183	1898	3182
53	0	0	2557	4	182	1898	3183
54	0	0	2481	4	183	1898	3183
55	0	0	2370	4	182	1897	3181
56	0	0	2267	4	183	1897	3179
57	0	0	2148	4	183	1897	3175
58	0	0	2054	4	183	1898	3175
59	0	0	2017	4	184	1897	3176
60	0	0	1980	4	183	1898	3178
61	0	0	1959	5	181	1898	3179
62	0	0	1983	5	184	1898	3181
63	0	0	2009	4	184	1898	3182
64	0	0	2032	4	184	1898	3183
65	0	0	2053	5	183	1897	3181
66	0	0	2066	5	183	1897	3179
67	0	0	2112	5	184	1898	3175
68	0	0	2165	4	183	1898	3175
69	0	0	2167	5	184	1897	3176
70	0	0	2136	4	183	1897	3177
71	0	0	2091	4	183	1897	3179
72	0	0	2057	4	183	1898	3181
73	0	0	2039	4	183	1897	3183
74	0	0	2009	4	183	1898	3184
75	0	0	1969	4	183	1897	3182
76	0	0	1930	4	184	1898	3180
77	0	0	1872	4	182	1898	3175
78	0	0	1817	4	183	1898	3175
79	0	0	1811	5	183	1898	3176
80	0	0	1843	5	184	1897	3177
81	0	0	1888	5	184	1897	3180
82	0	0	1954	5	185	1898	3181
83	0	0	2023	5	183	1898	3183
84	0	0	2072	5	183	1897	3183
85	0	0	2096	5	184	1897	3182
86	0	0	2110	5	183	1897	3179
87	0	0	2130	5	183	1898	3175
88	0	0	2144	4	183	1898	3175
89	0	0	2124	4	183	1898	3176
90	0	0	2068	4	185	1898	3178
91	0	0	2000	4	184	1898	3180
92	0	0	1939	4	183	1897	3181
93	0	0	1879	4	183	1898	3182
94	0	0	1809	4	184	1897	3183
95	0	0	1750	4	182	1898	3183
96	0	0	1732	4	184	1897	3179
97	0	0	1716	4	183	1898	3176
98	0	0	1731	5	183	1898	3176
99	0	0	1794	5	183	1898	3176
100	0	0	1854	4	183	1897	3177
101	0	0	1894	5	184	1897	3180
102	0	0	1939	5	183	1897	3182
103	0	0	1997	5	184	1898	3183
104	0	0	2078	5	185	1898	3184
105	0	0	2158	4	184	1898	3182
106	0	0	2176	5	183	1898	3179
107	0	0	2159	5	184	1898	3176
108	0	0	2150	5	184	1898	3175
109	0	0	2105	4	183	1898	3176
110	0	0	2035	4	183	1897	3177
111	0	0	1967	4	183	1897	3180
112	0	0	1930	4	183	1898	3182
113	0	0	1889	4	184	1898	3184
114	0	0	1837	4	182	1897	3183
115	0	0	1793	4	184	1898	3183
116	0	0	1752	4	183	1897	3179
117	0	0	1696	4	183	1897	3176
118	0	0	1662	4	183	1898	3175
119	0	0	1678	5	184	1897	3176
120	0	0	1714	5	182	1897	3178
121	0	0	1770	5	184	1897	3180
122	0	0	1844	5	182	1898	3181
123	0	0	1905	4	182	1898	3183
124	0	0	1946	5	183	1898	3184
125	0	0	1983	5	183	1898	3182
126	0	0	2029	5	184	1898	3180
127	0	0	2082	5	184	1898	3176
0	0	0	2131	4	184	1898	3175
1	0	0	2131	4	183	1897	3176
2	0	0	2095	4	183	1897	3177
3	0	0	2041	4	183	1897	3180
4	0	0	1972	5	183	1897	3182
5	0	0	1905	4	184	1898	3183
6	0	0	1839	4	182	1898	3183
7	0	0	1781	4	184	1897	3182
8	0	0	1755	4	183	1897	3180
9	0	0	1729	3	182	1897	3176
10	0	0	1705	4	183	1898	3175
11	0	0	1722	5	183	1897	3176
12	0	0	1757	5	183	1898	3179
13	0	0	1804	7	183	1897	3180
14	0	0	1898	6	184	1898	3182
15	0	0	1999	5	182	1898	3183
16	0	0	2054	5	184	1897	3183
17	0	0	2086	5	183	1898	3183
18	0	0	2106	5	183	1898	3179
19	0	0	2116	5	183	1897	3176
20	0	0	2113	5	183	1898	3175
21	0	0	2092	4	183	1897	3176
22	0	0	2060	4	182	1897	3177
23	0	0	2025	4	183	1897	3180
24	0	0	1980	5	183	1898	3181
25	0	0	1932	4	183	1898	3183
26	0	0	1880	4	184	1898	3184
27	0	0	1820	4	183	1897	3182
28	0	0	1760	4	183	1897	3180
29	0	0	1692	5	183	1898	3176
30	0	0	1649	4	183	1898	3176
31	0	0	1689	5	183	1897	3177
32	0	0	1758	5	183	1898	3179
33	0	0	1845	6	185	1897	3179
34	0	0	1938	6	183	1897	3181
35	0	0	2011	5	183	1898	3183
36	0	0	2059	5	184	1897	3183
37	0	0	2083	5	184	1897	3182
38	0	0	2100	5	184	1898	3179
39	0	0	2118	4	183	1898	3176
40	0	0	2122	4	183	1898	3175
41	0	0	2110	5	184	1898	3177
42	0	0	2089	4	183	1897	3177
43	0	0	2063	4	184	1898	3180
44	0	0	2021	4	184	1898	3182
45	0	0	1946	4	183	1898	3183
46	0	0	1870	4	183	1897	3183
47	0	0	1844	5	182	1897	3182
48	0	0	1855	5	182	1898	3181
49	0	0	1840	5	183	1897	3176
50	0	0	1795	4	183	1898	3175
51	0	0	1773	4	184	1897	3176
52	0	0	1800	5	181	1897	3177
53	0	0	1868	5	183	1897	3179
54	0	0	1955	5	183	1898	3182
55	0	0	2030	5	185	1898	3184
56	0	0	2072	5	183	1897	3183
57	0	0	2110	5	184	1897	3182
58	0	0	2150	5	184	1898	3180
59	0	0	2184	5	183	1898	3176
60	0	0	2200	4	183	1898	3175
61	0	0	2173	4	184	1897	3176
62	0	0	2123	4	184	1897	3178
63	0	0	2069	4	184	1897	3180
64	0	0	2007	5	183	1898	3182
65	0	0	1956	4	184	1898	3184
66	0	0	1905	4	182	1897	3183
67	0	0	1846	4	183	1897	3182
68	0	0	1808	4	183	1898	3180
69	0	0	1760	3	183	1898	3176
70	0	0	1732	4	184	1898	3175
71	0	0	1780	5	182	1897	3176
72	0	0	1852	5	183	1897	3177
73	0	0	1906	5	183	1898	3180
74	0	0	1964	5	182	1898	3182
75	0	0	2006	5	184	1898	3183
76	0	0	2042	5	183	1897	3183
77	0	0	2102	5	184	1897	3182
78	0	0	2134	5	184	1898	3181
79	0	0	2153	5	184	1898	3177
80	0	0	2180	4	184	1898	3175
81	0	0	2173	4	184	1898	3177
82	0	0	2118	4	184	1897	3177
83	0	0	2066	5	183	1898	3180
84	0	0	2016	4	184	1898	3182
85	0	0	1942	4	183	1898	3183
86	0	0	1865	4	182	1898	3184
87	0	0	1784	4	182	1897	3182
88	0	0	1718	4	184	1898	3180
89	0	0	1649	4	182	1898	3176
90	0	0	1604	4	183	1898	3175
91	0	0	1638	5	182	1897	3176
92	0	0	1728	5	183	1898	3178
93	0	0	1852	4	184	1898	3179
94	0	0	1987	5	182	1897	3182
95	0	0	2103	5	184	1898	3184
96	0	0	2167	5	183	1897	3183
97	0	0	2185	5	184	1898	3183
98	0	0	2182	6	184	1897	3180
99	0	0	2176	5	183	1897	3176
100	0	0	2180	4	183	1898	3175
101	0	0	2180	5	185	1897	3176
102	0	0	2175	5	184	1898	3177
103	0	0	2155	5	183	1898	3180
104	0	0	2122	4	184	1898	3182
105	0	0	2060	4	182	1898	3183
106	0	0	1986	4	183	1897	3183
107	0	0	1930	4	183	1897	3182
108	0	0	1895	4	183	1897	3180
109	0	0	1866	5	183	1898	3176
110	0	0	1845	4	184	1898	3176
111	0	0	1856	5	183	1897	3176
112	0	0	1895	5	182	1897	3178
113	0	0	1953	5	183	1897	3180
114	0	0	2022	5	184	1898	3181
115	0	0	2093	5	183	1898	3183
116	0	0	2153	5	184	1898	3184
117	0	0	2209	5	184	1898	3182
118	0	0	2258	5	183	1898	3181
119	0	0	2295	5	183	1898	3177
120	0	0	2322	5	185	1898	3175
121	0	0	2317	4	184	1898	3177
122	0	0	2274	4	185	1897	3177
123	0	0	2208	4	183	1898	3180
124	0	0	2136	4	183	1898	3181
125	0	0	2076	4	184	1898	3183
126	0	0	2011	5	183	1898	3183
127	0	0	1972	5	183	1898	3183
0	0	0	1953	4	183	1898	3181
1	0	0	1921	4	183	1898	3177
2	0	0	1892	4	182	1898	3175
3	0	0	1903	5	183	1897	3176
4	0	0	1943	5	183	1897	3177
5	0	0	1987	4	183	1898	3180
6	0	0	2058	5	185	1898	3181
7	0	0	2140	4	182	1898	3183
8	0	0	2198	5	183	1897	3183
9	0	0	2234	5	184	1897	3182
10	0	0	2257	5	184	1897	3180
11	0	0	2265	5	183	1898	3176
12	0	0	2253	4	184	1898	3175
13	0	0	2217	4	183	1897	3176
14	0	0	2183	4	184	1897	3178
15	0	0	2145	5	182	1897	3180
16	0	0	2085	4	184	1898	3182
17	0	0	1989	4	184	1898	3184
18	0	0	1903	4	183	1897	3184
19	0	0	1853	5	183	1898	3183
20	0	0	1858	5	184	1897	3180
21	0	0	1855	4	183	1898	3176
22	0	0	1834	4	183	1898	3175
23	0	0	1860	5	183	1898	3177
24	0	0	1902	4	184	1897	3177
25	0	0	1957	5	184	1898	3180
26	0	0	2031	4	182	1898	3182
27	0	0	2100	5	183	1898	3183
28	0	0	2174	5	185	1898	3184
29	0	0	2247	5	185	1897	3182
30	0	0	2285	5	183	1898	3181
31	0	0	2308	4	184	1898	3177
32	0	0	2328	5	183	1898	3176
33	0	0	2311	4	184	1897	3176
34	0	0	2256	4	184	1898	3178
35	0	0	2187	4	184	1897	3179
36	0	0	2127	5	183	1898	3181
37	0	0	2105	5	183	1898	3183
38	0	0	2101	4	184	1897	3183
39	0	0	2050	4	182	1897	3182
40	0	0	1993	4	182	1897	3180
41	0	0	1930	4	184	1898	3176
42	0	0	1839	4	184	1898	3175
43	0	0	1789	4	183	1897	3176
44	0	0	1806	4	183	1898	3179
45	0	0	1866	5	182	1898	3180
46	0	0	1965	5	185	1898	3182
47	0	0	2058	5	184	1898	3184
48	0	0	2108	5	184	1898	3184
49	0	0	2140	4	184	1898	3183
50	0	0	2177	5	183	1897	3180
51	0	0	2230	5	183	1898	3177
52	0	0	2280	5	183	1898	3175
53	0	0	2279	5	184	1897	3176
54	0	0	2239	4	184	1898	3177
55	0	0	2196	4	184	1898	3180
56	0	0	2129	4	184	1898	3181
57	0	0	2040	4	184	1898	3183
58	0	0	1967	4	183	1897	3184
59	0	0	1924	4	183	1898	3182
60	0	0	1900	4	183	1897	3180
61	0	0	1860	4	183	1898	3177
62	0	0	1813	5	182	1898	3175
63	0	0	1811	5	183	1898	3177
64	0	0	1837	4	183	1897	3178
65	0	0	1888	5	184	1898	3181
66	0	0	1966	5	183	1898	3182
67	0	0	2042	4	184	1898	3183
68	0	0	2105	5	184	1897	3184
69	0	0	2159	5	183	1897	3182
70	0	0	2198	5	184	1897	3180
71	0	0	2211	5	182	1898	3177
72	0	0	2209	5	183	1898	3176
73	0	0	2179	4	183	1898	3176
74	0	0	2145	5	183	1897	3178
75	0	0	2117	4	183	1898	3180
76	0	0	2075	4	183	1898	3182
77	0	0	2015	4	183	1898	3184
78	0	0	1943	4	183	1897	3184
79	0	0	1865	4	183	1897	3183
80	0	0	1819	4	183	1897	3181
81	0	0	1787	5	183	1898	3177
82	0	0	1763	4	183	1898	3175
83	0	0	1774	5	183	1897	3176
84	0	0	1811	4	183	1897	3178
85	0	0	1866	5	184	1897	3180
86	0	0	1939	5	184	1898	3182
87	0	0	2013	5	184	1898	3183
88	0	0	2077	5	183	1897	3184
89	0	0	2127	4	183	1898	3183
90	0	0	2164	5	182	1898	3180
91	0	0	2166	5	183	1898	3176
92	0	0	2140	5	183	1898	3175
93	0	0	2110	4	183	1897	3176
94	0	0	2102	4	183	1897	3178
95	0	0	2079	4	183	1898	3180
96	0	0	2019	4	184	1898	3182
97	0	0	1958	4	183	1898	3183
98	0	0	1897	4	184	1898	3184
99	0	0	1849	4	183	1898	3184
100	0	0	1808	4	182	1898	3180
101	0	0	1759	5	182	1898	3177
102	0	0	1713	4	183	1898	3176
103	0	0	1728	5	182	1897	3176
104	0	0	1785	5	184	1897	3177
105	0	0	1861	5	184	1898	3179
106	0	0	1950	5	184	1898	3182
107	0	0	2021	5	183	1898	3183
108	0	0	2057	5	183	1897	3184
109	0	0	2077	4	184	1897	3182
110	0	0	2118	5	184	1897	3181
111	0	0	2159	5	183	1898	3177
112	0	0	2174	5	184	1898	3176
113	0	0	2125	4	184	1898	3177
114	0	0	2051	4	184	1897	3177
115	0	0	1983	4	184	1897	3180
116	0	0	1918	4	183	1898	3182
117	0	0	1872	4	182	1898	3184
118	0	0	1857	4	183	1897	3184
119	0	0	1845	4	183	1897	3183
120	0	0	1821	4	183	1897	3180
121	0	0	1780	5	182	1898	3177
122	0	0	1743	4	183	1898	3176
123	0	0	1759	5	183	1897	3176
124	0	0	1810	5	182	1897	3177
125	0	0	1839	5	184	1898	3180
126	0	0	1882	5	184	1898	3182
127	0	0	1939	4	183	1898	3183
0	0	0	1998	5	183	1897	3184
1	0	0	2057	4	184	1897	3183
2	0	0	2126	5	183	1898	3182
3	0	0	2221	5	182	1898	3177
4	0	0	2289	5	184	1898	3176
5	0	0	2232	4	182	1898	3177
6	0	0	2123	4	183	1897	3178
7	0	0	2032	4	184	1898	3181
8	0	0	1963	4	184	1898	3182
9	0	0	1904	4	184	1898	3183
10	0	0	1848	4	183	1897	3184
11	0	0	1805	4	183	1897	3183
12	0	0	1795	4	185	1897	3181
13	0	0	1775	4	184	1898	3177
14	0	0	1731	4	183	1898	3176
15	0	0	1720	5	184	1897	3177
16	0	0	1755	5	183	1897	3178
17	0	0	1819	5	184	1898	3180
18	0	0	1889	5	183	1898	3182
19	0	0	1948	4	183	1898	3184
20	0	0	2001	5	183	1897	3184
21	0	0	2059	4	184	1897	3183
22	0	0	2111	5	183	1898	3182
23	0	0	2154	5	183	1898	3178
24	0	0	2178	5	183	1898	3176
25	0	0	2143	4	185	1897	3176
26	0	0	2084	4	183	1897	3177
27	0	0	2040	3	185	1897	3180
28	0	0	2003	4	183	1898	3182
29	0	0	1955	4	182	1898	3184
30	0	0	1896	4	182	1897	3184
31	0	0	1853	4	183	1897	3183
32	0	0	1822	4	184	1898	3181
33	0	0	1786	4	184	1898	3177
34	0	0	1725	3	183	1898	3176
35	0	0	1688	4	183	1898	3177
36	0	0	1695	5	182	1897	3178
37	0	0	1744	5	183	1897	3180
38	0	0	1839	5	184	1898	3182
39	0	0	1950	6	184	1898	3183
40	0	0	2041	5	183	1897	3184
41	0	0	2089	4	183	1898	3184
42	0	0	2102	5	184	1898	3181
43	0	0	2116	5	183	1898	3177
44	0	0	2141	4	184	1898	3176
45	0	0	2144	5	184	1897	3176
46	0	0	2107	4	183	1897	3178
47	0	0	2051	4	183	1897	3180
48	0	0	1993	5	184	1898	3182
49	0	0	1949	5	182	1898	3183
50	0	0	1905	4	184	1898	3184
51	0	0	1848	4	183	1897	3183
52	0	0	1801	4	183	1897	3181
53	0	0	1758	4	183	1898	3178
54	0	0	1714	4	182	1898	3177
55	0	0	1726	5	182	1898	3177
56	0	0	1763	5	183	1897	3178
57	0	0	1815	5	183	1897	3179
58	0	0	1908	5	182	1898	3182
59	0	0	1973	5	183	1898	3183
60	0	0	2007	5	183	1898	3184
61	0	0	2054	5	183	1897	3183
62	0	0	2103	5	183	1897	3181
63	0	0	2121	5	184	1898	3177
64	0	0	2119	5	184	1898	3175
65	0	0	2109	5	183	1897	3176
66	0	0	2107	4	184	1898	3179
67	0	0	2074	4	184	1898	3180
68	0	0	2003	4	182	1898	3182
69	0	0	1920	4	183	1898	3184
70	0	0	1840	4	183	1898	3184
71	0	0	1772	4	182	1897	3183
72	0	0	1752	4	184	1898	3181
73	0	0	1732	4	183	1898	3178
74	0	0	1707	4	183	1898	3176
75	0	0	1725	5	184	1898	3177
76	0	0	1769	5	184	1897	3178
77	0	0	1809	5	183	1897	3179
78	0	0	1876	5	183	1897	3182
79	0	0	1965	5	184	1898	3183
80	0	0	2038	5	184	1897	3184
81	0	0	2092	5	183	1897	3183
82	0	0	2129	6	183	1897	3181
83	0	0	2137	5	184	1897	3177
84	0	0	2131	6	183	1898	3176
85	0	0	2109	4	183	1897	3177
86	0	0	2071	4	183	1897	3178
87	0	0	2012	4	183	1897	3180
88	0	0	1950	4	183	1898	3182
89	0	0	1891	3	184	1898	3184
90	0	0	1836	4	183	1897	3184
91	0	0	1789	3	184	1898	3184
92	0	0	1748	4	183	1898	3181
93	0	0	1709	4	183	1898	3177
94	0	0	1673	4	182	1898	3176
95	0	0	1686	5	184	1897	3177
96	0	0	1743	4	183	1898	3179
97	0	0	1829	6	184	1897	3180
98	0	0	1942	5	182	1898	3181
99	0	0	2055	5	182	1898	3184
100	0	0	2154	5	184	1897	3184
101	0	0	2194	5	184	1897	3183
102	0	0	2167	4	183	1898	3181
103	0	0	2143	4	183	1897	3178
104	0	0	2114	4	183	1898	3176
105	0	0	2071	4	183	1898	3177
106	0	0	2016	5	184	1897	3177
107	0	0	1945	4	184	1898	3180
108	0	0	1865	4	184	1898	3182
109	0	0	1801	5	183	1898	3184
110	0	0	1761	4	183	1897	3184
111	0	0	1748	5	182	1897	3183
112	0	0	1757	5	183	1897	3181
113	0	0	1745	4	181	1898	3177
114	0	0	1717	4	182	1898	3176
115	0	0	1734	5	184	1897	3177
116	0	0	1776	5	183	1897	3178
117	0	0	1825	6	183	1897	3180
118	0	0	1884	5	185	1897	3182
119	0	0	1949	4	184	1898	3183
120	0	0	2006	5	185	1897	3184
121	0	0	2056	4	184	1898	3184
122	0	0	2110	5	183	1898	3181
123	0	0	2167	5	183	1898	3177
124	0	0	2222	4	183	1898	3176
125	0	0	2232	5	184	1897	3176
126	0	0	2181	4	185	1898	3179
127	0	0	2097	4	183	1898	3180
0	0	0	2001	4	182	1897	3182
1	0	0	1920	4	184	1898	3184
2	0	0	1854	4	183	1897	3184
3	0	0	1800	4	183	1897	3183
4	0	0	1763	5	183	1898	3182
5	0	0	1730	4	182	1898	3178
6	0	0	1693	4	182	1898	3176
7	0	0	1701	5	183	1897	3177
8	0	0	1734	5	182	1897	3178
9	0	0	1797	5	183	1897	3180
10	0	0	1907	5	183	1897	3182
11	0	0	2012	5	183	1898	3184
12	0	0	2080	5	184	1897	3184
13	0	0	2111	5	183	1898	3184
14	0	0	2110	5	184	1898	3181
15	0	0	2113	5	183	1898	3178
16	0	0	2118	4	184	1898	3176
17	0	0	2086	4	184	1897	3177
18	0	0	2054	4	184	1897	3178
19	0	0	2025	4	182	1898	3180
20	0	0	2003	4	184	1898	3182
21	0	0	1977	4	183	1898	3184
22	0	0	1940	4	184	1897	3184
23	0	0	1912	5	184	1897	3183
24	0	0	1903	4	183	1897	3181
25	0	0	1877	4	182	1897	3178
26	0	0	1837	4	183	1898	3177
27	0	0	1834	5	182	1897	3176
28	0	0	1848	5	183	1897	3178
29	0	0	1875	5	182	1898	3180
30	0	0	1935	5	183	1898	3182
31	0	0	1999	4	185	1898	3184
32	0	0	2043	5	184	1898	3184
33	0	0	2068	5	183	1897	3183
34	0	0	2094	4	183	1897	3181
35	0	0	2130	5	182	1898	3178
36	0	0	2142	4	184	1898	3176
37	0	0	2102	4	183	1898	3176
38	0	0	2058	4	184	1898	3178
39	0	0	2032	4	184	1897	3180
40	0	0	2008	4	184	1897	3182
41	0	0	1973	4	184	1898	3184
42	0	0	1934	4	183	1897	3184
43	0	0	1901	4	183	1898	3184
44	0	0	1863	4	183	1897	3182
45	0	0	1816	4	183	1898	3178
46	0	0	1783	4	184	1898	3176
47	0	0	1817	5	183	1898	3177
48	0	0	1859	5	183	1897	3178
49	0	0	1871	4	182	1898	3180
50	0	0	1909	5	184	1897	3182
51	0	0	1970	4	183	1898	3184
52	0	0	2033	5	183	1898	3185
53	0	0	2092	5	183	1897	3183
54	0	0	2143	4	183	1897	3182
55	0	0	2179	5	183	1897	3178
56	0	0	2189	4	183	1898	3176
57	0	0	2139	3	185	1897	3177
58	0	0	2076	4	183	1898	3179
59	0	0	2014	4	184	1897	3180
60	0	0	1950	4	183	1898	3182
61	0	0	1877	3	183	1898	3184
62	0	0	1802	4	183	1898	3184
63	0	0	1748	4	184	1898	3183
64	0	0	1733	5	183	1898	3182
65	0	0	1728	4	183	1897	3178
66	0	0	1709	4	184	1898	3177
67	0	0	1727	5	184	1898	3177
68	0	0	1761	5	183	1897	3178
69	0	0	1830	5	183	1897	3180
70	0	0	1956	5	183	1897	3182
71	0	0	2068	4	184	1898	3184
72	0	0	2129	4	183	1898	3185
73	0	0	2159	5	184	1897	3183
74	0	0	2209	5	183	1897	3182
75	0	0	2264	5	184	1898	3178
76	0	0	2300	4	183	1898	3176
77	0	0	2255	4	183	1897	3177
78	0	0	2175	4	183	1897	3178
79	0	0	2110	4	184	1897	3180
80	0	0	2062	4	184	1898	3182
81	0	0	2024	4	183	1898	3184
82	0	0	1988	4	184	1897	3184
83	0	0	1949	4	183	1897	3184
84	0	0	1912	4	183	1897	3182
85	0	0	1873	4	184	1898	3179
86	0	0	1838	4	183	1898	3177
87	0	0	1847	5	182	1898	3178
88	0	0	1882	5	183	1898	3178
89	0	0	1943	5	183	1898	3181
90	0	0	2028	5	182	1899	3183
91	0	0	2107	5	183	1898	3184
92	0	0	2166	5	184	1898	3185
93	0	0	2203	5	184	1898	3184
94	0	0	2222	5	184	1898	3183
95	0	0	2239	5	184	1898	3179
96	0	0	2259	4	183	1898	3177
97	0	0	2237	4	184	1898	3178
98	0	0	2187	4	184	1898	3178
99	0	0	2135	3	182	1897	3180
100	0	0	2082	4	184	1898	3182
101	0	0	2048	4	184	1898	3184
102	0	0	2014	4	183	1897	3185
103	0	0	1971	4	184	1898	3185
104	0	0	1924	4	185	1898	3182
105	0	0	1876	4	182	1898	3179
106	0	0	1824	3	183	1898	3177
107	0	0	1811	4	183	1898	3178
108	0	0	1822	5	183	1897	3178
109	0	0	1857	5	184	1897	3180
110	0	0	1939	5	184	1898	3182
111	0	0	2027	4	184	1898	3184
112	0	0	2103	3	183	1897	3185
113	0	0	2151	5	184	1897	3184
114	0	0	2177	5	183	1897	3182
115	0	0	2198	5	183	1897	3179
116	0	0	2209	3	183	1898	3176
117	0	0	2191	4	183	1897	3177
118	0	0	2168	4	183	1898	3179
119	0	0	2128	4	183	1898	3180
120	0	0	2071	4	184	1898	3182
121	0	0	2008	4	183	1899	3185
122	0	0	1938	4	184	1897	3185
123	0	0	1892	4	183	1897	3184
124	0	0	1874	5	183	1897	3182
125	0	0	1855	4	182	1898	3179
126	0	0	1817	3	183	1898	3177
127	0	0	1811	5	183	1897	3177
0	0	0	1850	5	183	1897	3178
1	0	0	1904	5	184	1898	3181
2	0	0	1957	5	185	1898	3183
3	0	0	2001	4	183	1898	3184
4	0	0	2038	5	184	1897	3185
5	0	0	2077	5	183	1898	3185
6	0	0	2107	5	185	1899	3182
7	0	0	2125	5	184	1898	3179
8	0	0	2155	5	184	1898	3177
9	0	0	2141	4	182	1898	3177
10	0	0	2095	4	183	1897	3178
11	0	0	2024	4	184	1898	3181
12	0	0	1946	4	184	1898	3182
13	0	0	1891	3	183	1898	3184
