# bioPlux Text File Format
# Version: 1
# StartDateTime: 2011-07-19 18:24:49
# SamplingFrequency: 1000
# SampledChannels: 1 2 3 4
# SamplingResolution: 12
# AcquiringDevice: 00:07:80:42:0F:8B
# EndOfHeader
0	0	0	2607	8	3843	72
1	0	0	2566	9	3844	73
2	0	0	2530	10	3843	72
3	0	0	2492	8	3842	73
4	0	0	2430	7	3843	72
5	0	0	2348	6	3842	72
6	0	0	2286	9	3842	70
7	0	0	2264	10	3843	72
8	0	0	2237	8	3843	73
9	0	0	2197	8	3843	72
10	0	0	2171	8	3843	73
11	0	0	2156	11	3843	71
12	0	0	2125	10	3843	72
13	0	0	2129	10	3844	76
14	0	0	2152	11	3843	73
15	0	0	2145	10	3843	72
16	0	0	2109	7	3845	73
17	0	0	2080	9	3844	72
18	0	0	2086	11	3844	73
19	0	0	2095	8	3844	73
20	0	0	2113	10	3844	73
21	0	0	2125	11	3843	73
22	0	0	2131	12	3843	72
23	0	0	2133	11	3842	75
24	0	0	2131	11	3842	73
25	0	0	2136	10	3843	73
26	0	0	2145	11	3845	73
27	0	0	2150	10	3844	72
28	0	0	2122	8	3844	71
29	0	0	2092	9	3843	72
30	0	0	2079	10	3843	73
31	0	0	2088	11	3844	73
32	0	0	2125	10	3844	72
33	0	0	2156	11	3843	72
34	0	0	2187	11	3843	72
35	0	0	2201	10	3844	73
36	0	0	2163	8	3842	72
37	0	0	2118	7	3843	71
38	0	0	2080	11	3842	73
39	0	0	2062	10	3843	76
40	0	0	2061	10	3843	73
41	0	0	2067	11	3842	72
42	0	0	2088	12	3843	71
43	0	0	2123	11	3839	74
44	0	0	2127	10	3843	72
45	0	0	2094	7	3844	73
46	0	0	2068	9	3842	72
47	0	0	2063	14	3844	72
48	0	0	2056	14	3843	72
49	0	0	2052	11	3843	73
50	0	0	2036	10	3843	73
51	0	0	2051	12	3841	72
52	0	0	2079	11	3843	71
53	0	0	2083	14	3842	72
54	0	0	2096	11	3842	74
55	0	0	2092	11	3843	72
56	0	0	2091	10	3844	72
57	0	0	2101	11	3843	72
58	0	0	2103	11	3844	72
59	0	0	2115	10	3843	73
60	0	0	2124	11	3843	72
61	0	0	2117	11	3844	72
62	0	0	2112	12	3844	73
63	0	0	2116	11	3844	72
64	0	0	2095	5	3845	72
65	0	0	2075	10	3843	72
66	0	0	2082	11	3845	73
67	0	0	2081	10	3844	72
68	0	0	2077	12	3844	75
69	0	0	2090	10	3844	71
70	0	0	2101	12	3843	73
71	0	0	2099	12	3843	73
72	0	0	2088	10	3844	71
73	0	0	2071	11	3842	72
74	0	0	2072	12	3843	72
75	0	0	2093	13	3844	73
76	0	0	2112	11	3845	73
77	0	0	2122	11	3844	71
78	0	0	2112	10	3843	73
79	0	0	2080	8	3844	71
80	0	0	2053	8	3842	72
81	0	0	2040	10	3844	72
82	0	0	2054	7	3843	72
83	0	0	2082	11	3843	73
84	0	0	2111	12	3843	73
85	0	0	2128	11	3843	72
86	0	0	2117	10	3842	72
87	0	0	2107	8	3844	72
88	0	0	2111	11	3843	72
89	0	0	2132	12	3843	73
90	0	0	2151	13	3842	72
91	0	0	2157	10	3842	72
92	0	0	2147	7	3843	71
93	0	0	2125	9	3843	71
94	0	0	2121	7	3843	72
95	0	0	2135	12	3843	74
96	0	0	2134	11	3844	72
97	0	0	2128	8	3844	72
98	0	0	2132	11	3845	71
99	0	0	2140	16	3843	72
100	0	0	2121	7	3843	73
101	0	0	2114	10	3843	73
102	0	0	2100	10	3843	71
103	0	0	2084	12	3842	72
104	0	0	2086	11	3844	73
105	0	0	2102	11	3843	72
106	0	0	2106	11	3843	72
107	0	0	2107	8	3844	72
108	0	0	2121	12	3843	73
109	0	0	2127	11	3843	71
110	0	0	2105	11	3842	72
111	0	0	2097	11	3843	73
112	0	0	2097	8	3843	72
113	0	0	2112	11	3844	70
114	0	0	2119	9	3841	73
115	0	0	2109	9	3843	73
116	0	0	2102	10	3843	73
117	0	0	2114	7	3844	72
118	0	0	2118	12	3844	72
119	0	0	2120	12	3844	72
120	0	0	2145	11	3843	74
121	0	0	2172	10	3841	73
122	0	0	2172	8	3843	72
123	0	0	2149	10	3842	73
124	0	0	2136	7	3842	72
125	0	0	2160	10	3843	73
126	0	0	2200	10	3843	71
127	0	0	2192	7	3844	72
0	0	0	2159	9	3843	72
1	0	0	2157	9	3844	72
2	0	0	2179	11	3843	69
3	0	0	2179	11	3848	72
4	0	0	2162	8	3844	71
5	0	0	2133	9	3844	72
6	0	0	2114	12	3843	73
7	0	0	2116	11	3843	71
8	0	0	2126	11	3844	71
9	0	0	2134	9	3844	72
10	0	0	2128	11	3843	73
11	0	0	2114	15	3842	72
12	0	0	2086	11	3843	71
13	0	0	2080	12	3841	73
14	0	0	2106	12	3844	73
15	0	0	2132	11	3843	72
16	0	0	2165	13	3840	74
17	0	0	2201	11	3844	72
18	0	0	2226	11	3841	73
19	0	0	2190	8	3845	72
20	0	0	2146	8	3843	73
21	0	0	2108	7	3844	72
22	0	0	2084	8	3843	73
23	0	0	2079	11	3843	71
24	0	0	2102	11	3844	72
25	0	0	2142	11	3845	72
26	0	0	2181	9	3841	73
27	0	0	2219	12	3842	72
28	0	0	2208	8	3840	73
29	0	0	2189	10	3843	71
30	0	0	2186	11	3843	72
31	0	0	2189	11	3845	72
32	0	0	2172	8	3846	75
33	0	0	2156	10	3841	73
34	0	0	2159	12	3843	73
35	0	0	2149	11	3843	72
36	0	0	2165	9	3843	72
37	0	0	2190	12	3843	71
38	0	0	2206	11	3846	73
39	0	0	2185	8	3844	71
40	0	0	2154	9	3844	71
41	0	0	2144	13	3843	73
42	0	0	2148	12	3842	72
43	0	0	2164	13	3840	73
44	0	0	2171	11	3843	72
45	0	0	2152	11	3842	72
46	0	0	2143	11	3845	72
47	0	0	2143	11	3844	71
48	0	0	2160	12	3844	73
49	0	0	2194	11	3844	73
50	0	0	2214	11	3843	74
51	0	0	2204	9	3844	70
52	0	0	2168	8	3843	71
53	0	0	2167	12	3848	72
54	0	0	2198	11	3844	73
55	0	0	2211	12	3843	73
56	0	0	2212	11	3843	73
57	0	0	2185	9	3843	72
58	0	0	2184	12	3846	73
59	0	0	2228	12	3844	72
60	0	0	2247	11	3844	71
61	0	0	2205	9	3843	73
62	0	0	2186	14	3842	72
63	0	0	2198	11	3840	73
64	0	0	2238	12	3844	72
65	0	0	2252	11	3843	72
66	0	0	2235	9	3845	72
67	0	0	2229	12	3843	71
68	0	0	2227	12	3845	73
69	0	0	2230	12	3845	72
70	0	0	2231	12	3843	71
71	0	0	2229	11	3843	74
72	0	0	2216	12	3844	72
73	0	0	2204	12	3844	72
74	0	0	2189	12	3844	72
75	0	0	2189	12	3842	72
76	0	0	2210	11	3844	73
77	0	0	2218	12	3843	72
78	0	0	2210	12	3843	72
79	0	0	2214	11	3844	71
80	0	0	2229	11	3843	72
81	0	0	2256	10	3843	72
82	0	0	2269	14	3843	70
83	0	0	2269	11	3846	73
84	0	0	2273	12	3844	72
85	0	0	2261	10	3843	73
86	0	0	2238	14	3843	74
87	0	0	2255	12	3843	71
88	0	0	2286	12	3845	73
89	0	0	2283	10	3844	72
90	0	0	2248	12	3843	73
91	0	0	2257	11	3843	74
92	0	0	2256	12	3843	72
93	0	0	2238	9	3844	73
94	0	0	2229	11	3843	71
95	0	0	2256	11	3843	71
96	0	0	2275	12	3843	73
97	0	0	2271	10	3843	72
98	0	0	2215	8	3844	71
99	0	0	2166	9	3843	74
100	0	0	2155	11	3843	73
101	0	0	2176	10	3845	72
102	0	0	2197	12	3844	72
103	0	0	2217	12	3845	73
104	0	0	2229	12	3843	72
105	0	0	2225	12	3843	73
106	0	0	2207	11	3843	73
107	0	0	2193	12	3844	73
108	0	0	2191	12	3844	73
109	0	0	2175	11	3842	72
110	0	0	2179	12	3843	73
111	0	0	2212	12	3843	72
112	0	0	2226	11	3844	73
113	0	0	2232	11	3844	72
114	0	0	2239	12	3843	72
115	0	0	2239	12	3844	72
116	0	0	2213	9	3843	72
117	0	0	2162	7	3844	73
118	0	0	2118	9	3844	73
119	0	0	2123	11	3843	72
120	0	0	2146	16	3844	72
121	0	0	2176	12	3844	72
122	0	0	2232	11	3844	73
123	0	0	2283	12	3845	72
124	0	0	2290	12	3843	72
125	0	0	2286	12	3840	73
126	0	0	2282	13	3842	71
127	0	0	2262	10	3846	73
0	0	0	2247	13	3843	72
1	0	0	2239	11	3844	72
2	0	0	2223	12	3843	71
3	0	0	2245	12	3843	71
4	0	0	2267	12	3844	72
5	0	0	2268	11	3842	70
6	0	0	2247	7	3844	72
7	0	0	2197	8	3841	71
8	0	0	2164	11	3844	72
9	0	0	2156	11	3845	71
10	0	0	2157	11	3843	71
11	0	0	2163	12	3844	72
12	0	0	2143	9	3843	72
13	0	0	2129	12	3843	72
14	0	0	2131	12	3843	72
15	0	0	2132	11	3842	70
16	0	0	2147	12	3844	72
17	0	0	2163	12	3842	73
18	0	0	2185	12	3840	73
19	0	0	2193	13	3843	72
20	0	0	2170	9	3845	72
21	0	0	2172	12	3843	73
22	0	0	2198	11	3843	72
23	0	0	2215	12	3843	72
24	0	0	2203	12	3843	72
25	0	0	2212	11	3844	72
26	0	0	2219	12	3843	72
27	0	0	2209	11	3843	72
28	0	0	2178	10	3842	72
29	0	0	2159	11	3844	72
30	0	0	2156	11	3839	71
31	0	0	2144	11	3844	72
32	0	0	2123	11	3843	73
33	0	0	2125	12	3841	74
34	0	0	2148	15	3843	72
35	0	0	2195	12	3843	72
36	0	0	2214	11	3843	73
37	0	0	2189	7	3843	72
38	0	0	2126	8	3843	73
39	0	0	2082	9	3843	73
40	0	0	2091	10	3844	72
41	0	0	2105	9	3844	72
42	0	0	2126	11	3844	72
43	0	0	2171	11	3844	73
44	0	0	2195	11	3844	72
45	0	0	2180	8	3846	72
46	0	0	2159	10	3841	73
47	0	0	2158	12	3843	73
48	0	0	2143	13	3844	72
49	0	0	2126	11	3843	73
50	0	0	2127	11	3843	72
51	0	0	2120	9	3843	72
52	0	0	2087	9	3843	73
53	0	0	2088	11	3843	73
54	0	0	2122	9	3844	72
55	0	0	2140	11	3845	72
56	0	0	2148	11	3844	72
57	0	0	2154	11	3843	73
58	0	0	2160	11	3843	72
59	0	0	2169	9	3845	72
60	0	0	2162	10	3843	73
61	0	0	2146	10	3843	72
62	0	0	2149	11	3844	72
63	0	0	2138	7	3843	72
64	0	0	2117	9	3843	72
65	0	0	2106	11	3844	72
66	0	0	2098	11	3845	72
67	0	0	2100	12	3842	73
68	0	0	2106	13	3842	72
69	0	0	2109	9	3843	72
70	0	0	2115	12	3844	71
71	0	0	2110	16	3841	73
72	0	0	2109	11	3843	72
73	0	0	2104	11	3845	72
74	0	0	2111	13	3845	71
75	0	0	2138	11	3843	70
76	0	0	2131	11	3844	71
77	0	0	2112	12	3843	72
78	0	0	2122	12	3840	74
79	0	0	2146	11	3843	72
80	0	0	2163	12	3844	71
81	0	0	2144	9	3844	73
82	0	0	2107	9	3843	72
83	0	0	2082	11	3843	72
84	0	0	2086	9	3845	72
85	0	0	2095	12	3843	73
86	0	0	2082	9	3843	72
87	0	0	2064	10	3843	74
88	0	0	2082	12	3843	73
89	0	0	2146	10	3843	72
90	0	0	2186	11	3841	74
91	0	0	2236	12	3845	74
92	0	0	2257	12	3844	73
93	0	0	2215	8	3845	72
94	0	0	2156	8	3844	72
95	0	0	2108	8	3844	71
96	0	0	2075	8	3844	72
97	0	0	2074	11	3843	72
98	0	0	2097	10	3843	72
99	0	0	2114	10	3844	71
100	0	0	2097	10	3844	71
101	0	0	2088	11	3844	72
102	0	0	2101	11	3843	72
103	0	0	2126	11	3843	71
104	0	0	2138	11	3844	73
105	0	0	2127	10	3843	71
106	0	0	2093	9	3844	73
107	0	0	2087	11	3843	72
108	0	0	2094	13	3843	72
109	0	0	2105	9	3845	72
110	0	0	2137	11	3842	73
111	0	0	2148	11	3843	72
112	0	0	2147	11	3843	72
113	0	0	2142	12	3843	72
114	0	0	2142	12	3843	72
115	0	0	2136	11	3841	74
116	0	0	2113	9	3843	73
117	0	0	2086	9	3844	72
118	0	0	2082	11	3843	74
119	0	0	2110	12	3843	72
120	0	0	2140	11	3844	71
121	0	0	2146	12	3843	72
122	0	0	2140	11	3843	73
123	0	0	2126	12	3843	72
124	0	0	2114	12	3843	73
125	0	0	2108	10	3844	71
126	0	0	2093	11	3844	72
127	0	0	2111	7	3844	73
0	0	0	2124	12	3843	71
1	0	0	2117	12	3845	71
2	0	0	2115	12	3844	71
3	0	0	2119	12	3842	71
4	0	0	2105	9	3843	73
5	0	0	2091	12	3843	72
6	0	0	2123	12	3843	72
7	0	0	2120	10	3844	72
8	0	0	2099	10	3843	72
9	0	0	2090	11	3843	72
10	0	0	2100	12	3843	73
11	0	0	2141	11	3845	72
12	0	0	2181	11	3844	71
13	0	0	2177	9	3841	72
14	0	0	2144	8	3844	72
15	0	0	2120	12	3844	72
16	0	0	2105	10	3841	74
17	0	0	2096	11	3843	71
18	0	0	2127	11	3844	71
19	0	0	2152	11	3843	74
20	0	0	2166	11	3844	70
21	0	0	2174	11	3843	72
22	0	0	2171	14	3844	72
23	0	0	2163	11	3839	71
24	0	0	2136	9	3843	72
25	0	0	2128	12	3843	72
26	0	0	2128	12	3840	74
27	0	0	2118	13	3843	71
28	0	0	2110	7	3842	72
29	0	0	2130	12	3843	72
30	0	0	2137	11	3844	73
31	0	0	2139	11	3841	74
32	0	0	2166	11	3844	73
33	0	0	2163	10	3843	72
34	0	0	2128	9	3843	72
35	0	0	2127	12	3844	72
36	0	0	2153	11	3844	71
37	0	0	2157	11	3843	69
38	0	0	2153	12	3844	71
39	0	0	2151	12	3842	69
40	0	0	2151	11	3843	72
41	0	0	2155	12	3842	72
42	0	0	2135	9	3844	72
43	0	0	2091	7	3843	71
44	0	0	2062	10	3843	73
45	0	0	2064	12	3843	72
46	0	0	2080	12	3841	73
47	0	0	2092	11	3843	71
48	0	0	2096	12	3841	71
49	0	0	2091	11	3843	72
50	0	0	2099	12	3843	72
51	0	0	2088	9	3841	74
52	0	0	2056	8	3842	73
53	0	0	2035	10	3844	73
54	0	0	2034	11	3842	73
55	0	0	2089	12	3843	72
56	0	0	2143	12	3841	74
57	0	0	2153	12	3843	71
58	0	0	2145	12	3842	72
59	0	0	2145	11	3843	71
60	0	0	2161	12	3843	73
61	0	0	2152	11	3840	74
62	0	0	2136	12	3844	71
63	0	0	2134	11	3844	72
64	0	0	2123	12	3844	72
65	0	0	2100	9	3844	73
66	0	0	2078	10	3841	74
67	0	0	2078	11	3843	70
68	0	0	2094	11	3843	71
69	0	0	2090	11	3844	71
70	0	0	2072	10	3841	72
71	0	0	2073	11	3843	72
72	0	0	2130	11	3844	71
73	0	0	2171	11	3842	71
74	0	0	2152	9	3844	72
75	0	0	2121	14	3843	72
76	0	0	2110	11	3843	72
77	0	0	2106	12	3844	72
78	0	0	2110	12	3843	72
79	0	0	2122	11	3844	72
80	0	0	2128	15	3843	73
81	0	0	2147	12	3844	72
82	0	0	2147	13	3845	72
83	0	0	2131	12	3843	71
84	0	0	2123	11	3842	72
85	0	0	2108	9	3845	72
86	0	0	2106	12	3844	71
87	0	0	2094	10	3843	72
88	0	0	2080	11	3843	72
89	0	0	2090	11	3843	72
90	0	0	2092	12	3843	73
91	0	0	2078	12	3843	72
92	0	0	2062	10	3843	70
93	0	0	2059	11	3843	72
94	0	0	2059	11	3843	73
95	0	0	2064	12	3843	73
96	0	0	2074	11	3844	73
97	0	0	2096	10	3843	71
98	0	0	2099	11	3843	72
99	0	0	2103	11	3845	72
100	0	0	2101	15	3843	72
101	0	0	2107	13	3843	73
102	0	0	2118	12	3847	72
103	0	0	2121	12	3843	72
104	0	0	2105	12	3843	72
105	0	0	2086	10	3844	72
106	0	0	2075	10	3844	73
107	0	0	2068	11	3844	72
108	0	0	2080	12	3843	71
109	0	0	2090	10	3843	72
110	0	0	2092	16	3843	72
111	0	0	2097	12	3844	72
112	0	0	2090	10	3844	72
113	0	0	2079	12	3843	71
114	0	0	2087	12	3843	73
115	0	0	2094	16	3843	74
116	0	0	2063	8	3844	72
117	0	0	2052	12	3844	72
118	0	0	2062	11	3844	70
119	0	0	2072	12	3843	73
120	0	0	2080	11	3842	74
121	0	0	2083	13	3843	73
122	0	0	2084	11	3842	72
123	0	0	2083	12	3843	72
124	0	0	2081	11	3844	72
125	0	0	2087	12	3842	72
126	0	0	2098	12	3844	73
127	0	0	2103	12	3844	72
0	0	0	2099	12	3842	72
1	0	0	2085	11	3843	72
2	0	0	2090	10	3845	72
3	0	0	2121	11	3844	72
4	0	0	2172	13	3844	76
5	0	0	2180	10	3843	71
6	0	0	2126	8	3845	72
7	0	0	2072	9	3844	73
8	0	0	2065	12	3844	74
9	0	0	2066	11	3843	74
10	0	0	2072	11	3843	72
11	0	0	2082	12	3844	76
12	0	0	2083	10	3845	72
13	0	0	2076	11	3844	72
14	0	0	2100	12	3844	71
15	0	0	2088	10	3843	72
16	0	0	2066	7	3844	73
17	0	0	2071	10	3843	72
18	0	0	2087	13	3844	72
19	0	0	2099	11	3844	71
20	0	0	2070	9	3843	72
21	0	0	2036	7	3843	72
22	0	0	2032	10	3845	71
23	0	0	2050	10	3844	71
24	0	0	2083	12	3844	75
25	0	0	2112	12	3843	71
26	0	0	2118	12	3845	72
27	0	0	2091	5	3845	72
28	0	0	2041	10	3844	73
29	0	0	2019	13	3843	76
30	0	0	2039	12	3843	71
31	0	0	2074	11	3843	72
32	0	0	2076	11	3844	71
33	0	0	2070	11	3844	70
34	0	0	2071	12	3844	74
35	0	0	2079	12	3845	72
36	0	0	2091	12	3844	72
37	0	0	2095	12	3846	71
38	0	0	2080	10	3845	72
39	0	0	2065	13	3844	75
40	0	0	2054	12	3843	71
41	0	0	2046	11	3843	73
42	0	0	2053	15	3843	73
43	0	0	2065	12	3845	73
44	0	0	2080	12	3844	76
45	0	0	2111	12	3844	71
46	0	0	2137	11	3844	72
47	0	0	2158	15	3843	73
48	0	0	2156	12	3844	72
49	0	0	2133	10	3844	75
50	0	0	2093	9	3845	71
51	0	0	2053	9	3843	73
52	0	0	2052	12	3843	71
53	0	0	2085	14	3845	73
54	0	0	2113	11	3844	71
55	0	0	2115	11	3844	72
56	0	0	2108	12	3844	73
57	0	0	2093	15	3843	73
58	0	0	2071	11	3844	72
59	0	0	2041	10	3844	71
60	0	0	2048	12	3842	71
61	0	0	2074	12	3843	72
62	0	0	2084	12	3844	72
63	0	0	2071	10	3844	75
64	0	0	2050	12	3844	75
65	0	0	2066	12	3843	71
66	0	0	2099	13	3844	72
67	0	0	2112	15	3843	73
68	0	0	2090	11	3845	73
69	0	0	2061	11	3845	69
70	0	0	2057	12	3844	72
71	0	0	2058	12	3844	72
72	0	0	2058	13	3845	72
73	0	0	2068	13	3844	72
74	0	0	2099	10	3845	71
75	0	0	2116	12	3843	71
76	0	0	2114	11	3845	72
77	0	0	2110	12	3845	73
78	0	0	2093	11	3844	72
79	0	0	2083	12	3844	72
80	0	0	2095	12	3844	72
81	0	0	2093	12	3843	72
82	0	0	2080	10	3844	72
83	0	0	2053	9	3844	73
84	0	0	2041	12	3844	69
85	0	0	2062	12	3844	71
86	0	0	2089	12	3844	73
87	0	0	2101	13	3844	73
88	0	0	2100	12	3844	72
89	0	0	2091	12	3845	74
90	0	0	2095	11	3846	72
91	0	0	2113	11	3845	72
92	0	0	2120	12	3844	73
93	0	0	2107	11	3844	72
94	0	0	2085	10	3845	71
95	0	0	2067	12	3839	71
96	0	0	2070	11	3843	72
97	0	0	2101	12	3842	73
98	0	0	2134	12	3844	72
99	0	0	2124	11	3844	71
100	0	0	2115	9	3845	71
101	0	0	2134	12	3843	73
102	0	0	2137	12	3843	72
103	0	0	2114	9	3844	74
104	0	0	2077	6	3845	69
105	0	0	2044	11	3844	72
106	0	0	2063	12	3844	72
107	0	0	2093	12	3844	73
108	0	0	2120	11	3845	73
109	0	0	2131	11	3844	73
110	0	0	2130	12	3844	72
111	0	0	2141	12	3843	74
112	0	0	2172	12	3843	72
113	0	0	2176	13	3842	72
114	0	0	2160	11	3844	72
115	0	0	2146	12	3846	72
116	0	0	2140	12	3844	74
117	0	0	2113	8	3842	74
118	0	0	2078	10	3843	74
119	0	0	2101	12	3845	71
120	0	0	2126	13	3845	72
121	0	0	2118	11	3843	72
122	0	0	2095	10	3844	72
123	0	0	2083	12	3844	72
124	0	0	2092	11	3844	71
125	0	0	2107	13	3848	74
126	0	0	2113	12	3841	73
127	0	0	2089	10	3844	73
0	0	0	2069	12	3843	75
1	0	0	2083	13	3844	71
2	0	0	2090	11	3844	72
3	0	0	2101	12	3843	73
4	0	0	2098	10	3846	73
5	0	0	2048	8	3843	73
6	0	0	2021	13	3844	69
7	0	0	2036	11	3847	72
8	0	0	2040	11	3844	73
9	0	0	2041	13	3844	72
10	0	0	2051	11	3843	75
11	0	0	2046	13	3845	71
12	0	0	2036	11	3846	72
13	0	0	2003	8	3842	72
14	0	0	1981	11	3844	72
15	0	0	1998	11	3844	72
16	0	0	2030	12	3844	74
17	0	0	2040	11	3845	71
18	0	0	2019	11	3844	72
19	0	0	2032	11	3844	73
20	0	0	2060	12	3844	72
21	0	0	2077	10	3844	74
22	0	0	2071	9	3845	71
23	0	0	2045	10	3844	75
24	0	0	2052	12	3844	71
25	0	0	2072	12	3845	71
26	0	0	2066	12	3844	72
27	0	0	2070	10	3845	72
28	0	0	2074	12	3844	73
29	0	0	2050	10	3844	72
30	0	0	2024	6	3843	72
31	0	0	2010	13	3843	72
32	0	0	2017	12	3843	71
33	0	0	2038	11	3844	72
34	0	0	2041	12	3846	73
35	0	0	2048	7	3843	72
36	0	0	2051	13	3844	72
37	0	0	2031	9	3843	72
38	0	0	2008	10	3844	73
39	0	0	2007	12	3844	71
40	0	0	2006	11	3845	72
41	0	0	2022	12	3845	74
42	0	0	2052	12	3845	72
43	0	0	2064	12	3844	73
44	0	0	2058	12	3844	73
45	0	0	2044	12	3844	72
46	0	0	2041	12	3844	74
47	0	0	2048	11	3843	71
48	0	0	2061	12	3843	72
49	0	0	2080	12	3843	72
50	0	0	2085	11	3843	70
51	0	0	2076	12	3845	71
52	0	0	2062	9	3845	72
53	0	0	2022	9	3843	73
54	0	0	1996	11	3845	72
55	0	0	1998	11	3845	72
56	0	0	2010	12	3845	74
57	0	0	1994	9	3844	72
58	0	0	1975	11	3844	73
59	0	0	2021	12	3844	72
60	0	0	2070	7	3846	72
61	0	0	2068	12	3844	72
62	0	0	2068	11	3843	72
63	0	0	2082	12	3844	71
64	0	0	2067	12	3844	73
65	0	0	2031	7	3843	72
66	0	0	1998	9	3844	74
67	0	0	1990	11	3844	74
68	0	0	1998	11	3844	73
69	0	0	2013	11	3844	72
70	0	0	2022	10	3843	71
71	0	0	2007	10	3844	73
72	0	0	1998	9	3845	72
73	0	0	1999	11	3844	72
74	0	0	2005	12	3845	73
75	0	0	2031	11	3843	72
76	0	0	2058	12	3845	72
77	0	0	2070	10	3844	72
78	0	0	2065	11	3845	72
79	0	0	2046	10	3843	72
80	0	0	2013	6	3843	72
81	0	0	2000	11	3844	71
82	0	0	1990	12	3843	73
83	0	0	1996	11	3842	72
84	0	0	2006	12	3844	70
85	0	0	2011	11	3843	72
86	0	0	2037	13	3844	73
87	0	0	2053	12	3844	72
88	0	0	2047	11	3844	72
89	0	0	2031	10	3844	72
90	0	0	2037	11	3844	70
91	0	0	2063	12	3845	72
92	0	0	2090	13	3846	71
93	0	0	2124	11	3844	72
94	0	0	2152	11	3846	71
95	0	0	2177	11	3845	76
96	0	0	2208	13	3844	73
97	0	0	2219	12	3844	72
98	0	0	2232	11	3843	72
99	0	0	2260	11	3844	72
100	0	0	2252	11	3843	73
101	0	0	2236	12	3844	76
102	0	0	2280	11	3843	74
103	0	0	2341	11	3843	73
104	0	0	2378	11	3843	73
105	0	0	2378	13	3844	72
106	0	0	2386	12	3845	76
107	0	0	2414	11	3844	72
108	0	0	2456	11	3846	72
109	0	0	2471	16	3845	72
110	0	0	2473	11	3844	72
111	0	0	2469	12	3845	71
112	0	0	2460	12	3844	74
113	0	0	2443	11	3844	72
114	0	0	2467	12	3844	74
115	0	0	2490	12	3844	70
116	0	0	2510	11	3844	72
117	0	0	2502	11	3845	71
118	0	0	2467	9	3844	73
119	0	0	2435	10	3843	72
120	0	0	2417	10	3842	73
121	0	0	2394	9	3844	76
122	0	0	2352	8	3844	74
123	0	0	2295	8	3843	72
124	0	0	2234	7	3844	72
125	0	0	2198	8	3844	73
126	0	0	2172	7	3845	75
127	0	0	2130	5	3844	74
0	0	0	2093	9	3844	73
1	0	0	2068	7	3844	72
2	0	0	2026	5	3844	72
3	0	0	1983	8	3845	72
4	0	0	1946	9	3843	73
5	0	0	1940	11	3845	71
6	0	0	1955	13	3845	73
7	0	0	1979	9	3844	73
8	0	0	1979	11	3845	71
9	0	0	1959	10	3844	75
10	0	0	1956	11	3844	72
11	0	0	1956	11	3843	71
12	0	0	1954	8	3844	73
13	0	0	1944	11	3844	76
14	0	0	1947	12	3843	73
15	0	0	1958	12	3844	72
16	0	0	1967	10	3844	73
17	0	0	1981	10	3844	72
18	0	0	1982	11	3845	72
19	0	0	1981	11	3844	75
20	0	0	1999	12	3844	72
21	0	0	2023	11	3844	71
22	0	0	2029	11	3845	72
23	0	0	2001	8	3844	72
24	0	0	1987	12	3843	71
25	0	0	1987	11	3843	72
26	0	0	1991	11	3844	72
27	0	0	1996	9	3842	73
28	0	0	1999	12	3845	75
29	0	0	2005	13	3845	74
30	0	0	2008	11	3844	72
31	0	0	2007	13	3845	72
32	0	0	2003	13	3846	76
33	0	0	2000	11	3845	75
34	0	0	2007	10	3844	74
35	0	0	2002	12	3845	72
36	0	0	1975	6	3842	72
37	0	0	1950	8	3844	73
38	0	0	1952	11	3845	74
39	0	0	1963	12	3844	72
40	0	0	1954	10	3844	72
41	0	0	1955	11	3843	74
42	0	0	1959	12	3844	71
43	0	0	1959	11	3845	72
44	0	0	1946	10	3844	74
45	0	0	1949	11	3844	73
46	0	0	1975	12	3844	73
47	0	0	1997	13	3845	76
48	0	0	2019	11	3846	71
49	0	0	2004	8	3846	72
50	0	0	1956	9	3844	72
51	0	0	1944	12	3844	72
52	0	0	1944	14	3845	72
53	0	0	1934	10	3844	71
54	0	0	1920	11	3848	77
55	0	0	1935	11	3843	72
56	0	0	1969	11	3843	74
57	0	0	2014	12	3845	76
58	0	0	2015	10	3845	72
59	0	0	1996	11	3844	71
60	0	0	1994	12	3844	73
61	0	0	1988	12	3844	74
62	0	0	1983	10	3846	75
63	0	0	1945	7	3845	73
64	0	0	1911	12	3844	73
65	0	0	1933	12	3844	72
66	0	0	1973	13	3844	73
67	0	0	1974	10	3845	76
68	0	0	1939	8	3844	75
69	0	0	1930	11	3843	72
70	0	0	1947	11	3843	71
71	0	0	1965	11	3844	73
72	0	0	1975	10	3845	75
73	0	0	1982	11	3845	72
74	0	0	1991	13	3844	71
75	0	0	1983	10	3843	73
76	0	0	1953	9	3844	73
77	0	0	1919	8	3846	75
78	0	0	1904	11	3845	73
79	0	0	1936	11	3844	71
80	0	0	2007	11	3844	72
81	0	0	2059	11	3845	72
82	0	0	2066	10	3846	75
83	0	0	2034	8	3845	72
84	0	0	2013	8	3844	71
85	0	0	1999	10	3843	71
86	0	0	1983	10	3845	72
87	0	0	1964	9	3845	72
88	0	0	1934	4	3845	72
89	0	0	1906	8	3845	70
90	0	0	1904	11	3844	72
91	0	0	1929	11	3845	69
92	0	0	1941	11	3845	71
93	0	0	1935	11	3844	73
94	0	0	1937	12	3845	72
95	0	0	1942	11	3844	72
96	0	0	1970	11	3845	70
97	0	0	1985	11	3846	72
98	0	0	2006	10	3845	72
99	0	0	2027	11	3844	72
100	0	0	2032	12	3844	72
101	0	0	2021	12	3845	73
102	0	0	1989	11	3844	72
103	0	0	1949	5	3844	74
104	0	0	1920	10	3843	72
105	0	0	1907	11	3845	71
106	0	0	1936	11	3844	70
107	0	0	1970	15	3844	70
108	0	0	1989	11	3845	72
109	0	0	2008	11	3845	71
110	0	0	1995	10	3844	73
111	0	0	1988	11	3845	70
112	0	0	1991	15	3844	72
113	0	0	2006	10	3846	75
114	0	0	2033	12	3844	72
115	0	0	2042	13	3844	73
116	0	0	2038	12	3844	73
117	0	0	2017	11	3844	72
118	0	0	1991	10	3845	71
119	0	0	1981	11	3844	72
120	0	0	1979	11	3844	72
121	0	0	1985	12	3843	72
122	0	0	1998	15	3844	72
123	0	0	2003	11	3845	71
124	0	0	2002	11	3843	72
125	0	0	1989	8	3844	71
126	0	0	1966	7	3843	72
127	0	0	1963	15	3844	72
0	0	0	1972	10	3845	72
1	0	0	1985	11	3844	71
2	0	0	2018	12	3844	72
3	0	0	2035	11	3845	71
4	0	0	2032	10	3845	73
5	0	0	2026	11	3844	72
6	0	0	2000	8	3844	72
7	0	0	1971	10	3842	71
8	0	0	1975	10	3843	72
9	0	0	1994	11	3843	72
10	0	0	1996	10	3845	72
11	0	0	1985	11	3845	72
12	0	0	1977	12	3843	72
13	0	0	2007	12	3844	71
14	0	0	2062	11	3845	72
15	0	0	2093	10	3845	73
16	0	0	2086	11	3843	72
17	0	0	2044	7	3844	72
18	0	0	1994	8	3844	73
19	0	0	1960	9	3844	72
20	0	0	1963	10	3846	74
21	0	0	1976	13	3845	72
22	0	0	1985	10	3844	73
23	0	0	2006	10	3844	72
24	0	0	2009	11	3844	72
25	0	0	2012	10	3844	74
26	0	0	2021	11	3843	74
27	0	0	2044	10	3844	72
28	0	0	2044	11	3845	76
29	0	0	2030	12	3844	72
30	0	0	2023	12	3846	72
31	0	0	2014	12	3842	72
32	0	0	2010	15	3846	72
33	0	0	2019	12	3844	72
34	0	0	2028	11	3844	72
35	0	0	2034	12	3845	71
36	0	0	2034	11	3844	73
37	0	0	2023	11	3844	72
38	0	0	2001	10	3844	72
39	0	0	2003	12	3845	72
40	0	0	1997	10	3845	72
41	0	0	1990	12	3844	73
42	0	0	1988	12	3844	72
43	0	0	2016	10	3843	72
44	0	0	2062	11	3845	72
45	0	0	2079	11	3844	72
46	0	0	2081	12	3843	71
47	0	0	2082	12	3843	71
48	0	0	2091	10	3843	73
49	0	0	2074	8	3844	75
50	0	0	2050	10	3845	72
51	0	0	2034	10	3845	71
52	0	0	2018	11	3845	72
53	0	0	2014	12	3846	72
54	0	0	2015	12	3845	72
55	0	0	2012	11	3844	71
56	0	0	2017	11	3844	71
57	0	0	2030	10	3843	72
58	0	0	2038	10	3843	72
59	0	0	2045	13	3844	72
60	0	0	2054	13	3845	72
61	0	0	2055	12	3844	71
62	0	0	2055	11	3844	72
63	0	0	2068	11	3844	73
64	0	0	2085	11	3841	75
65	0	0	2068	10	3844	72
66	0	0	2061	12	3844	74
67	0	0	2073	11	3844	72
68	0	0	2073	10	3844	73
69	0	0	2071	11	3844	74
70	0	0	2064	13	3845	72
71	0	0	2054	12	3844	71
72	0	0	2068	14	3846	72
73	0	0	2106	15	3844	72
74	0	0	2115	14	3844	71
75	0	0	2098	10	3844	72
76	0	0	2078	11	3843	73
77	0	0	2077	12	3845	73
78	0	0	2075	11	3844	72
79	0	0	2060	11	3845	72
80	0	0	2067	13	3844	72
81	0	0	2069	11	3845	72
82	0	0	2055	13	3844	72
83	0	0	2067	12	3844	72
84	0	0	2083	11	3844	76
85	0	0	2073	13	3845	72
86	0	0	2051	10	3844	71
87	0	0	2029	12	3845	73
88	0	0	2043	12	3846	73
89	0	0	2070	12	3845	71
90	0	0	2070	12	3845	72
91	0	0	2070	12	3844	71
92	0	0	2085	11	3844	72
93	0	0	2074	10	3847	72
94	0	0	2037	11	3843	71
95	0	0	1999	9	3844	71
96	0	0	2003	12	3843	71
97	0	0	2019	11	3845	72
98	0	0	2045	12	3845	70
99	0	0	2073	14	3843	71
100	0	0	2079	12	3845	72
101	0	0	2053	9	3844	69
102	0	0	2034	12	3845	73
103	0	0	2048	12	3846	73
104	0	0	2072	11	3846	72
105	0	0	2085	12	3845	72
106	0	0	2078	11	3844	71
107	0	0	2059	11	3844	73
108	0	0	2038	10	3843	72
109	0	0	2028	12	3844	76
110	0	0	2024	10	3845	72
111	0	0	2001	9	3843	67
112	0	0	1973	10	3845	73
113	0	0	1958	13	3847	72
114	0	0	2004	12	3845	71
115	0	0	2075	11	3844	72
116	0	0	2087	11	3845	72
117	0	0	2061	10	3844	72
118	0	0	2046	12	3843	71
119	0	0	2062	13	3844	72
120	0	0	2079	10	3846	72
121	0	0	2072	12	3845	69
122	0	0	2053	14	3843	72
123	0	0	2052	12	3844	76
124	0	0	2059	12	3844	71
125	0	0	2049	10	3845	72
126	0	0	2032	11	3843	69
127	0	0	2016	11	3845	73
0	0	0	2012	12	3845	72
1	0	0	2005	12	3845	72
2	0	0	1989	10	3845	72
3	0	0	1960	9	3844	72
4	0	0	1939	12	3844	73
5	0	0	1947	11	3843	72
6	0	0	1980	10	3843	72
7	0	0	2012	11	3843	71
8	0	0	2025	11	3844	69
9	0	0	2031	12	3845	73
10	0	0	2015	9	3841	75
11	0	0	1987	8	3845	72
12	0	0	1981	12	3845	72
13	0	0	1981	11	3844	72
14	0	0	1972	11	3844	73
15	0	0	1960	11	3840	75
16	0	0	1956	12	3844	72
17	0	0	1952	10	3844	72
18	0	0	1956	12	3843	72
19	0	0	1962	12	3845	73
20	0	0	1959	11	3840	75
21	0	0	1962	12	3844	72
22	0	0	1995	10	3845	71
23	0	0	2045	11	3844	72
24	0	0	2054	11	3844	73
25	0	0	2011	7	3841	74
26	0	0	1978	8	3846	72
27	0	0	1966	9	3844	73
28	0	0	1943	9	3843	72
29	0	0	1919	9	3843	73
30	0	0	1915	10	3844	73
31	0	0	1936	11	3844	71
32	0	0	1944	11	3845	72
33	0	0	1931	11	3844	72
34	0	0	1926	12	3845	72
35	0	0	1916	10	3844	70
36	0	0	1910	11	3843	72
37	0	0	1918	10	3845	71
38	0	0	1927	11	3843	72
39	0	0	1928	12	3845	72
40	0	0	1924	15	3844	70
41	0	0	1932	10	3843	72
42	0	0	1920	8	3845	72
43	0	0	1910	12	3845	72
44	0	0	1943	12	3844	73
45	0	0	1993	11	3844	71
46	0	0	2000	12	3843	72
47	0	0	1995	11	3845	72
48	0	0	1985	10	3844	72
49	0	0	1961	9	3844	72
50	0	0	1917	7	3843	71
51	0	0	1889	10	3843	72
52	0	0	1902	10	3844	72
53	0	0	1937	11	3844	72
54	0	0	1950	12	3844	73
55	0	0	1921	8	3844	72
56	0	0	1915	11	3843	72
57	0	0	1934	10	3844	74
58	0	0	1959	12	3844	72
59	0	0	1970	11	3844	72
60	0	0	1967	8	3844	73
61	0	0	1955	11	3844	72
62	0	0	1934	9	3845	72
63	0	0	1910	9	3845	68
64	0	0	1912	11	3845	72
65	0	0	1918	11	3846	70
66	0	0	1915	11	3842	72
67	0	0	1903	9	3844	72
68	0	0	1907	12	3843	72
69	0	0	1916	12	3843	72
70	0	0	1917	11	3843	73
71	0	0	1906	11	3843	72
72	0	0	1902	10	3844	72
73	0	0	1907	12	3845	71
74	0	0	1914	13	3844	72
75	0	0	1935	11	3844	70
76	0	0	1950	12	3844	72
77	0	0	1940	11	3845	72
78	0	0	1929	11	3841	72
79	0	0	1931	11	3845	72
80	0	0	1951	11	3843	74
81	0	0	1970	11	3843	72
82	0	0	1967	13	3844	73
83	0	0	1947	9	3844	73
84	0	0	1927	10	3844	73
85	0	0	1935	11	3844	72
86	0	0	1953	15	3844	72
87	0	0	1977	12	3844	72
88	0	0	1990	11	3844	72
89	0	0	1962	8	3844	73
90	0	0	1946	11	3844	72
91	0	0	1974	12	3846	72
92	0	0	2007	14	3845	72
93	0	0	1984	8	3846	71
94	0	0	1946	9	3847	73
95	0	0	1943	12	3844	72
96	0	0	1959	11	3844	74
97	0	0	1959	11	3844	72
98	0	0	1951	11	3843	73
99	0	0	1966	11	3843	72
100	0	0	1942	12	3843	72
101	0	0	1891	7	3846	76
102	0	0	1862	13	3844	73
103	0	0	1882	11	3847	70
104	0	0	1904	11	3844	72
105	0	0	1917	15	3843	72
106	0	0	1936	11	3845	72
107	0	0	1954	11	3846	72
108	0	0	1974	11	3844	73
109	0	0	1986	9	3845	72
110	0	0	1973	11	3842	73
111	0	0	1961	11	3844	72
112	0	0	1970	14	3845	72
113	0	0	1984	12	3844	72
114	0	0	1984	12	3844	72
115	0	0	1980	13	3844	73
116	0	0	1969	11	3844	73
117	0	0	1949	13	3844	73
118	0	0	1933	10	3843	73
119	0	0	1928	12	3843	72
120	0	0	1958	15	3843	72
121	0	0	2001	11	3844	72
122	0	0	2008	12	3845	72
123	0	0	1987	9	3844	72
124	0	0	1983	16	3844	73
125	0	0	1994	12	3844	73
126	0	0	1995	15	3846	72
127	0	0	1984	16	3845	72
0	0	0	1972	11	3843	72
1	0	0	1960	11	3843	72
2	0	0	1960	15	3843	72
3	0	0	1963	12	3845	76
4	0	0	1950	10	3846	73
5	0	0	1956	12	3843	71
6	0	0	1943	7	3844	72
7	0	0	1930	14	3843	72
8	0	0	1919	12	3844	71
9	0	0	1914	13	3845	72
10	0	0	1916	13	3844	72
11	0	0	1935	8	3845	72
12	0	0	1982	12	3844	72
13	0	0	2010	8	3846	73
14	0	0	1990	10	3846	72
15	0	0	1986	12	3844	69
16	0	0	2006	11	3844	73
17	0	0	2015	7	3844	73
18	0	0	2006	11	3846	75
19	0	0	1986	10	3845	73
20	0	0	1989	11	3843	72
21	0	0	2009	11	3843	72
22	0	0	2006	15	3843	72
23	0	0	1998	12	3844	71
24	0	0	1979	12	3844	72
25	0	0	1954	9	3844	72
26	0	0	1948	9	3845	72
27	0	0	1944	11	3845	73
28	0	0	1935	12	3846	72
29	0	0	1932	12	3845	72
30	0	0	1944	12	3839	74
31	0	0	1963	11	3844	73
32	0	0	1953	11	3844	74
33	0	0	1930	8	3844	71
34	0	0	1914	13	3844	72
35	0	0	1926	11	3843	72
36	0	0	1953	11	3844	72
37	0	0	1972	12	3844	74
38	0	0	1978	14	3844	70
39	0	0	1970	12	3844	72
40	0	0	1966	14	3843	72
41	0	0	1970	13	3843	72
42	0	0	1963	12	3844	71
43	0	0	1967	11	3845	71
44	0	0	1971	10	3845	71
45	0	0	1979	11	3846	70
46	0	0	1984	12	3844	72
47	0	0	1984	13	3844	72
48	0	0	1987	12	3845	73
49	0	0	1995	12	3844	72
50	0	0	2011	12	3844	73
51	0	0	2012	12	3843	73
52	0	0	1996	12	3843	73
53	0	0	2003	14	3844	71
54	0	0	2000	9	3844	72
55	0	0	1982	12	3843	73
56	0	0	1983	12	3843	72
57	0	0	2008	12	3844	73
58	0	0	1992	8	3844	71
59	0	0	1921	8	3845	71
60	0	0	1880	9	3844	71
61	0	0	1891	11	3844	72
62	0	0	1903	11	3844	71
63	0	0	1888	9	3845	72
64	0	0	1876	12	3845	72
65	0	0	1896	12	3846	72
66	0	0	1926	12	3845	72
67	0	0	1952	12	3844	72
68	0	0	1958	11	3846	75
69	0	0	1959	12	3844	72
70	0	0	1984	12	3843	73
71	0	0	2003	10	3844	72
72	0	0	2005	11	3843	72
73	0	0	1998	11	3844	72
74	0	0	1969	8	3844	72
75	0	0	1922	8	3844	73
76	0	0	1879	9	3844	72
77	0	0	1880	9	3844	71
78	0	0	1907	11	3846	73
79	0	0	1935	14	3845	72
80	0	0	1978	12	3844	72
81	0	0	2033	12	3844	72
82	0	0	2042	9	3844	73
83	0	0	2000	9	3844	69
84	0	0	1966	10	3845	72
85	0	0	1951	9	3845	71
86	0	0	1936	9	3844	72
87	0	0	1923	10	3844	73
88	0	0	1930	13	3843	69
89	0	0	1938	12	3844	72
90	0	0	1942	12	3843	73
91	0	0	1960	11	3843	72
92	0	0	1974	9	3846	72
93	0	0	1979	11	3843	69
94	0	0	1973	12	3844	72
95	0	0	1970	11	3844	72
96	0	0	1967	12	3844	72
97	0	0	1971	11	3845	73
98	0	0	1988	11	3844	70
99	0	0	1993	11	3844	72
100	0	0	1965	9	3844	73
101	0	0	1948	10	3843	73
102	0	0	1928	9	3843	73
103	0	0	1928	11	3846	72
104	0	0	1941	10	3845	72
105	0	0	1968	11	3844	73
106	0	0	1975	10	3845	71
107	0	0	1958	9	3843	73
108	0	0	1945	10	3845	73
109	0	0	1946	12	3845	72
110	0	0	1942	11	3844	72
111	0	0	1916	8	3845	71
112	0	0	1902	10	3846	75
113	0	0	1911	10	3847	73
114	0	0	1934	12	3846	72
115	0	0	1963	11	3844	72
116	0	0	1970	12	3845	73
117	0	0	1947	8	3845	72
118	0	0	1938	11	3846	72
119	0	0	1958	13	3845	72
120	0	0	1989	12	3843	72
121	0	0	1999	12	3844	72
122	0	0	1979	8	3844	73
123	0	0	1963	10	3845	73
124	0	0	1950	11	3845	71
125	0	0	1944	11	3843	74
126	0	0	1954	9	3844	73
127	0	0	1958	11	3844	73
0	0	0	1939	8	3843	72
1	0	0	1911	10	3844	72
2	0	0	1884	8	3844	72
3	0	0	1861	9	3846	72
4	0	0	1878	12	3846	71
5	0	0	1921	11	3845	73
6	0	0	1973	11	3845	71
7	0	0	2007	11	3844	75
8	0	0	2007	11	3845	73
9	0	0	1982	7	3844	72
10	0	0	1954	9	3844	72
11	0	0	1943	11	3844	72
12	0	0	1950	11	3843	72
13	0	0	1952	11	3843	73
14	0	0	1949	11	3844	72
15	0	0	1961	11	3843	72
16	0	0	1968	7	3844	72
17	0	0	1966	11	3846	71
18	0	0	1962	16	3844	72
19	0	0	1979	11	3845	72
20	0	0	1998	12	3847	73
21	0	0	1997	7	3845	72
22	0	0	1972	9	3843	72
23	0	0	1965	11	3844	71
24	0	0	1971	10	3844	72
25	0	0	1956	9	3846	73
26	0	0	1940	7	3844	72
27	0	0	1939	11	3844	72
28	0	0	1934	11	3844	73
29	0	0	1928	11	3844	72
30	0	0	1923	11	3843	72
31	0	0	1928	15	3843	71
32	0	0	1928	11	3845	72
33	0	0	1912	8	3845	72
34	0	0	1923	12	3844	74
35	0	0	1972	11	3846	71
36	0	0	2010	9	3845	72
37	0	0	2011	11	3846	72
38	0	0	1992	9	3843	73
39	0	0	1985	11	3844	72
40	0	0	1981	12	3843	73
41	0	0	1984	9	3844	72
42	0	0	1986	8	3846	72
43	0	0	1963	14	3843	72
44	0	0	1947	13	3842	72
45	0	0	1950	12	3843	72
46	0	0	1961	8	3844	72
47	0	0	1981	11	3844	72
48	0	0	1983	15	3843	72
49	0	0	1964	9	3844	73
50	0	0	1939	8	3845	73
51	0	0	1922	8	3844	72
52	0	0	1922	11	3844	73
53	0	0	1927	12	3845	72
54	0	0	1935	12	3842	73
55	0	0	1940	11	3843	73
56	0	0	1936	11	3845	71
57	0	0	1924	12	3844	73
58	0	0	1929	11	3844	73
59	0	0	1962	11	3844	72
60	0	0	1996	12	3844	73
61	0	0	2034	8	3845	48
62	0	0	2035	10	3843	71
63	0	0	2000	8	3843	71
64	0	0	1967	8	3844	72
65	0	0	1945	8	3845	72
66	0	0	1923	8	3845	72
67	0	0	1902	9	3844	73
68	0	0	1901	15	3844	73
69	0	0	1914	13	3843	72
70	0	0	1932	11	3843	73
71	0	0	1945	12	3845	72
72	0	0	1942	11	3843	72
73	0	0	1943	11	3844	72
74	0	0	1965	11	3844	71
75	0	0	1976	11	3844	71
76	0	0	1978	8	3845	72
77	0	0	1968	10	3844	72
78	0	0	1943	9	3843	72
79	0	0	1939	13	3843	72
80	0	0	1956	12	3844	73
81	0	0	1954	8	3844	72
82	0	0	1942	10	3845	72
83	0	0	1936	14	3843	72
84	0	0	1945	9	3844	73
85	0	0	1947	12	3842	73
86	0	0	1956	11	3846	72
87	0	0	1961	11	3843	71
88	0	0	1962	11	3844	73
89	0	0	1984	10	3844	71
90	0	0	2006	12	3845	73
91	0	0	2010	12	3844	71
92	0	0	2016	12	3843	74
93	0	0	2025	11	3843	73
94	0	0	2036	10	3843	71
95	0	0	2023	10	3843	73
96	0	0	1991	10	3845	72
97	0	0	1969	9	3843	72
98	0	0	1953	10	3844	73
99	0	0	1943	10	3844	69
100	0	0	1937	13	3845	71
101	0	0	1939	10	3847	72
102	0	0	1959	11	3845	72
103	0	0	1958	13	3844	72
104	0	0	1944	9	3844	72
105	0	0	1947	12	3843	73
106	0	0	1965	11	3845	72
107	0	0	1975	9	3841	73
108	0	0	1973	15	3843	72
109	0	0	1975	12	3845	73
110	0	0	1996	13	3844	73
111	0	0	2025	10	3844	72
112	0	0	2055	11	3843	73
113	0	0	2060	9	3844	73
114	0	0	2017	8	3843	72
115	0	0	1981	8	3845	73
116	0	0	1983	12	3845	72
117	0	0	1988	11	3843	72
118	0	0	1995	12	3847	72
119	0	0	1976	9	3846	71
120	0	0	1965	11	3844	73
121	0	0	1981	12	3845	71
122	0	0	1984	11	3844	73
123	0	0	1975	9	3846	72
124	0	0	1969	12	3843	71
125	0	0	1961	12	3844	73
126	0	0	1955	11	3845	72
127	0	0	1964	11	3847	72
0	0	0	1991	11	3844	72
1	0	0	2035	12	3844	73
2	0	0	2056	11	3844	72
3	0	0	2048	10	3845	72
4	0	0	2023	8	3844	71
5	0	0	2004	8	3844	72
6	0	0	1995	12	3845	73
7	0	0	1990	11	3842	73
8	0	0	1994	11	3846	72
9	0	0	1996	11	3844	72
10	0	0	1990	9	3847	72
11	0	0	2001	12	3844	71
12	0	0	2029	12	3845	73
13	0	0	2040	12	3845	72
14	0	0	2039	12	3843	72
15	0	0	2054	11	3843	71
16	0	0	2061	11	3844	73
17	0	0	2041	11	3844	73
18	0	0	2037	12	3845	72
19	0	0	2032	11	3845	71
20	0	0	2006	8	3844	72
21	0	0	1977	8	3844	72
22	0	0	1940	4	3845	72
23	0	0	1928	12	3847	73
24	0	0	1928	11	3844	72
25	0	0	1923	11	3844	72
26	0	0	1926	12	3845	74
27	0	0	1947	10	3844	72
28	0	0	1958	11	3845	71
29	0	0	1965	11	3844	72
30	0	0	1995	11	3844	73
31	0	0	1998	12	3845	73
32	0	0	1978	9	3844	73
33	0	0	1970	13	3845	72
34	0	0	1967	12	3843	73
35	0	0	1963	11	3843	72
36	0	0	1972	11	3844	73
37	0	0	1995	12	3844	72
38	0	0	2007	10	3846	73
39	0	0	2011	8	3843	73
40	0	0	2012	11	3844	72
41	0	0	2009	12	3845	73
42	0	0	1996	10	3844	72
43	0	0	1977	10	3844	71
44	0	0	1950	8	3844	71
45	0	0	1921	9	3843	72
46	0	0	1907	11	3844	73
47	0	0	1929	11	3844	72
48	0	0	1950	10	3845	72
49	0	0	1935	10	3844	73
50	0	0	1928	12	3844	71
51	0	0	1918	9	3842	73
52	0	0	1904	10	3845	72
53	0	0	1924	11	3845	71
54	0	0	1966	12	3844	72
55	0	0	1983	10	3844	71
56	0	0	1988	11	3842	72
57	0	0	1980	10	3845	72
58	0	0	1953	8	3845	72
59	0	0	1929	9	3844	73
60	0	0	1912	9	3844	73
61	0	0	1908	15	3843	72
62	0	0	1915	11	3844	72
63	0	0	1915	12	3844	71
64	0	0	1931	11	3843	72
65	0	0	1960	12	3843	74
66	0	0	1967	12	3844	73
67	0	0	1958	9	3846	72
68	0	0	1938	8	3844	73
69	0	0	1925	11	3844	73
70	0	0	1929	11	3844	73
71	0	0	1929	9	3845	72
72	0	0	1927	11	3846	72
73	0	0	1910	9	3845	72
74	0	0	1909	11	3846	72
75	0	0	1955	11	3845	72
76	0	0	1993	12	3844	73
77	0	0	2008	11	3844	70
78	0	0	2012	10	3845	72
79	0	0	2001	12	3844	77
80	0	0	2017	10	3843	72
81	0	0	2028	15	3843	72
82	0	0	2000	9	3845	73
83	0	0	1971	8	3844	72
84	0	0	1942	9	3843	73
85	0	0	1915	8	3843	73
86	0	0	1892	7	3844	73
87	0	0	1887	12	3846	72
88	0	0	1902	11	3844	72
89	0	0	1926	11	3845	72
90	0	0	1931	15	3845	71
91	0	0	1942	11	3845	73
92	0	0	1956	11	3844	71
93	0	0	1955	11	3844	72
94	0	0	1961	12	3843	72
95	0	0	1973	13	3844	72
96	0	0	1964	8	3846	74
97	0	0	1936	9	3843	71
98	0	0	1914	10	3844	72
99	0	0	1915	11	3843	73
100	0	0	1931	11	3844	73
101	0	0	1925	11	3843	72
102	0	0	1909	10	3846	72
103	0	0	1911	14	3843	72
104	0	0	1921	11	3845	72
105	0	0	1942	12	3844	73
106	0	0	1957	13	3844	72
107	0	0	1934	8	3843	71
108	0	0	1911	11	3846	72
109	0	0	1931	11	3844	74
110	0	0	1950	13	3845	71
111	0	0	1960	11	3845	76
112	0	0	1963	10	3844	70
113	0	0	1971	11	3844	72
114	0	0	1991	11	3843	72
115	0	0	2001	12	3843	73
116	0	0	2007	12	3842	73
117	0	0	2028	11	3843	70
118	0	0	2048	11	3845	72
119	0	0	2052	11	3843	72
120	0	0	2053	12	3844	73
121	0	0	2064	11	3844	73
122	0	0	2068	12	3845	70
123	0	0	2059	11	3845	71
124	0	0	2061	12	3844	72
125	0	0	2085	10	3845	72
126	0	0	2117	11	3845	72
127	0	0	2168	11	3844	69
0	0	0	2198	12	3845	72
1	0	0	2207	12	3844	73
2	0	0	2240	12	3844	73
3	0	0	2281	13	3843	72
4	0	0	2319	11	3843	72
5	0	0	2345	11	3845	72
6	0	0	2385	12	3844	73
7	0	0	2428	12	3843	73
8	0	0	2442	9	3846	72
9	0	0	2448	12	3843	72
10	0	0	2449	12	3845	73
11	0	0	2445	11	3845	71
12	0	0	2437	15	3844	72
13	0	0	2453	12	3845	73
14	0	0	2457	12	3846	74
15	0	0	2444	12	3844	74
16	0	0	2420	10	3843	73
17	0	0	2377	9	3842	72
18	0	0	2335	8	3845	72
19	0	0	2314	9	3844	73
20	0	0	2272	7	3845	72
21	0	0	2250	10	3844	72
22	0	0	2233	9	3844	73
23	0	0	2198	5	3846	72
24	0	0	2134	7	3843	73
25	0	0	2067	7	3844	73
26	0	0	2032	9	3845	72
27	0	0	2020	8	3844	73
28	0	0	1985	7	3844	72
29	0	0	1945	7	3844	72
30	0	0	1917	12	3842	73
31	0	0	1920	11	3844	73
32	0	0	1929	13	3843	72
33	0	0	1956	9	3846	72
34	0	0	1975	11	3844	70
35	0	0	1955	9	3844	72
36	0	0	1929	9	3843	72
37	0	0	1920	11	3842	72
38	0	0	1918	12	3843	73
39	0	0	1934	11	3841	73
40	0	0	1941	14	3845	72
41	0	0	1945	11	3843	73
42	0	0	1954	10	3845	71
43	0	0	1957	11	3845	71
44	0	0	1945	10	3844	71
45	0	0	1921	8	3845	72
46	0	0	1905	10	3844	72
47	0	0	1909	11	3844	71
48	0	0	1907	9	3844	73
49	0	0	1882	9	3845	72
50	0	0	1885	12	3845	72
51	0	0	1879	9	3843	73
52	0	0	1873	12	3844	72
53	0	0	1888	9	3843	72
54	0	0	1920	11	3842	73
55	0	0	1946	11	3841	73
56	0	0	1941	10	3843	73
57	0	0	1926	11	3843	72
58	0	0	1908	8	3843	73
59	0	0	1881	8	3842	74
60	0	0	1873	11	3844	71
61	0	0	1870	10	3845	71
62	0	0	1852	9	3844	71
63	0	0	1847	10	3845	73
64	0	0	1862	10	3846	72
65	0	0	1887	11	3842	71
66	0	0	1910	11	3845	72
67	0	0	1909	11	3843	72
68	0	0	1903	10	3844	72
69	0	0	1908	11	3845	72
70	0	0	1887	3	3846	73
71	0	0	1868	8	3843	73
72	0	0	1846	8	3843	73
73	0	0	1848	12	3843	73
74	0	0	1867	11	3844	71
75	0	0	1885	12	3845	73
76	0	0	1894	10	3843	72
77	0	0	1880	10	3843	72
78	0	0	1883	12	3846	75
79	0	0	1866	8	3844	73
80	0	0	1849	12	3843	72
81	0	0	1847	11	3843	72
82	0	0	1881	11	3844	72
83	0	0	1935	12	3845	72
84	0	0	1961	12	3844	71
85	0	0	1928	8	3846	72
86	0	0	1901	9	3843	72
87	0	0	1888	10	3844	72
88	0	0	1890	10	3841	72
89	0	0	1886	10	3844	72
90	0	0	1883	12	3842	72
91	0	0	1894	11	3843	72
92	0	0	1899	12	3844	72
93	0	0	1906	11	3843	72
94	0	0	1917	11	3844	73
95	0	0	1927	10	3844	72
96	0	0	1939	12	3843	72
97	0	0	1922	9	3844	72
98	0	0	1905	10	3843	73
99	0	0	1908	11	3844	72
100	0	0	1896	9	3842	71
101	0	0	1870	9	3843	73
102	0	0	1874	11	3844	72
103	0	0	1902	11	3841	74
104	0	0	1909	10	3844	73
105	0	0	1912	13	3841	73
106	0	0	1922	11	3844	73
107	0	0	1924	12	3843	72
108	0	0	1920	10	3841	73
109	0	0	1914	11	3840	75
110	0	0	1913	12	3839	71
111	0	0	1930	8	3843	73
112	0	0	1918	11	3844	72
113	0	0	1916	11	3842	74
114	0	0	1917	11	3845	72
115	0	0	1901	12	3839	72
116	0	0	1908	11	3844	72
117	0	0	1920	12	3843	72
118	0	0	1920	11	3841	73
119	0	0	1913	11	3842	73
120	0	0	1915	14	3843	71
121	0	0	1913	11	3845	71
122	0	0	1898	11	3844	73
123	0	0	1892	11	3844	72
124	0	0	1890	11	3845	71
125	0	0	1902	11	3844	72
126	0	0	1920	11	3845	72
127	0	0	1925	11	3844	72
0	0	0	1922	11	3844	72
1	0	0	1914	11	3845	71
2	0	0	1907	11	3845	71
3	0	0	1899	10	3845	71
4	0	0	1896	12	3844	72
5	0	0	1916	12	3844	72
6	0	0	1932	12	3846	71
7	0	0	1944	11	3844	72
8	0	0	1937	10	3843	72
9	0	0	1935	11	3844	73
10	0	0	1924	9	3840	73
11	0	0	1902	10	3844	69
12	0	0	1907	14	3843	72
13	0	0	1945	11	3844	72
14	0	0	1958	11	3844	73
15	0	0	1931	8	3841	74
16	0	0	1906	8	3843	70
17	0	0	1880	11	3844	72
18	0	0	1884	11	3844	72
19	0	0	1904	9	3847	72
20	0	0	1914	12	3846	72
21	0	0	1913	13	3844	71
22	0	0	1906	11	3844	71
23	0	0	1920	11	3844	74
24	0	0	1958	11	3844	72
25	0	0	1988	11	3846	72
26	0	0	1976	9	3844	72
27	0	0	1947	8	3845	72
28	0	0	1924	9	3843	73
29	0	0	1921	11	3844	73
30	0	0	1925	11	3844	73
31	0	0	1941	10	3843	71
32	0	0	1954	12	3843	71
33	0	0	1937	9	3843	73
34	0	0	1935	9	3847	72
35	0	0	1959	12	3846	72
36	0	0	1964	11	3845	72
37	0	0	1964	11	3846	71
38	0	0	1933	8	3843	76
39	0	0	1890	8	3843	74
40	0	0	1897	11	3843	72
41	0	0	1930	10	3843	71
42	0	0	1963	12	3844	72
43	0	0	1999	11	3844	73
44	0	0	1999	9	3844	72
45	0	0	1986	11	3843	72
46	0	0	1996	10	3843	72
47	0	0	2011	12	3845	71
48	0	0	2015	10	3843	72
49	0	0	1984	8	3843	73
50	0	0	1951	9	3844	72
51	0	0	1933	10	3845	72
52	0	0	1940	11	3845	72
53	0	0	1946	11	3846	72
54	0	0	1929	13	3844	73
55	0	0	1948	11	3843	72
56	0	0	1962	11	3844	72
57	0	0	1970	10	3843	71
58	0	0	1989	11	3843	72
59	0	0	2003	12	3843	73
60	0	0	1987	11	3844	72
61	0	0	1977	11	3842	70
62	0	0	1973	11	3844	71
63	0	0	1966	11	3843	71
64	0	0	1965	11	3844	73
65	0	0	1971	11	3845	73
66	0	0	1976	11	3846	72
67	0	0	1974	12	3843	71
68	0	0	1975	12	3844	72
69	0	0	1977	9	3845	72
70	0	0	1987	11	3845	72
71	0	0	2000	11	3844	72
72	0	0	2002	12	3845	72
73	0	0	1998	11	3844	72
74	0	0	1997	11	3844	73
75	0	0	1997	11	3843	72
76	0	0	1987	12	3843	70
77	0	0	1967	8	3843	71
78	0	0	1946	9	3844	73
79	0	0	1949	11	3844	72
80	0	0	1977	12	3845	70
81	0	0	1984	10	3844	72
82	0	0	1975	11	3843	71
83	0	0	1963	11	3846	72
84	0	0	1980	13	3845	73
85	0	0	2027	13	3845	73
86	0	0	2069	12	3846	71
87	0	0	2062	9	3843	75
88	0	0	2056	12	3845	72
89	0	0	2060	10	3842	71
90	0	0	2026	11	3844	73
91	0	0	1996	8	3845	76
92	0	0	1979	11	3843	71
93	0	0	1974	12	3844	72
94	0	0	1980	9	3845	72
95	0	0	2002	11	3845	70
96	0	0	2022	11	3844	74
97	0	0	2030	11	3845	71
98	0	0	2049	12	3844	72
99	0	0	2069	12	3843	71
100	0	0	2072	12	3844	72
101	0	0	2068	11	3845	73
102	0	0	2062	11	3848	72
103	0	0	2064	11	3845	71
104	0	0	2066	11	3843	73
105	0	0	2071	13	3845	73
106	0	0	2079	11	3845	76
107	0	0	2093	12	3843	71
108	0	0	2093	11	3843	72
109	0	0	2082	9	3845	72
110	0	0	2072	11	3844	71
111	0	0	2056	8	3844	76
112	0	0	2026	8	3845	72
113	0	0	1989	9	3844	73
114	0	0	1964	10	3844	71
115	0	0	1972	14	3845	73
116	0	0	2007	11	3844	72
117	0	0	2032	11	3843	71
118	0	0	2028	12	3844	72
119	0	0	2033	11	3844	72
120	0	0	2027	11	3845	70
121	0	0	2032	13	3844	74
122	0	0	2025	10	3844	72
123	0	0	2000	9	3845	72
124	0	0	1979	10	3844	73
125	0	0	1978	13	3844	72
126	0	0	1988	11	3845	71
127	0	0	2020	11	3843	71
0	0	0	2055	10	3843	72
1	0	0	2058	10	3843	72
2	0	0	2045	11	3844	69
3	0	0	2033	13	3844	73
4	0	0	2035	9	3844	73
5	0	0	2056	12	3844	72
6	0	0	2048	10	3843	74
7	0	0	2038	12	3844	72
8	0	0	2048	13	3845	74
9	0	0	2055	11	3843	71
10	0	0	2049	11	3843	73
11	0	0	2031	9	3844	72
12	0	0	2026	13	3845	74
13	0	0	2044	11	3843	71
14	0	0	2074	10	3845	72
15	0	0	2078	11	3844	73
16	0	0	2046	9	3843	71
17	0	0	2017	9	3844	73
18	0	0	1994	10	3845	74
19	0	0	2005	12	3844	72
20	0	0	1996	9	3843	73
21	0	0	1965	9	3843	72
22	0	0	1947	10	3844	72
23	0	0	1938	11	3845	71
24	0	0	1940	12	3846	72
25	0	0	1971	11	3846	72
26	0	0	2014	10	3844	72
27	0	0	2034	10	3845	72
28	0	0	2029	11	3844	71
29	0	0	2017	11	3845	71
30	0	0	1984	8	3843	74
31	0	0	1971	11	3843	72
32	0	0	2010	13	3844	73
33	0	0	2041	11	3844	74
34	0	0	2026	8	3846	72
35	0	0	1998	9	3844	72
36	0	0	1985	11	3844	72
37	0	0	1999	9	3845	72
38	0	0	2024	11	3844	71
39	0	0	2044	12	3844	72
40	0	0	2060	11	3844	73
41	0	0	2068	12	3844	73
42	0	0	2038	8	3844	72
43	0	0	2012	8	3844	71
44	0	0	1985	8	3847	71
45	0	0	1958	9	3844	72
46	0	0	1949	11	3844	72
47	0	0	1956	10	3843	75
48	0	0	1957	8	3844	71
49	0	0	1951	10	3846	72
50	0	0	1930	9	3844	73
51	0	0	1932	12	3844	72
52	0	0	1950	10	3843	74
53	0	0	1953	10	3845	71
54	0	0	1929	10	3847	72
55	0	0	1934	11	3848	73
56	0	0	1933	12	3844	73
57	0	0	1929	11	3844	72
58	0	0	1926	11	3845	71
59	0	0	1933	11	3846	72
60	0	0	1939	11	3844	73
61	0	0	1920	10	3843	73
62	0	0	1927	9	3844	72
63	0	0	1951	11	3844	72
64	0	0	1956	11	3843	71
65	0	0	1971	12	3845	72
66	0	0	1949	8	3843	72
67	0	0	1901	8	3844	72
68	0	0	1898	11	3845	72
69	0	0	1953	12	3846	72
70	0	0	1982	10	3845	72
71	0	0	1987	8	3841	73
72	0	0	1980	7	3844	72
73	0	0	1958	9	3846	72
74	0	0	1950	11	3846	71
75	0	0	1950	12	3846	72
76	0	0	1940	7	3843	72
77	0	0	1903	6	3843	72
78	0	0	1869	9	3843	71
79	0	0	1892	11	3847	72
80	0	0	1929	11	3843	72
81	0	0	1920	8	3841	74
82	0	0	1890	6	3845	72
83	0	0	1864	8	3844	72
84	0	0	1866	12	3846	72
85	0	0	1889	11	3844	73
86	0	0	1910	11	3844	72
87	0	0	1918	8	3845	72
88	0	0	1911	11	3845	72
89	0	0	1904	11	3845	71
90	0	0	1912	11	3846	72
91	0	0	1936	9	3843	73
92	0	0	1961	8	3845	72
93	0	0	1967	11	3844	72
94	0	0	1956	10	3847	72
95	0	0	1949	11	3844	73
96	0	0	1935	10	3844	73
97	0	0	1938	8	3845	72
98	0	0	1970	11	3844	72
99	0	0	1982	11	3845	71
100	0	0	1974	12	3843	73
101	0	0	1964	11	3844	72
102	0	0	1952	7	3844	72
103	0	0	1947	11	3845	74
104	0	0	1972	11	3845	71
105	0	0	2008	12	3844	73
106	0	0	2009	11	3844	73
107	0	0	1988	9	3846	72
108	0	0	1960	9	3845	72
109	0	0	1937	9	3844	72
110	0	0	1917	12	3843	72
111	0	0	1914	11	3844	73
112	0	0	1918	15	3844	71
113	0	0	1932	12	3844	72
114	0	0	1962	11	3843	72
115	0	0	1975	12	3844	72
116	0	0	1964	8	3845	71
117	0	0	1939	10	3845	74
118	0	0	1940	12	3844	73
119	0	0	1951	10	3845	73
120	0	0	1954	9	3843	73
121	0	0	1981	11	3844	76
122	0	0	1990	12	3843	71
123	0	0	1975	11	3845	74
124	0	0	1959	9	3845	71
125	0	0	1930	11	3843	72
126	0	0	1898	9	3844	71
127	0	0	1895	14	3846	73
0	0	0	1924	12	3844	72
1	0	0	1957	11	3844	72
2	0	0	1952	14	3843	72
3	0	0	1943	11	3844	71
4	0	0	1944	10	3844	72
5	0	0	1928	9	3844	75
6	0	0	1918	11	3843	71
7	0	0	1941	11	3843	72
8	0	0	1969	11	3842	71
9	0	0	1987	10	3845	72
10	0	0	1977	10	3845	72
11	0	0	1959	8	3844	73
12	0	0	1947	12	3844	73
13	0	0	1940	11	3844	72
14	0	0	1933	11	3844	72
15	0	0	1950	12	3844	71
16	0	0	1982	11	3845	72
17	0	0	2019	10	3844	73
18	0	0	1993	8	3845	73
19	0	0	1934	7	3843	73
20	0	0	1880	9	3844	72
21	0	0	1878	11	3843	73
22	0	0	1905	11	3843	72
23	0	0	1933	11	3839	74
24	0	0	1950	14	3844	71
25	0	0	1970	11	3845	74
26	0	0	1978	11	3844	74
27	0	0	1982	12	3846	72
28	0	0	1988	12	3845	73
29	0	0	1997	11	3843	74
30	0	0	1991	13	3845	73
31	0	0	1978	11	3845	72
32	0	0	1978	11	3844	72
33	0	0	1993	12	3845	75
34	0	0	2000	10	3843	72
35	0	0	2000	12	3844	76
36	0	0	1981	9	3843	72
37	0	0	1950	8	3843	73
38	0	0	1935	9	3843	71
39	0	0	1938	11	3841	74
40	0	0	1956	10	3844	76
41	0	0	1984	12	3844	72
42	0	0	2010	11	3844	73
43	0	0	2018	11	3842	71
44	0	0	2006	9	3844	72
45	0	0	1988	9	3845	71
46	0	0	1989	12	3844	74
47	0	0	1989	10	3846	72
48	0	0	1974	10	3845	73
49	0	0	1960	8	3842	74
50	0	0	1948	9	3845	72
51	0	0	1925	9	3843	73
52	0	0	1897	8	3842	73
53	0	0	1884	11	3844	70
54	0	0	1919	13	3844	71
55	0	0	1984	13	3844	75
56	0	0	2052	11	3843	74
57	0	0	2061	11	3843	73
58	0	0	2020	8	3845	70
59	0	0	1947	9	3844	74
60	0	0	1927	11	3845	76
61	0	0	1960	11	3844	73
62	0	0	2010	11	3844	72
63	0	0	2037	11	3844	72
64	0	0	2046	11	3845	72
65	0	0	2039	10	3844	73
66	0	0	2005	8	3843	75
67	0	0	1974	7	3843	72
68	0	0	1959	7	3843	72
69	0	0	1929	8	3842	73
70	0	0	1901	9	3844	75
71	0	0	1902	11	3843	74
72	0	0	1935	11	3843	72
73	0	0	1973	10	3843	72
74	0	0	1980	12	3844	72
75	0	0	1976	10	3845	76
76	0	0	1969	11	3844	74
77	0	0	1958	10	3846	72
78	0	0	1933	8	3844	72
79	0	0	1924	11	3844	73
80	0	0	1984	8	3845	73
81	0	0	2033	11	3846	71
82	0	0	2053	13	3844	72
83	0	0	2026	8	3843	74
84	0	0	2003	8	3841	73
85	0	0	1983	9	3844	76
86	0	0	1967	11	3843	74
87	0	0	1968	11	3845	74
88	0	0	1965	7	3843	72
89	0	0	1955	9	3841	74
90	0	0	1954	11	3844	71
91	0	0	1963	11	3844	75
92	0	0	1950	6	3843	73
93	0	0	1918	8	3843	74
94	0	0	1918	12	3844	76
95	0	0	1958	10	3845	75
96	0	0	1997	12	3844	71
97	0	0	2011	11	3844	73
98	0	0	2012	11	3844	71
99	0	0	2018	11	3845	71
100	0	0	2021	12	3844	72
101	0	0	2009	9	3844	71
102	0	0	1991	10	3843	72
103	0	0	1958	7	3843	74
104	0	0	1934	10	3842	73
105	0	0	1955	10	3844	75
106	0	0	1950	9	3843	71
107	0	0	1932	10	3843	74
108	0	0	1941	11	3844	72
109	0	0	1952	8	3842	73
110	0	0	1930	8	3844	73
111	0	0	1927	10	3847	71
112	0	0	1954	11	3844	72
113	0	0	1985	12	3844	73
114	0	0	2026	12	3844	73
115	0	0	2046	11	3845	71
116	0	0	2045	11	3844	71
117	0	0	2046	11	3847	71
118	0	0	2032	11	3844	72
119	0	0	2012	10	3844	76
120	0	0	2003	8	3845	73
121	0	0	2006	13	3843	71
122	0	0	2003	10	3843	72
123	0	0	1967	9	3843	72
124	0	0	1926	8	3845	76
125	0	0	1915	11	3843	75
126	0	0	1929	11	3843	73
127	0	0	1959	11	3843	73
0	0	0	1997	12	3844	73
1	0	0	2015	12	3845	76
2	0	0	2008	11	3845	72
3	0	0	2006	11	3844	71
4	0	0	1997	9	3843	73
5	0	0	1975	10	3844	73
6	0	0	1967	11	3845	75
7	0	0	1960	8	3844	73
8	0	0	1951	11	3843	73
9	0	0	1945	11	3843	72
10	0	0	1946	13	3844	72
11	0	0	1948	12	3844	72
12	0	0	1948	10	3845	72
13	0	0	1945	11	3842	75
14	0	0	1944	11	3845	72
15	0	0	1971	15	3844	72
16	0	0	2008	14	3844	72
17	0	0	2039	11	3845	72
18	0	0	2017	8	3844	71
19	0	0	1955	7	3845	72
20	0	0	1909	5	3843	72
21	0	0	1879	10	3844	72
22	0	0	1881	11	3844	72
23	0	0	1905	11	3844	70
24	0	0	1926	11	3843	73
25	0	0	1940	10	3842	74
26	0	0	1940	10	3845	71
27	0	0	1950	10	3845	72
28	0	0	1970	12	3844	71
29	0	0	1976	12	3844	73
30	0	0	1967	12	3843	72
31	0	0	2005	10	3846	75
32	0	0	2041	10	3845	73
33	0	0	2065	10	3844	72
34	0	0	2091	11	3845	71
35	0	0	2083	12	3844	72
36	0	0	2034	7	3844	72
37	0	0	1982	8	3845	72
38	0	0	1954	3	3843	72
39	0	0	1921	7	3843	72
40	0	0	1900	11	3843	71
41	0	0	1924	10	3845	75
42	0	0	1967	11	3845	72
43	0	0	2029	11	3843	72
44	0	0	2062	11	3844	71
45	0	0	2020	7	3843	71
46	0	0	1951	7	3843	72
47	0	0	1919	11	3844	72
48	0	0	1935	14	3843	72
49	0	0	1954	11	3844	73
50	0	0	1970	11	3845	70
51	0	0	1992	11	3846	72
52	0	0	1998	10	3845	73
53	0	0	2027	11	3846	72
54	0	0	2059	12	3844	73
55	0	0	2034	8	3843	73
56	0	0	2000	12	3844	71
57	0	0	1991	10	3844	72
58	0	0	1990	14	3843	72
59	0	0	1993	12	3844	73
60	0	0	2003	10	3843	72
61	0	0	2012	7	3843	73
62	0	0	2009	10	3845	74
63	0	0	2010	11	3843	70
64	0	0	2014	10	3844	73
65	0	0	2010	12	3843	72
66	0	0	2007	10	3845	75
67	0	0	1990	8	3844	73
68	0	0	1984	12	3844	72
69	0	0	1993	10	3846	72
70	0	0	1989	10	3846	69
71	0	0	1976	11	3844	72
72	0	0	1974	12	3845	71
73	0	0	1976	12	3844	72
74	0	0	1976	8	3844	73
75	0	0	1965	12	3843	71
76	0	0	1969	10	3843	73
77	0	0	1971	12	3844	71
78	0	0	1977	12	3843	72
79	0	0	1965	10	3844	72
80	0	0	1955	10	3845	70
81	0	0	1950	11	3845	71
82	0	0	1949	10	3845	72
83	0	0	1954	11	3844	72
84	0	0	1958	11	3843	72
85	0	0	1963	10	3843	72
86	0	0	1986	13	3844	72
87	0	0	1992	11	3844	71
88	0	0	1973	13	3843	72
89	0	0	1972	9	3845	72
90	0	0	1979	13	3845	70
91	0	0	1984	13	3844	73
92	0	0	1984	10	3844	71
93	0	0	2001	12	3845	71
94	0	0	2026	12	3843	72
95	0	0	2041	10	3843	72
96	0	0	2037	11	3844	72
97	0	0	2011	8	3844	73
98	0	0	1983	9	3844	74
99	0	0	1976	10	3844	73
100	0	0	1967	12	3844	73
101	0	0	1966	12	3845	73
102	0	0	1965	11	3846	75
103	0	0	1977	12	3844	72
104	0	0	2007	12	3843	72
105	0	0	2026	11	3843	72
106	0	0	2018	9	3844	72
107	0	0	1969	6	3845	72
108	0	0	1937	9	3843	73
109	0	0	1941	12	3845	72
110	0	0	1980	14	3844	71
111	0	0	2017	11	3844	74
112	0	0	2028	12	3844	73
113	0	0	2049	11	3844	72
114	0	0	2065	11	3843	72
115	0	0	2016	8	3843	72
116	0	0	1954	7	3843	73
117	0	0	1947	11	3844	71
118	0	0	1977	11	3844	72
119	0	0	2022	12	3842	72
120	0	0	2067	10	3844	73
121	0	0	2076	9	3844	75
122	0	0	2029	8	3844	71
123	0	0	1991	8	3845	71
124	0	0	1970	9	3843	73
125	0	0	1936	8	3844	72
126	0	0	1919	10	3844	72
127	0	0	1927	9	3844	72
0	0	0	1936	11	3844	71
1	0	0	1951	11	3844	72
2	0	0	1971	10	3844	72
3	0	0	1983	12	3844	71
4	0	0	1998	12	3846	72
5	0	0	2034	11	3844	73
6	0	0	2045	11	3844	72
7	0	0	2043	11	3844	73
8	0	0	2027	7	3844	74
9	0	0	2014	12	3844	73
10	0	0	2015	10	3844	71
11	0	0	1992	11	3845	72
12	0	0	1965	8	3846	75
13	0	0	1955	10	3844	73
14	0	0	1953	10	3845	72
15	0	0	1950	11	3844	72
16	0	0	1973	12	3843	72
17	0	0	2000	12	3844	76
18	0	0	2002	9	3844	74
19	0	0	1993	12	3844	71
20	0	0	1993	11	3843	71
21	0	0	2001	11	3844	73
22	0	0	2010	12	3844	72
23	0	0	2008	9	3844	74
24	0	0	1991	10	3845	72
25	0	0	1985	13	3843	71
26	0	0	1977	12	3843	72
27	0	0	1961	8	3845	72
28	0	0	1920	7	3845	72
29	0	0	1918	12	3845	72
30	0	0	1962	11	3844	71
31	0	0	2009	11	3843	72
32	0	0	2043	12	3844	72
33	0	0	2090	11	3845	72
34	0	0	2112	11	3844	72
35	0	0	2070	7	3844	71
36	0	0	1991	8	3843	73
37	0	0	1928	8	3844	72
38	0	0	1932	8	3845	71
39	0	0	1970	12	3845	72
40	0	0	1986	11	3844	71
41	0	0	2007	12	3845	73
42	0	0	2021	11	3846	72
43	0	0	2017	11	3845	71
44	0	0	2013	10	3844	73
45	0	0	2018	11	3844	71
46	0	0	2036	11	3844	73
47	0	0	2043	11	3843	72
48	0	0	2037	13	3843	71
49	0	0	2031	11	3845	72
50	0	0	2007	8	3843	71
51	0	0	1990	9	3844	72
52	0	0	2002	11	3843	71
53	0	0	2013	9	3846	71
54	0	0	2004	11	3844	72
55	0	0	1984	9	3845	71
56	0	0	1977	10	3844	72
57	0	0	1985	11	3843	72
58	0	0	1995	12	3845	72
59	0	0	1988	10	3844	71
60	0	0	1990	11	3844	71
61	0	0	2000	11	3844	73
62	0	0	2008	11	3841	74
63	0	0	2029	8	3845	71
64	0	0	2043	12	3845	73
65	0	0	2036	11	3844	72
66	0	0	2031	12	3844	73
67	0	0	2038	11	3843	72
68	0	0	2045	14	3843	72
69	0	0	2052	11	3844	72
70	0	0	2049	12	3844	69
71	0	0	2036	11	3845	73
72	0	0	2020	9	3841	74
73	0	0	2002	10	3845	72
74	0	0	2002	11	3846	73
75	0	0	2028	12	3844	72
76	0	0	2058	12	3845	73
77	0	0	2070	11	3840	74
78	0	0	2074	14	3843	72
79	0	0	2066	10	3844	72
80	0	0	2058	12	3845	72
81	0	0	2052	16	3843	72
82	0	0	2044	11	3844	71
83	0	0	2041	12	3845	72
84	0	0	2055	12	3845	72
85	0	0	2039	8	3845	71
86	0	0	2026	12	3844	72
87	0	0	2031	12	3845	73
88	0	0	2032	11	3844	72
89	0	0	2039	10	3845	73
90	0	0	2062	12	3846	72
91	0	0	2078	11	3844	73
92	0	0	2089	12	3844	71
93	0	0	2071	8	3844	72
94	0	0	2030	8	3845	69
95	0	0	2043	11	3844	71
96	0	0	2086	12	3843	72
97	0	0	2108	11	3843	71
98	0	0	2105	11	3844	73
99	0	0	2084	7	3844	72
100	0	0	2060	9	3844	72
101	0	0	2041	11	3844	73
102	0	0	2030	11	3845	71
103	0	0	2033	15	3844	72
104	0	0	2039	10	3845	72
105	0	0	2044	11	3844	72
106	0	0	2053	12	3844	73
107	0	0	2049	11	3844	72
108	0	0	2024	9	3845	71
109	0	0	2007	10	3844	72
110	0	0	2017	12	3845	72
111	0	0	2031	13	3844	73
112	0	0	2031	9	3843	71
113	0	0	2017	12	3842	72
114	0	0	2036	12	3844	72
115	0	0	2059	12	3843	72
116	0	0	2069	12	3843	73
117	0	0	2048	10	3843	72
118	0	0	2024	9	3842	72
119	0	0	1995	7	3845	72
120	0	0	1970	14	3843	72
121	0	0	1980	12	3844	72
122	0	0	1985	12	3844	72
123	0	0	1988	12	3843	72
124	0	0	1995	10	3845	72
125	0	0	1984	9	3844	68
126	0	0	1952	7	3845	72
127	0	0	1936	15	3844	70
0	0	0	1938	10	3844	75
1	0	0	1967	11	3844	72
2	0	0	2000	11	3843	72
3	0	0	2006	11	3843	72
4	0	0	1980	7	3845	75
5	0	0	1963	14	3843	72
6	0	0	1958	11	3844	71
7	0	0	1965	11	3844	69
8	0	0	1976	12	3843	73
9	0	0	1986	12	3844	73
10	0	0	2002	15	3843	72
11	0	0	2000	13	3844	70
12	0	0	1990	11	3845	71
13	0	0	1985	7	3844	72
14	0	0	1956	9	3845	71
15	0	0	1948	8	3845	72
16	0	0	1966	7	3845	72
17	0	0	2004	11	3844	72
18	0	0	2021	10	3843	72
19	0	0	2017	15	3843	72
20	0	0	1993	8	3842	72
21	0	0	1982	11	3844	71
22	0	0	2004	12	3844	73
23	0	0	2006	10	3844	69
24	0	0	1983	8	3844	73
25	0	0	1990	11	3844	72
26	0	0	2026	13	3845	71
27	0	0	2070	12	3843	72
28	0	0	2077	12	3845	72
29	0	0	2055	10	3847	75
30	0	0	2003	8	3844	72
31	0	0	1981	10	3845	72
32	0	0	1997	11	3844	72
33	0	0	2015	11	3845	72
34	0	0	2021	11	3843	72
35	0	0	2010	9	3844	73
36	0	0	1995	13	3844	72
37	0	0	1981	10	3843	72
38	0	0	1979	11	3843	72
39	0	0	1982	13	3843	73
40	0	0	1968	11	3843	72
41	0	0	1962	12	3845	72
42	0	0	1964	12	3844	73
43	0	0	1967	12	3844	73
44	0	0	1982	11	3844	72
45	0	0	1980	10	3844	72
46	0	0	1954	14	3846	72
47	0	0	1936	9	3846	72
48	0	0	1934	15	3843	72
49	0	0	1959	12	3843	72
50	0	0	1970	12	3845	76
51	0	0	1970	13	3844	72
52	0	0	1999	11	3844	72
53	0	0	2018	10	3843	72
54	0	0	2011	15	3843	72
55	0	0	2026	11	3844	72
56	0	0	2045	10	3845	72
57	0	0	2023	8	3844	73
58	0	0	1996	9	3844	73
59	0	0	1988	12	3843	74
60	0	0	1964	9	3844	73
61	0	0	1953	15	3844	72
62	0	0	1970	12	3843	72
63	0	0	1976	9	3846	72
64	0	0	1964	13	3845	72
65	0	0	1961	10	3846	76
66	0	0	1958	14	3845	72
67	0	0	1960	11	3843	72
68	0	0	1959	11	3844	73
69	0	0	1967	11	3843	73
70	0	0	1988	12	3844	71
71	0	0	2018	15	3844	71
72	0	0	2039	11	3845	71
73	0	0	2043	14	3845	73
74	0	0	2041	13	3844	72
75	0	0	2051	11	3847	76
76	0	0	2076	15	3845	72
77	0	0	2114	11	3844	72
78	0	0	2130	9	3846	72
79	0	0	2124	13	3845	72
80	0	0	2121	11	3847	75
81	0	0	2157	13	3845	72
82	0	0	2208	12	3843	74
83	0	0	2250	12	3844	73
84	0	0	2285	13	3844	73
85	0	0	2327	12	3844	71
86	0	0	2368	15	3845	71
87	0	0	2393	11	3842	71
88	0	0	2380	12	3843	72
89	0	0	2377	15	3843	72
90	0	0	2395	12	3844	71
91	0	0	2415	11	3844	72
92	0	0	2447	12	3845	72
93	0	0	2474	12	3844	72
94	0	0	2498	12	3845	71
95	0	0	2510	15	3846	72
96	0	0	2508	19	3845	72
97	0	0	2518	14	3845	73
98	0	0	2537	11	3844	72
99	0	0	2515	11	3843	72
100	0	0	2493	10	3846	76
101	0	0	2470	9	3844	71
102	0	0	2454	13	3843	72
103	0	0	2432	7	3843	72
104	0	0	2400	8	3844	73
105	0	0	2378	10	3844	71
106	0	0	2324	8	3845	72
107	0	0	2249	8	3844	72
108	0	0	2182	6	3845	72
109	0	0	2132	7	3846	73
110	0	0	2077	7	3847	73
111	0	0	2023	7	3845	72
112	0	0	1987	8	3844	73
113	0	0	1977	11	3844	73
114	0	0	1971	12	3844	73
115	0	0	1964	12	3845	71
116	0	0	1959	10	3843	72
117	0	0	1962	11	3844	72
118	0	0	1972	11	3843	71
119	0	0	1956	9	3844	71
120	0	0	1952	10	3845	72
121	0	0	1958	10	3844	72
122	0	0	1974	11	3844	72
123	0	0	1978	11	3844	72
124	0	0	1972	15	3843	72
125	0	0	1980	10	3845	71
126	0	0	1998	12	3844	72
127	0	0	2019	11	3845	71
0	0	0	2017	12	3844	72
1	0	0	2032	11	3845	72
2	0	0	2019	10	3844	71
3	0	0	1965	8	3844	72
4	0	0	1921	10	3843	74
5	0	0	1907	9	3844	73
6	0	0	1890	9	3843	72
7	0	0	1897	11	3844	70
8	0	0	1936	10	3844	72
9	0	0	1946	10	3844	73
10	0	0	1928	9	3843	72
11	0	0	1930	10	3844	73
12	0	0	1950	14	3844	71
13	0	0	1978	9	3841	72
14	0	0	1991	8	3843	73
15	0	0	1977	9	3844	76
16	0	0	1961	9	3844	72
17	0	0	1957	11	3844	70
18	0	0	1950	12	3845	72
19	0	0	1951	11	3846	72
20	0	0	1951	11	3844	72
21	0	0	1950	10	3844	73
22	0	0	1950	14	3844	71
23	0	0	1960	13	3842	72
24	0	0	1979	11	3845	71
25	0	0	1980	14	3844	72
26	0	0	1980	11	3844	71
27	0	0	1977	10	3846	72
28	0	0	1959	10	3844	71
29	0	0	1941	8	3845	72
30	0	0	1910	7	3846	72
31	0	0	1934	11	3844	72
32	0	0	1955	11	3845	71
33	0	0	1942	10	3844	72
34	0	0	1939	11	3846	72
35	0	0	1955	11	3844	72
36	0	0	1957	9	3844	73
37	0	0	1930	9	3845	72
38	0	0	1930	11	3846	72
39	0	0	1944	11	3844	72
40	0	0	1950	10	3845	74
41	0	0	1948	10	3843	72
42	0	0	1932	11	3843	70
43	0	0	1930	12	3844	71
44	0	0	1953	11	3844	72
45	0	0	1977	12	3844	73
46	0	0	1989	10	3844	72
47	0	0	1985	11	3844	70
48	0	0	1979	11	3845	72
49	0	0	1965	11	3844	75
50	0	0	1962	12	3844	72
51	0	0	1970	11	3844	72
52	0	0	1976	11	3844	71
53	0	0	1972	12	3844	72
54	0	0	1968	11	3845	72
55	0	0	1971	11	3843	72
56	0	0	1961	7	3843	72
57	0	0	1943	10	3844	72
58	0	0	1943	11	3844	72
59	0	0	1970	10	3844	72
60	0	0	1994	10	3845	75
61	0	0	2007	8	3844	72
62	0	0	1991	9	3846	73
63	0	0	1964	10	3844	72
64	0	0	1939	9	3844	72
65	0	0	1924	10	3844	73
66	0	0	1939	11	3844	73
67	0	0	1951	11	3844	69
68	0	0	1959	7	3845	71
69	0	0	1976	11	3844	72
70	0	0	1976	12	3844	73
71	0	0	1980	10	3844	73
72	0	0	1977	11	3843	72
73	0	0	1957	7	3844	72
74	0	0	1932	9	3843	74
75	0	0	1924	11	3843	72
76	0	0	1922	11	3844	73
77	0	0	1932	12	3843	72
78	0	0	1955	13	3845	72
79	0	0	1978	11	3844	71
80	0	0	1990	12	3844	72
81	0	0	1984	10	3844	73
82	0	0	1973	11	3845	73
83	0	0	1967	11	3846	71
84	0	0	1970	9	3844	72
85	0	0	1972	11	3845	73
86	0	0	1976	11	3844	72
87	0	0	1966	9	3845	72
88	0	0	1939	12	3844	72
89	0	0	1948	11	3845	72
90	0	0	1963	10	3842	71
91	0	0	1979	12	3844	72
92	0	0	2005	11	3845	71
93	0	0	2041	7	3844	72
94	0	0	2063	12	3845	72
95	0	0	2056	8	3844	73
96	0	0	2046	11	3844	72
97	0	0	2034	10	3847	73
98	0	0	2018	11	3844	72
99	0	0	2013	8	3845	72
100	0	0	2011	14	3844	72
101	0	0	2008	11	3845	71
102	0	0	2003	12	3843	71
103	0	0	2019	7	3844	72
104	0	0	2043	11	3844	73
105	0	0	2057	12	3843	72
106	0	0	2032	9	3845	69
107	0	0	2010	10	3843	71
108	0	0	2004	7	3844	72
109	0	0	1996	11	3844	73
110	0	0	1999	12	3844	72
111	0	0	2005	12	3844	75
112	0	0	2012	12	3846	73
113	0	0	1992	5	3844	72
114	0	0	1980	12	3845	72
115	0	0	2002	9	3844	72
116	0	0	2025	10	3844	72
117	0	0	2033	13	3843	73
118	0	0	2038	9	3846	72
119	0	0	2041	10	3844	72
120	0	0	2033	11	3841	74
121	0	0	2006	9	3845	69
122	0	0	1995	11	3845	73
123	0	0	2033	13	3845	71
124	0	0	2075	12	3845	72
125	0	0	2096	12	3845	73
126	0	0	2085	8	3844	71
127	0	0	2050	11	3845	72
0	0	0	2008	3	3844	72
1	0	0	1958	9	3844	72
2	0	0	1950	15	3843	72
3	0	0	1981	11	3845	73
4	0	0	2022	11	3844	72
5	0	0	2047	10	3845	72
6	0	0	2027	8	3844	72
7	0	0	2021	10	3845	70
8	0	0	2030	11	3845	69
9	0	0	2029	11	3844	71
10	0	0	2011	8	3845	72
11	0	0	2004	11	3845	71
12	0	0	2014	13	3844	72
13	0	0	2017	9	3844	72
14	0	0	1999	10	3843	73
15	0	0	1986	10	3844	72
16	0	0	1979	11	3843	72
17	0	0	1998	12	3844	71
18	0	0	2049	10	3846	75
19	0	0	2077	11	3843	73
20	0	0	2086	8	3844	72
21	0	0	2083	11	3844	72
22	0	0	2063	10	3844	74
23	0	0	2053	12	3845	71
24	0	0	2060	11	3845	72
25	0	0	2074	7	3844	72
26	0	0	2084	11	3844	73
27	0	0	2080	15	3843	72
28	0	0	2086	11	3844	68
29	0	0	2099	12	3842	73
30	0	0	2104	10	3845	72
31	0	0	2087	9	3844	72
32	0	0	2079	12	3844	71
33	0	0	2098	10	3846	72
34	0	0	2132	11	3843	73
35	0	0	2146	12	3846	73
36	0	0	2125	9	3844	72
37	0	0	2114	12	3846	72
38	0	0	2116	11	3845	71
39	0	0	2111	11	3846	71
40	0	0	2099	8	3846	72
41	0	0	2080	10	3844	72
42	0	0	2073	13	3844	72
43	0	0	2080	11	3844	72
44	0	0	2087	11	3842	73
45	0	0	2087	8	3845	71
46	0	0	2088	13	3844	72
47	0	0	2096	13	3843	72
48	0	0	2104	11	3844	72
49	0	0	2112	12	3846	73
50	0	0	2102	10	3846	72
51	0	0	2097	12	3844	73
52	0	0	2089	12	3845	72
53	0	0	2120	11	3842	73
54	0	0	2177	12	3842	72
55	0	0	2179	8	3845	73
56	0	0	2137	8	3846	72
57	0	0	2127	9	3845	72
58	0	0	2142	10	3845	73
59	0	0	2134	9	3844	73
60	0	0	2110	9	3846	73
61	0	0	2092	11	3844	72
62	0	0	2093	12	3846	72
63	0	0	2101	12	3846	73
64	0	0	2116	12	3842	73
65	0	0	2128	10	3844	72
66	0	0	2155	11	3844	72
67	0	0	2176	10	3846	72
68	0	0	2193	12	3844	71
69	0	0	2172	8	3848	72
70	0	0	2138	9	3845	72
71	0	0	2118	12	3844	72
72	0	0	2121	9	3844	72
73	0	0	2116	12	3845	76
74	0	0	2104	12	3848	73
75	0	0	2099	11	3845	72
76	0	0	2104	12	3844	73
77	0	0	2109	12	3844	73
78	0	0	2096	9	3845	73
79	0	0	2066	8	3845	73
80	0	0	2052	12	3845	72
81	0	0	2061	12	3844	73
82	0	0	2081	12	3844	72
83	0	0	2087	12	3845	73
84	0	0	2124	12	3844	73
85	0	0	2168	12	3845	72
86	0	0	2176	7	3844	73
87	0	0	2169	11	3844	72
88	0	0	2143	8	3845	73
89	0	0	2123	11	3845	73
90	0	0	2121	12	3845	72
91	0	0	2112	11	3844	74
92	0	0	2117	12	3844	73
93	0	0	2118	12	3844	70
94	0	0	2114	11	3845	72
95	0	0	2103	12	3844	73
96	0	0	2101	11	3845	72
97	0	0	2104	12	3844	72
98	0	0	2110	12	3844	72
99	0	0	2120	10	3845	72
100	0	0	2136	12	3844	72
101	0	0	2140	11	3845	71
102	0	0	2116	7	3843	73
103	0	0	2093	10	3845	72
104	0	0	2084	12	3846	72
105	0	0	2088	13	3845	72
106	0	0	2092	8	3842	74
107	0	0	2078	9	3845	73
108	0	0	2064	12	3845	73
109	0	0	2066	13	3844	72
110	0	0	2065	11	3845	71
111	0	0	2084	11	3843	72
112	0	0	2119	11	3845	72
113	0	0	2142	12	3844	69
114	0	0	2133	10	3843	71
115	0	0	2100	8	3845	71
116	0	0	2072	9	3844	73
117	0	0	2069	12	3844	72
118	0	0	2079	12	3844	72
119	0	0	2091	11	3845	72
120	0	0	2085	9	3846	72
121	0	0	2101	12	3844	72
122	0	0	2103	10	3845	73
123	0	0	2083	10	3845	73
124	0	0	2064	9	3845	71
125	0	0	2041	9	3844	72
126	0	0	2021	10	3844	72
127	0	0	2012	10	3846	72
0	0	0	2030	11	3844	72
1	0	0	2076	10	3845	72
2	0	0	2079	10	3845	72
3	0	0	2050	9	3844	72
4	0	0	2041	12	3843	71
5	0	0	2049	15	3843	72
6	0	0	2048	11	3846	72
7	0	0	2048	12	3844	72
8	0	0	2066	11	3844	73
9	0	0	2080	12	3844	72
10	0	0	2073	11	3845	72
11	0	0	2042	9	3845	72
12	0	0	2005	10	3845	72
13	0	0	2008	11	3846	72
14	0	0	2018	11	3843	72
15	0	0	2025	15	3844	72
16	0	0	2037	11	3844	72
17	0	0	2047	12	3844	72
18	0	0	2058	12	3844	73
19	0	0	2071	11	3844	73
20	0	0	2075	11	3844	73
21	0	0	2054	9	3843	70
22	0	0	2035	11	3843	73
23	0	0	2029	14	3844	72
24	0	0	2016	10	3844	72
25	0	0	1995	7	3844	73
26	0	0	1978	10	3844	70
27	0	0	1995	13	3846	72
28	0	0	2018	11	3844	73
29	0	0	2037	12	3844	72
30	0	0	2053	11	3845	71
31	0	0	2053	11	3845	70
32	0	0	2035	9	3845	71
33	0	0	2013	9	3844	73
34	0	0	1995	11	3844	72
35	0	0	1975	13	3843	72
36	0	0	1986	11	3846	72
37	0	0	1999	11	3844	72
38	0	0	2014	11	3844	71
39	0	0	2027	11	3844	72
40	0	0	2041	12	3845	72
41	0	0	2038	13	3845	72
42	0	0	2035	11	3844	72
43	0	0	2025	11	3844	72
44	0	0	2007	10	3844	72
45	0	0	1986	7	3844	72
46	0	0	1984	11	3843	70
47	0	0	2011	11	3845	71
48	0	0	2035	11	3844	72
49	0	0	2044	12	3843	73
50	0	0	2042	11	3844	73
51	0	0	2048	11	3845	72
52	0	0	2030	9	3844	71
53	0	0	2006	9	3844	72
54	0	0	2001	11	3844	72
55	0	0	2018	11	3844	72
56	0	0	2036	10	3845	72
57	0	0	2034	13	3846	72
58	0	0	2029	12	3844	72
59	0	0	2023	11	3844	72
60	0	0	2035	11	3844	72
61	0	0	2045	11	3845	72
62	0	0	2032	9	3847	75
63	0	0	2010	12	3844	72
64	0	0	1995	9	3846	72
65	0	0	1993	11	3842	73
66	0	0	1993	13	3843	70
67	0	0	1991	12	3845	74
68	0	0	2000	12	3843	72
69	0	0	2012	13	3845	72
70	0	0	2012	11	3844	73
71	0	0	2023	11	3846	71
72	0	0	2023	11	3845	72
73	0	0	2022	11	3844	72
74	0	0	2022	13	3843	72
75	0	0	2026	9	3846	72
76	0	0	2043	9	3844	70
77	0	0	2048	13	3845	72
78	0	0	2056	12	3844	74
79	0	0	2051	11	3846	72
80	0	0	2035	9	3843	72
81	0	0	2032	11	3845	71
82	0	0	2043	12	3845	72
83	0	0	2045	12	3844	73
84	0	0	2040	11	3844	72
85	0	0	2031	11	3844	73
86	0	0	2040	11	3843	72
87	0	0	2058	3	3845	73
88	0	0	2040	8	3845	72
89	0	0	2008	9	3843	72
90	0	0	1993	12	3843	72
91	0	0	2002	10	3845	71
92	0	0	2010	13	3845	72
93	0	0	2020	12	3844	133
94	0	0	2033	12	3846	663
95	0	0	2015	9	3845	1463
96	0	0	1996	10	3845	2197
97	0	0	1998	11	3846	2728
98	0	0	2006	11	3844	3078
99	0	0	2010	10	3845	3314
100	0	0	2008	10	3844	3470
101	0	0	1984	9	3845	3579
102	0	0	1973	11	3846	3657
103	0	0	1980	11	3843	3713
104	0	0	1974	11	3844	3756
105	0	0	1989	10	3843	3789
106	0	0	2018	11	3843	3816
107	0	0	2032	12	3845	3838
108	0	0	2061	11	3844	3854
109	0	0	2078	12	3844	3868
110	0	0	2074	10	3845	3881
111	0	0	2052	9	3846	3892
112	0	0	2033	15	3845	3900
113	0	0	2040	12	3846	3909
114	0	0	2048	9	3843	3914
115	0	0	2023	9	3844	3919
116	0	0	2020	11	3844	3928
117	0	0	2048	11	3845	3929
118	0	0	2090	11	3844	3933
119	0	0	2100	10	3845	3937
120	0	0	2075	8	3844	3941
121	0	0	2060	9	3845	3945
122	0	0	2050	11	3844	3945
123	0	0	2041	13	3844	3948
124	0	0	2033	12	3844	3950
125	0	0	2023	10	3845	3952
126	0	0	2027	12	3842	3954
127	0	0	2037	16	3846	3956
0	0	0	2038	11	3846	3959
1	0	0	2016	11	3845	3959
2	0	0	1997	9	3844	3960
3	0	0	2001	10	3845	3964
4	0	0	2029	11	3843	3963
5	0	0	2087	14	3845	3968
6	0	0	2125	11	3845	3966
7	0	0	2126	8	3844	3968
8	0	0	2075	7	3844	3969
9	0	0	2037	10	3845	3969
10	0	0	2038	11	3844	3969
11	0	0	2061	12	3844	3970
12	0	0	2093	12	3844	3970
13	0	0	2115	11	3843	3972
14	0	0	2112	11	3842	3973
15	0	0	2088	9	3843	3974
16	0	0	2081	10	3843	3974
17	0	0	2062	8	3845	3973
18	0	0	2051	11	3844	3976
19	0	0	2057	12	3844	3975
20	0	0	2050	10	3844	3975
21	0	0	2043	12	3844	3976
22	0	0	2044	12	3843	3977
23	0	0	2052	12	3841	3978
24	0	0	2062	14	3842	3978
25	0	0	2071	11	3843	3978
26	0	0	2079	13	3844	3979
27	0	0	2095	10	3843	3979
28	0	0	2106	11	3844	3980
29	0	0	2090	12	3844	3980
30	0	0	2058	10	3842	3980
31	0	0	2037	11	3844	3981
32	0	0	2052	12	3843	3981
33	0	0	2080	11	3844	3982
34	0	0	2091	11	3846	3982
35	0	0	2094	11	3843	3984
36	0	0	2108	13	3844	3982
37	0	0	2118	10	3843	3982
38	0	0	2095	8	3844	3982
39	0	0	2062	8	3845	3982
40	0	0	2024	8	3845	3985
41	0	0	2010	10	3841	3984
42	0	0	2005	11	3844	3984
43	0	0	2021	11	3845	3986
44	0	0	2032	11	3844	3985
45	0	0	2067	11	3845	3986
46	0	0	2101	10	3843	3984
47	0	0	2096	10	3844	3986
48	0	0	2074	9	3845	3986
49	0	0	2064	11	3842	3986
50	0	0	2055	11	3844	3986
51	0	0	2051	12	3845	3986
52	0	0	2051	12	3842	3987
53	0	0	2064	10	3845	3988
54	0	0	2094	11	3843	3987
55	0	0	2098	11	3843	3987
56	0	0	2069	7	3846	3988
57	0	0	2046	10	3845	3990
58	0	0	2062	11	3844	3990
59	0	0	2093	12	3843	3988
60	0	0	2106	11	3844	3987
61	0	0	2104	12	3844	3988
62	0	0	2088	9	3845	3988
63	0	0	2070	10	3845	3989
64	0	0	2063	11	3842	3988
65	0	0	2039	9	3844	3988
66	0	0	2031	12	3845	3989
67	0	0	2038	12	3842	3989
68	0	0	2069	11	3844	3990
69	0	0	2084	10	3844	3990
70	0	0	2098	11	3844	3989
71	0	0	2118	12	3844	3989
72	0	0	2121	10	3845	3990
73	0	0	2135	11	3845	3989
74	0	0	2131	11	3843	3990
75	0	0	2133	11	3845	3991
76	0	0	2124	10	3844	3990
77	0	0	2095	8	3843	3990
78	0	0	2060	8	3845	3990
79	0	0	2046	11	3845	3990
80	0	0	2048	12	3844	3990
81	0	0	2067	11	3846	3992
82	0	0	2074	10	3846	3992
83	0	0	2064	12	3845	3991
84	0	0	2063	12	3845	3989
85	0	0	2069	11	3846	3992
86	0	0	2067	11	3844	3992
87	0	0	2076	11	3844	3991
88	0	0	2082	11	3845	3992
89	0	0	2073	11	3845	3991
90	0	0	2061	11	3844	3991
91	0	0	2059	12	3844	3992
92	0	0	2073	12	3844	3992
93	0	0	2088	12	3845	3994
94	0	0	2102	11	3845	3993
95	0	0	2102	12	3844	3992
96	0	0	2095	9	3847	3993
97	0	0	2079	10	3844	3991
98	0	0	2082	12	3845	3994
99	0	0	2102	12	3845	3993
100	0	0	2106	12	3844	3992
101	0	0	2101	11	3847	3993
102	0	0	2105	11	3845	3992
103	0	0	2119	10	3845	3994
104	0	0	2134	12	3845	3992
105	0	0	2129	11	3844	3992
106	0	0	2120	11	3844	3992
107	0	0	2129	10	3844	3994
108	0	0	2141	12	3844	3995
109	0	0	2152	12	3843	3994
110	0	0	2133	7	3844	3993
111	0	0	2096	7	3844	3993
112	0	0	2062	8	3845	3994
113	0	0	2049	11	3844	3993
114	0	0	2064	12	3845	3993
115	0	0	2096	12	3844	3993
116	0	0	2110	11	3847	3995
117	0	0	2108	12	3845	3996
118	0	0	2092	11	3845	3994
119	0	0	2103	11	3845	3995
120	0	0	2136	12	3845	3993
121	0	0	2160	11	3844	3995
122	0	0	2143	10	3843	3993
123	0	0	2123	9	3844	3993
124	0	0	2115	12	3843	3995
125	0	0	2102	9	3844	3994
126	0	0	2073	14	3843	3994
127	0	0	2063	12	3844	3994
0	0	0	2064	12	3843	3995
1	0	0	2078	12	3845	3994
2	0	0	2100	11	3844	3994
3	0	0	2129	16	3844	3995
4	0	0	2133	12	3845	3994
5	0	0	2125	11	3845	3995
6	0	0	2116	11	3845	3995
7	0	0	2099	11	3846	3996
8	0	0	2087	15	3844	3994
9	0	0	2108	13	3845	3995
10	0	0	2122	11	3844	3995
11	0	0	2116	10	3844	3995
12	0	0	2104	11	3844	3994
13	0	0	2097	16	3843	3995
14	0	0	2077	10	3843	3995
15	0	0	2086	12	3844	4000
16	0	0	2120	12	3843	3996
17	0	0	2127	10	3844	3995
18	0	0	2117	16	3844	3996
19	0	0	2114	12	3844	3995
20	0	0	2122	11	3845	3997
21	0	0	2128	12	3845	3995
22	0	0	2137	13	3844	3995
23	0	0	2149	10	3847	3995
24	0	0	2133	9	3845	3995
25	0	0	2114	10	3844	3997
26	0	0	2114	12	3846	3996
27	0	0	2118	12	3844	3995
28	0	0	2120	16	3843	3996
29	0	0	2124	14	3844	3996
30	0	0	2135	12	3845	3997
31	0	0	2134	12	3843	4000
32	0	0	2147	11	3845	3996
33	0	0	2160	15	3844	3995
34	0	0	2166	12	3845	3996
35	0	0	2187	12	3847	3995
36	0	0	2184	12	3844	3997
37	0	0	2171	12	3844	3995
38	0	0	2158	8	3847	3995
39	0	0	2119	11	3845	3996
40	0	0	2083	10	3845	3993
41	0	0	2093	12	3846	3997
42	0	0	2106	12	3844	3996
43	0	0	2111	12	3843	3996
44	0	0	2129	13	3845	3996
45	0	0	2138	11	3844	3995
46	0	0	2154	12	3844	3997
47	0	0	2155	12	3844	3996
48	0	0	2129	14	3843	3996
49	0	0	2110	12	3844	3996
50	0	0	2116	12	3845	3997
51	0	0	2123	12	3843	3997
52	0	0	2125	12	3844	3996
53	0	0	2125	9	3845	3995
54	0	0	2104	11	3845	3996
55	0	0	2078	9	3845	3995
56	0	0	2082	12	3848	3998
57	0	0	2110	12	3844	3996
58	0	0	2137	9	3847	3995
59	0	0	2140	12	3845	3995
60	0	0	2139	11	3845	4000
61	0	0	2124	11	3842	3998
62	0	0	2117	12	3843	3996
63	0	0	2134	12	3843	3997
64	0	0	2193	12	3844	3997
65	0	0	2218	13	3844	3997
66	0	0	2200	10	3843	3997
67	0	0	2192	12	3845	3996
68	0	0	2175	9	3845	3999
69	0	0	2157	11	3845	3998
70	0	0	2160	13	3845	4000
71	0	0	2161	12	3842	3996
72	0	0	2144	10	3844	3996
73	0	0	2145	11	3845	3999
74	0	0	2178	13	3846	3998
75	0	0	2195	14	3845	3997
76	0	0	2158	8	3843	4000
77	0	0	2117	9	3845	3998
78	0	0	2125	12	3844	3995
79	0	0	2155	14	3844	3997
80	0	0	2165	11	3845	3998
81	0	0	2146	13	3844	3999
82	0	0	2146	11	3846	3994
83	0	0	2130	8	3843	3997
84	0	0	2129	12	3844	3997
85	0	0	2142	13	3845	3996
86	0	0	2145	11	3844	3998
87	0	0	2141	12	3844	3997
88	0	0	2139	12	3844	3997
89	0	0	2148	13	3844	3997
90	0	0	2158	11	3846	3996
91	0	0	2159	13	3848	3999
92	0	0	2166	12	3843	3997
93	0	0	2173	11	3844	3997
94	0	0	2187	12	3844	4000
95	0	0	2206	12	3844	4000
96	0	0	2188	12	3844	3998
97	0	0	2169	11	3843	3997
98	0	0	2185	12	3844	3997
99	0	0	2208	12	3844	3999
100	0	0	2203	10	3844	4000
101	0	0	2177	9	3848	3999
102	0	0	2156	10	3847	3996
103	0	0	2145	11	3844	3997
104	0	0	2137	10	3844	4000
105	0	0	2111	11	3845	4000
106	0	0	2106	11	3848	3999
107	0	0	2141	11	3844	3996
108	0	0	2185	12	3844	3997
109	0	0	2200	12	3844	3998
110	0	0	2198	12	3844	3998
111	0	0	2177	9	3845	3999
112	0	0	2176	11	3844	3997
113	0	0	2200	11	3845	4000
114	0	0	2215	12	3845	3999
115	0	0	2205	9	3845	3998
116	0	0	2155	7	3845	3999
117	0	0	2120	9	3844	3997
118	0	0	2096	9	3844	3998
119	0	0	2087	13	3845	3999
120	0	0	2122	10	3845	3998
121	0	0	2161	11	3846	3999
122	0	0	2160	12	3844	3998
123	0	0	2144	10	3844	3999
124	0	0	2137	8	3846	3997
125	0	0	2154	13	3844	3998
126	0	0	2187	11	3846	3999
127	0	0	2201	13	3844	3998
0	0	0	2202	12	3844	3998
1	0	0	2207	10	3844	3998
2	0	0	2218	11	3844	3999
3	0	0	2199	9	3843	3997
4	0	0	2158	7	3843	3998
5	0	0	2125	9	3845	4000
6	0	0	2102	10	3845	3999
7	0	0	2113	10	3845	3999
8	0	0	2145	11	3847	3998
9	0	0	2162	12	3845	3998
10	0	0	2175	12	3845	3998
11	0	0	2178	14	3842	3998
12	0	0	2176	11	3845	3998
13	0	0	2162	12	3845	3998
14	0	0	2174	12	3844	3998
15	0	0	2186	12	3844	3998
16	0	0	2176	12	3844	4000
17	0	0	2176	13	3844	3998
18	0	0	2187	11	3845	3999
19	0	0	2184	12	3844	3998
20	0	0	2163	9	3845	3995
21	0	0	2145	7	3844	3998
22	0	0	2157	15	3845	4000
23	0	0	2176	11	3847	3997
24	0	0	2174	12	3844	3998
25	0	0	2192	12	3841	4000
26	0	0	2233	12	3844	4000
27	0	0	2272	13	3845	3998
28	0	0	2274	12	3845	3999
29	0	0	2232	9	3844	3998
30	0	0	2211	11	3844	3998
31	0	0	2211	10	3843	4000
32	0	0	2180	8	3844	3999
33	0	0	2142	9	3847	3999
34	0	0	2138	11	3844	3999
35	0	0	2147	12	3844	3998
36	0	0	2163	10	3845	4000
37	0	0	2172	12	3844	3999
38	0	0	2190	11	3845	4000
39	0	0	2195	12	3844	3998
40	0	0	2190	11	3844	3999
41	0	0	2185	8	3845	3998
42	0	0	2174	10	3845	3999
43	0	0	2152	10	3847	3999
44	0	0	2149	12	3847	3999
45	0	0	2161	11	3844	3998
46	0	0	2182	11	3844	4000
47	0	0	2200	13	3845	3999
48	0	0	2192	11	3844	3999
49	0	0	2165	9	3844	3998
50	0	0	2156	12	3844	3998
51	0	0	2175	11	3846	4000
52	0	0	2190	12	3844	3997
53	0	0	2196	11	3845	3999
54	0	0	2177	9	3844	3998
55	0	0	2158	12	3844	3998
56	0	0	2172	7	3844	3999
57	0	0	2189	12	3846	4000
58	0	0	2215	11	3844	3999
59	0	0	2254	11	3845	3999
60	0	0	2268	11	3842	4000
61	0	0	2281	11	3845	3999
62	0	0	2286	11	3842	4000
63	0	0	2257	9	3845	4000
64	0	0	2215	7	3844	3999
65	0	0	2212	11	3846	3996
66	0	0	2247	8	3845	3999
67	0	0	2278	12	3845	3999
68	0	0	2303	11	3844	3999
69	0	0	2299	11	3844	3999
70	0	0	2282	11	3844	3999
71	0	0	2257	7	3844	3999
72	0	0	2210	8	3844	3999
73	0	0	2185	11	3843	3999
74	0	0	2194	11	3845	4000
75	0	0	2215	11	3846	3999
76	0	0	2222	9	3845	3999
77	0	0	2217	11	3847	3999
78	0	0	2223	12	3845	4000
79	0	0	2222	12	3845	3999
80	0	0	2218	12	3845	3999
81	0	0	2222	13	3846	4000
82	0	0	2204	10	3844	4000
83	0	0	2183	10	3844	3999
84	0	0	2194	11	3843	3999
85	0	0	2216	10	3844	3999
86	0	0	2206	10	3843	4000
87	0	0	2212	14	3845	3999
88	0	0	2224	12	3844	4000
89	0	0	2199	8	3845	4000
90	0	0	2164	14	3844	3997
91	0	0	2165	11	3842	4000
92	0	0	2180	12	3844	3999
93	0	0	2196	12	3846	4000
94	0	0	2195	11	3844	3998
95	0	0	2191	12	3846	3996
96	0	0	2177	11	3843	4000
97	0	0	2169	14	3845	3999
98	0	0	2170	12	3844	4001
99	0	0	2160	11	3844	3999
100	0	0	2151	12	3844	3999
101	0	0	2152	9	3843	4000
102	0	0	2171	11	3844	4000
103	0	0	2170	11	3843	3999
104	0	0	2184	12	3844	3999
105	0	0	2198	10	3844	3999
106	0	0	2200	11	3844	4000
107	0	0	2231	13	3846	4000
108	0	0	2217	10	3844	4000
109	0	0	2203	11	3846	4000
110	0	0	2183	11	3845	3999
111	0	0	2160	7	3843	4000
112	0	0	2155	12	3845	4000
113	0	0	2141	7	3844	4000
114	0	0	2118	10	3844	3999
115	0	0	2119	11	3844	3999
116	0	0	2122	11	3842	4000
117	0	0	2141	12	3844	3999
118	0	0	2149	12	3844	4000
119	0	0	2154	12	3843	3999
120	0	0	2140	7	3843	3999
121	0	0	2117	11	3844	4000
122	0	0	2121	12	3846	4000
123	0	0	2139	12	3845	4000
124	0	0	2161	10	3845	4000
125	0	0	2176	11	3848	4000
126	0	0	2177	9	3845	4000
127	0	0	2181	12	3846	4000
0	0	0	2181	12	3844	4001
1	0	0	2184	12	3844	3999
2	0	0	2169	10	3845	3999
3	0	0	2142	11	3844	3999
4	0	0	2144	12	3844	4001
5	0	0	2162	11	3844	4000
6	0	0	2188	12	3843	3999
7	0	0	2203	12	3845	4001
8	0	0	2198	11	3845	4001
9	0	0	2191	11	3845	4000
10	0	0	2184	12	3844	4001
11	0	0	2181	11	3844	3999
12	0	0	2175	12	3844	4000
13	0	0	2177	10	3842	4000
14	0	0	2181	12	3845	3998
15	0	0	2188	12	3844	4000
16	0	0	2186	12	3844	4000
17	0	0	2179	11	3844	3999
18	0	0	2193	9	3844	4000
19	0	0	2197	10	3845	4000
20	0	0	2159	8	3844	4001
21	0	0	2126	11	3845	4001
22	0	0	2139	12	3843	4000
23	0	0	2152	9	3842	4000
24	0	0	2148	11	3844	4000
25	0	0	2136	12	3844	4000
26	0	0	2144	12	3843	4000
27	0	0	2136	11	3845	3999
28	0	0	2125	12	3845	3999
29	0	0	2129	12	3846	4000
30	0	0	2160	12	3843	4002
31	0	0	2169	12	3843	3997
32	0	0	2152	11	3845	3999
33	0	0	2125	10	3844	3999
34	0	0	2110	11	3844	4000
35	0	0	2101	10	3844	3998
36	0	0	2087	11	3844	3999
37	0	0	2090	13	3844	3999
38	0	0	2102	12	3845	4000
39	0	0	2118	12	3845	3998
40	0	0	2117	11	3844	4000
41	0	0	2093	9	3843	4000
42	0	0	2090	12	3845	4002
43	0	0	2113	12	3844	4000
44	0	0	2145	11	3845	4000
45	0	0	2161	12	3844	3998
46	0	0	2136	8	3844	4000
47	0	0	2118	11	3843	4001
48	0	0	2123	11	3845	4001
49	0	0	2138	12	3845	3999
50	0	0	2149	12	3845	3998
51	0	0	2155	11	3845	4000
52	0	0	2175	12	3845	3997
53	0	0	2206	12	3845	4001
54	0	0	2226	12	3844	4000
55	0	0	2211	9	3845	4001
56	0	0	2163	9	3844	4000
57	0	0	2154	12	3844	4000
58	0	0	2176	11	3846	4001
59	0	0	2221	12	3845	4000
60	0	0	2262	11	3845	4001
61	0	0	2299	11	3844	3999
62	0	0	2351	11	3845	4002
63	0	0	2411	11	3845	4001
64	0	0	2445	12	3845	4000
65	0	0	2444	11	3846	4000
66	0	0	2445	11	3844	3999
67	0	0	2464	11	3844	4001
68	0	0	2493	10	3844	4000
69	0	0	2507	13	3845	3999
70	0	0	2535	12	3844	3998
71	0	0	2566	12	3844	4000
72	0	0	2571	12	3845	4002
73	0	0	2566	14	3844	4000
74	0	0	2591	12	3845	4000
75	0	0	2626	12	3843	3999
76	0	0	2635	11	3843	4000
77	0	0	2633	12	3843	4001
78	0	0	2654	12	3845	4000
79	0	0	2693	12	3846	4000
80	0	0	2744	12	3846	4001
81	0	0	2760	16	3844	4000
82	0	0	2717	8	3844	4001
83	0	0	2646	10	3845	3999
84	0	0	2576	8	3846	3999
85	0	0	2492	8	3844	3999
86	0	0	2398	9	3844	4000
87	0	0	2352	9	3846	4001
88	0	0	2334	12	3845	3999
89	0	0	2341	12	3845	3999
90	0	0	2351	12	3844	3999
91	0	0	2313	7	3844	4000
92	0	0	2256	7	3845	4003
93	0	0	2201	11	3844	4000
94	0	0	2166	8	3845	4001
95	0	0	2135	8	3843	3999
96	0	0	2115	10	3846	4001
97	0	0	2110	10	3845	4000
98	0	0	2104	14	3845	3999
99	0	0	2090	8	3845	4001
100	0	0	2068	9	3843	3999
101	0	0	2076	11	3844	4000
102	0	0	2106	11	3843	4000
103	0	0	2135	10	3845	4001
104	0	0	2133	10	3844	4001
105	0	0	2111	9	3845	4002
106	0	0	2096	11	3843	4000
107	0	0	2094	11	3844	4000
108	0	0	2102	14	3845	4000
109	0	0	2108	12	3846	4001
110	0	0	2120	11	3844	3998
111	0	0	2140	10	3843	4000
112	0	0	2150	12	3843	4000
113	0	0	2152	10	3845	4000
114	0	0	2119	7	3844	4001
115	0	0	2092	10	3844	4002
116	0	0	2097	9	3847	3999
117	0	0	2129	12	3845	4000
118	0	0	2142	3	3845	4001
119	0	0	2102	7	3845	4001
120	0	0	2097	11	3844	3999
121	0	0	2098	12	3843	4000
122	0	0	2069	8	3843	4000
123	0	0	2059	7	3845	4001
124	0	0	2068	10	3844	4000
125	0	0	2079	11	3844	4001
126	0	0	2070	11	3844	4000
127	0	0	2067	12	3845	4001
0	0	0	2085	11	3846	4002
1	0	0	2110	11	3844	4002
2	0	0	2098	9	3846	4002
3	0	0	2077	11	3845	4000
4	0	0	2074	11	3844	4000
5	0	0	2068	11	3845	4001
6	0	0	2019	8	3845	4004
7	0	0	2010	11	3845	3999
8	0	0	2043	11	3844	4000
9	0	0	2089	11	3845	4003
10	0	0	2116	11	3845	4002
11	0	0	2129	10	3844	4001
12	0	0	2137	11	3845	4002
13	0	0	2145	13	3844	4000
14	0	0	2148	12	3844	3999
15	0	0	2150	11	3844	3999
16	0	0	2116	6	3844	4000
17	0	0	2093	9	3845	4001
18	0	0	2070	10	3844	4000
19	0	0	2064	12	3844	4000
20	0	0	2067	11	3845	4001
21	0	0	2061	10	3846	4000
22	0	0	2067	11	3845	4001
23	0	0	2076	12	3845	4000
24	0	0	2095	10	3844	4000
25	0	0	2109	15	3844	4001
26	0	0	2108	10	3844	4000
27	0	0	2112	11	3844	4000
28	0	0	2128	12	3844	4000
29	0	0	2142	12	3843	4000
30	0	0	2140	12	3844	4001
31	0	0	2116	9	3845	4001
32	0	0	2097	10	3844	4001
33	0	0	2081	8	3845	4002
34	0	0	2067	10	3842	4001
35	0	0	2057	11	3844	4001
36	0	0	2049	11	3845	4001
37	0	0	2049	12	3846	4002
38	0	0	2067	11	3844	4000
39	0	0	2089	13	3844	4000
40	0	0	2114	12	3845	4001
41	0	0	2143	10	3845	4001
42	0	0	2151	11	3844	4000
43	0	0	2142	10	3844	3999
44	0	0	2131	12	3844	3999
45	0	0	2114	11	3844	4001
46	0	0	2116	10	3844	4000
47	0	0	2134	12	3844	4000
48	0	0	2133	12	3844	4000
49	0	0	2113	9	3844	4001
50	0	0	2089	8	3845	4001
51	0	0	2076	12	3846	4001
52	0	0	2080	12	3844	4000
53	0	0	2095	10	3846	4002
54	0	0	2089	9	3842	4001
55	0	0	2097	11	3844	4001
56	0	0	2120	10	3845	4001
57	0	0	2144	12	3844	4000
58	0	0	2163	12	3844	4001
59	0	0	2148	10	3844	4002
60	0	0	2139	11	3844	4001
61	0	0	2139	12	3845	4002
62	0	0	2157	12	3844	4000
63	0	0	2151	10	3844	3997
64	0	0	2120	7	3843	4000
65	0	0	2096	11	3843	4001
66	0	0	2094	13	3844	4001
67	0	0	2102	11	3845	4002
68	0	0	2092	10	3843	4000
69	0	0	2109	12	3844	4001
70	0	0	2136	10	3846	4001
71	0	0	2144	12	3845	4001
72	0	0	2142	12	3845	4000
73	0	0	2144	11	3844	4000
74	0	0	2148	11	3844	4000
75	0	0	2141	10	3845	3999
76	0	0	2112	10	3844	4001
77	0	0	2114	12	3843	4000
78	0	0	2126	12	3844	4000
79	0	0	2136	10	3843	4000
80	0	0	2144	8	3844	4000
81	0	0	2166	12	3845	4001
82	0	0	2187	12	3845	4002
83	0	0	2172	11	3844	4000
84	0	0	2144	9	3844	4001
85	0	0	2124	10	3844	4001
86	0	0	2136	15	3845	4001
87	0	0	2164	12	3844	4001
88	0	0	2165	14	3846	4002
89	0	0	2157	11	3842	4000
90	0	0	2167	14	3844	4000
91	0	0	2179	13	3844	4002
92	0	0	2158	10	3843	4000
93	0	0	2149	12	3843	4000
94	0	0	2119	9	3846	4001
95	0	0	2084	9	3844	4001
96	0	0	2072	10	3844	4001
97	0	0	2087	12	3843	4000
98	0	0	2110	11	3844	4000
99	0	0	2145	11	3844	4000
100	0	0	2157	15	3843	4002
101	0	0	2144	11	3845	4000
102	0	0	2131	12	3844	4000
103	0	0	2149	14	3846	4001
104	0	0	2170	11	3844	4002
105	0	0	2168	8	3844	4000
106	0	0	2160	11	3844	4001
107	0	0	2159	12	3844	4004
108	0	0	2158	11	3844	3999
109	0	0	2153	11	3844	4000
110	0	0	2149	10	3844	4001
111	0	0	2155	15	3844	4001
112	0	0	2144	14	3843	4000
113	0	0	2131	11	3843	4000
114	0	0	2111	9	3844	4000
115	0	0	2100	8	3844	4000
116	0	0	2109	12	3845	4000
117	0	0	2136	14	3846	4004
118	0	0	2167	12	3844	4001
119	0	0	2197	11	3844	4000
120	0	0	2192	9	3845	4001
121	0	0	2171	9	3846	4001
122	0	0	2155	12	3844	4002
123	0	0	2167	12	3844	4000
124	0	0	2189	9	3844	4000
125	0	0	2200	12	3844	3999
126	0	0	2209	14	3844	4001
127	0	0	2195	11	3843	4000
0	0	0	2168	8	3845	4002
1	0	0	2149	11	3845	4003
2	0	0	2145	14	3843	4001
3	0	0	2155	11	3845	4002
4	0	0	2173	12	3844	4002
5	0	0	2197	11	3845	4002
6	0	0	2212	11	3845	4003
7	0	0	2211	13	3843	4001
8	0	0	2186	8	3845	4002
9	0	0	2142	9	3844	4000
10	0	0	2128	15	3843	4001
11	0	0	2152	12	3844	4001
12	0	0	2169	12	3844	3999
13	0	0	2189	10	3846	4001
14	0	0	2203	11	3844	4003
15	0	0	2172	11	3844	4001
16	0	0	2165	11	3844	4001
17	0	0	2183	14	3843	3999
18	0	0	2229	11	3844	4001
19	0	0	2262	12	3843	4003
20	0	0	2293	10	3845	4002
21	0	0	2309	16	3845	3999
22	0	0	2299	11	3843	4001
23	0	0	2263	8	3845	4000
24	0	0	2228	9	3844	4003
25	0	0	2208	15	3843	4001
26	0	0	2204	12	3846	4000
27	0	0	2202	14	3843	3999
28	0	0	2212	11	3844	4003
29	0	0	2231	12	3844	4003
30	0	0	2232	12	3844	3999
31	0	0	2223	11	3845	4001
32	0	0	2215	10	3845	4001
33	0	0	2195	11	3844	4001
34	0	0	2199	12	3844	4001
35	0	0	2218	12	3844	4000
36	0	0	2237	9	3844	4000
37	0	0	2255	12	3842	3999
38	0	0	2262	10	3845	4001
39	0	0	2251	14	3844	4004
40	0	0	2224	8	3845	4002
41	0	0	2204	11	3844	4000
42	0	0	2204	11	3843	3999
43	0	0	2227	12	3844	4003
44	0	0	2253	12	3844	4001
45	0	0	2264	12	3846	4004
46	0	0	2251	10	3845	4001
47	0	0	2223	9	3845	4003
48	0	0	2200	10	3844	4002
49	0	0	2213	11	3845	4002
50	0	0	2253	15	3843	4000
51	0	0	2289	11	3844	4002
52	0	0	2274	9	3843	4002
53	0	0	2252	10	3845	4002
54	0	0	2243	11	3844	4001
55	0	0	2246	12	3844	4001
56	0	0	2242	12	3845	4001
57	0	0	2214	9	3843	3999
58	0	0	2193	10	3844	4002
59	0	0	2189	12	3844	4003
60	0	0	2193	12	3844	4000
61	0	0	2185	12	3845	4001
62	0	0	2185	11	3843	3999
63	0	0	2157	7	3845	4002
64	0	0	2161	11	3844	4001
65	0	0	2192	11	3844	4001
66	0	0	2214	10	3844	4001
67	0	0	2226	13	3843	4001
68	0	0	2228	13	3846	4002
69	0	0	2224	12	3844	4002
70	0	0	2222	7	3844	4000
71	0	0	2233	12	3845	4003
72	0	0	2234	12	3846	4002
73	0	0	2196	6	3846	4002
74	0	0	2179	12	3845	4000
75	0	0	2196	12	3844	4001
76	0	0	2231	12	3845	4001
77	0	0	2251	12	3843	3999
78	0	0	2222	10	3845	4001
79	0	0	2186	7	3844	4003
80	0	0	2147	8	3845	4002
81	0	0	2131	12	3847	4001
82	0	0	2159	11	3844	3999
83	0	0	2200	12	3844	4003
84	0	0	2241	12	3844	4001
85	0	0	2241	11	3846	4004
86	0	0	2229	12	3844	4002
87	0	0	2233	12	3844	4002
88	0	0	2209	11	3845	4002
89	0	0	2179	9	3844	4001
90	0	0	2156	10	3844	4001
91	0	0	2154	15	3843	4001
92	0	0	2172	11	3844	3999
93	0	0	2189	11	3846	4002
94	0	0	2215	12	3845	4001
95	0	0	2250	10	3845	4001
96	0	0	2231	10	3845	4001
97	0	0	2175	11	3844	4001
98	0	0	2137	13	3844	4003
99	0	0	2136	13	3843	4001
100	0	0	2139	12	3845	4002
101	0	0	2143	10	3843	4002
102	0	0	2144	11	3845	4001
103	0	0	2137	10	3845	4001
104	0	0	2112	9	3844	4001
105	0	0	2094	11	3844	4000
106	0	0	2114	11	3844	4002
107	0	0	2141	15	3844	4001
108	0	0	2134	15	3844	4002
109	0	0	2124	12	3844	4001
110	0	0	2106	10	3844	4000
111	0	0	2109	11	3845	4002
112	0	0	2143	11	3846	4002
113	0	0	2169	15	3846	4001
114	0	0	2154	9	3844	4001
115	0	0	2128	7	3844	4001
116	0	0	2138	8	3844	4003
117	0	0	2161	12	3844	4000
118	0	0	2153	11	3844	4001
119	0	0	2144	11	3843	4001
120	0	0	2144	11	3844	4001
121	0	0	2124	12	3844	4001
122	0	0	2112	11	3847	4001
123	0	0	2100	10	3846	4003
124	0	0	2073	9	3844	4001
125	0	0	2075	11	3846	4002
126	0	0	2111	11	3843	4001
127	0	0	2140	11	3846	4000
0	0	0	2139	13	3845	4002
1	0	0	2117	9	3844	4003
2	0	0	2090	9	3844	4001
3	0	0	2076	11	3844	4002
4	0	0	2073	12	3845	4001
5	0	0	2081	13	3846	4001
6	0	0	2107	12	3844	4001
7	0	0	2116	8	3846	3999
8	0	0	2098	10	3845	3999
9	0	0	2085	12	3846	4001
10	0	0	2089	15	3845	4002
11	0	0	2098	11	3845	4002
12	0	0	2098	10	3844	4001
13	0	0	2114	12	3844	4003
14	0	0	2144	11	3845	4001
15	0	0	2150	12	3846	4002
16	0	0	2134	9	3845	4001
17	0	0	2085	7	3845	4001
18	0	0	2034	10	3844	4001
19	0	0	2029	12	3846	4001
20	0	0	2051	13	3845	4003
21	0	0	2061	13	3845	4001
22	0	0	2062	11	3844	4001
23	0	0	2085	12	3845	3999
24	0	0	2113	13	3847	4001
25	0	0	2128	10	3845	4002
26	0	0	2127	12	3844	4001
27	0	0	2124	9	3845	4003
28	0	0	2130	11	3846	4000
29	0	0	2125	13	3846	4000
30	0	0	2112	11	3844	4002
31	0	0	2102	11	3844	4001
32	0	0	2091	9	3844	4001
33	0	0	2062	9	3845	4001
34	0	0	2051	12	3845	4002
35	0	0	2055	10	3843	4003
36	0	0	2067	12	3844	4001
37	0	0	2066	10	3844	4001
38	0	0	2056	12	3844	4001
39	0	0	2050	12	3846	4001
40	0	0	2077	12	3845	4003
41	0	0	2102	12	3843	4001
42	0	0	2098	12	3843	4000
43	0	0	2073	10	3844	4002
44	0	0	2041	9	3846	4001
45	0	0	2042	10	3845	4002
46	0	0	2057	12	3844	4001
47	0	0	2055	11	3843	4001
48	0	0	2069	12	3845	4001
49	0	0	2095	14	3843	4002
50	0	0	2113	11	3845	4002
51	0	0	2108	12	3844	4001
52	0	0	2080	10	3841	4001
53	0	0	2060	11	3845	3999
54	0	0	2070	12	3845	4001
55	0	0	2091	12	3844	4000
56	0	0	2065	9	3844	4001
57	0	0	2025	10	3843	4001
58	0	0	2038	12	3844	3999
59	0	0	2059	14	3841	4002
60	0	0	2075	10	3844	4002
61	0	0	2077	13	3844	4001
62	0	0	2078	12	3841	4002
63	0	0	2074	12	3845	4001
64	0	0	2069	12	3845	4002
65	0	0	2079	12	3845	4001
66	0	0	2072	12	3845	4001
67	0	0	2078	12	3845	4001
68	0	0	2096	15	3843	4001
69	0	0	2095	13	3844	4002
70	0	0	2098	10	3844	4002
71	0	0	2094	11	3845	4001
72	0	0	2085	12	3843	4001
73	0	0	2089	12	3844	4001
74	0	0	2108	11	3844	4002
75	0	0	2116	10	3845	4001
76	0	0	2095	9	3845	4003
77	0	0	2088	12	3844	4000
78	0	0	2093	12	3845	4000
79	0	0	2087	12	3845	4002
80	0	0	2073	12	3844	4001
81	0	0	2089	12	3845	4002
82	0	0	2117	14	3845	4001
83	0	0	2148	11	3844	4001
84	0	0	2124	8	3846	4000
85	0	0	2074	8	3845	4002
86	0	0	2034	10	3844	4002
87	0	0	2029	11	3846	4003
88	0	0	2057	11	3846	4000
89	0	0	2093	11	3845	4001
90	0	0	2126	12	3844	4002
91	0	0	2115	10	3843	4001
92	0	0	2112	12	3843	4001
93	0	0	2134	11	3844	3999
94	0	0	2134	13	3844	4003
95	0	0	2129	12	3844	4001
96	0	0	2108	9	3844	4001
97	0	0	2080	10	3844	4004
98	0	0	2054	8	3845	4001
99	0	0	2041	13	3844	4002
100	0	0	2060	12	3845	4001
101	0	0	2092	11	3845	4001
102	0	0	2093	11	3844	4001
103	0	0	2097	11	3844	4002
104	0	0	2121	9	3845	4002
105	0	0	2146	10	3844	4001
106	0	0	2147	11	3844	4001
107	0	0	2129	8	3844	4001
108	0	0	2082	8	3844	4001
109	0	0	2065	12	3845	4000
110	0	0	2084	13	3844	4002
111	0	0	2101	15	3843	4000
112	0	0	2118	12	3845	4002
113	0	0	2124	10	3843	4002
114	0	0	2109	11	3846	4002
115	0	0	2097	12	3844	4001
116	0	0	2088	11	3844	4001
117	0	0	2081	11	3846	4000
118	0	0	2095	11	3844	4002
119	0	0	2096	12	3846	4003
120	0	0	2101	11	3844	4002
121	0	0	2108	11	3844	4001
122	0	0	2109	9	3844	4001
123	0	0	2120	11	3844	4000
124	0	0	2130	11	3846	4001
125	0	0	2104	10	3844	4001
126	0	0	2093	12	3844	4001
127	0	0	2131	11	3846	4002
0	0	0	2150	11	3847	4001
1	0	0	2131	9	3846	4001
2	0	0	2107	7	3845	4002
3	0	0	2087	10	3844	4001
4	0	0	2076	12	3844	4001
5	0	0	2065	11	3844	4000
6	0	0	2069	11	3843	4003
7	0	0	2092	14	3845	4002
8	0	0	2115	11	3845	4003
9	0	0	2109	9	3844	4001
10	0	0	2089	7	3843	4001
11	0	0	2088	12	3846	4002
12	0	0	2078	7	3844	4002
13	0	0	2065	11	3844	4000
14	0	0	2059	11	3845	4002
15	0	0	2040	8	3844	3999
16	0	0	2009	9	3843	4002
17	0	0	2036	7	3845	4002
18	0	0	2113	12	3845	4002
19	0	0	2139	11	3845	4000
20	0	0	2111	7	3845	4001
21	0	0	2105	11	3843	4003
22	0	0	2111	7	3844	4003
23	0	0	2110	13	3844	4001
24	0	0	2094	10	3844	4001
25	0	0	2087	11	3844	4001
26	0	0	2069	9	3843	4001
27	0	0	2041	7	3844	4001
28	0	0	2054	11	3842	4001
29	0	0	2088	11	3844	4001
30	0	0	2091	11	3844	4001
31	0	0	2078	11	3845	4002
32	0	0	2078	11	3844	4002
33	0	0	2097	12	3845	4003
34	0	0	2101	11	3843	4001
35	0	0	2107	11	3844	4001
36	0	0	2119	11	3845	4001
37	0	0	2111	7	3845	4002
38	0	0	2090	10	3846	4000
39	0	0	2070	11	3845	4003
40	0	0	2065	11	3844	4001
41	0	0	2074	10	3845	4002
42	0	0	2074	11	3844	4002
43	0	0	2055	10	3843	4001
44	0	0	2055	12	3843	4001
45	0	0	2060	11	3844	4001
46	0	0	2065	11	3843	4001
47	0	0	2080	7	3844	4002
48	0	0	2080	12	3845	4003
49	0	0	2083	9	3844	4001
50	0	0	2099	11	3844	4001
51	0	0	2109	12	3845	4001
52	0	0	2100	11	3844	4002
53	0	0	2100	12	3844	4001
54	0	0	2101	13	3845	4002
55	0	0	2103	12	3845	4004
56	0	0	2114	12	3843	4001
57	0	0	2126	9	3845	4001
58	0	0	2110	10	3844	4001
59	0	0	2091	11	3844	4001
60	0	0	2086	11	3844	4001
61	0	0	2066	9	3843	4001
62	0	0	2053	11	3844	4003
63	0	0	2056	12	3843	4000
64	0	0	2070	12	3844	4001
65	0	0	2070	11	3843	4000
66	0	0	2043	8	3843	4001
67	0	0	2039	8	3844	4002
68	0	0	2063	11	3844	4002
69	0	0	2084	12	3844	4001
70	0	0	2086	11	3845	4002
71	0	0	2073	11	3845	4002
72	0	0	2084	9	3845	4002
73	0	0	2104	12	3844	4001
74	0	0	2113	15	3843	4001
75	0	0	2125	13	3843	4001
76	0	0	2126	12	3845	4001
77	0	0	2096	8	3845	4002
78	0	0	2056	9	3844	4001
79	0	0	2034	10	3844	4003
80	0	0	2026	10	3843	4000
81	0	0	2034	10	3842	4001
82	0	0	2070	8	3845	4002
83	0	0	2104	12	3844	4001
84	0	0	2114	13	3846	4003
85	0	0	2113	10	3844	4001
86	0	0	2106	12	3845	4001
87	0	0	2090	10	3846	4003
88	0	0	2073	10	3844	4000
89	0	0	2053	10	3844	4001
90	0	0	2037	10	3844	4001
91	0	0	2020	9	3845	4002
92	0	0	2013	8	3844	4002
93	0	0	2034	12	3844	4001
94	0	0	2070	12	3847	4003
95	0	0	2094	11	3845	4002
96	0	0	2090	9	3842	4001
97	0	0	2059	8	3846	4002
98	0	0	2052	12	3844	3999
99	0	0	2060	11	3844	4001
100	0	0	2075	11	3844	4001
101	0	0	2084	12	3845	4001
102	0	0	2080	12	3846	4002
103	0	0	2050	9	3844	3999
104	0	0	2035	12	3844	4001
105	0	0	2059	13	3843	4001
106	0	0	2094	11	3845	4001
107	0	0	2100	8	3845	4001
108	0	0	2076	8	3846	4003
109	0	0	2045	9	3844	4001
110	0	0	2032	11	3844	4002
111	0	0	2042	12	3844	4002
112	0	0	2093	12	3844	4003
113	0	0	2140	11	3843	4001
114	0	0	2137	11	3843	4001
115	0	0	2100	8	3843	4001
116	0	0	2065	9	3844	4002
117	0	0	2067	8	3845	4002
118	0	0	2083	11	3844	4001
119	0	0	2081	11	3844	4001
120	0	0	2083	13	3843	4001
121	0	0	2086	12	3844	4001
122	0	0	2100	11	3845	4002
123	0	0	2105	11	3844	4001
124	0	0	2075	8	3844	4001
125	0	0	2059	12	3845	4001
126	0	0	2072	11	3845	4001
127	0	0	2076	8	3844	4002
0	0	0	2037	7	3843	4002
1	0	0	1998	9	3844	4001
2	0	0	1988	12	3843	4001
3	0	0	1989	11	3844	4001
4	0	0	2009	12	3845	4001
5	0	0	2043	13	3848	4000
6	0	0	2070	12	3844	4001
7	0	0	2071	12	3845	4001
8	0	0	2081	11	3845	4001
9	0	0	2095	10	3848	4003
10	0	0	2098	11	3844	4001
11	0	0	2078	10	3844	4001
12	0	0	2077	13	3843	4001
13	0	0	2070	12	3844	4001
14	0	0	2067	16	3846	4002
15	0	0	2077	15	3845	4000
16	0	0	2074	12	3846	4003
17	0	0	2076	11	3844	4002
18	0	0	2084	12	3844	4001
19	0	0	2084	11	3845	4002
20	0	0	2053	9	3844	4001
21	0	0	2032	10	3846	4003
22	0	0	2040	11	3845	4003
23	0	0	2078	12	3842	4001
24	0	0	2106	12	3845	4002
25	0	0	2111	12	3844	4001
26	0	0	2089	8	3847	4002
27	0	0	2059	10	3846	4004
28	0	0	2062	12	3846	4000
29	0	0	2084	11	3846	4003
30	0	0	2091	12	3844	4001
31	0	0	2070	8	3845	4003
32	0	0	2052	11	3846	4000
33	0	0	2039	11	3844	4001
34	0	0	2008	9	3844	4002
35	0	0	1999	11	3843	4001
36	0	0	2023	11	3843	4002
37	0	0	2056	14	3843	4003
38	0	0	2070	13	3844	4001
39	0	0	2065	12	3846	4002
40	0	0	2064	12	3844	4001
41	0	0	2060	12	3844	4001
42	0	0	2054	12	3845	4002
43	0	0	2060	11	3844	4001
44	0	0	2065	11	3844	4002
45	0	0	2053	10	3844	4002
46	0	0	2033	11	3845	4001
47	0	0	2027	12	3844	4001
48	0	0	2040	11	3845	4003
49	0	0	2065	12	3845	4002
50	0	0	2105	12	3844	4001
51	0	0	2120	11	3844	4001
52	0	0	2087	8	3844	4002
53	0	0	2039	8	3845	4001
54	0	0	2019	11	3843	4002
55	0	0	2018	12	3844	4001
56	0	0	2049	12	3844	4001
57	0	0	2087	12	3845	4001
58	0	0	2107	11	3846	4001
59	0	0	2093	9	3845	4002
60	0	0	2069	9	3846	4002
61	0	0	2062	12	3845	4001
62	0	0	2072	13	3844	4001
63	0	0	2084	12	3846	4002
64	0	0	2080	11	3844	4002
65	0	0	2055	9	3843	4001
66	0	0	2013	7	3844	4001
67	0	0	1975	10	3845	4002
68	0	0	2008	10	3843	4000
69	0	0	2061	12	3844	4003
70	0	0	2050	9	3843	4001
71	0	0	2021	11	3844	4003
72	0	0	1996	8	3844	4000
73	0	0	1986	10	3845	4000
74	0	0	1992	11	3845	4002
75	0	0	2018	12	3844	4001
76	0	0	2056	12	3844	4001
77	0	0	2062	14	3844	4003
78	0	0	2066	11	3847	4001
79	0	0	2063	7	3844	4003
80	0	0	2050	11	3845	4002
81	0	0	2043	12	3844	4001
82	0	0	2049	15	3843	4001
83	0	0	2054	13	3843	4000
84	0	0	2051	12	3843	4002
85	0	0	2045	11	3843	4001
86	0	0	2037	11	3844	4003
87	0	0	2014	9	3845	4001
88	0	0	2022	12	3843	4001
89	0	0	2049	11	3844	4003
90	0	0	2073	12	3844	4001
91	0	0	2082	12	3844	4001
92	0	0	2084	15	3844	4001
93	0	0	2081	11	3847	4001
94	0	0	2073	11	3843	4002
95	0	0	2075	12	3844	4000
96	0	0	2068	12	3844	4001
97	0	0	2064	11	3844	4002
98	0	0	2050	10	3845	4001
99	0	0	2020	9	3844	4001
100	0	0	2006	11	3845	4002
101	0	0	2014	12	3845	4001
102	0	0	2053	11	3844	4002
103	0	0	2094	11	3844	4003
104	0	0	2099	13	3844	4001
105	0	0	2102	12	3844	4001
106	0	0	2104	11	3844	4000
107	0	0	2102	11	3844	4001
108	0	0	2107	12	3845	4000
109	0	0	2102	11	3846	4002
110	0	0	2080	10	3845	4001
111	0	0	2062	12	3844	4003
112	0	0	2052	10	3846	4004
113	0	0	2039	10	3844	4002
114	0	0	2024	11	3844	4002
115	0	0	2021	12	3843	4001
116	0	0	2026	13	3845	4003
117	0	0	2035	13	3844	4001
118	0	0	2054	11	3844	4001
119	0	0	2081	13	3846	4002
120	0	0	2114	11	3844	4001
121	0	0	2121	11	3844	4001
122	0	0	2084	8	3844	4001
123	0	0	2049	10	3845	4003
124	0	0	2032	13	3845	4003
125	0	0	2039	12	3845	4003
126	0	0	2071	11	3843	4001
127	0	0	2079	13	3844	4001
0	0	0	2074	11	3844	4001
1	0	0	2076	12	3845	4002
2	0	0	2090	12	3844	4002
3	0	0	2096	9	3846	3999
4	0	0	2099	9	3846	3999
5	0	0	2099	12	3844	4003
6	0	0	2111	11	3844	4003
7	0	0	2150	15	3845	3999
8	0	0	2187	11	3843	4001
9	0	0	2177	7	3845	4001
10	0	0	2146	9	3844	4001
11	0	0	2105	8	3845	4003
12	0	0	2084	11	3844	4001
13	0	0	2067	10	3842	4002
14	0	0	2056	15	3844	4001
15	0	0	2063	12	3843	4002
16	0	0	2061	12	3845	4002
17	0	0	2070	11	3844	4001
18	0	0	2082	11	3844	4001
19	0	0	2082	11	3845	4001
20	0	0	2064	9	3846	4003
21	0	0	2042	11	3845	4003
22	0	0	2044	12	3845	4003
23	0	0	2050	15	3843	4001
24	0	0	2039	11	3844	4001
25	0	0	2029	13	3844	4002
26	0	0	2033	13	3845	4002
27	0	0	2073	12	3843	4001
28	0	0	2081	11	3844	4001
29	0	0	2060	10	3844	4001
30	0	0	2068	12	3845	4001
31	0	0	2066	11	3846	4002
32	0	0	2048	11	3845	3999
33	0	0	2039	11	3844	4001
34	0	0	2055	12	3845	4001
35	0	0	2076	11	3845	4003
36	0	0	2074	11	3846	4001
37	0	0	2051	9	3845	4002
38	0	0	2046	9	3844	4001
39	0	0	2046	11	3844	4001
40	0	0	2050	13	3844	4004
41	0	0	2053	11	3845	4002
42	0	0	2035	9	3844	4001
43	0	0	2010	10	3843	4001
44	0	0	1980	7	3846	3999
45	0	0	1966	11	3845	4004
46	0	0	1981	12	3845	4003
47	0	0	2006	11	3844	4001
48	0	0	2001	10	3844	4001
49	0	0	1986	9	3846	4001
50	0	0	1995	11	3845	4004
51	0	0	2009	13	3846	4003
52	0	0	2016	11	3844	4001
53	0	0	2011	12	3845	3999
54	0	0	1998	12	3844	4001
55	0	0	2012	13	3843	4001
56	0	0	2024	12	3844	4002
57	0	0	2021	15	3844	4002
58	0	0	2020	13	3843	4001
59	0	0	2024	12	3843	4001
60	0	0	2029	10	3842	4002
61	0	0	2017	10	3845	4003
62	0	0	1977	10	3845	4000
63	0	0	1939	8	3845	4001
64	0	0	1922	8	3846	4001
65	0	0	1922	11	3843	4002
66	0	0	1946	12	3843	4002
67	0	0	1989	11	3843	4001
68	0	0	1999	11	3844	4001
69	0	0	1991	12	3843	4001
70	0	0	2003	12	3844	4001
71	0	0	2042	11	3845	4003
72	0	0	2104	12	3844	4001
73	0	0	2125	12	3844	4001
74	0	0	2076	8	3843	4001
75	0	0	2004	7	3843	4002
76	0	0	1961	8	3843	4003
77	0	0	1957	11	3843	4006
78	0	0	1976	12	3844	4001
79	0	0	1985	12	3843	4001
80	0	0	1993	11	3844	4001
81	0	0	2017	11	3848	4001
82	0	0	2022	12	3845	3979
83	0	0	2017	12	3845	3957
84	0	0	1999	8	3843	3934
85	0	0	1970	8	3843	3912
86	0	0	1953	16	3841	3890
87	0	0	1950	14	3844	3866
88	0	0	1949	12	3843	3846
89	0	0	1966	11	3845	3824
90	0	0	2000	11	3844	3801
91	0	0	2037	11	3845	3779
92	0	0	2058	12	3844	3756
93	0	0	2045	10	3845	3735
94	0	0	2028	12	3845	3713
95	0	0	2028	12	3844	3691
96	0	0	2030	11	3846	3669
97	0	0	2029	12	3844	3646
98	0	0	2017	12	3845	3625
99	0	0	2002	8	3846	3601
100	0	0	1968	9	3846	3580
101	0	0	1971	12	3846	3559
102	0	0	2021	12	3844	3537
103	0	0	2049	11	3846	3518
104	0	0	2021	8	3843	3495
105	0	0	1980	9	3844	3475
106	0	0	1972	11	3843	3454
107	0	0	2006	12	3843	3433
108	0	0	2035	12	3844	3413
109	0	0	2030	11	3844	3392
110	0	0	2019	10	3844	3372
111	0	0	2001	10	3843	3353
112	0	0	2003	12	3844	3333
113	0	0	2024	12	3844	3314
114	0	0	2044	11	3842	3296
115	0	0	2083	13	3844	3276
116	0	0	2103	11	3844	3256
117	0	0	2106	11	3845	3238
118	0	0	2084	13	3845	3218
119	0	0	2075	11	3844	3200
120	0	0	2079	12	3845	3183
121	0	0	2111	12	3842	3164
122	0	0	2144	13	3844	3146
123	0	0	2179	11	3844	3128
124	0	0	2232	12	3841	3110
125	0	0	2281	13	3845	3093
126	0	0	2303	12	3843	3075
127	0	0	2297	11	3843	3058
0	0	0	2292	13	3844	3042
1	0	0	2307	12	3845	3025
2	0	0	2335	12	3845	3007
3	0	0	2348	12	3844	2990
4	0	0	2357	12	3844	2973
5	0	0	2363	12	3844	2957
6	0	0	2359	13	3845	2942
7	0	0	2367	12	3844	2925
8	0	0	2400	14	3842	2910
9	0	0	2446	12	3845	2895
10	0	0	2477	12	3842	2878
11	0	0	2455	9	3843	2863
12	0	0	2417	9	3844	2847
13	0	0	2392	11	3845	2833
14	0	0	2393	11	3844	2817
15	0	0	2400	11	3844	2803
16	0	0	2419	12	3843	2788
17	0	0	2419	11	3845	2773
18	0	0	2380	9	3843	2759
19	0	0	2345	8	3843	2745
20	0	0	2304	7	3845	2730
21	0	0	2241	7	3842	2716
22	0	0	2163	7	3844	2702
23	0	0	2095	9	3845	2689
24	0	0	2048	8	3843	2674
25	0	0	2018	7	3846	2661
26	0	0	1991	8	3845	2649
27	0	0	1962	8	3845	2635
28	0	0	1957	11	3843	2620
29	0	0	1964	11	3845	2608
30	0	0	1967	15	3843	2595
31	0	0	1961	9	3843	2582
32	0	0	1955	11	3845	2569
33	0	0	1947	10	3845	2555
34	0	0	1949	12	3844	2543
35	0	0	1960	12	3845	2530
36	0	0	1963	11	3844	2518
37	0	0	1951	8	3844	2507
38	0	0	1909	8	3846	2494
39	0	0	1916	8	3843	2481
40	0	0	1973	12	3844	2470
41	0	0	2032	11	3842	2458
42	0	0	2027	8	3844	2446
43	0	0	1974	6	3844	2436
44	0	0	1932	8	3844	2423
45	0	0	1921	9	3846	2412
46	0	0	1937	11	3845	2401
47	0	0	1965	11	3844	2389
48	0	0	1980	11	3845	2378
49	0	0	1983	11	3844	2366
50	0	0	1977	9	3845	2356
51	0	0	1977	12	3843	2345
52	0	0	1966	10	3845	2334
53	0	0	1962	9	3845	2324
54	0	0	1979	11	3845	2313
55	0	0	1989	12	3845	2303
56	0	0	1964	8	3845	2293
57	0	0	1949	11	3845	2283
58	0	0	1956	11	3845	2272
59	0	0	1944	11	3843	2262
60	0	0	1947	9	3844	2252
61	0	0	1953	11	3844	2242
62	0	0	1971	12	3844	2232
63	0	0	1968	12	3845	2221
64	0	0	1953	9	3844	2212
65	0	0	1932	8	3846	2203
66	0	0	1906	8	3846	2193
67	0	0	1864	8	3845	2184
68	0	0	1847	10	3845	2174
69	0	0	1854	11	3844	2165
70	0	0	1883	12	3843	2155
71	0	0	1917	12	3845	2146
72	0	0	1946	12	3844	2136
73	0	0	1962	13	3845	2128
74	0	0	1984	11	3844	2119
75	0	0	1996	11	3844	2109
76	0	0	1999	12	3843	2101
77	0	0	1979	7	3844	2092
78	0	0	1929	8	3843	2083
79	0	0	1905	10	3847	2074
80	0	0	1910	12	3844	2066
81	0	0	1937	12	3844	2058
82	0	0	1949	11	3845	2050
83	0	0	1926	8	3844	2040
84	0	0	1924	12	3844	2032
85	0	0	1939	10	3845	2023
86	0	0	1949	11	3846	2015
87	0	0	1945	11	3845	2007
88	0	0	1950	10	3843	1999
89	0	0	1968	11	3844	1991
90	0	0	1990	12	3844	1983
91	0	0	1985	12	3845	1975
92	0	0	1958	9	3844	1967
93	0	0	1923	8	3843	1959
94	0	0	1900	9	3844	1952
95	0	0	1894	11	3844	1944
96	0	0	1928	11	3845	1936
97	0	0	1967	11	3844	1928
98	0	0	1973	11	3843	1921
99	0	0	1952	9	3845	1914
100	0	0	1932	11	3844	1905
101	0	0	1898	8	3845	1898
102	0	0	1892	11	3847	1892
103	0	0	1906	12	3843	1885
104	0	0	1932	13	3845	1877
105	0	0	1956	9	3847	1871
106	0	0	1973	12	3846	1862
107	0	0	1991	11	3844	1856
108	0	0	1975	7	3844	1849
109	0	0	1940	9	3844	1842
110	0	0	1940	9	3846	1834
111	0	0	1952	11	3845	1827
112	0	0	1978	12	3845	1821
113	0	0	2004	14	3843	1814
114	0	0	2014	11	3845	1808
115	0	0	2008	11	3845	1801
116	0	0	2003	10	3846	1795
117	0	0	1975	8	3845	1789
118	0	0	1938	8	3846	1781
119	0	0	1901	8	3844	1775
120	0	0	1902	11	3846	1768
121	0	0	1927	12	3846	1762
122	0	0	1932	12	3846	1756
123	0	0	1918	10	3844	1749
124	0	0	1915	12	3844	1743
125	0	0	1932	11	3844	1737
126	0	0	1953	14	3845	1731
127	0	0	1983	11	3844	1725
0	0	0	2000	12	3843	1718
1	0	0	1997	11	3844	1711
2	0	0	1972	7	3844	1705
3	0	0	1965	13	3844	1699
4	0	0	1976	11	3846	1694
5	0	0	1980	12	3844	1688
6	0	0	1963	8	3846	1682
7	0	0	1912	7	3845	1676
8	0	0	1879	11	3845	1670
9	0	0	1881	11	3846	1665
10	0	0	1887	12	3844	1659
11	0	0	1905	11	3844	1653
12	0	0	1916	11	3844	1647
13	0	0	1933	12	3845	1640
14	0	0	1966	14	3845	1636
15	0	0	1995	11	3844	1630
16	0	0	1990	10	3844	1625
17	0	0	1960	7	3844	1620
18	0	0	1937	9	3844	1614
19	0	0	1926	12	3845	1609
20	0	0	1942	11	3844	1604
21	0	0	1986	11	3846	1598
22	0	0	1998	11	3844	1592
23	0	0	1996	12	3845	1586
24	0	0	2002	12	3845	1583
25	0	0	1987	9	3848	1576
26	0	0	1964	10	3844	1572
27	0	0	1953	11	3845	1566
28	0	0	1945	11	3844	1562
29	0	0	1950	12	3845	1557
30	0	0	1959	11	3844	1551
31	0	0	1961	11	3839	1546
32	0	0	1969	12	3844	1542
33	0	0	1988	11	3845	1536
34	0	0	2002	12	3844	1531
35	0	0	1994	10	3846	1525
36	0	0	1971	9	3844	1521
37	0	0	1963	11	3846	1516
38	0	0	1935	9	3846	1511
39	0	0	1898	7	3846	1506
40	0	0	1906	11	3846	1501
41	0	0	1954	13	3845	1496
42	0	0	1993	12	3844	1492
43	0	0	2013	12	3844	1487
44	0	0	2030	10	3846	1483
45	0	0	2035	11	3846	1478
46	0	0	2021	9	3844	1473
47	0	0	1992	9	3844	1468
48	0	0	1984	13	3844	1464
49	0	0	1984	11	3846	1459
50	0	0	1998	12	3844	1454
51	0	0	2022	11	3843	1450
52	0	0	2029	12	3841	1446
53	0	0	2036	12	3842	1441
54	0	0	2030	12	3845	1437
55	0	0	2022	12	3847	1432
56	0	0	2007	10	3845	1428
57	0	0	1984	9	3845	1425
58	0	0	1960	9	3847	1420
59	0	0	1952	10	3846	1415
60	0	0	1959	12	3846	1410
61	0	0	1986	11	3846	1406
62	0	0	2013	16	3844	1403
63	0	0	2020	10	3846	1398
64	0	0	2004	9	3845	1393
65	0	0	1981	10	3844	1390
66	0	0	1967	11	3844	1386
67	0	0	1975	12	3843	1382
68	0	0	1988	12	3844	1378
69	0	0	1955	7	3844	1374
70	0	0	1912	9	3847	1370
71	0	0	1931	11	3845	1366
72	0	0	1985	11	3844	1362
73	0	0	2067	11	3844	1358
74	0	0	2126	11	3845	1354
75	0	0	2126	11	3846	1349
76	0	0	2078	8	3845	1346
77	0	0	2027	8	3844	1342
78	0	0	1999	10	3845	1338
79	0	0	1998	10	3845	1335
80	0	0	2012	11	3847	1330
81	0	0	2045	12	3843	1327
82	0	0	2076	11	3844	1324
83	0	0	2074	7	3845	1318
84	0	0	2041	8	3845	1314
85	0	0	2007	10	3846	1311
86	0	0	2003	11	3844	1307
87	0	0	2022	12	3844	1304
88	0	0	2030	9	3845	1300
89	0	0	2038	11	3845	1297
90	0	0	2029	11	3845	1293
91	0	0	2019	11	3845	1290
92	0	0	2014	12	3842	1287
93	0	0	2019	11	3845	1283
94	0	0	2032	11	3846	1279
95	0	0	2057	12	3845	1275
96	0	0	2072	12	3846	1272
97	0	0	2073	12	3845	1267
98	0	0	2075	12	3845	1265
99	0	0	2095	13	3844	1262
100	0	0	2078	8	3845	1257
101	0	0	2010	8	3845	1254
102	0	0	1972	10	3844	1252
103	0	0	1973	7	3843	1248
104	0	0	2003	12	3845	1246
105	0	0	2039	11	3847	1240
106	0	0	2064	12	3844	1238
107	0	0	2084	11	3844	1235
108	0	0	2098	11	3844	1231
109	0	0	2090	9	3845	1228
110	0	0	2059	8	3845	1224
111	0	0	2037	12	3848	1221
112	0	0	2064	14	3844	1218
113	0	0	2073	11	3843	1215
114	0	0	2044	9	3845	1211
115	0	0	2021	10	3846	1207
116	0	0	2028	11	3844	1205
117	0	0	2050	11	3846	1201
118	0	0	2055	11	3845	1198
119	0	0	2046	9	3844	1195
120	0	0	2016	9	3844	1192
121	0	0	1996	10	3847	1190
122	0	0	1985	11	3844	1187
123	0	0	1998	10	3843	1183
124	0	0	2002	13	3845	1181
125	0	0	2012	12	3846	1177
126	0	0	2021	11	3845	1174
127	0	0	2027	11	3844	1171
0	0	0	2028	10	3845	1167
1	0	0	2031	12	3845	1166
2	0	0	2036	10	3845	1162
3	0	0	2041	11	3843	1159
4	0	0	2029	9	3845	1158
5	0	0	2001	5	3844	1153
6	0	0	1991	12	3845	1150
7	0	0	1996	11	3843	1148
8	0	0	2002	12	3844	1144
9	0	0	2028	12	3845	1141
10	0	0	2069	11	3845	1137
11	0	0	2093	11	3845	1137
12	0	0	2059	8	3843	1132
13	0	0	2006	8	3844	1130
14	0	0	1968	9	3845	1127
15	0	0	1957	10	3845	1123
16	0	0	1978	13	3845	1122
17	0	0	2016	12	3845	1119
18	0	0	2016	10	3843	1116
19	0	0	2000	11	3845	1113
20	0	0	2002	12	3845	1110
21	0	0	2006	12	3843	1108
22	0	0	2034	11	3845	1105
23	0	0	2063	12	3844	1103
24	0	0	2044	9	3845	1099
25	0	0	2019	6	3843	1097
26	0	0	1988	8	3845	1094
27	0	0	1955	9	3844	1092
28	0	0	1946	11	3844	1089
29	0	0	1961	12	3844	1087
30	0	0	1960	11	3843	1084
31	0	0	1967	11	3845	1082
32	0	0	1965	11	3844	1078
33	0	0	1951	8	3844	1076
34	0	0	1951	11	3839	1074
35	0	0	1957	10	3843	1071
36	0	0	1967	12	3844	1068
37	0	0	1995	12	3844	1067
38	0	0	2003	15	3843	1063
39	0	0	1988	9	3843	1061
40	0	0	1946	7	3844	1059
41	0	0	1926	10	3845	1056
42	0	0	1932	12	3844	1053
43	0	0	1959	11	3845	1051
44	0	0	1984	7	3845	1048
45	0	0	2006	11	3843	1047
46	0	0	1975	7	3845	1045
47	0	0	1917	8	3845	1043
48	0	0	1910	15	3844	1039
49	0	0	1926	11	3846	1036
50	0	0	1926	10	3846	1034
51	0	0	1943	11	3845	1033
52	0	0	1949	11	3844	1030
53	0	0	1948	11	3843	1027
54	0	0	1957	12	3844	1024
55	0	0	1968	11	3844	1022
56	0	0	1966	11	3845	1020
57	0	0	1961	11	3844	1019
58	0	0	1949	10	3844	1015
59	0	0	1926	10	3845	1012
60	0	0	1917	15	3845	1010
61	0	0	1915	12	3845	999
62	0	0	1919	13	3844	1007
63	0	0	1905	11	3844	1004
64	0	0	1878	9	3846	1000
65	0	0	1863	15	3845	999
66	0	0	1890	11	3845	999
67	0	0	1938	12	3844	996
68	0	0	1976	15	3843	993
69	0	0	1998	11	3844	990
70	0	0	2005	11	3845	990
71	0	0	1975	8	3844	988
72	0	0	1934	8	3845	984
73	0	0	1906	7	3844	981
74	0	0	1887	9	3845	979
75	0	0	1871	9	3843	978
76	0	0	1870	11	3846	975
77	0	0	1874	11	3844	974
78	0	0	1875	11	3844	971
79	0	0	1895	10	3845	967
80	0	0	1911	11	3845	966
81	0	0	1919	11	3845	966
82	0	0	1897	9	3844	963
83	0	0	1882	12	3844	961
84	0	0	1883	11	3843	957
85	0	0	1885	11	3844	956
86	0	0	1891	11	3845	955
87	0	0	1907	12	3844	954
88	0	0	1932	13	3844	950
89	0	0	1938	9	3842	947
90	0	0	1894	8	3845	946
91	0	0	1869	10	3845	946
92	0	0	1884	11	3844	943
93	0	0	1903	10	3845	940
94	0	0	1901	11	3843	937
95	0	0	1918	11	3845	936
96	0	0	1953	12	3845	935
97	0	0	1994	11	3846	933
98	0	0	1965	8	3845	930
99	0	0	1893	7	3844	928
100	0	0	1850	9	3845	928
101	0	0	1836	11	3845	927
102	0	0	1841	10	3844	924
103	0	0	1848	12	3845	920
104	0	0	1863	13	3844	919
105	0	0	1870	9	3844	917
106	0	0	1853	9	3845	914
107	0	0	1849	11	3844	914
108	0	0	1877	11	3846	910
109	0	0	1911	14	3845	908
110	0	0	1945	12	3845	907
111	0	0	1964	11	3845	905
112	0	0	1958	11	3844	905
113	0	0	1940	10	3846	902
114	0	0	1921	8	3844	900
115	0	0	1898	10	3845	897
116	0	0	1899	11	3846	896
117	0	0	1909	11	3846	893
118	0	0	1917	12	3844	892
119	0	0	1910	11	3844	891
120	0	0	1925	12	3845	888
121	0	0	1948	11	3845	887
122	0	0	1950	11	3844	886
123	0	0	1934	11	3844	883
124	0	0	1939	13	3844	882
125	0	0	1944	10	3844	880
126	0	0	1947	11	3845	879
127	0	0	1942	12	3845	875
0	0	0	1951	12	3845	874
1	0	0	1962	11	3845	873
2	0	0	1957	8	3845	871
3	0	0	1940	9	3846	869
4	0	0	1923	10	3844	868
5	0	0	1908	13	3846	866
6	0	0	1920	10	3844	864
7	0	0	1904	10	3845	862
8	0	0	1903	12	3845	860
9	0	0	1921	12	3844	858
10	0	0	1927	11	3845	858
11	0	0	1919	12	3844	856
12	0	0	1922	13	3845	856
13	0	0	1930	12	3845	852
14	0	0	1923	11	3842	853
15	0	0	1910	11	3844	848
16	0	0	1896	11	3844	847
17	0	0	1887	12	3846	847
18	0	0	1892	12	3845	844
19	0	0	1906	11	3846	842
20	0	0	1931	13	3845	841
21	0	0	1955	12	3846	839
22	0	0	1959	11	3846	837
23	0	0	1959	11	3844	836
24	0	0	1938	9	3844	833
25	0	0	1916	10	3842	833
26	0	0	1893	9	3843	831
27	0	0	1888	10	3846	831
28	0	0	1904	12	3845	827
29	0	0	1921	12	3844	826
30	0	0	1920	12	3844	824
31	0	0	1922	12	3845	823
32	0	0	1946	12	3846	823
33	0	0	1961	11	3844	820
34	0	0	1963	11	3845	818
35	0	0	1947	10	3844	817
36	0	0	1924	9	3844	816
37	0	0	1909	14	3845	814
38	0	0	1894	13	3846	812
39	0	0	1875	9	3844	810
40	0	0	1873	11	3844	809
41	0	0	1905	11	3844	809
42	0	0	1955	12	3846	807
43	0	0	1980	11	3845	805
44	0	0	1964	9	3844	802
45	0	0	1936	9	3844	801
46	0	0	1919	8	3843	799
47	0	0	1905	10	3845	799
48	0	0	1921	11	3845	798
49	0	0	1949	11	3844	795
50	0	0	1948	10	3844	794
51	0	0	1921	9	3844	795
52	0	0	1921	10	3846	794
53	0	0	1965	10	3845	791
54	0	0	2005	12	3844	788
55	0	0	1998	9	3844	787
56	0	0	1964	8	3845	785
57	0	0	1935	9	3846	784
58	0	0	1925	11	3845	783
59	0	0	1921	12	3844	781
60	0	0	1920	9	3846	780
61	0	0	1902	5	3846	779
62	0	0	1904	14	3844	776
63	0	0	1925	11	3845	776
64	0	0	1934	10	3845	775
65	0	0	1930	15	3843	773
66	0	0	1933	11	3844	773
67	0	0	1931	15	3845	769
68	0	0	1918	9	3845	770
69	0	0	1902	10	3845	768
70	0	0	1904	11	3845	767
71	0	0	1908	12	3844	765
72	0	0	1899	11	3845	764
73	0	0	1896	10	3845	762
74	0	0	1913	11	3844	760
75	0	0	1929	11	3844	760
76	0	0	1925	12	3843	758
77	0	0	1913	11	3845	757
78	0	0	1923	11	3847	755
79	0	0	1939	9	3843	753
80	0	0	1924	8	3845	753
81	0	0	1921	11	3844	750
82	0	0	1940	15	3845	750
83	0	0	1947	11	3844	748
84	0	0	1931	9	3844	750
85	0	0	1922	9	3844	745
86	0	0	1905	10	3845	745
87	0	0	1884	7	3845	744
88	0	0	1867	8	3845	743
89	0	0	1879	11	3844	741
90	0	0	1902	11	3844	741
91	0	0	1920	11	3844	738
92	0	0	1930	11	3846	738
93	0	0	1914	9	3844	736
94	0	0	1912	11	3845	735
95	0	0	1929	12	3844	734
96	0	0	1945	12	3844	732
97	0	0	1957	15	3844	730
98	0	0	1961	10	3845	731
99	0	0	1949	9	3844	728
100	0	0	1934	12	3844	728
101	0	0	1925	8	3844	726
102	0	0	1912	11	3845	726
103	0	0	1913	10	3846	725
104	0	0	1923	14	3843	723
105	0	0	1933	12	3844	722
106	0	0	1955	10	3843	720
107	0	0	1946	11	3844	719
108	0	0	1925	9	3845	718
109	0	0	1918	12	3844	718
110	0	0	1921	10	3846	715
111	0	0	1929	7	3842	715
112	0	0	1921	9	3844	714
113	0	0	1883	8	3845	712
114	0	0	1868	12	3843	712
115	0	0	1886	13	3844	707
116	0	0	1917	12	3844	707
117	0	0	1963	11	3845	708
118	0	0	1992	12	3845	706
119	0	0	1967	9	3845	703
120	0	0	1918	8	3845	704
121	0	0	1889	10	3845	702
122	0	0	1897	11	3846	701
123	0	0	1899	11	3844	700
124	0	0	1904	12	3844	700
125	0	0	1919	14	3845	697
126	0	0	1948	7	3843	697
127	0	0	1985	11	3844	695
0	0	0	2011	12	3845	695
1	0	0	1985	8	3844	694
2	0	0	1927	8	3844	692
3	0	0	1882	9	3844	692
4	0	0	1867	9	3844	691
5	0	0	1869	12	3845	689
6	0	0	1891	12	3845	688
7	0	0	1911	11	3844	687
8	0	0	1931	10	3844	686
9	0	0	1954	11	3845	685
10	0	0	1969	10	3845	683
11	0	0	1973	10	3845	682
12	0	0	1944	8	3844	682
13	0	0	1934	12	3844	680
14	0	0	1927	8	3845	679
15	0	0	1882	8	3845	678
16	0	0	1840	8	3844	678
17	0	0	1819	7	3844	676
18	0	0	1835	12	3844	675
19	0	0	1882	12	3844	675
20	0	0	1935	11	3845	674
21	0	0	1969	12	3844	671
22	0	0	1974	11	3845	671
23	0	0	1974	10	3845	670
24	0	0	1955	5	3845	670
25	0	0	1929	9	3845	666
26	0	0	1898	8	3843	667
27	0	0	1884	12	3844	666
28	0	0	1903	11	3845	666
29	0	0	1926	9	3844	665
30	0	0	1927	12	3845	662
31	0	0	1931	16	3843	663
32	0	0	1904	8	3844	660
33	0	0	1866	7	3844	659
34	0	0	1859	8	3844	659
35	0	0	1886	13	3844	657
36	0	0	1923	12	3843	655
37	0	0	1951	11	3844	655
38	0	0	1944	7	3844	654
39	0	0	1918	7	3844	655
40	0	0	1880	8	3845	652
41	0	0	1874	11	3846	651
42	0	0	1892	11	3845	650
43	0	0	1920	10	3845	649
44	0	0	1939	11	3844	648
45	0	0	1937	10	3845	645
46	0	0	1917	10	3847	647
47	0	0	1922	13	3845	645
48	0	0	1915	11	3843	643
49	0	0	1885	10	3844	643
50	0	0	1872	11	3845	642
51	0	0	1888	11	3844	640
52	0	0	1923	11	3845	640
53	0	0	1939	12	3843	640
54	0	0	1916	8	3845	638
55	0	0	1880	7	3846	638
56	0	0	1866	12	3844	635
57	0	0	1892	14	3845	633
58	0	0	1920	11	3846	636
59	0	0	1948	8	3845	634
60	0	0	1952	11	3845	632
61	0	0	1928	9	3844	628
62	0	0	1947	11	3844	631
63	0	0	1976	12	3845	632
64	0	0	1974	8	3844	630
65	0	0	1957	8	3845	627
66	0	0	1963	11	3844	625
67	0	0	1980	12	3844	627
68	0	0	1971	9	3845	624
69	0	0	1944	8	3844	624
70	0	0	1921	14	3845	623
71	0	0	1937	11	3846	622
72	0	0	1932	9	3845	621
73	0	0	1914	10	3845	621
74	0	0	1920	13	3844	619
75	0	0	1942	10	3846	619
76	0	0	1944	10	3844	615
77	0	0	1922	8	3844	617
78	0	0	1916	8	3844	616
79	0	0	1936	11	3843	615
80	0	0	1948	10	3845	614
81	0	0	1952	12	3844	611
82	0	0	1951	15	3843	612
83	0	0	1963	11	3846	614
84	0	0	1942	8	3845	614
85	0	0	1904	6	3845	609
86	0	0	1883	10	3844	608
87	0	0	1881	11	3844	608
88	0	0	1889	11	3844	607
89	0	0	1896	16	3844	605
90	0	0	1905	10	3846	605
91	0	0	1917	10	3846	604
92	0	0	1923	11	3845	603
93	0	0	1939	11	3845	603
94	0	0	1934	8	3846	602
95	0	0	1928	14	3844	601
96	0	0	1943	11	3844	600
97	0	0	1958	12	3844	599
98	0	0	1950	7	3844	599
99	0	0	1940	11	3843	596
100	0	0	1932	8	3845	597
101	0	0	1920	11	3844	592
102	0	0	1901	9	3844	595
103	0	0	1866	5	3844	594
104	0	0	1858	12	3844	593
105	0	0	1901	10	3846	593
106	0	0	1967	13	3844	592
107	0	0	1978	9	3845	590
108	0	0	1945	11	3845	591
109	0	0	1923	7	3843	589
110	0	0	1920	10	3846	588
111	0	0	1913	11	3844	587
112	0	0	1904	15	3843	586
113	0	0	1906	10	3846	587
114	0	0	1909	14	3844	584
115	0	0	1925	10	3845	584
116	0	0	1959	11	3843	584
117	0	0	1978	12	3843	583
118	0	0	1975	11	3843	581
119	0	0	1952	13	3843	580
120	0	0	1930	7	3845	580
121	0	0	1916	11	3844	578
122	0	0	1932	9	3846	579
123	0	0	1957	12	3847	578
124	0	0	1942	9	3843	577
125	0	0	1936	11	3847	576
126	0	0	1944	11	3848	572
127	0	0	1957	13	3844	575
0	0	0	1971	10	3846	575
1	0	0	1971	12	3844	573
2	0	0	1970	10	3844	572
3	0	0	1967	11	3844	572
4	0	0	1948	9	3844	571
5	0	0	1927	9	3845	571
6	0	0	1937	15	3844	568
7	0	0	1943	7	3844	568
8	0	0	1929	11	3843	567
9	0	0	1923	11	3844	567
10	0	0	1915	11	3845	566
11	0	0	1929	11	3846	565
12	0	0	1956	11	3845	565
13	0	0	1971	11	3846	563
14	0	0	1953	9	3845	563
15	0	0	1938	9	3845	561
16	0	0	1938	11	3844	561
17	0	0	1960	11	3845	560
18	0	0	2011	12	3844	560
19	0	0	2044	12	3846	558
20	0	0	2055	11	3843	558
21	0	0	2029	11	3843	557
22	0	0	1978	7	3845	556
23	0	0	1937	9	3844	556
24	0	0	1913	9	3844	555
25	0	0	1905	11	3845	554
26	0	0	1929	11	3846	554
27	0	0	1985	13	3847	554
28	0	0	2032	12	3844	552
29	0	0	2061	12	3846	552
30	0	0	2057	9	3845	551
31	0	0	2012	8	3844	552
32	0	0	1975	10	3845	550
33	0	0	1956	9	3844	550
34	0	0	1954	12	3844	549
35	0	0	1962	11	3845	547
36	0	0	1983	15	3843	545
37	0	0	1978	13	3845	546
38	0	0	1959	10	3844	546
39	0	0	1963	11	3843	543
40	0	0	1971	11	3844	544
41	0	0	1996	11	3844	543
42	0	0	2026	13	3845	542
43	0	0	2046	11	3846	541
44	0	0	2040	12	3845	541
45	0	0	2017	8	3845	541
46	0	0	1991	8	3845	539
47	0	0	1991	9	3845	539
48	0	0	1974	8	3844	539
49	0	0	1935	8	3844	538
50	0	0	1955	9	3844	537
51	0	0	1993	11	3846	538
52	0	0	1972	11	3845	535
53	0	0	1944	9	3844	535
54	0	0	1948	11	3844	535
55	0	0	1971	15	3843	533
56	0	0	1978	11	3844	533
57	0	0	1990	11	3845	532
58	0	0	2021	11	3844	532
59	0	0	2073	11	3845	531
60	0	0	2062	8	3843	529
61	0	0	2023	8	3847	530
62	0	0	2001	9	3846	528
63	0	0	1979	9	3848	528
64	0	0	1964	8	3846	528
65	0	0	1956	12	3845	527
66	0	0	1962	11	3847	527
67	0	0	1962	13	3846	526
68	0	0	1950	10	3844	525
69	0	0	1930	5	3845	524
70	0	0	1900	7	3843	524
71	0	0	1882	12	3845	523
72	0	0	1905	13	3845	522
73	0	0	1951	11	3844	522
74	0	0	1966	8	3846	520
75	0	0	1968	11	3844	521
76	0	0	1977	11	3845	518
77	0	0	1987	15	3845	519
78	0	0	2003	11	3846	518
79	0	0	2004	12	3844	518
80	0	0	1977	9	3845	516
81	0	0	1948	9	3845	518
82	0	0	1949	9	3845	516
83	0	0	1958	12	3844	515
84	0	0	1951	7	3846	516
85	0	0	1922	10	3844	515
86	0	0	1924	12	3846	513
87	0	0	1938	14	3845	512
88	0	0	1940	12	3844	512
89	0	0	1919	8	3843	510
90	0	0	1906	9	3844	512
91	0	0	1897	10	3846	508
92	0	0	1879	8	3845	508
93	0	0	1861	9	3844	508
94	0	0	1864	8	3845	507
95	0	0	1908	11	3845	504
96	0	0	1945	12	3845	506
97	0	0	1948	12	3845	505
98	0	0	1948	12	3844	504
99	0	0	1966	10	3843	504
100	0	0	1982	11	3845	500
101	0	0	1975	9	3847	503
102	0	0	1933	8	3845	502
103	0	0	1885	9	3844	502
104	0	0	1886	10	3843	501
105	0	0	1939	12	3845	498
106	0	0	1998	12	3844	499
107	0	0	2036	11	3845	499
108	0	0	2009	9	3844	499
109	0	0	1972	8	3843	499
110	0	0	1958	10	3845	496
111	0	0	1966	12	3846	497
112	0	0	1966	9	3845	496
113	0	0	1948	11	3845	496
114	0	0	1949	8	3845	495
