# bioPlux Text File Format
# Version: 1
# StartDateTime: 2011-07-18 11:36:36
# SamplingFrequency: 1000
# SampledChannels: 1 2 3 4
# SamplingResolution: 12
# AcquiringDevice: 00:07:80:42:0F:8B
# EndOfHeader
0	0	0	2022	1309	1283	24
1	0	0	2010	1311	1287	24
2	0	0	2013	1317	1292	25
3	0	0	2018	1316	1295	28
4	0	0	2023	1318	1293	26
5	0	0	2028	1321	1286	24
6	0	0	2026	1322	1279	25
7	0	0	2041	1324	1275	25
8	0	0	2065	1325	1276	23
9	0	0	2075	1325	1280	24
10	0	0	2087	1327	1283	24
11	0	0	2099	1323	1287	28
12	0	0	2104	1327	1293	25
13	0	0	2106	1327	1295	28
14	0	0	2098	1328	1294	25
15	0	0	2093	1327	1285	23
16	0	0	2107	1327	1276	28
17	0	0	2088	1325	1274	25
18	0	0	2058	1325	1276	28
19	0	0	2039	1327	1279	26
20	0	0	2014	1328	1283	23
21	0	0	2004	1327	1288	24
22	0	0	2007	1333	1293	25
23	0	0	2009	1335	1294	23
24	0	0	2015	1336	1294	25
25	0	0	2025	1339	1286	24
26	0	0	2017	1340	1278	26
27	0	0	2030	1343	1275	25
28	0	0	2058	1343	1275	23
29	0	0	2069	1344	1280	24
30	0	0	2080	1345	1283	24
31	0	0	2089	1347	1288	24
32	0	0	2106	1346	1292	25
33	0	0	2109	1346	1293	23
34	0	0	2102	1348	1293	24
35	0	0	2098	1347	1285	24
36	0	0	2115	1347	1277	26
37	0	0	2092	1344	1276	26
38	0	0	2066	1345	1274	23
39	0	0	2052	1346	1279	25
40	0	0	2025	1347	1283	25
41	0	0	2003	1349	1288	25
42	0	0	2000	1353	1292	24
43	0	0	2005	1354	1293	25
44	0	0	2013	1356	1293	25
45	0	0	2020	1357	1286	25
46	0	0	2022	1359	1279	27
47	0	0	2036	1362	1276	26
48	0	0	2057	1363	1276	23
49	0	0	2071	1365	1279	24
50	0	0	2084	1365	1283	24
51	0	0	2098	1366	1287	24
52	0	0	2103	1367	1291	23
53	0	0	2103	1363	1294	26
54	0	0	2099	1367	1292	23
55	0	0	2091	1365	1285	24
56	0	0	2101	1366	1276	25
57	0	0	2085	1363	1275	27
58	0	0	2062	1364	1275	25
59	0	0	2044	1364	1279	25
60	0	0	2015	1365	1282	23
61	0	0	2007	1370	1287	24
62	0	0	2006	1372	1292	26
63	0	0	2009	1372	1293	23
64	0	0	2015	1375	1290	24
65	0	0	2025	1376	1284	24
66	0	0	2018	1380	1277	25
67	0	0	2034	1380	1275	27
68	0	0	2062	1382	1274	23
69	0	0	2074	1383	1275	24
70	0	0	2084	1383	1281	24
71	0	0	2096	1384	1287	24
72	0	0	2102	1384	1292	26
73	0	0	2105	1384	1291	25
74	0	0	2102	1384	1289	25
75	0	0	2099	1382	1285	26
76	0	0	2113	1383	1275	24
77	0	0	2089	1380	1273	24
78	0	0	2063	1378	1274	26
79	0	0	2042	1381	1278	23
80	0	0	2019	1383	1282	23
81	0	0	2009	1385	1287	24
82	0	0	2009	1386	1290	24
83	0	0	2015	1389	1292	23
84	0	0	2021	1390	1289	24
85	0	0	2031	1393	1285	24
86	0	0	2026	1395	1278	25
87	0	0	2041	1396	1273	25
88	0	0	2063	1398	1274	24
89	0	0	2076	1398	1275	25
90	0	0	2090	1399	1281	23
91	0	0	2099	1400	1284	23
92	0	0	2108	1400	1289	24
93	0	0	2113	1400	1291	21
94	0	0	2110	1400	1291	23
95	0	0	2104	1398	1284	23
96	0	0	2113	1397	1277	24
97	0	0	2088	1395	1272	23
98	0	0	2059	1396	1273	25
99	0	0	2043	1398	1275	25
100	0	0	2021	1397	1280	23
101	0	0	2004	1401	1286	24
102	0	0	2012	1403	1288	23
103	0	0	2018	1404	1292	23
104	0	0	2022	1406	1288	23
105	0	0	2031	1409	1282	24
106	0	0	2034	1410	1276	26
107	0	0	2047	1412	1272	25
108	0	0	2071	1413	1273	24
109	0	0	2082	1413	1275	24
110	0	0	2095	1414	1280	23
111	0	0	2096	1415	1284	24
112	0	0	2109	1414	1288	24
113	0	0	2113	1414	1290	22
114	0	0	2105	1413	1290	24
115	0	0	2101	1413	1283	24
116	0	0	2116	1411	1274	24
117	0	0	2098	1409	1270	24
118	0	0	2067	1409	1273	24
119	0	0	2046	1410	1274	24
120	0	0	2024	1410	1280	23
121	0	0	2014	1413	1285	24
122	0	0	2015	1415	1288	24
123	0	0	2013	1417	1291	25
124	0	0	2017	1419	1289	24
125	0	0	2023	1421	1284	24
126	0	0	2017	1423	1274	24
127	0	0	2037	1424	1270	24
0	0	0	2058	1424	1272	28
1	0	0	2074	1425	1274	24
2	0	0	2086	1426	1280	23
3	0	0	2098	1425	1283	22
4	0	0	2103	1425	1288	23
5	0	0	2107	1425	1290	24
6	0	0	2099	1424	1287	25
7	0	0	2095	1423	1283	23
8	0	0	2106	1422	1274	25
9	0	0	2085	1419	1271	25
10	0	0	2059	1420	1271	26
11	0	0	2038	1420	1274	25
12	0	0	2013	1421	1279	25
13	0	0	1998	1424	1283	24
14	0	0	1999	1426	1288	24
15	0	0	2005	1427	1289	24
16	0	0	2011	1429	1288	23
17	0	0	2017	1430	1283	24
18	0	0	2016	1431	1274	25
19	0	0	2034	1434	1269	24
20	0	0	2060	1434	1271	28
21	0	0	2074	1434	1274	23
22	0	0	2086	1435	1279	26
23	0	0	2088	1433	1283	23
24	0	0	2093	1435	1288	21
25	0	0	2091	1435	1288	24
26	0	0	2095	1434	1287	24
27	0	0	2092	1433	1281	23
28	0	0	2107	1431	1272	23
29	0	0	2091	1431	1270	24
30	0	0	2059	1428	1270	24
31	0	0	2042	1430	1273	23
32	0	0	2022	1429	1277	26
33	0	0	2008	1430	1282	24
34	0	0	2005	1435	1286	25
35	0	0	2003	1436	1287	24
36	0	0	2006	1435	1287	24
37	0	0	2013	1438	1281	23
38	0	0	2007	1439	1273	24
39	0	0	2019	1442	1269	21
40	0	0	2053	1442	1271	22
41	0	0	2072	1442	1274	24
42	0	0	2086	1443	1277	25
43	0	0	2096	1443	1279	26
44	0	0	2100	1444	1285	23
45	0	0	2102	1442	1287	25
46	0	0	2098	1444	1284	26
47	0	0	2093	1442	1279	25
48	0	0	2104	1440	1270	24
49	0	0	2081	1436	1267	25
50	0	0	2053	1436	1268	26
51	0	0	2039	1438	1271	22
52	0	0	2017	1436	1276	25
53	0	0	1998	1438	1280	23
54	0	0	1996	1441	1284	22
55	0	0	2002	1443	1287	28
56	0	0	2007	1444	1286	23
57	0	0	2018	1445	1279	25
58	0	0	2015	1447	1271	24
59	0	0	2030	1449	1269	24
60	0	0	2053	1448	1268	28
61	0	0	2068	1450	1271	23
62	0	0	2079	1450	1275	25
63	0	0	2090	1449	1279	24
64	0	0	2101	1449	1284	21
65	0	0	2103	1447	1285	23
66	0	0	2099	1447	1285	23
67	0	0	2091	1445	1278	25
68	0	0	2103	1445	1270	24
69	0	0	2088	1444	1267	25
70	0	0	2061	1442	1266	25
71	0	0	2044	1439	1270	23
72	0	0	2021	1443	1274	25
73	0	0	2001	1443	1279	26
74	0	0	2001	1448	1283	25
75	0	0	2007	1448	1284	23
76	0	0	2009	1449	1283	24
77	0	0	2015	1451	1278	24
78	0	0	2012	1453	1271	24
79	0	0	2026	1454	1267	24
80	0	0	2051	1455	1267	27
81	0	0	2069	1454	1270	23
82	0	0	2080	1455	1274	25
83	0	0	2089	1454	1278	25
84	0	0	2104	1455	1282	23
85	0	0	2109	1453	1284	23
86	0	0	2104	1453	1283	23
87	0	0	2100	1452	1277	25
88	0	0	2111	1451	1269	24
89	0	0	2091	1448	1267	24
90	0	0	2058	1447	1265	27
91	0	0	2039	1448	1269	24
92	0	0	2012	1447	1273	25
93	0	0	2002	1450	1278	25
94	0	0	2004	1452	1282	23
95	0	0	2004	1452	1284	23
96	0	0	2005	1454	1283	23
97	0	0	2010	1455	1277	25
98	0	0	2007	1457	1269	24
99	0	0	2023	1458	1267	25
100	0	0	2050	1457	1266	23
101	0	0	2066	1458	1269	23
102	0	0	2080	1459	1273	24
103	0	0	2090	1459	1278	25
104	0	0	2101	1459	1283	20
105	0	0	2107	1458	1283	23
106	0	0	2106	1457	1281	24
107	0	0	2101	1455	1277	25
108	0	0	2111	1454	1269	25
109	0	0	2091	1450	1265	24
110	0	0	2058	1451	1267	24
111	0	0	2037	1451	1270	23
112	0	0	2015	1449	1272	24
113	0	0	1996	1452	1279	26
114	0	0	1994	1455	1282	24
115	0	0	1996	1456	1284	24
116	0	0	2004	1458	1281	23
117	0	0	2008	1458	1278	25
118	0	0	2003	1460	1269	24
119	0	0	2018	1460	1266	26
120	0	0	2050	1462	1266	25
121	0	0	2064	1463	1270	24
122	0	0	2076	1462	1273	25
123	0	0	2088	1462	1278	25
124	0	0	2098	1461	1281	23
125	0	0	2101	1461	1283	23
126	0	0	2094	1460	1280	23
127	0	0	2092	1459	1275	24
0	0	0	2104	1458	1268	24
1	0	0	2088	1454	1264	26
2	0	0	2057	1455	1265	23
3	0	0	2035	1455	1265	23
4	0	0	2014	1455	1272	23
5	0	0	2006	1458	1277	25
6	0	0	2000	1459	1282	24
7	0	0	2005	1459	1283	23
8	0	0	2014	1462	1280	23
9	0	0	2019	1462	1276	24
10	0	0	2018	1464	1269	24
11	0	0	2030	1465	1265	23
12	0	0	2054	1465	1264	21
13	0	0	2066	1466	1267	24
14	0	0	2077	1466	1272	24
15	0	0	2091	1467	1277	25
16	0	0	2099	1466	1281	24
17	0	0	2103	1466	1283	23
18	0	0	2100	1465	1280	23
19	0	0	2091	1463	1276	25
20	0	0	2106	1462	1268	24
21	0	0	2091	1458	1264	23
22	0	0	2064	1458	1264	23
23	0	0	2042	1460	1265	24
24	0	0	2013	1458	1272	24
25	0	0	2000	1461	1277	23
26	0	0	1999	1460	1280	23
27	0	0	2005	1464	1283	23
28	0	0	2008	1465	1282	23
29	0	0	2021	1468	1277	24
30	0	0	2020	1468	1267	24
31	0	0	2034	1468	1266	24
32	0	0	2056	1469	1265	24
33	0	0	2067	1469	1265	23
34	0	0	2084	1468	1271	24
35	0	0	2091	1468	1275	23
36	0	0	2099	1468	1280	23
37	0	0	2103	1469	1281	24
38	0	0	2102	1467	1280	23
39	0	0	2098	1466	1276	25
40	0	0	2114	1464	1267	23
41	0	0	2099	1460	1263	27
42	0	0	2067	1460	1263	24
43	0	0	2048	1460	1266	23
44	0	0	2021	1461	1271	25
45	0	0	2011	1465	1276	26
46	0	0	2009	1465	1280	27
47	0	0	2015	1464	1283	22
48	0	0	2016	1468	1282	23
49	0	0	2017	1467	1276	25
50	0	0	2011	1470	1267	26
51	0	0	2032	1469	1264	22
52	0	0	2055	1472	1264	24
53	0	0	2071	1473	1266	22
54	0	0	2089	1473	1270	25
55	0	0	2098	1473	1275	26
56	0	0	2108	1472	1280	24
57	0	0	2108	1470	1282	26
58	0	0	2106	1470	1280	23
59	0	0	2102	1469	1275	25
60	0	0	2114	1468	1267	24
61	0	0	2098	1461	1264	24
62	0	0	2064	1464	1263	23
63	0	0	2045	1465	1265	23
64	0	0	2021	1464	1271	25
65	0	0	2002	1466	1276	25
66	0	0	1998	1466	1280	24
67	0	0	2000	1470	1281	23
68	0	0	2008	1470	1278	23
69	0	0	2019	1471	1276	24
70	0	0	2015	1473	1267	23
71	0	0	2031	1473	1262	23
72	0	0	2053	1476	1263	25
73	0	0	2073	1476	1267	23
74	0	0	2085	1473	1270	24
75	0	0	2092	1474	1275	28
76	0	0	2100	1473	1279	25
77	0	0	2099	1473	1282	24
78	0	0	2097	1472	1280	23
79	0	0	2096	1471	1275	28
80	0	0	2112	1467	1268	24
81	0	0	2097	1464	1264	24
82	0	0	2058	1463	1263	26
83	0	0	2038	1466	1265	24
84	0	0	2018	1465	1270	24
85	0	0	2002	1468	1274	23
86	0	0	2002	1469	1279	26
87	0	0	2002	1470	1280	24
88	0	0	2005	1472	1281	23
89	0	0	2013	1473	1274	24
90	0	0	2013	1474	1267	23
91	0	0	2026	1473	1263	25
92	0	0	2052	1476	1264	24
93	0	0	2066	1477	1266	24
94	0	0	2076	1477	1270	25
95	0	0	2085	1476	1275	23
96	0	0	2094	1475	1279	27
97	0	0	2104	1475	1281	23
98	0	0	2103	1473	1279	24
99	0	0	2104	1473	1275	25
100	0	0	2117	1471	1265	23
101	0	0	2099	1466	1264	24
102	0	0	2065	1466	1262	24
103	0	0	2041	1467	1265	26
104	0	0	2017	1467	1270	24
105	0	0	2003	1467	1276	24
106	0	0	2000	1467	1278	24
107	0	0	2007	1473	1281	23
108	0	0	2013	1473	1280	24
109	0	0	2018	1476	1274	24
110	0	0	2014	1475	1268	24
111	0	0	2024	1477	1263	25
112	0	0	2048	1479	1263	26
113	0	0	2064	1476	1265	25
114	0	0	2076	1477	1269	24
115	0	0	2089	1477	1273	23
116	0	0	2101	1476	1278	25
117	0	0	2114	1475	1281	24
118	0	0	2109	1473	1279	26
119	0	0	2099	1475	1274	24
120	0	0	2114	1471	1264	21
121	0	0	2098	1467	1263	24
122	0	0	2066	1466	1263	25
123	0	0	2041	1467	1265	23
124	0	0	2015	1466	1269	24
125	0	0	2006	1468	1273	27
126	0	0	2002	1470	1279	26
127	0	0	2009	1471	1281	26
0	0	0	2006	1472	1280	26
1	0	0	2012	1474	1276	25
2	0	0	2010	1475	1269	24
3	0	0	2020	1474	1263	26
4	0	0	2048	1476	1262	25
5	0	0	2065	1476	1265	24
6	0	0	2078	1476	1269	24
7	0	0	2093	1476	1276	24
8	0	0	2103	1474	1279	27
9	0	0	2107	1473	1280	24
10	0	0	2096	1472	1280	24
11	0	0	2088	1471	1274	24
12	0	0	2105	1469	1264	23
13	0	0	2091	1464	1263	25
14	0	0	2065	1465	1262	28
15	0	0	2043	1465	1265	26
16	0	0	2024	1465	1269	24
17	0	0	2008	1464	1275	26
18	0	0	2004	1467	1279	27
19	0	0	2006	1469	1281	23
20	0	0	2008	1470	1279	28
21	0	0	2011	1472	1275	25
22	0	0	2002	1472	1268	24
23	0	0	2014	1472	1263	25
24	0	0	2042	1474	1263	24
25	0	0	2062	1474	1265	26
26	0	0	2081	1471	1268	23
27	0	0	2096	1473	1276	24
28	0	0	2104	1472	1279	24
29	0	0	2109	1471	1281	25
30	0	0	2103	1469	1279	27
31	0	0	2095	1467	1274	25
32	0	0	2113	1466	1267	20
33	0	0	2100	1464	1262	24
34	0	0	2071	1462	1262	27
35	0	0	2046	1461	1264	26
36	0	0	2015	1461	1268	24
37	0	0	2001	1463	1275	26
38	0	0	1998	1465	1279	26
39	0	0	2003	1467	1281	23
40	0	0	2004	1466	1280	23
41	0	0	2009	1467	1276	25
42	0	0	2007	1468	1268	24
43	0	0	2017	1470	1261	24
44	0	0	2044	1470	1263	27
45	0	0	2064	1469	1265	26
46	0	0	2080	1469	1269	24
47	0	0	2091	1468	1275	24
48	0	0	2102	1468	1278	25
49	0	0	2111	1466	1281	23
50	0	0	2106	1464	1280	23
51	0	0	2095	1463	1275	25
52	0	0	2111	1461	1267	24
53	0	0	2098	1458	1262	24
54	0	0	2070	1456	1261	25
55	0	0	2048	1455	1264	25
56	0	0	2019	1454	1269	24
57	0	0	2003	1457	1276	24
58	0	0	1999	1459	1279	28
59	0	0	2003	1460	1281	23
60	0	0	2008	1460	1280	26
61	0	0	2017	1462	1276	25
62	0	0	2017	1462	1264	21
63	0	0	2027	1463	1263	22
64	0	0	2051	1463	1263	23
65	0	0	2069	1462	1265	23
66	0	0	2076	1461	1271	25
67	0	0	2090	1461	1274	24
68	0	0	2107	1460	1278	28
69	0	0	2115	1459	1281	27
70	0	0	2113	1457	1280	29
71	0	0	2102	1456	1275	24
72	0	0	2113	1453	1266	24
73	0	0	2103	1452	1262	28
74	0	0	2074	1449	1262	27
75	0	0	2046	1448	1265	25
76	0	0	2023	1448	1269	25
77	0	0	2003	1447	1274	27
78	0	0	1997	1450	1280	27
79	0	0	2003	1454	1282	23
80	0	0	2007	1453	1281	25
81	0	0	2010	1454	1276	24
82	0	0	2008	1456	1268	24
83	0	0	2020	1454	1263	28
84	0	0	2044	1456	1263	27
85	0	0	2061	1456	1267	27
86	0	0	2073	1455	1270	23
87	0	0	2091	1454	1275	25
88	0	0	2108	1452	1280	27
89	0	0	2113	1451	1282	23
90	0	0	2110	1451	1282	23
91	0	0	2099	1449	1277	26
92	0	0	2109	1446	1268	28
93	0	0	2100	1444	1263	27
94	0	0	2073	1442	1263	27
95	0	0	2050	1440	1266	24
96	0	0	2020	1439	1271	23
97	0	0	2002	1440	1276	23
98	0	0	1998	1442	1281	25
99	0	0	2001	1442	1283	24
100	0	0	2008	1443	1283	23
101	0	0	2017	1444	1279	25
102	0	0	2013	1446	1269	22
103	0	0	2022	1446	1265	27
104	0	0	2047	1442	1264	24
105	0	0	2063	1446	1267	22
106	0	0	2079	1445	1273	25
107	0	0	2089	1444	1277	27
108	0	0	2098	1442	1281	28
109	0	0	2102	1441	1282	27
110	0	0	2098	1441	1283	27
111	0	0	2096	1438	1278	27
112	0	0	2109	1436	1270	25
113	0	0	2099	1430	1264	23
114	0	0	2068	1431	1265	24
115	0	0	2055	1432	1268	24
116	0	0	2026	1429	1273	28
117	0	0	2000	1430	1277	26
118	0	0	1996	1435	1283	26
119	0	0	1999	1435	1285	24
120	0	0	2004	1435	1285	22
121	0	0	2018	1436	1280	24
122	0	0	2018	1436	1271	25
123	0	0	2025	1439	1267	21
124	0	0	2046	1437	1266	24
125	0	0	2063	1437	1268	23
126	0	0	2079	1438	1274	25
127	0	0	2090	1436	1279	25
0	0	0	2102	1434	1283	23
1	0	0	2107	1432	1286	26
2	0	0	2104	1432	1285	22
3	0	0	2092	1431	1281	23
4	0	0	2108	1426	1271	27
5	0	0	2096	1423	1267	27
6	0	0	2065	1422	1267	27
7	0	0	2042	1422	1269	25
8	0	0	2022	1419	1275	25
9	0	0	2009	1423	1279	24
10	0	0	2006	1423	1285	21
11	0	0	2004	1423	1288	23
12	0	0	2006	1424	1287	24
13	0	0	2014	1425	1283	24
14	0	0	2015	1426	1273	25
15	0	0	2031	1423	1268	24
16	0	0	2053	1424	1269	26
17	0	0	2065	1424	1272	24
18	0	0	2077	1424	1276	25
19	0	0	2091	1425	1282	23
20	0	0	2097	1423	1287	24
21	0	0	2101	1421	1289	24
22	0	0	2101	1418	1288	28
23	0	0	2096	1417	1283	27
24	0	0	2103	1413	1273	27
25	0	0	2098	1407	1268	24
26	0	0	2062	1404	1269	24
27	0	0	2042	1407	1272	24
28	0	0	2023	1406	1277	25
29	0	0	2009	1408	1282	25
30	0	0	2005	1406	1288	27
31	0	0	2008	1408	1290	26
32	0	0	2013	1407	1290	24
33	0	0	2026	1409	1286	25
34	0	0	2023	1409	1276	24
35	0	0	2030	1410	1272	25
36	0	0	2051	1408	1271	25
37	0	0	2072	1408	1275	26
38	0	0	2081	1407	1279	25
39	0	0	2094	1406	1285	23
40	0	0	2103	1405	1289	24
41	0	0	2105	1402	1292	28
42	0	0	2100	1401	1291	24
43	0	0	2093	1397	1286	23
44	0	0	2104	1395	1277	25
45	0	0	2094	1393	1273	24
46	0	0	2062	1390	1272	30
47	0	0	2044	1390	1275	28
48	0	0	2023	1388	1280	27
49	0	0	2012	1388	1285	24
50	0	0	2007	1391	1291	24
51	0	0	2016	1390	1294	25
52	0	0	2023	1390	1293	26
53	0	0	2030	1390	1289	24
54	0	0	2025	1387	1280	23
55	0	0	2033	1391	1275	24
56	0	0	2054	1390	1275	23
57	0	0	2073	1388	1277	26
58	0	0	2089	1388	1282	23
59	0	0	2096	1387	1288	24
60	0	0	2103	1385	1292	25
61	0	0	2102	1384	1295	25
62	0	0	2100	1381	1295	24
63	0	0	2092	1380	1291	28
64	0	0	2101	1375	1280	26
65	0	0	2089	1373	1275	28
66	0	0	2062	1373	1275	24
67	0	0	2044	1372	1279	24
68	0	0	2022	1368	1284	24
69	0	0	2004	1370	1290	23
70	0	0	2005	1368	1295	28
71	0	0	2009	1369	1297	24
72	0	0	2012	1370	1297	24
73	0	0	2025	1367	1293	25
74	0	0	2024	1366	1283	24
75	0	0	2031	1366	1279	26
76	0	0	2054	1366	1277	26
77	0	0	2073	1364	1280	23
78	0	0	2088	1361	1285	24
79	0	0	2094	1359	1291	24
80	0	0	2103	1360	1297	26
81	0	0	2105	1359	1299	27
82	0	0	2098	1357	1299	28
83	0	0	2096	1357	1294	25
84	0	0	2106	1353	1285	22
85	0	0	2093	1350	1280	24
86	0	0	2063	1348	1280	24
87	0	0	2040	1349	1279	31
88	0	0	2020	1345	1288	27
89	0	0	2005	1347	1294	25
90	0	0	2002	1345	1299	22
91	0	0	2006	1345	1301	25
92	0	0	2014	1343	1301	27
93	0	0	2023	1342	1297	24
94	0	0	2024	1341	1287	24
95	0	0	2030	1340	1283	26
96	0	0	2053	1338	1282	23
97	0	0	2074	1338	1284	23
98	0	0	2090	1337	1290	25
99	0	0	2103	1336	1295	25
100	0	0	2110	1335	1301	24
101	0	0	2102	1335	1304	24
102	0	0	2098	1333	1303	24
103	0	0	2090	1331	1299	24
104	0	0	2105	1331	1288	28
105	0	0	2094	1328	1284	27
106	0	0	2062	1327	1283	27
107	0	0	2043	1326	1286	23
108	0	0	2025	1323	1291	24
109	0	0	2009	1323	1297	24
110	0	0	2007	1326	1304	26
111	0	0	2009	1326	1306	25
112	0	0	2012	1324	1305	23
113	0	0	2020	1323	1301	26
114	0	0	2028	1323	1292	25
115	0	0	2034	1323	1287	25
116	0	0	2060	1322	1286	24
117	0	0	2073	1321	1289	21
118	0	0	2088	1320	1295	25
119	0	0	2098	1317	1302	26
120	0	0	2109	1320	1306	27
121	0	0	2111	1318	1308	28
122	0	0	2106	1317	1309	31
123	0	0	2092	1315	1304	28
124	0	0	2103	1316	1293	28
125	0	0	2097	1312	1289	26
126	0	0	2064	1313	1288	26
127	0	0	2038	1313	1291	23
0	0	0	2021	1310	1296	28
1	0	0	2006	1311	1302	28
2	0	0	2001	1312	1308	31
3	0	0	2002	1311	1311	26
4	0	0	2006	1311	1311	26
5	0	0	2011	1311	1307	25
6	0	0	2012	1310	1296	25
7	0	0	2020	1311	1291	24
8	0	0	2048	1310	1291	24
9	0	0	2068	1308	1294	23
10	0	0	2078	1308	1299	23
11	0	0	2094	1308	1305	28
12	0	0	2103	1305	1311	27
13	0	0	2110	1306	1314	24
14	0	0	2109	1305	1312	21
15	0	0	2101	1305	1308	25
16	0	0	2113	1303	1298	24
17	0	0	2100	1302	1293	27
18	0	0	2067	1301	1292	27
19	0	0	2043	1302	1297	23
20	0	0	2017	1300	1301	24
21	0	0	1992	1301	1308	26
22	0	0	1984	1300	1313	27
23	0	0	1985	1303	1316	25
24	0	0	1986	1303	1315	21
25	0	0	1998	1301	1311	26
26	0	0	1998	1301	1301	25
27	0	0	2008	1300	1297	25
28	0	0	2044	1301	1297	24
29	0	0	2071	1300	1297	23
30	0	0	2090	1300	1304	28
31	0	0	2105	1299	1310	25
32	0	0	2116	1298	1316	27
33	0	0	2119	1298	1318	25
34	0	0	2117	1299	1318	24
35	0	0	2112	1298	1313	25
36	0	0	2127	1298	1303	25
37	0	0	2110	1295	1299	26
38	0	0	2066	1295	1299	28
39	0	0	2034	1295	1301	27
40	0	0	2003	1293	1308	26
41	0	0	1977	1294	1313	25
42	0	0	1972	1297	1319	25
43	0	0	1975	1294	1322	26
44	0	0	1984	1296	1323	26
45	0	0	1993	1297	1319	25
46	0	0	1994	1297	1308	26
47	0	0	2005	1295	1303	25
48	0	0	2039	1293	1303	25
49	0	0	2072	1295	1305	24
50	0	0	2089	1296	1311	26
51	0	0	2104	1293	1318	26
52	0	0	2119	1294	1323	23
53	0	0	2121	1292	1325	27
54	0	0	2120	1294	1325	28
55	0	0	2103	1293	1321	29
56	0	0	2115	1293	1311	29
57	0	0	2104	1291	1305	24
58	0	0	2061	1288	1306	27
59	0	0	2029	1290	1309	24
60	0	0	2000	1289	1315	25
61	0	0	1970	1292	1322	27
62	0	0	1962	1292	1327	29
63	0	0	1963	1293	1330	23
64	0	0	1967	1291	1329	24
65	0	0	1974	1291	1326	27
66	0	0	1971	1290	1314	29
67	0	0	1985	1291	1310	25
68	0	0	2030	1290	1309	26
69	0	0	2072	1291	1312	20
70	0	0	2095	1291	1318	26
71	0	0	2114	1292	1325	27
72	0	0	2129	1292	1329	24
73	0	0	2136	1289	1332	29
74	0	0	2136	1290	1333	26
75	0	0	2121	1290	1327	27
76	0	0	2138	1289	1317	23
77	0	0	2129	1286	1312	23
78	0	0	2079	1286	1312	28
79	0	0	2040	1285	1315	28
80	0	0	2003	1286	1321	29
81	0	0	1966	1288	1327	26
82	0	0	1955	1288	1332	24
83	0	0	1959	1287	1335	26
84	0	0	1969	1288	1335	26
85	0	0	1980	1288	1330	26
86	0	0	1978	1288	1321	26
87	0	0	1995	1290	1315	25
88	0	0	2035	1288	1315	25
89	0	0	2075	1287	1318	26
90	0	0	2097	1288	1324	26
91	0	0	2117	1288	1330	27
92	0	0	2138	1288	1334	26
93	0	0	2148	1288	1339	27
94	0	0	2148	1287	1339	20
95	0	0	2145	1285	1334	30
96	0	0	2159	1286	1322	29
97	0	0	2175	1285	1318	27
98	0	0	2098	1283	1317	26
99	0	0	2038	1282	1321	26
100	0	0	1983	1282	1326	26
101	0	0	1926	1282	1333	27
102	0	0	1905	1287	1337	29
103	0	0	1902	1286	1341	27
104	0	0	1914	1285	1341	26
105	0	0	1932	1285	1337	27
106	0	0	1938	1284	1327	27
107	0	0	1927	1287	1320	24
108	0	0	1996	1289	1321	27
109	0	0	2061	1286	1325	26
110	0	0	2113	1285	1328	25
111	0	0	2176	1285	1336	25
112	0	0	2235	1288	1342	27
113	0	0	2273	1284	1345	29
114	0	0	2271	1285	1344	28
115	0	0	2251	1284	1339	26
116	0	0	2268	1284	1330	25
117	0	0	2213	1280	1322	24
118	0	0	2100	1279	1323	24
119	0	0	2010	1280	1327	30
120	0	0	1979	1281	1333	29
121	0	0	1904	1279	1338	27
122	0	0	1831	1280	1342	30
123	0	0	1777	1282	1345	27
124	0	0	1735	1279	1345	25
125	0	0	1706	1278	1340	24
126	0	0	1667	1279	1331	25
127	0	0	1640	1284	1325	26
0	0	0	1705	1284	1325	26
1	0	0	1818	1283	1328	25
2	0	0	1924	1279	1334	25
3	0	0	2043	1283	1341	27
4	0	0	2166	1283	1348	27
5	0	0	2272	1287	1351	26
6	0	0	2360	1283	1351	27
7	0	0	2421	1282	1346	25
8	0	0	2496	1285	1338	26
9	0	0	2569	1283	1332	29
10	0	0	2506	1281	1333	29
11	0	0	2403	1279	1336	25
12	0	0	2277	1278	1340	26
13	0	0	2100	1280	1346	27
14	0	0	1948	1277	1351	29
15	0	0	1837	1280	1353	26
16	0	0	1761	1278	1353	25
17	0	0	1717	1278	1349	25
18	0	0	1679	1278	1338	27
19	0	0	1653	1282	1330	28
20	0	0	1712	1282	1331	27
21	0	0	1809	1281	1335	26
22	0	0	1903	1279	1340	25
23	0	0	2017	1282	1348	27
24	0	0	2131	1281	1355	26
25	0	0	2237	1283	1358	27
26	0	0	2320	1282	1358	27
27	0	0	2373	1279	1354	25
28	0	0	2447	1283	1345	24
29	0	0	2515	1283	1338	31
30	0	0	2465	1281	1340	31
31	0	0	2370	1278	1342	26
32	0	0	2250	1276	1348	25
33	0	0	2087	1277	1352	24
34	0	0	1949	1278	1357	28
35	0	0	1858	1278	1361	25
36	0	0	1787	1277	1360	26
37	0	0	1742	1276	1356	24
38	0	0	1707	1277	1345	26
39	0	0	1684	1280	1339	27
40	0	0	1730	1283	1339	27
41	0	0	1815	1279	1342	26
42	0	0	1913	1279	1348	24
43	0	0	2012	1282	1356	24
44	0	0	2121	1280	1361	28
45	0	0	2218	1281	1367	28
46	0	0	2293	1281	1366	30
47	0	0	2345	1279	1361	25
48	0	0	2408	1281	1353	24
49	0	0	2473	1282	1350	25
50	0	0	2433	1277	1347	24
51	0	0	2343	1277	1350	25
52	0	0	2238	1276	1355	26
53	0	0	2091	1276	1361	27
54	0	0	1963	1277	1366	26
55	0	0	1871	1276	1369	26
56	0	0	1806	1276	1369	26
57	0	0	1765	1277	1365	26
58	0	0	1731	1277	1354	27
59	0	0	1710	1281	1350	26
60	0	0	1752	1278	1348	25
61	0	0	1833	1280	1351	27
62	0	0	1915	1282	1359	29
63	0	0	2013	1280	1365	29
64	0	0	2112	1280	1372	27
65	0	0	2203	1279	1375	26
66	0	0	2274	1281	1375	28
67	0	0	2312	1279	1372	26
68	0	0	2379	1280	1361	29
69	0	0	2439	1281	1356	30
70	0	0	2399	1276	1355	26
71	0	0	2318	1276	1359	26
72	0	0	2221	1276	1364	26
73	0	0	2087	1275	1371	23
74	0	0	1967	1275	1376	25
75	0	0	1881	1276	1379	25
76	0	0	1820	1275	1378	25
77	0	0	1781	1277	1375	29
78	0	0	1756	1276	1363	27
79	0	0	1742	1279	1358	26
80	0	0	1779	1278	1358	26
81	0	0	1851	1279	1361	25
82	0	0	1929	1280	1367	27
83	0	0	2018	1279	1375	24
84	0	0	2105	1279	1381	27
85	0	0	2184	1276	1385	25
86	0	0	2250	1280	1385	31
87	0	0	2289	1280	1382	31
88	0	0	2343	1279	1372	24
89	0	0	2394	1281	1367	25
90	0	0	2362	1276	1366	26
91	0	0	2285	1275	1369	27
92	0	0	2195	1275	1375	27
93	0	0	2079	1274	1382	27
94	0	0	1978	1276	1388	27
95	0	0	1904	1278	1391	26
96	0	0	1853	1275	1388	26
97	0	0	1822	1276	1384	27
98	0	0	1798	1277	1374	27
99	0	0	1792	1279	1368	24
100	0	0	1824	1279	1369	25
101	0	0	1887	1278	1372	27
102	0	0	1955	1278	1377	24
103	0	0	2028	1278	1386	27
104	0	0	2103	1279	1391	25
105	0	0	2163	1278	1395	26
106	0	0	2210	1279	1395	27
107	0	0	2242	1279	1391	27
108	0	0	2279	1279	1381	26
109	0	0	2315	1280	1375	27
110	0	0	2289	1276	1376	26
111	0	0	2231	1276	1378	23
112	0	0	2163	1276	1384	26
113	0	0	2078	1275	1391	31
114	0	0	1998	1275	1394	26
115	0	0	1942	1276	1399	27
116	0	0	1907	1276	1398	27
117	0	0	1886	1276	1394	26
118	0	0	1875	1276	1384	29
119	0	0	1870	1279	1377	26
120	0	0	1898	1279	1377	25
121	0	0	1946	1278	1380	26
122	0	0	1992	1280	1384	26
123	0	0	2041	1276	1392	25
124	0	0	2087	1279	1399	24
125	0	0	2127	1279	1403	26
126	0	0	2159	1279	1403	26
127	0	0	2181	1279	1399	27
0	0	0	2196	1277	1390	26
1	0	0	2214	1279	1385	23
2	0	0	2199	1278	1384	26
3	0	0	2168	1276	1387	26
4	0	0	2129	1276	1392	26
5	0	0	2074	1276	1398	26
6	0	0	2027	1276	1404	27
7	0	0	1991	1276	1404	27
8	0	0	1972	1277	1406	27
9	0	0	1965	1279	1403	27
10	0	0	1960	1276	1391	26
11	0	0	1961	1278	1383	26
12	0	0	1970	1278	1384	26
13	0	0	1994	1278	1388	27
14	0	0	2017	1278	1394	27
15	0	0	2046	1277	1402	28
16	0	0	2071	1279	1408	27
17	0	0	2090	1279	1410	26
18	0	0	2105	1279	1411	26
19	0	0	2120	1279	1406	28
20	0	0	2123	1278	1397	25
21	0	0	2119	1279	1391	24
22	0	0	2113	1279	1391	28
23	0	0	2101	1279	1395	26
24	0	0	2086	1280	1399	31
25	0	0	2069	1275	1404	27
26	0	0	2053	1278	1410	27
27	0	0	2038	1278	1413	27
28	0	0	2029	1279	1413	24
29	0	0	2023	1278	1409	25
30	0	0	2029	1279	1399	27
31	0	0	2037	1279	1390	27
32	0	0	2037	1279	1392	26
33	0	0	2037	1278	1395	27
34	0	0	2047	1278	1400	28
35	0	0	2053	1277	1407	27
36	0	0	2056	1279	1414	26
37	0	0	2056	1279	1417	27
38	0	0	2056	1279	1417	28
39	0	0	2061	1279	1413	28
40	0	0	2053	1280	1403	32
41	0	0	2049	1280	1396	28
42	0	0	2060	1279	1397	28
43	0	0	2062	1279	1400	28
44	0	0	2062	1278	1404	27
45	0	0	2069	1279	1412	26
46	0	0	2071	1279	1418	26
47	0	0	2069	1279	1420	26
48	0	0	2068	1279	1419	27
49	0	0	2068	1278	1415	27
50	0	0	2072	1280	1404	27
51	0	0	2081	1278	1397	27
52	0	0	2080	1279	1398	27
53	0	0	2074	1278	1400	26
54	0	0	2068	1279	1406	27
55	0	0	2064	1279	1414	27
56	0	0	2062	1279	1418	24
57	0	0	2055	1277	1421	27
58	0	0	2048	1279	1423	28
59	0	0	2048	1279	1420	27
60	0	0	2035	1278	1410	27
61	0	0	2021	1280	1404	29
62	0	0	2033	1279	1402	27
63	0	0	2051	1279	1405	27
64	0	0	2055	1279	1410	26
65	0	0	2071	1278	1416	26
66	0	0	2080	1279	1421	26
67	0	0	2079	1277	1424	27
68	0	0	2083	1279	1425	27
69	0	0	2085	1279	1419	26
70	0	0	2083	1280	1411	27
71	0	0	2091	1279	1404	28
72	0	0	2086	1277	1403	28
73	0	0	2077	1279	1406	27
74	0	0	2069	1280	1411	27
75	0	0	2063	1280	1418	28
76	0	0	2060	1279	1424	26
77	0	0	2053	1280	1427	27
78	0	0	2052	1279	1428	27
79	0	0	2051	1279	1424	26
80	0	0	2042	1277	1414	26
81	0	0	2031	1279	1407	28
82	0	0	2039	1277	1407	27
83	0	0	2049	1279	1410	25
84	0	0	2054	1279	1415	28
85	0	0	2071	1279	1421	28
86	0	0	2076	1280	1427	27
87	0	0	2074	1278	1430	26
88	0	0	2072	1279	1430	27
89	0	0	2070	1278	1426	27
90	0	0	2067	1277	1415	27
91	0	0	2067	1279	1410	27
92	0	0	2059	1277	1407	28
93	0	0	2054	1278	1411	27
94	0	0	2057	1280	1416	28
95	0	0	2063	1279	1423	31
96	0	0	2065	1279	1430	27
97	0	0	2064	1280	1433	29
98	0	0	2061	1279	1432	27
99	0	0	2063	1279	1429	27
100	0	0	2060	1280	1419	31
101	0	0	2058	1280	1413	27
102	0	0	2067	1280	1411	27
103	0	0	2073	1280	1415	27
104	0	0	2069	1279	1420	27
105	0	0	2065	1281	1424	30
106	0	0	2059	1279	1431	27
107	0	0	2050	1277	1434	27
108	0	0	2048	1279	1434	27
109	0	0	2040	1280	1429	27
110	0	0	2034	1281	1418	27
111	0	0	2039	1279	1413	27
112	0	0	2038	1278	1412	17
113	0	0	2043	1279	1415	27
114	0	0	2051	1280	1420	28
115	0	0	2065	1279	1427	27
116	0	0	2077	1279	1433	27
117	0	0	2084	1280	1438	29
118	0	0	2092	1280	1437	29
119	0	0	2098	1280	1433	29
120	0	0	2099	1280	1424	29
121	0	0	2099	1280	1418	31
122	0	0	2099	1278	1415	27
123	0	0	2088	1279	1418	27
124	0	0	2071	1279	1423	27
125	0	0	2056	1278	1429	27
126	0	0	2037	1276	1435	27
127	0	0	2025	1280	1439	30
0	0	0	2020	1280	1437	28
1	0	0	2012	1276	1432	26
2	0	0	2005	1279	1423	27
3	0	0	2002	1279	1418	27
4	0	0	2006	1278	1415	27
5	0	0	2020	1279	1417	26
6	0	0	2035	1279	1424	26
7	0	0	2054	1280	1429	31
8	0	0	2075	1279	1437	28
9	0	0	2094	1279	1440	26
10	0	0	2106	1280	1439	32
11	0	0	2113	1280	1436	32
12	0	0	2122	1280	1427	27
13	0	0	2129	1281	1420	29
14	0	0	2125	1280	1418	27
15	0	0	2108	1278	1420	27
16	0	0	2083	1278	1425	27
17	0	0	2058	1278	1430	26
18	0	0	2030	1278	1437	29
19	0	0	2004	1278	1440	27
20	0	0	1984	1278	1440	27
21	0	0	1978	1282	1435	28
22	0	0	1974	1280	1425	28
23	0	0	1970	1280	1419	28
24	0	0	1984	1279	1419	26
25	0	0	2004	1279	1421	28
26	0	0	2025	1281	1427	29
27	0	0	2051	1279	1433	27
28	0	0	2074	1279	1439	29
29	0	0	2096	1279	1442	26
30	0	0	2113	1281	1442	28
31	0	0	2128	1280	1437	32
32	0	0	2145	1282	1426	28
33	0	0	2158	1281	1421	31
34	0	0	2151	1281	1420	31
35	0	0	2128	1278	1422	28
36	0	0	2096	1277	1427	27
37	0	0	2055	1277	1433	28
38	0	0	2013	1277	1439	29
39	0	0	1983	1278	1440	27
40	0	0	1967	1279	1440	25
41	0	0	1959	1280	1437	29
42	0	0	1955	1281	1425	28
43	0	0	1953	1280	1419	27
44	0	0	1968	1280	1419	27
45	0	0	1997	1280	1424	27
46	0	0	2026	1281	1426	28
47	0	0	2057	1279	1433	28
48	0	0	2079	1281	1439	30
49	0	0	2105	1280	1442	29
50	0	0	2127	1281	1442	31
51	0	0	2139	1281	1438	32
52	0	0	2149	1281	1428	31
53	0	0	2164	1282	1421	29
54	0	0	2154	1281	1421	28
55	0	0	2129	1279	1423	31
56	0	0	2098	1278	1428	27
57	0	0	2055	1278	1434	27
58	0	0	2013	1278	1439	27
59	0	0	1984	1279	1442	27
60	0	0	1970	1280	1441	28
61	0	0	1957	1279	1439	27
62	0	0	1952	1281	1427	26
63	0	0	1945	1281	1420	27
64	0	0	1960	1282	1418	27
65	0	0	1987	1280	1420	28
66	0	0	2014	1280	1424	26
67	0	0	2046	1283	1431	25
68	0	0	2079	1281	1437	29
69	0	0	2116	1282	1441	31
70	0	0	2134	1282	1441	27
71	0	0	2150	1281	1438	29
72	0	0	2164	1282	1427	29
73	0	0	2181	1281	1420	28
74	0	0	2171	1280	1418	31
75	0	0	2133	1279	1420	24
76	0	0	2093	1278	1426	27
77	0	0	2044	1279	1431	27
78	0	0	2009	1280	1436	28
79	0	0	1976	1274	1440	27
80	0	0	1953	1280	1439	29
81	0	0	1942	1279	1436	28
82	0	0	1937	1282	1424	31
83	0	0	1938	1281	1417	28
84	0	0	1956	1281	1414	29
85	0	0	1986	1283	1417	28
86	0	0	2017	1280	1421	28
87	0	0	2049	1282	1428	31
88	0	0	2084	1283	1432	27
89	0	0	2116	1282	1437	29
90	0	0	2141	1284	1438	29
91	0	0	2154	1283	1435	31
92	0	0	2162	1284	1425	31
93	0	0	2183	1283	1417	31
94	0	0	2170	1282	1415	27
95	0	0	2140	1280	1418	28
96	0	0	2103	1280	1423	28
97	0	0	2049	1281	1427	28
98	0	0	2002	1280	1434	33
99	0	0	1971	1280	1436	29
100	0	0	1950	1283	1436	26
101	0	0	1939	1282	1433	28
102	0	0	1934	1283	1422	31
103	0	0	1933	1282	1412	28
104	0	0	1953	1282	1411	27
105	0	0	1985	1283	1414	27
106	0	0	2018	1283	1420	28
107	0	0	2059	1283	1426	28
108	0	0	2091	1285	1432	27
109	0	0	2121	1283	1435	28
110	0	0	2146	1283	1436	29
111	0	0	2159	1282	1433	32
112	0	0	2166	1284	1422	31
113	0	0	2189	1284	1416	31
114	0	0	2174	1282	1412	27
115	0	0	2144	1281	1415	27
116	0	0	2104	1279	1419	26
117	0	0	2048	1281	1425	27
118	0	0	2005	1280	1431	31
119	0	0	1973	1281	1432	27
120	0	0	1955	1281	1433	28
121	0	0	1945	1283	1430	27
122	0	0	1937	1283	1420	29
123	0	0	1934	1283	1412	26
124	0	0	1948	1283	1409	27
125	0	0	1986	1283	1411	27
126	0	0	2017	1283	1417	27
127	0	0	2053	1285	1423	31
0	0	0	2091	1282	1430	30
1	0	0	2120	1283	1432	31
2	0	0	2141	1284	1432	31
3	0	0	2156	1285	1428	28
4	0	0	2170	1284	1420	25
5	0	0	2192	1285	1412	25
6	0	0	2180	1282	1409	28
7	0	0	2144	1282	1411	31
8	0	0	2101	1282	1415	31
9	0	0	2050	1281	1421	31
10	0	0	2006	1281	1427	26
11	0	0	1973	1281	1429	27
12	0	0	1956	1282	1429	28
13	0	0	1947	1285	1424	26
14	0	0	1944	1283	1415	27
15	0	0	1937	1284	1407	27
16	0	0	1951	1284	1404	29
17	0	0	1987	1283	1406	28
18	0	0	2017	1284	1411	24
19	0	0	2055	1285	1417	29
20	0	0	2091	1284	1423	27
21	0	0	2119	1285	1427	28
22	0	0	2141	1285	1427	28
23	0	0	2162	1285	1424	29
24	0	0	2174	1285	1414	31
25	0	0	2193	1285	1405	31
26	0	0	2177	1282	1402	31
27	0	0	2141	1282	1405	28
28	0	0	2096	1283	1409	26
29	0	0	2040	1281	1415	27
30	0	0	1990	1282	1421	26
31	0	0	1961	1282	1423	28
32	0	0	1946	1282	1423	28
33	0	0	1940	1286	1419	28
34	0	0	1940	1285	1410	27
35	0	0	1941	1285	1401	26
36	0	0	1957	1285	1398	27
37	0	0	1980	1284	1399	27
38	0	0	2014	1285	1404	28
39	0	0	2051	1285	1411	27
40	0	0	2088	1284	1416	28
41	0	0	2122	1285	1420	31
42	0	0	2148	1285	1420	32
43	0	0	2163	1285	1417	31
44	0	0	2171	1285	1407	29
45	0	0	2195	1286	1400	28
46	0	0	2181	1283	1396	27
47	0	0	2144	1283	1398	28
48	0	0	2101	1279	1401	28
49	0	0	2049	1282	1408	30
50	0	0	2009	1282	1413	29
51	0	0	1982	1283	1417	27
52	0	0	1968	1283	1416	28
53	0	0	1957	1287	1411	27
54	0	0	1956	1285	1401	31
55	0	0	1947	1287	1393	26
56	0	0	1962	1286	1391	28
57	0	0	1993	1285	1392	27
58	0	0	2023	1285	1397	26
59	0	0	2056	1285	1403	29
60	0	0	2094	1284	1410	28
61	0	0	2124	1285	1414	28
62	0	0	2143	1285	1413	27
63	0	0	2153	1279	1409	28
64	0	0	2158	1286	1400	28
65	0	0	2182	1284	1392	30
66	0	0	2165	1283	1390	31
67	0	0	2136	1283	1391	31
68	0	0	2095	1284	1393	27
69	0	0	2050	1282	1400	28
70	0	0	2007	1283	1405	27
71	0	0	1973	1283	1408	27
72	0	0	1948	1284	1409	27
73	0	0	1941	1285	1405	27
74	0	0	1947	1286	1395	28
75	0	0	1952	1285	1387	29
76	0	0	1974	1286	1385	27
77	0	0	2004	1286	1386	28
78	0	0	2032	1287	1391	28
79	0	0	2062	1286	1397	28
80	0	0	2096	1287	1403	29
81	0	0	2118	1286	1407	28
82	0	0	2131	1286	1405	31
83	0	0	2133	1287	1402	31
84	0	0	2135	1286	1392	27
85	0	0	2142	1287	1384	29
86	0	0	2117	1284	1384	30
87	0	0	2084	1284	1383	31
88	0	0	2058	1284	1387	27
89	0	0	2016	1284	1393	27
90	0	0	1989	1284	1397	27
91	0	0	1982	1286	1402	29
92	0	0	1982	1287	1401	26
93	0	0	1982	1288	1396	27
94	0	0	1989	1286	1388	26
95	0	0	1987	1287	1381	27
96	0	0	1999	1288	1378	26
97	0	0	2027	1288	1379	27
98	0	0	2046	1287	1384	24
99	0	0	2067	1288	1390	28
100	0	0	2087	1289	1394	27
101	0	0	2104	1287	1399	28
102	0	0	2119	1288	1397	30
103	0	0	2118	1288	1394	30
104	0	0	2126	1286	1384	30
105	0	0	2145	1287	1377	27
106	0	0	2126	1284	1375	28
107	0	0	2092	1284	1375	29
108	0	0	2062	1284	1379	27
109	0	0	2026	1284	1384	29
110	0	0	1999	1285	1391	31
111	0	0	1985	1286	1395	29
112	0	0	1980	1287	1393	27
113	0	0	1980	1288	1391	28
114	0	0	1983	1288	1382	27
115	0	0	1978	1287	1373	27
116	0	0	1996	1288	1371	28
117	0	0	2025	1287	1371	27
118	0	0	2045	1287	1376	26
119	0	0	2068	1287	1383	29
120	0	0	2086	1288	1387	27
121	0	0	2106	1287	1390	31
122	0	0	2117	1287	1390	28
123	0	0	2119	1289	1386	27
124	0	0	2128	1288	1378	27
125	0	0	2144	1288	1368	24
126	0	0	2120	1285	1366	29
127	0	0	2092	1285	1367	32
0	0	0	2066	1284	1371	29
1	0	0	2027	1285	1377	26
2	0	0	2002	1285	1382	25
3	0	0	1991	1287	1385	27
4	0	0	1986	1287	1385	27
5	0	0	1986	1287	1383	27
6	0	0	1988	1288	1374	31
7	0	0	1984	1288	1365	27
8	0	0	2004	1289	1363	26
9	0	0	2029	1288	1364	26
10	0	0	2048	1288	1368	24
11	0	0	2067	1289	1373	27
12	0	0	2086	1288	1378	25
13	0	0	2105	1288	1381	27
14	0	0	2119	1288	1382	27
15	0	0	2122	1287	1378	30
16	0	0	2128	1285	1370	30
17	0	0	2145	1288	1361	27
18	0	0	2122	1286	1359	27
19	0	0	2091	1285	1360	27
20	0	0	2062	1285	1365	24
21	0	0	2022	1285	1369	27
22	0	0	2006	1286	1374	30
23	0	0	1989	1287	1380	25
24	0	0	1983	1287	1377	27
25	0	0	1987	1287	1375	27
26	0	0	1989	1288	1367	29
27	0	0	1988	1289	1358	25
28	0	0	1999	1288	1354	25
29	0	0	2023	1288	1356	28
30	0	0	2039	1288	1359	27
31	0	0	2062	1288	1367	29
32	0	0	2079	1288	1370	25
33	0	0	2102	1288	1372	31
34	0	0	2115	1289	1374	30
35	0	0	2122	1287	1370	27
36	0	0	2130	1290	1362	25
37	0	0	2148	1288	1352	23
38	0	0	2130	1286	1351	26
39	0	0	2101	1286	1352	30
40	0	0	2070	1285	1355	30
41	0	0	2028	1285	1361	27
42	0	0	1994	1286	1366	27
43	0	0	1982	1287	1369	27
44	0	0	1978	1289	1370	27
45	0	0	1980	1288	1367	27
46	0	0	1981	1288	1358	27
47	0	0	1977	1289	1351	26
48	0	0	1994	1289	1347	26
49	0	0	2018	1290	1349	26
50	0	0	2036	1289	1353	27
51	0	0	2060	1289	1359	29
52	0	0	2084	1289	1362	26
53	0	0	2108	1289	1365	25
54	0	0	2124	1288	1366	27
55	0	0	2134	1290	1363	26
56	0	0	2143	1289	1355	27
57	0	0	2158	1289	1346	26
58	0	0	2137	1285	1344	29
59	0	0	2104	1287	1345	25
60	0	0	2079	1287	1349	27
61	0	0	2044	1286	1353	27
62	0	0	2014	1287	1360	26
63	0	0	1997	1287	1361	24
64	0	0	1987	1289	1363	26
65	0	0	1978	1289	1359	27
66	0	0	1980	1290	1350	26
67	0	0	1975	1290	1343	24
68	0	0	1990	1290	1340	26
69	0	0	2015	1290	1341	27
70	0	0	2036	1289	1345	26
71	0	0	2057	1290	1351	27
72	0	0	2084	1290	1356	24
73	0	0	2110	1291	1359	27
74	0	0	2122	1290	1359	27
75	0	0	2127	1290	1357	28
76	0	0	2145	1292	1347	26
77	0	0	2172	1290	1340	24
78	0	0	2140	1287	1336	25
79	0	0	2108	1288	1337	26
80	0	0	2082	1287	1341	27
81	0	0	2038	1288	1345	25
82	0	0	2005	1288	1352	24
83	0	0	1991	1289	1356	26
84	0	0	1976	1289	1356	26
85	0	0	1969	1291	1355	27
86	0	0	1962	1289	1345	27
87	0	0	1953	1291	1337	28
88	0	0	1962	1290	1334	26
89	0	0	1993	1290	1335	26
90	0	0	2017	1291	1338	29
91	0	0	2047	1292	1342	26
92	0	0	2073	1292	1350	24
93	0	0	2106	1290	1352	25
94	0	0	2129	1291	1352	26
95	0	0	2144	1291	1349	26
96	0	0	2159	1291	1340	26
97	0	0	2189	1291	1333	26
98	0	0	2169	1287	1330	25
99	0	0	2132	1288	1331	26
100	0	0	2098	1286	1334	24
101	0	0	2037	1287	1340	24
102	0	0	1986	1288	1345	26
103	0	0	1954	1288	1349	26
104	0	0	1943	1291	1349	26
105	0	0	1937	1291	1346	27
106	0	0	1933	1291	1336	26
107	0	0	1915	1292	1330	26
108	0	0	1931	1292	1328	25
109	0	0	1968	1292	1328	26
110	0	0	2000	1291	1332	26
111	0	0	2046	1293	1337	27
112	0	0	2103	1292	1342	25
113	0	0	2156	1292	1344	25
114	0	0	2204	1291	1345	25
115	0	0	2232	1291	1342	27
116	0	0	2259	1292	1334	26
117	0	0	2316	1291	1325	25
118	0	0	2280	1285	1324	29
119	0	0	2207	1288	1325	26
120	0	0	2133	1287	1328	25
121	0	0	2027	1289	1334	27
122	0	0	1930	1288	1339	30
123	0	0	1872	1288	1342	27
124	0	0	1834	1288	1343	25
125	0	0	1807	1288	1339	26
126	0	0	1791	1288	1333	24
127	0	0	1764	1293	1325	26
0	0	0	1804	1292	1322	26
1	0	0	1875	1293	1323	26
2	0	0	1940	1292	1326	27
3	0	0	2022	1295	1332	26
4	0	0	2119	1292	1336	26
5	0	0	2222	1291	1338	26
6	0	0	2301	1292	1339	25
7	0	0	2351	1292	1337	26
8	0	0	2406	1292	1327	26
9	0	0	2530	1290	1319	28
10	0	0	2509	1286	1319	24
11	0	0	2396	1286	1318	26
12	0	0	2278	1285	1321	25
13	0	0	2057	1287	1329	24
14	0	0	1841	1286	1333	27
15	0	0	1692	1287	1336	23
16	0	0	1571	1288	1337	27
17	0	0	1471	1287	1335	27
18	0	0	1418	1290	1329	24
19	0	0	1343	1290	1321	28
20	0	0	1409	1294	1318	25
21	0	0	1588	1297	1319	26
22	0	0	1758	1294	1322	25
23	0	0	1989	1294	1326	24
24	0	0	2262	1294	1330	27
25	0	0	2625	1293	1333	24
26	0	0	2989	1292	1331	23
27	0	0	3280	1291	1328	24
28	0	0	3517	1292	1319	23
29	0	0	3745	1288	1309	24
30	0	0	3867	1286	1305	23
31	0	0	3572	1281	1308	23
32	0	0	3124	1279	1312	23
33	0	0	2458	1282	1319	27
34	0	0	1791	1282	1325	27
35	0	0	1278	1282	1330	26
36	0	0	906	1285	1330	30
37	0	0	644	1286	1332	28
38	0	0	487	1288	1325	26
39	0	0	336	1290	1318	28
40	0	0	455	1294	1315	25
41	0	0	818	1295	1316	25
42	0	0	1186	1296	1319	25
43	0	0	1619	1296	1323	26
44	0	0	2082	1294	1325	25
45	0	0	2593	1294	1327	25
46	0	0	3051	1294	1326	24
47	0	0	3397	1293	1323	24
48	0	0	3638	1291	1314	20
49	0	0	3815	1288	1304	23
50	0	0	3913	1288	1302	23
51	0	0	3744	1281	1302	23
52	0	0	3288	1281	1307	25
53	0	0	2598	1282	1314	24
54	0	0	1893	1281	1320	27
55	0	0	1321	1283	1323	25
56	0	0	888	1285	1326	28
57	0	0	571	1288	1326	29
58	0	0	377	1288	1320	28
59	0	0	222	1290	1313	27
60	0	0	315	1295	1310	27
61	0	0	690	1296	1311	27
62	0	0	1087	1296	1313	26
63	0	0	1552	1296	1319	24
64	0	0	2064	1296	1320	27
65	0	0	2616	1296	1321	24
66	0	0	3118	1294	1321	24
67	0	0	3498	1291	1318	23
68	0	0	3735	1291	1309	23
69	0	0	3871	1289	1299	23
70	0	0	3945	1289	1296	23
71	0	0	3869	1282	1297	23
72	0	0	3387	1282	1302	26
73	0	0	2645	1282	1308	26
74	0	0	1881	1283	1314	27
75	0	0	1280	1284	1319	27
76	0	0	815	1285	1320	28
77	0	0	474	1286	1320	25
78	0	0	275	1287	1313	27
79	0	0	160	1291	1307	25
80	0	0	179	1298	1303	27
81	0	0	607	1297	1305	26
82	0	0	1042	1298	1308	26
83	0	0	1542	1297	1312	26
84	0	0	2067	1296	1314	23
85	0	0	2643	1295	1314	23
86	0	0	3177	1295	1316	23
87	0	0	3546	1293	1312	24
88	0	0	3761	1291	1302	21
89	0	0	3883	1290	1294	24
90	0	0	3953	1290	1291	23
91	0	0	3931	1282	1291	23
92	0	0	3441	1282	1295	27
93	0	0	2665	1283	1303	24
94	0	0	1859	1281	1308	27
95	0	0	1220	1284	1312	25
96	0	0	736	1286	1315	27
97	0	0	411	1288	1314	27
98	0	0	238	1289	1307	27
99	0	0	140	1291	1302	25
100	0	0	92	1302	1296	25
101	0	0	547	1298	1299	27
102	0	0	1012	1295	1302	25
103	0	0	1533	1296	1305	27
104	0	0	2097	1296	1308	23
105	0	0	2703	1296	1310	22
106	0	0	3244	1295	1310	23
107	0	0	3590	1291	1305	22
108	0	0	3787	1291	1296	21
109	0	0	3900	1292	1288	22
110	0	0	3959	1287	1282	24
111	0	0	3955	1284	1285	25
112	0	0	3448	1283	1289	23
113	0	0	2659	1281	1295	23
114	0	0	1828	1284	1302	26
115	0	0	1168	1285	1304	27
116	0	0	682	1286	1309	28
117	0	0	383	1288	1309	30
118	0	0	216	1289	1302	29
119	0	0	132	1292	1296	24
120	0	0	85	1293	1292	25
121	0	0	498	1297	1292	25
122	0	0	979	1299	1296	26
123	0	0	1511	1297	1300	25
124	0	0	2079	1298	1303	26
125	0	0	2702	1297	1305	24
126	0	0	3237	1295	1303	23
127	0	0	3581	1294	1299	26
0	0	0	3787	1290	1290	22
1	0	0	3895	1292	1282	20
2	0	0	3958	1290	1278	23
3	0	0	3943	1283	1280	22
4	0	0	3415	1284	1284	24
5	0	0	2613	1281	1288	24
6	0	0	1759	1285	1296	24
7	0	0	1081	1286	1297	27
8	0	0	618	1286	1302	26
9	0	0	352	1288	1302	27
10	0	0	201	1287	1297	27
11	0	0	123	1292	1290	27
12	0	0	82	1293	1288	26
13	0	0	449	1299	1288	26
14	0	0	946	1298	1290	25
15	0	0	1485	1298	1294	25
16	0	0	2059	1298	1297	26
17	0	0	2692	1297	1298	23
18	0	0	3239	1296	1298	23
19	0	0	3584	1294	1293	23
20	0	0	3787	1291	1284	19
21	0	0	3899	1292	1276	24
22	0	0	3963	1290	1272	22
23	0	0	3947	1284	1273	25
24	0	0	3415	1284	1278	26
25	0	0	2604	1283	1284	21
26	0	0	1726	1285	1290	27
27	0	0	1029	1286	1295	27
28	0	0	584	1285	1296	26
29	0	0	333	1289	1296	31
30	0	0	194	1290	1292	28
31	0	0	118	1294	1285	24
32	0	0	82	1296	1283	25
33	0	0	392	1296	1282	25
34	0	0	892	1298	1285	24
35	0	0	1448	1295	1288	24
36	0	0	2031	1299	1291	24
37	0	0	2690	1297	1292	22
38	0	0	3255	1297	1292	23
39	0	0	3596	1292	1288	22
40	0	0	3794	1292	1280	22
41	0	0	3904	1292	1271	23
42	0	0	3967	1291	1267	24
43	0	0	3993	1285	1269	25
44	0	0	3464	1283	1273	23
45	0	0	2637	1284	1278	24
46	0	0	1741	1285	1284	26
47	0	0	1039	1286	1289	25
48	0	0	590	1287	1292	27
49	0	0	338	1289	1292	25
50	0	0	198	1291	1286	27
51	0	0	123	1293	1281	27
52	0	0	86	1294	1277	28
53	0	0	415	1299	1278	28
54	0	0	927	1298	1279	26
55	0	0	1483	1295	1284	24
56	0	0	2068	1298	1286	25
57	0	0	2715	1297	1288	23
58	0	0	3272	1296	1286	23
59	0	0	3608	1295	1284	19
60	0	0	3800	1294	1275	19
61	0	0	3912	1294	1267	23
62	0	0	3971	1291	1263	24
63	0	0	4000	1285	1264	23
64	0	0	3469	1282	1268	25
65	0	0	2632	1283	1273	23
66	0	0	1737	1285	1280	24
67	0	0	1012	1286	1285	25
68	0	0	577	1287	1287	27
69	0	0	332	1290	1287	26
70	0	0	196	1291	1281	26
71	0	0	120	1295	1275	27
72	0	0	87	1295	1272	26
73	0	0	396	1297	1273	26
74	0	0	918	1298	1275	25
75	0	0	1486	1301	1279	26
76	0	0	2079	1298	1281	23
77	0	0	2731	1298	1283	24
78	0	0	3284	1296	1282	22
79	0	0	3616	1295	1278	23
80	0	0	3810	1295	1271	20
81	0	0	3920	1293	1262	22
82	0	0	3977	1291	1259	22
83	0	0	3998	1285	1260	23
84	0	0	3468	1285	1262	25
85	0	0	2626	1283	1269	25
86	0	0	1729	1285	1276	27
87	0	0	1006	1286	1279	31
88	0	0	574	1288	1282	27
89	0	0	329	1289	1281	25
90	0	0	196	1292	1277	32
91	0	0	128	1294	1271	26
92	0	0	89	1295	1268	28
93	0	0	358	1299	1269	27
94	0	0	887	1299	1272	24
95	0	0	1467	1300	1274	24
96	0	0	2077	1302	1277	28
97	0	0	2734	1298	1277	26
98	0	0	3286	1296	1277	23
99	0	0	3620	1295	1276	24
100	0	0	3812	1294	1266	23
101	0	0	3922	1293	1259	22
102	0	0	3980	1292	1255	23
103	0	0	4002	1285	1255	23
104	0	0	3459	1284	1258	24
105	0	0	2611	1282	1266	26
106	0	0	1703	1286	1270	26
107	0	0	990	1285	1274	29
108	0	0	564	1287	1277	27
109	0	0	328	1289	1277	28
110	0	0	196	1292	1273	30
111	0	0	124	1294	1267	29
112	0	0	92	1294	1264	27
113	0	0	350	1298	1264	25
114	0	0	875	1299	1266	25
115	0	0	1448	1301	1270	24
116	0	0	2064	1299	1272	27
117	0	0	2721	1298	1275	26
118	0	0	3281	1297	1272	22
119	0	0	3618	1295	1269	22
120	0	0	3811	1296	1262	24
121	0	0	3923	1293	1254	23
122	0	0	3981	1291	1250	23
123	0	0	3991	1285	1251	22
124	0	0	3450	1286	1254	24
125	0	0	2607	1286	1260	28
126	0	0	1690	1285	1266	29
127	0	0	978	1287	1270	28
0	0	0	560	1288	1273	27
1	0	0	327	1289	1273	27
2	0	0	196	1293	1269	32
3	0	0	128	1295	1263	27
4	0	0	94	1295	1260	27
5	0	0	338	1299	1261	24
6	0	0	863	1301	1262	26
7	0	0	1440	1301	1266	26
8	0	0	2059	1296	1268	27
9	0	0	2722	1299	1270	23
10	0	0	3285	1299	1269	23
11	0	0	3621	1297	1268	24
12	0	0	3817	1292	1258	21
13	0	0	3926	1293	1250	21
14	0	0	3984	1291	1246	24
15	0	0	4017	1287	1248	24
16	0	0	3480	1284	1252	24
17	0	0	2637	1284	1257	24
18	0	0	1713	1285	1263	25
19	0	0	988	1286	1267	29
20	0	0	572	1289	1270	27
21	0	0	333	1292	1270	24
22	0	0	200	1292	1265	24
23	0	0	133	1294	1260	28
24	0	0	98	1295	1257	27
25	0	0	333	1296	1257	26
26	0	0	862	1300	1261	24
27	0	0	1442	1300	1262	30
28	0	0	2036	1300	1265	24
29	0	0	2690	1299	1265	21
30	0	0	3264	1297	1266	23
31	0	0	3610	1295	1263	25
32	0	0	3811	1296	1255	24
33	0	0	3923	1294	1247	21
34	0	0	3985	1291	1243	21
35	0	0	4018	1285	1244	23
36	0	0	3504	1284	1248	21
37	0	0	2663	1285	1253	25
38	0	0	1733	1283	1260	26
39	0	0	998	1287	1264	25
40	0	0	581	1287	1267	27
41	0	0	336	1289	1266	29
42	0	0	206	1292	1263	27
43	0	0	138	1294	1257	26
44	0	0	103	1296	1254	25
45	0	0	331	1300	1255	26
46	0	0	865	1301	1257	25
47	0	0	1433	1298	1258	27
48	0	0	2031	1299	1262	24
49	0	0	2705	1298	1264	23
50	0	0	3270	1298	1264	22
51	0	0	3616	1297	1261	23
52	0	0	3815	1295	1253	20
53	0	0	3926	1292	1244	22
54	0	0	3991	1292	1242	22
55	0	0	3863	1286	1242	24
56	0	0	3305	1285	1245	26
57	0	0	2557	1287	1251	22
58	0	0	1725	1286	1257	26
59	0	0	1043	1287	1261	25
60	0	0	608	1288	1264	27
61	0	0	354	1290	1264	26
62	0	0	217	1292	1259	25
63	0	0	144	1295	1254	27
64	0	0	112	1295	1250	24
65	0	0	381	1299	1252	25
66	0	0	884	1302	1254	25
67	0	0	1435	1301	1257	24
68	0	0	2008	1301	1261	24
69	0	0	2628	1299	1261	22
70	0	0	3169	1296	1261	23
71	0	0	3556	1294	1257	22
72	0	0	3784	1295	1251	22
73	0	0	3913	1294	1243	22
74	0	0	3982	1294	1239	20
75	0	0	3921	1287	1240	22
76	0	0	3390	1285	1242	23
77	0	0	2656	1286	1248	21
78	0	0	1836	1285	1254	25
79	0	0	1154	1287	1259	26
80	0	0	671	1291	1260	26
81	0	0	395	1290	1261	27
82	0	0	240	1294	1257	24
83	0	0	159	1292	1251	28
84	0	0	116	1295	1249	24
85	0	0	384	1300	1249	25
86	0	0	885	1302	1252	25
87	0	0	1431	1302	1255	24
88	0	0	1992	1300	1257	24
89	0	0	2605	1299	1258	22
90	0	0	3159	1298	1258	23
91	0	0	3541	1297	1256	19
92	0	0	3779	1294	1248	21
93	0	0	3909	1292	1240	23
94	0	0	3982	1292	1237	22
95	0	0	3952	1287	1239	24
96	0	0	3430	1285	1240	20
97	0	0	2676	1286	1246	27
98	0	0	1845	1286	1252	24
99	0	0	1151	1288	1256	24
100	0	0	672	1289	1259	27
101	0	0	397	1290	1258	26
102	0	0	243	1295	1254	27
103	0	0	161	1295	1250	26
104	0	0	118	1296	1247	25
105	0	0	396	1299	1247	25
106	0	0	902	1300	1248	23
107	0	0	1440	1300	1252	23
108	0	0	1995	1300	1255	24
109	0	0	2609	1299	1256	24
110	0	0	3165	1298	1257	23
111	0	0	3554	1295	1253	23
112	0	0	3785	1295	1246	22
113	0	0	3912	1294	1238	21
114	0	0	3988	1293	1235	22
115	0	0	3966	1288	1235	23
116	0	0	3441	1287	1238	23
117	0	0	2699	1287	1244	24
118	0	0	1881	1286	1251	24
119	0	0	1194	1288	1255	28
120	0	0	702	1289	1257	27
121	0	0	410	1291	1256	23
122	0	0	254	1293	1253	26
123	0	0	167	1294	1247	27
124	0	0	122	1296	1245	24
125	0	0	399	1300	1244	26
126	0	0	903	1301	1247	24
127	0	0	1438	1299	1249	24
0	0	0	2003	1302	1253	26
1	0	0	2606	1299	1256	24
2	0	0	3156	1298	1254	23
3	0	0	3552	1298	1252	22
4	0	0	3782	1296	1244	22
5	0	0	3916	1295	1234	21
6	0	0	3988	1294	1234	21
7	0	0	3978	1287	1233	22
8	0	0	3460	1287	1236	22
9	0	0	2716	1287	1242	24
10	0	0	1892	1288	1248	24
11	0	0	1208	1289	1252	26
12	0	0	718	1289	1254	26
13	0	0	419	1290	1255	26
14	0	0	258	1293	1252	28
15	0	0	167	1295	1246	25
16	0	0	125	1297	1243	25
17	0	0	397	1303	1243	25
18	0	0	901	1302	1245	22
19	0	0	1444	1301	1248	24
20	0	0	2000	1300	1251	23
21	0	0	2591	1300	1253	23
22	0	0	3132	1299	1252	22
23	0	0	3534	1299	1250	21
24	0	0	3772	1297	1244	23
25	0	0	3910	1297	1235	23
26	0	0	3980	1294	1231	23
27	0	0	3970	1287	1231	22
28	0	0	3458	1286	1235	23
29	0	0	2741	1286	1240	24
30	0	0	1923	1288	1245	27
31	0	0	1241	1287	1251	28
32	0	0	738	1290	1252	26
33	0	0	435	1290	1252	26
34	0	0	266	1294	1249	26
35	0	0	176	1296	1243	26
36	0	0	128	1297	1240	27
37	0	0	398	1302	1241	25
38	0	0	890	1299	1244	27
39	0	0	1413	1302	1246	26
40	0	0	1968	1303	1249	23
41	0	0	2555	1300	1250	23
42	0	0	3096	1303	1250	20
43	0	0	3504	1299	1247	20
44	0	0	3756	1296	1241	23
45	0	0	3899	1296	1232	22
46	0	0	3980	1295	1229	23
47	0	0	3963	1289	1229	22
48	0	0	3459	1287	1231	25
49	0	0	2743	1288	1237	25
50	0	0	1926	1289	1243	25
51	0	0	1247	1289	1247	23
52	0	0	751	1291	1250	26
53	0	0	443	1291	1249	26
54	0	0	270	1294	1246	27
55	0	0	179	1296	1241	26
56	0	0	132	1297	1238	23
57	0	0	407	1300	1239	25
58	0	0	896	1302	1239	28
59	0	0	1419	1300	1243	27
60	0	0	1968	1301	1246	23
61	0	0	2547	1301	1247	20
62	0	0	3084	1300	1246	22
63	0	0	3500	1295	1244	22
64	0	0	3752	1297	1238	21
65	0	0	3897	1296	1228	21
66	0	0	3979	1295	1225	19
67	0	0	3959	1288	1225	22
68	0	0	3459	1287	1228	23
69	0	0	2761	1285	1234	25
70	0	0	1960	1291	1239	25
71	0	0	1284	1291	1243	28
72	0	0	781	1291	1246	27
73	0	0	461	1291	1246	27
74	0	0	282	1292	1243	29
75	0	0	185	1297	1238	25
76	0	0	136	1297	1234	19
77	0	0	407	1301	1235	24
78	0	0	899	1299	1236	24
79	0	0	1407	1302	1239	24
80	0	0	1948	1302	1242	24
81	0	0	2535	1301	1242	23
82	0	0	3065	1300	1243	23
83	0	0	3486	1299	1240	23
84	0	0	3747	1296	1234	23
85	0	0	3893	1295	1225	23
86	0	0	3980	1295	1222	21
87	0	0	3987	1288	1222	21
88	0	0	3481	1288	1224	24
89	0	0	2793	1288	1230	24
90	0	0	1997	1288	1235	25
91	0	0	1313	1290	1240	25
92	0	0	805	1291	1242	26
93	0	0	475	1292	1241	27
94	0	0	288	1295	1239	25
95	0	0	192	1296	1234	25
96	0	0	139	1298	1231	26
97	0	0	402	1302	1231	26
98	0	0	892	1302	1232	24
99	0	0	1398	1303	1235	21
100	0	0	1941	1300	1238	23
101	0	0	2522	1300	1238	19
102	0	0	3053	1302	1239	23
103	0	0	3475	1299	1236	22
104	0	0	3741	1299	1230	19
105	0	0	3893	1296	1220	21
106	0	0	3980	1296	1217	20
107	0	0	3980	1288	1217	22
108	0	0	3478	1287	1221	24
109	0	0	2798	1288	1225	24
110	0	0	2002	1285	1230	24
111	0	0	1319	1289	1234	19
112	0	0	815	1292	1237	25
113	0	0	483	1293	1239	27
114	0	0	295	1294	1234	27
115	0	0	194	1296	1229	25
116	0	0	141	1297	1224	24
117	0	0	398	1302	1226	25
118	0	0	884	1301	1227	28
119	0	0	1390	1300	1231	25
120	0	0	1918	1299	1233	23
121	0	0	2504	1300	1234	22
122	0	0	3043	1299	1233	22
123	0	0	3450	1298	1231	23
124	0	0	3716	1298	1225	19
125	0	0	3879	1296	1217	20
126	0	0	3968	1295	1213	20
127	0	0	3974	1288	1213	23
0	0	0	3482	1289	1215	21
1	0	0	2811	1288	1221	21
2	0	0	2032	1288	1226	25
3	0	0	1348	1289	1229	24
4	0	0	845	1290	1232	26
5	0	0	503	1291	1232	27
6	0	0	307	1295	1228	25
7	0	0	200	1296	1225	25
8	0	0	144	1296	1221	24
9	0	0	424	1302	1220	24
10	0	0	904	1301	1222	23
11	0	0	1413	1303	1224	22
12	0	0	1928	1300	1227	23
13	0	0	2487	1301	1228	20
14	0	0	3012	1300	1228	22
15	0	0	3421	1302	1225	20
16	0	0	3695	1299	1216	24
17	0	0	3867	1295	1210	21
18	0	0	3965	1294	1207	24
19	0	0	3955	1288	1206	21
20	0	0	3465	1287	1208	23
21	0	0	2806	1288	1213	23
22	0	0	2036	1290	1219	24
23	0	0	1363	1289	1224	18
24	0	0	865	1290	1225	25
25	0	0	514	1291	1226	26
26	0	0	315	1295	1221	25
27	0	0	205	1294	1217	27
28	0	0	148	1297	1215	25
29	0	0	440	1302	1212	24
30	0	0	911	1302	1216	22
31	0	0	1410	1302	1219	23
32	0	0	1925	1300	1221	23
33	0	0	2477	1301	1222	22
34	0	0	2987	1302	1222	22
35	0	0	3393	1298	1219	22
36	0	0	3653	1297	1211	24
37	0	0	3844	1298	1204	21
38	0	0	3952	1294	1200	20
39	0	0	3941	1289	1201	22
40	0	0	3458	1288	1202	23
41	0	0	2817	1289	1206	24
42	0	0	2064	1287	1212	24
43	0	0	1414	1290	1216	24
44	0	0	921	1291	1220	23
45	0	0	564	1291	1218	27
46	0	0	348	1295	1216	24
47	0	0	227	1297	1211	26
48	0	0	160	1298	1209	25
49	0	0	473	1302	1208	24
50	0	0	928	1302	1210	24
51	0	0	1406	1303	1213	23
52	0	0	1908	1300	1214	24
53	0	0	2448	1301	1215	23
54	0	0	2954	1301	1215	22
55	0	0	3356	1299	1211	23
56	0	0	3617	1297	1204	22
57	0	0	3824	1299	1198	21
58	0	0	3940	1295	1194	20
59	0	0	3917	1289	1195	21
60	0	0	3446	1289	1196	24
61	0	0	2815	1289	1200	24
62	0	0	2080	1290	1206	25
63	0	0	1445	1290	1210	25
64	0	0	964	1289	1212	24
65	0	0	617	1292	1213	25
66	0	0	409	1295	1209	25
67	0	0	267	1299	1205	25
68	0	0	204	1302	1203	24
69	0	0	536	1300	1202	24
70	0	0	956	1304	1204	21
71	0	0	1413	1302	1204	24
72	0	0	1906	1303	1208	23
73	0	0	2427	1301	1209	22
74	0	0	2921	1298	1208	22
75	0	0	3308	1300	1206	19
76	0	0	3555	1299	1199	21
77	0	0	3786	1297	1192	21
78	0	0	3918	1295	1189	21
79	0	0	3877	1288	1190	23
80	0	0	3414	1290	1191	24
81	0	0	2810	1288	1196	26
82	0	0	2103	1291	1200	23
83	0	0	1484	1290	1204	24
84	0	0	1020	1289	1208	24
85	0	0	688	1293	1207	22
86	0	0	484	1295	1203	26
87	0	0	322	1296	1199	27
88	0	0	292	1302	1197	24
89	0	0	600	1300	1196	24
90	0	0	1003	1302	1199	23
91	0	0	1433	1302	1201	23
92	0	0	1894	1305	1203	22
93	0	0	2392	1301	1203	21
94	0	0	2848	1299	1204	21
95	0	0	3227	1300	1201	17
96	0	0	3468	1299	1194	20
97	0	0	3726	1296	1187	20
98	0	0	3880	1295	1183	21
99	0	0	3776	1288	1184	20
100	0	0	3339	1289	1185	18
101	0	0	2781	1288	1192	23
102	0	0	2119	1291	1195	24
103	0	0	1537	1290	1198	25
104	0	0	1103	1292	1201	24
105	0	0	791	1293	1201	25
106	0	0	606	1294	1198	26
107	0	0	453	1296	1194	25
108	0	0	451	1302	1191	24
109	0	0	730	1308	1191	24
110	0	0	1103	1303	1193	26
111	0	0	1508	1306	1195	23
112	0	0	1935	1307	1197	15
113	0	0	2382	1302	1198	22
114	0	0	2799	1299	1196	21
115	0	0	3117	1300	1195	17
116	0	0	3317	1299	1189	23
117	0	0	3600	1299	1183	20
118	0	0	3746	1292	1178	21
119	0	0	3483	1289	1178	21
120	0	0	3079	1289	1181	20
121	0	0	2579	1288	1186	23
122	0	0	1997	1291	1190	21
123	0	0	1508	1291	1193	24
124	0	0	1160	1291	1196	25
125	0	0	925	1294	1199	26
126	0	0	801	1295	1194	26
127	0	0	699	1297	1189	25
0	0	0	724	1302	1187	25
1	0	0	983	1303	1187	24
2	0	0	1306	1304	1189	25
3	0	0	1653	1304	1193	23
4	0	0	2023	1304	1192	23
5	0	0	2408	1302	1193	22
6	0	0	2756	1300	1194	23
7	0	0	3039	1301	1191	16
8	0	0	3221	1299	1187	16
9	0	0	3491	1297	1178	20
10	0	0	3634	1295	1174	21
11	0	0	3430	1290	1174	19
12	0	0	3106	1289	1176	22
13	0	0	2670	1290	1182	23
14	0	0	2131	1290	1186	22
15	0	0	1656	1291	1190	23
16	0	0	1287	1292	1192	25
17	0	0	1017	1295	1192	24
18	0	0	849	1296	1191	26
19	0	0	701	1296	1187	24
20	0	0	674	1302	1183	23
21	0	0	899	1303	1183	25
22	0	0	1212	1303	1184	23
23	0	0	1569	1304	1188	23
24	0	0	1955	1305	1188	22
25	0	0	2362	1302	1188	21
26	0	0	2751	1302	1189	20
27	0	0	3057	1303	1186	20
28	0	0	3257	1300	1183	22
29	0	0	3539	1297	1174	20
30	0	0	3715	1297	1171	19
31	0	0	3506	1292	1171	21
32	0	0	3158	1290	1173	19
33	0	0	2693	1291	1178	22
34	0	0	2125	1289	1183	24
35	0	0	1618	1292	1187	24
36	0	0	1242	1292	1189	24
37	0	0	965	1294	1190	23
38	0	0	798	1294	1188	25
39	0	0	666	1296	1182	25
40	0	0	642	1304	1181	24
41	0	0	874	1304	1180	24
42	0	0	1206	1305	1182	24
43	0	0	1564	1305	1183	24
44	0	0	1952	1302	1187	22
45	0	0	2370	1302	1187	21
46	0	0	2756	1301	1188	21
47	0	0	3065	1300	1185	21
48	0	0	3262	1300	1179	21
49	0	0	3533	1299	1172	21
50	0	0	3703	1297	1169	20
51	0	0	3494	1291	1169	20
52	0	0	3137	1289	1171	21
53	0	0	2683	1291	1174	23
54	0	0	2122	1292	1181	23
55	0	0	1616	1291	1184	23
56	0	0	1237	1292	1189	24
57	0	0	965	1294	1188	27
58	0	0	801	1296	1186	25
59	0	0	665	1296	1182	25
60	0	0	656	1303	1180	24
61	0	0	895	1303	1180	27
62	0	0	1226	1304	1181	23
63	0	0	1579	1303	1184	20
64	0	0	1960	1306	1187	21
65	0	0	2367	1302	1188	21
66	0	0	2745	1302	1188	21
67	0	0	3047	1301	1187	19
68	0	0	3242	1301	1181	20
69	0	0	3513	1297	1174	20
70	0	0	3688	1297	1170	20
71	0	0	3488	1291	1170	21
72	0	0	3146	1289	1172	22
73	0	0	2700	1290	1176	23
74	0	0	2146	1294	1183	24
75	0	0	1647	1290	1188	24
76	0	0	1269	1291	1191	25
77	0	0	997	1293	1192	24
78	0	0	828	1296	1188	26
79	0	0	691	1295	1184	25
80	0	0	659	1306	1184	23
81	0	0	874	1303	1183	24
82	0	0	1188	1303	1187	23
83	0	0	1530	1304	1187	23
84	0	0	1908	1305	1192	22
85	0	0	2319	1303	1193	22
86	0	0	2707	1302	1194	22
87	0	0	3024	1301	1191	20
88	0	0	3243	1300	1186	21
89	0	0	3536	1299	1179	20
90	0	0	3755	1297	1177	23
91	0	0	3586	1291	1177	23
92	0	0	3249	1288	1179	21
93	0	0	2794	1291	1185	19
94	0	0	2224	1290	1191	23
95	0	0	1684	1291	1196	25
96	0	0	1273	1293	1200	25
97	0	0	973	1294	1201	24
98	0	0	783	1296	1200	25
99	0	0	633	1298	1195	26
100	0	0	582	1304	1192	26
101	0	0	791	1303	1193	24
102	0	0	1120	1304	1196	23
103	0	0	1481	1305	1198	23
104	0	0	1871	1303	1202	23
105	0	0	2303	1302	1205	24
106	0	0	2726	1302	1206	21
107	0	0	3066	1299	1204	20
108	0	0	3304	1300	1197	20
109	0	0	3593	1295	1191	20
110	0	0	3801	1297	1187	20
111	0	0	3707	1292	1188	24
112	0	0	3333	1290	1193	23
113	0	0	2847	1290	1197	21
114	0	0	2239	1289	1204	24
115	0	0	1673	1292	1210	25
116	0	0	1241	1291	1215	26
117	0	0	924	1294	1216	26
118	0	0	717	1298	1214	27
119	0	0	557	1295	1205	25
120	0	0	499	1304	1205	24
121	0	0	725	1304	1206	24
122	0	0	1074	1305	1209	23
123	0	0	1464	1304	1211	25
124	0	0	1877	1303	1216	22
125	0	0	2335	1303	1220	22
126	0	0	2776	1302	1221	21
127	0	0	3129	1303	1218	20
0	0	0	3374	1301	1212	20
1	0	0	3643	1299	1205	21
2	0	0	3832	1298	1201	20
3	0	0	3792	1290	1201	22
4	0	0	3379	1291	1204	23
5	0	0	2857	1291	1212	25
6	0	0	2220	1292	1219	23
7	0	0	1636	1292	1225	27
8	0	0	1193	1293	1230	27
9	0	0	866	1293	1230	24
10	0	0	661	1296	1227	26
11	0	0	500	1297	1222	25
12	0	0	452	1304	1219	23
13	0	0	680	1304	1219	24
14	0	0	1042	1304	1222	24
15	0	0	1442	1305	1225	24
16	0	0	1871	1303	1231	23
17	0	0	2323	1304	1235	23
18	0	0	2763	1303	1235	22
19	0	0	3127	1302	1234	22
20	0	0	3372	1300	1228	21
21	0	0	3638	1297	1218	22
22	0	0	3828	1298	1214	22
23	0	0	3780	1293	1215	23
24	0	0	3374	1290	1219	23
25	0	0	2866	1290	1226	24
26	0	0	2230	1291	1232	24
27	0	0	1647	1290	1240	25
28	0	0	1195	1295	1243	25
29	0	0	867	1295	1245	25
30	0	0	669	1296	1242	28
31	0	0	507	1297	1235	26
32	0	0	452	1304	1232	25
33	0	0	675	1304	1233	25
34	0	0	1029	1306	1236	23
35	0	0	1417	1304	1242	25
36	0	0	1846	1303	1245	24
37	0	0	2307	1305	1249	22
38	0	0	2750	1305	1251	23
39	0	0	3111	1303	1249	22
40	0	0	3355	1302	1244	21
41	0	0	3628	1298	1232	21
42	0	0	3820	1298	1228	23
43	0	0	3764	1292	1228	23
44	0	0	3370	1293	1232	22
45	0	0	2873	1292	1241	25
46	0	0	2245	1291	1247	26
47	0	0	1673	1289	1254	26
48	0	0	1219	1294	1258	26
49	0	0	889	1297	1258	26
50	0	0	672	1297	1256	28
51	0	0	500	1298	1248	27
52	0	0	430	1304	1244	26
53	0	0	648	1306	1244	25
54	0	0	1001	1306	1248	28
55	0	0	1391	1305	1253	25
56	0	0	1820	1304	1256	24
57	0	0	2275	1304	1260	23
58	0	0	2712	1303	1261	22
59	0	0	3071	1303	1260	23
60	0	0	3318	1301	1254	20
61	0	0	3596	1300	1242	20
62	0	0	3802	1299	1236	22
63	0	0	3738	1292	1237	22
64	0	0	3359	1292	1238	22
65	0	0	2869	1291	1247	25
66	0	0	2246	1292	1254	24
67	0	0	1668	1293	1260	27
68	0	0	1226	1293	1263	26
69	0	0	893	1295	1265	23
70	0	0	675	1298	1262	28
71	0	0	516	1298	1254	27
72	0	0	450	1303	1249	26
73	0	0	665	1307	1248	24
74	0	0	1015	1308	1251	24
75	0	0	1391	1306	1259	26
76	0	0	1812	1305	1261	23
77	0	0	2263	1305	1265	23
78	0	0	2692	1304	1265	23
79	0	0	3055	1305	1262	24
80	0	0	3304	1302	1257	23
81	0	0	3584	1300	1244	21
82	0	0	3794	1299	1240	21
83	0	0	3737	1293	1239	21
84	0	0	3354	1294	1241	22
85	0	0	2868	1293	1251	25
86	0	0	2240	1290	1255	26
87	0	0	1658	1290	1263	27
88	0	0	1212	1295	1267	26
89	0	0	892	1297	1266	28
90	0	0	682	1298	1265	31
91	0	0	534	1300	1256	28
92	0	0	466	1305	1251	25
93	0	0	674	1306	1251	25
94	0	0	1021	1308	1252	24
95	0	0	1394	1306	1257	25
96	0	0	1802	1307	1263	27
97	0	0	2249	1306	1264	22
98	0	0	2678	1304	1266	23
99	0	0	3031	1304	1264	22
100	0	0	3272	1301	1257	22
101	0	0	3555	1302	1246	23
102	0	0	3776	1299	1239	24
103	0	0	3674	1292	1240	23
104	0	0	3312	1292	1244	24
105	0	0	2839	1292	1251	24
106	0	0	2245	1294	1256	25
107	0	0	1684	1294	1262	29
108	0	0	1257	1296	1266	30
109	0	0	943	1297	1266	31
110	0	0	731	1299	1263	27
111	0	0	577	1300	1255	25
112	0	0	519	1306	1250	24
113	0	0	709	1305	1251	28
114	0	0	1038	1307	1253	27
115	0	0	1400	1307	1257	28
116	0	0	1798	1307	1260	25
117	0	0	2228	1305	1262	22
118	0	0	2642	1305	1263	23
119	0	0	2975	1306	1261	20
120	0	0	3207	1304	1255	23
121	0	0	3487	1301	1242	22
122	0	0	3724	1300	1237	22
123	0	0	3580	1293	1235	22
124	0	0	3245	1293	1240	22
125	0	0	2809	1292	1246	28
126	0	0	2247	1296	1252	25
127	0	0	1718	1292	1259	27
0	0	0	1305	1295	1262	27
1	0	0	998	1298	1262	26
2	0	0	797	1298	1260	30
3	0	0	645	1299	1252	29
4	0	0	583	1306	1246	29
5	0	0	767	1306	1247	27
6	0	0	1081	1308	1248	31
7	0	0	1433	1308	1250	24
8	0	0	1818	1307	1256	24
9	0	0	2223	1308	1259	24
10	0	0	2619	1304	1259	23
11	0	0	2949	1304	1257	24
12	0	0	3172	1304	1248	22
13	0	0	3431	1301	1239	22
14	0	0	3650	1301	1233	21
15	0	0	3519	1295	1233	23
16	0	0	3203	1294	1235	22
17	0	0	2786	1292	1241	25
18	0	0	2246	1293	1248	24
19	0	0	1742	1295	1253	28
20	0	0	1347	1294	1256	28
21	0	0	1056	1298	1258	27
22	0	0	862	1299	1252	27
23	0	0	722	1300	1246	27
24	0	0	660	1308	1241	25
25	0	0	838	1307	1240	25
26	0	0	1137	1309	1241	27
27	0	0	1475	1307	1246	29
28	0	0	1841	1307	1250	27
29	0	0	2227	1308	1253	23
30	0	0	2593	1305	1255	23
31	0	0	2895	1305	1251	28
32	0	0	3098	1304	1243	23
33	0	0	3327	1301	1232	21
34	0	0	3514	1300	1227	23
35	0	0	3376	1293	1227	22
36	0	0	3077	1294	1228	25
37	0	0	2680	1294	1236	23
38	0	0	2177	1294	1241	26
39	0	0	1714	1295	1246	26
40	0	0	1358	1299	1249	23
41	0	0	1106	1298	1250	25
42	0	0	955	1299	1246	27
43	0	0	855	1301	1238	30
44	0	0	826	1307	1233	28
45	0	0	1001	1306	1233	28
46	0	0	1276	1309	1235	24
47	0	0	1584	1307	1238	22
48	0	0	1914	1308	1241	23
49	0	0	2243	1306	1244	23
50	0	0	2571	1305	1245	23
51	0	0	2830	1306	1241	20
52	0	0	3006	1304	1232	22
53	0	0	3200	1302	1223	22
54	0	0	3358	1301	1218	21
55	0	0	3237	1297	1216	19
56	0	0	2961	1294	1218	22
57	0	0	2615	1294	1224	24
58	0	0	2164	1295	1230	25
59	0	0	1739	1295	1235	25
60	0	0	1425	1297	1239	29
61	0	0	1196	1299	1239	31
62	0	0	1059	1300	1236	30
63	0	0	969	1302	1228	27
64	0	0	935	1307	1223	25
65	0	0	1093	1306	1224	24
66	0	0	1344	1310	1223	21
67	0	0	1619	1309	1226	25
68	0	0	1924	1307	1228	26
69	0	0	2244	1307	1231	24
70	0	0	2543	1306	1231	20
71	0	0	2787	1305	1228	22
72	0	0	2956	1303	1220	19
73	0	0	3130	1302	1211	21
74	0	0	3289	1301	1204	20
75	0	0	3181	1296	1204	19
76	0	0	2925	1294	1205	22
77	0	0	2601	1295	1210	23
78	0	0	2167	1293	1216	23
79	0	0	1762	1296	1222	27
80	0	0	1453	1295	1224	25
81	0	0	1225	1299	1224	25
82	0	0	1087	1300	1222	23
83	0	0	996	1301	1212	26
84	0	0	959	1307	1208	28
85	0	0	1095	1308	1207	27
86	0	0	1338	1309	1209	27
87	0	0	1611	1308	1212	22
88	0	0	1913	1308	1213	23
89	0	0	2232	1306	1216	22
90	0	0	2535	1303	1215	24
91	0	0	2787	1305	1213	22
92	0	0	2957	1304	1207	18
93	0	0	3150	1302	1195	21
94	0	0	3312	1301	1190	20
95	0	0	3212	1297	1189	21
96	0	0	2953	1294	1192	23
97	0	0	2620	1293	1195	23
98	0	0	2168	1294	1200	24
99	0	0	1750	1295	1205	25
100	0	0	1427	1297	1208	24
101	0	0	1197	1298	1209	28
102	0	0	1053	1300	1205	28
103	0	0	948	1301	1198	29
104	0	0	897	1308	1194	25
105	0	0	1047	1307	1193	24
106	0	0	1307	1307	1193	23
107	0	0	1595	1309	1196	24
108	0	0	1910	1306	1200	23
109	0	0	2254	1307	1201	21
110	0	0	2577	1306	1200	21
111	0	0	2836	1305	1197	20
112	0	0	3021	1304	1195	22
113	0	0	3217	1303	1181	20
114	0	0	3394	1302	1176	21
115	0	0	3276	1296	1174	20
116	0	0	2992	1295	1177	22
117	0	0	2631	1295	1183	21
118	0	0	2166	1296	1191	25
119	0	0	1720	1296	1192	26
120	0	0	1381	1297	1194	27
121	0	0	1149	1298	1197	26
122	0	0	999	1300	1193	24
123	0	0	908	1302	1186	26
124	0	0	866	1310	1182	22
125	0	0	1025	1308	1182	28
126	0	0	1297	1307	1181	26
127	0	0	1592	1309	1184	25
0	0	0	1913	1309	1188	22
1	0	0	2267	1307	1188	20
2	0	0	2597	1307	1188	21
3	0	0	2858	1305	1187	22
4	0	0	3035	1304	1181	19
5	0	0	3244	1303	1172	18
6	0	0	3429	1302	1166	19
7	0	0	3304	1296	1165	21
8	0	0	3013	1295	1167	22
9	0	0	2645	1294	1171	21
10	0	0	2168	1296	1179	24
11	0	0	1719	1296	1180	24
12	0	0	1380	1299	1184	23
13	0	0	1134	1298	1184	24
14	0	0	981	1301	1182	27
15	0	0	880	1301	1176	27
16	0	0	834	1307	1172	25
17	0	0	995	1309	1171	23
18	0	0	1277	1308	1172	22
19	0	0	1582	1309	1174	22
20	0	0	1915	1308	1177	21
21	0	0	2269	1309	1178	21
22	0	0	2606	1306	1178	21
23	0	0	2878	1305	1174	20
24	0	0	3061	1306	1172	21
25	0	0	3260	1304	1164	20
26	0	0	3450	1303	1156	19
27	0	0	3330	1297	1154	19
28	0	0	3041	1294	1156	20
29	0	0	2671	1296	1160	22
30	0	0	2181	1295	1166	24
31	0	0	1724	1295	1170	26
32	0	0	1371	1298	1173	26
33	0	0	1120	1298	1172	25
34	0	0	958	1300	1173	25
35	0	0	843	1301	1168	23
36	0	0	793	1308	1162	23
37	0	0	959	1307	1161	23
38	0	0	1248	1308	1162	26
39	0	0	1557	1309	1166	27
40	0	0	1899	1308	1167	25
41	0	0	2259	1308	1167	20
42	0	0	2608	1307	1167	21
43	0	0	2900	1305	1164	20
44	0	0	3088	1304	1160	18
45	0	0	3299	1304	1150	20
46	0	0	3506	1302	1145	21
47	0	0	3394	1296	1144	21
48	0	0	3104	1293	1147	22
49	0	0	2726	1294	1149	22
50	0	0	2220	1295	1155	22
51	0	0	1751	1296	1159	23
52	0	0	1384	1298	1163	23
53	0	0	1116	1299	1163	23
54	0	0	941	1301	1161	25
55	0	0	821	1302	1156	26
56	0	0	751	1307	1152	23
57	0	0	904	1308	1151	23
58	0	0	1184	1310	1152	22
59	0	0	1495	1309	1153	23
60	0	0	1845	1310	1156	24
61	0	0	2213	1308	1157	20
62	0	0	2581	1308	1158	19
63	0	0	2886	1307	1156	19
64	0	0	3095	1305	1150	20
65	0	0	3335	1305	1141	20
66	0	0	3568	1302	1136	21
67	0	0	3472	1297	1135	21
68	0	0	3175	1296	1137	21
69	0	0	2793	1295	1141	23
70	0	0	2269	1295	1147	23
71	0	0	1773	1297	1150	24
72	0	0	1379	1298	1154	23
73	0	0	1088	1299	1156	24
74	0	0	894	1301	1155	23
75	0	0	774	1302	1147	27
76	0	0	696	1306	1144	26
77	0	0	850	1309	1143	25
78	0	0	1140	1309	1146	24
79	0	0	1458	1309	1147	23
80	0	0	1819	1309	1150	22
81	0	0	2199	1309	1151	22
82	0	0	2577	1307	1151	22
83	0	0	2895	1307	1149	21
84	0	0	3125	1306	1144	19
85	0	0	3359	1304	1134	20
86	0	0	3596	1303	1130	21
87	0	0	3501	1297	1130	22
88	0	0	3202	1295	1133	23
89	0	0	2812	1295	1137	16
90	0	0	2279	1296	1140	22
91	0	0	1769	1297	1145	23
92	0	0	1375	1298	1147	28
93	0	0	1083	1299	1150	25
94	0	0	891	1300	1147	27
95	0	0	762	1302	1143	24
96	0	0	678	1307	1139	23
97	0	0	833	1310	1139	21
98	0	0	1129	1310	1140	22
99	0	0	1449	1309	1142	25
100	0	0	1814	1310	1144	24
101	0	0	2208	1309	1146	21
102	0	0	2583	1308	1147	21
103	0	0	2899	1307	1144	19
104	0	0	3122	1306	1140	18
105	0	0	3348	1305	1130	19
106	0	0	3588	1303	1126	20
107	0	0	3489	1296	1127	22
108	0	0	3187	1296	1128	22
109	0	0	2802	1295	1131	20
110	0	0	2277	1296	1135	23
111	0	0	1775	1295	1141	26
112	0	0	1388	1298	1144	24
113	0	0	1096	1299	1147	27
114	0	0	906	1301	1144	21
115	0	0	782	1302	1138	23
116	0	0	705	1307	1135	27
117	0	0	856	1309	1134	27
118	0	0	1154	1310	1136	25
119	0	0	1462	1308	1138	20
120	0	0	1827	1309	1139	21
121	0	0	2208	1309	1142	21
122	0	0	2577	1308	1142	21
123	0	0	2881	1309	1139	20
124	0	0	3096	1306	1136	16
125	0	0	3315	1304	1126	19
126	0	0	3546	1303	1122	20
127	0	0	3459	1297	1121	19
0	0	0	3155	1295	1123	23
1	0	0	2782	1295	1127	24
2	0	0	2271	1297	1132	22
3	0	0	1778	1297	1137	22
4	0	0	1395	1298	1141	21
5	0	0	1122	1301	1141	26
6	0	0	937	1301	1140	26
7	0	0	819	1302	1134	25
8	0	0	743	1309	1132	24
9	0	0	892	1309	1131	23
10	0	0	1178	1309	1133	23
11	0	0	1484	1311	1135	19
12	0	0	1822	1312	1136	23
13	0	0	2185	1309	1138	20
14	0	0	2540	1307	1137	19
15	0	0	2833	1307	1137	21
16	0	0	3056	1305	1134	16
17	0	0	3278	1305	1121	19
18	0	0	3505	1304	1119	20
19	0	0	3425	1297	1116	20
20	0	0	3142	1296	1120	20
21	0	0	2773	1296	1124	17
22	0	0	2282	1296	1129	22
23	0	0	1794	1298	1134	28
24	0	0	1416	1298	1138	26
25	0	0	1143	1301	1137	24
26	0	0	959	1302	1137	23
27	0	0	844	1302	1132	24
28	0	0	763	1307	1129	24
29	0	0	894	1309	1128	25
30	0	0	1166	1309	1129	25
31	0	0	1473	1310	1132	23
32	0	0	1813	1310	1134	21
33	0	0	2177	1310	1136	21
34	0	0	2539	1309	1135	18
35	0	0	2843	1308	1134	21
36	0	0	3055	1307	1130	20
37	0	0	3264	1304	1121	17
38	0	0	3497	1303	1116	23
39	0	0	3431	1298	1115	23
40	0	0	3152	1297	1116	20
41	0	0	2794	1296	1122	18
42	0	0	2300	1297	1126	22
43	0	0	1802	1297	1131	26
44	0	0	1416	1298	1135	27
45	0	0	1129	1302	1136	23
46	0	0	936	1302	1135	24
47	0	0	808	1304	1128	23
48	0	0	712	1307	1127	24
49	0	0	842	1309	1126	25
50	0	0	1122	1310	1128	25
51	0	0	1430	1310	1130	24
52	0	0	1783	1310	1132	22
53	0	0	2160	1310	1134	21
54	0	0	2539	1309	1133	21
55	0	0	2861	1310	1134	21
56	0	0	3090	1307	1129	22
57	0	0	3317	1305	1120	16
58	0	0	3567	1304	1115	17
59	0	0	3499	1297	1113	18
60	0	0	3212	1297	1116	19
61	0	0	2842	1296	1122	20
62	0	0	2322	1296	1127	22
63	0	0	1807	1297	1130	21
64	0	0	1397	1298	1133	21
65	0	0	1087	1299	1136	22
66	0	0	887	1302	1136	26
67	0	0	748	1303	1132	26
68	0	0	644	1307	1128	27
69	0	0	780	1309	1127	22
70	0	0	1075	1311	1128	21
71	0	0	1408	1311	1130	24
72	0	0	1778	1310	1133	21
73	0	0	2168	1312	1135	22
74	0	0	2567	1309	1135	23
75	0	0	2904	1309	1133	20
76	0	0	3142	1307	1131	21
77	0	0	3372	1304	1122	16
78	0	0	3638	1303	1118	20
79	0	0	3563	1297	1116	20
80	0	0	3266	1299	1118	21
81	0	0	2871	1297	1123	21
82	0	0	2320	1297	1128	22
83	0	0	1792	1297	1133	27
84	0	0	1368	1298	1136	25
85	0	0	1050	1301	1139	24
86	0	0	841	1302	1136	23
87	0	0	693	1303	1133	23
88	0	0	595	1307	1129	22
89	0	0	743	1310	1128	23
90	0	0	1048	1311	1131	26
91	0	0	1384	1310	1133	25
92	0	0	1769	1311	1135	24
93	0	0	2170	1310	1138	20
94	0	0	2579	1307	1138	20
95	0	0	2929	1308	1138	17
96	0	0	3174	1308	1134	21
97	0	0	3401	1305	1123	19
98	0	0	3678	1304	1119	19
99	0	0	3600	1297	1118	19
100	0	0	3295	1297	1122	18
101	0	0	2893	1297	1125	23
102	0	0	2335	1296	1132	20
103	0	0	1786	1297	1136	23
104	0	0	1351	1299	1139	23
105	0	0	1030	1301	1143	20
106	0	0	812	1302	1140	23
107	0	0	667	1304	1135	28
108	0	0	560	1306	1132	26
109	0	0	709	1309	1132	26
110	0	0	1021	1312	1135	21
111	0	0	1364	1312	1136	23
112	0	0	1758	1311	1138	21
113	0	0	2168	1310	1140	20
114	0	0	2580	1309	1141	20
115	0	0	2934	1309	1141	18
116	0	0	3183	1307	1135	23
117	0	0	3428	1306	1127	18
118	0	0	3698	1304	1120	20
119	0	0	3639	1297	1120	19
120	0	0	3319	1296	1123	20
121	0	0	2904	1298	1127	23
122	0	0	2326	1297	1133	22
123	0	0	1763	1299	1138	23
124	0	0	1328	1299	1142	28
125	0	0	1000	1301	1146	26
126	0	0	778	1302	1142	31
127	0	0	643	1304	1137	24
0	0	0	533	1308	1133	23
1	0	0	687	1310	1133	24
2	0	0	1009	1311	1134	24
3	0	0	1351	1311	1136	25
4	0	0	1743	1312	1138	24
5	0	0	2163	1312	1141	21
6	0	0	2585	1309	1141	21
7	0	0	2945	1309	1140	21
8	0	0	3207	1308	1136	21
9	0	0	3452	1305	1124	20
10	0	0	3714	1305	1121	19
11	0	0	3696	1298	1119	20
12	0	0	3355	1299	1122	21
13	0	0	2933	1297	1126	19
14	0	0	2344	1297	1129	23
15	0	0	1764	1299	1136	25
16	0	0	1312	1300	1139	23
17	0	0	968	1300	1141	24
18	0	0	737	1302	1139	23
19	0	0	588	1301	1133	23
20	0	0	467	1307	1131	27
21	0	0	630	1310	1128	26
22	0	0	962	1313	1130	26
23	0	0	1316	1312	1131	22
24	0	0	1730	1310	1133	21
25	0	0	2167	1308	1136	21
26	0	0	2602	1309	1139	23
27	0	0	2982	1309	1135	22
28	0	0	3261	1307	1131	20
29	0	0	3516	1306	1120	19
30	0	0	3754	1304	1116	19
31	0	0	3820	1298	1115	20
32	0	0	3441	1297	1118	20
33	0	0	2989	1296	1120	19
34	0	0	2365	1297	1124	21
35	0	0	1760	1298	1131	26
36	0	0	1286	1296	1132	22
37	0	0	927	1299	1135	24
38	0	0	678	1302	1135	22
39	0	0	518	1303	1127	24
40	0	0	397	1306	1124	27
41	0	0	555	1310	1126	27
42	0	0	904	1310	1124	25
43	0	0	1288	1312	1125	24
44	0	0	1728	1311	1128	21
45	0	0	2189	1309	1131	21
46	0	0	2647	1309	1131	21
47	0	0	3045	1306	1128	20
48	0	0	3329	1308	1125	16
49	0	0	3571	1305	1115	19
50	0	0	3782	1304	1111	18
51	0	0	3893	1298	1109	21
52	0	0	3498	1298	1112	21
53	0	0	3025	1296	1115	23
54	0	0	2373	1297	1119	21
55	0	0	1731	1298	1124	23
56	0	0	1232	1299	1127	24
57	0	0	858	1298	1128	25
58	0	0	602	1302	1128	27
59	0	0	443	1304	1121	25
60	0	0	312	1308	1119	24
61	0	0	487	1310	1119	24
62	0	0	858	1308	1119	23
63	0	0	1253	1311	1121	18
64	0	0	1704	1311	1124	22
65	0	0	2195	1310	1125	21
66	0	0	2679	1310	1127	20
67	0	0	3087	1308	1124	20
68	0	0	3381	1307	1120	16
69	0	0	3625	1305	1109	18
70	0	0	3811	1306	1106	18
71	0	0	3916	1304	1104	19
72	0	0	3545	1294	1105	18
73	0	0	3049	1297	1110	20
74	0	0	2376	1298	1115	23
75	0	0	1712	1298	1120	25
76	0	0	1190	1299	1123	28
77	0	0	802	1298	1124	22
78	0	0	538	1303	1124	20
79	0	0	369	1303	1118	23
80	0	0	224	1308	1115	23
81	0	0	409	1311	1113	26
82	0	0	809	1308	1115	25
83	0	0	1226	1312	1117	24
84	0	0	1696	1311	1119	20
85	0	0	2203	1312	1121	20
86	0	0	2713	1306	1120	19
87	0	0	3135	1307	1120	20
88	0	0	3445	1307	1116	21
89	0	0	3684	1306	1108	16
90	0	0	3847	1305	1101	19
91	0	0	3933	1304	1100	19
92	0	0	3592	1298	1102	20
93	0	0	3069	1297	1105	17
94	0	0	2359	1298	1111	21
95	0	0	1665	1300	1115	22
96	0	0	1126	1299	1119	23
97	0	0	734	1302	1121	23
98	0	0	462	1303	1119	26
99	0	0	299	1304	1115	26
100	0	0	183	1306	1112	25
101	0	0	326	1311	1110	21
102	0	0	761	1311	1111	24
103	0	0	1201	1312	1113	24
104	0	0	1704	1312	1114	21
105	0	0	2219	1310	1117	20
106	0	0	2742	1311	1119	21
107	0	0	3187	1306	1115	19
108	0	0	3505	1308	1113	18
109	0	0	3727	1306	1102	17
110	0	0	3872	1307	1097	18
111	0	0	3952	1304	1097	17
112	0	0	3646	1298	1098	20
113	0	0	3102	1297	1101	22
114	0	0	2351	1298	1106	19
115	0	0	1630	1297	1111	25
116	0	0	1076	1300	1115	27
117	0	0	670	1297	1116	26
118	0	0	399	1303	1115	24
119	0	0	254	1304	1111	24
120	0	0	159	1307	1107	23
121	0	0	292	1309	1107	23
122	0	0	750	1312	1108	26
123	0	0	1206	1310	1109	25
124	0	0	1711	1311	1110	22
125	0	0	2229	1310	1112	21
126	0	0	2764	1310	1112	18
127	0	0	3219	1308	1111	20
0	0	0	3548	1309	1107	18
1	0	0	3759	1306	1099	17
2	0	0	3890	1303	1093	18
3	0	0	3963	1304	1093	19
4	0	0	3652	1297	1094	20
5	0	0	3104	1296	1097	24
6	0	0	2343	1297	1102	22
7	0	0	1625	1297	1106	21
8	0	0	1074	1300	1108	23
9	0	0	667	1303	1112	22
10	0	0	394	1304	1111	24
11	0	0	252	1304	1107	28
12	0	0	159	1306	1103	25
13	0	0	288	1309	1104	21
14	0	0	739	1312	1103	26
15	0	0	1195	1312	1103	25
16	0	0	1705	1312	1107	24
17	0	0	2233	1312	1109	20
18	0	0	2772	1311	1110	16
19	0	0	3228	1309	1108	16
20	0	0	3551	1308	1104	18
21	0	0	3756	1306	1096	19
22	0	0	3889	1305	1091	19
23	0	0	3964	1305	1090	16
24	0	0	3653	1298	1090	19
25	0	0	3118	1297	1094	20
26	0	0	2367	1298	1099	20
27	0	0	1644	1298	1103	22
28	0	0	1080	1300	1109	24
29	0	0	675	1301	1110	23
30	0	0	403	1303	1108	24
31	0	0	257	1305	1104	29
32	0	0	161	1306	1101	25
33	0	0	268	1309	1100	25
34	0	0	721	1312	1101	23
35	0	0	1181	1313	1103	21
36	0	0	1696	1312	1104	21
37	0	0	2226	1310	1107	19
38	0	0	2768	1309	1107	19
39	0	0	3227	1312	1107	20
40	0	0	3554	1307	1103	24
41	0	0	3760	1306	1095	20
42	0	0	3893	1305	1089	18
43	0	0	3965	1303	1088	17
44	0	0	3665	1299	1089	20
45	0	0	3126	1298	1094	23
46	0	0	2377	1293	1099	24
47	0	0	1646	1299	1101	22
48	0	0	1099	1299	1106	25
49	0	0	677	1302	1110	24
50	0	0	399	1304	1109	28
51	0	0	246	1304	1105	23
52	0	0	157	1307	1102	21
53	0	0	239	1310	1100	22
54	0	0	715	1313	1102	20
55	0	0	1189	1312	1104	27
56	0	0	1708	1311	1105	23
57	0	0	2250	1311	1107	19
58	0	0	2789	1311	1108	19
59	0	0	3255	1312	1108	20
60	0	0	3592	1309	1105	19
61	0	0	3787	1307	1097	20
62	0	0	3907	1305	1091	19
63	0	0	3975	1305	1091	18
64	0	0	3679	1299	1092	20
65	0	0	3142	1297	1095	20
66	0	0	2381	1298	1101	21
67	0	0	1636	1300	1106	24
68	0	0	1069	1301	1109	23
69	0	0	647	1302	1111	23
70	0	0	379	1303	1111	23
71	0	0	227	1305	1108	24
72	0	0	147	1306	1104	25
73	0	0	210	1312	1103	26
74	0	0	706	1312	1105	24
75	0	0	1181	1313	1107	21
76	0	0	1709	1315	1109	23
77	0	0	2251	1312	1111	20
78	0	0	2789	1311	1112	22
79	0	0	3255	1312	1111	19
80	0	0	3594	1310	1108	19
81	0	0	3793	1307	1100	20
82	0	0	3913	1303	1094	18
83	0	0	3981	1305	1095	18
84	0	0	3703	1300	1095	24
85	0	0	3162	1299	1100	20
86	0	0	2392	1298	1105	23
87	0	0	1629	1299	1108	22
88	0	0	1046	1300	1115	24
89	0	0	624	1302	1116	26
90	0	0	362	1304	1116	26
91	0	0	220	1305	1112	30
92	0	0	143	1308	1109	23
93	0	0	181	1312	1107	23
94	0	0	682	1312	1109	21
95	0	0	1171	1312	1111	20
96	0	0	1699	1313	1113	23
97	0	0	2241	1310	1115	20
98	0	0	2804	1311	1117	20
99	0	0	3280	1310	1114	23
100	0	0	3617	1309	1113	21
101	0	0	3815	1307	1105	19
102	0	0	3925	1306	1099	18
103	0	0	3986	1305	1099	17
104	0	0	3749	1298	1101	20
105	0	0	3182	1298	1105	21
106	0	0	2393	1298	1110	21
107	0	0	1611	1301	1115	25
108	0	0	1015	1302	1118	26
109	0	0	592	1303	1121	21
110	0	0	344	1304	1120	24
111	0	0	208	1303	1117	27
112	0	0	137	1308	1114	23
113	0	0	124	1312	1115	27
114	0	0	613	1313	1115	24
115	0	0	1106	1314	1117	25
116	0	0	1653	1312	1120	19
117	0	0	2230	1312	1122	20
118	0	0	2822	1310	1123	22
119	0	0	3324	1308	1120	19
120	0	0	3647	1308	1120	19
121	0	0	3835	1308	1112	18
122	0	0	3936	1308	1107	19
123	0	0	3988	1305	1106	21
124	0	0	3833	1300	1108	19
125	0	0	3255	1299	1113	21
126	0	0	2434	1299	1115	23
127	0	0	1610	1299	1123	23
0	0	0	965	1300	1124	23
1	0	0	558	1302	1127	26
2	0	0	330	1303	1126	26
3	0	0	203	1305	1123	25
4	0	0	135	1307	1121	25
5	0	0	100	1308	1120	23
6	0	0	521	1310	1120	23
7	0	0	1034	1313	1124	21
8	0	0	1615	1314	1127	22
9	0	0	2222	1312	1128	21
10	0	0	2848	1311	1129	17
11	0	0	3361	1311	1129	19
12	0	0	3665	1308	1126	21
13	0	0	3845	1308	1120	18
14	0	0	3943	1306	1114	19
15	0	0	3993	1306	1114	21
16	0	0	3900	1299	1116	18
17	0	0	3325	1297	1119	22
18	0	0	2478	1298	1124	23
19	0	0	1649	1298	1129	26
20	0	0	988	1301	1133	27
21	0	0	571	1304	1134	25
22	0	0	335	1303	1135	26
23	0	0	200	1305	1131	23
24	0	0	138	1308	1129	23
25	0	0	104	1309	1129	23
26	0	0	425	1314	1129	24
27	0	0	940	1313	1132	25
28	0	0	1532	1312	1134	24
29	0	0	2153	1312	1135	22
30	0	0	2810	1312	1137	21
31	0	0	3343	1311	1137	20
32	0	0	3658	1309	1134	20
33	0	0	3840	1307	1127	16
34	0	0	3943	1305	1123	18
35	0	0	4000	1303	1121	18
36	0	0	4027	1299	1123	20
37	0	0	3491	1299	1127	21
38	0	0	2587	1298	1130	21
39	0	0	1674	1298	1138	21
40	0	0	971	1301	1140	21
41	0	0	563	1300	1140	23
42	0	0	332	1302	1142	23
43	0	0	206	1305	1140	26
44	0	0	138	1307	1136	27
45	0	0	103	1308	1136	23
46	0	0	304	1311	1136	21
47	0	0	839	1311	1139	22
48	0	0	1468	1312	1141	20
49	0	0	2125	1312	1143	23
50	0	0	2831	1311	1144	20
51	0	0	3360	1311	1144	20
52	0	0	3672	1308	1142	19
53	0	0	3849	1308	1135	19
54	0	0	3944	1306	1130	19
55	0	0	4003	1306	1130	20
56	0	0	4031	1305	1131	20
57	0	0	3584	1297	1135	22
58	0	0	2667	1299	1139	20
59	0	0	1732	1298	1144	23
60	0	0	1018	1300	1148	26
61	0	0	589	1303	1150	26
62	0	0	343	1303	1150	28
63	0	0	214	1305	1147	26
64	0	0	144	1306	1144	24
65	0	0	107	1308	1143	23
66	0	0	250	1314	1145	24
67	0	0	781	1313	1147	26
68	0	0	1420	1313	1149	26
69	0	0	2101	1312	1151	22
70	0	0	2806	1312	1151	19
71	0	0	3348	1309	1151	21
72	0	0	3664	1307	1149	20
73	0	0	3843	1307	1143	20
74	0	0	3946	1306	1138	18
75	0	0	4002	1305	1138	18
76	0	0	4033	1305	1139	19
77	0	0	3606	1299	1142	21
78	0	0	2681	1298	1147	24
79	0	0	1722	1298	1152	25
80	0	0	1009	1299	1154	22
81	0	0	584	1302	1158	24
82	0	0	343	1303	1157	23
83	0	0	212	1305	1155	24
84	0	0	148	1305	1152	25
85	0	0	109	1308	1152	24
86	0	0	279	1312	1152	26
87	0	0	800	1313	1154	21
88	0	0	1419	1312	1156	23
89	0	0	2072	1311	1159	20
90	0	0	2769	1310	1159	17
91	0	0	3323	1310	1159	21
92	0	0	3650	1309	1156	20
93	0	0	3841	1308	1149	19
94	0	0	3941	1307	1144	19
95	0	0	4002	1305	1143	20
96	0	0	4033	1305	1145	21
97	0	0	3651	1299	1148	22
98	0	0	2738	1298	1153	22
99	0	0	1794	1298	1157	22
100	0	0	1054	1301	1161	23
101	0	0	615	1302	1164	28
102	0	0	362	1304	1163	28
103	0	0	224	1305	1160	28
104	0	0	151	1308	1157	23
105	0	0	111	1308	1158	24
106	0	0	270	1312	1157	23
107	0	0	795	1313	1160	23
108	0	0	1414	1312	1162	23
109	0	0	2078	1312	1162	21
110	0	0	2785	1311	1163	19
111	0	0	3327	1312	1164	22
112	0	0	3655	1309	1162	11
113	0	0	3842	1307	1154	15
114	0	0	3941	1306	1148	20
115	0	0	4004	1305	1152	17
116	0	0	4033	1304	1149	22
117	0	0	3511	1298	1153	21
118	0	0	2587	1297	1158	23
119	0	0	1655	1299	1161	23
120	0	0	960	1300	1168	24
121	0	0	559	1300	1168	24
122	0	0	329	1303	1170	23
123	0	0	208	1305	1166	27
124	0	0	142	1307	1161	26
125	0	0	109	1308	1160	24
126	0	0	386	1309	1164	23
127	0	0	932	1313	1164	21
0	0	0	1557	1311	1167	23
1	0	0	2201	1312	1168	22
2	0	0	2874	1311	1168	18
3	0	0	3386	1309	1168	21
4	0	0	3690	1309	1167	21
5	0	0	3861	1307	1160	18
6	0	0	3956	1305	1155	19
7	0	0	4010	1305	1153	20
8	0	0	3991	1298	1155	21
9	0	0	3413	1297	1159	20
10	0	0	2542	1298	1163	21
11	0	0	1659	1298	1168	23
12	0	0	986	1299	1170	28
13	0	0	575	1300	1175	26
14	0	0	337	1303	1174	26
15	0	0	214	1305	1172	24
16	0	0	143	1307	1169	25
17	0	0	111	1308	1167	24
18	0	0	489	1311	1169	22
19	0	0	1015	1312	1171	24
20	0	0	1614	1312	1172	25
21	0	0	2228	1312	1174	22
22	0	0	2849	1310	1174	22
23	0	0	3366	1310	1174	20
24	0	0	3677	1310	1172	20
25	0	0	3851	1307	1165	17
26	0	0	3954	1307	1160	20
27	0	0	4009	1305	1160	20
28	0	0	3887	1297	1159	24
29	0	0	3319	1296	1164	22
30	0	0	2484	1297	1169	19
31	0	0	1644	1298	1172	26
32	0	0	1005	1299	1180	26
33	0	0	584	1300	1180	23
34	0	0	346	1303	1180	24
35	0	0	217	1304	1177	25
36	0	0	149	1305	1173	27
37	0	0	112	1307	1173	27
38	0	0	558	1311	1175	23
39	0	0	1072	1310	1175	22
40	0	0	1645	1311	1178	19
41	0	0	2229	1313	1180	22
42	0	0	2816	1311	1180	19
43	0	0	3324	1309	1180	19
44	0	0	3651	1308	1177	21
45	0	0	3843	1307	1171	19
46	0	0	3947	1304	1165	20
47	0	0	4003	1303	1164	22
48	0	0	3844	1299	1166	19
49	0	0	3291	1295	1170	22
50	0	0	2502	1297	1174	20
51	0	0	1685	1299	1179	24
52	0	0	1049	1299	1182	25
53	0	0	615	1301	1185	25
54	0	0	365	1301	1185	27
55	0	0	221	1303	1182	23
56	0	0	154	1305	1179	25
57	0	0	116	1307	1179	23
58	0	0	582	1311	1179	23
59	0	0	1092	1311	1181	24
60	0	0	1643	1310	1183	24
61	0	0	2203	1312	1185	21
62	0	0	2784	1311	1187	18
63	0	0	3287	1309	1186	18
64	0	0	3629	1305	1183	22
65	0	0	3826	1306	1177	17
66	0	0	3937	1305	1171	19
67	0	0	4000	1301	1170	20
68	0	0	3844	1297	1171	19
69	0	0	3287	1296	1175	21
70	0	0	2497	1295	1180	22
71	0	0	1693	1297	1184	26
72	0	0	1061	1297	1188	27
73	0	0	624	1299	1189	24
74	0	0	369	1301	1191	24
75	0	0	230	1303	1187	24
76	0	0	155	1304	1185	23
77	0	0	119	1305	1184	25
78	0	0	557	1310	1185	24
79	0	0	1065	1309	1186	26
80	0	0	1620	1310	1189	22
81	0	0	2198	1309	1191	22
82	0	0	2791	1308	1191	26
83	0	0	3301	1310	1191	20
84	0	0	3638	1306	1190	21
85	0	0	3833	1305	1182	16
86	0	0	3944	1304	1176	20
87	0	0	4000	1300	1175	21
88	0	0	3863	1296	1176	21
89	0	0	3297	1294	1180	23
90	0	0	2510	1296	1185	22
91	0	0	1693	1297	1190	23
92	0	0	1052	1295	1194	23
93	0	0	612	1298	1196	25
94	0	0	366	1301	1197	28
95	0	0	228	1302	1194	32
96	0	0	153	1304	1191	25
97	0	0	119	1305	1188	24
98	0	0	540	1308	1191	25
99	0	0	1058	1307	1192	23
100	0	0	1635	1310	1194	20
101	0	0	2218	1309	1196	23
102	0	0	2815	1307	1196	23
103	0	0	3326	1308	1197	21
104	0	0	3651	1306	1194	22
105	0	0	3842	1304	1187	16
106	0	0	3949	1302	1181	19
107	0	0	4005	1300	1181	22
108	0	0	3874	1295	1180	21
109	0	0	3299	1294	1185	23
110	0	0	2496	1294	1190	18
111	0	0	1685	1296	1195	23
112	0	0	1046	1296	1199	25
113	0	0	610	1299	1202	25
114	0	0	364	1302	1202	24
115	0	0	227	1302	1198	27
116	0	0	156	1303	1195	25
117	0	0	119	1305	1194	23
118	0	0	518	1309	1195	24
119	0	0	1045	1307	1196	24
120	0	0	1627	1309	1199	23
121	0	0	2208	1308	1201	22
122	0	0	2816	1308	1202	21
123	0	0	3329	1308	1201	21
124	0	0	3656	1304	1198	21
125	0	0	3844	1304	1191	19
126	0	0	3945	1302	1185	20
127	0	0	4005	1299	1184	19
0	0	0	3897	1295	1186	22
1	0	0	3325	1295	1189	23
2	0	0	2518	1294	1194	21
3	0	0	1697	1295	1199	24
4	0	0	1042	1296	1202	24
5	0	0	607	1299	1204	24
6	0	0	360	1299	1206	24
7	0	0	227	1301	1202	26
8	0	0	154	1303	1199	25
9	0	0	119	1305	1198	25
10	0	0	506	1310	1199	24
11	0	0	1041	1313	1201	22
12	0	0	1624	1309	1203	23
13	0	0	2220	1308	1205	22
14	0	0	2821	1307	1207	23
15	0	0	3336	1306	1203	24
16	0	0	3661	1308	1203	22
17	0	0	3845	1303	1196	17
18	0	0	3950	1301	1189	21
19	0	0	4008	1300	1188	20
20	0	0	3906	1295	1188	20
21	0	0	3336	1297	1194	23
22	0	0	2518	1293	1198	24
23	0	0	1680	1295	1203	24
24	0	0	1030	1298	1206	25
25	0	0	602	1297	1208	25
26	0	0	357	1301	1209	26
27	0	0	225	1301	1207	26
28	0	0	155	1302	1203	24
29	0	0	118	1304	1202	24
30	0	0	501	1308	1202	23
31	0	0	1035	1315	1205	23
32	0	0	1625	1308	1204	22
33	0	0	2218	1305	1208	23
34	0	0	2815	1309	1208	21
35	0	0	3336	1306	1207	24
36	0	0	3661	1307	1207	21
37	0	0	3848	1303	1198	21
38	0	0	3952	1299	1192	20
39	0	0	4008	1302	1190	21
40	0	0	3932	1295	1191	20
41	0	0	3367	1294	1195	23
42	0	0	2549	1294	1200	24
43	0	0	1693	1295	1206	24
44	0	0	1022	1295	1210	25
45	0	0	596	1296	1211	25
46	0	0	355	1300	1212	27
47	0	0	223	1300	1210	23
48	0	0	153	1303	1205	23
49	0	0	119	1304	1204	25
50	0	0	489	1308	1204	25
51	0	0	1024	1308	1206	23
52	0	0	1617	1308	1207	22
53	0	0	2216	1307	1210	22
54	0	0	2833	1308	1211	23
55	0	0	3350	1305	1211	23
56	0	0	3668	1307	1208	21
57	0	0	3852	1302	1203	21
58	0	0	3952	1301	1194	20
59	0	0	4012	1303	1192	21
60	0	0	3947	1293	1194	22
61	0	0	3367	1297	1198	23
62	0	0	2552	1296	1202	23
63	0	0	1680	1294	1207	26
64	0	0	998	1298	1210	25
65	0	0	587	1297	1214	27
66	0	0	350	1299	1213	27
67	0	0	221	1300	1210	27
68	0	0	153	1302	1206	25
69	0	0	115	1305	1204	24
70	0	0	457	1308	1206	23
71	0	0	1013	1311	1208	23
72	0	0	1607	1310	1209	23
73	0	0	2220	1307	1211	23
74	0	0	2849	1308	1211	22
75	0	0	3361	1306	1212	23
76	0	0	3674	1304	1209	23
77	0	0	3858	1303	1202	21
78	0	0	3958	1299	1194	20
79	0	0	4011	1300	1193	23
80	0	0	3957	1292	1194	23
81	0	0	3375	1291	1198	23
82	0	0	2553	1293	1203	23
83	0	0	1680	1293	1205	24
84	0	0	997	1295	1211	27
85	0	0	587	1296	1214	25
86	0	0	349	1297	1215	26
87	0	0	221	1301	1211	26
88	0	0	152	1301	1206	26
89	0	0	117	1303	1205	25
90	0	0	445	1308	1206	27
91	0	0	999	1308	1208	24
92	0	0	1603	1310	1211	25
93	0	0	2225	1307	1211	23
94	0	0	2859	1307	1211	23
95	0	0	3373	1305	1212	23
96	0	0	3680	1304	1209	22
97	0	0	3859	1301	1201	20
98	0	0	3961	1300	1195	19
99	0	0	4014	1299	1194	23
100	0	0	3974	1293	1194	22
101	0	0	3390	1293	1198	23
102	0	0	2550	1293	1201	23
103	0	0	1684	1295	1205	24
104	0	0	997	1296	1211	27
105	0	0	582	1296	1214	27
106	0	0	349	1298	1213	25
107	0	0	220	1300	1210	26
108	0	0	153	1301	1206	26
109	0	0	118	1302	1205	23
110	0	0	438	1307	1205	20
111	0	0	1002	1309	1207	24
112	0	0	1610	1310	1209	22
113	0	0	2226	1307	1210	23
114	0	0	2865	1306	1211	22
115	0	0	3379	1306	1211	23
116	0	0	3683	1304	1208	22
117	0	0	3862	1302	1202	20
118	0	0	3962	1300	1195	21
119	0	0	4015	1300	1193	21
120	0	0	3978	1293	1193	23
121	0	0	3397	1292	1197	24
122	0	0	2556	1294	1203	24
123	0	0	1683	1292	1207	24
124	0	0	993	1294	1211	26
125	0	0	579	1297	1214	23
126	0	0	349	1298	1213	26
127	0	0	220	1300	1210	28
0	0	0	152	1300	1207	25
1	0	0	116	1303	1204	24
2	0	0	422	1307	1205	21
3	0	0	984	1308	1207	25
4	0	0	1599	1306	1208	23
5	0	0	2216	1306	1210	23
6	0	0	2858	1305	1213	24
7	0	0	3376	1305	1210	22
8	0	0	3685	1304	1208	21
9	0	0	3861	1302	1200	21
10	0	0	3960	1301	1192	20
11	0	0	4014	1298	1192	23
12	0	0	3995	1293	1192	20
13	0	0	3414	1290	1196	23
14	0	0	2569	1291	1201	24
15	0	0	1679	1292	1205	28
16	0	0	982	1294	1209	24
17	0	0	573	1295	1211	24
18	0	0	343	1296	1212	26
19	0	0	217	1299	1208	27
20	0	0	152	1300	1206	25
21	0	0	116	1301	1205	26
22	0	0	413	1304	1202	23
23	0	0	978	1307	1205	23
24	0	0	1588	1307	1207	23
25	0	0	2209	1307	1208	22
26	0	0	2846	1302	1209	21
27	0	0	3368	1304	1209	20
28	0	0	3680	1303	1206	21
29	0	0	3858	1299	1199	19
30	0	0	3957	1298	1193	21
31	0	0	4013	1297	1192	23
32	0	0	4008	1293	1191	18
33	0	0	3432	1291	1195	24
34	0	0	2579	1292	1199	27
35	0	0	1666	1292	1204	24
36	0	0	977	1294	1208	25
37	0	0	571	1295	1209	25
38	0	0	342	1297	1211	26
39	0	0	216	1299	1208	29
40	0	0	151	1301	1204	26
41	0	0	118	1301	1202	22
42	0	0	404	1307	1203	20
43	0	0	961	1307	1204	23
44	0	0	1578	1307	1207	23
45	0	0	2219	1306	1208	23
46	0	0	2866	1303	1208	22
47	0	0	3383	1304	1206	20
48	0	0	3687	1304	1206	21
49	0	0	3864	1302	1196	20
50	0	0	3962	1300	1192	21
51	0	0	4016	1299	1190	20
52	0	0	4020	1292	1191	22
53	0	0	3456	1289	1193	24
54	0	0	2606	1291	1199	23
55	0	0	1690	1291	1203	24
56	0	0	992	1293	1206	24
57	0	0	580	1296	1208	25
58	0	0	347	1299	1209	25
59	0	0	219	1298	1205	25
60	0	0	151	1302	1203	25
61	0	0	118	1303	1203	25
62	0	0	384	1307	1201	24
63	0	0	957	1307	1203	22
64	0	0	1588	1307	1205	23
65	0	0	2225	1306	1208	23
66	0	0	2887	1307	1207	25
67	0	0	3391	1306	1208	23
68	0	0	3694	1303	1204	21
69	0	0	3869	1302	1198	20
70	0	0	3962	1299	1191	20
71	0	0	4016	1298	1188	21
72	0	0	4023	1292	1189	23
73	0	0	3457	1291	1192	23
74	0	0	2599	1292	1198	25
75	0	0	1681	1292	1203	25
76	0	0	985	1295	1205	24
77	0	0	577	1296	1208	25
78	0	0	345	1295	1208	25
79	0	0	216	1299	1206	26
80	0	0	152	1301	1202	24
81	0	0	118	1303	1201	23
82	0	0	367	1307	1200	25
83	0	0	930	1308	1203	23
84	0	0	1557	1307	1204	23
85	0	0	2207	1306	1206	23
86	0	0	2873	1305	1206	21
87	0	0	3381	1304	1204	21
88	0	0	3689	1303	1202	20
89	0	0	3865	1302	1196	21
90	0	0	3965	1301	1189	21
91	0	0	4016	1299	1187	20
92	0	0	4037	1293	1186	20
93	0	0	3467	1293	1191	23
94	0	0	2624	1291	1195	24
95	0	0	1702	1292	1200	23
96	0	0	991	1294	1204	24
97	0	0	582	1295	1206	25
98	0	0	349	1297	1206	26
99	0	0	220	1299	1204	25
100	0	0	151	1303	1200	24
101	0	0	117	1303	1199	19
102	0	0	357	1307	1200	23
103	0	0	939	1308	1199	24
104	0	0	1564	1306	1201	23
105	0	0	2208	1306	1203	23
106	0	0	2872	1303	1203	20
107	0	0	3383	1304	1202	21
108	0	0	3688	1301	1200	21
109	0	0	3865	1301	1194	21
110	0	0	3963	1300	1188	20
111	0	0	4017	1298	1186	22
112	0	0	4042	1293	1183	21
113	0	0	3471	1291	1188	23
114	0	0	2627	1291	1192	24
115	0	0	1700	1290	1199	21
116	0	0	986	1295	1201	25
117	0	0	581	1296	1203	23
118	0	0	345	1296	1203	25
119	0	0	220	1299	1201	26
120	0	0	153	1299	1197	25
121	0	0	119	1301	1197	26
122	0	0	346	1307	1198	25
123	0	0	927	1305	1197	23
124	0	0	1548	1305	1200	23
125	0	0	2187	1308	1200	22
126	0	0	2851	1306	1202	17
127	0	0	3375	1305	1198	21
0	0	0	3681	1302	1198	22
1	0	0	3856	1301	1192	19
2	0	0	3959	1298	1186	17
3	0	0	4016	1298	1183	24
4	0	0	4043	1290	1183	22
5	0	0	3493	1290	1186	23
6	0	0	2634	1290	1190	23
7	0	0	1714	1290	1196	24
8	0	0	992	1294	1199	24
9	0	0	581	1296	1199	23
10	0	0	349	1297	1201	25
11	0	0	219	1299	1199	26
12	0	0	156	1299	1197	24
13	0	0	121	1302	1194	28
14	0	0	348	1306	1195	22
15	0	0	922	1305	1195	23
16	0	0	1542	1305	1197	23
17	0	0	2185	1303	1199	24
18	0	0	2856	1305	1200	24
19	0	0	3377	1304	1198	21
20	0	0	3683	1303	1196	22
21	0	0	3858	1301	1190	20
22	0	0	3963	1301	1183	20
23	0	0	4017	1299	1181	23
24	0	0	4043	1290	1183	22
25	0	0	3496	1292	1184	22
26	0	0	2645	1292	1188	23
27	0	0	1725	1291	1194	24
28	0	0	1004	1294	1197	25
29	0	0	586	1293	1201	26
30	0	0	353	1296	1199	26
31	0	0	222	1299	1198	24
32	0	0	154	1302	1194	24
33	0	0	120	1301	1193	25
34	0	0	320	1306	1195	25
35	0	0	900	1306	1194	23
36	0	0	1526	1305	1196	23
37	0	0	2166	1306	1197	23
38	0	0	2843	1305	1198	24
39	0	0	3368	1304	1197	21
40	0	0	3680	1302	1195	21
41	0	0	3859	1301	1190	20
42	0	0	3960	1301	1181	19
43	0	0	4017	1300	1177	20
44	0	0	4045	1294	1181	23
45	0	0	3514	1291	1182	22
46	0	0	2667	1291	1188	23
47	0	0	1741	1291	1193	23
48	0	0	1014	1293	1196	24
49	0	0	592	1294	1199	25
50	0	0	353	1298	1199	25
51	0	0	225	1299	1196	26
52	0	0	155	1299	1192	24
53	0	0	122	1302	1191	21
54	0	0	313	1307	1191	22
55	0	0	897	1306	1191	24
56	0	0	1540	1306	1194	23
57	0	0	2177	1305	1196	23
58	0	0	2847	1305	1196	23
59	0	0	3371	1304	1195	22
60	0	0	3681	1300	1193	20
61	0	0	3860	1301	1187	19
62	0	0	3961	1299	1180	21
63	0	0	4017	1300	1176	22
64	0	0	4044	1293	1177	21
65	0	0	3506	1292	1181	23
66	0	0	2666	1291	1185	23
67	0	0	1753	1291	1191	24
68	0	0	1022	1294	1193	27
69	0	0	598	1295	1197	26
70	0	0	356	1296	1196	25
71	0	0	227	1299	1194	26
72	0	0	156	1300	1192	24
73	0	0	121	1304	1189	23
74	0	0	313	1308	1187	22
75	0	0	896	1306	1190	23
76	0	0	1518	1307	1192	22
77	0	0	2165	1306	1193	22
78	0	0	2823	1307	1192	21
79	0	0	3359	1304	1193	22
80	0	0	3676	1303	1191	21
81	0	0	3856	1302	1183	23
82	0	0	3961	1301	1177	20
83	0	0	4016	1299	1176	20
84	0	0	4043	1294	1176	21
85	0	0	3520	1291	1178	22
86	0	0	2691	1291	1182	23
87	0	0	1770	1292	1186	24
88	0	0	1041	1293	1191	23
89	0	0	608	1296	1193	25
90	0	0	362	1297	1194	25
91	0	0	230	1299	1191	26
92	0	0	156	1300	1189	26
93	0	0	122	1302	1187	26
94	0	0	317	1306	1187	23
95	0	0	887	1306	1187	23
96	0	0	1498	1308	1189	23
97	0	0	2141	1306	1191	22
98	0	0	2797	1305	1191	23
99	0	0	3342	1304	1189	20
100	0	0	3665	1303	1188	20
101	0	0	3852	1302	1182	17
102	0	0	3956	1300	1175	20
103	0	0	4014	1300	1172	21
104	0	0	4043	1293	1173	21
105	0	0	3510	1290	1175	23
106	0	0	2687	1292	1180	24
107	0	0	1767	1291	1184	23
108	0	0	1036	1295	1186	23
109	0	0	607	1295	1190	23
110	0	0	362	1297	1192	25
111	0	0	228	1298	1188	24
112	0	0	158	1300	1188	26
113	0	0	119	1303	1184	20
114	0	0	336	1307	1182	23
115	0	0	908	1306	1184	22
116	0	0	1518	1309	1186	21
117	0	0	2141	1305	1189	23
118	0	0	2795	1305	1189	22
119	0	0	3334	1305	1186	20
120	0	0	3661	1303	1184	20
121	0	0	3848	1301	1178	21
122	0	0	3954	1302	1171	19
123	0	0	4014	1298	1170	20
124	0	0	4043	1299	1170	19
125	0	0	3669	1292	1172	22
126	0	0	2858	1291	1177	21
127	0	0	1914	1292	1182	24
0	0	0	1129	1294	1184	21
1	0	0	664	1294	1186	22
2	0	0	392	1296	1187	24
3	0	0	244	1298	1186	24
4	0	0	166	1299	1182	25
5	0	0	121	1303	1180	24
6	0	0	307	1305	1179	24
7	0	0	871	1306	1183	23
8	0	0	1462	1306	1183	22
9	0	0	2082	1305	1184	22
10	0	0	2729	1305	1184	21
11	0	0	3284	1303	1184	20
12	0	0	3631	1302	1180	22
13	0	0	3833	1301	1176	19
14	0	0	3945	1295	1169	19
15	0	0	4002	1298	1166	21
16	0	0	4039	1292	1167	21
17	0	0	3512	1291	1168	22
18	0	0	2728	1293	1174	20
19	0	0	1827	1294	1177	23
20	0	0	1084	1294	1181	24
21	0	0	639	1294	1184	24
22	0	0	384	1296	1184	24
23	0	0	237	1297	1182	26
24	0	0	162	1300	1179	25
25	0	0	119	1301	1178	24
26	0	0	322	1306	1178	23
27	0	0	887	1306	1177	25
28	0	0	1483	1306	1180	23
29	0	0	2100	1307	1181	22
30	0	0	2747	1304	1181	23
31	0	0	3296	1302	1181	21
32	0	0	3637	1302	1178	21
33	0	0	3835	1300	1173	19
34	0	0	3949	1297	1166	20
35	0	0	4008	1297	1164	21
36	0	0	4040	1289	1164	22
37	0	0	3510	1290	1166	22
38	0	0	2716	1291	1170	22
39	0	0	1837	1289	1174	23
40	0	0	1105	1291	1177	23
41	0	0	646	1294	1179	24
42	0	0	385	1295	1180	25
43	0	0	242	1298	1180	25
44	0	0	162	1300	1176	23
45	0	0	124	1301	1174	23
46	0	0	323	1304	1174	24
47	0	0	889	1305	1176	24
48	0	0	1468	1304	1176	22
49	0	0	2083	1305	1177	21
50	0	0	2724	1303	1177	20
51	0	0	3284	1304	1177	20
52	0	0	3626	1301	1174	21
53	0	0	3835	1300	1169	20
54	0	0	3943	1297	1163	20
55	0	0	4008	1296	1160	20
56	0	0	4037	1295	1164	23
57	0	0	3537	1289	1161	22
58	0	0	2757	1289	1166	23
59	0	0	1879	1290	1171	23
60	0	0	1139	1291	1174	24
61	0	0	665	1295	1177	23
62	0	0	393	1294	1177	26
63	0	0	248	1296	1175	26
64	0	0	167	1299	1171	24
65	0	0	128	1299	1170	24
66	0	0	311	1304	1171	21
67	0	0	876	1304	1172	21
68	0	0	1465	1305	1173	22
69	0	0	2074	1306	1172	21
70	0	0	2716	1302	1173	20
71	0	0	3278	1302	1172	20
72	0	0	3622	1302	1172	20
73	0	0	3827	1300	1164	19
74	0	0	3941	1296	1158	19
75	0	0	4004	1295	1155	18
76	0	0	4039	1295	1158	22
77	0	0	3536	1289	1160	22
78	0	0	2772	1288	1161	23
79	0	0	1891	1289	1166	23
80	0	0	1145	1290	1168	22
81	0	0	666	1292	1172	24
82	0	0	397	1294	1175	25
83	0	0	248	1296	1171	23
84	0	0	166	1297	1168	24
85	0	0	125	1297	1165	22
86	0	0	290	1303	1167	25
87	0	0	856	1303	1167	25
88	0	0	1441	1303	1166	21
89	0	0	2055	1302	1168	21
90	0	0	2710	1301	1168	20
91	0	0	3274	1301	1170	21
92	0	0	3625	1300	1166	19
93	0	0	3826	1298	1159	20
94	0	0	3942	1296	1154	19
95	0	0	4006	1295	1152	19
96	0	0	4039	1296	1152	19
97	0	0	3557	1288	1154	21
98	0	0	2779	1287	1158	21
99	0	0	1899	1289	1162	23
100	0	0	1148	1291	1166	23
101	0	0	669	1291	1167	23
102	0	0	397	1293	1168	23
103	0	0	248	1294	1167	24
104	0	0	167	1297	1164	24
105	0	0	126	1298	1162	24
106	0	0	280	1303	1162	21
107	0	0	844	1303	1165	22
108	0	0	1429	1303	1164	22
109	0	0	2039	1302	1164	21
110	0	0	2675	1301	1166	22
111	0	0	3249	1301	1166	23
112	0	0	3611	1298	1164	21
113	0	0	3820	1298	1157	19
114	0	0	3936	1297	1150	19
115	0	0	4006	1296	1148	20
116	0	0	4038	1293	1150	23
117	0	0	3586	1288	1151	22
118	0	0	2812	1288	1153	24
119	0	0	1907	1289	1158	23
120	0	0	1152	1289	1161	23
121	0	0	672	1291	1164	23
122	0	0	399	1292	1167	25
123	0	0	250	1295	1164	27
124	0	0	168	1296	1160	25
125	0	0	128	1296	1160	24
126	0	0	268	1302	1159	22
127	0	0	821	1302	1161	22
0	0	0	1414	1302	1160	23
1	0	0	2035	1301	1162	21
2	0	0	2675	1300	1162	20
3	0	0	3248	1299	1161	19
4	0	0	3609	1299	1160	19
5	0	0	3819	1297	1153	18
6	0	0	3940	1296	1147	20
7	0	0	4003	1294	1145	21
8	0	0	4038	1293	1145	21
9	0	0	3596	1289	1145	21
10	0	0	2829	1285	1150	23
11	0	0	1937	1288	1152	22
12	0	0	1184	1288	1159	23
13	0	0	691	1290	1160	21
14	0	0	409	1292	1163	24
15	0	0	254	1291	1161	25
16	0	0	171	1295	1157	23
17	0	0	129	1298	1156	27
18	0	0	255	1302	1156	21
19	0	0	812	1301	1155	23
20	0	0	1408	1302	1157	22
21	0	0	2034	1302	1159	20
22	0	0	2690	1300	1159	21
23	0	0	3258	1299	1158	19
24	0	0	3616	1298	1155	21
25	0	0	3824	1297	1150	21
26	0	0	3939	1295	1146	19
27	0	0	4007	1294	1144	21
28	0	0	4040	1292	1142	19
29	0	0	3613	1286	1144	22
30	0	0	2840	1286	1147	26
31	0	0	1940	1287	1153	22
32	0	0	1182	1288	1155	21
33	0	0	689	1289	1157	19
34	0	0	408	1291	1158	22
35	0	0	253	1293	1157	24
36	0	0	172	1296	1155	25
37	0	0	126	1297	1153	23
38	0	0	248	1301	1153	23
39	0	0	810	1301	1153	23
40	0	0	1395	1301	1155	21
41	0	0	2018	1302	1154	20
42	0	0	2671	1300	1156	21
43	0	0	3245	1298	1156	16
44	0	0	3610	1298	1153	20
45	0	0	3819	1298	1148	20
46	0	0	3938	1295	1141	18
47	0	0	4005	1295	1139	20
48	0	0	4035	1292	1139	17
49	0	0	3618	1286	1142	23
50	0	0	2865	1286	1145	23
51	0	0	1952	1287	1147	23
52	0	0	1169	1288	1153	23
53	0	0	687	1289	1156	20
54	0	0	407	1290	1155	23
55	0	0	252	1294	1155	24
56	0	0	171	1296	1153	24
57	0	0	127	1296	1151	24
58	0	0	247	1301	1150	23
59	0	0	811	1301	1152	22
60	0	0	1389	1301	1152	21
61	0	0	2000	1300	1153	21
62	0	0	2651	1300	1154	21
63	0	0	3227	1298	1153	18
64	0	0	3599	1298	1149	21
65	0	0	3813	1297	1146	19
66	0	0	3936	1295	1139	19
67	0	0	4003	1294	1138	18
68	0	0	4033	1292	1136	17
69	0	0	3623	1286	1138	21
70	0	0	2871	1285	1142	21
71	0	0	1954	1287	1146	24
72	0	0	1170	1288	1148	23
73	0	0	685	1289	1153	24
74	0	0	407	1290	1156	22
75	0	0	254	1292	1153	23
76	0	0	169	1294	1150	21
77	0	0	127	1294	1148	24
78	0	0	238	1300	1147	24
79	0	0	805	1300	1147	23
80	0	0	1399	1298	1149	22
81	0	0	2020	1300	1152	20
82	0	0	2668	1298	1151	21
83	0	0	3246	1298	1150	19
84	0	0	3608	1298	1148	21
85	0	0	3817	1294	1142	20
86	0	0	3938	1293	1136	20
87	0	0	4005	1293	1136	19
88	0	0	4040	1291	1135	20
89	0	0	3632	1284	1136	21
90	0	0	2874	1284	1141	21
91	0	0	1981	1285	1144	23
92	0	0	1203	1287	1146	22
93	0	0	699	1288	1151	21
94	0	0	417	1289	1151	24
95	0	0	258	1291	1150	26
96	0	0	174	1296	1148	25
97	0	0	123	1294	1146	24
98	0	0	223	1299	1146	24
99	0	0	789	1299	1146	22
100	0	0	1378	1300	1147	23
101	0	0	1988	1299	1147	22
102	0	0	2645	1298	1147	21
103	0	0	3227	1296	1148	20
104	0	0	3595	1296	1146	20
105	0	0	3812	1295	1141	18
106	0	0	3935	1292	1134	20
107	0	0	4003	1292	1133	21
108	0	0	4036	1290	1133	20
109	0	0	3641	1284	1134	21
110	0	0	2890	1285	1138	21
111	0	0	1998	1285	1141	23
112	0	0	1231	1287	1144	24
113	0	0	715	1287	1148	24
114	0	0	426	1290	1149	25
115	0	0	261	1291	1146	24
116	0	0	175	1292	1144	24
117	0	0	127	1293	1144	24
118	0	0	229	1299	1145	22
119	0	0	789	1299	1144	23
120	0	0	1371	1297	1145	23
121	0	0	1984	1297	1145	20
122	0	0	2634	1298	1146	22
123	0	0	3219	1296	1146	20
124	0	0	3593	1296	1144	20
125	0	0	3812	1293	1139	20
126	0	0	3934	1292	1132	20
127	0	0	4002	1292	1131	19
0	0	0	4037	1291	1131	22
1	0	0	3633	1284	1133	22
2	0	0	2895	1284	1137	21
3	0	0	2017	1282	1140	22
4	0	0	1247	1287	1144	24
5	0	0	726	1288	1147	26
6	0	0	430	1289	1146	24
7	0	0	268	1289	1146	25
8	0	0	178	1291	1142	24
9	0	0	129	1294	1142	24
10	0	0	222	1299	1142	23
11	0	0	782	1300	1143	21
12	0	0	1367	1299	1144	23
13	0	0	1974	1299	1144	19
14	0	0	2616	1299	1145	21
15	0	0	3197	1299	1145	21
16	0	0	3580	1295	1142	20
17	0	0	3804	1295	1138	18
18	0	0	3929	1294	1130	19
19	0	0	3998	1291	1129	20
20	0	0	4037	1291	1130	22
21	0	0	3634	1285	1132	20
22	0	0	2898	1284	1135	23
23	0	0	2023	1283	1138	22
24	0	0	1253	1287	1143	20
25	0	0	732	1286	1145	24
26	0	0	433	1288	1145	23
27	0	0	268	1290	1144	24
28	0	0	177	1291	1142	24
29	0	0	131	1294	1141	21
30	0	0	228	1300	1140	23
31	0	0	785	1298	1142	23
32	0	0	1355	1299	1142	22
33	0	0	1960	1297	1143	22
34	0	0	2594	1298	1145	18
35	0	0	3174	1296	1143	23
36	0	0	3564	1296	1142	20
37	0	0	3793	1294	1137	19
38	0	0	3920	1291	1130	19
39	0	0	3997	1291	1128	19
40	0	0	4035	1291	1128	20
41	0	0	3636	1283	1130	19
42	0	0	2919	1284	1133	23
43	0	0	2039	1285	1137	23
44	0	0	1274	1286	1140	24
45	0	0	744	1288	1143	24
46	0	0	440	1289	1145	24
47	0	0	274	1290	1143	23
48	0	0	181	1289	1142	25
49	0	0	132	1295	1140	23
50	0	0	246	1298	1139	26
51	0	0	797	1298	1139	22
52	0	0	1370	1298	1138	24
53	0	0	1959	1297	1140	20
54	0	0	2572	1298	1143	20
55	0	0	3155	1297	1140	22
56	0	0	3552	1294	1139	19
57	0	0	3788	1294	1134	20
58	0	0	3920	1292	1129	20
59	0	0	3996	1290	1126	19
60	0	0	4034	1290	1125	23
61	0	0	3635	1284	1127	22
62	0	0	2924	1283	1130	24
63	0	0	2063	1284	1134	23
64	0	0	1303	1285	1138	23
65	0	0	764	1287	1141	23
66	0	0	451	1288	1141	25
67	0	0	277	1289	1141	24
68	0	0	183	1292	1139	24
69	0	0	136	1294	1138	23
70	0	0	257	1298	1137	23
71	0	0	806	1297	1135	20
72	0	0	1364	1298	1138	22
73	0	0	1948	1297	1139	21
74	0	0	2571	1299	1139	20
75	0	0	3139	1297	1139	20
76	0	0	3544	1295	1135	20
77	0	0	3786	1293	1133	19
78	0	0	3919	1292	1127	19
79	0	0	3992	1291	1123	19
80	0	0	4034	1289	1124	19
81	0	0	3619	1284	1126	21
82	0	0	2930	1283	1128	23
83	0	0	2075	1284	1134	24
84	0	0	1320	1285	1138	20
85	0	0	786	1287	1140	23
86	0	0	463	1288	1139	24
87	0	0	284	1289	1139	24
88	0	0	188	1291	1139	27
89	0	0	136	1293	1136	24
90	0	0	242	1297	1135	19
91	0	0	781	1297	1135	22
92	0	0	1323	1297	1136	21
93	0	0	1906	1298	1138	22
94	0	0	2520	1296	1138	19
95	0	0	3091	1294	1137	19
96	0	0	3517	1295	1136	20
97	0	0	3767	1294	1131	19
98	0	0	3911	1292	1125	17
99	0	0	3986	1288	1121	19
100	0	0	4028	1290	1123	17
101	0	0	3632	1283	1123	22
102	0	0	2952	1283	1127	22
103	0	0	2100	1284	1131	23
104	0	0	1346	1284	1134	24
105	0	0	806	1285	1136	23
106	0	0	474	1287	1136	23
107	0	0	294	1289	1136	23
108	0	0	192	1290	1136	24
109	0	0	140	1292	1133	23
110	0	0	241	1297	1135	23
111	0	0	789	1297	1134	23
112	0	0	1335	1300	1135	22
113	0	0	1920	1296	1135	24
114	0	0	2535	1295	1135	21
115	0	0	3107	1295	1135	21
116	0	0	3519	1295	1132	18
117	0	0	3772	1294	1128	19
118	0	0	3909	1291	1125	20
119	0	0	3987	1288	1120	19
120	0	0	4029	1288	1120	17
121	0	0	3637	1283	1120	20
122	0	0	2951	1282	1125	22
123	0	0	2124	1283	1129	23
124	0	0	1374	1284	1133	22
125	0	0	821	1286	1135	24
126	0	0	487	1287	1136	23
127	0	0	296	1288	1136	26
0	0	0	194	1291	1134	24
1	0	0	141	1290	1131	24
2	0	0	244	1297	1131	19
3	0	0	792	1297	1130	22
4	0	0	1349	1298	1133	22
5	0	0	1923	1297	1134	21
6	0	0	2529	1294	1133	20
7	0	0	3093	1295	1134	19
8	0	0	3515	1293	1130	19
9	0	0	3765	1293	1126	19
10	0	0	3910	1293	1122	19
11	0	0	3988	1288	1119	21
12	0	0	4029	1290	1119	19
13	0	0	3639	1283	1120	20
14	0	0	2956	1283	1124	22
15	0	0	2126	1282	1126	22
16	0	0	1381	1281	1130	22
17	0	0	832	1285	1134	24
18	0	0	493	1287	1135	24
19	0	0	300	1290	1133	26
20	0	0	195	1290	1133	26
21	0	0	140	1292	1130	23
22	0	0	243	1298	1131	20
23	0	0	782	1297	1130	23
24	0	0	1322	1297	1132	22
25	0	0	1888	1297	1132	19
26	0	0	2487	1298	1133	20
27	0	0	3051	1294	1132	22
28	0	0	3488	1294	1128	21
29	0	0	3749	1294	1127	18
30	0	0	3897	1290	1120	19
31	0	0	3982	1286	1117	20
32	0	0	4024	1289	1118	23
33	0	0	3644	1282	1119	19
34	0	0	2974	1282	1123	21
35	0	0	2148	1283	1126	21
36	0	0	1398	1283	1129	23
37	0	0	838	1285	1133	26
38	0	0	493	1287	1132	23
39	0	0	302	1288	1133	25
40	0	0	194	1291	1131	24
41	0	0	144	1291	1129	23
42	0	0	254	1297	1130	23
43	0	0	786	1297	1130	23
44	0	0	1328	1298	1131	22
45	0	0	1891	1297	1131	22
46	0	0	2476	1297	1132	21
47	0	0	3040	1295	1131	20
48	0	0	3480	1294	1128	19
49	0	0	3741	1292	1125	18
50	0	0	3895	1291	1120	17
51	0	0	3981	1287	1116	20
52	0	0	4022	1290	1118	17
53	0	0	3651	1282	1119	21
54	0	0	2987	1282	1121	21
55	0	0	2155	1283	1126	22
56	0	0	1419	1283	1128	23
57	0	0	861	1285	1131	23
58	0	0	505	1286	1132	23
59	0	0	308	1288	1133	26
60	0	0	199	1291	1130	22
61	0	0	147	1291	1128	21
62	0	0	245	1297	1129	24
63	0	0	782	1297	1129	22
64	0	0	1318	1296	1129	21
65	0	0	1890	1297	1129	24
66	0	0	2480	1297	1132	22
67	0	0	3040	1296	1130	20
68	0	0	3475	1293	1128	21
69	0	0	3743	1292	1124	18
70	0	0	3891	1289	1118	19
71	0	0	3977	1287	1116	19
72	0	0	4026	1289	1116	20
73	0	0	3644	1282	1117	22
74	0	0	2986	1282	1121	22
75	0	0	2164	1282	1123	21
76	0	0	1428	1285	1127	20
77	0	0	869	1286	1130	23
78	0	0	509	1287	1131	24
79	0	0	309	1288	1131	23
80	0	0	201	1290	1130	24
81	0	0	144	1292	1127	26
82	0	0	235	1297	1127	23
83	0	0	763	1297	1128	24
84	0	0	1290	1295	1128	21
85	0	0	1863	1297	1130	20
86	0	0	2465	1295	1128	19
87	0	0	3030	1296	1129	24
88	0	0	3467	1293	1127	20
89	0	0	3739	1293	1124	19
90	0	0	3890	1289	1117	19
91	0	0	3978	1291	1115	16
92	0	0	4024	1289	1114	22
93	0	0	3649	1282	1116	20
94	0	0	3003	1282	1119	22
95	0	0	2169	1279	1123	20
96	0	0	1427	1283	1126	19
97	0	0	879	1285	1129	26
98	0	0	515	1287	1129	25
99	0	0	311	1288	1129	23
100	0	0	207	1291	1128	23
101	0	0	145	1293	1127	24
102	0	0	231	1297	1127	24
103	0	0	760	1297	1126	23
104	0	0	1285	1297	1128	22
105	0	0	1859	1295	1128	20
106	0	0	2458	1296	1128	18
107	0	0	3023	1295	1128	23
108	0	0	3464	1293	1127	23
109	0	0	3736	1292	1123	20
110	0	0	3892	1291	1118	17
111	0	0	3979	1290	1115	20
112	0	0	4029	1289	1114	19
113	0	0	3656	1283	1116	21
114	0	0	3011	1282	1119	23
115	0	0	2184	1282	1124	21
116	0	0	1448	1284	1126	22
117	0	0	891	1285	1128	24
118	0	0	523	1287	1130	23
119	0	0	317	1288	1130	25
120	0	0	205	1290	1129	23
121	0	0	146	1292	1126	23
122	0	0	235	1296	1126	23
123	0	0	758	1297	1127	23
124	0	0	1290	1296	1128	22
125	0	0	1854	1296	1130	22
126	0	0	2444	1295	1129	21
127	0	0	3000	1295	1128	22
0	0	0	3447	1294	1126	24
1	0	0	3728	1292	1123	20
2	0	0	3886	1291	1119	20
3	0	0	3973	1288	1114	21
4	0	0	4023	1289	1113	20
5	0	0	3651	1282	1115	20
6	0	0	3018	1283	1118	25
7	0	0	2196	1280	1122	22
8	0	0	1441	1283	1127	23
9	0	0	888	1285	1128	23
10	0	0	523	1286	1128	25
11	0	0	316	1288	1129	26
12	0	0	208	1290	1129	24
13	0	0	148	1292	1126	26
14	0	0	240	1296	1125	23
15	0	0	775	1296	1125	25
16	0	0	1299	1297	1127	22
17	0	0	1863	1295	1128	24
18	0	0	2442	1297	1127	24
19	0	0	2988	1295	1127	20
20	0	0	3436	1295	1126	19
21	0	0	3718	1295	1122	19
22	0	0	3882	1290	1118	20
23	0	0	3976	1289	1114	27
24	0	0	4026	1288	1113	22
25	0	0	3643	1282	1115	26
26	0	0	3013	1283	1120	21
27	0	0	2203	1282	1123	22
28	0	0	1464	1284	1125	24
29	0	0	918	1284	1127	24
30	0	0	540	1286	1129	23
31	0	0	326	1288	1129	24
32	0	0	213	1289	1126	24
33	0	0	150	1292	1125	28
34	0	0	248	1297	1125	23
35	0	0	786	1297	1126	23
36	0	0	1301	1296	1126	21
37	0	0	1862	1297	1127	21
38	0	0	2439	1297	1127	20
39	0	0	2989	1294	1126	20
40	0	0	3426	1294	1125	23
41	0	0	3712	1292	1122	20
42	0	0	3880	1290	1116	21
43	0	0	3971	1290	1113	19
44	0	0	4023	1290	1113	21
45	0	0	3615	1282	1114	21
46	0	0	2980	1281	1117	22
47	0	0	2185	1284	1121	22
48	0	0	1446	1285	1125	26
49	0	0	892	1285	1127	23
50	0	0	529	1287	1129	23
51	0	0	320	1289	1129	24
52	0	0	207	1287	1128	24
53	0	0	147	1294	1125	22
54	0	0	233	1296	1126	24
55	0	0	766	1296	1126	23
56	0	0	1290	1297	1128	22
57	0	0	1839	1296	1127	26
58	0	0	2420	1296	1127	27
59	0	0	2971	1296	1127	22
60	0	0	3407	1294	1125	18
61	0	0	3701	1292	1122	17
62	0	0	3873	1290	1117	20
63	0	0	3969	1290	1113	24
64	0	0	4017	1287	1113	24
65	0	0	3617	1281	1114	21
66	0	0	2994	1281	1118	25
67	0	0	2211	1282	1120	19
68	0	0	1486	1283	1124	24
69	0	0	944	1285	1127	24
70	0	0	564	1287	1128	23
71	0	0	340	1287	1128	24
72	0	0	216	1289	1127	24
73	0	0	153	1290	1125	23
74	0	0	266	1295	1125	24
75	0	0	790	1296	1125	22
76	0	0	1303	1297	1126	22
77	0	0	1847	1297	1127	21
78	0	0	2419	1296	1127	19
79	0	0	2957	1295	1126	19
80	0	0	3385	1293	1124	19
81	0	0	3678	1292	1121	22
82	0	0	3856	1292	1116	23
83	0	0	3960	1289	1112	22
84	0	0	4016	1288	1112	20
85	0	0	3617	1282	1113	20
86	0	0	3005	1282	1117	22
87	0	0	2228	1279	1120	20
88	0	0	1506	1283	1124	20
89	0	0	966	1284	1126	23
90	0	0	581	1284	1128	23
91	0	0	352	1288	1127	25
92	0	0	222	1290	1126	24
93	0	0	156	1292	1125	22
94	0	0	271	1295	1126	22
95	0	0	791	1296	1124	21
96	0	0	1298	1296	1125	22
97	0	0	1844	1298	1126	21
98	0	0	2414	1295	1126	20
99	0	0	2946	1295	1126	23
100	0	0	3382	1293	1124	21
101	0	0	3675	1291	1121	18
102	0	0	3854	1287	1113	18
103	0	0	3958	1290	1112	20
104	0	0	4014	1288	1112	20
105	0	0	3630	1282	1112	21
106	0	0	3023	1280	1116	25
107	0	0	2238	1279	1120	19
108	0	0	1521	1283	1123	23
109	0	0	970	1285	1126	23
110	0	0	582	1283	1128	23
111	0	0	350	1287	1127	25
112	0	0	224	1291	1125	23
113	0	0	157	1291	1124	20
114	0	0	255	1294	1124	22
115	0	0	780	1296	1124	24
116	0	0	1294	1296	1126	21
117	0	0	1841	1295	1124	23
118	0	0	2399	1295	1125	20
119	0	0	2938	1293	1125	22
120	0	0	3386	1294	1123	18
121	0	0	3688	1292	1120	19
122	0	0	3863	1290	1114	20
123	0	0	3963	1290	1112	21
124	0	0	4016	1287	1111	22
125	0	0	3655	1282	1113	21
126	0	0	3036	1281	1116	22
127	0	0	2243	1281	1119	20
0	0	0	1502	1282	1123	22
1	0	0	943	1283	1126	23
2	0	0	558	1285	1126	24
3	0	0	336	1288	1126	23
4	0	0	217	1287	1124	24
5	0	0	151	1293	1124	24
6	0	0	231	1294	1123	24
7	0	0	764	1294	1124	24
8	0	0	1273	1294	1124	21
9	0	0	1829	1295	1125	19
10	0	0	2397	1298	1125	18
11	0	0	2946	1294	1126	21
12	0	0	3399	1294	1122	24
13	0	0	3698	1292	1120	22
14	0	0	3870	1291	1115	18
15	0	0	3966	1290	1112	19
16	0	0	4024	1291	1111	20
17	0	0	3677	1282	1112	20
18	0	0	3068	1279	1115	20
19	0	0	2254	1282	1119	22
20	0	0	1500	1283	1122	20
21	0	0	939	1284	1123	25
22	0	0	555	1286	1126	24
23	0	0	334	1287	1125	23
24	0	0	217	1287	1124	23
25	0	0	151	1292	1124	23
26	0	0	209	1297	1123	23
27	0	0	746	1297	1124	24
28	0	0	1263	1296	1124	21
29	0	0	1829	1297	1125	24
30	0	0	2415	1296	1125	23
31	0	0	2974	1296	1124	20
32	0	0	3424	1295	1122	20
33	0	0	3716	1292	1119	21
34	0	0	3880	1289	1113	19
35	0	0	3974	1289	1111	23
36	0	0	4020	1289	1110	24
37	0	0	3682	1283	1110	24
38	0	0	3067	1281	1116	20
39	0	0	2249	1279	1117	22
40	0	0	1488	1283	1120	22
41	0	0	924	1285	1125	23
42	0	0	545	1287	1125	23
43	0	0	329	1287	1125	24
44	0	0	212	1288	1124	23
45	0	0	150	1290	1123	26
46	0	0	203	1296	1122	22
47	0	0	741	1297	1123	24
48	0	0	1255	1296	1123	22
49	0	0	1824	1294	1123	20
50	0	0	2412	1296	1124	20
51	0	0	2972	1294	1123	21
52	0	0	3420	1292	1121	23
53	0	0	3711	1292	1119	24
54	0	0	3878	1290	1114	21
55	0	0	3971	1288	1110	19
56	0	0	4024	1288	1110	20
57	0	0	3677	1281	1111	21
58	0	0	3060	1281	1114	21
59	0	0	2265	1282	1117	22
60	0	0	1512	1283	1121	22
61	0	0	943	1285	1124	23
62	0	0	559	1286	1125	22
63	0	0	340	1287	1125	24
64	0	0	218	1290	1123	24
65	0	0	152	1292	1124	23
66	0	0	209	1297	1122	23
67	0	0	748	1298	1122	23
68	0	0	1272	1294	1122	22
69	0	0	1832	1295	1123	23
70	0	0	2412	1296	1124	23
71	0	0	2962	1295	1123	23
72	0	0	3410	1295	1122	15
73	0	0	3705	1292	1118	21
74	0	0	3877	1287	1112	19
75	0	0	3969	1290	1110	19
76	0	0	4020	1290	1110	22
77	0	0	3679	1282	1111	23
78	0	0	3075	1283	1114	24
79	0	0	2276	1283	1116	22
80	0	0	1533	1284	1121	23
81	0	0	968	1286	1123	24
82	0	0	577	1286	1125	19
83	0	0	346	1289	1125	22
84	0	0	219	1290	1124	24
85	0	0	154	1290	1123	25
86	0	0	216	1298	1121	24
87	0	0	752	1297	1123	23
88	0	0	1271	1297	1123	21
89	0	0	1821	1297	1122	23
90	0	0	2392	1296	1123	23
91	0	0	2937	1296	1123	24
92	0	0	3381	1294	1121	17
93	0	0	3688	1295	1119	19
94	0	0	3864	1289	1115	19
95	0	0	3961	1290	1110	19
96	0	0	4014	1288	1110	22
97	0	0	3668	1282	1111	23
98	0	0	3065	1281	1114	25
99	0	0	2286	1282	1117	26
100	0	0	1532	1282	1121	23
101	0	0	972	1285	1123	23
102	0	0	580	1287	1125	21
103	0	0	348	1288	1125	23
104	0	0	224	1290	1123	23
105	0	0	154	1290	1123	26
106	0	0	214	1296	1122	22
107	0	0	744	1297	1123	22
108	0	0	1252	1295	1123	21
109	0	0	1793	1297	1124	21
110	0	0	2353	1299	1124	20
111	0	0	2903	1298	1124	19
112	0	0	3355	1293	1122	19
113	0	0	3664	1293	1119	22
114	0	0	3851	1292	1113	22
115	0	0	3957	1291	1111	23
116	0	0	4010	1288	1110	20
117	0	0	3683	1283	1111	19
118	0	0	3079	1283	1114	22
119	0	0	2289	1284	1117	23
120	0	0	1543	1285	1121	21
121	0	0	983	1285	1123	23
122	0	0	584	1287	1124	19
123	0	0	353	1289	1125	24
124	0	0	224	1291	1123	26
125	0	0	157	1290	1123	23
126	0	0	196	1296	1121	23
127	0	0	729	1298	1122	20
0	0	0	1247	1298	1123	22
1	0	0	1808	1299	1123	21
2	0	0	2378	1296	1124	23
3	0	0	2933	1296	1123	24
4	0	0	3391	1296	1122	22
5	0	0	3691	1295	1119	19
6	0	0	3863	1292	1113	19
7	0	0	3963	1293	1111	19
8	0	0	4016	1290	1110	20
9	0	0	3719	1283	1111	20
10	0	0	3124	1285	1112	24
11	0	0	2316	1284	1117	26
12	0	0	1559	1286	1121	21
13	0	0	981	1285	1124	23
14	0	0	578	1288	1124	19
15	0	0	349	1289	1125	24
16	0	0	222	1291	1124	23
17	0	0	153	1293	1123	22
18	0	0	170	1297	1123	23
19	0	0	692	1298	1123	20
20	0	0	1210	1300	1123	21
21	0	0	1777	1300	1124	23
22	0	0	2356	1298	1123	20
23	0	0	2926	1296	1124	20
24	0	0	3394	1295	1122	16
25	0	0	3696	1295	1118	19
26	0	0	3865	1291	1112	23
27	0	0	3963	1292	1110	21
28	0	0	4016	1288	1109	24
29	0	0	3743	1283	1111	20
30	0	0	3144	1283	1113	23
31	0	0	2324	1284	1116	23
32	0	0	1553	1285	1120	22
33	0	0	958	1283	1123	23
34	0	0	561	1287	1124	20
35	0	0	337	1290	1125	25
36	0	0	215	1290	1125	24
37	0	0	152	1293	1122	20
38	0	0	144	1296	1123	22
39	0	0	663	1296	1123	20
40	0	0	1189	1298	1123	22
41	0	0	1767	1297	1124	23
42	0	0	2365	1299	1124	19
43	0	0	2936	1295	1124	22
44	0	0	3408	1295	1121	20
45	0	0	3705	1294	1118	21
46	0	0	3872	1292	1113	17
47	0	0	3968	1291	1110	19
48	0	0	4016	1288	1110	19
49	0	0	3756	1283	1110	20
50	0	0	3152	1284	1114	25
51	0	0	2325	1284	1116	21
52	0	0	1540	1285	1120	20
53	0	0	952	1286	1123	22
54	0	0	558	1288	1124	22
55	0	0	336	1290	1124	23
56	0	0	215	1292	1123	25
57	0	0	150	1295	1121	23
58	0	0	138	1299	1122	22
59	0	0	658	1299	1120	20
60	0	0	1174	1298	1123	21
61	0	0	1752	1299	1123	23
62	0	0	2361	1300	1123	22
63	0	0	2931	1294	1121	20
64	0	0	3411	1296	1121	20
65	0	0	3705	1294	1117	19
66	0	0	3873	1292	1112	19
67	0	0	3970	1291	1108	21
68	0	0	4018	1291	1109	22
69	0	0	3792	1283	1110	22
70	0	0	3196	1284	1113	25
71	0	0	2360	1286	1117	20
72	0	0	1568	1285	1119	24
73	0	0	967	1289	1123	23
74	0	0	567	1288	1125	23
75	0	0	340	1290	1124	22
76	0	0	219	1292	1123	24
77	0	0	153	1295	1121	22
78	0	0	118	1305	1121	22
79	0	0	618	1298	1124	16
80	0	0	1142	1299	1123	21
81	0	0	1726	1300	1123	24
82	0	0	2329	1301	1122	22
83	0	0	2917	1299	1123	20
84	0	0	3404	1297	1122	19
85	0	0	3701	1295	1117	18
86	0	0	3871	1293	1113	17
87	0	0	3968	1294	1111	22
88	0	0	4019	1290	1111	23
89	0	0	3846	1284	1111	24
90	0	0	3252	1283	1114	24
91	0	0	2404	1285	1116	22
92	0	0	1588	1287	1120	20
93	0	0	972	1289	1123	24
94	0	0	569	1288	1124	22
95	0	0	341	1290	1125	24
96	0	0	215	1294	1123	22
97	0	0	153	1294	1122	23
98	0	0	119	1297	1123	22
99	0	0	536	1299	1124	22
100	0	0	1059	1301	1123	21
101	0	0	1649	1299	1124	22
102	0	0	2253	1294	1124	20
103	0	0	2860	1298	1122	20
104	0	0	3357	1298	1121	21
105	0	0	3677	1295	1119	23
106	0	0	3858	1294	1113	22
107	0	0	3961	1292	1111	21
108	0	0	4013	1295	1111	20
109	0	0	3911	1286	1111	20
110	0	0	3307	1283	1114	23
111	0	0	2453	1287	1117	22
112	0	0	1614	1285	1120	22
113	0	0	976	1287	1124	23
114	0	0	576	1288	1125	22
115	0	0	344	1290	1126	23
116	0	0	219	1294	1124	23
117	0	0	154	1294	1124	23
118	0	0	120	1297	1124	22
119	0	0	512	1295	1123	21
120	0	0	1041	1299	1124	22
121	0	0	1629	1302	1124	24
122	0	0	2249	1299	1124	24
123	0	0	2867	1301	1124	23
124	0	0	3368	1297	1123	19
125	0	0	3680	1295	1120	13
126	0	0	3861	1294	1115	20
127	0	0	3963	1292	1111	19
0	0	0	4015	1295	1111	22
1	0	0	3906	1285	1112	23
2	0	0	3308	1285	1115	25
3	0	0	2467	1285	1118	23
4	0	0	1641	1285	1121	22
5	0	0	1003	1291	1124	22
6	0	0	591	1289	1126	23
7	0	0	356	1290	1125	24
8	0	0	224	1290	1125	26
9	0	0	157	1294	1124	23
10	0	0	121	1296	1125	24
11	0	0	506	1300	1124	22
12	0	0	1027	1298	1124	22
13	0	0	1612	1300	1125	21
14	0	0	2230	1299	1124	23
15	0	0	2853	1300	1124	20
16	0	0	3367	1297	1123	18
17	0	0	3679	1296	1120	22
18	0	0	3860	1294	1115	20
19	0	0	3961	1293	1111	23
20	0	0	4014	1292	1112	19
21	0	0	3942	1285	1112	20
22	0	0	3354	1286	1115	22
23	0	0	2503	1285	1118	23
24	0	0	1676	1286	1121	23
25	0	0	1034	1288	1124	23
26	0	0	606	1288	1126	23
27	0	0	365	1290	1126	23
28	0	0	228	1295	1124	24
29	0	0	159	1294	1123	26
30	0	0	123	1296	1124	23
31	0	0	500	1298	1124	22
32	0	0	1023	1299	1124	21
33	0	0	1616	1303	1124	20
34	0	0	2229	1297	1125	23
35	0	0	2845	1298	1124	23
36	0	0	3359	1297	1123	22
37	0	0	3671	1296	1120	18
38	0	0	3857	1294	1117	20
39	0	0	3960	1293	1112	19
40	0	0	4015	1292	1112	18
41	0	0	3920	1285	1112	24
42	0	0	3342	1284	1115	25
43	0	0	2496	1287	1119	24
44	0	0	1689	1287	1123	21
45	0	0	1053	1288	1125	24
46	0	0	617	1289	1126	23
47	0	0	369	1291	1127	26
48	0	0	234	1293	1125	24
49	0	0	161	1295	1127	23
50	0	0	124	1296	1124	23
51	0	0	520	1300	1124	22
52	0	0	1037	1295	1124	21
53	0	0	1619	1301	1125	24
54	0	0	2211	1299	1123	20
55	0	0	2816	1299	1124	19
56	0	0	3327	1297	1123	23
57	0	0	3655	1296	1121	23
58	0	0	3846	1294	1115	19
59	0	0	3954	1294	1115	19
60	0	0	4011	1292	1112	20
61	0	0	3888	1285	1112	23
62	0	0	3305	1286	1114	23
63	0	0	2480	1287	1119	23
64	0	0	1683	1287	1121	22
65	0	0	1058	1288	1125	23
66	0	0	623	1289	1126	23
67	0	0	369	1292	1127	23
68	0	0	236	1293	1125	23
69	0	0	162	1294	1124	21
70	0	0	125	1296	1124	23
71	0	0	551	1300	1124	23
72	0	0	1062	1299	1124	22
73	0	0	1623	1300	1125	24
74	0	0	2192	1299	1123	20
75	0	0	2787	1299	1125	19
76	0	0	3297	1297	1123	20
77	0	0	3640	1298	1120	17
78	0	0	3836	1294	1115	22
79	0	0	3949	1294	1113	21
80	0	0	4009	1292	1112	23
81	0	0	3874	1285	1113	20
82	0	0	3302	1285	1115	21
83	0	0	2482	1285	1119	22
84	0	0	1695	1287	1122	22
85	0	0	1074	1288	1124	22
86	0	0	632	1289	1126	23
87	0	0	378	1290	1126	23
88	0	0	239	1291	1125	23
89	0	0	164	1295	1123	23
90	0	0	126	1296	1124	22
91	0	0	576	1300	1125	22
92	0	0	1071	1300	1125	24
93	0	0	1629	1298	1125	21
94	0	0	2215	1299	1127	20
95	0	0	2793	1299	1125	24
96	0	0	3302	1298	1124	23
97	0	0	3640	1298	1123	23
98	0	0	3837	1291	1116	17
99	0	0	3950	1293	1113	20
100	0	0	4009	1293	1113	20
101	0	0	3843	1286	1113	21
102	0	0	3283	1286	1116	23
103	0	0	2472	1286	1119	21
104	0	0	1690	1286	1122	22
105	0	0	1082	1287	1125	23
106	0	0	639	1289	1126	23
107	0	0	382	1290	1127	23
108	0	0	241	1293	1126	23
109	0	0	166	1295	1124	23
110	0	0	128	1295	1124	23
111	0	0	564	1299	1125	22
112	0	0	1065	1300	1125	22
113	0	0	1627	1300	1126	23
114	0	0	2209	1300	1126	24
115	0	0	2788	1299	1125	20
116	0	0	3295	1298	1124	20
117	0	0	3637	1295	1122	19
118	0	0	3838	1295	1117	22
119	0	0	3949	1294	1112	23
120	0	0	4010	1293	1113	23
121	0	0	3858	1286	1114	24
122	0	0	3305	1285	1116	22
123	0	0	2499	1283	1119	21
124	0	0	1694	1286	1121	22
125	0	0	1076	1287	1125	23
126	0	0	635	1290	1128	23
127	0	0	379	1291	1128	23
0	0	0	239	1293	1127	24
1	0	0	166	1295	1126	24
2	0	0	127	1295	1125	22
3	0	0	550	1301	1126	23
4	0	0	1045	1299	1126	22
5	0	0	1605	1300	1126	20
6	0	0	2186	1300	1124	19
7	0	0	2779	1299	1126	20
8	0	0	3286	1295	1125	23
9	0	0	3636	1295	1123	22
10	0	0	3834	1295	1117	23
11	0	0	3948	1294	1114	19
12	0	0	4008	1291	1114	19
