# bioPlux Text File Format
# Version: 1
# StartDateTime: 2011-07-19 12:37:07
# SamplingFrequency: 1000
# SampledChannels: 1 2 3 4 5
# SamplingResolution: 12
# AcquiringDevice: 00:07:80:42:0F:95
# EndOfHeader
0	0	0	2199	5	184	375	3414
1	0	0	2244	5	182	375	3412
2	0	0	2274	4	181	375	3411
3	0	0	2272	4	181	375	3411
4	0	0	2211	4	181	375	3411
5	0	0	2172	4	181	375	3412
6	0	0	2145	4	181	375	3413
7	0	0	2108	4	181	375	3415
8	0	0	2060	4	183	375	3414
9	0	0	2001	4	184	375	3415
10	0	0	1984	5	184	376	3414
11	0	0	1996	5	185	375	3412
12	0	0	1979	4	186	376	3411
13	0	0	1964	4	186	376	3410
14	0	0	1959	5	186	375	3411
15	0	0	1973	4	187	375	3412
16	0	0	2051	5	185	375	3413
17	0	0	2152	5	185	376	3414
18	0	0	2249	5	183	376	3415
19	0	0	2331	5	183	376	3414
20	0	0	2375	5	183	376	3414
21	0	0	2362	4	182	375	3413
22	0	0	2312	4	181	376	3412
23	0	0	2269	4	181	375	3410
24	0	0	2213	4	181	375	3411
25	0	0	2135	4	181	376	3412
26	0	0	2066	4	182	375	3413
27	0	0	2004	4	182	376	3414
28	0	0	1984	5	183	375	3415
29	0	0	1990	5	184	375	3415
30	0	0	1974	4	184	375	3415
31	0	0	1909	4	185	376	3414
32	0	0	1816	4	186	375	3411
33	0	0	1788	5	186	376	3411
34	0	0	1831	5	187	376	3411
35	0	0	1885	5	186	376	3412
36	0	0	1961	5	186	375	3413
37	0	0	2056	4	185	376	3415
38	0	0	2114	4	184	375	3415
39	0	0	2151	5	183	376	3416
40	0	0	2176	5	184	375	3414
41	0	0	2168	5	182	376	3412
42	0	0	2159	3	181	375	3411
43	0	0	2153	4	181	376	3410
44	0	0	2132	4	182	376	3411
45	0	0	2112	4	181	375	3412
46	0	0	2095	4	182	376	3414
47	0	0	2080	4	182	375	3415
48	0	0	2073	5	182	375	3415
49	0	0	2056	4	184	375	3414
50	0	0	2027	4	185	376	3414
51	0	0	1995	4	185	376	3412
52	0	0	1927	3	186	376	3410
53	0	0	1868	4	187	375	3410
54	0	0	1863	5	186	376	3412
55	0	0	1876	5	188	376	3412
56	0	0	1903	5	185	376	3413
57	0	0	1960	5	185	376	3415
58	0	0	2019	5	184	376	3415
59	0	0	2074	5	183	376	3416
60	0	0	2119	5	183	375	3414
61	0	0	2148	5	182	375	3412
62	0	0	2166	5	180	375	3411
63	0	0	2148	4	181	375	3411
64	0	0	2095	4	182	376	3411
65	0	0	2050	4	182	375	3412
66	0	0	2036	4	182	376	3413
67	0	0	2040	5	182	376	3414
68	0	0	2051	5	183	376	3415
69	0	0	2056	5	184	375	3415
70	0	0	2066	5	184	375	3414
71	0	0	2054	4	186	376	3412
72	0	0	1995	4	187	376	3410
73	0	0	1937	4	186	376	3410
74	0	0	1922	5	186	375	3411
75	0	0	1951	5	187	375	3412
76	0	0	2037	5	186	376	3413
77	0	0	2153	5	185	375	3415
78	0	0	2239	5	185	376	3415
79	0	0	2295	5	183	376	3416
80	0	0	2316	5	183	376	3414
81	0	0	2324	5	182	375	3412
82	0	0	2359	5	181	375	3411
83	0	0	2369	4	182	376	3411
84	0	0	2310	4	181	376	3411
85	0	0	2254	6	181	375	3413
86	0	0	2220	4	181	375	3413
87	0	0	2182	3	181	376	3414
88	0	0	2104	4	183	376	3414
89	0	0	2012	5	184	375	3415
90	0	0	1945	4	185	376	3414
91	0	0	1955	5	185	375	3412
92	0	0	1985	4	186	376	3411
93	0	0	2029	5	185	376	3410
94	0	0	2084	5	186	375	3411
95	0	0	2107	5	186	375	3411
96	0	0	2128	5	186	376	3413
97	0	0	2148	5	185	376	3415
98	0	0	2131	4	184	376	3414
99	0	0	2106	4	183	376	3416
100	0	0	2122	5	184	375	3414
101	0	0	2181	5	182	376	3413
102	0	0	2222	5	181	376	3411
103	0	0	2202	4	181	376	3410
104	0	0	2134	4	180	375	3411
105	0	0	2089	4	181	375	3412
106	0	0	2063	4	182	376	3414
107	0	0	2016	4	182	375	3414
108	0	0	1951	4	183	376	3415
109	0	0	1888	5	184	376	3414
110	0	0	1857	5	184	375	3414
111	0	0	1832	4	185	376	3412
112	0	0	1781	3	186	376	3411
113	0	0	1768	5	187	375	3410
114	0	0	1801	6	186	376	3411
115	0	0	1848	5	186	376	3412
116	0	0	1881	5	186	376	3413
117	0	0	1927	5	185	376	3414
118	0	0	1987	5	185	375	3415
119	0	0	2044	5	182	376	3415
120	0	0	2078	5	182	376	3414
121	0	0	2088	5	181	375	3413
122	0	0	2111	4	181	375	3411
123	0	0	2136	5	181	375	3410
124	0	0	2143	5	182	375	3411
125	0	0	2149	5	182	376	3412
126	0	0	2144	4	181	376	3413
127	0	0	2123	4	182	376	3414
0	0	0	2079	4	183	375	3415
1	0	0	2016	4	184	376	3415
2	0	0	1953	4	185	375	3415
3	0	0	1902	4	185	376	3413
4	0	0	1840	4	187	376	3411
5	0	0	1818	5	187	375	3411
6	0	0	1819	5	186	376	3411
7	0	0	1838	5	186	375	3412
8	0	0	1904	5	187	376	3413
9	0	0	1997	5	185	376	3415
10	0	0	2087	5	184	376	3415
11	0	0	2165	4	184	376	3415
12	0	0	2212	5	183	375	3414
13	0	0	2226	5	181	375	3413
14	0	0	2219	4	180	375	3411
15	0	0	2181	4	181	376	3410
16	0	0	2145	4	181	376	3411
17	0	0	2132	5	181	375	3413
18	0	0	2137	5	183	376	3413
19	0	0	2125	4	183	375	3414
20	0	0	2085	4	183	376	3416
21	0	0	2027	4	184	376	3414
22	0	0	1991	4	184	375	3414
23	0	0	1969	4	186	376	3412
24	0	0	1906	4	186	376	3411
25	0	0	1856	4	186	375	3410
26	0	0	1871	5	186	375	3411
27	0	0	1875	4	186	376	3411
28	0	0	1870	5	187	376	3413
29	0	0	1907	5	185	376	3415
30	0	0	1983	5	184	375	3415
31	0	0	2064	4	184	376	3415
32	0	0	2132	5	183	375	3414
33	0	0	2185	5	181	376	3413
34	0	0	2227	5	181	376	3411
35	0	0	2254	5	181	376	3411
36	0	0	2233	4	181	376	3412
37	0	0	2166	4	182	375	3412
38	0	0	2104	4	182	376	3413
39	0	0	2071	5	181	375	3415
40	0	0	2037	4	182	375	3415
41	0	0	1989	4	184	375	3415
42	0	0	1927	4	185	375	3414
43	0	0	1856	4	185	376	3412
44	0	0	1774	4	186	376	3411
45	0	0	1728	4	186	375	3411
46	0	0	1751	5	187	375	3411
47	0	0	1799	5	186	376	3412
48	0	0	1857	5	187	376	3413
49	0	0	1927	5	185	376	3414
50	0	0	1992	5	184	376	3415
51	0	0	2043	5	184	375	3415
52	0	0	2090	5	183	376	3414
53	0	0	2122	5	183	375	3412
54	0	0	2144	5	181	375	3411
55	0	0	2155	5	181	375	3410
56	0	0	2139	5	181	375	3411
57	0	0	2123	4	181	376	3412
58	0	0	2097	4	181	375	3413
59	0	0	2062	4	182	375	3415
60	0	0	2026	4	183	375	3414
61	0	0	1978	3	184	375	3414
62	0	0	1937	4	185	375	3414
63	0	0	1895	4	185	375	3413
64	0	0	1826	4	186	375	3411
65	0	0	1798	5	186	376	3410
66	0	0	1830	5	187	375	3410
67	0	0	1884	5	186	376	3411
68	0	0	1962	5	186	375	3413
69	0	0	2037	4	185	376	3415
70	0	0	2067	5	185	376	3415
71	0	0	2065	5	184	375	3414
72	0	0	2076	5	183	375	3414
73	0	0	2091	5	182	375	3413
74	0	0	2115	5	181	376	3411
75	0	0	2136	5	181	375	3410
76	0	0	2130	4	181	376	3411
77	0	0	2094	4	181	375	3412
78	0	0	2062	4	182	375	3414
79	0	0	2041	5	182	375	3414
80	0	0	2025	4	183	375	3415
81	0	0	2012	5	183	375	3414
82	0	0	2011	5	184	376	3414
83	0	0	1988	5	186	375	3412
84	0	0	1942	4	186	376	3411
85	0	0	1921	5	187	376	3410
86	0	0	1931	5	187	376	3411
87	0	0	1942	5	187	377	3412
88	0	0	1958	5	186	375	3413
89	0	0	2027	5	185	375	3414
90	0	0	2126	5	184	376	3416
91	0	0	2148	5	184	376	3414
92	0	0	2138	6	183	375	3414
93	0	0	2131	4	182	375	3412
94	0	0	2130	5	182	375	3411
95	0	0	2131	5	183	375	3410
96	0	0	2095	4	182	376	3411
97	0	0	2067	4	182	375	3412
98	0	0	2044	4	182	375	3413
99	0	0	2022	4	182	375	3414
100	0	0	2008	5	183	376	3415
101	0	0	1976	4	184	375	3414
102	0	0	1952	5	185	375	3414
103	0	0	1943	4	185	376	3413
104	0	0	1894	4	186	376	3411
105	0	0	1852	4	186	376	3411
106	0	0	1880	5	187	375	3411
107	0	0	1913	5	186	375	3412
108	0	0	1933	5	185	376	3414
109	0	0	1983	5	185	376	3414
110	0	0	2078	5	185	376	3415
111	0	0	2176	6	183	375	3414
112	0	0	2224	6	183	375	3414
113	0	0	2221	5	182	375	3412
114	0	0	2214	4	181	375	3411
115	0	0	2233	6	181	375	3410
116	0	0	2207	4	182	375	3411
117	0	0	2145	3	181	375	3411
118	0	0	2058	4	181	375	3413
119	0	0	1999	4	182	376	3414
120	0	0	1958	4	183	376	3415
121	0	0	1920	4	184	376	3415
122	0	0	1899	4	184	375	3414
123	0	0	1896	5	185	375	3413
124	0	0	1889	5	186	375	3411
125	0	0	1903	5	186	375	3410
126	0	0	1942	4	187	376	3410
127	0	0	1979	6	186	375	3412
0	0	0	2035	5	186	375	3413
1	0	0	2117	5	185	376	3414
2	0	0	2162	5	184	376	3415
3	0	0	2158	5	183	375	3414
4	0	0	2148	5	183	375	3414
5	0	0	2126	4	182	375	3413
6	0	0	2134	5	182	376	3411
7	0	0	2184	5	181	376	3410
8	0	0	2205	5	181	375	3411
9	0	0	2179	4	181	375	3412
10	0	0	2130	4	182	376	3414
11	0	0	2084	4	183	375	3414
12	0	0	2051	4	183	376	3415
13	0	0	2009	4	184	375	3414
14	0	0	2000	5	184	375	3414
15	0	0	1980	4	185	376	3413
16	0	0	1928	4	186	375	3411
17	0	0	1908	5	186	376	3410
18	0	0	1928	5	187	375	3411
19	0	0	1972	4	187	376	3411
20	0	0	2033	5	186	375	3413
21	0	0	2081	5	185	376	3415
22	0	0	2116	5	184	375	3414
23	0	0	2152	5	183	375	3415
24	0	0	2186	6	183	375	3414
25	0	0	2194	5	181	376	3413
26	0	0	2196	4	182	375	3411
27	0	0	2195	5	182	375	3411
28	0	0	2159	4	182	375	3411
29	0	0	2108	4	181	375	3412
30	0	0	2056	4	181	375	3413
31	0	0	2016	4	182	376	3414
32	0	0	1996	4	182	375	3414
33	0	0	1978	4	184	376	3415
34	0	0	1969	5	184	376	3414
35	0	0	1954	4	186	375	3412
36	0	0	1903	4	186	376	3411
37	0	0	1850	4	186	376	3410
38	0	0	1863	5	187	376	3410
39	0	0	1930	5	186	376	3412
40	0	0	1994	5	186	376	3414
41	0	0	2043	5	185	376	3414
42	0	0	2120	5	185	376	3415
43	0	0	2193	5	182	375	3415
44	0	0	2227	5	183	375	3414
45	0	0	2230	5	182	375	3413
46	0	0	2233	5	181	376	3411
47	0	0	2210	4	181	376	3410
48	0	0	2158	4	180	375	3412
49	0	0	2078	4	181	376	3411
50	0	0	2000	4	181	375	3413
51	0	0	1984	5	182	375	3415
52	0	0	2009	5	182	375	3415
53	0	0	2020	5	185	375	3414
54	0	0	1980	4	184	375	3414
55	0	0	1924	4	186	376	3412
56	0	0	1863	4	186	375	3411
57	0	0	1849	5	187	376	3410
58	0	0	1862	5	187	375	3411
59	0	0	1902	5	185	376	3412
60	0	0	1965	5	185	375	3414
61	0	0	2018	5	185	376	3414
62	0	0	2053	5	184	376	3416
63	0	0	2085	5	183	376	3414
64	0	0	2114	5	182	375	3414
65	0	0	2134	5	183	376	3412
66	0	0	2141	5	182	375	3411
67	0	0	2141	5	181	376	3410
68	0	0	2106	4	181	375	3410
69	0	0	2075	3	182	375	3411
70	0	0	2050	5	182	375	3413
71	0	0	2003	4	184	376	3414
72	0	0	1972	4	182	375	3415
73	0	0	1973	5	183	375	3414
74	0	0	1987	4	184	376	3414
75	0	0	2012	5	186	375	3413
76	0	0	1991	4	186	376	3411
77	0	0	1976	4	187	376	3411
78	0	0	1942	4	186	376	3410
79	0	0	1901	4	186	375	3412
80	0	0	1887	5	186	376	3414
81	0	0	1924	5	185	376	3414
82	0	0	1989	5	183	375	3415
83	0	0	2001	5	185	376	3414
84	0	0	1988	5	182	376	3414
85	0	0	1993	5	182	375	3413
86	0	0	2022	5	182	375	3411
87	0	0	2068	5	181	376	3410
88	0	0	2090	5	181	375	3411
89	0	0	2097	4	182	375	3411
90	0	0	2080	4	183	375	3412
91	0	0	2077	5	182	375	3414
92	0	0	2043	4	183	376	3416
93	0	0	1973	5	183	376	3414
94	0	0	1904	4	184	375	3414
95	0	0	1815	4	185	374	3412
96	0	0	1715	4	187	375	3411
97	0	0	1684	4	187	375	3410
98	0	0	1717	5	187	375	3410
99	0	0	1770	4	188	376	3411
100	0	0	1855	5	185	375	3413
101	0	0	1952	5	185	376	3415
102	0	0	2035	5	184	376	3414
103	0	0	2120	5	184	375	3416
104	0	0	2196	5	183	377	3414
105	0	0	2205	5	183	375	3413
106	0	0	2195	5	181	376	3411
107	0	0	2199	5	181	376	3411
108	0	0	2186	4	181	375	3411
109	0	0	2162	4	180	375	3412
110	0	0	2123	4	182	375	3413
111	0	0	2056	4	183	375	3414
112	0	0	1968	4	182	375	3415
113	0	0	1887	4	184	375	3414
114	0	0	1847	5	185	376	3414
115	0	0	1861	5	185	376	3413
116	0	0	1851	5	185	375	3411
117	0	0	1856	6	187	375	3410
118	0	0	1880	5	187	376	3410
119	0	0	1912	4	187	376	3411
120	0	0	1959	5	185	375	3413
121	0	0	2019	5	186	376	3414
122	0	0	2060	5	185	375	3415
123	0	0	2090	4	184	375	3414
124	0	0	2096	5	182	375	3414
125	0	0	2099	5	184	376	3412
126	0	0	2111	5	180	375	3411
127	0	0	2120	5	181	375	3410
0	0	0	2108	5	181	376	3412
1	0	0	2120	5	181	374	3412
2	0	0	2143	5	182	374	3413
3	0	0	2122	4	183	376	3415
4	0	0	2066	4	183	376	3414
5	0	0	1990	4	182	376	3415
6	0	0	1923	4	184	376	3414
7	0	0	1892	4	185	376	3412
8	0	0	1849	4	186	376	3411
9	0	0	1801	4	187	375	3410
10	0	0	1810	5	185	375	3410
11	0	0	1864	5	185	376	3412
12	0	0	1945	5	186	374	3413
13	0	0	2041	5	185	375	3414
14	0	0	2118	5	185	376	3414
15	0	0	2136	5	184	375	3414
16	0	0	2111	4	182	376	3414
17	0	0	2110	4	182	376	3413
18	0	0	2141	5	183	376	3411
19	0	0	2144	4	181	375	3410
20	0	0	2107	4	180	376	3411
21	0	0	2083	4	182	375	3412
22	0	0	2052	4	181	376	3413
23	0	0	2005	4	182	375	3414
24	0	0	1972	4	183	375	3414
25	0	0	1938	4	184	376	3414
26	0	0	1928	5	185	376	3414
27	0	0	1947	5	186	376	3413
28	0	0	1929	4	187	376	3411
29	0	0	1874	4	186	375	3411
30	0	0	1859	5	189	376	3411
31	0	0	1865	5	186	376	3412
32	0	0	1908	5	186	376	3414
33	0	0	2003	5	185	375	3414
34	0	0	2131	5	184	376	3414
35	0	0	2243	5	182	375	3415
36	0	0	2295	5	184	375	3414
37	0	0	2292	5	182	376	3413
38	0	0	2261	4	182	376	3411
39	0	0	2214	4	182	375	3410
40	0	0	2162	4	181	375	3411
41	0	0	2141	5	181	376	3411
42	0	0	2130	4	183	376	3413
43	0	0	2088	4	182	376	3414
44	0	0	2029	4	183	375	3415
45	0	0	1955	4	183	375	3414
46	0	0	1887	4	185	376	3414
47	0	0	1836	4	185	376	3414
48	0	0	1783	4	187	375	3411
49	0	0	1766	5	186	376	3411
50	0	0	1803	5	187	375	3411
51	0	0	1853	5	187	376	3412
52	0	0	1914	5	185	376	3414
53	0	0	1949	5	185	376	3414
54	0	0	1965	5	184	375	3414
55	0	0	2028	5	183	376	3414
56	0	0	2115	5	184	375	3414
57	0	0	2201	5	183	376	3412
58	0	0	2261	5	181	375	3411
59	0	0	2270	4	181	375	3410
60	0	0	2226	4	181	375	3411
61	0	0	2174	4	181	377	3412
62	0	0	2124	4	182	376	3413
63	0	0	2078	4	182	375	3414
64	0	0	2010	4	183	375	3414
65	0	0	1926	3	182	376	3415
66	0	0	1870	4	184	375	3414
67	0	0	1841	4	185	376	3412
68	0	0	1811	4	185	375	3411
69	0	0	1785	4	186	375	3410
70	0	0	1788	5	186	375	3411
71	0	0	1827	5	187	376	3412
72	0	0	1894	5	186	375	3413
73	0	0	1996	5	185	376	3415
74	0	0	2077	5	185	375	3414
75	0	0	2099	5	184	375	3414
76	0	0	2084	5	183	375	3414
77	0	0	2099	5	183	376	3413
78	0	0	2164	4	182	375	3411
79	0	0	2210	5	181	376	3410
80	0	0	2197	4	181	375	3411
81	0	0	2165	4	182	375	3412
82	0	0	2130	4	182	376	3413
83	0	0	2081	4	183	375	3414
84	0	0	2020	4	183	376	3414
85	0	0	1983	4	184	376	3414
86	0	0	1971	5	184	376	3414
87	0	0	1964	4	185	376	3414
88	0	0	1920	4	186	376	3410
89	0	0	1880	5	186	375	3409
90	0	0	1909	5	186	376	3411
91	0	0	1969	5	186	376	3412
92	0	0	2040	5	186	376	3413
93	0	0	2098	5	185	376	3415
94	0	0	2129	5	185	375	3414
95	0	0	2145	5	183	375	3415
96	0	0	2143	5	182	376	3414
97	0	0	2106	4	182	375	3413
98	0	0	2106	5	181	376	3411
99	0	0	2149	5	181	375	3410
100	0	0	2182	5	180	375	3411
101	0	0	2169	5	181	375	3412
102	0	0	2141	4	182	375	3414
103	0	0	2093	4	182	375	3414
104	0	0	2039	4	183	375	3414
105	0	0	2022	4	184	376	3414
106	0	0	2035	5	185	376	3414
107	0	0	2031	4	185	376	3412
108	0	0	1975	4	186	375	3411
109	0	0	1923	4	187	375	3410
110	0	0	1913	4	186	375	3411
111	0	0	1891	4	186	376	3411
112	0	0	1896	5	187	375	3413
113	0	0	1933	5	184	375	3414
114	0	0	1979	5	184	375	3415
115	0	0	2058	4	185	376	3415
116	0	0	2147	4	183	376	3414
117	0	0	2187	5	182	375	3413
118	0	0	2209	5	181	375	3411
119	0	0	2228	4	181	375	3410
120	0	0	2222	4	181	376	3411
121	0	0	2212	5	182	376	3412
122	0	0	2175	4	181	375	3413
123	0	0	2107	4	182	376	3415
124	0	0	2015	4	184	376	3414
125	0	0	1950	4	184	375	3414
126	0	0	1927	4	184	376	3414
127	0	0	1909	4	185	376	3414
0	0	0	1876	4	185	375	3411
1	0	0	1892	5	186	376	3410
2	0	0	1942	4	187	376	3411
3	0	0	1960	5	187	376	3412
4	0	0	1990	5	185	375	3413
5	0	0	2034	5	185	376	3414
6	0	0	2080	5	184	375	3414
7	0	0	2136	5	184	375	3414
8	0	0	2174	5	183	376	3414
9	0	0	2196	5	183	375	3413
10	0	0	2217	5	180	375	3411
11	0	0	2238	4	181	375	3410
12	0	0	2240	6	181	375	3411
13	0	0	2185	4	181	375	3412
14	0	0	2126	4	182	375	3413
15	0	0	2095	4	182	376	3414
16	0	0	2099	4	182	375	3414
17	0	0	2103	6	184	375	3414
18	0	0	2073	4	184	376	3414
19	0	0	2024	4	185	376	3413
20	0	0	1955	4	186	376	3411
21	0	0	1896	4	187	376	3410
22	0	0	1889	4	187	376	3412
23	0	0	1887	5	186	376	3411
24	0	0	1884	5	185	376	3413
25	0	0	1929	5	185	375	3415
26	0	0	2011	5	184	376	3416
27	0	0	2084	5	183	376	3415
28	0	0	2136	5	183	376	3414
29	0	0	2175	5	181	375	3414
30	0	0	2200	5	182	375	3411
31	0	0	2205	5	182	375	3411
32	0	0	2165	3	181	375	3411
33	0	0	2122	4	181	375	3412
34	0	0	2080	4	182	376	3413
35	0	0	2029	4	181	375	3414
36	0	0	1983	3	182	375	3415
37	0	0	1964	4	183	375	3415
38	0	0	1972	5	185	376	3414
39	0	0	1976	5	185	377	3413
40	0	0	1955	4	186	375	3411
41	0	0	1948	5	186	375	3410
42	0	0	1962	6	187	376	3411
43	0	0	1976	5	187	376	3411
44	0	0	1990	5	186	376	3413
45	0	0	2020	5	185	376	3415
46	0	0	2038	5	183	375	3414
47	0	0	2075	4	183	375	3416
48	0	0	2114	5	183	376	3415
49	0	0	2126	5	181	376	3413
50	0	0	2130	5	181	375	3411
51	0	0	2138	5	181	375	3410
52	0	0	2115	6	181	376	3411
53	0	0	2073	4	181	375	3412
54	0	0	2039	4	182	376	3414
55	0	0	2021	4	181	375	3414
56	0	0	1994	4	183	375	3414
57	0	0	1951	4	183	375	3414
58	0	0	1936	5	185	376	3415
59	0	0	1926	5	186	376	3413
60	0	0	1902	5	186	375	3411
61	0	0	1924	5	187	375	3410
62	0	0	1971	5	187	376	3411
63	0	0	2002	5	187	376	3412
64	0	0	2025	5	186	376	3413
65	0	0	2059	5	184	375	3414
66	0	0	2084	5	185	375	3415
67	0	0	2105	7	184	375	3414
68	0	0	2139	5	182	375	3414
69	0	0	2157	5	183	375	3413
70	0	0	2176	5	181	375	3411
71	0	0	2214	5	181	375	3411
72	0	0	2219	5	182	375	3411
73	0	0	2199	4	182	376	3412
74	0	0	2169	4	181	376	3414
75	0	0	2140	4	183	375	3414
76	0	0	2096	4	182	376	3414
77	0	0	2046	4	184	375	3414
78	0	0	2009	4	184	376	3414
79	0	0	2016	5	184	375	3413
80	0	0	1995	4	187	375	3411
81	0	0	1947	4	186	375	3410
82	0	0	1929	4	186	376	3410
83	0	0	1915	4	186	375	3411
84	0	0	1952	5	186	375	3413
85	0	0	2060	5	185	375	3415
86	0	0	2174	5	184	376	3416
87	0	0	2264	7	183	375	3415
88	0	0	2307	5	183	375	3414
89	0	0	2320	5	182	375	3413
90	0	0	2328	5	182	375	3411
91	0	0	2331	5	182	375	3410
92	0	0	2304	4	181	375	3412
93	0	0	2280	5	182	377	3412
94	0	0	2253	4	182	377	3413
95	0	0	2206	4	181	376	3415
96	0	0	2158	4	182	375	3414
97	0	0	2143	5	183	376	3415
98	0	0	2167	4	185	375	3414
99	0	0	2173	4	185	375	3413
100	0	0	2090	4	185	375	3411
101	0	0	1966	4	186	375	3410
102	0	0	1875	4	187	375	3411
103	0	0	1856	5	187	375	3412
104	0	0	1891	5	185	375	3413
105	0	0	1943	5	184	375	3414
106	0	0	1990	5	184	376	3416
107	0	0	2018	6	184	375	3415
108	0	0	2023	4	183	375	3414
109	0	0	2021	5	182	375	3413
110	0	0	1998	4	182	375	3412
111	0	0	1949	4	182	376	3410
112	0	0	1904	4	181	375	3411
113	0	0	1902	5	181	375	3412
114	0	0	1915	5	182	376	3413
115	0	0	1933	5	182	375	3415
116	0	0	1950	5	183	375	3416
117	0	0	1941	4	183	375	3415
118	0	0	1935	5	185	375	3414
119	0	0	1931	5	186	375	3413
120	0	0	1897	4	185	375	3411
121	0	0	1892	5	187	375	3410
122	0	0	1932	5	187	376	3412
123	0	0	1977	5	187	376	3411
124	0	0	1986	5	185	376	3413
125	0	0	2010	5	184	376	3414
126	0	0	2070	5	185	375	3415
127	0	0	2128	5	182	375	3416
0	0	0	2183	5	183	375	3415
1	0	0	2239	5	181	376	3414
2	0	0	2266	5	181	375	3411
3	0	0	2246	4	181	375	3410
4	0	0	2199	4	182	375	3411
5	0	0	2141	4	181	375	3412
6	0	0	2094	5	181	375	3413
7	0	0	2070	4	181	375	3414
8	0	0	2024	4	182	375	3414
9	0	0	1973	4	184	375	3416
10	0	0	1931	4	185	376	3414
11	0	0	1899	4	185	376	3413
12	0	0	1853	4	186	376	3412
13	0	0	1801	4	186	375	3410
14	0	0	1805	5	185	376	3411
15	0	0	1855	4	187	375	3412
16	0	0	1916	5	186	375	3413
17	0	0	1968	5	184	375	3414
18	0	0	2014	5	184	375	3415
19	0	0	2048	5	184	375	3415
20	0	0	2086	5	183	375	3414
21	0	0	2147	5	183	375	3414
22	0	0	2194	5	181	375	3411
23	0	0	2212	5	181	375	3410
24	0	0	2153	4	182	375	3411
25	0	0	2088	4	182	375	3412
26	0	0	2062	4	181	375	3413
27	0	0	2047	4	182	375	3415
28	0	0	2010	4	184	376	3415
29	0	0	1974	4	184	376	3414
30	0	0	1952	4	186	375	3414
31	0	0	1929	4	185	376	3412
32	0	0	1893	4	185	375	3411
33	0	0	1889	5	185	375	3410
34	0	0	1931	5	187	375	3411
35	0	0	1981	5	185	376	3412
36	0	0	2001	5	185	375	3414
37	0	0	2038	5	185	376	3414
38	0	0	2097	5	184	376	3414
39	0	0	2136	5	183	376	3416
40	0	0	2163	5	183	376	3415
41	0	0	2166	5	182	375	3413
42	0	0	2142	5	180	376	3411
43	0	0	2124	4	182	376	3410
44	0	0	2083	4	182	375	3411
45	0	0	2049	4	182	376	3412
46	0	0	2049	5	181	375	3414
47	0	0	2052	4	183	375	3414
48	0	0	2025	4	183	375	3414
49	0	0	1992	4	185	375	3414
50	0	0	1968	4	185	375	3414
51	0	0	1961	5	185	375	3413
52	0	0	1966	5	187	375	3411
53	0	0	1989	5	186	375	3410
54	0	0	1993	4	186	376	3410
55	0	0	1944	4	187	375	3412
56	0	0	1913	5	185	376	3412
57	0	0	1948	5	184	375	3414
58	0	0	2021	5	184	375	3414
59	0	0	2102	5	184	375	3415
60	0	0	2163	4	183	375	3414
61	0	0	2193	5	183	375	3412
62	0	0	2204	5	181	375	3411
63	0	0	2224	5	181	376	3410
64	0	0	2234	5	181	376	3411
65	0	0	2214	3	182	375	3411
66	0	0	2167	4	183	376	3412
67	0	0	2088	4	182	375	3414
68	0	0	2012	4	184	375	3414
69	0	0	1975	5	184	375	3414
70	0	0	1964	4	184	376	3414
71	0	0	1938	4	186	376	3414
72	0	0	1875	4	186	375	3411
73	0	0	1839	4	186	375	3411
74	0	0	1865	5	187	375	3410
75	0	0	1908	3	186	376	3412
76	0	0	1957	5	186	376	3414
77	0	0	2024	5	184	375	3414
78	0	0	2120	5	184	375	3416
79	0	0	2187	6	184	375	3414
80	0	0	2223	4	184	375	3414
81	0	0	2267	5	182	375	3412
82	0	0	2281	5	182	375	3411
83	0	0	2257	4	182	375	3410
84	0	0	2222	4	181	375	3410
85	0	0	2188	4	181	376	3411
86	0	0	2136	4	183	375	3412
87	0	0	2067	4	182	375	3414
88	0	0	2000	4	182	375	3414
89	0	0	1937	4	184	375	3415
90	0	0	1903	4	184	376	3414
91	0	0	1886	4	185	376	3412
92	0	0	1853	4	186	375	3411
93	0	0	1831	5	186	375	3411
94	0	0	1835	6	187	376	3411
95	0	0	1862	3	187	376	3412
96	0	0	1912	5	186	376	3414
97	0	0	1988	5	186	376	3414
98	0	0	2057	5	184	375	3415
99	0	0	2118	5	184	376	3415
100	0	0	2173	4	182	375	3415
101	0	0	2203	5	182	375	3414
102	0	0	2209	5	182	376	3411
103	0	0	2197	4	182	375	3411
104	0	0	2160	5	181	375	3410
105	0	0	2136	5	182	375	3411
106	0	0	2112	4	182	375	3413
107	0	0	2098	4	182	375	3414
108	0	0	2108	5	184	375	3414
109	0	0	2125	5	183	375	3414
110	0	0	2104	3	185	375	3415
111	0	0	2063	4	185	375	3414
112	0	0	1996	4	186	375	3411
113	0	0	1943	4	187	376	3410
114	0	0	1954	5	186	375	3410
115	0	0	1988	5	186	376	3411
116	0	0	2014	5	186	375	3413
117	0	0	2058	5	186	375	3415
118	0	0	2096	5	185	375	3414
119	0	0	2119	5	183	375	3414
120	0	0	2144	6	182	375	3414
121	0	0	2174	5	181	375	3413
122	0	0	2196	6	182	376	3411
123	0	0	2204	5	182	375	3411
124	0	0	2182	6	181	376	3411
125	0	0	2178	5	182	375	3411
126	0	0	2199	5	181	376	3413
127	0	0	2186	4	183	376	3414
0	0	0	2139	4	183	375	3414
1	0	0	2086	4	182	375	3416
2	0	0	2032	5	184	375	3414
3	0	0	1987	4	186	375	3413
4	0	0	1952	4	186	376	3411
5	0	0	1941	5	187	375	3410
6	0	0	1955	5	187	375	3411
7	0	1	1995	5	186	375	3412
8	0	1	2055	5	186	376	3412
9	0	1	2118	5	185	376	3414
10	0	1	2172	5	185	376	3415
11	0	1	2211	6	184	375	3415
12	0	1	2212	6	183	375	3414
13	0	1	2207	5	183	375	3414
14	0	1	2216	5	183	376	3411
15	0	1	2237	5	182	375	3410
16	0	1	2260	5	181	375	3411
17	0	1	2260	5	181	376	3411
18	0	1	2246	5	183	376	3413
19	0	1	2220	5	182	375	3414
20	0	1	2161	4	183	375	3414
21	0	1	2111	4	184	375	3414
22	0	1	2067	4	184	375	3414
23	0	1	2002	4	184	376	3412
24	0	1	1904	4	185	375	3411
25	1	1	1850	5	185	375	3411
26	1	1	1881	5	184	375	3411
27	1	1	1906	5	187	377	3412
28	1	1	1947	5	186	376	3413
29	1	1	2019	5	186	375	3415
30	1	1	2090	5	184	375	3415
31	1	1	2155	5	185	375	3415
32	1	1	2211	5	182	376	3414
33	1	1	2226	5	182	376	3413
34	1	1	2199	5	181	375	3411
35	1	1	2170	5	182	375	3410
36	1	1	2155	5	183	375	3412
37	1	1	2150	5	182	376	3412
38	1	1	2136	4	182	376	3413
39	1	1	2083	4	182	375	3415
40	1	1	2009	4	182	375	3414
41	1	1	1985	4	184	375	3414
42	1	1	1971	5	186	375	3414
43	1	1	1952	4	185	377	3413
44	1	1	1934	4	185	376	3411
45	1	1	1941	5	186	375	3410
46	1	1	1976	5	186	375	3411
47	1	1	2000	5	186	375	3412
48	1	1	2027	5	185	376	3414
49	1	1	2053	5	185	376	3415
50	1	1	2071	5	184	376	3416
51	1	1	2100	6	184	375	3415
52	1	1	2140	6	183	375	3414
53	1	1	2204	5	183	376	3414
54	1	1	2276	5	183	375	3411
55	1	1	2304	5	183	375	3410
56	1	1	2277	4	181	375	3411
57	1	1	2236	4	181	376	3412
58	1	1	2186	4	181	375	3413
59	1	1	2136	4	182	375	3414
60	1	1	2083	4	184	375	3415
61	1	1	2054	4	184	375	3416
62	1	1	2035	4	185	376	3415
63	1	1	1995	4	184	375	3413
64	1	1	1949	4	187	375	3412
65	1	1	1911	4	186	375	3410
66	1	1	1914	5	186	376	3411
67	1	1	1924	5	187	375	3412
68	1	1	1947	5	185	376	3413
69	1	1	1986	5	185	376	3415
70	1	1	2029	5	184	375	3415
71	1	1	2080	5	184	375	3415
72	1	1	2144	5	183	376	3414
73	1	1	2185	5	182	376	3413
74	1	1	2214	5	182	376	3411
75	1	1	2254	5	181	376	3411
76	1	1	2266	5	182	376	3411
77	1	1	2278	5	181	376	3412
78	1	1	2241	4	182	375	3414
79	1	1	2163	4	182	376	3415
80	1	1	2099	4	182	376	3416
81	1	1	2038	4	183	376	3415
82	1	1	1969	4	184	375	3414
83	1	1	1911	4	185	375	3414
84	1	1	1832	4	186	375	3411
85	1	1	1764	4	187	375	3410
86	1	1	1764	5	186	375	3411
87	1	1	1817	5	186	376	3412
88	1	1	1883	4	186	375	3413
89	1	1	1945	5	185	376	3414
90	1	1	1996	5	184	375	3415
91	1	1	2064	5	184	375	3416
92	1	1	2141	5	183	376	3415
93	1	1	2214	4	182	376	3413
94	1	1	2254	5	182	376	3411
95	1	1	2241	4	182	375	3411
96	1	1	2195	5	182	375	3411
97	1	1	2160	4	182	374	3412
98	1	1	2118	4	182	375	3413
99	1	1	2050	4	181	376	3414
100	1	1	1987	4	183	375	3415
101	1	1	1936	4	183	375	3415
102	1	1	1916	4	183	376	3414
103	1	1	1915	5	185	375	3413
104	1	1	1885	4	186	376	3411
105	1	1	1858	4	186	375	3410
106	1	1	1862	5	186	375	3411
107	1	1	1888	5	186	376	3412
108	1	1	1937	5	186	375	3413
109	1	1	2004	5	185	375	3415
110	1	1	2061	5	184	375	3415
111	1	1	2134	5	183	375	3416
112	1	1	2190	4	182	376	3415
113	1	1	2205	5	183	375	3413
114	1	1	2222	5	181	376	3411
115	1	1	2237	5	182	376	3411
116	1	1	2206	5	181	376	3411
117	1	1	2156	5	182	375	3412
118	1	1	2095	4	182	375	3413
119	1	1	2036	4	183	375	3414
120	1	1	2003	4	183	375	3415
121	1	1	1999	5	183	375	3415
122	1	1	1970	4	184	375	3414
123	1	1	1935	4	185	376	3413
124	1	1	1897	4	186	376	3411
125	1	1	1871	4	186	375	3410
126	1	1	1872	5	186	374	3412
127	1	1	1896	5	187	376	3413
0	1	1	1933	5	186	376	3413
1	1	1	1982	5	185	376	3415
2	1	1	2050	5	184	375	3415
3	1	1	2127	5	184	375	3416
4	1	1	2233	5	182	375	3414
5	1	1	2304	5	183	376	3413
6	1	1	2303	5	182	375	3412
7	1	1	2250	4	181	375	3410
8	1	1	2190	4	182	375	3411
9	1	1	2132	6	181	375	3412
10	1	1	2117	4	182	376	3413
11	1	1	2110	4	182	375	3414
12	1	1	2090	4	183	375	3415
13	1	1	2058	4	183	375	3414
14	1	1	2006	4	185	375	3414
15	1	1	1947	4	183	375	3414
16	1	1	1877	4	185	375	3411
17	1	1	1826	5	186	376	3410
18	1	1	1834	5	187	375	3412
19	1	1	1866	5	186	376	3412
20	1	1	1886	5	185	375	3413
21	1	1	1919	6	185	375	3414
22	1	1	1980	5	185	375	3414
23	1	1	2042	5	183	375	3415
24	1	1	2082	4	182	375	3414
25	1	1	2104	5	183	376	3412
26	1	1	2129	5	181	375	3411
27	1	1	2150	5	182	376	3410
28	1	1	2140	5	182	375	3410
29	1	1	2101	4	180	375	3411
30	1	1	2052	4	181	376	3413
31	1	1	2015	4	182	375	3414
32	1	1	1986	4	182	375	3414
33	1	1	1939	4	184	375	3414
34	1	1	1907	3	184	375	3414
35	1	1	1902	5	185	375	3413
36	1	1	1874	4	185	376	3411
37	1	1	1832	4	186	375	3410
38	1	1	1820	5	187	376	3412
39	1	1	1839	5	186	375	3412
40	1	1	1872	5	186	375	3413
41	1	1	1923	5	185	375	3415
42	1	1	1986	5	185	375	3414
43	1	1	2053	5	183	376	3415
44	1	1	2104	6	183	376	3414
45	1	1	2151	5	183	375	3413
46	1	1	2192	6	182	375	3411
47	1	1	2217	5	182	375	3411
48	1	1	2185	4	181	376	3411
49	1	1	2137	5	182	375	3412
50	1	1	2090	4	182	376	3413
51	1	1	2036	4	183	375	3414
52	1	1	1999	4	183	375	3415
53	1	1	1968	4	183	376	3414
54	1	1	1958	3	184	375	3415
55	1	1	1971	5	185	375	3413
56	1	1	1931	4	186	375	3411
57	1	1	1874	4	187	375	3410
58	1	1	1864	5	187	375	3411
59	1	1	1883	3	186	375	3412
60	1	1	1941	5	185	375	3413
61	1	1	2017	5	185	375	3415
62	1	1	2069	5	185	375	3415
63	1	1	2104	5	185	376	3414
64	1	1	2124	5	182	375	3414
65	1	1	2140	5	182	375	3414
66	1	1	2160	5	181	375	3411
67	1	1	2208	5	182	375	3411
68	1	1	2252	5	181	375	3412
69	1	1	2275	5	182	375	3411
70	1	1	2253	4	182	376	3413
71	1	1	2201	4	182	375	3414
72	1	1	2124	4	183	375	3415
73	1	1	2046	4	185	375	3414
74	1	1	1985	5	184	375	3414
75	1	1	1916	4	185	375	3413
76	1	1	1841	4	186	375	3411
77	1	1	1801	5	187	375	3410
78	1	1	1807	5	187	375	3410
79	1	1	1859	3	187	376	3412
80	1	1	1933	4	186	375	3413
81	1	1	1972	5	185	375	3414
82	1	1	2002	5	184	375	3415
83	1	1	2039	5	184	375	3415
84	1	1	2072	4	183	376	3415
85	1	1	2099	5	182	375	3413
86	1	1	2132	5	182	376	3411
87	1	1	2144	4	181	375	3411
88	1	1	2109	6	182	375	3411
89	1	1	2063	4	182	375	3412
90	1	1	2029	4	181	376	3414
91	1	1	2022	5	182	375	3414
92	1	1	2002	4	183	376	3416
93	1	1	1951	4	182	375	3415
94	1	1	1888	5	185	375	3414
95	1	1	1833	4	185	375	3414
96	1	1	1775	4	186	376	3411
97	1	1	1779	5	186	375	3410
98	1	1	1836	5	186	376	3410
99	1	1	1890	4	187	375	3412
100	1	1	1906	5	186	375	3413
101	1	1	1941	5	185	376	3415
102	1	1	2021	4	184	375	3415
103	1	1	2100	5	183	375	3415
104	1	1	2132	5	184	375	3414
105	1	1	2140	5	183	375	3413
106	1	1	2153	5	182	375	3411
107	1	1	2129	4	182	375	3410
108	1	1	2071	4	181	375	3410
109	1	1	2024	4	181	375	3412
110	1	1	2019	5	181	375	3414
111	1	1	2039	4	182	375	3414
112	1	1	2044	5	182	375	3414
113	1	1	2027	4	184	376	3416
114	1	1	2019	4	185	376	3415
115	1	1	1993	4	185	375	3413
116	1	1	1965	5	186	375	3411
117	1	1	1962	6	186	375	3411
118	1	1	1976	5	186	375	3411
119	1	1	1987	5	186	375	3412
120	1	1	1988	5	186	375	3413
121	1	1	2017	5	185	375	3414
122	1	1	2074	5	184	376	3415
123	1	1	2126	5	183	376	3416
124	1	1	2161	5	183	375	3415
125	1	1	2190	5	183	376	3413
126	1	1	2205	5	182	375	3411
127	1	1	2181	4	182	375	3410
0	1	1	2109	4	182	375	3411
1	1	1	2060	5	183	375	3412
2	1	1	2043	4	182	375	3413
3	1	1	2037	5	183	375	3414
4	1	1	2033	5	182	375	3416
5	1	1	2021	4	184	376	3416
6	1	1	1986	5	184	375	3414
7	1	1	1935	4	185	376	3413
8	1	1	1891	4	185	376	3412
9	1	1	1872	5	187	376	3411
10	1	1	1875	5	186	375	3411
11	1	1	1877	5	186	375	3412
12	1	1	1896	5	186	376	3414
13	1	1	1962	5	186	375	3414
14	1	1	2059	6	184	376	3416
15	1	1	2140	5	182	376	3415
16	1	1	2185	6	183	376	3414
17	1	1	2169	4	183	376	3413
18	1	1	2160	5	182	375	3411
19	1	1	2165	5	182	376	3410
20	1	1	2148	4	182	376	3411
21	1	1	2124	5	181	375	3412
22	1	1	2074	4	181	375	3413
23	1	1	2000	4	183	375	3415
24	1	1	1932	4	183	375	3415
25	1	1	1908	4	184	375	3415
26	1	1	1882	5	185	376	3414
27	1	1	1849	4	185	375	3413
28	1	1	1818	4	186	375	3411
29	1	1	1834	5	186	375	3411
30	1	1	1898	5	186	376	3411
31	1	1	1949	5	187	375	3412
32	1	1	1980	5	185	375	3413
33	1	1	2011	5	185	375	3414
34	1	1	2036	4	185	374	3415
35	1	1	2066	5	183	375	3416
36	1	1	2123	5	183	375	3415
37	1	1	2189	5	183	376	3414
38	1	1	2222	5	182	374	3411
39	1	1	2202	4	182	375	3410
40	1	1	2170	4	182	375	3411
41	1	1	2140	5	181	375	3412
42	1	1	2096	4	182	376	3414
43	1	1	2029	4	181	375	3414
44	1	1	1977	5	183	375	3415
45	1	1	1928	4	183	376	3415
46	1	1	1869	4	185	375	3415
47	1	1	1823	4	185	375	3413
48	1	1	1811	4	185	375	3411
49	1	1	1820	5	185	376	3410
50	1	1	1850	5	187	376	3411
51	1	1	1907	5	187	376	3412
52	1	1	1980	5	185	375	3413
53	1	1	2048	5	186	376	3415
54	1	1	2100	5	184	376	3415
55	1	1	2118	5	184	375	3415
56	1	1	2099	4	182	375	3414
57	1	1	2093	5	182	375	3414
58	1	1	2106	5	181	375	3411
59	1	1	2113	5	181	375	3410
60	1	1	2083	5	182	375	3411
61	1	1	2050	4	181	375	3412
62	1	1	2044	4	181	375	3413
63	1	1	2054	5	183	374	3414
64	1	1	2051	4	183	375	3416
65	1	1	1996	4	183	376	3415
66	1	1	1938	4	184	375	3414
67	1	1	1892	4	185	375	3414
68	1	1	1842	4	186	375	3411
69	1	1	1805	5	187	375	3410
70	1	1	1824	5	185	375	3411
71	1	1	1857	5	187	375	3412
72	1	1	1895	5	184	376	3413
73	1	1	1946	5	185	376	3415
74	1	1	2013	5	184	375	3415
75	1	1	2084	5	184	375	3415
76	1	1	2152	5	182	376	3415
77	1	1	2217	5	181	375	3414
78	1	1	2256	5	182	375	3411
79	1	1	2273	5	181	375	3410
80	1	1	2246	4	180	375	3411
81	1	1	2216	5	181	375	3412
82	1	1	2189	4	182	376	3413
83	1	1	2186	5	182	374	3414
84	1	1	2156	4	183	375	3415
85	1	1	2076	4	184	375	3415
86	1	1	2032	5	184	375	3414
87	1	1	2012	4	184	376	3412
88	1	1	1965	4	186	376	3411
89	1	1	1942	5	186	375	3411
90	1	1	1970	6	186	375	3411
91	1	1	2014	5	185	375	3412
92	1	1	2056	5	186	376	3414
93	1	1	2112	5	184	374	3414
94	1	1	2165	5	184	375	3415
95	1	1	2231	5	184	376	3416
96	1	1	2307	5	183	376	3415
97	1	1	2344	5	182	375	3413
98	1	1	2348	5	181	374	3411
99	1	1	2346	5	182	375	3410
100	1	1	2299	4	181	375	3411
101	1	1	2250	4	182	375	3412
102	1	1	2230	4	182	375	3413
103	1	1	2202	4	182	375	3414
104	1	1	2134	4	184	375	3415
105	1	1	2030	4	183	375	3415
106	1	1	1902	5	184	375	3414
107	1	1	1803	4	184	375	3412
108	1	1	1735	4	186	376	3411
109	1	1	1712	4	186	375	3411
110	1	1	1766	5	186	376	3411
111	1	1	1832	5	186	376	3412
112	1	1	1843	5	186	375	3414
113	1	1	1827	4	185	375	3414
114	1	1	1837	4	185	375	3416
115	1	1	1891	5	184	376	3415
116	1	1	1961	5	184	376	3415
117	1	1	2015	4	182	375	3413
118	1	1	2056	4	182	374	3411
119	1	1	2072	5	182	375	3410
120	1	1	2054	4	181	375	3412
121	1	1	2026	4	181	376	3412
122	1	1	1999	5	182	376	3413
123	1	1	1959	4	182	375	3414
124	1	1	1899	4	183	375	3415
125	1	1	1842	4	183	375	3415
126	1	1	1823	5	184	376	3414
127	1	1	1857	4	185	376	3413
0	1	1	1874	5	185	375	3411
1	1	1	1858	4	187	375	3410
2	1	1	1840	4	187	375	3411
3	1	1	1829	5	186	376	3412
4	1	1	1846	5	186	375	3414
5	1	1	1908	5	184	375	3414
6	1	1	2004	4	185	375	3416
7	1	1	2084	5	184	375	3415
8	1	1	2145	5	182	375	3415
9	1	1	2201	5	183	375	3414
10	1	1	2236	5	182	375	3411
11	1	1	2236	4	181	376	3410
12	1	1	2180	4	182	375	3412
13	1	1	2095	3	182	376	3413
14	1	1	2000	4	182	376	3413
15	1	1	1926	4	182	375	3414
16	1	1	1898	5	183	375	3415
17	1	1	1900	5	183	375	3415
18	1	1	1903	4	184	376	3414
19	1	1	1892	4	185	376	3413
20	1	1	1878	4	185	375	3411
21	1	1	1876	5	186	376	3410
22	1	1	1906	6	185	375	3411
23	1	1	1962	6	186	375	3411
24	1	1	2016	5	186	375	3413
25	1	1	2066	5	185	375	3414
26	1	1	2087	4	185	376	3416
27	1	1	2090	5	184	376	3415
28	1	1	2070	5	183	376	3415
29	1	1	2074	5	182	375	3414
30	1	1	2103	5	181	375	3411
31	1	1	2125	4	181	375	3411
32	1	1	2098	4	183	375	3411
33	1	1	2067	4	181	376	3412
34	1	1	2027	4	181	376	3413
35	1	1	2010	5	182	375	3414
36	1	1	2032	5	181	375	3415
37	1	1	2044	5	184	375	3415
38	1	1	2010	4	185	376	3414
39	1	1	1978	5	185	375	3413
40	1	1	1944	4	187	375	3411
41	1	1	1915	4	186	375	3410
42	1	1	1909	6	185	375	3411
43	1	1	1921	5	186	376	3412
44	1	1	1939	5	187	376	3414
45	1	1	1990	5	184	375	3415
46	1	1	2057	3	185	375	3416
47	1	1	2115	5	184	375	3415
48	1	1	2177	5	182	376	3414
49	1	1	2215	6	183	376	3414
50	1	1	2231	5	182	375	3411
51	1	1	2208	4	181	375	3410
52	1	1	2153	4	181	375	3412
53	1	1	2106	4	182	375	3413
54	1	1	2055	5	182	375	3413
55	1	1	2020	4	182	375	3414
56	1	1	1997	4	182	375	3415
57	1	1	1959	5	184	375	3415
58	1	1	1911	4	185	375	3414
59	1	1	1894	5	184	375	3414
60	1	1	1875	4	186	375	3411
61	1	1	1850	4	187	375	3410
62	1	1	1867	5	187	375	3411
63	1	1	1898	5	186	375	3412
64	1	1	1928	6	186	375	3414
65	1	1	1987	5	185	375	3414
66	1	1	2040	5	184	375	3415
67	1	1	2086	5	183	375	3415
68	1	1	2133	5	183	375	3415
69	1	1	2160	5	182	375	3413
70	1	1	2192	4	182	375	3411
71	1	1	2216	5	181	375	3410
72	1	1	2194	4	182	376	3411
73	1	1	2180	4	181	375	3412
74	1	1	2154	4	181	375	3414
75	1	1	2099	4	182	375	3415
76	1	1	2030	4	182	375	3415
77	1	1	1974	4	183	375	3416
78	1	1	1933	4	184	375	3415
79	1	1	1893	4	185	375	3414
80	1	1	1846	4	186	376	3411
81	1	1	1820	5	186	376	3410
82	1	1	1837	4	186	376	3411
83	1	1	1863	5	185	375	3412
84	1	1	1899	6	185	375	3413
85	1	1	1967	5	186	376	3414
86	1	1	2045	5	185	375	3415
87	1	1	2123	5	185	376	3415
88	1	1	2200	5	182	375	3415
89	1	1	2282	5	182	376	3414
90	1	1	2313	5	182	376	3411
91	1	1	2276	3	182	376	3411
92	1	1	2217	4	181	375	3411
93	1	1	2166	4	179	375	3412
94	1	1	2115	4	182	375	3413
95	1	1	2049	4	183	375	3414
96	1	1	2009	4	183	376	3415
97	1	1	1990	4	183	376	3416
98	1	1	1966	4	184	376	3415
99	1	1	1922	4	183	375	3414
100	1	1	1856	4	186	375	3411
101	1	1	1808	3	187	375	3411
102	1	1	1820	5	189	375	3411
103	1	1	1855	5	186	375	3412
104	1	1	1911	5	186	375	3413
105	1	1	1971	5	185	375	3414
106	1	1	2026	4	185	377	3415
107	1	1	2090	5	184	375	3415
108	1	1	2175	5	183	375	3415
109	1	1	2229	4	183	376	3413
110	1	1	2240	5	182	375	3411
111	1	1	2213	4	182	375	3411
112	1	1	2184	4	181	376	3412
113	1	1	2161	4	181	376	3413
114	1	1	2125	3	182	375	3413
115	1	1	2079	4	182	375	3414
116	1	1	2065	4	184	375	3416
117	1	1	2067	5	183	376	3415
118	1	1	2059	4	184	376	3415
119	1	1	2024	4	185	376	3414
120	1	1	1946	4	186	375	3411
121	1	1	1883	4	186	375	3411
122	1	1	1887	5	187	376	3411
123	1	1	1918	5	185	375	3412
124	1	1	1962	5	186	375	3413
125	1	1	2030	5	184	375	3414
126	1	1	2095	5	185	375	3415
127	1	1	2129	5	183	375	3415
0	1	1	2164	5	183	375	3415
1	1	1	2226	4	183	375	3414
2	1	1	2270	5	181	376	3412
3	1	1	2290	5	182	375	3410
4	1	1	2283	5	181	375	3412
5	1	1	2247	4	181	375	3412
6	1	1	2186	5	182	375	3413
7	1	1	2119	3	182	375	3414
8	1	1	2070	5	183	375	3415
9	1	1	2038	5	184	375	3415
10	1	1	2009	4	184	375	3414
11	1	1	1982	4	185	375	3413
12	1	1	1936	4	185	375	3411
13	1	1	1892	5	186	375	3410
14	1	1	1891	5	186	375	3411
15	1	1	1920	5	186	375	3412
16	1	1	1977	5	186	375	3413
17	1	1	2065	5	185	376	3415
18	1	1	2146	5	185	375	3416
19	1	1	2200	5	184	377	3415
20	1	1	2223	5	182	375	3415
21	1	1	2232	5	182	375	3414
22	1	1	2254	5	182	375	3411
23	1	1	2298	5	181	375	3410
24	1	1	2287	4	181	375	3411
25	1	1	2225	5	180	375	3412
26	1	1	2157	4	181	375	3414
27	1	1	2101	4	182	375	3415
28	1	1	2053	5	183	375	3414
29	1	1	2008	4	183	375	3415
30	1	1	1974	4	183	376	3414
31	1	1	1956	4	185	375	3414
32	1	1	1921	4	187	375	3411
33	1	1	1891	4	187	375	3411
34	1	1	1896	5	189	376	3411
35	1	1	1925	5	187	375	3412
36	1	1	1976	4	186	376	3414
37	1	1	2055	5	185	375	3415
38	1	1	2116	5	184	375	3415
39	1	1	2146	5	184	375	3415
40	1	1	2170	5	182	375	3415
41	1	1	2210	5	182	375	3414
42	1	1	2241	5	181	375	3411
43	1	1	2246	5	182	375	3410
44	1	1	2214	4	181	375	3411
45	1	1	2176	4	182	375	3412
46	1	1	2114	3	181	375	3414
47	1	1	2022	4	183	375	3414
48	1	1	1985	5	183	375	3415
49	1	1	2009	5	183	375	3415
50	1	1	2032	5	184	375	3415
51	1	1	2035	4	185	375	3413
52	1	1	1996	4	187	375	3411
53	1	1	1932	4	187	376	3411
54	1	1	1921	5	187	375	3411
55	1	1	1941	5	186	376	3412
56	1	1	1963	5	186	375	3414
57	1	1	2009	5	185	375	3414
58	1	1	2057	5	184	375	3416
59	1	1	2093	5	181	375	3415
60	1	1	2139	5	184	376	3415
61	1	1	2170	5	182	375	3414
62	1	1	2177	5	182	375	3412
63	1	1	2186	5	182	375	3411
64	1	1	2191	5	182	374	3411
65	1	1	2188	5	182	375	3412
66	1	1	2181	4	182	375	3414
67	1	1	2160	5	183	375	3414
68	1	1	2126	4	183	375	3415
69	1	1	2061	4	183	375	3415
70	1	1	1997	5	184	375	3414
71	1	1	1972	4	185	376	3414
72	1	1	1954	4	186	375	3411
73	1	1	1913	4	187	375	3410
74	1	1	1879	4	186	375	3411
75	1	1	1865	5	186	375	3412
76	1	1	1917	4	185	376	3413
77	1	1	2039	5	185	376	3415
78	1	1	2128	5	184	375	3415
79	1	1	2155	5	185	375	3416
80	1	1	2156	5	184	376	3415
81	1	1	2147	4	182	375	3414
82	1	1	2158	5	182	375	3412
83	1	1	2164	5	181	375	3410
84	1	1	2123	4	182	375	3411
85	1	1	2066	4	182	375	3412
86	1	1	2018	4	182	375	3414
87	1	1	2000	4	182	375	3415
88	1	1	1963	4	183	375	3415
89	1	1	1910	4	184	375	3415
90	1	1	1888	5	184	375	3415
91	1	1	1909	5	185	375	3413
92	1	1	1930	5	186	375	3411
93	1	1	1934	5	187	375	3410
94	1	1	1962	5	185	375	3411
95	1	1	1976	5	186	375	3413
96	1	1	1979	4	185	376	3413
97	1	1	2006	5	185	375	3415
98	1	1	2034	5	184	375	3415
99	1	1	2068	5	183	375	3415
100	1	1	2100	5	183	375	3415
101	1	1	2114	5	181	375	3413
102	1	1	2126	5	182	375	3411
103	1	1	2134	5	181	375	3410
104	1	1	2128	5	183	375	3411
105	1	1	2133	5	182	376	3412
106	1	1	2127	4	182	376	3414
107	1	1	2076	4	183	375	3415
108	1	1	1991	4	183	376	3416
109	1	1	1907	4	183	375	3415
110	1	1	1858	4	184	375	3414
111	1	1	1861	4	184	375	3413
112	1	1	1861	3	185	375	3411
113	1	1	1851	5	186	376	3410
114	1	1	1863	5	186	376	3411
115	1	1	1893	5	186	375	3412
116	1	1	1931	3	185	376	3413
117	1	1	1963	5	184	375	3414
118	1	1	2007	5	184	375	3415
119	1	1	2073	5	184	375	3415
120	1	1	2165	5	184	375	3415
121	1	1	2242	5	182	376	3414
122	1	1	2280	5	181	375	3412
123	1	1	2292	5	182	376	3411
124	1	1	2236	4	184	375	3411
125	1	1	2156	4	182	375	3412
126	1	1	2099	3	181	375	3414
127	1	1	2049	4	183	375	3414
0	1	1	2002	4	183	375	3415
1	1	1	1942	4	185	375	3415
2	1	1	1885	4	184	375	3415
3	1	1	1822	3	184	375	3414
4	1	1	1751	4	186	376	3412
5	1	1	1709	4	186	375	3410
6	1	1	1747	5	186	375	3412
7	1	1	1821	5	185	375	3413
8	1	1	1894	5	185	375	3414
9	1	1	1994	4	185	375	3414
10	1	1	2087	6	184	375	3415
11	1	1	2152	5	185	376	3415
12	1	1	2163	5	184	376	3414
13	1	1	2176	4	183	375	3414
14	1	1	2221	5	181	375	3411
15	1	1	2288	5	181	375	3410
16	1	1	2293	4	182	376	3411
17	1	1	2208	4	181	375	3412
18	1	1	2117	3	182	375	3413
19	1	1	2057	4	182	375	3414
20	1	1	2003	4	183	375	3416
21	1	1	1960	4	184	375	3415
22	1	1	1937	4	184	376	3414
23	1	1	1908	3	185	375	3414
24	1	1	1859	4	187	375	3411
25	1	1	1818	4	187	375	3410
26	1	1	1812	5	186	375	3411
27	1	1	1814	5	186	375	3412
28	1	1	1844	4	185	375	3413
29	1	1	1930	5	186	376	3415
30	1	1	2016	6	185	375	3415
31	1	1	2092	5	184	375	3416
32	1	1	2158	5	183	376	3416
33	1	1	2201	5	182	375	3414
34	1	1	2230	5	182	376	3412
35	1	1	2252	5	181	375	3410
36	1	1	2243	4	181	375	3411
37	1	1	2196	4	182	375	3413
38	1	1	2126	4	182	375	3413
39	1	1	2051	4	182	375	3414
40	1	1	1982	4	183	376	3416
41	1	1	1930	4	184	375	3415
42	1	1	1890	4	185	376	3414
43	1	1	1884	5	185	375	3414
44	1	1	1861	4	185	375	3411
45	1	1	1830	4	186	375	3410
46	1	1	1849	5	187	375	3411
47	1	1	1884	5	186	375	3412
48	1	1	1943	4	186	375	3414
49	1	1	2043	5	186	375	3415
50	1	1	2122	5	185	375	3415
51	1	1	2137	5	184	375	3415
52	1	1	2131	5	184	375	3414
53	1	1	2140	4	182	375	3414
54	1	1	2163	5	181	375	3411
55	1	1	2194	4	182	375	3411
56	1	1	2208	5	181	375	3411
57	1	1	2195	4	182	375	3412
58	1	1	2148	3	181	375	3414
59	1	1	2080	4	183	375	3414
60	1	1	2024	4	183	376	3415
61	1	1	1976	4	184	375	3416
62	1	1	1936	4	183	375	3415
63	1	1	1886	4	185	375	3414
64	1	1	1827	4	186	375	3411
65	1	1	1813	6	186	375	3410
66	1	1	1865	5	187	375	3411
67	1	1	1931	5	188	376	3412
68	1	1	1975	5	186	375	3413
69	1	1	2024	5	185	375	3414
70	1	1	2083	5	185	375	3415
71	1	1	2143	5	183	376	3415
72	1	1	2176	5	182	375	3415
73	1	1	2164	4	183	376	3414
74	1	1	2147	5	182	375	3411
75	1	1	2138	5	182	376	3411
76	1	1	2113	4	181	376	3411
77	1	1	2092	4	181	375	3413
78	1	1	2072	4	182	375	3413
79	1	1	2048	4	183	375	3414
80	1	1	2009	5	183	375	3415
81	1	1	1958	4	184	376	3415
82	1	1	1896	4	183	376	3415
83	1	1	1843	4	184	375	3414
84	1	1	1789	4	186	375	3411
85	1	1	1777	5	186	375	3410
86	1	1	1825	5	186	377	3411
87	1	1	1873	5	183	375	3413
88	1	1	1915	5	184	375	3413
89	1	1	1991	5	185	375	3414
90	1	1	2040	5	185	376	3416
91	1	1	2074	5	183	376	3416
92	1	1	2122	4	183	375	3415
93	1	1	2132	4	182	375	3414
94	1	1	2154	5	182	375	3411
95	1	1	2216	5	180	375	3412
96	1	1	2242	5	181	375	3411
97	1	1	2226	4	182	375	3412
98	1	1	2172	4	182	375	3414
99	1	1	2090	4	183	376	3415
100	1	1	2010	5	183	375	3415
101	1	1	1954	4	184	375	3415
102	1	1	1921	4	185	375	3415
103	1	1	1887	4	184	375	3414
104	1	1	1854	4	185	375	3412
105	1	1	1867	4	186	375	3411
106	1	1	1916	5	185	375	3411
107	1	1	1956	5	187	375	3412
108	1	1	1975	5	187	376	3414
109	1	1	2004	5	185	375	3414
110	1	1	2061	4	184	376	3415
111	1	1	2108	5	184	375	3416
112	1	1	2152	5	181	375	3415
113	1	1	2177	5	183	375	3414
114	1	1	2204	5	181	375	3412
115	1	1	2241	5	181	375	3411
116	1	1	2235	4	181	375	3411
117	1	1	2188	4	182	375	3412
118	1	1	2139	4	182	375	3414
119	1	1	2062	4	182	375	3415
120	1	1	1964	4	183	375	3415
121	1	1	1890	4	184	376	3415
122	1	1	1862	4	185	376	3415
123	1	1	1829	4	184	375	3414
124	1	1	1788	4	185	375	3412
125	1	1	1805	5	188	375	3411
126	1	1	1860	5	187	376	3411
127	1	1	1886	5	186	375	3412
0	1	1	1923	5	186	376	3415
1	1	1	1997	5	184	376	3415
2	1	1	2124	5	185	376	3416
3	1	1	2233	5	184	376	3416
4	1	1	2280	5	183	375	3415
5	1	1	2328	5	182	376	3414
6	1	1	2344	5	182	375	3412
7	1	1	2316	4	182	376	3412
8	1	1	2254	4	183	375	3411
9	1	1	2175	4	183	375	3412
10	1	1	2125	4	182	376	3414
11	1	1	2110	4	182	376	3415
12	1	1	2086	4	182	375	3415
13	1	1	2053	4	184	375	3415
14	1	1	2008	4	184	375	3415
15	1	1	1977	4	184	376	3414
16	1	1	1919	4	185	375	3411
17	1	1	1886	5	186	375	3411
18	1	1	1892	4	186	375	3411
19	1	1	1902	5	186	376	3412
20	1	1	1929	5	186	375	3414
21	1	1	1991	5	185	375	3415
22	1	1	2058	6	185	375	3415
23	1	1	2108	5	184	375	3416
24	1	1	2156	5	183	376	3416
25	1	1	2198	5	182	376	3414
26	1	1	2233	5	182	375	3412
27	1	1	2227	4	181	375	3411
28	1	1	2161	4	182	375	3411
29	1	1	2095	4	182	375	3412
30	1	1	2035	4	183	376	3414
31	1	1	1986	4	182	376	3415
32	1	1	1951	4	183	375	3415
33	1	1	1918	3	184	375	3415
34	1	1	1881	4	184	375	3415
35	1	1	1847	4	185	375	3414
36	1	1	1804	4	187	376	3411
37	1	1	1753	4	186	376	3411
38	1	1	1733	4	185	376	3411
39	1	1	1749	5	187	375	3412
40	1	1	1813	5	185	375	3414
41	1	1	1906	5	185	375	3414
42	1	1	1991	5	185	375	3416
43	1	1	2024	5	184	375	3415
44	1	1	2034	5	183	375	3415
45	1	1	2061	5	182	375	3415
46	1	1	2108	5	182	375	3411
47	1	1	2163	5	182	376	3411
48	1	1	2167	5	182	375	3411
49	1	1	2139	4	182	375	3412
50	1	1	2116	4	182	375	3414
51	1	1	2097	4	182	375	3414
52	1	1	2055	4	183	376	3415
53	1	1	1991	4	183	375	3416
54	1	1	1939	4	185	376	3416
55	1	1	1906	4	185	376	3414
56	1	1	1866	4	186	375	3411
57	1	1	1819	4	186	375	3410
58	1	1	1820	4	186	375	3411
59	1	1	1867	5	187	375	3412
60	1	1	1911	5	185	375	3414
61	1	1	1951	5	184	375	3414
62	1	1	1992	5	185	375	3415
63	1	1	2026	5	183	375	3416
64	1	1	2043	5	182	375	3415
65	1	1	2073	5	182	375	3414
66	1	1	2124	4	182	375	3411
67	1	1	2152	5	181	376	3410
68	1	1	2139	4	182	376	3411
69	1	1	2126	4	182	375	3412
70	1	1	2090	4	182	375	3414
71	1	1	2051	4	183	375	3414
72	1	1	2016	4	182	375	3415
73	1	1	1990	4	184	375	3415
74	1	1	1971	4	185	375	3415
75	1	1	1938	5	184	376	3414
76	1	1	1889	4	186	375	3412
77	1	1	1853	4	186	376	3410
78	1	1	1883	5	186	375	3411
79	1	1	1935	5	186	376	3413
80	1	1	1986	5	186	375	3414
81	1	1	2091	5	185	375	3415
82	1	1	2184	5	185	376	3415
83	1	1	2244	4	184	375	3415
84	1	1	2283	5	183	375	3415
85	1	1	2290	5	182	376	3414
86	1	1	2274	5	181	375	3412
87	1	1	2244	4	182	375	3410
88	1	1	2204	4	181	375	3411
89	1	1	2199	5	181	375	3412
90	1	1	2194	4	181	375	3414
91	1	1	2152	4	182	375	3415
92	1	1	2134	4	183	375	3415
93	1	1	2112	4	184	375	3415
94	1	1	2074	4	185	376	3416
95	1	1	2016	5	185	376	3413
96	1	1	1957	4	186	376	3412
97	1	1	1944	5	187	375	3410
98	1	1	1980	5	186	375	3411
99	1	1	2012	5	185	375	3412
100	1	1	2075	5	185	375	3413
101	1	1	2156	5	185	375	3414
102	1	1	2236	5	184	376	3415
103	1	1	2268	5	183	375	3415
104	1	1	2221	4	183	375	3415
105	1	1	2176	4	181	376	3414
106	1	1	2202	5	182	376	3411
107	1	1	2261	5	181	375	3410
108	1	1	2274	5	181	375	3411
109	1	1	2234	4	182	375	3412
110	1	1	2136	4	182	375	3414
111	1	1	2006	4	182	375	3415
112	1	1	1903	5	182	375	3415
113	1	1	1813	4	185	376	3416
114	1	1	1748	4	184	375	3415
115	1	1	1734	4	185	376	3413
116	1	1	1718	4	187	375	3411
117	1	1	1713	5	186	375	3410
118	1	1	1753	5	185	375	3411
119	1	1	1800	5	185	375	3412
120	1	1	1839	5	185	375	3414
121	1	1	1889	5	184	375	3414
122	1	1	1935	5	184	376	3415
123	1	1	1970	4	184	376	3415
124	1	1	1995	5	183	375	3415
125	1	1	2023	5	182	375	3414
126	1	1	2060	5	181	375	3411
127	1	1	2089	5	183	375	3410
0	1	1	2057	4	182	375	3411
1	1	1	1998	4	182	375	3413
2	1	1	1960	4	182	375	3414
3	1	1	1952	5	182	375	3414
4	1	1	1967	5	182	375	3415
5	1	1	1986	5	184	375	3415
6	1	1	1959	4	183	374	3415
7	1	1	1908	4	183	375	3414
8	1	1	1810	4	185	375	3411
9	1	1	1717	4	185	375	3411
10	1	1	1725	5	187	377	3411
11	1	1	1781	5	187	375	3412
12	1	1	1874	5	186	375	3414
13	1	1	1986	5	185	375	3414
14	1	1	2075	5	184	375	3415
15	1	1	2137	5	183	375	3415
16	1	1	2167	5	184	375	3414
17	1	1	2187	5	182	376	3414
18	1	1	2216	6	183	375	3411
19	1	1	2236	5	181	375	3411
20	1	1	2234	4	182	375	3411
21	1	1	2213	4	182	375	3412
22	1	1	2171	4	182	375	3414
23	1	1	2109	4	182	375	3414
24	1	1	2039	4	182	375	3416
25	1	1	1982	4	184	376	3415
26	1	1	1937	4	184	375	3415
27	1	1	1912	4	185	376	3414
28	1	1	1875	4	185	376	3411
29	1	1	1823	4	186	375	3410
30	1	1	1809	5	186	375	3411
31	1	1	1827	5	187	375	3412
32	1	1	1890	5	185	376	3414
33	1	1	2005	5	184	375	3414
34	1	1	2113	5	184	375	3415
35	1	1	2178	5	184	375	3416
36	1	1	2220	5	183	376	3416
37	1	1	2251	5	182	375	3414
38	1	1	2257	5	182	375	3412
39	1	1	2259	5	181	375	3411
40	1	1	2213	4	181	375	3411
41	1	1	2168	4	182	374	3412
42	1	1	2129	4	181	376	3414
43	1	1	2080	5	183	375	3414
44	1	1	2018	4	182	375	3415
45	1	1	1958	4	185	375	3415
46	1	1	1907	4	186	375	3415
47	1	1	1855	4	185	376	3414
48	1	1	1804	4	185	375	3411
49	1	1	1790	5	185	376	3411
50	1	1	1839	5	186	376	3411
51	1	1	1914	5	186	376	3412
52	1	1	2009	5	186	375	3414
53	1	1	2078	5	183	375	3414
54	1	1	2088	5	184	375	3415
55	1	1	2070	4	183	375	3416
56	1	1	2069	5	183	375	3415
57	1	1	2078	5	183	376	3414
58	1	1	2099	5	183	375	3411
59	1	1	2127	5	181	375	3410
60	1	1	2128	4	182	375	3411
61	1	1	2123	5	183	375	3412
62	1	1	2118	4	182	375	3414
63	1	1	2104	5	182	375	3414
64	1	1	2080	4	183	375	3415
65	1	1	2052	4	184	376	3415
66	1	1	2009	4	186	376	3415
67	1	1	1959	4	185	376	3414
68	1	1	1886	4	185	375	3411
69	1	1	1810	4	185	376	3412
70	1	1	1823	5	186	375	3411
71	1	1	1880	5	186	376	3412
72	1	1	1932	5	186	376	3414
73	1	1	1992	5	185	375	3414
74	1	1	2039	5	184	376	3416
75	1	1	2091	5	184	376	3415
76	1	1	2136	5	183	376	3415
77	1	1	2149	5	182	376	3414
78	1	1	2155	5	181	375	3411
79	1	1	2168	4	182	376	3411
80	1	1	2163	5	181	375	3411
81	1	1	2133	4	183	375	3412
82	1	1	2095	4	183	375	3414
83	1	1	2065	4	183	375	3414
84	1	1	2056	5	183	375	3415
85	1	1	2031	4	184	375	3416
86	1	1	1990	4	184	376	3416
87	1	1	1952	4	184	375	3414
88	1	1	1918	4	187	375	3411
89	1	1	1893	4	185	376	3411
90	1	1	1889	5	187	375	3411
91	1	1	1875	4	186	376	3412
92	1	1	1893	5	186	375	3414
93	1	1	1988	5	185	375	3414
94	1	1	2101	5	184	375	3416
95	1	1	2186	5	183	375	3416
96	1	1	2231	5	183	376	3415
97	1	1	2248	5	183	375	3414
98	1	1	2259	5	182	376	3411
99	1	1	2268	4	182	375	3411
100	1	1	2264	5	182	375	3411
101	1	1	2266	5	181	376	3412
102	1	1	2268	4	183	376	3414
103	1	1	2232	4	182	376	3414
104	1	1	2151	4	183	375	3415
105	1	1	2076	4	185	375	3415
106	1	1	2011	4	184	376	3415
107	1	1	1956	4	184	376	3415
108	1	1	1873	4	186	375	3411
109	1	1	1813	3	185	376	3411
110	1	1	1840	5	186	377	3411
111	1	1	1910	5	185	376	3412
112	1	1	2000	5	185	375	3414
113	1	1	2074	5	185	375	3414
114	1	1	2120	5	184	375	3415
115	1	1	2173	5	184	375	3416
116	1	1	2250	5	184	375	3415
117	1	1	2278	5	184	375	3414
118	1	1	2291	5	181	375	3413
119	1	1	2299	5	182	375	3411
120	1	1	2246	4	183	375	3412
121	1	1	2185	4	181	375	3413
122	1	1	2126	5	182	375	3414
123	1	1	2046	4	181	376	3414
124	1	1	1971	4	182	375	3415
125	1	1	1916	4	183	375	3415
126	1	1	1891	4	184	376	3414
127	1	1	1888	4	184	375	3414
0	1	1	1870	5	185	375	3411
1	1	1	1871	5	186	375	3410
2	1	1	1926	5	187	375	3411
3	1	1	1994	5	185	375	3412
4	1	1	2048	5	185	375	3414
5	1	1	2088	5	185	375	3414
6	1	1	2132	4	184	376	3416
7	1	1	2179	5	183	377	3416
8	1	1	2232	5	183	376	3415
9	1	1	2280	5	183	375	3414
10	1	1	2299	5	182	375	3411
11	1	1	2324	5	182	376	3411
12	1	1	2340	5	181	375	3411
13	1	1	2321	4	182	375	3412
14	1	1	2264	4	182	375	3414
15	1	1	2197	4	183	375	3416
16	1	1	2139	4	182	376	3415
17	1	1	2090	4	183	376	3415
18	1	1	2017	4	185	376	3415
19	1	1	1950	4	185	376	3414
20	1	1	1883	4	185	375	3411
21	1	1	1847	5	185	376	3411
22	1	1	1875	5	187	375	3411
23	1	1	1908	5	186	376	3412
24	1	1	1964	5	185	375	3414
25	1	1	2061	5	185	375	3414
26	1	1	2178	5	185	376	3415
27	1	1	2307	5	184	378	3416
28	1	1	2374	5	182	375	3415
29	1	1	2387	5	183	375	3414
30	1	1	2372	5	182	376	3411
31	1	1	2330	4	181	375	3411
32	1	1	2291	4	183	375	3411
33	1	1	2264	4	182	376	3412
34	1	1	2224	4	182	375	3414
35	1	1	2177	4	181	375	3414
36	1	1	2109	4	182	376	3415
37	1	1	2050	4	184	376	3416
38	1	1	2026	4	183	376	3416
39	1	1	2008	4	184	375	3414
40	1	1	1959	4	186	375	3412
41	1	1	1920	4	187	375	3411
42	1	1	1948	5	187	375	3411
43	1	1	1984	5	186	375	3413
44	1	1	2009	5	185	375	3414
45	1	1	2056	5	185	376	3415
46	1	1	2104	5	185	375	3415
47	1	1	2149	5	184	376	3416
48	1	1	2193	5	183	375	3416
49	1	1	2214	5	182	375	3414
50	1	1	2224	5	183	375	3412
51	1	1	2230	4	182	375	3411
52	1	1	2201	5	183	376	3411
53	1	1	2158	4	181	375	3412
54	1	1	2123	4	182	375	3414
55	1	1	2075	4	182	375	3414
56	1	1	2013	4	184	375	3415
57	1	1	1980	4	184	376	3415
58	1	1	1951	4	185	376	3415
59	1	1	1943	5	185	375	3414
60	1	1	1913	4	185	375	3411
61	1	1	1875	4	186	375	3411
62	1	1	1868	5	186	376	3411
63	1	1	1885	5	186	375	3412
64	1	1	1946	5	186	376	3414
65	1	1	2037	5	185	375	3414
66	1	1	2116	5	184	376	3416
67	1	1	2170	5	184	377	3415
68	1	1	2213	5	184	376	3415
69	1	1	2239	5	182	375	3414
70	1	1	2246	5	182	375	3412
71	1	1	2234	4	181	375	3411
72	1	1	2189	4	182	375	3411
73	1	1	2148	4	181	376	3412
74	1	1	2107	4	182	375	3414
75	1	1	2046	4	182	375	3414
76	1	1	1975	3	183	375	3415
77	1	1	1891	4	184	375	3415
78	1	1	1840	4	184	376	3415
79	1	1	1857	5	184	375	3414
80	1	1	1876	5	186	376	3411
81	1	1	1853	4	185	375	3411
82	1	1	1833	4	185	375	3411
83	1	1	1840	5	186	376	3412
84	1	1	1897	5	185	376	3414
85	1	1	1989	5	185	375	3414
86	1	1	2088	5	185	376	3416
87	1	1	2185	5	184	376	3416
88	1	1	2255	5	183	376	3415
89	1	1	2286	5	182	375	3414
90	1	1	2272	5	182	376	3411
91	1	1	2230	4	182	376	3411
92	1	1	2158	4	181	375	3411
93	1	1	2107	4	181	376	3412
94	1	1	2070	4	182	375	3414
95	1	1	2051	4	181	376	3414
96	1	1	2029	4	184	375	3415
97	1	1	2003	4	184	375	3415
98	1	1	1982	4	184	375	3415
99	1	1	1933	4	185	375	3414
100	1	1	1848	4	185	375	3411
101	1	1	1786	4	186	375	3411
102	1	1	1804	5	185	375	3411
103	1	1	1853	5	186	376	3412
104	1	1	1929	5	186	375	3414
105	1	1	2033	5	185	375	3414
106	1	1	2104	5	185	375	3415
107	1	1	2122	4	183	375	3415
108	1	1	2134	5	183	375	3415
109	1	1	2142	5	182	375	3414
110	1	1	2131	5	182	375	3411
111	1	1	2137	5	181	375	3411
112	1	1	2121	4	181	376	3411
113	1	1	2060	4	182	376	3413
114	1	1	2038	4	181	375	3414
115	1	1	2025	4	183	375	3415
116	1	1	1982	4	182	375	3415
117	1	1	1915	4	183	375	3415
118	1	1	1871	4	184	376	3415
119	1	1	1862	4	184	375	3414
120	1	1	1842	4	185	376	3411
121	1	1	1830	4	186	375	3410
122	1	1	1861	5	187	376	3411
123	1	1	1903	5	187	375	3412
124	1	1	1941	5	186	375	3414
125	1	1	1998	5	186	375	3414
126	1	1	2081	5	184	375	3415
127	1	1	2155	5	184	376	3415
0	1	1	2183	5	183	375	3415
1	1	1	2199	5	181	375	3414
2	1	1	2212	5	182	375	3412
3	1	1	2208	4	182	375	3411
4	1	1	2173	4	182	375	3411
5	1	1	2140	5	182	375	3412
6	1	1	2106	4	182	375	3414
7	1	1	2073	4	183	375	3414
8	1	1	2049	4	182	375	3415
9	1	1	2035	4	183	375	3415
10	1	1	2013	4	184	375	3415
11	1	1	1962	4	184	375	3414
12	1	1	1894	4	186	376	3412
13	1	1	1830	4	185	376	3410
14	1	1	1819	5	185	375	3411
15	1	1	1837	5	186	376	3413
16	1	1	1868	5	186	375	3414
17	1	1	1938	5	185	375	3415
18	1	1	2011	4	183	375	3415
19	1	1	2075	5	184	375	3416
20	1	1	2149	5	182	375	3416
21	1	1	2196	5	183	375	3414
22	1	1	2222	5	182	376	3412
23	1	1	2232	7	182	376	3410
24	1	1	2206	4	181	375	3411
25	1	1	2162	4	181	376	3413
26	1	1	2111	4	182	376	3414
27	1	1	2049	4	181	376	3414
28	1	1	1988	4	184	375	3415
29	1	1	1958	4	183	375	3415
30	1	1	1939	4	184	375	3415
31	1	1	1924	4	185	375	3414
32	1	1	1903	4	185	376	3411
33	1	1	1873	4	187	375	3410
34	1	1	1876	5	186	376	3411
35	1	1	1881	5	185	376	3412
36	1	1	1883	5	184	375	3414
37	1	1	1933	5	185	376	3414
38	1	1	2011	5	184	375	3416
39	1	1	2089	5	184	375	3415
40	1	1	2154	5	183	377	3415
41	1	1	2181	5	183	375	3414
42	1	1	2157	4	183	376	3411
43	1	1	2136	4	181	375	3411
44	1	1	2104	4	181	375	3411
45	1	1	2098	4	181	376	3413
46	1	1	2115	5	181	376	3414
47	1	1	2124	5	182	375	3414
48	1	1	2109	4	184	375	3415
49	1	1	2071	4	184	375	3415
50	1	1	2028	4	185	376	3415
51	1	1	1980	4	185	376	3414
52	1	1	1916	4	186	375	3411
53	1	1	1869	4	187	375	3410
54	1	1	1869	5	186	375	3411
55	1	1	1883	5	186	375	3412
56	1	1	1933	5	185	375	3414
57	1	1	1995	5	184	376	3414
58	1	1	2052	5	185	375	3416
59	1	1	2106	5	184	375	3415
60	1	1	2140	5	183	376	3415
61	1	1	2164	5	183	376	3414
62	1	1	2197	5	182	375	3411
63	1	1	2228	5	181	375	3411
64	1	1	2193	4	181	375	3411
65	1	1	2106	4	182	376	3412
66	1	1	2034	4	181	375	3414
67	1	1	2017	5	183	375	3414
68	1	1	2021	5	182	376	3416
69	1	1	2018	5	184	375	3415
70	1	1	1987	4	183	376	3415
71	1	1	1941	4	184	375	3414
72	1	1	1875	4	185	375	3411
73	1	1	1815	4	186	375	3410
74	1	1	1809	5	186	376	3411
75	1	1	1836	5	185	376	3413
76	1	1	1889	5	185	376	3414
77	1	1	1971	5	185	375	3414
78	1	1	2045	5	185	375	3415
79	1	1	2090	5	184	375	3415
80	1	1	2136	4	183	376	3415
81	1	1	2201	5	182	376	3414
82	1	1	2253	5	182	375	3411
83	1	1	2262	5	183	375	3411
84	1	1	2229	4	182	375	3411
85	1	1	2162	4	181	376	3412
86	1	1	2096	4	182	375	3414
87	1	1	2044	4	182	376	3414
88	1	1	2003	4	183	375	3415
89	1	1	1958	4	184	375	3415
90	1	1	1907	4	184	375	3415
91	1	1	1846	4	184	375	3414
92	1	1	1770	4	185	375	3411
93	1	1	1711	4	186	375	3411
94	1	1	1735	5	186	375	3412
95	1	1	1807	6	186	375	3412
96	1	1	1885	5	186	375	3414
97	1	1	1950	5	185	376	3415
98	1	1	2003	5	185	375	3415
99	1	1	2061	4	183	375	3416
100	1	1	2116	5	183	375	3416
101	1	1	2129	5	182	375	3414
102	1	1	2157	5	182	375	3411
103	1	1	2204	5	183	376	3412
104	1	1	2200	4	181	375	3411
105	1	1	2163	4	181	375	3413
106	1	1	2153	5	180	375	3414
107	1	1	2129	4	183	375	3414
108	1	1	2073	4	183	375	3415
109	1	1	2022	4	184	375	3415
110	1	1	2001	4	184	376	3414
111	1	1	1982	4	185	376	3414
112	1	1	1934	4	185	376	3412
113	1	1	1876	4	186	375	3411
114	1	1	1889	3	187	375	3411
115	1	1	1959	4	186	376	3412
116	1	1	2042	5	186	376	3414
117	1	1	2117	5	184	375	3414
118	1	1	2170	5	184	375	3415
119	1	1	2199	4	184	375	3416
120	1	1	2202	5	184	376	3415
121	1	1	2195	5	182	375	3414
122	1	1	2168	4	181	375	3411
123	1	1	2162	5	182	375	3411
124	1	1	2142	3	182	376	3412
125	1	1	2123	5	182	375	3413
126	1	1	2133	5	182	375	3414
127	1	1	2141	5	182	375	3415
0	1	1	2098	5	184	375	3415
1	1	1	2032	4	184	375	3415
2	1	1	1972	4	184	376	3415
3	1	1	1937	4	184	375	3414
4	1	1	1906	4	186	375	3411
5	1	1	1876	4	186	376	3410
6	1	1	1900	5	185	376	3411
7	1	1	1931	5	187	375	3412
8	1	1	1961	5	185	376	3414
9	1	1	2000	5	185	375	3414
10	1	1	2022	5	184	375	3415
11	1	1	2058	5	183	376	3415
12	1	1	2112	5	184	375	3415
13	1	1	2168	5	182	375	3415
14	1	1	2181	5	182	376	3411
15	1	1	2172	5	182	375	3411
16	1	1	2163	5	182	376	3412
17	1	1	2149	5	182	375	3412
18	1	1	2136	5	182	375	3414
19	1	1	2111	4	183	376	3415
20	1	1	2064	5	183	375	3415
21	1	1	2012	3	184	375	3415
22	1	1	1967	4	184	375	3415
23	1	1	1931	4	185	375	3414
24	1	1	1884	4	187	376	3411
25	1	1	1853	4	187	375	3411
26	1	1	1885	5	186	376	3411
27	1	1	1921	5	187	376	3412
28	1	1	1945	5	185	376	3413
29	1	1	1982	6	184	375	3414
30	1	1	2020	5	183	375	3416
31	1	1	2050	5	183	375	3416
32	1	1	2079	5	184	375	3415
33	1	1	2095	5	183	376	3414
34	1	1	2089	5	182	376	3412
35	1	1	2095	4	181	375	3410
36	1	1	2089	5	182	375	3411
37	1	1	2088	5	181	376	3412
38	1	1	2097	5	182	376	3414
39	1	1	2085	5	183	375	3414
40	1	1	2053	4	182	375	3415
41	1	1	2031	4	184	375	3415
42	1	1	2015	4	184	376	3415
43	1	1	1979	4	184	375	3414
44	1	1	1916	4	186	375	3411
45	1	1	1860	4	186	376	3410
46	1	1	1837	5	186	375	3411
47	1	1	1838	5	186	375	3413
48	1	1	1863	5	185	376	3413
49	1	1	1930	5	185	375	3414
50	1	1	2004	5	185	376	3415
51	1	1	2091	5	183	375	3415
52	1	1	2186	5	183	375	3415
53	1	1	2272	5	182	376	3414
54	1	1	2291	5	181	375	3411
55	1	1	2256	4	180	375	3411
56	1	1	2190	5	182	375	3411
57	1	1	2107	4	182	376	3413
58	1	1	2021	4	182	376	3414
59	1	1	1957	4	182	376	3414
60	1	1	1934	5	184	375	3415
61	1	1	1930	5	183	375	3415
62	1	1	1935	5	184	375	3416
63	1	1	1915	4	184	375	3414
64	1	1	1861	4	186	375	3411
65	1	1	1796	4	186	375	3410
66	1	1	1790	4	185	376	3411
67	1	1	1807	5	186	376	3412
68	1	1	1854	5	185	376	3414
69	1	1	1972	5	185	375	3414
70	1	1	2059	5	185	375	3416
71	1	1	2103	5	184	376	3415
72	1	1	2124	5	184	375	3415
73	1	1	2125	5	183	375	3414
74	1	1	2142	5	183	375	3411
75	1	1	2181	5	182	375	3411
76	1	1	2188	4	181	375	3411
77	1	1	2162	4	182	376	3412
78	1	1	2127	4	182	375	3413
79	1	1	2103	5	181	375	3414
80	1	1	2068	4	183	375	3415
81	1	1	2018	3	185	376	3416
82	1	1	1966	4	184	376	3415
83	1	1	1925	4	185	376	3414
84	1	1	1889	4	185	376	3411
85	1	1	1852	4	187	375	3411
86	1	1	1877	5	186	375	3411
87	1	1	1936	4	187	376	3412
88	1	1	2013	5	185	376	3414
89	1	1	2106	5	184	375	3414
90	1	1	2163	5	184	375	3416
91	1	1	2195	5	183	375	3415
92	1	1	2224	5	183	375	3415
93	1	1	2260	5	183	375	3414
94	1	1	2302	5	181	376	3412
95	1	1	2351	5	181	375	3410
96	1	1	2370	5	181	375	3411
97	1	1	2319	4	181	376	3413
98	1	1	2264	4	181	376	3414
99	1	1	2202	4	182	375	3414
100	1	1	2125	4	183	375	3416
101	1	1	2060	4	184	375	3415
102	1	1	1995	4	184	375	3415
103	1	1	1927	4	185	376	3414
104	1	1	1861	4	186	375	3411
105	1	1	1820	4	186	375	3410
106	1	1	1838	5	187	375	3411
107	1	1	1865	4	186	377	3412
108	1	1	1889	5	185	375	3414
109	1	1	1935	5	186	375	3414
110	1	1	1974	5	185	375	3416
111	1	1	1994	5	183	376	3416
112	1	1	2011	5	183	375	3415
113	1	1	2027	5	182	375	3414
114	1	1	2031	5	182	375	3411
115	1	1	2023	4	181	375	3411
116	1	1	1974	4	183	375	3411
117	1	1	1915	4	182	375	3412
118	1	1	1894	4	181	376	3414
119	1	1	1878	4	182	375	3415
120	1	1	1841	4	183	376	3415
121	1	1	1801	4	184	375	3415
122	1	1	1782	4	184	376	3415
123	1	1	1774	5	185	375	3414
124	1	1	1753	5	185	376	3412
125	1	1	1745	5	187	376	3411
126	1	1	1774	5	187	376	3411
127	1	1	1807	5	185	376	3412
0	1	1	1841	5	185	376	3414
1	1	1	1936	5	184	375	3414
2	1	1	2058	5	184	375	3415
3	1	1	2143	5	183	375	3415
4	1	1	2194	5	182	375	3415
5	1	1	2202	5	182	376	3414
6	1	1	2144	4	183	375	3411
7	1	1	2081	4	182	375	3411
8	1	1	2051	4	182	376	3412
9	1	1	2068	4	182	375	3412
10	1	1	2081	4	182	376	3414
11	1	1	2049	4	183	376	3414
12	1	1	1995	4	183	375	3416
13	1	1	1948	4	183	376	3415
14	1	1	1896	4	184	375	3415
15	1	1	1829	4	185	376	3414
16	1	1	1770	4	186	375	3412
17	1	1	1726	4	188	375	3410
18	1	1	1734	5	187	375	3411
19	1	1	1778	5	185	375	3412
20	1	1	1860	5	186	376	3413
21	1	1	1943	5	184	375	3414
22	1	1	2032	5	185	375	3415
23	1	1	2110	4	184	376	3416
24	1	1	2152	4	183	375	3415
25	1	1	2184	5	182	375	3414
26	1	1	2213	5	183	375	3411
27	1	1	2240	5	182	375	3411
28	1	1	2184	5	182	375	3411
29	1	1	2078	4	182	375	3413
30	1	1	1968	4	182	375	3414
31	1	1	1891	3	182	375	3414
32	1	1	1833	4	184	375	3415
33	1	1	1802	4	183	376	3415
34	1	1	1818	4	184	376	3415
35	1	1	1865	5	185	376	3414
36	1	1	1870	4	185	375	3411
37	1	1	1841	5	186	375	3410
38	1	1	1853	5	185	376	3411
39	1	1	1906	5	186	376	3412
40	1	1	1976	5	186	375	3414
41	1	1	2035	5	185	376	3414
42	1	1	2091	5	185	375	3416
43	1	1	2158	5	184	376	3416
44	1	1	2199	5	183	375	3415
45	1	1	2223	5	182	376	3414
46	1	1	2193	4	181	375	3411
47	1	1	2154	4	181	376	3410
48	1	1	2120	6	182	376	3411
49	1	1	2118	5	181	376	3413
50	1	1	2140	5	182	376	3413
51	1	1	2132	5	182	375	3414
52	1	1	2084	4	182	376	3415
53	1	1	2015	4	182	375	3415
54	1	1	1933	4	183	376	3414
55	1	1	1871	4	184	375	3414
56	1	1	1828	4	185	376	3411
57	1	1	1805	4	186	374	3411
58	1	1	1837	5	186	376	3411
59	1	1	1890	5	186	376	3413
60	1	1	1943	5	185	376	3414
61	1	1	2004	5	184	376	3414
62	1	1	2082	5	183	376	3416
63	1	1	2161	5	184	376	3416
64	1	1	2180	5	183	375	3415
65	1	1	2163	4	182	376	3414
66	1	1	2142	5	182	376	3411
67	1	1	2139	5	182	375	3411
68	1	1	2151	6	181	375	3411
69	1	1	2189	5	183	376	3412
70	1	1	2206	5	182	376	3414
71	1	1	2187	4	182	375	3414
72	1	1	2151	5	183	375	3415
73	1	1	2134	5	184	375	3415
74	1	0	2122	5	184	376	3416
75	1	0	2111	4	185	375	3414
76	1	0	2048	4	186	375	3412
77	1	0	1955	4	186	376	3411
78	1	0	1921	5	187	376	3411
79	1	0	1930	5	187	376	3413
80	1	0	1980	5	185	375	3413
81	1	0	2059	5	185	375	3414
82	1	0	2116	5	184	376	3415
83	1	0	2168	4	184	375	3415
84	1	0	2210	5	183	375	3415
85	1	0	2251	5	183	375	3414
86	1	0	2264	5	182	376	3411
87	1	0	2257	5	181	376	3412
88	1	0	2232	4	182	375	3411
89	1	0	2193	4	181	376	3412
90	1	0	2144	4	182	376	3414
91	1	0	2073	4	182	375	3414
92	1	0	1993	4	183	374	3416
93	1	0	1955	4	183	376	3416
94	1	0	1947	4	184	376	3415
95	1	0	1932	4	185	375	3414
96	1	0	1887	4	185	375	3411
97	1	0	1857	5	185	376	3411
98	1	0	1913	5	186	375	3411
99	1	0	2002	5	185	376	3412
100	1	0	2081	5	185	375	3413
101	1	0	2153	5	185	375	3414
102	1	0	2197	5	184	375	3415
103	1	0	2195	5	183	376	3415
104	1	0	2177	4	182	376	3415
105	1	0	2182	5	182	375	3414
106	1	0	2197	5	182	376	3411
107	0	0	2217	5	181	375	3410
108	0	0	2212	5	182	375	3411
109	0	0	2189	4	182	375	3413
110	0	0	2173	4	182	376	3413
111	0	0	2147	4	183	375	3414
112	0	0	2123	5	183	375	3415
113	0	0	2101	5	183	375	3415
114	0	0	2038	4	185	376	3414
115	0	0	1972	4	185	375	3414
116	0	0	1910	4	186	375	3411
117	0	0	1853	3	187	375	3410
118	0	0	1884	6	186	376	3411
119	0	0	1953	5	186	376	3413
120	0	0	1997	5	185	375	3413
121	0	0	2031	5	185	376	3415
122	0	0	2060	4	185	375	3414
123	0	0	2068	5	184	375	3415
124	0	0	2068	5	183	376	3414
125	0	0	2069	5	182	375	3414
126	0	0	2113	4	182	375	3412
127	0	0	2200	5	183	375	3411
0	0	0	2280	5	183	375	3411
1	0	0	2333	5	182	376	3412
2	0	0	2319	4	182	376	3413
3	0	0	2256	4	182	375	3414
4	0	0	2182	4	183	376	3416
5	0	0	2115	4	184	376	3415
6	0	0	2077	4	185	375	3414
7	0	0	2071	5	185	376	3413
8	0	0	2039	4	187	375	3411
9	0	0	1989	4	185	376	3411
10	0	0	1969	4	186	375	3411
11	0	0	1961	5	186	375	3412
12	0	0	1986	5	185	375	3414
13	0	0	2056	5	185	376	3414
14	0	0	2135	5	184	375	3415
15	0	0	2185	5	185	375	3415
16	0	0	2225	5	184	375	3414
17	0	0	2266	5	182	375	3414
18	0	0	2306	5	182	376	3411
19	0	0	2331	4	180	375	3410
20	0	0	2296	5	181	375	3411
21	0	0	2250	4	182	375	3412
22	0	0	2191	4	183	375	3413
23	0	0	2132	4	183	375	3414
24	0	0	2082	3	182	375	3415
25	0	0	2046	5	184	376	3415
26	0	0	2007	4	184	375	3414
27	0	0	1971	4	185	376	3413
28	0	0	1931	4	185	375	3411
29	0	0	1915	5	186	376	3411
30	0	0	1962	5	186	375	3412
31	0	0	1992	5	184	375	3412
32	0	0	2009	5	186	374	3413
33	0	0	2052	5	185	375	3415
34	0	0	2102	5	183	376	3415
35	0	0	2168	5	184	375	3415
36	0	0	2221	5	184	376	3416
37	0	0	2240	5	182	375	3414
38	0	0	2242	6	182	376	3412
39	0	0	2236	4	181	375	3410
40	0	0	2189	4	182	375	3411
41	0	0	2163	5	182	376	3412
42	0	0	2164	5	183	375	3413
43	0	0	2158	4	183	374	3414
44	0	0	2126	4	183	375	3415
45	0	0	2083	5	184	375	3415
46	0	0	2025	4	184	375	3414
47	0	0	1985	4	185	375	3414
48	0	0	1963	4	186	375	3411
49	0	0	1952	5	186	375	3411
50	0	0	1973	5	186	375	3412
51	0	0	1979	5	185	375	3412
52	0	0	1969	5	185	376	3414
53	0	0	2000	5	185	375	3414
54	0	0	2064	5	184	375	3415
55	0	0	2125	5	184	375	3415
56	0	0	2184	5	183	376	3414
57	0	0	2237	6	183	375	3414
58	0	0	2262	5	182	376	3411
59	0	0	2260	4	182	375	3410
60	0	0	2215	4	183	375	3411
61	0	0	2161	5	183	375	3413
62	0	0	2115	4	182	376	3413
63	0	0	2059	4	182	375	3414
64	0	0	2003	5	183	375	3415
65	0	0	1950	5	183	375	3415
66	0	0	1907	4	185	376	3415
67	0	0	1887	5	185	375	3414
68	0	0	1900	5	185	375	3412
69	0	0	1921	5	185	376	3410
70	0	0	1960	5	187	375	3411
71	0	0	1999	5	186	376	3412
72	0	0	2004	5	185	375	3413
73	0	0	2003	5	186	375	3415
74	0	0	2009	5	183	376	3415
75	0	0	2046	6	184	376	3415
76	0	0	2111	5	183	376	3415
77	0	0	2171	5	184	375	3414
78	0	0	2206	5	182	375	3411
79	0	0	2239	5	181	375	3411
80	0	0	2217	4	182	375	3411
81	0	0	2154	4	181	375	3412
82	0	0	2080	4	182	375	3413
83	0	0	2014	4	182	375	3414
84	0	0	1968	4	183	375	3415
85	0	0	1932	5	184	376	3415
86	0	0	1905	4	184	376	3414
87	0	0	1910	5	184	375	3414
88	0	0	1908	4	186	375	3411
89	0	0	1880	4	186	376	3410
90	0	0	1889	5	186	376	3411
91	0	0	1909	5	186	375	3413
92	0	0	1968	5	185	375	3413
93	0	0	2101	4	185	376	3415
94	0	0	2219	5	185	375	3415
95	0	0	2243	6	183	375	3415
96	0	0	2206	4	183	375	3416
97	0	0	2132	4	183	376	3414
98	0	0	2088	4	182	375	3411
99	0	0	2107	5	181	376	3411
100	0	0	2125	5	182	376	3411
101	0	0	2116	5	181	375	3412
102	0	0	2095	4	183	375	3413
103	0	0	2034	4	183	375	3414
104	0	0	1984	4	182	375	3415
105	0	0	1919	4	183	376	3415
106	0	0	1840	4	184	376	3414
107	0	0	1799	4	184	375	3414
108	0	0	1782	4	185	375	3411
109	0	0	1798	5	185	376	3411
110	0	0	1863	5	186	376	3412
111	0	0	1917	5	185	376	3412
112	0	0	1958	5	185	376	3414
113	0	0	2004	5	184	376	3414
114	0	0	2056	5	184	376	3416
115	0	0	2094	5	183	375	3416
116	0	0	2115	5	183	375	3415
117	0	0	2126	4	182	376	3415
118	0	0	2139	5	182	375	3411
119	0	0	2169	5	181	375	3411
120	0	0	2173	5	181	376	3411
121	0	0	2148	4	182	375	3412
122	0	0	2124	4	182	374	3414
123	0	0	2105	4	182	376	3415
124	0	0	2074	4	183	376	3415
125	0	0	2031	4	184	375	3416
126	0	0	2011	4	184	376	3416
127	0	0	1978	4	185	375	3414
0	0	0	1922	3	185	375	3412
1	0	0	1866	4	186	376	3411
2	0	0	1853	5	185	376	3411
3	0	0	1856	5	186	376	3412
4	0	0	1873	5	185	374	3413
5	0	0	1931	5	185	376	3414
6	0	0	2013	5	183	376	3415
7	0	0	2097	5	184	376	3415
8	0	0	2165	5	183	375	3415
9	0	0	2199	5	182	376	3414
10	0	0	2214	5	182	375	3411
11	0	0	2216	4	181	375	3412
12	0	0	2176	4	182	375	3412
13	0	0	2134	5	181	375	3412
14	0	0	2095	4	182	374	3413
15	0	0	2070	4	182	375	3414
16	0	0	2053	4	182	375	3416
17	0	0	2012	4	183	376	3415
18	0	0	1952	5	183	375	3415
19	0	0	1881	4	184	375	3414
20	0	0	1818	4	186	376	3411
21	0	0	1787	5	186	376	3411
22	0	0	1810	5	184	375	3411
23	0	0	1856	5	185	376	3413
24	0	0	1917	5	185	374	3414
25	0	0	1988	5	185	376	3414
26	0	0	2040	5	185	376	3416
27	0	0	2084	5	184	376	3415
28	0	0	2134	5	183	375	3415
29	0	0	2185	5	183	376	3414
30	0	0	2238	5	182	375	3411
31	0	0	2265	5	183	375	3411
32	0	0	2235	4	181	375	3411
33	0	0	2189	4	182	375	3412
34	0	0	2147	4	182	376	3414
35	0	0	2108	3	182	375	3415
36	0	0	2072	4	184	376	3415
37	0	0	2023	4	183	376	3415
38	0	0	1981	4	185	375	3415
39	0	0	1939	4	184	376	3415
40	0	0	1885	4	185	376	3411
41	0	0	1851	5	187	375	3411
42	0	0	1868	5	185	376	3411
43	0	0	1892	5	186	376	3412
44	0	0	1912	5	186	375	3414
45	0	0	1988	5	186	376	3414
46	0	0	2107	5	184	375	3416
47	0	0	2205	5	183	376	3416
48	0	0	2257	4	183	375	3415
49	0	0	2260	5	183	375	3414
50	0	0	2227	4	182	375	3411
51	0	0	2209	4	183	376	3411
52	0	0	2182	4	181	376	3411
53	0	0	2137	4	182	375	3412
54	0	0	2077	4	182	376	3414
55	0	0	2031	4	183	375	3414
56	0	0	2002	4	183	375	3415
57	0	0	1987	5	184	376	3416
58	0	0	1988	5	184	376	3415
59	0	0	1989	4	185	375	3414
60	0	0	1948	3	186	376	3412
61	0	0	1902	4	187	376	3411
62	0	0	1906	5	186	376	3411
63	0	0	1912	5	186	376	3413
64	0	0	1931	5	185	376	3413
65	0	0	1972	5	185	375	3414
66	0	0	2043	5	184	376	3415
67	0	0	2111	5	184	376	3416
68	0	0	2166	4	184	376	3415
69	0	0	2188	4	183	376	3415
70	0	0	2201	4	183	375	3411
71	0	0	2240	5	183	376	3411
72	0	0	2275	5	182	375	3412
73	0	0	2287	5	182	376	3412
74	0	0	2255	4	181	375	3413
75	0	0	2213	4	182	375	3414
76	0	0	2162	3	183	376	3416
77	0	0	2079	4	184	376	3415
78	0	0	1990	3	184	376	3415
79	0	0	1922	4	185	375	3414
80	0	0	1846	3	187	375	3411
81	0	0	1762	5	185	375	3411
82	0	0	1785	5	185	375	3411
83	0	0	1843	5	186	376	3413
84	0	0	1896	5	185	375	3414
85	0	0	1978	5	185	375	3414
86	0	0	2067	5	184	375	3415
87	0	0	2133	5	184	376	3415
88	0	0	2177	6	183	375	3415
89	0	0	2204	5	183	375	3414
90	0	0	2233	4	183	375	3411
91	0	0	2260	5	181	375	3411
92	0	0	2263	5	182	376	3412
93	0	0	2252	4	181	375	3413
94	0	0	2211	4	182	375	3413
95	0	0	2130	4	183	375	3414
96	0	0	2045	4	183	375	3415
97	0	0	1998	5	185	376	3416
98	0	0	1981	5	185	375	3415
99	0	0	1956	4	185	375	3414
100	0	0	1908	3	185	375	3411
101	0	0	1841	4	185	376	3410
102	0	0	1840	5	185	376	3412
103	0	0	1903	5	186	375	3412
104	0	0	1987	5	185	375	3413
105	0	0	2070	5	185	376	3414
106	0	0	2140	5	184	375	3415
107	0	0	2191	6	183	375	3416
108	0	0	2205	5	183	375	3415
109	0	0	2204	5	183	375	3414
110	0	0	2200	4	183	375	3411
111	0	0	2205	5	181	375	3410
112	0	0	2188	4	182	375	3411
113	0	0	2154	4	182	375	3412
114	0	0	2122	4	183	375	3414
115	0	0	2098	4	183	376	3414
116	0	0	2066	5	183	375	3415
117	0	0	1994	4	183	375	3415
118	0	0	1913	5	184	376	3415
119	0	0	1896	5	185	375	3414
120	0	0	1911	5	186	375	3411
121	0	0	1933	5	186	375	3411
122	0	0	1996	5	186	375	3411
123	0	0	2025	5	184	375	3412
124	0	0	2033	5	186	375	3414
125	0	0	2093	5	185	375	3415
126	0	0	2150	5	184	375	3416
127	0	0	2171	5	183	375	3415
0	0	0	2202	5	183	375	3416
1	0	0	2234	5	182	375	3414
2	0	0	2222	4	181	375	3412
3	0	0	2210	5	182	375	3411
4	0	0	2205	5	181	375	3411
5	0	0	2211	5	182	375	3413
6	0	0	2199	4	183	375	3414
7	0	0	2156	4	182	375	3414
8	0	0	2139	5	183	375	3416
9	0	0	2146	5	184	375	3416
10	0	0	2119	4	183	375	3415
11	0	0	2031	3	183	375	3414
12	0	0	1925	3	186	376	3412
13	0	0	1836	4	187	376	3411
14	0	0	1809	5	185	375	3411
15	0	0	1836	5	185	376	3412
16	0	0	1874	5	186	376	3413
17	0	0	1940	5	185	375	3414
18	0	0	2035	5	184	376	3415
19	0	0	2115	5	182	375	3415
20	0	0	2178	5	183	375	3415
21	0	0	2217	5	183	375	3414
22	0	0	2215	5	183	375	3411
23	0	0	2208	6	182	375	3410
24	0	0	2188	4	181	375	3411
25	0	0	2169	4	182	375	3412
26	0	0	2146	4	183	376	3414
27	0	0	2095	5	183	375	3414
28	0	0	2043	4	183	376	3416
29	0	0	2007	4	184	376	3416
30	0	0	1971	4	184	375	3415
31	0	0	1932	4	184	376	3414
32	0	0	1877	3	185	375	3411
33	0	0	1834	4	186	376	3411
34	0	0	1855	5	184	375	3411
35	0	0	1887	4	186	376	3412
36	0	0	1930	5	185	375	3413
37	0	0	1972	5	184	375	3414
38	0	0	2021	5	184	375	3415
39	0	0	2087	5	184	375	3415
40	0	0	2149	4	183	375	3415
41	0	0	2179	5	183	375	3414
42	0	0	2189	5	182	375	3411
43	0	0	2204	5	181	375	3411
44	0	0	2193	4	181	375	3411
45	0	0	2173	4	182	376	3413
46	0	0	2139	4	182	375	3413
47	0	0	2076	4	182	375	3415
48	0	0	1979	4	183	376	3415
49	0	0	1886	4	183	375	3415
50	0	0	1833	3	184	375	3415
51	0	0	1805	4	185	375	3414
52	0	0	1768	4	185	376	3411
53	0	0	1743	5	186	376	3410
54	0	0	1771	5	186	375	3411
55	0	0	1831	5	187	375	3412
56	0	0	1916	5	185	376	3413
57	0	0	2043	4	184	377	3414
58	0	0	2174	5	185	376	3415
59	0	0	2248	5	184	375	3415
60	0	0	2249	4	183	375	3415
61	0	0	2206	4	183	375	3414
62	0	0	2187	5	182	375	3411
63	0	0	2225	5	182	375	3411
64	0	0	2273	5	182	375	3412
65	0	0	2286	5	181	375	3412
66	0	0	2273	4	183	376	3414
67	0	0	2213	5	182	375	3414
68	0	0	2129	4	183	375	3416
69	0	0	2038	4	183	375	3416
70	0	0	1962	4	183	375	3415
71	0	0	1937	5	184	375	3414
72	0	0	1924	4	186	375	3411
73	0	0	1883	4	186	375	3410
74	0	0	1869	5	186	375	3411
75	0	0	1874	5	186	375	3412
76	0	0	1910	5	186	375	3413
77	0	0	2004	5	185	375	3414
78	0	0	2104	5	184	375	3415
79	0	0	2171	5	184	376	3416
80	0	0	2208	5	182	375	3416
81	0	0	2249	5	182	375	3414
82	0	0	2289	5	181	375	3412
83	0	0	2306	5	184	375	3411
84	0	0	2289	4	182	375	3411
85	0	0	2262	4	182	376	3413
86	0	0	2206	4	183	375	3413
87	0	0	2131	4	183	376	3414
88	0	0	2082	4	183	375	3415
89	0	0	2048	5	183	375	3415
90	0	0	2007	4	184	376	3415
91	0	0	1975	4	185	375	3414
92	0	0	1941	4	186	376	3411
93	0	0	1924	5	185	375	3411
94	0	0	1944	5	185	376	3412
95	0	0	1980	5	186	376	3412
96	0	0	2033	5	185	375	3413
97	0	0	2115	5	184	376	3415
98	0	0	2192	5	185	375	3415
99	0	0	2260	5	184	375	3415
100	0	0	2309	5	182	375	3415
101	0	0	2334	5	183	375	3414
102	0	0	2340	5	182	375	3411
103	0	0	2332	4	182	376	3411
104	0	0	2290	4	181	375	3411
105	0	0	2254	4	183	375	3412
106	0	0	2230	4	183	376	3414
107	0	0	2204	5	183	375	3414
108	0	0	2172	4	183	375	3416
109	0	0	2123	4	184	375	3416
110	0	0	2071	4	184	375	3415
111	0	0	2028	4	184	375	3415
112	0	0	1973	4	186	375	3411
113	0	0	1901	4	186	375	3411
114	0	0	1853	4	186	376	3411
115	0	0	1838	5	186	376	3413
116	0	0	1868	5	185	375	3414
117	0	0	1946	5	185	375	3414
118	0	0	2006	5	184	375	3415
119	0	0	2014	5	183	375	3415
120	0	0	2011	5	182	375	3415
121	0	0	1997	4	182	375	3413
122	0	0	1996	5	181	375	3411
123	0	0	2012	5	182	375	3410
124	0	0	2010	5	181	375	3411
125	0	0	1990	4	182	376	3412
126	0	0	1973	5	182	376	3414
127	0	0	1975	5	183	375	3414
0	0	0	1982	4	183	375	3416
1	0	0	1951	4	184	375	3416
2	0	0	1897	4	184	376	3415
3	0	0	1840	4	186	375	3414
4	0	0	1788	4	185	375	3411
5	0	0	1754	4	185	375	3411
6	0	0	1776	4	186	375	3411
7	0	0	1842	4	185	375	3412
8	0	0	1920	5	185	375	3414
9	0	0	1995	5	185	376	3414
10	0	0	2043	5	185	375	3415
11	0	0	2094	5	184	375	3415
12	0	0	2139	4	183	376	3415
13	0	0	2181	5	181	375	3414
14	0	0	2235	5	182	375	3411
15	0	0	2252	5	182	375	3411
16	0	0	2207	4	182	376	3411
17	0	0	2142	3	182	376	3412
18	0	0	2082	4	183	376	3414
19	0	0	2027	5	181	375	3414
20	0	0	1984	4	183	375	3416
21	0	0	1949	4	183	375	3416
22	0	0	1928	4	183	375	3415
23	0	0	1905	4	185	376	3414
24	0	0	1869	5	186	375	3411
25	0	0	1829	4	186	375	3411
26	0	0	1852	5	186	375	3412
27	0	0	1904	5	186	375	3412
28	0	0	1942	5	186	375	3413
29	0	0	1991	5	185	375	3414
30	0	0	2018	5	185	375	3416
31	0	0	2031	5	184	376	3415
32	0	0	2068	4	183	375	3415
33	0	0	2095	5	182	375	3414
34	0	0	2125	5	182	375	3411
35	0	0	2180	5	182	376	3411
36	0	0	2208	5	181	375	3412
37	0	0	2196	3	182	375	3412
38	0	0	2159	4	182	375	3413
39	0	0	2107	4	183	375	3414
40	0	0	2058	4	184	376	3415
41	0	0	2020	4	184	376	3416
42	0	0	1987	3	184	375	3415
43	0	0	1967	4	184	375	3413
44	0	0	1937	4	187	375	3412
45	0	0	1884	5	188	375	3410
46	0	0	1882	5	187	376	3411
47	0	0	1900	5	187	375	3413
48	0	0	1943	5	186	376	3413
49	0	0	2027	5	185	375	3415
50	0	0	2102	5	185	376	3415
51	0	0	2153	5	184	376	3415
52	0	0	2192	5	182	376	3416
53	0	0	2229	5	182	375	3413
54	0	0	2302	4	182	375	3411
55	0	0	2352	5	180	376	3411
56	0	0	2337	4	180	375	3412
57	0	0	2297	4	180	376	3412
58	0	0	2267	5	182	375	3413
59	0	0	2223	4	182	375	3414
60	0	0	2150	5	183	375	3416
61	0	0	2055	4	184	376	3415
62	0	0	1971	4	184	375	3416
63	0	0	1900	4	185	375	3413
64	0	0	1807	3	187	375	3411
65	0	0	1759	5	187	375	3410
66	0	0	1809	5	186	376	3411
67	0	0	1862	4	186	376	3412
68	0	0	1897	5	186	376	3413
69	0	0	1954	5	185	375	3414
70	0	0	2033	5	185	375	3416
71	0	0	2131	5	183	376	3416
72	0	0	2192	4	183	376	3415
73	0	0	2211	5	181	376	3413
74	0	0	2243	6	181	375	3411
75	0	0	2266	4	181	376	3411
76	0	0	2248	4	181	376	3411
77	0	0	2227	4	181	376	3413
78	0	0	2197	4	181	375	3413
79	0	0	2154	4	182	375	3414
80	0	0	2105	4	182	375	3416
81	0	0	2086	4	183	376	3416
82	0	0	2057	4	184	376	3415
83	0	0	1990	4	185	375	3413
84	0	0	1882	5	186	375	3411
85	0	0	1794	5	188	375	3411
86	0	0	1769	5	188	376	3411
87	0	0	1812	5	186	376	3413
88	0	0	1879	5	186	376	3413
89	0	0	1959	4	186	375	3414
90	0	0	2040	5	184	375	3415
91	0	0	2123	5	183	375	3415
92	0	0	2181	4	183	375	3415
93	0	0	2227	5	181	375	3414
94	0	0	2310	5	181	375	3411
95	0	0	2370	5	180	375	3411
96	0	0	2367	4	181	375	3412
97	0	0	2333	4	181	375	3412
98	0	0	2297	4	182	375	3413
99	0	0	2234	5	182	375	3414
100	0	0	2131	4	182	376	3415
101	0	0	2041	4	185	376	3415
102	0	0	1998	4	185	376	3416
103	0	0	1971	4	185	375	3413
104	0	0	1905	4	186	375	3412
105	0	0	1822	4	189	375	3410
106	0	0	1771	4	188	376	3411
107	0	0	1774	5	186	376	3413
108	0	0	1866	5	185	376	3412
109	0	0	2011	5	186	375	3415
110	0	0	2106	5	186	375	3415
111	0	0	2157	5	184	375	3415
112	0	0	2199	4	182	375	3415
113	0	0	2217	5	182	375	3414
114	0	0	2254	5	181	376	3411
115	0	0	2301	5	180	375	3411
116	0	0	2325	5	180	375	3411
117	0	0	2323	4	181	375	3412
118	0	0	2286	4	182	375	3414
119	0	0	2232	5	182	375	3414
120	0	0	2183	5	182	375	3415
121	0	0	2128	4	185	376	3415
122	0	0	2072	4	184	376	3415
123	0	0	2004	4	186	375	3413
124	0	0	1925	4	187	376	3412
125	0	0	1869	4	187	375	3410
126	0	0	1884	5	187	375	3410
127	0	0	1917	4	188	375	3412
0	0	0	1961	5	186	375	3413
1	0	0	2016	5	185	375	3414
2	0	0	2072	5	185	375	3415
3	0	0	2121	5	182	375	3416
4	0	0	2145	5	183	375	3415
5	0	0	2166	5	182	376	3415
6	0	0	2216	5	180	375	3411
7	0	0	2258	5	181	375	3411
8	0	0	2252	4	181	375	3411
9	0	0	2202	4	181	376	3413
10	0	0	2159	4	181	375	3413
11	0	0	2122	5	181	375	3414
12	0	0	2085	4	183	375	3415
13	0	0	2072	4	182	375	3415
14	0	0	2058	4	184	375	3415
15	0	0	2020	4	186	375	3413
16	0	0	1964	4	187	375	3411
17	0	0	1902	4	187	375	3411
18	0	0	1860	4	188	376	3412
19	0	0	1847	5	188	375	3412
20	0	0	1868	5	186	375	3413
21	0	0	1938	5	185	375	3414
22	0	0	2030	5	185	376	3415
23	0	0	2135	5	184	375	3415
24	0	0	2220	4	183	376	3416
25	0	0	2268	5	181	375	3414
26	0	0	2329	5	182	375	3411
27	0	0	2369	5	181	377	3411
28	0	0	2347	4	180	376	3411
29	0	0	2292	4	180	375	3412
30	0	0	2218	4	181	375	3413
31	0	0	2144	4	182	375	3414
32	0	0	2094	4	183	375	3415
33	0	0	2052	4	183	376	3416
34	0	0	2022	4	185	375	3415
35	0	0	1972	4	186	376	3413
36	0	0	1884	4	187	375	3411
37	0	0	1813	4	188	375	3411
38	0	0	1820	5	187	375	3411
39	0	0	1873	5	186	376	3413
40	0	0	1964	5	186	375	3413
41	0	0	2080	5	185	376	3414
42	0	0	2172	5	184	375	3415
43	0	0	2224	5	184	375	3416
44	0	0	2258	5	183	375	3415
45	0	0	2285	5	182	375	3414
46	0	0	2320	5	181	376	3411
47	0	0	2332	5	180	375	3411
48	0	0	2293	4	180	375	3412
49	0	0	2242	4	180	375	3412
50	0	0	2194	4	181	375	3413
51	0	0	2133	4	182	376	3415
52	0	0	2074	4	183	374	3415
53	0	0	2002	4	184	375	3415
54	0	0	1945	4	184	376	3416
55	0	0	1911	4	185	375	3413
56	0	0	1864	4	187	376	3412
57	0	0	1824	4	188	375	3410
58	0	0	1838	5	188	375	3411
59	0	0	1849	5	187	376	3413
60	0	0	1862	5	186	375	3413
61	0	0	1926	5	186	375	3414
62	0	0	2010	5	185	375	3415
63	0	0	2102	5	184	376	3415
64	0	0	2180	5	183	375	3415
65	0	0	2215	5	182	375	3413
66	0	0	2253	5	181	375	3411
67	0	0	2273	5	181	376	3411
68	0	0	2242	4	181	376	3412
69	0	0	2191	4	181	376	3412
70	0	0	2136	4	181	376	3414
71	0	0	2062	4	181	375	3414
72	0	0	2003	5	182	375	3415
73	0	0	1954	4	184	375	3415
74	0	0	1921	4	184	376	3415
75	0	0	1905	4	185	375	3413
76	0	0	1859	4	187	375	3411
77	0	0	1809	4	186	375	3410
78	0	0	1813	5	188	375	3411
79	0	0	1841	5	187	376	3413
80	0	0	1895	5	186	375	3413
81	0	0	1982	5	186	376	3414
82	0	0	2065	5	184	376	3415
83	0	0	2129	5	184	376	3416
84	0	0	2130	4	183	375	3415
85	0	0	2117	6	182	375	3413
86	0	0	2168	5	180	375	3411
87	0	0	2232	4	181	376	3411
88	0	0	2235	4	181	375	3411
89	0	0	2166	4	181	376	3412
90	0	0	2089	4	181	375	3413
91	0	0	2025	4	182	375	3414
92	0	0	1969	3	184	375	3415
93	0	0	1943	4	183	376	3415
94	0	0	1950	5	184	376	3415
95	0	0	1977	4	185	375	3413
96	0	0	1948	4	187	375	3412
97	0	0	1884	4	187	374	3410
98	0	0	1845	4	187	375	3411
99	0	0	1844	5	187	376	3412
100	0	0	1876	5	186	375	3413
101	0	0	1951	6	184	375	3415
102	0	0	2029	5	184	377	3415
103	0	0	2083	5	184	375	3415
104	0	0	2130	5	182	376	3415
105	0	0	2156	5	181	375	3414
106	0	0	2207	5	180	375	3411
107	0	0	2253	4	181	375	3410
108	0	0	2255	5	180	375	3411
109	0	0	2200	4	180	376	3412
110	0	0	2104	4	181	375	3412
111	0	0	2005	4	183	375	3414
112	0	0	1950	4	183	376	3414
113	0	0	1921	4	183	375	3415
114	0	0	1882	4	184	376	3415
115	0	0	1835	4	186	375	3413
116	0	0	1786	4	187	376	3412
117	0	0	1759	5	188	376	3411
118	0	0	1789	5	187	375	3411
119	0	0	1845	5	186	376	3413
120	0	0	1878	5	187	376	3413
121	0	0	1930	5	186	375	3414
122	0	0	1986	5	184	376	3415
123	0	0	2019	5	183	375	3415
124	0	0	2060	5	183	376	3415
125	0	0	2141	5	182	375	3415
126	0	0	2224	5	182	375	3411
127	0	0	2277	5	180	375	3411
0	0	0	2280	4	181	375	3411
1	0	0	2257	4	181	376	3413
2	0	0	2205	4	181	375	3413
3	0	0	2140	4	182	375	3415
4	0	0	2069	4	183	375	3414
5	0	0	1980	4	183	375	3415
6	0	0	1891	4	184	376	3416
7	0	0	1808	4	185	375	3413
8	0	0	1737	4	185	376	3411
9	0	0	1722	5	187	375	3410
10	0	0	1776	5	187	375	3411
11	0	0	1833	5	187	376	3412
12	0	0	1884	5	186	376	3413
13	0	0	1944	5	185	375	3414
14	0	0	2011	5	185	376	3415
15	0	0	2081	5	183	375	3415
16	0	0	2136	5	184	375	3415
17	0	0	2178	5	182	376	3414
18	0	0	2237	5	181	375	3411
19	0	0	2269	5	180	375	3411
20	0	0	2218	3	180	376	3412
21	0	0	2150	4	181	375	3412
22	0	0	2112	4	182	376	3414
23	0	0	2081	4	181	375	3414
24	0	0	2045	4	182	375	3415
25	0	0	2012	4	184	376	3416
26	0	0	1957	3	186	376	3415
27	0	0	1921	4	186	375	3413
28	0	0	1894	4	186	375	3411
29	0	0	1860	4	187	375	3411
30	0	0	1843	4	187	375	3411
31	0	0	1840	5	186	375	3412
32	0	0	1854	5	185	375	3412
33	0	0	1887	5	184	376	3414
34	0	0	1939	4	184	375	3415
35	0	0	2018	5	184	375	3415
36	0	0	2092	5	183	376	3415
37	0	0	2157	5	183	376	3414
38	0	0	2249	5	181	375	3411
39	0	0	2312	5	180	375	3411
40	0	0	2305	4	181	375	3412
41	0	0	2263	4	182	375	3412
42	0	0	2230	4	181	375	3413
43	0	0	2151	4	182	375	3414
44	0	0	2042	3	183	375	3414
45	0	0	1944	4	184	375	3415
46	0	0	1875	4	184	376	3415
47	0	0	1813	4	185	375	3413
48	0	0	1746	4	186	376	3412
49	0	0	1723	5	187	375	3411
50	0	0	1773	5	188	376	3411
51	0	0	1835	5	187	376	3412
52	0	0	1894	5	186	376	3413
53	0	0	1969	5	185	375	3414
54	0	0	2035	5	184	376	3415
55	0	0	2076	5	184	375	3415
56	0	0	2097	5	181	375	3415
57	0	0	2128	5	182	375	3413
58	0	0	2197	5	180	376	3411
59	0	0	2250	5	180	375	3410
60	0	0	2258	4	182	376	3411
61	0	0	2234	4	182	375	3412
62	0	0	2187	4	182	375	3413
63	0	0	2127	5	182	376	3414
64	0	0	2053	4	182	375	3414
65	0	0	1985	4	185	375	3415
66	0	0	1944	4	183	375	3415
67	0	0	1906	4	186	375	3414
68	0	0	1833	4	185	375	3411
69	0	0	1764	4	187	376	3410
70	0	0	1759	5	186	374	3411
71	0	0	1799	5	185	376	3412
72	0	0	1881	5	187	376	3413
73	0	0	1990	5	185	376	3415
74	0	0	2089	5	184	376	3415
75	0	0	2147	5	184	375	3415
76	0	0	2180	5	183	375	3415
77	0	0	2208	5	181	375	3413
78	0	0	2245	5	180	376	3411
79	0	0	2265	5	180	375	3411
80	0	0	2237	4	181	375	3412
81	0	0	2180	4	180	376	3412
82	0	0	2137	4	181	375	3412
83	0	0	2117	4	181	375	3415
84	0	0	2082	4	183	376	3415
85	0	0	2024	4	184	374	3415
86	0	0	1971	4	185	376	3415
87	0	0	1928	4	186	376	3413
88	0	0	1870	4	186	376	3411
89	0	0	1812	4	188	376	3410
90	0	0	1808	5	188	375	3411
91	0	0	1854	5	185	375	3412
92	0	0	1904	5	186	376	3412
93	0	0	1962	6	185	375	3414
94	0	0	2030	5	185	375	3415
95	0	0	2103	5	183	375	3416
96	0	0	2152	5	184	375	3415
97	0	0	2179	5	182	375	3413
98	0	0	2209	5	181	375	3411
99	0	0	2238	5	180	375	3410
100	0	0	2241	5	181	376	3411
101	0	0	2212	4	181	376	3412
102	0	0	2160	4	181	375	3412
103	0	0	2087	4	182	376	3415
104	0	0	2002	4	183	377	3415
105	0	0	1939	4	184	375	3415
106	0	0	1918	5	184	376	3415
107	0	0	1902	4	184	375	3413
108	0	0	1824	3	185	376	3411
109	0	0	1750	4	187	375	3410
110	0	0	1724	4	189	376	3411
111	0	0	1719	5	187	376	3412
112	0	0	1748	5	187	375	3413
113	0	0	1847	5	183	376	3414
114	0	0	1964	5	185	376	3415
115	0	0	2066	5	183	375	3415
116	0	0	2150	5	183	376	3415
117	0	0	2203	5	182	376	3413
118	0	0	2242	5	180	377	3411
119	0	0	2257	5	180	375	3410
120	0	0	2220	4	181	376	3411
121	0	0	2168	4	182	376	3412
122	0	0	2145	4	181	375	3412
123	0	0	2128	5	182	376	3414
124	0	0	2094	4	183	375	3414
125	0	0	2059	4	183	375	3415
126	0	0	2042	5	184	376	3415
127	0	0	2004	4	184	376	3413
0	0	0	1915	4	186	375	3411
1	0	0	1831	3	187	375	3410
2	0	0	1806	4	189	376	3410
3	0	0	1818	5	187	376	3412
4	0	0	1877	5	186	376	3414
5	0	0	1984	5	185	376	3413
6	0	0	2082	5	183	375	3415
7	0	0	2138	5	184	375	3416
8	0	0	2167	5	183	376	3414
9	0	0	2177	5	182	375	3413
10	0	0	2225	5	180	375	3412
11	0	0	2261	5	181	376	3410
12	0	0	2223	4	181	376	3411
13	0	0	2187	4	181	375	3412
14	0	0	2175	5	181	375	3412
15	0	0	2156	4	181	376	3413
16	0	0	2114	4	183	375	3414
17	0	0	2068	4	183	375	3415
18	0	0	1987	4	185	375	3415
19	0	0	1905	4	185	376	3414
20	0	0	1817	4	186	376	3411
21	0	0	1760	4	187	376	3410
22	0	0	1797	5	188	376	3411
23	0	0	1893	5	187	375	3412
24	0	0	2003	5	186	375	3414
25	0	0	2073	5	186	375	3413
26	0	0	2058	4	184	376	3415
27	0	0	2023	4	184	376	3416
28	0	0	2034	5	184	375	3415
29	0	0	2112	5	183	375	3414
30	0	0	2212	5	181	375	3411
31	0	0	2273	5	180	375	3411
32	0	0	2273	4	182	376	3411
33	0	0	2216	4	183	375	3412
34	0	0	2145	4	182	376	3414
35	0	0	2059	6	183	375	3414
36	0	0	1963	4	183	375	3414
37	0	0	1874	4	183	376	3414
38	0	0	1819	4	183	375	3414
39	0	0	1798	4	186	376	3413
40	0	0	1780	4	186	375	3411
41	0	0	1762	5	187	375	3410
42	0	0	1782	5	185	376	3411
43	0	0	1824	5	185	375	3412
44	0	0	1890	5	185	375	3412
45	0	0	1986	5	184	376	3415
46	0	0	2083	5	184	376	3415
47	0	0	2152	5	182	376	3415
48	0	0	2191	5	182	375	3415
49	0	0	2196	5	183	376	3413
50	0	0	2192	5	183	375	3411
51	0	0	2200	5	183	375	3410
52	0	0	2192	5	182	376	3411
53	0	0	2172	4	181	375	3412
54	0	0	2134	4	182	375	3412
55	0	0	2083	4	183	375	3413
56	0	0	2009	4	183	375	3414
57	0	0	1897	4	183	375	3414
58	0	0	1792	4	183	375	3414
59	0	0	1752	5	184	376	3413
60	0	0	1762	5	185	376	3412
61	0	0	1770	5	186	375	3410
62	0	0	1808	5	185	375	3411
63	0	0	1827	5	185	375	3412
64	0	0	1859	5	186	375	3412
65	0	0	1939	5	184	376	3415
66	0	0	2018	5	184	377	3414
67	0	0	2099	5	183	375	3415
68	0	0	2187	5	183	375	3415
69	0	0	2219	5	183	375	3413
70	0	0	2187	4	183	376	3412
71	0	0	2200	5	182	375	3410
72	0	0	2226	5	181	375	3411
73	0	0	2175	4	181	376	3412
74	0	0	2098	4	183	375	3412
75	0	0	2065	4	183	375	3413
76	0	0	2022	4	183	375	3414
77	0	0	1955	4	184	375	3414
78	0	0	1888	4	183	375	3414
79	0	0	1864	5	185	375	3413
80	0	0	1877	5	186	375	3411
81	0	0	1876	5	186	375	3410
82	0	0	1889	5	186	375	3410
83	0	0	1895	5	186	375	3411
84	0	0	1913	5	185	375	3413
85	0	0	1972	3	185	376	3413
86	0	0	2042	5	184	375	3414
87	0	0	2111	5	183	376	3415
88	0	0	2159	5	183	375	3414
89	0	0	2205	5	183	375	3414
90	0	0	2231	4	182	375	3411
91	0	0	2252	5	182	375	3409
92	0	0	2246	5	181	376	3410
93	0	0	2224	5	181	375	3411
94	0	0	2210	4	182	375	3412
95	0	0	2176	4	183	375	3414
96	0	0	2137	5	184	375	3414
97	0	0	2094	4	184	376	3415
98	0	0	2045	4	183	375	3414
99	0	0	1998	4	185	375	3413
100	0	0	1965	4	185	376	3411
101	0	0	1957	5	186	375	3410
102	0	0	2003	5	186	376	3411
103	0	0	2062	5	185	375	3411
104	0	0	2103	5	186	376	3413
105	0	0	2150	5	185	376	3413
106	0	0	2203	5	185	375	3414
107	0	0	2266	5	183	375	3414
108	0	0	2326	5	182	375	3414
109	0	0	2369	5	183	375	3412
110	0	0	2403	5	182	376	3412
111	0	0	2418	4	182	376	3410
112	0	0	2349	4	183	376	3411
113	0	0	2252	4	181	375	3411
114	0	0	2154	4	183	376	3413
115	0	0	2042	4	183	375	3413
116	0	0	1961	4	183	375	3414
117	0	0	1897	4	183	376	3414
118	0	0	1836	4	183	375	3414
119	0	0	1788	4	185	375	3413
120	0	0	1728	4	185	375	3411
121	0	0	1673	4	185	375	3410
122	0	0	1699	5	186	375	3410
123	0	0	1744	5	185	375	3411
124	0	0	1785	5	185	376	3412
125	0	0	1855	5	185	375	3413
126	0	0	1924	4	185	375	3415
127	0	0	1974	5	184	376	3415
0	0	0	2018	5	182	375	3415
1	0	0	2077	5	182	375	3414
2	0	0	2136	5	182	375	3411
3	0	0	2166	5	181	375	3410
4	0	0	2127	4	181	377	3411
5	0	0	2054	4	182	375	3412
6	0	0	1984	4	183	375	3412
7	0	0	1913	4	183	376	3414
8	0	0	1856	4	183	375	3414
9	0	0	1809	4	184	376	3415
10	0	0	1771	4	184	375	3414
11	0	0	1766	5	185	375	3412
12	0	0	1776	5	185	375	3410
13	0	0	1780	4	185	375	3409
14	0	0	1808	5	186	375	3410
15	0	0	1849	5	185	375	3411
16	0	0	1893	5	184	375	3413
17	0	0	1939	6	186	375	3413
18	0	0	1973	4	183	375	3414
19	0	0	2014	5	184	376	3415
20	0	0	2075	4	181	375	3414
21	0	0	2142	5	183	375	3413
22	0	0	2182	5	182	375	3411
23	0	0	2197	5	181	375	3410
24	0	0	2212	5	182	375	3410
25	0	0	2219	5	182	375	3411
26	0	0	2188	4	182	375	3412
27	0	0	2125	4	182	375	3413
28	0	0	2066	4	184	375	3414
29	0	0	2025	4	183	375	3414
30	0	0	2000	4	184	375	3414
31	0	0	1967	4	185	375	3414
32	0	0	1898	4	185	375	3410
33	0	0	1826	4	185	375	3410
34	0	0	1819	5	185	375	3411
35	0	0	1836	5	184	375	3411
36	0	0	1867	5	184	376	3412
37	0	0	1914	5	185	375	3413
38	0	0	1966	5	185	376	3414
39	0	0	2036	4	184	375	3414
40	0	0	2074	5	183	376	3414
41	0	0	2090	5	183	376	3412
42	0	0	2147	5	182	376	3411
43	0	0	2229	5	181	376	3409
44	0	0	2262	5	182	376	3410
45	0	0	2257	4	181	375	3412
46	0	0	2219	4	181	375	3412
47	0	0	2157	4	183	375	3414
48	0	0	2093	4	183	375	3414
49	0	0	2034	4	184	377	3414
50	0	0	1978	4	183	375	3414
51	0	0	1925	4	184	375	3414
52	0	0	1871	4	185	375	3410
53	0	0	1823	4	185	375	3409
54	0	0	1842	5	185	377	3410
55	0	0	1885	5	185	375	3411
56	0	0	1914	5	185	375	3412
57	0	0	1942	5	185	375	3413
58	0	0	1977	5	184	375	3414
59	0	0	2007	5	184	376	3414
60	0	0	2056	5	183	376	3415
61	0	0	2119	5	183	375	3412
62	0	0	2172	5	181	375	3411
63	0	0	2218	4	182	375	3410
64	0	0	2222	5	182	375	3410
65	0	0	2214	5	181	375	3411
66	0	0	2187	4	182	376	3412
67	0	0	2120	4	182	375	3414
68	0	0	2050	4	183	376	3414
69	0	0	2019	4	183	376	3414
70	0	0	1977	5	183	375	3414
71	0	0	1953	4	185	375	3412
72	0	0	1946	4	185	375	3411
73	0	0	1908	4	187	376	3410
74	0	0	1891	5	187	375	3411
75	0	0	1904	5	185	375	3411
76	0	0	1929	5	185	376	3412
77	0	0	1980	5	185	375	3414
78	0	0	2039	5	184	375	3414
79	0	0	2091	5	184	376	3414
80	0	0	2139	5	182	375	3414
81	0	0	2170	5	183	375	3412
82	0	0	2196	5	181	375	3410
83	0	0	2226	4	182	375	3410
84	0	0	2209	4	182	375	3411
85	0	0	2173	4	181	375	3411
86	0	0	2120	4	182	375	3412
87	0	0	2064	4	183	375	3413
88	0	0	2027	4	183	376	3414
89	0	0	1995	4	184	376	3414
90	0	0	1971	4	184	376	3414
91	0	0	1958	5	185	375	3412
92	0	0	1912	4	185	375	3410
93	0	0	1851	4	186	375	3410
94	0	0	1866	5	186	376	3410
95	0	0	1940	5	185	375	3411
96	0	0	2019	5	184	375	3412
97	0	0	2108	5	185	376	3414
98	0	0	2180	5	184	375	3414
99	0	0	2220	5	184	376	3414
100	0	0	2215	4	184	376	3414
101	0	0	2176	4	183	376	3412
102	0	0	2152	5	183	376	3411
103	0	0	2162	4	183	375	3410
104	0	0	2168	5	182	375	3411
105	0	0	2182	5	181	375	3411
106	0	0	2180	4	183	375	3412
107	0	0	2151	4	184	375	3413
108	0	0	2120	4	183	375	3414
109	0	0	2073	4	183	376	3414
110	0	0	2006	4	183	375	3414
111	0	0	1957	4	185	375	3412
112	0	0	1906	4	186	375	3410
113	0	0	1861	4	186	375	3410
114	0	0	1854	5	185	376	3410
115	0	0	1880	5	185	376	3411
116	0	0	1954	5	186	375	3412
117	0	0	2064	5	185	375	3414
118	0	0	2138	5	185	375	3414
119	0	0	2152	5	184	376	3414
120	0	0	2141	5	182	375	3414
121	0	0	2134	5	182	375	3412
122	0	0	2137	5	182	375	3410
123	0	0	2182	5	182	375	3410
124	0	0	2230	5	183	376	3410
125	0	0	2264	5	181	375	3411
126	0	0	2253	5	183	375	3412
127	0	0	2200	4	183	375	3413
0	0	0	2150	4	184	375	3414
1	0	0	2120	4	183	376	3414
2	0	0	2083	4	184	375	3414
3	0	0	2046	4	185	375	3412
4	0	0	1989	4	185	376	3411
5	0	0	1912	4	185	377	3409
6	0	0	1898	5	186	376	3410
7	0	0	1938	4	186	375	3411
8	0	0	1985	5	185	375	3412
9	0	0	2053	5	184	375	3414
10	0	0	2133	3	185	375	3414
11	0	0	2170	5	184	376	3415
12	0	0	2192	5	182	376	3414
13	0	0	2222	5	183	375	3412
14	0	0	2255	5	183	375	3410
15	0	0	2288	5	182	375	3409
16	0	0	2282	5	182	376	3410
17	0	0	2266	5	182	375	3411
18	0	0	2240	5	182	375	3411
19	0	0	2204	4	183	376	3414
20	0	0	2168	4	183	376	3414
21	0	0	2104	4	184	375	3414
22	0	0	2041	4	184	375	3414
23	0	0	2003	4	185	375	3412
24	0	0	1952	4	185	375	3410
25	0	0	1909	3	185	375	3410
26	0	0	1923	5	185	376	3411
27	0	0	1949	5	186	375	3411
28	0	0	1982	5	185	376	3411
29	0	0	2044	5	185	375	3413
30	0	0	2125	5	185	375	3414
31	0	0	2201	5	184	375	3414
32	0	0	2267	5	183	376	3414
33	0	0	2312	5	183	375	3412
34	0	0	2334	5	183	376	3410
35	0	0	2352	4	182	375	3409
36	0	0	2360	5	182	375	3410
37	0	0	2318	4	182	375	3411
38	0	0	2245	4	182	375	3413
39	0	0	2181	5	183	375	3413
40	0	0	2133	3	183	375	3414
41	0	0	2070	4	184	376	3414
42	0	0	2001	4	184	375	3414
43	0	0	1973	5	184	375	3412
44	0	0	1950	4	187	375	3410
45	0	0	1915	4	185	376	3410
46	0	0	1900	4	186	375	3409
47	0	0	1928	5	184	375	3411
48	0	0	1999	5	186	376	3411
49	0	0	2072	5	184	375	3413
50	0	0	2119	6	185	375	3414
51	0	0	2167	5	184	376	3414
52	0	0	2209	5	183	375	3414
53	0	0	2262	5	183	375	3412
54	0	0	2323	5	182	375	3411
55	0	0	2373	5	182	375	3409
56	0	0	2349	4	181	375	3410
57	0	0	2297	4	182	375	3411
58	0	0	2245	4	182	375	3411
59	0	0	2179	4	183	375	3414
60	0	0	2108	4	183	375	3414
61	0	0	2037	4	184	376	3415
62	0	0	1980	4	184	375	3414
63	0	0	1931	4	184	375	3412
64	0	0	1871	4	184	375	3410
65	0	0	1786	4	185	376	3409
66	0	0	1735	4	185	376	3409
67	0	0	1744	5	186	375	3411
68	0	0	1808	5	185	375	3412
69	0	0	1935	5	185	375	3414
70	0	0	2089	5	185	376	3414
71	0	0	2200	5	184	376	3414
72	0	0	2260	5	184	376	3415
73	0	0	2282	5	183	375	3412
74	0	0	2289	5	183	375	3411
75	0	0	2298	5	182	375	3410
76	0	0	2276	4	182	375	3410
77	0	0	2248	4	182	375	3411
78	0	0	2220	4	182	376	3413
79	0	0	2162	5	184	375	3413
80	0	0	2097	4	184	375	3414
81	0	0	2041	4	184	375	3415
82	0	0	1996	4	184	376	3414
83	0	0	1958	4	184	375	3413
84	0	0	1910	6	186	375	3410
85	0	0	1855	4	186	375	3409
86	0	0	1839	4	186	376	3409
87	0	0	1830	5	186	376	3411
88	0	0	1848	5	185	375	3411
89	0	0	1940	5	184	375	3412
90	0	0	2060	5	185	375	3414
91	0	0	2140	5	183	376	3414
92	0	0	2199	5	183	376	3414
93	0	0	2237	5	183	375	3412
94	0	0	2246	5	182	375	3410
95	0	0	2247	5	182	375	3409
96	0	0	2236	5	182	375	3411
97	0	0	2233	5	182	376	3411
98	0	0	2234	5	182	375	3413
99	0	0	2190	3	183	375	3413
100	0	0	2104	4	183	375	3414
101	0	0	2009	4	184	375	3414
102	0	0	1911	4	183	375	3414
103	0	0	1835	4	185	375	3412
104	0	0	1798	4	184	375	3410
105	0	0	1804	5	186	375	3409
106	0	0	1868	5	185	376	3409
107	0	0	1930	5	186	375	3411
108	0	0	1955	5	186	375	3412
109	0	0	1994	5	184	375	3413
110	0	0	2034	5	185	375	3414
111	0	0	2076	5	184	376	3414
112	0	0	2110	5	183	375	3414
113	0	0	2146	5	183	375	3412
114	0	0	2187	5	183	376	3410
115	0	0	2221	6	182	375	3410
116	0	0	2207	4	183	376	3411
117	0	0	2177	4	182	375	3411
118	0	0	2156	4	183	375	3413
119	0	0	2116	6	182	375	3413
120	0	0	2065	4	182	375	3414
121	0	0	2029	4	184	375	3415
122	0	0	1982	4	184	375	3414
123	0	0	1930	4	185	375	3412
124	0	0	1872	4	184	375	3411
125	0	0	1836	5	187	375	3409
126	0	0	1889	4	185	377	3410
127	0	0	1935	5	185	376	3411
0	0	0	1942	5	185	375	3412
1	0	0	1926	4	185	375	3413
2	0	0	1921	5	184	376	3414
3	0	0	1964	5	184	376	3414
4	0	0	2027	5	183	375	3414
5	0	0	2099	5	181	375	3413
6	0	0	2160	7	183	375	3410
7	0	0	2211	5	182	375	3410
8	0	0	2216	4	182	375	3411
9	0	0	2219	5	182	375	3411
10	0	0	2256	5	182	375	3412
11	0	0	2259	4	183	375	3413
12	0	0	2200	4	183	376	3414
13	0	0	2095	4	184	375	3414
14	0	0	1995	4	183	375	3414
15	0	0	1920	4	185	375	3412
16	0	0	1847	4	185	375	3411
17	0	0	1789	4	186	375	3411
18	0	0	1808	5	186	376	3410
19	0	0	1862	5	186	376	3412
20	0	0	1921	5	185	375	3412
21	0	0	1992	5	185	375	3414
22	0	0	2040	5	185	375	3414
23	0	0	2079	5	184	377	3414
24	0	0	2128	5	183	375	3414
25	0	0	2188	5	183	375	3412
26	0	0	2241	5	183	376	3410
27	0	0	2275	5	183	376	3409
28	0	0	2258	4	182	376	3410
29	0	0	2222	5	182	375	3411
30	0	0	2198	4	183	375	3412
31	0	0	2160	4	182	375	3413
32	0	0	2104	4	183	375	3414
33	0	0	2038	4	184	375	3415
34	0	0	1960	4	185	376	3414
35	0	0	1901	4	184	376	3413
36	0	0	1844	5	187	376	3410
37	0	0	1788	4	185	375	3410
38	0	0	1810	5	185	376	3410
39	0	0	1867	5	185	375	3411
40	0	0	1923	5	185	375	3412
41	0	0	1985	5	184	375	3413
42	0	0	2046	5	185	375	3414
43	0	0	2094	5	183	375	3414
44	0	0	2126	5	183	376	3414
45	0	0	2154	5	182	376	3412
46	0	0	2165	5	182	375	3410
47	0	0	2183	5	181	376	3409
48	0	0	2192	5	182	375	3410
49	0	0	2195	5	183	376	3412
50	0	0	2170	4	183	375	3411
51	0	0	2123	4	183	375	3414
52	0	0	2065	4	184	375	3414
53	0	0	1988	4	184	375	3414
54	0	0	1929	4	184	376	3414
55	0	0	1900	4	184	375	3412
56	0	0	1882	4	185	375	3410
57	0	0	1868	5	187	375	3409
58	0	0	1897	5	186	377	3409
59	0	0	1946	5	186	376	3411
60	0	0	1995	5	186	376	3413
61	0	0	2062	7	184	376	3413
62	0	0	2131	5	184	375	3414
63	0	0	2192	5	183	375	3414
64	0	0	2235	5	184	375	3414
65	0	0	2249	4	183	375	3412
66	0	0	2225	4	182	375	3410
67	0	0	2217	5	182	375	3409
68	0	0	2200	4	182	375	3409
69	0	0	2191	5	182	376	3411
70	0	0	2171	4	182	375	3411
71	0	0	2116	4	182	375	3413
72	0	0	2066	4	183	376	3413
73	0	0	2034	4	183	375	3414
74	0	0	2004	4	185	376	3414
75	0	0	1987	4	185	375	3412
76	0	0	1958	4	185	375	3410
77	0	0	1900	4	185	374	3409
78	0	0	1866	4	186	375	3410
79	0	0	1857	5	186	376	3410
80	0	0	1879	4	184	376	3412
81	0	0	1950	5	183	376	3412
82	0	0	2048	5	185	375	3413
83	0	0	2124	5	184	375	3413
84	0	0	2156	5	184	375	3413
85	0	0	2166	5	183	375	3412
86	0	0	2188	4	183	375	3410
87	0	0	2213	5	182	375	3409
88	0	0	2191	4	182	376	3409
89	0	0	2155	4	183	375	3411
90	0	0	2142	5	183	375	3411
91	0	0	2154	5	182	375	3413
92	0	0	2148	4	184	376	3413
93	0	0	2097	4	184	375	3413
94	0	0	2048	4	183	376	3413
95	0	0	2032	5	184	375	3411
96	0	0	2005	4	185	374	3411
97	0	0	1955	5	186	375	3408
98	0	0	1940	5	186	375	3410
99	0	0	1961	5	186	375	3410
100	0	0	2006	6	185	375	3411
101	0	0	2072	5	185	375	3412
102	0	0	2113	5	184	375	3412
103	0	0	2133	5	184	375	3413
104	0	0	2159	5	183	376	3413
105	0	0	2179	5	182	376	3411
106	0	0	2214	5	182	374	3410
107	0	0	2260	5	182	375	3408
108	0	0	2260	4	183	375	3408
109	0	0	2190	4	182	375	3410
110	0	0	2095	4	182	375	3410
111	0	0	2017	4	182	375	3411
112	0	0	1969	5	183	375	3412
113	0	0	1934	4	184	376	3412
114	0	0	1895	4	185	375	3412
115	0	0	1886	5	184	375	3411
116	0	0	1897	5	185	375	3409
117	0	0	1906	4	184	375	3408
118	0	0	1938	5	186	375	3408
119	0	0	1966	5	185	375	3409
120	0	0	1984	5	185	375	3410
121	0	0	2043	5	185	375	3411
122	0	0	2117	5	184	377	3412
123	0	0	2167	5	184	376	3412
124	0	0	2198	5	183	375	3412
125	0	0	2221	5	182	376	3412
126	0	0	2238	5	182	376	3409
127	0	0	2250	5	182	375	3407
0	0	0	2228	4	182	376	3408
1	0	0	2189	4	182	376	3410
2	0	0	2137	4	182	375	3409
3	0	0	2063	4	182	375	3412
4	0	0	1987	4	183	375	3412
5	0	0	1941	4	183	375	3412
6	0	0	1944	5	184	375	3412
7	0	0	1979	5	184	375	3410
8	0	0	1980	4	185	375	3409
9	0	0	1930	5	186	375	3407
10	0	0	1929	5	185	375	3407
11	0	0	1951	5	186	375	3408
12	0	0	1970	5	185	375	3409
13	0	0	2024	5	184	375	3410
14	0	0	2091	6	184	375	3411
15	0	0	2144	4	184	375	3411
16	0	0	2184	5	183	375	3411
17	0	0	2229	5	183	375	3410
18	0	0	2255	5	183	375	3408
19	0	0	2274	5	182	375	3407
20	0	0	2257	4	182	375	3408
21	0	0	2229	4	181	375	3408
22	0	0	2192	4	182	375	3410
23	0	0	2137	6	182	375	3410
24	0	0	2079	5	182	375	3411
25	0	0	2043	4	184	376	3412
26	0	0	2033	5	183	375	3411
27	0	0	2018	4	185	376	3411
28	0	0	1970	4	186	376	3407
29	0	0	1912	4	186	375	3407
30	0	0	1915	5	186	375	3407
31	0	0	1958	5	186	375	3408
32	0	0	2010	5	185	375	3409
33	0	0	2072	5	185	375	3410
34	0	0	2130	6	184	375	3411
35	0	0	2159	5	184	375	3411
36	0	0	2172	5	183	375	3411
37	0	0	2191	5	183	375	3409
38	0	0	2203	5	183	375	3407
39	0	0	2210	5	183	375	3406
40	0	0	2167	4	182	376	3407
41	0	0	2127	4	182	375	3408
42	0	0	2083	4	183	375	3408
43	0	0	2055	5	183	375	3409
44	0	0	2019	4	183	375	3411
45	0	0	1951	4	184	375	3412
46	0	0	1897	4	184	375	3411
47	0	0	1866	4	184	375	3410
48	0	0	1852	4	187	375	3407
49	0	0	1833	5	186	375	3406
50	0	0	1825	4	187	376	3406
51	0	0	1847	5	185	375	3408
52	0	0	1929	5	185	375	3408
53	0	0	2061	5	184	375	3410
54	0	0	2188	5	184	376	3410
55	0	0	2265	5	184	376	3411
56	0	0	2292	5	183	375	3410
57	0	0	2271	5	183	375	3409
58	0	0	2232	4	182	376	3407
59	0	0	2230	5	183	376	3406
60	0	0	2229	5	181	375	3406
61	0	0	2211	4	183	375	3408
62	0	0	2187	4	181	375	3408
63	0	0	2151	4	183	376	3409
64	0	0	2087	4	182	375	3409
65	0	0	2013	4	184	376	3410
66	0	0	1949	4	184	375	3410
67	0	0	1900	4	185	375	3408
68	0	0	1851	4	186	375	3406
69	0	0	1784	4	187	375	3406
70	0	0	1787	5	186	375	3407
71	0	0	1834	5	185	375	3407
72	0	0	1890	5	185	375	3407
73	0	0	1971	5	185	375	3409
74	0	0	2057	5	184	376	3410
75	0	0	2111	5	184	375	3409
76	0	0	2164	5	184	375	3409
77	0	0	2217	5	184	375	3408
78	0	0	2246	5	182	375	3407
79	0	0	2261	5	183	375	3405
80	0	0	2235	4	182	375	3406
81	0	0	2203	4	183	375	3407
82	0	0	2178	5	182	375	3407
83	0	0	2140	4	183	375	3408
84	0	0	2080	5	183	375	3409
85	0	0	2032	4	184	375	3409
86	0	0	2005	4	184	375	3410
87	0	0	1962	4	184	375	3408
88	0	0	1910	4	184	375	3406
89	0	0	1862	4	186	375	3404
90	0	0	1870	5	185	376	3405
91	0	0	1909	5	186	375	3406
92	0	0	1965	5	185	375	3407
93	0	0	2048	5	185	375	3408
94	0	0	2114	5	185	375	3409
95	0	0	2149	5	184	375	3410
96	0	0	2165	5	183	375	3409
97	0	0	2176	5	183	376	3408
98	0	0	2221	5	182	376	3405
99	0	0	2272	6	181	376	3404
100	0	0	2265	5	182	375	3405
101	0	0	2253	5	182	375	3406
102	0	0	2240	4	182	375	3407
103	0	0	2226	5	183	375	3409
104	0	0	2219	5	183	375	3409
105	0	0	2189	4	183	376	3410
106	0	0	2162	4	184	375	3409
107	0	0	2139	5	185	375	3407
108	0	0	2108	4	184	376	3405
109	0	0	2056	4	185	375	3405
110	0	0	2056	5	186	376	3404
111	0	0	2067	5	185	375	3406
112	0	0	2093	4	184	376	3406
113	0	0	2182	5	185	375	3408
114	0	0	2282	5	184	376	3409
115	0	0	2348	5	183	375	3408
116	0	0	2403	5	183	375	3408
117	0	0	2476	5	183	375	3407
118	0	0	2520	5	183	375	3405
119	0	0	2526	6	182	375	3404
120	0	0	2453	4	182	375	3405
121	0	0	2307	4	182	375	3405
122	0	0	2160	4	182	376	3406
123	0	0	2035	4	182	375	3408
124	0	0	1949	4	183	375	3408
125	0	0	1893	4	183	375	3408
126	0	0	1848	4	185	375	3408
127	0	0	1809	4	185	375	3406
0	0	0	1751	4	185	376	3406
1	0	0	1703	5	186	376	3403
2	0	0	1723	5	185	375	3404
3	0	0	1774	5	186	374	3405
4	0	0	1851	5	185	376	3406
5	0	0	1937	5	185	375	3407
6	0	0	2003	5	184	375	3408
7	0	0	2052	5	184	375	3409
8	0	0	2084	5	184	375	3407
9	0	0	2118	6	182	375	3406
10	0	0	2145	5	184	375	3405
11	0	0	2181	5	182	375	3404
12	0	0	2193	5	182	375	3404
13	0	0	2182	5	182	374	3405
14	0	0	2167	3	183	375	3406
15	0	0	2113	4	184	375	3407
16	0	0	2053	4	184	375	3407
17	0	0	2000	4	184	375	3407
18	0	0	1950	4	184	375	3407
19	0	0	1904	4	183	375	3406
20	0	0	1858	4	185	375	3404
21	0	0	1808	5	185	375	3403
22	0	0	1808	5	186	375	3404
23	0	0	1818	5	185	375	3404
24	0	0	1840	4	185	375	3406
25	0	0	1902	4	186	375	3406
26	0	0	1983	6	184	376	3407
27	0	0	2063	5	184	375	3407
28	0	0	2130	5	183	376	3408
29	0	0	2180	5	183	375	3406
30	0	0	2198	5	182	375	3404
31	0	0	2226	5	182	376	3403
32	0	0	2230	5	182	375	3404
33	0	0	2188	4	182	375	3404
34	0	0	2129	3	183	375	3405
35	0	0	2076	4	182	375	3406
36	0	0	2048	5	183	375	3407
37	0	0	2022	4	183	375	3407
38	0	0	1980	4	183	374	3407
39	0	0	1939	4	185	375	3405
40	0	0	1902	4	184	375	3404
41	0	0	1857	4	185	376	3403
42	0	0	1851	5	186	375	3403
43	0	0	1882	5	185	376	3404
44	0	0	1952	5	185	375	3405
45	0	0	2059	5	185	375	3406
46	0	0	2169	5	184	376	3406
47	0	0	2253	5	184	376	3406
48	0	0	2298	5	183	375	3406
49	0	0	2307	4	183	375	3406
50	0	0	2304	5	182	375	3403
51	0	0	2290	4	181	375	3402
52	0	0	2253	5	182	375	3403
53	0	0	2222	4	181	375	3403
54	0	0	2194	4	182	375	3405
55	0	0	2152	4	182	376	3405
56	0	0	2114	4	183	377	3406
57	0	0	2080	4	183	375	3406
58	0	0	2033	4	183	375	3406
59	0	0	1971	4	184	375	3404
60	0	0	1874	4	185	375	3404
61	0	0	1779	4	186	375	3403
62	0	0	1781	5	185	375	3402
63	0	0	1840	5	186	376	3404
64	0	0	1920	5	185	375	3404
65	0	0	2008	5	185	376	3406
66	0	0	2083	5	184	376	3406
67	0	0	2130	5	183	375	3406
68	0	0	2170	5	183	376	3406
69	0	0	2195	5	183	375	3404
70	0	0	2219	5	183	375	3403
71	0	0	2262	4	182	375	3402
72	0	0	2250	4	182	375	3401
73	0	0	2210	4	182	374	3403
74	0	0	2174	4	182	375	3404
75	0	0	2129	4	183	375	3405
76	0	0	2078	4	184	376	3405
77	0	0	2040	4	184	376	3405
78	0	0	2011	4	184	376	3406
79	0	0	1999	5	185	375	3404
80	0	0	1968	4	185	375	3402
81	0	0	1908	4	185	375	3401
82	0	0	1889	4	186	375	3402
83	0	0	1909	5	185	375	3402
84	0	0	1959	4	186	376	3404
85	0	0	2033	5	187	376	3404
86	0	0	2108	5	183	376	3405
87	0	0	2178	4	184	375	3405
88	0	0	2237	5	183	375	3405
89	0	0	2252	5	183	376	3404
90	0	0	2248	5	183	375	3403
91	0	0	2279	4	183	375	3402
92	0	0	2260	4	182	376	3401
93	0	0	2190	4	182	375	3402
94	0	0	2124	4	182	375	3403
95	0	0	2087	5	182	375	3404
96	0	0	2067	4	183	375	3405
97	0	0	2039	4	185	375	3406
98	0	0	2014	4	185	375	3404
99	0	0	1997	5	184	375	3403
100	0	0	2001	5	186	375	3401
101	0	0	1971	4	187	376	3400
102	0	0	1931	4	185	375	3400
103	0	0	1927	5	186	375	3402
104	0	0	1959	5	185	375	3402
105	0	0	2007	5	185	375	3404
106	0	0	2048	5	184	376	3404
107	0	0	2089	4	184	375	3405
108	0	0	2138	5	184	375	3404
109	0	0	2192	5	183	375	3403
110	0	0	2241	5	182	375	3401
111	0	0	2289	5	183	376	3400
112	0	0	2310	5	182	375	3401
113	0	0	2295	4	181	375	3401
114	0	0	2255	4	183	375	3402
115	0	0	2204	4	182	376	3404
116	0	0	2158	4	183	375	3405
117	0	0	2104	4	184	375	3404
118	0	0	2032	4	184	375	3404
119	0	0	1975	4	184	375	3402
120	0	0	1914	4	186	375	3400
121	0	0	1856	4	185	376	3399
122	0	0	1866	6	186	376	3400
123	0	0	1927	5	185	375	3401
124	0	0	2006	4	186	376	3403
125	0	0	2071	5	185	376	3403
126	0	0	2134	5	184	376	3404
127	0	0	2205	4	183	376	3405
0	0	0	2266	5	183	375	3404
1	0	0	2288	5	183	375	3402
2	0	0	2262	3	182	375	3401
3	0	0	2274	5	182	376	3399
4	0	0	2280	5	182	375	3400
5	0	0	2243	4	182	375	3401
6	0	0	2185	3	182	375	3401
7	0	0	2126	4	183	375	3402
8	0	0	2079	5	183	375	3403
9	0	0	2012	4	184	375	3403
10	0	0	1944	4	183	375	3403
11	0	0	1921	4	185	376	3403
12	0	0	1907	4	184	375	3400
13	0	0	1877	5	185	376	3399
14	0	0	1892	5	185	375	3400
15	0	0	1912	5	185	375	3401
16	0	0	1954	5	185	375	3401
17	0	0	2036	5	185	375	3402
18	0	0	2118	5	183	375	3403
19	0	0	2204	6	183	375	3404
20	0	0	2277	5	183	375	3403
21	0	0	2307	5	183	375	3402
22	0	0	2320	5	182	375	3401
23	0	0	2332	4	182	375	3400
24	0	0	2301	4	182	375	3399
25	0	0	2245	4	182	375	3401
26	0	0	2208	5	182	375	3401
27	0	0	2183	3	183	378	3403
28	0	0	2153	4	182	376	3403
29	0	0	2096	4	184	375	3403
30	0	0	2030	4	184	376	3403
31	0	0	1999	4	185	375	3401
32	0	0	1956	5	185	375	3399
33	0	0	1901	4	185	376	3399
34	0	0	1907	6	185	375	3399
35	0	0	1951	5	186	375	3400
36	0	0	2009	5	186	376	3401
37	0	0	2089	5	185	375	3402
38	0	0	2143	5	184	375	3402
39	0	0	2152	5	184	375	3404
40	0	0	2148	5	183	375	3402
41	0	0	2157	3	183	375	3402
42	0	0	2185	5	182	376	3399
43	0	0	2240	5	181	376	3398
44	0	0	2285	5	182	376	3400
45	0	0	2324	5	183	375	3399
46	0	0	2323	4	181	375	3400
47	0	0	2247	4	183	375	3401
48	0	0	2151	4	183	376	3402
49	0	0	2072	5	183	376	3403
50	0	0	2016	4	184	375	3403
51	0	0	1976	4	185	375	3401
52	0	0	1940	5	185	375	3399
53	0	0	1900	4	186	375	3398
54	0	0	1906	5	186	375	3399
55	0	0	1935	5	186	376	3400
56	0	0	1952	5	185	375	3400
57	0	0	1986	5	184	375	3401
58	0	0	2044	5	183	375	3402
59	0	0	2144	5	184	375	3403
60	0	0	2254	5	183	375	3402
61	0	0	2316	5	183	375	3401
62	0	0	2317	5	183	375	3399
63	0	0	2317	5	183	375	3398
64	0	0	2324	4	183	375	3399
65	0	0	2349	5	182	375	3400
66	0	0	2328	4	183	375	3400
67	0	0	2248	4	182	375	3402
68	0	0	2160	4	183	376	3403
69	0	0	2068	4	183	375	3402
70	0	0	1977	4	183	375	3403
71	0	0	1902	4	185	375	3401
72	0	0	1845	4	185	376	3400
73	0	0	1797	4	185	375	3399
74	0	0	1817	4	186	375	3399
75	0	0	1861	5	185	375	3399
76	0	0	1882	4	185	375	3401
77	0	0	1930	5	187	376	3401
78	0	0	2005	5	184	376	3402
79	0	0	2084	4	183	375	3403
80	0	0	2145	5	183	375	3402
81	0	0	2174	5	184	375	3401
82	0	0	2211	5	183	375	3399
83	0	0	2257	6	182	375	3398
84	0	0	2231	4	182	376	3399
85	0	0	2198	4	182	375	3399
86	0	0	2174	4	182	375	3400
87	0	0	2137	4	182	375	3401
88	0	0	2087	4	184	375	3402
89	0	0	2017	3	184	376	3403
90	0	0	1960	4	184	375	3402
91	0	0	1916	4	185	375	3401
92	0	0	1867	5	185	376	3399
93	0	0	1822	4	185	375	3398
94	0	0	1839	5	186	376	3399
95	0	0	1895	5	186	375	3400
96	0	0	1955	4	185	376	3401
97	0	0	2035	5	185	376	3401
98	0	0	2122	5	184	375	3403
99	0	0	2182	5	185	375	3404
100	0	0	2221	5	183	375	3402
101	0	0	2246	5	183	375	3402
102	0	0	2238	5	183	375	3399
103	0	0	2226	5	182	375	3398
104	0	0	2189	4	182	375	3399
105	0	0	2140	4	182	375	3400
106	0	0	2102	4	182	376	3400
107	0	0	2077	4	182	375	3401
108	0	0	2062	5	183	375	3403
109	0	0	2031	4	183	375	3403
110	0	0	1985	4	184	375	3403
111	0	0	1933	4	184	375	3401
112	0	0	1871	4	185	376	3399
113	0	0	1812	4	186	375	3399
114	0	0	1822	4	185	375	3399
115	0	0	1861	5	185	376	3400
116	0	0	1910	5	185	375	3400
117	0	0	1981	5	185	376	3403
118	0	0	2067	5	185	375	3404
119	0	0	2152	5	184	375	3403
120	0	0	2232	5	183	375	3403
121	0	0	2296	5	183	375	3401
122	0	0	2330	5	183	375	3399
123	0	0	2348	5	183	375	3399
124	0	0	2295	4	182	375	3400
125	0	0	2212	4	182	375	3400
126	0	0	2137	4	183	376	3401
127	0	0	2060	4	182	375	3402
0	0	0	2010	4	184	375	3403
1	0	0	1965	4	183	375	3404
2	0	0	1900	4	184	376	3403
3	0	0	1833	4	184	375	3402
4	0	0	1768	4	185	375	3399
5	0	0	1707	4	185	375	3399
6	0	0	1714	4	186	375	3399
7	0	0	1772	5	186	375	3401
8	0	0	1857	5	185	375	3401
9	0	0	1957	4	185	375	3402
10	0	0	2030	5	184	376	3403
11	0	0	2066	5	184	375	3404
12	0	0	2092	5	184	375	3403
13	0	0	2145	5	183	375	3401
14	0	0	2204	4	183	375	3400
15	0	0	2238	5	182	375	3399
16	0	0	2230	4	182	375	3400
17	0	0	2212	5	182	375	3401
18	0	0	2198	5	182	375	3401
19	0	0	2145	4	183	375	3403
20	0	0	2067	4	182	376	3404
21	0	0	1995	4	184	375	3404
22	0	0	1950	4	184	375	3403
23	0	0	1929	5	185	376	3402
24	0	0	1905	4	185	375	3401
25	0	0	1854	4	185	375	3399
26	0	0	1855	5	185	376	3399
27	0	0	1907	5	185	375	3400
28	0	0	1966	5	185	376	3401
29	0	0	2038	5	185	375	3402
30	0	0	2102	5	185	376	3403
31	0	0	2141	5	184	376	3404
32	0	0	2136	5	183	375	3404
33	0	0	2125	5	183	376	3403
34	0	0	2163	5	183	377	3400
35	0	0	2223	5	182	376	3399
36	0	0	2231	4	181	375	3400
37	0	0	2186	4	181	375	3400
38	0	0	2139	4	182	375	3402
39	0	0	2102	4	183	375	3403
40	0	0	2045	4	183	375	3404
41	0	0	1982	4	184	375	3404
42	0	0	1959	4	185	375	3404
43	0	0	1930	4	185	375	3402
44	0	0	1866	4	185	375	3400
45	0	0	1807	4	186	375	3399
46	0	0	1818	5	185	375	3400
47	0	0	1850	5	186	376	3401
48	0	0	1871	5	185	375	3401
49	0	0	1928	5	185	375	3402
50	0	0	2001	5	184	375	3404
51	0	0	2054	4	183	375	3404
52	0	0	2114	5	183	376	3404
53	0	0	2174	5	183	375	3402
54	0	0	2227	5	182	375	3401
55	0	0	2299	5	182	375	3399
56	0	0	2316	4	181	375	3400
57	0	0	2248	4	182	375	3401
58	0	0	2161	5	182	375	3402
59	0	0	2069	4	183	375	3403
60	0	0	1999	4	183	375	3404
61	0	0	1979	5	184	375	3405
62	0	0	1987	5	184	375	3404
63	0	0	1994	5	185	375	3404
64	0	0	1980	4	185	375	3401
65	0	0	1957	5	185	375	3400
66	0	0	1963	4	185	375	3400
67	0	0	1984	5	186	375	3401
68	0	0	2023	5	186	375	3402
69	0	0	2090	4	185	376	3403
70	0	0	2140	5	184	375	3404
71	0	0	2178	5	183	375	3405
72	0	0	2192	5	183	376	3405
73	0	0	2183	5	183	375	3403
74	0	0	2168	5	182	375	3401
75	0	0	2189	5	183	375	3400
76	0	0	2198	4	183	375	3401
77	0	0	2175	3	183	375	3402
78	0	0	2146	4	182	376	3403
79	0	0	2102	4	183	375	3404
80	0	0	2059	4	183	375	3404
81	0	0	2024	3	183	375	3405
82	0	0	2000	4	184	375	3404
83	0	0	1965	4	185	375	3403
84	0	0	1915	4	186	375	3401
85	0	0	1843	4	187	375	3400
86	0	0	1826	3	185	375	3401
87	0	0	1856	5	185	375	3403
88	0	0	1892	5	185	375	3403
89	0	0	1960	5	185	375	3404
90	0	0	2037	5	184	375	3406
91	0	0	2093	5	184	376	3406
92	0	0	2140	5	184	375	3405
93	0	0	2188	6	183	375	3404
94	0	0	2228	5	183	376	3401
95	0	0	2240	5	181	375	3400
96	0	0	2228	5	182	375	3401
97	0	0	2211	4	182	375	3402
98	0	0	2182	4	183	376	3404
99	0	0	2120	5	182	375	3404
100	0	0	2032	4	184	376	3405
101	0	0	1958	4	183	375	3406
102	0	0	1913	4	184	375	3405
103	0	0	1901	5	185	375	3404
104	0	0	1908	6	186	375	3403
105	0	0	1878	4	185	376	3401
106	0	0	1846	3	185	376	3402
107	0	0	1849	5	187	376	3402
108	0	0	1899	5	185	375	3403
109	0	0	1982	5	185	376	3404
110	0	0	2063	5	185	375	3406
111	0	0	2144	5	183	376	3406
112	0	0	2209	5	183	375	3406
113	0	0	2248	5	182	375	3404
114	0	0	2277	5	183	375	3402
115	0	0	2292	5	182	375	3401
116	0	0	2250	3	181	376	3402
117	0	0	2200	4	181	375	3402
118	0	0	2155	4	182	376	3403
119	0	0	2126	5	181	375	3405
120	0	0	2100	4	184	375	3405
121	0	0	2046	4	184	376	3406
122	0	0	1982	4	183	375	3406
123	0	0	1923	4	184	375	3404
124	0	0	1872	4	185	375	3403
125	0	0	1826	4	185	376	3403
126	0	0	1833	5	185	375	3402
127	0	0	1862	5	187	375	3403
0	0	0	1894	5	186	376	3405
1	0	0	1960	5	185	375	3405
2	0	0	2046	5	186	376	3406
3	0	0	2146	5	184	376	3407
4	0	0	2193	5	183	375	3406
5	0	0	2211	5	182	375	3406
6	0	0	2232	5	183	376	3403
7	0	0	2264	5	182	375	3402
8	0	0	2248	4	183	375	3403
9	0	0	2198	4	182	375	3403
10	0	0	2155	5	183	375	3404
11	0	0	2155	5	182	375	3406
12	0	0	2148	4	181	375	3406
13	0	0	2088	4	183	375	3407
14	0	0	1996	4	185	375	3406
15	0	0	1925	4	184	375	3405
16	0	0	1886	4	186	376	3403
17	0	0	1844	4	186	375	3402
18	0	0	1851	4	185	376	3403
19	0	0	1878	5	185	376	3404
20	0	0	1905	5	184	375	3404
21	0	0	1973	5	185	375	3407
22	0	0	2060	5	184	375	3407
23	0	0	2158	4	183	375	3407
24	0	0	2236	5	183	376	3406
25	0	0	2287	5	183	375	3405
26	0	0	2305	5	182	375	3404
27	0	0	2291	4	182	375	3403
28	0	0	2266	4	182	375	3403
29	0	0	2270	4	181	375	3404
30	0	0	2238	4	182	375	3404
31	0	0	2145	3	182	375	3406
32	0	0	2049	4	184	376	3406
33	0	0	2004	4	184	376	3407
34	0	0	2005	5	184	375	3407
35	0	0	2020	5	184	375	3406
36	0	0	1990	4	185	375	3405
37	0	0	1895	4	187	375	3403
38	0	0	1838	4	186	376	3403
39	0	0	1826	4	186	376	3405
40	0	0	1819	5	184	375	3405
41	0	0	1854	5	185	375	3407
42	0	0	1933	5	185	376	3408
43	0	0	2029	4	183	376	3408
44	0	0	2118	5	183	375	3407
45	0	0	2203	5	182	375	3407
46	0	0	2262	5	182	375	3404
47	0	0	2279	5	183	375	3403
48	0	0	2248	4	182	375	3404
49	0	0	2214	4	182	375	3404
50	0	0	2199	4	182	375	3405
51	0	0	2161	5	183	375	3406
52	0	0	2093	4	182	375	3407
53	0	0	2029	4	184	376	3408
54	0	0	1992	4	185	376	3408
55	0	0	1946	5	184	375	3406
56	0	0	1887	4	185	375	3405
57	0	0	1789	4	185	376	3404
58	0	0	1727	4	186	376	3404
59	0	0	1732	5	187	375	3405
60	0	0	1792	5	185	375	3405
61	0	0	1902	5	186	375	3407
62	0	0	2020	5	185	375	3407
63	0	0	2104	5	184	376	3408
64	0	0	2152	5	184	375	3408
65	0	0	2156	5	183	375	3407
66	0	0	2159	5	182	375	3404
67	0	0	2197	5	182	375	3404
68	0	0	2201	5	182	375	3404
69	0	0	2174	4	183	375	3404
70	0	0	2150	4	183	376	3407
71	0	0	2131	5	183	375	3407
72	0	0	2114	4	183	375	3408
73	0	0	2063	4	184	376	3409
74	0	0	1962	4	184	375	3408
75	0	0	1877	4	186	376	3407
76	0	0	1802	4	185	375	3405
77	0	0	1740	4	185	376	3404
78	0	0	1750	5	186	375	3405
79	0	0	1797	5	186	375	3405
80	0	0	1823	5	186	375	3406
81	0	0	1846	5	185	375	3408
82	0	0	1898	5	185	376	3408
83	0	0	1997	5	184	375	3408
84	0	0	2115	5	183	375	3408
85	0	0	2203	5	184	375	3407
86	0	0	2244	4	181	375	3405
87	0	0	2269	5	183	375	3404
88	0	0	2260	4	182	376	3405
89	0	0	2228	4	183	375	3405
90	0	0	2184	4	181	375	3407
91	0	0	2114	4	184	374	3407
92	0	0	2043	4	184	375	3408
93	0	0	1983	4	183	375	3409
94	0	0	1935	4	184	375	3409
95	0	0	1900	4	185	375	3407
96	0	0	1863	5	185	375	3406
97	0	0	1812	4	185	376	3405
98	0	0	1831	5	185	376	3405
99	0	0	1903	5	185	375	3406
100	0	0	2005	5	184	375	3407
101	0	0	2126	5	184	375	3408
102	0	0	2212	5	185	375	3409
103	0	0	2248	5	183	375	3409
104	0	0	2274	5	183	375	3409
105	0	0	2299	5	182	375	3408
106	0	0	2312	6	183	376	3406
107	0	0	2308	5	182	375	3405
108	0	0	2269	4	182	375	3405
109	0	0	2242	4	182	375	3406
110	0	0	2219	4	182	375	3407
111	0	0	2182	4	182	375	3408
112	0	0	2141	4	183	375	3409
113	0	0	2090	4	183	376	3410
114	0	0	2060	4	184	375	3409
115	0	0	2024	4	185	376	3408
116	0	0	1966	4	185	376	3407
117	0	0	1926	5	185	376	3406
118	0	0	1968	5	185	375	3406
119	0	0	2023	5	186	375	3406
120	0	0	2060	5	185	375	3407
121	0	0	2101	5	183	376	3408
122	0	0	2155	5	185	375	3410
123	0	0	2197	5	184	375	3410
124	0	0	2200	5	183	376	3410
125	0	0	2200	4	183	375	3409
126	0	0	2224	5	183	375	3407
127	0	0	2274	5	183	375	3406
0	0	0	2298	4	182	376	3407
1	0	0	2272	4	181	375	3406
2	0	0	2210	4	182	375	3407
3	0	0	2123	4	182	375	3409
4	0	0	2036	4	183	375	3411
5	0	0	1975	4	183	375	3410
6	0	0	1946	4	184	376	3410
7	0	0	1899	4	184	375	3408
8	0	0	1795	5	185	375	3407
9	0	0	1680	4	186	375	3406
10	0	0	1654	5	186	376	3406
11	0	0	1678	5	186	375	3406
12	0	0	1720	5	185	375	3408
13	0	0	1813	4	185	375	3409
14	0	0	1926	5	184	375	3410
15	0	0	2029	5	183	375	3411
16	0	0	2128	5	183	375	3410
17	0	0	2202	5	182	375	3409
18	0	0	2219	5	183	375	3407
19	0	0	2198	4	182	375	3406
20	0	0	2147	4	182	376	3406
21	0	0	2101	4	183	375	3407
22	0	0	2077	5	182	376	3409
23	0	0	2038	4	183	375	3410
24	0	0	2013	4	183	375	3410
25	0	0	1992	4	184	375	3411
26	0	0	1955	4	185	376	3410
27	0	0	1938	5	184	376	3410
28	0	0	1937	4	185	375	3407
29	0	0	1920	4	186	375	3406
30	0	0	1927	5	186	375	3407
31	0	0	1946	5	186	375	3407
32	0	0	1971	5	185	375	3409
