# bioPlux Text File Format
# Version: 1
# StartDateTime: 2011-07-18 13:34:43
# SamplingFrequency: 1000
# SampledChannels: 1 2 3 4
# SamplingResolution: 12
# AcquiringDevice: 00:07:80:42:0F:8B
# EndOfHeader
0	0	0	2115	846	3858	80
1	0	0	2037	845	3859	79
2	0	0	1984	847	3857	80
3	0	0	1936	845	3859	79
4	0	0	1893	846	3857	78
5	0	0	1876	848	3857	79
6	0	0	1887	848	3858	80
7	0	0	1928	849	3856	80
8	0	0	1994	847	3859	79
9	0	0	2067	850	3857	81
10	0	0	2126	849	3857	82
11	0	0	2162	848	3857	81
12	0	0	2184	850	3857	82
13	0	0	2210	851	3857	81
14	0	0	2218	851	3857	80
15	0	0	2217	852	3857	80
16	0	0	2212	850	3859	81
17	0	0	2166	847	3858	80
18	0	0	2116	847	3859	79
19	0	0	2097	849	3858	79
20	0	0	2068	847	3858	79
21	0	0	2031	847	3858	80
22	0	0	1985	847	3857	78
23	0	0	1933	847	3859	79
24	0	0	1909	848	3857	79
25	0	0	1917	848	3857	79
26	0	0	1935	848	3857	80
27	0	0	1953	847	3859	80
28	0	0	1972	848	3858	82
29	0	0	2005	849	3858	81
30	0	0	2040	851	3855	82
31	0	0	2095	850	3858	80
32	0	0	2161	851	3859	82
33	0	0	2227	853	3859	81
34	0	0	2269	851	3858	81
35	0	0	2262	852	3858	81
36	0	0	2221	850	3857	80
37	0	0	2160	848	3858	82
38	0	0	2095	847	3859	80
39	0	0	2037	847	3858	79
40	0	0	2004	848	3857	79
41	0	0	1997	852	3857	79
42	0	0	1993	851	3857	80
43	0	0	1978	849	3859	79
44	0	0	1958	845	3857	79
45	0	0	1952	846	3857	79
46	0	0	1959	848	3857	82
47	0	0	1962	847	3859	81
48	0	0	1967	851	3858	81
49	0	0	2000	849	3858	81
50	0	0	2056	847	3858	81
51	0	0	2123	853	3857	80
52	0	0	2180	849	3858	82
53	0	0	2209	851	3859	82
54	0	0	2220	852	3858	81
55	0	0	2235	851	3859	80
56	0	0	2220	848	3860	83
57	0	0	2187	848	3859	82
58	0	0	2156	851	3858	80
59	0	0	2113	847	3858	79
60	0	0	2057	846	3857	79
61	0	0	2017	848	3857	80
62	0	0	2001	849	3857	79
63	0	0	1973	844	3857	78
64	0	0	1917	844	3859	79
65	0	0	1866	844	3858	80
66	0	0	1829	846	3859	80
67	0	0	1854	849	3861	83
68	0	0	1908	850	3859	81
69	0	0	1985	848	3858	80
70	0	0	2077	847	3858	81
71	0	0	2140	852	3857	81
72	0	0	2150	851	3858	81
73	0	0	2141	848	3858	81
74	0	0	2102	847	3857	81
75	0	0	2105	851	3859	80
76	0	0	2146	851	3860	81
77	0	0	2150	851	3860	80
78	0	0	2122	849	3857	79
79	0	0	2079	847	3859	77
80	0	0	2032	845	3858	79
81	0	0	2003	847	3858	81
82	0	0	1978	847	3859	79
83	0	0	1932	844	3859	80
84	0	0	1874	844	3858	79
85	0	0	1842	845	3858	80
86	0	0	1850	850	3857	79
87	0	0	1904	844	3860	81
88	0	0	1976	848	3859	81
89	0	0	2016	848	3858	81
90	0	0	2031	848	3859	80
91	0	0	2038	850	3857	83
92	0	0	2044	849	3857	79
93	0	0	2074	854	3858	79
94	0	0	2114	851	3857	81
95	0	0	2150	851	3857	80
96	0	0	2159	851	3857	82
97	0	0	2135	848	3859	80
98	0	0	2094	848	3859	79
99	0	0	2036	846	3858	79
100	0	0	1963	844	3858	79
101	0	0	1889	847	3858	79
102	0	0	1844	845	3858	79
103	0	0	1828	847	3860	79
104	0	0	1810	845	3858	79
105	0	0	1808	847	3857	79
106	0	0	1852	849	3857	81
107	0	0	1934	847	3858	79
108	0	0	2018	848	3857	80
109	0	0	2081	848	3857	81
110	0	0	2116	849	3857	82
111	0	0	2132	848	3857	82
112	0	0	2159	850	3856	81
113	0	0	2212	849	3859	81
114	0	0	2262	851	3857	81
115	0	0	2276	851	3858	81
116	0	0	2243	848	3858	81
117	0	0	2194	848	3857	80
118	0	0	2169	850	3857	80
119	0	0	2155	848	3859	80
120	0	0	2127	847	3859	79
121	0	0	2133	848	3858	79
122	0	0	2164	848	3860	79
123	0	0	2179	848	3858	79
124	0	0	2170	848	3857	80
125	0	0	2183	847	3858	80
126	0	0	2196	849	3857	80
127	0	0	2200	848	3860	81
0	0	0	2240	848	3858	81
1	0	0	2310	848	3857	81
2	0	0	2377	850	3855	81
3	0	0	2436	848	3857	81
4	0	0	2468	849	3859	82
5	0	0	2476	849	3858	82
6	0	0	2501	851	3858	82
7	0	0	2501	850	3859	80
8	0	0	2436	847	3858	80
9	0	0	2313	847	3858	79
10	0	0	2171	846	3858	80
11	0	0	2055	846	3859	80
12	0	0	1960	845	3857	79
13	0	0	1898	845	3858	80
14	0	0	1834	845	3856	79
15	0	0	1752	844	3856	79
16	0	0	1692	844	3857	79
17	0	0	1692	845	3857	79
18	0	0	1684	843	3857	81
19	0	0	1631	843	3859	81
20	0	0	1590	845	3858	80
21	0	0	1571	846	3859	80
22	0	0	1564	847	3859	82
23	0	0	1612	849	3858	81
24	0	0	1681	849	3858	80
25	0	0	1732	850	3856	81
26	0	0	1779	849	3858	81
27	0	0	1806	850	3857	80
28	0	0	1800	848	3858	81
29	0	0	1777	847	3856	77
30	0	0	1731	848	3856	80
31	0	0	1673	848	3855	80
32	0	0	1664	850	3857	79
33	0	0	1685	849	3857	79
34	0	0	1706	848	3856	76
35	0	0	1731	847	3856	78
36	0	0	1722	845	3857	77
37	0	0	1706	846	3858	80
38	0	0	1725	846	3859	81
39	0	0	1757	847	3858	79
40	0	0	1792	848	3859	81
41	0	0	1842	848	3859	80
42	0	0	1907	849	3858	81
43	0	0	1968	848	3858	82
44	0	0	2031	848	3857	80
45	0	0	2089	851	3857	79
46	0	0	2132	849	3855	82
47	0	0	2163	850	3858	80
48	0	0	2162	850	3859	83
49	0	0	2158	851	3858	81
50	0	0	2164	851	3858	79
51	0	0	2128	846	3857	79
52	0	0	2089	846	3859	79
53	0	0	2079	848	3860	79
54	0	0	2054	845	3858	78
55	0	0	1994	844	3860	79
56	0	0	1920	844	3858	79
57	0	0	1879	844	3859	79
58	0	0	1883	847	3857	80
59	0	0	1921	847	3860	81
60	0	0	2000	847	3859	81
61	0	0	2068	848	3857	82
62	0	0	2090	849	3858	81
63	0	0	2114	847	3857	80
64	0	0	2131	849	3855	80
65	0	0	2131	847	3856	80
66	0	0	2133	850	3859	81
67	0	0	2107	848	3857	81
68	0	0	2087	850	3857	80
69	0	0	2102	850	3859	79
70	0	0	2118	852	3858	79
71	0	0	2098	844	3861	80
72	0	0	2051	848	3859	79
73	0	0	2016	846	3860	79
74	0	0	1997	848	3859	79
75	0	0	1993	847	3858	78
76	0	0	2001	846	3857	79
77	0	0	2010	848	3858	79
78	0	0	2001	846	3859	79
79	0	0	2003	847	3855	82
80	0	0	2052	847	3857	82
81	0	0	2109	847	3857	81
82	0	0	2142	848	3858	81
83	0	0	2149	849	3858	79
84	0	0	2148	849	3856	82
85	0	0	2143	847	3857	81
86	0	0	2164	849	3857	81
87	0	0	2191	850	3860	80
88	0	0	2213	850	3858	79
89	0	0	2224	851	3861	80
90	0	0	2229	847	3859	80
91	0	0	2244	850	3859	79
92	0	0	2228	846	3858	79
93	0	0	2199	845	3858	79
94	0	0	2167	845	3860	79
95	0	0	2112	843	3858	78
96	0	0	2044	843	3857	79
97	0	0	1985	843	3859	80
98	0	0	1923	843	3856	81
99	0	0	1915	847	3855	81
100	0	0	1976	847	3859	81
101	0	0	2056	848	3857	81
102	0	0	2113	848	3858	80
103	0	0	2140	850	3858	82
104	0	0	2153	849	3859	82
105	0	0	2165	848	3859	82
106	0	0	2177	850	3858	81
107	0	0	2191	850	3858	80
108	0	0	2183	848	3860	79
109	0	0	2150	847	3859	81
110	0	0	2116	847	3859	80
111	0	0	2094	847	3857	79
112	0	0	2072	847	3857	78
113	0	0	2034	846	3859	75
114	0	0	2007	846	3855	79
115	0	0	1983	842	3857	78
116	0	0	1960	845	3857	79
117	0	0	1966	846	3857	79
118	0	0	2004	846	3859	83
119	0	0	2055	847	3857	81
120	0	0	2091	847	3859	81
121	0	0	2115	847	3858	81
122	0	0	2142	847	3860	82
123	0	0	2158	847	3859	81
124	0	0	2200	849	3859	79
125	0	0	2250	847	3858	81
126	0	0	2255	849	3858	82
127	0	0	2232	847	3858	80
0	0	0	2196	847	3858	82
1	0	0	2167	848	3859	80
2	0	0	2151	845	3858	79
3	0	0	2121	846	3857	79
4	0	0	2083	848	3856	79
5	0	0	2062	847	3858	75
6	0	0	2060	848	3858	80
7	0	0	2056	847	3858	78
8	0	0	2030	843	3857	79
9	0	0	1990	843	3860	80
10	0	0	1950	843	3859	80
11	0	0	1935	845	3860	80
12	0	0	1950	844	3860	81
13	0	0	1999	847	3858	81
14	0	0	2065	847	3859	80
15	0	0	2118	848	3858	79
16	0	0	2148	850	3857	81
17	0	0	2187	848	3858	82
18	0	0	2223	849	3857	81
19	0	0	2243	847	3857	80
20	0	0	2249	850	3858	79
21	0	0	2241	849	3858	80
22	0	0	2221	848	3858	80
23	0	0	2209	849	3858	79
24	0	0	2217	849	3857	80
25	0	0	2205	844	3858	79
26	0	0	2146	843	3857	80
27	0	0	2086	840	3859	80
28	0	0	2019	843	3858	79
29	0	0	1989	847	3857	80
30	0	0	2009	845	3859	80
31	0	0	2046	847	3857	81
32	0	0	2091	846	3859	81
33	0	0	2135	847	3858	81
34	0	0	2172	846	3857	80
35	0	0	2206	848	3855	81
36	0	0	2223	849	3856	82
37	0	0	2236	847	3858	80
38	0	0	2283	849	3856	80
39	0	0	2314	850	3859	81
40	0	0	2285	846	3860	81
41	0	0	2250	848	3858	80
42	0	0	2209	846	3859	80
43	0	0	2163	846	3858	79
44	0	0	2145	847	3858	79
45	0	0	2131	844	3858	79
46	0	0	2105	846	3859	79
47	0	0	2097	844	3859	79
48	0	0	2093	847	3858	79
49	0	0	2090	846	3858	79
50	0	0	2100	848	3855	80
51	0	0	2108	847	3858	81
52	0	0	2131	846	3860	81
53	0	0	2180	847	3859	81
54	0	0	2224	850	3856	81
55	0	0	2236	848	3857	80
56	0	0	2271	848	3858	81
57	0	0	2311	848	3857	81
58	0	0	2329	850	3857	81
59	0	0	2336	851	3858	80
60	0	0	2332	850	3859	80
61	0	0	2288	845	3857	81
62	0	0	2212	846	3860	79
63	0	0	2148	845	3857	76
64	0	0	2138	848	3860	79
65	0	0	2170	848	3858	79
66	0	0	2180	847	3856	79
67	0	0	2134	843	3860	79
68	0	0	2076	843	3857	79
69	0	0	2048	845	3857	80
70	0	0	2061	846	3858	80
71	0	0	2103	846	3858	81
72	0	0	2175	846	3858	80
73	0	0	2263	846	3857	80
74	0	0	2308	849	3857	81
75	0	0	2295	849	3855	81
76	0	0	2292	848	3858	82
77	0	0	2322	848	3859	82
78	0	0	2357	849	3858	80
79	0	0	2357	848	3859	81
80	0	0	2317	846	3859	81
81	0	0	2284	846	3858	81
82	0	0	2249	846	3859	80
83	0	0	2216	846	3857	79
84	0	0	2189	845	3861	80
85	0	0	2158	845	3856	80
86	0	0	2126	845	3859	78
87	0	0	2092	843	3859	78
88	0	0	2062	844	3857	80
89	0	0	2062	844	3859	80
90	0	0	2078	848	3856	79
91	0	0	2095	846	3857	81
92	0	0	2118	846	3858	80
93	0	0	2161	846	3858	82
94	0	0	2193	847	3859	81
95	0	0	2204	847	3859	80
96	0	0	2220	848	3859	81
97	0	0	2243	847	3858	81
98	0	0	2242	849	3858	80
99	0	0	2247	849	3857	80
100	0	0	2276	849	3858	81
101	0	0	2299	851	3857	80
102	0	0	2290	848	3858	81
103	0	0	2269	848	3855	80
104	0	0	2235	845	3857	79
105	0	0	2184	844	3858	79
106	0	0	2133	844	3858	78
107	0	0	2110	845	3857	79
108	0	0	2098	846	3857	79
109	0	0	2064	842	3858	82
110	0	0	2024	843	3859	79
111	0	0	2031	846	3860	81
112	0	0	2091	847	3859	81
113	0	0	2152	846	3857	81
114	0	0	2218	847	3858	81
115	0	0	2270	847	3859	82
116	0	0	2303	848	3857	81
117	0	0	2319	849	3857	81
118	0	0	2316	850	3856	81
119	0	0	2291	847	3857	80
120	0	0	2258	847	3856	80
121	0	0	2220	846	3858	79
122	0	0	2187	846	3858	79
123	0	0	2154	846	3858	79
124	0	0	2114	843	3858	79
125	0	0	2068	845	3858	79
126	0	0	2033	844	3860	79
127	0	0	1993	843	3858	80
0	0	0	1953	843	3859	79
1	0	0	1937	843	3856	79
2	0	0	1954	847	3858	79
3	0	0	2008	846	3859	80
4	0	0	2059	845	3858	81
5	0	0	2090	848	3857	81
6	0	0	2131	847	3857	81
7	0	0	2180	847	3858	83
8	0	0	2176	844	3857	81
9	0	0	2130	845	3857	81
10	0	0	2100	846	3857	80
11	0	0	2099	848	3856	81
12	0	0	2102	849	3859	81
13	0	0	2114	850	3857	79
14	0	0	2117	849	3859	80
15	0	0	2109	848	3858	75
16	0	0	2086	844	3857	79
17	0	0	2040	846	3858	76
18	0	0	1980	843	3860	78
19	0	0	1931	843	3858	79
20	0	0	1891	842	3858	75
21	0	0	1868	844	3857	80
22	0	0	1876	847	3857	80
23	0	0	1904	845	3859	80
24	0	0	1942	847	3856	81
25	0	0	1996	847	3855	81
26	0	0	2051	845	3857	82
27	0	0	2086	847	3857	81
28	0	0	2097	846	3858	81
29	0	0	2073	848	3858	82
30	0	0	2095	848	3859	81
31	0	0	2096	847	3857	80
32	0	0	2081	851	3858	80
33	0	0	2060	845	3858	78
34	0	0	2006	844	3859	80
35	0	0	1955	846	3859	78
36	0	0	1921	846	3858	79
37	0	0	1910	847	3858	79
38	0	0	1925	847	3860	78
39	0	0	1901	842	3859	79
40	0	0	1867	842	3857	79
41	0	0	1837	843	3857	79
42	0	0	1791	841	3858	79
43	0	0	1759	844	3857	79
44	0	0	1817	846	3857	81
45	0	0	1939	847	3859	81
46	0	0	2028	847	3857	81
47	0	0	2071	847	3857	81
48	0	0	2107	848	3857	79
49	0	0	2134	848	3858	82
50	0	0	2165	848	3858	80
51	0	0	2164	847	3858	81
52	0	0	2127	846	3858	81
53	0	0	2090	846	3858	78
54	0	0	2060	846	3859	80
55	0	0	2044	848	3857	80
56	0	0	2036	847	3857	79
57	0	0	2006	843	3858	78
58	0	0	1972	843	3857	77
59	0	0	1935	843	3858	78
60	0	0	1901	842	3857	79
61	0	0	1886	844	3856	82
62	0	0	1874	843	3857	80
63	0	0	1862	844	3857	80
64	0	0	1875	846	3859	82
65	0	0	1898	846	3858	80
66	0	0	1949	846	3858	81
67	0	0	2007	846	3859	81
68	0	0	2080	847	3860	81
69	0	0	2120	848	3859	80
70	0	0	2144	848	3857	81
71	0	0	2168	850	3857	80
72	0	0	2167	847	3858	80
73	0	0	2130	845	3858	81
74	0	0	2049	845	3859	80
75	0	0	1984	845	3857	79
76	0	0	1956	845	3857	79
77	0	0	1944	843	3859	78
78	0	0	1912	844	3857	79
79	0	0	1867	842	3857	79
80	0	0	1844	843	3857	79
81	0	0	1839	845	3858	80
82	0	0	1843	843	3860	78
83	0	0	1864	846	3861	80
84	0	0	1909	845	3860	81
85	0	0	1980	846	3859	81
86	0	0	2038	846	3859	81
87	0	0	2087	846	3858	81
88	0	0	2169	848	3858	79
89	0	0	2209	848	3858	80
90	0	0	2214	847	3857	81
91	0	0	2191	845	3856	79
92	0	0	2121	845	3857	81
93	0	0	2037	844	3859	80
94	0	0	1985	846	3857	80
95	0	0	1982	848	3861	80
96	0	0	1971	846	3857	79
97	0	0	1942	844	3858	79
98	0	0	1890	843	3858	78
99	0	0	1832	842	3859	79
100	0	0	1784	843	3859	80
101	0	0	1780	846	3857	79
102	0	0	1820	843	3861	80
103	0	0	1897	845	3859	78
104	0	0	1978	845	3859	81
105	0	0	2031	846	3858	81
106	0	0	2058	846	3856	83
107	0	0	2087	847	3857	81
108	0	0	2132	847	3858	81
109	0	0	2183	848	3859	82
110	0	0	2220	848	3857	82
111	0	0	2200	847	3857	81
112	0	0	2174	844	3855	80
113	0	0	2131	844	3857	81
114	0	0	2059	844	3859	80
115	0	0	1986	844	3859	79
116	0	0	1965	848	3859	80
117	0	0	1989	847	3859	79
118	0	0	1995	847	3859	78
119	0	0	1959	842	3860	79
120	0	0	1913	842	3858	79
121	0	0	1869	842	3858	80
122	0	0	1856	844	3859	80
123	0	0	1883	844	3858	79
124	0	0	1937	843	3859	79
125	0	0	1984	845	3857	82
126	0	0	2012	848	3857	80
127	0	0	2051	845	3859	80
0	0	0	2082	848	3856	82
1	0	0	2086	849	3856	83
2	0	0	2103	848	3857	80
3	0	0	2110	848	3859	80
4	0	0	2110	848	3860	79
5	0	0	2093	846	3859	79
6	0	0	2066	846	3860	80
7	0	0	2063	848	3858	75
8	0	0	2064	847	3859	77
9	0	0	2043	844	3859	79
10	0	0	2005	843	3862	80
11	0	0	1953	842	3857	80
12	0	0	1885	841	3857	79
13	0	0	1845	843	3857	79
14	0	0	1870	845	3857	80
15	0	0	1906	844	3856	82
16	0	0	1941	846	3858	81
17	0	0	1999	846	3859	80
18	0	0	2027	847	3857	79
19	0	0	2049	847	3858	82
20	0	0	2099	847	3859	79
21	0	0	2145	848	3860	81
22	0	0	2156	847	3858	80
23	0	0	2117	845	3859	80
24	0	0	2059	845	3859	81
25	0	0	2037	848	3858	81
26	0	0	2034	848	3859	79
27	0	0	2011	844	3858	79
28	0	0	1988	846	3858	79
29	0	0	1984	846	3858	79
30	0	0	1972	843	3856	79
31	0	0	1934	842	3856	78
32	0	0	1885	842	3857	78
33	0	0	1845	842	3857	80
34	0	0	1844	844	3857	80
35	0	0	1868	844	3858	81
36	0	0	1929	845	3858	82
37	0	0	2029	846	3860	81
38	0	0	2128	848	3858	81
39	0	0	2149	847	3862	81
40	0	0	2142	847	3859	79
41	0	0	2134	847	3858	80
42	0	0	2142	847	3858	82
43	0	0	2126	846	3858	81
44	0	0	2097	844	3857	80
45	0	0	2074	847	3858	79
46	0	0	2070	847	3856	80
47	0	0	2063	848	3856	80
48	0	0	2051	847	3857	79
49	0	0	2028	844	3856	79
50	0	0	1982	843	3856	79
51	0	0	1915	842	3856	78
52	0	0	1859	842	3857	79
53	0	0	1848	845	3858	79
54	0	0	1856	844	3857	80
55	0	0	1862	844	3859	79
56	0	0	1901	846	3856	81
57	0	0	1963	845	3859	80
58	0	0	2029	846	3859	80
59	0	0	2083	846	3856	83
60	0	0	2119	846	3859	81
61	0	0	2133	847	3856	80
62	0	0	2136	848	3857	81
63	0	0	2113	845	3857	80
64	0	0	2086	845	3860	80
65	0	0	2078	848	3858	79
66	0	0	2066	847	3856	79
67	0	0	2044	844	3859	79
68	0	0	2005	842	3856	79
69	0	0	1962	843	3858	79
70	0	0	1936	845	3860	79
71	0	0	1940	845	3856	78
72	0	0	1927	843	3859	79
73	0	0	1926	844	3858	80
74	0	0	1930	844	3857	79
75	0	0	1948	845	3859	79
76	0	0	1985	845	3859	81
77	0	0	2013	845	3858	79
78	0	0	2027	846	3858	82
79	0	0	2053	845	3856	83
80	0	0	2099	847	3859	81
81	0	0	2131	846	3856	83
82	0	0	2168	848	3857	80
83	0	0	2180	847	3859	80
84	0	0	2142	845	3858	79
85	0	0	2093	846	3859	80
86	0	0	2036	844	3860	79
87	0	0	2019	847	3859	82
88	0	0	2022	846	3859	76
89	0	0	1978	842	3858	79
90	0	0	1911	842	3859	77
91	0	0	1903	845	3859	79
92	0	0	1932	845	3858	79
93	0	0	1949	845	3858	80
94	0	0	1947	844	3855	80
95	0	0	1939	844	3859	81
96	0	0	1947	846	3857	81
97	0	0	2002	846	3855	82
98	0	0	2084	846	3857	81
99	0	0	2144	847	3858	81
100	0	0	2190	846	3859	81
101	0	0	2208	847	3857	80
102	0	0	2219	848	3859	81
103	0	0	2194	847	3858	80
104	0	0	2147	844	3858	80
105	0	0	2110	846	3860	80
106	0	0	2094	845	3859	79
107	0	0	2070	845	3857	80
108	0	0	2043	845	3858	79
109	0	0	2016	843	3856	79
110	0	0	1976	842	3857	77
111	0	0	1945	843	3859	78
112	0	0	1905	841	3857	79
113	0	0	1863	840	3859	80
114	0	0	1864	845	3858	80
115	0	0	1877	844	3859	80
116	0	0	1899	845	3858	81
117	0	0	1945	845	3858	80
118	0	0	2027	847	3858	81
119	0	0	2120	846	3857	80
120	0	0	2152	847	3859	80
121	0	0	2150	846	3859	80
122	0	0	2144	847	3859	81
123	0	0	2115	845	3859	82
124	0	0	2097	847	3858	81
125	0	0	2102	848	3859	80
126	0	0	2112	847	3859	79
127	0	0	2074	845	3855	81
0	0	0	1996	842	3857	79
1	0	0	1910	842	3856	79
2	0	0	1865	843	3858	80
3	0	0	1847	842	3859	79
4	0	0	1845	844	3857	79
5	0	0	1853	843	3859	79
6	0	0	1863	843	3858	79
7	0	0	1889	845	3857	80
8	0	0	1935	845	3859	80
9	0	0	2008	844	3858	81
10	0	0	2085	844	3858	81
11	0	0	2159	847	3860	82
12	0	0	2202	846	3859	80
13	0	0	2211	847	3857	80
14	0	0	2192	847	3857	82
15	0	0	2186	847	3857	81
16	0	0	2200	847	3856	81
17	0	0	2208	847	3858	82
18	0	0	2167	844	3859	80
19	0	0	2115	844	3857	79
20	0	0	2083	843	3855	79
21	0	0	2048	844	3857	79
22	0	0	2007	843	3858	79
23	0	0	1973	842	3857	79
24	0	0	1957	844	3858	79
25	0	0	1959	843	3860	80
26	0	0	1979	843	3858	79
27	0	0	2016	842	3859	84
28	0	0	2044	844	3857	80
29	0	0	2062	845	3858	82
30	0	0	2105	845	3856	82
31	0	0	2177	846	3859	80
32	0	0	2232	846	3857	80
33	0	0	2237	847	3859	81
34	0	0	2217	845	3857	81
35	0	0	2197	846	3859	79
36	0	0	2181	847	3859	84
37	0	0	2161	844	3858	83
38	0	0	2120	844	3859	80
39	0	0	2066	843	3857	82
40	0	0	2056	846	3856	79
41	0	0	2064	847	3858	79
42	0	0	2018	842	3859	80
43	0	0	1972	841	3858	77
44	0	0	1947	842	3858	79
45	0	0	1945	847	3857	79
46	0	0	1977	844	3859	80
47	0	0	1999	845	3858	79
48	0	0	1994	845	3857	80
49	0	0	2033	845	3858	81
50	0	0	2107	848	3856	82
51	0	0	2165	847	3859	81
52	0	0	2200	846	3858	79
53	0	0	2171	844	3857	82
54	0	0	2153	846	3858	82
55	0	0	2135	844	3859	84
56	0	0	2087	845	3858	81
57	0	0	2049	844	3858	82
58	0	0	2027	845	3859	79
59	0	0	1991	843	3858	80
60	0	0	1943	843	3858	79
61	0	0	1916	845	3860	79
62	0	0	1903	843	3858	79
63	0	0	1883	841	3857	78
64	0	0	1856	841	3859	79
65	0	0	1850	846	3858	79
66	0	0	1879	846	3858	81
67	0	0	1921	843	3858	84
68	0	0	1953	844	3856	80
69	0	0	1971	843	3861	81
70	0	0	1988	844	3859	81
71	0	0	2037	845	3858	80
72	0	0	2070	846	3858	83
73	0	0	2081	846	3856	82
74	0	0	2110	847	3857	81
75	0	0	2132	851	3858	81
76	0	0	2138	847	3859	81
77	0	0	2142	847	3859	83
78	0	0	2119	845	3860	80
79	0	0	2071	843	3859	79
80	0	0	2018	847	3857	79
81	0	0	1985	843	3858	79
82	0	0	1942	841	3858	79
83	0	0	1883	841	3859	79
84	0	0	1833	840	3857	79
85	0	0	1805	841	3857	80
86	0	0	1817	845	3858	79
87	0	0	1877	844	3858	79
88	0	0	1945	844	3859	81
89	0	0	2005	845	3857	81
90	0	0	2051	847	3855	82
91	0	0	2104	847	3858	81
92	0	0	2156	846	3859	81
93	0	0	2192	846	3858	82
94	0	0	2208	846	3858	81
95	0	0	2216	847	3859	82
96	0	0	2179	842	3859	84
97	0	0	2119	844	3859	79
98	0	0	2085	844	3857	80
99	0	0	2031	843	3858	80
100	0	0	1973	843	3858	80
101	0	0	1948	845	3858	79
102	0	0	1924	842	3859	75
103	0	0	1893	841	3857	79
104	0	0	1865	841	3858	79
105	0	0	1860	841	3858	80
106	0	0	1886	843	3858	80
107	0	0	1918	843	3858	83
108	0	0	1965	843	3858	81
109	0	0	2038	844	3861	83
110	0	0	2103	844	3857	83
111	0	0	2105	846	3859	81
112	0	0	2099	846	3859	76
113	0	0	2080	843	3860	57
114	0	0	2069	844	3858	81
115	0	0	2056	847	3858	80
116	0	0	2043	847	3858	80
117	0	0	2034	846	3858	76
118	0	0	2019	845	3860	80
119	0	0	2000	843	3858	79
120	0	0	1990	847	3857	79
121	0	0	2000	845	3858	79
122	0	0	2000	845	3857	75
123	0	0	1990	843	3856	79
124	0	0	1970	840	3858	80
125	0	0	1955	842	3858	79
126	0	0	1947	843	3858	80
127	0	0	1964	844	3859	79
0	0	0	2010	843	3860	81
1	0	0	2060	843	3859	81
2	0	0	2091	844	3858	81
3	0	0	2122	844	3857	83
4	0	0	2158	844	3859	79
5	0	0	2186	846	3860	82
6	0	0	2204	846	3858	81
7	0	0	2224	847	3857	81
8	0	0	2255	846	3858	81
9	0	0	2283	847	3859	80
10	0	0	2292	846	3859	79
11	0	0	2283	846	3859	79
12	0	0	2286	843	3859	79
13	0	0	2300	843	3859	79
14	0	0	2300	846	3859	79
15	0	0	2282	842	3860	75
16	0	0	2243	842	3860	79
17	0	0	2209	841	3858	79
18	0	0	2176	839	3859	79
19	0	0	2154	844	3858	80
20	0	0	2178	843	3859	80
21	0	0	2238	844	3859	82
22	0	0	2278	842	3860	81
23	0	0	2299	842	3859	80
24	0	0	2280	843	3858	80
25	0	0	2210	841	3859	81
26	0	0	2131	842	3856	80
27	0	0	2095	844	3856	83
28	0	0	2067	842	3856	79
29	0	0	1981	843	3858	80
30	0	0	1896	842	3859	79
31	0	0	1837	842	3860	80
32	0	0	1767	842	3859	79
33	0	0	1706	840	3858	79
34	0	0	1647	841	3859	80
35	0	0	1582	839	3859	78
36	0	0	1527	840	3858	80
37	0	0	1502	841	3859	79
38	0	0	1518	843	3859	79
39	0	0	1552	840	3858	80
40	0	0	1588	843	3857	80
41	0	0	1617	843	3857	81
42	0	0	1656	845	3857	81
43	0	0	1723	844	3856	81
44	0	0	1799	846	3858	82
45	0	0	1840	845	3859	81
46	0	0	1855	846	3858	80
47	0	0	1870	846	3858	81
48	0	0	1886	845	3858	79
49	0	0	1883	844	3859	80
50	0	0	1860	845	3861	80
51	0	0	1863	845	3858	79
52	0	0	1867	845	3859	84
53	0	0	1837	839	3859	79
54	0	0	1785	840	3859	79
55	0	0	1751	841	3859	80
56	0	0	1767	843	3858	79
57	0	0	1815	843	3858	79
58	0	0	1876	842	3857	79
59	0	0	1926	844	3858	82
60	0	0	1987	844	3859	80
61	0	0	2044	843	3857	81
62	0	0	2113	844	3856	83
63	0	0	2159	844	3857	79
64	0	0	2172	846	3859	80
65	0	0	2174	845	3859	80
66	0	0	2138	843	3859	81
67	0	0	2096	843	3859	79
68	0	0	2074	846	3859	80
69	0	0	2076	846	3856	80
70	0	0	2094	846	3860	80
71	0	0	2110	847	3858	79
72	0	0	2126	845	3859	82
73	0	0	2111	839	3859	78
74	0	0	2081	843	3858	79
75	0	0	2068	843	3857	78
76	0	0	2050	841	3857	79
77	0	0	2011	840	3857	79
78	0	0	1978	839	3857	77
79	0	0	1989	842	3858	80
80	0	0	2020	843	3859	80
81	0	0	2061	844	3860	81
82	0	0	2116	844	3861	82
83	0	0	2166	842	3859	80
84	0	0	2175	845	3859	82
85	0	0	2149	843	3860	82
86	0	0	2134	845	3858	83
87	0	0	2126	846	3858	84
88	0	0	2129	845	3857	81
89	0	0	2134	847	3858	80
90	0	0	2129	846	3857	79
91	0	0	2120	844	3857	80
92	0	0	2086	842	3857	79
93	0	0	2049	841	3855	80
94	0	0	2002	843	3858	80
95	0	0	1978	842	3857	80
96	0	0	1976	843	3857	78
97	0	0	1992	842	3858	79
98	0	0	1968	839	3858	79
99	0	0	1958	843	3860	80
100	0	0	1989	843	3858	80
101	0	0	2063	843	3859	81
102	0	0	2143	846	3859	81
103	0	0	2200	843	3857	82
104	0	0	2227	845	3859	83
105	0	0	2224	845	3857	84
106	0	0	2211	845	3859	82
107	0	0	2214	846	3858	79
108	0	0	2234	847	3857	80
109	0	0	2234	845	3858	82
110	0	0	2189	843	3857	80
111	0	0	2149	842	3857	80
112	0	0	2138	846	3858	76
113	0	0	2145	843	3857	76
114	0	0	2086	841	3859	80
115	0	0	2022	839	3861	79
116	0	0	1964	839	3858	79
117	0	0	1934	840	3859	80
118	0	0	1944	843	3859	79
119	0	0	1968	844	3859	80
120	0	0	2007	843	3859	80
121	0	0	2072	843	3858	81
122	0	0	2123	844	3859	81
123	0	0	2157	843	3856	82
124	0	0	2191	846	3858	82
125	0	0	2214	845	3857	83
126	0	0	2221	845	3857	81
127	0	0	2199	843	3856	81
0	0	0	2176	842	3857	80
1	0	0	2131	843	3858	79
2	0	0	2083	843	3858	81
3	0	0	2074	845	3858	79
4	0	0	2067	842	3859	80
5	0	0	2021	841	3858	80
6	0	0	1981	841	3859	79
7	0	0	1965	840	3859	79
8	0	0	1943	838	3858	79
9	0	0	1934	842	3858	80
10	0	0	1951	842	3859	79
11	0	0	1974	843	3859	80
12	0	0	2002	842	3858	81
13	0	0	2046	841	3858	82
14	0	0	2099	844	3856	79
15	0	0	2138	844	3858	81
16	0	0	2177	844	3858	81
17	0	0	2226	843	3857	82
18	0	0	2252	845	3857	81
19	0	0	2254	845	3858	81
20	0	0	2243	844	3857	83
21	0	0	2218	843	3859	79
22	0	0	2163	842	3859	82
23	0	0	2131	843	3858	80
24	0	0	2115	841	3858	79
25	0	0	2076	842	3858	80
26	0	0	2056	844	3859	79
27	0	0	2053	843	3857	80
28	0	0	2036	841	3858	79
29	0	0	2033	843	3858	81
30	0	0	2070	841	3857	80
31	0	0	2127	842	3858	81
32	0	0	2153	839	3855	83
33	0	0	2157	843	3859	81
34	0	0	2179	844	3859	83
35	0	0	2227	841	3858	81
36	0	0	2268	844	3860	82
37	0	0	2259	845	3859	81
38	0	0	2258	846	3860	79
39	0	0	2263	845	3861	82
40	0	0	2249	844	3859	81
41	0	0	2230	844	3859	81
42	0	0	2197	842	3858	82
43	0	0	2163	842	3859	79
44	0	0	2098	839	3860	79
45	0	0	2034	840	3858	79
46	0	0	2015	842	3860	80
47	0	0	2001	841	3857	81
48	0	0	1993	844	3857	79
49	0	0	2008	841	3856	79
50	0	0	2034	842	3857	82
51	0	0	2060	842	3857	80
52	0	0	2078	842	3857	81
53	0	0	2096	843	3858	81
54	0	0	2123	843	3859	80
55	0	0	2167	844	3860	86
56	0	0	2213	844	3859	83
57	0	0	2240	845	3859	83
58	0	0	2249	845	3858	81
59	0	0	2262	845	3858	81
60	0	0	2246	844	3858	84
61	0	0	2217	842	3859	83
62	0	0	2208	845	3857	79
63	0	0	2217	845	3857	79
64	0	0	2222	845	3857	79
65	0	0	2211	844	3858	79
66	0	0	2175	840	3858	81
67	0	0	2130	839	3857	77
68	0	0	2096	839	3857	79
69	0	0	2066	840	3858	80
70	0	0	2059	841	3860	84
71	0	0	2074	842	3859	83
72	0	0	2100	842	3858	80
73	0	0	2122	842	3858	81
74	0	0	2157	843	3858	81
75	0	0	2210	844	3858	84
76	0	0	2252	844	3858	81
77	0	0	2288	844	3857	83
78	0	0	2315	845	3857	81
79	0	0	2345	844	3859	80
80	0	0	2365	845	3858	80
81	0	0	2349	844	3858	80
82	0	0	2313	842	3859	80
83	0	0	2247	840	3857	80
84	0	0	2180	840	3857	81
85	0	0	2145	843	3858	78
86	0	0	2104	840	3859	80
87	0	0	2073	841	3860	78
88	0	0	2042	839	3858	79
89	0	0	2009	839	3859	77
90	0	0	2032	842	3860	80
91	0	0	2092	841	3859	81
92	0	0	2140	844	3858	80
93	0	0	2170	843	3859	81
94	0	0	2200	843	3857	79
95	0	0	2269	842	3858	81
96	0	0	2342	845	3858	81
97	0	0	2363	844	3858	81
98	0	0	2373	845	3857	82
99	0	0	2326	841	3855	79
100	0	0	2278	842	3859	81
101	0	0	2263	844	3857	79
102	0	0	2280	845	3857	81
103	0	0	2307	845	3858	79
104	0	0	2314	844	3860	79
105	0	0	2295	840	3859	79
106	0	0	2229	838	3859	79
107	0	0	2164	839	3860	79
108	0	0	2122	840	3858	79
109	0	0	2104	841	3857	81
110	0	0	2098	843	3858	79
111	0	0	2104	843	3858	79
112	0	0	2155	841	3857	79
113	0	0	2206	841	3859	81
114	0	0	2221	842	3857	81
115	0	0	2221	844	3857	80
116	0	0	2237	843	3857	81
117	0	0	2261	844	3857	81
118	0	0	2258	844	3857	81
119	0	0	2266	846	3859	81
120	0	0	2274	847	3858	80
121	0	0	2277	844	3859	80
122	0	0	2250	842	3858	80
123	0	0	2216	842	3858	79
124	0	0	2174	841	3860	79
125	0	0	2135	842	3858	77
126	0	0	2108	839	3858	79
127	0	0	2076	839	3857	80
0	0	0	2028	839	3856	79
1	0	0	2002	842	3859	79
2	0	0	2027	843	3857	80
3	0	0	2054	839	3857	82
4	0	0	2070	841	3857	80
5	0	0	2093	843	3855	80
6	0	0	2096	843	3860	82
7	0	0	2123	846	3858	81
8	0	0	2170	844	3860	81
9	0	0	2193	844	3858	80
10	0	0	2204	843	3859	81
11	0	0	2223	844	3859	80
12	0	0	2233	845	3860	80
13	0	0	2222	843	3859	80
14	0	0	2184	841	3858	80
15	0	0	2123	841	3858	80
16	0	0	2069	841	3860	79
17	0	0	2046	843	3858	79
18	0	0	2031	842	3859	79
19	0	0	2027	843	3857	80
20	0	0	2019	839	3857	79
21	0	0	1980	837	3855	79
22	0	0	1943	836	3857	79
23	0	0	1933	840	3857	80
24	0	0	1977	842	3859	81
25	0	0	2039	844	3858	81
26	0	0	2089	842	3859	80
27	0	0	2121	843	3859	80
28	0	0	2129	843	3860	84
29	0	0	2144	844	3858	82
30	0	0	2202	844	3858	81
31	0	0	2247	845	3860	81
32	0	0	2242	843	3858	80
33	0	0	2185	840	3858	79
34	0	0	2108	840	3857	80
35	0	0	2043	842	3856	79
36	0	0	1991	841	3860	78
37	0	0	1964	841	3857	80
38	0	0	1929	840	3858	80
39	0	0	1891	839	3857	79
40	0	0	1865	840	3858	79
41	0	0	1873	842	3861	81
42	0	0	1902	843	3859	80
43	0	0	1925	843	3859	81
44	0	0	1936	842	3858	82
45	0	0	1947	843	3857	80
46	0	0	1957	844	3858	80
47	0	0	1977	841	3858	81
48	0	0	2017	843	3858	81
49	0	0	2046	844	3859	82
50	0	0	2045	845	3857	81
51	0	0	2051	844	3856	80
52	0	0	2067	845	3858	81
53	0	0	2082	847	3858	80
54	0	0	2057	841	3858	80
55	0	0	1993	841	3857	80
56	0	0	1957	842	3857	79
57	0	0	1959	844	3858	80
58	0	0	1979	843	3859	79
59	0	0	1950	839	3858	80
60	0	0	1876	838	3859	79
61	0	0	1829	839	3858	77
62	0	0	1831	839	3858	80
63	0	0	1858	841	3859	80
64	0	0	1902	842	3858	79
65	0	0	1937	843	3855	80
66	0	0	1976	843	3857	80
67	0	0	2034	842	3858	81
68	0	0	2083	843	3859	82
69	0	0	2081	842	3857	82
70	0	0	2043	839	3857	81
71	0	0	1989	841	3861	80
72	0	0	1937	841	3857	82
73	0	0	1945	845	3857	79
74	0	0	1975	844	3858	79
75	0	0	1994	844	3860	79
76	0	0	2010	845	3859	79
77	0	0	2013	844	3859	79
78	0	0	1992	840	3859	80
79	0	0	1960	840	3859	78
80	0	0	1944	839	3859	78
81	0	0	1952	842	3858	80
82	0	0	1966	841	3858	80
83	0	0	1950	840	3858	81
84	0	0	1951	842	3857	79
85	0	0	1967	841	3857	81
86	0	0	1979	841	3857	81
87	0	0	2013	841	3857	83
88	0	0	2062	844	3857	81
89	0	0	2100	843	3857	83
90	0	0	2101	847	3859	81
91	0	0	2096	845	3859	84
92	0	0	2091	844	3859	79
93	0	0	2088	844	3860	81
94	0	0	2078	843	3859	80
95	0	0	2059	842	3858	79
96	0	0	2019	840	3858	80
97	0	0	1964	841	3858	79
98	0	0	1918	840	3859	79
99	0	0	1905	841	3857	79
100	0	0	1901	841	3857	79
101	0	0	1916	839	3857	79
102	0	0	1932	842	3857	79
103	0	0	1945	843	3858	80
104	0	0	1956	844	3857	79
105	0	0	1968	841	3856	81
106	0	0	2002	839	3857	81
107	0	0	2027	845	3857	81
108	0	0	2045	845	3860	81
109	0	0	2044	844	3858	79
110	0	0	2044	847	3860	81
111	0	0	2062	844	3856	82
112	0	0	2085	844	3856	80
113	0	0	2083	845	3859	81
114	0	0	2062	842	3857	75
115	0	0	2012	841	3859	78
116	0	0	1942	840	3857	80
117	0	0	1908	840	3857	79
118	0	0	1874	840	3859	79
119	0	0	1849	839	3857	79
120	0	0	1830	839	3857	79
121	0	0	1829	841	3859	79
122	0	0	1858	841	3858	79
123	0	0	1913	841	3856	80
124	0	0	1983	842	3858	80
125	0	0	2055	843	3859	81
126	0	0	2107	841	3856	82
127	0	0	2104	842	3859	83
0	0	0	2105	843	3859	80
1	0	0	2144	844	3858	80
2	0	0	2189	844	3858	81
3	0	0	2184	843	3858	82
4	0	0	2170	844	3857	81
5	0	0	2121	841	3858	84
6	0	0	2036	841	3857	79
7	0	0	1972	840	3856	79
8	0	0	1928	839	3857	79
9	0	0	1908	841	3857	81
10	0	0	1915	842	3858	79
11	0	0	1929	842	3858	73
12	0	0	1915	838	3857	79
13	0	0	1883	840	3858	81
14	0	0	1879	840	3858	81
15	0	0	1892	844	3859	80
16	0	0	1920	842	3858	79
17	0	0	1962	842	3858	81
18	0	0	2004	840	3858	81
19	0	0	2052	840	3858	83
20	0	0	2086	842	3858	82
21	0	0	2104	843	3859	75
22	0	0	2119	844	3857	84
23	0	0	2122	843	3857	80
24	0	0	2105	842	3856	80
25	0	0	2099	844	3858	79
26	0	0	2114	844	3857	75
27	0	0	2081	840	3858	80
28	0	0	2002	840	3859	77
29	0	0	1939	841	3857	79
30	0	0	1926	843	3859	79
31	0	0	1956	843	3858	73
32	0	0	1979	840	3859	79
33	0	0	1955	838	3859	77
34	0	0	1934	841	3857	80
35	0	0	1942	840	3859	80
36	0	0	1956	842	3858	80
37	0	0	1968	842	3858	80
38	0	0	1994	842	3859	85
39	0	0	2019	841	3857	82
40	0	0	2049	842	3858	83
41	0	0	2080	843	3857	80
42	0	0	2109	844	3857	81
43	0	0	2128	843	3857	81
44	0	0	2142	846	3856	80
45	0	0	2134	844	3858	79
46	0	0	2106	843	3859	79
47	0	0	2059	842	3859	80
48	0	0	2019	841	3859	79
49	0	0	1994	841	3860	79
50	0	0	1975	841	3859	79
51	0	0	1959	840	3858	78
52	0	0	1941	841	3858	79
53	0	0	1924	837	3858	79
54	0	0	1895	838	3858	81
55	0	0	1853	836	3858	81
56	0	0	1875	841	3858	81
57	0	0	1957	841	3855	81
58	0	0	2010	841	3857	79
59	0	0	2054	841	3855	80
60	0	0	2083	842	3858	80
61	0	0	2096	843	3859	80
62	0	0	2133	845	3857	81
63	0	0	2148	842	3858	81
64	0	0	2138	844	3857	80
65	0	0	2130	845	3860	80
66	0	0	2118	844	3858	80
67	0	0	2093	843	3857	80
68	0	0	2062	839	3859	79
69	0	0	2038	842	3857	78
70	0	0	2000	838	3859	78
71	0	0	1960	838	3859	80
72	0	0	1902	837	3855	80
73	0	0	1852	837	3857	79
74	0	0	1849	840	3856	80
75	0	0	1892	842	3858	80
76	0	0	1976	842	3856	80
77	0	0	2045	842	3857	81
78	0	0	2085	842	3857	81
79	0	0	2116	842	3856	81
80	0	0	2139	842	3859	82
81	0	0	2148	843	3859	81
82	0	0	2176	843	3859	81
83	0	0	2204	843	3859	81
84	0	0	2182	842	3858	80
85	0	0	2126	841	3858	81
86	0	0	2099	842	3857	79
87	0	0	2071	840	3859	80
88	0	0	2002	841	3858	77
89	0	0	1935	840	3856	80
90	0	0	1894	839	3858	79
91	0	0	1884	840	3856	80
92	0	0	1887	841	3857	79
93	0	0	1899	839	3857	79
94	0	0	1867	839	3856	80
95	0	0	1848	839	3858	80
96	0	0	1887	841	3859	81
97	0	0	1957	842	3855	81
98	0	0	2012	842	3859	80
99	0	0	2073	841	3858	80
100	0	0	2140	842	3859	82
101	0	0	2187	844	3858	80
102	0	0	2189	843	3859	81
103	0	0	2151	843	3858	80
104	0	0	2117	841	3856	82
105	0	0	2088	843	3858	80
106	0	0	2068	842	3857	80
107	0	0	2066	843	3857	81
108	0	0	2073	841	3859	79
109	0	0	2037	839	3857	80
110	0	0	1959	839	3858	79
111	0	0	1904	839	3857	75
112	0	0	1895	840	3857	79
113	0	0	1898	842	3858	80
114	0	0	1905	843	3858	80
115	0	0	1915	841	3860	81
116	0	0	1937	841	3861	81
117	0	0	1954	841	3858	80
118	0	0	1968	842	3859	80
119	0	0	1994	842	3859	81
120	0	0	2029	843	3858	81
121	0	0	2067	843	3855	81
122	0	0	2099	842	3857	81
123	0	0	2132	846	3857	80
124	0	0	2148	845	3857	80
125	0	0	2119	841	3856	79
126	0	0	2087	842	3857	80
127	0	0	2095	842	3856	80
0	0	0	2096	844	3857	79
1	0	0	2073	840	3858	79
2	0	0	2042	842	3859	79
3	0	0	1993	838	3859	76
4	0	0	1945	837	3859	79
5	0	0	1941	840	3860	80
6	0	0	1978	839	3859	80
7	0	0	2036	840	3859	80
8	0	0	2069	840	3858	81
9	0	0	2085	840	3858	82
10	0	0	2086	841	3857	81
11	0	0	2093	841	3858	79
12	0	0	2095	844	3858	83
13	0	0	2091	842	3857	81
14	0	0	2117	843	3857	80
15	0	0	2170	845	3857	82
16	0	0	2205	844	3857	81
17	0	0	2216	847	3857	80
18	0	0	2195	841	3858	80
19	0	0	2160	840	3858	79
20	0	0	2135	841	3859	80
21	0	0	2127	843	3860	79
22	0	0	2121	842	3860	79
23	0	0	2089	838	3859	79
24	0	0	2005	839	3857	79
25	0	0	1934	838	3857	78
26	0	0	1919	840	3859	79
27	0	0	1950	843	3858	81
28	0	0	1997	841	3857	81
29	0	0	2005	841	3857	81
30	0	0	2017	842	3857	82
31	0	0	2068	843	3857	82
32	0	0	2121	842	3858	81
33	0	0	2166	843	3855	81
34	0	0	2193	843	3857	81
35	0	0	2195	844	3858	82
36	0	0	2187	845	3860	81
37	0	0	2198	845	3858	77
38	0	0	2197	843	3860	80
39	0	0	2167	840	3858	80
40	0	0	2139	842	3858	80
41	0	0	2121	841	3859	82
42	0	0	2078	836	3859	79
43	0	0	2014	837	3858	78
44	0	0	1966	836	3857	79
45	0	0	1939	839	3857	80
46	0	0	1930	840	3860	83
47	0	0	1942	841	3858	81
48	0	0	1985	844	3856	80
49	0	0	2039	840	3857	81
50	0	0	2092	843	3855	81
51	0	0	2124	841	3859	82
52	0	0	2124	842	3860	81
53	0	0	2095	840	3858	84
54	0	0	2069	840	3859	81
55	0	0	2058	843	3859	79
56	0	0	2046	842	3860	83
57	0	0	2026	842	3858	80
58	0	0	2017	844	3857	80
59	0	0	1996	839	3858	80
60	0	0	1968	843	3857	79
61	0	0	1964	842	3860	79
62	0	0	1961	841	3858	79
63	0	0	1941	838	3857	79
64	0	0	1894	837	3857	80
65	0	0	1852	836	3857	80
66	0	0	1821	837	3858	79
67	0	0	1820	839	3858	80
68	0	0	1858	840	3858	79
69	0	0	1920	840	3860	81
70	0	0	1973	842	3860	79
71	0	0	1996	842	3861	83
72	0	0	2046	842	3859	81
73	0	0	2092	843	3858	80
74	0	0	2133	843	3858	83
75	0	0	2183	847	3857	80
76	0	0	2208	844	3858	79
77	0	0	2189	840	3857	80
78	0	0	2155	843	3856	80
79	0	0	2133	840	3857	84
80	0	0	2087	839	3857	80
81	0	0	2022	840	3858	79
82	0	0	1973	838	3857	79
83	0	0	1936	838	3856	78
84	0	0	1908	837	3857	79
85	0	0	1886	839	3857	79
86	0	0	1887	841	3858	79
87	0	0	1893	840	3856	81
88	0	0	1893	839	3858	80
89	0	0	1911	841	3858	81
90	0	0	1945	840	3859	81
91	0	0	2007	843	3858	79
92	0	0	2072	841	3857	80
93	0	0	2125	843	3854	83
94	0	0	2146	843	3857	80
95	0	0	2151	843	3857	80
96	0	0	2178	844	3858	80
97	0	0	2192	843	3859	79
98	0	0	2140	839	3857	80
99	0	0	2064	838	3858	80
100	0	0	2016	840	3859	82
101	0	0	2002	841	3858	79
102	0	0	1987	839	3859	79
103	0	0	1957	838	3855	80
104	0	0	1925	838	3860	79
105	0	0	1915	840	3857	80
106	0	0	1933	840	3860	79
107	0	0	1942	840	3858	81
108	0	0	1949	840	3858	80
109	0	0	1957	840	3858	82
110	0	0	1960	839	3857	80
111	0	0	1967	843	3857	80
112	0	0	1990	840	3858	81
113	0	0	2021	842	3857	81
114	0	0	2063	843	3857	82
115	0	0	2098	842	3857	82
116	0	0	2109	844	3857	79
117	0	0	2141	844	3857	81
118	0	0	2170	843	3857	79
119	0	0	2173	843	3858	80
120	0	0	2128	839	3859	80
121	0	0	2049	838	3859	79
122	0	0	1984	838	3858	79
123	0	0	1970	840	3860	79
124	0	0	1974	840	3858	79
125	0	0	1977	839	3858	79
126	0	0	1985	841	3858	80
127	0	0	1991	839	3859	81
0	0	0	2010	841	3857	81
1	0	0	2054	841	3859	81
2	0	0	2078	841	3859	83
3	0	0	2124	840	3859	81
4	0	0	2199	842	3857	81
5	0	0	2247	842	3857	81
6	0	0	2299	843	3857	81
7	0	0	2347	843	3858	80
8	0	0	2369	842	3859	80
9	0	0	2379	839	3858	81
10	0	0	2398	843	3858	80
11	0	0	2399	841	3859	79
12	0	0	2368	840	3859	81
13	0	0	2360	842	3861	80
14	0	0	2332	839	3859	79
15	0	0	2264	839	3857	78
16	0	0	2171	836	3859	79
17	0	0	2092	838	3857	79
18	0	0	2056	837	3859	81
19	0	0	2033	839	3856	80
20	0	0	2031	840	3857	80
21	0	0	2030	840	3859	84
22	0	0	2011	839	3857	80
23	0	0	1979	838	3860	81
24	0	0	1933	839	3858	82
25	0	0	1901	839	3858	81
26	0	0	1882	840	3858	81
27	0	0	1874	841	3858	81
28	0	0	1846	840	3861	81
29	0	0	1798	839	3858	79
30	0	0	1744	839	3858	80
31	0	0	1678	838	3859	80
32	0	0	1619	838	3861	81
33	0	0	1583	837	3859	80
34	0	0	1537	838	3858	80
35	0	0	1506	838	3857	79
36	0	0	1496	837	3857	79
37	0	0	1494	838	3857	80
38	0	0	1505	839	3855	80
39	0	0	1552	831	3857	80
40	0	0	1629	840	3859	81
41	0	0	1715	840	3858	81
42	0	0	1764	839	3858	81
43	0	0	1801	840	3859	82
44	0	0	1841	839	3859	81
45	0	0	1892	842	3857	83
46	0	0	1930	844	3858	81
47	0	0	1976	843	3856	81
48	0	0	2020	842	3857	81
49	0	0	2029	842	3859	80
50	0	0	1982	839	3857	79
51	0	0	1923	839	3858	79
52	0	0	1875	838	3857	80
53	0	0	1829	838	3855	80
54	0	0	1811	839	3857	75
55	0	0	1810	840	3858	79
56	0	0	1790	836	3857	79
57	0	0	1785	839	3858	79
58	0	0	1816	840	3859	80
59	0	0	1861	839	3858	79
60	0	0	1891	840	3859	82
61	0	0	1907	842	3858	81
62	0	0	1954	841	3858	81
63	0	0	2031	842	3861	82
64	0	0	2109	841	3859	81
65	0	0	2163	842	3857	82
66	0	0	2217	842	3859	82
67	0	0	2247	842	3857	82
68	0	0	2258	843	3857	80
69	0	0	2264	841	3857	80
70	0	0	2229	840	3857	80
71	0	0	2173	839	3857	80
72	0	0	2118	839	3857	80
73	0	0	2079	840	3855	80
74	0	0	2066	840	3858	79
75	0	0	2031	837	3858	79
76	0	0	1974	837	3858	79
77	0	0	1950	837	3859	79
78	0	0	1923	837	3859	80
79	0	0	1908	837	3858	81
80	0	0	1923	840	3859	81
81	0	0	1961	841	3858	81
82	0	0	2036	839	3857	81
83	0	0	2103	841	3859	82
84	0	0	2153	840	3858	81
85	0	0	2182	839	3857	80
86	0	0	2178	844	3856	80
87	0	0	2190	844	3855	81
88	0	0	2226	843	3857	81
89	0	0	2241	841	3858	81
90	0	0	2220	839	3858	81
91	0	0	2185	839	3858	79
92	0	0	2128	839	3858	78
93	0	0	2060	837	3859	79
94	0	0	2007	838	3860	79
95	0	0	1970	837	3858	79
96	0	0	1924	837	3859	79
97	0	0	1895	837	3859	80
98	0	0	1885	838	3856	80
99	0	0	1889	836	3859	81
100	0	0	1923	837	3859	80
101	0	0	1967	843	3855	81
102	0	0	2016	842	3855	81
103	0	0	2093	841	3856	82
104	0	0	2179	842	3859	81
105	0	0	2217	842	3857	83
106	0	0	2204	841	3859	82
107	0	0	2179	840	3859	83
108	0	0	2162	843	3856	80
109	0	0	2150	840	3860	80
110	0	0	2143	842	3858	80
111	0	0	2149	842	3858	79
112	0	0	2148	840	3858	79
113	0	0	2117	839	3859	79
114	0	0	2085	836	3858	80
115	0	0	2064	838	3859	78
116	0	0	2042	839	3857	79
117	0	0	2028	837	3858	79
118	0	0	1993	835	3858	80
119	0	0	1934	835	3856	82
120	0	0	1914	840	3858	81
121	0	0	1944	837	3855	82
122	0	0	1991	840	3856	81
123	0	0	2048	840	3856	82
124	0	0	2108	840	3859	82
125	0	0	2172	841	3858	83
126	0	0	2229	843	3858	81
127	0	0	2277	844	3858	80
0	0	0	2324	843	3857	81
1	0	0	2337	843	3859	80
2	0	0	2280	839	3858	80
3	0	0	2200	839	3858	79
4	0	0	2156	840	3858	79
5	0	0	2147	841	3858	79
6	0	0	2112	836	3858	79
7	0	0	2080	837	3856	78
8	0	0	2068	839	3857	79
9	0	0	2078	840	3857	80
10	0	0	2095	839	3856	80
11	0	0	2100	839	3859	80
12	0	0	2072	836	3856	82
13	0	0	2058	843	3858	81
14	0	0	2073	841	3858	80
15	0	0	2117	841	3860	82
16	0	0	2152	840	3859	82
17	0	0	2180	841	3858	82
18	0	0	2207	842	3858	82
19	0	0	2234	842	3857	81
20	0	0	2250	843	3858	81
21	0	0	2257	839	3859	79
22	0	0	2218	839	3859	80
23	0	0	2165	839	3857	80
24	0	0	2123	840	3855	80
25	0	0	2081	838	3856	79
26	0	0	2038	838	3858	79
27	0	0	2032	840	3855	80
28	0	0	2020	839	3857	79
29	0	0	2014	840	3858	79
30	0	0	1998	837	3858	79
31	0	0	1987	836	3858	81
32	0	0	2005	839	3858	80
33	0	0	2056	840	3858	81
34	0	0	2116	841	3858	81
35	0	0	2157	841	3858	81
36	0	0	2184	840	3859	82
37	0	0	2202	840	3854	82
38	0	0	2234	842	3857	81
39	0	0	2288	842	3857	82
40	0	0	2353	843	3857	80
41	0	0	2346	840	3858	80
42	0	0	2284	839	3859	80
43	0	0	2192	836	3859	79
44	0	0	2108	838	3859	79
45	0	0	2057	838	3859	78
46	0	0	2026	839	3859	79
47	0	0	2028	840	3858	77
48	0	0	2016	836	3861	79
49	0	0	2005	839	3860	80
50	0	0	2011	839	3858	80
51	0	0	2038	839	3859	82
52	0	0	2088	839	3857	81
53	0	0	2122	839	3859	80
54	0	0	2126	840	3858	85
55	0	0	2133	840	3858	81
56	0	0	2170	841	3857	81
57	0	0	2211	840	3856	83
58	0	0	2241	842	3857	82
59	0	0	2242	843	3857	82
60	0	0	2233	843	3858	80
61	0	0	2240	844	3858	82
62	0	0	2248	842	3857	81
63	0	0	2254	843	3858	79
64	0	0	2244	839	3859	79
65	0	0	2199	838	3858	79
66	0	0	2143	838	3859	79
67	0	0	2076	837	3858	79
68	0	0	2013	836	3859	79
69	0	0	1984	838	3858	77
70	0	0	1989	840	3858	79
71	0	0	2023	839	3859	80
72	0	0	2087	840	3857	81
73	0	0	2179	840	3855	82
74	0	0	2268	842	3856	80
75	0	0	2333	841	3857	81
76	0	0	2365	842	3857	82
77	0	0	2388	842	3857	82
78	0	0	2390	843	3857	80
79	0	0	2375	843	3858	81
80	0	0	2343	840	3859	80
81	0	0	2311	840	3857	81
82	0	0	2307	843	3858	80
83	0	0	2333	843	3858	79
84	0	0	2335	841	3859	79
85	0	0	2276	837	3858	79
86	0	0	2197	837	3857	80
87	0	0	2150	837	3857	79
88	0	0	2108	838	3857	79
89	0	0	2066	838	3858	86
90	0	0	2083	838	3859	79
91	0	0	2166	839	3857	80
92	0	0	2236	840	3858	80
93	0	0	2264	838	3857	81
94	0	0	2282	843	3855	82
95	0	0	2296	841	3859	80
96	0	0	2287	840	3858	82
97	0	0	2264	840	3858	82
98	0	0	2256	843	3857	81
99	0	0	2261	842	3859	81
100	0	0	2287	843	3857	79
101	0	0	2325	840	3859	79
102	0	0	2333	841	3858	79
103	0	0	2283	840	3856	77
104	0	0	2249	841	3857	79
105	0	0	2248	842	3858	79
106	0	0	2242	842	3857	79
107	0	0	2210	837	3857	78
108	0	0	2142	836	3857	79
109	0	0	2080	837	3857	83
110	0	0	2051	838	3856	79
111	0	0	2051	840	3858	80
112	0	0	2053	839	3857	81
113	0	0	2098	840	3859	80
114	0	0	2188	841	3858	80
115	0	0	2263	842	3861	81
116	0	0	2252	840	3858	82
117	0	0	2254	843	3858	80
118	0	0	2278	843	3858	81
119	0	0	2274	843	3858	83
120	0	0	2265	842	3857	82
121	0	0	2259	843	3858	79
122	0	0	2255	842	3857	80
123	0	0	2265	843	3856	79
124	0	0	2234	839	3858	78
125	0	0	2167	838	3856	77
126	0	0	2125	839	3857	79
127	0	0	2087	837	3857	79
0	0	0	2026	836	3856	80
1	0	0	1973	837	3858	79
2	0	0	1951	837	3860	80
3	0	0	1922	836	3859	81
4	0	0	1919	840	3858	81
5	0	0	1961	840	3859	81
6	0	0	2023	840	3859	81
7	0	0	2079	841	3859	79
8	0	0	2118	842	3859	81
9	0	0	2139	843	3857	81
10	0	0	2197	842	3856	83
11	0	0	2232	843	3857	80
12	0	0	2222	842	3859	81
13	0	0	2201	842	3859	80
14	0	0	2180	840	3857	79
15	0	0	2146	840	3856	77
16	0	0	2093	838	3858	79
17	0	0	2016	838	3859	79
18	0	0	1946	837	3859	79
19	0	0	1921	840	3858	79
20	0	0	1919	841	3857	78
21	0	0	1941	840	3859	80
22	0	0	1942	839	3859	79
23	0	0	1932	839	3859	81
24	0	0	1961	840	3859	81
25	0	0	2018	842	3858	80
26	0	0	2079	841	3857	81
27	0	0	2134	842	3858	79
28	0	0	2175	841	3859	81
29	0	0	2224	841	3857	82
30	0	0	2265	844	3855	81
31	0	0	2264	842	3858	81
32	0	0	2236	841	3856	79
33	0	0	2185	840	3859	81
34	0	0	2129	839	3858	80
35	0	0	2073	838	3857	80
36	0	0	2016	839	3860	81
37	0	0	1959	838	3859	78
38	0	0	1895	839	3860	78
39	0	0	1857	838	3858	77
40	0	0	1834	836	3859	79
41	0	0	1815	838	3859	79
42	0	0	1796	837	3858	79
43	0	0	1776	838	3859	80
44	0	0	1807	839	3857	79
45	0	0	1884	838	3857	82
46	0	0	1959	840	3857	81
47	0	0	2026	841	3856	84
48	0	0	2067	842	3859	82
49	0	0	2098	842	3858	82
50	0	0	2121	845	3857	82
51	0	0	2132	843	3858	81
52	0	0	2136	843	3858	79
53	0	0	2125	842	3860	80
54	0	0	2092	840	3859	82
55	0	0	2060	840	3859	79
56	0	0	2038	840	3859	79
57	0	0	1994	839	3856	82
58	0	0	1935	838	3859	79
59	0	0	1901	838	3857	77
60	0	0	1872	836	3856	80
61	0	0	1834	837	3858	79
62	0	0	1828	840	3856	81
63	0	0	1832	840	3859	80
64	0	0	1843	839	3857	80
65	0	0	1871	840	3857	81
66	0	0	1901	841	3857	82
67	0	0	1919	840	3856	83
68	0	0	1942	840	3859	81
69	0	0	2000	842	3858	82
70	0	0	2070	842	3858	81
71	0	0	2099	843	3859	81
72	0	0	2113	844	3859	80
73	0	0	2116	843	3859	80
74	0	0	2091	841	3859	80
75	0	0	2063	840	3856	79
76	0	0	2013	839	3858	79
77	0	0	1951	839	3859	79
78	0	0	1894	838	3860	79
79	0	0	1874	839	3857	78
80	0	0	1864	842	3855	78
81	0	0	1892	840	3855	80
82	0	0	1945	840	3857	80
83	0	0	1969	840	3858	81
84	0	0	1959	839	3857	82
85	0	0	1965	840	3858	81
86	0	0	1982	840	3859	80
87	0	0	2000	841	3857	82
88	0	0	2001	842	3857	82
89	0	0	2019	843	3857	81
90	0	0	2050	843	3858	82
91	0	0	2077	844	3857	81
92	0	0	2099	842	3856	83
93	0	0	2095	844	3858	80
94	0	0	2070	840	3855	81
95	0	0	2043	842	3857	80
96	0	0	2025	840	3855	80
97	0	0	1994	840	3856	79
98	0	0	1970	840	3856	79
99	0	0	1974	841	3857	78
100	0	0	1974	840	3857	79
101	0	0	1947	836	3859	78
102	0	0	1933	840	3857	79
103	0	0	1935	840	3862	82
104	0	0	1926	839	3858	80
105	0	0	1935	841	3858	81
106	0	0	1970	840	3859	80
107	0	0	2011	842	3856	83
108	0	0	2067	843	3856	80
109	0	0	2104	843	3858	80
110	0	0	2126	843	3858	79
111	0	0	2120	842	3857	81
112	0	0	2088	841	3859	82
113	0	0	2070	843	3856	52
114	0	0	2072	843	3858	80
115	0	0	2062	843	3856	79
116	0	0	2026	840	3857	79
117	0	0	1982	839	3859	79
118	0	0	1935	840	3859	79
119	0	0	1932	842	3859	79
120	0	0	1950	841	3858	79
121	0	0	1952	841	3858	79
122	0	0	1960	840	3858	79
123	0	0	1964	840	3858	80
124	0	0	1972	841	3858	80
125	0	0	1983	841	3858	81
126	0	0	1990	842	3858	82
127	0	0	2001	842	3858	81
0	0	0	2033	842	3856	82
1	0	0	2058	843	3855	81
2	0	0	2058	844	3857	81
3	0	0	2078	844	3857	81
4	0	0	2125	844	3859	82
5	0	0	2126	843	3856	84
6	0	0	2100	842	3859	81
7	0	0	2079	844	3857	80
8	0	0	2046	840	3858	79
9	0	0	1989	840	3859	77
10	0	0	1950	839	3859	79
11	0	0	1936	839	3857	79
12	0	0	1897	838	3859	79
13	0	0	1845	837	3856	79
14	0	0	1845	840	3858	77
15	0	0	1891	840	3856	80
16	0	0	1939	841	3856	81
17	0	0	2000	841	3857	81
18	0	0	2026	842	3856	83
19	0	0	2056	843	3858	80
20	0	0	2071	843	3858	81
21	0	0	2088	843	3857	81
22	0	0	2122	845	3858	82
23	0	0	2140	844	3856	79
24	0	0	2094	840	3859	80
25	0	0	2011	840	3856	79
26	0	0	1961	842	3857	77
27	0	0	1928	839	3858	79
28	0	0	1899	840	3856	79
29	0	0	1849	839	3859	77
30	0	0	1805	838	3859	79
31	0	0	1801	842	3858	79
32	0	0	1829	841	3857	79
33	0	0	1865	841	3856	79
34	0	0	1886	841	3858	80
35	0	0	1924	841	3858	81
36	0	0	1995	840	3857	81
37	0	0	2046	839	3859	82
38	0	0	2072	842	3859	82
39	0	0	2073	842	3858	79
40	0	0	2062	841	3859	81
41	0	0	2069	843	3858	82
42	0	0	2106	844	3858	82
43	0	0	2134	844	3857	80
44	0	0	2139	844	3857	80
45	0	0	2137	845	3858	80
46	0	0	2127	844	3858	80
47	0	0	2101	840	3857	80
48	0	0	2057	839	3856	79
49	0	0	2020	842	3858	78
50	0	0	2007	842	3855	79
51	0	0	1990	839	3858	79
52	0	0	1956	838	3855	80
53	0	0	1925	838	3857	79
54	0	0	1930	841	3856	80
55	0	0	1946	841	3855	80
56	0	0	1963	841	3856	80
57	0	0	1971	839	3860	80
58	0	0	1997	842	3858	80
59	0	0	2071	843	3860	80
60	0	0	2126	843	3859	81
61	0	0	2139	843	3858	81
62	0	0	2179	843	3858	81
63	0	0	2227	844	3856	81
64	0	0	2242	844	3857	80
65	0	0	2201	842	3859	79
66	0	0	2137	840	3857	79
67	0	0	2072	840	3859	79
68	0	0	2026	840	3858	79
69	0	0	1992	840	3856	80
70	0	0	1974	841	3857	79
71	0	0	1947	840	3856	79
72	0	0	1954	842	3856	79
73	0	0	1980	842	3855	79
74	0	0	1995	841	3857	78
75	0	0	2008	841	3857	80
76	0	0	2011	841	3858	83
77	0	0	2024	841	3858	81
78	0	0	2044	845	3858	82
79	0	0	2075	843	3857	80
80	0	0	2115	845	3858	81
81	0	0	2135	843	3857	82
82	0	0	2156	844	3857	82
83	0	0	2164	845	3857	81
84	0	0	2162	844	3858	82
85	0	0	2150	844	3857	82
86	0	0	2108	842	3858	80
87	0	0	2030	843	3855	80
88	0	0	1950	840	3857	79
89	0	0	1888	840	3858	79
90	0	0	1854	839	3858	78
91	0	0	1836	840	3858	78
92	0	0	1815	838	3858	79
93	0	0	1806	841	3857	79
94	0	0	1843	841	3857	77
95	0	0	1911	841	3857	79
96	0	0	1978	842	3858	81
97	0	0	2046	841	3857	81
98	0	0	2113	844	3858	81
99	0	0	2146	843	3859	80
100	0	0	2144	843	3857	81
101	0	0	2145	844	3858	82
102	0	0	2136	843	3857	81
103	0	0	2121	842	3857	82
104	0	0	2091	842	3857	79
105	0	0	2097	846	3856	80
106	0	0	2099	842	3857	80
107	0	0	2045	839	3860	80
108	0	0	2000	842	3858	80
109	0	0	1991	844	3860	82
110	0	0	1985	843	3857	80
111	0	0	1981	842	3855	79
112	0	0	1964	839	3858	79
113	0	0	1943	839	3858	77
114	0	0	1936	841	3858	80
115	0	0	1935	840	3859	81
116	0	0	1957	841	3857	81
117	0	0	2029	840	3858	81
118	0	0	2102	843	3858	81
119	0	0	2144	843	3857	81
120	0	0	2151	843	3855	82
121	0	0	2165	845	3857	81
122	0	0	2190	843	3857	81
123	0	0	2207	846	3858	82
124	0	0	2207	845	3857	80
125	0	0	2191	844	3857	81
126	0	0	2174	845	3858	80
127	0	0	2171	845	3858	80
0	0	0	2154	844	3859	80
1	0	0	2122	841	3858	79
2	0	0	2063	840	3856	79
3	0	0	2030	840	3859	78
4	0	0	2006	841	3858	78
5	0	0	1980	840	3857	80
6	0	0	1963	841	3859	79
7	0	0	1972	842	3853	79
8	0	0	2000	841	3857	81
9	0	0	2054	841	3859	80
10	0	0	2120	843	3858	80
11	0	0	2190	843	3858	83
12	0	0	2221	844	3856	81
13	0	0	2233	844	3858	81
14	0	0	2236	844	3859	82
15	0	0	2232	845	3859	80
16	0	0	2232	846	3858	81
17	0	0	2215	845	3858	80
18	0	0	2180	841	3858	80
19	0	0	2136	841	3859	79
20	0	0	2098	841	3859	84
21	0	0	2049	840	3858	79
22	0	0	1953	839	3858	79
23	0	0	1886	840	3857	79
24	0	0	1868	841	3857	80
25	0	0	1878	843	3857	79
26	0	0	1891	841	3857	79
27	0	0	1899	841	3856	79
28	0	0	1912	843	3858	80
29	0	0	1916	842	3858	81
30	0	0	1976	844	3859	82
31	0	0	2036	844	3859	79
32	0	0	2097	844	3858	81
33	0	0	2166	844	3858	83
34	0	0	2232	845	3858	81
35	0	0	2274	845	3857	80
36	0	0	2289	846	3858	79
37	0	0	2282	844	3856	80
38	0	0	2232	842	3854	81
39	0	0	2157	841	3857	80
40	0	0	2094	842	3858	80
41	0	0	2037	839	3857	79
42	0	0	1997	841	3858	79
43	0	0	1992	842	3857	79
44	0	0	1953	838	3857	79
45	0	0	1904	838	3857	80
46	0	0	1880	839	3859	79
47	0	0	1872	840	3856	79
48	0	0	1883	842	3858	80
49	0	0	1902	842	3858	81
50	0	0	1920	843	3858	80
51	0	0	1959	845	3859	79
52	0	0	2010	843	3860	80
53	0	0	2054	844	3855	79
54	0	0	2079	845	3857	80
55	0	0	2118	844	3857	82
56	0	0	2140	845	3858	81
57	0	0	2161	845	3856	80
58	0	0	2147	843	3858	80
59	0	0	2099	842	3856	80
60	0	0	2072	843	3857	79
61	0	0	2048	842	3859	79
62	0	0	2005	840	3860	80
63	0	0	1947	839	3859	79
64	0	0	1884	840	3859	80
65	0	0	1877	840	3858	79
66	0	0	1884	842	3859	79
67	0	0	1903	842	3860	80
68	0	0	1928	842	3858	81
69	0	0	1952	842	3857	82
70	0	0	1972	842	3858	83
71	0	0	2009	844	3858	83
72	0	0	2067	844	3859	81
73	0	0	2109	845	3857	82
74	0	0	2141	846	3857	82
75	0	0	2157	843	3858	80
76	0	0	2136	842	3857	79
77	0	0	2114	845	3860	80
78	0	0	2110	846	3858	80
79	0	0	2094	844	3858	80
80	0	0	2052	842	3857	79
81	0	0	2034	845	3859	79
82	0	0	2016	840	3859	79
83	0	0	1968	840	3859	78
84	0	0	1900	839	3859	81
85	0	0	1865	839	3858	79
86	0	0	1885	842	3858	79
87	0	0	1908	843	3859	78
88	0	0	1935	842	3858	80
89	0	0	1987	844	3859	85
90	0	0	2045	841	3859	80
91	0	0	2072	844	3858	81
92	0	0	2096	844	3859	81
93	0	0	2122	844	3856	82
94	0	0	2156	846	3857	81
95	0	0	2189	843	3858	81
96	0	0	2211	846	3859	80
97	0	0	2218	847	3859	78
98	0	0	2188	842	3858	80
99	0	0	2122	842	3856	79
100	0	0	2057	842	3857	79
101	0	0	2019	842	3859	80
102	0	0	2000	843	3857	77
103	0	0	1993	844	3855	80
104	0	0	1970	841	3857	79
105	0	0	1935	839	3857	83
106	0	0	1907	842	3858	80
107	0	0	1921	843	3859	80
108	0	0	1953	843	3856	81
109	0	0	1960	844	3856	81
110	0	0	1977	839	3857	81
111	0	0	2028	844	3859	81
112	0	0	2074	844	3859	80
113	0	0	2107	845	3858	82
114	0	0	2131	846	3856	83
115	0	0	2166	846	3857	79
116	0	0	2219	847	3858	80
117	0	0	2264	846	3859	79
118	0	0	2279	846	3858	79
119	0	0	2266	846	3857	79
120	0	0	2248	844	3857	79
121	0	0	2223	844	3857	77
122	0	0	2216	845	3859	79
123	0	0	2191	842	3858	80
124	0	0	2153	841	3857	79
125	0	0	2145	841	3857	79
126	0	0	2179	843	3856	80
127	0	0	2234	843	3859	80
0	0	0	2291	843	3857	81
1	0	0	2331	844	3856	83
2	0	0	2342	843	3859	79
3	0	0	2333	844	3859	82
4	0	0	2355	844	3859	81
5	0	0	2393	845	3858	81
6	0	0	2398	846	3858	81
7	0	0	2362	842	3855	79
8	0	0	2271	843	3858	80
9	0	0	2167	842	3857	80
10	0	0	2054	842	3857	81
11	0	0	1935	842	3857	79
12	0	0	1859	842	3858	79
13	0	0	1788	841	3856	80
14	0	0	1727	841	3858	80
15	0	0	1672	841	3856	79
16	0	0	1619	840	3858	82
17	0	0	1581	837	3859	80
18	0	0	1569	840	3859	76
19	0	0	1550	840	3858	82
20	0	0	1517	841	3862	82
21	0	0	1517	843	3858	81
22	0	0	1573	843	3857	80
23	0	0	1634	845	3858	80
24	0	0	1713	845	3857	81
25	0	0	1770	845	3857	81
26	0	0	1794	846	3859	80
27	0	0	1817	846	3859	79
28	0	0	1820	846	3859	84
29	0	0	1791	844	3858	80
30	0	0	1774	846	3857	81
31	0	0	1789	847	3858	84
32	0	0	1810	845	3855	81
33	0	0	1818	845	3858	80
34	0	0	1784	842	3858	79
35	0	0	1745	841	3858	78
36	0	0	1716	840	3858	78
37	0	0	1709	842	3859	80
38	0	0	1725	844	3858	80
39	0	0	1778	841	3858	79
40	0	0	1843	843	3857	80
41	0	0	1914	844	3857	81
42	0	0	1947	841	3858	81
43	0	0	1955	846	3859	81
44	0	0	1972	846	3857	81
45	0	0	2006	846	3858	81
46	0	0	2041	847	3857	82
47	0	0	2072	846	3855	82
48	0	0	2090	848	3857	83
49	0	0	2132	847	3856	82
50	0	0	2161	847	3859	81
51	0	0	2158	847	3859	79
52	0	0	2119	842	3858	77
53	0	0	2073	843	3859	80
54	0	0	2041	843	3858	80
55	0	0	2018	845	3857	77
56	0	0	1985	842	3858	82
57	0	0	1967	846	3857	79
58	0	0	1963	844	3857	80
59	0	0	1955	843	3857	80
60	0	0	1976	845	3855	81
61	0	0	2016	844	3859	80
62	0	0	2044	844	3858	81
63	0	0	2061	845	3857	80
64	0	0	2092	846	3856	84
65	0	0	2133	846	3858	81
66	0	0	2168	847	3857	82
67	0	0	2171	845	3856	83
68	0	0	2148	847	3859	83
69	0	0	2147	848	3857	81
70	0	0	2146	849	3858	79
71	0	0	2122	844	3859	80
72	0	0	2087	847	3859	79
73	0	0	2071	845	3858	80
74	0	0	2025	842	3859	79
75	0	0	1978	843	3857	78
76	0	0	1962	843	3856	78
77	0	0	1942	840	3858	81
78	0	0	1922	845	3857	79
79	0	0	1940	845	3858	79
80	0	0	1975	844	3856	81
81	0	0	2043	845	3857	81
82	0	0	2117	845	3855	82
83	0	0	2177	846	3858	85
84	0	0	2192	846	3858	83
85	0	0	2189	846	3859	82
86	0	0	2215	847	3858	80
87	0	0	2230	848	3858	81
88	0	0	2219	848	3858	84
89	0	0	2208	847	3858	84
90	0	0	2205	848	3858	81
91	0	0	2198	847	3857	80
92	0	0	2169	845	3857	79
93	0	0	2141	844	3858	79
94	0	0	2100	842	3857	82
95	0	0	2038	843	3855	79
96	0	0	2015	843	3857	80
97	0	0	2008	844	3857	77
98	0	0	2005	845	3857	79
99	0	0	1996	844	3856	82
100	0	0	2003	845	3859	79
101	0	0	2029	846	3858	81
102	0	0	2048	844	3856	83
103	0	0	2067	846	3859	81
104	0	0	2102	846	3858	83
105	0	0	2167	847	3858	81
106	0	0	2213	847	3855	80
107	0	0	2245	848	3858	82
108	0	0	2276	848	3858	83
109	0	0	2289	848	3857	83
110	0	0	2267	845	3858	81
111	0	0	2216	844	3855	78
112	0	0	2138	844	3857	78
113	0	0	2074	844	3857	79
114	0	0	2051	846	3857	79
115	0	0	2045	845	3857	79
116	0	0	2032	843	3855	78
117	0	0	2023	844	3858	79
118	0	0	2006	843	3858	79
119	0	0	1992	844	3858	79
120	0	0	1994	844	3858	81
121	0	0	2028	845	3858	81
122	0	0	2062	848	3858	84
123	0	0	2071	846	3859	85
124	0	0	2111	848	3857	83
125	0	0	2172	847	3857	82
126	0	0	2209	847	3857	81
127	0	0	2230	848	3858	84
0	0	0	2233	848	3857	81
1	0	0	2205	846	3857	79
2	0	0	2155	842	3857	80
3	0	0	2091	844	3857	79
4	0	0	2033	844	3857	81
5	0	0	2017	846	3856	80
6	0	0	2038	846	3856	78
7	0	0	2080	845	3859	79
8	0	0	2113	845	3857	79
9	0	0	2124	845	3860	79
10	0	0	2121	845	3858	79
11	0	0	2119	845	3859	79
12	0	0	2114	845	3857	80
13	0	0	2109	845	3857	82
14	0	0	2122	848	3858	81
15	0	0	2151	847	3859	83
16	0	0	2173	847	3857	79
17	0	0	2180	848	3857	82
18	0	0	2201	848	3857	81
19	0	0	2208	848	3857	81
20	0	0	2210	849	3858	82
21	0	0	2227	848	3856	79
22	0	0	2199	846	3859	80
23	0	0	2160	844	3860	80
24	0	0	2144	848	3859	78
25	0	0	2128	847	3859	78
26	0	0	2135	845	3858	79
27	0	0	2125	845	3858	79
28	0	0	2076	843	3858	79
29	0	0	2033	840	3856	79
30	0	0	2032	845	3857	80
31	0	0	2048	845	3857	80
32	0	0	2052	845	3857	80
33	0	0	2080	846	3857	81
34	0	0	2135	847	3857	81
35	0	0	2201	847	3859	81
36	0	0	2246	847	3857	81
37	0	0	2254	848	3857	82
38	0	0	2261	846	3858	81
39	0	0	2270	848	3858	82
40	0	0	2289	848	3859	81
41	0	0	2322	849	3858	80
42	0	0	2331	847	3858	79
43	0	0	2287	844	3858	79
44	0	0	2226	844	3859	79
45	0	0	2185	843	3858	79
46	0	0	2128	843	3857	79
47	0	0	2056	842	3856	80
48	0	0	2020	844	3858	77
49	0	0	2011	845	3858	79
50	0	0	2019	846	3856	79
51	0	0	2061	845	3857	80
52	0	0	2089	846	3856	81
53	0	0	2119	845	3858	81
54	0	0	2153	847	3857	80
55	0	0	2191	847	3859	82
56	0	0	2241	847	3858	80
57	0	0	2291	847	3858	82
58	0	0	2306	847	3857	79
59	0	0	2291	847	3859	83
60	0	0	2275	847	3859	79
61	0	0	2277	848	3857	80
62	0	0	2285	849	3858	80
63	0	0	2289	849	3858	77
64	0	0	2292	848	3858	79
65	0	0	2255	842	3858	79
66	0	0	2201	844	3856	77
67	0	0	2169	844	3857	78
68	0	0	2127	844	3857	79
69	0	0	2116	847	3857	77
70	0	0	2128	845	3857	77
71	0	0	2154	845	3856	80
72	0	0	2177	845	3858	81
73	0	0	2193	848	3856	83
74	0	0	2211	847	3864	80
75	0	0	2229	846	3860	81
76	0	0	2262	847	3858	80
77	0	0	2307	847	3858	82
78	0	0	2339	848	3859	80
79	0	0	2353	850	3859	81
80	0	0	2339	846	3859	80
81	0	0	2300	846	3857	80
82	0	0	2255	848	3857	81
83	0	0	2237	849	3858	76
84	0	0	2238	849	3857	78
85	0	0	2211	845	3857	82
86	0	0	2211	847	3856	80
87	0	0	2221	847	3855	79
88	0	0	2219	846	3856	79
89	0	0	2199	847	3858	79
90	0	0	2191	847	3859	80
91	0	0	2202	845	3858	80
92	0	0	2207	844	3858	81
93	0	0	2216	846	3859	80
94	0	0	2226	847	3859	81
95	0	0	2230	847	3858	81
96	0	0	2248	848	3857	80
97	0	0	2247	849	3857	82
98	0	0	2262	847	3856	81
99	0	0	2318	851	3857	80
100	0	0	2368	847	3857	82
101	0	0	2400	850	3856	82
102	0	0	2392	847	3856	79
103	0	0	2322	844	3856	79
104	0	0	2228	843	3858	79
105	0	0	2162	844	3858	79
106	0	0	2139	846	3858	80
107	0	0	2121	845	3859	79
108	0	0	2097	846	3858	77
109	0	0	2057	843	3859	79
110	0	0	2021	844	3859	77
111	0	0	2031	846	3857	80
112	0	0	2066	844	3858	81
113	0	0	2099	847	3857	79
114	0	0	2122	846	3857	81
115	0	0	2173	848	3857	82
116	0	0	2266	851	3857	80
117	0	0	2339	847	3856	81
118	0	0	2370	847	3855	81
119	0	0	2384	847	3856	80
120	0	0	2371	846	3857	83
121	0	0	2322	846	3858	80
122	0	0	2258	846	3859	80
123	0	0	2194	845	3856	80
124	0	0	2137	847	3859	80
125	0	0	2091	844	3859	79
126	0	0	2050	846	3855	80
127	0	0	2019	842	3858	79
0	0	0	1994	845	3857	75
1	0	0	1999	846	3857	78
2	0	0	2004	845	3859	79
3	0	0	2005	845	3857	80
4	0	0	2011	846	3856	82
5	0	0	2013	846	3857	80
6	0	0	2016	847	3857	82
7	0	0	2019	847	3858	81
8	0	0	2053	847	3856	82
9	0	0	2103	849	3856	82
10	0	0	2146	849	3857	80
11	0	0	2164	849	3858	81
12	0	0	2161	849	3859	79
13	0	0	2142	847	3860	80
14	0	0	2106	847	3858	79
15	0	0	2063	847	3858	80
16	0	0	2038	848	3858	79
17	0	0	2025	847	3859	79
18	0	0	2012	847	3857	79
19	0	0	2010	847	3858	75
20	0	0	1978	844	3857	77
21	0	0	1944	842	3857	79
22	0	0	1924	844	3858	80
23	0	0	1915	846	3857	79
24	0	0	1931	846	3857	80
25	0	0	1972	847	3860	82
26	0	0	2012	847	3858	80
27	0	0	2027	848	3858	81
28	0	0	2028	848	3858	79
29	0	0	2023	850	3859	81
30	0	0	2006	845	3855	82
31	0	0	2007	850	3858	79
32	0	0	2038	851	3858	81
33	0	0	2072	850	3858	79
34	0	0	2101	850	3857	80
35	0	0	2097	848	3857	80
36	0	0	2041	844	3857	82
37	0	0	1979	845	3858	80
38	0	0	1955	846	3857	79
39	0	0	1949	848	3856	82
40	0	0	1956	845	3855	79
41	0	0	1915	843	3856	80
42	0	0	1888	846	3857	80
43	0	0	1906	846	3857	80
44	0	0	1948	845	3857	81
45	0	0	2000	847	3858	80
46	0	0	2026	846	3859	81
47	0	0	2010	848	3859	81
48	0	0	2023	848	3858	83
49	0	0	2045	847	3858	81
50	0	0	2070	847	3857	80
51	0	0	2080	849	3857	82
52	0	0	2086	850	3858	80
53	0	0	2088	850	3857	79
54	0	0	2072	848	3855	81
55	0	0	2040	846	3857	80
56	0	0	1996	844	3857	79
57	0	0	1937	847	3857	79
58	0	0	1883	845	3857	79
59	0	0	1848	845	3857	78
60	0	0	1856	847	3855	80
61	0	0	1862	844	3859	79
62	0	0	1838	845	3859	80
63	0	0	1835	846	3858	79
64	0	0	1847	847	3859	80
65	0	0	1894	847	3860	82
66	0	0	1951	848	3859	81
67	0	0	2016	848	3859	81
68	0	0	2058	848	3858	79
69	0	0	2082	849	3859	82
70	0	0	2096	850	3855	82
71	0	0	2111	848	3859	82
72	0	0	2136	850	3857	80
73	0	0	2158	851	3857	77
74	0	0	2136	848	3858	80
75	0	0	2106	849	3857	80
76	0	0	2078	847	3856	79
77	0	0	2037	846	3859	80
78	0	0	1991	845	3858	79
79	0	0	1961	847	3859	79
80	0	0	1942	845	3858	79
81	0	0	1915	846	3858	79
82	0	0	1909	847	3859	80
83	0	0	1903	847	3858	80
84	0	0	1910	846	3859	81
85	0	0	1951	848	3856	83
86	0	0	2001	848	3858	81
87	0	0	2033	848	3859	81
88	0	0	2060	849	3857	79
89	0	0	2088	851	3858	81
90	0	0	2117	849	3859	83
91	0	0	2140	851	3857	81
92	0	0	2152	852	3859	81
93	0	0	2151	851	3859	74
94	0	0	2124	848	3859	80
95	0	0	2092	848	3860	80
96	0	0	2052	847	3857	77
97	0	0	1997	845	3859	79
98	0	0	1949	846	3858	75
99	0	0	1932	848	3859	79
100	0	0	1939	847	3859	79
101	0	0	1937	848	3859	79
102	0	0	1966	848	3859	79
103	0	0	1991	848	3857	79
104	0	0	2000	848	3859	80
105	0	0	2000	847	3855	82
106	0	0	2032	845	3859	81
107	0	0	2084	848	3858	81
108	0	0	2124	850	3858	81
109	0	0	2149	850	3857	81
110	0	0	2151	850	3857	81
111	0	0	2162	851	3856	79
112	0	0	2174	850	3859	80
113	0	0	2150	848	3858	79
114	0	0	2091	848	3858	81
115	0	0	2028	849	3859	79
116	0	0	1970	847	3857	79
117	0	0	1933	846	3858	80
118	0	0	1921	848	3857	76
119	0	0	1911	850	3858	79
120	0	0	1918	849	3855	80
121	0	0	1912	846	3856	79
122	0	0	1880	844	3858	78
123	0	0	1854	845	3857	80
124	0	0	1856	849	3857	81
125	0	0	1895	846	3858	83
126	0	0	1994	848	3857	80
127	0	0	2094	849	3858	81
0	0	0	2142	850	3859	81
1	0	0	2150	850	3858	81
2	0	0	2155	851	3858	79
3	0	0	2166	851	3856	80
4	0	0	2133	846	3859	82
5	0	0	2064	848	3858	80
6	0	0	2009	848	3857	79
7	0	0	1994	850	3856	79
8	0	0	1984	849	3856	79
9	0	0	1962	848	3857	79
10	0	0	1945	848	3857	78
11	0	0	1942	851	3855	78
12	0	0	1928	846	3858	79
13	0	0	1905	847	3856	80
14	0	0	1911	847	3857	80
15	0	0	1930	847	3859	80
16	0	0	1944	849	3857	81
17	0	0	2002	847	3858	79
18	0	0	2068	849	3856	80
19	0	0	2103	848	3860	81
20	0	0	2097	848	3858	82
21	0	0	2066	848	3859	81
22	0	0	2051	850	3858	81
23	0	0	2045	853	3857	80
24	0	0	2041	851	3858	80
25	0	0	2055	852	3857	80
26	0	0	2081	851	3858	80
27	0	0	2112	851	3858	80
28	0	0	2139	851	3858	79
29	0	0	2145	849	3858	78
30	0	0	2125	847	3857	79
31	0	0	2071	846	3856	77
32	0	0	1987	844	3857	79
33	0	0	1906	844	3855	80
34	0	0	1866	845	3859	80
35	0	0	1860	848	3858	79
36	0	0	1895	848	3858	81
37	0	0	1954	849	3859	81
38	0	0	2022	850	3857	80
39	0	0	2093	846	3859	82
40	0	0	2145	850	3859	82
41	0	0	2175	850	3855	81
42	0	0	2202	851	3857	79
43	0	0	2238	852	3855	80
44	0	0	2253	853	3857	80
45	0	0	2251	851	3855	82
46	0	0	2205	847	3858	80
47	0	0	2150	851	3857	78
48	0	0	2116	848	3856	80
49	0	0	2076	846	3857	79
50	0	0	1996	846	3857	80
51	0	0	1917	846	3860	80
52	0	0	1866	845	3859	78
53	0	0	1867	851	3857	80
54	0	0	1898	851	3858	79
55	0	0	1932	847	3862	79
56	0	0	1957	848	3857	81
57	0	0	1995	849	3858	80
58	0	0	2022	849	3858	81
59	0	0	2027	850	3858	82
60	0	0	2055	850	3857	80
61	0	0	2101	851	3858	81
62	0	0	2133	851	3857	79
63	0	0	2157	851	3856	82
64	0	0	2163	855	3857	80
65	0	0	2154	852	3857	80
66	0	0	2146	851	3857	79
67	0	0	2136	849	3859	79
68	0	0	2089	848	3858	79
69	0	0	2017	847	3859	79
70	0	0	1954	847	3858	80
71	0	0	1903	846	3858	78
72	0	0	1857	847	3857	78
73	0	0	1827	847	3857	78
74	0	0	1826	847	3857	80
75	0	0	1866	848	3859	79
76	0	0	1933	848	3857	81
77	0	0	2004	849	3857	81
78	0	0	2070	849	3859	84
79	0	0	2139	853	3857	81
80	0	0	2159	849	3856	81
81	0	0	2145	847	3855	81
82	0	0	2144	854	3855	81
83	0	0	2162	852	3858	84
84	0	0	2175	853	3858	80
85	0	0	2159	848	3858	81
86	0	0	2102	848	3858	81
87	0	0	2035	850	3858	79
88	0	0	1992	848	3860	83
89	0	0	1965	850	3858	79
90	0	0	1946	848	3857	80
91	0	0	1930	848	3857	79
92	0	0	1909	847	3855	78
93	0	0	1874	845	3858	82
94	0	0	1864	850	3857	79
95	0	0	1873	849	3857	80
96	0	0	1914	848	3856	81
97	0	0	2010	852	3855	81
98	0	0	2101	849	3857	81
99	0	0	2137	850	3857	81
100	0	0	2171	850	3857	80
101	0	0	2202	850	3858	82
102	0	0	2201	851	3857	80
103	0	0	2189	852	3860	81
104	0	0	2184	851	3859	81
105	0	0	2162	851	3859	80
106	0	0	2154	851	3857	80
107	0	0	2142	850	3857	82
108	0	0	2114	849	3859	79
109	0	0	2077	849	3857	79
110	0	0	2016	847	3858	79
111	0	0	1972	847	3857	78
112	0	0	1938	846	3857	79
113	0	0	1899	846	3858	79
114	0	0	1878	848	3858	80
115	0	0	1897	848	3856	79
116	0	0	1922	847	3857	80
117	0	0	1979	851	3857	81
118	0	0	2063	849	3860	83
119	0	0	2137	848	3858	81
120	0	0	2198	847	3857	80
121	0	0	2227	850	3858	82
122	0	0	2241	853	3857	81
123	0	0	2225	850	3858	79
124	0	0	2199	850	3858	79
125	0	0	2174	848	3853	80
126	0	0	2154	850	3857	80
127	0	0	2136	853	3855	80
0	0	0	2120	848	3857	79
1	0	0	2094	848	3857	79
2	0	0	2050	847	3856	78
3	0	0	1992	846	3856	80
4	0	0	1942	847	3855	79
5	0	0	1916	849	3858	79
6	0	0	1939	850	3857	80
7	0	0	1974	843	3858	79
8	0	0	1996	849	3858	81
9	0	0	2034	849	3857	81
10	0	0	2074	850	3858	79
11	0	0	2111	848	3859	82
12	0	0	2133	851	3858	80
13	0	0	2156	851	3857	81
14	0	0	2205	851	3857	81
15	0	0	2249	852	3859	81
16	0	0	2276	852	3858	81
17	0	0	2275	852	3856	81
18	0	0	2242	850	3859	80
19	0	0	2213	851	3857	79
20	0	0	2175	849	3859	79
21	0	0	2143	848	3859	79
22	0	0	2106	847	3855	79
23	0	0	2063	846	3859	79
24	0	0	2016	846	3859	82
25	0	0	1984	846	3858	80
26	0	0	1962	847	3859	79
27	0	0	1966	848	3857	80
28	0	0	2024	848	3859	81
29	0	0	2055	850	3859	81
30	0	0	2055	848	3859	81
31	0	0	2082	850	3861	82
32	0	0	2105	850	3857	81
33	0	0	2131	850	3858	81
34	0	0	2151	851	3857	81
35	0	0	2152	852	3856	81
36	0	0	2160	852	3857	80
37	0	0	2162	852	3858	80
38	0	0	2142	852	3857	80
39	0	0	2108	847	3858	80
40	0	0	2060	849	3859	81
41	0	0	2038	849	3858	79
42	0	0	2021	847	3858	79
43	0	0	1996	847	3858	79
44	0	0	1963	847	3857	78
45	0	0	1923	847	3858	79
46	0	0	1894	845	3858	79
47	0	0	1883	849	3857	79
48	0	0	1900	848	3857	80
49	0	0	1922	848	3857	82
50	0	0	1950	850	3857	81
51	0	0	1998	850	3859	81
52	0	0	2039	850	3857	81
53	0	0	2057	850	3858	81
54	0	0	2078	851	3858	77
55	0	0	2118	853	3858	81
56	0	0	2153	852	3859	80
57	0	0	2149	852	3858	81
58	0	0	2116	850	3857	80
59	0	0	2075	848	3858	79
60	0	0	2050	849	3858	77
61	0	0	2007	848	3858	80
62	0	0	1962	847	3857	79
63	0	0	1948	850	3859	79
64	0	0	1960	850	3857	79
65	0	0	1956	849	3857	79
66	0	0	1957	850	3859	79
67	0	0	1969	848	3856	81
68	0	0	1974	849	3855	81
69	0	0	1950	847	3857	80
70	0	0	1953	848	3858	81
71	0	0	1965	850	3856	81
72	0	0	2000	851	3857	81
73	0	0	2051	849	3858	82
74	0	0	2102	850	3859	82
75	0	0	2127	852	3858	81
76	0	0	2131	853	3857	80
77	0	0	2124	851	3858	81
78	0	0	2082	848	3858	80
79	0	0	2020	849	3858	81
80	0	0	1984	849	3856	76
81	0	0	1958	848	3856	79
82	0	0	1913	848	3857	79
83	0	0	1879	847	3859	78
84	0	0	1850	846	3859	77
85	0	0	1834	848	3857	80
86	0	0	1834	849	3858	79
87	0	0	1857	848	3856	82
88	0	0	1922	849	3858	80
89	0	0	1976	848	3858	81
90	0	0	1993	850	3857	80
91	0	0	1993	851	3860	82
92	0	0	2018	851	3858	82
93	0	0	2056	852	3858	81
94	0	0	2112	850	3858	82
95	0	0	2144	853	3856	80
96	0	0	2146	849	3858	81
97	0	0	2134	852	3857	79
98	0	0	2096	848	3859	80
99	0	0	2065	851	3856	80
100	0	0	2063	853	3859	80
101	0	0	2070	851	3858	79
102	0	0	2095	851	3855	81
103	0	0	2127	851	3857	79
104	0	0	2140	847	3857	80
105	0	0	2100	846	3856	80
106	0	0	2013	846	3858	80
107	0	0	1920	845	3858	80
108	0	0	1868	847	3858	79
109	0	0	1886	847	3858	80
110	0	0	1957	850	3857	80
111	0	0	2034	847	3859	81
112	0	0	2091	852	3857	81
113	0	0	2095	851	3857	81
114	0	0	2133	852	3857	82
115	0	0	2181	852	3858	81
116	0	0	2213	853	3858	80
117	0	0	2253	853	3858	80
118	0	0	2273	851	3856	79
119	0	0	2255	847	3857	79
120	0	0	2211	849	3855	80
121	0	0	2175	847	3857	79
122	0	0	2164	851	3858	80
123	0	0	2192	850	3859	79
124	0	0	2240	847	3858	78
125	0	0	2279	849	3855	80
126	0	0	2319	847	3858	79
127	0	0	2352	848	3858	81
0	0	0	2384	848	3857	81
1	0	0	2408	849	3858	82
2	0	0	2402	850	3858	81
3	0	0	2397	849	3856	80
4	0	0	2394	851	3857	81
5	0	0	2369	848	3858	81
6	0	0	2333	849	3857	80
7	0	0	2293	849	3855	82
8	0	0	2247	849	3856	80
9	0	0	2188	848	3856	81
10	0	0	2087	848	3857	79
11	0	0	1996	847	3858	80
12	0	0	1948	849	3855	80
13	0	0	1880	845	3858	80
14	0	0	1774	846	3857	80
15	0	0	1673	846	3857	82
16	0	0	1595	847	3855	78
17	0	0	1520	845	3857	78
18	0	0	1460	843	3857	80
19	0	0	1442	846	3859	79
20	0	0	1439	848	3856	81
21	0	0	1472	849	3857	79
22	0	0	1528	847	3858	81
23	0	0	1563	848	3858	80
24	0	0	1599	850	3856	81
25	0	0	1663	852	3855	81
26	0	0	1709	853	3855	80
27	0	0	1727	852	3858	79
28	0	0	1735	849	3857	80
29	0	0	1757	852	3858	80
30	0	0	1747	850	3858	80
31	0	0	1724	851	3857	79
32	0	0	1718	852	3857	78
33	0	0	1738	850	3858	78
34	0	0	1754	851	3859	79
35	0	0	1748	850	3857	79
36	0	0	1760	849	3858	79
37	0	0	1768	848	3858	79
38	0	0	1735	843	3858	79
39	0	0	1734	849	3858	80
40	0	0	1769	850	3857	81
41	0	0	1846	848	3857	81
42	0	0	1948	848	3855	83
43	0	0	2040	850	3858	80
44	0	0	2083	850	3860	80
45	0	0	2104	854	3857	81
46	0	0	2114	853	3857	81
47	0	0	2090	850	3856	81
48	0	0	2081	852	3859	81
49	0	0	2097	852	3857	80
50	0	0	2099	851	3858	80
51	0	0	2086	850	3857	79
52	0	0	2045	849	3857	79
53	0	0	2019	848	3857	80
54	0	0	2016	851	3857	79
55	0	0	2009	850	3856	75
56	0	0	1987	847	3857	79
57	0	0	1979	849	3858	79
58	0	0	1975	848	3857	79
59	0	0	1990	848	3856	81
60	0	0	2033	852	3855	81
61	0	0	2101	849	3858	80
62	0	0	2136	850	3857	82
63	0	0	2149	850	3859	81
64	0	0	2144	849	3858	81
65	0	0	2109	847	3858	81
66	0	0	2107	853	3855	81
67	0	0	2131	852	3858	82
68	0	0	2146	852	3857	80
69	0	0	2166	852	3857	81
70	0	0	2180	853	3856	79
71	0	0	2190	853	3855	80
72	0	0	2184	852	3857	79
73	0	0	2149	848	3857	79
74	0	0	2113	848	3856	79
75	0	0	2087	848	3857	79
76	0	0	2030	848	3855	80
77	0	0	1986	847	3857	79
78	0	0	1979	848	3857	81
79	0	0	1987	847	3859	80
80	0	0	1989	849	3858	81
81	0	0	2012	849	3859	81
82	0	0	2069	849	3858	82
83	0	0	2146	848	3859	81
84	0	0	2196	851	3856	82
85	0	0	2199	851	3857	80
86	0	0	2170	850	3855	81
87	0	0	2141	850	3857	82
88	0	0	2137	854	3857	81
89	0	0	2158	853	3858	79
90	0	0	2178	854	3855	80
91	0	0	2194	852	3856	78
92	0	0	2192	852	3858	79
93	0	0	2164	850	3858	80
94	0	0	2125	848	3859	79
95	0	0	2057	849	3858	79
96	0	0	1970	846	3858	76
97	0	0	1904	846	3860	79
98	0	0	1876	848	3859	80
99	0	0	1891	846	3856	79
100	0	0	1938	848	3857	81
101	0	0	2002	851	3855	82
102	0	0	2067	850	3856	82
103	0	0	2111	850	3859	81
104	0	0	2157	851	3856	82
105	0	0	2204	850	3859	81
106	0	0	2227	852	3858	81
107	0	0	2244	851	3856	82
108	0	0	2242	853	3856	80
109	0	0	2254	853	3856	80
110	0	0	2257	853	3857	79
111	0	0	2242	851	3858	77
112	0	0	2202	848	3859	79
113	0	0	2153	847	3858	51
114	0	0	2107	847	3858	79
115	0	0	2057	848	3857	79
116	0	0	2001	846	3858	80
117	0	0	1955	846	3858	79
118	0	0	1934	849	3858	78
119	0	0	1957	849	3857	79
120	0	0	2002	849	3857	80
121	0	0	2066	850	3858	79
122	0	0	2129	851	3856	82
123	0	0	2192	850	3857	83
124	0	0	2215	851	3856	80
125	0	0	2192	848	3859	81
126	0	0	2182	852	3857	80
127	0	0	2193	853	3859	81
0	0	0	2203	852	3858	80
1	0	0	2231	852	3858	81
2	0	0	2242	854	3858	79
3	0	0	2231	853	3859	86
4	0	0	2190	848	3858	79
5	0	0	2122	848	3859	79
6	0	0	2065	848	3857	79
7	0	0	2050	851	3857	79
8	0	0	2065	850	3858	84
9	0	0	2060	850	3859	79
10	0	0	2062	849	3858	79
11	0	0	2067	850	3856	80
12	0	0	2058	849	3859	81
13	0	0	2088	850	3856	81
14	0	0	2099	850	3855	81
15	0	0	2123	851	3858	81
16	0	0	2140	851	3857	81
17	0	0	2150	851	3857	83
18	0	0	2199	852	3857	79
19	0	0	2269	852	3860	81
20	0	0	2319	852	3858	79
21	0	0	2308	850	3857	80
22	0	0	2264	851	3857	79
23	0	0	2224	852	3857	80
24	0	0	2190	849	3859	79
25	0	0	2138	847	3857	78
26	0	0	2084	848	3857	79
27	0	0	2075	852	3855	79
28	0	0	2067	849	3857	78
29	0	0	2040	846	3857	80
30	0	0	1995	846	3856	79
31	0	0	1954	847	3858	80
32	0	0	1956	847	3857	81
33	0	0	2031	850	3857	81
34	0	0	2140	850	3859	80
35	0	0	2205	850	3857	81
36	0	0	2235	851	3857	81
37	0	0	2243	851	3858	82
38	0	0	2255	853	3858	87
39	0	0	2302	853	3858	81
40	0	0	2345	852	3857	81
41	0	0	2354	853	3857	80
42	0	0	2333	852	3857	79
43	0	0	2283	850	3857	79
44	0	0	2213	848	3856	78
45	0	0	2143	849	3858	79
46	0	0	2108	848	3856	79
47	0	0	2108	850	3855	79
48	0	0	2099	848	3857	78
49	0	0	2079	847	3858	77
50	0	0	2067	849	3858	80
51	0	0	2086	850	3858	79
52	0	0	2122	847	3858	82
53	0	0	2185	851	3859	87
54	0	0	2272	850	3858	79
55	0	0	2328	850	3857	81
56	0	0	2353	851	3857	81
57	0	0	2345	853	3858	81
58	0	0	2318	850	3858	82
59	0	0	2312	855	3857	79
60	0	0	2334	853	3858	81
61	0	0	2376	853	3857	80
62	0	0	2385	853	3857	79
63	0	0	2344	849	3856	79
64	0	0	2273	849	3856	77
65	0	0	2196	848	3857	79
66	0	0	2146	848	3857	79
67	0	0	2126	849	3857	78
68	0	0	2099	848	3858	79
69	0	0	2086	851	3857	78
70	0	0	2101	849	3857	79
71	0	0	2122	850	3857	80
72	0	0	2140	848	3857	79
73	0	0	2168	850	3858	83
74	0	0	2215	850	3858	79
75	0	0	2257	850	3857	81
76	0	0	2278	850	3857	81
77	0	0	2301	847	3856	80
78	0	0	2335	851	3856	80
79	0	0	2350	853	3856	79
80	0	0	2347	853	3857	80
81	0	0	2312	849	3856	81
82	0	0	2260	851	3858	80
83	0	0	2212	850	3859	80
84	0	0	2174	850	3858	77
85	0	0	2153	850	3859	80
86	0	0	2131	849	3858	79
87	0	0	2118	850	3858	78
88	0	0	2092	847	3858	79
89	0	0	2056	848	3858	79
90	0	0	2038	847	3857	79
91	0	0	2032	849	3857	79
92	0	0	2055	851	3855	81
93	0	0	2111	849	3855	82
94	0	0	2193	850	3856	79
95	0	0	2269	851	3858	81
96	0	0	2319	851	3856	81
97	0	0	2372	852	3856	83
98	0	0	2419	852	3857	81
99	0	0	2452	852	3859	80
100	0	0	2415	849	3858	80
101	0	0	2377	851	3858	81
102	0	0	2355	851	3858	80
103	0	0	2313	849	3858	79
104	0	0	2289	850	3856	79
105	0	0	2243	849	3858	80
106	0	0	2185	847	3857	79
107	0	0	2123	847	3857	79
108	0	0	2075	846	3857	79
109	0	0	2021	847	3859	79
110	0	0	1979	841	3855	80
111	0	0	1952	846	3858	80
112	0	0	1946	847	3857	81
113	0	0	1988	849	3857	81
114	0	0	2071	850	3856	79
115	0	0	2161	850	3859	82
116	0	0	2229	850	3856	83
117	0	0	2280	853	3857	81
118	0	0	2316	850	3859	80
119	0	0	2339	853	3857	79
120	0	0	2324	851	3859	80
121	0	0	2298	851	3857	80
122	0	0	2262	849	3858	79
123	0	0	2231	850	3857	80
124	0	0	2194	849	3855	80
125	0	0	2142	848	3858	79
126	0	0	2108	851	3857	78
127	0	0	2079	848	3858	79
0	0	0	2034	847	3856	79
1	0	0	1976	846	3857	78
2	0	0	1940	847	3857	80
3	0	0	1952	848	3857	80
4	0	0	1993	849	3857	80
5	0	0	2048	849	3858	81
6	0	0	2076	850	3859	81
7	0	0	2106	847	3861	81
8	0	0	2159	851	3859	81
9	0	0	2205	852	3855	81
10	0	0	2205	852	3855	82
11	0	0	2182	850	3856	83
12	0	0	2162	852	3859	81
13	0	0	2156	848	3855	81
14	0	0	2153	851	3857	79
15	0	0	2113	848	3859	80
16	0	0	2052	848	3856	79
17	0	0	1999	849	3856	79
18	0	0	1954	848	3857	79
19	0	0	1948	850	3856	79
20	0	0	1958	849	3859	77
21	0	0	1942	847	3856	79
22	0	0	1929	849	3860	82
23	0	0	1928	849	3858	80
24	0	0	1909	847	3858	80
25	0	0	1890	848	3859	80
26	0	0	1871	847	3857	82
27	0	0	1863	850	3858	81
28	0	0	1904	850	3857	80
29	0	0	1971	851	3857	81
30	0	0	2027	851	3859	80
31	0	0	2064	853	3856	83
32	0	0	2086	854	3857	80
33	0	0	2098	853	3858	79
34	0	0	2085	849	3858	79
35	0	0	2042	849	3856	79
36	0	0	2004	849	3858	80
37	0	0	1969	848	3859	80
38	0	0	1932	849	3859	79
39	0	0	1903	845	3856	79
40	0	0	1875	848	3858	79
41	0	0	1830	846	3859	79
42	0	0	1799	847	3857	80
43	0	0	1797	848	3857	79
44	0	0	1813	850	3855	80
45	0	0	1857	848	3855	82
46	0	0	1920	851	3857	79
47	0	0	1988	852	3857	82
48	0	0	2046	851	3857	81
49	0	0	2098	850	3857	82
50	0	0	2143	850	3855	81
51	0	0	2143	851	3856	81
52	0	0	2105	850	3856	80
53	0	0	2089	853	3856	81
54	0	0	2098	852	3857	81
55	0	0	2100	852	3859	83
56	0	0	2060	848	3859	78
57	0	0	2008	850	3859	79
58	0	0	1950	848	3858	79
59	0	0	1890	847	3859	76
60	0	0	1851	847	3857	79
61	0	0	1849	849	3856	79
62	0	0	1886	849	3856	79
63	0	0	1938	850	3859	80
64	0	0	1959	850	3857	81
65	0	0	1958	848	3855	81
66	0	0	1948	850	3858	79
67	0	0	1966	850	3856	81
68	0	0	2032	851	3856	81
69	0	0	2101	852	3857	83
70	0	0	2152	852	3855	83
71	0	0	2178	853	3857	79
72	0	0	2167	851	3856	81
73	0	0	2128	849	3858	81
74	0	0	2099	851	3858	80
75	0	0	2090	852	3856	79
76	0	0	2070	849	3858	77
77	0	0	2030	849	3859	79
78	0	0	2019	850	3858	79
79	0	0	1999	847	3858	76
80	0	0	1961	847	3856	78
81	0	0	1936	847	3856	79
82	0	0	1927	848	3855	81
83	0	0	1924	849	3858	80
84	0	0	1937	850	3856	81
85	0	0	1942	848	3857	81
86	0	0	1920	848	3858	81
87	0	0	1929	850	3856	82
88	0	0	1995	851	3859	81
89	0	0	2046	854	3857	81
90	0	0	2069	852	3857	81
91	0	0	2067	852	3859	79
92	0	0	2056	852	3858	81
93	0	0	2055	852	3857	82
94	0	0	2064	852	3857	79
95	0	0	2044	850	3856	79
96	0	0	2009	850	3858	76
97	0	0	1987	850	3856	79
98	0	0	1945	848	3857	79
99	0	0	1885	848	3856	79
100	0	0	1864	850	3856	79
101	0	0	1873	848	3857	77
102	0	0	1873	850	3857	79
103	0	0	1883	849	3857	80
104	0	0	1896	849	3857	81
105	0	0	1913	850	3858	81
106	0	0	1946	850	3859	81
107	0	0	1996	849	3858	81
108	0	0	2036	851	3859	81
109	0	0	2057	850	3860	81
110	0	0	2061	852	3858	81
111	0	0	2062	853	3858	81
112	0	0	2086	853	3855	80
113	0	0	2135	853	3857	80
114	0	0	2149	852	3857	79
115	0	0	2113	849	3856	79
116	0	0	2070	848	3858	80
117	0	0	2014	849	3857	79
118	0	0	1997	851	3856	79
119	0	0	2001	849	3859	79
120	0	0	2002	849	3858	82
121	0	0	1959	846	3858	76
122	0	0	1881	845	3856	79
123	0	0	1812	845	3858	80
124	0	0	1802	848	3858	81
125	0	0	1850	850	3857	80
126	0	0	1915	849	3857	80
127	0	0	1984	851	3859	80
0	0	0	2050	850	3859	81
1	0	0	2094	849	3859	80
2	0	0	2119	853	3855	80
3	0	0	2153	855	3857	80
4	0	0	2172	853	3856	81
5	0	0	2148	850	3856	82
6	0	0	2096	848	3859	80
7	0	0	2025	850	3858	79
8	0	0	1973	849	3857	82
9	0	0	1948	849	3858	80
10	0	0	1929	850	3857	79
11	0	0	1907	848	3858	79
12	0	0	1885	848	3857	79
13	0	0	1877	850	3859	77
14	0	0	1891	848	3859	80
15	0	0	1897	849	3859	84
16	0	0	1897	850	3858	82
17	0	0	1904	849	3855	80
18	0	0	1950	850	3857	80
19	0	0	1993	850	3857	80
20	0	0	2050	850	3856	81
21	0	0	2121	851	3856	82
22	0	0	2172	852	3857	81
23	0	0	2200	852	3858	80
24	0	0	2160	849	3855	81
25	0	0	2135	852	3855	81
26	0	0	2161	856	3856	82
27	0	0	2190	850	3858	80
28	0	0	2172	848	3859	80
29	0	0	2096	848	3859	79
30	0	0	2003	847	3858	79
31	0	0	1951	848	3859	79
32	0	0	1929	848	3859	76
33	0	0	1890	846	3858	80
34	0	0	1865	848	3855	80
35	0	0	1880	848	3857	80
36	0	0	1888	848	3858	80
37	0	0	1922	850	3857	81
38	0	0	1967	850	3856	80
39	0	0	1998	850	3856	80
40	0	0	2041	847	3855	81
41	0	0	2072	852	3856	82
42	0	0	2104	853	3857	80
43	0	0	2139	852	3859	81
44	0	0	2164	852	3857	79
45	0	0	2179	853	3858	81
46	0	0	2142	848	3859	80
47	0	0	2103	850	3859	80
48	0	0	2080	850	3858	84
49	0	0	2050	848	3859	79
50	0	0	2004	847	3857	79
51	0	0	1947	848	3856	79
52	0	0	1904	847	3855	79
53	0	0	1882	847	3856	79
54	0	0	1856	846	3855	80
55	0	0	1830	847	3858	79
56	0	0	1855	849	3857	80
57	0	0	1916	851	3857	81
58	0	0	1969	850	3858	84
59	0	0	2021	850	3856	81
60	0	0	2070	847	3857	81
61	0	0	2106	849	3860	80
62	0	0	2137	850	3859	82
63	0	0	2172	852	3859	84
64	0	0	2174	852	3857	80
65	0	0	2142	847	3857	80
66	0	0	2082	851	3855	81
67	0	0	2024	850	3858	79
68	0	0	1997	850	3857	82
69	0	0	1984	850	3858	79
70	0	0	1977	853	3857	79
71	0	0	1977	850	3858	79
72	0	0	1955	847	3858	75
73	0	0	1909	847	3857	79
74	0	0	1884	847	3856	79
75	0	0	1879	849	3855	80
76	0	0	1900	848	3859	80
77	0	0	1935	851	3859	81
78	0	0	1984	849	3857	86
79	0	0	2032	849	3856	80
80	0	0	2063	851	3858	81
81	0	0	2097	855	3855	83
82	0	0	2132	852	3859	82
83	0	0	2164	853	3858	79
84	0	0	2162	852	3856	79
85	0	0	2135	847	3857	80
86	0	0	2120	855	3857	79
87	0	0	2120	855	3854	80
88	0	0	2112	851	3857	79
89	0	0	2078	849	3856	78
90	0	0	2054	847	3857	79
91	0	0	2034	853	3855	81
92	0	0	2009	847	3857	79
93	0	0	1970	847	3858	79
94	0	0	1958	849	3856	79
95	0	0	1960	849	3858	80
96	0	0	1961	847	3858	81
97	0	0	1979	850	3857	80
98	0	0	2012	849	3859	82
99	0	0	2073	850	3856	81
100	0	0	2111	850	3857	81
101	0	0	2119	851	3857	81
102	0	0	2135	852	3858	80
103	0	0	2160	852	3856	83
104	0	0	2169	853	3858	80
105	0	0	2135	849	3856	80
106	0	0	2071	849	3858	80
107	0	0	1998	849	3857	79
108	0	0	1967	850	3857	79
109	0	0	1960	851	3858	79
110	0	0	1951	851	3857	80
111	0	0	1955	850	3859	80
112	0	0	1942	847	3859	78
113	0	0	1909	846	3859	82
114	0	0	1888	847	3859	79
115	0	0	1899	849	3857	79
116	0	0	1930	849	3858	80
117	0	0	1959	849	3858	81
118	0	0	2002	850	3858	82
119	0	0	2048	850	3856	83
120	0	0	2088	850	3856	81
121	0	0	2117	850	3855	82
122	0	0	2132	852	3856	80
123	0	0	2141	852	3857	79
124	0	0	2144	852	3856	82
125	0	0	2131	851	3856	81
126	0	0	2118	852	3855	82
127	0	0	2104	851	3857	79
0	0	0	2076	848	3859	79
1	0	0	2037	850	3858	79
2	0	0	2002	847	3858	79
3	0	0	1971	847	3858	80
4	0	0	1946	846	3859	79
5	0	0	1927	849	3857	79
6	0	0	1919	849	3858	79
7	0	0	1931	848	3857	83
8	0	0	1981	848	3857	82
9	0	0	2032	850	3857	81
10	0	0	2071	849	3857	79
11	0	0	2126	849	3858	81
12	0	0	2182	851	3856	81
13	0	0	2209	852	3856	82
14	0	0	2205	850	3857	82
15	0	0	2181	848	3858	79
16	0	0	2156	852	3857	80
17	0	0	2134	850	3858	81
18	0	0	2122	852	3858	80
19	0	0	2114	853	3858	80
20	0	0	2085	849	3859	79
21	0	0	2049	848	3860	79
22	0	0	2027	848	3859	79
23	0	0	2031	850	3855	78
24	0	0	2043	848	3858	77
25	0	0	2023	847	3858	81
26	0	0	2004	847	3857	79
27	0	0	2005	848	3856	79
28	0	0	2025	848	3855	83
29	0	0	2051	849	3856	80
30	0	0	2056	849	3858	80
31	0	0	2044	850	3855	81
32	0	0	2058	850	3857	81
33	0	0	2086	852	3858	81
34	0	0	2096	850	3857	83
35	0	0	2127	852	3858	80
36	0	0	2130	851	3859	79
37	0	0	2107	850	3857	80
38	0	0	2100	852	3857	82
39	0	0	2102	852	3858	79
40	0	0	2100	851	3858	80
41	0	0	2080	849	3858	79
42	0	0	2050	847	3857	79
43	0	0	2017	847	3856	80
44	0	0	1975	846	3858	76
45	0	0	1914	846	3858	80
46	0	0	1861	846	3858	79
47	0	0	1835	847	3856	79
48	0	0	1840	849	3857	81
49	0	0	1896	849	3859	81
50	0	0	1965	849	3859	81
51	0	0	2004	850	3859	80
52	0	0	2035	850	3858	81
53	0	0	2068	851	3857	81
54	0	0	2118	847	3855	81
55	0	0	2194	851	3858	79
56	0	0	2244	854	3859	81
57	0	0	2222	850	3858	80
58	0	0	2192	849	3860	81
59	0	0	2145	846	3859	78
60	0	0	2096	848	3858	80
61	0	0	2057	847	3858	80
62	0	0	1999	847	3857	82
63	0	0	1957	847	3856	80
64	0	0	1922	843	3855	78
65	0	0	1852	845	3858	76
66	0	0	1793	845	3859	79
67	0	0	1752	846	3860	81
68	0	0	1746	847	3858	83
69	0	0	1796	847	3857	79
70	0	0	1888	848	3859	79
71	0	0	1965	848	3857	80
72	0	0	2023	850	3857	81
73	0	0	2055	850	3857	82
74	0	0	2075	850	3857	80
75	0	0	2101	850	3858	82
76	0	0	2113	852	3857	80
77	0	0	2081	849	3858	79
78	0	0	2051	850	3855	81
79	0	0	2048	849	3855	80
80	0	0	2052	852	3857	80
81	0	0	2033	848	3857	77
82	0	0	1989	847	3857	79
83	0	0	1950	847	3856	79
84	0	0	1942	846	3857	79
85	0	0	1898	846	3858	81
86	0	0	1846	845	3858	80
87	0	0	1830	848	3857	79
88	0	0	1852	850	3858	80
89	0	0	1915	849	3858	81
90	0	0	1974	848	3857	81
91	0	0	2028	849	3859	81
92	0	0	2092	850	3857	81
93	0	0	2116	850	3857	81
94	0	0	2115	850	3855	79
95	0	0	2092	848	3857	83
96	0	0	2072	850	3857	79
97	0	0	2068	851	3856	80
98	0	0	2055	849	3858	79
99	0	0	2017	848	3858	80
100	0	0	1975	849	3859	81
101	0	0	1953	849	3860	79
102	0	0	1944	852	3855	80
103	0	0	1945	849	3859	79
104	0	0	1908	843	3859	80
105	0	0	1845	845	3858	80
106	0	0	1803	846	3856	80
107	0	0	1820	848	3857	79
108	0	0	1866	848	3857	80
109	0	0	1939	847	3855	81
110	0	0	2013	847	3857	80
111	0	0	2067	848	3857	80
112	0	0	2084	849	3856	81
113	0	0	2095	850	3856	81
114	0	0	2110	847	3857	82
115	0	0	2146	851	3858	81
116	0	0	2165	852	3857	80
117	0	0	2174	852	3861	81
118	0	0	2190	851	3857	80
119	0	0	2173	847	3856	79
120	0	0	2151	850	3859	79
121	0	0	2156	850	3858	80
122	0	0	2145	848	3857	79
123	0	0	2142	849	3858	77
124	0	0	2151	847	3857	77
125	0	0	2128	846	3857	82
126	0	0	2115	848	3857	81
127	0	0	2131	848	3858	80
0	0	0	2164	848	3856	81
1	0	0	2221	849	3856	80
2	0	0	2288	849	3858	81
3	0	0	2341	849	3858	82
4	0	0	2395	850	3857	81
5	0	0	2432	850	3859	80
6	0	0	2480	851	3859	82
7	0	0	2498	853	3858	81
8	0	0	2482	852	3857	82
9	0	0	2466	850	3859	81
10	0	0	2416	847	3859	79
11	0	0	2342	847	3857	77
12	0	0	2260	847	3858	79
13	0	0	2126	846	3857	80
14	0	0	1982	845	3858	79
15	0	0	1870	843	3856	79
16	0	0	1759	845	3856	76
17	0	0	1636	843	3857	79
18	0	0	1536	844	3858	80
19	0	0	1496	844	3856	80
20	0	0	1485	846	3859	83
21	0	0	1491	847	3858	81
22	0	0	1518	849	3859	81
23	0	0	1571	848	3859	79
24	0	0	1617	849	3858	82
25	0	0	1636	850	3859	80
26	0	0	1643	851	3857	80
27	0	0	1647	851	3858	84
28	0	0	1659	851	3858	80
29	0	0	1674	851	3857	81
30	0	0	1688	850	3856	79
31	0	0	1694	851	3857	77
32	0	0	1717	848	3857	79
33	0	0	1727	851	3857	80
34	0	0	1714	847	3856	79
35	0	0	1689	846	3856	79
36	0	0	1673	848	3856	80
37	0	0	1679	849	3855	80
38	0	0	1672	843	3857	79
39	0	0	1661	848	3861	80
40	0	0	1680	847	3858	81
41	0	0	1697	849	3857	80
42	0	0	1736	849	3858	83
43	0	0	1806	848	3857	83
44	0	0	1900	849	3857	82
45	0	0	1994	850	3857	81
46	0	0	2020	851	3856	80
47	0	0	2005	850	3857	84
48	0	0	2012	852	3855	84
49	0	0	2046	852	3858	80
50	0	0	2091	854	3856	77
51	0	0	2122	849	3856	79
52	0	0	2108	847	3857	79
53	0	0	2049	847	3853	87
54	0	0	1991	847	3859	79
55	0	0	1967	849	3860	81
56	0	0	1956	844	3858	79
57	0	0	1933	845	3859	79
58	0	0	1896	844	3857	82
59	0	0	1883	849	3859	80
60	0	0	1910	845	3859	80
61	0	0	1954	848	3857	81
62	0	0	2006	848	3859	79
63	0	0	2083	849	3857	80
64	0	0	2154	848	3855	82
65	0	0	2178	850	3857	80
66	0	0	2148	848	3857	84
67	0	0	2131	851	3857	81
68	0	0	2146	849	3853	84
69	0	0	2159	851	3856	80
70	0	0	2162	851	3857	80
71	0	0	2138	848	3859	81
72	0	0	2102	848	3859	79
73	0	0	2060	847	3858	79
74	0	0	2018	847	3859	79
75	0	0	1988	849	3858	77
76	0	0	1973	848	3858	77
77	0	0	1960	847	3859	79
78	0	0	1951	846	3857	79
79	0	0	1933	845	3857	80
80	0	0	1922	847	3857	79
81	0	0	1935	848	3859	83
82	0	0	1968	848	3857	81
83	0	0	2020	849	3856	81
84	0	0	2081	850	3856	81
85	0	0	2140	848	3855	80
86	0	0	2178	848	3856	83
87	0	0	2224	850	3858	81
88	0	0	2265	850	3857	83
89	0	0	2262	848	3859	81
90	0	0	2203	847	3857	79
91	0	0	2132	848	3858	79
92	0	0	2061	846	3859	79
93	0	0	2026	848	3857	78
94	0	0	2000	846	3858	79
95	0	0	1964	846	3856	79
96	0	0	1938	845	3858	78
97	0	0	1934	847	3857	78
98	0	0	1937	847	3856	79
99	0	0	1941	848	3856	80
100	0	0	1947	847	3857	79
101	0	0	1957	848	3857	80
102	0	0	1982	848	3857	81
103	0	0	2037	849	3857	83
104	0	0	2110	849	3858	82
105	0	0	2175	850	3859	80
106	0	0	2223	848	3858	82
107	0	0	2267	851	3859	81
108	0	0	2300	850	3857	80
109	0	0	2307	847	3857	80
110	0	0	2278	847	3856	79
111	0	0	2206	846	3858	80
112	0	0	2119	846	3858	79
113	0	0	2049	846	3857	79
114	0	0	1990	846	3857	79
115	0	0	1942	846	3858	78
116	0	0	1918	846	3856	78
117	0	0	1903	846	3857	80
118	0	0	1922	847	3856	78
119	0	0	1957	848	3856	80
120	0	0	1961	847	3857	80
121	0	0	1991	846	3859	81
122	0	0	2081	847	3857	81
123	0	0	2184	848	3858	81
124	0	0	2251	848	3859	82
125	0	0	2273	846	3860	80
126	0	0	2276	850	3858	81
127	0	0	2258	848	3859	81
0	0	0	2212	847	3857	80
1	0	0	2171	847	3857	81
2	0	0	2150	849	3856	79
3	0	0	2142	847	3857	79
4	0	0	2114	847	3858	79
5	0	0	2068	848	3856	79
6	0	0	2032	846	3856	79
7	0	0	1996	846	3858	79
8	0	0	1963	843	3858	79
9	0	0	1922	844	3858	80
10	0	0	1900	846	3857	80
11	0	0	1922	846	3859	79
12	0	0	1943	845	3856	81
13	0	0	1992	847	3858	80
14	0	0	2072	847	3857	81
15	0	0	2150	847	3857	80
16	0	0	2191	849	3857	82
17	0	0	2212	849	3858	80
18	0	0	2213	849	3858	81
19	0	0	2205	849	3857	81
20	0	0	2206	851	3858	80
21	0	0	2204	849	3856	81
22	0	0	2200	850	3855	80
23	0	0	2181	847	3857	79
24	0	0	2130	847	3857	79
25	0	0	2075	846	3857	77
26	0	0	2029	846	3857	79
27	0	0	1985	846	3860	78
28	0	0	1988	847	3858	77
29	0	0	2014	847	3857	80
30	0	0	2025	846	3858	80
31	0	0	2024	848	3857	81
32	0	0	2033	847	3858	82
33	0	0	2046	843	3857	80
34	0	0	2089	846	3858	82
35	0	0	2157	848	3857	80
36	0	0	2210	849	3858	81
37	0	0	2237	846	3855	81
38	0	0	2244	851	3857	80
39	0	0	2237	848	3857	81
40	0	0	2199	847	3858	80
41	0	0	2163	851	3855	81
42	0	0	2153	851	3858	78
43	0	0	2159	852	3858	80
44	0	0	2204	849	3858	79
45	0	0	2221	847	3858	80
46	0	0	2168	845	3858	79
47	0	0	2122	846	3860	79
48	0	0	2086	845	3858	79
49	0	0	2039	844	3859	80
50	0	0	1996	843	3855	80
51	0	0	1969	844	3857	80
52	0	0	1988	847	3857	79
53	0	0	2033	846	3857	81
54	0	0	2075	847	3856	80
55	0	0	2134	847	3857	80
56	0	0	2199	848	3856	81
57	0	0	2245	849	3856	80
58	0	0	2268	850	3859	82
59	0	0	2280	848	3858	81
60	0	0	2282	850	3858	80
61	0	0	2280	850	3858	82
62	0	0	2281	851	3858	80
63	0	0	2257	847	3858	80
64	0	0	2215	846	3858	79
65	0	0	2170	847	3858	80
66	0	0	2156	848	3856	79
67	0	0	2178	849	3857	80
68	0	0	2191	847	3857	78
69	0	0	2147	843	3858	79
70	0	0	2101	843	3857	80
71	0	0	2076	845	3857	80
72	0	0	2072	846	3857	80
73	0	0	2104	846	3858	81
74	0	0	2148	847	3857	81
75	0	0	2172	847	3857	80
76	0	0	2199	847	3857	81
77	0	0	2249	848	3857	81
78	0	0	2313	845	3858	82
79	0	0	2375	850	3859	82
80	0	0	2427	850	3857	80
81	0	0	2447	848	3858	80
82	0	0	2422	848	3857	80
83	0	0	2395	847	3857	80
84	0	0	2352	845	3858	79
85	0	0	2266	845	3857	79
86	0	0	2162	845	3857	79
87	0	0	2080	845	3857	77
88	0	0	2063	847	3856	80
89	0	0	2042	844	3857	79
90	0	0	2016	845	3856	80
91	0	0	2016	846	3856	80
92	0	0	2057	847	3857	80
93	0	0	2133	847	3857	80
94	0	0	2166	845	3859	83
95	0	0	2170	848	3858	79
96	0	0	2179	848	3858	81
97	0	0	2206	846	3857	82
98	0	0	2226	848	3857	83
99	0	0	2232	849	3857	81
100	0	0	2261	849	3856	82
101	0	0	2272	849	3857	80
102	0	0	2251	847	3857	80
103	0	0	2212	847	3857	80
104	0	0	2166	846	3857	79
105	0	0	2157	849	3858	79
106	0	0	2174	848	3856	79
107	0	0	2197	846	3856	79
108	0	0	2196	845	3857	79
109	0	0	2170	844	3857	77
110	0	0	2107	843	3857	80
111	0	0	2060	843	3858	80
112	0	0	2055	845	3858	81
113	0	0	2079	845	3858	82
114	0	0	2115	847	3858	81
115	0	0	2139	847	3859	79
116	0	0	2149	847	3857	81
117	0	0	2172	848	3856	81
118	0	0	2210	849	3858	81
119	0	0	2245	850	3857	80
120	0	0	2266	850	3858	80
121	0	0	2244	847	3857	80
122	0	0	2208	847	3858	80
123	0	0	2169	847	3857	80
124	0	0	2143	847	3857	79
125	0	0	2125	847	3858	80
126	0	0	2108	846	3857	79
127	0	0	2077	845	3860	80
0	0	0	2037	844	3859	78
1	0	0	1990	843	3858	79
2	0	0	1941	843	3860	79
3	0	0	1912	844	3857	79
4	0	0	1922	846	3857	81
5	0	0	1970	847	3857	79
6	0	0	2013	848	3859	81
7	0	0	2052	847	3857	79
8	0	0	2084	847	3858	79
9	0	0	2112	848	3858	82
10	0	0	2104	848	3858	83
11	0	0	2090	849	3857	79
12	0	0	2083	849	3856	79
13	0	0	2101	847	3856	80
14	0	0	2119	848	3857	81
15	0	0	2106	847	3857	79
16	0	0	2075	847	3859	79
17	0	0	2049	846	3858	73
18	0	0	2000	845	3859	79
19	0	0	1928	844	3860	80
20	0	0	1883	844	3856	78
21	0	0	1841	843	3859	79
22	0	0	1833	846	3856	75
23	0	0	1891	846	3857	79
24	0	0	1937	846	3858	84
25	0	0	1952	844	3856	82
26	0	0	1985	847	3858	81
27	0	0	2034	847	3856	79
28	0	0	2063	847	3855	83
29	0	0	2063	848	3856	84
30	0	0	2048	848	3855	81
31	0	0	2061	848	3857	82
32	0	0	2091	852	3857	80
33	0	0	2110	849	3857	81
34	0	0	2095	847	3860	80
35	0	0	2068	847	3859	80
36	0	0	2047	848	3859	79
37	0	0	2026	846	3859	79
38	0	0	1979	844	3857	79
39	0	0	1918	846	3859	79
40	0	0	1885	846	3857	77
41	0	0	1866	842	3857	78
42	0	0	1853	846	3856	80
43	0	0	1874	846	3857	80
44	0	0	1928	845	3857	81
45	0	0	1947	846	3855	80
46	0	0	1955	845	3857	80
47	0	0	1963	847	3857	80
48	0	0	1944	845	3857	81
49	0	0	1922	844	3858	81
50	0	0	1932	849	3857	80
51	0	0	1966	849	3859	81
52	0	0	2006	849	3857	80
53	0	0	2037	848	3858	80
54	0	0	2044	852	3857	78
55	0	0	2038	848	3855	80
56	0	0	2045	848	3858	80
57	0	0	2023	846	3857	80
58	0	0	1987	845	3857	79
59	0	0	1936	843	3858	79
60	0	0	1873	844	3856	77
61	0	0	1836	843	3857	80
62	0	0	1841	845	3857	78
63	0	0	1864	846	3855	79
64	0	0	1901	845	3857	81
65	0	0	1943	847	3857	80
66	0	0	1981	844	3858	82
67	0	0	2003	847	3858	81
68	0	0	1990	845	3858	81
69	0	0	1983	847	3858	81
70	0	0	1987	851	3858	81
71	0	0	2014	851	3857	80
72	0	0	2027	850	3857	80
73	0	0	2035	848	3858	79
74	0	0	2064	849	3858	84
75	0	0	2059	848	3856	81
76	0	0	2020	845	3857	79
77	0	0	1966	845	3857	77
78	0	0	1923	845	3856	79
79	0	0	1908	848	3856	79
80	0	0	1912	850	3855	80
81	0	0	1904	844	3857	79
82	0	0	1878	844	3858	79
83	0	0	1870	845	3857	79
84	0	0	1862	845	3858	79
85	0	0	1867	846	3859	82
86	0	0	1894	845	3858	82
87	0	0	1923	847	3857	80
88	0	0	1942	848	3857	82
89	0	0	1963	848	3858	81
90	0	0	1985	848	3855	80
91	0	0	2014	848	3857	79
92	0	0	2030	847	3856	80
93	0	0	2038	850	3856	80
94	0	0	2059	848	3856	79
95	0	0	2086	850	3856	79
96	0	0	2085	844	3857	79
97	0	0	2031	845	3857	78
98	0	0	1948	844	3858	79
99	0	0	1878	845	3860	79
100	0	0	1842	844	3857	78
101	0	0	1834	846	3859	80
102	0	0	1856	845	3860	74
103	0	0	1921	846	3859	80
104	0	0	1993	845	3857	81
105	0	0	2035	847	3857	80
106	0	0	2040	847	3857	80
107	0	0	2020	844	3856	82
108	0	0	2006	846	3857	81
109	0	0	2004	847	3858	83
110	0	0	2030	851	3855	82
111	0	0	2065	847	3857	81
112	0	0	2096	849	3856	80
113	0	0	2126	849	3856	79
114	0	0	2139	849	3857	80
115	0	0	2117	846	3859	80
116	0	0	2081	844	3858	80
117	0	0	2032	845	3860	80
118	0	0	1975	844	3855	79
119	0	0	1925	845	3858	78
120	0	0	1911	842	3859	79
121	0	0	1897	842	3858	79
122	0	0	1886	844	3857	78
123	0	0	1882	844	3856	78
124	0	0	1889	846	3856	80
125	0	0	1892	845	3856	80
126	0	0	1923	845	3857	81
127	0	0	1999	844	3856	80
0	0	0	2099	847	3858	81
1	0	0	2169	846	3859	82
2	0	0	2183	848	3857	84
3	0	0	2151	846	3859	83
4	0	0	2096	845	3857	81
5	0	0	2065	846	3858	80
6	0	0	2021	843	3858	80
7	0	0	1988	846	3857	79
8	0	0	1935	844	3859	79
9	0	0	1868	844	3857	79
10	0	0	1831	844	3857	79
11	0	0	1833	848	3857	79
12	0	0	1862	846	3859	80
13	0	0	1868	847	3857	79
14	0	0	1870	845	3856	79
15	0	0	1892	844	3855	81
16	0	0	1927	847	3855	81
17	0	0	1977	847	3857	81
18	0	0	2011	847	3857	81
19	0	0	2022	847	3855	82
20	0	0	2049	847	3859	81
21	0	0	2062	847	3856	80
22	0	0	2078	848	3857	81
23	0	0	2089	848	3859	81
24	0	0	2070	847	3857	81
25	0	0	2050	847	3859	81
26	0	0	2024	846	3858	82
27	0	0	2011	847	3858	79
28	0	0	1995	846	3859	79
29	0	0	1969	845	3857	79
30	0	0	1941	843	3858	79
31	0	0	1915	847	3857	78
32	0	0	1887	844	3856	80
33	0	0	1871	846	3857	79
34	0	0	1883	845	3856	80
35	0	0	1905	844	3856	80
36	0	0	1927	843	3857	82
37	0	0	1957	845	3859	83
38	0	0	1961	849	3858	81
39	0	0	1948	848	3858	81
40	0	0	1962	846	3858	81
41	0	0	2024	850	3857	81
42	0	0	2092	849	3857	82
43	0	0	2152	848	3857	81
44	0	0	2172	847	3856	79
45	0	0	2153	846	3856	79
46	0	0	2126	847	3855	80
47	0	0	2098	846	3857	79
48	0	0	2061	847	3857	80
49	0	0	2013	844	3857	79
50	0	0	1964	843	3856	79
51	0	0	1911	847	3855	80
52	0	0	1881	842	3857	79
53	0	0	1860	843	3856	80
54	0	0	1867	848	3857	79
55	0	0	1888	845	3857	80
56	0	0	1921	847	3857	80
57	0	0	1953	846	3858	79
58	0	0	2001	847	3859	81
59	0	0	2044	846	3855	83
60	0	0	2083	847	3857	81
61	0	0	2123	847	3855	81
62	0	0	2156	847	3859	81
63	0	0	2149	847	3857	81
64	0	0	2125	847	3856	81
65	0	0	2125	848	3857	80
66	0	0	2115	847	3856	79
67	0	0	2080	844	3858	80
68	0	0	2055	846	3857	79
69	0	0	2032	845	3856	79
70	0	0	1992	842	3859	79
71	0	0	1946	843	3859	80
72	0	0	1906	842	3860	78
73	0	0	1895	845	3859	79
74	0	0	1916	845	3858	79
75	0	0	1952	844	3858	84
76	0	0	1978	845	3857	83
77	0	0	1998	846	3858	79
78	0	0	2016	844	3858	81
79	0	0	2018	846	3857	81
80	0	0	2013	846	3857	81
81	0	0	2031	846	3857	82
82	0	0	2060	847	3857	81
83	0	0	2077	848	3856	81
84	0	0	2093	847	3856	80
85	0	0	2113	848	3857	81
86	0	0	2092	846	3856	78
87	0	0	2060	845	3859	79
88	0	0	2028	844	3858	80
89	0	0	2007	846	3858	80
90	0	0	2002	847	3858	79
91	0	0	2015	846	3857	79
92	0	0	2022	846	3858	77
93	0	0	1962	840	3858	77
94	0	0	1901	842	3857	79
95	0	0	1890	845	3857	80
96	0	0	1889	847	3857	81
97	0	0	1906	846	3857	79
98	0	0	1942	846	3857	80
99	0	0	1979	846	3858	81
100	0	0	2020	844	3855	82
101	0	0	2055	847	3857	80
102	0	0	2068	844	3857	81
103	0	0	2086	848	3856	81
104	0	0	2113	848	3857	80
105	0	0	2142	848	3859	83
106	0	0	2146	848	3858	79
107	0	0	2122	846	3858	79
108	0	0	2096	844	3858	79
109	0	0	2034	843	3858	79
110	0	0	1975	844	3857	79
111	0	0	1952	844	3858	80
112	0	0	1936	845	3856	75
113	0	0	1911	842	3856	52
114	0	0	1912	845	3858	80
115	0	0	1916	845	3856	79
116	0	0	1907	843	3855	81
117	0	0	1905	846	3857	81
118	0	0	1935	846	3856	80
119	0	0	1989	845	3856	80
120	0	0	2027	848	3855	82
121	0	0	2039	846	3857	83
122	0	0	2067	847	3858	79
123	0	0	2103	847	3858	81
124	0	0	2122	848	3857	77
125	0	0	2121	848	3857	81
126	0	0	2110	848	3857	81
127	0	0	2087	846	3857	77
0	0	0	2065	848	3858	80
1	0	0	2036	844	3862	79
2	0	0	2003	844	3857	79
3	0	0	1959	843	3857	78
4	0	0	1952	846	3858	79
5	0	0	1935	843	3857	79
6	0	0	1933	844	3858	79
7	0	0	1958	844	3856	79
8	0	0	1956	843	3857	79
9	0	0	1975	845	3860	81
10	0	0	2025	846	3858	80
11	0	0	2065	846	3858	81
12	0	0	2079	844	3858	81
13	0	0	2085	846	3858	82
14	0	0	2112	848	3858	82
15	0	0	2158	848	3857	79
16	0	0	2186	849	3857	81
17	0	0	2205	848	3857	82
18	0	0	2209	846	3857	81
19	0	0	2152	845	3859	81
20	0	0	2084	844	3858	79
21	0	0	2038	844	3856	79
22	0	0	2005	842	3858	79
23	0	0	1964	843	3857	79
24	0	0	1926	842	3858	79
25	0	0	1910	845	3857	79
26	0	0	1925	844	3856	79
27	0	0	1970	844	3858	79
28	0	0	2005	843	3858	80
29	0	0	2035	844	3855	80
30	0	0	2061	846	3853	80
31	0	0	2091	846	3857	84
32	0	0	2139	846	3857	81
33	0	0	2172	846	3857	82
34	0	0	2188	847	3856	80
35	0	0	2198	847	3857	81
36	0	0	2210	848	3858	79
37	0	0	2218	848	3856	80
38	0	0	2222	846	3855	81
39	0	0	2204	847	3857	80
40	0	0	2171	843	3857	79
41	0	0	2148	844	3858	78
42	0	0	2110	842	3859	79
43	0	0	2053	842	3859	77
44	0	0	2004	843	3860	79
45	0	0	1955	842	3858	79
46	0	0	1899	841	3857	80
47	0	0	1871	842	3857	80
48	0	0	1881	844	3857	80
49	0	0	1935	844	3858	80
50	0	0	1996	843	3857	81
51	0	0	2030	845	3857	83
52	0	0	2054	844	3857	81
53	0	0	2071	847	3856	80
54	0	0	2088	845	3859	83
55	0	0	2112	847	3857	81
56	0	0	2123	848	3856	80
57	0	0	2094	844	3857	82
58	0	0	2058	843	3857	80
59	0	0	2036	846	3855	80
60	0	0	2024	843	3859	79
61	0	0	2009	845	3858	79
62	0	0	1981	843	3858	78
63	0	0	1928	842	3858	79
64	0	0	1889	842	3859	78
65	0	0	1880	843	3857	79
66	0	0	1898	845	3857	79
67	0	0	1903	844	3857	79
68	0	0	1863	842	3857	80
69	0	0	1824	841	3855	82
70	0	0	1827	843	3857	80
71	0	0	1868	845	3856	80
72	0	0	1926	845	3856	81
73	0	0	1990	846	3856	81
74	0	0	2051	847	3855	82
75	0	0	2107	846	3859	82
76	0	0	2136	847	3857	81
77	0	0	2129	848	3858	80
78	0	0	2108	844	3858	80
79	0	0	2057	844	3859	80
80	0	0	2007	843	3858	79
81	0	0	1951	843	3857	79
82	0	0	1890	842	3857	80
83	0	0	1853	842	3857	80
84	0	0	1837	842	3857	79
85	0	0	1812	841	3857	79
86	0	0	1841	843	3856	80
87	0	0	1869	844	3856	79
88	0	0	1884	845	3855	80
89	0	0	1902	845	3855	80
90	0	0	1939	843	3856	82
91	0	0	1986	845	3858	82
92	0	0	2030	848	3857	82
93	0	0	2064	846	3858	82
94	0	0	2099	848	3858	81
95	0	0	2148	843	3859	80
96	0	0	2160	846	3857	81
97	0	0	2130	846	3857	80
98	0	0	2123	847	3858	79
99	0	0	2111	847	3859	80
100	0	0	2078	843	3857	79
101	0	0	2040	844	3855	80
102	0	0	2006	843	3857	79
103	0	0	1972	843	3856	78
104	0	0	1960	843	3856	80
105	0	0	1944	842	3858	80
106	0	0	1914	841	3856	79
107	0	0	1897	843	3856	79
108	0	0	1909	843	3857	79
109	0	0	1937	844	3857	81
110	0	0	1967	843	3859	79
111	0	0	1999	845	3858	84
112	0	0	2053	845	3858	81
113	0	0	2098	847	3857	81
114	0	0	2129	846	3858	83
115	0	0	2162	844	3857	80
116	0	0	2183	848	3856	79
117	0	0	2175	845	3857	81
118	0	0	2132	845	3855	80
119	0	0	2081	844	3857	80
120	0	0	2041	843	3857	79
121	0	0	2000	843	3856	79
122	0	0	1966	843	3856	79
123	0	0	1937	845	3855	80
124	0	0	1944	847	3857	79
125	0	0	1940	842	3858	80
126	0	0	1926	839	3857	79
127	0	0	1946	843	3858	79
0	0	0	1991	845	3855	80
1	0	0	2051	845	3858	82
2	0	0	2120	841	3858	81
3	0	0	2182	846	3857	83
4	0	0	2245	845	3857	81
5	0	0	2315	848	3855	81
6	0	0	2356	847	3857	82
7	0	0	2377	844	3856	82
8	0	0	2400	847	3855	81
9	0	0	2401	847	3856	81
10	0	0	2390	848	3855	80
11	0	0	2383	848	3857	79
12	0	0	2374	848	3857	80
13	0	0	2359	846	3858	80
14	0	0	2325	843	3858	79
15	0	0	2278	842	3858	79
16	0	0	2236	842	3859	78
17	0	0	2184	840	3859	79
18	0	0	2132	841	3859	79
19	0	0	2105	844	3857	80
20	0	0	2103	844	3858	80
21	0	0	2087	841	3859	80
22	0	0	2052	836	3857	81
23	0	0	1998	841	3858	81
24	0	0	1959	844	3857	81
25	0	0	1953	847	3857	81
26	0	0	1940	844	3857	80
27	0	0	1895	842	3857	81
28	0	0	1829	843	3857	79
29	0	0	1774	843	3855	82
30	0	0	1735	843	3857	79
31	0	0	1703	845	3859	79
32	0	0	1695	846	3859	80
33	0	0	1704	846	3858	79
34	0	0	1696	843	3858	80
35	0	0	1666	841	3858	77
36	0	0	1615	841	3856	80
37	0	0	1555	841	3859	78
38	0	0	1507	840	3857	79
39	0	0	1479	841	3857	79
40	0	0	1492	845	3855	80
41	0	0	1547	843	3856	81
42	0	0	1621	844	3858	81
43	0	0	1677	845	3856	80
44	0	0	1704	844	3855	81
45	0	0	1746	846	3857	80
46	0	0	1825	847	3857	80
47	0	0	1893	844	3857	81
48	0	0	1952	846	3857	81
49	0	0	2009	847	3857	80
50	0	0	2029	848	3855	80
51	0	0	2013	845	3858	80
52	0	0	1976	843	3858	80
53	0	0	1943	844	3857	80
54	0	0	1935	845	3858	79
55	0	0	1917	842	3858	79
56	0	0	1880	842	3857	79
57	0	0	1836	840	3856	79
58	0	0	1803	842	3857	79
59	0	0	1819	842	3859	80
60	0	0	1862	842	3856	81
61	0	0	1910	844	3858	81
62	0	0	1957	845	3858	81
63	0	0	1977	844	3856	80
64	0	0	1980	844	3858	80
65	0	0	1990	846	3857	80
66	0	0	2030	847	3859	81
67	0	0	2106	847	3859	80
68	0	0	2169	847	3857	80
69	0	0	2193	848	3857	81
70	0	0	2191	848	3857	81
71	0	0	2175	846	3858	79
72	0	0	2145	843	3857	80
73	0	0	2101	843	3859	79
74	0	0	2065	841	3856	79
75	0	0	2018	844	3855	80
76	0	0	1997	845	3858	79
77	0	0	1996	844	3857	79
78	0	0	1995	843	3856	79
79	0	0	1989	843	3857	79
80	0	0	1980	844	3857	79
81	0	0	1987	844	3857	81
82	0	0	2038	844	3859	82
83	0	0	2128	845	3857	83
84	0	0	2166	845	3858	82
85	0	0	2170	846	3858	83
86	0	0	2179	846	3858	82
87	0	0	2183	847	3858	80
88	0	0	2167	846	3857	80
89	0	0	2165	848	3857	80
90	0	0	2170	847	3857	79
91	0	0	2183	847	3858	80
92	0	0	2177	845	3858	80
93	0	0	2126	843	3858	79
94	0	0	2052	844	3856	79
95	0	0	1995	843	3857	79
96	0	0	1980	843	3858	78
97	0	0	1952	842	3856	80
98	0	0	1947	845	3857	79
99	0	0	1957	844	3859	81
100	0	0	1974	843	3858	82
101	0	0	2025	843	3858	81
102	0	0	2097	844	3857	81
103	0	0	2165	844	3854	82
104	0	0	2191	845	3858	81
105	0	0	2202	846	3858	79
106	0	0	2208	845	3857	81
107	0	0	2236	847	3855	81
108	0	0	2244	847	3856	81
109	0	0	2219	846	3856	80
110	0	0	2176	845	3856	79
111	0	0	2150	846	3858	80
112	0	0	2146	847	3857	79
113	0	0	2126	845	3857	79
114	0	0	2100	842	3858	79
115	0	0	2053	841	3858	78
116	0	0	2016	843	3857	78
117	0	0	1974	841	3857	79
118	0	0	1922	839	3858	82
119	0	0	1909	845	3858	80
120	0	0	1935	843	3857	80
121	0	0	1981	842	3858	80
122	0	0	2043	844	3857	82
123	0	0	2104	844	3857	81
124	0	0	2172	845	3856	81
125	0	0	2213	847	3855	80
126	0	0	2251	847	3859	80
127	0	0	2298	839	3856	82
0	0	0	2314	847	3857	80
1	0	0	2273	845	3857	81
2	0	0	2245	847	3857	80
3	0	0	2217	844	3857	78
4	0	0	2172	843	3857	80
5	0	0	2143	844	3857	80
6	0	0	2109	843	3857	78
7	0	0	2034	842	3859	80
8	0	0	1982	840	3857	76
9	0	0	1946	841	3857	80
10	0	0	1911	841	3857	80
11	0	0	1912	844	3857	79
12	0	0	1966	845	3855	82
13	0	0	2040	844	3856	79
14	0	0	2084	844	3856	81
15	0	0	2098	844	3856	83
16	0	0	2104	845	3856	81
17	0	0	2116	846	3856	81
18	0	0	2158	846	3856	79
19	0	0	2200	847	3858	81
20	0	0	2232	847	3857	80
21	0	0	2227	847	3858	80
22	0	0	2205	846	3859	81
23	0	0	2180	845	3859	78
24	0	0	2150	844	3858	79
25	0	0	2113	844	3857	79
26	0	0	2100	845	3857	79
27	0	0	2076	845	3857	80
28	0	0	2047	841	3855	79
29	0	0	2016	842	3857	78
30	0	0	2010	844	3856	80
31	0	0	2006	844	3856	80
32	0	0	2009	843	3858	80
33	0	0	2040	845	3859	80
34	0	0	2084	843	3857	81
35	0	0	2128	844	3858	81
36	0	0	2186	845	3857	81
37	0	0	2237	845	3858	82
38	0	0	2252	846	3856	81
39	0	0	2247	847	3857	80
40	0	0	2251	848	3857	81
41	0	0	2264	847	3857	81
42	0	0	2271	847	3856	81
43	0	0	2257	847	3857	78
44	0	0	2240	845	3858	80
45	0	0	2202	843	3857	79
46	0	0	2150	842	3857	79
47	0	0	2106	841	3858	78
48	0	0	2079	842	3856	76
49	0	0	2068	844	3857	80
50	0	0	2066	844	3856	79
51	0	0	2092	844	3853	83
52	0	0	2120	845	3857	81
53	0	0	2143	845	3857	80
54	0	0	2170	844	3859	80
55	0	0	2199	845	3859	81
56	0	0	2224	847	3857	81
57	0	0	2246	844	3860	80
58	0	0	2259	847	3859	82
59	0	0	2271	847	3859	82
60	0	0	2297	847	3857	81
61	0	0	2287	845	3856	80
62	0	0	2243	843	3858	80
63	0	0	2197	844	3855	82
64	0	0	2154	846	3857	79
65	0	0	2145	847	3856	79
66	0	0	2136	846	3856	79
67	0	0	2134	844	3859	80
68	0	0	2148	845	3855	78
69	0	0	2138	844	3856	80
70	0	0	2110	842	3857	79
71	0	0	2105	843	3858	79
72	0	0	2123	843	3860	80
73	0	0	2162	845	3856	81
74	0	0	2231	845	3859	81
75	0	0	2297	846	3858	82
76	0	0	2333	845	3857	82
77	0	0	2344	844	3859	80
78	0	0	2345	847	3855	82
79	0	0	2340	847	3856	82
80	0	0	2330	848	3858	81
81	0	0	2317	851	3856	81
82	0	0	2337	847	3857	81
83	0	0	2352	849	3858	80
84	0	0	2314	844	3858	79
85	0	0	2268	844	3858	79
86	0	0	2231	843	3858	79
87	0	0	2207	844	3858	79
88	0	0	2204	846	3859	77
89	0	0	2169	842	3859	78
90	0	0	2115	841	3859	80
91	0	0	2074	840	3858	80
92	0	0	2081	845	3857	81
93	0	0	2124	845	3858	81
94	0	0	2153	845	3859	81
95	0	0	2195	845	3857	81
96	0	0	2245	848	3855	81
97	0	0	2287	846	3855	81
98	0	0	2333	846	3857	81
99	0	0	2380	847	3859	81
100	0	0	2403	848	3856	80
101	0	0	2396	848	3855	81
102	0	0	2383	848	3855	80
103	0	0	2339	844	3857	80
104	0	0	2279	845	3856	80
105	0	0	2228	844	3855	80
106	0	0	2198	844	3859	79
107	0	0	2187	846	3859	79
108	0	0	2195	845	3859	78
109	0	0	2169	841	3858	79
110	0	0	2107	841	3857	80
111	0	0	2035	840	3857	79
112	0	0	2008	844	3857	79
113	0	0	2057	845	3856	81
114	0	0	2134	845	3856	80
115	0	0	2189	845	3857	81
116	0	0	2223	847	3857	81
117	0	0	2237	846	3857	82
118	0	0	2243	847	3856	83
119	0	0	2254	847	3857	80
120	0	0	2262	848	3857	81
121	0	0	2266	849	3858	81
122	0	0	2269	848	3858	81
123	0	0	2273	848	3859	80
124	0	0	2273	847	3859	81
125	0	0	2261	846	3859	79
126	0	0	2215	843	3858	79
127	0	0	2168	844	3858	79
0	0	0	2143	843	3859	78
1	0	0	2090	842	3856	80
2	0	0	2038	841	3856	80
3	0	0	2013	843	3857	79
4	0	0	2033	844	3855	81
5	0	0	2098	845	3856	79
6	0	0	2142	846	3857	81
7	0	0	2169	843	3857	82
8	0	0	2204	846	3857	81
9	0	0	2211	847	3860	84
10	0	0	2199	848	3859	79
11	0	0	2209	847	3856	79
12	0	0	2224	848	3858	82
13	0	0	2228	848	3858	80
14	0	0	2247	848	3860	80
15	0	0	2246	848	3859	79
16	0	0	2210	844	3857	79
17	0	0	2153	843	3857	79
18	0	0	2066	844	3857	79
19	0	0	2003	842	3855	80
20	0	0	1961	843	3859	75
21	0	0	1933	843	3854	80
22	0	0	1920	845	3857	78
23	0	0	1938	844	3857	79
24	0	0	1970	844	3856	82
25	0	0	1989	844	3858	81
26	0	0	1988	845	3856	82
27	0	0	2023	845	3859	80
28	0	0	2066	847	3860	81
29	0	0	2085	847	3858	78
30	0	0	2099	848	3858	79
31	0	0	2126	848	3858	81
32	0	0	2157	848	3857	81
33	0	0	2182	848	3858	77
34	0	0	2179	849	3855	80
35	0	0	2157	845	3858	79
36	0	0	2116	845	3856	77
37	0	0	2062	844	3857	79
38	0	0	2001	843	3857	78
39	0	0	1947	844	3857	79
40	0	0	1906	842	3858	78
41	0	0	1865	842	3856	80
42	0	0	1842	843	3857	80
43	0	0	1855	845	3859	81
44	0	0	1879	845	3858	80
45	0	0	1920	845	3859	77
46	0	0	1978	845	3858	80
47	0	0	2017	846	3857	81
48	0	0	2071	847	3857	82
49	0	0	2130	846	3856	83
50	0	0	2158	848	3858	79
51	0	0	2149	848	3859	82
52	0	0	2148	848	3856	81
53	0	0	2160	847	3858	80
54	0	0	2150	848	3858	80
55	0	0	2126	846	3857	80
56	0	0	2096	845	3856	79
57	0	0	2042	844	3857	79
58	0	0	1984	844	3857	79
59	0	0	1917	844	3857	78
60	0	0	1907	847	3859	77
61	0	0	1885	842	3859	77
62	0	0	1836	842	3857	79
63	0	0	1817	845	3857	80
64	0	0	1842	845	3856	82
65	0	0	1911	846	3857	80
66	0	0	1998	845	3858	82
67	0	0	2055	846	3859	82
68	0	0	2085	848	3855	82
69	0	0	2095	847	3857	81
70	0	0	2103	848	3856	81
71	0	0	2125	848	3852	80
72	0	0	2149	849	3856	81
73	0	0	2132	845	3856	81
74	0	0	2062	845	3859	81
75	0	0	1990	845	3858	80
76	0	0	1981	849	3859	80
77	0	0	2001	848	3858	79
78	0	0	2033	846	3857	79
79	0	0	2046	846	3858	79
80	0	0	2010	843	3858	80
81	0	0	1933	842	3858	80
82	0	0	1888	843	3857	79
83	0	0	1892	845	3856	79
84	0	0	1922	845	3855	80
85	0	0	1958	846	3856	80
86	0	0	2009	845	3858	79
87	0	0	2051	846	3858	79
88	0	0	2076	847	3857	81
89	0	0	2079	847	3855	82
90	0	0	2064	847	3856	80
91	0	0	2071	849	3858	80
92	0	0	2091	847	3857	80
93	0	0	2091	847	3858	80
94	0	0	2086	848	3859	80
95	0	0	2082	848	3857	80
96	0	0	2086	849	3858	79
97	0	0	2074	846	3857	79
98	0	0	2039	844	3858	80
99	0	0	2009	844	3858	79
100	0	0	1974	844	3858	80
101	0	0	1926	843	3858	79
102	0	0	1891	842	3857	79
103	0	0	1864	841	3857	79
104	0	0	1854	846	3857	80
105	0	0	1873	844	3858	80
106	0	0	1903	846	3855	81
107	0	0	1968	846	3856	82
108	0	0	2032	848	3857	216
109	0	0	2095	848	3860	820
110	0	0	2161	848	3859	1612
111	0	0	2208	848	3858	2284
112	0	0	2193	844	3857	2768
113	0	0	2147	847	3856	3091
114	0	0	2116	846	3858	3311
115	0	0	2114	848	3858	3461
116	0	0	2086	844	3859	3564
117	0	0	2037	845	3857	3639
118	0	0	2006	845	3856	3697
119	0	0	2006	848	3857	3739
120	0	0	1991	845	3860	3773
121	0	0	1960	843	3855	3800
122	0	0	1935	843	3856	3821
123	0	0	1914	841	3859	3839
124	0	0	1889	841	3858	3855
125	0	0	1884	844	3859	3867
126	0	0	1901	845	3857	3879
127	0	0	1940	845	3858	3887
0	0	0	1998	845	3859	3896
1	0	0	2057	847	3858	3902
2	0	0	2105	848	3857	3909
3	0	0	2151	848	3857	3915
4	0	0	2162	847	3856	3919
5	0	0	2138	847	3855	3924
6	0	0	2107	846	3858	3928
7	0	0	2073	844	3856	3931
8	0	0	2040	845	3857	3935
9	0	0	2009	843	3855	3937
10	0	0	1981	843	3858	3937
11	0	0	1947	844	3857	3943
12	0	0	1930	844	3856	3945
13	0	0	1913	844	3856	3948
14	0	0	1920	845	3857	3948
15	0	0	1929	847	3855	3951
16	0	0	1933	846	3859	3952
17	0	0	1986	846	3858	3954
18	0	0	2058	846	3857	3957
19	0	0	2104	846	3858	3957
20	0	0	2094	847	3855	3958
21	0	0	2079	847	3858	3958
22	0	0	2094	847	3857	3962
23	0	0	2125	850	3856	3963
24	0	0	2156	849	3856	3963
25	0	0	2177	848	3857	3964
26	0	0	2175	848	3858	3967
27	0	0	2128	846	3858	3964
28	0	0	2064	846	3858	3968
29	0	0	1997	844	3857	3967
30	0	0	1961	846	3859	3970
31	0	0	1962	848	3859	3970
32	0	0	2001	848	3858	3968
33	0	0	2019	846	3859	3972
34	0	0	1991	843	3857	3972
35	0	0	1986	846	3857	3972
36	0	0	1992	846	3858	3971
37	0	0	1990	846	3858	3974
38	0	0	1999	847	3857	3974
39	0	0	2034	847	3857	3974
40	0	0	2077	847	3856	3975
41	0	0	2134	849	3857	3975
42	0	0	2181	848	3856	3975
43	0	0	2203	849	3856	3978
44	0	0	2203	850	3857	3976
45	0	0	2211	849	3856	3977
46	0	0	2204	850	3857	3978
47	0	0	2164	846	3859	3979
48	0	0	2105	846	3857	3979
49	0	0	2045	845	3859	3979
50	0	0	1984	846	3858	3980
51	0	0	1954	846	3859	3979
52	0	0	1942	845	3858	3980
53	0	0	1912	845	3859	3981
54	0	0	1892	843	3857	3980
55	0	0	1895	846	3855	3980
56	0	0	1945	846	3857	3980
57	0	0	1999	846	3857	3982
58	0	0	2025	846	3856	3982
59	0	0	2045	847	3857	3982
60	0	0	2078	847	3856	3982
61	0	0	2094	849	3857	3982
62	0	0	2095	848	3857	3983
63	0	0	2112	847	3856	3985
64	0	0	2113	849	3858	3982
65	0	0	2092	847	3857	3983
66	0	0	2087	850	3858	3984
67	0	0	2092	851	3859	3985
68	0	0	2086	849	3857	3984
69	0	0	2059	846	3859	3984
70	0	0	2029	846	3859	3984
71	0	0	2005	847	3859	3985
72	0	0	1987	846	3859	3986
73	0	0	1959	844	3858	3985
74	0	0	1926	843	3856	3985
75	0	0	1921	845	3855	3983
76	0	0	1952	847	3856	3985
77	0	0	2005	847	3857	3986
78	0	0	2060	847	3858	3986
79	0	0	2113	847	3856	3985
80	0	0	2143	849	3857	3986
81	0	0	2156	848	3858	3987
82	0	0	2172	850	3859	3985
83	0	0	2184	850	3859	3988
84	0	0	2172	847	3857	3987
85	0	0	2141	847	3859	3989
86	0	0	2098	848	3859	3988
87	0	0	2059	846	3858	3988
88	0	0	2030	848	3860	3988
89	0	0	2034	850	3857	3987
90	0	0	2036	850	3857	3987
91	0	0	2019	847	3856	3988
92	0	0	2008	847	3857	3988
93	0	0	1991	847	3855	3987
94	0	0	1972	845	3856	3988
95	0	0	1937	843	3856	3988
96	0	0	1939	848	3857	3989
97	0	0	1998	849	3858	3988
98	0	0	2044	848	3860	3989
99	0	0	2041	848	3859	3990
100	0	0	2040	845	3860	3988
101	0	0	2053	847	3858	3989
102	0	0	2091	849	3859	3991
103	0	0	2133	850	3856	3990
104	0	0	2154	850	3857	3989
105	0	0	2159	850	3855	3990
106	0	0	2143	849	3856	3990
107	0	0	2113	849	3858	3991
108	0	0	2109	851	3859	3990
109	0	0	2107	849	3857	3990
110	0	0	2058	846	3856	3990
111	0	0	1984	845	3855	3992
112	0	0	1922	845	3857	3991
113	0	0	1887	846	3859	3991
114	0	0	1867	846	3857	3990
115	0	0	1877	847	3857	3991
116	0	0	1897	846	3858	3991
117	0	0	1935	848	3858	3992
118	0	0	1989	848	3860	3991
119	0	0	2054	847	3857	3991
120	0	0	2123	849	3856	3992
121	0	0	2144	848	3855	3992
122	0	0	2142	850	3859	3991
123	0	0	2137	850	3858	3992
124	0	0	2129	851	3855	3990
125	0	0	2135	851	3856	3992
126	0	0	2157	852	3856	3992
127	0	0	2173	851	3857	3992
0	0	0	2159	850	3857	3992
1	0	0	2130	848	3856	3991
2	0	0	2105	847	3857	3993
3	0	0	2070	847	3859	3993
4	0	0	2041	846	3859	3991
5	0	0	1994	845	3859	3993
6	0	0	1941	845	3857	3990
7	0	0	1911	845	3858	3991
8	0	0	1913	845	3859	3991
9	0	0	1942	848	3858	3993
10	0	0	1979	846	3857	3992
11	0	0	2016	849	3857	3992
12	0	0	2062	850	3857	3992
13	0	0	2120	847	3855	3992
14	0	0	2170	850	3857	3995
15	0	0	2188	852	3857	3993
16	0	0	2192	852	3856	3992
17	0	0	2180	852	3856	3993
18	0	0	2164	850	3855	3992
19	0	0	2154	850	3858	3994
20	0	0	2165	851	3858	3994
21	0	0	2147	849	3859	3994
22	0	0	2100	847	3864	3993
23	0	0	2037	844	3858	3993
24	0	0	1975	846	3859	3995
25	0	0	1932	846	3857	3992
26	0	0	1929	847	3857	3993
27	0	0	1931	847	3856	3992
28	0	0	1923	846	3855	3992
29	0	0	1919	849	3856	3991
30	0	0	1952	848	3857	3995
31	0	0	2000	849	3860	3991
32	0	0	2056	850	3856	3992
33	0	0	2099	850	3857	3992
34	0	0	2137	851	3856	3992
35	0	0	2200	851	3857	3993
36	0	0	2262	851	3857	3993
37	0	0	2242	849	3857	3993
38	0	0	2219	847	3858	3994
39	0	0	2203	851	3859	3994
40	0	0	2180	849	3857	3995
41	0	0	2144	848	3857	3993
42	0	0	2098	847	3856	3993
43	0	0	2068	847	3857	3992
44	0	0	2049	849	3857	3993
45	0	0	2038	849	3857	3994
46	0	0	2023	847	3856	3993
47	0	0	2022	848	3856	3994
48	0	0	2041	847	3855	3996
49	0	0	2063	849	3857	3993
50	0	0	2099	849	3858	3996
51	0	0	2115	850	3856	3994
52	0	0	2157	850	3858	3992
53	0	0	2211	847	3858	3995
54	0	0	2246	854	3859	3995
55	0	0	2247	852	3857	3993
56	0	0	2249	853	3858	3994
57	0	0	2221	850	3859	3993
58	0	0	2185	849	3857	3996
59	0	0	2138	848	3858	3993
60	0	0	2108	848	3857	3996
61	0	0	2092	849	3857	3995
62	0	0	2062	849	3858	3994
63	0	0	2034	847	3855	3996
64	0	0	2012	850	3857	3995
65	0	0	1984	847	3855	3995
66	0	0	1964	849	3856	3995
67	0	0	1984	849	3857	3997
68	0	0	2028	850	3858	3996
69	0	0	2076	849	3858	3994
70	0	0	2121	849	3859	3996
71	0	0	2163	850	3858	3995
72	0	0	2210	851	3859	3992
73	0	0	2246	849	3855	3995
74	0	0	2271	852	3858	3994
75	0	0	2277	852	3857	3997
76	0	0	2259	850	3857	3995
77	0	0	2229	850	3856	3995
78	0	0	2215	852	3856	3998
79	0	0	2202	851	3857	3995
80	0	0	2163	849	3856	3997
81	0	0	2111	848	3856	3995
82	0	0	2057	847	3856	3995
83	0	0	2007	847	3855	3996
84	0	0	1971	847	3858	3993
85	0	0	1939	847	3855	3997
86	0	0	1943	849	3857	3996
87	0	0	1948	849	3857	3995
88	0	0	1971	850	3857	3999
89	0	0	2017	850	3857	3995
90	0	0	2060	850	3857	3997
91	0	0	2074	850	3856	3996
92	0	0	2064	850	3857	3995
93	0	0	2076	851	3857	3996
94	0	0	2087	851	3857	3997
95	0	0	2109	854	3856	3996
96	0	0	2133	852	3856	3996
97	0	0	2157	853	3858	3997
98	0	0	2184	853	3856	3997
99	0	0	2174	850	3856	3997
100	0	0	2126	849	3857	3997
101	0	0	2076	848	3852	3996
102	0	0	2027	848	3857	3997
103	0	0	1960	848	3858	3997
104	0	0	1915	851	3858	3996
105	0	0	1902	849	3858	3997
106	0	0	1904	850	3857	3996
107	0	0	1916	850	3859	3997
108	0	0	1933	850	3858	3997
109	0	0	1929	850	3858	3996
110	0	0	1942	851	3857	3997
111	0	0	2015	850	3857	3996
112	0	0	2120	852	3856	3997
113	0	0	2191	851	3858	3997
114	0	0	2200	853	3857	3997
115	0	0	2196	851	3856	3996
116	0	0	2197	853	3856	3996
117	0	0	2178	850	3856	3996
118	0	0	2127	849	3856	3997
119	0	0	2074	850	3858	3996
120	0	0	2051	853	3857	3998
121	0	0	2045	852	3859	3998
122	0	0	2036	852	3857	3996
123	0	0	2028	848	3856	3996
124	0	0	1999	847	3858	3997
125	0	0	1952	847	3857	3994
126	0	0	1907	847	3856	3996
127	0	0	1880	848	3856	3997
0	0	0	1896	850	3858	3995
1	0	0	1946	851	3856	3997
2	0	0	2017	850	3856	3996
3	0	0	2075	851	3856	3996
4	0	0	2116	851	3856	3997
5	0	0	2123	849	3856	3997
6	0	0	2127	853	3857	3995
7	0	0	2150	853	3857	3999
8	0	0	2165	854	3858	3998
9	0	0	2165	855	3858	4000
10	0	0	2163	855	3857	3999
11	0	0	2134	851	3858	3997
12	0	0	2080	849	3859	3998
13	0	0	2043	851	3857	3997
14	0	0	2021	850	3856	3997
15	0	0	2003	850	3858	3999
16	0	0	1989	851	3857	3997
17	0	0	1968	849	3856	3996
18	0	0	1953	849	3856	3997
19	0	0	1958	850	3856	3997
20	0	0	1986	848	3856	3998
21	0	0	2030	850	3857	3996
22	0	0	2073	850	3855	3995
23	0	0	2097	851	3856	3997
24	0	0	2098	853	3857	3997
25	0	0	2103	852	3858	3995
26	0	0	2104	853	3857	3996
27	0	0	2115	855	3857	4000
28	0	0	2164	855	3859	3999
29	0	0	2215	856	3858	3997
30	0	0	2250	852	3857	3997
31	0	0	2277	854	3859	4000
32	0	0	2269	852	3857	3996
33	0	0	2221	849	3855	3997
34	0	0	2181	851	3856	4000
35	0	0	2179	853	3858	3995
36	0	0	2189	852	3857	3998
37	0	0	2187	851	3856	3996
38	0	0	2169	850	3855	3997
39	0	0	2168	851	3856	3997
40	0	0	2175	850	3858	3999
41	0	0	2207	850	3858	3998
42	0	0	2265	851	3857	3996
43	0	0	2323	853	3857	3997
44	0	0	2381	851	3858	3997
45	0	0	2398	852	3858	4000
46	0	0	2421	854	3858	3998
47	0	0	2442	854	3857	3996
48	0	0	2443	854	3856	3998
49	0	0	2439	855	3857	3998
50	0	0	2419	853	3857	3995
51	0	0	2361	850	3857	3998
52	0	0	2257	850	3859	3999
53	0	0	2148	850	3856	3998
54	0	0	2066	849	3856	4000
55	0	0	1991	848	3857	3998
56	0	0	1908	846	3857	3997
57	0	0	1801	847	3857	3994
58	0	0	1693	848	3857	3997
59	0	0	1634	848	3857	3998
60	0	0	1616	848	3858	3997
61	0	0	1609	850	3858	3996
62	0	0	1613	852	3857	3998
63	0	0	1645	853	3859	4000
64	0	0	1694	855	3857	3997
65	0	0	1721	854	3857	3997
66	0	0	1741	854	3857	3999
67	0	0	1753	854	3856	3996
68	0	0	1767	855	3856	3997
69	0	0	1791	854	3855	4000
70	0	0	1842	854	3858	3994
71	0	0	1872	856	3856	3999
72	0	0	1852	853	3857	3999
73	0	0	1810	852	3855	3998
74	0	0	1759	849	3856	3998
75	0	0	1696	851	3858	3997
76	0	0	1679	851	3858	3999
77	0	0	1686	852	3857	3997
78	0	0	1698	852	3859	3999
79	0	0	1721	849	3859	3997
80	0	0	1763	854	3857	3997
81	0	0	1798	852	3858	3999
82	0	0	1853	852	3857	3999
83	0	0	1925	853	3856	3997
84	0	0	1991	852	3855	4000
85	0	0	2044	853	3858	3995
86	0	0	2096	852	3856	4000
87	0	0	2146	854	3856	3999
88	0	0	2202	855	3856	3998
89	0	0	2224	856	3855	3998
90	0	0	2187	851	3855	3996
91	0	0	2149	853	3858	3998
92	0	0	2098	853	3859	3999
93	0	0	2039	855	3857	3998
94	0	0	2033	854	3859	3999
95	0	0	2024	855	3858	3997
96	0	0	2024	854	3857	3998
97	0	0	2000	849	3857	3999
98	0	0	1965	850	3856	3998
99	0	0	1938	848	3856	3998
100	0	0	1935	854	3857	3997
101	0	0	1965	852	3856	3999
102	0	0	1999	853	3856	3998
103	0	0	2030	852	3857	3999
104	0	0	2077	855	3857	4000
105	0	0	2129	856	3856	3997
106	0	0	2171	854	3857	3999
107	0	0	2201	855	3857	3999
108	0	0	2232	855	3856	3998
109	0	0	2264	857	3859	3999
110	0	0	2240	853	3858	3999
111	0	0	2156	851	3859	3997
112	0	0	2087	852	3857	3999
113	0	0	2032	851	3857	3998
114	0	0	1965	850	3856	3998
115	0	0	1937	854	3857	3999
116	0	0	1963	854	3858	3999
117	0	0	1977	853	3856	3999
118	0	0	1970	852	3857	3999
119	0	0	1990	849	3859	3998
120	0	0	2010	853	3856	3999
121	0	0	2041	851	3856	3999
122	0	0	2098	853	3855	3999
123	0	0	2154	853	3856	3998
