# bioPlux Text File Format
# Version: 1
# StartDateTime: 2011-07-18 13:50:27
# SamplingFrequency: 1000
# SampledChannels: 1 2 3 4
# SamplingResolution: 12
# AcquiringDevice: 00:07:80:42:0F:8B
# EndOfHeader
0	0	0	1799	1812	3816	82
1	0	0	1868	1812	3820	81
2	0	0	1947	1811	3818	79
3	0	0	2019	1811	3818	80
4	0	0	2088	1812	3818	80
5	0	0	2148	1810	3818	80
6	0	0	2201	1812	3817	80
7	0	0	2229	1812	3818	80
8	0	0	2240	1812	3818	81
9	0	0	2297	1812	3817	81
10	0	0	2310	1808	3818	80
11	0	0	2230	1808	3817	80
12	0	0	2144	1808	3818	80
13	0	0	2045	1808	3818	81
14	0	0	1947	1808	3818	81
15	0	0	1881	1808	3820	82
16	0	0	1845	1810	3818	80
17	0	0	1829	1810	3818	80
18	0	0	1830	1812	3818	80
19	0	0	1803	1809	3817	80
20	0	0	1815	1813	3817	81
21	0	0	1885	1812	3816	80
22	0	0	1957	1812	3818	81
23	0	0	2024	1812	3817	80
24	0	0	2085	1812	3817	81
25	0	0	2141	1812	3818	81
26	0	0	2186	1814	3817	80
27	0	0	2212	1813	3819	79
28	0	0	2205	1812	3818	80
29	0	0	2248	1812	3818	80
30	0	0	2266	1811	3817	81
31	0	0	2202	1809	3817	80
32	0	0	2116	1810	3819	81
33	0	0	2057	1809	3819	79
34	0	0	1966	1808	3819	79
35	0	0	1905	1809	3818	80
36	0	0	1865	1810	3819	81
37	0	0	1850	1811	3819	81
38	0	0	1853	1813	3819	80
39	0	0	1834	1810	3817	80
40	0	0	1843	1813	3817	79
41	0	0	1901	1813	3818	80
42	0	0	1962	1811	3818	80
43	0	0	2024	1813	3819	80
44	0	0	2075	1814	3817	80
45	0	0	2131	1814	3818	81
46	0	0	2169	1814	3818	81
47	0	0	2190	1812	3819	81
48	0	0	2196	1814	3820	81
49	0	0	2241	1815	3819	81
50	0	0	2242	1810	3818	81
51	0	0	2179	1810	3819	81
52	0	0	2103	1809	3818	80
53	0	0	2033	1809	3819	81
54	0	0	1959	1811	3817	80
55	0	0	1914	1811	3817	80
56	0	0	1891	1811	3819	81
57	0	0	1885	1815	3819	80
58	0	0	1886	1813	3817	81
59	0	0	1870	1812	3818	80
60	0	0	1883	1813	3819	77
61	0	0	1935	1814	3815	80
62	0	0	1988	1813	3818	80
63	0	0	2035	1813	3818	82
64	0	0	2081	1815	3820	81
65	0	0	2126	1813	3819	81
66	0	0	2159	1814	3819	80
67	0	0	2178	1812	3819	82
68	0	0	2174	1814	3818	81
69	0	0	2207	1814	3817	80
70	0	0	2215	1812	3818	79
71	0	0	2165	1811	3822	81
72	0	0	2116	1811	3818	80
73	0	0	2056	1810	3818	81
74	0	0	1989	1811	3819	80
75	0	0	1949	1812	3818	77
76	0	0	1924	1812	3819	80
77	0	0	1915	1813	3819	81
78	0	0	1917	1814	3818	80
79	0	0	1907	1812	3818	82
80	0	0	1917	1814	3818	80
81	0	0	1962	1813	3819	81
82	0	0	2006	1813	3819	79
83	0	0	2052	1814	3819	80
84	0	0	2087	1815	3818	80
85	0	0	2125	1816	3817	80
86	0	0	2153	1815	3818	80
87	0	0	2165	1814	3819	80
88	0	0	2167	1815	3819	80
89	0	0	2195	1816	3817	80
90	0	0	2195	1812	3818	80
91	0	0	2153	1812	3817	80
92	0	0	2108	1812	3818	80
93	0	0	2061	1812	3817	81
94	0	0	2009	1813	3817	80
95	0	0	1975	1813	3818	79
96	0	0	1957	1814	3817	81
97	0	0	1949	1814	3819	79
98	0	0	1953	1814	3818	80
99	0	0	1939	1813	3818	80
100	0	0	1946	1816	3817	80
101	0	0	1982	1815	3816	81
102	0	0	2022	1815	3818	80
103	0	0	2059	1816	3818	80
104	0	0	2095	1815	3818	80
105	0	0	2125	1817	3817	80
106	0	0	2144	1816	3817	81
107	0	0	2153	1816	3819	81
108	0	0	2151	1815	3817	79
109	0	0	2182	1815	3820	80
110	0	0	2187	1815	3818	77
111	0	0	2145	1813	3816	81
112	0	0	2113	1812	3819	80
113	0	0	2066	1812	3818	80
114	0	0	2024	1813	3818	81
115	0	0	1998	1814	3818	81
116	0	0	1981	1814	3819	81
117	0	0	1975	1814	3820	80
118	0	0	1977	1816	3819	80
119	0	0	1957	1814	3818	80
120	0	0	1967	1815	3817	79
121	0	0	1998	1816	3816	81
122	0	0	2033	1816	3819	80
123	0	0	2063	1816	3817	81
124	0	0	2090	1817	3819	80
125	0	0	2121	1816	3819	80
126	0	0	2139	1817	3816	81
127	0	0	2148	1816	3818	81
0	0	0	2149	1816	3817	79
1	0	0	2177	1815	3820	80
2	0	0	2181	1815	3818	79
3	0	0	2143	1814	3818	81
4	0	0	2106	1813	3819	80
5	0	0	2062	1812	3819	80
6	0	0	2023	1813	3818	80
7	0	0	2002	1814	3818	80
8	0	0	1984	1816	3819	81
9	0	0	1980	1818	3819	80
10	0	0	1979	1816	3817	80
11	0	0	1965	1814	3819	80
12	0	0	1969	1817	3818	78
13	0	0	2006	1817	3816	81
14	0	0	2036	1816	3818	80
15	0	0	2064	1816	3817	80
16	0	0	2088	1816	3818	80
17	0	0	2112	1817	3817	79
18	0	0	2132	1817	3818	80
19	0	0	2138	1816	3820	79
20	0	0	2142	1817	3818	80
21	0	0	2161	1817	3818	80
22	0	0	2160	1816	3819	81
23	0	0	2129	1815	3818	81
24	0	0	2100	1814	3819	81
25	0	0	2063	1814	3819	80
26	0	0	2022	1814	3817	80
27	0	0	2001	1816	3817	80
28	0	0	1990	1817	3819	80
29	0	0	1982	1815	3818	81
30	0	0	1984	1817	3817	80
31	0	0	1976	1815	3818	81
32	0	0	1980	1817	3817	80
33	0	0	2005	1817	3817	81
34	0	0	2031	1817	3817	80
35	0	0	2056	1817	3817	82
36	0	0	2082	1817	3818	81
37	0	0	2104	1817	3818	81
38	0	0	2123	1818	3817	81
39	0	0	2132	1818	3819	80
40	0	0	2130	1817	3817	80
41	0	0	2148	1817	3819	80
42	0	0	2143	1816	3817	80
43	0	0	2115	1816	3818	80
44	0	0	2089	1814	3819	80
45	0	0	2052	1814	3817	80
46	0	0	2021	1814	3818	81
47	0	0	1999	1816	3817	81
48	0	0	1994	1819	3817	79
49	0	0	1988	1820	3818	82
50	0	0	1986	1818	3817	80
51	0	0	1978	1817	3817	81
52	0	0	1983	1817	3817	80
53	0	0	2011	1818	3818	80
54	0	0	2033	1817	3819	79
55	0	0	2053	1818	3819	81
56	0	0	2073	1817	3819	81
57	0	0	2091	1818	3818	79
58	0	0	2103	1818	3819	79
59	0	0	2109	1819	3819	80
60	0	0	2113	1818	3817	80
61	0	0	2133	1818	3815	82
62	0	0	2127	1818	3816	80
63	0	0	2104	1816	3818	80
64	0	0	2074	1816	3818	81
65	0	0	2035	1816	3818	79
66	0	0	2001	1815	3818	81
67	0	0	1987	1818	3819	86
68	0	0	1977	1818	3820	79
69	0	0	1978	1819	3818	80
70	0	0	1979	1819	3818	80
71	0	0	1973	1820	3818	80
72	0	0	1977	1819	3819	79
73	0	0	2002	1819	3817	79
74	0	0	2028	1818	3818	81
75	0	0	2046	1818	3817	81
76	0	0	2062	1821	3817	79
77	0	0	2076	1820	3817	80
78	0	0	2094	1820	3818	80
79	0	0	2100	1819	3817	80
80	0	0	2100	1820	3817	80
81	0	0	2120	1820	3816	80
82	0	0	2115	1819	3818	81
83	0	0	2091	1816	3819	79
84	0	0	2065	1817	3817	81
85	0	0	2033	1815	3817	80
86	0	0	2005	1817	3817	77
87	0	0	1986	1820	3819	83
88	0	0	1978	1819	3821	80
89	0	0	1978	1819	3818	80
90	0	0	1980	1819	3817	80
91	0	0	1972	1822	3817	79
92	0	0	1973	1820	3817	81
93	0	0	1993	1820	3819	79
94	0	0	2018	1820	3817	80
95	0	0	2039	1818	3816	80
96	0	0	2059	1819	3816	77
97	0	0	2073	1820	3817	81
98	0	0	2084	1820	3819	80
99	0	0	2091	1820	3817	79
100	0	0	2097	1820	3817	80
101	0	0	2115	1821	3817	79
102	0	0	2116	1820	3818	80
103	0	0	2089	1819	3820	80
104	0	0	2065	1817	3818	81
105	0	0	2031	1815	3817	80
106	0	0	2004	1820	3818	80
107	0	0	1993	1821	3819	81
108	0	0	1989	1822	3817	78
109	0	0	1988	1821	3818	80
110	0	0	1987	1820	3816	80
111	0	0	1984	1823	3817	80
112	0	0	1993	1821	3817	82
113	0	0	2011	1820	3816	78
114	0	0	2024	1821	3818	80
115	0	0	2041	1821	3816	80
116	0	0	2065	1822	3818	80
117	0	0	2083	1821	3818	80
118	0	0	2099	1822	3819	80
119	0	0	2101	1821	3819	80
120	0	0	2106	1821	3817	80
121	0	0	2124	1822	3817	80
122	0	0	2127	1820	3818	80
123	0	0	2100	1819	3817	78
124	0	0	2074	1818	3818	81
125	0	0	2044	1817	3817	80
126	0	0	2014	1819	3819	80
127	0	0	1999	1821	3817	80
0	0	0	1988	1821	3816	78
1	0	0	1986	1822	3818	82
2	0	0	1988	1821	3816	80
3	0	0	1985	1823	3818	80
4	0	0	1991	1821	3817	80
5	0	0	2015	1822	3817	79
6	0	0	2035	1822	3819	81
7	0	0	2055	1821	3817	80
8	0	0	2070	1824	3815	80
9	0	0	2087	1822	3819	80
10	0	0	2097	1822	3819	77
11	0	0	2105	1822	3819	80
12	0	0	2110	1821	3817	80
13	0	0	2126	1824	3815	80
14	0	0	2124	1821	3818	80
15	0	0	2101	1820	3815	81
16	0	0	2078	1820	3818	81
17	0	0	2051	1820	3816	80
18	0	0	2029	1820	3818	80
19	0	0	2012	1822	3818	80
20	0	0	2008	1822	3817	77
21	0	0	2004	1822	3818	80
22	0	0	1999	1822	3817	80
23	0	0	1992	1823	3816	79
24	0	0	1998	1823	3817	80
25	0	0	2017	1822	3815	81
26	0	0	2040	1822	3819	80
27	0	0	2062	1822	3817	79
28	0	0	2082	1822	3817	80
29	0	0	2100	1823	3817	80
30	0	0	2108	1823	3818	80
31	0	0	2113	1823	3818	80
32	0	0	2114	1823	3816	80
33	0	0	2133	1824	3815	80
34	0	0	2132	1823	3815	79
35	0	0	2109	1821	3817	79
36	0	0	2085	1821	3818	80
37	0	0	2054	1820	3816	80
38	0	0	2027	1821	3816	79
39	0	0	2010	1822	3817	81
40	0	0	2003	1823	3815	80
41	0	0	2002	1823	3818	79
42	0	0	2002	1823	3817	80
43	0	0	1995	1823	3817	80
44	0	0	2006	1824	3817	80
45	0	0	2029	1824	3817	80
46	0	0	2052	1823	3817	80
47	0	0	2074	1823	3816	80
48	0	0	2088	1825	3815	80
49	0	0	2104	1824	3815	80
50	0	0	2117	1824	3816	79
51	0	0	2122	1824	3817	80
52	0	0	2123	1824	3816	81
53	0	0	2140	1824	3817	80
54	0	0	2143	1824	3818	82
55	0	0	2115	1822	3817	79
56	0	0	2088	1822	3816	80
57	0	0	2058	1821	3817	80
58	0	0	2032	1822	3817	80
59	0	0	2022	1823	3818	80
60	0	0	2012	1825	3819	80
61	0	0	2008	1823	3820	82
62	0	0	2009	1824	3816	81
63	0	0	1997	1823	3815	80
64	0	0	1999	1825	3817	80
65	0	0	2022	1825	3817	79
66	0	0	2042	1825	3817	80
67	0	0	2062	1824	3816	79
68	0	0	2080	1825	3816	80
69	0	0	2108	1824	3819	80
70	0	0	2123	1825	3817	79
71	0	0	2123	1825	3817	79
72	0	0	2125	1824	3816	80
73	0	0	2146	1825	3816	80
74	0	0	2146	1824	3815	80
75	0	0	2113	1822	3816	79
76	0	0	2088	1823	3818	80
77	0	0	2053	1822	3817	80
78	0	0	2023	1822	3817	80
79	0	0	2003	1823	3816	79
80	0	0	1994	1825	3817	79
81	0	0	1990	1825	3816	79
82	0	0	1988	1825	3816	80
83	0	0	1979	1825	3816	80
84	0	0	1987	1826	3816	80
85	0	0	2017	1825	3817	80
86	0	0	2042	1825	3816	80
87	0	0	2060	1823	3816	80
88	0	0	2082	1825	3815	80
89	0	0	2100	1826	3815	80
90	0	0	2114	1827	3817	79
91	0	0	2120	1826	3816	80
92	0	0	2122	1825	3817	80
93	0	0	2146	1826	3817	79
94	0	0	2144	1825	3818	83
95	0	0	2113	1824	3816	79
96	0	0	2085	1823	3816	80
97	0	0	2052	1823	3816	80
98	0	0	2017	1823	3816	80
99	0	0	1993	1824	3816	80
100	0	0	1983	1825	3817	80
101	0	0	1977	1826	3814	79
102	0	0	1976	1825	3815	80
103	0	0	1969	1826	3815	80
104	0	0	1973	1826	3813	82
105	0	0	1997	1826	3817	79
106	0	0	2022	1825	3814	80
107	0	0	2049	1826	3816	82
108	0	0	2077	1826	3818	80
109	0	0	2103	1827	3815	81
110	0	0	2113	1827	3816	82
111	0	0	2117	1827	3816	79
112	0	0	2120	1826	3816	81
113	0	0	2142	1827	3816	79
114	0	0	2141	1826	3814	80
115	0	0	2102	1824	3816	79
116	0	0	2075	1826	3817	80
117	0	0	2038	1824	3815	79
118	0	0	2007	1824	3816	80
119	0	0	1987	1825	3815	79
120	0	0	1972	1825	3816	79
121	0	0	1967	1827	3816	80
122	0	0	1968	1827	3816	80
123	0	0	1955	1826	3816	80
124	0	0	1956	1828	3816	80
125	0	0	1982	1827	3817	80
126	0	0	2008	1827	3816	79
127	0	0	2033	1825	3816	80
0	0	0	2056	1827	3816	81
1	0	0	2083	1827	3818	80
2	0	0	2103	1828	3816	79
3	0	0	2115	1827	3815	79
4	0	0	2110	1827	3815	80
5	0	0	2138	1828	3815	80
6	0	0	2137	1826	3813	81
7	0	0	2100	1826	3816	80
8	0	0	2064	1826	3816	80
9	0	0	2023	1825	3815	80
10	0	0	1987	1825	3816	80
11	0	0	1972	1827	3816	80
12	0	0	1964	1829	3817	80
13	0	0	1960	1827	3815	79
14	0	0	1961	1828	3816	80
15	0	0	1948	1826	3816	81
16	0	0	1952	1828	3814	82
17	0	0	1979	1828	3817	80
18	0	0	2010	1829	3816	81
19	0	0	2036	1828	3815	80
20	0	0	2064	1828	3816	81
21	0	0	2086	1827	3813	79
22	0	0	2107	1827	3815	79
23	0	0	2119	1829	3814	80
24	0	0	2122	1828	3815	82
25	0	0	2150	1828	3815	80
26	0	0	2144	1826	3813	82
27	0	0	2105	1826	3815	80
28	0	0	2073	1825	3814	80
29	0	0	2022	1824	3815	80
30	0	0	1987	1826	3816	80
31	0	0	1958	1826	3816	79
32	0	0	1946	1827	3817	80
33	0	0	1943	1828	3816	80
34	0	0	1945	1828	3815	80
35	0	0	1934	1828	3815	80
36	0	0	1938	1828	3813	79
37	0	0	1968	1828	3815	79
38	0	0	2003	1828	3815	79
39	0	0	2029	1829	3815	80
40	0	0	2056	1829	3815	80
41	0	0	2083	1829	3815	79
42	0	0	2111	1829	3815	80
43	0	0	2115	1830	3818	82
44	0	0	2131	1829	3820	80
45	0	0	2161	1829	3817	80
46	0	0	2154	1827	3816	80
47	0	0	2115	1827	3817	80
48	0	0	2079	1827	3816	80
49	0	0	2032	1826	3816	80
50	0	0	1990	1826	3817	81
51	0	0	1965	1828	3816	83
52	0	0	1952	1828	3816	80
53	0	0	1943	1830	3816	80
54	0	0	1942	1829	3815	80
55	0	0	1930	1828	3815	79
56	0	0	1941	1830	3817	83
57	0	0	1978	1830	3815	82
58	0	0	2015	1829	3815	80
59	0	0	2047	1829	3815	80
60	0	0	2084	1829	3815	80
61	0	0	2111	1830	3815	80
62	0	0	2131	1830	3817	80
63	0	0	2140	1830	3815	79
64	0	0	2140	1832	3816	80
65	0	0	2164	1830	3818	80
66	0	0	2159	1828	3818	81
67	0	0	2119	1827	3816	83
68	0	0	2079	1827	3815	80
69	0	0	2040	1827	3816	81
70	0	0	2006	1827	3815	79
71	0	0	1987	1828	3814	79
72	0	0	1980	1831	3816	82
73	0	0	1982	1830	3815	80
74	0	0	1991	1829	3815	80
75	0	0	1981	1832	3815	80
76	0	0	1986	1831	3816	80
77	0	0	2024	1830	3816	84
78	0	0	2056	1830	3815	79
79	0	0	2071	1830	3815	80
80	0	0	2088	1832	3815	81
81	0	0	2110	1830	3817	80
82	0	0	2131	1831	3816	79
83	0	0	2135	1831	3815	79
84	0	0	2150	1828	3815	80
85	0	0	2166	1832	3814	81
86	0	0	2157	1830	3815	80
87	0	0	2128	1829	3816	84
88	0	0	2100	1830	3816	80
89	0	0	2063	1828	3815	80
90	0	0	2034	1829	3814	79
91	0	0	2014	1831	3815	80
92	0	0	2003	1832	3816	80
93	0	0	2000	1831	3814	79
94	0	0	1997	1832	3816	79
95	0	0	1992	1829	3817	80
96	0	0	1994	1832	3816	81
97	0	0	2021	1831	3817	82
98	0	0	2054	1832	3815	79
99	0	0	2086	1829	3815	80
100	0	0	2102	1832	3817	79
101	0	0	2123	1832	3816	80
102	0	0	2138	1832	3815	80
103	0	0	2151	1832	3816	79
104	0	0	2156	1833	3816	80
105	0	0	2181	1832	3814	80
106	0	0	2186	1834	3815	80
107	0	0	2157	1830	3815	79
108	0	0	2124	1830	3813	79
109	0	0	2086	1830	3814	80
110	0	0	2052	1829	3815	80
111	0	0	2029	1831	3816	79
112	0	0	2010	1831	3816	82
113	0	0	2004	1833	3816	80
114	0	0	2001	1833	3815	80
115	0	0	1992	1832	3818	80
116	0	0	1990	1832	3816	80
117	0	0	2014	1833	3816	79
118	0	0	2033	1832	3814	79
119	0	0	2050	1830	3815	80
120	0	0	2082	1832	3815	80
121	0	0	2123	1834	3816	80
122	0	0	2156	1832	3817	79
123	0	0	2193	1832	3816	81
124	0	0	2212	1832	3815	80
125	0	0	2238	1833	3816	79
126	0	0	2243	1833	3816	81
127	0	0	2206	1830	3815	79
0	0	0	2161	1830	3816	79
1	0	0	2115	1831	3817	80
2	0	0	2067	1831	3815	79
3	0	0	2024	1832	3816	81
4	0	0	1993	1830	3816	79
5	0	0	1970	1831	3814	79
6	0	0	1964	1834	3815	80
7	0	0	1949	1832	3816	80
8	0	0	1955	1834	3816	80
9	0	0	1985	1834	3815	81
10	0	0	2021	1833	3816	80
11	0	0	2061	1834	3815	80
12	0	0	2103	1833	3816	79
13	0	0	2137	1835	3815	80
14	0	0	2172	1834	3816	80
15	0	0	2196	1833	3814	79
16	0	0	2208	1833	3815	80
17	0	0	2240	1833	3815	80
18	0	0	2252	1836	3816	80
19	0	0	2219	1832	3816	81
20	0	0	2174	1831	3816	80
21	0	0	2119	1831	3816	80
22	0	0	2059	1830	3815	80
23	0	0	2008	1833	3816	80
24	0	0	1976	1832	3816	47
25	0	0	1955	1833	3816	79
26	0	0	1952	1834	3815	80
27	0	0	1931	1832	3816	80
28	0	0	1930	1835	3815	77
29	0	0	1969	1835	3815	79
30	0	0	1998	1835	3816	79
31	0	0	2031	1835	3815	80
32	0	0	2069	1834	3815	80
33	0	0	2116	1836	3816	81
34	0	0	2150	1835	3816	76
35	0	0	2172	1834	3816	80
36	0	0	2186	1835	3815	80
37	0	0	2217	1834	3815	80
38	0	0	2233	1835	3816	80
39	0	0	2197	1833	3817	80
40	0	0	2155	1832	3816	80
41	0	0	2104	1831	3815	80
42	0	0	2053	1833	3815	81
43	0	0	2018	1833	3816	81
44	0	0	1985	1833	3811	79
45	0	0	1969	1836	3816	80
46	0	0	1989	1836	3815	80
47	0	0	1963	1832	3815	80
48	0	0	1954	1833	3816	80
49	0	0	1978	1836	3815	79
50	0	0	2011	1835	3816	80
51	0	0	2045	1836	3815	80
52	0	0	2082	1836	3816	81
53	0	0	2110	1837	3816	80
54	0	0	2135	1836	3816	79
55	0	0	2151	1836	3818	79
56	0	0	2158	1836	3817	80
57	0	0	2176	1834	3812	82
58	0	0	2181	1834	3815	80
59	0	0	2149	1834	3815	79
60	0	0	2121	1834	3814	76
61	0	0	2082	1832	3815	80
62	0	0	2045	1833	3813	82
63	0	0	2016	1834	3814	79
64	0	0	1999	1836	3816	81
65	0	0	1986	1834	3815	79
66	0	0	1984	1836	3815	79
67	0	0	1977	1836	3813	81
68	0	0	1978	1837	3816	80
69	0	0	2005	1835	3816	79
70	0	0	2013	1837	3818	80
71	0	0	2042	1836	3815	79
72	0	0	2072	1837	3816	79
73	0	0	2099	1837	3817	79
74	0	0	2123	1837	3818	83
75	0	0	2140	1837	3816	80
76	0	0	2135	1836	3815	80
77	0	0	2147	1837	3815	81
78	0	0	2140	1836	3816	80
79	0	0	2114	1835	3815	77
80	0	0	2093	1835	3815	79
81	0	0	2062	1835	3815	80
82	0	0	2030	1835	3815	80
83	0	0	2008	1834	3817	80
84	0	0	1993	1836	3816	79
85	0	0	1989	1837	3818	80
86	0	0	1985	1837	3815	79
87	0	0	1976	1838	3816	80
88	0	0	1979	1836	3816	80
89	0	0	1997	1838	3816	80
90	0	0	2017	1837	3815	79
91	0	0	2038	1838	3817	80
92	0	0	2062	1839	3815	79
93	0	0	2080	1835	3815	80
94	0	0	2093	1838	3816	80
95	0	0	2098	1838	3815	79
96	0	0	2098	1838	3815	80
97	0	0	2116	1837	3812	79
98	0	0	2119	1837	3814	79
99	0	0	2095	1836	3816	80
100	0	0	2067	1838	3818	79
101	0	0	2044	1835	3813	81
102	0	0	2018	1836	3816	80
103	0	0	2001	1835	3815	77
104	0	0	1985	1837	3816	77
105	0	0	1974	1837	3818	80
106	0	0	1965	1837	3815	81
107	0	0	1952	1838	3815	79
108	0	0	1952	1837	3816	82
109	0	0	1958	1839	3815	77
110	0	0	1976	1838	3815	79
111	0	0	2006	1839	3815	79
112	0	0	2028	1840	3815	80
113	0	0	2045	1837	3815	79
114	0	0	2070	1839	3816	80
115	0	0	2082	1838	3818	79
116	0	0	2077	1838	3814	79
117	0	0	2086	1840	3815	81
118	0	0	2087	1838	3815	79
119	0	0	2065	1837	3817	77
120	0	0	2040	1836	3815	79
121	0	0	2011	1836	3816	80
122	0	0	1984	1837	3816	79
123	0	0	1963	1837	3816	80
124	0	0	1941	1838	3816	80
125	0	0	1939	1840	3817	80
126	0	0	1932	1838	3815	80
127	0	0	1917	1838	3817	79
0	0	0	1911	1840	3816	80
1	0	0	1918	1839	3815	79
2	0	0	1936	1840	3816	80
3	0	0	1950	1839	3815	80
4	0	0	1968	1840	3816	79
5	0	0	1984	1840	3816	80
6	0	0	1998	1841	3817	81
7	0	0	2004	1839	3815	80
8	0	0	2027	1840	3816	80
9	0	0	2067	1841	3817	80
10	0	0	2093	1838	3816	80
11	0	0	2089	1840	3816	80
12	0	0	2076	1839	3815	80
13	0	0	2049	1838	3815	81
14	0	0	2022	1838	3815	79
15	0	0	2001	1839	3815	80
16	0	0	1986	1839	3816	80
17	0	0	1975	1840	3815	77
18	0	0	1973	1841	3814	80
19	0	0	1959	1838	3816	80
20	0	0	1955	1840	3816	80
21	0	0	1953	1842	3815	79
22	0	0	1973	1840	3815	80
23	0	0	1997	1839	3815	79
24	0	0	2016	1840	3815	79
25	0	0	2037	1840	3815	81
26	0	0	2067	1842	3816	84
27	0	0	2076	1840	3816	80
28	0	0	2080	1839	3815	80
29	0	0	2104	1840	3816	80
30	0	0	2119	1840	3815	77
31	0	0	2106	1840	3815	80
32	0	0	2083	1839	3815	81
33	0	0	2051	1839	3816	80
34	0	0	2026	1840	3815	79
35	0	0	2003	1836	3815	79
36	0	0	1985	1840	3816	78
37	0	0	1968	1839	3816	79
38	0	0	1955	1840	3814	79
39	0	0	1941	1839	3816	76
40	0	0	1933	1842	3815	77
41	0	0	1950	1842	3816	81
42	0	0	1971	1841	3816	80
43	0	0	1995	1841	3816	80
44	0	0	2020	1841	3815	80
45	0	0	2044	1841	3815	77
46	0	0	2072	1841	3816	79
47	0	0	2091	1842	3817	80
48	0	0	2101	1841	3815	80
49	0	0	2133	1843	3815	80
50	0	0	2141	1841	3815	80
51	0	0	2119	1841	3819	80
52	0	0	2091	1840	3819	79
53	0	0	2054	1839	3814	79
54	0	0	2021	1840	3816	76
55	0	0	1995	1839	3815	77
56	0	0	1975	1840	3817	79
57	0	0	1958	1841	3816	82
58	0	0	1956	1842	3815	80
59	0	0	1941	1841	3817	77
60	0	0	1933	1843	3816	80
61	0	0	1956	1844	3815	82
62	0	0	1994	1842	3815	80
63	0	0	2034	1842	3815	80
64	0	0	2070	1843	3816	80
65	0	0	2132	1843	3815	79
66	0	0	2170	1843	3816	80
67	0	0	2190	1843	3816	80
68	0	0	2196	1843	3815	80
69	0	0	2231	1843	3815	81
70	0	0	2238	1842	3813	79
71	0	0	2209	1841	3816	83
72	0	0	2167	1840	3815	81
73	0	0	2110	1840	3815	80
74	0	0	2046	1840	3816	80
75	0	0	1995	1841	3816	80
76	0	0	1965	1841	3816	80
77	0	0	1942	1841	3816	83
78	0	0	1935	1843	3815	79
79	0	0	1909	1840	3816	80
80	0	0	1910	1844	3816	80
81	0	0	1954	1844	3815	79
82	0	0	2009	1844	3816	79
83	0	0	2055	1844	3815	80
84	0	0	2112	1843	3815	80
85	0	0	2162	1844	3813	79
86	0	0	2210	1844	3816	84
87	0	0	2240	1843	3815	81
88	0	0	2250	1844	3815	80
89	0	0	2304	1843	3815	80
90	0	0	2319	1842	3816	81
91	0	0	2272	1841	3816	79
92	0	0	2207	1839	3816	81
93	0	0	2136	1840	3813	80
94	0	0	2053	1841	3816	80
95	0	0	1987	1840	3816	80
96	0	0	1943	1841	3817	79
97	0	0	1914	1841	3815	79
98	0	0	1899	1843	3816	80
99	0	0	1864	1842	3815	80
100	0	0	1836	1845	3812	79
101	0	0	1887	1845	3815	79
102	0	0	1965	1844	3815	82
103	0	0	2044	1844	3816	81
104	0	0	2122	1844	3816	79
105	0	0	2260	1842	3816	79
106	0	0	2354	1845	3817	79
107	0	0	2418	1845	3815	79
108	0	0	2460	1845	3816	79
109	0	0	2573	1846	3816	80
110	0	0	2614	1842	3816	80
111	0	0	2510	1842	3817	80
112	0	0	2373	1840	3815	83
113	0	0	2207	1838	3815	79
114	0	0	2032	1840	3816	79
115	0	0	1904	1841	3816	80
116	0	0	1829	1840	3815	80
117	0	0	1781	1842	3815	83
118	0	0	1761	1843	3815	79
119	0	0	1712	1842	3815	80
120	0	0	1717	1843	3813	79
121	0	0	1812	1846	3816	80
122	0	0	1932	1845	3815	79
123	0	0	2044	1847	3815	79
124	0	0	2157	1848	3816	80
125	0	0	2267	1846	3816	84
126	0	0	2357	1846	3816	81
127	0	0	2410	1846	3816	79
0	0	0	2430	1848	3817	80
1	0	0	2521	1847	3815	79
2	0	0	2543	1840	3815	80
3	0	0	2444	1842	3816	79
4	0	0	2318	1842	3811	84
5	0	0	2151	1839	3815	79
6	0	0	1971	1840	3814	79
7	0	0	1830	1842	3816	79
8	0	0	1761	1843	3816	80
9	0	0	1748	1845	3815	79
10	0	0	1741	1844	3815	80
11	0	0	1685	1843	3815	80
12	0	0	1637	1846	3816	84
13	0	0	1730	1846	3817	80
14	0	0	1870	1847	3817	79
15	0	0	2126	1846	3817	80
16	0	0	2330	1846	3815	80
17	0	0	2415	1847	3816	79
18	0	0	2451	1846	3816	81
19	0	0	2489	1848	3815	81
20	0	0	2516	1848	3816	79
21	0	0	2593	1847	3815	79
22	0	0	2616	1846	3815	79
23	0	0	2528	1842	3815	80
24	0	0	2388	1842	3815	78
25	0	0	2227	1842	3814	81
26	0	0	2063	1842	3815	79
27	0	0	1937	1840	3815	79
28	0	0	1844	1843	3816	80
29	0	0	1795	1841	3817	79
30	0	0	1738	1842	3815	80
31	0	0	1680	1842	3815	81
32	0	0	1703	1848	3816	80
33	0	0	1812	1849	3815	81
34	0	0	1909	1847	3815	80
35	0	0	2057	1848	3815	79
36	0	0	2215	1850	3815	80
37	0	0	2328	1847	3816	80
38	0	0	2400	1848	3817	79
39	0	0	2443	1848	3815	80
40	0	0	2459	1848	3816	80
41	0	0	2531	1847	3814	79
42	0	0	2536	1843	3815	79
43	0	0	2410	1843	3816	80
44	0	0	2268	1843	3815	80
45	0	0	2095	1843	3814	80
46	0	0	1939	1845	3816	80
47	0	0	1849	1842	3815	81
48	0	0	1821	1846	3818	81
49	0	0	1832	1849	3815	80
50	0	0	1854	1848	3816	79
51	0	0	1804	1844	3814	79
52	0	0	1806	1845	3815	79
53	0	0	1872	1848	3815	80
54	0	0	1943	1848	3814	80
55	0	0	2003	1848	3815	79
56	0	0	2100	1850	3815	80
57	0	0	2156	1847	3815	80
58	0	0	2198	1849	3815	80
59	0	0	2223	1849	3815	76
60	0	0	2228	1848	3814	77
61	0	0	2261	1848	3815	80
62	0	0	2259	1844	3815	79
63	0	0	2191	1844	3816	80
64	0	0	2119	1845	3815	80
65	0	0	2037	1845	3817	79
66	0	0	1964	1846	3815	79
67	0	0	1913	1846	3816	80
68	0	0	1891	1848	3816	80
69	0	0	1885	1849	3813	81
70	0	0	1888	1849	3816	80
71	0	0	1875	1849	3813	80
72	0	0	1886	1849	3815	80
73	0	0	1917	1850	3817	80
74	0	0	1955	1849	3815	80
75	0	0	1992	1849	3816	79
76	0	0	2026	1850	3814	79
77	0	0	2057	1849	3816	79
78	0	0	2079	1849	3816	80
79	0	0	2086	1849	3816	80
80	0	0	2090	1849	3816	79
81	0	0	2115	1850	3815	77
82	0	0	2106	1845	3815	80
83	0	0	2090	1849	3816	80
84	0	0	2079	1850	3815	80
85	0	0	2049	1848	3815	80
86	0	0	2010	1847	3816	79
87	0	0	1984	1845	3815	79
88	0	0	1971	1849	3816	80
89	0	0	1961	1850	3815	80
90	0	0	1950	1848	3814	79
91	0	0	1923	1848	3816	81
92	0	0	1932	1849	3816	80
93	0	0	1965	1850	3816	79
94	0	0	1994	1850	3821	81
95	0	0	2033	1849	3815	80
96	0	0	2068	1851	3815	78
97	0	0	2093	1851	3817	80
98	0	0	2110	1850	3815	80
99	0	0	2125	1850	3816	80
100	0	0	2134	1850	3817	80
101	0	0	2157	1851	3815	80
102	0	0	2152	1850	3815	79
103	0	0	2121	1848	3815	79
104	0	0	2091	1848	3815	80
105	0	0	2056	1849	3816	77
106	0	0	2019	1849	3815	77
107	0	0	1996	1846	3816	80
108	0	0	1977	1848	3816	82
109	0	0	1961	1850	3815	79
110	0	0	1953	1852	3815	80
111	0	0	1948	1851	3815	78
112	0	0	1957	1851	3816	80
113	0	0	1973	1851	3816	79
114	0	0	1990	1851	3816	80
115	0	0	2011	1850	3815	80
116	0	0	2035	1851	3819	80
117	0	0	2064	1851	3816	80
118	0	0	2085	1852	3816	80
119	0	0	2104	1852	3815	79
120	0	0	2114	1851	3816	80
121	0	0	2131	1852	3815	79
122	0	0	2137	1852	3815	79
123	0	0	2120	1852	3815	79
124	0	0	2101	1850	3815	81
125	0	0	2078	1850	3815	80
126	0	0	2055	1850	3816	80
127	0	0	2031	1850	3816	79
0	0	0	2012	1850	3816	80
1	0	0	1997	1851	3815	79
2	0	0	1985	1852	3817	79
3	0	0	1979	1852	3814	80
4	0	0	1983	1852	3816	79
5	0	0	1999	1853	3816	80
6	0	0	2004	1852	3815	79
7	0	0	2033	1852	3816	77
8	0	0	2049	1853	3816	80
9	0	0	2066	1852	3816	80
10	0	0	2080	1852	3816	81
11	0	0	2092	1853	3815	79
12	0	0	2091	1854	3815	79
13	0	0	2107	1854	3815	80
14	0	0	2118	1851	3817	79
15	0	0	2106	1853	3815	79
16	0	0	2090	1852	3815	79
17	0	0	2061	1851	3815	80
18	0	0	2035	1850	3816	80
19	0	0	2013	1852	3817	79
20	0	0	1996	1852	3815	79
21	0	0	1983	1851	3815	79
22	0	0	1975	1856	3817	80
23	0	0	1964	1853	3814	77
24	0	0	1963	1853	3815	79
25	0	0	1974	1853	3815	79
26	0	0	1987	1853	3814	79
27	0	0	2004	1854	3815	80
28	0	0	2026	1853	3816	84
29	0	0	2046	1852	3817	79
30	0	0	2061	1853	3815	79
31	0	0	2073	1854	3816	79
32	0	0	2077	1854	3815	80
33	0	0	2091	1854	3815	80
34	0	0	2099	1854	3815	80
35	0	0	2089	1853	3818	79
36	0	0	2072	1853	3815	77
37	0	0	2047	1852	3816	79
38	0	0	2026	1852	3816	84
39	0	0	2004	1852	3816	82
40	0	0	1982	1852	3816	79
41	0	0	1965	1851	3815	79
42	0	0	1949	1854	3815	79
43	0	0	1945	1854	3815	80
44	0	0	1953	1853	3816	79
45	0	0	1975	1854	3814	79
46	0	0	2001	1854	3815	79
47	0	0	2025	1854	3815	79
48	0	0	2050	1854	3815	80
49	0	0	2065	1852	3817	79
50	0	0	2075	1855	3816	80
51	0	0	2089	1855	3816	79
52	0	0	2096	1853	3815	80
53	0	0	2107	1854	3816	79
54	0	0	2109	1855	3815	79
55	0	0	2099	1855	3817	79
56	0	0	2080	1853	3815	75
57	0	0	2067	1855	3814	79
58	0	0	2057	1855	3816	80
59	0	0	2042	1852	3816	79
60	0	0	2024	1852	3816	79
61	0	0	2014	1855	3816	79
62	0	0	2005	1853	3814	79
63	0	0	1986	1852	3815	79
64	0	0	1981	1855	3815	79
65	0	0	1986	1856	3815	80
66	0	0	2004	1854	3815	77
67	0	0	2026	1856	3815	80
68	0	0	2048	1855	3815	79
69	0	0	2059	1855	3815	79
70	0	0	2070	1855	3817	79
71	0	0	2071	1855	3815	79
72	0	0	2068	1855	3815	79
73	0	0	2074	1856	3815	81
74	0	0	2078	1855	3814	79
75	0	0	2076	1856	3816	79
76	0	0	2067	1855	3815	80
77	0	0	2053	1857	3814	80
78	0	0	2040	1855	3816	82
79	0	0	2023	1853	3816	83
80	0	0	2014	1855	3816	80
81	0	0	1999	1854	3815	75
82	0	0	1994	1855	3815	80
83	0	0	1990	1856	3816	79
84	0	0	1985	1854	3815	79
85	0	0	1991	1855	3816	79
86	0	0	2012	1856	3816	80
87	0	0	2020	1856	3816	80
88	0	0	2027	1856	3817	79
89	0	0	2040	1856	3816	80
90	0	0	2050	1855	3816	81
91	0	0	2057	1856	3815	80
92	0	0	2062	1858	3815	81
93	0	0	2071	1856	3815	80
94	0	0	2078	1857	3813	80
95	0	0	2077	1857	3817	79
96	0	0	2068	1856	3815	78
97	0	0	2057	1857	3816	80
98	0	0	2037	1855	3815	80
99	0	0	2026	1857	3813	80
100	0	0	2015	1855	3816	79
101	0	0	2005	1856	3814	75
102	0	0	1998	1857	3817	79
103	0	0	1991	1855	3815	79
104	0	0	1990	1857	3815	79
105	0	0	1996	1856	3816	80
106	0	0	2007	1857	3815	80
107	0	0	2017	1856	3815	80
108	0	0	2026	1855	3817	79
109	0	0	2040	1857	3815	80
110	0	0	2055	1855	3816	79
111	0	0	2066	1858	3815	80
112	0	0	2073	1857	3815	80
113	0	0	2081	1856	3816	80
114	0	0	2088	1858	3814	80
115	0	0	2078	1858	3814	80
116	0	0	2073	1856	3815	80
117	0	0	2055	1856	3814	80
118	0	0	2042	1857	3816	80
119	0	0	2031	1857	3816	79
120	0	0	2024	1856	3816	80
121	0	0	2010	1857	3816	80
122	0	0	2009	1857	3815	79
123	0	0	2002	1857	3816	80
124	0	0	2002	1859	3817	80
125	0	0	2012	1856	3814	81
126	0	0	2027	1858	3814	80
127	0	0	2031	1857	3815	80
0	0	0	2046	1858	3816	80
1	0	0	2059	1858	3814	80
2	0	0	2067	1857	3816	80
3	0	0	2079	1857	3815	80
4	0	0	2089	1858	3813	79
5	0	0	2100	1858	3815	80
6	0	0	2104	1858	3816	80
7	0	0	2093	1857	3816	80
8	0	0	2081	1858	3817	81
9	0	0	2059	1854	3815	79
10	0	0	2026	1855	3816	78
11	0	0	2003	1858	3818	80
12	0	0	1990	1856	3817	80
13	0	0	1987	1859	3817	80
14	0	0	1980	1857	3815	80
15	0	0	1973	1858	3815	79
16	0	0	1971	1859	3816	80
17	0	0	1981	1857	3815	80
18	0	0	1994	1859	3816	79
19	0	0	2007	1855	3815	79
20	0	0	2022	1856	3815	80
21	0	0	2037	1859	3814	80
22	0	0	2051	1860	3816	80
23	0	0	2067	1858	3816	82
24	0	0	2078	1859	3816	80
25	0	0	2094	1858	3816	80
26	0	0	2106	1859	3816	80
27	0	0	2104	1859	3815	79
28	0	0	2092	1858	3815	80
29	0	0	2072	1857	3815	79
30	0	0	2053	1858	3815	80
31	0	0	2030	1857	3814	80
32	0	0	2006	1857	3815	80
33	0	0	1993	1858	3815	81
34	0	0	1985	1859	3816	80
35	0	0	1971	1858	3818	81
36	0	0	1956	1858	3815	82
37	0	0	1974	1862	3816	80
38	0	0	1985	1859	3815	80
39	0	0	1999	1860	3817	79
40	0	0	2016	1859	3815	80
41	0	0	2040	1859	3815	80
42	0	0	2068	1859	3817	81
43	0	0	2090	1860	3815	80
44	0	0	2101	1859	3815	80
45	0	0	2121	1859	3815	80
46	0	0	2132	1860	3815	79
47	0	0	2124	1862	3816	80
48	0	0	2109	1859	3815	80
49	0	0	2089	1857	3815	80
50	0	0	2071	1859	3815	80
51	0	0	2053	1860	3816	80
52	0	0	2033	1854	3815	79
53	0	0	2025	1860	3817	80
54	0	0	2018	1860	3815	80
55	0	0	2006	1859	3815	77
56	0	0	1998	1860	3815	80
57	0	0	2001	1863	3816	80
58	0	0	2007	1860	3815	80
59	0	0	2026	1855	3815	79
60	0	0	2044	1862	3815	80
61	0	0	2066	1860	3817	80
62	0	0	2091	1861	3817	80
63	0	0	2103	1860	3815	81
64	0	0	2112	1860	3816	81
65	0	0	2121	1860	3815	80
66	0	0	2124	1861	3815	80
67	0	0	2118	1863	3815	79
68	0	0	2108	1861	3816	80
69	0	0	2090	1857	3815	80
70	0	0	2067	1860	3815	80
71	0	0	2043	1858	3817	84
72	0	0	2015	1862	3816	80
73	0	0	2009	1860	3814	82
74	0	0	2006	1861	3816	80
75	0	0	1995	1862	3815	81
76	0	0	1994	1862	3815	80
77	0	0	2005	1861	3816	79
78	0	0	2019	1861	3815	79
79	0	0	2032	1861	3815	80
80	0	0	2052	1862	3815	80
81	0	0	2070	1862	3816	79
82	0	0	2087	1865	3816	79
83	0	0	2102	1861	3816	80
84	0	0	2112	1861	3815	81
85	0	0	2125	1863	3815	80
86	0	0	2130	1861	3816	82
87	0	0	2125	1860	3816	79
88	0	0	2112	1861	3815	80
89	0	0	2093	1858	3815	80
90	0	0	2073	1861	3815	80
91	0	0	2057	1860	3818	83
92	0	0	2036	1864	3816	80
93	0	0	2025	1862	3816	80
94	0	0	2016	1862	3815	80
95	0	0	2001	1862	3815	79
96	0	0	1997	1861	3817	79
97	0	0	2008	1861	3816	80
98	0	0	2018	1862	3815	80
99	0	0	2033	1862	3816	80
100	0	0	2050	1863	3815	79
101	0	0	2062	1862	3817	83
102	0	0	2077	1863	3816	80
103	0	0	2087	1862	3815	80
104	0	0	2093	1862	3816	84
105	0	0	2109	1864	3816	82
106	0	0	2118	1863	3816	79
107	0	0	2114	1862	3816	80
108	0	0	2103	1862	3815	80
109	0	0	2086	1860	3816	80
110	0	0	2067	1862	3816	82
111	0	0	2046	1861	3816	79
112	0	0	2028	1862	3816	80
113	0	0	2020	1862	3815	80
114	0	0	2014	1863	3815	80
115	0	0	1994	1860	3815	79
116	0	0	2003	1863	3815	80
117	0	0	2018	1865	3816	80
118	0	0	2024	1863	3816	80
119	0	0	2033	1862	3815	79
120	0	0	2048	1864	3815	80
121	0	0	2063	1862	3817	81
122	0	0	2074	1862	3816	79
123	0	0	2085	1862	3815	80
124	0	0	2092	1863	3816	80
125	0	0	2113	1863	3815	80
126	0	0	2122	1863	3818	81
127	0	0	2117	1863	3817	81
0	0	0	2104	1862	3815	80
1	0	0	2088	1863	3816	80
2	0	0	2066	1863	3818	81
3	0	0	2056	1863	3816	80
4	0	0	2041	1862	3816	80
5	0	0	2029	1863	3815	79
6	0	0	2015	1863	3815	80
7	0	0	2008	1863	3815	79
8	0	0	2007	1864	3816	81
9	0	0	2012	1863	3816	79
10	0	0	2021	1863	3815	79
11	0	0	2038	1863	3815	80
12	0	0	2052	1864	3815	80
13	0	0	2069	1863	3816	80
14	0	0	2081	1864	3818	80
15	0	0	2090	1864	3816	80
16	0	0	2096	1864	3816	80
17	0	0	2108	1864	3814	80
18	0	0	2116	1864	3816	81
19	0	0	2112	1864	3815	80
20	0	0	2099	1864	3815	80
21	0	0	2079	1862	3815	80
22	0	0	2056	1862	3815	81
23	0	0	2033	1863	3816	79
24	0	0	2024	1864	3814	80
25	0	0	2025	1865	3817	79
26	0	0	2024	1863	3817	80
27	0	0	2019	1864	3815	80
28	0	0	2019	1865	3815	79
29	0	0	2019	1867	3814	80
30	0	0	2029	1865	3817	80
31	0	0	2042	1864	3816	80
32	0	0	2053	1862	3816	80
33	0	0	2064	1864	3817	81
34	0	0	2079	1864	3815	80
35	0	0	2087	1864	3816	79
36	0	0	2096	1865	3816	80
37	0	0	2109	1865	3816	78
38	0	0	2116	1865	3816	81
39	0	0	2111	1866	3815	80
40	0	0	2102	1865	3815	79
41	0	0	2082	1863	3817	81
42	0	0	2062	1862	3815	80
43	0	0	2045	1864	3816	79
44	0	0	2032	1865	3816	79
45	0	0	2023	1865	3816	80
46	0	0	2021	1865	3816	79
47	0	0	2014	1866	3816	79
48	0	0	2008	1865	3818	80
49	0	0	2017	1865	3816	80
50	0	0	2026	1865	3816	79
51	0	0	2033	1864	3815	80
52	0	0	2046	1866	3815	80
53	0	0	2053	1865	3816	80
54	0	0	2059	1865	3815	79
55	0	0	2074	1866	3817	80
56	0	0	2087	1865	3814	80
57	0	0	2109	1864	3815	80
58	0	0	2115	1866	3814	80
59	0	0	2108	1865	3816	80
60	0	0	2097	1866	3813	80
61	0	0	2079	1864	3815	82
62	0	0	2054	1862	3816	81
63	0	0	2034	1865	3815	77
64	0	0	2025	1865	3818	81
65	0	0	2021	1866	3816	80
66	0	0	2010	1864	3815	80
67	0	0	2012	1865	3816	81
68	0	0	2006	1866	3814	80
69	0	0	2011	1866	3815	79
70	0	0	2020	1866	3815	80
71	0	0	2034	1866	3815	80
72	0	0	2049	1866	3816	81
73	0	0	2069	1866	3814	80
74	0	0	2081	1866	3815	80
75	0	0	2093	1866	3818	80
76	0	0	2102	1866	3815	80
77	0	0	2111	1865	3816	81
78	0	0	2117	1868	3815	77
79	0	0	2113	1867	3816	80
80	0	0	2103	1866	3814	82
81	0	0	2082	1865	3818	80
82	0	0	2065	1865	3816	79
83	0	0	2048	1866	3818	81
84	0	0	2040	1867	3816	80
85	0	0	2030	1866	3815	82
86	0	0	2020	1866	3816	80
87	0	0	2010	1867	3815	80
88	0	0	2005	1867	3816	81
89	0	0	2016	1867	3816	79
90	0	0	2026	1867	3815	76
91	0	0	2039	1866	3817	80
92	0	0	2054	1867	3816	79
93	0	0	2065	1867	3818	81
94	0	0	2081	1867	3817	80
95	0	0	2095	1867	3816	80
96	0	0	2098	1868	3816	80
97	0	0	2112	1868	3815	80
98	0	0	2116	1867	3818	81
99	0	0	2110	1868	3817	80
100	0	0	2096	1867	3815	79
101	0	0	2080	1866	3816	79
102	0	0	2055	1866	3815	80
103	0	0	2038	1866	3815	81
104	0	0	2022	1866	3815	79
105	0	0	2014	1867	3815	79
106	0	0	2007	1868	3816	79
107	0	0	2004	1867	3815	79
108	0	0	2002	1868	3814	80
109	0	0	2010	1866	3815	80
110	0	0	2024	1867	3815	79
111	0	0	2035	1868	3815	81
112	0	0	2049	1868	3816	80
113	0	0	2068	1869	3817	80
114	0	0	2083	1867	3816	79
115	0	0	2092	1868	3816	80
116	0	0	2095	1869	3815	80
117	0	0	2110	1867	3816	79
118	0	0	2112	1869	3816	80
119	0	0	2104	1867	3815	80
120	0	0	2094	1868	3815	80
121	0	0	2069	1867	3815	80
122	0	0	2049	1866	3815	80
123	0	0	2033	1868	3815	80
124	0	0	2023	1868	3813	80
125	0	0	2012	1867	3815	79
126	0	0	1998	1868	3816	80
127	0	0	1984	1867	3816	78
0	0	0	1979	1868	3815	80
1	0	0	1992	1868	3817	80
2	0	0	2007	1868	3816	80
3	0	0	2024	1869	3816	80
4	0	0	2040	1869	3816	79
5	0	0	2059	1868	3815	80
6	0	0	2075	1869	3817	80
7	0	0	2092	1868	3815	80
8	0	0	2103	1868	3815	81
9	0	0	2120	1869	3815	79
10	0	0	2132	1869	3816	80
11	0	0	2122	1867	3815	79
12	0	0	2109	1868	3815	80
13	0	0	2082	1865	3815	80
14	0	0	2048	1867	3814	79
15	0	0	2029	1867	3816	80
16	0	0	2012	1867	3816	80
17	0	0	1997	1867	3816	79
18	0	0	2003	1871	3815	80
19	0	0	2000	1868	3816	79
20	0	0	1994	1869	3816	80
21	0	0	2002	1869	3817	80
22	0	0	2017	1868	3815	80
23	0	0	2031	1870	3814	79
24	0	0	2046	1870	3814	79
25	0	0	2068	1869	3815	81
26	0	0	2082	1869	3816	80
27	0	0	2099	1869	3815	79
28	0	0	2110	1869	3815	80
29	0	0	2131	1871	3815	80
30	0	0	2133	1869	3815	80
31	0	0	2121	1868	3816	80
32	0	0	2103	1868	3815	81
33	0	0	2079	1868	3818	80
34	0	0	2057	1871	3817	83
35	0	0	2035	1868	3815	80
36	0	0	2022	1869	3817	79
37	0	0	2009	1869	3815	79
38	0	0	2004	1871	3816	80
39	0	0	1997	1870	3818	81
40	0	0	1988	1869	3814	80
41	0	0	1996	1871	3816	79
42	0	0	2009	1869	3815	80
43	0	0	2027	1869	3818	80
44	0	0	2046	1870	3817	76
45	0	0	2066	1869	3815	80
46	0	0	2091	1870	3816	80
47	0	0	2100	1870	3815	80
48	0	0	2108	1869	3815	79
49	0	0	2127	1870	3815	80
50	0	0	2128	1870	3816	81
51	0	0	2116	1870	3817	80
52	0	0	2101	1869	3816	79
53	0	0	2071	1867	3816	81
54	0	0	2050	1870	3815	80
55	0	0	2029	1870	3816	79
56	0	0	2012	1868	3817	80
57	0	0	2002	1871	3816	79
58	0	0	2005	1870	3816	79
59	0	0	1987	1868	3815	79
60	0	0	1979	1871	3817	80
61	0	0	1987	1867	3816	81
62	0	0	2004	1870	3815	80
63	0	0	2024	1870	3815	80
64	0	0	2049	1871	3815	80
65	0	0	2068	1870	3814	81
66	0	0	2079	1870	3817	79
67	0	0	2092	1871	3815	79
68	0	0	2105	1871	3815	80
69	0	0	2125	1872	3815	80
70	0	0	2136	1871	3816	81
71	0	0	2122	1870	3817	80
72	0	0	2104	1869	3816	80
73	0	0	2077	1869	3817	80
74	0	0	2054	1869	3816	79
75	0	0	2032	1869	3812	81
76	0	0	2009	1870	3816	80
77	0	0	1997	1870	3813	78
78	0	0	1988	1870	3817	79
79	0	0	1972	1869	3814	79
80	0	0	1967	1871	3816	79
81	0	0	1977	1870	3816	80
82	0	0	1996	1871	3815	80
83	0	0	2019	1871	3815	79
84	0	0	2040	1871	3816	77
85	0	0	2061	1872	3816	81
86	0	0	2078	1871	3819	79
87	0	0	2094	1871	3815	79
88	0	0	2106	1871	3815	79
89	0	0	2128	1871	3815	80
90	0	0	2138	1872	3816	80
91	0	0	2126	1867	3815	79
92	0	0	2100	1869	3815	79
93	0	0	2063	1869	3815	80
94	0	0	2039	1870	3815	78
95	0	0	2021	1870	3815	79
96	0	0	1999	1869	3816	80
97	0	0	1999	1871	3815	79
98	0	0	1993	1871	3816	80
99	0	0	1976	1870	3815	79
100	0	0	1971	1872	3816	81
101	0	0	1979	1872	3816	79
102	0	0	1997	1871	3816	79
103	0	0	2018	1871	3818	80
104	0	0	2044	1872	3815	77
105	0	0	2068	1871	3817	79
106	0	0	2090	1872	3817	80
107	0	0	2101	1872	3815	80
108	0	0	2113	1872	3815	80
109	0	0	2136	1872	3815	79
110	0	0	2151	1873	3816	79
111	0	0	2140	1871	3814	80
112	0	0	2122	1872	3816	80
113	0	0	2090	1870	3816	79
114	0	0	2053	1869	3815	80
115	0	0	2023	1870	3813	79
116	0	0	2002	1866	3817	80
117	0	0	1985	1870	3815	80
118	0	0	1979	1871	3816	81
119	0	0	1963	1870	3816	79
120	0	0	1960	1872	3816	80
121	0	0	1974	1872	3815	80
122	0	0	1990	1872	3814	80
123	0	0	2011	1871	3816	81
124	0	0	2039	1873	3815	79
125	0	0	2068	1873	3816	80
126	0	0	2095	1873	3816	80
127	0	0	2115	1872	3815	79
0	0	0	2124	1873	3814	79
1	0	0	2151	1873	3816	79
2	0	0	2164	1874	3816	80
3	0	0	2149	1870	3817	79
4	0	0	2115	1868	3814	79
5	0	0	2082	1870	3815	83
6	0	0	2051	1870	3817	79
7	0	0	2024	1871	3819	80
8	0	0	2002	1873	3816	80
9	0	0	1996	1872	3816	79
10	0	0	1982	1871	3815	80
11	0	0	1959	1871	3816	79
12	0	0	1954	1873	3816	79
13	0	0	1970	1873	3817	79
14	0	0	1994	1872	3815	79
15	0	0	2029	1873	3815	80
16	0	0	2063	1872	3816	79
17	0	0	2093	1873	3815	80
18	0	0	2118	1873	3814	80
19	0	0	2133	1873	3813	79
20	0	0	2141	1874	3815	80
21	0	0	2165	1873	3816	79
22	0	0	2176	1874	3817	80
23	0	0	2158	1872	3815	79
24	0	0	2131	1871	3815	79
25	0	0	2096	1872	3816	80
26	0	0	2065	1871	3816	79
27	0	0	2032	1871	3816	77
28	0	0	2012	1872	3817	80
29	0	0	1993	1871	3815	80
30	0	0	1984	1873	3814	79
31	0	0	1967	1872	3816	79
32	0	0	1962	1873	3815	78
33	0	0	1981	1875	3816	80
34	0	0	2006	1874	3815	80
35	0	0	2035	1876	3816	79
36	0	0	2066	1874	3816	80
37	0	0	2095	1873	3815	79
38	0	0	2121	1875	3817	80
39	0	0	2139	1874	3816	80
40	0	0	2151	1875	3816	80
41	0	0	2173	1875	3817	80
42	0	0	2182	1875	3816	78
43	0	0	2155	1872	3818	80
44	0	0	2113	1871	3815	80
45	0	0	2079	1873	3816	80
46	0	0	2042	1872	3815	80
47	0	0	2011	1872	3817	80
48	0	0	2004	1874	3815	80
49	0	0	1986	1872	3815	80
50	0	0	1972	1873	3815	80
51	0	0	1952	1873	3815	80
52	0	0	1953	1874	3818	80
53	0	0	1969	1875	3816	80
54	0	0	1996	1874	3816	80
55	0	0	2026	1874	3816	80
56	0	0	2053	1875	3816	80
57	0	0	2085	1876	3817	80
58	0	0	2110	1875	3818	80
59	0	0	2129	1875	3817	79
60	0	0	2138	1875	3815	80
61	0	0	2159	1875	3815	80
62	0	0	2174	1875	3816	77
63	0	0	2157	1874	3815	79
64	0	0	2131	1872	3815	80
65	0	0	2091	1873	3814	79
66	0	0	2046	1871	3816	79
67	0	0	2022	1872	3816	78
68	0	0	1996	1873	3817	81
69	0	0	1982	1874	3815	79
70	0	0	1973	1874	3815	80
71	0	0	1957	1874	3816	81
72	0	0	1960	1875	3816	78
73	0	0	1976	1874	3817	79
74	0	0	2002	1875	3816	79
75	0	0	2027	1875	3816	80
76	0	0	2058	1875	3818	80
77	0	0	2090	1875	3816	78
78	0	0	2116	1876	3817	79
79	0	0	2129	1875	3815	80
80	0	0	2140	1876	3812	79
81	0	0	2163	1876	3815	80
82	0	0	2176	1876	3816	80
83	0	0	2140	1873	3817	80
84	0	0	2113	1874	3815	77
85	0	0	2081	1875	3816	80
86	0	0	2048	1874	3816	80
87	0	0	2021	1876	3816	77
88	0	0	2011	1874	3816	80
89	0	0	1988	1873	3815	79
90	0	0	1974	1873	3815	79
91	0	0	1956	1874	3815	80
92	0	0	1957	1876	3815	80
93	0	0	1976	1876	3818	80
94	0	0	2001	1876	3817	79
95	0	0	2030	1877	3814	79
96	0	0	2057	1876	3816	80
97	0	0	2086	1876	3816	78
98	0	0	2109	1875	3816	80
99	0	0	2126	1876	3815	79
100	0	0	2139	1876	3815	80
101	0	0	2162	1877	3816	79
102	0	0	2167	1876	3816	78
103	0	0	2147	1875	3817	80
104	0	0	2123	1873	3815	80
105	0	0	2089	1874	3817	80
106	0	0	2048	1873	3816	81
107	0	0	2018	1874	3815	80
108	0	0	1993	1874	3817	80
109	0	0	1976	1875	3815	80
110	0	0	1968	1875	3815	79
111	0	0	1959	1875	3816	80
112	0	0	1961	1877	3816	80
113	0	0	1981	1876	3817	79
114	0	0	2004	1876	3815	80
115	0	0	2030	1877	3815	80
116	0	0	2059	1876	3816	82
117	0	0	2088	1876	3816	78
118	0	0	2111	1877	3817	80
119	0	0	2130	1876	3815	80
120	0	0	2142	1877	3815	80
121	0	0	2171	1877	3816	81
122	0	0	2175	1875	3815	80
123	0	0	2144	1874	3816	80
124	0	0	2113	1873	3816	80
125	0	0	2075	1873	3816	80
126	0	0	2038	1873	3818	80
127	0	0	2024	1877	3816	79
0	0	0	2006	1875	3819	79
1	0	0	1988	1875	3816	79
2	0	0	1978	1876	3816	79
3	0	0	1953	1875	3815	79
4	0	0	1956	1878	3816	80
5	0	0	1977	1880	3818	79
6	0	0	2003	1875	3815	80
7	0	0	2035	1878	3815	80
8	0	0	2065	1877	3815	80
9	0	0	2092	1877	3816	79
10	0	0	2112	1877	3817	80
11	0	0	2130	1876	3816	81
12	0	0	2139	1877	3816	80
13	0	0	2168	1878	3815	80
14	0	0	2173	1878	3816	79
15	0	0	2148	1876	3817	79
16	0	0	2122	1875	3815	79
17	0	0	2086	1874	3816	78
18	0	0	2049	1874	3816	80
19	0	0	2015	1875	3814	79
20	0	0	1989	1877	3818	82
21	0	0	1974	1877	3813	79
22	0	0	1968	1878	3814	79
23	0	0	1952	1875	3815	79
24	0	0	1957	1878	3816	54
25	0	0	1976	1877	3814	81
26	0	0	2003	1877	3815	79
27	0	0	2028	1877	3817	79
28	0	0	2059	1877	3814	81
29	0	0	2085	1878	3816	79
30	0	0	2110	1878	3818	80
31	0	0	2130	1878	3816	80
32	0	0	2143	1878	3816	79
33	0	0	2170	1878	3816	84
34	0	0	2165	1877	3815	79
35	0	0	2142	1876	3816	80
36	0	0	2116	1876	3815	79
37	0	0	2083	1875	3815	79
38	0	0	2049	1877	3816	83
39	0	0	2031	1875	3816	79
40	0	0	2002	1875	3816	80
41	0	0	1980	1876	3815	79
42	0	0	1967	1876	3816	79
43	0	0	1948	1876	3815	79
44	0	0	1953	1879	3815	79
45	0	0	1973	1877	3813	80
46	0	0	2001	1877	3815	80
47	0	0	2030	1879	3816	80
48	0	0	2060	1879	3816	79
49	0	0	2090	1879	3817	80
50	0	0	2114	1879	3816	81
51	0	0	2133	1878	3817	79
52	0	0	2146	1876	3818	80
53	0	0	2170	1880	3814	79
54	0	0	2178	1878	3815	79
55	0	0	2150	1876	3815	79
56	0	0	2120	1876	3815	80
57	0	0	2082	1876	3815	80
58	0	0	2044	1875	3812	79
59	0	0	2013	1877	3816	77
60	0	0	1989	1877	3812	80
61	0	0	1975	1877	3811	80
62	0	0	1969	1879	3816	80
63	0	0	1953	1876	3815	81
64	0	0	1952	1879	3816	78
65	0	0	1973	1879	3817	79
66	0	0	2000	1879	3815	79
67	0	0	2029	1879	3816	80
68	0	0	2057	1879	3816	83
69	0	0	2082	1878	3815	77
70	0	0	2114	1878	3813	79
71	0	0	2132	1879	3815	80
72	0	0	2144	1879	3816	80
73	0	0	2169	1879	3814	79
74	0	0	2167	1879	3816	79
75	0	0	2149	1877	3815	79
76	0	0	2127	1877	3815	79
77	0	0	2087	1876	3819	83
78	0	0	2054	1877	3816	79
79	0	0	2021	1876	3815	80
80	0	0	1992	1876	3814	80
81	0	0	1974	1878	3816	80
82	0	0	1966	1878	3816	80
83	0	0	1950	1878	3815	79
84	0	0	1954	1879	3815	79
85	0	0	1978	1879	3815	79
86	0	0	2007	1878	3814	79
87	0	0	2039	1878	3817	81
88	0	0	2070	1881	3815	79
89	0	0	2091	1880	3815	80
90	0	0	2111	1879	3815	79
91	0	0	2131	1880	3815	80
92	0	0	2141	1880	3816	81
93	0	0	2162	1879	3816	80
94	0	0	2172	1880	3815	77
95	0	0	2147	1876	3815	79
96	0	0	2119	1877	3815	80
97	0	0	2083	1877	3818	80
98	0	0	2045	1877	3817	79
99	0	0	2015	1876	3817	80
100	0	0	1996	1879	3816	80
101	0	0	1983	1879	3815	80
102	0	0	1976	1880	3816	79
103	0	0	1958	1878	3816	79
104	0	0	1954	1880	3815	80
105	0	0	1977	1879	3814	79
106	0	0	2005	1880	3816	80
107	0	0	2034	1880	3815	79
108	0	0	2060	1880	3814	79
109	0	0	2087	1879	3816	80
110	0	0	2114	1880	3815	80
111	0	0	2129	1879	3815	80
112	0	0	2137	1879	3818	80
113	0	0	2147	1880	3818	82
114	0	0	2153	1880	3816	80
115	0	0	2141	1879	3816	80
116	0	0	2118	1878	3815	80
117	0	0	2077	1878	3815	80
118	0	0	2054	1877	3815	79
119	0	0	2024	1878	3816	79
120	0	0	1992	1877	3815	79
121	0	0	1969	1878	3815	80
122	0	0	1958	1879	3816	79
123	0	0	1943	1879	3816	80
124	0	0	1950	1880	3816	80
125	0	0	1971	1880	3815	79
126	0	0	2001	1877	3815	80
127	0	0	2030	1880	3817	80
0	0	0	2061	1880	3817	84
1	0	0	2088	1880	3816	80
2	0	0	2113	1881	3817	80
3	0	0	2129	1880	3816	80
4	0	0	2137	1880	3817	81
5	0	0	2161	1881	3816	80
6	0	0	2172	1881	3816	80
7	0	0	2150	1879	3815	79
8	0	0	2124	1878	3815	79
9	0	0	2086	1878	3814	81
10	0	0	2048	1878	3817	80
11	0	0	2014	1878	3816	82
12	0	0	1990	1878	3815	79
13	0	0	1975	1878	3815	80
14	0	0	1968	1880	3816	80
15	0	0	1947	1878	3816	80
16	0	0	1947	1881	3815	80
17	0	0	1971	1881	3817	80
18	0	0	1997	1881	3816	80
19	0	0	2028	1881	3815	79
20	0	0	2058	1882	3815	80
21	0	0	2082	1881	3815	80
22	0	0	2108	1881	3814	79
23	0	0	2127	1882	3816	79
24	0	0	2140	1878	3817	80
25	0	0	2156	1883	3816	79
26	0	0	2169	1881	3816	82
27	0	0	2151	1878	3815	79
28	0	0	2120	1878	3811	79
29	0	0	2093	1879	3816	79
30	0	0	2058	1879	3817	79
31	0	0	2018	1878	3816	80
32	0	0	1986	1879	3815	79
33	0	0	1972	1880	3815	80
34	0	0	1962	1880	3815	79
35	0	0	1944	1881	3816	80
36	0	0	1952	1882	3816	80
37	0	0	1974	1880	3815	80
38	0	0	1999	1882	3816	80
39	0	0	2029	1883	3816	81
40	0	0	2059	1883	3816	80
41	0	0	2085	1882	3814	80
42	0	0	2109	1882	3814	79
43	0	0	2127	1882	3815	79
44	0	0	2137	1882	3816	79
45	0	0	2165	1881	3816	80
46	0	0	2174	1882	3815	83
47	0	0	2152	1879	3815	79
48	0	0	2124	1879	3815	79
49	0	0	2080	1878	3815	80
50	0	0	2037	1881	3816	81
51	0	0	2000	1879	3816	80
52	0	0	1983	1881	3816	79
53	0	0	1973	1882	3816	79
54	0	0	1964	1881	3815	79
55	0	0	1947	1879	3816	77
56	0	0	1954	1882	3817	79
57	0	0	1976	1882	3814	79
58	0	0	1999	1883	3816	79
59	0	0	2027	1878	3817	80
60	0	0	2055	1884	3815	79
61	0	0	2090	1882	3816	80
62	0	0	2118	1882	3815	79
63	0	0	2138	1883	3817	79
64	0	0	2138	1881	3815	80
65	0	0	2157	1884	3816	79
66	0	0	2169	1884	3817	80
67	0	0	2154	1882	3811	79
68	0	0	2118	1882	3816	80
69	0	0	2094	1877	3815	80
70	0	0	2052	1881	3816	80
71	0	0	2014	1880	3818	80
72	0	0	1988	1880	3814	79
73	0	0	1972	1880	3815	79
74	0	0	1966	1882	3815	79
75	0	0	1945	1881	3815	79
76	0	0	1948	1883	3815	79
77	0	0	1967	1883	3817	80
78	0	0	1997	1883	3815	79
79	0	0	2032	1883	3815	79
80	0	0	2058	1883	3816	81
81	0	0	2086	1883	3816	79
82	0	0	2107	1883	3816	79
83	0	0	2123	1883	3815	79
84	0	0	2137	1883	3815	79
85	0	0	2168	1884	3816	80
86	0	0	2181	1884	3817	79
87	0	0	2161	1881	3816	80
88	0	0	2131	1879	3815	79
89	0	0	2088	1880	3815	80
90	0	0	2044	1880	3816	80
91	0	0	2016	1881	3815	79
92	0	0	1983	1881	3816	79
93	0	0	1973	1882	3815	79
94	0	0	1966	1883	3815	77
95	0	0	1946	1882	3816	79
96	0	0	1949	1883	3815	79
97	0	0	1970	1883	3816	80
98	0	0	1993	1883	3815	80
99	0	0	2019	1883	3815	79
100	0	0	2049	1883	3816	80
101	0	0	2081	1883	3817	80
102	0	0	2106	1883	3816	80
103	0	0	2128	1883	3815	79
104	0	0	2126	1884	3815	80
105	0	0	2160	1884	3815	81
106	0	0	2172	1885	3815	79
107	0	0	2148	1881	3818	80
108	0	0	2130	1883	3815	80
109	0	0	2093	1880	3815	79
110	0	0	2045	1880	3816	84
111	0	0	2009	1881	3816	81
112	0	0	1984	1883	3816	80
113	0	0	1970	1882	3815	79
114	0	0	1960	1882	3815	80
115	0	0	1945	1883	3816	79
116	0	0	1949	1885	3819	80
117	0	0	1967	1884	3818	80
118	0	0	1995	1882	3815	80
119	0	0	2024	1884	3815	80
120	0	0	2054	1885	3816	80
121	0	0	2088	1884	3816	81
122	0	0	2111	1884	3816	80
123	0	0	2128	1884	3815	79
124	0	0	2139	1884	3812	79
125	0	0	2171	1886	3814	79
126	0	0	2181	1885	3815	79
127	0	0	2162	1881	3815	79
0	0	0	2125	1881	3815	79
1	0	0	2085	1881	3816	80
2	0	0	2045	1882	3817	80
3	0	0	2015	1880	3816	80
4	0	0	1989	1883	3817	79
5	0	0	1974	1883	3815	79
6	0	0	1961	1883	3816	79
7	0	0	1946	1883	3817	79
8	0	0	1946	1887	3816	81
9	0	0	1966	1885	3816	79
10	0	0	1994	1884	3815	80
11	0	0	2022	1884	3815	82
12	0	0	2053	1885	3816	79
13	0	0	2085	1883	3815	80
14	0	0	2113	1885	3816	79
15	0	0	2125	1885	3815	80
16	0	0	2135	1885	3815	79
17	0	0	2165	1883	3816	80
18	0	0	2173	1885	3815	79
19	0	0	2148	1883	3816	79
20	0	0	2135	1882	3816	80
21	0	0	2091	1882	3816	80
22	0	0	2044	1882	3816	80
23	0	0	2013	1882	3816	77
24	0	0	1990	1883	3819	79
25	0	0	1970	1883	3815	80
26	0	0	1955	1884	3816	79
27	0	0	1941	1882	3814	79
28	0	0	1943	1883	3815	79
29	0	0	1964	1885	3816	80
30	0	0	1995	1885	3815	79
31	0	0	2023	1886	3815	79
32	0	0	2050	1884	3815	79
33	0	0	2082	1884	3816	80
34	0	0	2112	1885	3815	79
35	0	0	2131	1885	3815	75
36	0	0	2143	1886	3815	80
37	0	0	2169	1884	3815	79
38	0	0	2175	1887	3816	77
39	0	0	2152	1883	3818	79
40	0	0	2120	1882	3816	81
41	0	0	2080	1883	3816	79
42	0	0	2040	1880	3816	80
43	0	0	2011	1883	3817	80
44	0	0	1988	1883	3823	82
45	0	0	1971	1884	3816	79
46	0	0	1962	1883	3815	79
47	0	0	1942	1881	3815	79
48	0	0	1944	1886	3815	79
49	0	0	1965	1885	3815	79
50	0	0	1994	1886	3816	79
51	0	0	2024	1884	3813	79
52	0	0	2054	1886	3816	81
53	0	0	2084	1886	3816	80
54	0	0	2105	1885	3816	80
55	0	0	2111	1886	3816	79
56	0	0	2122	1886	3813	79
57	0	0	2157	1885	3815	77
58	0	0	2171	1886	3814	79
59	0	0	2160	1886	3815	79
60	0	0	2135	1883	3815	79
61	0	0	2093	1883	3815	79
62	0	0	2054	1882	3815	79
63	0	0	2019	1882	3816	77
64	0	0	1993	1882	3815	80
65	0	0	1974	1884	3814	79
66	0	0	1963	1885	3815	79
67	0	0	1943	1884	3816	80
68	0	0	1940	1887	3815	79
69	0	0	1964	1886	3816	80
70	0	0	1992	1885	3815	80
71	0	0	2021	1886	3817	83
72	0	0	2058	1883	3815	80
73	0	0	2085	1887	3818	79
74	0	0	2109	1883	3815	80
75	0	0	2124	1885	3816	80
76	0	0	2134	1886	3816	80
77	0	0	2163	1885	3815	79
78	0	0	2171	1887	3816	80
79	0	0	2151	1885	3815	80
80	0	0	2126	1885	3816	79
81	0	0	2087	1885	3815	77
82	0	0	2046	1882	3815	79
83	0	0	2012	1884	3816	80
84	0	0	1985	1884	3820	79
85	0	0	1975	1888	3815	79
86	0	0	1966	1886	3815	79
87	0	0	1948	1882	3815	79
88	0	0	1950	1887	3816	81
89	0	0	1968	1887	3815	80
90	0	0	1996	1886	3815	80
91	0	0	2027	1887	3817	77
92	0	0	2054	1886	3815	77
93	0	0	2081	1888	3816	80
94	0	0	2102	1887	3815	79
95	0	0	2113	1887	3815	79
96	0	0	2131	1886	3816	78
97	0	0	2163	1888	3816	80
98	0	0	2170	1886	3815	84
99	0	0	2167	1886	3816	79
100	0	0	2130	1883	3815	80
101	0	0	2086	1884	3817	79
102	0	0	2041	1885	3816	80
103	0	0	2013	1885	3817	79
104	0	0	1990	1885	3815	77
105	0	0	1975	1885	3815	79
106	0	0	1966	1886	3817	80
107	0	0	1950	1884	3816	79
108	0	0	1955	1888	3817	79
109	0	0	1976	1887	3815	80
110	0	0	2002	1888	3817	80
111	0	0	2027	1888	3815	80
112	0	0	2058	1886	3813	79
113	0	0	2087	1887	3815	80
114	0	0	2113	1887	3815	80
115	0	0	2131	1887	3815	79
116	0	0	2142	1887	3816	80
117	0	0	2169	1888	3816	80
118	0	0	2182	1888	3815	80
119	0	0	2155	1885	3816	82
120	0	0	2124	1884	3815	79
121	0	0	2084	1883	3815	79
122	0	0	2042	1885	3814	79
123	0	0	2013	1886	3817	80
124	0	0	1990	1885	3815	80
125	0	0	1978	1886	3817	80
126	0	0	1968	1887	3816	77
127	0	0	1949	1886	3814	79
0	0	0	1949	1889	3816	79
1	0	0	1966	1887	3814	80
2	0	0	1993	1887	3815	79
3	0	0	2022	1888	3816	77
4	0	0	2051	1889	3816	80
5	0	0	2087	1888	3816	80
6	0	0	2097	1888	3817	80
7	0	0	2117	1889	3815	80
8	0	0	2135	1888	3815	80
9	0	0	2162	1888	3814	79
10	0	0	2177	1889	3816	80
11	0	0	2163	1886	3816	82
12	0	0	2133	1885	3817	79
13	0	0	2091	1886	3816	77
14	0	0	2049	1884	3816	79
15	0	0	2023	1886	3817	80
16	0	0	1995	1885	3815	80
17	0	0	1977	1886	3815	79
18	0	0	1969	1888	3816	80
19	0	0	1947	1887	3814	80
20	0	0	1949	1889	3815	79
21	0	0	1966	1887	3816	79
22	0	0	1991	1889	3815	79
23	0	0	2022	1888	3815	80
24	0	0	2053	1886	3816	79
25	0	0	2086	1888	3817	79
26	0	0	2109	1888	3816	83
27	0	0	2124	1887	3815	80
28	0	0	2139	1888	3816	80
29	0	0	2167	1888	3816	80
30	0	0	2177	1889	3818	80
31	0	0	2155	1886	3816	82
32	0	0	2128	1886	3817	80
33	0	0	2089	1886	3816	80
34	0	0	2052	1885	3815	79
35	0	0	2021	1886	3817	80
36	0	0	1996	1886	3815	81
37	0	0	1978	1886	3814	79
38	0	0	1969	1887	3815	80
39	0	0	1949	1888	3814	78
40	0	0	1952	1889	3816	80
41	0	0	1970	1888	3815	79
42	0	0	1996	1888	3814	80
43	0	0	2025	1888	3815	80
44	0	0	2058	1890	3816	80
45	0	0	2076	1889	3817	80
46	0	0	2100	1889	3817	80
47	0	0	2121	1890	3816	80
48	0	0	2136	1888	3815	80
49	0	0	2157	1888	3814	81
50	0	0	2185	1889	3816	79
51	0	0	2160	1887	3815	82
52	0	0	2130	1887	3816	79
53	0	0	2088	1887	3815	79
54	0	0	2047	1884	3813	79
55	0	0	2011	1886	3816	79
56	0	0	1990	1887	3815	79
57	0	0	1977	1887	3815	79
58	0	0	1968	1887	3814	79
59	0	0	1950	1888	3816	84
60	0	0	1948	1889	3816	79
61	0	0	1970	1889	3817	80
62	0	0	1997	1890	3816	80
63	0	0	2026	1888	3815	80
64	0	0	2057	1888	3816	81
65	0	0	2087	1889	3816	80
66	0	0	2110	1888	3815	79
67	0	0	2126	1890	3815	80
68	0	0	2142	1889	3815	80
69	0	0	2174	1890	3815	79
70	0	0	2181	1890	3816	81
71	0	0	2156	1885	3815	79
72	0	0	2123	1886	3815	80
73	0	0	2082	1888	3815	80
74	0	0	2040	1885	3816	79
75	0	0	2011	1887	3816	80
76	0	0	1987	1888	3816	79
77	0	0	1974	1889	3816	80
78	0	0	1969	1889	3816	80
79	0	0	1950	1889	3816	80
80	0	0	1955	1889	3817	80
81	0	0	1976	1891	3817	80
82	0	0	2000	1889	3816	80
83	0	0	2032	1890	3817	79
84	0	0	2062	1890	3816	80
85	0	0	2075	1889	3815	80
86	0	0	2101	1888	3815	79
87	0	0	2130	1891	3816	80
88	0	0	2142	1891	3815	79
89	0	0	2174	1891	3815	79
90	0	0	2187	1891	3816	79
91	0	0	2160	1887	3815	79
92	0	0	2131	1887	3815	80
93	0	0	2087	1885	3815	79
94	0	0	2046	1886	3817	83
95	0	0	2016	1887	3817	81
96	0	0	1995	1888	3816	80
97	0	0	1977	1888	3816	81
98	0	0	1960	1889	3816	80
99	0	0	1945	1887	3815	79
100	0	0	1950	1889	3815	80
101	0	0	1976	1889	3815	82
102	0	0	2000	1890	3815	80
103	0	0	2025	1890	3815	80
104	0	0	2057	1889	3816	83
105	0	0	2085	1891	3815	81
106	0	0	2112	1891	3816	80
107	0	0	2129	1890	3814	77
108	0	0	2137	1891	3815	79
109	0	0	2167	1887	3815	79
110	0	0	2177	1890	3816	80
111	0	0	2151	1888	3815	80
112	0	0	2122	1888	3816	81
113	0	0	2082	1888	3817	80
114	0	0	2042	1889	3816	80
115	0	0	2014	1888	3816	80
116	0	0	1994	1888	3816	80
117	0	0	1981	1890	3816	79
118	0	0	1973	1890	3815	79
119	0	0	1953	1889	3815	80
120	0	0	1955	1891	3816	79
121	0	0	1978	1890	3815	80
122	0	0	2000	1892	3816	80
123	0	0	2023	1891	3814	77
124	0	0	2045	1891	3816	79
125	0	0	2073	1890	3816	80
126	0	0	2102	1891	3815	80
127	0	0	2128	1892	3815	79
0	0	0	2130	1890	3815	79
1	0	0	2175	1890	3817	80
2	0	0	2175	1889	3816	79
3	0	0	2151	1889	3816	80
4	0	0	2126	1889	3816	79
5	0	0	2086	1888	3816	79
6	0	0	2045	1885	3816	79
7	0	0	2015	1888	3816	79
8	0	0	1992	1888	3816	80
9	0	0	1976	1890	3814	79
10	0	0	1963	1891	3816	79
11	0	0	1946	1887	3815	79
12	0	0	1945	1891	3816	79
13	0	0	1963	1892	3816	80
14	0	0	1990	1893	3816	79
15	0	0	2023	1891	3815	79
16	0	0	2051	1891	3817	80
17	0	0	2078	1890	3816	80
18	0	0	2107	1892	3817	80
19	0	0	2122	1892	3816	80
20	0	0	2137	1892	3815	78
21	0	0	2165	1891	3816	80
22	0	0	2173	1891	3816	80
23	0	0	2152	1891	3814	80
24	0	0	2122	1888	3815	80
25	0	0	2082	1889	3816	80
26	0	0	2042	1888	3815	80
27	0	0	2009	1888	3816	79
28	0	0	1986	1889	3815	80
29	0	0	1971	1889	3815	79
30	0	0	1963	1892	3818	79
31	0	0	1949	1887	3816	79
32	0	0	1952	1892	3816	83
33	0	0	1973	1891	3816	80
34	0	0	1997	1890	3817	80
35	0	0	2026	1891	3815	77
36	0	0	2040	1891	3816	79
37	0	0	2075	1891	3817	79
38	0	0	2102	1891	3815	80
39	0	0	2123	1892	3815	80
40	0	0	2146	1892	3815	80
41	0	0	2181	1892	3816	79
42	0	0	2183	1891	3816	79
43	0	0	2160	1890	3816	80
44	0	0	2131	1887	3815	79
45	0	0	2091	1888	3815	78
46	0	0	2051	1889	3817	80
47	0	0	2013	1889	3816	80
48	0	0	1987	1889	3815	80
49	0	0	1972	1889	3815	79
50	0	0	1963	1892	3816	80
51	0	0	1952	1891	3816	79
52	0	0	1951	1891	3817	79
53	0	0	1973	1892	3815	79
54	0	0	1993	1892	3815	79
55	0	0	2027	1891	3816	79
56	0	0	2059	1892	3815	80
57	0	0	2089	1892	3816	80
58	0	0	2109	1892	3816	80
59	0	0	2125	1892	3815	79
60	0	0	2136	1892	3816	80
61	0	0	2158	1893	3815	79
62	0	0	2167	1892	3816	80
63	0	0	2153	1891	3814	79
64	0	0	2125	1887	3815	79
65	0	0	2085	1889	3820	80
66	0	0	2048	1891	3816	80
67	0	0	2019	1890	3816	79
68	0	0	1994	1890	3816	80
69	0	0	1976	1889	3816	80
70	0	0	1967	1892	3815	80
71	0	0	1947	1890	3816	79
72	0	0	1949	1893	3816	79
73	0	0	1971	1892	3815	79
74	0	0	1996	1894	3816	80
75	0	0	2014	1893	3814	80
76	0	0	2040	1893	3815	80
77	0	0	2078	1893	3816	80
78	0	0	2106	1892	3815	79
79	0	0	2116	1892	3816	80
80	0	0	2144	1893	3815	80
81	0	0	2174	1894	3817	82
82	0	0	2180	1894	3816	79
83	0	0	2156	1890	3816	80
84	0	0	2123	1890	3815	80
85	0	0	2087	1890	3819	80
86	0	0	2046	1891	3816	80
87	0	0	2016	1891	3816	79
88	0	0	1996	1891	3817	79
89	0	0	1983	1891	3815	79
90	0	0	1973	1892	3815	80
91	0	0	1955	1891	3815	79
92	0	0	1956	1894	3816	80
93	0	0	1977	1893	3815	84
94	0	0	2002	1893	3815	79
95	0	0	2029	1893	3816	80
96	0	0	2055	1893	3815	81
97	0	0	2083	1893	3817	79
98	0	0	2105	1892	3816	79
99	0	0	2123	1893	3816	79
100	0	0	2141	1894	3816	80
101	0	0	2168	1893	3816	82
102	0	0	2172	1894	3816	80
103	0	0	2147	1890	3816	79
104	0	0	2118	1890	3815	80
105	0	0	2081	1890	3816	80
106	0	0	2042	1891	3813	79
107	0	0	2012	1890	3816	79
108	0	0	1991	1892	3817	79
109	0	0	1976	1892	3815	79
110	0	0	1965	1891	3816	80
111	0	0	1947	1892	3816	79
112	0	0	1949	1894	3816	80
113	0	0	1969	1893	3815	79
114	0	0	1999	1896	3816	80
115	0	0	2015	1894	3817	82
116	0	0	2042	1893	3816	80
117	0	0	2076	1894	3817	80
118	0	0	2108	1894	3816	77
119	0	0	2132	1893	3815	80
120	0	0	2148	1895	3816	80
121	0	0	2171	1893	3815	81
122	0	0	2172	1894	3816	79
123	0	0	2149	1891	3815	79
124	0	0	2121	1891	3815	80
125	0	0	2083	1891	3815	79
126	0	0	2044	1889	3816	81
127	0	0	2014	1893	3815	79
0	0	0	1997	1892	3817	79
1	0	0	1975	1891	3815	79
2	0	0	1967	1893	3817	80
3	0	0	1954	1894	3816	79
4	0	0	1951	1894	3816	80
5	0	0	1967	1893	3816	75
6	0	0	1994	1893	3816	80
7	0	0	2023	1893	3816	80
8	0	0	2057	1894	3815	79
9	0	0	2082	1895	3817	79
10	0	0	2106	1893	3815	79
11	0	0	2119	1895	3815	80
12	0	0	2128	1894	3815	80
13	0	0	2155	1894	3815	81
14	0	0	2164	1893	3815	80
15	0	0	2147	1892	3815	77
16	0	0	2120	1893	3816	80
17	0	0	2081	1892	3817	82
18	0	0	2043	1890	3816	81
19	0	0	2013	1894	3816	80
20	0	0	1994	1892	3816	80
21	0	0	1974	1893	3816	79
22	0	0	1964	1895	3817	79
23	0	0	1951	1894	3817	80
24	0	0	1953	1893	3817	80
25	0	0	1972	1894	3815	80
26	0	0	1991	1895	3815	80
27	0	0	2013	1894	3815	79
28	0	0	2041	1895	3814	77
29	0	0	2077	1893	3816	80
30	0	0	2102	1894	3815	77
31	0	0	2125	1894	3816	80
32	0	0	2144	1895	3817	83
33	0	0	2169	1895	3815	80
34	0	0	2171	1894	3816	80
35	0	0	2145	1892	3815	73
36	0	0	2121	1892	3815	79
37	0	0	2085	1891	3816	80
38	0	0	2044	1892	3816	80
39	0	0	2015	1891	3817	80
40	0	0	1996	1892	3815	80
41	0	0	1970	1893	3816	79
42	0	0	1984	1894	3816	79
43	0	0	1969	1892	3816	81
44	0	0	1962	1896	3816	80
45	0	0	1980	1894	3815	74
46	0	0	2004	1895	3815	79
47	0	0	2030	1894	3815	79
48	0	0	2058	1895	3815	79
49	0	0	2081	1893	3816	80
50	0	0	2110	1896	3815	80
51	0	0	2131	1894	3814	79
52	0	0	2144	1895	3816	79
53	0	0	2167	1896	3815	79
54	0	0	2172	1894	3816	80
55	0	0	2151	1893	3815	78
56	0	0	2126	1893	3816	80
57	0	0	2089	1892	3816	79
58	0	0	2049	1893	3815	79
59	0	0	2019	1893	3817	80
60	0	0	1997	1892	3815	74
61	0	0	1981	1894	3816	79
62	0	0	1977	1895	3816	80
63	0	0	1961	1894	3813	79
64	0	0	1959	1896	3816	80
65	0	0	1978	1895	3814	80
66	0	0	1990	1895	3816	80
67	0	0	2016	1895	3817	81
68	0	0	2054	1895	3816	79
69	0	0	2085	1895	3816	79
70	0	0	2106	1895	3815	78
71	0	0	2134	1896	3816	80
72	0	0	2144	1896	3819	81
73	0	0	2166	1896	3814	80
74	0	0	2168	1894	3817	80
75	0	0	2146	1893	3816	77
76	0	0	2122	1893	3815	80
77	0	0	2088	1891	3815	81
78	0	0	2054	1892	3815	79
79	0	0	2020	1892	3816	80
80	0	0	1995	1893	3816	79
81	0	0	1980	1894	3815	79
82	0	0	1968	1894	3815	80
83	0	0	1952	1896	3816	79
84	0	0	1950	1893	3815	79
85	0	0	1977	1895	3815	80
86	0	0	2004	1897	3817	80
87	0	0	2024	1894	3815	79
88	0	0	2052	1896	3815	80
89	0	0	2081	1897	3816	80
90	0	0	2111	1895	3816	79
91	0	0	2128	1896	3816	79
92	0	0	2140	1895	3816	80
93	0	0	2167	1895	3815	80
94	0	0	2174	1894	3816	79
95	0	0	2148	1894	3816	79
96	0	0	2120	1891	3815	79
97	0	0	2082	1892	3815	80
98	0	0	2043	1893	3816	79
99	0	0	2015	1892	3817	77
100	0	0	1992	1894	3815	79
101	0	0	1975	1895	3815	79
102	0	0	1969	1894	3816	79
103	0	0	1952	1894	3815	80
104	0	0	1950	1895	3816	79
105	0	0	1971	1897	3814	80
106	0	0	1991	1893	3815	80
107	0	0	2021	1896	3816	80
108	0	0	2055	1896	3815	80
109	0	0	2081	1893	3818	80
110	0	0	2113	1896	3815	80
111	0	0	2139	1897	3817	79
112	0	0	2149	1896	3818	80
113	0	0	2168	1896	3815	80
114	0	0	2174	1897	3816	79
115	0	0	2155	1894	3813	75
116	0	0	2124	1893	3815	80
117	0	0	2085	1890	3815	80
118	0	0	2046	1893	3817	82
119	0	0	2013	1893	3815	80
120	0	0	1991	1894	3816	79
121	0	0	1980	1894	3815	79
122	0	0	1972	1896	3815	79
123	0	0	1956	1894	3816	79
124	0	0	1954	1899	3816	79
125	0	0	1974	1896	3816	79
126	0	0	2001	1894	3815	80
127	0	0	2030	1898	3815	79
0	0	0	2060	1896	3815	80
1	0	0	2086	1898	3815	79
2	0	0	2110	1896	3815	80
3	0	0	2131	1897	3816	79
4	0	0	2139	1897	3815	80
5	0	0	2160	1897	3814	80
6	0	0	2164	1897	3817	80
7	0	0	2143	1894	3815	79
8	0	0	2114	1894	3816	79
9	0	0	2078	1895	3815	80
10	0	0	2043	1894	3815	79
11	0	0	2015	1895	3818	79
12	0	0	1996	1894	3815	77
13	0	0	1976	1895	3816	80
14	0	0	1969	1896	3816	80
15	0	0	1954	1895	3816	79
16	0	0	1954	1900	3816	79
17	0	0	1967	1896	3815	79
18	0	0	1991	1897	3817	79
19	0	0	2021	1896	3815	80
20	0	0	2053	1896	3815	80
21	0	0	2079	1899	3816	79
22	0	0	2120	1897	3815	79
23	0	0	2129	1896	3815	80
24	0	0	2142	1898	3815	80
25	0	0	2167	1897	3818	79
26	0	0	2172	1897	3816	80
27	0	0	2144	1894	3814	79
28	0	0	2115	1893	3815	80
29	0	0	2082	1895	3817	76
30	0	0	2051	1894	3818	79
31	0	0	2022	1896	3816	80
32	0	0	2001	1894	3814	79
33	0	0	1979	1894	3815	79
34	0	0	1974	1898	3816	76
35	0	0	1958	1895	3817	80
36	0	0	1956	1896	3815	79
37	0	0	1976	1897	3816	79
38	0	0	1996	1897	3815	79
39	0	0	2026	1898	3815	80
40	0	0	2054	1897	3817	83
41	0	0	2080	1898	3816	79
42	0	0	2104	1897	3815	79
43	0	0	2120	1897	3816	80
44	0	0	2131	1897	3816	82
45	0	0	2154	1897	3818	83
46	0	0	2163	1899	3816	80
47	0	0	2143	1896	3816	80
48	0	0	2119	1894	3815	79
49	0	0	2083	1896	3815	80
50	0	0	2046	1895	3817	79
51	0	0	2018	1894	3815	79
52	0	0	1996	1895	3815	79
53	0	0	1984	1896	3816	79
54	0	0	1975	1898	3814	80
55	0	0	1957	1896	3817	79
56	0	0	1956	1896	3815	79
57	0	0	1962	1897	3815	79
58	0	0	1988	1895	3815	80
59	0	0	2023	1898	3815	80
60	0	0	2055	1897	3817	80
61	0	0	2092	1897	3817	79
62	0	0	2119	1897	3816	80
63	0	0	2129	1897	3815	80
64	0	0	2141	1898	3816	80
65	0	0	2162	1899	3817	79
66	0	0	2163	1899	3815	79
67	0	0	2145	1896	3816	79
68	0	0	2121	1893	3815	79
69	0	0	2085	1895	3815	79
70	0	0	2046	1895	3816	79
71	0	0	2008	1894	3816	80
72	0	0	1987	1895	3815	79
73	0	0	1972	1896	3816	79
74	0	0	1965	1898	3816	80
75	0	0	1950	1897	3817	79
76	0	0	1954	1897	3815	79
77	0	0	1971	1898	3816	80
78	0	0	1997	1898	3817	80
79	0	0	2025	1898	3819	81
80	0	0	2055	1897	3816	80
81	0	0	2083	1897	3816	80
82	0	0	2109	1897	3815	80
83	0	0	2125	1897	3815	80
84	0	0	2141	1897	3815	79
85	0	0	2166	1899	3817	80
86	0	0	2168	1898	3815	80
87	0	0	2147	1895	3815	79
88	0	0	2128	1895	3815	79
89	0	0	2088	1895	3816	80
90	0	0	2048	1895	3817	83
91	0	0	2018	1896	3815	79
92	0	0	2001	1896	3816	79
93	0	0	1987	1897	3815	80
94	0	0	1973	1896	3816	79
95	0	0	1957	1897	3814	79
96	0	0	1949	1898	3816	80
97	0	0	1968	1897	3815	80
98	0	0	1996	1898	3817	80
99	0	0	2025	1898	3814	80
100	0	0	2048	1898	3817	80
101	0	0	2094	1898	3816	79
102	0	0	2112	1898	3815	80
103	0	0	2127	1899	3814	79
104	0	0	2136	1896	3815	80
105	0	0	2164	1899	3813	80
106	0	0	2168	1898	3814	80
107	0	0	2150	1897	3815	79
108	0	0	2125	1897	3816	79
109	0	0	2089	1895	3816	79
110	0	0	2050	1895	3816	79
111	0	0	2022	1896	3817	79
112	0	0	1998	1896	3816	79
113	0	0	1986	1897	3816	79
114	0	0	1976	1897	3816	80
115	0	0	1960	1899	3814	77
116	0	0	1955	1898	3813	80
117	0	0	1967	1900	3814	80
118	0	0	1992	1898	3815	79
119	0	0	2017	1898	3816	80
120	0	0	2045	1899	3816	79
121	0	0	2077	1898	3816	80
122	0	0	2105	1898	3815	79
123	0	0	2126	1898	3815	80
124	0	0	2134	1898	3815	80
125	0	0	2159	1899	3814	77
126	0	0	2168	1898	3815	79
127	0	0	2148	1897	3816	79
0	0	0	2124	1896	3816	80
1	0	0	2085	1895	3816	80
2	0	0	2048	1897	3816	77
3	0	0	2020	1898	3815	79
4	0	0	2004	1898	3817	79
5	0	0	1994	1897	3815	79
6	0	0	1980	1896	3815	79
7	0	0	1962	1897	3816	79
8	0	0	1944	1899	3815	79
9	0	0	1967	1899	3816	80
10	0	0	1991	1900	3814	79
11	0	0	2026	1898	3816	80
12	0	0	2064	1899	3816	80
13	0	0	2096	1898	3816	79
14	0	0	2111	1899	3815	80
15	0	0	2120	1898	3816	80
16	0	0	2134	1897	3816	80
17	0	0	2159	1899	3819	80
18	0	0	2168	1899	3816	78
19	0	0	2150	1897	3816	79
20	0	0	2124	1896	3816	80
21	0	0	2087	1896	3816	79
22	0	0	2055	1897	3817	80
23	0	0	2022	1897	3817	80
24	0	0	2000	1896	3815	80
25	0	0	1985	1898	3815	80
26	0	0	1976	1898	3815	80
27	0	0	1962	1898	3816	80
28	0	0	1956	1899	3815	79
29	0	0	1979	1899	3815	79
30	0	0	1997	1898	3816	80
31	0	0	2015	1899	3816	79
32	0	0	2041	1900	3819	80
33	0	0	2070	1899	3816	79
34	0	0	2096	1900	3816	79
35	0	0	2113	1900	3816	79
36	0	0	2131	1899	3816	81
37	0	0	2157	1899	3814	77
38	0	0	2163	1899	3816	80
39	0	0	2149	1898	3815	79
40	0	0	2125	1897	3817	79
41	0	0	2093	1897	3816	78
42	0	0	2060	1896	3815	79
43	0	0	2027	1897	3816	79
44	0	0	1998	1896	3815	79
45	0	0	1986	1899	3816	79
46	0	0	1978	1897	3815	79
47	0	0	1954	1896	3815	79
48	0	0	1953	1898	3815	79
49	0	0	1972	1898	3815	79
50	0	0	1994	1899	3816	79
51	0	0	2015	1901	3815	79
52	0	0	2058	1899	3815	81
53	0	0	2084	1899	3816	80
54	0	0	2109	1900	3817	80
55	0	0	2121	1900	3815	80
56	0	0	2135	1899	3815	79
57	0	0	2157	1899	3817	80
58	0	0	2159	1899	3815	79
59	0	0	2141	1898	3815	79
60	0	0	2115	1897	3815	79
61	0	0	2081	1896	3816	80
62	0	0	2053	1897	3815	80
63	0	0	2028	1897	3815	79
64	0	0	2006	1897	3815	79
65	0	0	1989	1898	3815	79
66	0	0	1981	1900	3814	79
67	0	0	1971	1899	3819	80
68	0	0	1968	1900	3817	79
69	0	0	1985	1899	3815	79
70	0	0	2003	1899	3816	79
71	0	0	2029	1898	3815	80
72	0	0	2054	1899	3815	80
73	0	0	2078	1898	3815	79
74	0	0	2101	1899	3815	79
75	0	0	2118	1899	3815	80
76	0	0	2127	1899	3815	79
77	0	0	2150	1901	3816	80
78	0	0	2156	1899	3815	79
79	0	0	2142	1899	3815	79
80	0	0	2116	1898	3815	80
81	0	0	2084	1897	3815	79
82	0	0	2052	1896	3815	80
83	0	0	2023	1898	3817	79
84	0	0	1998	1897	3816	79
85	0	0	1986	1900	3817	80
86	0	0	1981	1899	3816	79
87	0	0	1954	1898	3815	80
88	0	0	1959	1899	3815	80
89	0	0	1982	1899	3815	79
90	0	0	2006	1899	3815	79
91	0	0	2040	1899	3815	80
92	0	0	2075	1900	3815	79
93	0	0	2090	1899	3817	80
94	0	0	2111	1900	3815	79
95	0	0	2125	1900	3815	79
96	0	0	2137	1900	3815	79
97	0	0	2159	1900	3817	80
98	0	0	2161	1899	3815	79
99	0	0	2144	1899	3817	80
100	0	0	2113	1898	3815	79
101	0	0	2086	1897	3816	79
102	0	0	2053	1897	3815	80
103	0	0	2025	1898	3817	79
104	0	0	2007	1898	3815	79
105	0	0	1995	1900	3815	79
106	0	0	1988	1901	3814	79
107	0	0	1967	1898	3813	80
108	0	0	1963	1898	3815	79
109	0	0	1976	1900	3815	79
110	0	0	1999	1899	3815	79
111	0	0	2026	1901	3814	78
112	0	0	2048	1901	3815	80
113	0	0	2070	1902	3817	80
114	0	0	2088	1900	3815	80
115	0	0	2104	1901	3816	80
116	0	0	2119	1901	3817	77
117	0	0	2146	1900	3816	80
118	0	0	2152	1900	3816	79
119	0	0	2138	1899	3816	79
120	0	0	2114	1897	3815	80
121	0	0	2083	1897	3816	79
122	0	0	2049	1899	3815	79
123	0	0	2026	1898	3816	79
124	0	0	2013	1899	3815	79
125	0	0	2001	1900	3815	79
126	0	0	1982	1898	3815	79
127	0	0	1960	1899	3816	79
0	0	0	1958	1900	3816	79
1	0	0	1975	1901	3816	79
2	0	0	1991	1898	3816	79
3	0	0	2029	1900	3816	77
4	0	0	2058	1901	3817	80
5	0	0	2083	1897	3816	81
6	0	0	2102	1900	3816	80
7	0	0	2114	1902	3815	80
8	0	0	2129	1903	3815	80
9	0	0	2154	1900	3816	80
10	0	0	2160	1901	3816	78
11	0	0	2146	1900	3815	79
12	0	0	2122	1898	3815	80
13	0	0	2089	1898	3815	80
14	0	0	2055	1898	3816	81
15	0	0	2029	1898	3816	80
16	0	0	2011	1898	3816	80
17	0	0	1995	1899	3818	80
18	0	0	1986	1901	3817	83
19	0	0	1973	1901	3816	81
20	0	0	1975	1901	3817	79
21	0	0	1987	1900	3813	79
22	0	0	2005	1900	3818	80
23	0	0	2028	1901	3816	77
24	0	0	2051	1901	3816	52
25	0	0	2077	1901	3817	79
26	0	0	2096	1900	3815	80
27	0	0	2112	1901	3816	79
28	0	0	2125	1901	3815	79
29	0	0	2148	1901	3816	79
30	0	0	2153	1901	3818	81
31	0	0	2139	1900	3815	79
32	0	0	2120	1898	3818	79
33	0	0	2086	1899	3816	77
34	0	0	2059	1899	3816	81
35	0	0	2035	1899	3817	79
36	0	0	2016	1899	3815	75
37	0	0	2003	1900	3817	80
38	0	0	1985	1900	3815	78
39	0	0	1971	1901	3816	79
40	0	0	1975	1900	3817	80
41	0	0	1993	1901	3815	79
42	0	0	2020	1901	3815	79
43	0	0	2050	1901	3815	79
44	0	0	2066	1901	3816	79
45	0	0	2087	1900	3817	79
46	0	0	2107	1901	3815	80
47	0	0	2120	1901	3815	80
48	0	0	2130	1901	3815	78
49	0	0	2153	1902	3816	79
50	0	0	2153	1901	3817	80
51	0	0	2136	1901	3816	80
52	0	0	2115	1899	3815	80
53	0	0	2086	1898	3815	79
54	0	0	2058	1899	3816	79
55	0	0	2033	1899	3816	79
56	0	0	2010	1899	3815	79
57	0	0	1999	1900	3816	79
58	0	0	1991	1901	3816	79
59	0	0	1984	1901	3816	79
60	0	0	1983	1900	3816	79
61	0	0	1998	1904	3813	79
62	0	0	2016	1902	3815	80
63	0	0	2038	1900	3815	79
64	0	0	2056	1901	3816	79
65	0	0	2079	1901	3815	80
66	0	0	2097	1902	3816	79
67	0	0	2112	1902	3815	80
68	0	0	2120	1901	3816	79
69	0	0	2143	1902	3816	79
70	0	0	2147	1902	3815	79
71	0	0	2137	1900	3816	80
72	0	0	2112	1899	3816	79
73	0	0	2083	1899	3816	79
74	0	0	2057	1899	3818	79
75	0	0	2034	1896	3815	79
76	0	0	2018	1900	3816	80
77	0	0	2000	1899	3814	79
78	0	0	1984	1900	3814	79
79	0	0	1978	1903	3816	79
80	0	0	1984	1901	3815	80
81	0	0	1994	1903	3816	79
82	0	0	2019	1902	3816	79
83	0	0	2036	1902	3815	79
84	0	0	2052	1902	3817	79
85	0	0	2073	1902	3814	80
86	0	0	2097	1902	3817	80
87	0	0	2110	1903	3816	79
88	0	0	2122	1902	3816	78
89	0	0	2139	1902	3817	79
90	0	0	2143	1902	3816	79
91	0	0	2131	1902	3817	80
92	0	0	2112	1897	3818	80
93	0	0	2083	1899	3815	80
94	0	0	2063	1900	3815	79
95	0	0	2040	1900	3815	79
96	0	0	2021	1901	3815	79
97	0	0	2006	1899	3816	79
98	0	0	1996	1901	3816	79
99	0	0	1982	1901	3814	77
100	0	0	1980	1901	3815	79
101	0	0	1994	1902	3815	80
102	0	0	2015	1901	3815	79
103	0	0	2037	1901	3816	80
104	0	0	2060	1902	3815	79
105	0	0	2078	1902	3818	79
106	0	0	2089	1902	3816	79
107	0	0	2098	1903	3816	79
108	0	0	2108	1902	3816	77
109	0	0	2129	1901	3815	77
110	0	0	2135	1902	3815	79
111	0	0	2128	1902	3815	79
112	0	0	2112	1904	3815	79
113	0	0	2085	1900	3814	79
114	0	0	2057	1900	3815	78
115	0	0	2034	1900	3815	79
116	0	0	2026	1899	3815	79
117	0	0	2002	1901	3814	77
118	0	0	1995	1903	3816	79
119	0	0	1994	1902	3814	77
120	0	0	1996	1903	3816	79
121	0	0	2011	1902	3816	79
122	0	0	2032	1902	3815	80
123	0	0	2044	1902	3815	80
124	0	0	2064	1902	3819	79
125	0	0	2076	1902	3815	79
126	0	0	2090	1902	3815	79
127	0	0	2106	1900	3814	80
0	0	0	2108	1902	3815	80
1	0	0	2123	1903	3816	79
2	0	0	2127	1902	3815	80
3	0	0	2121	1902	3815	79
4	0	0	2101	1902	3814	79
5	0	0	2082	1901	3816	80
6	0	0	2061	1900	3816	78
7	0	0	2044	1900	3816	80
8	0	0	2033	1902	3815	79
9	0	0	2023	1901	3814	80
10	0	0	2014	1902	3815	77
11	0	0	2009	1902	3815	80
12	0	0	2007	1902	3817	80
13	0	0	2011	1902	3815	79
14	0	0	2022	1902	3815	77
15	0	0	2039	1902	3816	79
16	0	0	2052	1903	3815	78
17	0	0	2066	1902	3815	79
18	0	0	2085	1903	3816	80
19	0	0	2097	1902	3816	79
20	0	0	2098	1902	3815	80
21	0	0	2113	1904	3815	79
22	0	0	2112	1903	3815	79
23	0	0	2107	1903	3816	77
24	0	0	2094	1904	3815	80
25	0	0	2080	1901	3816	79
26	0	0	2060	1902	3816	77
27	0	0	2042	1902	3817	79
28	0	0	2028	1899	3816	80
29	0	0	2014	1904	3815	79
30	0	0	2011	1902	3816	79
31	0	0	2005	1902	3818	79
32	0	0	2004	1902	3817	80
33	0	0	2024	1901	3815	79
34	0	0	2039	1904	3816	80
35	0	0	2052	1903	3816	80
36	0	0	2062	1902	3815	78
37	0	0	2073	1902	3815	79
38	0	0	2086	1903	3816	79
39	0	0	2092	1903	3815	80
40	0	0	2094	1903	3815	80
41	0	0	2103	1903	3816	77
42	0	0	2103	1903	3816	80
43	0	0	2097	1902	3815	79
44	0	0	2087	1904	3815	80
45	0	0	2070	1901	3817	79
46	0	0	2055	1902	3817	78
47	0	0	2040	1903	3817	79
48	0	0	2031	1903	3815	79
49	0	0	2028	1903	3814	79
50	0	0	2024	1902	3816	79
51	0	0	2018	1903	3815	80
52	0	0	2016	1904	3816	80
53	0	0	2020	1903	3816	79
54	0	0	2027	1903	3814	79
55	0	0	2036	1903	3815	79
56	0	0	2049	1903	3816	79
57	0	0	2064	1903	3817	80
58	0	0	2076	1901	3815	79
59	0	0	2084	1904	3815	80
60	0	0	2092	1903	3817	80
61	0	0	2096	1903	3816	79
62	0	0	2096	1903	3817	80
63	0	0	2089	1903	3816	79
64	0	0	2083	1899	3816	80
65	0	0	2075	1903	3816	79
66	0	0	2058	1903	3816	79
67	0	0	2048	1904	3816	80
68	0	0	2034	1903	3815	79
69	0	0	2031	1903	3816	79
70	0	0	2029	1904	3816	82
71	0	0	2018	1903	3815	79
72	0	0	2015	1903	3817	80
73	0	0	2030	1903	3815	79
74	0	0	2032	1904	3815	79
75	0	0	2041	1903	3816	80
76	0	0	2056	1903	3816	79
77	0	0	2063	1903	3817	79
78	0	0	2072	1904	3816	79
79	0	0	2080	1898	3816	80
80	0	0	2086	1903	3817	79
81	0	0	2093	1903	3816	79
82	0	0	2091	1903	3816	80
83	0	0	2087	1905	3815	80
84	0	0	2075	1901	3816	82
85	0	0	2064	1903	3816	80
86	0	0	2046	1902	3816	78
87	0	0	2037	1903	3816	80
88	0	0	2027	1903	3815	77
89	0	0	2022	1903	3815	79
90	0	0	2024	1903	3815	80
91	0	0	2016	1904	3816	79
92	0	0	2016	1903	3817	80
93	0	0	2020	1902	3815	79
94	0	0	2030	1903	3816	80
95	0	0	2042	1905	3815	79
96	0	0	2051	1903	3816	79
97	0	0	2055	1904	3814	80
98	0	0	2060	1904	3815	79
99	0	0	2063	1904	3815	79
100	0	0	2071	1904	3815	80
101	0	0	2078	1904	3815	79
102	0	0	2086	1903	3815	79
103	0	0	2082	1903	3815	79
104	0	0	2077	1904	3815	79
105	0	0	2075	1904	3815	80
106	0	0	2064	1904	3816	79
107	0	0	2056	1904	3813	79
108	0	0	2048	1903	3815	80
109	0	0	2046	1904	3815	79
110	0	0	2039	1904	3816	83
111	0	0	2030	1903	3819	78
112	0	0	2028	1903	3816	78
113	0	0	2029	1903	3815	79
114	0	0	2031	1904	3815	80
115	0	0	2041	1903	3817	79
116	0	0	2049	1904	3817	80
117	0	0	2057	1903	3812	79
118	0	0	2055	1903	3815	79
119	0	0	2066	1904	3815	79
120	0	0	2080	1904	3815	80
121	0	0	2080	1904	3816	77
122	0	0	2080	1904	3812	80
123	0	0	2081	1904	3815	80
124	0	0	2077	1904	3815	80
125	0	0	2069	1904	3813	79
126	0	0	2065	1905	3816	79
127	0	0	2058	1903	3814	79
0	0	0	2046	1903	3816	80
1	0	0	2035	1904	3816	80
2	0	0	2029	1903	3813	79
3	0	0	2020	1904	3816	79
4	0	0	2020	1903	3815	79
5	0	0	2029	1903	3816	80
6	0	0	2036	1904	3815	80
7	0	0	2040	1904	3813	79
8	0	0	2046	1905	3816	79
9	0	0	2053	1903	3814	79
10	0	0	2059	1904	3815	79
11	0	0	2066	1904	3815	80
12	0	0	2071	1904	3815	80
13	0	0	2068	1905	3815	77
14	0	0	2077	1905	3813	80
15	0	0	2076	1904	3815	79
16	0	0	2075	1905	3816	79
17	0	0	2064	1903	3813	79
18	0	0	2056	1904	3817	77
19	0	0	2041	1905	3817	79
20	0	0	2039	1904	3815	79
21	0	0	2041	1904	3816	80
22	0	0	2037	1905	3814	80
23	0	0	2029	1904	3816	76
24	0	0	2032	1904	3816	79
25	0	0	2033	1904	3815	79
26	0	0	2037	1904	3817	80
27	0	0	2044	1905	3816	83
28	0	0	2048	1904	3815	79
29	0	0	2052	1905	3816	80
30	0	0	2055	1904	3815	80
31	0	0	2058	1903	3816	80
32	0	0	2063	1905	3815	79
33	0	0	2071	1904	3815	78
34	0	0	2074	1903	3815	80
35	0	0	2072	1904	3815	79
36	0	0	2072	1905	3815	79
37	0	0	2069	1904	3814	79
38	0	0	2063	1904	3815	79
39	0	0	2058	1904	3813	80
40	0	0	2050	1904	3815	79
41	0	0	2042	1904	3815	79
42	0	0	2034	1904	3815	79
43	0	0	2035	1904	3815	79
44	0	0	2032	1903	3813	80
45	0	0	2035	1904	3816	79
46	0	0	2035	1904	3816	80
47	0	0	2042	1905	3815	80
48	0	0	2052	1905	3816	80
49	0	0	2058	1904	3815	80
50	0	0	2055	1904	3816	79
51	0	0	2061	1904	3818	81
52	0	0	2065	1904	3815	79
53	0	0	2066	1905	3817	80
54	0	0	2070	1904	3815	80
55	0	0	2070	1905	3815	79
56	0	0	2067	1904	3816	79
57	0	0	2063	1903	3815	79
58	0	0	2059	1904	3815	80
59	0	0	2052	1904	3815	80
60	0	0	2048	1904	3814	80
61	0	0	2045	1904	3817	80
62	0	0	2042	1904	3818	82
63	0	0	2039	1905	3816	76
64	0	0	2037	1904	3815	79
65	0	0	2037	1904	3815	79
66	0	0	2037	1905	3815	79
67	0	0	2039	1905	3817	81
68	0	0	2045	1904	3816	80
69	0	0	2050	1904	3814	80
70	0	0	2061	1905	3817	80
71	0	0	2061	1903	3817	79
72	0	0	2063	1905	3814	80
73	0	0	2061	1906	3814	80
74	0	0	2069	1904	3814	80
75	0	0	2073	1905	3815	79
76	0	0	2075	1905	3817	80
77	0	0	2074	1905	3816	79
78	0	0	2063	1905	3817	80
79	0	0	2055	1905	3815	78
80	0	0	2048	1905	3815	80
81	0	0	2044	1903	3815	79
82	0	0	2043	1904	3817	80
83	0	0	2038	1905	3817	80
84	0	0	2036	1905	3815	79
85	0	0	2035	1905	3816	80
86	0	0	2036	1904	3815	80
87	0	0	2040	1904	3814	79
88	0	0	2045	1904	3816	80
89	0	0	2054	1905	3817	80
90	0	0	2062	1904	3815	80
91	0	0	2065	1905	3816	79
92	0	0	2066	1905	3816	79
93	0	0	2069	1905	3815	80
94	0	0	2068	1904	3815	79
95	0	0	2068	1904	3815	79
96	0	0	2070	1904	3815	79
97	0	0	2070	1905	3815	79
98	0	0	2065	1905	3816	78
99	0	0	2056	1904	3815	79
100	0	0	2049	1905	3816	79
101	0	0	2043	1903	3816	79
102	0	0	2037	1905	3817	77
103	0	0	2039	1904	3816	78
104	0	0	2038	1905	3815	79
105	0	0	2037	1905	3816	79
106	0	0	2034	1906	3815	79
107	0	0	2040	1904	3815	79
108	0	0	2048	1905	3815	79
109	0	0	2058	1905	3815	79
110	0	0	2059	1906	3815	79
111	0	0	2063	1904	3815	80
112	0	0	2066	1905	3818	80
113	0	0	2069	1904	3816	84
114	0	0	2070	1905	3815	79
115	0	0	2073	1905	3816	79
116	0	0	2068	1904	3815	80
117	0	0	2066	1905	3817	79
118	0	0	2067	1905	3817	82
119	0	0	2060	1905	3818	79
120	0	0	2052	1905	3815	79
121	0	0	2049	1905	3815	77
122	0	0	2048	1906	3815	79
123	0	0	2041	1906	3816	80
124	0	0	2035	1901	3815	79
125	0	0	2034	1904	3815	79
126	0	0	2043	1905	3815	80
127	0	0	2046	1905	3815	77
0	0	0	2052	1905	3816	79
1	0	0	2056	1905	3815	79
2	0	0	2059	1905	3817	80
3	0	0	2065	1905	3818	80
4	0	0	2071	1906	3817	80
5	0	0	2072	1906	3816	80
6	0	0	2073	1905	3815	77
7	0	0	2075	1906	3815	79
8	0	0	2074	1905	3817	79
9	0	0	2072	1906	3817	79
10	0	0	2062	1905	3816	84
11	0	0	2054	1906	3816	79
12	0	0	2045	1904	3815	79
13	0	0	2044	1905	3809	79
14	0	0	2041	1906	3816	79
15	0	0	2042	1906	3815	80
16	0	0	2037	1905	3814	79
17	0	0	2033	1906	3815	79
18	0	0	2037	1907	3815	80
19	0	0	2040	1907	3816	79
20	0	0	2048	1904	3816	79
21	0	0	2049	1905	3816	80
22	0	0	2054	1905	3816	80
23	0	0	2061	1907	3815	81
24	0	0	2065	1907	3816	80
25	0	0	2071	1906	3816	79
26	0	0	2074	1905	3816	79
27	0	0	2070	1906	3816	79
28	0	0	2069	1903	3813	79
29	0	0	2070	1907	3816	79
30	0	0	2068	1906	3815	82
31	0	0	2062	1906	3816	79
32	0	0	2050	1906	3815	79
33	0	0	2044	1906	3815	77
34	0	0	2040	1905	3816	79
35	0	0	2032	1906	3816	75
36	0	0	2029	1904	3816	79
37	0	0	2032	1906	3816	79
38	0	0	2037	1903	3813	79
39	0	0	2044	1906	3816	79
40	0	0	2049	1906	3816	79
41	0	0	2052	1905	3816	79
42	0	0	2057	1905	3816	79
43	0	0	2065	1906	3815	80
44	0	0	2070	1907	3816	79
45	0	0	2072	1906	3814	79
46	0	0	2067	1906	3816	79
47	0	0	2067	1906	3815	79
48	0	0	2064	1905	3814	80
49	0	0	2058	1906	3816	79
50	0	0	2053	1906	3816	79
51	0	0	2048	1907	3818	79
52	0	0	2049	1905	3817	80
53	0	0	2040	1904	3813	79
54	0	0	2044	1907	3816	79
55	0	0	2043	1905	3816	80
56	0	0	2038	1906	3816	80
57	0	0	2039	1905	3816	79
58	0	0	2037	1905	3813	79
59	0	0	2037	1905	3816	80
60	0	0	2046	1906	3816	81
61	0	0	2055	1905	3816	80
62	0	0	2061	1905	3816	79
63	0	0	2060	1906	3815	80
64	0	0	2063	1907	3816	80
65	0	0	2070	1906	3816	76
66	0	0	2073	1905	3816	79
67	0	0	2078	1905	3816	79
68	0	0	2075	1907	3815	80
69	0	0	2065	1904	3816	80
70	0	0	2064	1906	3816	75
71	0	0	2060	1905	3816	80
72	0	0	2053	1905	3816	79
73	0	0	2049	1906	3817	80
74	0	0	2044	1906	3816	79
75	0	0	2034	1905	3816	76
76	0	0	2032	1906	3815	79
77	0	0	2033	1905	3816	79
78	0	0	2033	1907	3815	80
79	0	0	2038	1904	3816	80
80	0	0	2046	1906	3815	74
81	0	0	2049	1906	3816	80
82	0	0	2053	1906	3815	80
83	0	0	2060	1907	3815	79
84	0	0	2066	1906	3814	80
85	0	0	2072	1907	3815	79
86	0	0	2073	1906	3816	80
87	0	0	2074	1906	3815	79
88	0	0	2072	1906	3816	80
89	0	0	2065	1903	3816	79
90	0	0	2066	1907	3817	79
91	0	0	2064	1906	3816	80
92	0	0	2056	1906	3814	77
93	0	0	2046	1905	3816	84
94	0	0	2045	1905	3816	79
95	0	0	2036	1907	3815	79
96	0	0	2033	1905	3815	80
97	0	0	2033	1906	3816	79
98	0	0	2037	1904	3813	79
99	0	0	2038	1905	3816	79
100	0	0	2045	1906	3816	79
101	0	0	2045	1906	3819	79
102	0	0	2050	1906	3816	78
103	0	0	2056	1906	3816	79
104	0	0	2062	1904	3816	80
105	0	0	2066	1906	3816	79
106	0	0	2070	1906	3817	79
107	0	0	2076	1907	3816	80
108	0	0	2076	1907	3816	79
109	0	0	2072	1905	3816	79
110	0	0	2062	1906	3816	77
111	0	0	2053	1906	3815	79
112	0	0	2042	1906	3815	79
113	0	0	2033	1906	3815	79
114	0	0	2029	1903	3815	79
115	0	0	2027	1907	3817	79
116	0	0	2025	1906	3816	80
117	0	0	2024	1907	3816	79
118	0	0	2025	1906	3816	79
119	0	0	2029	1904	3817	79
120	0	0	2035	1907	3816	79
121	0	0	2046	1906	3817	79
122	0	0	2054	1906	3816	79
123	0	0	2055	1906	3817	77
124	0	0	2062	1904	3815	79
125	0	0	2066	1905	3816	80
126	0	0	2069	1907	3816	80
127	0	0	2063	1906	3815	79
0	0	0	2063	1906	3816	82
1	0	0	2060	1903	3817	78
2	0	0	2058	1907	3815	79
3	0	0	2057	1905	3815	79
4	0	0	2048	1906	3816	79
5	0	0	2043	1907	3816	79
6	0	0	2038	1903	3816	79
7	0	0	2030	1906	3816	79
8	0	0	2024	1906	3815	79
9	0	0	2027	1905	3816	79
10	0	0	2032	1907	3817	79
11	0	0	2037	1905	3817	80
12	0	0	2041	1905	3817	80
13	0	0	2053	1907	3817	80
14	0	0	2057	1907	3815	80
15	0	0	2059	1906	3816	82
16	0	0	2063	1905	3815	80
17	0	0	2064	1908	3815	80
18	0	0	2068	1906	3815	78
19	0	0	2072	1906	3815	79
20	0	0	2072	1906	3815	79
21	0	0	2065	1903	3815	79
22	0	0	2058	1907	3816	79
23	0	0	2045	1906	3816	80
24	0	0	2037	1907	3817	79
25	0	0	2033	1908	3816	79
26	0	0	2032	1905	3816	79
27	0	0	2026	1907	3817	79
28	0	0	2027	1906	3819	82
29	0	0	2031	1904	3815	79
30	0	0	2035	1906	3816	79
31	0	0	2041	1906	3815	79
32	0	0	2040	1906	3816	82
33	0	0	2048	1906	3815	80
34	0	0	2053	1906	3815	79
35	0	0	2061	1906	3815	80
36	0	0	2067	1907	3815	77
37	0	0	2072	1907	3816	79
38	0	0	2080	1907	3816	79
39	0	0	2076	1906	3815	80
40	0	0	2071	1906	3817	79
41	0	0	2064	1906	3815	79
42	0	0	2059	1907	3817	80
43	0	0	2054	1905	3815	80
44	0	0	2048	1907	3817	80
45	0	0	2043	1907	3817	78
46	0	0	2036	1904	3815	80
47	0	0	2032	1907	3816	80
48	0	0	2031	1906	3815	80
49	0	0	2037	1906	3815	79
50	0	0	2036	1907	3815	77
51	0	0	2037	1906	3815	77
52	0	0	2043	1907	3816	79
53	0	0	2049	1906	3816	79
54	0	0	2055	1907	3815	79
55	0	0	2062	1907	3817	79
56	0	0	2074	1905	3815	80
57	0	0	2083	1907	3817	82
58	0	0	2078	1906	3815	80
59	0	0	2074	1906	3815	79
60	0	0	2072	1906	3816	80
61	0	0	2068	1907	3816	80
62	0	0	2061	1907	3817	79
63	0	0	2052	1906	3816	80
64	0	0	2048	1907	3817	79
65	0	0	2043	1908	3816	77
66	0	0	2034	1905	3815	79
67	0	0	2027	1907	3816	77
68	0	0	2024	1906	3818	79
69	0	0	2032	1908	3815	80
70	0	0	2036	1907	3817	78
71	0	0	2045	1906	3813	79
72	0	0	2055	1907	3816	82
73	0	0	2059	1906	3815	80
74	0	0	2057	1905	3815	80
75	0	0	2062	1905	3815	79
76	0	0	2066	1907	3815	80
77	0	0	2079	1907	3817	79
78	0	0	2086	1907	3816	82
79	0	0	2085	1905	3815	79
80	0	0	2081	1905	3815	79
81	0	0	2073	1908	3816	80
82	0	0	2067	1907	3816	82
83	0	0	2053	1906	3815	80
84	0	0	2052	1907	3816	79
85	0	0	2048	1907	3815	78
86	0	0	2042	1907	3815	79
87	0	0	2036	1906	3816	79
88	0	0	2032	1907	3816	82
89	0	0	2031	1906	3815	79
90	0	0	2034	1906	3816	80
91	0	0	2043	1907	3816	79
92	0	0	2059	1907	3816	79
93	0	0	2062	1908	3817	80
94	0	0	2068	1908	3816	79
95	0	0	2075	1907	3815	80
96	0	0	2078	1906	3813	79
97	0	0	2085	1907	3817	79
98	0	0	2085	1907	3815	82
99	0	0	2077	1906	3815	79
100	0	0	2075	1905	3815	79
101	0	0	2070	1908	3816	82
102	0	0	2071	1907	3816	79
103	0	0	2064	1907	3815	82
104	0	0	2049	1907	3816	79
105	0	0	2041	1908	3815	79
106	0	0	2035	1905	3815	79
107	0	0	2028	1907	3817	79
108	0	0	2027	1906	3813	80
109	0	0	2030	1903	3815	79
110	0	0	2036	1907	3817	80
111	0	0	2044	1908	3816	79
112	0	0	2051	1907	3817	80
113	0	0	2061	1906	3816	83
114	0	0	2065	1906	3815	80
115	0	0	2071	1906	3815	79
116	0	0	2080	1908	3816	80
117	0	0	2092	1907	3815	82
118	0	0	2086	1907	3815	79
119	0	0	2080	1907	3815	80
120	0	0	2078	1907	3814	79
121	0	0	2067	1907	3815	79
122	0	0	2059	1906	3816	80
123	0	0	2054	1907	3816	80
124	0	0	2049	1907	3815	79
125	0	0	2042	1906	3815	81
126	0	0	2036	1905	3816	79
127	0	0	2028	1907	3816	79
0	0	0	2028	1906	3816	82
1	0	0	2031	1908	3816	79
2	0	0	2043	1907	3815	79
3	0	0	2048	1908	3816	80
4	0	0	2056	1907	3815	80
5	0	0	2064	1906	3815	79
6	0	0	2069	1907	3816	79
7	0	0	2072	1907	3815	79
8	0	0	2076	1906	3815	79
9	0	0	2082	1906	3816	79
10	0	0	2086	1907	3815	82
11	0	0	2082	1907	3815	80
12	0	0	2075	1908	3815	79
13	0	0	2069	1908	3816	82
14	0	0	2062	1907	3816	80
15	0	0	2055	1906	3816	79
16	0	0	2045	1907	3816	81
17	0	0	2039	1907	3816	79
18	0	0	2033	1903	3815	79
19	0	0	2032	1908	3816	81
20	0	0	2026	1906	3815	81
21	0	0	2035	1906	3813	79
22	0	0	2036	1907	3815	79
23	0	0	2040	1906	3816	84
24	0	0	2051	1907	3815	79
25	0	0	2060	1907	3815	79
26	0	0	2073	1907	3816	79
27	0	0	2083	1907	3815	80
28	0	0	2084	1906	3816	79
29	0	0	2091	1905	3816	81
30	0	0	2091	1907	3816	79
31	0	0	2084	1907	3815	79
32	0	0	2081	1908	3816	79
33	0	0	2072	1907	3817	84
34	0	0	2063	1908	3819	80
35	0	0	2063	1907	3816	80
36	0	0	2057	1907	3815	79
37	0	0	2042	1907	3816	79
38	0	0	2035	1907	3816	79
39	0	0	2026	1907	3815	79
40	0	0	2024	1907	3816	79
41	0	0	2028	1907	3815	79
42	0	0	2036	1907	3815	77
43	0	0	2044	1907	3816	79
44	0	0	2054	1903	3816	80
45	0	0	2068	1907	3816	79
46	0	0	2073	1907	3815	79
47	0	0	2076	1907	3816	79
48	0	0	2085	1908	3816	80
49	0	0	2092	1907	3816	80
50	0	0	2097	1908	3817	80
51	0	0	2089	1908	3816	80
52	0	0	2080	1906	3815	81
53	0	0	2073	1908	3816	78
54	0	0	2063	1907	3816	80
55	0	0	2062	1908	3815	80
56	0	0	2048	1907	3815	79
57	0	0	2038	1908	3815	79
58	0	0	2029	1906	3815	79
59	0	0	2026	1906	3815	80
60	0	0	2023	1906	3815	79
61	0	0	2037	1907	3814	80
62	0	0	2039	1906	3815	79
63	0	0	2042	1907	3816	79
64	0	0	2051	1907	3816	79
65	0	0	2062	1907	3816	80
66	0	0	2073	1907	3817	79
67	0	0	2080	1908	3816	79
68	0	0	2083	1907	3816	80
69	0	0	2090	1908	3816	79
70	0	0	2092	1907	3815	78
71	0	0	2092	1907	3815	79
72	0	0	2084	1907	3815	78
73	0	0	2075	1908	3816	77
74	0	0	2062	1907	3815	80
75	0	0	2058	1906	3815	80
76	0	0	2052	1908	3816	79
77	0	0	2040	1908	3816	79
78	0	0	2036	1906	3817	79
79	0	0	2028	1906	3816	80
80	0	0	2025	1907	3815	80
81	0	0	2029	1909	3817	79
82	0	0	2038	1908	3814	80
83	0	0	2048	1907	3816	80
84	0	0	2056	1908	3818	80
85	0	0	2063	1907	3816	80
86	0	0	2068	1907	3816	79
87	0	0	2079	1908	3814	79
88	0	0	2085	1908	3815	78
89	0	0	2093	1907	3814	80
90	0	0	2095	1907	3815	80
91	0	0	2093	1908	3816	79
92	0	0	2083	1907	3815	77
93	0	0	2072	1905	3816	79
94	0	0	2061	1906	3816	80
95	0	0	2056	1908	3817	79
96	0	0	2045	1905	3815	79
97	0	0	2034	1907	3815	79
98	0	0	2032	1908	3816	79
99	0	0	2022	1908	3817	79
100	0	0	2017	1907	3816	80
101	0	0	2023	1906	3815	79
102	0	0	2030	1907	3815	77
103	0	0	2040	1905	3816	80
104	0	0	2048	1906	3816	79
105	0	0	2059	1907	3816	80
106	0	0	2065	1909	3814	78
107	0	0	2067	1907	3815	79
108	0	0	2080	1905	3815	79
109	0	0	2090	1909	3815	81
110	0	0	2087	1907	3815	80
111	0	0	2088	1909	3814	79
112	0	0	2082	1907	3815	79
113	0	0	2076	1907	3818	80
114	0	0	2067	1907	3817	79
115	0	0	2057	1907	3816	80
116	0	0	2045	1908	3815	80
117	0	0	2035	1907	3816	78
118	0	0	2032	1908	3817	80
119	0	0	2031	1907	3816	80
120	0	0	2035	1907	3815	80
121	0	0	2037	1906	3816	79
122	0	0	2040	1908	3814	80
123	0	0	2049	1908	3815	79
124	0	0	2057	1906	3816	80
125	0	0	2065	1907	3815	80
126	0	0	2067	1908	3815	80
127	0	0	2075	1907	3815	79
0	0	0	2083	1907	3817	79
1	0	0	2089	1907	3817	79
2	0	0	2092	1907	3815	79
3	0	0	2089	1908	3817	79
4	0	0	2083	1908	3814	80
5	0	0	2075	1907	3816	80
6	0	0	2067	1907	3816	79
7	0	0	2057	1907	3816	80
8	0	0	2046	1908	3815	79
9	0	0	2038	1908	3815	80
10	0	0	2032	1906	3816	80
11	0	0	2023	1907	3815	79
12	0	0	2020	1907	3814	79
13	0	0	2021	1908	3815	80
14	0	0	2039	1907	3818	79
15	0	0	2051	1905	3816	80
16	0	0	2060	1909	3816	80
17	0	0	2068	1907	3814	79
18	0	0	2074	1910	3815	79
19	0	0	2081	1908	3819	80
20	0	0	2085	1907	3817	80
21	0	0	2084	1908	3817	80
22	0	0	2082	1908	3817	80
23	0	0	2084	1908	3816	80
24	0	0	2080	1908	3816	80
25	0	0	2062	1907	3816	80
26	0	0	2062	1907	3817	79
27	0	0	2055	1907	3815	79
28	0	0	2045	1906	3815	79
29	0	0	2038	1907	3815	77
30	0	0	2040	1908	3815	79
31	0	0	2036	1908	3816	79
32	0	0	2032	1907	3814	80
33	0	0	2038	1908	3815	79
34	0	0	2045	1907	3816	79
35	0	0	2056	1907	3816	79
36	0	0	2055	1908	3816	80
37	0	0	2062	1908	3817	79
38	0	0	2067	1906	3816	80
39	0	0	2069	1907	3816	80
40	0	0	2075	1907	3817	80
41	0	0	2083	1908	3816	80
42	0	0	2089	1907	3815	79
43	0	0	2089	1907	3816	79
44	0	0	2085	1907	3816	80
45	0	0	2078	1908	3815	80
46	0	0	2067	1908	3816	79
47	0	0	2054	1907	3815	79
48	0	0	2044	1906	3815	79
49	0	0	2036	1905	3815	79
50	0	0	2025	1907	3815	79
51	0	0	2020	1909	3816	79
52	0	0	2026	1907	3816	79
53	0	0	2030	1908	3817	81
54	0	0	2037	1907	3817	82
55	0	0	2045	1908	3816	79
56	0	0	2058	1908	3817	79
57	0	0	2068	1907	3815	79
58	0	0	2077	1908	3815	80
59	0	0	2079	1907	3816	84
60	0	0	2083	1908	3816	82
61	0	0	2082	1908	3815	79
62	0	0	2088	1908	3816	80
63	0	0	2087	1909	3815	79
64	0	0	2083	1908	3815	80
65	0	0	2075	1907	3815	79
66	0	0	2075	1907	3816	80
67	0	0	2059	1906	3816	79
68	0	0	2052	1910	3817	79
69	0	0	2045	1908	3818	83
70	0	0	2040	1907	3815	79
71	0	0	2025	1907	3816	79
72	0	0	2022	1907	3816	79
73	0	0	2028	1907	3815	79
74	0	0	2032	1907	3816	82
75	0	0	2046	1905	3816	82
76	0	0	2060	1911	3815	80
77	0	0	2062	1910	3814	75
78	0	0	2066	1907	3815	80
79	0	0	2073	1906	3815	80
80	0	0	2074	1906	3815	79
81	0	0	2085	1908	3815	80
82	0	0	2087	1908	3815	79
83	0	0	2089	1907	3813	79
84	0	0	2086	1908	3816	79
85	0	0	2072	1907	3816	81
86	0	0	2062	1909	3816	80
87	0	0	2048	1907	3816	75
88	0	0	2037	1907	3816	79
89	0	0	2036	1907	3815	79
90	0	0	2032	1907	3815	80
91	0	0	2026	1909	3816	79
92	0	0	2024	1902	3814	79
93	0	0	2025	1907	3815	79
94	0	0	2030	1907	3816	79
95	0	0	2045	1906	3814	79
96	0	0	2059	1908	3815	79
97	0	0	2068	1907	3815	76
98	0	0	2078	1907	3815	79
99	0	0	2083	1907	3816	79
100	0	0	2084	1908	3815	79
101	0	0	2084	1909	3815	79
102	0	0	2086	1908	3816	80
103	0	0	2083	1907	3815	79
104	0	0	2077	1907	3816	79
105	0	0	2075	1908	3817	79
106	0	0	2067	1908	3817	80
107	0	0	2057	1908	3817	80
108	0	0	2046	1909	3815	79
109	0	0	2041	1907	3815	79
110	0	0	2038	1907	3817	79
111	0	0	2030	1906	3815	79
112	0	0	2029	1908	3816	79
113	0	0	2034	1905	3815	79
114	0	0	2040	1907	3815	79
115	0	0	2050	1908	3817	79
116	0	0	2054	1906	3816	80
117	0	0	2058	1907	3815	80
118	0	0	2065	1908	3815	80
119	0	0	2079	1907	3816	79
120	0	0	2086	1908	3815	79
121	0	0	2092	1906	3816	80
122	0	0	2091	1907	3815	76
123	0	0	2088	1909	3816	79
124	0	0	2080	1907	3816	79
125	0	0	2071	1908	3815	78
126	0	0	2058	1906	3814	79
127	0	0	2049	1907	3815	75
0	0	0	2040	1907	3816	79
1	0	0	2037	1908	3817	81
2	0	0	2031	1910	3814	79
3	0	0	2022	1908	3816	80
4	0	0	2023	1907	3815	75
5	0	0	2029	1907	3815	79
6	0	0	2040	1909	3815	79
7	0	0	2046	1908	3814	80
8	0	0	2053	1906	3817	79
9	0	0	2059	1908	3816	76
10	0	0	2066	1908	3816	79
11	0	0	2078	1907	3816	79
12	0	0	2079	1907	3815	79
13	0	0	2085	1907	3817	80
14	0	0	2088	1908	3815	78
15	0	0	2084	1908	3816	80
16	0	0	2073	1908	3817	81
17	0	0	2075	1908	3815	79
18	0	0	2068	1908	3816	79
19	0	0	2057	1907	3815	75
20	0	0	2045	1907	3816	80
21	0	0	2040	1906	3815	79
22	0	0	2035	1908	3815	78
23	0	0	2025	1906	3816	79
24	0	0	2025	1907	3815	79
25	0	0	2029	1907	3815	79
26	0	0	2033	1906	3817	79
27	0	0	2041	1908	3816	79
28	0	0	2052	1906	3817	79
29	0	0	2063	1908	3814	74
30	0	0	2070	1907	3816	80
31	0	0	2078	1907	3815	80
32	0	0	2084	1909	3816	79
33	0	0	2093	1908	3816	80
34	0	0	2098	1907	3815	80
35	0	0	2091	1908	3816	79
36	0	0	2086	1908	3817	81
37	0	0	2076	1908	3815	80
38	0	0	2065	1908	3816	79
39	0	0	2055	1907	3815	79
40	0	0	2052	1908	3815	80
41	0	0	2050	1907	3815	80
42	0	0	2041	1908	3815	80
43	0	0	2029	1906	3817	79
44	0	0	2024	1907	3816	80
45	0	0	2026	1907	3815	79
46	0	0	2033	1906	3815	80
47	0	0	2040	1908	3815	80
48	0	0	2048	1908	3816	80
49	0	0	2054	1907	3814	79
50	0	0	2066	1907	3815	79
51	0	0	2070	1908	3815	80
52	0	0	2075	1908	3816	79
53	0	0	2085	1903	3815	79
54	0	0	2091	1909	3816	79
55	0	0	2086	1908	3815	79
56	0	0	2088	1907	3815	77
57	0	0	2083	1908	3814	80
58	0	0	2072	1909	3816	79
59	0	0	2059	1907	3815	80
60	0	0	2051	1906	3815	79
61	0	0	2043	1908	3815	79
62	0	0	2033	1908	3816	80
63	0	0	2028	1908	3816	80
64	0	0	2027	1907	3815	80
65	0	0	2031	1907	3816	79
66	0	0	2037	1907	3817	81
67	0	0	2045	1908	3815	80
68	0	0	2056	1910	3816	80
69	0	0	2063	1907	3815	79
70	0	0	2069	1907	3815	79
71	0	0	2076	1909	3815	81
72	0	0	2084	1908	3815	79
73	0	0	2087	1909	3816	80
74	0	0	2086	1907	3816	80
75	0	0	2084	1907	3816	79
76	0	0	2083	1908	3815	79
77	0	0	2070	1907	3815	80
78	0	0	2058	1909	3817	79
79	0	0	2050	1907	3816	79
80	0	0	2044	1907	3815	79
81	0	0	2039	1908	3815	79
82	0	0	2031	1908	3815	79
83	0	0	2026	1910	3816	79
84	0	0	2025	1907	3815	79
85	0	0	2031	1907	3815	80
86	0	0	2036	1909	3814	80
87	0	0	2045	1907	3815	80
88	0	0	2051	1908	3816	79
89	0	0	2064	1907	3815	79
90	0	0	2072	1907	3816	80
91	0	0	2076	1908	3815	79
92	0	0	2082	1908	3816	79
93	0	0	2091	1910	3816	80
94	0	0	2097	1908	3817	79
95	0	0	2093	1909	3817	79
96	0	0	2094	1907	3815	79
97	0	0	2083	1908	3817	82
98	0	0	2071	1909	3815	79
99	0	0	2057	1907	3815	79
100	0	0	2045	1907	3815	79
101	0	0	2038	1908	3815	80
102	0	0	2034	1908	3816	79
103	0	0	2029	1908	3815	79
104	0	0	2027	1906	3815	80
105	0	0	2033	1906	3815	79
106	0	0	2038	1909	3815	79
107	0	0	2045	1908	3816	79
108	0	0	2058	1909	3816	79
109	0	0	2064	1908	3815	79
110	0	0	2069	1908	3817	79
111	0	0	2075	1907	3816	79
112	0	0	2077	1908	3817	80
113	0	0	2082	1907	3816	80
114	0	0	2084	1907	3815	79
115	0	0	2086	1907	3816	79
116	0	0	2081	1908	3815	80
117	0	0	2075	1908	3815	79
118	0	0	2069	1910	3816	79
119	0	0	2059	1907	3815	79
120	0	0	2050	1907	3815	80
121	0	0	2044	1908	3815	81
122	0	0	2045	1908	3815	79
123	0	0	2037	1907	3815	79
124	0	0	2032	1907	3814	79
125	0	0	2033	1907	3815	79
126	0	0	2039	1908	3815	79
127	0	0	2043	1908	3816	79
0	0	0	2054	1909	3816	80
1	0	0	2063	1907	3816	79
2	0	0	2067	1907	3815	79
3	0	0	2071	1907	3815	79
4	0	0	2079	1908	3813	79
5	0	0	2082	1909	3813	79
6	0	0	2079	1906	3820	80
7	0	0	2082	1905	3815	79
8	0	0	2078	1907	3815	80
9	0	0	2073	1907	3817	79
10	0	0	2069	1909	3816	80
11	0	0	2060	1907	3816	79
12	0	0	2051	1907	3816	79
13	0	0	2044	1907	3815	79
14	0	0	2036	1908	3816	79
15	0	0	2032	1906	3816	80
16	0	0	2035	1907	3815	80
17	0	0	2038	1907	3816	79
18	0	0	2044	1908	3816	76
19	0	0	2050	1908	3817	80
20	0	0	2053	1909	3817	79
21	0	0	2058	1907	3816	80
22	0	0	2065	1908	3814	78
23	0	0	2072	1907	3815	79
24	0	0	2077	1908	3817	54
25	0	0	2081	1908	3815	80
26	0	0	2085	1908	3815	80
27	0	0	2087	1907	3815	79
28	0	0	2076	1907	3816	79
29	0	0	2066	1908	3816	79
30	0	0	2057	1908	3816	79
31	0	0	2058	1906	3816	79
32	0	0	2052	1907	3816	79
33	0	0	2040	1907	3816	80
34	0	0	2033	1907	3816	77
35	0	0	2026	1908	3816	79
36	0	0	2029	1903	3814	79
37	0	0	2034	1907	3815	82
38	0	0	2037	1908	3815	80
39	0	0	2046	1908	3816	79
40	0	0	2050	1907	3816	80
41	0	0	2057	1907	3815	80
42	0	0	2066	1908	3815	79
43	0	0	2068	1908	3815	80
44	0	0	2075	1908	3816	77
45	0	0	2081	1908	3813	79
46	0	0	2076	1908	3814	79
47	0	0	2074	1908	3815	79
48	0	0	2072	1907	3816	80
49	0	0	2072	1908	3816	80
50	0	0	2065	1908	3817	80
51	0	0	2057	1907	3815	80
52	0	0	2046	1907	3817	79
53	0	0	2039	1907	3813	80
54	0	0	2033	1908	3816	79
55	0	0	2031	1908	3816	79
56	0	0	2028	1906	3814	79
57	0	0	2033	1907	3816	79
58	0	0	2036	1908	3814	80
59	0	0	2048	1908	3816	80
60	0	0	2057	1908	3817	80
61	0	0	2059	1907	3815	80
62	0	0	2059	1907	3818	80
63	0	0	2060	1907	3815	80
64	0	0	2067	1907	3818	80
65	0	0	2073	1907	3815	79
66	0	0	2077	1907	3816	80
67	0	0	2078	1907	3815	80
68	0	0	2077	1907	3816	80
69	0	0	2073	1908	3816	79
70	0	0	2064	1907	3815	80
71	0	0	2056	1907	3815	80
72	0	0	2050	1907	3816	79
73	0	0	2043	1906	3816	81
74	0	0	2040	1907	3816	79
75	0	0	2033	1907	3814	79
76	0	0	2032	1907	3815	79
77	0	0	2034	1907	3817	79
78	0	0	2035	1907	3815	79
79	0	0	2037	1907	3818	80
80	0	0	2044	1907	3816	79
81	0	0	2052	1907	3816	80
82	0	0	2054	1907	3816	79
83	0	0	2060	1906	3817	80
84	0	0	2070	1908	3817	79
85	0	0	2082	1907	3816	80
86	0	0	2086	1907	3815	79
87	0	0	2088	1906	3816	79
88	0	0	2082	1907	3816	79
89	0	0	2074	1909	3818	80
90	0	0	2064	1907	3815	79
91	0	0	2057	1906	3815	79
92	0	0	2050	1907	3816	79
93	0	0	2049	1906	3816	79
94	0	0	2046	1906	3814	76
95	0	0	2040	1907	3815	79
96	0	0	2039	1907	3815	79
97	0	0	2038	1907	3816	79
98	0	0	2039	1906	3816	81
99	0	0	2043	1908	3815	80
100	0	0	2051	1907	3816	80
101	0	0	2056	1906	3813	80
102	0	0	2066	1907	3817	79
103	0	0	2073	1908	3816	77
104	0	0	2073	1908	3817	80
105	0	0	2073	1909	3816	80
106	0	0	2072	1907	3815	79
107	0	0	2071	1907	3816	79
108	0	0	2073	1908	3813	80
109	0	0	2072	1907	3815	79
110	0	0	2067	1907	3816	79
111	0	0	2059	1907	3815	81
112	0	0	2052	1907	3815	79
113	0	0	2045	1907	3816	80
114	0	0	2042	1907	3818	80
115	0	0	2036	1907	3816	79
116	0	0	2033	1907	3815	79
117	0	0	2037	1906	3815	79
118	0	0	2041	1906	3816	79
119	0	0	2046	1907	3815	80
120	0	0	2048	1908	3817	80
121	0	0	2049	1907	3815	80
122	0	0	2048	1908	3816	79
123	0	0	2058	1908	3816	79
124	0	0	2071	1907	3815	79
125	0	0	2080	1907	3814	79
126	0	0	2083	1907	3815	79
127	0	0	2079	1907	3815	80
0	0	0	2072	1905	3815	80
1	0	0	2061	1907	3815	79
2	0	0	2055	1906	3816	79
3	0	0	2046	1906	3816	80
4	0	0	2042	1907	3815	79
5	0	0	2039	1907	3815	78
6	0	0	2036	1907	3815	80
7	0	0	2031	1907	3815	80
8	0	0	2032	1907	3816	80
9	0	0	2036	1906	3814	79
10	0	0	2037	1907	3815	78
11	0	0	2041	1907	3815	79
12	0	0	2044	1907	3817	79
13	0	0	2052	1907	3815	79
14	0	0	2056	1908	3815	79
15	0	0	2058	1909	3814	78
16	0	0	2066	1908	3817	80
17	0	0	2070	1907	3815	79
18	0	0	2073	1907	3815	79
19	0	0	2070	1907	3815	79
20	0	0	2066	1907	3815	79
21	0	0	2064	1908	3817	80
22	0	0	2058	1905	3817	80
23	0	0	2055	1907	3817	79
24	0	0	2048	1907	3815	80
25	0	0	2041	1907	3816	79
26	0	0	2039	1907	3815	80
27	0	0	2034	1907	3816	80
28	0	0	2028	1906	3814	79
29	0	0	2027	1907	3816	79
30	0	0	2029	1906	3815	80
31	0	0	2036	1907	3815	80
32	0	0	2040	1906	3817	79
33	0	0	2041	1906	3815	79
34	0	0	2050	1906	3815	80
35	0	0	2060	1908	3815	77
36	0	0	2070	1907	3815	79
37	0	0	2074	1907	3817	80
38	0	0	2081	1907	3815	80
39	0	0	2076	1907	3815	79
40	0	0	2077	1907	3816	79
41	0	0	2072	1907	3817	79
42	0	0	2059	1906	3816	79
43	0	0	2054	1907	3816	79
44	0	0	2040	1908	3815	79
45	0	0	2042	1906	3815	79
46	0	0	2033	1906	3813	80
47	0	0	2025	1904	3815	79
48	0	0	2024	1905	3815	79
49	0	0	2028	1908	3814	79
50	0	0	2032	1909	3815	78
51	0	0	2034	1908	3815	80
52	0	0	2042	1906	3817	80
53	0	0	2051	1906	3816	79
54	0	0	2057	1907	3816	80
55	0	0	2058	1907	3818	77
56	0	0	2060	1906	3815	80
57	0	0	2066	1906	3817	80
58	0	0	2071	1908	3816	79
59	0	0	2067	1907	3815	79
60	0	0	2069	1907	3815	79
61	0	0	2065	1907	3815	80
62	0	0	2061	1906	3816	80
63	0	0	2049	1909	3815	80
64	0	0	2039	1908	3814	79
65	0	0	2033	1908	3814	78
66	0	0	2028	1908	3814	80
67	0	0	2021	1905	3816	79
68	0	0	2019	1903	3816	79
69	0	0	2025	1906	3815	80
70	0	0	2033	1908	3815	80
71	0	0	2041	1907	3815	80
72	0	0	2048	1907	3818	79
73	0	0	2051	1907	3815	80
74	0	0	2056	1907	3817	80
75	0	0	2061	1907	3816	76
76	0	0	2065	1906	3812	82
77	0	0	2074	1906	3817	79
78	0	0	2075	1907	3815	80
79	0	0	2069	1907	3815	79
80	0	0	2068	1908	3815	77
81	0	0	2060	1907	3813	80
82	0	0	2048	1908	3816	80
83	0	0	2038	1906	3815	79
84	0	0	2021	1905	3815	79
85	0	0	2015	1908	3815	80
86	0	0	2007	1906	3816	80
87	0	0	1998	1907	3816	79
88	0	0	1998	1907	3816	79
89	0	0	2008	1906	3816	80
90	0	0	2029	1907	3816	77
91	0	0	2044	1904	3816	79
92	0	0	2042	1906	3816	80
93	0	0	2043	1906	3815	79
94	0	0	2054	1907	3815	80
95	0	0	2066	1908	3815	80
96	0	0	2075	1907	3814	80
97	0	0	2086	1906	3815	80
98	0	0	2090	1906	3815	79
99	0	0	2084	1907	3815	79
100	0	0	2081	1907	3815	79
101	0	0	2074	1907	3816	79
102	0	0	2061	1906	3818	79
103	0	0	2050	1906	3816	79
104	0	0	2038	1906	3816	79
105	0	0	2033	1908	3815	80
106	0	0	2029	1906	3816	79
107	0	0	2018	1906	3817	79
108	0	0	2017	1903	3816	79
109	0	0	2018	1906	3815	80
110	0	0	2026	1906	3815	79
111	0	0	2031	1907	3816	79
112	0	0	2037	1906	3818	80
113	0	0	2054	1907	3815	80
114	0	0	2071	1907	3815	80
115	0	0	2085	1907	3815	79
116	0	0	2089	1907	3816	79
117	0	0	2104	1906	3818	79
118	0	0	2104	1906	3815	80
119	0	0	2103	1907	3815	79
120	0	0	2095	1906	3817	79
121	0	0	2082	1906	3816	80
122	0	0	2067	1905	3817	79
123	0	0	2053	1906	3816	75
124	0	0	2043	1905	3817	79
125	0	0	2035	1907	3816	78
126	0	0	2033	1906	3816	80
127	0	0	2023	1907	3816	79
0	0	0	2018	1906	3815	79
1	0	0	2026	1905	3817	80
2	0	0	2034	1907	3816	78
3	0	0	2044	1907	3815	76
4	0	0	2055	1907	3817	80
5	0	0	2067	1906	3815	79
6	0	0	2075	1905	3816	79
7	0	0	2088	1907	3816	77
8	0	0	2097	1907	3816	80
9	0	0	2104	1906	3816	80
10	0	0	2103	1907	3815	79
11	0	0	2098	1906	3815	79
12	0	0	2091	1906	3815	80
13	0	0	2084	1906	3816	79
14	0	0	2073	1906	3815	79
15	0	0	2063	1907	3817	79
16	0	0	2049	1906	3814	79
17	0	0	2037	1906	3815	78
18	0	0	2030	1906	3816	80
19	0	0	2024	1904	3815	78
20	0	0	2023	1906	3814	79
21	0	0	2025	1905	3816	81
22	0	0	2034	1906	3816	79
23	0	0	2044	1907	3815	78
24	0	0	2050	1906	3816	78
25	0	0	2063	1906	3815	80
26	0	0	2069	1905	3816	79
27	0	0	2075	1906	3816	81
28	0	0	2087	1906	3816	79
29	0	0	2100	1905	3815	80
30	0	0	2100	1906	3815	80
31	0	0	2095	1906	3815	79
32	0	0	2084	1907	3816	78
33	0	0	2070	1906	3815	77
34	0	0	2060	1907	3816	79
35	0	0	2045	1906	3815	80
36	0	0	2038	1906	3813	79
37	0	0	2031	1907	3815	77
38	0	0	2022	1907	3812	79
39	0	0	2023	1906	3816	80
40	0	0	2026	1906	3815	79
41	0	0	2033	1906	3815	79
42	0	0	2036	1907	3815	77
43	0	0	2048	1907	3819	80
44	0	0	2060	1906	3815	79
45	0	0	2074	1908	3814	79
46	0	0	2080	1905	3815	80
47	0	0	2083	1907	3815	80
48	0	0	2104	1907	3816	78
49	0	0	2114	1906	3814	79
50	0	0	2116	1907	3816	79
51	0	0	2107	1907	3814	79
52	0	0	2093	1907	3815	79
53	0	0	2077	1905	3816	79
54	0	0	2059	1904	3815	80
55	0	0	2043	1905	3815	79
56	0	0	2030	1905	3815	79
57	0	0	2019	1907	3815	80
58	0	0	2016	1906	3818	80
59	0	0	2008	1906	3815	79
60	0	0	2013	1906	3818	80
61	0	0	2022	1906	3815	79
62	0	0	2028	1907	3815	80
63	0	0	2038	1906	3816	79
64	0	0	2041	1905	3815	79
65	0	0	2058	1906	3815	79
66	0	0	2074	1906	3815	80
67	0	0	2079	1906	3815	79
68	0	0	2103	1906	3816	79
69	0	0	2112	1904	3815	78
70	0	0	2092	1903	3816	79
71	0	0	2067	1905	3813	79
72	0	0	2057	1907	3815	80
73	0	0	2058	1906	3814	79
74	0	0	2047	1905	3818	79
75	0	0	2033	1905	3815	80
76	0	0	2023	1906	3816	79
77	0	0	2014	1905	3818	80
78	0	0	2007	1905	3816	78
79	0	0	1999	1907	3816	79
80	0	0	2001	1905	3815	79
81	0	0	2015	1907	3815	79
82	0	0	2027	1906	3817	76
83	0	0	2043	1905	3815	80
84	0	0	2051	1906	3815	80
85	0	0	2067	1905	3815	79
86	0	0	2081	1905	3815	80
87	0	0	2088	1906	3815	80
88	0	0	2097	1906	3815	80
89	0	0	2118	1906	3815	80
90	0	0	2121	1907	3815	80
91	0	0	2112	1906	3815	80
92	0	0	2101	1905	3817	80
93	0	0	2081	1904	3819	80
94	0	0	2061	1904	3817	79
95	0	0	2045	1905	3817	79
96	0	0	2034	1905	3814	80
97	0	0	2019	1906	3815	80
98	0	0	2016	1906	3816	79
99	0	0	2005	1909	3811	80
100	0	0	2006	1906	3815	79
101	0	0	2018	1907	3814	80
102	0	0	2023	1905	3817	80
103	0	0	2028	1906	3814	78
104	0	0	2043	1905	3815	79
105	0	0	2060	1906	3814	80
106	0	0	2077	1907	3814	79
107	0	0	2082	1905	3816	80
108	0	0	2099	1906	3815	80
109	0	0	2106	1906	3813	80
110	0	0	2107	1906	3815	78
111	0	0	2101	1908	3816	80
112	0	0	2089	1906	3817	80
113	0	0	2065	1905	3815	77
114	0	0	2048	1904	3815	79
115	0	0	2032	1905	3816	79
116	0	0	2021	1907	3816	80
117	0	0	2014	1906	3812	79
118	0	0	2008	1906	3814	77
119	0	0	1997	1905	3816	79
120	0	0	1996	1905	3814	79
121	0	0	2001	1907	3814	79
122	0	0	2010	1906	3815	80
123	0	0	2026	1906	3817	77
124	0	0	2046	1906	3817	79
125	0	0	2069	1906	3815	79
126	0	0	2085	1905	3816	80
127	0	0	2095	1905	3818	80
0	0	0	2103	1906	3815	77
1	0	0	2122	1907	3816	79
2	0	0	2128	1906	3815	79
3	0	0	2119	1906	3815	79
4	0	0	2099	1905	3816	80
5	0	0	2076	1904	3815	79
6	0	0	2052	1903	3816	79
7	0	0	2036	1905	3815	79
8	0	0	2018	1904	3815	79
9	0	0	2013	1905	3816	80
10	0	0	2003	1905	3815	80
11	0	0	1994	1906	3816	80
12	0	0	2001	1905	3815	80
13	0	0	2012	1905	3815	79
14	0	0	2022	1905	3818	80
15	0	0	2033	1905	3816	79
16	0	0	2053	1905	3817	80
17	0	0	2072	1906	3817	80
18	0	0	2086	1905	3818	81
19	0	0	2097	1906	3815	79
20	0	0	2112	1906	3816	80
21	0	0	2123	1908	3818	79
22	0	0	2122	1907	3815	80
23	0	0	2114	1907	3815	80
24	0	0	2101	1904	3817	80
25	0	0	2076	1903	3815	79
26	0	0	2051	1903	3817	79
27	0	0	2033	1905	3815	79
28	0	0	2027	1906	3815	80
29	0	0	2017	1905	3815	78
30	0	0	2004	1905	3814	79
31	0	0	1994	1906	3817	80
32	0	0	1990	1904	3815	79
33	0	0	2003	1905	3815	79
34	0	0	2020	1905	3817	80
35	0	0	2040	1905	3816	79
36	0	0	2065	1905	3817	80
37	0	0	2080	1906	3815	79
38	0	0	2089	1905	3816	77
39	0	0	2096	1906	3816	79
40	0	0	2105	1905	3813	79
41	0	0	2121	1905	3816	79
42	0	0	2122	1905	3815	79
43	0	0	2109	1905	3815	79
44	0	0	2097	1904	3815	80
45	0	0	2069	1903	3816	79
46	0	0	2048	1903	3816	77
47	0	0	2030	1903	3814	80
48	0	0	2012	1904	3816	79
49	0	0	2005	1905	3815	80
50	0	0	1992	1905	3816	79
51	0	0	1978	1904	3818	82
52	0	0	1981	1903	3816	79
53	0	0	1995	1905	3815	79
54	0	0	2003	1905	3815	80
55	0	0	2015	1905	3813	79
56	0	0	2034	1905	3813	79
57	0	0	2054	1904	3815	80
58	0	0	2063	1905	3815	80
59	0	0	2099	1905	3813	80
60	0	0	2106	1905	3813	79
61	0	0	2122	1904	3818	82
62	0	0	2112	1903	3815	79
63	0	0	2093	1904	3815	80
64	0	0	2070	1902	3815	80
65	0	0	2028	1902	3814	79
66	0	0	1997	1902	3814	79
67	0	0	1978	1904	3817	79
68	0	0	1961	1904	3816	80
69	0	0	1948	1904	3815	80
70	0	0	1937	1904	3816	79
71	0	0	1923	1904	3814	80
72	0	0	1936	1905	3815	80
73	0	0	1965	1905	3816	81
74	0	0	1994	1905	3815	80
75	0	0	2035	1906	3817	80
76	0	0	2068	1904	3814	80
77	0	0	2107	1905	3817	80
78	0	0	2133	1903	3816	79
79	0	0	2156	1906	3816	80
80	0	0	2181	1906	3818	80
81	0	0	2216	1905	3814	79
82	0	0	2211	1904	3817	80
83	0	0	2173	1904	3816	79
84	0	0	2134	1902	3814	79
85	0	0	2076	1902	3816	79
86	0	0	2022	1901	3814	79
87	0	0	1985	1902	3815	79
88	0	0	1954	1902	3815	79
89	0	0	1925	1902	3816	79
90	0	0	1900	1901	3815	79
91	0	0	1852	1901	3813	79
92	0	0	1869	1904	3815	80
93	0	0	1987	1904	3815	80
94	0	0	1994	1904	3814	79
95	0	0	2082	1905	3815	79
96	0	0	2189	1904	3814	80
97	0	0	2351	1904	3815	79
98	0	0	2547	1905	3816	80
99	0	0	2733	1905	3816	79
100	0	0	2849	1904	3815	76
101	0	0	3178	1904	3814	79
102	0	0	3455	1904	3815	79
103	0	0	3486	1905	3815	80
104	0	0	3407	1899	3812	79
105	0	0	3119	1900	3815	77
106	0	0	2748	1898	3812	80
107	0	0	2382	1899	3815	80
108	0	0	2070	1900	3815	79
109	0	0	1812	1899	3815	79
110	0	0	1593	1900	3815	79
111	0	0	1374	1900	3816	79
112	0	0	1210	1900	3815	79
113	0	0	1191	1903	3816	80
114	0	0	1261	1905	3816	80
115	0	0	1414	1903	3816	77
116	0	0	1687	1904	3817	79
117	0	0	2018	1905	3815	79
118	0	0	2352	1904	3817	80
119	0	0	2635	1904	3816	82
120	0	0	2853	1905	3815	80
121	0	0	3151	1904	3815	79
122	0	0	3310	1904	3814	79
123	0	0	3227	1900	3815	80
124	0	0	3014	1899	3816	80
125	0	0	2659	1900	3815	79
126	0	0	2236	1898	3814	79
127	0	0	1847	1899	3815	79
0	0	0	1523	1899	3816	79
1	0	0	1277	1899	3812	79
2	0	0	1102	1899	3816	80
3	0	0	921	1899	3815	79
4	0	0	857	1903	3815	80
5	0	0	947	1903	3816	79
6	0	0	1115	1903	3815	79
7	0	0	1403	1904	3815	77
8	0	0	1729	1904	3814	81
9	0	0	2050	1904	3815	80
10	0	0	2441	1904	3815	80
11	0	0	2738	1905	3815	79
12	0	0	2942	1903	3815	77
13	0	0	3222	1905	3815	79
14	0	0	3354	1904	3815	79
15	0	0	3248	1899	3817	80
16	0	0	3019	1899	3816	81
17	0	0	2653	1899	3816	80
18	0	0	2228	1898	3815	79
19	0	0	1843	1899	3817	79
20	0	0	1533	1895	3818	79
21	0	0	1303	1899	3815	79
22	0	0	1137	1899	3817	80
23	0	0	973	1899	3815	80
24	0	0	936	1905	3813	80
25	0	0	1097	1903	3816	79
26	0	0	1353	1903	3812	79
27	0	0	1600	1903	3815	80
28	0	0	1814	1903	3815	79
29	0	0	1985	1904	3815	80
30	0	0	2116	1904	3815	79
31	0	0	2207	1904	3816	79
32	0	0	2264	1904	3814	80
33	0	0	2346	1904	3815	77
34	0	0	2351	1902	3815	79
35	0	0	2296	1900	3815	79
36	0	0	2216	1899	3815	79
37	0	0	2098	1900	3817	79
38	0	0	1985	1900	3815	79
39	0	0	1902	1900	3815	79
40	0	0	1847	1900	3817	80
41	0	0	1811	1901	3815	77
42	0	0	1791	1900	3816	80
43	0	0	1759	1901	3815	79
44	0	0	1781	1903	3815	79
45	0	0	1821	1903	3815	79
46	0	0	1896	1904	3816	82
47	0	0	1984	1904	3816	84
48	0	0	2062	1903	3815	78
49	0	0	2135	1904	3815	80
50	0	0	2206	1905	3815	81
51	0	0	2227	1905	3815	79
52	0	0	2242	1906	3817	80
53	0	0	2288	1904	3814	80
54	0	0	2266	1901	3816	79
55	0	0	2200	1899	3818	80
56	0	0	2124	1899	3816	80
57	0	0	2034	1900	3816	79
58	0	0	1951	1899	3814	79
59	0	0	1894	1899	3815	79
60	0	0	1860	1902	3814	81
61	0	0	1840	1902	3815	79
62	0	0	1831	1901	3816	78
63	0	0	1815	1903	3814	78
64	0	0	1844	1904	3816	79
65	0	0	1902	1904	3815	79
66	0	0	1958	1905	3815	79
67	0	0	2025	1904	3816	80
68	0	0	2082	1903	3815	79
69	0	0	2136	1901	3815	79
70	0	0	2177	1904	3818	80
71	0	0	2199	1905	3816	79
72	0	0	2220	1904	3816	82
73	0	0	2273	1904	3817	80
74	0	0	2255	1900	3815	80
75	0	0	2195	1900	3815	79
76	0	0	2128	1901	3815	80
77	0	0	2033	1899	3814	78
78	0	0	1957	1900	3813	79
79	0	0	1905	1901	3816	80
80	0	0	1871	1898	3815	79
81	0	0	1853	1903	3816	79
82	0	0	1841	1901	3816	82
83	0	0	1819	1902	3815	79
84	0	0	1832	1903	3815	79
85	0	0	1873	1903	3816	79
86	0	0	1940	1904	3816	79
87	0	0	2008	1903	3817	82
88	0	0	2063	1904	3816	77
89	0	0	2143	1903	3815	80
90	0	0	2194	1904	3814	81
91	0	0	2208	1903	3815	79
92	0	0	2224	1904	3816	79
93	0	0	2267	1903	3814	79
94	0	0	2244	1899	3815	79
95	0	0	2185	1900	3814	79
96	0	0	2121	1901	3816	79
97	0	0	2031	1900	3816	82
98	0	0	1955	1899	3816	79
99	0	0	1907	1900	3815	79
100	0	0	1872	1900	3818	80
101	0	0	1852	1903	3816	79
102	0	0	1837	1900	3816	77
103	0	0	1814	1902	3816	79
104	0	0	1840	1902	3815	79
105	0	0	1893	1903	3816	80
106	0	0	1948	1904	3817	80
107	0	0	2011	1903	3816	82
108	0	0	2075	1903	3816	80
109	0	0	2135	1903	3815	79
110	0	0	2176	1903	3815	79
111	0	0	2199	1903	3816	81
112	0	0	2224	1903	3815	75
113	0	0	2274	1903	3816	80
114	0	0	2252	1899	3815	79
115	0	0	2196	1901	3815	79
116	0	0	2131	1901	3816	79
117	0	0	2039	1898	3816	79
118	0	0	1954	1899	3818	80
119	0	0	1902	1899	3816	79
120	0	0	1866	1902	3815	79
121	0	0	1848	1903	3817	79
122	0	0	1840	1900	3816	75
123	0	0	1820	1902	3816	80
124	0	0	1822	1903	3815	79
125	0	0	1879	1903	3815	80
126	0	0	1945	1904	3816	79
127	0	0	2017	1902	3816	79
0	0	0	2071	1903	3814	79
1	0	0	2154	1902	3816	80
2	0	0	2194	1902	3815	80
3	0	0	2217	1904	3816	80
4	0	0	2234	1903	3817	79
5	0	0	2280	1903	3816	80
6	0	0	2260	1900	3815	80
7	0	0	2200	1900	3815	80
8	0	0	2129	1899	3816	80
9	0	0	2039	1898	3817	79
10	0	0	1957	1898	3816	79
11	0	0	1902	1899	3817	79
12	0	0	1864	1898	3813	79
13	0	0	1848	1903	3815	79
14	0	0	1840	1901	3816	79
15	0	0	1818	1901	3816	79
16	0	0	1845	1902	3816	80
17	0	0	1897	1903	3815	80
18	0	0	1949	1902	3815	79
19	0	0	2011	1903	3816	79
20	0	0	2077	1902	3816	79
21	0	0	2137	1904	3816	79
22	0	0	2184	1900	3815	79
23	0	0	2208	1903	3816	79
24	0	0	2227	1903	3816	80
25	0	0	2276	1903	3818	80
26	0	0	2257	1900	3818	79
27	0	0	2198	1899	3815	80
28	0	0	2134	1898	3815	79
29	0	0	2045	1899	3816	79
30	0	0	1966	1899	3816	80
31	0	0	1916	1899	3815	79
32	0	0	1881	1900	3815	80
33	0	0	1861	1901	3816	80
34	0	0	1853	1900	3815	80
35	0	0	1823	1899	3816	80
36	0	0	1832	1902	3815	79
37	0	0	1897	1902	3815	80
38	0	0	1963	1899	3817	80
39	0	0	2026	1902	3819	79
40	0	0	2110	1902	3818	80
41	0	0	2172	1902	3816	80
42	0	0	2207	1903	3816	79
43	0	0	2228	1902	3818	80
44	0	0	2248	1902	3816	79
45	0	0	2289	1902	3819	80
46	0	0	2272	1899	3815	79
47	0	0	2213	1899	3815	79
48	0	0	2148	1896	3815	80
49	0	0	2057	1899	3816	79
50	0	0	1975	1898	3818	80
51	0	0	1926	1900	3816	79
52	0	0	1895	1900	3815	79
53	0	0	1880	1899	3817	79
54	0	0	1870	1900	3816	80
55	0	0	1847	1901	3815	78
56	0	0	1872	1903	3817	80
57	0	0	1930	1902	3813	79
58	0	0	1982	1902	3816	79
59	0	0	2044	1904	3816	77
60	0	0	2101	1902	3819	80
61	0	0	2153	1902	3816	80
62	0	0	2194	1902	3816	79
63	0	0	2219	1903	3816	79
64	0	0	2236	1902	3816	80
65	0	0	2283	1902	3815	77
66	0	0	2265	1900	3816	79
67	0	0	2207	1899	3814	79
68	0	0	2138	1895	3815	80
69	0	0	2048	1899	3816	79
70	0	0	1972	1898	3815	79
71	0	0	1922	1899	3814	79
72	0	0	1890	1900	3815	79
73	0	0	1876	1899	3815	79
74	0	0	1867	1899	3817	80
75	0	0	1828	1899	3815	78
76	0	0	1854	1902	3819	79
77	0	0	1918	1902	3816	80
78	0	0	1979	1900	3814	79
79	0	0	2032	1902	3816	79
80	0	0	2124	1902	3816	80
81	0	0	2166	1901	3815	79
82	0	0	2200	1902	3817	79
83	0	0	2220	1902	3816	79
84	0	0	2228	1901	3815	80
85	0	0	2270	1902	3815	80
86	0	0	2251	1898	3815	80
87	0	0	2192	1899	3815	79
88	0	0	2131	1898	3816	80
89	0	0	2051	1898	3816	79
90	0	0	1983	1898	3816	79
91	0	0	1938	1899	3815	79
92	0	0	1908	1898	3816	80
93	0	0	1897	1900	3815	79
94	0	0	1885	1900	3817	79
95	0	0	1869	1902	3817	80
96	0	0	1887	1901	3815	79
97	0	0	1939	1902	3816	84
98	0	0	1995	1898	3815	79
99	0	0	2046	1902	3815	79
100	0	0	2095	1901	3820	84
101	0	0	2138	1903	3815	79
102	0	0	2170	1902	3816	78
103	0	0	2191	1901	3815	77
104	0	0	2208	1903	3816	79
105	0	0	2250	1902	3815	77
106	0	0	2227	1899	3815	80
107	0	0	2173	1898	3816	78
108	0	0	2122	1897	3815	79
109	0	0	2044	1900	3816	80
110	0	0	1979	1898	3815	80
111	0	0	1941	1899	3815	80
112	0	0	1918	1899	3816	79
113	0	0	1906	1901	3815	79
114	0	0	1897	1899	3815	79
115	0	0	1863	1901	3815	80
116	0	0	1885	1901	3815	79
117	0	0	1937	1902	3815	80
118	0	0	1984	1900	3819	80
119	0	0	2041	1904	3816	79
120	0	0	2106	1899	3815	80
121	0	0	2143	1900	3815	80
122	0	0	2168	1901	3815	80
123	0	0	2185	1903	3816	80
124	0	0	2202	1902	3816	80
125	0	0	2234	1901	3816	79
126	0	0	2219	1899	3817	80
127	0	0	2169	1899	3816	80
0	0	0	2119	1897	3815	79
1	0	0	2053	1898	3816	79
2	0	0	1996	1898	3815	80
3	0	0	1960	1898	3815	79
4	0	0	1936	1899	3816	78
5	0	0	1926	1901	3816	80
6	0	0	1914	1899	3815	79
7	0	0	1896	1902	3816	80
8	0	0	1913	1900	3814	79
9	0	0	1954	1899	3815	79
10	0	0	1991	1901	3814	79
11	0	0	2037	1902	3816	80
12	0	0	2082	1902	3816	82
13	0	0	2121	1902	3817	80
14	0	0	2147	1902	3816	80
15	0	0	2165	1900	3814	79
16	0	0	2188	1902	3816	79
17	0	0	2222	1901	3814	80
18	0	0	2209	1898	3815	80
19	0	0	2168	1898	3816	80
20	0	0	2122	1898	3815	80
21	0	0	2055	1900	3815	79
22	0	0	2003	1898	3816	79
23	0	0	1962	1898	3815	79
24	0	0	1937	1899	3815	79
25	0	0	1926	1901	3813	79
26	0	0	1905	1898	3815	79
27	0	0	1883	1900	3815	80
28	0	0	1906	1901	3816	79
29	0	0	1951	1902	3816	79
30	0	0	1981	1901	3814	79
31	0	0	2057	1901	3817	79
32	0	0	2094	1901	3815	80
33	0	0	2129	1900	3815	80
34	0	0	2159	1901	3816	77
35	0	0	2173	1902	3815	80
36	0	0	2201	1902	3816	79
37	0	0	2223	1900	3815	79
38	0	0	2201	1898	3815	79
39	0	0	2162	1898	3815	80
40	0	0	2120	1896	3813	79
41	0	0	2061	1897	3815	82
42	0	0	2004	1896	3815	80
43	0	0	1967	1898	3815	79
44	0	0	1949	1897	3815	79
45	0	0	1936	1901	3815	79
46	0	0	1930	1899	3818	79
47	0	0	1914	1900	3815	82
48	0	0	1926	1900	3815	80
49	0	0	1961	1901	3817	77
50	0	0	2000	1902	3816	80
51	0	0	2045	1900	3815	80
52	0	0	2083	1901	3816	79
53	0	0	2115	1901	3815	79
54	0	0	2147	1900	3815	80
55	0	0	2165	1900	3813	79
56	0	0	2181	1902	3815	80
57	0	0	2211	1900	3815	82
58	0	0	2193	1897	3815	80
59	0	0	2156	1899	3815	79
60	0	0	2118	1898	3816	82
61	0	0	2063	1898	3815	79
62	0	0	2012	1898	3815	82
63	0	0	1978	1897	3816	79
64	0	0	1956	1898	3816	79
65	0	0	1942	1900	3816	80
66	0	0	1917	1899	3816	81
67	0	0	1910	1900	3811	84
68	0	0	1929	1900	3818	79
69	0	0	1967	1899	3815	79
70	0	0	2004	1901	3816	84
71	0	0	2051	1900	3815	79
72	0	0	2083	1900	3814	82
73	0	0	2116	1899	3816	81
74	0	0	2138	1900	3815	78
75	0	0	2150	1901	3816	80
76	0	0	2164	1900	3816	81
77	0	0	2199	1900	3815	79
78	0	0	2182	1897	3815	80
79	0	0	2147	1897	3815	78
80	0	0	2107	1897	3817	79
81	0	0	2056	1897	3816	81
82	0	0	2012	1897	3815	82
83	0	0	1980	1899	3817	79
84	0	0	1962	1899	3815	79
85	0	0	1950	1898	3815	79
86	0	0	1946	1899	3816	79
87	0	0	1928	1900	3814	79
88	0	0	1940	1901	3816	79
89	0	0	1970	1900	3815	79
90	0	0	2002	1901	3815	79
91	0	0	2039	1900	3816	79
92	0	0	2074	1900	3815	80
93	0	0	2105	1900	3816	80
94	0	0	2130	1901	3815	79
95	0	0	2140	1899	3816	79
96	0	0	2156	1901	3816	80
97	0	0	2184	1900	3816	79
98	0	0	2177	1900	3816	80
99	0	0	2143	1897	3815	78
100	0	0	2108	1898	3816	79
101	0	0	2060	1897	3816	79
102	0	0	2017	1896	3814	79
103	0	0	1986	1895	3814	79
104	0	0	1968	1897	3814	79
105	0	0	1951	1897	3815	79
106	0	0	1942	1900	3815	79
107	0	0	1935	1899	3814	79
108	0	0	1953	1900	3816	80
109	0	0	1976	1898	3814	79
110	0	0	2025	1900	3816	80
111	0	0	2059	1899	3815	80
112	0	0	2087	1899	3815	79
113	0	0	2110	1899	3816	81
114	0	0	2129	1900	3817	77
115	0	0	2143	1900	3817	79
116	0	0	2155	1901	3816	80
117	0	0	2182	1901	3816	80
118	0	0	2172	1898	3815	80
119	0	0	2140	1896	3814	82
120	0	0	2105	1895	3814	79
121	0	0	2055	1896	3816	79
122	0	0	2015	1896	3814	79
123	0	0	1984	1898	3815	79
124	0	0	1964	1899	3816	80
125	0	0	1956	1899	3817	79
126	0	0	1949	1899	3816	80
127	0	0	1941	1899	3815	79
0	0	0	1948	1899	3816	79
1	0	0	1976	1900	3815	79
2	0	0	2003	1899	3816	78
3	0	0	2035	1900	3817	79
4	0	0	2067	1899	3816	80
5	0	0	2099	1899	3816	80
6	0	0	2120	1899	3815	76
7	0	0	2139	1900	3817	80
8	0	0	2152	1899	3815	80
9	0	0	2179	1899	3814	79
10	0	0	2170	1897	3816	80
11	0	0	2141	1900	3813	80
12	0	0	2102	1897	3815	80
13	0	0	2053	1897	3816	80
14	0	0	2014	1896	3815	80
15	0	0	1989	1895	3815	79
16	0	0	1966	1896	3814	79
17	0	0	1942	1895	3816	79
18	0	0	1940	1899	3815	80
19	0	0	1931	1899	3815	77
20	0	0	1943	1900	3814	79
21	0	0	1973	1899	3815	76
22	0	0	2017	1899	3818	80
23	0	0	2042	1899	3815	80
24	0	0	2069	1899	3814	81
25	0	0	2098	1900	3815	79
26	0	0	2121	1900	3816	80
27	0	0	2133	1898	3815	77
28	0	0	2143	1900	3816	80
29	0	0	2169	1899	3815	80
30	0	0	2165	1898	3816	79
31	0	0	2129	1896	3815	79
32	0	0	2097	1894	3816	79
33	0	0	2053	1895	3816	79
34	0	0	2012	1895	3816	80
35	0	0	1986	1897	3816	79
36	0	0	1970	1897	3815	79
37	0	0	1962	1897	3816	80
38	0	0	1951	1896	3816	79
39	0	0	1933	1898	3815	80
40	0	0	1944	1899	3814	79
41	0	0	1967	1899	3815	78
42	0	0	1998	1900	3816	79
43	0	0	2031	1899	3815	80
44	0	0	2066	1899	3816	79
45	0	0	2092	1899	3814	79
46	0	0	2115	1899	3815	81
47	0	0	2135	1899	3815	80
48	0	0	2145	1898	3815	79
49	0	0	2167	1898	3814	80
50	0	0	2158	1897	3815	79
51	0	0	2131	1895	3815	79
52	0	0	2099	1897	3816	80
53	0	0	2058	1896	3817	79
54	0	0	2018	1895	3815	80
55	0	0	1987	1896	3816	79
56	0	0	1956	1895	3815	79
57	0	0	1937	1895	3815	81
58	0	0	1938	1898	3815	80
59	0	0	1925	1899	3815	80
60	0	0	1937	1897	3814	79
61	0	0	1983	1895	3814	79
62	0	0	2014	1897	3815	80
63	0	0	2039	1896	3817	82
64	0	0	2074	1898	3815	80
65	0	0	2104	1898	3817	80
66	0	0	2129	1899	3814	80
67	0	0	2142	1899	3816	80
68	0	0	2158	1899	3816	79
69	0	0	2183	1898	3814	80
70	0	0	2178	1897	3816	79
71	0	0	2143	1896	3815	80
72	0	0	2104	1895	3815	80
73	0	0	2055	1895	3816	82
74	0	0	2009	1895	3815	80
75	0	0	1978	1895	3815	79
76	0	0	1961	1897	3815	77
77	0	0	1948	1895	3815	80
78	0	0	1941	1899	3814	79
79	0	0	1927	1896	3815	80
80	0	0	1935	1898	3815	79
81	0	0	1968	1898	3815	78
82	0	0	2003	1898	3817	79
83	0	0	2033	1898	3816	79
84	0	0	2065	1899	3817	80
85	0	0	2098	1898	3815	79
86	0	0	2127	1899	3816	80
87	0	0	2145	1898	3816	80
88	0	0	2158	1899	3816	79
89	0	0	2183	1897	3815	79
90	0	0	2180	1895	3815	79
91	0	0	2146	1894	3814	80
92	0	0	2111	1896	3815	82
93	0	0	2064	1895	3815	79
94	0	0	2022	1895	3815	80
95	0	0	1994	1895	3814	79
96	0	0	1961	1893	3815	79
97	0	0	1951	1898	3815	80
98	0	0	1940	1896	3815	79
99	0	0	1928	1897	3815	79
100	0	0	1940	1896	3815	79
101	0	0	1983	1895	3815	79
102	0	0	2010	1897	3816	82
