# bioPlux Text File Format
# Version: 1
# StartDateTime: 2011-07-18 15:42:10
# SamplingFrequency: 1000
# SampledChannels: 1 2 3 4
# SamplingResolution: 12
# AcquiringDevice: 00:07:80:42:0F:8B
# EndOfHeader
0	0	0	1932	10	3868	78
1	0	0	2017	9	3870	76
2	0	0	2077	11	3869	75
3	0	0	2147	10	3869	77
4	0	0	2211	12	3868	77
5	0	0	2265	10	3868	77
6	0	0	2302	10	3868	76
7	0	0	2304	11	3869	75
8	0	0	2311	10	3868	76
9	0	0	2326	8	3869	75
10	0	0	2240	6	3869	79
11	0	0	2131	7	3868	76
12	0	0	2036	3	3869	76
13	0	0	1918	6	3871	79
14	0	0	1837	8	3870	74
15	0	0	1807	6	3870	76
16	0	0	1791	9	3871	76
17	0	0	1798	11	3870	76
18	0	0	1833	7	3869	76
19	0	0	1851	8	3870	76
20	0	0	1927	10	3870	79
21	0	0	2007	10	3871	76
22	0	0	2070	12	3868	75
23	0	0	2144	10	3868	75
24	0	0	2215	12	3868	75
25	0	0	2269	9	3870	78
26	0	0	2300	10	3871	76
27	0	0	2300	11	3869	76
28	0	0	2312	10	3869	76
29	0	0	2330	8	3871	74
30	0	0	2234	7	3871	75
31	0	0	2127	6	3871	76
32	0	0	2031	7	3870	76
33	0	0	1915	6	3870	76
34	0	0	1842	8	3870	75
35	0	0	1817	7	3870	79
36	0	0	1800	8	3869	75
37	0	0	1807	7	3869	75
38	0	0	1842	10	3868	76
39	0	0	1853	11	3868	77
40	0	0	1925	10	3870	71
41	0	0	2006	9	3871	76
42	0	0	2069	10	3870	76
43	0	0	2134	10	3870	76
44	0	0	2200	10	3868	75
45	0	0	2259	7	3870	77
46	0	0	2295	11	3871	76
47	0	0	2299	7	3870	74
48	0	0	2302	9	3870	75
49	0	0	2325	8	3870	76
50	0	0	2236	7	3871	71
51	0	0	2131	6	3871	77
52	0	0	2036	5	3871	76
53	0	0	1916	6	3870	75
54	0	0	1831	7	3870	75
55	0	0	1799	7	3869	75
56	0	0	1787	8	3871	77
57	0	0	1795	7	3868	76
58	0	0	1823	9	3868	75
59	0	0	1843	12	3868	75
60	0	0	1922	10	3869	72
61	0	0	2008	10	3871	76
62	0	0	2075	11	3871	75
63	0	0	2144	10	3870	76
64	0	0	2210	9	3870	74
65	0	0	2267	10	3871	71
66	0	0	2302	9	3869	76
67	0	0	2302	8	3870	76
68	0	0	2308	10	3869	75
69	0	0	2332	8	3869	75
70	0	0	2237	7	3868	75
71	0	0	2128	7	3867	76
72	0	0	2031	7	3869	76
73	0	0	1913	6	3867	75
74	0	0	1833	7	3868	75
75	0	0	1799	7	3868	75
76	0	0	1791	10	3867	74
77	0	0	1800	8	3870	76
78	0	0	1831	14	3870	76
79	0	0	1846	10	3869	79
80	0	0	1920	11	3869	75
81	0	0	2007	10	3869	76
82	0	0	2070	7	3870	75
83	0	0	2140	10	3870	75
84	0	0	2213	10	3870	76
85	0	0	2267	11	3868	75
86	0	0	2301	10	3869	76
87	0	0	2304	9	3870	76
88	0	0	2308	10	3869	76
89	0	0	2332	9	3869	75
90	0	0	2243	6	3871	76
91	0	0	2138	4	3869	72
92	0	0	2039	7	3869	75
93	0	0	1913	6	3868	76
94	0	0	1835	7	3870	75
95	0	0	1800	7	3871	78
96	0	0	1786	8	3869	76
97	0	0	1795	10	3871	76
98	0	0	1829	10	3870	76
99	0	0	1848	11	3870	76
100	0	0	1925	10	3870	78
101	0	0	2006	10	3868	76
102	0	0	2072	7	3870	75
103	0	0	2140	9	3871	76
104	0	0	2208	10	3869	75
105	0	0	2267	8	3869	76
106	0	0	2294	10	3867	76
107	0	0	2297	9	3870	76
108	0	0	2305	10	3869	75
109	0	0	2329	7	3872	75
110	0	0	2241	5	3869	76
111	0	0	2132	6	3872	76
112	0	0	2036	4	3870	76
113	0	0	1910	7	3871	76
114	0	0	1829	6	3870	76
115	0	0	1801	8	3870	76
116	0	0	1791	11	3868	76
117	0	0	1799	8	3870	75
118	0	0	1828	9	3870	77
119	0	0	1846	11	3870	75
120	0	0	1921	9	3870	73
121	0	0	2003	11	3868	76
122	0	0	2066	8	3870	76
123	0	0	2143	10	3868	75
124	0	0	2216	11	3866	77
125	0	0	2271	8	3868	75
126	0	0	2298	10	3869	77
127	0	0	2297	8	3870	76
0	0	0	2305	10	3869	76
1	0	0	2327	8	3870	76
2	0	0	2240	6	3870	75
3	0	0	2138	7	3871	75
4	0	0	2043	6	3871	76
5	0	0	1920	6	3871	76
6	0	0	1834	7	3869	76
7	0	0	1810	8	3869	76
8	0	0	1793	9	3868	76
9	0	0	1802	8	3870	76
10	0	0	1830	10	3869	75
11	0	0	1845	11	3867	75
12	0	0	1929	12	3867	75
13	0	0	2014	8	3866	77
14	0	0	2080	10	3869	76
15	0	0	2150	11	3869	76
16	0	0	2220	10	3868	76
17	0	0	2276	10	3869	76
18	0	0	2307	9	3868	76
19	0	0	2306	10	3871	76
20	0	0	2300	10	3870	76
21	0	0	2322	6	3872	75
22	0	0	2231	6	3870	79
23	0	0	2131	6	3867	76
24	0	0	2037	6	3870	76
25	0	0	1914	6	3869	76
26	0	0	1835	6	3871	76
27	0	0	1804	10	3868	73
28	0	0	1792	10	3868	77
29	0	0	1801	9	3869	76
30	0	0	1825	10	3868	76
31	0	0	1843	10	3868	75
32	0	0	1926	10	3869	73
33	0	0	2008	9	3870	75
34	0	0	2073	10	3870	76
35	0	0	2141	9	3870	75
36	0	0	2214	9	3870	76
37	0	0	2260	10	3869	76
38	0	0	2288	9	3870	76
39	0	0	2290	0	3870	77
40	0	0	2299	7	3869	75
41	0	0	2328	8	3871	76
42	0	0	2244	7	3870	76
43	0	0	2140	7	3868	77
44	0	0	2045	6	3871	75
45	0	0	1919	6	3867	75
46	0	0	1831	5	3871	74
47	0	0	1802	8	3868	75
48	0	0	1790	9	3868	75
49	0	0	1802	12	3868	76
50	0	0	1834	10	3869	76
51	0	0	1850	10	3869	75
52	0	0	1927	12	3869	73
53	0	0	2012	9	3872	75
54	0	0	2074	8	3871	77
55	0	0	2139	7	3871	76
56	0	0	2214	10	3869	75
57	0	0	2270	9	3870	74
58	0	0	2301	10	3871	76
59	0	0	2301	10	3870	76
60	0	0	2302	10	3870	76
61	0	0	2321	8	3869	75
62	0	0	2232	7	3869	75
63	0	0	2131	6	3868	76
64	0	0	2039	6	3868	76
65	0	0	1913	8	3868	76
66	0	0	1833	10	3868	75
67	0	0	1799	8	3869	77
68	0	0	1788	10	3871	75
69	0	0	1794	10	3869	75
70	0	0	1825	10	3870	76
71	0	0	1842	10	3869	76
72	0	0	1925	10	3872	75
73	0	0	2012	10	3870	76
74	0	0	2077	11	3871	76
75	0	0	2145	10	3869	75
76	0	0	2209	8	3871	76
77	0	0	2265	10	3869	74
78	0	0	2296	10	3870	76
79	0	0	2296	12	3869	75
80	0	0	2301	10	3868	75
81	0	0	2327	7	3868	75
82	0	0	2236	7	3872	75
83	0	0	2137	7	3869	75
84	0	0	2044	8	3870	76
85	0	0	1918	7	3870	75
86	0	0	1836	6	3872	75
87	0	0	1808	7	3872	77
88	0	0	1799	8	3871	74
89	0	0	1809	12	3868	76
90	0	0	1831	11	3869	75
91	0	0	1845	8	3870	76
92	0	0	1923	10	3868	73
93	0	0	1999	11	3869	75
94	0	0	2064	9	3871	75
95	0	0	2140	10	3869	76
96	0	0	2208	11	3868	75
97	0	0	2265	14	3868	72
98	0	0	2300	10	3868	75
99	0	0	2300	10	3868	76
100	0	0	2308	10	3869	75
101	0	0	2331	8	3869	76
102	0	0	2234	7	3869	74
103	0	0	2137	5	3871	75
104	0	0	2042	7	3870	76
105	0	0	1919	5	3870	75
106	0	0	1841	6	3870	76
107	0	0	1808	7	3870	76
108	0	0	1797	8	3871	76
109	0	0	1807	10	3870	75
110	0	0	1833	10	3870	76
111	0	0	1847	8	3868	75
112	0	0	1918	11	3869	76
113	0	0	2009	9	3869	74
114	0	0	2078	8	3869	76
115	0	0	2154	11	3868	75
116	0	0	2216	10	3868	75
117	0	0	2268	7	3870	75
118	0	0	2298	10	3869	75
119	0	0	2290	8	3871	76
120	0	0	2294	11	3870	74
121	0	0	2329	9	3870	76
122	0	0	2235	5	3870	75
123	0	0	2137	7	3869	74
124	0	0	2051	7	3870	76
125	0	0	1932	7	3869	75
126	0	0	1849	9	3870	76
127	0	0	1816	7	3871	77
0	0	0	1803	9	3869	74
1	0	0	1816	10	3870	75
2	0	0	1839	14	3868	73
3	0	0	1849	10	3868	75
4	0	0	1924	10	3868	75
5	0	0	2008	9	3868	74
6	0	0	2073	11	3870	76
7	0	0	2144	10	3869	76
8	0	0	2202	9	3870	76
9	0	0	2257	7	3870	75
10	0	0	2293	9	3871	75
11	0	0	2291	11	3869	74
12	0	0	2298	9	3869	76
13	0	0	2326	8	3869	77
14	0	0	2236	7	3868	75
15	0	0	2140	6	3869	76
16	0	0	2041	9	3869	75
17	0	0	1916	6	3867	75
18	0	0	1834	6	3868	75
19	0	0	1795	5	3870	74
20	0	0	1788	8	3871	76
21	0	0	1798	11	3868	76
22	0	0	1829	11	3865	76
23	0	0	1842	9	3869	76
24	0	0	1915	7	3870	75
25	0	0	2001	10	3869	76
26	0	0	2073	9	3871	75
27	0	0	2148	10	3869	74
28	0	0	2212	9	3870	76
29	0	0	2262	9	3871	74
30	0	0	2292	9	3870	73
31	0	0	2294	10	3870	75
32	0	0	2303	10	3869	76
33	0	0	2334	9	3870	76
34	0	0	2245	6	3870	77
35	0	0	2143	8	3870	75
36	0	0	2053	6	3870	75
37	0	0	1924	6	3868	76
38	0	0	1841	7	3870	76
39	0	0	1806	7	3870	73
40	0	0	1797	8	3870	77
41	0	0	1806	9	3871	76
42	0	0	1834	11	3870	76
43	0	0	1851	8	3871	76
44	0	0	1924	11	3871	76
45	0	0	2003	8	3869	74
46	0	0	2071	10	3871	75
47	0	0	2147	10	3869	76
48	0	0	2206	11	3870	76
49	0	0	2259	9	3868	73
50	0	0	2298	10	3869	75
51	0	0	2302	11	3871	77
52	0	0	2304	10	3869	75
53	0	0	2332	6	3868	80
54	0	0	2237	7	3869	76
55	0	0	2134	6	3872	78
56	0	0	2045	6	3871	76
57	0	0	1920	6	3871	76
58	0	0	1842	8	3870	76
59	0	0	1805	7	3870	76
60	0	0	1793	9	3872	75
61	0	0	1804	10	3871	75
62	0	0	1829	10	3871	76
63	0	0	1839	8	3869	76
64	0	0	1915	9	3868	75
65	0	0	2009	10	3869	74
66	0	0	2072	10	3869	76
67	0	0	2144	9	3869	76
68	0	0	2205	11	3867	74
69	0	0	2262	11	3870	75
70	0	0	2293	10	3870	75
71	0	0	2295	10	3870	76
72	0	0	2306	9	3869	75
73	0	0	2333	7	3871	79
74	0	0	2241	5	3871	76
75	0	0	2136	7	3871	77
76	0	0	2050	5	3872	75
77	0	0	1925	7	3869	76
78	0	0	1843	3	3869	80
79	0	0	1803	7	3870	76
80	0	0	1786	9	3870	75
81	0	0	1796	9	3870	76
82	0	0	1826	10	3869	75
83	0	0	1848	10	3870	74
84	0	0	1925	10	3869	77
85	0	0	2007	11	3867	78
86	0	0	2069	10	3868	76
87	0	0	2138	10	3869	75
88	0	0	2202	7	3869	78
89	0	0	2255	10	3870	76
90	0	0	2288	10	3870	76
91	0	0	2294	10	3872	76
92	0	0	2297	10	3871	75
93	0	0	2326	8	3869	76
94	0	0	2237	6	3870	76
95	0	0	2137	6	3870	75
96	0	0	2050	6	3871	76
97	0	0	1921	8	3869	76
98	0	0	1838	8	3872	75
99	0	0	1801	7	3869	76
100	0	0	1789	11	3868	77
101	0	0	1798	10	3868	75
102	0	0	1830	10	3868	75
103	0	0	1844	5	3871	79
104	0	0	1917	10	3868	75
105	0	0	2003	10	3870	75
106	0	0	2067	10	3870	76
107	0	0	2132	9	3870	75
108	0	0	2203	10	3871	76
109	0	0	2263	10	3871	76
110	0	0	2293	9	3870	74
111	0	0	2299	10	3868	76
112	0	0	2302	11	3870	76
113	0	0	2334	10	3870	75
114	0	0	2240	5	3870	75
115	0	0	2137	4	3870	75
116	0	0	2046	6	3864	76
117	0	0	1920	6	3869	76
118	0	0	1841	7	3869	75
119	0	0	1807	7	3870	74
120	0	0	1793	8	3869	73
121	0	0	1805	10	3866	77
122	0	0	1833	10	3869	76
123	0	0	1843	10	3872	75
124	0	0	1913	10	3869	75
125	0	0	2001	10	3870	77
126	0	0	2064	10	3868	76
127	0	0	2136	10	3869	76
0	0	0	2206	5	3871	79
1	0	0	2259	10	3869	75
2	0	0	2291	11	3868	78
3	0	0	2295	10	3868	75
4	0	0	2302	12	3869	76
5	0	0	2331	7	3870	79
6	0	0	2239	7	3869	75
7	0	0	2138	7	3868	75
8	0	0	2046	6	3868	76
9	0	0	1920	8	3868	76
10	0	0	1838	3	3871	79
11	0	0	1801	7	3870	75
12	0	0	1795	9	3869	77
13	0	0	1803	10	3870	77
14	0	0	1830	8	3870	76
15	0	0	1848	10	3870	76
16	0	0	1918	10	3870	75
17	0	0	2003	10	3871	77
18	0	0	2064	7	3868	75
19	0	0	2137	10	3870	75
20	0	0	2204	10	3868	73
21	0	0	2254	10	3869	76
22	0	0	2293	9	3870	76
23	0	0	2297	10	3866	72
24	0	0	2304	9	3870	76
25	0	0	2333	14	3868	73
26	0	0	2241	6	3867	74
27	0	0	2133	6	3868	73
28	0	0	2046	6	3868	76
29	0	0	1917	6	3870	75
30	0	0	1839	7	3871	76
31	0	0	1807	7	3870	76
32	0	0	1797	9	3871	75
33	0	0	1809	10	3870	76
34	0	0	1838	9	3869	76
35	0	0	1851	10	3872	75
36	0	0	1923	10	3867	77
37	0	0	2003	8	3870	73
38	0	0	2072	10	3870	76
39	0	0	2146	10	3869	75
40	0	0	2207	10	3869	75
41	0	0	2258	10	3869	76
42	0	0	2286	11	3870	73
43	0	0	2295	10	3871	75
44	0	0	2304	10	3869	75
45	0	0	2338	7	3871	76
46	0	0	2249	7	3871	76
47	0	0	2147	6	3870	74
48	0	0	2056	5	3871	76
49	0	0	1923	7	3870	76
50	0	0	1839	7	3870	72
51	0	0	1805	8	3869	75
52	0	0	1789	10	3869	75
53	0	0	1795	10	3868	75
54	0	0	1824	10	3869	76
55	0	0	1841	10	3869	76
56	0	0	1916	10	3869	76
57	0	0	2009	9	3870	76
58	0	0	2073	11	3870	76
59	0	0	2143	10	3868	75
60	0	0	2209	10	3872	76
61	0	0	2265	11	3870	76
62	0	0	2300	10	3871	74
63	0	0	2301	10	3871	75
64	0	0	2304	10	3870	76
65	0	0	2329	9	3869	76
66	0	0	2241	6	3869	75
67	0	0	2140	7	3871	75
68	0	0	2052	6	3871	76
69	0	0	1928	6	3869	76
70	0	0	1850	8	3869	76
71	0	0	1816	8	3869	76
72	0	0	1802	11	3868	73
73	0	0	1808	10	3870	76
74	0	0	1834	10	3868	76
75	0	0	1843	10	3868	76
76	0	0	1921	10	3869	76
77	0	0	2005	10	3870	75
78	0	0	2064	10	3871	76
79	0	0	2137	11	3870	76
80	0	0	2200	10	3870	76
81	0	0	2254	10	3868	77
82	0	0	2288	9	3869	74
83	0	0	2292	10	3871	75
84	0	0	2300	11	3869	76
85	0	0	2333	8	3869	76
86	0	0	2244	6	3870	75
87	0	0	2143	7	3869	72
88	0	0	2054	6	3868	76
89	0	0	1930	7	3868	76
90	0	0	1844	6	3868	76
91	0	0	1808	7	3868	77
92	0	0	1796	11	3868	74
93	0	0	1805	12	3871	75
94	0	0	1835	10	3866	76
95	0	0	1845	9	3869	76
96	0	0	1919	10	3871	75
97	0	0	2008	10	3869	73
98	0	0	2071	10	3871	75
99	0	0	2137	10	3870	76
100	0	0	2204	10	3870	76
101	0	0	2256	10	3868	75
102	0	0	2292	10	3870	78
103	0	0	2296	9	3870	76
104	0	0	2295	10	3869	75
105	0	0	2334	10	3870	75
106	0	0	2251	6	3870	75
107	0	0	2149	7	3870	76
108	0	0	2057	6	3870	76
109	0	0	1927	6	3868	75
110	0	0	1841	6	3870	75
111	0	0	1810	8	3871	75
112	0	0	1798	9	3870	78
113	0	0	1804	10	3871	76
114	0	0	1824	10	3870	75
115	0	0	1833	10	3870	76
116	0	0	1913	12	3870	76
117	0	0	2009	9	3871	75
118	0	0	2077	7	3869	76
119	0	0	2151	10	3871	76
120	0	0	2216	13	3870	76
121	0	0	2267	10	3870	76
122	0	0	2300	10	3870	76
123	0	0	2296	10	3868	75
124	0	0	2289	11	3869	76
125	0	0	2321	8	3869	75
126	0	0	2231	9	3872	76
127	0	0	2129	6	3868	76
0	0	0	2043	7	3869	76
1	0	0	1923	6	3870	76
2	0	0	1839	9	3871	76
3	0	0	1808	8	3870	76
4	0	0	1794	9	3871	76
5	0	0	1801	10	3872	75
6	0	0	1831	10	3870	76
7	0	0	1841	9	3869	75
8	0	0	1916	13	3872	76
9	0	0	2002	9	3870	79
10	0	0	2064	10	3866	75
11	0	0	2135	10	3869	75
12	0	0	2198	8	3871	74
13	0	0	2255	11	3870	73
14	0	0	2290	10	3868	78
15	0	0	2302	10	3868	75
16	0	0	2310	10	3869	75
17	0	0	2340	8	3869	76
18	0	0	2253	7	3870	74
19	0	0	2145	5	3870	79
20	0	0	2056	7	3872	55
21	0	0	1927	8	3870	76
22	0	0	1839	6	3871	75
23	0	0	1802	7	3871	73
24	0	0	1785	8	3870	79
25	0	0	1794	10	3869	76
26	0	0	1826	10	3868	75
27	0	0	1847	11	3868	73
28	0	0	1924	12	3872	75
29	0	0	2013	10	3869	76
30	0	0	2076	11	3867	74
31	0	0	2146	9	3870	76
32	0	0	2208	7	3871	75
33	0	0	2266	12	3872	77
34	0	0	2300	11	3870	79
35	0	0	2297	10	3872	75
36	0	0	2300	10	3870	75
37	0	0	2338	10	3867	77
38	0	0	2252	8	3870	76
39	0	0	2154	6	3869	78
40	0	0	2066	7	3868	75
41	0	0	1937	6	3869	76
42	0	0	1849	7	3869	76
43	0	0	1811	8	3870	72
44	0	0	1792	7	3869	77
45	0	0	1796	10	3868	76
46	0	0	1825	12	3868	75
47	0	0	1846	10	3870	76
48	0	0	1918	9	3870	74
49	0	0	2006	10	3869	79
50	0	0	2069	10	3872	75
51	0	0	2141	11	3870	76
52	0	0	2209	11	3870	76
53	0	0	2264	12	3872	75
54	0	0	2298	10	3871	77
55	0	0	2297	16	3872	76
56	0	0	2300	10	3871	75
57	0	0	2331	7	3867	76
58	0	0	2247	6	3870	75
59	0	0	2144	5	3870	75
60	0	0	2055	6	3868	76
61	0	0	1931	6	3868	75
62	0	0	1848	6	3869	77
63	0	0	1810	9	3870	77
64	0	0	1790	9	3869	79
65	0	0	1797	10	3870	76
66	0	0	1824	11	3869	76
67	0	0	1831	9	3869	76
68	0	0	1901	10	3868	78
69	0	0	1988	10	3871	75
70	0	0	2055	10	3870	75
71	0	0	2131	11	3870	75
72	0	0	2203	10	3870	76
73	0	0	2259	10	3869	76
74	0	0	2300	10	3871	77
75	0	0	2302	10	3870	77
76	0	0	2296	9	3870	75
77	0	0	2328	6	3871	75
78	0	0	2246	4	3869	75
79	0	0	2147	7	3868	75
80	0	0	2053	6	3870	76
81	0	0	1925	5	3868	75
82	0	0	1842	6	3866	78
83	0	0	1805	8	3868	78
84	0	0	1793	9	3870	75
85	0	0	1800	10	3871	76
86	0	0	1833	10	3870	75
87	0	0	1845	10	3870	76
88	0	0	1918	9	3871	79
89	0	0	1995	7	3870	76
90	0	0	2063	10	3870	76
91	0	0	2131	11	3869	75
92	0	0	2199	10	3869	77
93	0	0	2248	7	3871	74
94	0	0	2282	11	3869	72
95	0	0	2291	10	3870	75
96	0	0	2298	8	3869	76
97	0	0	2331	10	3869	75
98	0	0	2247	6	3868	76
99	0	0	2148	5	3870	76
100	0	0	2062	6	3871	76
101	0	0	1933	5	3870	76
102	0	0	1846	7	3868	77
103	0	0	1812	6	3871	76
104	0	0	1797	9	3871	76
105	0	0	1806	10	3871	75
106	0	0	1831	8	3869	76
107	0	0	1845	10	3869	80
108	0	0	1918	8	3870	75
109	0	0	1999	9	3869	72
110	0	0	2064	10	3871	75
111	0	0	2136	9	3870	75
112	0	0	2207	10	3869	76
113	0	0	2262	7	3871	74
114	0	0	2297	10	3869	76
115	0	0	2307	11	3871	76
116	0	0	2304	12	3869	75
117	0	0	2334	9	3866	77
118	0	0	2247	2	3870	76
119	0	0	2145	7	3869	78
120	0	0	2050	7	3871	75
121	0	0	1927	8	3870	76
122	0	0	1842	6	3872	74
123	0	0	1806	6	3871	76
124	0	0	1794	8	3869	76
125	0	0	1809	11	3871	76
126	0	0	1844	7	3868	75
127	0	0	1850	10	3869	75
0	0	0	1913	9	3870	75
1	0	0	1993	8	3870	76
2	0	0	2061	10	3869	75
3	0	0	2130	10	3871	76
4	0	0	2191	10	3866	78
5	0	0	2251	12	3871	76
6	0	0	2289	8	3871	77
7	0	0	2298	10	3871	76
8	0	0	2299	14	3869	75
9	0	0	2333	10	3872	76
10	0	0	2250	4	3871	76
11	0	0	2146	7	3870	77
12	0	0	2055	6	3871	76
13	0	0	1925	6	3869	76
14	0	0	1836	6	3869	80
15	0	0	1802	5	3869	76
16	0	0	1793	10	3870	76
17	0	0	1801	10	3869	75
18	0	0	1836	11	3869	76
19	0	0	1846	10	3868	77
20	0	0	1918	9	3870	76
21	0	0	2002	9	3869	76
22	0	0	2065	10	3870	73
23	0	0	2135	12	3870	76
24	0	0	2197	10	3868	77
25	0	0	2250	15	3871	75
26	0	0	2286	11	3871	80
27	0	0	2294	10	3870	75
28	0	0	2296	12	3870	76
29	0	0	2334	10	3868	76
30	0	0	2254	8	3871	76
31	0	0	2145	6	3871	73
32	0	0	2059	6	3869	75
33	0	0	1932	10	3868	75
34	0	0	1842	6	3869	76
35	0	0	1805	11	3869	75
36	0	0	1788	9	3869	76
37	0	0	1796	10	3868	75
38	0	0	1829	10	3872	75
39	0	0	1845	10	3869	76
40	0	0	1917	9	3870	75
41	0	0	1999	10	3870	73
42	0	0	2063	10	3872	76
43	0	0	2136	10	3871	76
44	0	0	2204	10	3870	76
45	0	0	2255	9	3869	75
46	0	0	2290	10	3869	74
47	0	0	2298	13	3870	75
48	0	0	2295	10	3869	76
49	0	0	2337	9	3871	74
50	0	0	2257	6	3870	76
51	0	0	2148	5	3869	79
52	0	0	2058	5	3869	76
53	0	0	1930	6	3869	76
54	0	0	1842	7	3871	74
55	0	0	1804	6	3871	76
56	0	0	1793	9	3871	76
57	0	0	1800	10	3871	75
58	0	0	1829	10	3870	76
59	0	0	1843	11	3871	75
60	0	0	1911	10	3869	76
61	0	0	2001	8	3871	80
62	0	0	2062	11	3869	74
63	0	0	2133	9	3871	76
64	0	0	2202	10	3871	74
65	0	0	2259	10	3870	78
66	0	0	2297	10	3870	76
67	0	0	2297	10	3868	76
68	0	0	2293	10	3868	75
69	0	0	2333	7	3868	76
70	0	0	2248	5	3867	76
71	0	0	2144	5	3869	76
72	0	0	2054	7	3869	75
73	0	0	1929	5	3871	75
74	0	0	1845	7	3871	76
75	0	0	1812	7	3870	76
76	0	0	1801	10	3871	76
77	0	0	1809	10	3869	79
78	0	0	1832	9	3870	75
79	0	0	1840	10	3869	75
80	0	0	1910	9	3867	77
81	0	0	2001	11	3870	76
82	0	0	2061	10	3870	76
83	0	0	2132	10	3868	76
84	0	0	2201	10	3870	72
85	0	0	2257	11	3869	73
86	0	0	2290	10	3869	75
87	0	0	2289	10	3869	79
88	0	0	2290	10	3869	75
89	0	0	2330	9	3869	76
90	0	0	2250	8	3872	76
91	0	0	2149	7	3871	76
92	0	0	2056	6	3870	75
93	0	0	1936	3	3870	76
94	0	0	1849	7	3869	76
95	0	0	1812	6	3870	78
96	0	0	1790	11	3870	76
97	0	0	1797	10	3870	78
98	0	0	1821	9	3869	75
99	0	0	1837	10	3870	72
100	0	0	1908	11	3869	76
101	0	0	1994	10	3869	76
102	0	0	2062	10	3867	76
103	0	0	2141	10	3868	76
104	0	0	2204	10	3869	75
105	0	0	2255	11	3869	76
106	0	0	2296	11	3871	76
107	0	0	2303	11	3871	76
108	0	0	2299	10	3870	76
109	0	0	2340	10	3870	76
110	0	0	2257	9	3871	76
111	0	0	2152	4	3870	76
112	0	0	2062	6	3870	78
113	0	0	1928	6	3869	75
114	0	0	1839	7	3869	75
115	0	0	1802	4	3868	77
116	0	0	1792	11	3870	78
117	0	0	1800	10	3868	78
118	0	0	1831	10	3868	76
119	0	0	1844	7	3868	75
120	0	0	1914	12	3868	78
121	0	0	1997	10	3870	79
122	0	0	2060	8	3869	79
123	0	0	2133	8	3871	76
124	0	0	2203	7	3868	76
125	0	0	2261	8	3870	76
126	0	0	2297	10	3872	75
127	0	0	2302	10	3869	77
0	0	0	2300	15	3869	75
1	0	0	2332	9	3868	76
2	0	0	2253	8	3869	75
3	0	0	2147	7	3870	79
4	0	0	2057	7	3868	78
5	0	0	1927	5	3868	76
6	0	0	1844	8	3868	76
7	0	0	1812	8	3869	78
8	0	0	1796	8	3869	79
9	0	0	1804	10	3868	75
10	0	0	1834	11	3870	75
11	0	0	1843	12	3870	76
12	0	0	1911	8	3870	76
13	0	0	1999	10	3871	76
14	0	0	2065	7	3871	77
15	0	0	2138	8	3869	76
16	0	0	2201	10	3869	78
17	0	0	2258	12	3870	78
18	0	0	2294	9	3870	76
19	0	0	2296	10	3869	78
20	0	0	2294	10	3868	77
21	0	0	2334	10	3868	76
22	0	0	2257	8	3870	79
23	0	0	2157	7	3869	76
24	0	0	2063	12	3868	75
25	0	0	1937	7	3868	76
26	0	0	1845	6	3870	73
27	0	0	1810	7	3870	75
28	0	0	1791	8	3871	76
29	0	0	1800	9	3871	77
30	0	0	1828	10	3870	76
31	0	0	1841	11	3870	75
32	0	0	1913	8	3870	75
33	0	0	1992	10	3870	76
34	0	0	2056	10	3870	75
35	0	0	2127	10	3869	76
36	0	0	2196	11	3869	76
37	0	0	2256	12	3869	74
38	0	0	2294	12	3870	75
39	0	0	2301	10	3868	75
40	0	0	2300	10	3868	75
41	0	0	2333	11	3869	76
42	0	0	2246	8	3869	76
43	0	0	2148	7	3870	75
44	0	0	2059	6	3869	75
45	0	0	1932	7	3871	76
46	0	0	1849	6	3872	75
47	0	0	1812	10	3870	74
48	0	0	1801	9	3871	75
49	0	0	1807	10	3869	74
50	0	0	1834	10	3869	75
51	0	0	1843	9	3869	76
52	0	0	1908	10	3870	79
53	0	0	1993	9	3870	75
54	0	0	2059	10	3868	74
55	0	0	2142	10	3867	76
56	0	0	2211	11	3869	76
57	0	0	2263	9	3869	75
58	0	0	2295	10	3869	76
59	0	0	2296	12	3870	75
60	0	0	2286	10	3869	75
61	0	0	2327	9	3871	74
62	0	0	2257	7	3871	76
63	0	0	2160	4	3870	76
64	0	0	2067	7	3870	74
65	0	0	1936	6	3869	76
66	0	0	1847	6	3868	79
67	0	0	1806	6	3869	75
68	0	0	1787	6	3867	75
69	0	0	1791	10	3868	77
70	0	0	1821	10	3869	75
71	0	0	1833	10	3868	76
72	0	0	1901	9	3870	75
73	0	0	1987	9	3869	76
74	0	0	2054	10	3870	76
75	0	0	2127	11	3868	75
76	0	0	2191	10	3868	77
77	0	0	2251	12	3870	76
78	0	0	2295	7	3870	75
79	0	0	2302	10	3869	74
80	0	0	2302	7	3870	76
81	0	0	2334	10	3870	75
82	0	0	2256	5	3871	75
83	0	0	2146	6	3870	75
84	0	0	2059	6	3871	74
85	0	0	1938	6	3869	76
86	0	0	1850	7	3869	75
87	0	0	1818	6	3870	79
88	0	0	1806	11	3869	78
89	0	0	1817	11	3869	74
90	0	0	1843	10	3868	76
91	0	0	1847	10	3868	74
92	0	0	1909	9	3870	75
93	0	0	1995	8	3870	75
94	0	0	2065	10	3870	75
95	0	0	2134	10	3870	76
96	0	0	2202	10	3871	74
97	0	0	2262	10	3871	78
98	0	0	2294	8	3871	78
99	0	0	2301	11	3872	76
100	0	0	2301	10	3870	75
101	0	0	2340	11	3869	75
102	0	0	2263	6	3869	75
103	0	0	2154	6	3870	78
104	0	0	2060	7	3868	73
105	0	0	1934	6	3868	76
106	0	0	1847	8	3868	76
107	0	0	1806	6	3869	75
108	0	0	1792	8	3869	75
109	0	0	1797	12	3865	73
110	0	0	1826	10	3867	73
111	0	0	1839	8	3868	75
112	0	0	1903	7	3869	75
113	0	0	1987	8	3871	78
114	0	0	2050	10	3870	76
115	0	0	2124	10	3870	77
116	0	0	2193	8	3869	76
117	0	0	2252	7	3871	75
118	0	0	2290	8	3870	75
119	0	0	2298	11	3868	74
120	0	0	2295	8	3870	76
121	0	0	2333	7	3867	76
122	0	0	2252	7	3869	76
123	0	0	2147	6	3870	76
124	0	0	2058	6	3869	76
125	0	0	1935	7	3870	76
126	0	0	1841	3	3867	76
127	0	0	1798	7	3869	76
0	0	0	1792	11	3871	75
1	0	0	1804	10	3870	76
2	0	0	1830	8	3871	76
3	0	0	1840	12	3870	75
4	0	0	1905	11	3871	73
5	0	0	1991	10	3871	76
6	0	0	2055	10	3870	76
7	0	0	2130	8	3870	76
8	0	0	2199	11	3869	73
9	0	0	2258	7	3869	76
10	0	0	2293	8	3870	76
11	0	0	2296	10	3868	76
12	0	0	2291	10	3869	74
13	0	0	2329	11	3869	75
14	0	0	2258	5	3868	78
15	0	0	2149	4	3869	76
16	0	0	2061	10	3869	76
17	0	0	1940	6	3870	76
18	0	0	1855	7	3872	75
19	0	0	1814	7	3871	77
20	0	0	1799	8	3870	76
21	0	0	1805	9	3871	75
22	0	0	1829	10	3869	76
23	0	0	1842	11	3869	75
24	0	0	1909	10	3869	77
25	0	0	1996	11	3869	75
26	0	0	2062	11	3869	76
27	0	0	2140	8	3868	73
28	0	0	2202	11	3868	74
29	0	0	2260	11	3868	76
30	0	0	2300	9	3869	75
31	0	0	2302	10	3868	79
32	0	0	2296	10	3869	76
33	0	0	2331	10	3869	75
34	0	0	2254	7	3871	76
35	0	0	2148	8	3871	75
36	0	0	2062	6	3870	78
37	0	0	1940	6	3871	76
38	0	0	1853	3	3868	77
39	0	0	1815	7	3870	77
40	0	0	1798	9	3870	77
41	0	0	1806	10	3869	71
42	0	0	1828	10	3868	76
43	0	0	1833	11	3868	72
44	0	0	1904	11	3869	76
45	0	0	1986	11	3870	75
46	0	0	2051	10	3868	78
47	0	0	2123	10	3866	76
48	0	0	2196	7	3869	76
49	0	0	2252	8	3869	78
50	0	0	2290	11	3870	76
51	0	0	2300	10	3871	75
52	0	0	2293	10	3870	76
53	0	0	2331	10	3870	76
54	0	0	2259	4	3870	76
55	0	0	2158	8	3870	76
56	0	0	2066	6	3869	75
57	0	0	1938	5	3869	75
58	0	0	1857	8	3871	77
59	0	0	1819	10	3869	77
60	0	0	1806	9	3870	76
61	0	0	1812	9	3868	75
62	0	0	1834	10	3868	76
63	0	0	1847	7	3868	76
64	0	0	1913	10	3869	76
65	0	0	1998	10	3870	76
66	0	0	2060	9	3869	71
67	0	0	2130	12	3870	76
68	0	0	2195	11	3869	76
69	0	0	2253	8	3870	78
70	0	0	2293	11	3870	76
71	0	0	2299	10	3869	77
72	0	0	2300	10	3869	76
73	0	0	2340	10	3869	80
74	0	0	2263	4	3869	75
75	0	0	2160	5	3870	77
76	0	0	2071	6	3869	75
77	0	0	1943	6	3868	76
78	0	0	1845	8	3868	80
79	0	0	1809	8	3868	77
80	0	0	1790	9	3870	77
81	0	0	1800	10	3868	75
82	0	0	1828	10	3869	76
83	0	0	1842	10	3871	76
84	0	0	1909	11	3871	76
85	0	0	1996	9	3871	77
86	0	0	2061	9	3869	71
87	0	0	2133	11	3871	76
88	0	0	2199	9	3868	73
89	0	0	2248	11	3868	74
90	0	0	2288	9	3870	76
91	0	0	2296	10	3868	71
92	0	0	2291	10	3869	75
93	0	0	2329	10	3869	78
94	0	0	2252	4	3868	78
95	0	0	2156	4	3869	76
96	0	0	2069	7	3870	76
97	0	0	1944	7	3869	76
98	0	0	1858	8	3869	78
99	0	0	1816	7	3868	75
100	0	0	1793	8	3870	76
101	0	0	1796	10	3870	75
102	0	0	1823	9	3871	75
103	0	0	1847	12	3870	77
104	0	0	1911	11	3868	73
105	0	0	1998	9	3870	76
106	0	0	2064	10	3869	72
107	0	0	2132	10	3869	75
108	0	0	2190	10	3870	78
109	0	0	2247	12	3868	75
110	0	0	2284	8	3870	77
111	0	0	2294	10	3868	73
112	0	0	2292	10	3868	76
113	0	0	2331	8	3868	77
114	0	0	2260	4	3868	77
115	0	0	2161	7	3869	75
116	0	0	2073	6	3870	76
117	0	0	1948	7	3870	76
118	0	0	1855	6	3871	77
119	0	0	1817	6	3871	76
120	0	0	1797	5	3870	76
121	0	0	1799	10	3869	72
122	0	0	1827	11	3870	76
123	0	0	1840	8	3870	77
124	0	0	1908	9	3868	75
125	0	0	1997	9	3870	76
126	0	0	2062	10	3869	76
127	0	0	2133	8	3870	76
0	0	0	2194	9	3869	80
1	0	0	2250	11	3868	75
2	0	0	2288	8	3870	76
3	0	0	2295	10	3869	72
4	0	0	2290	10	3869	74
5	0	0	2329	11	3869	75
6	0	0	2257	7	3868	73
7	0	0	2155	6	3871	75
8	0	0	2069	6	3870	75
9	0	0	1944	6	3870	76
10	0	0	1855	4	3870	77
11	0	0	1815	7	3869	75
12	0	0	1797	8	3871	75
13	0	0	1799	10	3870	74
14	0	0	1820	9	3870	76
15	0	0	1835	10	3872	76
16	0	0	1908	9	3867	73
17	0	0	1994	8	3869	75
18	0	0	2066	10	3868	72
19	0	0	2136	10	3869	76
20	0	0	2195	9	3870	79
21	0	0	2254	12	3868	75
22	0	0	2292	11	3870	76
23	0	0	2300	10	3870	74
24	0	0	2291	10	3870	76
25	0	0	2332	12	3870	75
26	0	0	2259	10	3869	74
27	0	0	2154	4	3871	76
28	0	0	2070	6	3871	75
29	0	0	1946	6	3867	75
30	0	0	1852	6	3870	75
31	0	0	1812	2	3870	76
32	0	0	1798	6	3869	76
33	0	0	1805	10	3869	76
34	0	0	1828	10	3868	76
35	0	0	1839	11	3869	75
36	0	0	1900	10	3868	76
37	0	0	1984	11	3868	76
38	0	0	2050	10	3869	74
39	0	0	2123	10	3870	76
40	0	0	2192	12	3870	75
41	0	0	2253	14	3869	74
42	0	0	2294	8	3871	76
43	0	0	2301	10	3869	72
44	0	0	2292	10	3869	76
45	0	0	2331	8	3869	76
46	0	0	2254	7	3869	76
47	0	0	2147	1	3869	76
48	0	0	2068	7	3868	74
49	0	0	1943	6	3869	76
50	0	0	1854	10	3868	75
51	0	0	1810	11	3868	74
52	0	0	1795	8	3869	77
53	0	0	1800	10	3869	76
54	0	0	1828	10	3869	79
55	0	0	1841	8	3870	76
56	0	0	1904	11	3870	76
57	0	0	1984	11	3871	75
58	0	0	2046	10	3869	76
59	0	0	2125	9	3870	75
60	0	0	2191	10	3870	74
61	0	0	2254	8	3869	76
62	0	0	2294	10	3871	76
63	0	0	2304	10	3872	74
64	0	0	2299	7	3871	76
65	0	0	2335	10	3870	76
66	0	0	2260	7	3870	76
67	0	0	2153	7	3870	76
68	0	0	2067	6	3868	75
69	0	0	1943	6	3870	76
70	0	0	1851	6	3870	80
71	0	0	1811	7	3869	76
72	0	0	1794	8	3871	76
73	0	0	1803	10	3870	75
74	0	0	1833	7	3871	76
75	0	0	1843	9	3869	76
76	0	0	1908	14	3870	76
77	0	0	1990	13	3870	75
78	0	0	2056	10	3869	76
79	0	0	2131	8	3871	75
80	0	0	2197	11	3869	77
81	0	0	2252	11	3871	76
82	0	0	2291	11	3869	76
83	0	0	2301	10	3870	76
84	0	0	2294	12	3868	76
85	0	0	2333	10	3868	73
86	0	0	2264	6	3870	79
87	0	0	2158	11	3869	75
88	0	0	2071	6	3869	75
89	0	0	1949	6	3871	76
90	0	0	1861	8	3871	72
91	0	0	1817	5	3871	79
92	0	0	1795	11	3870	76
93	0	0	1797	11	3869	76
94	0	0	1823	8	3871	76
95	0	0	1841	11	3870	73
96	0	0	1906	9	3869	76
97	0	0	1991	9	3871	76
98	0	0	2060	11	3869	75
99	0	0	2138	7	3870	75
100	0	0	2198	10	3872	78
101	0	0	2252	10	3871	79
102	0	0	2289	13	3869	75
103	0	0	2297	10	3871	76
104	0	0	2289	7	3868	76
105	0	0	2334	7	3870	77
106	0	0	2265	6	3870	78
107	0	0	2160	7	3870	77
108	0	0	2072	7	3870	76
109	0	0	1951	6	3869	75
110	0	0	1856	7	3870	72
111	0	0	1811	6	3872	78
112	0	0	1789	11	3870	76
113	0	0	1796	10	3869	76
114	0	0	1820	8	3867	76
115	0	0	1836	11	3869	72
116	0	0	1899	9	3870	76
117	0	0	1986	10	3870	75
118	0	0	2055	10	3868	75
119	0	0	2129	11	3867	75
120	0	0	2194	10	3868	76
121	0	0	2247	10	3871	76
122	0	0	2288	11	3870	76
123	0	0	2298	10	3870	76
124	0	0	2299	7	3870	76
125	0	0	2334	11	3870	72
126	0	0	2267	6	3872	78
127	0	0	2162	5	3870	76
0	0	0	2076	7	3869	76
1	0	0	1953	3	3870	76
2	0	0	1858	7	3870	74
3	0	0	1813	6	3870	77
4	0	0	1792	8	3870	76
5	0	0	1796	10	3869	75
6	0	0	1821	11	3867	76
7	0	0	1840	7	3868	77
8	0	0	1906	10	3870	75
9	0	0	1990	11	3868	76
10	0	0	2055	10	3869	75
11	0	0	2135	7	3869	76
12	0	0	2198	11	3871	72
13	0	0	2257	11	3872	75
14	0	0	2291	9	3870	73
15	0	0	2296	11	3870	75
16	0	0	2293	7	3869	75
17	0	0	2330	10	3870	74
18	0	0	2262	8	3869	76
19	0	0	2163	6	3870	76
20	0	0	2078	7	3869	76
21	0	0	1944	4	3870	76
22	0	0	1853	7	3868	76
23	0	0	1813	6	3869	76
24	0	0	1797	9	3870	75
25	0	0	1803	10	3868	76
26	0	0	1826	10	3868	75
27	0	0	1827	12	3869	77
28	0	0	1894	12	3869	75
29	0	0	1979	9	3870	75
30	0	0	2044	10	3870	76
31	0	0	2113	11	3867	77
32	0	0	2181	10	3870	77
33	0	0	2242	10	3871	75
34	0	0	2289	10	3870	76
35	0	0	2301	10	3869	77
36	0	0	2302	7	3869	76
37	0	0	2339	8	3869	75
38	0	0	2269	6	3870	76
39	0	0	2167	6	3870	76
40	0	0	2078	7	3867	74
41	0	0	1945	8	3867	75
42	0	0	1849	8	3868	77
43	0	0	1807	8	3869	75
44	0	0	1794	11	3870	75
45	0	0	1799	10	3870	75
46	0	0	1821	11	3868	77
47	0	0	1831	9	3869	74
48	0	0	1897	13	3869	73
49	0	0	1988	8	3870	75
50	0	0	2051	10	3869	75
51	0	0	2124	10	3869	76
52	0	0	2184	10	3869	75
53	0	0	2242	11	3871	75
54	0	0	2282	12	3868	76
55	0	0	2292	10	3869	75
56	0	0	2288	11	3869	76
57	0	0	2334	9	3868	76
58	0	0	2265	6	3869	76
59	0	0	2161	8	3868	76
60	0	0	2068	7	3869	76
61	0	0	1944	4	3870	76
62	0	0	1845	5	3872	76
63	0	0	1804	8	3870	76
64	0	0	1789	8	3871	76
65	0	0	1795	10	3870	75
66	0	0	1820	11	3869	75
67	0	0	1834	9	3869	74
68	0	0	1892	10	3869	76
69	0	0	1982	12	3869	76
70	0	0	2051	10	3869	77
71	0	0	2128	10	3869	75
72	0	0	2194	9	3868	75
73	0	0	2254	11	3868	73
74	0	0	2295	11	3870	76
75	0	0	2308	10	3869	76
76	0	0	2298	10	3868	75
77	0	0	2336	10	3869	76
78	0	0	2266	5	3870	76
79	0	0	2162	8	3868	77
80	0	0	2074	6	3870	76
81	0	0	1950	4	3870	76
82	0	0	1857	6	3872	76
83	0	0	1814	6	3870	76
84	0	0	1802	7	3868	76
85	0	0	1806	10	3869	75
86	0	0	1827	8	3869	76
87	0	0	1836	8	3869	77
88	0	0	1897	10	3868	72
89	0	0	1982	11	3868	76
90	0	0	2048	9	3868	75
91	0	0	2123	9	3870	76
92	0	0	2191	9	3870	77
93	0	0	2251	9	3871	76
94	0	0	2292	10	3871	76
95	0	0	2303	10	3870	78
96	0	0	2304	10	3871	76
97	0	0	2346	10	3869	75
98	0	0	2268	6	3869	76
99	0	0	2162	7	3870	76
100	0	0	2076	6	3869	76
101	0	0	1951	6	3869	76
102	0	0	1852	7	3870	76
103	0	0	1811	7	3868	72
104	0	0	1791	11	3869	76
105	0	0	1796	9	3870	74
106	0	0	1829	12	3868	76
107	0	0	1838	9	3868	76
108	0	0	1898	10	3871	76
109	0	0	1984	11	3870	74
110	0	0	2054	10	3868	76
111	0	0	2129	10	3869	79
112	0	0	2191	10	3870	76
113	0	0	2249	10	3871	75
114	0	0	2287	11	3870	76
115	0	0	2295	10	3872	75
116	0	0	2286	10	3869	76
117	0	0	2331	10	3869	76
118	0	0	2269	6	3867	74
119	0	0	2165	7	3871	74
120	0	0	2082	12	3868	74
121	0	0	1954	7	3869	76
122	0	0	1853	7	3868	75
123	0	0	1810	6	3867	75
124	0	0	1791	7	3869	75
125	0	0	1798	10	3872	76
126	0	0	1823	10	3868	76
127	0	0	1831	9	3870	76
0	0	0	1894	9	3869	73
1	0	0	1981	7	3870	76
2	0	0	2045	9	3870	76
3	0	0	2117	10	3869	76
4	0	0	2178	11	3868	75
5	0	0	2245	11	3869	76
6	0	0	2279	13	3871	75
7	0	0	2291	13	3869	76
8	0	0	2293	10	3869	75
9	0	0	2341	10	3870	79
10	0	0	2271	7	3871	77
11	0	0	2168	5	3869	76
12	0	0	2078	6	3868	75
13	0	0	1956	5	3869	75
14	0	0	1858	6	3869	76
15	0	0	1811	7	3869	76
16	0	0	1794	8	3871	76
17	0	0	1800	10	3870	76
18	0	0	1830	11	3872	75
19	0	0	1843	7	3870	76
20	0	0	1905	10	3869	74
21	0	0	1986	8	3870	74
22	0	0	2050	10	3869	72
23	0	0	2121	10	3869	76
24	0	0	2189	7	3869	76
25	0	0	2248	10	3869	76
26	0	0	2291	7	3870	76
27	0	0	2302	10	3869	76
28	0	0	2293	10	3868	75
29	0	0	2337	10	3869	77
30	0	0	2271	6	3869	76
31	0	0	2163	1	3872	75
32	0	0	2082	7	3871	76
33	0	0	1959	4	3870	76
34	0	0	1866	7	3870	76
35	0	0	1824	6	3869	76
36	0	0	1801	8	3871	76
37	0	0	1805	9	3870	75
38	0	0	1826	11	3870	76
39	0	0	1837	10	3870	77
40	0	0	1894	9	3870	76
41	0	0	1984	7	3868	76
42	0	0	2054	10	3869	76
43	0	0	2125	14	3867	75
44	0	0	2185	11	3868	75
45	0	0	2244	10	3867	76
46	0	0	2283	8	3870	77
47	0	0	2291	10	3869	75
48	0	0	2289	10	3869	75
49	0	0	2332	8	3869	76
50	0	0	2267	7	3869	76
51	0	0	2165	3	3870	76
52	0	0	2078	7	3870	76
53	0	0	1957	6	3870	76
54	0	0	1865	7	3870	77
55	0	0	1816	7	3870	76
56	0	0	1793	8	3871	76
57	0	0	1795	10	3869	76
58	0	0	1817	12	3868	75
59	0	0	1830	11	3869	75
60	0	0	1894	9	3867	75
61	0	0	1983	8	3869	75
62	0	0	2048	11	3868	76
63	0	0	2120	11	3870	75
64	0	0	2187	9	3868	76
65	0	0	2243	10	3869	76
66	0	0	2284	8	3871	76
67	0	0	2291	10	3870	76
68	0	0	2282	10	3870	76
69	0	0	2334	11	3870	73
70	0	0	2273	6	3868	76
71	0	0	2169	4	3871	77
72	0	0	2081	7	3869	76
73	0	0	1956	6	3869	76
74	0	0	1862	8	3869	75
75	0	0	1816	8	3867	76
76	0	0	1799	8	3870	75
77	0	0	1799	10	3869	75
78	0	0	1822	11	3870	76
79	0	0	1834	10	3870	73
80	0	0	1897	9	3867	76
81	0	0	1983	8	3869	75
82	0	0	2050	10	3869	76
83	0	0	2117	10	3870	76
84	0	0	2182	8	3870	75
85	0	0	2237	9	3872	75
86	0	0	2282	11	3871	76
87	0	0	2296	10	3874	75
88	0	0	2286	9	3869	75
89	0	0	2331	8	3869	76
90	0	0	2267	7	3868	76
91	0	0	2165	6	3871	76
92	0	0	2078	6	3869	76
93	0	0	1956	6	3869	75
94	0	0	1862	8	3869	75
95	0	0	1816	7	3868	76
96	0	0	1796	8	3870	76
97	0	0	1803	10	3868	75
98	0	0	1820	10	3869	74
99	0	0	1836	8	3870	77
100	0	0	1902	9	3871	76
101	0	0	1995	10	3871	76
102	0	0	2060	10	3870	76
103	0	0	2133	10	3870	76
104	0	0	2194	10	3871	76
105	0	0	2253	11	3872	75
106	0	0	2288	8	3871	76
107	0	0	2297	10	3871	75
108	0	0	2293	10	3869	75
109	0	0	2341	10	3869	73
110	0	0	2276	8	3871	76
111	0	0	2170	7	3870	77
112	0	0	2082	6	3868	76
113	0	0	1957	7	3867	75
114	0	0	1860	7	3869	76
115	0	0	1814	7	3868	76
116	0	0	1789	7	3872	74
117	0	0	1794	10	3870	75
118	0	0	1814	9	3871	76
119	0	0	1827	10	3871	76
120	0	0	1887	9	3870	76
121	0	0	1976	10	3870	76
122	0	0	2043	9	3870	75
123	0	0	2119	9	3871	76
124	0	0	2186	11	3869	75
125	0	0	2245	11	3868	78
126	0	0	2288	10	3870	76
127	0	0	2297	10	3869	74
0	0	0	2292	8	3871	74
1	0	0	2332	12	3868	75
2	0	0	2268	6	3869	75
3	0	0	2168	6	3869	76
4	0	0	2082	7	3869	76
5	0	0	1957	7	3870	75
6	0	0	1864	7	3872	76
7	0	0	1816	7	3870	75
8	0	0	1801	10	3871	76
9	0	0	1810	10	3871	75
10	0	0	1828	12	3870	76
11	0	0	1833	12	3869	76
12	0	0	1891	10	3868	76
13	0	0	1977	10	3870	75
14	0	0	2049	10	3867	75
15	0	0	2126	8	3871	75
16	0	0	2186	14	3868	73
17	0	0	2247	11	3870	75
18	0	0	2285	10	3871	76
19	0	0	2299	10	3869	76
20	0	0	2291	10	3869	76
21	0	0	2334	12	3869	73
22	0	0	2272	7	3869	76
23	0	0	2166	6	3869	75
24	0	0	2077	7	3870	75
25	0	0	1956	7	3870	76
26	0	0	1863	6	3870	74
27	0	0	1815	6	3871	76
28	0	0	1794	8	3869	77
29	0	0	1798	10	3868	76
30	0	0	1822	8	3868	77
31	0	0	1833	11	3869	75
32	0	0	1895	10	3870	76
33	0	0	1982	9	3868	76
34	0	0	2050	11	3869	76
35	0	0	2124	9	3869	77
36	0	0	2186	12	3869	74
37	0	0	2248	10	3869	74
38	0	0	2286	10	3869	76
39	0	0	2299	11	3869	76
40	0	0	2293	10	3870	76
41	0	0	2336	11	3872	75
42	0	0	2275	6	3870	75
43	0	0	2167	6	3869	76
44	0	0	2083	7	3869	77
45	0	0	1954	6	3869	75
46	0	0	1856	6	3872	77
47	0	0	1811	7	3869	73
48	0	0	1794	8	3870	76
49	0	0	1803	10	3870	75
50	0	0	1825	10	3868	76
51	0	0	1831	10	3869	76
52	0	0	1892	12	3870	76
53	0	0	1975	12	3871	75
54	0	0	2050	11	3869	76
55	0	0	2118	10	3870	77
56	0	0	2181	10	3872	75
57	0	0	2248	11	3871	75
58	0	0	2287	10	3870	76
59	0	0	2302	10	3871	74
60	0	0	2297	10	3869	75
61	0	0	2338	7	3872	75
62	0	0	2273	6	3871	75
63	0	0	2165	7	3868	76
64	0	0	2080	7	3868	75
65	0	0	1963	6	3868	75
66	0	0	1865	7	3872	75
67	0	0	1822	7	3871	74
68	0	0	1802	8	3869	77
69	0	0	1805	10	3868	76
70	0	0	1822	10	3868	76
71	0	0	1830	10	3869	74
72	0	0	1890	10	3871	75
73	0	0	1971	8	3870	77
74	0	0	2037	12	3869	76
75	0	0	2115	9	3870	76
76	0	0	2183	10	3872	75
77	0	0	2251	9	3871	75
78	0	0	2285	12	3870	78
79	0	0	2297	8	3865	75
80	0	0	2286	12	3868	75
81	0	0	2328	10	3869	75
82	0	0	2269	6	3868	73
83	0	0	2174	7	3869	76
84	0	0	2085	7	3869	75
85	0	0	1960	7	3870	76
86	0	0	1861	6	3869	75
87	0	0	1811	7	3870	76
88	0	0	1790	8	3871	76
89	0	0	1791	11	3870	76
90	0	0	1820	10	3867	78
91	0	0	1829	10	3870	76
92	0	0	1896	10	3871	76
93	0	0	1989	10	3870	75
94	0	0	2054	10	3869	76
95	0	0	2118	10	3869	76
96	0	0	2181	10	3869	76
97	0	0	2238	10	3871	74
98	0	0	2277	10	3870	75
99	0	0	2287	10	3869	75
100	0	0	2285	10	3868	76
101	0	0	2326	11	3868	76
102	0	0	2267	6	3869	76
103	0	0	2168	3	3867	76
104	0	0	2080	6	3871	76
105	0	0	1959	8	3870	74
106	0	0	1859	6	3870	76
107	0	0	1813	6	3870	74
108	0	0	1800	8	3871	76
109	0	0	1807	10	3870	75
110	0	0	1831	11	3871	76
111	0	0	1835	10	3870	76
112	0	0	1893	10	3870	76
113	0	0	1977	10	3871	76
114	0	0	2048	10	3869	76
115	0	0	2121	11	3867	74
116	0	0	2181	8	3871	75
117	0	0	2239	10	3869	74
118	0	0	2278	10	3871	77
119	0	0	2289	10	3869	75
120	0	0	2285	10	3871	76
121	0	0	2333	11	3871	75
122	0	0	2275	7	3871	75
123	0	0	2174	7	3872	74
124	0	0	2088	6	3870	77
125	0	0	1967	7	3870	76
126	0	0	1869	7	3870	75
127	0	0	1822	8	3869	76
0	0	0	1804	10	3870	75
1	0	0	1807	10	3870	77
2	0	0	1826	12	3869	76
3	0	0	1834	10	3869	76
4	0	0	1894	10	3870	75
5	0	0	1984	9	3870	75
6	0	0	2050	10	3868	74
7	0	0	2120	10	3866	78
8	0	0	2178	10	3869	77
9	0	0	2241	10	3871	75
10	0	0	2276	11	3871	76
11	0	0	2292	10	3870	76
12	0	0	2281	10	3870	75
13	0	0	2328	8	3871	74
14	0	0	2269	6	3871	76
15	0	0	2164	6	3872	74
16	0	0	2078	6	3869	76
17	0	0	1957	6	3869	76
18	0	0	1867	6	3869	76
19	0	0	1819	6	3867	77
20	0	0	1802	8	3871	51
21	0	0	1812	10	3870	75
22	0	0	1837	13	3869	76
23	0	0	1845	10	3869	76
24	0	0	1905	11	3870	76
25	0	0	1988	7	3871	76
26	0	0	2056	10	3869	76
27	0	0	2128	11	3869	75
28	0	0	2194	8	3871	75
29	0	0	2246	8	3871	74
30	0	0	2283	11	3872	74
31	0	0	2290	12	3870	76
32	0	0	2280	9	3871	76
33	0	0	2327	10	3871	74
34	0	0	2274	5	3870	75
35	0	0	2170	6	3871	77
36	0	0	2080	6	3869	76
37	0	0	1962	7	3869	75
38	0	0	1864	6	3869	76
39	0	0	1817	7	3870	76
40	0	0	1799	9	3866	76
41	0	0	1804	10	3868	75
42	0	0	1828	11	3869	75
43	0	0	1835	8	3872	75
44	0	0	1892	10	3870	75
45	0	0	1977	11	3871	77
46	0	0	2045	10	3870	76
47	0	0	2118	11	3870	76
48	0	0	2184	10	3869	76
49	0	0	2247	10	3870	75
50	0	0	2291	10	3871	75
51	0	0	2304	10	3869	76
52	0	0	2299	10	3870	74
53	0	0	2334	10	3869	75
54	0	0	2274	6	3871	76
55	0	0	2164	6	3870	77
56	0	0	2073	6	3868	76
57	0	0	1957	6	3869	76
58	0	0	1867	8	3867	76
59	0	0	1819	7	3870	75
60	0	0	1801	9	3870	76
61	0	0	1805	10	3870	75
62	0	0	1830	10	3871	76
63	0	0	1844	8	3871	75
64	0	0	1886	9	3870	75
65	0	0	1971	11	3868	76
66	0	0	2032	10	3870	75
67	0	0	2106	11	3870	75
68	0	0	2170	10	3871	75
69	0	0	2234	10	3871	76
70	0	0	2279	10	3870	76
71	0	0	2292	10	3869	72
72	0	0	2287	12	3869	75
73	0	0	2331	10	3870	73
74	0	0	2273	7	3869	73
75	0	0	2169	6	3865	76
76	0	0	2084	6	3869	76
77	0	0	1965	7	3870	75
78	0	0	1869	6	3872	75
79	0	0	1827	6	3871	76
80	0	0	1803	7	3868	75
81	0	0	1801	9	3870	76
82	0	0	1822	10	3871	76
83	0	0	1829	10	3869	76
84	0	0	1886	11	3868	73
85	0	0	1973	10	3868	75
86	0	0	2043	10	3869	77
87	0	0	2116	10	3869	75
88	0	0	2173	9	3870	74
89	0	0	2235	8	3870	74
90	0	0	2282	10	3868	76
91	0	0	2294	10	3868	74
92	0	0	2288	10	3869	76
93	0	0	2324	11	3869	75
94	0	0	2268	7	3868	77
95	0	0	2169	1	3868	76
96	0	0	2084	7	3871	76
97	0	0	1967	7	3869	75
98	0	0	1872	7	3869	75
99	0	0	1822	7	3870	73
100	0	0	1803	8	3868	76
101	0	0	1806	10	3868	75
102	0	0	1824	11	3870	76
103	0	0	1838	10	3870	75
104	0	0	1888	9	3869	73
105	0	0	1969	10	3869	75
106	0	0	2036	10	3869	76
107	0	0	2109	10	3869	76
108	0	0	2174	11	3869	76
109	0	0	2238	10	3870	73
110	0	0	2283	10	3868	75
111	0	0	2293	9	3871	76
112	0	0	2287	10	3870	76
113	0	0	2326	10	3868	78
114	0	0	2270	7	3871	75
115	0	0	2170	7	3871	76
116	0	0	2082	6	3869	76
117	0	0	1964	7	3871	76
118	0	0	1868	4	3870	76
119	0	0	1821	6	3870	73
120	0	0	1809	8	3869	76
121	0	0	1814	11	3869	75
122	0	0	1830	10	3868	76
123	0	0	1840	10	3868	75
124	0	0	1895	11	3870	75
125	0	0	1975	10	3870	75
126	0	0	2047	10	3869	76
127	0	0	2120	10	3870	76
0	0	0	2179	10	3868	77
1	0	0	2242	11	3869	73
2	0	0	2286	10	3870	76
3	0	0	2303	10	3870	75
4	0	0	2298	10	3869	76
5	0	0	2333	11	3870	73
6	0	0	2275	6	3870	75
7	0	0	2174	6	3868	76
8	0	0	2087	7	3869	75
9	0	0	1972	6	3868	76
10	0	0	1873	6	3866	78
11	0	0	1826	7	3868	73
12	0	0	1811	8	3871	74
13	0	0	1816	11	3865	76
14	0	0	1834	10	3869	75
15	0	0	1839	9	3868	77
16	0	0	1885	8	3870	74
17	0	0	1972	10	3871	74
18	0	0	2037	10	3870	76
19	0	0	2112	10	3869	76
20	0	0	2177	10	3868	78
21	0	0	2241	11	3869	74
22	0	0	2288	9	3868	74
23	0	0	2299	9	3870	74
24	0	0	2291	11	3869	76
25	0	0	2335	11	3869	75
26	0	0	2275	7	3870	76
27	0	0	2172	6	3869	75
28	0	0	2085	7	3870	76
29	0	0	1966	7	3868	76
30	0	0	1872	7	3869	76
31	0	0	1829	6	3870	75
32	0	0	1809	8	3870	75
33	0	0	1811	10	3871	75
34	0	0	1828	10	3868	73
35	0	0	1837	11	3870	76
36	0	0	1884	9	3871	76
37	0	0	1972	10	3871	77
38	0	0	2043	10	3869	76
39	0	0	2112	8	3871	76
40	0	0	2172	10	3868	75
41	0	0	2240	11	3869	78
42	0	0	2289	11	3871	77
43	0	0	2304	10	3868	75
44	0	0	2298	10	3868	76
45	0	0	2334	11	3869	75
46	0	0	2274	7	3869	76
47	0	0	2174	7	3868	76
48	0	0	2089	6	3868	76
49	0	0	1968	5	3871	74
50	0	0	1866	7	3870	75
51	0	0	1821	7	3870	76
52	0	0	1800	8	3869	75
53	0	0	1802	10	3870	76
54	0	0	1823	7	3870	75
55	0	0	1835	11	3871	73
56	0	0	1886	11	3868	74
57	0	0	1970	10	3869	74
58	0	0	2044	9	3869	75
59	0	0	2119	8	3870	75
60	0	0	2178	10	3870	75
61	0	0	2241	11	3868	76
62	0	0	2287	11	3869	75
63	0	0	2297	10	3868	71
64	0	0	2295	8	3870	75
65	0	0	2328	10	3870	74
66	0	0	2273	7	3871	78
67	0	0	2175	7	3869	73
68	0	0	2089	7	3870	76
69	0	0	1976	8	3870	76
70	0	0	1879	10	3870	75
71	0	0	1825	6	3870	76
72	0	0	1804	8	3872	75
73	0	0	1808	10	3869	76
74	0	0	1832	7	3871	75
75	0	0	1844	11	3869	72
76	0	0	1896	10	3869	75
77	0	0	1975	10	3867	75
78	0	0	2042	10	3868	75
79	0	0	2108	9	3868	76
80	0	0	2176	11	3870	72
81	0	0	2242	10	3869	76
82	0	0	2287	11	3868	76
83	0	0	2299	11	3871	75
84	0	0	2293	10	3869	75
85	0	0	2333	11	3870	76
86	0	0	2276	7	3870	76
87	0	0	2177	12	3867	79
88	0	0	2088	7	3871	76
89	0	0	1972	5	3868	75
90	0	0	1873	9	3872	75
91	0	0	1825	7	3870	78
92	0	0	1802	8	3867	74
93	0	0	1804	10	3869	75
94	0	0	1825	8	3871	76
95	0	0	1836	11	3870	73
96	0	0	1889	9	3869	79
97	0	0	1976	11	3869	75
98	0	0	2045	10	3869	76
99	0	0	2119	10	3869	73
100	0	0	2183	12	3872	75
101	0	0	2247	11	3871	77
102	0	0	2283	10	3872	73
103	0	0	2293	10	3870	73
104	0	0	2284	13	3872	75
105	0	0	2325	12	3869	76
106	0	0	2280	7	3870	76
107	0	0	2176	7	3872	75
108	0	0	2084	6	3868	75
109	0	0	1969	6	3869	75
110	0	0	1872	6	3870	76
111	0	0	1822	8	3869	76
112	0	0	1801	7	3868	75
113	0	0	1805	11	3868	75
114	0	0	1823	10	3868	76
115	0	0	1838	12	3872	75
116	0	0	1888	10	3870	75
117	0	0	1969	11	3870	76
118	0	0	2036	11	3870	76
119	0	0	2111	10	3870	76
120	0	0	2179	10	3871	79
121	0	0	2246	10	3870	77
122	0	0	2288	10	3872	75
123	0	0	2305	10	3871	76
124	0	0	2296	7	3867	76
125	0	0	2339	12	3869	75
126	0	0	2287	6	3870	76
127	0	0	2185	8	3865	71
0	0	0	2102	5	3870	76
1	0	0	1977	3	3867	76
2	0	0	1874	7	3869	75
3	0	0	1826	8	3868	79
4	0	0	1806	8	3868	77
5	0	0	1807	10	3870	76
6	0	0	1823	10	3867	76
7	0	0	1838	11	3870	74
8	0	0	1887	8	3870	76
9	0	0	1969	10	3870	76
10	0	0	2037	10	3869	75
11	0	0	2111	10	3869	73
12	0	0	2177	6	3870	75
13	0	0	2243	11	3870	75
14	0	0	2278	12	3868	76
15	0	0	2292	10	3870	75
16	0	0	2282	13	3869	76
17	0	0	2318	11	3869	75
18	0	0	2270	5	3870	76
19	0	0	2172	6	3870	75
20	0	0	2089	5	3869	76
21	0	0	1972	6	3871	76
22	0	0	1879	6	3871	76
23	0	0	1827	4	3871	77
24	0	0	1807	8	3870	76
25	0	0	1807	11	3870	75
26	0	0	1828	12	3869	76
27	0	0	1839	10	3870	75
28	0	0	1892	11	3870	77
29	0	0	1976	10	3871	75
30	0	0	2040	10	3869	76
31	0	0	2109	10	3868	76
32	0	0	2175	9	3868	78
33	0	0	2238	11	3872	75
34	0	0	2278	10	3870	76
35	0	0	2294	10	3870	76
36	0	0	2286	10	3868	75
37	0	0	2320	8	3870	76
38	0	0	2274	6	3872	74
39	0	0	2174	7	3871	74
40	0	0	2088	7	3870	76
41	0	0	1969	6	3867	78
42	0	0	1866	7	3869	76
43	0	0	1811	7	3870	76
44	0	0	1793	9	3871	76
45	0	0	1798	10	3869	75
46	0	0	1819	11	3868	75
47	0	0	1836	10	3868	78
48	0	0	1890	11	3869	76
49	0	0	1976	10	3870	74
50	0	0	2045	11	3868	76
51	0	0	2110	10	3868	76
52	0	0	2173	10	3869	75
53	0	0	2233	11	3871	73
54	0	0	2281	10	3869	74
55	0	0	2299	9	3871	78
56	0	0	2291	11	3870	76
57	0	0	2326	7	3871	74
58	0	0	2276	6	3871	76
59	0	0	2171	6	3870	76
60	0	0	2085	7	3869	76
61	0	0	1972	6	3866	77
62	0	0	1876	6	3868	78
63	0	0	1826	7	3871	75
64	0	0	1807	5	3870	76
65	0	0	1802	9	3868	75
66	0	0	1822	10	3868	76
67	0	0	1839	7	3870	74
68	0	0	1886	10	3869	73
69	0	0	1970	9	3871	75
70	0	0	2036	11	3870	75
71	0	0	2110	9	3869	75
72	0	0	2175	8	3871	76
73	0	0	2231	10	3871	74
74	0	0	2269	10	3870	75
75	0	0	2284	12	3870	76
76	0	0	2276	10	3872	74
77	0	0	2322	10	3871	76
78	0	0	2272	6	3869	73
79	0	0	2171	6	3869	75
80	0	0	2081	10	3868	75
81	0	0	1972	6	3869	76
82	0	0	1868	4	3870	76
83	0	0	1816	7	3869	72
84	0	0	1795	7	3869	74
85	0	0	1799	12	3868	76
86	0	0	1822	10	3872	76
87	0	0	1835	13	3871	75
88	0	0	1883	9	3870	73
89	0	0	1970	10	3871	75
90	0	0	2035	14	3870	75
91	0	0	2108	10	3870	76
92	0	0	2174	12	3871	76
93	0	0	2230	10	3870	72
94	0	0	2276	10	3869	76
95	0	0	2294	10	3871	76
96	0	0	2288	10	3871	77
97	0	0	2328	7	3869	75
98	0	0	2278	6	3870	75
99	0	0	2172	6	3869	75
100	0	0	2082	7	3868	76
101	0	0	1962	6	3870	75
102	0	0	1865	6	3870	76
103	0	0	1819	7	3868	77
104	0	0	1805	8	3870	76
105	0	0	1806	10	3870	76
106	0	0	1828	10	3872	76
107	0	0	1842	9	3867	76
108	0	0	1890	11	3869	76
109	0	0	1976	10	3869	75
110	0	0	2046	10	3871	76
111	0	0	2121	14	3869	73
112	0	0	2187	7	3872	75
113	0	0	2246	10	3870	75
114	0	0	2280	10	3868	76
115	0	0	2284	11	3868	76
116	0	0	2276	10	3870	75
117	0	0	2319	9	3866	77
118	0	0	2271	7	3868	78
119	0	0	2170	6	3868	74
120	0	0	2085	7	3870	76
121	0	0	1968	7	3873	76
122	0	0	1867	5	3869	76
123	0	0	1815	6	3870	78
124	0	0	1799	8	3869	76
125	0	0	1801	15	3869	76
126	0	0	1825	10	3870	74
127	0	0	1837	11	3869	75
0	0	0	1888	10	3870	75
1	0	0	1972	10	3870	75
2	0	0	2039	10	3869	76
3	0	0	2105	11	3870	75
4	0	0	2167	9	3869	76
5	0	0	2229	10	3870	75
6	0	0	2274	13	3866	79
7	0	0	2289	12	3868	76
8	0	0	2278	10	3870	73
9	0	0	2323	9	3870	76
10	0	0	2282	7	3870	76
11	0	0	2174	7	3870	76
12	0	0	2085	11	3869	75
13	0	0	1969	6	3869	74
14	0	0	1873	7	3870	75
15	0	0	1823	7	3871	75
16	0	0	1800	8	3869	76
17	0	0	1805	11	3868	75
18	0	0	1826	9	3868	76
19	0	0	1837	9	3869	73
20	0	0	1883	11	3870	76
21	0	0	1966	9	3870	76
22	0	0	2038	7	3868	75
23	0	0	2108	10	3868	76
24	0	0	2168	10	3870	79
25	0	0	2231	8	3870	77
26	0	0	2279	10	3870	74
27	0	0	2291	9	3870	76
28	0	0	2290	9	3870	76
29	0	0	2330	10	3869	76
30	0	0	2283	5	3870	79
31	0	0	2178	6	3869	76
32	0	0	2093	6	3871	76
33	0	0	1977	8	3868	77
34	0	0	1878	3	3868	77
35	0	0	1831	7	3869	76
36	0	0	1809	8	3868	76
37	0	0	1809	10	3868	77
38	0	0	1826	10	3869	72
39	0	0	1839	11	3868	73
40	0	0	1891	10	3869	76
41	0	0	1975	10	3868	78
42	0	0	2043	10	3869	78
43	0	0	2113	10	3869	76
44	0	0	2174	11	3872	76
45	0	0	2236	11	3871	77
46	0	0	2276	10	3871	76
47	0	0	2292	11	3870	76
48	0	0	2287	10	3868	76
49	0	0	2333	9	3870	75
50	0	0	2284	6	3870	76
51	0	0	2177	6	3870	76
52	0	0	2086	8	3869	76
53	0	0	1971	6	3869	76
54	0	0	1873	7	3869	76
55	0	0	1821	7	3869	76
56	0	0	1801	8	3868	78
57	0	0	1804	7	3868	75
58	0	0	1829	7	3869	76
59	0	0	1843	8	3868	77
60	0	0	1896	10	3870	78
61	0	0	1975	10	3870	78
62	0	0	2041	9	3870	76
63	0	0	2114	7	3870	74
64	0	0	2177	12	3870	78
65	0	0	2238	10	3870	79
66	0	0	2278	10	3869	78
67	0	0	2286	9	3869	76
68	0	0	2277	8	3869	76
69	0	0	2314	12	3868	80
70	0	0	2266	7	3869	79
71	0	0	2163	7	3869	75
72	0	0	2080	7	3870	76
73	0	0	1972	9	3872	75
74	0	0	1876	8	3868	77
75	0	0	1830	7	3870	76
76	0	0	1813	9	3871	76
77	0	0	1815	7	3870	76
78	0	0	1828	11	3870	75
79	0	0	1841	8	3871	78
80	0	0	1899	8	3870	76
81	0	0	1975	10	3871	76
82	0	0	2043	11	3869	75
83	0	0	2112	10	3868	77
84	0	0	2175	8	3870	76
85	0	0	2233	10	3871	76
86	0	0	2272	10	3868	77
87	0	0	2293	10	3870	76
88	0	0	2290	12	3869	75
89	0	0	2334	10	3868	75
90	0	0	2284	7	3869	77
91	0	0	2181	6	3868	78
92	0	0	2093	7	3869	76
93	0	0	1980	6	3870	76
94	0	0	1881	8	3872	76
95	0	0	1830	7	3870	76
96	0	0	1813	8	3871	76
97	0	0	1813	8	3870	76
98	0	0	1829	10	3869	77
99	0	0	1838	8	3869	75
100	0	0	1886	10	3870	77
101	0	0	1966	10	3869	75
102	0	0	2032	10	3872	76
103	0	0	2100	11	3869	76
104	0	0	2160	8	3869	76
105	0	0	2225	10	3870	75
106	0	0	2270	9	3868	75
107	0	0	2288	10	3868	75
108	0	0	2279	10	3868	75
109	0	0	2330	9	3870	75
110	0	0	2287	7	3870	76
111	0	0	2185	8	3871	76
112	0	0	2097	8	3869	76
113	0	0	1980	6	3869	79
114	0	0	1882	4	3870	75
115	0	0	1830	6	3870	76
116	0	0	1810	9	3869	75
117	0	0	1813	11	3869	76
118	0	0	1837	11	3869	76
119	0	0	1842	12	3869	75
120	0	0	1890	9	3870	76
121	0	0	1974	10	3868	77
122	0	0	2043	7	3868	75
123	0	0	2106	10	3868	78
124	0	0	2163	12	3870	79
125	0	0	2221	11	3869	76
126	0	0	2263	10	3869	74
127	0	0	2284	10	3869	76
0	0	0	2280	10	3870	75
1	0	0	2326	10	3871	79
2	0	0	2282	6	3870	76
3	0	0	2182	7	3869	75
4	0	0	2094	8	3869	76
5	0	0	1977	8	3869	76
6	0	0	1881	10	3869	76
7	0	0	1831	7	3870	75
8	0	0	1807	8	3869	74
9	0	0	1808	7	3869	76
10	0	0	1823	9	3868	78
11	0	0	1837	10	3869	73
12	0	0	1886	9	3869	75
13	0	0	1972	10	3869	75
14	0	0	2042	10	3870	75
15	0	0	2108	10	3869	76
16	0	0	2162	10	3871	79
17	0	0	2227	10	3871	75
18	0	0	2267	11	3869	74
19	0	0	2283	10	3870	76
20	0	0	2275	12	3870	76
21	0	0	2320	7	3869	75
22	0	0	2277	5	3869	76
23	0	0	2176	5	3869	77
24	0	0	2090	7	3868	76
25	0	0	1977	8	3868	76
26	0	0	1885	5	3870	79
27	0	0	1837	7	3869	76
28	0	0	1810	8	3868	76
29	0	0	1816	10	3867	74
30	0	0	1830	10	3869	76
31	0	0	1839	7	3869	75
32	0	0	1882	11	3870	76
33	0	0	1969	11	3871	74
34	0	0	2033	10	3869	76
35	0	0	2104	10	3869	75
36	0	0	2170	7	3871	75
37	0	0	2230	9	3871	75
38	0	0	2273	8	3870	76
39	0	0	2282	11	3869	76
40	0	0	2276	10	3869	74
41	0	0	2314	11	3869	76
42	0	0	2278	4	3868	76
43	0	0	2176	7	3870	76
44	0	0	2085	7	3868	76
45	0	0	1975	6	3868	75
46	0	0	1879	7	3870	76
47	0	0	1833	7	3869	76
48	0	0	1813	8	3871	76
49	0	0	1812	11	3869	76
50	0	0	1832	10	3871	74
51	0	0	1844	14	3870	73
52	0	0	1883	8	3871	78
53	0	0	1972	10	3869	76
54	0	0	2043	10	3872	73
55	0	0	2107	8	3868	76
56	0	0	2168	11	3870	76
57	0	0	2231	10	3871	76
58	0	0	2278	10	3869	74
59	0	0	2291	9	3870	76
60	0	0	2283	7	3870	74
61	0	0	2320	14	3868	76
62	0	0	2287	7	3870	73
63	0	0	2183	7	3868	76
64	0	0	2088	5	3869	76
65	0	0	1973	6	3869	75
66	0	0	1880	7	3870	76
67	0	0	1831	7	3870	76
68	0	0	1808	8	3870	76
69	0	0	1812	10	3869	76
70	0	0	1831	11	3869	73
71	0	0	1841	7	3869	75
72	0	0	1879	8	3870	77
73	0	0	1964	11	3869	76
74	0	0	2035	10	3869	76
75	0	0	2101	10	3869	74
76	0	0	2160	9	3870	75
77	0	0	2220	9	3871	75
78	0	0	2273	10	3871	75
79	0	0	2289	10	3868	75
80	0	0	2279	9	3868	75
81	0	0	2319	11	3870	76
82	0	0	2282	7	3871	77
83	0	0	2178	7	3870	78
84	0	0	2090	6	3870	75
85	0	0	1981	8	3869	75
86	0	0	1888	8	3870	76
87	0	0	1837	8	3869	77
88	0	0	1812	8	3869	76
89	0	0	1810	10	3869	74
90	0	0	1833	8	3868	76
91	0	0	1845	11	3868	75
92	0	0	1884	9	3869	76
93	0	0	1970	10	3869	77
94	0	0	2049	10	3870	76
95	0	0	2116	7	3867	76
96	0	0	2174	12	3869	77
97	0	0	2234	10	3869	75
98	0	0	2274	10	3869	76
99	0	0	2282	10	3870	77
100	0	0	2278	11	3869	73
101	0	0	2317	11	3869	76
102	0	0	2281	4	3871	76
103	0	0	2186	7	3869	63
104	0	0	2093	7	3869	76
105	0	0	1982	4	3869	76
106	0	0	1886	8	3869	77
107	0	0	1835	8	3869	76
108	0	0	1813	9	3872	78
109	0	0	1818	10	3869	76
110	0	0	1834	10	3868	76
111	0	0	1843	10	3868	76
112	0	0	1882	9	3868	75
113	0	0	1965	10	3870	75
114	0	0	2036	10	3869	75
115	0	0	2109	10	3869	76
116	0	0	2171	11	3871	76
117	0	0	2232	11	3870	76
118	0	0	2277	10	3871	76
119	0	0	2289	9	3868	75
120	0	0	2281	10	3870	76
121	0	0	2325	12	3869	77
122	0	0	2284	7	3870	77
123	0	0	2186	7	3869	71
124	0	0	2098	5	3869	76
125	0	0	1984	5	3868	76
126	0	0	1881	5	3869	77
127	0	0	1830	8	3870	75
0	0	0	1807	14	3868	75
1	0	0	1807	10	3868	76
2	0	0	1829	7	3869	76
3	0	0	1844	10	3869	76
4	0	0	1890	9	3871	77
5	0	0	1976	10	3870	71
6	0	0	2049	11	3871	76
7	0	0	2112	7	3868	77
8	0	0	2167	12	3870	77
9	0	0	2221	10	3870	76
10	0	0	2264	10	3868	71
11	0	0	2277	10	3869	75
12	0	0	2270	12	3871	76
13	0	0	2312	12	3868	75
14	0	0	2284	7	3869	75
15	0	0	2182	5	3869	78
16	0	0	2094	7	3868	76
17	0	0	1991	5	3869	76
18	0	0	1891	8	3869	76
19	0	0	1837	7	3871	76
20	0	0	1812	8	3869	75
21	0	0	1816	11	3871	76
22	0	0	1832	10	3871	73
23	0	0	1842	10	3869	75
24	0	0	1889	9	3871	75
25	0	0	1973	10	3869	77
26	0	0	2043	14	3868	75
27	0	0	2112	10	3870	78
28	0	0	2172	6	3869	78
29	0	0	2226	9	3871	75
30	0	0	2263	10	3869	73
31	0	0	2279	10	3869	75
32	0	0	2270	11	3868	76
33	0	0	2313	10	3870	75
34	0	0	2279	7	3869	76
35	0	0	2178	6	3868	71
36	0	0	2089	8	3869	76
37	0	0	1980	5	3870	76
38	0	0	1883	7	3871	75
39	0	0	1837	7	3871	76
40	0	0	1814	8	3870	73
41	0	0	1813	15	3869	75
42	0	0	1830	11	3869	80
43	0	0	1846	10	3869	79
44	0	0	1885	9	3870	76
45	0	0	1972	10	3867	75
46	0	0	2043	10	3868	75
47	0	0	2105	9	3869	76
48	0	0	2167	8	3868	77
49	0	0	2229	11	3869	74
50	0	0	2276	10	3870	76
51	0	0	2291	10	3868	75
52	0	0	2284	10	3869	76
53	0	0	2319	9	3867	75
54	0	0	2284	7	3870	75
55	0	0	2179	6	3870	67
56	0	0	2084	10	3869	75
57	0	0	1976	6	3871	79
58	0	0	1882	8	3870	77
59	0	0	1832	6	3871	75
60	0	0	1807	8	3872	75
61	0	0	1810	10	3869	75
62	0	0	1828	10	3870	79
63	0	0	1845	8	3869	78
64	0	0	1887	8	3869	76
65	0	0	1973	10	3868	75
66	0	0	2040	10	3868	75
67	0	0	2104	10	3869	75
68	0	0	2167	9	3869	74
69	0	0	2231	8	3869	73
70	0	0	2275	10	3871	75
71	0	0	2292	10	3870	76
72	0	0	2282	10	3870	75
73	0	0	2317	11	3869	75
74	0	0	2281	4	3871	76
75	0	0	2177	7	3870	72
76	0	0	2084	8	3870	76
77	0	0	1976	5	3869	76
78	0	0	1879	8	3868	75
79	0	0	1830	5	3869	75
80	0	0	1807	8	3869	73
81	0	0	1806	10	3870	76
82	0	0	1827	9	3870	74
83	0	0	1843	11	3868	74
84	0	0	1879	8	3872	75
85	0	0	1961	10	3868	76
86	0	0	2034	10	3869	76
87	0	0	2103	10	3871	76
88	0	0	2163	9	3871	76
89	0	0	2224	8	3871	76
90	0	0	2268	11	3870	72
91	0	0	2283	10	3870	77
92	0	0	2274	8	3870	76
93	0	0	2310	10	3868	75
94	0	0	2276	11	3869	75
95	0	0	2181	7	3869	72
96	0	0	2089	7	3869	76
97	0	0	1979	3	3869	76
98	0	0	1884	7	3868	74
99	0	0	1830	4	3869	76
100	0	0	1804	8	3868	76
101	0	0	1808	10	3867	75
102	0	0	1829	8	3870	77
103	0	0	1847	12	3869	75
104	0	0	1890	8	3870	76
105	0	0	1971	10	3869	76
106	0	0	2042	10	3870	76
107	0	0	2110	8	3870	76
108	0	0	2169	11	3869	74
109	0	0	2230	10	3871	75
110	0	0	2276	10	3869	72
111	0	0	2288	11	3867	75
112	0	0	2281	10	3870	75
113	0	0	2323	10	3870	76
114	0	0	2289	4	3870	76
115	0	0	2193	6	3870	75
116	0	0	2104	4	3868	75
117	0	0	1991	6	3869	75
118	0	0	1890	6	3869	75
119	0	0	1831	3	3870	76
120	0	0	1803	8	3871	76
121	0	0	1807	9	3869	75
122	0	0	1827	9	3870	73
123	0	0	1841	10	3868	76
124	0	0	1880	8	3871	76
125	0	0	1966	10	3870	76
126	0	0	2041	10	3869	76
127	0	0	2110	8	3868	75
0	0	0	2166	9	3868	76
1	0	0	2223	11	3869	77
2	0	0	2266	9	3869	76
3	0	0	2282	11	3868	75
4	0	0	2271	10	3869	75
5	0	0	2314	10	3868	75
6	0	0	2287	8	3869	75
7	0	0	2188	7	3868	74
8	0	0	2096	7	3871	76
9	0	0	1980	6	3870	75
10	0	0	1878	7	3868	76
11	0	0	1827	10	3871	76
12	0	0	1810	8	3870	77
13	0	0	1820	8	3871	76
14	0	0	1836	9	3870	75
15	0	0	1848	9	3870	76
16	0	0	1882	10	3871	76
17	0	0	1959	10	3868	76
18	0	0	2033	9	3869	77
19	0	0	2102	10	3869	76
20	0	0	2165	11	3869	76
21	0	0	2226	11	3869	75
22	0	0	2270	10	3869	72
23	0	0	2286	8	3871	75
24	0	0	2281	9	3869	75
25	0	0	2321	11	3871	76
26	0	0	2287	10	3869	76
27	0	0	2184	6	3870	76
28	0	0	2089	4	3871	75
29	0	0	1985	6	3870	76
30	0	0	1890	7	3871	75
31	0	0	1838	7	3870	75
32	0	0	1809	8	3871	76
33	0	0	1808	10	3869	75
34	0	0	1821	10	3869	76
35	0	0	1835	10	3871	77
36	0	0	1870	13	3869	76
37	0	0	1955	10	3870	76
38	0	0	2032	11	3868	75
39	0	0	2101	11	3868	74
40	0	0	2165	10	3869	78
41	0	0	2227	13	3869	75
42	0	0	2271	10	3869	76
43	0	0	2287	8	3870	76
44	0	0	2280	10	3870	75
45	0	0	2315	10	3872	75
46	0	0	2284	5	3871	77
47	0	0	2183	6	3869	75
48	0	0	2092	6	3869	76
49	0	0	1981	7	3870	72
50	0	0	1882	5	3871	77
51	0	0	1835	11	3870	76
52	0	0	1814	9	3869	75
53	0	0	1822	9	3870	76
54	0	0	1839	9	3871	77
55	0	0	1848	10	3872	77
56	0	0	1886	11	3869	77
57	0	0	1972	10	3868	76
58	0	0	2038	7	3871	74
59	0	0	2103	10	3870	77
60	0	0	2166	10	3871	75
61	0	0	2226	13	3871	75
62	0	0	2268	10	3870	75
63	0	0	2290	7	3870	76
64	0	0	2282	11	3870	72
65	0	0	2323	10	3870	76
66	0	0	2286	7	3870	77
67	0	0	2178	7	3869	75
68	0	0	2089	6	3869	77
69	0	0	1983	8	3868	77
70	0	0	1889	8	3871	76
71	0	0	1829	8	3870	76
72	0	0	1807	8	3870	76
73	0	0	1808	10	3867	75
74	0	0	1824	11	3868	74
75	0	0	1843	8	3871	78
76	0	0	1883	9	3870	75
77	0	0	1971	11	3870	76
78	0	0	2040	9	3871	76
79	0	0	2100	11	3870	75
80	0	0	2162	11	3872	75
81	0	0	2227	9	3870	76
82	0	0	2270	10	3869	76
83	0	0	2283	10	3867	77
84	0	0	2284	12	3868	78
85	0	0	2325	10	3871	76
86	0	0	2288	6	3868	75
87	0	0	2183	6	3868	75
88	0	0	2090	4	3869	76
89	0	0	1988	7	3869	72
90	0	0	1892	8	3866	75
91	0	0	1837	6	3869	76
92	0	0	1813	7	3871	75
93	0	0	1811	8	3870	76
94	0	0	1826	10	3870	77
95	0	0	1839	9	3870	75
96	0	0	1879	10	3870	76
97	0	0	1959	10	3869	76
98	0	0	2030	7	3869	76
99	0	0	2095	11	3870	72
100	0	0	2155	11	3870	77
101	0	0	2221	11	3869	77
102	0	0	2267	11	3869	76
103	0	0	2281	8	3869	76
104	0	0	2278	10	3869	74
105	0	0	2315	12	3869	75
106	0	0	2284	5	3869	77
107	0	0	2190	6	3868	75
108	0	0	2100	4	3870	76
109	0	0	1994	7	3870	78
110	0	0	1892	7	3871	76
111	0	0	1834	7	3871	76
112	0	0	1813	8	3870	76
113	0	0	1814	10	3869	75
114	0	0	1827	8	3866	75
115	0	0	1841	10	3872	75
116	0	0	1881	8	3870	76
117	0	0	1963	11	3868	76
118	0	0	2036	9	3869	76
119	0	0	2104	11	3869	76
120	0	0	2159	11	3868	73
121	0	0	2219	10	3869	76
122	0	0	2265	10	3869	75
123	0	0	2283	8	3869	76
124	0	0	2269	10	3871	77
125	0	0	2311	11	3870	76
126	0	0	2288	7	3871	76
127	0	0	2187	6	3870	76
0	0	0	2092	8	3869	75
1	0	0	1988	8	3870	77
2	0	0	1885	8	3870	75
3	0	0	1832	8	3869	76
4	0	0	1809	8	3868	78
5	0	0	1812	10	3869	76
6	0	0	1830	9	3868	74
7	0	0	1841	11	3868	73
8	0	0	1882	8	3869	76
9	0	0	1967	9	3869	76
10	0	0	2037	10	3868	75
11	0	0	2099	10	3869	75
12	0	0	2163	11	3871	76
13	0	0	2226	11	3869	72
14	0	0	2266	10	3871	75
15	0	0	2281	10	3870	76
16	0	0	2271	8	3870	74
17	0	0	2318	10	3871	76
18	0	0	2286	8	3870	76
19	0	0	2184	7	3869	74
20	0	0	2097	4	3870	76
21	0	0	1993	4	3872	76
22	0	0	1888	7	3870	77
23	0	0	1831	7	3870	77
24	0	0	1806	8	3868	75
25	0	0	1811	10	3869	76
26	0	0	1827	9	3869	76
27	0	0	1836	10	3870	76
28	0	0	1878	10	3870	76
29	0	0	1965	10	3868	76
30	0	0	2029	9	3870	75
31	0	0	2097	11	3870	78
32	0	0	2164	9	3870	76
33	0	0	2226	7	3870	76
34	0	0	2273	12	3870	76
35	0	0	2288	11	3870	76
36	0	0	2276	10	3870	76
37	0	0	2323	11	3868	73
38	0	0	2293	11	3870	76
39	0	0	2190	1	3869	76
40	0	0	2099	7	3869	75
41	0	0	1992	6	3869	77
42	0	0	1895	7	3868	73
43	0	0	1837	7	3869	75
44	0	0	1809	8	3870	75
45	0	0	1811	11	3869	75
46	0	0	1829	9	3869	77
47	0	0	1835	10	3868	73
48	0	0	1873	12	3871	76
49	0	0	1964	10	3868	75
50	0	0	2033	10	3870	75
51	0	0	2094	10	3872	76
52	0	0	2158	11	3869	73
53	0	0	2219	7	3870	76
54	0	0	2268	10	3869	76
55	0	0	2282	10	3869	76
56	0	0	2271	10	3869	76
57	0	0	2318	11	3871	77
58	0	0	2292	7	3871	75
59	0	0	2188	6	3869	76
60	0	0	2101	6	3869	75
61	0	0	1998	6	3870	75
62	0	0	1893	7	3869	76
63	0	0	1835	7	3870	75
64	0	0	1813	8	3870	76
65	0	0	1818	10	3872	74
66	0	0	1835	10	3870	74
67	0	0	1847	11	3871	76
68	0	0	1883	7	3870	75
69	0	0	1966	10	3869	75
70	0	0	2030	12	3869	75
71	0	0	2092	11	3868	75
72	0	0	2157	10	3871	77
73	0	0	2221	11	3870	75
74	0	0	2261	10	3868	76
75	0	0	2275	9	3870	76
76	0	0	2270	9	3871	79
77	0	0	2319	9	3871	76
78	0	0	2289	7	3870	75
79	0	0	2183	6	3868	72
80	0	0	2094	6	3869	76
81	0	0	1990	10	3870	78
82	0	0	1885	6	3871	77
83	0	0	1834	7	3871	75
84	0	0	1811	7	3870	75
85	0	0	1814	12	3870	76
86	0	0	1833	10	3870	76
87	0	0	1845	9	3869	76
88	0	0	1884	7	3869	75
89	0	0	1974	9	3868	76
90	0	0	2039	9	3871	76
91	0	0	2102	10	3871	76
92	0	0	2165	8	3871	77
93	0	0	2223	10	3870	76
94	0	0	2269	10	3868	75
95	0	0	2284	11	3872	75
96	0	0	2273	11	3869	74
97	0	0	2315	11	3868	74
98	0	0	2287	3	3871	75
99	0	0	2184	6	3870	76
100	0	0	2098	7	3870	77
101	0	0	1991	5	3870	76
102	0	0	1887	7	3870	76
103	0	0	1835	7	3868	75
104	0	0	1813	7	3869	75
105	0	0	1815	10	3869	76
106	0	0	1833	10	3869	76
107	0	0	1846	9	3870	75
108	0	0	1883	8	3868	75
109	0	0	1969	10	3870	76
110	0	0	2037	9	3868	76
111	0	0	2103	11	3868	75
112	0	0	2168	9	3870	76
113	0	0	2227	8	3869	75
114	0	0	2277	10	3870	76
115	0	0	2293	15	3869	75
116	0	0	2283	11	3869	75
117	0	0	2320	8	3869	76
118	0	0	2290	4	3871	76
119	0	0	2184	7	3869	74
120	0	0	2097	10	3869	75
121	0	0	1995	7	3868	75
122	0	0	1892	7	3870	76
123	0	0	1836	4	3870	77
124	0	0	1811	8	3869	76
125	0	0	1810	11	3870	76
126	0	0	1824	9	3870	72
127	0	0	1835	10	3867	75
0	0	0	1872	9	3870	76
1	0	0	1959	10	3868	76
2	0	0	2030	11	3872	75
3	0	0	2099	7	3870	76
4	0	0	2161	10	3872	76
5	0	0	2224	8	3870	76
6	0	0	2273	10	3870	74
7	0	0	2287	10	3870	77
8	0	0	2277	10	3870	75
9	0	0	2319	10	3871	76
10	0	0	2293	4	3869	76
11	0	0	2197	6	3869	76
12	0	0	2105	11	3868	76
13	0	0	1996	7	3868	75
14	0	0	1896	7	3868	76
15	0	0	1842	7	3870	76
16	0	0	1813	7	3868	74
17	0	0	1815	11	3872	75
18	0	0	1830	8	3869	75
19	0	0	1839	9	3870	76
20	0	0	1878	8	3871	51
21	0	0	1962	10	3870	75
22	0	0	2032	10	3870	76
23	0	0	2098	12	3869	75
24	0	0	2159	9	3870	77
25	0	0	2217	8	3869	76
26	0	0	2264	9	3870	76
27	0	0	2283	10	3869	76
28	0	0	2281	10	3869	75
29	0	0	2319	10	3869	76
30	0	0	2290	8	3868	76
31	0	0	2188	7	3870	76
32	0	0	2099	8	3868	75
33	0	0	2000	8	3868	76
34	0	0	1894	7	3867	77
35	0	0	1840	8	3870	76
36	0	0	1815	8	3871	74
37	0	0	1816	11	3870	76
38	0	0	1830	12	3869	75
39	0	0	1839	10	3868	77
40	0	0	1875	9	3871	76
41	0	0	1959	10	3869	76
42	0	0	2037	7	3870	75
43	0	0	2103	10	3868	75
44	0	0	2164	9	3870	76
45	0	0	2227	8	3870	76
46	0	0	2270	10	3869	75
47	0	0	2282	10	3868	75
48	0	0	2277	10	3869	76
49	0	0	2317	11	3869	77
50	0	0	2288	6	3870	76
51	0	0	2186	6	3869	75
52	0	0	2092	8	3869	76
53	0	0	1992	7	3870	76
54	0	0	1894	6	3871	76
55	0	0	1837	0	3870	77
56	0	0	1815	8	3871	76
57	0	0	1816	8	3868	77
58	0	0	1834	8	3869	76
59	0	0	1845	10	3868	77
60	0	0	1881	11	3870	76
61	0	0	1964	10	3869	77
62	0	0	2035	9	3869	76
63	0	0	2098	10	3869	77
64	0	0	2162	10	3868	76
65	0	0	2226	11	3868	75
66	0	0	2268	10	3868	76
67	0	0	2281	8	3871	74
68	0	0	2276	10	3868	75
69	0	0	2315	11	3872	75
70	0	0	2286	7	3870	76
71	0	0	2190	6	3873	75
72	0	0	2100	7	3869	76
73	0	0	1999	8	3870	76
74	0	0	1891	7	3870	76
75	0	0	1829	7	3870	75
76	0	0	1806	3	3867	77
77	0	0	1813	9	3872	76
78	0	0	1829	10	3869	76
79	0	0	1839	10	3868	75
80	0	0	1873	10	3868	77
81	0	0	1959	11	3868	75
82	0	0	2032	8	3871	76
83	0	0	2094	10	3871	76
84	0	0	2156	9	3869	75
85	0	0	2216	10	3869	76
86	0	0	2263	10	3871	77
87	0	0	2280	9	3869	76
88	0	0	2275	12	3870	76
89	0	0	2316	11	3870	76
90	0	0	2284	7	3870	76
91	0	0	2187	6	3870	76
92	0	0	2097	6	3870	77
93	0	0	1992	6	3869	76
94	0	0	1891	7	3869	75
95	0	0	1839	10	3868	74
96	0	0	1818	7	3868	75
97	0	0	1817	10	3868	76
98	0	0	1828	10	3872	75
99	0	0	1842	11	3868	76
100	0	0	1879	11	3869	76
101	0	0	1964	10	3868	75
102	0	0	2033	9	3869	75
103	0	0	2100	10	3872	76
104	0	0	2162	8	3869	74
105	0	0	2229	10	3870	76
106	0	0	2273	12	3870	76
107	0	0	2292	11	3869	76
108	0	0	2275	10	3872	75
109	0	0	2316	10	3870	75
110	0	0	2286	8	3872	74
111	0	0	2186	1	3867	75
112	0	0	2100	7	3868	75
113	0	0	1994	6	3872	75
114	0	0	1891	5	3868	75
115	0	0	1836	7	3868	76
116	0	0	1809	7	3868	75
117	0	0	1809	10	3868	77
118	0	0	1820	10	3868	75
119	0	0	1830	10	3870	75
120	0	0	1877	12	3869	75
121	0	0	1963	10	3872	76
122	0	0	2035	10	3870	76
123	0	0	2101	11	3872	75
124	0	0	2169	9	3870	75
125	0	0	2226	10	3869	74
126	0	0	2269	8	3868	76
127	0	0	2282	10	3869	79
0	0	0	2267	11	3868	75
1	0	0	2312	11	3870	76
2	0	0	2285	7	3870	76
3	0	0	2188	6	3868	76
4	0	0	2101	9	3869	76
5	0	0	2001	7	3869	78
6	0	0	1899	7	3869	74
7	0	0	1840	6	3869	75
8	0	0	1814	8	3869	76
9	0	0	1817	10	3869	75
10	0	0	1828	10	3871	76
11	0	0	1840	11	3871	74
12	0	0	1879	10	3869	75
13	0	0	1962	10	3869	75
14	0	0	2033	12	3868	77
15	0	0	2101	10	3868	75
16	0	0	2164	10	3870	75
17	0	0	2220	10	3870	75
18	0	0	2265	11	3869	75
19	0	0	2282	9	3869	76
20	0	0	2276	7	3870	75
21	0	0	2319	10	3868	74
22	0	0	2289	6	3868	75
23	0	0	2186	8	3868	76
24	0	0	2096	7	3868	75
25	0	0	1994	7	3870	77
26	0	0	1891	6	3871	75
27	0	0	1836	7	3871	74
28	0	0	1812	7	3869	75
29	0	0	1814	13	3870	75
30	0	0	1835	11	3869	73
31	0	0	1843	8	3868	74
32	0	0	1875	9	3871	75
33	0	0	1953	10	3868	75
34	0	0	2026	11	3866	77
35	0	0	2090	11	3868	74
36	0	0	2160	10	3871	75
37	0	0	2228	10	3870	75
38	0	0	2271	10	3868	77
39	0	0	2288	10	3867	73
40	0	0	2281	10	3869	76
41	0	0	2324	10	3870	76
42	0	0	2294	7	3870	76
43	0	0	2190	7	3870	76
44	0	0	2107	7	3869	75
45	0	0	2007	5	3870	76
46	0	0	1898	7	3870	74
47	0	0	1841	7	3870	76
48	0	0	1813	8	3869	76
49	0	0	1817	10	3866	77
50	0	0	1828	11	3869	76
51	0	0	1842	10	3867	76
52	0	0	1876	10	3870	75
53	0	0	1959	10	3868	75
54	0	0	2033	7	3868	75
55	0	0	2097	10	3869	76
56	0	0	2162	9	3867	77
57	0	0	2221	10	3869	75
58	0	0	2269	10	3870	76
59	0	0	2288	8	3868	76
60	0	0	2279	11	3870	76
61	0	0	2316	11	3871	76
62	0	0	2288	6	3871	76
63	0	0	2186	6	3871	76
64	0	0	2093	7	3870	76
65	0	0	1993	6	3869	77
66	0	0	1889	7	3870	74
67	0	0	1831	7	3871	75
68	0	0	1809	7	3869	76
69	0	0	1815	11	3867	75
70	0	0	1832	9	3869	76
71	0	0	1837	9	3870	75
72	0	0	1874	9	3870	76
73	0	0	1949	11	3868	75
74	0	0	2020	10	3866	77
75	0	0	2085	10	3870	77
76	0	0	2151	11	3871	75
77	0	0	2212	10	3871	76
78	0	0	2262	10	3870	76
79	0	0	2282	7	3869	80
80	0	0	2279	10	3870	76
81	0	0	2317	10	3871	75
82	0	0	2292	7	3871	75
83	0	0	2186	6	3870	76
84	0	0	2092	5	3869	76
85	0	0	1994	6	3869	76
86	0	0	1884	7	3870	77
87	0	0	1826	7	3870	76
88	0	0	1807	7	3868	76
89	0	0	1813	9	3869	76
90	0	0	1832	11	3870	75
91	0	0	1842	11	3868	74
92	0	0	1876	9	3871	75
93	0	0	1959	11	3870	76
94	0	0	2027	9	3871	76
95	0	0	2090	10	3871	74
96	0	0	2154	10	3870	75
97	0	0	2215	10	3871	77
98	0	0	2261	10	3869	76
99	0	0	2281	7	3870	78
100	0	0	2277	10	3870	77
101	0	0	2319	9	3867	76
102	0	0	2294	6	3869	75
103	0	0	2192	7	3868	75
104	0	0	2105	3	3868	80
105	0	0	2008	6	3870	76
106	0	0	1897	6	3866	78
107	0	0	1831	7	3869	76
108	0	0	1804	7	3870	75
109	0	0	1809	10	3869	76
110	0	0	1824	10	3870	76
111	0	0	1840	10	3871	79
112	0	0	1875	10	3868	76
113	0	0	1961	12	3870	77
114	0	0	2032	10	3869	76
115	0	0	2099	9	3871	76
116	0	0	2157	9	3869	75
117	0	0	2224	10	3868	76
118	0	0	2273	11	3869	76
119	0	0	2287	10	3869	76
120	0	0	2284	11	3870	76
121	0	0	2321	10	3867	78
122	0	0	2295	7	3868	76
123	0	0	2195	7	3867	77
124	0	0	2106	8	3869	76
125	0	0	2009	5	3869	76
126	0	0	1903	4	3871	75
127	0	0	1842	7	3870	77
0	0	0	1815	7	3871	76
1	0	0	1815	12	3870	76
2	0	0	1824	10	3869	75
3	0	0	1841	9	3870	75
4	0	0	1876	10	3868	76
5	0	0	1964	10	3869	75
6	0	0	2036	10	3872	75
7	0	0	2100	10	3867	76
8	0	0	2154	9	3869	74
9	0	0	2217	10	3868	77
10	0	0	2264	10	3869	76
11	0	0	2286	10	3868	76
12	0	0	2282	9	3871	76
13	0	0	2325	10	3870	75
14	0	0	2296	7	3870	76
15	0	0	2191	6	3870	75
16	0	0	2103	8	3870	76
17	0	0	2005	6	3869	76
18	0	0	1897	4	3870	73
19	0	0	1839	7	3871	76
20	0	0	1810	8	3869	75
21	0	0	1813	10	3872	75
22	0	0	1833	10	3870	76
23	0	0	1844	11	3869	75
24	0	0	1880	10	3868	76
25	0	0	1961	10	3868	75
26	0	0	2028	11	3868	76
27	0	0	2086	10	3868	76
28	0	0	2153	11	3869	72
29	0	0	2212	11	3866	75
30	0	0	2258	10	3869	75
31	0	0	2273	11	3870	76
32	0	0	2273	10	3867	77
33	0	0	2310	9	3870	77
34	0	0	2285	6	3868	76
35	0	0	2189	6	3871	76
36	0	0	2095	7	3870	77
37	0	0	1996	6	3870	77
38	0	0	1894	6	3872	74
39	0	0	1839	7	3867	72
40	0	0	1811	7	3868	76
41	0	0	1813	10	3869	77
42	0	0	1828	10	3865	78
43	0	0	1839	10	3868	73
44	0	0	1875	10	3866	76
45	0	0	1958	9	3868	76
46	0	0	2036	10	3869	76
47	0	0	2097	10	3867	78
48	0	0	2159	11	3870	77
49	0	0	2216	9	3870	76
50	0	0	2258	10	3870	77
51	0	0	2280	11	3870	76
52	0	0	2278	10	3868	77
53	0	0	2317	12	3871	75
54	0	0	2297	9	3866	76
55	0	0	2198	8	3872	75
56	0	0	2102	6	3869	76
57	0	0	2002	6	3866	78
58	0	0	1892	7	3870	75
59	0	0	1838	7	3870	77
60	0	0	1815	7	3869	76
61	0	0	1818	10	3868	76
62	0	0	1831	10	3867	77
63	0	0	1836	9	3870	74
64	0	0	1878	13	3869	75
65	0	0	1963	10	3869	76
66	0	0	2032	10	3869	76
67	0	0	2091	10	3868	75
68	0	0	2157	9	3871	75
69	0	0	2212	10	3871	75
70	0	0	2257	10	3870	73
71	0	0	2274	9	3867	75
72	0	0	2269	10	3869	75
73	0	0	2312	10	3870	75
74	0	0	2292	6	3869	75
75	0	0	2195	6	3870	76
76	0	0	2110	10	3869	73
77	0	0	2010	7	3869	76
78	0	0	1903	6	3867	75
79	0	0	1842	3	3867	73
80	0	0	1811	8	3871	76
81	0	0	1811	9	3868	73
82	0	0	1827	8	3872	75
83	0	0	1840	10	3870	76
84	0	0	1875	10	3871	75
85	0	0	1957	10	3869	76
86	0	0	2031	7	3871	75
87	0	0	2090	10	3868	75
88	0	0	2160	10	3870	73
89	0	0	2226	10	3870	75
90	0	0	2269	10	3869	76
91	0	0	2286	10	3868	76
92	0	0	2278	10	3867	75
93	0	0	2313	10	3868	73
94	0	0	2295	6	3867	79
95	0	0	2197	7	3870	76
96	0	0	2110	6	3867	75
97	0	0	2013	6	3869	76
98	0	0	1906	7	3871	74
99	0	0	1849	6	3871	76
100	0	0	1823	7	3870	76
101	0	0	1821	11	3870	76
102	0	0	1832	9	3868	77
103	0	0	1841	10	3870	76
104	0	0	1871	9	3870	76
105	0	0	1958	10	3869	76
106	0	0	2031	10	3868	77
107	0	0	2091	10	3867	75
108	0	0	2152	9	3869	76
109	0	0	2222	10	3869	76
110	0	0	2265	10	3868	76
111	0	0	2281	10	3868	76
112	0	0	2262	9	3868	77
113	0	0	2306	10	3868	74
114	0	0	2291	7	3869	74
115	0	0	2196	6	3871	75
116	0	0	2109	11	3870	75
117	0	0	2011	7	3870	75
118	0	0	1905	7	3871	76
119	0	0	1844	7	3869	76
120	0	0	1818	8	3869	76
121	0	0	1813	7	3870	74
122	0	0	1827	10	3868	75
123	0	0	1846	8	3869	78
124	0	0	1873	10	3867	74
125	0	0	1959	10	3868	76
126	0	0	2031	7	3868	75
127	0	0	2093	11	3869	73
0	0	0	2159	10	3868	74
1	0	0	2217	13	3869	75
2	0	0	2263	10	3868	76
3	0	0	2284	8	3871	75
4	0	0	2284	11	3871	80
5	0	0	2321	10	3869	72
6	0	0	2301	7	3871	76
7	0	0	2193	7	3869	79
8	0	0	2100	6	3868	78
9	0	0	2005	9	3869	77
10	0	0	1905	6	3870	75
11	0	0	1850	5	3869	75
12	0	0	1820	7	3869	76
13	0	0	1813	7	3868	75
14	0	0	1825	10	3869	74
15	0	0	1828	9	3868	74
16	0	0	1864	10	3867	75
17	0	0	1948	10	3870	76
18	0	0	2021	10	3869	76
19	0	0	2086	12	3872	75
20	0	0	2150	10	3871	78
21	0	0	2217	9	3871	76
22	0	0	2264	10	3870	76
23	0	0	2285	11	3869	75
24	0	0	2278	12	3870	77
25	0	0	2308	10	3868	74
26	0	0	2290	7	3868	75
27	0	0	2187	6	3868	75
28	0	0	2098	6	3868	75
29	0	0	2003	8	3869	76
30	0	0	1900	7	3869	78
31	0	0	1848	6	3867	75
32	0	0	1816	8	3868	76
33	0	0	1811	9	3868	76
34	0	0	1827	12	3869	76
35	0	0	1824	8	3871	76
36	0	0	1857	10	3872	74
37	0	0	1948	9	3871	76
38	0	0	2019	10	3870	76
39	0	0	2093	12	3870	77
40	0	0	2159	9	3870	79
41	0	0	2220	11	3872	75
42	0	0	2266	10	3870	76
43	0	0	2285	10	3867	76
44	0	0	2281	11	3869	72
45	0	0	2314	10	3871	76
46	0	0	2293	6	3867	75
47	0	0	2193	7	3868	76
48	0	0	2107	4	3869	76
49	0	0	2010	7	3869	73
50	0	0	1902	7	3869	75
51	0	0	1840	7	3868	77
52	0	0	1818	8	3870	75
53	0	0	1818	10	3871	75
54	0	0	1826	10	3871	77
55	0	0	1831	11	3870	79
56	0	0	1868	10	3868	75
57	0	0	1955	10	3869	76
58	0	0	2026	9	3869	75
59	0	0	2094	12	3869	76
60	0	0	2158	10	3870	75
61	0	0	2216	10	3868	75
62	0	0	2261	10	3869	75
63	0	0	2286	8	3871	75
64	0	0	2276	11	3868	76
65	0	0	2313	10	3869	79
66	0	0	2294	6	3867	75
67	0	0	2205	7	3868	76
68	0	0	2120	6	3867	76
69	0	0	2025	7	3870	74
70	0	0	1912	7	3870	77
71	0	0	1849	7	3870	76
72	0	0	1821	7	3870	76
73	0	0	1818	8	3871	75
74	0	0	1824	10	3869	76
75	0	0	1830	10	3871	75
76	0	0	1864	10	3872	75
77	0	0	1952	10	3869	76
78	0	0	2028	10	3867	76
79	0	0	2094	10	3868	74
80	0	0	2163	10	3869	75
81	0	0	2228	10	3870	74
82	0	0	2270	10	3868	75
83	0	0	2282	9	3868	76
84	0	0	2276	10	3868	76
85	0	0	2308	11	3869	75
86	0	0	2291	7	3872	73
87	0	0	2195	7	3872	75
88	0	0	2109	7	3870	77
89	0	0	2014	6	3871	75
90	0	0	1907	7	3871	76
91	0	0	1845	7	3871	76
92	0	0	1823	7	3871	76
93	0	0	1816	6	3871	75
94	0	0	1830	9	3870	76
95	0	0	1839	9	3872	74
96	0	0	1871	10	3868	76
97	0	0	1956	11	3870	77
98	0	0	2030	10	3865	78
99	0	0	2090	10	3868	76
100	0	0	2155	10	3869	75
101	0	0	2211	10	3871	76
102	0	0	2261	10	3869	75
103	0	0	2284	10	3869	78
104	0	0	2272	10	3869	78
105	0	0	2316	11	3870	75
106	0	0	2301	7	3870	76
107	0	0	2200	6	3869	76
108	0	0	2109	7	3869	77
109	0	0	2007	7	3870	79
110	0	0	1898	6	3870	77
111	0	0	1833	6	3870	76
112	0	0	1808	8	3869	76
113	0	0	1808	10	3868	77
114	0	0	1824	10	3869	75
115	0	0	1841	10	3869	76
116	0	0	1871	10	3870	76
117	0	0	1955	10	3870	75
118	0	0	2022	7	3867	76
119	0	0	2085	8	3871	75
120	0	0	2146	11	3871	72
121	0	0	2207	10	3871	74
122	0	0	2254	8	3870	76
123	0	0	2275	10	3872	74
124	0	0	2272	9	3870	75
125	0	0	2310	10	3871	72
126	0	0	2297	6	3871	76
127	0	0	2195	4	3869	76
0	0	0	2107	7	3872	76
1	0	0	2008	2	3870	76
2	0	0	1899	7	3869	72
3	0	0	1836	7	3870	76
4	0	0	1812	8	3868	76
5	0	0	1815	14	3867	77
6	0	0	1828	8	3869	76
7	0	0	1836	10	3870	73
8	0	0	1872	10	3871	75
9	0	0	1956	8	3870	77
10	0	0	2024	10	3872	76
11	0	0	2087	8	3871	76
12	0	0	2151	10	3870	72
13	0	0	2221	10	3871	76
14	0	0	2266	12	3869	75
15	0	0	2282	10	3869	75
16	0	0	2276	10	3870	80
17	0	0	2312	11	3868	77
18	0	0	2294	7	3870	75
19	0	0	2194	7	3868	76
20	0	0	2107	7	3868	77
21	0	0	2015	7	3870	75
22	0	0	1905	6	3868	76
23	0	0	1848	7	3870	75
24	0	0	1819	7	3869	76
25	0	0	1817	10	3871	75
26	0	0	1827	11	3871	79
27	0	0	1840	11	3870	78
28	0	0	1872	10	3871	76
29	0	0	1954	10	3869	76
30	0	0	2032	10	3869	77
31	0	0	2098	10	3870	75
32	0	0	2153	8	3870	78
33	0	0	2216	10	3870	75
34	0	0	2258	7	3868	76
35	0	0	2272	10	3870	78
36	0	0	2268	10	3868	76
37	0	0	2312	11	3869	76
38	0	0	2304	7	3869	74
39	0	0	2205	8	3868	75
40	0	0	2112	7	3869	75
41	0	0	2013	6	3871	78
42	0	0	1902	7	3871	77
43	0	0	1842	7	3869	74
44	0	0	1817	8	3870	76
45	0	0	1810	10	3868	77
46	0	0	1823	7	3871	76
47	0	0	1841	11	3869	72
48	0	0	1876	10	3869	75
49	0	0	1960	11	3870	75
50	0	0	2033	11	3871	77
51	0	0	2094	9	3867	76
52	0	0	2152	8	3869	78
53	0	0	2216	10	3869	75
54	0	0	2260	12	3868	75
55	0	0	2275	10	3870	74
56	0	0	2272	9	3870	78
57	0	0	2307	8	3870	78
58	0	0	2298	7	3873	75
59	0	0	2207	6	3870	76
60	0	0	2115	7	3870	76
61	0	0	2019	7	3870	76
62	0	0	1902	7	3870	77
63	0	0	1838	7	3870	75
64	0	0	1812	12	3869	75
65	0	0	1813	10	3867	75
66	0	0	1827	15	3870	75
67	0	0	1834	9	3869	79
68	0	0	1863	10	3869	76
69	0	0	1949	11	3868	76
70	0	0	2022	10	3870	79
71	0	0	2087	7	3869	75
72	0	0	2145	9	3870	75
73	0	0	2202	10	3869	75
74	0	0	2244	11	3870	76
75	0	0	2266	10	3871	73
76	0	0	2265	15	3870	75
77	0	0	2311	11	3870	75
78	0	0	2302	7	3870	75
79	0	0	2205	6	3870	76
80	0	0	2117	6	3871	74
81	0	0	2019	6	3870	76
82	0	0	1910	6	3870	75
83	0	0	1845	7	3869	76
84	0	0	1818	6	3869	76
85	0	0	1810	10	3868	76
86	0	0	1825	7	3868	76
87	0	0	1843	10	3870	76
88	0	0	1869	10	3868	75
89	0	0	1951	10	3868	76
90	0	0	2028	10	3870	73
91	0	0	2095	10	3869	73
92	0	0	2157	11	3870	75
93	0	0	2218	7	3870	76
94	0	0	2257	9	3870	76
95	0	0	2279	9	3870	76
96	0	0	2275	11	3869	74
97	0	0	2314	10	3869	78
98	0	0	2296	6	3869	74
99	0	0	2195	5	3870	76
100	0	0	2108	4	3871	74
101	0	0	2020	7	3869	76
102	0	0	1913	6	3871	75
103	0	0	1849	7	3868	79
104	0	0	1816	8	3868	76
105	0	0	1813	11	3870	73
106	0	0	1826	11	3868	76
107	0	0	1835	10	3870	76
108	0	0	1864	12	3869	76
109	0	0	1948	10	3870	76
110	0	0	2025	10	3871	72
111	0	0	2094	11	3870	73
112	0	0	2158	12	3870	78
113	0	0	2219	10	3872	77
114	0	0	2266	10	3869	76
115	0	0	2286	10	3870	76
116	0	0	2282	10	3871	75
117	0	0	2319	10	3868	76
118	0	0	2309	6	3870	75
119	0	0	2207	7	3868	75
120	0	0	2117	8	3868	76
121	0	0	2017	4	3867	77
122	0	0	1904	7	3869	77
123	0	0	1840	4	3869	78
124	0	0	1807	6	3869	76
125	0	0	1807	7	3870	76
126	0	0	1817	10	3870	73
127	0	0	1833	10	3871	75
0	0	0	1861	10	3870	78
1	0	0	1943	9	3871	76
2	0	0	2020	10	3868	76
3	0	0	2085	8	3868	77
4	0	0	2152	9	3869	75
5	0	0	2212	11	3871	75
6	0	0	2257	11	3869	75
7	0	0	2282	10	3869	75
8	0	0	2279	7	3867	76
9	0	0	2314	10	3867	79
10	0	0	2306	6	3868	78
11	0	0	2202	5	3868	75
12	0	0	2115	7	3869	76
13	0	0	2015	2	3868	77
14	0	0	1903	6	3871	75
15	0	0	1840	7	3870	76
16	0	0	1813	7	3870	76
17	0	0	1807	7	3870	76
18	0	0	1817	8	3870	76
19	0	0	1836	9	3871	76
20	0	0	1868	10	3869	78
21	0	0	1955	10	3870	75
22	0	0	2030	13	3870	76
23	0	0	2090	8	3868	77
24	0	0	2153	11	3869	75
25	0	0	2219	10	3868	79
26	0	0	2265	11	3868	76
27	0	0	2288	10	3868	78
28	0	0	2277	11	3868	80
29	0	0	2309	11	3870	77
30	0	0	2302	7	3870	77
31	0	0	2199	6	3870	76
32	0	0	2109	7	3869	76
33	0	0	2017	6	3871	76
34	0	0	1903	7	3871	75
35	0	0	1843	7	3869	78
36	0	0	1813	8	3869	76
37	0	0	1813	11	3870	76
38	0	0	1821	8	3869	77
39	0	0	1828	8	3870	76
40	0	0	1861	10	3869	75
41	0	0	1951	8	3868	76
42	0	0	2024	10	3869	72
43	0	0	2080	8	3870	79
44	0	0	2142	12	3870	75
45	0	0	2207	10	3869	78
46	0	0	2257	10	3870	75
47	0	0	2279	10	3870	75
48	0	0	2275	9	3871	76
49	0	0	2310	10	3871	76
50	0	0	2298	7	3870	75
51	0	0	2201	8	3869	76
52	0	0	2118	7	3870	76
53	0	0	2021	8	3870	75
54	0	0	1902	6	3870	77
55	0	0	1834	7	3872	79
56	0	0	1809	8	3870	76
57	0	0	1807	8	3866	77
58	0	0	1824	8	3869	75
59	0	0	1840	10	3869	74
60	0	0	1868	10	3868	75
61	0	0	1954	11	3868	76
62	0	0	2024	10	3869	75
63	0	0	2084	9	3871	75
64	0	0	2145	9	3871	76
65	0	0	2207	10	3868	75
66	0	0	2258	10	3870	75
67	0	0	2277	12	3870	76
68	0	0	2277	10	3871	79
69	0	0	2315	10	3869	75
70	0	0	2302	7	3868	73
71	0	0	2206	7	3869	75
72	0	0	2114	8	3869	76
73	0	0	2018	8	3870	79
74	0	0	1905	5	3869	76
75	0	0	1842	7	3867	73
76	0	0	1819	7	3868	75
77	0	0	1817	10	3868	75
78	0	0	1827	10	3870	79
79	0	0	1835	6	3869	75
80	0	0	1863	11	3869	75
81	0	0	1948	10	3870	76
82	0	0	2022	11	3870	76
83	0	0	2085	10	3870	78
84	0	0	2146	8	3871	76
85	0	0	2211	9	3871	73
86	0	0	2260	10	3869	71
87	0	0	2292	11	3870	76
88	0	0	2291	8	3871	75
89	0	0	2325	8	3869	76
90	0	0	2306	8	3871	76
91	0	0	2203	6	3868	75
92	0	0	2108	6	3869	73
93	0	0	2007	6	3871	76
94	0	0	1896	7	3868	76
95	0	0	1835	6	3870	76
96	0	0	1806	7	3870	76
97	0	0	1808	9	3871	75
98	0	0	1825	9	3871	75
99	0	0	1840	7	3870	75
100	0	0	1867	9	3871	76
101	0	0	1955	10	3869	76
102	0	0	2025	9	3870	74
103	0	0	2087	8	3870	76
104	0	0	2150	8	3870	76
105	0	0	2219	11	3870	75
106	0	0	2265	10	3869	76
107	0	0	2279	10	3868	77
108	0	0	2282	11	3869	74
109	0	0	2319	9	3869	76
110	0	0	2304	7	3868	73
111	0	0	2207	5	3868	75
112	0	0	2112	8	3868	76
113	0	0	2018	7	3870	76
114	0	0	1905	6	3871	76
115	0	0	1840	8	3869	76
116	0	0	1814	5	3871	76
117	0	0	1813	7	3871	75
118	0	0	1824	11	3869	76
119	0	0	1838	11	3871	73
120	0	0	1872	10	3869	74
121	0	0	1957	9	3869	76
122	0	0	2024	11	3869	73
123	0	0	2093	10	3869	73
124	0	0	2158	9	3869	77
125	0	0	2217	10	3868	76
126	0	0	2263	10	3868	76
127	0	0	2283	10	3868	75
0	0	0	2279	9	3870	75
1	0	0	2307	10	3870	75
2	0	0	2299	6	3871	75
3	0	0	2201	8	3870	76
4	0	0	2113	8	3870	75
5	0	0	2018	7	3870	76
6	0	0	1911	6	3870	76
7	0	0	1845	7	3868	79
8	0	0	1816	4	3870	77
9	0	0	1811	9	3869	73
10	0	0	1825	7	3869	75
11	0	0	1835	8	3869	76
12	0	0	1863	10	3867	76
13	0	0	1950	10	3868	75
14	0	0	2029	11	3868	73
15	0	0	2090	7	3869	75
16	0	0	2154	11	3869	77
17	0	0	2220	11	3869	74
18	0	0	2266	10	3869	77
19	0	0	2283	10	3869	74
20	0	0	2278	11	3871	74
21	0	0	2313	10	3868	76
22	0	0	2306	7	3870	75
23	0	0	2206	7	3869	76
24	0	0	2119	7	3869	74
25	0	0	2025	7	3869	76
26	0	0	1910	6	3869	76
27	0	0	1841	10	3868	76
28	0	0	1815	6	3869	75
29	0	0	1815	10	3868	75
30	0	0	1830	7	3869	75
31	0	0	1842	10	3868	75
32	0	0	1866	10	3869	76
33	0	0	1953	8	3869	76
34	0	0	2025	10	3868	73
35	0	0	2088	9	3870	77
36	0	0	2152	10	3871	76
37	0	0	2213	9	3871	75
38	0	0	2258	10	3870	75
39	0	0	2279	10	3870	72
40	0	0	2281	11	3870	76
41	0	0	2311	11	3870	75
42	0	0	2304	7	3867	76
43	0	0	2204	6	3868	76
44	0	0	2112	6	3868	75
45	0	0	2017	8	3869	77
46	0	0	1903	6	3869	77
47	0	0	1841	6	3871	80
48	0	0	1815	8	3868	76
49	0	0	1817	8	3868	76
50	0	0	1824	11	3868	76
51	0	0	1840	9	3870	75
52	0	0	1864	10	3870	77
53	0	0	1953	11	3871	76
54	0	0	2026	7	3871	75
55	0	0	2085	10	3870	78
56	0	0	2146	11	3871	75
57	0	0	2205	10	3870	76
58	0	0	2255	13	3871	73
59	0	0	2269	10	3869	80
60	0	0	2269	11	3869	76
61	0	0	2311	11	3869	76
62	0	0	2301	7	3869	75
63	0	0	2204	6	3868	75
64	0	0	2115	7	3868	76
65	0	0	2021	6	3870	76
66	0	0	1904	7	3868	75
67	0	0	1840	7	3869	76
68	0	0	1817	7	3869	76
69	0	0	1814	7	3870	76
70	0	0	1827	8	3870	76
71	0	0	1841	10	3871	76
72	0	0	1868	10	3870	75
73	0	0	1953	11	3868	74
74	0	0	2028	11	3869	73
75	0	0	2086	8	3869	78
76	0	0	2148	10	3868	76
77	0	0	2208	10	3868	78
78	0	0	2258	10	3868	76
79	0	0	2283	10	3870	76
80	0	0	2281	9	3870	76
81	0	0	2309	10	3870	76
82	0	0	2296	7	3868	71
83	0	0	2206	7	3868	75
84	0	0	2118	6	3869	75
85	0	0	2022	7	3870	75
86	0	0	1908	7	3870	76
87	0	0	1836	9	3869	78
88	0	0	1810	10	3871	76
89	0	0	1812	12	3870	76
90	0	0	1822	12	3870	77
91	0	0	1838	10	3871	77
92	0	0	1864	10	3869	73
93	0	0	1949	11	3871	73
94	0	0	2024	10	3870	76
95	0	0	2084	11	3870	75
96	0	0	2146	10	3870	76
97	0	0	2208	10	3869	71
98	0	0	2264	9	3868	75
99	0	0	2285	9	3869	76
100	0	0	2279	10	3869	75
101	0	0	2309	11	3870	75
102	0	0	2308	7	3869	73
103	0	0	2210	7	3871	77
104	0	0	2118	8	3870	76
105	0	0	2017	9	3870	78
106	0	0	1901	5	3871	75
107	0	0	1832	7	3870	75
108	0	0	1805	7	3870	75
109	0	0	1808	10	3870	79
110	0	0	1820	8	3869	77
111	0	0	1832	13	3869	76
112	0	0	1862	10	3870	76
113	0	0	1936	11	3869	76
114	0	0	2010	10	3869	76
115	0	0	2069	10	3869	77
116	0	0	2136	9	3869	76
117	0	0	2204	9	3870	73
118	0	0	2259	11	3871	75
119	0	0	2287	8	3868	77
120	0	0	2285	11	3870	75
121	0	0	2314	9	3871	76
122	0	0	2300	7	3868	75
123	0	0	2198	5	3871	75
124	0	0	2105	6	3870	76
125	0	0	2012	4	3870	77
126	0	0	1900	4	3870	77
127	0	0	1837	7	3869	72
0	0	0	1810	7	3869	76
1	0	0	1811	10	3871	76
2	0	0	1824	10	3870	75
3	0	0	1842	8	3870	77
4	0	0	1868	10	3868	73
5	0	0	1943	8	3869	76
6	0	0	2020	12	3870	76
7	0	0	2083	10	3869	75
8	0	0	2150	9	3871	75
9	0	0	2213	10	3870	72
10	0	0	2259	10	3870	75
11	0	0	2282	9	3870	76
12	0	0	2280	12	3869	75
13	0	0	2311	10	3871	75
14	0	0	2302	8	3868	71
15	0	0	2211	6	3869	76
16	0	0	2119	4	3869	76
17	0	0	2024	8	3868	77
18	0	0	1906	6	3869	75
19	0	0	1841	7	3869	74
20	0	0	1810	7	3869	76
21	0	0	1809	9	3869	76
22	0	0	1824	12	3868	75
23	0	0	1843	7	3868	76
24	0	0	1873	12	3869	72
25	0	0	1956	10	3870	76
26	0	0	2029	8	3870	76
27	0	0	2086	12	3870	75
28	0	0	2147	9	3870	75
29	0	0	2207	10	3871	72
30	0	0	2253	10	3869	78
31	0	0	2271	8	3869	76
32	0	0	2268	11	3868	75
33	0	0	2304	11	3870	74
34	0	0	2304	7	3869	72
35	0	0	2210	6	3871	76
36	0	0	2109	5	3869	73
37	0	0	2010	7	3867	75
38	0	0	1899	7	3870	76
39	0	0	1841	7	3872	72
40	0	0	1817	8	3871	76
41	0	0	1816	10	3870	74
42	0	0	1823	10	3871	76
43	0	0	1841	9	3870	76
44	0	0	1864	7	3869	72
45	0	0	1947	10	3869	75
46	0	0	2022	11	3870	76
47	0	0	2084	14	3868	74
48	0	0	2149	8	3870	76
49	0	0	2215	10	3871	75
50	0	0	2261	12	3869	76
51	0	0	2279	9	3868	75
52	0	0	2266	9	3868	75
53	0	0	2299	10	3870	76
54	0	0	2296	6	3867	72
55	0	0	2202	8	3870	77
56	0	0	2120	7	3869	78
57	0	0	2032	7	3868	76
58	0	0	1920	4	3870	77
59	0	0	1851	7	3870	76
60	0	0	1825	7	3871	74
61	0	0	1824	7	3871	75
62	0	0	1835	12	3869	74
63	0	0	1845	10	3871	76
64	0	0	1865	10	3868	75
65	0	0	1946	10	3869	75
66	0	0	2021	10	3869	76
67	0	0	2086	10	3871	76
68	0	0	2149	10	3870	77
69	0	0	2212	10	3868	76
70	0	0	2258	10	3868	75
71	0	0	2282	12	3868	75
72	0	0	2282	9	3867	76
73	0	0	2307	13	3870	76
74	0	0	2297	6	3869	75
75	0	0	2199	8	3869	76
76	0	0	2119	7	3870	73
77	0	0	2026	7	3871	76
78	0	0	1913	7	3870	76
79	0	0	1847	6	3869	76
80	0	0	1817	8	3868	75
81	0	0	1814	10	3870	73
82	0	0	1823	14	3868	76
83	0	0	1839	13	3869	76
84	0	0	1857	9	3868	75
85	0	0	1940	11	3870	76
86	0	0	2017	9	3869	75
87	0	0	2078	12	3868	75
88	0	0	2146	11	3869	75
89	0	0	2215	10	3870	75
90	0	0	2265	10	3870	75
91	0	0	2286	10	3870	76
92	0	0	2279	9	3869	76
93	0	0	2307	10	3871	76
94	0	0	2304	7	3871	74
95	0	0	2211	7	3871	76
96	0	0	2117	9	3869	73
97	0	0	2028	6	3871	78
98	0	0	1912	7	3870	76
99	0	0	1845	7	3869	76
100	0	0	1811	5	3869	80
101	0	0	1809	10	3869	76
102	0	0	1819	11	3870	76
103	0	0	1834	10	3869	76
104	0	0	1855	11	3868	75
105	0	0	1942	8	3871	74
106	0	0	2020	10	3869	76
107	0	0	2082	11	3871	76
108	0	0	2151	15	3870	77
109	0	0	2219	10	3875	74
110	0	0	2261	10	3869	75
111	0	0	2281	11	3870	72
112	0	0	2280	11	3870	76
113	0	0	2313	11	3871	76
114	0	0	2309	7	3868	75
115	0	0	2216	6	3869	76
116	0	0	2120	7	3869	76
117	0	0	2029	8	3871	77
118	0	0	1913	9	3869	75
119	0	0	1843	7	3868	75
120	0	0	1815	4	3871	74
121	0	0	1807	9	3869	78
122	0	0	1816	10	3870	75
123	0	0	1832	13	3869	75
124	0	0	1860	11	3870	75
125	0	0	1947	9	3871	76
126	0	0	2024	11	3868	73
127	0	0	2083	10	3870	76
0	0	0	2147	11	3871	76
1	0	0	2214	10	3869	76
2	0	0	2259	10	3870	76
3	0	0	2280	12	3869	78
4	0	0	2274	10	3871	77
5	0	0	2308	15	3869	75
6	0	0	2306	6	3868	76
7	0	0	2211	4	3869	76
8	0	0	2120	9	3869	76
9	0	0	2026	7	3870	78
10	0	0	1904	6	3870	76
11	0	0	1835	7	3869	76
12	0	0	1803	4	3871	76
13	0	0	1802	12	3870	78
14	0	0	1815	12	3872	75
15	0	0	1837	11	3870	75
16	0	0	1866	10	3870	76
17	0	0	1941	11	3867	77
18	0	0	2019	11	3870	72
19	0	0	2081	9	3871	77
20	0	0	2149	9	3869	50
21	0	0	2213	11	3870	75
22	0	0	2259	11	3872	75
23	0	0	2281	10	3868	78
24	0	0	2278	10	3870	75
25	0	0	2308	12	3868	76
26	0	0	2308	7	3868	76
27	0	0	2213	5	3868	75
28	0	0	2117	7	3870	76
29	0	0	2019	5	3872	77
30	0	0	1904	5	3871	76
31	0	0	1838	7	3870	76
32	0	0	1809	6	3871	76
33	0	0	1811	11	3871	77
34	0	0	1827	10	3872	78
35	0	0	1835	8	3868	76
36	0	0	1858	10	3869	76
37	0	0	1944	8	3870	78
38	0	0	2018	10	3869	78
39	0	0	2079	10	3871	76
40	0	0	2147	9	3869	75
41	0	0	2218	10	3868	75
42	0	0	2267	9	3869	76
43	0	0	2286	10	3869	74
44	0	0	2284	10	3872	78
45	0	0	2305	10	3869	77
46	0	0	2306	7	3869	76
47	0	0	2208	7	3870	76
48	0	0	2113	7	3871	72
49	0	0	2026	7	3866	75
50	0	0	1911	4	3870	76
51	0	0	1842	6	3869	75
52	0	0	1814	8	3871	76
53	0	0	1816	10	3871	77
54	0	0	1825	8	3872	75
55	0	0	1841	10	3870	75
56	0	0	1862	10	3868	76
57	0	0	1936	11	3867	74
58	0	0	2014	10	3868	77
59	0	0	2083	11	3868	73
60	0	0	2159	10	3869	74
61	0	0	2222	10	3869	75
62	0	0	2270	10	3869	77
63	0	0	2288	10	3870	75
64	0	0	2285	9	3871	76
65	0	0	2310	8	3870	76
66	0	0	2303	7	3869	76
67	0	0	2212	5	3869	76
68	0	0	2120	7	3869	76
69	0	0	2029	7	3870	75
70	0	0	1911	8	3870	76
71	0	0	1837	7	3869	76
72	0	0	1803	7	3869	76
73	0	0	1801	9	3869	76
74	0	0	1811	11	3868	75
75	0	0	1830	10	3868	76
76	0	0	1858	10	3869	76
77	0	0	1939	12	3868	75
78	0	0	2016	10	3869	75
79	0	0	2076	11	3870	75
80	0	0	2142	12	3871	76
81	0	0	2205	10	3870	76
82	0	0	2260	10	3870	76
83	0	0	2285	9	3872	75
84	0	0	2286	11	3869	73
85	0	0	2308	12	3870	76
86	0	0	2311	8	3865	75
87	0	0	2214	7	3869	76
88	0	0	2121	6	3869	77
89	0	0	2029	7	3868	75
90	0	0	1910	7	3869	76
91	0	0	1837	7	3868	73
92	0	0	1806	7	3868	75
93	0	0	1802	9	3868	76
94	0	0	1816	11	3868	72
95	0	0	1836	8	3868	76
96	0	0	1857	7	3869	74
97	0	0	1939	10	3870	76
98	0	0	2017	8	3872	76
99	0	0	2076	11	3869	73
100	0	0	2140	11	3871	75
101	0	0	2208	11	3866	76
102	0	0	2266	11	3869	76
103	0	0	2289	9	3869	76
104	0	0	2285	9	3871	76
105	0	0	2313	10	3871	76
106	0	0	2308	7	3869	75
107	0	0	2209	5	3870	76
108	0	0	2112	7	3869	79
109	0	0	2022	6	3869	76
110	0	0	1905	5	3870	78
111	0	0	1837	7	3867	76
112	0	0	1807	6	3871	76
113	0	0	1806	10	3868	76
114	0	0	1816	10	3870	76
115	0	0	1836	12	3870	76
116	0	0	1862	10	3870	74
117	0	0	1946	10	3870	76
118	0	0	2014	7	3869	74
119	0	0	2072	11	3867	72
120	0	0	2141	12	3869	75
121	0	0	2210	10	3870	75
122	0	0	2264	13	3872	75
123	0	0	2286	9	3868	76
124	0	0	2283	9	3871	76
125	0	0	2312	11	3868	76
126	0	0	2308	8	3869	75
127	0	0	2209	7	3869	75
0	0	0	2113	5	3871	79
1	0	0	2026	7	3871	76
2	0	0	1910	7	3870	75
3	0	0	1843	7	3870	75
4	0	0	1820	7	3871	78
5	0	0	1815	7	3870	74
6	0	0	1828	11	3868	74
7	0	0	1845	7	3870	75
8	0	0	1862	10	3869	76
9	0	0	1943	10	3868	76
10	0	0	2021	10	3869	76
11	0	0	2082	9	3870	77
12	0	0	2153	10	3870	76
13	0	0	2217	10	3870	76
14	0	0	2265	14	3868	75
15	0	0	2293	9	3868	76
16	0	0	2288	9	3867	76
17	0	0	2314	7	3870	76
18	0	0	2317	7	3870	77
19	0	0	2220	10	3869	75
20	0	0	2126	7	3870	76
21	0	0	2033	7	3871	77
22	0	0	1912	7	3870	76
23	0	0	1841	10	3868	75
24	0	0	1813	8	3869	76
25	0	0	1807	9	3869	76
26	0	0	1815	11	3869	76
27	0	0	1835	10	3870	76
28	0	0	1859	10	3868	76
29	0	0	1940	9	3869	75
30	0	0	2019	10	3869	74
31	0	0	2081	10	3871	76
32	0	0	2149	7	3868	75
33	0	0	2209	10	3869	77
34	0	0	2262	10	3869	76
35	0	0	2282	12	3870	76
36	0	0	2280	10	3871	76
37	0	0	2304	7	3870	76
38	0	0	2307	7	3870	76
39	0	0	2209	6	3869	76
40	0	0	2115	7	3868	74
41	0	0	2023	6	3871	77
42	0	0	1909	6	3870	76
43	0	0	1841	7	3869	77
44	0	0	1811	7	3868	76
45	0	0	1811	10	3869	76
46	0	0	1822	10	3869	75
47	0	0	1836	7	3872	74
48	0	0	1860	10	3869	75
49	0	0	1941	10	3868	75
50	0	0	2021	8	3869	75
51	0	0	2081	9	3863	77
52	0	0	2148	7	3869	76
53	0	0	2213	11	3870	76
54	0	0	2258	15	3869	75
55	0	0	2282	11	3869	75
56	0	0	2276	8	3871	76
57	0	0	2304	10	3870	75
58	0	0	2306	7	3869	75
59	0	0	2211	7	3872	75
60	0	0	2119	5	3869	77
61	0	0	2020	6	3869	76
62	0	0	1902	3	3870	76
63	0	0	1838	6	3871	76
64	0	0	1820	12	3868	76
65	0	0	1818	8	3868	76
66	0	0	1829	10	3869	76
67	0	0	1843	8	3870	76
68	0	0	1863	7	3871	76
69	0	0	1941	14	3869	75
70	0	0	2018	11	3869	75
71	0	0	2084	11	3870	77
72	0	0	2147	8	3870	76
73	0	0	2213	11	3869	76
74	0	0	2261	11	3871	76
75	0	0	2283	10	3871	75
76	0	0	2283	10	3867	76
77	0	0	2309	10	3870	76
78	0	0	2314	7	3870	76
79	0	0	2218	7	3868	75
80	0	0	2119	5	3869	76
81	0	0	2024	6	3869	77
82	0	0	1907	4	3869	75
83	0	0	1836	7	3868	76
84	0	0	1813	7	3870	76
85	0	0	1818	11	3869	75
86	0	0	1827	11	3869	76
87	0	0	1835	3	3872	74
88	0	0	1859	7	3869	75
89	0	0	1941	10	3869	76
90	0	0	2023	10	3870	77
91	0	0	2083	9	3870	76
92	0	0	2146	8	3871	76
93	0	0	2213	10	3870	76
94	0	0	2263	11	3868	76
95	0	0	2285	8	3868	75
96	0	0	2278	9	3867	76
97	0	0	2306	8	3869	75
98	0	0	2309	3	3867	76
99	0	0	2214	7	3867	75
100	0	0	2122	8	3867	74
101	0	0	2034	6	3872	77
102	0	0	1913	4	3871	76
103	0	0	1840	7	3870	76
104	0	0	1812	11	3869	76
105	0	0	1806	10	3870	76
106	0	0	1819	9	3872	75
107	0	0	1836	8	3870	75
108	0	0	1856	9	3869	76
109	0	0	1940	10	3871	76
110	0	0	2020	10	3870	72
111	0	0	2081	10	3867	76
112	0	0	2145	11	3870	75
113	0	0	2210	11	3868	75
114	0	0	2260	11	3868	75
115	0	0	2284	10	3868	75
116	0	0	2281	10	3872	75
117	0	0	2309	10	3870	75
118	0	0	2315	7	3870	76
119	0	0	2218	7	3870	76
120	0	0	2128	6	3870	75
121	0	0	2034	6	3871	76
122	0	0	1909	6	3871	75
123	0	0	1836	6	3869	76
124	0	0	1809	11	3869	76
125	0	0	1810	10	3869	77
126	0	0	1823	7	3866	76
127	0	0	1838	9	3870	76
0	0	0	1859	10	3868	76
1	0	0	1939	8	3871	74
2	0	0	2022	8	3864	75
3	0	0	2084	10	3869	77
4	0	0	2152	10	3869	76
5	0	0	2213	10	3869	78
6	0	0	2264	10	3869	76
7	0	0	2288	10	3872	76
8	0	0	2286	10	3872	75
9	0	0	2306	10	3871	75
10	0	0	2316	7	3871	75
11	0	0	2218	7	3869	76
12	0	0	2123	7	3870	76
13	0	0	2028	5	3870	76
14	0	0	1910	6	3871	77
15	0	0	1836	7	3870	76
16	0	0	1806	6	3869	76
17	0	0	1806	14	3868	75
18	0	0	1823	10	3868	76
19	0	0	1836	10	3870	76
20	0	0	1858	9	3868	78
21	0	0	1933	9	3869	76
22	0	0	2014	10	3869	76
23	0	0	2074	10	3868	78
24	0	0	2147	9	3871	76
25	0	0	2210	10	3870	76
26	0	0	2263	11	3870	75
27	0	0	2290	10	3869	76
28	0	0	2289	11	3869	75
29	0	0	2311	0	3871	75
30	0	0	2313	7	3871	76
31	0	0	2220	7	3869	78
32	0	0	2123	6	3872	75
33	0	0	2032	6	3868	75
34	0	0	1915	6	3869	77
35	0	0	1840	7	3869	75
36	0	0	1814	8	3868	76
37	0	0	1811	10	3869	77
38	0	0	1819	10	3870	75
39	0	0	1834	10	3871	75
40	0	0	1858	11	3870	75
41	0	0	1938	11	3870	76
42	0	0	2018	10	3872	75
43	0	0	2084	11	3870	75
44	0	0	2154	10	3870	75
45	0	0	2216	12	3868	76
46	0	0	2264	11	3869	75
47	0	0	2290	10	3870	77
48	0	0	2286	8	3869	75
49	0	0	2305	10	3870	75
50	0	0	2308	7	3868	76
51	0	0	2215	7	3868	75
52	0	0	2121	6	3870	77
53	0	0	2031	7	3869	75
54	0	0	1911	6	3870	76
55	0	0	1842	7	3869	75
56	0	0	1811	7	3869	75
57	0	0	1808	10	3871	75
58	0	0	1816	9	3869	74
59	0	0	1830	10	3869	75
60	0	0	1854	10	3869	76
61	0	0	1943	10	3869	75
62	0	0	2013	11	3869	76
63	0	0	2084	10	3870	75
64	0	0	2147	12	3868	75
65	0	0	2214	10	3870	77
66	0	0	2260	12	3869	74
67	0	0	2270	13	3869	75
68	0	0	2272	10	3869	76
69	0	0	2303	10	3870	76
70	0	0	2312	7	3866	75
71	0	0	2220	5	3868	75
72	0	0	2128	7	3869	77
73	0	0	2035	6	3869	74
74	0	0	1915	6	3870	76
75	0	0	1842	7	3870	75
76	0	0	1810	7	3870	76
77	0	0	1801	14	3869	73
78	0	0	1811	10	3871	74
79	0	0	1834	9	3870	77
80	0	0	1860	10	3870	76
81	0	0	1940	10	3869	75
82	0	0	2017	10	3869	75
83	0	0	2082	10	3870	76
84	0	0	2145	11	3868	76
85	0	0	2208	10	3870	76
86	0	0	2254	11	3869	76
87	0	0	2277	11	3869	76
88	0	0	2278	9	3870	76
89	0	0	2303	10	3871	75
90	0	0	2312	8	3869	76
91	0	0	2219	6	3872	75
92	0	0	2126	5	3870	75
93	0	0	2034	7	3868	74
94	0	0	1913	8	3870	75
95	0	0	1838	8	3870	76
96	0	0	1811	9	3870	76
97	0	0	1810	9	3870	74
98	0	0	1816	12	3869	74
99	0	0	1837	9	3869	78
100	0	0	1854	10	3868	75
101	0	0	1938	13	3868	75
102	0	0	2011	11	3868	76
103	0	0	2077	10	3869	75
104	0	0	2140	10	3869	76
105	0	0	2208	11	3869	75
106	0	0	2262	11	3868	75
107	0	0	2290	9	3870	76
108	0	0	2288	10	3869	74
109	0	0	2311	11	3872	74
110	0	0	2315	5	3870	76
111	0	0	2220	7	3868	75
112	0	0	2133	5	3870	76
113	0	0	2037	6	3871	75
114	0	0	1918	6	3870	77
115	0	0	1844	6	3869	76
116	0	0	1814	7	3870	76
117	0	0	1808	10	3868	74
118	0	0	1819	10	3867	73
119	0	0	1835	10	3870	75
120	0	0	1852	10	3868	75
121	0	0	1932	10	3866	78
122	0	0	2010	13	3868	74
123	0	0	2080	10	3871	76
124	0	0	2148	10	3871	75
125	0	0	2214	10	3870	77
126	0	0	2262	7	3869	76
127	0	0	2283	10	3870	76
0	0	0	2281	11	3869	76
1	0	0	2302	11	3871	76
2	0	0	2313	6	3869	75
3	0	0	2222	8	3868	73
4	0	0	2122	7	3869	76
5	0	0	2034	7	3871	76
6	0	0	1913	6	3870	76
7	0	0	1840	6	3870	76
8	0	0	1805	8	3868	76
9	0	0	1801	10	3869	76
10	0	0	1810	10	3870	76
11	0	0	1829	7	3869	76
12	0	0	1851	13	3870	74
13	0	0	1930	10	3871	76
14	0	0	2014	11	3871	76
15	0	0	2081	11	3870	74
16	0	0	2152	10	3871	76
17	0	0	2214	10	3869	75
18	0	0	2264	10	3868	73
19	0	0	2289	11	3870	77
20	0	0	2284	9	3869	76
21	0	0	2306	10	3870	73
22	0	0	2313	7	3868	75
23	0	0	2219	4	3868	80
24	0	0	2120	6	3869	76
25	0	0	2029	6	3867	78
26	0	0	1909	7	3871	77
27	0	0	1840	7	3870	76
28	0	0	1810	7	3870	76
29	0	0	1805	10	3870	77
30	0	0	1813	10	3870	74
31	0	0	1834	10	3871	76
32	0	0	1856	11	3870	78
33	0	0	1940	10	3870	75
34	0	0	2019	10	3870	77
35	0	0	2077	10	3870	76
36	0	0	2143	11	3870	76
37	0	0	2205	10	3869	76
38	0	0	2259	7	3868	80
39	0	0	2289	11	3870	76
40	0	0	2287	11	3867	78
41	0	0	2311	10	3869	76
42	0	0	2314	7	3869	75
43	0	0	2222	6	3867	75
44	0	0	2128	7	3869	77
45	0	0	2036	6	3870	74
46	0	0	1909	8	3872	74
47	0	0	1837	7	3870	76
48	0	0	1810	9	3869	76
49	0	0	1806	11	3871	76
50	0	0	1815	9	3870	75
51	0	0	1829	9	3870	75
52	0	0	1852	10	3869	76
53	0	0	1934	10	3870	74
54	0	0	2012	10	3869	76
55	0	0	2075	10	3870	78
56	0	0	2137	10	3868	76
57	0	0	2202	10	3868	75
58	0	0	2256	11	3867	74
59	0	0	2287	8	3870	76
60	0	0	2286	10	3868	75
61	0	0	2310	10	3870	76
62	0	0	2321	7	3870	76
63	0	0	2228	8	3870	76
64	0	0	2131	7	3871	76
65	0	0	2040	5	3868	78
66	0	0	1921	6	3868	75
67	0	0	1849	8	3869	76
68	0	0	1819	8	3869	76
69	0	0	1810	8	3871	76
70	0	0	1818	10	3868	77
71	0	0	1838	10	3868	76
72	0	0	1853	10	3868	75
73	0	0	1931	10	3868	75
74	0	0	2010	10	3868	76
75	0	0	2075	11	3869	75
76	0	0	2143	10	3870	78
77	0	0	2207	10	3869	75
78	0	0	2256	10	3872	74
79	0	0	2283	10	3872	75
80	0	0	2286	10	3870	75
81	0	0	2307	7	3868	76
82	0	0	2311	7	3870	76
83	0	0	2223	7	3869	76
84	0	0	2122	7	3868	75
85	0	0	2032	7	3868	77
86	0	0	1917	5	3870	76
87	0	0	1842	6	3868	74
88	0	0	1815	8	3869	76
89	0	0	1809	10	3869	76
90	0	0	1823	10	3869	75
91	0	0	1843	10	3870	78
92	0	0	1858	10	3869	75
93	0	0	1942	10	3869	75
94	0	0	2016	10	3870	79
95	0	0	2075	10	3870	75
96	0	0	2145	10	3871	76
97	0	0	2212	11	3870	75
98	0	0	2264	10	3870	76
99	0	0	2287	10	3867	76
100	0	0	2281	11	3868	78
101	0	0	2301	16	3865	76
102	0	0	2312	8	3867	76
103	0	0	2222	7	3869	75
104	0	0	2131	6	3866	78
105	0	0	2039	5	3870	75
106	0	0	1923	6	3866	76
107	0	0	1844	7	3869	75
108	0	0	1811	8	3868	76
109	0	0	1805	10	3867	76
110	0	0	1816	9	3868	77
111	0	0	1838	10	3866	72
112	0	0	1855	11	3869	75
113	0	0	1929	11	3870	76
114	0	0	2010	10	3871	75
115	0	0	2075	10	3871	75
116	0	0	2144	10	3868	75
117	0	0	2215	11	3874	75
118	0	0	2266	10	3870	76
119	0	0	2292	10	3867	77
120	0	0	2287	9	3870	74
121	0	0	2305	10	3870	75
122	0	0	2312	7	3868	75
123	0	0	2223	7	3870	76
124	0	0	2126	7	3870	76
125	0	0	2033	7	3869	76
126	0	0	1908	6	3870	75
127	0	0	1837	7	3869	75
0	0	0	1806	7	3871	76
1	0	0	1804	11	3871	78
2	0	0	1816	10	3871	73
3	0	0	1831	10	3868	75
4	0	0	1854	10	3870	78
5	0	0	1940	11	3869	76
6	0	0	2014	9	3868	75
7	0	0	2074	10	3869	74
8	0	0	2144	12	3868	75
9	0	0	2204	10	3870	75
10	0	0	2258	11	3869	75
11	0	0	2283	10	3869	76
12	0	0	2286	10	3871	76
13	0	0	2307	10	3867	73
14	0	0	2320	7	3870	75
15	0	0	2225	10	3868	76
16	0	0	2128	7	3868	75
17	0	0	2036	6	3870	75
18	0	0	1918	6	3870	75
19	0	0	1844	7	3869	75
20	0	0	1806	7	3872	75
21	0	0	1803	10	3868	77
22	0	0	1819	10	3871	75
23	0	0	1835	9	3864	75
24	0	0	1853	10	3869	75
25	0	0	1936	9	3871	76
26	0	0	2019	11	3870	75
27	0	0	2087	10	3871	73
28	0	0	2147	10	3870	75
29	0	0	2213	10	3870	75
30	0	0	2260	14	3868	76
31	0	0	2287	10	3869	75
32	0	0	2283	10	3870	73
33	0	0	2310	10	3870	75
34	0	0	2319	7	3869	76
35	0	0	2224	7	3872	75
36	0	0	2127	6	3868	77
37	0	0	2040	5	3870	73
38	0	0	1923	7	3871	75
39	0	0	1841	8	3868	76
40	0	0	1811	8	3869	76
41	0	0	1800	10	3870	75
42	0	0	1815	9	3870	76
43	0	0	1833	9	3870	77
44	0	0	1853	10	3868	76
45	0	0	1929	8	3869	76
46	0	0	2012	10	3869	75
47	0	0	2071	9	3869	75
48	0	0	2141	9	3869	75
49	0	0	2206	11	3869	76
50	0	0	2265	10	3870	76
51	0	0	2290	10	3869	75
52	0	0	2288	10	3869	74
53	0	0	2311	10	3871	74
54	0	0	2322	7	3870	77
55	0	0	2225	6	3869	76
56	0	0	2119	7	3870	75
57	0	0	2035	6	3869	73
58	0	0	1916	7	3868	75
59	0	0	1839	6	3870	75
60	0	0	1813	11	3869	73
61	0	0	1807	8	3869	76
62	0	0	1820	10	3871	76
63	0	0	1840	11	3869	76
64	0	0	1857	11	3868	76
65	0	0	1935	7	3870	75
66	0	0	2012	10	3870	75
67	0	0	2069	9	3871	76
68	0	0	2137	10	3869	75
69	0	0	2210	10	3870	76
70	0	0	2265	7	3871	75
71	0	0	2285	10	3870	77
72	0	0	2285	10	3870	78
73	0	0	2305	12	3868	76
74	0	0	2318	7	3869	75
75	0	0	2220	6	3870	75
76	0	0	2119	7	3870	80
77	0	0	2026	4	3869	80
78	0	0	1913	6	3870	75
79	0	0	1840	7	3868	79
80	0	0	1812	6	3869	75
81	0	0	1813	11	3872	75
82	0	0	1825	10	3868	76
83	0	0	1843	10	3869	75
84	0	0	1864	9	3869	76
85	0	0	1942	10	3869	76
86	0	0	2015	11	3871	73
87	0	0	2078	10	3868	74
88	0	0	2148	10	3869	76
89	0	0	2210	10	3870	75
90	0	0	2261	10	3869	76
91	0	0	2296	12	3869	76
92	0	0	2296	8	3871	76
93	0	0	2314	10	3867	75
94	0	0	2322	7	3870	76
95	0	0	2230	7	3868	76
96	0	0	2133	9	3872	76
97	0	0	2037	6	3869	78
98	0	0	1917	6	3866	76
99	0	0	1843	7	3869	76
100	0	0	1814	5	3871	74
101	0	0	1807	10	3871	74
102	0	0	1819	10	3867	76
103	0	0	1835	10	3872	75
104	0	0	1856	10	3869	76
105	0	0	1932	10	3869	75
106	0	0	2013	11	3870	72
107	0	0	2076	10	3870	78
108	0	0	2145	10	3871	75
109	0	0	2207	9	3868	76
110	0	0	2258	10	3870	75
111	0	0	2284	10	3870	74
112	0	0	2288	11	3869	75
113	0	0	2302	10	3869	76
114	0	0	2314	8	3868	76
115	0	0	2221	7	3867	75
116	0	0	2124	9	3872	75
117	0	0	2036	7	3870	77
118	0	0	1918	5	3872	75
119	0	0	1841	7	3870	76
120	0	0	1815	7	3870	76
121	0	0	1808	11	3870	76
122	0	0	1817	9	3870	75
123	0	0	1835	10	3868	75
124	0	0	1856	10	3870	75
125	0	0	1930	7	3867	76
126	0	0	2011	12	3869	76
127	0	0	2073	10	3867	75
0	0	0	2141	10	3868	75
1	0	0	2206	10	3868	76
2	0	0	2260	10	3867	76
3	0	0	2286	11	3869	74
4	0	0	2292	11	3868	78
5	0	0	2308	10	3870	76
6	0	0	2317	7	3870	75
7	0	0	2211	5	3870	76
8	0	0	2118	7	3871	72
9	0	0	2031	7	3870	77
10	0	0	1916	7	3869	76
11	0	0	1845	7	3869	78
12	0	0	1818	7	3870	77
13	0	0	1816	7	3870	79
14	0	0	1825	11	3869	79
15	0	0	1838	10	3869	75
16	0	0	1850	9	3868	76
17	0	0	1930	10	3869	75
18	0	0	2012	9	3870	76
19	0	0	2080	10	3869	75
20	0	0	2151	10	3868	75
21	0	0	2213	10	3869	76
22	0	0	2255	9	3869	75
23	0	0	2281	8	3870	76
24	0	0	2279	9	3871	75
25	0	0	2297	10	3872	75
26	0	0	2316	7	3869	75
27	0	0	2228	6	3869	76
28	0	0	2131	8	3869	74
29	0	0	2039	7	3869	76
30	0	0	1918	6	3870	76
31	0	0	1842	7	3868	76
32	0	0	1810	7	3870	75
33	0	0	1797	8	3870	75
34	0	0	1810	10	3870	75
35	0	0	1832	10	3868	73
36	0	0	1855	10	3868	76
37	0	0	1937	10	3868	76
38	0	0	2015	11	3869	76
39	0	0	2072	10	3870	76
40	0	0	2138	10	3870	76
41	0	0	2207	10	3870	71
42	0	0	2258	10	3870	76
43	0	0	2286	10	3869	78
44	0	0	2283	11	3871	75
45	0	0	2306	10	3871	75
46	0	0	2315	7	3872	75
47	0	0	2221	8	3869	76
48	0	0	2125	8	3868	76
49	0	0	2040	4	3870	77
50	0	0	1922	7	3871	76
51	0	0	1848	7	3869	76
52	0	0	1819	7	3868	76
53	0	0	1812	9	3866	78
54	0	0	1826	10	3869	75
55	0	0	1841	7	3868	76
56	0	0	1853	10	3869	76
57	0	0	1931	10	3870	76
58	0	0	2006	10	3869	76
59	0	0	2073	11	3870	75
60	0	0	2144	11	3871	76
61	0	0	2210	10	3872	74
62	0	0	2262	10	3869	76
63	0	0	2291	8	3870	76
64	0	0	2291	9	3870	76
65	0	0	2306	10	3870	76
66	0	0	2325	9	3870	76
67	0	0	2236	9	3872	76
68	0	0	2139	5	3869	76
69	0	0	2051	7	3870	76
70	0	0	1932	6	3871	72
71	0	0	1852	6	3870	76
72	0	0	1811	7	3870	76
73	0	0	1801	6	3870	75
74	0	0	1811	9	3871	76
75	0	0	1832	10	3871	76
76	0	0	1860	9	3869	76
77	0	0	1934	10	3868	78
78	0	0	2015	10	3868	78
79	0	0	2079	9	3869	76
80	0	0	2141	10	3869	75
81	0	0	2208	10	3870	76
82	0	0	2257	10	3872	75
83	0	0	2284	9	3870	75
84	0	0	2286	10	3869	76
85	0	0	2308	10	3871	76
86	0	0	2319	7	3868	75
87	0	0	2232	6	3868	77
88	0	0	2132	6	3868	79
89	0	0	2046	7	3870	76
90	0	0	1929	7	3871	76
91	0	0	1848	8	3870	76
92	0	0	1812	7	3870	77
93	0	0	1810	9	3869	75
94	0	0	1819	9	3870	76
95	0	0	1832	9	3871	75
96	0	0	1849	10	3869	76
97	0	0	1920	10	3869	76
98	0	0	2003	6	3871	75
99	0	0	2057	10	3871	73
100	0	0	2127	11	3871	75
101	0	0	2202	10	3868	75
102	0	0	2256	10	3868	75
103	0	0	2282	10	3868	78
104	0	0	2282	10	3869	73
105	0	0	2304	11	3869	74
106	0	0	2316	7	3871	76
107	0	0	2228	5	3871	74
108	0	0	2131	3	3871	76
109	0	0	2040	6	3871	80
110	0	0	1924	7	3871	76
111	0	0	1850	7	3871	77
112	0	0	1820	7	3870	75
113	0	0	1819	9	3868	78
114	0	0	1823	10	3870	78
115	0	0	1835	9	3869	75
116	0	0	1846	10	3868	76
117	0	0	1924	10	3866	78
118	0	0	2010	10	3869	75
119	0	0	2072	8	3869	74
120	0	0	2143	10	3869	75
121	0	0	2209	10	3872	76
122	0	0	2262	10	3870	75
123	0	0	2290	11	3871	76
124	0	0	2286	11	3870	76
125	0	0	2300	10	3871	75
126	0	0	2309	7	3870	79
127	0	0	2218	6	3870	78
0	0	0	2125	5	3869	76
1	0	0	2036	7	3870	74
2	0	0	1917	6	3869	76
3	0	0	1841	6	3869	75
4	0	0	1814	8	3869	75
5	0	0	1807	7	3870	76
6	0	0	1810	11	3869	73
7	0	0	1831	9	3869	78
8	0	0	1841	10	3868	75
9	0	0	1923	11	3869	75
10	0	0	2004	10	3869	75
11	0	0	2065	10	3871	76
12	0	0	2132	10	3870	75
13	0	0	2198	11	3871	78
14	0	0	2256	10	3871	76
15	0	0	2287	7	3870	76
16	0	0	2287	10	3871	76
17	0	0	2307	11	3870	75
18	0	0	2318	7	3871	77
19	0	0	2227	7	3870	75
20	0	0	2132	7	3868	73
21	0	0	2048	7	3870	77
22	0	0	1932	6	3869	75
23	0	0	1848	7	3869	74
24	0	0	1814	7	3870	74
25	0	0	1802	9	3868	75
26	0	0	1810	10	3870	77
27	0	0	1830	10	3869	76
28	0	0	1848	9	3869	75
29	0	0	1928	10	3870	75
30	0	0	2013	7	3871	75
31	0	0	2073	10	3871	76
32	0	0	2133	10	3870	76
33	0	0	2191	11	3870	76
34	0	0	2245	11	3871	72
35	0	0	2276	11	3869	74
36	0	0	2284	9	3870	77
37	0	0	2306	10	3868	78
38	0	0	2321	7	3869	75
39	0	0	2230	7	3870	74
40	0	0	2129	5	3869	78
41	0	0	2043	7	3868	75
42	0	0	1925	7	3868	77
43	0	0	1847	6	3868	76
44	0	0	1817	7	3869	76
45	0	0	1809	8	3868	77
46	0	0	1819	10	3870	78
47	0	0	1836	10	3870	74
48	0	0	1853	10	3870	75
49	0	0	1930	9	3869	75
50	0	0	2012	7	3869	75
51	0	0	2068	10	3870	77
52	0	0	2136	10	3869	78
53	0	0	2206	9	3870	76
54	0	0	2262	9	3869	75
55	0	0	2293	9	3866	77
56	0	0	2296	10	3869	77
57	0	0	2308	10	3868	79
58	0	0	2326	8	3868	75
59	0	0	2243	7	3869	72
60	0	0	2136	7	3869	73
61	0	0	2045	7	3869	76
62	0	0	1926	6	3870	78
63	0	0	1850	7	3870	76
64	0	0	1819	7	3870	76
65	0	0	1805	11	3872	76
66	0	0	1819	10	3869	76
67	0	0	1834	10	3871	75
68	0	0	1853	10	3869	76
69	0	0	1934	10	3869	76
70	0	0	2018	9	3870	76
71	0	0	2080	9	3869	75
72	0	0	2145	10	3869	78
73	0	0	2206	9	3868	75
74	0	0	2262	9	3868	75
75	0	0	2284	10	3868	74
76	0	0	2290	11	3869	76
77	0	0	2303	10	3869	76
78	0	0	2319	8	3869	75
79	0	0	2231	7	3870	76
80	0	0	2132	8	3872	74
81	0	0	2044	6	3870	77
82	0	0	1929	6	3868	79
83	0	0	1854	7	3869	77
84	0	0	1823	6	3869	76
85	0	0	1813	10	3869	80
86	0	0	1817	8	3870	75
87	0	0	1829	9	3870	76
88	0	0	1847	10	3868	76
89	0	0	1920	10	3868	76
90	0	0	2003	11	3870	75
91	0	0	2074	12	3869	75
92	0	0	2140	10	3868	77
93	0	0	2206	10	3870	76
94	0	0	2259	8	3868	77
95	0	0	2283	8	3870	75
96	0	0	2284	11	3870	75
97	0	0	2301	10	3868	79
98	0	0	2320	7	3869	76
99	0	0	2233	6	3869	76
100	0	0	2133	8	3869	80
101	0	0	2047	6	3871	76
102	0	0	1931	7	3868	79
103	0	0	1850	7	3871	75
104	0	0	1819	7	3869	76
105	0	0	1807	10	3870	79
106	0	0	1812	11	3868	76
107	0	0	1832	10	3870	74
108	0	0	1845	9	3868	76
109	0	0	1920	10	3868	75
110	0	0	2004	10	3870	76
111	0	0	2076	8	3870	76
112	0	0	2142	10	3871	76
113	0	0	2208	8	3870	75
114	0	0	2259	11	3870	76
115	0	0	2285	12	3872	76
116	0	0	2283	10	3870	75
117	0	0	2301	11	3868	78
118	0	0	2317	7	3869	76
119	0	0	2234	8	3869	76
120	0	0	2131	8	3870	79
121	0	0	2042	7	3869	75
122	0	0	1927	6	3868	74
123	0	0	1846	7	3867	78
124	0	0	1815	9	3869	76
125	0	0	1807	12	3868	80
126	0	0	1813	8	3869	77
127	0	0	1838	9	3868	78
0	0	0	1854	10	3869	76
1	0	0	1929	11	3870	75
2	0	0	2012	10	3871	79
3	0	0	2070	13	3870	75
4	0	0	2139	10	3869	77
5	0	0	2194	10	3869	76
6	0	0	2247	11	3870	76
7	0	0	2276	12	3870	80
8	0	0	2283	8	3870	76
9	0	0	2300	11	3870	77
10	0	0	2314	6	3868	75
11	0	0	2227	6	3869	73
12	0	0	2132	6	3869	77
13	0	0	2042	7	3869	76
14	0	0	1920	6	3869	76
15	0	0	1841	7	3868	75
16	0	0	1807	7	3871	75
17	0	0	1804	9	3871	75
18	0	0	1819	10	3871	76
19	0	0	1840	8	3869	75
20	0	0	1854	12	3870	76
21	0	0	1930	11	3869	76
22	0	0	2010	12	3870	73
23	0	0	2075	9	3870	77
24	0	0	2135	10	3869	75
25	0	0	2199	9	3870	76
26	0	0	2252	10	3868	76
27	0	0	2282	12	3869	74
28	0	0	2288	9	3870	76
29	0	0	2301	10	3868	73
30	0	0	2320	7	3868	76
31	0	0	2231	6	3869	75
32	0	0	2128	6	3870	79
33	0	0	2037	4	3870	76
34	0	0	1925	6	3869	75
35	0	0	1852	8	3870	76
36	0	0	1821	8	3870	76
37	0	0	1810	12	3870	74
38	0	0	1819	9	3870	76
39	0	0	1832	7	3869	73
40	0	0	1844	11	3870	76
41	0	0	1920	11	3869	75
42	0	0	2004	14	3869	74
43	0	0	2067	8	3869	77
44	0	0	2135	10	3868	75
45	0	0	2200	8	3868	75
46	0	0	2257	10	3870	73
47	0	0	2287	10	3871	76
48	0	0	2287	9	3869	76
49	0	0	2304	10	3869	74
50	0	0	2325	8	3870	76
51	0	0	2237	8	3870	76
52	0	0	2133	7	3870	74
53	0	0	2041	5	3871	76
54	0	0	1923	6	3870	74
55	0	0	1848	4	3871	76
56	0	0	1822	10	3869	74
57	0	0	1813	14	3870	73
58	0	0	1821	10	3870	76
59	0	0	1835	10	3868	76
60	0	0	1842	10	3868	75
61	0	0	1918	9	3868	77
62	0	0	2003	7	3869	75
63	0	0	2067	7	3869	75
64	0	0	2136	10	3868	76
65	0	0	2207	10	3868	75
66	0	0	2260	10	3868	75
67	0	0	2288	7	3871	75
68	0	0	2285	9	3870	76
69	0	0	2296	10	3871	76
70	0	0	2308	11	3869	76
71	0	0	2222	7	3869	75
72	0	0	2135	7	3869	76
73	0	0	2046	4	3870	78
74	0	0	1930	7	3872	74
75	0	0	1850	6	3870	76
76	0	0	1818	5	3869	76
77	0	0	1808	11	3869	74
78	0	0	1815	9	3869	76
79	0	0	1828	10	3868	76
80	0	0	1846	8	3868	74
81	0	0	1917	10	3868	75
82	0	0	2007	7	3869	75
83	0	0	2069	9	3870	77
84	0	0	2136	11	3870	76
85	0	0	2206	10	3870	76
86	0	0	2259	11	3869	73
87	0	0	2293	7	3870	76
88	0	0	2292	9	3870	78
89	0	0	2303	10	3869	76
90	0	0	2320	7	3869	76
91	0	0	2229	7	3869	73
92	0	0	2129	5	3869	75
93	0	0	2044	6	3869	77
94	0	0	1932	6	3868	76
95	0	0	1855	7	3869	78
96	0	0	1826	6	3868	76
97	0	0	1814	9	3869	76
98	0	0	1819	8	3869	78
99	0	0	1831	9	3869	74
100	0	0	1847	10	3869	78
101	0	0	1924	10	3872	74
102	0	0	2005	12	3871	76
103	0	0	2065	10	3871	75
104	0	0	2131	7	3870	76
105	0	0	2199	8	3871	76
106	0	0	2252	10	3870	73
107	0	0	2280	9	3870	77
108	0	0	2283	10	3870	77
109	0	0	2302	10	3870	76
110	0	0	2316	7	3868	76
111	0	0	2230	7	3868	74
112	0	0	2133	5	3869	76
113	0	0	2045	7	3868	75
114	0	0	1927	6	3868	78
115	0	0	1846	6	3868	75
116	0	0	1818	8	3868	76
117	0	0	1813	8	3870	77
118	0	0	1818	9	3870	77
119	0	0	1834	7	3869	76
120	0	0	1848	13	3871	75
121	0	0	1922	7	3867	76
122	0	0	2005	11	3870	76
123	0	0	2067	8	3870	78
124	0	0	2141	10	3869	77
125	0	0	2204	12	3870	73
126	0	0	2254	10	3869	74
127	0	0	2281	9	3870	76
0	0	0	2279	10	3869	76
1	0	0	2290	10	3868	76
2	0	0	2314	7	3868	76
3	0	0	2232	6	3868	76
4	0	0	2130	8	3869	76
5	0	0	2044	6	3870	77
6	0	0	1927	6	3869	75
7	0	0	1853	9	3870	76
8	0	0	1820	6	3869	76
9	0	0	1808	8	3870	78
10	0	0	1816	10	3870	75
11	0	0	1836	7	3868	78
12	0	0	1851	10	3870	76
13	0	0	1927	13	3869	74
14	0	0	2011	10	3869	76
15	0	0	2074	9	3870	78
16	0	0	2140	10	3868	71
17	0	0	2205	12	3868	75
18	0	0	2254	11	3868	73
19	0	0	2279	11	3868	76
20	0	0	2277	10	3870	51
21	0	0	2291	10	3869	75
22	0	0	2312	8	3868	77
23	0	0	2232	7	3870	76
24	0	0	2137	5	3871	76
25	0	0	2048	6	3871	77
26	0	0	1929	6	3869	77
27	0	0	1849	6	3869	76
28	0	0	1819	8	3870	77
29	0	0	1809	10	3869	75
30	0	0	1816	11	3870	77
31	0	0	1833	12	3868	71
32	0	0	1846	10	3868	76
33	0	0	1926	7	3868	75
34	0	0	2005	12	3868	76
35	0	0	2065	11	3869	74
36	0	0	2136	10	3868	75
37	0	0	2209	13	3870	76
38	0	0	2257	10	3872	75
39	0	0	2285	10	3870	75
40	0	0	2286	11	3871	75
41	0	0	2301	11	3870	71
42	0	0	2316	7	3870	77
43	0	0	2228	8	3869	80
44	0	0	2132	5	3869	78
45	0	0	2048	7	3870	75
46	0	0	1932	7	3868	71
47	0	0	1858	7	3869	71
48	0	0	1822	5	3869	76
49	0	0	1817	8	3868	77
50	0	0	1824	11	3869	76
51	0	0	1839	9	3870	76
52	0	0	1854	7	3868	76
53	0	0	1924	10	3870	76
54	0	0	2008	9	3868	75
55	0	0	2070	14	3869	76
56	0	0	2134	10	3870	73
57	0	0	2202	10	3870	76
58	0	0	2263	7	3869	76
59	0	0	2288	10	3870	75
60	0	0	2294	10	3870	76
61	0	0	2301	11	3869	75
62	0	0	2312	7	3869	71
63	0	0	2227	5	3869	76
64	0	0	2123	4	3869	78
65	0	0	2039	5	3869	76
66	0	0	1922	6	3868	73
67	0	0	1844	7	3868	75
68	0	0	1819	7	3868	76
69	0	0	1810	10	3868	75
70	0	0	1816	14	3868	76
71	0	0	1832	10	3869	71
72	0	0	1849	10	3869	76
73	0	0	1928	9	3870	76
74	0	0	2011	8	3870	78
75	0	0	2073	10	3871	77
76	0	0	2135	10	3870	72
77	0	0	2197	10	3869	76
78	0	0	2251	7	3869	76
79	0	0	2277	10	3870	79
80	0	0	2282	10	3870	76
81	0	0	2300	10	3868	73
82	0	0	2316	8	3870	76
83	0	0	2234	8	3868	73
84	0	0	2138	7	3868	75
85	0	0	2052	6	3870	75
86	0	0	1930	6	3868	74
87	0	0	1844	6	3870	76
88	0	0	1817	6	3868	80
89	0	0	1809	8	3868	74
90	0	0	1811	9	3870	76
91	0	0	1832	10	3869	72
92	0	0	1844	9	3871	74
93	0	0	1917	9	3871	79
94	0	0	1999	10	3869	75
95	0	0	2064	8	3871	74
96	0	0	2132	10	3869	74
97	0	0	2197	10	3869	76
98	0	0	2251	10	3870	76
99	0	0	2283	10	3870	76
100	0	0	2287	8	3869	76
101	0	0	2301	10	3870	76
102	0	0	2320	10	3868	75
103	0	0	2241	5	3868	75
104	0	0	2141	7	3867	75
105	0	0	2054	4	3871	76
106	0	0	1935	7	3870	76
107	0	0	1855	8	3870	76
108	0	0	1820	4	3872	75
109	0	0	1812	9	3869	75
110	0	0	1817	8	3870	77
111	0	0	1836	1	3869	72
112	0	0	1846	10	3869	76
113	0	0	1917	8	3869	75
114	0	0	2003	10	3867	75
115	0	0	2066	10	3869	75
116	0	0	2134	10	3869	72
117	0	0	2197	12	3870	76
118	0	0	2253	13	3869	76
119	0	0	2282	10	3867	76
120	0	0	2284	9	3870	76
121	0	0	2295	10	3869	74
122	0	0	2312	11	3869	76
123	0	0	2231	5	3871	75
124	0	0	2133	10	3869	74
125	0	0	2042	5	3870	76
126	0	0	1925	7	3870	72
127	0	0	1853	7	3871	75
0	0	0	1820	7	3872	78
1	0	0	1808	11	3867	73
2	0	0	1815	10	3869	76
3	0	0	1832	9	3869	75
4	0	0	1840	10	3869	74
5	0	0	1914	9	3870	79
6	0	0	2002	14	3868	74
7	0	0	2072	10	3869	76
8	0	0	2140	8	3869	76
9	0	0	2205	8	3868	75
10	0	0	2255	10	3870	74
11	0	0	2282	10	3871	76
12	0	0	2286	11	3870	76
13	0	0	2303	10	3870	75
14	0	0	2321	8	3869	76
15	0	0	2236	7	3869	73
16	0	0	2132	6	3868	76
17	0	0	2048	7	3869	75
18	0	0	1930	6	3869	76
19	0	0	1854	8	3868	75
20	0	0	1823	8	3869	75
21	0	0	1808	8	3867	74
22	0	0	1815	11	3870	75
23	0	0	1832	7	3870	72
24	0	0	1840	10	3868	75
25	0	0	1916	8	3868	75
26	0	0	2000	10	3869	76
27	0	0	2068	9	3870	76
28	0	0	2134	10	3870	76
29	0	0	2199	7	3871	76
30	0	0	2249	11	3871	78
31	0	0	2278	10	3868	76
32	0	0	2280	9	3870	77
33	0	0	2297	10	3867	75
34	0	0	2322	8	3868	76
35	0	0	2239	8	3869	75
36	0	0	2139	6	3870	76
37	0	0	2045	6	3869	77
38	0	0	1928	6	3868	76
39	0	0	1852	6	3868	75
40	0	0	1811	10	3868	75
41	0	0	1800	9	3868	76
42	0	0	1809	9	3870	75
43	0	0	1832	10	3868	77
44	0	0	1853	7	3871	76
45	0	0	1930	8	3871	74
46	0	0	2011	10	3871	78
47	0	0	2072	15	3870	75
48	0	0	2138	10	3870	76
49	0	0	2202	10	3869	76
50	0	0	2249	11	3869	76
51	0	0	2274	11	3869	76
52	0	0	2275	10	3869	76
53	0	0	2295	10	3868	76
54	0	0	2321	8	3868	75
55	0	0	2243	8	3868	72
56	0	0	2144	8	3869	77
57	0	0	2059	9	3869	76
58	0	0	1941	7	3869	75
59	0	0	1853	7	3868	76
60	0	0	1824	9	3869	74
61	0	0	1814	9	3871	76
62	0	0	1813	10	3870	75
63	0	0	1831	9	3870	79
64	0	0	1842	7	3871	79
65	0	0	1920	11	3869	76
66	0	0	2010	11	3869	76
67	0	0	2072	11	3870	76
68	0	0	2138	10	3868	77
69	0	0	2205	10	3868	75
70	0	0	2253	12	3868	78
71	0	0	2277	10	3869	77
72	0	0	2279	13	3869	75
73	0	0	2295	11	3868	73
74	0	0	2321	8	3868	76
75	0	0	2239	7	3868	77
76	0	0	2142	6	3869	75
77	0	0	2056	7	3870	76
78	0	0	1934	6	3871	76
79	0	0	1847	7	3870	76
80	0	0	1817	7	3870	77
81	0	0	1809	9	3871	74
82	0	0	1816	13	3870	77
83	0	0	1833	9	3869	76
84	0	0	1847	7	3869	76
85	0	0	1917	15	3867	75
86	0	0	2001	11	3870	76
87	0	0	2069	10	3870	76
88	0	0	2138	10	3868	75
89	0	0	2208	11	3868	75
90	0	0	2260	11	3868	76
91	0	0	2288	12	3869	75
92	0	0	2287	13	3868	76
93	0	0	2295	11	3869	76
94	0	0	2318	7	3869	76
95	0	0	2232	7	3869	75
96	0	0	2135	8	3870	77
97	0	0	2051	5	3870	76
98	0	0	1935	7	3870	74
99	0	0	1853	5	3870	76
100	0	0	1818	7	3871	79
101	0	0	1807	9	3872	75
102	0	0	1817	10	3870	76
103	0	0	1833	10	3868	71
104	0	0	1845	11	3868	74
105	0	0	1924	12	3868	77
106	0	0	2009	10	3869	75
107	0	0	2068	13	3870	75
108	0	0	2136	10	3867	77
109	0	0	2201	10	3868	76
110	0	0	2255	12	3869	78
111	0	0	2282	12	3870	75
112	0	0	2284	11	3870	76
113	0	0	2296	10	3870	76
114	0	0	2324	9	3870	76
115	0	0	2239	6	3870	77
116	0	0	2141	6	3870	76
117	0	0	2053	7	3869	75
118	0	0	1935	6	3870	75
119	0	0	1856	8	3869	75
120	0	0	1822	8	3868	76
121	0	0	1812	9	3870	77
122	0	0	1818	8	3869	75
123	0	0	1839	11	3869	76
124	0	0	1844	8	3869	76
125	0	0	1918	11	3868	76
126	0	0	2002	10	3868	75
127	0	0	2064	9	3869	75
0	0	0	2132	9	3869	76
1	0	0	2199	10	3870	74
2	0	0	2250	11	3869	76
3	0	0	2278	14	3870	74
4	0	0	2283	9	3870	76
5	0	0	2295	11	3869	77
6	0	0	2318	8	3869	79
7	0	0	2238	6	3869	76
8	0	0	2140	8	3868	73
9	0	0	2048	4	3868	76
10	0	0	1932	6	3869	76
11	0	0	1852	7	3869	75
12	0	0	1821	9	3868	76
13	0	0	1815	11	3868	73
14	0	0	1822	8	3869	76
15	0	0	1841	15	3871	76
16	0	0	1853	10	3869	76
17	0	0	1919	9	3870	77
18	0	0	2004	13	3870	75
19	0	0	2069	9	3870	76
20	0	0	2137	10	3870	76
21	0	0	2200	9	3871	75
22	0	0	2251	10	3870	80
23	0	0	2279	10	3872	75
24	0	0	2285	9	3870	75
25	0	0	2296	10	3869	74
26	0	0	2326	8	3870	76
27	0	0	2243	7	3870	78
28	0	0	2140	7	3869	76
29	0	0	2053	5	3870	76
30	0	0	1934	6	3872	76
31	0	0	1848	6	3871	76
32	0	0	1811	6	3868	77
33	0	0	1806	9	3870	76
34	0	0	1815	12	3870	76
35	0	0	1838	11	3872	75
36	0	0	1850	7	3870	76
37	0	0	1925	9	3872	76
38	0	0	2006	10	3870	76
39	0	0	2064	10	3870	76
40	0	0	2126	10	3869	76
41	0	0	2188	10	3869	76
42	0	0	2240	8	3869	77
43	0	0	2273	10	3869	76
44	0	0	2283	10	3870	76
45	0	0	2297	10	3868	75
46	0	0	2322	7	3870	76
47	0	0	2238	6	3867	77
48	0	0	2136	6	3871	76
49	0	0	2050	8	3870	76
50	0	0	1938	6	3870	78
51	0	0	1856	8	3870	75
52	0	0	1822	6	3870	75
53	0	0	1809	10	3868	76
54	0	0	1814	11	3872	74
55	0	0	1832	10	3869	75
56	0	0	1845	12	3868	77
57	0	0	1924	10	3870	76
58	0	0	2006	11	3868	76
59	0	0	2067	11	3871	76
60	0	0	2135	10	3871	76
61	0	0	2202	7	3871	74
62	0	0	2257	10	3869	76
63	0	0	2287	10	3870	73
64	0	0	2284	12	3869	76
65	0	0	2291	8	3870	75
66	0	0	2315	8	3870	76
67	0	0	2234	5	3871	79
68	0	0	2134	7	3871	76
69	0	0	2050	7	3870	77
70	0	0	1936	6	3869	76
71	0	0	1858	8	3868	75
72	0	0	1826	7	3871	71
73	0	0	1814	10	3868	76
74	0	0	1819	12	3869	75
75	0	0	1830	8	3868	76
76	0	0	1842	10	3871	76
77	0	0	1916	10	3867	73
78	0	0	1999	9	3871	76
79	0	0	2061	7	3869	75
80	0	0	2130	10	3868	75
81	0	0	2198	12	3868	77
82	0	0	2250	10	3870	76
83	0	0	2278	8	3871	76
84	0	0	2287	12	3870	78
85	0	0	2298	10	3870	75
86	0	0	2327	11	3872	75
87	0	0	2239	7	3870	76
88	0	0	2144	6	3870	76
89	0	0	2056	3	3869	76
90	0	0	1937	6	3869	76
91	0	0	1859	4	3869	76
92	0	0	1831	10	3869	76
93	0	0	1812	8	3871	77
94	0	0	1815	11	3868	75
95	0	0	1832	9	3868	76
96	0	0	1842	10	3869	74
97	0	0	1910	10	3870	75
98	0	0	1996	10	3871	76
99	0	0	2061	10	3871	76
100	0	0	2132	10	3870	77
101	0	0	2204	10	3870	76
102	0	0	2259	7	3870	76
103	0	0	2284	10	3869	75
104	0	0	2286	7	3870	76
105	0	0	2299	10	3870	76
106	0	0	2319	5	3871	75
107	0	0	2233	7	3869	76
108	0	0	2137	7	3871	77
109	0	0	2057	4	3870	76
110	0	0	1941	6	3868	75
111	0	0	1861	6	3870	75
112	0	0	1827	6	3868	76
113	0	0	1819	8	3867	76
114	0	0	1823	7	3869	76
115	0	0	1841	9	3869	75
116	0	0	1848	8	3870	72
117	0	0	1919	11	3870	76
118	0	0	1996	9	3869	77
119	0	0	2058	8	3871	76
120	0	0	2131	9	3871	75
121	0	0	2198	9	3870	76
122	0	0	2251	7	3869	75
123	0	0	2279	10	3869	76
124	0	0	2284	7	3869	75
125	0	0	2292	7	3871	75
126	0	0	2317	11	3867	75
127	0	0	2230	7	3869	73
0	0	0	2134	6	3867	75
1	0	0	2050	7	3868	75
2	0	0	1932	5	3868	76
3	0	0	1852	7	3869	76
4	0	0	1819	7	3869	80
5	0	0	1812	9	3869	76
6	0	0	1819	8	3871	75
7	0	0	1836	10	3870	76
8	0	0	1846	11	3868	78
9	0	0	1923	10	3870	77
10	0	0	2000	10	3871	76
11	0	0	2061	7	3870	76
12	0	0	2132	10	3869	76
13	0	0	2195	14	3868	75
14	0	0	2248	11	3870	71
15	0	0	2280	9	3868	76
16	0	0	2293	8	3870	76
17	0	0	2302	10	3868	76
18	0	0	2324	7	3872	75
19	0	0	2239	5	3868	77
20	0	0	2136	7	3872	73
21	0	0	2051	3	3870	75
22	0	0	1937	6	3870	77
23	0	0	1855	5	3870	72
24	0	0	1822	7	3870	77
25	0	0	1812	9	3871	76
26	0	0	1815	8	3871	77
27	0	0	1837	9	3869	76
28	0	0	1843	12	3868	76
29	0	0	1914	11	3870	75
30	0	0	1995	10	3867	76
31	0	0	2065	10	3869	75
32	0	0	2139	10	3868	76
33	0	0	2199	9	3868	75
34	0	0	2251	8	3869	77
35	0	0	2282	10	3867	75
36	0	0	2285	10	3870	76
37	0	0	2297	10	3869	76
38	0	0	2330	6	3870	74
39	0	0	2244	8	3870	75
40	0	0	2139	7	3872	76
41	0	0	2054	8	3871	76
42	0	0	1942	6	3870	76
43	0	0	1860	6	3870	76
44	0	0	1826	7	3870	75
45	0	0	1815	12	3871	76
46	0	0	1817	8	3868	76
47	0	0	1835	9	3870	75
48	0	0	1841	10	3868	76
49	0	0	1921	10	3868	76
50	0	0	2007	9	3868	76
51	0	0	2069	8	3870	76
52	0	0	2141	10	3871	75
53	0	0	2199	11	3869	76
54	0	0	2253	11	3869	75
55	0	0	2285	10	3869	76
56	0	0	2286	9	3871	76
57	0	0	2288	10	3870	76
58	0	0	2320	7	3870	75
59	0	0	2241	5	3870	77
60	0	0	2143	7	3872	76
61	0	0	2058	6	3871	76
62	0	0	1945	3	3867	76
63	0	0	1864	5	3871	76
64	0	0	1828	7	3872	77
65	0	0	1814	9	3867	76
66	0	0	1821	8	3870	76
67	0	0	1841	10	3868	75
68	0	0	1845	10	3868	75
69	0	0	1925	8	3868	75
70	0	0	2005	11	3868	77
71	0	0	2062	3	3871	77
72	0	0	2131	10	3871	76
73	0	0	2194	11	3872	75
74	0	0	2248	10	3871	76
75	0	0	2272	9	3872	75
76	0	0	2276	8	3868	78
77	0	0	2291	10	3869	75
78	0	0	2324	9	3869	76
